Frequency(Hz)	Magnitude(dB)
1.000000e+01	-1.743826e-05
1.005776e+01	-1.764029e-05
1.011585e+01	-1.784466e-05
1.017428e+01	-1.805139e-05
1.023305e+01	-1.826052e-05
1.029215e+01	-1.847208e-05
1.035160e+01	-1.868608e-05
1.041139e+01	-1.890256e-05
1.047153e+01	-1.912155e-05
1.053201e+01	-1.934308e-05
1.059284e+01	-1.956718e-05
1.065403e+01	-1.979387e-05
1.071556e+01	-2.002318e-05
1.077746e+01	-2.025516e-05
1.083971e+01	-2.048982e-05
1.090232e+01	-2.072720e-05
1.096529e+01	-2.096733e-05
1.102862e+01	-2.121024e-05
1.109232e+01	-2.145597e-05
1.115639e+01	-2.170454e-05
1.122083e+01	-2.195599e-05
1.128564e+01	-2.221036e-05
1.135083e+01	-2.246767e-05
1.141639e+01	-2.272796e-05
1.148233e+01	-2.299127e-05
1.154865e+01	-2.325763e-05
1.161536e+01	-2.352708e-05
1.168245e+01	-2.379964e-05
1.174992e+01	-2.407537e-05
1.181779e+01	-2.435429e-05
1.188605e+01	-2.463644e-05
1.195470e+01	-2.492186e-05
1.202375e+01	-2.521058e-05
1.209320e+01	-2.550265e-05
1.216305e+01	-2.579811e-05
1.223330e+01	-2.609699e-05
1.230396e+01	-2.639933e-05
1.237503e+01	-2.670517e-05
1.244651e+01	-2.701455e-05
1.251840e+01	-2.732752e-05
1.259070e+01	-2.764412e-05
1.266343e+01	-2.796438e-05
1.273657e+01	-2.828836e-05
1.281014e+01	-2.861609e-05
1.288413e+01	-2.894761e-05
1.295855e+01	-2.928298e-05
1.303339e+01	-2.962223e-05
1.310867e+01	-2.996541e-05
1.318439e+01	-3.031256e-05
1.326054e+01	-3.066374e-05
1.333713e+01	-3.101899e-05
1.341417e+01	-3.137835e-05
1.349165e+01	-3.174188e-05
1.356958e+01	-3.210961e-05
1.364795e+01	-3.248161e-05
1.372678e+01	-3.285792e-05
1.380607e+01	-3.323858e-05
1.388581e+01	-3.362366e-05
1.396602e+01	-3.401320e-05
1.404668e+01	-3.440725e-05
1.412782e+01	-3.480587e-05
1.420942e+01	-3.520910e-05
1.429149e+01	-3.561701e-05
1.437404e+01	-3.602964e-05
1.445706e+01	-3.644705e-05
1.454057e+01	-3.686930e-05
1.462455e+01	-3.729644e-05
1.470902e+01	-3.772852e-05
1.479398e+01	-3.816562e-05
1.487943e+01	-3.860777e-05
1.496537e+01	-3.905505e-05
1.505181e+01	-3.950752e-05
1.513875e+01	-3.996522e-05
1.522619e+01	-4.042823e-05
1.531414e+01	-4.089660e-05
1.540259e+01	-4.137039e-05
1.549156e+01	-4.184968e-05
1.558103e+01	-4.233451e-05
1.567103e+01	-4.282497e-05
1.576155e+01	-4.332111e-05
1.585258e+01	-4.382299e-05
1.594415e+01	-4.433069e-05
1.603624e+01	-4.484427e-05
1.612886e+01	-4.536380e-05
1.622202e+01	-4.588935e-05
1.631572e+01	-4.642099e-05
1.640996e+01	-4.695879e-05
1.650474e+01	-4.750281e-05
1.660008e+01	-4.805314e-05
1.669596e+01	-4.860985e-05
1.679239e+01	-4.917301e-05
1.688938e+01	-4.974269e-05
1.698694e+01	-5.031897e-05
1.708505e+01	-5.090192e-05
1.718373e+01	-5.149163e-05
1.728299e+01	-5.208817e-05
1.738281e+01	-5.269162e-05
1.748322e+01	-5.330207e-05
1.758420e+01	-5.391958e-05
1.768576e+01	-5.454425e-05
1.778792e+01	-5.517616e-05
1.789066e+01	-5.581539e-05
1.799399e+01	-5.646202e-05
1.809793e+01	-5.711614e-05
1.820246e+01	-5.777785e-05
1.830760e+01	-5.844721e-05
1.841334e+01	-5.912434e-05
1.851969e+01	-5.980930e-05
1.862666e+01	-6.050221e-05
1.873425e+01	-6.120314e-05
1.884246e+01	-6.191219e-05
1.895129e+01	-6.262945e-05
1.906075e+01	-6.335503e-05
1.917085e+01	-6.408901e-05
1.928158e+01	-6.483149e-05
1.939295e+01	-6.558258e-05
1.950496e+01	-6.634236e-05
1.961762e+01	-6.711095e-05
1.973093e+01	-6.788844e-05
1.984490e+01	-6.867494e-05
1.995952e+01	-6.947056e-05
2.007480e+01	-7.027539e-05
2.019076e+01	-7.108954e-05
2.030738e+01	-7.191312e-05
2.042467e+01	-7.274625e-05
2.054264e+01	-7.358903e-05
2.066130e+01	-7.444157e-05
2.078064e+01	-7.530399e-05
2.090066e+01	-7.617640e-05
2.102139e+01	-7.705892e-05
2.114280e+01	-7.795166e-05
2.126492e+01	-7.885474e-05
2.138775e+01	-7.976829e-05
2.151128e+01	-8.069242e-05
2.163553e+01	-8.162725e-05
2.176050e+01	-8.257292e-05
2.188619e+01	-8.352954e-05
2.201260e+01	-8.449724e-05
2.213974e+01	-8.547616e-05
2.226762e+01	-8.646641e-05
2.239624e+01	-8.746814e-05
2.252560e+01	-8.848147e-05
2.265571e+01	-8.950655e-05
2.278656e+01	-9.054349e-05
2.291818e+01	-9.159245e-05
2.305055e+01	-9.265357e-05
2.318369e+01	-9.372697e-05
2.331760e+01	-9.481281e-05
2.345228e+01	-9.591123e-05
2.358774e+01	-9.702238e-05
2.372398e+01	-9.814640e-05
2.386101e+01	-9.928344e-05
2.399883e+01	-1.004337e-04
2.413745e+01	-1.015972e-04
2.427686e+01	-1.027742e-04
2.441709e+01	-1.039649e-04
2.455812e+01	-1.051693e-04
2.469997e+01	-1.063877e-04
2.484263e+01	-1.076202e-04
2.498612e+01	-1.088670e-04
2.513044e+01	-1.101283e-04
2.527559e+01	-1.114041e-04
2.542158e+01	-1.126947e-04
2.556842e+01	-1.140003e-04
2.571610e+01	-1.153210e-04
2.586463e+01	-1.166570e-04
2.601403e+01	-1.180085e-04
2.616428e+01	-1.193757e-04
2.631541e+01	-1.207587e-04
2.646740e+01	-1.221577e-04
2.662028e+01	-1.235729e-04
2.677404e+01	-1.250045e-04
2.692868e+01	-1.264527e-04
2.708422e+01	-1.279176e-04
2.724066e+01	-1.293996e-04
2.739800e+01	-1.308987e-04
2.755625e+01	-1.324152e-04
2.771541e+01	-1.339492e-04
2.787550e+01	-1.355010e-04
2.803650e+01	-1.370708e-04
2.819844e+01	-1.386588e-04
2.836131e+01	-1.402652e-04
2.852513e+01	-1.418901e-04
2.868989e+01	-1.435339e-04
2.885560e+01	-1.451968e-04
2.902227e+01	-1.468789e-04
2.918990e+01	-1.485805e-04
2.935850e+01	-1.503018e-04
2.952807e+01	-1.520431e-04
2.969863e+01	-1.538045e-04
2.987016e+01	-1.555864e-04
3.004269e+01	-1.573888e-04
3.021622e+01	-1.592122e-04
3.039075e+01	-1.610567e-04
3.056628e+01	-1.629225e-04
3.074283e+01	-1.648100e-04
3.092040e+01	-1.667193e-04
3.109900e+01	-1.686508e-04
3.127862e+01	-1.706046e-04
3.145929e+01	-1.725811e-04
3.164099e+01	-1.745804e-04
3.182375e+01	-1.766030e-04
3.200756e+01	-1.786489e-04
3.219244e+01	-1.807186e-04
3.237838e+01	-1.828122e-04
3.256540e+01	-1.849301e-04
3.275349e+01	-1.870725e-04
3.294268e+01	-1.892397e-04
3.313295e+01	-1.914321e-04
3.332433e+01	-1.936498e-04
3.351681e+01	-1.958933e-04
3.371040e+01	-1.981627e-04
3.390511e+01	-2.004584e-04
3.410094e+01	-2.027807e-04
3.429791e+01	-2.051299e-04
3.449601e+01	-2.075064e-04
3.469526e+01	-2.099103e-04
3.489566e+01	-2.123422e-04
3.509721e+01	-2.148021e-04
3.529993e+01	-2.172906e-04
3.550382e+01	-2.198079e-04
3.570889e+01	-2.223544e-04
3.591515e+01	-2.249304e-04
3.612259e+01	-2.275362e-04
3.633123e+01	-2.301722e-04
3.654108e+01	-2.328387e-04
3.675214e+01	-2.355361e-04
3.696442e+01	-2.382648e-04
3.717792e+01	-2.410251e-04
3.739266e+01	-2.438174e-04
3.760864e+01	-2.466420e-04
3.782587e+01	-2.494993e-04
3.804435e+01	-2.523898e-04
3.826409e+01	-2.553137e-04
3.848510e+01	-2.582715e-04
3.870739e+01	-2.612635e-04
3.893096e+01	-2.642902e-04
3.915583e+01	-2.673520e-04
3.938199e+01	-2.704493e-04
3.960946e+01	-2.735824e-04
3.983824e+01	-2.767518e-04
4.006834e+01	-2.799580e-04
4.029978e+01	-2.832013e-04
4.053255e+01	-2.864821e-04
4.076666e+01	-2.898010e-04
4.100213e+01	-2.931583e-04
4.123896e+01	-2.965545e-04
4.147715e+01	-2.999900e-04
4.171672e+01	-3.034654e-04
4.195767e+01	-3.069810e-04
4.220002e+01	-3.105373e-04
4.244377e+01	-3.141349e-04
4.268892e+01	-3.177741e-04
4.293549e+01	-3.214554e-04
4.318348e+01	-3.251794e-04
4.343291e+01	-3.289466e-04
4.368377e+01	-3.327574e-04
4.393609e+01	-3.366123e-04
4.418986e+01	-3.405119e-04
4.444510e+01	-3.444567e-04
4.470182e+01	-3.484472e-04
4.496001e+01	-3.524838e-04
4.521970e+01	-3.565673e-04
4.548089e+01	-3.606981e-04
4.574358e+01	-3.648767e-04
4.600779e+01	-3.691037e-04
4.627353e+01	-3.733797e-04
4.654081e+01	-3.777052e-04
4.680963e+01	-3.820808e-04
4.708000e+01	-3.865071e-04
4.735193e+01	-3.909847e-04
4.762543e+01	-3.955142e-04
4.790051e+01	-4.000961e-04
4.817719e+01	-4.047311e-04
4.845545e+01	-4.094198e-04
4.873533e+01	-4.141628e-04
4.901682e+01	-4.189608e-04
4.929994e+01	-4.238143e-04
4.958470e+01	-4.287241e-04
4.987110e+01	-4.336907e-04
5.015915e+01	-4.387149e-04
5.044887e+01	-4.437973e-04
5.074026e+01	-4.489385e-04
5.103333e+01	-4.541393e-04
5.132810e+01	-4.594004e-04
5.162457e+01	-4.647224e-04
5.192275e+01	-4.701060e-04
5.222265e+01	-4.755521e-04
5.252429e+01	-4.810612e-04
5.282767e+01	-4.866341e-04
5.313280e+01	-4.922715e-04
5.343969e+01	-4.979743e-04
5.374836e+01	-5.037431e-04
5.405880e+01	-5.095788e-04
5.437105e+01	-5.154821e-04
5.468509e+01	-5.214537e-04
5.500095e+01	-5.274945e-04
5.531863e+01	-5.336053e-04
5.563815e+01	-5.397869e-04
5.595951e+01	-5.460401e-04
5.628273e+01	-5.523657e-04
5.660782e+01	-5.587646e-04
5.693479e+01	-5.652376e-04
5.726364e+01	-5.717856e-04
5.759439e+01	-5.784095e-04
5.792705e+01	-5.851101e-04
5.826164e+01	-5.918883e-04
5.859815e+01	-5.987450e-04
5.893662e+01	-6.056811e-04
5.927703e+01	-6.126976e-04
5.961941e+01	-6.197954e-04
5.996377e+01	-6.269754e-04
6.031012e+01	-6.342385e-04
6.065847e+01	-6.415858e-04
6.100883e+01	-6.490182e-04
6.136121e+01	-6.565367e-04
6.171563e+01	-6.641423e-04
6.207210e+01	-6.718359e-04
6.243063e+01	-6.796187e-04
6.279122e+01	-6.874917e-04
6.315390e+01	-6.954558e-04
6.351868e+01	-7.035122e-04
6.388556e+01	-7.116619e-04
6.425456e+01	-7.199060e-04
6.462569e+01	-7.282456e-04
6.499897e+01	-7.366819e-04
6.537440e+01	-7.452158e-04
6.575200e+01	-7.538486e-04
6.613178e+01	-7.625813e-04
6.651375e+01	-7.714153e-04
6.689793e+01	-7.803515e-04
6.728433e+01	-7.893913e-04
6.767297e+01	-7.985358e-04
6.806384e+01	-8.077862e-04
6.845698e+01	-8.171437e-04
6.885238e+01	-8.266096e-04
6.925007e+01	-8.361852e-04
6.965005e+01	-8.458717e-04
7.005235e+01	-8.556704e-04
7.045697e+01	-8.655826e-04
7.086393e+01	-8.756096e-04
7.127323e+01	-8.857527e-04
7.168490e+01	-8.960134e-04
7.209895e+01	-9.063928e-04
7.251539e+01	-9.168925e-04
7.293424e+01	-9.275138e-04
7.335551e+01	-9.382582e-04
7.377920e+01	-9.491270e-04
7.420535e+01	-9.601217e-04
7.463396e+01	-9.712437e-04
7.506504e+01	-9.824945e-04
7.549861e+01	-9.938757e-04
7.593469e+01	-1.005389e-03
7.637328e+01	-1.017035e-03
7.681441e+01	-1.028816e-03
7.725809e+01	-1.040734e-03
7.770433e+01	-1.052790e-03
7.815315e+01	-1.064985e-03
7.860456e+01	-1.077322e-03
7.905857e+01	-1.089801e-03
7.951521e+01	-1.102425e-03
7.997449e+01	-1.115195e-03
8.043642e+01	-1.128114e-03
8.090102e+01	-1.141181e-03
8.136830e+01	-1.154401e-03
8.183828e+01	-1.167773e-03
8.231097e+01	-1.181300e-03
8.278640e+01	-1.194984e-03
8.326457e+01	-1.208826e-03
8.374550e+01	-1.222829e-03
8.422921e+01	-1.236993e-03
8.471572e+01	-1.251322e-03
8.520503e+01	-1.265817e-03
8.569717e+01	-1.280480e-03
8.619215e+01	-1.295312e-03
8.669000e+01	-1.310316e-03
8.719071e+01	-1.325494e-03
8.769432e+01	-1.340848e-03
8.820084e+01	-1.356380e-03
8.871029e+01	-1.372092e-03
8.922267e+01	-1.387985e-03
8.973802e+01	-1.404063e-03
9.025634e+01	-1.420326e-03
9.077766e+01	-1.436779e-03
9.130199e+01	-1.453421e-03
9.182935e+01	-1.470257e-03
9.235975e+01	-1.487287e-03
9.289321e+01	-1.504515e-03
9.342976e+01	-1.521942e-03
9.396941e+01	-1.539571e-03
9.451217e+01	-1.557404e-03
9.505807e+01	-1.575444e-03
9.560712e+01	-1.593692e-03
9.615934e+01	-1.612152e-03
9.671476e+01	-1.630826e-03
9.727338e+01	-1.649716e-03
9.783522e+01	-1.668825e-03
9.840032e+01	-1.688155e-03
9.896867e+01	-1.707708e-03
9.954031e+01	-1.727489e-03
1.001153e+02	-1.747498e-03
1.006935e+02	-1.767739e-03
1.012751e+02	-1.788215e-03
1.018601e+02	-1.808927e-03
1.024484e+02	-1.829880e-03
1.030402e+02	-1.851075e-03
1.036353e+02	-1.872516e-03
1.042339e+02	-1.894204e-03
1.048360e+02	-1.916145e-03
1.054415e+02	-1.938339e-03
1.060505e+02	-1.960790e-03
1.066631e+02	-1.983501e-03
1.072791e+02	-2.006475e-03
1.078988e+02	-2.029715e-03
1.085220e+02	-2.053224e-03
1.091488e+02	-2.077006e-03
1.097793e+02	-2.101062e-03
1.104133e+02	-2.125398e-03
1.110511e+02	-2.150015e-03
1.116925e+02	-2.174917e-03
1.123376e+02	-2.200108e-03
1.129865e+02	-2.225590e-03
1.136391e+02	-2.251368e-03
1.142955e+02	-2.277443e-03
1.149556e+02	-2.303821e-03
1.156196e+02	-2.330504e-03
1.162874e+02	-2.357497e-03
1.169591e+02	-2.384801e-03
1.176347e+02	-2.412422e-03
1.183141e+02	-2.440363e-03
1.189975e+02	-2.468627e-03
1.196848e+02	-2.497219e-03
1.203761e+02	-2.526141e-03
1.210714e+02	-2.555398e-03
1.217707e+02	-2.584995e-03
1.224740e+02	-2.614933e-03
1.231814e+02	-2.645219e-03
1.238929e+02	-2.675855e-03
1.246085e+02	-2.706846e-03
1.253283e+02	-2.738195e-03
1.260522e+02	-2.769908e-03
1.267802e+02	-2.801988e-03
1.275125e+02	-2.834439e-03
1.282490e+02	-2.867266e-03
1.289898e+02	-2.900473e-03
1.297348e+02	-2.934064e-03
1.304842e+02	-2.968044e-03
1.312378e+02	-3.002418e-03
1.319959e+02	-3.037190e-03
1.327583e+02	-3.072364e-03
1.335251e+02	-3.107945e-03
1.342963e+02	-3.143939e-03
1.350720e+02	-3.180349e-03
1.358522e+02	-3.217180e-03
1.366368e+02	-3.254438e-03
1.374260e+02	-3.292127e-03
1.382198e+02	-3.330253e-03
1.390182e+02	-3.368820e-03
1.398211e+02	-3.407833e-03
1.406287e+02	-3.447298e-03
1.414410e+02	-3.487220e-03
1.422579e+02	-3.527604e-03
1.430796e+02	-3.568455e-03
1.439060e+02	-3.609779e-03
1.447372e+02	-3.651582e-03
1.455732e+02	-3.693868e-03
1.464141e+02	-3.736644e-03
1.472597e+02	-3.779915e-03
1.481103e+02	-3.823687e-03
1.489658e+02	-3.867966e-03
1.498262e+02	-3.912757e-03
1.506916e+02	-3.958067e-03
1.515620e+02	-4.003901e-03
1.524374e+02	-4.050266e-03
1.533179e+02	-4.097167e-03
1.542034e+02	-4.144611e-03
1.550941e+02	-4.192604e-03
1.559899e+02	-4.241153e-03
1.568909e+02	-4.290263e-03
1.577971e+02	-4.339942e-03
1.587085e+02	-4.390196e-03
1.596252e+02	-4.441031e-03
1.605472e+02	-4.492455e-03
1.614745e+02	-4.544474e-03
1.624072e+02	-4.597095e-03
1.633453e+02	-4.650325e-03
1.642887e+02	-4.704171e-03
1.652377e+02	-4.758640e-03
1.661921e+02	-4.813740e-03
1.671520e+02	-4.869477e-03
1.681175e+02	-4.925859e-03
1.690885e+02	-4.982893e-03
1.700651e+02	-5.040588e-03
1.710474e+02	-5.098950e-03
1.720354e+02	-5.157988e-03
1.730291e+02	-5.217708e-03
1.740285e+02	-5.278120e-03
1.750337e+02	-5.339231e-03
1.760446e+02	-5.401049e-03
1.770615e+02	-5.463582e-03
1.780842e+02	-5.526838e-03
1.791128e+02	-5.590827e-03
1.801473e+02	-5.655556e-03
1.811878e+02	-5.721033e-03
1.822344e+02	-5.787269e-03
1.832870e+02	-5.854271e-03
1.843456e+02	-5.922047e-03
1.854104e+02	-5.990608e-03
1.864813e+02	-6.059963e-03
1.875584e+02	-6.130119e-03
1.886418e+02	-6.201087e-03
1.897313e+02	-6.272876e-03
1.908272e+02	-6.345496e-03
1.919294e+02	-6.418956e-03
1.930380e+02	-6.493265e-03
1.941530e+02	-6.568434e-03
1.952744e+02	-6.644473e-03
1.964023e+02	-6.721391e-03
1.975367e+02	-6.799199e-03
1.986777e+02	-6.877907e-03
1.998252e+02	-6.957525e-03
2.009794e+02	-7.038065e-03
2.021403e+02	-7.119535e-03
2.033078e+02	-7.201949e-03
2.044821e+02	-7.285315e-03
2.056632e+02	-7.369645e-03
2.068511e+02	-7.454951e-03
2.080459e+02	-7.541243e-03
2.092475e+02	-7.628534e-03
2.104561e+02	-7.716833e-03
2.116717e+02	-7.806154e-03
2.128943e+02	-7.896508e-03
2.141240e+02	-7.987907e-03
2.153608e+02	-8.080362e-03
2.166047e+02	-8.173887e-03
2.178558e+02	-8.268493e-03
2.191141e+02	-8.364193e-03
2.203797e+02	-8.461000e-03
2.216526e+02	-8.558926e-03
2.229329e+02	-8.657984e-03
2.242205e+02	-8.758188e-03
2.255156e+02	-8.859550e-03
2.268182e+02	-8.962083e-03
2.281283e+02	-9.065803e-03
2.294459e+02	-9.170721e-03
2.307712e+02	-9.276853e-03
2.321041e+02	-9.384211e-03
2.334447e+02	-9.492810e-03
2.347931e+02	-9.602665e-03
2.361493e+02	-9.713789e-03
2.375133e+02	-9.826198e-03
2.388851e+02	-9.939907e-03
2.402649e+02	-1.005493e-02
2.416527e+02	-1.017128e-02
2.430484e+02	-1.028898e-02
2.444523e+02	-1.040804e-02
2.458642e+02	-1.052847e-02
2.472843e+02	-1.065029e-02
2.487126e+02	-1.077353e-02
2.501492e+02	-1.089818e-02
2.515940e+02	-1.102428e-02
2.530472e+02	-1.115184e-02
2.545088e+02	-1.128086e-02
2.559789e+02	-1.141138e-02
2.574574e+02	-1.154341e-02
2.589444e+02	-1.167696e-02
2.604401e+02	-1.181206e-02
2.619444e+02	-1.194872e-02
2.634574e+02	-1.208695e-02
2.649791e+02	-1.222678e-02
2.665096e+02	-1.236823e-02
2.680489e+02	-1.251131e-02
2.695972e+02	-1.265605e-02
2.711544e+02	-1.280246e-02
2.727205e+02	-1.295055e-02
2.742958e+02	-1.310036e-02
2.758801e+02	-1.325190e-02
2.774736e+02	-1.340519e-02
2.790762e+02	-1.356025e-02
2.806882e+02	-1.371710e-02
2.823094e+02	-1.387576e-02
2.839400e+02	-1.403625e-02
2.855800e+02	-1.419860e-02
2.872295e+02	-1.436282e-02
2.888886e+02	-1.452894e-02
2.905572e+02	-1.469698e-02
2.922354e+02	-1.486695e-02
2.939234e+02	-1.503889e-02
2.956211e+02	-1.521281e-02
2.973286e+02	-1.538874e-02
2.990459e+02	-1.556671e-02
3.007732e+02	-1.574672e-02
3.025104e+02	-1.592882e-02
3.042577e+02	-1.611301e-02
3.060151e+02	-1.629933e-02
3.077826e+02	-1.648781e-02
3.095604e+02	-1.667845e-02
3.113484e+02	-1.687130e-02
3.131467e+02	-1.706637e-02
3.149554e+02	-1.726370e-02
3.167746e+02	-1.746330e-02
3.186043e+02	-1.766520e-02
3.204445e+02	-1.786944e-02
3.222954e+02	-1.807603e-02
3.241570e+02	-1.828500e-02
3.260293e+02	-1.849638e-02
3.279124e+02	-1.871020e-02
3.298064e+02	-1.892649e-02
3.317114e+02	-1.914528e-02
3.336273e+02	-1.936658e-02
3.355544e+02	-1.959044e-02
3.374925e+02	-1.981688e-02
3.394418e+02	-2.004593e-02
3.414024e+02	-2.027763e-02
3.433744e+02	-2.051199e-02
3.453577e+02	-2.074906e-02
3.473525e+02	-2.098886e-02
3.493588e+02	-2.123143e-02
3.513766e+02	-2.147679e-02
3.534062e+02	-2.172498e-02
3.554474e+02	-2.197603e-02
3.575005e+02	-2.222997e-02
3.595654e+02	-2.248684e-02
3.616422e+02	-2.274667e-02
3.637311e+02	-2.300950e-02
3.658320e+02	-2.327535e-02
3.679450e+02	-2.354427e-02
3.700702e+02	-2.381629e-02
3.722077e+02	-2.409144e-02
3.743576e+02	-2.436976e-02
3.765199e+02	-2.465128e-02
3.786946e+02	-2.493605e-02
3.808820e+02	-2.522410e-02
3.830819e+02	-2.551547e-02
3.852946e+02	-2.581019e-02
3.875200e+02	-2.610830e-02
3.897583e+02	-2.640985e-02
3.920096e+02	-2.671487e-02
3.942738e+02	-2.702341e-02
3.965511e+02	-2.733549e-02
3.988416e+02	-2.765117e-02
4.011452e+02	-2.797048e-02
4.034622e+02	-2.829347e-02
4.057926e+02	-2.862017e-02
4.081365e+02	-2.895063e-02
4.104938e+02	-2.928490e-02
4.128648e+02	-2.962301e-02
4.152495e+02	-2.996502e-02
4.176480e+02	-3.031095e-02
4.200603e+02	-3.066087e-02
4.224866e+02	-3.101481e-02
4.249268e+02	-3.137282e-02
4.273812e+02	-3.173495e-02
4.298497e+02	-3.210125e-02
4.323325e+02	-3.247176e-02
4.348297e+02	-3.284652e-02
4.373412e+02	-3.322560e-02
4.398673e+02	-3.360903e-02
4.424079e+02	-3.399687e-02
4.449633e+02	-3.438917e-02
4.475334e+02	-3.478598e-02
4.501183e+02	-3.518735e-02
4.527182e+02	-3.559333e-02
4.553330e+02	-3.600397e-02
4.579630e+02	-3.641933e-02
4.606082e+02	-3.683947e-02
4.632687e+02	-3.726443e-02
4.659445e+02	-3.769426e-02
4.686358e+02	-3.812904e-02
4.713426e+02	-3.856881e-02
4.740650e+02	-3.901363e-02
4.768032e+02	-3.946355e-02
4.795572e+02	-3.991864e-02
4.823271e+02	-4.037895e-02
4.851130e+02	-4.084455e-02
4.879150e+02	-4.131549e-02
4.907332e+02	-4.179183e-02
4.935676e+02	-4.227364e-02
4.964185e+02	-4.276097e-02
4.992858e+02	-4.325390e-02
5.021696e+02	-4.375247e-02
5.050701e+02	-4.425677e-02
5.079874e+02	-4.476685e-02
5.109215e+02	-4.528277e-02
5.138726e+02	-4.580461e-02
5.168407e+02	-4.633244e-02
5.198259e+02	-4.686631e-02
5.228284e+02	-4.740630e-02
5.258482e+02	-4.795247e-02
5.288855e+02	-4.850491e-02
5.319403e+02	-4.906367e-02
5.350128e+02	-4.962883e-02
5.381030e+02	-5.020046e-02
5.412111e+02	-5.077864e-02
5.443371e+02	-5.136344e-02
5.474812e+02	-5.195494e-02
5.506434e+02	-5.255320e-02
5.538239e+02	-5.315831e-02
5.570228e+02	-5.377035e-02
5.602401e+02	-5.438938e-02
5.634760e+02	-5.501550e-02
5.667306e+02	-5.564878e-02
5.700040e+02	-5.628930e-02
5.732964e+02	-5.693715e-02
5.766077e+02	-5.759240e-02
5.799382e+02	-5.825515e-02
5.832879e+02	-5.892546e-02
5.866569e+02	-5.960344e-02
5.900454e+02	-6.028916e-02
5.934535e+02	-6.098272e-02
5.968813e+02	-6.168420e-02
6.003288e+02	-6.239369e-02
6.037963e+02	-6.311128e-02
6.072838e+02	-6.383706e-02
6.107914e+02	-6.457113e-02
6.143194e+02	-6.531357e-02
6.178676e+02	-6.606449e-02
6.214364e+02	-6.682397e-02
6.250258e+02	-6.759212e-02
6.286359e+02	-6.836902e-02
6.322669e+02	-6.915479e-02
6.359189e+02	-6.994951e-02
6.395919e+02	-7.075329e-02
6.432862e+02	-7.156623e-02
6.470017e+02	-7.238843e-02
6.507388e+02	-7.322000e-02
6.544974e+02	-7.406104e-02
6.582778e+02	-7.491166e-02
6.620800e+02	-7.577196e-02
6.659041e+02	-7.664205e-02
6.697504e+02	-7.752205e-02
6.736188e+02	-7.841205e-02
6.775096e+02	-7.931219e-02
6.814229e+02	-8.022256e-02
6.853587e+02	-8.114328e-02
6.893173e+02	-8.207446e-02
6.932988e+02	-8.301624e-02
6.973033e+02	-8.396871e-02
7.013309e+02	-8.493200e-02
