Frequency(Hz)	Magnitude(dB)
1.000000e+01	-1.579270e-05
1.005776e+01	-1.597566e-05
1.011585e+01	-1.616074e-05
1.017428e+01	-1.634797e-05
1.023305e+01	-1.653736e-05
1.029215e+01	-1.672895e-05
1.035160e+01	-1.692276e-05
1.041139e+01	-1.711882e-05
1.047153e+01	-1.731714e-05
1.053201e+01	-1.751777e-05
1.059284e+01	-1.772071e-05
1.065403e+01	-1.792601e-05
1.071556e+01	-1.813369e-05
1.077746e+01	-1.834377e-05
1.083971e+01	-1.855629e-05
1.090232e+01	-1.877127e-05
1.096529e+01	-1.898874e-05
1.102862e+01	-1.920873e-05
1.109232e+01	-1.943127e-05
1.115639e+01	-1.965638e-05
1.122083e+01	-1.988411e-05
1.128564e+01	-2.011447e-05
1.135083e+01	-2.034750e-05
1.141639e+01	-2.058323e-05
1.148233e+01	-2.082170e-05
1.154865e+01	-2.106292e-05
1.161536e+01	-2.130694e-05
1.168245e+01	-2.155379e-05
1.174992e+01	-2.180349e-05
1.181779e+01	-2.205609e-05
1.188605e+01	-2.231162e-05
1.195470e+01	-2.257010e-05
1.202375e+01	-2.283158e-05
1.209320e+01	-2.309609e-05
1.216305e+01	-2.336366e-05
1.223330e+01	-2.363434e-05
1.230396e+01	-2.390815e-05
1.237503e+01	-2.418513e-05
1.244651e+01	-2.446532e-05
1.251840e+01	-2.474876e-05
1.259070e+01	-2.503548e-05
1.266343e+01	-2.532552e-05
1.273657e+01	-2.561892e-05
1.281014e+01	-2.591572e-05
1.288413e+01	-2.621596e-05
1.295855e+01	-2.651968e-05
1.303339e+01	-2.682692e-05
1.310867e+01	-2.713772e-05
1.318439e+01	-2.745211e-05
1.326054e+01	-2.777015e-05
1.333713e+01	-2.809188e-05
1.341417e+01	-2.841733e-05
1.349165e+01	-2.874655e-05
1.356958e+01	-2.907959e-05
1.364795e+01	-2.941648e-05
1.372678e+01	-2.975728e-05
1.380607e+01	-3.010202e-05
1.388581e+01	-3.045076e-05
1.396602e+01	-3.080354e-05
1.404668e+01	-3.116041e-05
1.412782e+01	-3.152141e-05
1.420942e+01	-3.188659e-05
1.429149e+01	-3.225600e-05
1.437404e+01	-3.262970e-05
1.445706e+01	-3.300772e-05
1.454057e+01	-3.339012e-05
1.462455e+01	-3.377695e-05
1.470902e+01	-3.416827e-05
1.479398e+01	-3.456412e-05
1.487943e+01	-3.496455e-05
1.496537e+01	-3.536962e-05
1.505181e+01	-3.577939e-05
1.513875e+01	-3.619390e-05
1.522619e+01	-3.661321e-05
1.531414e+01	-3.703739e-05
1.540259e+01	-3.746647e-05
1.549156e+01	-3.790053e-05
1.558103e+01	-3.833962e-05
1.567103e+01	-3.878379e-05
1.576155e+01	-3.923311e-05
1.585258e+01	-3.968763e-05
1.594415e+01	-4.014742e-05
1.603624e+01	-4.061254e-05
1.612886e+01	-4.108305e-05
1.622202e+01	-4.155900e-05
1.631572e+01	-4.204047e-05
1.640996e+01	-4.252752e-05
1.650474e+01	-4.302021e-05
1.660008e+01	-4.351861e-05
1.669596e+01	-4.402278e-05
1.679239e+01	-4.453280e-05
1.688938e+01	-4.504872e-05
1.698694e+01	-4.557062e-05
1.708505e+01	-4.609856e-05
1.718373e+01	-4.663263e-05
1.728299e+01	-4.717288e-05
1.738281e+01	-4.771938e-05
1.748322e+01	-4.827222e-05
1.758420e+01	-4.883147e-05
1.768576e+01	-4.939719e-05
1.778792e+01	-4.996947e-05
1.789066e+01	-5.054837e-05
1.799399e+01	-5.113399e-05
1.809793e+01	-5.172639e-05
1.820246e+01	-5.232565e-05
1.830760e+01	-5.293185e-05
1.841334e+01	-5.354508e-05
1.851969e+01	-5.416541e-05
1.862666e+01	-5.479293e-05
1.873425e+01	-5.542771e-05
1.884246e+01	-5.606985e-05
1.895129e+01	-5.671943e-05
1.906075e+01	-5.737654e-05
1.917085e+01	-5.804126e-05
1.928158e+01	-5.871368e-05
1.939295e+01	-5.939389e-05
1.950496e+01	-6.008198e-05
1.961762e+01	-6.077804e-05
1.973093e+01	-6.148217e-05
1.984490e+01	-6.219445e-05
1.995952e+01	-6.291498e-05
2.007480e+01	-6.364387e-05
2.019076e+01	-6.438119e-05
2.030738e+01	-6.512706e-05
2.042467e+01	-6.588157e-05
2.054264e+01	-6.664482e-05
2.066130e+01	-6.741691e-05
2.078064e+01	-6.819795e-05
2.090066e+01	-6.898804e-05
2.102139e+01	-6.978728e-05
2.114280e+01	-7.059578e-05
2.126492e+01	-7.141364e-05
2.138775e+01	-7.224098e-05
2.151128e+01	-7.307791e-05
2.163553e+01	-7.392453e-05
2.176050e+01	-7.478096e-05
2.188619e+01	-7.564731e-05
2.201260e+01	-7.652369e-05
2.213974e+01	-7.741023e-05
2.226762e+01	-7.830705e-05
2.239624e+01	-7.921425e-05
2.252560e+01	-8.013196e-05
2.265571e+01	-8.106030e-05
2.278656e+01	-8.199940e-05
2.291818e+01	-8.294937e-05
2.305055e+01	-8.391036e-05
2.318369e+01	-8.488247e-05
2.331760e+01	-8.586585e-05
2.345228e+01	-8.686062e-05
2.358774e+01	-8.786691e-05
2.372398e+01	-8.888487e-05
2.386101e+01	-8.991461e-05
2.399883e+01	-9.095629e-05
2.413745e+01	-9.201003e-05
2.427686e+01	-9.307598e-05
2.441709e+01	-9.415428e-05
2.455812e+01	-9.524507e-05
2.469997e+01	-9.634850e-05
2.484263e+01	-9.746471e-05
2.498612e+01	-9.859385e-05
2.513044e+01	-9.973608e-05
2.527559e+01	-1.008915e-04
2.542158e+01	-1.020604e-04
2.556842e+01	-1.032428e-04
2.571610e+01	-1.044388e-04
2.586463e+01	-1.056488e-04
2.601403e+01	-1.068727e-04
2.616428e+01	-1.081109e-04
2.631541e+01	-1.093634e-04
2.646740e+01	-1.106303e-04
2.662028e+01	-1.119120e-04
2.677404e+01	-1.132085e-04
2.692868e+01	-1.145201e-04
2.708422e+01	-1.158468e-04
2.724066e+01	-1.171889e-04
2.739800e+01	-1.185465e-04
2.755625e+01	-1.199199e-04
2.771541e+01	-1.213092e-04
2.787550e+01	-1.227146e-04
2.803650e+01	-1.241362e-04
2.819844e+01	-1.255744e-04
2.836131e+01	-1.270292e-04
2.852513e+01	-1.285008e-04
2.868989e+01	-1.299895e-04
2.885560e+01	-1.314954e-04
2.902227e+01	-1.330188e-04
2.918990e+01	-1.345599e-04
2.935850e+01	-1.361188e-04
2.952807e+01	-1.376957e-04
2.969863e+01	-1.392909e-04
2.987016e+01	-1.409046e-04
3.004269e+01	-1.425370e-04
3.021622e+01	-1.441883e-04
3.039075e+01	-1.458588e-04
3.056628e+01	-1.475485e-04
3.074283e+01	-1.492579e-04
3.092040e+01	-1.509871e-04
3.109900e+01	-1.527363e-04
3.127862e+01	-1.545057e-04
3.145929e+01	-1.562957e-04
3.164099e+01	-1.581064e-04
3.182375e+01	-1.599381e-04
3.200756e+01	-1.617909e-04
3.219244e+01	-1.636653e-04
3.237838e+01	-1.655614e-04
3.256540e+01	-1.674794e-04
3.275349e+01	-1.694197e-04
3.294268e+01	-1.713824e-04
3.313295e+01	-1.733679e-04
3.332433e+01	-1.753764e-04
3.351681e+01	-1.774081e-04
3.371040e+01	-1.794634e-04
3.390511e+01	-1.815425e-04
3.410094e+01	-1.836456e-04
3.429791e+01	-1.857732e-04
3.449601e+01	-1.879254e-04
3.469526e+01	-1.901025e-04
3.489566e+01	-1.923048e-04
3.509721e+01	-1.945327e-04
3.529993e+01	-1.967864e-04
3.550382e+01	-1.990661e-04
3.570889e+01	-2.013723e-04
3.591515e+01	-2.037052e-04
3.612259e+01	-2.060651e-04
3.633123e+01	-2.084524e-04
3.654108e+01	-2.108673e-04
3.675214e+01	-2.133102e-04
3.696442e+01	-2.157814e-04
3.717792e+01	-2.182812e-04
3.739266e+01	-2.208100e-04
3.760864e+01	-2.233681e-04
3.782587e+01	-2.259558e-04
3.804435e+01	-2.285735e-04
3.826409e+01	-2.312215e-04
3.848510e+01	-2.339002e-04
3.870739e+01	-2.366099e-04
3.893096e+01	-2.393511e-04
3.915583e+01	-2.421239e-04
3.938199e+01	-2.449289e-04
3.960946e+01	-2.477664e-04
3.983824e+01	-2.506368e-04
4.006834e+01	-2.535404e-04
4.029978e+01	-2.564776e-04
4.053255e+01	-2.594489e-04
4.076666e+01	-2.624546e-04
4.100213e+01	-2.654951e-04
4.123896e+01	-2.685709e-04
4.147715e+01	-2.716822e-04
4.171672e+01	-2.748297e-04
4.195767e+01	-2.780135e-04
4.220002e+01	-2.812343e-04
4.244377e+01	-2.844924e-04
4.268892e+01	-2.877882e-04
4.293549e+01	-2.911222e-04
4.318348e+01	-2.944948e-04
4.343291e+01	-2.979065e-04
4.368377e+01	-3.013577e-04
4.393609e+01	-3.048489e-04
4.418986e+01	-3.083805e-04
4.444510e+01	-3.119531e-04
4.470182e+01	-3.155670e-04
4.496001e+01	-3.192228e-04
4.521970e+01	-3.229209e-04
4.548089e+01	-3.266619e-04
4.574358e+01	-3.304462e-04
4.600779e+01	-3.342744e-04
4.627353e+01	-3.381469e-04
4.654081e+01	-3.420643e-04
4.680963e+01	-3.460270e-04
4.708000e+01	-3.500357e-04
4.735193e+01	-3.540908e-04
4.762543e+01	-3.581929e-04
4.790051e+01	-3.623425e-04
4.817719e+01	-3.665401e-04
4.845545e+01	-3.707864e-04
4.873533e+01	-3.750819e-04
4.901682e+01	-3.794271e-04
4.929994e+01	-3.838227e-04
4.958470e+01	-3.882692e-04
4.987110e+01	-3.927672e-04
5.015915e+01	-3.973173e-04
5.044887e+01	-4.019201e-04
5.074026e+01	-4.065762e-04
5.103333e+01	-4.112863e-04
5.132810e+01	-4.160510e-04
5.162457e+01	-4.208708e-04
5.192275e+01	-4.257465e-04
5.222265e+01	-4.306786e-04
5.252429e+01	-4.356679e-04
5.282767e+01	-4.407150e-04
5.313280e+01	-4.458205e-04
5.343969e+01	-4.509852e-04
5.374836e+01	-4.562097e-04
5.405880e+01	-4.614947e-04
5.437105e+01	-4.668410e-04
5.468509e+01	-4.722492e-04
5.500095e+01	-4.777200e-04
5.531863e+01	-4.832542e-04
5.563815e+01	-4.888526e-04
5.595951e+01	-4.945157e-04
5.628273e+01	-5.002445e-04
5.660782e+01	-5.060396e-04
5.693479e+01	-5.119019e-04
5.726364e+01	-5.178321e-04
5.759439e+01	-5.238309e-04
5.792705e+01	-5.298993e-04
5.826164e+01	-5.360379e-04
5.859815e+01	-5.422477e-04
5.893662e+01	-5.485294e-04
5.927703e+01	-5.548838e-04
5.961941e+01	-5.613119e-04
5.996377e+01	-5.678144e-04
6.031012e+01	-5.743923e-04
6.065847e+01	-5.810463e-04
6.100883e+01	-5.877775e-04
6.136121e+01	-5.945866e-04
6.171563e+01	-6.014745e-04
6.207210e+01	-6.084423e-04
6.243063e+01	-6.154908e-04
6.279122e+01	-6.226209e-04
6.315390e+01	-6.298336e-04
6.351868e+01	-6.371299e-04
6.388556e+01	-6.445106e-04
6.425456e+01	-6.519769e-04
6.462569e+01	-6.595297e-04
6.499897e+01	-6.671699e-04
6.537440e+01	-6.748987e-04
6.575200e+01	-6.827169e-04
6.613178e+01	-6.906258e-04
6.651375e+01	-6.986262e-04
6.689793e+01	-7.067193e-04
6.728433e+01	-7.149062e-04
6.767297e+01	-7.231879e-04
6.806384e+01	-7.315655e-04
6.845698e+01	-7.400402e-04
6.885238e+01	-7.486130e-04
6.925007e+01	-7.572851e-04
6.965005e+01	-7.660577e-04
7.005235e+01	-7.749319e-04
7.045697e+01	-7.839089e-04
7.086393e+01	-7.929899e-04
7.127323e+01	-8.021760e-04
7.168490e+01	-8.114686e-04
7.209895e+01	-8.208688e-04
7.251539e+01	-8.303779e-04
7.293424e+01	-8.399971e-04
7.335551e+01	-8.497277e-04
7.377920e+01	-8.595711e-04
7.420535e+01	-8.695285e-04
7.463396e+01	-8.796012e-04
7.506504e+01	-8.897905e-04
7.549861e+01	-9.000979e-04
7.593469e+01	-9.105247e-04
7.637328e+01	-9.210723e-04
7.681441e+01	-9.317420e-04
7.725809e+01	-9.425353e-04
7.770433e+01	-9.534536e-04
7.815315e+01	-9.644984e-04
7.860456e+01	-9.756712e-04
7.905857e+01	-9.869733e-04
7.951521e+01	-9.984063e-04
7.997449e+01	-1.009972e-03
8.043642e+01	-1.021671e-03
8.090102e+01	-1.033506e-03
8.136830e+01	-1.045478e-03
8.183828e+01	-1.057589e-03
8.231097e+01	-1.069840e-03
8.278640e+01	-1.082233e-03
8.326457e+01	-1.094769e-03
8.374550e+01	-1.107451e-03
8.422921e+01	-1.120279e-03
8.471572e+01	-1.133256e-03
8.520503e+01	-1.146383e-03
8.569717e+01	-1.159663e-03
8.619215e+01	-1.173096e-03
8.669000e+01	-1.186685e-03
8.719071e+01	-1.200431e-03
8.769432e+01	-1.214336e-03
8.820084e+01	-1.228403e-03
8.871029e+01	-1.242632e-03
8.922267e+01	-1.257026e-03
8.973802e+01	-1.271587e-03
9.025634e+01	-1.286317e-03
9.077766e+01	-1.301217e-03
9.130199e+01	-1.316289e-03
9.182935e+01	-1.331537e-03
9.235975e+01	-1.346960e-03
9.289321e+01	-1.362563e-03
9.342976e+01	-1.378346e-03
9.396941e+01	-1.394312e-03
9.451217e+01	-1.410463e-03
9.505807e+01	-1.426801e-03
9.560712e+01	-1.443328e-03
9.615934e+01	-1.460046e-03
9.671476e+01	-1.476959e-03
9.727338e+01	-1.494067e-03
9.783522e+01	-1.511373e-03
9.840032e+01	-1.528879e-03
9.896867e+01	-1.546589e-03
9.954031e+01	-1.564503e-03
1.001153e+02	-1.582625e-03
1.006935e+02	-1.600957e-03
1.012751e+02	-1.619501e-03
1.018601e+02	-1.638259e-03
1.024484e+02	-1.657236e-03
1.030402e+02	-1.676431e-03
1.036353e+02	-1.695849e-03
1.042339e+02	-1.715492e-03
1.048360e+02	-1.735363e-03
1.054415e+02	-1.755463e-03
1.060505e+02	-1.775797e-03
1.066631e+02	-1.796366e-03
1.072791e+02	-1.817173e-03
1.078988e+02	-1.838221e-03
1.085220e+02	-1.859512e-03
1.091488e+02	-1.881051e-03
1.097793e+02	-1.902838e-03
1.104133e+02	-1.924878e-03
1.110511e+02	-1.947174e-03
1.116925e+02	-1.969727e-03
1.123376e+02	-1.992542e-03
1.129865e+02	-2.015620e-03
1.136391e+02	-2.038966e-03
1.142955e+02	-2.062583e-03
1.149556e+02	-2.086473e-03
1.156196e+02	-2.110639e-03
1.162874e+02	-2.135085e-03
1.169591e+02	-2.159815e-03
1.176347e+02	-2.184830e-03
1.183141e+02	-2.210136e-03
1.189975e+02	-2.235734e-03
1.196848e+02	-2.261629e-03
1.203761e+02	-2.287824e-03
1.210714e+02	-2.314322e-03
1.217707e+02	-2.341126e-03
1.224740e+02	-2.368242e-03
1.231814e+02	-2.395671e-03
1.238929e+02	-2.423417e-03
1.246085e+02	-2.451485e-03
1.253283e+02	-2.479878e-03
1.260522e+02	-2.508600e-03
1.267802e+02	-2.537654e-03
1.275125e+02	-2.567045e-03
1.282490e+02	-2.596776e-03
1.289898e+02	-2.626851e-03
1.297348e+02	-2.657275e-03
1.304842e+02	-2.688051e-03
1.312378e+02	-2.719183e-03
1.319959e+02	-2.750675e-03
1.327583e+02	-2.782532e-03
1.335251e+02	-2.814758e-03
1.342963e+02	-2.847357e-03
1.350720e+02	-2.880333e-03
1.358522e+02	-2.913692e-03
1.366368e+02	-2.947436e-03
1.374260e+02	-2.981571e-03
1.382198e+02	-3.016101e-03
1.390182e+02	-3.051031e-03
1.398211e+02	-3.086366e-03
1.406287e+02	-3.122109e-03
1.414410e+02	-3.158267e-03
1.422579e+02	-3.194842e-03
1.430796e+02	-3.231842e-03
1.439060e+02	-3.269269e-03
1.447372e+02	-3.307130e-03
1.455732e+02	-3.345429e-03
1.464141e+02	-3.384172e-03
1.472597e+02	-3.423363e-03
1.481103e+02	-3.463008e-03
1.489658e+02	-3.503111e-03
1.498262e+02	-3.543679e-03
1.506916e+02	-3.584717e-03
1.515620e+02	-3.626229e-03
1.524374e+02	-3.668222e-03
1.533179e+02	-3.710701e-03
1.542034e+02	-3.753672e-03
1.550941e+02	-3.797140e-03
1.559899e+02	-3.841112e-03
1.568909e+02	-3.885592e-03
1.577971e+02	-3.930587e-03
1.587085e+02	-3.976103e-03
1.596252e+02	-4.022146e-03
1.605472e+02	-4.068722e-03
1.614745e+02	-4.115837e-03
1.624072e+02	-4.163497e-03
1.633453e+02	-4.211709e-03
1.642887e+02	-4.260478e-03
1.652377e+02	-4.309813e-03
1.661921e+02	-4.359718e-03
1.671520e+02	-4.410201e-03
1.681175e+02	-4.461268e-03
1.690885e+02	-4.512926e-03
1.700651e+02	-4.565181e-03
1.710474e+02	-4.618042e-03
1.720354e+02	-4.671514e-03
1.730291e+02	-4.725606e-03
1.740285e+02	-4.780323e-03
1.750337e+02	-4.835673e-03
1.760446e+02	-4.891664e-03
1.770615e+02	-4.948303e-03
1.780842e+02	-5.005597e-03
1.791128e+02	-5.063554e-03
1.801473e+02	-5.122182e-03
1.811878e+02	-5.181489e-03
1.822344e+02	-5.241481e-03
1.832870e+02	-5.302168e-03
1.843456e+02	-5.363557e-03
1.854104e+02	-5.425656e-03
1.864813e+02	-5.488474e-03
1.875584e+02	-5.552019e-03
1.886418e+02	-5.616298e-03
1.897313e+02	-5.681322e-03
1.908272e+02	-5.747098e-03
1.919294e+02	-5.813635e-03
1.930380e+02	-5.880942e-03
1.941530e+02	-5.949027e-03
1.952744e+02	-6.017900e-03
1.964023e+02	-6.087570e-03
1.975367e+02	-6.158046e-03
1.986777e+02	-6.229337e-03
1.998252e+02	-6.301453e-03
2.009794e+02	-6.374403e-03
2.021403e+02	-6.448198e-03
2.033078e+02	-6.522845e-03
2.044821e+02	-6.598357e-03
2.056632e+02	-6.674741e-03
2.068511e+02	-6.752010e-03
2.080459e+02	-6.830172e-03
2.092475e+02	-6.909238e-03
2.104561e+02	-6.989218e-03
2.116717e+02	-7.070124e-03
2.128943e+02	-7.151966e-03
2.141240e+02	-7.234754e-03
2.153608e+02	-7.318500e-03
2.166047e+02	-7.403214e-03
2.178558e+02	-7.488908e-03
2.191141e+02	-7.575593e-03
2.203797e+02	-7.663280e-03
2.216526e+02	-7.751982e-03
2.229329e+02	-7.841709e-03
2.242205e+02	-7.932474e-03
2.255156e+02	-8.024289e-03
2.268182e+02	-8.117165e-03
2.281283e+02	-8.211115e-03
2.294459e+02	-8.306152e-03
2.307712e+02	-8.402287e-03
2.321041e+02	-8.499534e-03
2.334447e+02	-8.597906e-03
2.347931e+02	-8.697415e-03
2.361493e+02	-8.798074e-03
2.375133e+02	-8.899897e-03
2.388851e+02	-9.002898e-03
2.402649e+02	-9.107089e-03
2.416527e+02	-9.212484e-03
2.430484e+02	-9.319099e-03
2.444523e+02	-9.426945e-03
2.458642e+02	-9.536038e-03
2.472843e+02	-9.646393e-03
2.487126e+02	-9.758023e-03
2.501492e+02	-9.870943e-03
2.515940e+02	-9.985168e-03
2.530472e+02	-1.010071e-02
2.545088e+02	-1.021760e-02
2.559789e+02	-1.033583e-02
2.574574e+02	-1.045543e-02
2.589444e+02	-1.057641e-02
2.604401e+02	-1.069879e-02
2.619444e+02	-1.082258e-02
2.634574e+02	-1.094780e-02
2.649791e+02	-1.107447e-02
2.665096e+02	-1.120261e-02
2.680489e+02	-1.133222e-02
2.695972e+02	-1.146334e-02
2.711544e+02	-1.159596e-02
2.727205e+02	-1.173012e-02
2.742958e+02	-1.186583e-02
2.758801e+02	-1.200311e-02
2.774736e+02	-1.214198e-02
2.790762e+02	-1.228244e-02
2.806882e+02	-1.242454e-02
2.823094e+02	-1.256827e-02
2.839400e+02	-1.271366e-02
2.855800e+02	-1.286073e-02
2.872295e+02	-1.300950e-02
2.888886e+02	-1.315999e-02
2.905572e+02	-1.331222e-02
2.922354e+02	-1.346621e-02
2.939234e+02	-1.362197e-02
2.956211e+02	-1.377953e-02
2.973286e+02	-1.393891e-02
2.990459e+02	-1.410014e-02
3.007732e+02	-1.426322e-02
3.025104e+02	-1.442819e-02
3.042577e+02	-1.459506e-02
3.060151e+02	-1.476386e-02
3.077826e+02	-1.493461e-02
3.095604e+02	-1.510733e-02
3.113484e+02	-1.528204e-02
3.131467e+02	-1.545877e-02
3.149554e+02	-1.563754e-02
3.167746e+02	-1.581837e-02
3.186043e+02	-1.600130e-02
3.204445e+02	-1.618633e-02
3.222954e+02	-1.637350e-02
3.241570e+02	-1.656282e-02
3.260293e+02	-1.675434e-02
3.279124e+02	-1.694806e-02
3.298064e+02	-1.714402e-02
3.317114e+02	-1.734224e-02
3.336273e+02	-1.754275e-02
3.355544e+02	-1.774557e-02
3.374925e+02	-1.795073e-02
3.394418e+02	-1.815825e-02
3.414024e+02	-1.836817e-02
3.433744e+02	-1.858052e-02
3.453577e+02	-1.879531e-02
3.473525e+02	-1.901258e-02
3.493588e+02	-1.923236e-02
3.513766e+02	-1.945467e-02
3.534062e+02	-1.967954e-02
3.554474e+02	-1.990701e-02
3.575005e+02	-2.013710e-02
3.595654e+02	-2.036985e-02
3.616422e+02	-2.060527e-02
3.637311e+02	-2.084342e-02
3.658320e+02	-2.108430e-02
3.679450e+02	-2.132797e-02
3.700702e+02	-2.157444e-02
3.722077e+02	-2.182376e-02
3.743576e+02	-2.207595e-02
3.765199e+02	-2.233104e-02
3.786946e+02	-2.258908e-02
3.808820e+02	-2.285009e-02
3.830819e+02	-2.311411e-02
3.852946e+02	-2.338116e-02
3.875200e+02	-2.365130e-02
3.897583e+02	-2.392455e-02
3.920096e+02	-2.420095e-02
3.942738e+02	-2.448053e-02
3.965511e+02	-2.476333e-02
3.988416e+02	-2.504939e-02
4.011452e+02	-2.533874e-02
4.034622e+02	-2.563143e-02
4.057926e+02	-2.592749e-02
4.081365e+02	-2.622695e-02
4.104938e+02	-2.652987e-02
4.128648e+02	-2.683627e-02
4.152495e+02	-2.714620e-02
4.176480e+02	-2.745970e-02
4.200603e+02	-2.777681e-02
4.224866e+02	-2.809756e-02
4.249268e+02	-2.842201e-02
4.273812e+02	-2.875019e-02
4.298497e+02	-2.908215e-02
4.323325e+02	-2.941793e-02
4.348297e+02	-2.975758e-02
4.373412e+02	-3.010113e-02
4.398673e+02	-3.044863e-02
4.424079e+02	-3.080013e-02
4.449633e+02	-3.115567e-02
4.475334e+02	-3.151531e-02
4.501183e+02	-3.187907e-02
4.527182e+02	-3.224703e-02
4.553330e+02	-3.261921e-02
4.579630e+02	-3.299567e-02
4.606082e+02	-3.337646e-02
4.632687e+02	-3.376163e-02
4.659445e+02	-3.415122e-02
4.686358e+02	-3.454530e-02
4.713426e+02	-3.494390e-02
4.740650e+02	-3.534708e-02
4.768032e+02	-3.575489e-02
4.795572e+02	-3.616739e-02
4.823271e+02	-3.658463e-02
4.851130e+02	-3.700666e-02
4.879150e+02	-3.743354e-02
4.907332e+02	-3.786532e-02
4.935676e+02	-3.830206e-02
4.964185e+02	-3.874382e-02
4.992858e+02	-3.919064e-02
5.021696e+02	-3.964260e-02
5.050701e+02	-4.009974e-02
5.079874e+02	-4.056213e-02
5.109215e+02	-4.102983e-02
5.138726e+02	-4.150290e-02
5.168407e+02	-4.198139e-02
5.198259e+02	-4.246537e-02
5.228284e+02	-4.295490e-02
5.258482e+02	-4.345005e-02
5.288855e+02	-4.395088e-02
5.319403e+02	-4.445745e-02
5.350128e+02	-4.496982e-02
5.381030e+02	-4.548808e-02
5.412111e+02	-4.601227e-02
5.443371e+02	-4.654247e-02
5.474812e+02	-4.707875e-02
5.506434e+02	-4.762117e-02
5.538239e+02	-4.816981e-02
5.570228e+02	-4.872473e-02
5.602401e+02	-4.928601e-02
5.634760e+02	-4.985372e-02
5.667306e+02	-5.042793e-02
5.700040e+02	-5.100871e-02
5.732964e+02	-5.159614e-02
5.766077e+02	-5.219030e-02
5.799382e+02	-5.279126e-02
5.832879e+02	-5.339909e-02
5.866569e+02	-5.401388e-02
5.900454e+02	-5.463570e-02
5.934535e+02	-5.526463e-02
5.968813e+02	-5.590076e-02
6.003288e+02	-5.654416e-02
6.037963e+02	-5.719492e-02
6.072838e+02	-5.785312e-02
6.107914e+02	-5.851884e-02
6.143194e+02	-5.919217e-02
6.178676e+02	-5.987320e-02
6.214364e+02	-6.056200e-02
6.250258e+02	-6.125867e-02
6.286359e+02	-6.196330e-02
6.322669e+02	-6.267598e-02
6.359189e+02	-6.339679e-02
6.395919e+02	-6.412583e-02
6.432862e+02	-6.486319e-02
6.470017e+02	-6.560897e-02
6.507388e+02	-6.636325e-02
6.544974e+02	-6.712614e-02
6.582778e+02	-6.789773e-02
6.620800e+02	-6.867812e-02
6.659041e+02	-6.946740e-02
6.697504e+02	-7.026569e-02
6.736188e+02	-7.107307e-02
6.775096e+02	-7.188965e-02
6.814229e+02	-7.271554e-02
6.853587e+02	-7.355083e-02
6.893173e+02	-7.439564e-02
6.932988e+02	-7.525006e-02
6.973033e+02	-7.611421e-02
7.013309e+02	-7.698820e-02
