Frequency(Hz)	Magnitude(dB)
1.000000e+01	-2.437386e+00
1.005776e+01	-2.459033e+00
1.011585e+01	-2.480616e+00
1.017428e+01	-2.502742e+00
1.023305e+01	-2.524512e+00
1.029215e+01	-2.546349e+00
1.035160e+01	-2.568845e+00
1.041139e+01	-2.591451e+00
1.047153e+01	-2.613589e+00
1.053201e+01	-2.636537e+00
1.059284e+01	-2.659235e+00
1.065403e+01	-2.682097e+00
1.071556e+01	-2.705439e+00
1.077746e+01	-2.728730e+00
1.083971e+01	-2.752056e+00
1.090232e+01	-2.775825e+00
1.096529e+01	-2.799370e+00
1.102862e+01	-2.823071e+00
1.109232e+01	-2.846954e+00
1.115639e+01	-2.871350e+00
1.122083e+01	-2.895508e+00
1.128564e+01	-2.919769e+00
1.135083e+01	-2.944485e+00
1.141639e+01	-2.969176e+00
1.148233e+01	-2.993825e+00
1.154865e+01	-3.018955e+00
1.161536e+01	-3.044229e+00
1.168245e+01	-3.069414e+00
1.174992e+01	-3.094991e+00
1.181779e+01	-3.120548e+00
1.188605e+01	-3.146111e+00
1.195470e+01	-3.172067e+00
1.202375e+01	-3.197868e+00
1.209320e+01	-3.224204e+00
1.216305e+01	-3.250551e+00
1.223330e+01	-3.276754e+00
1.230396e+01	-3.303334e+00
1.237503e+01	-3.329893e+00
1.244651e+01	-3.356941e+00
1.251840e+01	-3.384125e+00
1.259070e+01	-3.411212e+00
1.266343e+01	-3.438612e+00
1.273657e+01	-3.466146e+00
1.281014e+01	-3.493489e+00
1.288413e+01	-3.521394e+00
1.295855e+01	-3.549426e+00
1.303339e+01	-3.576977e+00
1.310867e+01	-3.605114e+00
1.318439e+01	-3.633522e+00
1.326054e+01	-3.662251e+00
1.333713e+01	-3.690267e+00
1.341417e+01	-3.719369e+00
1.349165e+01	-3.747971e+00
1.356958e+01	-3.776996e+00
1.364795e+01	-3.806089e+00
1.372678e+01	-3.835479e+00
1.380607e+01	-3.864804e+00
1.388581e+01	-3.894124e+00
1.396602e+01	-3.924160e+00
1.404668e+01	-3.954010e+00
1.412782e+01	-3.983665e+00
1.420942e+01	-4.013929e+00
1.429149e+01	-4.044098e+00
1.437404e+01	-4.074685e+00
1.445706e+01	-4.105031e+00
1.454057e+01	-4.135773e+00
1.462455e+01	-4.166422e+00
1.470902e+01	-4.197401e+00
1.479398e+01	-4.228666e+00
1.487943e+01	-4.259486e+00
1.496537e+01	-4.291172e+00
1.505181e+01	-4.322474e+00
1.513875e+01	-4.354219e+00
1.522619e+01	-4.385997e+00
1.531414e+01	-4.417874e+00
1.540259e+01	-4.449682e+00
1.549156e+01	-4.481732e+00
1.558103e+01	-4.514318e+00
1.567103e+01	-4.546427e+00
1.576155e+01	-4.579004e+00
1.585258e+01	-4.611916e+00
1.594415e+01	-4.644481e+00
1.603624e+01	-4.677527e+00
1.612886e+01	-4.710263e+00
1.622202e+01	-4.743919e+00
1.631572e+01	-4.776600e+00
1.640996e+01	-4.810590e+00
1.650474e+01	-4.844176e+00
1.660008e+01	-4.877804e+00
1.669596e+01	-4.911496e+00
1.679239e+01	-4.945610e+00
1.688938e+01	-4.979827e+00
1.698694e+01	-5.013440e+00
1.708505e+01	-5.048176e+00
1.718373e+01	-5.082658e+00
1.728299e+01	-5.117030e+00
1.738281e+01	-5.151650e+00
1.748322e+01	-5.186541e+00
1.758420e+01	-5.221311e+00
1.768576e+01	-5.256432e+00
1.778792e+01	-5.291762e+00
1.789066e+01	-5.327252e+00
1.799399e+01	-5.362336e+00
1.809793e+01	-5.397870e+00
1.820246e+01	-5.433609e+00
1.830760e+01	-5.469506e+00
1.841334e+01	-5.505562e+00
1.851969e+01	-5.541144e+00
1.862666e+01	-5.577557e+00
1.873425e+01	-5.613626e+00
1.884246e+01	-5.650001e+00
1.895129e+01	-5.686578e+00
1.906075e+01	-5.723129e+00
1.917085e+01	-5.759495e+00
1.928158e+01	-5.796378e+00
1.939295e+01	-5.833649e+00
1.950496e+01	-5.870497e+00
1.961762e+01	-5.907486e+00
1.973093e+01	-5.944903e+00
1.984490e+01	-5.982101e+00
1.995952e+01	-6.020011e+00
2.007480e+01	-6.056931e+00
2.019076e+01	-6.095004e+00
2.030738e+01	-6.132533e+00
2.042467e+01	-6.170464e+00
2.054264e+01	-6.208481e+00
2.066130e+01	-6.246882e+00
2.078064e+01	-6.284826e+00
2.090066e+01	-6.323323e+00
2.102139e+01	-6.361488e+00
2.114280e+01	-6.399904e+00
2.126492e+01	-6.438636e+00
2.138775e+01	-6.477590e+00
2.151128e+01	-6.516095e+00
2.163553e+01	-6.554963e+00
2.176050e+01	-6.594380e+00
2.188619e+01	-6.633291e+00
2.201260e+01	-6.672210e+00
2.213974e+01	-6.711872e+00
2.226762e+01	-6.751376e+00
2.239624e+01	-6.790562e+00
2.252560e+01	-6.830633e+00
2.265571e+01	-6.869811e+00
2.278656e+01	-6.910213e+00
2.291818e+01	-6.949559e+00
2.305055e+01	-6.989575e+00
2.318369e+01	-7.029624e+00
2.331760e+01	-7.070053e+00
2.345228e+01	-7.110074e+00
2.358774e+01	-7.150563e+00
2.372398e+01	-7.190873e+00
2.386101e+01	-7.231296e+00
2.399883e+01	-7.272225e+00
2.413745e+01	-7.312724e+00
2.427686e+01	-7.353482e+00
2.441709e+01	-7.394591e+00
2.455812e+01	-7.435412e+00
2.469997e+01	-7.476499e+00
2.484263e+01	-7.517797e+00
2.498612e+01	-7.558345e+00
2.513044e+01	-7.599946e+00
2.527559e+01	-7.641062e+00
2.542158e+01	-7.682814e+00
2.556842e+01	-7.724199e+00
2.571610e+01	-7.765897e+00
2.586463e+01	-7.807910e+00
2.601403e+01	-7.849579e+00
2.616428e+01	-7.890951e+00
2.631541e+01	-7.933398e+00
2.646740e+01	-7.975033e+00
2.662028e+01	-8.017342e+00
2.677404e+01	-8.059258e+00
2.692868e+01	-8.101648e+00
2.708422e+01	-8.144139e+00
2.724066e+01	-8.186111e+00
2.739800e+01	-8.228737e+00
2.755625e+01	-8.271188e+00
2.771541e+01	-8.313948e+00
2.787550e+01	-8.357389e+00
2.803650e+01	-8.399221e+00
2.819844e+01	-8.442469e+00
2.836131e+01	-8.485430e+00
2.852513e+01	-8.528470e+00
2.868989e+01	-8.571341e+00
2.885560e+01	-8.614143e+00
2.902227e+01	-8.657475e+00
2.918990e+01	-8.701091e+00
2.935850e+01	-8.743886e+00
2.952807e+01	-8.787851e+00
2.969863e+01	-8.831035e+00
2.987016e+01	-8.874631e+00
3.004269e+01	-8.918237e+00
3.021622e+01	-8.961434e+00
3.039075e+01	-9.005296e+00
3.056628e+01	-9.048981e+00
3.074283e+01	-9.092562e+00
3.092040e+01	-9.136376e+00
3.109900e+01	-9.180312e+00
3.127862e+01	-9.224925e+00
3.145929e+01	-9.268685e+00
3.164099e+01	-9.312636e+00
3.182375e+01	-9.357196e+00
3.200756e+01	-9.401558e+00
3.219244e+01	-9.446326e+00
3.237838e+01	-9.490518e+00
3.256540e+01	-9.534829e+00
3.275349e+01	-9.579339e+00
3.294268e+01	-9.623874e+00
3.313295e+01	-9.668326e+00
3.332433e+01	-9.713069e+00
3.351681e+01	-9.757716e+00
3.371040e+01	-9.801896e+00
3.390511e+01	-9.847558e+00
3.410094e+01	-9.892043e+00
3.429791e+01	-9.937066e+00
3.449601e+01	-9.981367e+00
3.469526e+01	-1.002659e+01
3.489566e+01	-1.007180e+01
3.509721e+01	-1.011722e+01
3.529993e+01	-1.016218e+01
3.550382e+01	-1.020795e+01
3.570889e+01	-1.025330e+01
3.591515e+01	-1.029849e+01
3.612259e+01	-1.034372e+01
3.633123e+01	-1.038911e+01
3.654108e+01	-1.043392e+01
3.675214e+01	-1.048007e+01
3.696442e+01	-1.052549e+01
3.717792e+01	-1.057103e+01
3.739266e+01	-1.061696e+01
3.760864e+01	-1.066249e+01
3.782587e+01	-1.070850e+01
3.804435e+01	-1.075409e+01
3.826409e+01	-1.080007e+01
3.848510e+01	-1.084615e+01
3.870739e+01	-1.089215e+01
3.893096e+01	-1.093764e+01
3.915583e+01	-1.098389e+01
3.938199e+01	-1.102966e+01
3.960946e+01	-1.107655e+01
3.983824e+01	-1.112278e+01
4.006834e+01	-1.116806e+01
4.029978e+01	-1.121455e+01
4.053255e+01	-1.126057e+01
4.076666e+01	-1.130645e+01
4.100213e+01	-1.135357e+01
4.123896e+01	-1.139988e+01
4.147715e+01	-1.144608e+01
4.171672e+01	-1.149261e+01
4.195767e+01	-1.153889e+01
4.220002e+01	-1.158599e+01
4.244377e+01	-1.163215e+01
4.268892e+01	-1.167878e+01
4.293549e+01	-1.172546e+01
4.318348e+01	-1.177181e+01
4.343291e+01	-1.181882e+01
4.368377e+01	-1.186534e+01
4.393609e+01	-1.191228e+01
4.418986e+01	-1.195987e+01
4.444510e+01	-1.200627e+01
4.470182e+01	-1.205329e+01
4.496001e+01	-1.209998e+01
4.521970e+01	-1.214683e+01
4.548089e+01	-1.219366e+01
4.574358e+01	-1.224074e+01
4.600779e+01	-1.228829e+01
4.627353e+01	-1.233454e+01
4.654081e+01	-1.238247e+01
4.680963e+01	-1.242977e+01
4.708000e+01	-1.247638e+01
4.735193e+01	-1.252414e+01
4.762543e+01	-1.257037e+01
4.790051e+01	-1.261801e+01
4.817719e+01	-1.266574e+01
4.845545e+01	-1.271281e+01
4.873533e+01	-1.276045e+01
4.901682e+01	-1.280790e+01
4.929994e+01	-1.285517e+01
4.958470e+01	-1.290317e+01
4.987110e+01	-1.294969e+01
5.015915e+01	-1.299725e+01
5.044887e+01	-1.304446e+01
5.074026e+01	-1.309242e+01
5.103333e+01	-1.314009e+01
5.132810e+01	-1.318879e+01
5.162457e+01	-1.323569e+01
5.192275e+01	-1.328372e+01
5.222265e+01	-1.333071e+01
5.252429e+01	-1.337853e+01
5.282767e+01	-1.342583e+01
5.313280e+01	-1.347449e+01
5.343969e+01	-1.352272e+01
5.374836e+01	-1.356955e+01
5.405880e+01	-1.361713e+01
5.437105e+01	-1.366533e+01
5.468509e+01	-1.371321e+01
5.500095e+01	-1.376078e+01
5.531863e+01	-1.380845e+01
5.563815e+01	-1.385729e+01
5.595951e+01	-1.390529e+01
5.628273e+01	-1.395302e+01
5.660782e+01	-1.400097e+01
5.693479e+01	-1.404871e+01
5.726364e+01	-1.409744e+01
5.759439e+01	-1.414503e+01
5.792705e+01	-1.419313e+01
5.826164e+01	-1.424164e+01
5.859815e+01	-1.429045e+01
5.893662e+01	-1.433681e+01
5.927703e+01	-1.438651e+01
5.961941e+01	-1.443445e+01
5.996377e+01	-1.448162e+01
6.031012e+01	-1.453052e+01
6.065847e+01	-1.457866e+01
6.100883e+01	-1.462727e+01
6.136121e+01	-1.467560e+01
6.171563e+01	-1.472354e+01
6.207210e+01	-1.477225e+01
6.243063e+01	-1.482022e+01
6.279122e+01	-1.486876e+01
6.315390e+01	-1.491715e+01
6.351868e+01	-1.496564e+01
6.388556e+01	-1.501428e+01
6.425456e+01	-1.506266e+01
6.462569e+01	-1.511032e+01
6.499897e+01	-1.515951e+01
6.537440e+01	-1.520827e+01
6.575200e+01	-1.525528e+01
6.613178e+01	-1.530559e+01
6.651375e+01	-1.535484e+01
6.689793e+01	-1.540276e+01
6.728433e+01	-1.544982e+01
6.767297e+01	-1.549951e+01
6.806384e+01	-1.554769e+01
6.845698e+01	-1.559748e+01
6.885238e+01	-1.564438e+01
6.925007e+01	-1.569351e+01
6.965005e+01	-1.574329e+01
7.005235e+01	-1.579159e+01
7.045697e+01	-1.584023e+01
7.086393e+01	-1.588948e+01
7.127323e+01	-1.593700e+01
7.168490e+01	-1.598697e+01
7.209895e+01	-1.603548e+01
7.251539e+01	-1.608356e+01
7.293424e+01	-1.613292e+01
7.335551e+01	-1.618145e+01
7.377920e+01	-1.623010e+01
7.420535e+01	-1.628010e+01
7.463396e+01	-1.632829e+01
7.506504e+01	-1.637672e+01
7.549861e+01	-1.642591e+01
7.593469e+01	-1.647420e+01
7.637328e+01	-1.652353e+01
7.681441e+01	-1.657268e+01
7.725809e+01	-1.662200e+01
7.770433e+01	-1.667010e+01
7.815315e+01	-1.671939e+01
7.860456e+01	-1.676904e+01
7.905857e+01	-1.681774e+01
7.951521e+01	-1.686554e+01
7.997449e+01	-1.691648e+01
8.043642e+01	-1.696346e+01
8.090102e+01	-1.701381e+01
8.136830e+01	-1.706239e+01
8.183828e+01	-1.711173e+01
8.231097e+01	-1.716206e+01
8.278640e+01	-1.720932e+01
8.326457e+01	-1.725888e+01
8.374550e+01	-1.730805e+01
8.422921e+01	-1.735746e+01
8.471572e+01	-1.740660e+01
8.520503e+01	-1.745560e+01
8.569717e+01	-1.750402e+01
8.619215e+01	-1.755447e+01
8.669000e+01	-1.760223e+01
8.719071e+01	-1.765187e+01
8.769432e+01	-1.770147e+01
8.820084e+01	-1.775123e+01
8.871029e+01	-1.779980e+01
8.922267e+01	-1.784905e+01
8.973802e+01	-1.789860e+01
9.025634e+01	-1.794644e+01
9.077766e+01	-1.799621e+01
9.130199e+01	-1.804684e+01
9.182935e+01	-1.809568e+01
9.235975e+01	-1.814411e+01
9.289321e+01	-1.819352e+01
9.342976e+01	-1.824229e+01
9.396941e+01	-1.829078e+01
9.451217e+01	-1.834162e+01
9.505807e+01	-1.839103e+01
9.560712e+01	-1.843912e+01
9.615934e+01	-1.848787e+01
9.671476e+01	-1.854007e+01
9.727338e+01	-1.858852e+01
9.783522e+01	-1.863703e+01
9.840032e+01	-1.868693e+01
9.896867e+01	-1.873577e+01
9.954031e+01	-1.878494e+01
1.001153e+02	-1.883600e+01
1.006935e+02	-1.888270e+01
1.012751e+02	-1.893525e+01
1.018601e+02	-1.898337e+01
1.024484e+02	-1.903364e+01
1.030402e+02	-1.908179e+01
1.036353e+02	-1.913311e+01
1.042339e+02	-1.918192e+01
1.048360e+02	-1.923103e+01
1.054415e+02	-1.928031e+01
1.060505e+02	-1.932937e+01
1.066631e+02	-1.937841e+01
1.072791e+02	-1.942917e+01
1.078988e+02	-1.947868e+01
1.085220e+02	-1.952640e+01
1.091488e+02	-1.957564e+01
1.097793e+02	-1.962496e+01
1.104133e+02	-1.967623e+01
1.110511e+02	-1.972483e+01
1.116925e+02	-1.977418e+01
1.123376e+02	-1.982291e+01
1.129865e+02	-1.987429e+01
1.136391e+02	-1.992310e+01
1.142955e+02	-1.997259e+01
1.149556e+02	-2.002197e+01
1.156196e+02	-2.007087e+01
1.162874e+02	-2.012099e+01
1.169591e+02	-2.017122e+01
1.176347e+02	-2.021985e+01
1.183141e+02	-2.026818e+01
1.189975e+02	-2.031856e+01
1.196848e+02	-2.036928e+01
1.203761e+02	-2.041854e+01
1.210714e+02	-2.046799e+01
1.217707e+02	-2.051681e+01
1.224740e+02	-2.056760e+01
1.231814e+02	-2.061780e+01
1.238929e+02	-2.066726e+01
1.246085e+02	-2.071660e+01
1.253283e+02	-2.076407e+01
1.260522e+02	-2.081432e+01
1.267802e+02	-2.086686e+01
1.275125e+02	-2.091358e+01
1.282490e+02	-2.096381e+01
1.289898e+02	-2.101474e+01
1.297348e+02	-2.106313e+01
1.304842e+02	-2.111334e+01
1.312378e+02	-2.116162e+01
1.319959e+02	-2.121359e+01
1.327583e+02	-2.126234e+01
1.335251e+02	-2.131025e+01
1.342963e+02	-2.136024e+01
1.350720e+02	-2.141108e+01
1.358522e+02	-2.146107e+01
1.366368e+02	-2.151174e+01
1.374260e+02	-2.156018e+01
1.382198e+02	-2.161005e+01
1.390182e+02	-2.166014e+01
1.398211e+02	-2.170931e+01
1.406287e+02	-2.175869e+01
1.414410e+02	-2.180839e+01
1.422579e+02	-2.185813e+01
1.430796e+02	-2.190772e+01
1.439060e+02	-2.195949e+01
1.447372e+02	-2.200613e+01
1.455732e+02	-2.205767e+01
1.464141e+02	-2.210697e+01
1.472597e+02	-2.215536e+01
1.481103e+02	-2.220580e+01
1.489658e+02	-2.225554e+01
1.498262e+02	-2.230651e+01
1.506916e+02	-2.235488e+01
1.515620e+02	-2.240591e+01
1.524374e+02	-2.245378e+01
1.533179e+02	-2.250682e+01
1.542034e+02	-2.255362e+01
1.550941e+02	-2.260464e+01
1.559899e+02	-2.265691e+01
1.568909e+02	-2.270480e+01
1.577971e+02	-2.275580e+01
1.587085e+02	-2.280225e+01
1.596252e+02	-2.285381e+01
1.605472e+02	-2.290102e+01
1.614745e+02	-2.295443e+01
1.624072e+02	-2.300345e+01
1.633453e+02	-2.305188e+01
1.642887e+02	-2.310302e+01
1.652377e+02	-2.315429e+01
1.661921e+02	-2.320397e+01
1.671520e+02	-2.325106e+01
1.681175e+02	-2.330314e+01
1.690885e+02	-2.335309e+01
1.700651e+02	-2.339841e+01
1.710474e+02	-2.345180e+01
1.720354e+02	-2.350443e+01
1.730291e+02	-2.355066e+01
1.740285e+02	-2.360103e+01
1.750337e+02	-2.365120e+01
1.760446e+02	-2.370005e+01
1.770615e+02	-2.374952e+01
1.780842e+02	-2.379749e+01
1.791128e+02	-2.385143e+01
1.801473e+02	-2.390146e+01
1.811878e+02	-2.394914e+01
1.822344e+02	-2.399820e+01
1.832870e+02	-2.404944e+01
1.843456e+02	-2.409828e+01
1.854104e+02	-2.414929e+01
1.864813e+02	-2.419850e+01
1.875584e+02	-2.424711e+01
1.886418e+02	-2.429802e+01
1.897313e+02	-2.434778e+01
1.908272e+02	-2.439942e+01
1.919294e+02	-2.444776e+01
1.930380e+02	-2.449794e+01
1.941530e+02	-2.454549e+01
1.952744e+02	-2.459822e+01
1.964023e+02	-2.464990e+01
1.975367e+02	-2.469907e+01
1.986777e+02	-2.474788e+01
1.998252e+02	-2.479752e+01
2.009794e+02	-2.484546e+01
2.021403e+02	-2.489695e+01
2.033078e+02	-2.494512e+01
2.044821e+02	-2.499841e+01
2.056632e+02	-2.504870e+01
2.068511e+02	-2.509607e+01
2.080459e+02	-2.514622e+01
2.092475e+02	-2.519513e+01
2.104561e+02	-2.524667e+01
2.116717e+02	-2.529405e+01
2.128943e+02	-2.534562e+01
2.141240e+02	-2.539974e+01
2.153608e+02	-2.544531e+01
2.166047e+02	-2.549729e+01
2.178558e+02	-2.554326e+01
2.191141e+02	-2.559541e+01
2.203797e+02	-2.564853e+01
2.216526e+02	-2.569539e+01
2.229329e+02	-2.574639e+01
2.242205e+02	-2.579666e+01
2.255156e+02	-2.584491e+01
2.268182e+02	-2.589405e+01
2.281283e+02	-2.594666e+01
2.294459e+02	-2.599578e+01
2.307712e+02	-2.604460e+01
2.321041e+02	-2.609653e+01
2.334447e+02	-2.614745e+01
2.347931e+02	-2.619132e+01
2.361493e+02	-2.624805e+01
2.375133e+02	-2.629804e+01
2.388851e+02	-2.634536e+01
2.402649e+02	-2.639474e+01
2.416527e+02	-2.644448e+01
2.430484e+02	-2.649673e+01
2.444523e+02	-2.654419e+01
2.458642e+02	-2.659590e+01
2.472843e+02	-2.664442e+01
2.487126e+02	-2.669472e+01
2.501492e+02	-2.674393e+01
2.515940e+02	-2.679617e+01
2.530472e+02	-2.684901e+01
2.545088e+02	-2.689540e+01
2.559789e+02	-2.694676e+01
2.574574e+02	-2.699242e+01
2.589444e+02	-2.704404e+01
2.604401e+02	-2.709514e+01
2.619444e+02	-2.714159e+01
2.634574e+02	-2.719430e+01
2.649791e+02	-2.724140e+01
2.665096e+02	-2.729508e+01
2.680489e+02	-2.734322e+01
2.695972e+02	-2.738853e+01
2.711544e+02	-2.744666e+01
2.727205e+02	-2.749437e+01
2.742958e+02	-2.754392e+01
2.758801e+02	-2.759304e+01
2.774736e+02	-2.764702e+01
2.790762e+02	-2.769730e+01
2.806882e+02	-2.774300e+01
2.823094e+02	-2.779450e+01
2.839400e+02	-2.784151e+01
2.855800e+02	-2.789294e+01
2.872295e+02	-2.794254e+01
2.888886e+02	-2.799489e+01
2.905572e+02	-2.804394e+01
2.922354e+02	-2.809369e+01
2.939234e+02	-2.814323e+01
2.956211e+02	-2.819267e+01
2.973286e+02	-2.824357e+01
2.990459e+02	-2.829253e+01
3.007732e+02	-2.834531e+01
3.025104e+02	-2.839578e+01
3.042577e+02	-2.844925e+01
3.060151e+02	-2.849393e+01
3.077826e+02	-2.854761e+01
3.095604e+02	-2.859269e+01
3.113484e+02	-2.864028e+01
3.131467e+02	-2.869886e+01
3.149554e+02	-2.874362e+01
3.167746e+02	-2.879613e+01
3.186043e+02	-2.884544e+01
3.204445e+02	-2.889481e+01
3.222954e+02	-2.894352e+01
3.241570e+02	-2.899438e+01
3.260293e+02	-2.904866e+01
3.279124e+02	-2.909138e+01
3.298064e+02	-2.914465e+01
3.317114e+02	-2.919483e+01
3.336273e+02	-2.924052e+01
3.355544e+02	-2.929592e+01
3.374925e+02	-2.934617e+01
3.394418e+02	-2.939833e+01
3.414024e+02	-2.944205e+01
3.433744e+02	-2.949725e+01
3.453577e+02	-2.954344e+01
3.473525e+02	-2.959310e+01
3.493588e+02	-2.964858e+01
3.513766e+02	-2.969498e+01
3.534062e+02	-2.974249e+01
3.554474e+02	-2.979556e+01
3.575005e+02	-2.984503e+01
3.595654e+02	-2.989228e+01
3.616422e+02	-2.994655e+01
3.637311e+02	-2.999663e+01
3.658320e+02	-3.004896e+01
3.679450e+02	-3.009480e+01
3.700702e+02	-3.014654e+01
3.722077e+02	-3.019326e+01
3.743576e+02	-3.024758e+01
3.765199e+02	-3.029929e+01
3.786946e+02	-3.034948e+01
3.808820e+02	-3.039669e+01
3.830819e+02	-3.044885e+01
3.852946e+02	-3.049984e+01
3.875200e+02	-3.055613e+01
3.897583e+02	-3.060030e+01
3.920096e+02	-3.064376e+01
3.942738e+02	-3.069262e+01
3.965511e+02	-3.074624e+01
3.988416e+02	-3.079683e+01
4.011452e+02	-3.084491e+01
4.034622e+02	-3.089961e+01
4.057926e+02	-3.094659e+01
4.081365e+02	-3.099440e+01
4.104938e+02	-3.104839e+01
4.128648e+02	-3.109446e+01
4.152495e+02	-3.114795e+01
4.176480e+02	-3.120184e+01
4.200603e+02	-3.124674e+01
4.224866e+02	-3.129622e+01
4.249268e+02	-3.135203e+01
4.273812e+02	-3.139809e+01
4.298497e+02	-3.144710e+01
4.323325e+02	-3.150209e+01
4.348297e+02	-3.155359e+01
4.373412e+02	-3.160223e+01
4.398673e+02	-3.165451e+01
4.424079e+02	-3.171026e+01
4.449633e+02	-3.175095e+01
4.475334e+02	-3.180393e+01
4.501183e+02	-3.185514e+01
4.527182e+02	-3.189635e+01
4.553330e+02	-3.195330e+01
4.579630e+02	-3.200196e+01
4.606082e+02	-3.205218e+01
4.632687e+02	-3.210585e+01
4.659445e+02	-3.214870e+01
4.686358e+02	-3.220234e+01
4.713426e+02	-3.225130e+01
4.740650e+02	-3.230327e+01
4.768032e+02	-3.235761e+01
4.795572e+02	-3.240264e+01
4.823271e+02	-3.244741e+01
4.851130e+02	-3.250568e+01
4.879150e+02	-3.255932e+01
4.907332e+02	-3.260730e+01
4.935676e+02	-3.265293e+01
4.964185e+02	-3.270810e+01
4.992858e+02	-3.275162e+01
5.021696e+02	-3.280370e+01
5.050701e+02	-3.285783e+01
5.079874e+02	-3.289963e+01
5.109215e+02	-3.295357e+01
5.138726e+02	-3.299894e+01
5.168407e+02	-3.305020e+01
5.198259e+02	-3.310612e+01
5.228284e+02	-3.315420e+01
5.258482e+02	-3.320499e+01
5.288855e+02	-3.325629e+01
5.319403e+02	-3.330299e+01
5.350128e+02	-3.336360e+01
5.381030e+02	-3.340384e+01
5.412111e+02	-3.346146e+01
5.443371e+02	-3.350864e+01
5.474812e+02	-3.357084e+01
5.506434e+02	-3.361378e+01
5.538239e+02	-3.365725e+01
5.570228e+02	-3.371340e+01
5.602401e+02	-3.375599e+01
5.634760e+02	-3.381574e+01
5.667306e+02	-3.385976e+01
5.700040e+02	-3.390801e+01
5.732964e+02	-3.395466e+01
5.766077e+02	-3.401658e+01
5.799382e+02	-3.406734e+01
5.832879e+02	-3.411291e+01
5.866569e+02	-3.416516e+01
5.900454e+02	-3.421032e+01
5.934535e+02	-3.426345e+01
5.968813e+02	-3.430885e+01
6.003288e+02	-3.436063e+01
6.037963e+02	-3.441141e+01
6.072838e+02	-3.446647e+01
6.107914e+02	-3.451022e+01
6.143194e+02	-3.456523e+01
6.178676e+02	-3.460743e+01
6.214364e+02	-3.465722e+01
6.250258e+02	-3.471754e+01
6.286359e+02	-3.476616e+01
6.322669e+02	-3.480807e+01
6.359189e+02	-3.487830e+01
6.395919e+02	-3.491516e+01
6.432862e+02	-3.496925e+01
6.470017e+02	-3.502062e+01
6.507388e+02	-3.507108e+01
6.544974e+02	-3.511148e+01
6.582778e+02	-3.516961e+01
6.620800e+02	-3.522183e+01
6.659041e+02	-3.527285e+01
6.697504e+02	-3.532218e+01
6.736188e+02	-3.537126e+01
6.775096e+02	-3.542952e+01
6.814229e+02	-3.546484e+01
6.853587e+02	-3.550721e+01
6.893173e+02	-3.557537e+01
6.932988e+02	-3.561291e+01
6.973033e+02	-3.566429e+01
7.013309e+02	-3.571137e+01
