Frequency(Hz)	Magnitude(dB)
1.000000e+01	-1.481175e-05
1.005776e+01	-1.498335e-05
1.011585e+01	-1.515694e-05
1.017428e+01	-1.533253e-05
1.023305e+01	-1.551016e-05
1.029215e+01	-1.568985e-05
1.035160e+01	-1.587162e-05
1.041139e+01	-1.605550e-05
1.047153e+01	-1.624151e-05
1.053201e+01	-1.642967e-05
1.059284e+01	-1.662001e-05
1.065403e+01	-1.681256e-05
1.071556e+01	-1.700734e-05
1.077746e+01	-1.720437e-05
1.083971e+01	-1.740369e-05
1.090232e+01	-1.760532e-05
1.096529e+01	-1.780928e-05
1.102862e+01	-1.801560e-05
1.109232e+01	-1.822432e-05
1.115639e+01	-1.843545e-05
1.122083e+01	-1.864903e-05
1.128564e+01	-1.886508e-05
1.135083e+01	-1.908364e-05
1.141639e+01	-1.930473e-05
1.148233e+01	-1.952838e-05
1.154865e+01	-1.975462e-05
1.161536e+01	-1.998348e-05
1.168245e+01	-2.021500e-05
1.174992e+01	-2.044919e-05
1.181779e+01	-2.068610e-05
1.188605e+01	-2.092576e-05
1.195470e+01	-2.116819e-05
1.202375e+01	-2.141343e-05
1.209320e+01	-2.166150e-05
1.216305e+01	-2.191246e-05
1.223330e+01	-2.216632e-05
1.230396e+01	-2.242312e-05
1.237503e+01	-2.268290e-05
1.244651e+01	-2.294569e-05
1.251840e+01	-2.321152e-05
1.259070e+01	-2.348043e-05
1.266343e+01	-2.375246e-05
1.273657e+01	-2.402763e-05
1.281014e+01	-2.430600e-05
1.288413e+01	-2.458759e-05
1.295855e+01	-2.487245e-05
1.303339e+01	-2.516060e-05
1.310867e+01	-2.545209e-05
1.318439e+01	-2.574696e-05
1.326054e+01	-2.604524e-05
1.333713e+01	-2.634698e-05
1.341417e+01	-2.665222e-05
1.349165e+01	-2.696099e-05
1.356958e+01	-2.727334e-05
1.364795e+01	-2.758931e-05
1.372678e+01	-2.790894e-05
1.380607e+01	-2.823227e-05
1.388581e+01	-2.855935e-05
1.396602e+01	-2.889022e-05
1.404668e+01	-2.922492e-05
1.412782e+01	-2.956349e-05
1.420942e+01	-2.990599e-05
1.429149e+01	-3.025246e-05
1.437404e+01	-3.060294e-05
1.445706e+01	-3.095749e-05
1.454057e+01	-3.131614e-05
1.462455e+01	-3.167894e-05
1.470902e+01	-3.204595e-05
1.479398e+01	-3.241721e-05
1.487943e+01	-3.279277e-05
1.496537e+01	-3.317268e-05
1.505181e+01	-3.355700e-05
1.513875e+01	-3.394576e-05
1.522619e+01	-3.433903e-05
1.531414e+01	-3.473686e-05
1.540259e+01	-3.513929e-05
1.549156e+01	-3.554639e-05
1.558103e+01	-3.595820e-05
1.567103e+01	-3.637479e-05
1.576155e+01	-3.679620e-05
1.585258e+01	-3.722249e-05
1.594415e+01	-3.765372e-05
1.603624e+01	-3.808995e-05
1.612886e+01	-3.853123e-05
1.622202e+01	-3.897762e-05
1.631572e+01	-3.942919e-05
1.640996e+01	-3.988598e-05
1.650474e+01	-4.034807e-05
1.660008e+01	-4.081551e-05
1.669596e+01	-4.128837e-05
1.679239e+01	-4.176670e-05
1.688938e+01	-4.225058e-05
1.698694e+01	-4.274006e-05
1.708505e+01	-4.323521e-05
1.718373e+01	-4.373610e-05
1.728299e+01	-4.424280e-05
1.738281e+01	-4.475536e-05
1.748322e+01	-4.527386e-05
1.758420e+01	-4.579837e-05
1.768576e+01	-4.632895e-05
1.778792e+01	-4.686568e-05
1.789066e+01	-4.740863e-05
1.799399e+01	-4.795787e-05
1.809793e+01	-4.851347e-05
1.820246e+01	-4.907551e-05
1.830760e+01	-4.964406e-05
1.841334e+01	-5.021920e-05
1.851969e+01	-5.080100e-05
1.862666e+01	-5.138954e-05
1.873425e+01	-5.198490e-05
1.884246e+01	-5.258715e-05
1.895129e+01	-5.319639e-05
1.906075e+01	-5.381268e-05
1.917085e+01	-5.443611e-05
1.928158e+01	-5.506676e-05
1.939295e+01	-5.570472e-05
1.950496e+01	-5.635007e-05
1.961762e+01	-5.700290e-05
1.973093e+01	-5.766329e-05
1.984490e+01	-5.833133e-05
1.995952e+01	-5.900711e-05
2.007480e+01	-5.969072e-05
2.019076e+01	-6.038225e-05
2.030738e+01	-6.108179e-05
2.042467e+01	-6.178944e-05
2.054264e+01	-6.250528e-05
2.066130e+01	-6.322941e-05
2.078064e+01	-6.396194e-05
2.090066e+01	-6.470295e-05
2.102139e+01	-6.545255e-05
2.114280e+01	-6.621083e-05
2.126492e+01	-6.697789e-05
2.138775e+01	-6.775384e-05
2.151128e+01	-6.853878e-05
2.163553e+01	-6.933282e-05
2.176050e+01	-7.013605e-05
2.188619e+01	-7.094859e-05
2.201260e+01	-7.177054e-05
2.213974e+01	-7.260202e-05
2.226762e+01	-7.344313e-05
2.239624e+01	-7.429398e-05
2.252560e+01	-7.515469e-05
2.265571e+01	-7.602537e-05
2.278656e+01	-7.690614e-05
2.291818e+01	-7.779711e-05
2.305055e+01	-7.869840e-05
2.318369e+01	-7.961013e-05
2.331760e+01	-8.053243e-05
2.345228e+01	-8.146541e-05
2.358774e+01	-8.240920e-05
2.372398e+01	-8.336393e-05
2.386101e+01	-8.432971e-05
2.399883e+01	-8.530669e-05
2.413745e+01	-8.629498e-05
2.427686e+01	-8.729472e-05
2.441709e+01	-8.830604e-05
2.455812e+01	-8.932908e-05
2.469997e+01	-9.036398e-05
2.484263e+01	-9.141086e-05
2.498612e+01	-9.246987e-05
2.513044e+01	-9.354114e-05
2.527559e+01	-9.462483e-05
2.542158e+01	-9.572107e-05
2.556842e+01	-9.683002e-05
2.571610e+01	-9.795181e-05
2.586463e+01	-9.908659e-05
2.601403e+01	-1.002345e-04
2.616428e+01	-1.013958e-04
2.631541e+01	-1.025704e-04
2.646740e+01	-1.037587e-04
2.662028e+01	-1.049608e-04
2.677404e+01	-1.061768e-04
2.692868e+01	-1.074069e-04
2.708422e+01	-1.086512e-04
2.724066e+01	-1.099099e-04
2.739800e+01	-1.111832e-04
2.755625e+01	-1.124713e-04
2.771541e+01	-1.137743e-04
2.787550e+01	-1.150924e-04
2.803650e+01	-1.164258e-04
2.819844e+01	-1.177746e-04
2.836131e+01	-1.191390e-04
2.852513e+01	-1.205192e-04
2.868989e+01	-1.219155e-04
2.885560e+01	-1.233279e-04
2.902227e+01	-1.247566e-04
2.918990e+01	-1.262019e-04
2.935850e+01	-1.276640e-04
2.952807e+01	-1.291430e-04
2.969863e+01	-1.306391e-04
2.987016e+01	-1.321526e-04
3.004269e+01	-1.336836e-04
3.021622e+01	-1.352324e-04
3.039075e+01	-1.367990e-04
3.056628e+01	-1.383839e-04
3.074283e+01	-1.399871e-04
3.092040e+01	-1.416088e-04
3.109900e+01	-1.432494e-04
3.127862e+01	-1.449089e-04
3.145929e+01	-1.465877e-04
3.164099e+01	-1.482859e-04
3.182375e+01	-1.500038e-04
3.200756e+01	-1.517416e-04
3.219244e+01	-1.534996e-04
3.237838e+01	-1.552779e-04
3.256540e+01	-1.570768e-04
3.275349e+01	-1.588965e-04
3.294268e+01	-1.607374e-04
3.313295e+01	-1.625995e-04
3.332433e+01	-1.644832e-04
3.351681e+01	-1.663888e-04
3.371040e+01	-1.683164e-04
3.390511e+01	-1.702664e-04
3.410094e+01	-1.722389e-04
3.429791e+01	-1.742343e-04
3.449601e+01	-1.762528e-04
3.469526e+01	-1.782947e-04
3.489566e+01	-1.803603e-04
3.509721e+01	-1.824497e-04
3.529993e+01	-1.845634e-04
3.550382e+01	-1.867016e-04
3.570889e+01	-1.888646e-04
3.591515e+01	-1.910526e-04
3.612259e+01	-1.932659e-04
3.633123e+01	-1.955049e-04
3.654108e+01	-1.977698e-04
3.675214e+01	-2.000610e-04
3.696442e+01	-2.023787e-04
3.717792e+01	-2.047232e-04
3.739266e+01	-2.070950e-04
3.760864e+01	-2.094942e-04
3.782587e+01	-2.119212e-04
3.804435e+01	-2.143763e-04
3.826409e+01	-2.168598e-04
3.848510e+01	-2.193721e-04
3.870739e+01	-2.219135e-04
3.893096e+01	-2.244844e-04
3.915583e+01	-2.270851e-04
3.938199e+01	-2.297158e-04
3.960946e+01	-2.323771e-04
3.983824e+01	-2.350692e-04
4.006834e+01	-2.377924e-04
4.029978e+01	-2.405472e-04
4.053255e+01	-2.433340e-04
4.076666e+01	-2.461530e-04
4.100213e+01	-2.490046e-04
4.123896e+01	-2.518894e-04
4.147715e+01	-2.548075e-04
4.171672e+01	-2.577594e-04
4.195767e+01	-2.607455e-04
4.220002e+01	-2.637662e-04
4.244377e+01	-2.668220e-04
4.268892e+01	-2.699131e-04
4.293549e+01	-2.730400e-04
4.318348e+01	-2.762031e-04
4.343291e+01	-2.794029e-04
4.368377e+01	-2.826398e-04
4.393609e+01	-2.859141e-04
4.418986e+01	-2.892264e-04
4.444510e+01	-2.925771e-04
4.470182e+01	-2.959665e-04
4.496001e+01	-2.993953e-04
4.521970e+01	-3.028637e-04
4.548089e+01	-3.063724e-04
4.574358e+01	-3.099216e-04
4.600779e+01	-3.135120e-04
4.627353e+01	-3.171440e-04
4.654081e+01	-3.208181e-04
4.680963e+01	-3.245347e-04
4.708000e+01	-3.282944e-04
4.735193e+01	-3.320977e-04
4.762543e+01	-3.359449e-04
4.790051e+01	-3.398368e-04
4.817719e+01	-3.437738e-04
4.845545e+01	-3.477563e-04
4.873533e+01	-3.517850e-04
4.901682e+01	-3.558604e-04
4.929994e+01	-3.599829e-04
4.958470e+01	-3.641533e-04
4.987110e+01	-3.683719e-04
5.015915e+01	-3.726394e-04
5.044887e+01	-3.769563e-04
5.074026e+01	-3.813233e-04
5.103333e+01	-3.857408e-04
5.132810e+01	-3.902096e-04
5.162457e+01	-3.947300e-04
5.192275e+01	-3.993029e-04
5.222265e+01	-4.039287e-04
5.252429e+01	-4.086081e-04
5.282767e+01	-4.133417e-04
5.313280e+01	-4.181302e-04
5.343969e+01	-4.229741e-04
5.374836e+01	-4.278741e-04
5.405880e+01	-4.328309e-04
5.437105e+01	-4.378451e-04
5.468509e+01	-4.429174e-04
5.500095e+01	-4.480485e-04
5.531863e+01	-4.532390e-04
5.563815e+01	-4.584896e-04
5.595951e+01	-4.638010e-04
5.628273e+01	-4.691740e-04
5.660782e+01	-4.746092e-04
5.693479e+01	-4.801074e-04
5.726364e+01	-4.856693e-04
5.759439e+01	-4.912956e-04
5.792705e+01	-4.969870e-04
5.826164e+01	-5.027444e-04
5.859815e+01	-5.085685e-04
5.893662e+01	-5.144601e-04
5.927703e+01	-5.204199e-04
5.961941e+01	-5.264487e-04
5.996377e+01	-5.325474e-04
6.031012e+01	-5.387167e-04
6.065847e+01	-5.449575e-04
6.100883e+01	-5.512706e-04
6.136121e+01	-5.576568e-04
6.171563e+01	-5.641170e-04
6.207210e+01	-5.706520e-04
6.243063e+01	-5.772627e-04
6.279122e+01	-5.839500e-04
6.315390e+01	-5.907148e-04
6.351868e+01	-5.975579e-04
6.388556e+01	-6.044803e-04
6.425456e+01	-6.114829e-04
6.462569e+01	-6.185666e-04
6.499897e+01	-6.257323e-04
6.537440e+01	-6.329811e-04
6.575200e+01	-6.403138e-04
6.613178e+01	-6.477315e-04
6.651375e+01	-6.552351e-04
6.689793e+01	-6.628255e-04
6.728433e+01	-6.705040e-04
6.767297e+01	-6.782713e-04
6.806384e+01	-6.861287e-04
6.845698e+01	-6.940770e-04
6.885238e+01	-7.021175e-04
6.925007e+01	-7.102510e-04
6.965005e+01	-7.184788e-04
7.005235e+01	-7.268019e-04
7.045697e+01	-7.352213e-04
7.086393e+01	-7.437384e-04
7.127323e+01	-7.523540e-04
7.168490e+01	-7.610695e-04
7.209895e+01	-7.698859e-04
7.251539e+01	-7.788044e-04
7.293424e+01	-7.878263e-04
7.335551e+01	-7.969526e-04
7.377920e+01	-8.061847e-04
7.420535e+01	-8.155237e-04
7.463396e+01	-8.249709e-04
7.506504e+01	-8.345274e-04
7.549861e+01	-8.441947e-04
7.593469e+01	-8.539740e-04
7.637328e+01	-8.638665e-04
7.681441e+01	-8.738737e-04
7.725809e+01	-8.839967e-04
7.770433e+01	-8.942370e-04
7.815315e+01	-9.045959e-04
7.860456e+01	-9.150748e-04
7.905857e+01	-9.256750e-04
7.951521e+01	-9.363981e-04
7.997449e+01	-9.472453e-04
8.043642e+01	-9.582182e-04
8.090102e+01	-9.693182e-04
8.136830e+01	-9.805467e-04
8.183828e+01	-9.919053e-04
8.231097e+01	-1.003395e-03
8.278640e+01	-1.015019e-03
8.326457e+01	-1.026777e-03
8.374550e+01	-1.038671e-03
8.422921e+01	-1.050703e-03
8.471572e+01	-1.062874e-03
8.520503e+01	-1.075186e-03
8.569717e+01	-1.087641e-03
8.619215e+01	-1.100240e-03
8.669000e+01	-1.112985e-03
8.719071e+01	-1.125877e-03
8.769432e+01	-1.138919e-03
8.820084e+01	-1.152112e-03
8.871029e+01	-1.165458e-03
8.922267e+01	-1.178958e-03
8.973802e+01	-1.192615e-03
9.025634e+01	-1.206430e-03
9.077766e+01	-1.220404e-03
9.130199e+01	-1.234541e-03
9.182935e+01	-1.248841e-03
9.235975e+01	-1.263308e-03
9.289321e+01	-1.277941e-03
9.342976e+01	-1.292744e-03
9.396941e+01	-1.307719e-03
9.451217e+01	-1.322867e-03
9.505807e+01	-1.338190e-03
9.560712e+01	-1.353691e-03
9.615934e+01	-1.369371e-03
9.671476e+01	-1.385233e-03
9.727338e+01	-1.401279e-03
9.783522e+01	-1.417511e-03
9.840032e+01	-1.433930e-03
9.896867e+01	-1.450540e-03
9.954031e+01	-1.467342e-03
1.001153e+02	-1.484339e-03
1.006935e+02	-1.501532e-03
1.012751e+02	-1.518925e-03
1.018601e+02	-1.536519e-03
1.024484e+02	-1.554317e-03
1.030402e+02	-1.572320e-03
1.036353e+02	-1.590533e-03
1.042339e+02	-1.608956e-03
1.048360e+02	-1.627593e-03
1.054415e+02	-1.646445e-03
1.060505e+02	-1.665516e-03
1.066631e+02	-1.684808e-03
1.072791e+02	-1.704323e-03
1.078988e+02	-1.724064e-03
1.085220e+02	-1.744034e-03
1.091488e+02	-1.764235e-03
1.097793e+02	-1.784670e-03
1.104133e+02	-1.805341e-03
1.110511e+02	-1.826252e-03
1.116925e+02	-1.847406e-03
1.123376e+02	-1.868804e-03
1.129865e+02	-1.890450e-03
1.136391e+02	-1.912346e-03
1.142955e+02	-1.934496e-03
1.149556e+02	-1.956903e-03
1.156196e+02	-1.979569e-03
1.162874e+02	-2.002497e-03
1.169591e+02	-2.025691e-03
1.176347e+02	-2.049154e-03
1.183141e+02	-2.072888e-03
1.189975e+02	-2.096898e-03
1.196848e+02	-2.121185e-03
1.203761e+02	-2.145753e-03
1.210714e+02	-2.170606e-03
1.217707e+02	-2.195747e-03
1.224740e+02	-2.221178e-03
1.231814e+02	-2.246905e-03
1.238929e+02	-2.272929e-03
1.246085e+02	-2.299254e-03
1.253283e+02	-2.325885e-03
1.260522e+02	-2.352823e-03
1.267802e+02	-2.380074e-03
1.275125e+02	-2.407640e-03
1.282490e+02	-2.435525e-03
1.289898e+02	-2.463734e-03
1.297348e+02	-2.492268e-03
1.304842e+02	-2.521134e-03
1.312378e+02	-2.550333e-03
1.319959e+02	-2.579871e-03
1.327583e+02	-2.609750e-03
1.335251e+02	-2.639976e-03
1.342963e+02	-2.670551e-03
1.350720e+02	-2.701480e-03
1.358522e+02	-2.732768e-03
1.366368e+02	-2.764418e-03
1.374260e+02	-2.796434e-03
1.382198e+02	-2.828821e-03
1.390182e+02	-2.861582e-03
1.398211e+02	-2.894724e-03
1.406287e+02	-2.928248e-03
1.414410e+02	-2.962161e-03
1.422579e+02	-2.996467e-03
1.430796e+02	-3.031170e-03
1.439060e+02	-3.066274e-03
1.447372e+02	-3.101785e-03
1.455732e+02	-3.137707e-03
1.464141e+02	-3.174045e-03
1.472597e+02	-3.210803e-03
1.481103e+02	-3.247987e-03
1.489658e+02	-3.285602e-03
1.498262e+02	-3.323652e-03
1.506916e+02	-3.362142e-03
1.515620e+02	-3.401078e-03
1.524374e+02	-3.440465e-03
1.533179e+02	-3.480308e-03
1.542034e+02	-3.520612e-03
1.550941e+02	-3.561382e-03
1.559899e+02	-3.602624e-03
1.568909e+02	-3.644344e-03
1.577971e+02	-3.686547e-03
1.587085e+02	-3.729238e-03
1.596252e+02	-3.772424e-03
1.605472e+02	-3.816109e-03
1.614745e+02	-3.860300e-03
1.624072e+02	-3.905002e-03
1.633453e+02	-3.950222e-03
1.642887e+02	-3.995965e-03
1.652377e+02	-4.042238e-03
1.661921e+02	-4.089046e-03
1.671520e+02	-4.136396e-03
1.681175e+02	-4.184294e-03
1.690885e+02	-4.232747e-03
1.700651e+02	-4.281760e-03
1.710474e+02	-4.331341e-03
1.720354e+02	-4.381495e-03
1.730291e+02	-4.432230e-03
1.740285e+02	-4.483552e-03
1.750337e+02	-4.535468e-03
1.760446e+02	-4.587984e-03
1.770615e+02	-4.641109e-03
1.780842e+02	-4.694848e-03
1.791128e+02	-4.749209e-03
1.801473e+02	-4.804200e-03
1.811878e+02	-4.859826e-03
1.822344e+02	-4.916097e-03
1.832870e+02	-4.973018e-03
1.843456e+02	-5.030599e-03
1.854104e+02	-5.088845e-03
1.864813e+02	-5.147766e-03
1.875584e+02	-5.207368e-03
1.886418e+02	-5.267660e-03
1.897313e+02	-5.328650e-03
1.908272e+02	-5.390345e-03
1.919294e+02	-5.452754e-03
1.930380e+02	-5.515886e-03
1.941530e+02	-5.579747e-03
1.952744e+02	-5.644348e-03
1.964023e+02	-5.709696e-03
1.975367e+02	-5.775800e-03
1.986777e+02	-5.842669e-03
1.998252e+02	-5.910312e-03
2.009794e+02	-5.978737e-03
2.021403e+02	-6.047954e-03
2.033078e+02	-6.117972e-03
2.044821e+02	-6.188799e-03
2.056632e+02	-6.260446e-03
2.068511e+02	-6.332922e-03
2.080459e+02	-6.406236e-03
2.092475e+02	-6.480399e-03
2.104561e+02	-6.555419e-03
2.116717e+02	-6.631307e-03
2.128943e+02	-6.708073e-03
2.141240e+02	-6.785727e-03
2.153608e+02	-6.864279e-03
2.166047e+02	-6.943739e-03
2.178558e+02	-7.024119e-03
2.191141e+02	-7.105429e-03
2.203797e+02	-7.187678e-03
2.216526e+02	-7.270880e-03
2.229329e+02	-7.355043e-03
2.242205e+02	-7.440180e-03
2.255156e+02	-7.526301e-03
2.268182e+02	-7.613419e-03
2.281283e+02	-7.701544e-03
2.294459e+02	-7.790688e-03
2.307712e+02	-7.880863e-03
2.321041e+02	-7.972080e-03
2.334447e+02	-8.064353e-03
2.347931e+02	-8.157693e-03
2.361493e+02	-8.252111e-03
2.375133e+02	-8.347622e-03
2.388851e+02	-8.444237e-03
2.402649e+02	-8.541969e-03
2.416527e+02	-8.640831e-03
2.430484e+02	-8.740836e-03
2.444523e+02	-8.841998e-03
2.458642e+02	-8.944329e-03
2.472843e+02	-9.047843e-03
2.487126e+02	-9.152553e-03
2.501492e+02	-9.258475e-03
2.515940e+02	-9.365620e-03
2.530472e+02	-9.474005e-03
2.545088e+02	-9.583642e-03
2.559789e+02	-9.694546e-03
2.574574e+02	-9.806733e-03
2.589444e+02	-9.920216e-03
2.604401e+02	-1.003501e-02
2.619444e+02	-1.015113e-02
2.634574e+02	-1.026860e-02
2.649791e+02	-1.038742e-02
2.665096e+02	-1.050761e-02
2.680489e+02	-1.062920e-02
2.695972e+02	-1.075219e-02
2.711544e+02	-1.087660e-02
2.727205e+02	-1.100244e-02
2.742958e+02	-1.112975e-02
2.758801e+02	-1.125852e-02
2.774736e+02	-1.138878e-02
2.790762e+02	-1.152055e-02
2.806882e+02	-1.165384e-02
2.823094e+02	-1.178866e-02
2.839400e+02	-1.192505e-02
2.855800e+02	-1.206301e-02
2.872295e+02	-1.220257e-02
2.888886e+02	-1.234374e-02
2.905572e+02	-1.248654e-02
2.922354e+02	-1.263098e-02
2.939234e+02	-1.277710e-02
2.956211e+02	-1.292491e-02
2.973286e+02	-1.307442e-02
2.990459e+02	-1.322566e-02
3.007732e+02	-1.337864e-02
3.025104e+02	-1.353340e-02
3.042577e+02	-1.368994e-02
3.060151e+02	-1.384828e-02
3.077826e+02	-1.400846e-02
3.095604e+02	-1.417049e-02
3.113484e+02	-1.433438e-02
3.131467e+02	-1.450017e-02
3.149554e+02	-1.466787e-02
3.167746e+02	-1.483751e-02
3.186043e+02	-1.500911e-02
3.204445e+02	-1.518269e-02
3.222954e+02	-1.535827e-02
3.241570e+02	-1.553588e-02
3.260293e+02	-1.571554e-02
3.279124e+02	-1.589728e-02
3.298064e+02	-1.608111e-02
3.317114e+02	-1.626706e-02
3.336273e+02	-1.645516e-02
3.355544e+02	-1.664543e-02
3.374925e+02	-1.683790e-02
3.394418e+02	-1.703259e-02
3.414024e+02	-1.722952e-02
3.433744e+02	-1.742873e-02
3.453577e+02	-1.763023e-02
3.473525e+02	-1.783406e-02
3.493588e+02	-1.804024e-02
3.513766e+02	-1.824880e-02
3.534062e+02	-1.845977e-02
3.554474e+02	-1.867317e-02
3.575005e+02	-1.888903e-02
3.595654e+02	-1.910738e-02
3.616422e+02	-1.932825e-02
3.637311e+02	-1.955167e-02
3.658320e+02	-1.977766e-02
3.679450e+02	-2.000626e-02
3.700702e+02	-2.023750e-02
3.722077e+02	-2.047140e-02
3.743576e+02	-2.070800e-02
3.765199e+02	-2.094732e-02
3.786946e+02	-2.118941e-02
3.808820e+02	-2.143429e-02
3.830819e+02	-2.168199e-02
3.852946e+02	-2.193254e-02
3.875200e+02	-2.218598e-02
3.897583e+02	-2.244235e-02
3.920096e+02	-2.270166e-02
3.942738e+02	-2.296397e-02
3.965511e+02	-2.322930e-02
3.988416e+02	-2.349769e-02
4.011452e+02	-2.376917e-02
4.034622e+02	-2.404377e-02
4.057926e+02	-2.432154e-02
4.081365e+02	-2.460251e-02
4.104938e+02	-2.488672e-02
4.128648e+02	-2.517420e-02
4.152495e+02	-2.546499e-02
4.176480e+02	-2.575913e-02
4.200603e+02	-2.605666e-02
4.224866e+02	-2.635761e-02
4.249268e+02	-2.666203e-02
4.273812e+02	-2.696996e-02
4.298497e+02	-2.728142e-02
4.323325e+02	-2.759648e-02
4.348297e+02	-2.791516e-02
4.373412e+02	-2.823751e-02
4.398673e+02	-2.856357e-02
4.424079e+02	-2.889338e-02
4.449633e+02	-2.922699e-02
4.475334e+02	-2.956443e-02
4.501183e+02	-2.990576e-02
4.527182e+02	-3.025102e-02
4.553330e+02	-3.060024e-02
4.579630e+02	-3.095349e-02
4.606082e+02	-3.131079e-02
4.632687e+02	-3.167221e-02
4.659445e+02	-3.203778e-02
4.686358e+02	-3.240756e-02
4.713426e+02	-3.278159e-02
4.740650e+02	-3.315992e-02
4.768032e+02	-3.354259e-02
4.795572e+02	-3.392967e-02
4.823271e+02	-3.432120e-02
4.851130e+02	-3.471722e-02
4.879150e+02	-3.511780e-02
4.907332e+02	-3.552298e-02
4.935676e+02	-3.593281e-02
4.964185e+02	-3.634736e-02
4.992858e+02	-3.676666e-02
5.021696e+02	-3.719078e-02
5.050701e+02	-3.761978e-02
5.079874e+02	-3.805370e-02
5.109215e+02	-3.849260e-02
5.138726e+02	-3.893654e-02
5.168407e+02	-3.938558e-02
5.198259e+02	-3.983977e-02
5.228284e+02	-4.029918e-02
5.258482e+02	-4.076386e-02
5.288855e+02	-4.123387e-02
5.319403e+02	-4.170928e-02
5.350128e+02	-4.219013e-02
5.381030e+02	-4.267651e-02
5.412111e+02	-4.316846e-02
5.443371e+02	-4.366606e-02
5.474812e+02	-4.416936e-02
5.506434e+02	-4.467844e-02
5.538239e+02	-4.519335e-02
5.570228e+02	-4.571416e-02
5.602401e+02	-4.624095e-02
5.634760e+02	-4.677377e-02
5.667306e+02	-4.731270e-02
5.700040e+02	-4.785780e-02
5.732964e+02	-4.840915e-02
5.766077e+02	-4.896681e-02
5.799382e+02	-4.953086e-02
5.832879e+02	-5.010137e-02
5.866569e+02	-5.067842e-02
5.900454e+02	-5.126207e-02
5.934535e+02	-5.185240e-02
5.968813e+02	-5.244949e-02
6.003288e+02	-5.305341e-02
6.037963e+02	-5.366424e-02
6.072838e+02	-5.428206e-02
6.107914e+02	-5.490695e-02
6.143194e+02	-5.553899e-02
6.178676e+02	-5.617825e-02
6.214364e+02	-5.682483e-02
6.250258e+02	-5.747879e-02
6.286359e+02	-5.814024e-02
6.322669e+02	-5.880924e-02
6.359189e+02	-5.948589e-02
6.395919e+02	-6.017026e-02
6.432862e+02	-6.086246e-02
6.470017e+02	-6.156256e-02
6.507388e+02	-6.227066e-02
6.544974e+02	-6.298684e-02
6.582778e+02	-6.371120e-02
6.620800e+02	-6.444383e-02
6.659041e+02	-6.518482e-02
6.697504e+02	-6.593427e-02
6.736188e+02	-6.669226e-02
6.775096e+02	-6.745890e-02
6.814229e+02	-6.823428e-02
6.853587e+02	-6.901851e-02
6.893173e+02	-6.981168e-02
6.932988e+02	-7.061388e-02
6.973033e+02	-7.142523e-02
7.013309e+02	-7.224582e-02
