Frequency(Hz)	Magnitude(dB)
1.000000e+01	-1.560174e-05
1.005776e+01	-1.578249e-05
1.011585e+01	-1.596534e-05
1.017428e+01	-1.615030e-05
1.023305e+01	-1.633740e-05
1.029215e+01	-1.652668e-05
1.035160e+01	-1.671814e-05
1.041139e+01	-1.691183e-05
1.047153e+01	-1.710775e-05
1.053201e+01	-1.730595e-05
1.059284e+01	-1.750645e-05
1.065403e+01	-1.770926e-05
1.071556e+01	-1.791443e-05
1.077746e+01	-1.812197e-05
1.083971e+01	-1.833192e-05
1.090232e+01	-1.854430e-05
1.096529e+01	-1.875914e-05
1.102862e+01	-1.897647e-05
1.109232e+01	-1.919632e-05
1.115639e+01	-1.941871e-05
1.122083e+01	-1.964368e-05
1.128564e+01	-1.987126e-05
1.135083e+01	-2.010147e-05
1.141639e+01	-2.033435e-05
1.148233e+01	-2.056993e-05
1.154865e+01	-2.080824e-05
1.161536e+01	-2.104931e-05
1.168245e+01	-2.129317e-05
1.174992e+01	-2.153986e-05
1.181779e+01	-2.178940e-05
1.188605e+01	-2.204184e-05
1.195470e+01	-2.229720e-05
1.202375e+01	-2.255551e-05
1.209320e+01	-2.281683e-05
1.216305e+01	-2.308116e-05
1.223330e+01	-2.334857e-05
1.230396e+01	-2.361906e-05
1.237503e+01	-2.389270e-05
1.244651e+01	-2.416950e-05
1.251840e+01	-2.444951e-05
1.259070e+01	-2.473276e-05
1.266343e+01	-2.501930e-05
1.273657e+01	-2.530915e-05
1.281014e+01	-2.560237e-05
1.288413e+01	-2.589898e-05
1.295855e+01	-2.619902e-05
1.303339e+01	-2.650254e-05
1.310867e+01	-2.680958e-05
1.318439e+01	-2.712018e-05
1.326054e+01	-2.743437e-05
1.333713e+01	-2.775221e-05
1.341417e+01	-2.807372e-05
1.349165e+01	-2.839896e-05
1.356958e+01	-2.872797e-05
1.364795e+01	-2.906079e-05
1.372678e+01	-2.939747e-05
1.380607e+01	-2.973805e-05
1.388581e+01	-3.008257e-05
1.396602e+01	-3.043108e-05
1.404668e+01	-3.078363e-05
1.412782e+01	-3.114027e-05
1.420942e+01	-3.150104e-05
1.429149e+01	-3.186598e-05
1.437404e+01	-3.223516e-05
1.445706e+01	-3.260861e-05
1.454057e+01	-3.298639e-05
1.462455e+01	-3.336854e-05
1.470902e+01	-3.375513e-05
1.479398e+01	-3.414619e-05
1.487943e+01	-3.454178e-05
1.496537e+01	-3.494195e-05
1.505181e+01	-3.534676e-05
1.513875e+01	-3.575626e-05
1.522619e+01	-3.617051e-05
1.531414e+01	-3.658955e-05
1.540259e+01	-3.701345e-05
1.549156e+01	-3.744226e-05
1.558103e+01	-3.787604e-05
1.567103e+01	-3.831484e-05
1.576155e+01	-3.875873e-05
1.585258e+01	-3.920775e-05
1.594415e+01	-3.966199e-05
1.603624e+01	-4.012148e-05
1.612886e+01	-4.058629e-05
1.622202e+01	-4.105650e-05
1.631572e+01	-4.153215e-05
1.640996e+01	-4.201330e-05
1.650474e+01	-4.250004e-05
1.660008e+01	-4.299241e-05
1.669596e+01	-4.349049e-05
1.679239e+01	-4.399433e-05
1.688938e+01	-4.450402e-05
1.698694e+01	-4.501961e-05
1.708505e+01	-4.554117e-05
1.718373e+01	-4.606877e-05
1.728299e+01	-4.660249e-05
1.738281e+01	-4.714239e-05
1.748322e+01	-4.768854e-05
1.758420e+01	-4.824103e-05
1.768576e+01	-4.879991e-05
1.778792e+01	-4.936527e-05
1.789066e+01	-4.993717e-05
1.799399e+01	-5.051571e-05
1.809793e+01	-5.110094e-05
1.820246e+01	-5.169296e-05
1.830760e+01	-5.229183e-05
1.841334e+01	-5.289764e-05
1.851969e+01	-5.351047e-05
1.862666e+01	-5.413040e-05
1.873425e+01	-5.475751e-05
1.884246e+01	-5.539189e-05
1.895129e+01	-5.603362e-05
1.906075e+01	-5.668278e-05
1.917085e+01	-5.733946e-05
1.928158e+01	-5.800375e-05
1.939295e+01	-5.867573e-05
1.950496e+01	-5.935550e-05
1.961762e+01	-6.004315e-05
1.973093e+01	-6.073876e-05
1.984490e+01	-6.144243e-05
1.995952e+01	-6.215426e-05
2.007480e+01	-6.287432e-05
2.019076e+01	-6.360274e-05
2.030738e+01	-6.433959e-05
2.042467e+01	-6.508497e-05
2.054264e+01	-6.583899e-05
2.066130e+01	-6.660175e-05
2.078064e+01	-6.737335e-05
2.090066e+01	-6.815388e-05
2.102139e+01	-6.894345e-05
2.114280e+01	-6.974218e-05
2.126492e+01	-7.055015e-05
2.138775e+01	-7.136749e-05
2.151128e+01	-7.219429e-05
2.163553e+01	-7.303068e-05
2.176050e+01	-7.387675e-05
2.188619e+01	-7.473263e-05
2.201260e+01	-7.559842e-05
2.213974e+01	-7.647424e-05
2.226762e+01	-7.736021e-05
2.239624e+01	-7.825644e-05
2.252560e+01	-7.916305e-05
2.265571e+01	-8.008017e-05
2.278656e+01	-8.100791e-05
2.291818e+01	-8.194640e-05
2.305055e+01	-8.289577e-05
2.318369e+01	-8.385613e-05
2.331760e+01	-8.482762e-05
2.345228e+01	-8.581036e-05
2.358774e+01	-8.680448e-05
2.372398e+01	-8.781013e-05
2.386101e+01	-8.882742e-05
2.399883e+01	-8.985650e-05
2.413745e+01	-9.089750e-05
2.427686e+01	-9.195057e-05
2.441709e+01	-9.301583e-05
2.455812e+01	-9.409343e-05
2.469997e+01	-9.518352e-05
2.484263e+01	-9.628623e-05
2.498612e+01	-9.740172e-05
2.513044e+01	-9.853014e-05
2.527559e+01	-9.967162e-05
2.542158e+01	-1.008263e-04
2.556842e+01	-1.019944e-04
2.571610e+01	-1.031760e-04
2.586463e+01	-1.043713e-04
2.601403e+01	-1.055805e-04
2.616428e+01	-1.068037e-04
2.631541e+01	-1.080410e-04
2.646740e+01	-1.092927e-04
2.662028e+01	-1.105588e-04
2.677404e+01	-1.118397e-04
2.692868e+01	-1.131354e-04
2.708422e+01	-1.144460e-04
2.724066e+01	-1.157719e-04
2.739800e+01	-1.171132e-04
2.755625e+01	-1.184699e-04
2.771541e+01	-1.198424e-04
2.787550e+01	-1.212308e-04
2.803650e+01	-1.226353e-04
2.819844e+01	-1.240560e-04
2.836131e+01	-1.254932e-04
2.852513e+01	-1.269471e-04
2.868989e+01	-1.284178e-04
2.885560e+01	-1.299055e-04
2.902227e+01	-1.314105e-04
2.918990e+01	-1.329329e-04
2.935850e+01	-1.344729e-04
2.952807e+01	-1.360308e-04
2.969863e+01	-1.376067e-04
2.987016e+01	-1.392009e-04
3.004269e+01	-1.408136e-04
3.021622e+01	-1.424449e-04
3.039075e+01	-1.440951e-04
3.056628e+01	-1.457645e-04
3.074283e+01	-1.474532e-04
3.092040e+01	-1.491614e-04
3.109900e+01	-1.508895e-04
3.127862e+01	-1.526376e-04
3.145929e+01	-1.544059e-04
3.164099e+01	-1.561947e-04
3.182375e+01	-1.580042e-04
3.200756e+01	-1.598347e-04
3.219244e+01	-1.616864e-04
3.237838e+01	-1.635595e-04
3.256540e+01	-1.654544e-04
3.275349e+01	-1.673712e-04
3.294268e+01	-1.693102e-04
3.313295e+01	-1.712717e-04
3.332433e+01	-1.732558e-04
3.351681e+01	-1.752630e-04
3.371040e+01	-1.772934e-04
3.390511e+01	-1.793474e-04
3.410094e+01	-1.814251e-04
3.429791e+01	-1.835270e-04
3.449601e+01	-1.856531e-04
3.469526e+01	-1.878039e-04
3.489566e+01	-1.899796e-04
3.509721e+01	-1.921806e-04
3.529993e+01	-1.944070e-04
3.550382e+01	-1.966592e-04
3.570889e+01	-1.989375e-04
3.591515e+01	-2.012422e-04
3.612259e+01	-2.035736e-04
3.633123e+01	-2.059320e-04
3.654108e+01	-2.083177e-04
3.675214e+01	-2.107310e-04
3.696442e+01	-2.131724e-04
3.717792e+01	-2.156420e-04
3.739266e+01	-2.181402e-04
3.760864e+01	-2.206673e-04
3.782587e+01	-2.232238e-04
3.804435e+01	-2.258098e-04
3.826409e+01	-2.284258e-04
3.848510e+01	-2.310721e-04
3.870739e+01	-2.337491e-04
3.893096e+01	-2.364570e-04
3.915583e+01	-2.391964e-04
3.938199e+01	-2.419675e-04
3.960946e+01	-2.447706e-04
3.983824e+01	-2.476063e-04
4.006834e+01	-2.504748e-04
4.029978e+01	-2.533765e-04
4.053255e+01	-2.563119e-04
4.076666e+01	-2.592812e-04
4.100213e+01	-2.622850e-04
4.123896e+01	-2.653236e-04
4.147715e+01	-2.683973e-04
4.171672e+01	-2.715067e-04
4.195767e+01	-2.746520e-04
4.220002e+01	-2.778339e-04
4.244377e+01	-2.810525e-04
4.268892e+01	-2.843085e-04
4.293549e+01	-2.876022e-04
4.318348e+01	-2.909340e-04
4.343291e+01	-2.943045e-04
4.368377e+01	-2.977140e-04
4.393609e+01	-3.011629e-04
4.418986e+01	-3.046519e-04
4.444510e+01	-3.081812e-04
4.470182e+01	-3.117515e-04
4.496001e+01	-3.153630e-04
4.521970e+01	-3.190165e-04
4.548089e+01	-3.227122e-04
4.574358e+01	-3.264508e-04
4.600779e+01	-3.302327e-04
4.627353e+01	-3.340584e-04
4.654081e+01	-3.379284e-04
4.680963e+01	-3.418432e-04
4.708000e+01	-3.458034e-04
4.735193e+01	-3.498095e-04
4.762543e+01	-3.538620e-04
4.790051e+01	-3.579614e-04
4.817719e+01	-3.621083e-04
4.845545e+01	-3.663032e-04
4.873533e+01	-3.705468e-04
4.901682e+01	-3.748395e-04
4.929994e+01	-3.791819e-04
4.958470e+01	-3.835746e-04
4.987110e+01	-3.880183e-04
5.015915e+01	-3.925134e-04
5.044887e+01	-3.970605e-04
5.074026e+01	-4.016604e-04
5.103333e+01	-4.063135e-04
5.132810e+01	-4.110205e-04
5.162457e+01	-4.157821e-04
5.192275e+01	-4.205988e-04
5.222265e+01	-4.254713e-04
5.252429e+01	-4.304003e-04
5.282767e+01	-4.353863e-04
5.313280e+01	-4.404302e-04
5.343969e+01	-4.455324e-04
5.374836e+01	-4.506937e-04
5.405880e+01	-4.559149e-04
5.437105e+01	-4.611965e-04
5.468509e+01	-4.665393e-04
5.500095e+01	-4.719440e-04
5.531863e+01	-4.774113e-04
5.563815e+01	-4.829419e-04
5.595951e+01	-4.885366e-04
5.628273e+01	-4.941961e-04
5.660782e+01	-4.999212e-04
5.693479e+01	-5.057126e-04
5.726364e+01	-5.115711e-04
5.759439e+01	-5.174974e-04
5.792705e+01	-5.234924e-04
5.826164e+01	-5.295568e-04
5.859815e+01	-5.356915e-04
5.893662e+01	-5.418973e-04
5.927703e+01	-5.481749e-04
5.961941e+01	-5.545253e-04
5.996377e+01	-5.609492e-04
6.031012e+01	-5.674475e-04
6.065847e+01	-5.740211e-04
6.100883e+01	-5.806708e-04
6.136121e+01	-5.873976e-04
6.171563e+01	-5.942023e-04
6.207210e+01	-6.010858e-04
6.243063e+01	-6.080491e-04
6.279122e+01	-6.150930e-04
6.315390e+01	-6.222185e-04
6.351868e+01	-6.294266e-04
6.388556e+01	-6.367181e-04
6.425456e+01	-6.440941e-04
6.462569e+01	-6.515556e-04
6.499897e+01	-6.591035e-04
6.537440e+01	-6.667388e-04
6.575200e+01	-6.744625e-04
6.613178e+01	-6.822757e-04
6.651375e+01	-6.901795e-04
6.689793e+01	-6.981747e-04
6.728433e+01	-7.062626e-04
6.767297e+01	-7.144442e-04
6.806384e+01	-7.227205e-04
6.845698e+01	-7.310928e-04
6.885238e+01	-7.395619e-04
6.925007e+01	-7.481292e-04
6.965005e+01	-7.567958e-04
7.005235e+01	-7.655627e-04
7.045697e+01	-7.744311e-04
7.086393e+01	-7.834023e-04
7.127323e+01	-7.924774e-04
7.168490e+01	-8.016576e-04
7.209895e+01	-8.109442e-04
7.251539e+01	-8.203383e-04
7.293424e+01	-8.298413e-04
7.335551e+01	-8.394543e-04
7.377920e+01	-8.491786e-04
7.420535e+01	-8.590156e-04
7.463396e+01	-8.689666e-04
7.506504e+01	-8.790328e-04
7.549861e+01	-8.892155e-04
7.593469e+01	-8.995163e-04
7.637328e+01	-9.099363e-04
7.681441e+01	-9.204771e-04
7.725809e+01	-9.311399e-04
7.770433e+01	-9.419263e-04
7.815315e+01	-9.528375e-04
7.860456e+01	-9.638752e-04
7.905857e+01	-9.750407e-04
7.951521e+01	-9.863355e-04
7.997449e+01	-9.977612e-04
8.043642e+01	-1.009319e-03
8.090102e+01	-1.021011e-03
8.136830e+01	-1.032838e-03
8.183828e+01	-1.044803e-03
8.231097e+01	-1.056905e-03
8.278640e+01	-1.069148e-03
8.326457e+01	-1.081533e-03
8.374550e+01	-1.094062e-03
8.422921e+01	-1.106735e-03
8.471572e+01	-1.119555e-03
8.520503e+01	-1.132524e-03
8.569717e+01	-1.145643e-03
8.619215e+01	-1.158913e-03
8.669000e+01	-1.172338e-03
8.719071e+01	-1.185918e-03
8.769432e+01	-1.199655e-03
8.820084e+01	-1.213552e-03
8.871029e+01	-1.227609e-03
8.922267e+01	-1.241829e-03
8.973802e+01	-1.256214e-03
9.025634e+01	-1.270765e-03
9.077766e+01	-1.285485e-03
9.130199e+01	-1.300376e-03
9.182935e+01	-1.315439e-03
9.235975e+01	-1.330676e-03
9.289321e+01	-1.346090e-03
9.342976e+01	-1.361682e-03
9.396941e+01	-1.377455e-03
9.451217e+01	-1.393411e-03
9.505807e+01	-1.409551e-03
9.560712e+01	-1.425879e-03
9.615934e+01	-1.442395e-03
9.671476e+01	-1.459103e-03
9.727338e+01	-1.476004e-03
9.783522e+01	-1.493101e-03
9.840032e+01	-1.510396e-03
9.896867e+01	-1.527891e-03
9.954031e+01	-1.545589e-03
1.001153e+02	-1.563492e-03
1.006935e+02	-1.581602e-03
1.012751e+02	-1.599922e-03
1.018601e+02	-1.618454e-03
1.024484e+02	-1.637201e-03
1.030402e+02	-1.656165e-03
1.036353e+02	-1.675348e-03
1.042339e+02	-1.694754e-03
1.048360e+02	-1.714384e-03
1.054415e+02	-1.734242e-03
1.060505e+02	-1.754329e-03
1.066631e+02	-1.774649e-03
1.072791e+02	-1.795205e-03
1.078988e+02	-1.815999e-03
1.085220e+02	-1.837033e-03
1.091488e+02	-1.858311e-03
1.097793e+02	-1.879835e-03
1.104133e+02	-1.901609e-03
1.110511e+02	-1.923635e-03
1.116925e+02	-1.945915e-03
1.123376e+02	-1.968454e-03
1.129865e+02	-1.991254e-03
1.136391e+02	-2.014318e-03
1.142955e+02	-2.037649e-03
1.149556e+02	-2.061250e-03
1.156196e+02	-2.085124e-03
1.162874e+02	-2.109275e-03
1.169591e+02	-2.133706e-03
1.176347e+02	-2.158419e-03
1.183141e+02	-2.183419e-03
1.189975e+02	-2.208708e-03
1.196848e+02	-2.234290e-03
1.203761e+02	-2.260168e-03
1.210714e+02	-2.286345e-03
1.217707e+02	-2.312826e-03
1.224740e+02	-2.339614e-03
1.231814e+02	-2.366711e-03
1.238929e+02	-2.394123e-03
1.246085e+02	-2.421852e-03
1.253283e+02	-2.449902e-03
1.260522e+02	-2.478276e-03
1.267802e+02	-2.506979e-03
1.275125e+02	-2.536015e-03
1.282490e+02	-2.565387e-03
1.289898e+02	-2.595098e-03
1.297348e+02	-2.625154e-03
1.304842e+02	-2.655558e-03
1.312378e+02	-2.686314e-03
1.319959e+02	-2.717426e-03
1.327583e+02	-2.748898e-03
1.335251e+02	-2.780734e-03
1.342963e+02	-2.812939e-03
1.350720e+02	-2.845517e-03
1.358522e+02	-2.878473e-03
1.366368e+02	-2.911809e-03
1.374260e+02	-2.945532e-03
1.382198e+02	-2.979645e-03
1.390182e+02	-3.014153e-03
1.398211e+02	-3.049060e-03
1.406287e+02	-3.084372e-03
1.414410e+02	-3.120092e-03
1.422579e+02	-3.156226e-03
1.430796e+02	-3.192778e-03
1.439060e+02	-3.229754e-03
1.447372e+02	-3.267157e-03
1.455732e+02	-3.304994e-03
1.464141e+02	-3.343268e-03
1.472597e+02	-3.381986e-03
1.481103e+02	-3.421151e-03
1.489658e+02	-3.460771e-03
1.498262e+02	-3.500848e-03
1.506916e+02	-3.541390e-03
1.515620e+02	-3.582401e-03
1.524374e+02	-3.623887e-03
1.533179e+02	-3.665853e-03
1.542034e+02	-3.708304e-03
1.550941e+02	-3.751247e-03
1.559899e+02	-3.794688e-03
1.568909e+02	-3.838630e-03
1.577971e+02	-3.883082e-03
1.587085e+02	-3.928048e-03
1.596252e+02	-3.973535e-03
1.605472e+02	-4.019548e-03
1.614745e+02	-4.066094e-03
1.624072e+02	-4.113178e-03
1.633453e+02	-4.160807e-03
1.642887e+02	-4.208988e-03
1.652377e+02	-4.257726e-03
1.661921e+02	-4.307029e-03
1.671520e+02	-4.356902e-03
1.681175e+02	-4.407352e-03
1.690885e+02	-4.458386e-03
1.700651e+02	-4.510010e-03
1.710474e+02	-4.562233e-03
1.720354e+02	-4.615059e-03
1.730291e+02	-4.668497e-03
1.740285e+02	-4.722553e-03
1.750337e+02	-4.777235e-03
1.760446e+02	-4.832550e-03
1.770615e+02	-4.888504e-03
1.780842e+02	-4.945107e-03
1.791128e+02	-5.002364e-03
1.801473e+02	-5.060284e-03
1.811878e+02	-5.118874e-03
1.822344e+02	-5.178142e-03
1.832870e+02	-5.238096e-03
1.843456e+02	-5.298743e-03
1.854104e+02	-5.360093e-03
1.864813e+02	-5.422152e-03
1.875584e+02	-5.484929e-03
1.886418e+02	-5.548433e-03
1.897313e+02	-5.612671e-03
1.908272e+02	-5.677653e-03
1.919294e+02	-5.743386e-03
1.930380e+02	-5.809880e-03
1.941530e+02	-5.877143e-03
1.952744e+02	-5.945185e-03
1.964023e+02	-6.014013e-03
1.975367e+02	-6.083638e-03
1.986777e+02	-6.154069e-03
1.998252e+02	-6.225314e-03
2.009794e+02	-6.297383e-03
2.021403e+02	-6.370287e-03
2.033078e+02	-6.444033e-03
2.044821e+02	-6.518633e-03
2.056632e+02	-6.594095e-03
2.068511e+02	-6.670431e-03
2.080459e+02	-6.747649e-03
2.092475e+02	-6.825761e-03
2.104561e+02	-6.904776e-03
2.116717e+02	-6.984705e-03
2.128943e+02	-7.065559e-03
2.141240e+02	-7.147347e-03
2.153608e+02	-7.230082e-03
2.166047e+02	-7.313774e-03
2.178558e+02	-7.398433e-03
2.191141e+02	-7.484072e-03
2.203797e+02	-7.570701e-03
2.216526e+02	-7.658332e-03
2.229329e+02	-7.746976e-03
2.242205e+02	-7.836646e-03
2.255156e+02	-7.927352e-03
2.268182e+02	-8.019107e-03
2.281283e+02	-8.111924e-03
2.294459e+02	-8.205813e-03
2.307712e+02	-8.300789e-03
2.321041e+02	-8.396862e-03
2.334447e+02	-8.494046e-03
2.347931e+02	-8.592354e-03
2.361493e+02	-8.691799e-03
2.375133e+02	-8.792394e-03
2.388851e+02	-8.894151e-03
2.402649e+02	-8.997085e-03
2.416527e+02	-9.101209e-03
2.430484e+02	-9.206537e-03
2.444523e+02	-9.313082e-03
2.458642e+02	-9.420859e-03
2.472843e+02	-9.529882e-03
2.487126e+02	-9.640165e-03
2.501492e+02	-9.751723e-03
2.515940e+02	-9.864570e-03
2.530472e+02	-9.978722e-03
2.545088e+02	-1.009419e-02
2.559789e+02	-1.021100e-02
2.574574e+02	-1.032916e-02
2.589444e+02	-1.044868e-02
2.604401e+02	-1.056958e-02
2.619444e+02	-1.069188e-02
2.634574e+02	-1.081559e-02
2.649791e+02	-1.094074e-02
2.665096e+02	-1.106732e-02
2.680489e+02	-1.119538e-02
2.695972e+02	-1.132491e-02
2.711544e+02	-1.145594e-02
2.727205e+02	-1.158848e-02
2.742958e+02	-1.172255e-02
2.758801e+02	-1.185817e-02
2.774736e+02	-1.199536e-02
2.790762e+02	-1.213414e-02
2.806882e+02	-1.227452e-02
2.823094e+02	-1.241652e-02
2.839400e+02	-1.256016e-02
2.855800e+02	-1.270545e-02
2.872295e+02	-1.285243e-02
2.888886e+02	-1.300111e-02
2.905572e+02	-1.315150e-02
2.922354e+02	-1.330363e-02
2.939234e+02	-1.345751e-02
2.956211e+02	-1.361318e-02
2.973286e+02	-1.377064e-02
2.990459e+02	-1.392992e-02
3.007732e+02	-1.409104e-02
3.025104e+02	-1.425402e-02
3.042577e+02	-1.441888e-02
3.060151e+02	-1.458564e-02
3.077826e+02	-1.475433e-02
3.095604e+02	-1.492497e-02
3.113484e+02	-1.509758e-02
3.131467e+02	-1.527218e-02
3.149554e+02	-1.544880e-02
3.167746e+02	-1.562745e-02
3.186043e+02	-1.580817e-02
3.204445e+02	-1.599097e-02
3.222954e+02	-1.617588e-02
3.241570e+02	-1.636293e-02
3.260293e+02	-1.655214e-02
3.279124e+02	-1.674353e-02
3.298064e+02	-1.693713e-02
3.317114e+02	-1.713296e-02
3.336273e+02	-1.733105e-02
3.355544e+02	-1.753143e-02
3.374925e+02	-1.773412e-02
3.394418e+02	-1.793915e-02
3.414024e+02	-1.814654e-02
3.433744e+02	-1.835633e-02
3.453577e+02	-1.856853e-02
3.473525e+02	-1.878319e-02
3.493588e+02	-1.900032e-02
3.513766e+02	-1.921995e-02
3.534062e+02	-1.944212e-02
3.554474e+02	-1.966685e-02
3.575005e+02	-1.989417e-02
3.595654e+02	-2.012412e-02
3.616422e+02	-2.035671e-02
3.637311e+02	-2.059199e-02
3.658320e+02	-2.082998e-02
3.679450e+02	-2.107071e-02
3.700702e+02	-2.131422e-02
3.722077e+02	-2.156053e-02
3.743576e+02	-2.180969e-02
3.765199e+02	-2.206171e-02
3.786946e+02	-2.231665e-02
3.808820e+02	-2.257452e-02
3.830819e+02	-2.283536e-02
3.852946e+02	-2.309920e-02
3.875200e+02	-2.336609e-02
3.897583e+02	-2.363605e-02
3.920096e+02	-2.390913e-02
3.942738e+02	-2.418535e-02
3.965511e+02	-2.446475e-02
3.988416e+02	-2.474737e-02
4.011452e+02	-2.503324e-02
4.034622e+02	-2.532241e-02
4.057926e+02	-2.561491e-02
4.081365e+02	-2.591078e-02
4.104938e+02	-2.621005e-02
4.128648e+02	-2.651277e-02
4.152495e+02	-2.681898e-02
4.176480e+02	-2.712871e-02
4.200603e+02	-2.744200e-02
4.224866e+02	-2.775891e-02
4.249268e+02	-2.807946e-02
4.273812e+02	-2.840370e-02
4.298497e+02	-2.873167e-02
4.323325e+02	-2.906342e-02
4.348297e+02	-2.939898e-02
4.373412e+02	-2.973841e-02
4.398673e+02	-3.008174e-02
4.424079e+02	-3.042902e-02
4.449633e+02	-3.078029e-02
4.475334e+02	-3.113561e-02
4.501183e+02	-3.149501e-02
4.527182e+02	-3.185854e-02
4.553330e+02	-3.222626e-02
4.579630e+02	-3.259820e-02
4.606082e+02	-3.297442e-02
4.632687e+02	-3.335497e-02
4.659445e+02	-3.373989e-02
4.686358e+02	-3.412923e-02
4.713426e+02	-3.452305e-02
4.740650e+02	-3.492140e-02
4.768032e+02	-3.532432e-02
4.795572e+02	-3.573187e-02
4.823271e+02	-3.614411e-02
4.851130e+02	-3.656108e-02
4.879150e+02	-3.698284e-02
4.907332e+02	-3.740945e-02
4.935676e+02	-3.784095e-02
4.964185e+02	-3.827741e-02
4.992858e+02	-3.871888e-02
5.021696e+02	-3.916542e-02
5.050701e+02	-3.961709e-02
5.079874e+02	-4.007394e-02
5.109215e+02	-4.053603e-02
5.138726e+02	-4.100343e-02
5.168407e+02	-4.147619e-02
5.198259e+02	-4.195438e-02
5.228284e+02	-4.243805e-02
5.258482e+02	-4.292727e-02
5.288855e+02	-4.342210e-02
5.319403e+02	-4.392261e-02
5.350128e+02	-4.442885e-02
5.381030e+02	-4.494090e-02
5.412111e+02	-4.545882e-02
5.443371e+02	-4.598268e-02
5.474812e+02	-4.651254e-02
5.506434e+02	-4.704848e-02
5.538239e+02	-4.759055e-02
5.570228e+02	-4.813884e-02
5.602401e+02	-4.869341e-02
5.634760e+02	-4.925433e-02
5.667306e+02	-4.982167e-02
5.700040e+02	-5.039551e-02
5.732964e+02	-5.097592e-02
5.766077e+02	-5.156298e-02
5.799382e+02	-5.215676e-02
5.832879e+02	-5.275733e-02
5.866569e+02	-5.336477e-02
5.900454e+02	-5.397917e-02
5.934535e+02	-5.460059e-02
5.968813e+02	-5.522913e-02
6.003288e+02	-5.586485e-02
6.037963e+02	-5.650784e-02
6.072838e+02	-5.715818e-02
6.107914e+02	-5.781596e-02
6.143194e+02	-5.848126e-02
6.178676e+02	-5.915416e-02
6.214364e+02	-5.983475e-02
6.250258e+02	-6.052311e-02
6.286359e+02	-6.121934e-02
6.322669e+02	-6.192352e-02
6.359189e+02	-6.263574e-02
6.395919e+02	-6.335609e-02
6.432862e+02	-6.408467e-02
6.470017e+02	-6.482156e-02
6.507388e+02	-6.556686e-02
6.544974e+02	-6.632066e-02
6.582778e+02	-6.708307e-02
6.620800e+02	-6.785416e-02
6.659041e+02	-6.863406e-02
6.697504e+02	-6.942284e-02
6.736188e+02	-7.022062e-02
6.775096e+02	-7.102748e-02
6.814229e+02	-7.184355e-02
6.853587e+02	-7.266891e-02
6.893173e+02	-7.350367e-02
6.932988e+02	-7.434793e-02
6.973033e+02	-7.520182e-02
7.013309e+02	-7.606542e-02
