Frequency(Hz)	Magnitude(dB)
1.000000e+01	-1.605197e-05
1.005776e+01	-1.623794e-05
1.011585e+01	-1.642606e-05
1.017428e+01	-1.661636e-05
1.023305e+01	-1.680887e-05
1.029215e+01	-1.700360e-05
1.035160e+01	-1.720059e-05
1.041139e+01	-1.739987e-05
1.047153e+01	-1.760145e-05
1.053201e+01	-1.780536e-05
1.059284e+01	-1.801164e-05
1.065403e+01	-1.822031e-05
1.071556e+01	-1.843140e-05
1.077746e+01	-1.864493e-05
1.083971e+01	-1.886094e-05
1.090232e+01	-1.907945e-05
1.096529e+01	-1.930049e-05
1.102862e+01	-1.952409e-05
1.109232e+01	-1.975028e-05
1.115639e+01	-1.997909e-05
1.122083e+01	-2.021056e-05
1.128564e+01	-2.044470e-05
1.135083e+01	-2.068156e-05
1.141639e+01	-2.092116e-05
1.148233e+01	-2.116354e-05
1.154865e+01	-2.140872e-05
1.161536e+01	-2.165675e-05
1.168245e+01	-2.190764e-05
1.174992e+01	-2.216145e-05
1.181779e+01	-2.241820e-05
1.188605e+01	-2.267792e-05
1.195470e+01	-2.294065e-05
1.202375e+01	-2.320642e-05
1.209320e+01	-2.347527e-05
1.216305e+01	-2.374724e-05
1.223330e+01	-2.402236e-05
1.230396e+01	-2.430066e-05
1.237503e+01	-2.458219e-05
1.244651e+01	-2.486698e-05
1.251840e+01	-2.515507e-05
1.259070e+01	-2.544650e-05
1.266343e+01	-2.574130e-05
1.273657e+01	-2.603952e-05
1.281014e+01	-2.634120e-05
1.288413e+01	-2.664636e-05
1.295855e+01	-2.695507e-05
1.303339e+01	-2.726735e-05
1.310867e+01	-2.758325e-05
1.318439e+01	-2.790281e-05
1.326054e+01	-2.822607e-05
1.333713e+01	-2.855307e-05
1.341417e+01	-2.888387e-05
1.349165e+01	-2.921850e-05
1.356958e+01	-2.955700e-05
1.364795e+01	-2.989942e-05
1.372678e+01	-3.024582e-05
1.380607e+01	-3.059622e-05
1.388581e+01	-3.095069e-05
1.396602e+01	-3.130926e-05
1.404668e+01	-3.167198e-05
1.412782e+01	-3.203891e-05
1.420942e+01	-3.241009e-05
1.429149e+01	-3.278557e-05
1.437404e+01	-3.316539e-05
1.445706e+01	-3.354962e-05
1.454057e+01	-3.393830e-05
1.462455e+01	-3.433149e-05
1.470902e+01	-3.472923e-05
1.479398e+01	-3.513157e-05
1.487943e+01	-3.553858e-05
1.496537e+01	-3.595030e-05
1.505181e+01	-3.636679e-05
1.513875e+01	-3.678811e-05
1.522619e+01	-3.721431e-05
1.531414e+01	-3.764545e-05
1.540259e+01	-3.808158e-05
1.549156e+01	-3.852276e-05
1.558103e+01	-3.896906e-05
1.567103e+01	-3.942052e-05
1.576155e+01	-3.987722e-05
1.585258e+01	-4.033920e-05
1.594415e+01	-4.080654e-05
1.603624e+01	-4.127930e-05
1.612886e+01	-4.175753e-05
1.622202e+01	-4.224130e-05
1.631572e+01	-4.273067e-05
1.640996e+01	-4.322572e-05
1.650474e+01	-4.372649e-05
1.660008e+01	-4.423308e-05
1.669596e+01	-4.474553e-05
1.679239e+01	-4.526391e-05
1.688938e+01	-4.578830e-05
1.698694e+01	-4.631877e-05
1.708505e+01	-4.685539e-05
1.718373e+01	-4.739822e-05
1.728299e+01	-4.794733e-05
1.738281e+01	-4.850281e-05
1.748322e+01	-4.906473e-05
1.758420e+01	-4.963315e-05
1.768576e+01	-5.020817e-05
1.778792e+01	-5.078984e-05
1.789066e+01	-5.137825e-05
1.799399e+01	-5.197348e-05
1.809793e+01	-5.257560e-05
1.820246e+01	-5.318470e-05
1.830760e+01	-5.380086e-05
1.841334e+01	-5.442415e-05
1.851969e+01	-5.505466e-05
1.862666e+01	-5.569248e-05
1.873425e+01	-5.633769e-05
1.884246e+01	-5.699038e-05
1.895129e+01	-5.765062e-05
1.906075e+01	-5.831852e-05
1.917085e+01	-5.899415e-05
1.928158e+01	-5.967761e-05
1.939295e+01	-6.036898e-05
1.950496e+01	-6.106837e-05
1.961762e+01	-6.177586e-05
1.973093e+01	-6.249154e-05
1.984490e+01	-6.321552e-05
1.995952e+01	-6.394789e-05
2.007480e+01	-6.468873e-05
2.019076e+01	-6.543817e-05
2.030738e+01	-6.619628e-05
2.042467e+01	-6.696318e-05
2.054264e+01	-6.773896e-05
2.066130e+01	-6.852373e-05
2.078064e+01	-6.931759e-05
2.090066e+01	-7.012064e-05
2.102139e+01	-7.093300e-05
2.114280e+01	-7.175478e-05
2.126492e+01	-7.258607e-05
2.138775e+01	-7.342699e-05
2.151128e+01	-7.427766e-05
2.163553e+01	-7.513818e-05
2.176050e+01	-7.600866e-05
2.188619e+01	-7.688924e-05
2.201260e+01	-7.778001e-05
2.213974e+01	-7.868111e-05
2.226762e+01	-7.959264e-05
2.239624e+01	-8.051474e-05
2.252560e+01	-8.144751e-05
2.265571e+01	-8.239110e-05
2.278656e+01	-8.334561e-05
2.291818e+01	-8.431119e-05
2.305055e+01	-8.528794e-05
2.318369e+01	-8.627602e-05
2.331760e+01	-8.727554e-05
2.345228e+01	-8.828664e-05
2.358774e+01	-8.930946e-05
2.372398e+01	-9.034412e-05
2.386101e+01	-9.139077e-05
2.399883e+01	-9.244955e-05
2.413745e+01	-9.352059e-05
2.427686e+01	-9.460404e-05
2.441709e+01	-9.570004e-05
2.455812e+01	-9.680874e-05
2.469997e+01	-9.793029e-05
2.484263e+01	-9.906482e-05
2.498612e+01	-1.002125e-04
2.513044e+01	-1.013735e-04
2.527559e+01	-1.025479e-04
2.542158e+01	-1.037359e-04
2.556842e+01	-1.049377e-04
2.571610e+01	-1.061535e-04
2.586463e+01	-1.073833e-04
2.601403e+01	-1.086273e-04
2.616428e+01	-1.098858e-04
2.631541e+01	-1.111588e-04
2.646740e+01	-1.124466e-04
2.662028e+01	-1.137493e-04
2.677404e+01	-1.150671e-04
2.692868e+01	-1.164002e-04
2.708422e+01	-1.177487e-04
2.724066e+01	-1.191128e-04
2.739800e+01	-1.204927e-04
2.755625e+01	-1.218887e-04
2.771541e+01	-1.233008e-04
2.787550e+01	-1.247292e-04
2.803650e+01	-1.261742e-04
2.819844e+01	-1.276360e-04
2.836131e+01	-1.291146e-04
2.852513e+01	-1.306104e-04
2.868989e+01	-1.321236e-04
2.885560e+01	-1.336542e-04
2.902227e+01	-1.352026e-04
2.918990e+01	-1.367690e-04
2.935850e+01	-1.383535e-04
2.952807e+01	-1.399563e-04
2.969863e+01	-1.415777e-04
2.987016e+01	-1.432179e-04
3.004269e+01	-1.448771e-04
3.021622e+01	-1.465555e-04
3.039075e+01	-1.482534e-04
3.056628e+01	-1.499709e-04
3.074283e+01	-1.517083e-04
3.092040e+01	-1.534659e-04
3.109900e+01	-1.552438e-04
3.127862e+01	-1.570423e-04
3.145929e+01	-1.588616e-04
3.164099e+01	-1.607021e-04
3.182375e+01	-1.625638e-04
3.200756e+01	-1.644471e-04
3.219244e+01	-1.663522e-04
3.237838e+01	-1.682794e-04
3.256540e+01	-1.702290e-04
3.275349e+01	-1.722011e-04
3.294268e+01	-1.741960e-04
3.313295e+01	-1.762141e-04
3.332433e+01	-1.782555e-04
3.351681e+01	-1.803206e-04
3.371040e+01	-1.824097e-04
3.390511e+01	-1.845229e-04
3.410094e+01	-1.866606e-04
3.429791e+01	-1.888231e-04
3.449601e+01	-1.910106e-04
3.469526e+01	-1.932234e-04
3.489566e+01	-1.954619e-04
3.509721e+01	-1.977264e-04
3.529993e+01	-2.000170e-04
3.550382e+01	-2.023342e-04
3.570889e+01	-2.046783e-04
3.591515e+01	-2.070495e-04
3.612259e+01	-2.094481e-04
3.633123e+01	-2.118746e-04
3.654108e+01	-2.143292e-04
3.675214e+01	-2.168122e-04
3.696442e+01	-2.193239e-04
3.717792e+01	-2.218648e-04
3.739266e+01	-2.244351e-04
3.760864e+01	-2.270352e-04
3.782587e+01	-2.296654e-04
3.804435e+01	-2.323260e-04
3.826409e+01	-2.350175e-04
3.848510e+01	-2.377402e-04
3.870739e+01	-2.404944e-04
3.893096e+01	-2.432805e-04
3.915583e+01	-2.460989e-04
3.938199e+01	-2.489499e-04
3.960946e+01	-2.518340e-04
3.983824e+01	-2.547515e-04
4.006834e+01	-2.577028e-04
4.029978e+01	-2.606882e-04
4.053255e+01	-2.637083e-04
4.076666e+01	-2.667633e-04
4.100213e+01	-2.698538e-04
4.123896e+01	-2.729800e-04
4.147715e+01	-2.761424e-04
4.171672e+01	-2.793415e-04
4.195767e+01	-2.825777e-04
4.220002e+01	-2.858513e-04
4.244377e+01	-2.891629e-04
4.268892e+01	-2.925128e-04
4.293549e+01	-2.959015e-04
4.318348e+01	-2.993295e-04
4.343291e+01	-3.027972e-04
4.368377e+01	-3.063051e-04
4.393609e+01	-3.098536e-04
4.418986e+01	-3.134432e-04
4.444510e+01	-3.170744e-04
4.470182e+01	-3.207476e-04
4.496001e+01	-3.244634e-04
4.521970e+01	-3.282223e-04
4.548089e+01	-3.320247e-04
4.574358e+01	-3.358711e-04
4.600779e+01	-3.397621e-04
4.627353e+01	-3.436982e-04
4.654081e+01	-3.476799e-04
4.680963e+01	-3.517077e-04
4.708000e+01	-3.557822e-04
4.735193e+01	-3.599038e-04
4.762543e+01	-3.640733e-04
4.790051e+01	-3.682910e-04
4.817719e+01	-3.725575e-04
4.845545e+01	-3.768735e-04
4.873533e+01	-3.812395e-04
4.901682e+01	-3.856561e-04
4.929994e+01	-3.901238e-04
4.958470e+01	-3.946433e-04
4.987110e+01	-3.992152e-04
5.015915e+01	-4.038400e-04
5.044887e+01	-4.085183e-04
5.074026e+01	-4.132509e-04
5.103333e+01	-4.180383e-04
5.132810e+01	-4.228812e-04
5.162457e+01	-4.277801e-04
5.192275e+01	-4.327358e-04
5.222265e+01	-4.377489e-04
5.252429e+01	-4.428201e-04
5.282767e+01	-4.479500e-04
5.313280e+01	-4.531394e-04
5.343969e+01	-4.583889e-04
5.374836e+01	-4.636991e-04
5.405880e+01	-4.690709e-04
5.437105e+01	-4.745050e-04
5.468509e+01	-4.800019e-04
5.500095e+01	-4.855626e-04
5.531863e+01	-4.911876e-04
5.563815e+01	-4.968778e-04
5.595951e+01	-5.026340e-04
5.628273e+01	-5.084568e-04
5.660782e+01	-5.143471e-04
5.693479e+01	-5.203055e-04
5.726364e+01	-5.263331e-04
5.759439e+01	-5.324304e-04
5.792705e+01	-5.385984e-04
5.826164e+01	-5.448378e-04
5.859815e+01	-5.511495e-04
5.893662e+01	-5.575343e-04
5.927703e+01	-5.639931e-04
5.961941e+01	-5.705267e-04
5.996377e+01	-5.771359e-04
6.031012e+01	-5.838218e-04
6.065847e+01	-5.905850e-04
6.100883e+01	-5.974267e-04
6.136121e+01	-6.043475e-04
6.171563e+01	-6.113486e-04
6.207210e+01	-6.184307e-04
6.243063e+01	-6.255949e-04
6.279122e+01	-6.328420e-04
6.315390e+01	-6.401731e-04
6.351868e+01	-6.475892e-04
6.388556e+01	-6.550911e-04
6.425456e+01	-6.626799e-04
6.462569e+01	-6.703567e-04
6.499897e+01	-6.781223e-04
6.537440e+01	-6.859779e-04
6.575200e+01	-6.939246e-04
6.613178e+01	-7.019632e-04
6.651375e+01	-7.100950e-04
6.689793e+01	-7.183209e-04
6.728433e+01	-7.266422e-04
6.767297e+01	-7.350598e-04
6.806384e+01	-7.435750e-04
6.845698e+01	-7.521887e-04
6.885238e+01	-7.609023e-04
6.925007e+01	-7.697168e-04
6.965005e+01	-7.786334e-04
7.005235e+01	-7.876532e-04
7.045697e+01	-7.967776e-04
7.086393e+01	-8.060076e-04
7.127323e+01	-8.153445e-04
7.168490e+01	-8.247896e-04
7.209895e+01	-8.343441e-04
7.251539e+01	-8.440093e-04
7.293424e+01	-8.537864e-04
7.335551e+01	-8.636768e-04
7.377920e+01	-8.736817e-04
7.420535e+01	-8.838025e-04
7.463396e+01	-8.940405e-04
7.506504e+01	-9.043972e-04
7.549861e+01	-9.148738e-04
7.593469e+01	-9.254717e-04
7.637328e+01	-9.361924e-04
7.681441e+01	-9.470372e-04
7.725809e+01	-9.580077e-04
7.770433e+01	-9.691052e-04
7.815315e+01	-9.803313e-04
7.860456e+01	-9.916874e-04
7.905857e+01	-1.003175e-03
7.951521e+01	-1.014796e-03
7.997449e+01	-1.026551e-03
8.043642e+01	-1.038443e-03
8.090102e+01	-1.050472e-03
8.136830e+01	-1.062640e-03
8.183828e+01	-1.074950e-03
8.231097e+01	-1.087402e-03
8.278640e+01	-1.099998e-03
8.326457e+01	-1.112740e-03
8.374550e+01	-1.125630e-03
8.422921e+01	-1.138669e-03
8.471572e+01	-1.151859e-03
8.520503e+01	-1.165202e-03
8.569717e+01	-1.178699e-03
8.619215e+01	-1.192353e-03
8.669000e+01	-1.206165e-03
8.719071e+01	-1.220136e-03
8.769432e+01	-1.234270e-03
8.820084e+01	-1.248567e-03
8.871029e+01	-1.263030e-03
8.922267e+01	-1.277660e-03
8.973802e+01	-1.292460e-03
9.025634e+01	-1.307432e-03
9.077766e+01	-1.322576e-03
9.130199e+01	-1.337896e-03
9.182935e+01	-1.353394e-03
9.235975e+01	-1.369071e-03
9.289321e+01	-1.384929e-03
9.342976e+01	-1.400971e-03
9.396941e+01	-1.417199e-03
9.451217e+01	-1.433615e-03
9.505807e+01	-1.450221e-03
9.560712e+01	-1.467020e-03
9.615934e+01	-1.484013e-03
9.671476e+01	-1.501202e-03
9.727338e+01	-1.518591e-03
9.783522e+01	-1.536181e-03
9.840032e+01	-1.553975e-03
9.896867e+01	-1.571975e-03
9.954031e+01	-1.590184e-03
1.001153e+02	-1.608603e-03
1.006935e+02	-1.627235e-03
1.012751e+02	-1.646084e-03
1.018601e+02	-1.665150e-03
1.024484e+02	-1.684438e-03
1.030402e+02	-1.703949e-03
1.036353e+02	-1.723686e-03
1.042339e+02	-1.743651e-03
1.048360e+02	-1.763847e-03
1.054415e+02	-1.784278e-03
1.060505e+02	-1.804945e-03
1.066631e+02	-1.825851e-03
1.072791e+02	-1.847000e-03
1.078988e+02	-1.868393e-03
1.085220e+02	-1.890034e-03
1.091488e+02	-1.911926e-03
1.097793e+02	-1.934071e-03
1.104133e+02	-1.956473e-03
1.110511e+02	-1.979134e-03
1.116925e+02	-2.002058e-03
1.123376e+02	-2.025246e-03
1.129865e+02	-2.048704e-03
1.136391e+02	-2.072433e-03
1.142955e+02	-2.096437e-03
1.149556e+02	-2.120719e-03
1.156196e+02	-2.145282e-03
1.162874e+02	-2.170129e-03
1.169591e+02	-2.195264e-03
1.176347e+02	-2.220691e-03
1.183141e+02	-2.246411e-03
1.189975e+02	-2.272430e-03
1.196848e+02	-2.298749e-03
1.203761e+02	-2.325374e-03
1.210714e+02	-2.352307e-03
1.217707e+02	-2.379551e-03
1.224740e+02	-2.407111e-03
1.231814e+02	-2.434991e-03
1.238929e+02	-2.463193e-03
1.246085e+02	-2.491721e-03
1.253283e+02	-2.520580e-03
1.260522e+02	-2.549773e-03
1.267802e+02	-2.579304e-03
1.275125e+02	-2.609177e-03
1.282490e+02	-2.639396e-03
1.289898e+02	-2.669964e-03
1.297348e+02	-2.700887e-03
1.304842e+02	-2.732168e-03
1.312378e+02	-2.763810e-03
1.319959e+02	-2.795820e-03
1.327583e+02	-2.828199e-03
1.335251e+02	-2.860954e-03
1.342963e+02	-2.894088e-03
1.350720e+02	-2.927605e-03
1.358522e+02	-2.961511e-03
1.366368e+02	-2.995809e-03
1.374260e+02	-3.030504e-03
1.382198e+02	-3.065601e-03
1.390182e+02	-3.101104e-03
1.398211e+02	-3.137018e-03
1.406287e+02	-3.173348e-03
1.414410e+02	-3.210098e-03
1.422579e+02	-3.247274e-03
1.430796e+02	-3.284880e-03
1.439060e+02	-3.322922e-03
1.447372e+02	-3.361404e-03
1.455732e+02	-3.400331e-03
1.464141e+02	-3.439710e-03
1.472597e+02	-3.479544e-03
1.481103e+02	-3.519839e-03
1.489658e+02	-3.560600e-03
1.498262e+02	-3.601833e-03
1.506916e+02	-3.643544e-03
1.515620e+02	-3.685738e-03
1.524374e+02	-3.728419e-03
1.533179e+02	-3.771595e-03
1.542034e+02	-3.815271e-03
1.550941e+02	-3.859452e-03
1.559899e+02	-3.904145e-03
1.568909e+02	-3.949355e-03
1.577971e+02	-3.995088e-03
1.587085e+02	-4.041351e-03
1.596252e+02	-4.088149e-03
1.605472e+02	-4.135488e-03
1.614745e+02	-4.183376e-03
1.624072e+02	-4.231818e-03
1.633453e+02	-4.280820e-03
1.642887e+02	-4.330390e-03
1.652377e+02	-4.380533e-03
1.661921e+02	-4.431257e-03
1.671520e+02	-4.482567e-03
1.681175e+02	-4.534472e-03
1.690885e+02	-4.586977e-03
1.700651e+02	-4.640090e-03
1.710474e+02	-4.693818e-03
1.720354e+02	-4.748167e-03
1.730291e+02	-4.803145e-03
1.740285e+02	-4.858760e-03
1.750337e+02	-4.915018e-03
1.760446e+02	-4.971927e-03
1.770615e+02	-5.029494e-03
1.780842e+02	-5.087728e-03
1.791128e+02	-5.146636e-03
1.801473e+02	-5.206225e-03
1.811878e+02	-5.266504e-03
1.822344e+02	-5.327480e-03
1.832870e+02	-5.389162e-03
1.843456e+02	-5.451557e-03
1.854104e+02	-5.514675e-03
1.864813e+02	-5.578523e-03
1.875584e+02	-5.643109e-03
1.886418e+02	-5.708443e-03
1.897313e+02	-5.774533e-03
1.908272e+02	-5.841387e-03
1.919294e+02	-5.909015e-03
1.930380e+02	-5.977425e-03
1.941530e+02	-6.046627e-03
1.952744e+02	-6.116629e-03
1.964023e+02	-6.187441e-03
1.975367e+02	-6.259072e-03
1.986777e+02	-6.331532e-03
1.998252e+02	-6.404831e-03
2.009794e+02	-6.478977e-03
2.021403e+02	-6.553980e-03
2.033078e+02	-6.629852e-03
2.044821e+02	-6.706601e-03
2.056632e+02	-6.784238e-03
2.068511e+02	-6.862773e-03
2.080459e+02	-6.942216e-03
2.092475e+02	-7.022578e-03
2.104561e+02	-7.103870e-03
2.116717e+02	-7.186101e-03
2.128943e+02	-7.269284e-03
2.141240e+02	-7.353429e-03
2.153608e+02	-7.438547e-03
2.166047e+02	-7.524650e-03
2.178558e+02	-7.611748e-03
2.191141e+02	-7.699854e-03
2.203797e+02	-7.788979e-03
2.216526e+02	-7.879134e-03
2.229329e+02	-7.970331e-03
2.242205e+02	-8.062584e-03
2.255156e+02	-8.155903e-03
2.268182e+02	-8.250301e-03
2.281283e+02	-8.345791e-03
2.294459e+02	-8.442385e-03
2.307712e+02	-8.540095e-03
2.321041e+02	-8.638936e-03
2.334447e+02	-8.738919e-03
2.347931e+02	-8.840058e-03
2.361493e+02	-8.942367e-03
2.375133e+02	-9.045858e-03
2.388851e+02	-9.150546e-03
2.402649e+02	-9.256444e-03
2.416527e+02	-9.363566e-03
2.430484e+02	-9.471927e-03
2.444523e+02	-9.581540e-03
2.458642e+02	-9.692420e-03
2.472843e+02	-9.804582e-03
2.487126e+02	-9.918041e-03
2.501492e+02	-1.003281e-02
2.515940e+02	-1.014891e-02
2.530472e+02	-1.026635e-02
2.545088e+02	-1.038514e-02
2.559789e+02	-1.050531e-02
2.574574e+02	-1.062687e-02
2.589444e+02	-1.074983e-02
2.604401e+02	-1.087421e-02
2.619444e+02	-1.100003e-02
2.634574e+02	-1.112731e-02
2.649791e+02	-1.125605e-02
2.665096e+02	-1.138628e-02
2.680489e+02	-1.151802e-02
2.695972e+02	-1.165128e-02
2.711544e+02	-1.178608e-02
2.727205e+02	-1.192244e-02
2.742958e+02	-1.206037e-02
2.758801e+02	-1.219989e-02
2.774736e+02	-1.234103e-02
2.790762e+02	-1.248380e-02
2.806882e+02	-1.262822e-02
2.823094e+02	-1.277430e-02
2.839400e+02	-1.292207e-02
2.855800e+02	-1.307155e-02
2.872295e+02	-1.322276e-02
2.888886e+02	-1.337571e-02
2.905572e+02	-1.353043e-02
2.922354e+02	-1.368694e-02
2.939234e+02	-1.384525e-02
2.956211e+02	-1.400539e-02
2.973286e+02	-1.416738e-02
2.990459e+02	-1.433124e-02
3.007732e+02	-1.449699e-02
3.025104e+02	-1.466466e-02
3.042577e+02	-1.483426e-02
3.060151e+02	-1.500582e-02
3.077826e+02	-1.517937e-02
3.095604e+02	-1.535491e-02
3.113484e+02	-1.553248e-02
3.131467e+02	-1.571210e-02
3.149554e+02	-1.589380e-02
3.167746e+02	-1.607759e-02
3.186043e+02	-1.626350e-02
3.204445e+02	-1.645156e-02
3.222954e+02	-1.664179e-02
3.241570e+02	-1.683421e-02
3.260293e+02	-1.702886e-02
3.279124e+02	-1.722575e-02
3.298064e+02	-1.742491e-02
3.317114e+02	-1.762637e-02
3.336273e+02	-1.783016e-02
3.355544e+02	-1.803629e-02
3.374925e+02	-1.824481e-02
3.394418e+02	-1.845573e-02
3.414024e+02	-1.866908e-02
3.433744e+02	-1.888490e-02
3.453577e+02	-1.910320e-02
3.473525e+02	-1.932402e-02
3.493588e+02	-1.954739e-02
3.513766e+02	-1.977333e-02
3.534062e+02	-2.000188e-02
3.554474e+02	-2.023307e-02
3.575005e+02	-2.046692e-02
3.595654e+02	-2.070346e-02
3.616422e+02	-2.094274e-02
3.637311e+02	-2.118477e-02
3.658320e+02	-2.142960e-02
3.679450e+02	-2.167724e-02
3.700702e+02	-2.192774e-02
3.722077e+02	-2.218113e-02
3.743576e+02	-2.243744e-02
3.765199e+02	-2.269670e-02
3.786946e+02	-2.295895e-02
3.808820e+02	-2.322422e-02
3.830819e+02	-2.349255e-02
3.852946e+02	-2.376397e-02
3.875200e+02	-2.403851e-02
3.897583e+02	-2.431622e-02
3.920096e+02	-2.459713e-02
3.942738e+02	-2.488128e-02
3.965511e+02	-2.516870e-02
3.988416e+02	-2.545942e-02
4.011452e+02	-2.575350e-02
4.034622e+02	-2.605096e-02
4.057926e+02	-2.635185e-02
4.081365e+02	-2.665620e-02
4.104938e+02	-2.696406e-02
4.128648e+02	-2.727546e-02
4.152495e+02	-2.759045e-02
4.176480e+02	-2.790906e-02
4.200603e+02	-2.823134e-02
4.224866e+02	-2.855733e-02
4.249268e+02	-2.888707e-02
4.273812e+02	-2.922060e-02
4.298497e+02	-2.955797e-02
4.323325e+02	-2.989923e-02
4.348297e+02	-3.024441e-02
4.373412e+02	-3.059356e-02
4.398673e+02	-3.094673e-02
4.424079e+02	-3.130396e-02
4.449633e+02	-3.166529e-02
4.475334e+02	-3.203079e-02
4.501183e+02	-3.240048e-02
4.527182e+02	-3.277443e-02
4.553330e+02	-3.315268e-02
4.579630e+02	-3.353527e-02
4.606082e+02	-3.392226e-02
4.632687e+02	-3.431371e-02
4.659445e+02	-3.470964e-02
4.686358e+02	-3.511013e-02
4.713426e+02	-3.551523e-02
4.740650e+02	-3.592497e-02
4.768032e+02	-3.633943e-02
4.795572e+02	-3.675864e-02
4.823271e+02	-3.718267e-02
4.851130e+02	-3.761157e-02
4.879150e+02	-3.804540e-02
4.907332e+02	-3.848420e-02
4.935676e+02	-3.892805e-02
4.964185e+02	-3.937699e-02
4.992858e+02	-3.983109e-02
5.021696e+02	-4.029039e-02
5.050701e+02	-4.075497e-02
5.079874e+02	-4.122488e-02
5.109215e+02	-4.170018e-02
5.138726e+02	-4.218094e-02
5.168407e+02	-4.266721e-02
5.198259e+02	-4.315906e-02
5.228284e+02	-4.365655e-02
5.258482e+02	-4.415974e-02
5.288855e+02	-4.466871e-02
5.319403e+02	-4.518351e-02
5.350128e+02	-4.570421e-02
5.381030e+02	-4.623088e-02
5.412111e+02	-4.676359e-02
5.443371e+02	-4.730240e-02
5.474812e+02	-4.784738e-02
5.506434e+02	-4.839861e-02
5.538239e+02	-4.895615e-02
5.570228e+02	-4.952008e-02
5.602401e+02	-5.009047e-02
5.634760e+02	-5.066739e-02
5.667306e+02	-5.125091e-02
5.700040e+02	-5.184112e-02
5.732964e+02	-5.243808e-02
5.766077e+02	-5.304187e-02
5.799382e+02	-5.365257e-02
5.832879e+02	-5.427026e-02
5.866569e+02	-5.489502e-02
5.900454e+02	-5.552692e-02
5.934535e+02	-5.616604e-02
5.968813e+02	-5.681248e-02
6.003288e+02	-5.746630e-02
6.037963e+02	-5.812760e-02
6.072838e+02	-5.879646e-02
6.107914e+02	-5.947296e-02
6.143194e+02	-6.015720e-02
6.178676e+02	-6.084924e-02
6.214364e+02	-6.154920e-02
6.250258e+02	-6.225714e-02
6.286359e+02	-6.297317e-02
6.322669e+02	-6.369738e-02
6.359189e+02	-6.442985e-02
6.395919e+02	-6.517068e-02
6.432862e+02	-6.591996e-02
6.470017e+02	-6.667779e-02
6.507388e+02	-6.744427e-02
6.544974e+02	-6.821949e-02
6.582778e+02	-6.900354e-02
6.620800e+02	-6.979654e-02
6.659041e+02	-7.059858e-02
6.697504e+02	-7.140975e-02
6.736188e+02	-7.223017e-02
6.775096e+02	-7.305993e-02
6.814229e+02	-7.389915e-02
6.853587e+02	-7.474792e-02
6.893173e+02	-7.560635e-02
6.932988e+02	-7.647456e-02
6.973033e+02	-7.735264e-02
7.013309e+02	-7.824072e-02
