Frequency(Hz)	Magnitude(dB)
1.000000e+01	-1.903459e+00
1.005776e+01	-1.921471e+00
1.011585e+01	-1.939299e+00
1.017428e+01	-1.957342e+00
1.023305e+01	-1.975775e+00
1.029215e+01	-1.994101e+00
1.035160e+01	-2.012183e+00
1.041139e+01	-2.030906e+00
1.047153e+01	-2.049857e+00
1.053201e+01	-2.068876e+00
1.059284e+01	-2.087758e+00
1.065403e+01	-2.106935e+00
1.071556e+01	-2.126089e+00
1.077746e+01	-2.145732e+00
1.083971e+01	-2.165174e+00
1.090232e+01	-2.184934e+00
1.096529e+01	-2.204785e+00
1.102862e+01	-2.224589e+00
1.109232e+01	-2.245087e+00
1.115639e+01	-2.265347e+00
1.122083e+01	-2.285493e+00
1.128564e+01	-2.305991e+00
1.135083e+01	-2.326968e+00
1.141639e+01	-2.347437e+00
1.148233e+01	-2.368646e+00
1.154865e+01	-2.389472e+00
1.161536e+01	-2.410919e+00
1.168245e+01	-2.432222e+00
1.174992e+01	-2.453949e+00
1.181779e+01	-2.475400e+00
1.188605e+01	-2.497164e+00
1.195470e+01	-2.519109e+00
1.202375e+01	-2.541562e+00
1.209320e+01	-2.563489e+00
1.216305e+01	-2.585668e+00
1.223330e+01	-2.608542e+00
1.230396e+01	-2.631154e+00
1.237503e+01	-2.653708e+00
1.244651e+01	-2.676820e+00
1.251840e+01	-2.700019e+00
1.259070e+01	-2.723230e+00
1.266343e+01	-2.746347e+00
1.273657e+01	-2.770119e+00
1.281014e+01	-2.793486e+00
1.288413e+01	-2.817371e+00
1.295855e+01	-2.841307e+00
1.303339e+01	-2.865622e+00
1.310867e+01	-2.889654e+00
1.318439e+01	-2.914078e+00
1.326054e+01	-2.938653e+00
1.333713e+01	-2.963369e+00
1.341417e+01	-2.988134e+00
1.349165e+01	-3.013058e+00
1.356958e+01	-3.038013e+00
1.364795e+01	-3.063196e+00
1.372678e+01	-3.088749e+00
1.380607e+01	-3.114490e+00
1.388581e+01	-3.139903e+00
1.396602e+01	-3.166004e+00
1.404668e+01	-3.191777e+00
1.412782e+01	-3.217989e+00
1.420942e+01	-3.244230e+00
1.429149e+01	-3.270619e+00
1.437404e+01	-3.297177e+00
1.445706e+01	-3.323899e+00
1.454057e+01	-3.350721e+00
1.462455e+01	-3.377418e+00
1.470902e+01	-3.404701e+00
1.479398e+01	-3.431861e+00
1.487943e+01	-3.459430e+00
1.496537e+01	-3.486827e+00
1.505181e+01	-3.514724e+00
1.513875e+01	-3.542285e+00
1.522619e+01	-3.570581e+00
1.531414e+01	-3.598274e+00
1.540259e+01	-3.626465e+00
1.549156e+01	-3.655310e+00
1.558103e+01	-3.683664e+00
1.567103e+01	-3.712412e+00
1.576155e+01	-3.741366e+00
1.585258e+01	-3.770057e+00
1.594415e+01	-3.799157e+00
1.603624e+01	-3.828352e+00
1.612886e+01	-3.857894e+00
1.622202e+01	-3.887269e+00
1.631572e+01	-3.916921e+00
1.640996e+01	-3.946642e+00
1.650474e+01	-3.976601e+00
1.660008e+01	-4.006884e+00
1.669596e+01	-4.037208e+00
1.679239e+01	-4.067275e+00
1.688938e+01	-4.097844e+00
1.698694e+01	-4.128249e+00
1.708505e+01	-4.159156e+00
1.718373e+01	-4.190318e+00
1.728299e+01	-4.221388e+00
1.738281e+01	-4.252238e+00
1.748322e+01	-4.283375e+00
1.758420e+01	-4.315058e+00
1.768576e+01	-4.346564e+00
1.778792e+01	-4.378179e+00
1.789066e+01	-4.410190e+00
1.799399e+01	-4.442150e+00
1.809793e+01	-4.474186e+00
1.820246e+01	-4.506588e+00
1.830760e+01	-4.539042e+00
1.841334e+01	-4.571262e+00
1.851969e+01	-4.603977e+00
1.862666e+01	-4.636595e+00
1.873425e+01	-4.669636e+00
1.884246e+01	-4.702806e+00
1.895129e+01	-4.735838e+00
1.906075e+01	-4.769343e+00
1.917085e+01	-4.802305e+00
1.928158e+01	-4.836134e+00
1.939295e+01	-4.869626e+00
1.950496e+01	-4.903310e+00
1.961762e+01	-4.937230e+00
1.973093e+01	-4.971367e+00
1.984490e+01	-5.005306e+00
1.995952e+01	-5.039433e+00
2.007480e+01	-5.074542e+00
2.019076e+01	-5.108449e+00
2.030738e+01	-5.143480e+00
2.042467e+01	-5.178045e+00
2.054264e+01	-5.213298e+00
2.066130e+01	-5.248246e+00
2.078064e+01	-5.283168e+00
2.090066e+01	-5.318654e+00
2.102139e+01	-5.354279e+00
2.114280e+01	-5.389499e+00
2.126492e+01	-5.425251e+00
2.138775e+01	-5.460691e+00
2.151128e+01	-5.497001e+00
2.163553e+01	-5.532674e+00
2.176050e+01	-5.568723e+00
2.188619e+01	-5.605248e+00
2.201260e+01	-5.641053e+00
2.213974e+01	-5.677733e+00
2.226762e+01	-5.714340e+00
2.239624e+01	-5.751112e+00
2.252560e+01	-5.787434e+00
2.265571e+01	-5.824663e+00
2.278656e+01	-5.861245e+00
2.291818e+01	-5.898715e+00
2.305055e+01	-5.935746e+00
2.318369e+01	-5.973137e+00
2.331760e+01	-6.010543e+00
2.345228e+01	-6.048266e+00
2.358774e+01	-6.085643e+00
2.372398e+01	-6.123438e+00
2.386101e+01	-6.161489e+00
2.399883e+01	-6.199602e+00
2.413745e+01	-6.237370e+00
2.427686e+01	-6.275432e+00
2.441709e+01	-6.314037e+00
2.455812e+01	-6.352479e+00
2.469997e+01	-6.390799e+00
2.484263e+01	-6.429396e+00
2.498612e+01	-6.468321e+00
2.513044e+01	-6.506753e+00
2.527559e+01	-6.545837e+00
2.542158e+01	-6.584646e+00
2.556842e+01	-6.623971e+00
2.571610e+01	-6.663351e+00
2.586463e+01	-6.702511e+00
2.601403e+01	-6.741838e+00
2.616428e+01	-6.781321e+00
2.631541e+01	-6.820953e+00
2.646740e+01	-6.860485e+00
2.662028e+01	-6.900230e+00
2.677404e+01	-6.940496e+00
2.692868e+01	-6.980110e+00
2.708422e+01	-7.020251e+00
2.724066e+01	-7.060427e+00
2.739800e+01	-7.100650e+00
2.755625e+01	-7.140705e+00
2.771541e+01	-7.181109e+00
2.787550e+01	-7.221696e+00
2.803650e+01	-7.262361e+00
2.819844e+01	-7.303085e+00
2.836131e+01	-7.343759e+00
2.852513e+01	-7.384796e+00
2.868989e+01	-7.425328e+00
2.885560e+01	-7.466344e+00
2.902227e+01	-7.507672e+00
2.918990e+01	-7.548869e+00
2.935850e+01	-7.590264e+00
2.952807e+01	-7.631487e+00
2.969863e+01	-7.672854e+00
2.987016e+01	-7.714227e+00
3.004269e+01	-7.756048e+00
3.021622e+01	-7.797590e+00
3.039075e+01	-7.839382e+00
3.056628e+01	-7.881241e+00
3.074283e+01	-7.923523e+00
3.092040e+01	-7.965169e+00
3.109900e+01	-8.006930e+00
3.127862e+01	-8.049437e+00
3.145929e+01	-8.091675e+00
3.164099e+01	-8.134178e+00
3.182375e+01	-8.176340e+00
3.200756e+01	-8.218791e+00
3.219244e+01	-8.261513e+00
3.237838e+01	-8.303956e+00
3.256540e+01	-8.346563e+00
3.275349e+01	-8.389116e+00
3.294268e+01	-8.432219e+00
3.313295e+01	-8.475070e+00
3.332433e+01	-8.518374e+00
3.351681e+01	-8.560789e+00
3.371040e+01	-8.603907e+00
3.390511e+01	-8.646886e+00
3.410094e+01	-8.690455e+00
3.429791e+01	-8.733854e+00
3.449601e+01	-8.777294e+00
3.469526e+01	-8.820693e+00
3.489566e+01	-8.864024e+00
3.509721e+01	-8.907764e+00
3.529993e+01	-8.951229e+00
3.550382e+01	-8.994888e+00
3.570889e+01	-9.038530e+00
3.591515e+01	-9.082349e+00
3.612259e+01	-9.125795e+00
3.633123e+01	-9.170685e+00
3.654108e+01	-9.214334e+00
3.675214e+01	-9.258479e+00
3.696442e+01	-9.302744e+00
3.717792e+01	-9.346619e+00
3.739266e+01	-9.390856e+00
3.760864e+01	-9.434740e+00
3.782587e+01	-9.479801e+00
3.804435e+01	-9.523790e+00
3.826409e+01	-9.568369e+00
3.848510e+01	-9.613102e+00
3.870739e+01	-9.657498e+00
3.893096e+01	-9.702296e+00
3.915583e+01	-9.746894e+00
3.938199e+01	-9.791418e+00
3.960946e+01	-9.836517e+00
3.983824e+01	-9.881057e+00
4.006834e+01	-9.926282e+00
4.029978e+01	-9.971166e+00
4.053255e+01	-1.001587e+01
4.076666e+01	-1.006147e+01
4.100213e+01	-1.010664e+01
4.123896e+01	-1.015185e+01
4.147715e+01	-1.019665e+01
4.171672e+01	-1.024166e+01
4.195767e+01	-1.028730e+01
4.220002e+01	-1.033268e+01
4.244377e+01	-1.037796e+01
4.268892e+01	-1.042325e+01
4.293549e+01	-1.046891e+01
4.318348e+01	-1.051473e+01
4.343291e+01	-1.055974e+01
4.368377e+01	-1.060592e+01
4.393609e+01	-1.065119e+01
4.418986e+01	-1.069761e+01
4.444510e+01	-1.074330e+01
4.470182e+01	-1.078871e+01
4.496001e+01	-1.083440e+01
4.521970e+01	-1.088121e+01
4.548089e+01	-1.092687e+01
4.574358e+01	-1.097287e+01
4.600779e+01	-1.101839e+01
4.627353e+01	-1.106507e+01
4.654081e+01	-1.111119e+01
4.680963e+01	-1.115741e+01
4.708000e+01	-1.120325e+01
4.735193e+01	-1.124985e+01
4.762543e+01	-1.129575e+01
4.790051e+01	-1.134245e+01
4.817719e+01	-1.138875e+01
4.845545e+01	-1.143497e+01
4.873533e+01	-1.148141e+01
4.901682e+01	-1.152756e+01
4.929994e+01	-1.157446e+01
4.958470e+01	-1.162082e+01
4.987110e+01	-1.166801e+01
5.015915e+01	-1.171414e+01
5.044887e+01	-1.176121e+01
5.074026e+01	-1.180764e+01
5.103333e+01	-1.185470e+01
5.132810e+01	-1.190155e+01
5.162457e+01	-1.194843e+01
5.192275e+01	-1.199486e+01
5.222265e+01	-1.204180e+01
5.252429e+01	-1.208961e+01
5.282767e+01	-1.213529e+01
5.313280e+01	-1.218261e+01
5.343969e+01	-1.222966e+01
5.374836e+01	-1.227642e+01
5.405880e+01	-1.232395e+01
5.437105e+01	-1.237033e+01
5.468509e+01	-1.241834e+01
5.500095e+01	-1.246505e+01
5.531863e+01	-1.251282e+01
5.563815e+01	-1.255996e+01
5.595951e+01	-1.260762e+01
5.628273e+01	-1.265369e+01
5.660782e+01	-1.270175e+01
5.693479e+01	-1.274894e+01
5.726364e+01	-1.279671e+01
5.759439e+01	-1.284326e+01
5.792705e+01	-1.289103e+01
5.826164e+01	-1.293891e+01
5.859815e+01	-1.298624e+01
5.893662e+01	-1.303373e+01
5.927703e+01	-1.308048e+01
5.961941e+01	-1.312815e+01
5.996377e+01	-1.317650e+01
6.031012e+01	-1.322384e+01
6.065847e+01	-1.327184e+01
6.100883e+01	-1.331931e+01
6.136121e+01	-1.336735e+01
6.171563e+01	-1.341515e+01
6.207210e+01	-1.346233e+01
6.243063e+01	-1.351078e+01
6.279122e+01	-1.355904e+01
6.315390e+01	-1.360613e+01
6.351868e+01	-1.365391e+01
6.388556e+01	-1.370150e+01
6.425456e+01	-1.374972e+01
6.462569e+01	-1.379740e+01
6.499897e+01	-1.384536e+01
6.537440e+01	-1.389409e+01
6.575200e+01	-1.394163e+01
6.613178e+01	-1.398901e+01
6.651375e+01	-1.403796e+01
6.689793e+01	-1.408582e+01
6.728433e+01	-1.413390e+01
6.767297e+01	-1.418326e+01
6.806384e+01	-1.423047e+01
6.845698e+01	-1.427805e+01
6.885238e+01	-1.432659e+01
6.925007e+01	-1.437433e+01
6.965005e+01	-1.442213e+01
7.005235e+01	-1.447202e+01
7.045697e+01	-1.451934e+01
7.086393e+01	-1.456761e+01
7.127323e+01	-1.461567e+01
7.168490e+01	-1.466414e+01
7.209895e+01	-1.471320e+01
7.251539e+01	-1.476014e+01
7.293424e+01	-1.480885e+01
7.335551e+01	-1.485789e+01
7.377920e+01	-1.490719e+01
7.420535e+01	-1.495449e+01
7.463396e+01	-1.500164e+01
7.506504e+01	-1.505119e+01
7.549861e+01	-1.509923e+01
7.593469e+01	-1.514823e+01
7.637328e+01	-1.519710e+01
7.681441e+01	-1.524512e+01
7.725809e+01	-1.529351e+01
7.770433e+01	-1.534193e+01
7.815315e+01	-1.539161e+01
7.860456e+01	-1.543901e+01
7.905857e+01	-1.548834e+01
7.951521e+01	-1.553679e+01
7.997449e+01	-1.558616e+01
8.043642e+01	-1.563306e+01
8.090102e+01	-1.568318e+01
8.136830e+01	-1.573064e+01
8.183828e+01	-1.577969e+01
8.231097e+01	-1.582959e+01
8.278640e+01	-1.587723e+01
8.326457e+01	-1.592597e+01
8.374550e+01	-1.597593e+01
8.422921e+01	-1.602375e+01
8.471572e+01	-1.607282e+01
8.520503e+01	-1.612174e+01
8.569717e+01	-1.617022e+01
8.619215e+01	-1.621847e+01
8.669000e+01	-1.626793e+01
8.719071e+01	-1.631689e+01
8.769432e+01	-1.636614e+01
8.820084e+01	-1.641480e+01
8.871029e+01	-1.646414e+01
8.922267e+01	-1.651289e+01
8.973802e+01	-1.656058e+01
9.025634e+01	-1.661067e+01
9.077766e+01	-1.665975e+01
9.130199e+01	-1.670892e+01
9.182935e+01	-1.675762e+01
9.235975e+01	-1.680651e+01
9.289321e+01	-1.685446e+01
9.342976e+01	-1.690324e+01
9.396941e+01	-1.695285e+01
9.451217e+01	-1.700242e+01
9.505807e+01	-1.705109e+01
9.560712e+01	-1.710047e+01
9.615934e+01	-1.714858e+01
9.671476e+01	-1.719841e+01
9.727338e+01	-1.724634e+01
9.783522e+01	-1.729630e+01
9.840032e+01	-1.734543e+01
9.896867e+01	-1.739498e+01
9.954031e+01	-1.744301e+01
1.001153e+02	-1.749356e+01
1.006935e+02	-1.754147e+01
1.012751e+02	-1.759178e+01
1.018601e+02	-1.763980e+01
1.024484e+02	-1.768960e+01
1.030402e+02	-1.773861e+01
1.036353e+02	-1.778807e+01
1.042339e+02	-1.783702e+01
1.048360e+02	-1.788711e+01
1.054415e+02	-1.793603e+01
1.060505e+02	-1.798514e+01
1.066631e+02	-1.803351e+01
1.072791e+02	-1.808472e+01
1.078988e+02	-1.813325e+01
1.085220e+02	-1.818074e+01
1.091488e+02	-1.823084e+01
1.097793e+02	-1.828036e+01
1.104133e+02	-1.832986e+01
1.110511e+02	-1.837969e+01
1.116925e+02	-1.842916e+01
1.123376e+02	-1.847804e+01
1.129865e+02	-1.852621e+01
1.136391e+02	-1.857686e+01
1.142955e+02	-1.862561e+01
1.149556e+02	-1.867482e+01
1.156196e+02	-1.872470e+01
1.162874e+02	-1.877360e+01
1.169591e+02	-1.882339e+01
1.176347e+02	-1.887375e+01
1.183141e+02	-1.892253e+01
1.189975e+02	-1.897105e+01
1.196848e+02	-1.901861e+01
1.203761e+02	-1.907003e+01
1.210714e+02	-1.911997e+01
1.217707e+02	-1.916960e+01
1.224740e+02	-1.921780e+01
1.231814e+02	-1.926724e+01
1.238929e+02	-1.931723e+01
1.246085e+02	-1.936739e+01
1.253283e+02	-1.941718e+01
1.260522e+02	-1.946547e+01
1.267802e+02	-1.951505e+01
1.275125e+02	-1.956509e+01
1.282490e+02	-1.961430e+01
1.289898e+02	-1.966305e+01
1.297348e+02	-1.971472e+01
1.304842e+02	-1.976295e+01
1.312378e+02	-1.981146e+01
1.319959e+02	-1.986301e+01
1.327583e+02	-1.991143e+01
1.335251e+02	-1.996145e+01
1.342963e+02	-2.001037e+01
1.350720e+02	-2.005936e+01
1.358522e+02	-2.010893e+01
1.366368e+02	-2.015818e+01
1.374260e+02	-2.020763e+01
1.382198e+02	-2.025751e+01
1.390182e+02	-2.030772e+01
1.398211e+02	-2.035554e+01
1.406287e+02	-2.040726e+01
1.414410e+02	-2.045660e+01
1.422579e+02	-2.050633e+01
1.430796e+02	-2.055599e+01
1.439060e+02	-2.060528e+01
1.447372e+02	-2.065437e+01
1.455732e+02	-2.070258e+01
1.464141e+02	-2.075287e+01
1.472597e+02	-2.080389e+01
1.481103e+02	-2.085209e+01
1.489658e+02	-2.090088e+01
1.498262e+02	-2.095232e+01
1.506916e+02	-2.100366e+01
1.515620e+02	-2.105088e+01
1.524374e+02	-2.110151e+01
1.533179e+02	-2.115237e+01
1.542034e+02	-2.120000e+01
1.550941e+02	-2.125017e+01
1.559899e+02	-2.129918e+01
1.568909e+02	-2.134913e+01
1.577971e+02	-2.140001e+01
1.587085e+02	-2.144817e+01
1.596252e+02	-2.150000e+01
1.605472e+02	-2.154750e+01
1.614745e+02	-2.159897e+01
1.624072e+02	-2.164828e+01
1.633453e+02	-2.169738e+01
1.642887e+02	-2.174562e+01
1.652377e+02	-2.179615e+01
1.661921e+02	-2.184617e+01
1.671520e+02	-2.189816e+01
1.681175e+02	-2.194522e+01
1.690885e+02	-2.199558e+01
1.700651e+02	-2.204510e+01
1.710474e+02	-2.209454e+01
1.720354e+02	-2.214407e+01
1.730291e+02	-2.219447e+01
1.740285e+02	-2.224409e+01
1.750337e+02	-2.229412e+01
1.760446e+02	-2.234452e+01
1.770615e+02	-2.239364e+01
1.780842e+02	-2.244292e+01
1.791128e+02	-2.249315e+01
1.801473e+02	-2.254275e+01
1.811878e+02	-2.259188e+01
1.822344e+02	-2.264067e+01
1.832870e+02	-2.269233e+01
1.843456e+02	-2.274167e+01
1.854104e+02	-2.278989e+01
1.864813e+02	-2.284054e+01
1.875584e+02	-2.289197e+01
1.886418e+02	-2.294138e+01
1.897313e+02	-2.298871e+01
1.908272e+02	-2.304106e+01
1.919294e+02	-2.309163e+01
1.930380e+02	-2.313832e+01
1.941530e+02	-2.318932e+01
1.952744e+02	-2.323783e+01
1.964023e+02	-2.329033e+01
1.975367e+02	-2.334177e+01
1.986777e+02	-2.338953e+01
1.998252e+02	-2.343984e+01
2.009794e+02	-2.348747e+01
2.021403e+02	-2.353880e+01
2.033078e+02	-2.358834e+01
2.044821e+02	-2.364200e+01
2.056632e+02	-2.368920e+01
2.068511e+02	-2.373717e+01
2.080459e+02	-2.378660e+01
2.092475e+02	-2.383844e+01
2.104561e+02	-2.388979e+01
2.116717e+02	-2.393886e+01
2.128943e+02	-2.398822e+01
2.141240e+02	-2.403798e+01
2.153608e+02	-2.408843e+01
2.166047e+02	-2.413956e+01
2.178558e+02	-2.418832e+01
2.191141e+02	-2.423801e+01
2.203797e+02	-2.428707e+01
2.216526e+02	-2.433537e+01
2.229329e+02	-2.438651e+01
2.242205e+02	-2.443767e+01
2.255156e+02	-2.448509e+01
2.268182e+02	-2.453530e+01
2.281283e+02	-2.458724e+01
2.294459e+02	-2.463734e+01
2.307712e+02	-2.468970e+01
2.321041e+02	-2.473695e+01
2.334447e+02	-2.478709e+01
2.347931e+02	-2.483437e+01
2.361493e+02	-2.488505e+01
2.375133e+02	-2.493773e+01
2.388851e+02	-2.498521e+01
2.402649e+02	-2.503423e+01
2.416527e+02	-2.508679e+01
2.430484e+02	-2.513399e+01
2.444523e+02	-2.518387e+01
2.458642e+02	-2.523724e+01
2.472843e+02	-2.528772e+01
2.487126e+02	-2.533455e+01
2.501492e+02	-2.538500e+01
2.515940e+02	-2.543320e+01
2.530472e+02	-2.548355e+01
2.545088e+02	-2.553448e+01
2.559789e+02	-2.558524e+01
2.574574e+02	-2.563646e+01
2.589444e+02	-2.568506e+01
2.604401e+02	-2.573462e+01
2.619444e+02	-2.578341e+01
2.634574e+02	-2.583177e+01
2.649791e+02	-2.588543e+01
2.665096e+02	-2.593438e+01
2.680489e+02	-2.598348e+01
2.695972e+02	-2.603532e+01
2.711544e+02	-2.608372e+01
2.727205e+02	-2.613367e+01
2.742958e+02	-2.618732e+01
2.758801e+02	-2.623316e+01
2.774736e+02	-2.628728e+01
2.790762e+02	-2.633601e+01
2.806882e+02	-2.638229e+01
2.823094e+02	-2.643472e+01
2.839400e+02	-2.648226e+01
2.855800e+02	-2.653162e+01
2.872295e+02	-2.658656e+01
2.888886e+02	-2.663623e+01
2.905572e+02	-2.668433e+01
2.922354e+02	-2.673418e+01
2.939234e+02	-2.678288e+01
2.956211e+02	-2.683361e+01
2.973286e+02	-2.688435e+01
2.990459e+02	-2.693407e+01
3.007732e+02	-2.698537e+01
3.025104e+02	-2.703397e+01
3.042577e+02	-2.708464e+01
3.060151e+02	-2.713314e+01
3.077826e+02	-2.718718e+01
3.095604e+02	-2.723390e+01
3.113484e+02	-2.728153e+01
3.131467e+02	-2.733189e+01
3.149554e+02	-2.738503e+01
3.167746e+02	-2.743229e+01
3.186043e+02	-2.748140e+01
3.204445e+02	-2.753430e+01
3.222954e+02	-2.758480e+01
3.241570e+02	-2.763440e+01
3.260293e+02	-2.768289e+01
3.279124e+02	-2.773547e+01
3.298064e+02	-2.778304e+01
3.317114e+02	-2.783666e+01
3.336273e+02	-2.788041e+01
3.355544e+02	-2.793405e+01
3.374925e+02	-2.798227e+01
3.394418e+02	-2.803873e+01
3.414024e+02	-2.808478e+01
3.433744e+02	-2.813081e+01
3.453577e+02	-2.818342e+01
3.473525e+02	-2.823128e+01
3.493588e+02	-2.828272e+01
3.513766e+02	-2.833541e+01
3.534062e+02	-2.838530e+01
3.554474e+02	-2.843398e+01
3.575005e+02	-2.848683e+01
3.595654e+02	-2.853321e+01
3.616422e+02	-2.858245e+01
3.637311e+02	-2.863392e+01
3.658320e+02	-2.868449e+01
3.679450e+02	-2.873303e+01
3.700702e+02	-2.878454e+01
3.722077e+02	-2.883431e+01
3.743576e+02	-2.888612e+01
3.765199e+02	-2.893567e+01
3.786946e+02	-2.898224e+01
3.808820e+02	-2.903798e+01
3.830819e+02	-2.908341e+01
3.852946e+02	-2.913425e+01
3.875200e+02	-2.918429e+01
3.897583e+02	-2.923642e+01
3.920096e+02	-2.928682e+01
3.942738e+02	-2.933624e+01
3.965511e+02	-2.938684e+01
3.988416e+02	-2.943655e+01
4.011452e+02	-2.948499e+01
4.034622e+02	-2.953745e+01
4.057926e+02	-2.958579e+01
4.081365e+02	-2.963425e+01
4.104938e+02	-2.968468e+01
4.128648e+02	-2.973753e+01
4.152495e+02	-2.978622e+01
4.176480e+02	-2.983140e+01
4.200603e+02	-2.988950e+01
4.224866e+02	-2.993455e+01
4.249268e+02	-2.998723e+01
4.273812e+02	-3.003442e+01
4.298497e+02	-3.009153e+01
4.323325e+02	-3.013836e+01
4.348297e+02	-3.018318e+01
4.373412e+02	-3.023372e+01
4.398673e+02	-3.028698e+01
4.424079e+02	-3.033639e+01
4.449633e+02	-3.038795e+01
4.475334e+02	-3.043904e+01
4.501183e+02	-3.048909e+01
4.527182e+02	-3.053685e+01
4.553330e+02	-3.058620e+01
4.579630e+02	-3.063890e+01
4.606082e+02	-3.068837e+01
4.632687e+02	-3.073827e+01
4.659445e+02	-3.078990e+01
4.686358e+02	-3.083654e+01
4.713426e+02	-3.089146e+01
4.740650e+02	-3.093625e+01
4.768032e+02	-3.098737e+01
4.795572e+02	-3.103474e+01
4.823271e+02	-3.109515e+01
4.851130e+02	-3.114178e+01
4.879150e+02	-3.119110e+01
4.907332e+02	-3.124156e+01
4.935676e+02	-3.129057e+01
4.964185e+02	-3.133989e+01
4.992858e+02	-3.139144e+01
5.021696e+02	-3.143854e+01
5.050701e+02	-3.148614e+01
5.079874e+02	-3.153516e+01
5.109215e+02	-3.159103e+01
5.138726e+02	-3.163922e+01
5.168407e+02	-3.168782e+01
5.198259e+02	-3.174283e+01
5.228284e+02	-3.178931e+01
5.258482e+02	-3.183575e+01
5.288855e+02	-3.188946e+01
5.319403e+02	-3.194458e+01
5.350128e+02	-3.199259e+01
5.381030e+02	-3.204439e+01
5.412111e+02	-3.208780e+01
5.443371e+02	-3.214427e+01
5.474812e+02	-3.219670e+01
5.506434e+02	-3.224247e+01
5.538239e+02	-3.229404e+01
5.570228e+02	-3.234768e+01
5.602401e+02	-3.239791e+01
5.634760e+02	-3.245143e+01
5.667306e+02	-3.249177e+01
5.700040e+02	-3.254265e+01
5.732964e+02	-3.259356e+01
5.766077e+02	-3.264905e+01
5.799382e+02	-3.269137e+01
5.832879e+02	-3.274655e+01
5.866569e+02	-3.279671e+01
5.900454e+02	-3.284389e+01
5.934535e+02	-3.289179e+01
5.968813e+02	-3.295300e+01
6.003288e+02	-3.299720e+01
6.037963e+02	-3.304720e+01
6.072838e+02	-3.309137e+01
6.107914e+02	-3.314756e+01
6.143194e+02	-3.320450e+01
6.178676e+02	-3.325116e+01
6.214364e+02	-3.330024e+01
6.250258e+02	-3.335165e+01
6.286359e+02	-3.340085e+01
6.322669e+02	-3.345274e+01
6.359189e+02	-3.349743e+01
6.395919e+02	-3.354649e+01
6.432862e+02	-3.360721e+01
6.470017e+02	-3.365261e+01
6.507388e+02	-3.369821e+01
6.544974e+02	-3.374919e+01
6.582778e+02	-3.379766e+01
6.620800e+02	-3.385247e+01
6.659041e+02	-3.390245e+01
6.697504e+02	-3.395033e+01
6.736188e+02	-3.400283e+01
6.775096e+02	-3.404986e+01
6.814229e+02	-3.410863e+01
6.853587e+02	-3.414924e+01
6.893173e+02	-3.420710e+01
6.932988e+02	-3.425071e+01
6.973033e+02	-3.430900e+01
7.013309e+02	-3.436054e+01
