Frequency(Hz)	Magnitude(dB)
1.000000e+01	-1.754861e-05
1.005776e+01	-1.775192e-05
1.011585e+01	-1.795758e-05
1.017428e+01	-1.816562e-05
1.023305e+01	-1.837607e-05
1.029215e+01	-1.858897e-05
1.035160e+01	-1.880432e-05
1.041139e+01	-1.902218e-05
1.047153e+01	-1.924255e-05
1.053201e+01	-1.946548e-05
1.059284e+01	-1.969100e-05
1.065403e+01	-1.991912e-05
1.071556e+01	-2.014989e-05
1.077746e+01	-2.038333e-05
1.083971e+01	-2.061948e-05
1.090232e+01	-2.085836e-05
1.096529e+01	-2.110001e-05
1.102862e+01	-2.134446e-05
1.109232e+01	-2.159174e-05
1.115639e+01	-2.184188e-05
1.122083e+01	-2.209493e-05
1.128564e+01	-2.235090e-05
1.135083e+01	-2.260984e-05
1.141639e+01	-2.287178e-05
1.148233e+01	-2.313676e-05
1.154865e+01	-2.340481e-05
1.161536e+01	-2.367596e-05
1.168245e+01	-2.395025e-05
1.174992e+01	-2.422772e-05
1.181779e+01	-2.450840e-05
1.188605e+01	-2.479234e-05
1.195470e+01	-2.507956e-05
1.202375e+01	-2.537012e-05
1.209320e+01	-2.566403e-05
1.216305e+01	-2.596136e-05
1.223330e+01	-2.626213e-05
1.230396e+01	-2.656638e-05
1.237503e+01	-2.687416e-05
1.244651e+01	-2.718550e-05
1.251840e+01	-2.750045e-05
1.259070e+01	-2.781905e-05
1.266343e+01	-2.814134e-05
1.273657e+01	-2.846737e-05
1.281014e+01	-2.879717e-05
1.288413e+01	-2.913079e-05
1.295855e+01	-2.946828e-05
1.303339e+01	-2.980967e-05
1.310867e+01	-3.015503e-05
1.318439e+01	-3.050438e-05
1.326054e+01	-3.085778e-05
1.333713e+01	-3.121528e-05
1.341417e+01	-3.157691e-05
1.349165e+01	-3.194274e-05
1.356958e+01	-3.231280e-05
1.364795e+01	-3.268715e-05
1.372678e+01	-3.306584e-05
1.380607e+01	-3.344892e-05
1.388581e+01	-3.383643e-05
1.396602e+01	-3.422843e-05
1.404668e+01	-3.462498e-05
1.412782e+01	-3.502612e-05
1.420942e+01	-3.543190e-05
1.429149e+01	-3.584239e-05
1.437404e+01	-3.625763e-05
1.445706e+01	-3.667768e-05
1.454057e+01	-3.710260e-05
1.462455e+01	-3.753245e-05
1.470902e+01	-3.796727e-05
1.479398e+01	-3.840713e-05
1.487943e+01	-3.885208e-05
1.496537e+01	-3.930219e-05
1.505181e+01	-3.975752e-05
1.513875e+01	-4.021812e-05
1.522619e+01	-4.068405e-05
1.531414e+01	-4.115539e-05
1.540259e+01	-4.163218e-05
1.549156e+01	-4.211450e-05
1.558103e+01	-4.260241e-05
1.567103e+01	-4.309596e-05
1.576155e+01	-4.359524e-05
1.585258e+01	-4.410030e-05
1.594415e+01	-4.461121e-05
1.603624e+01	-4.512804e-05
1.612886e+01	-4.565086e-05
1.622202e+01	-4.617974e-05
1.631572e+01	-4.671474e-05
1.640996e+01	-4.725594e-05
1.650474e+01	-4.780341e-05
1.660008e+01	-4.835722e-05
1.669596e+01	-4.891745e-05
1.679239e+01	-4.948417e-05
1.688938e+01	-5.005746e-05
1.698694e+01	-5.063738e-05
1.708505e+01	-5.122403e-05
1.718373e+01	-5.181747e-05
1.728299e+01	-5.241778e-05
1.738281e+01	-5.302505e-05
1.748322e+01	-5.363936e-05
1.758420e+01	-5.426078e-05
1.768576e+01	-5.488941e-05
1.778792e+01	-5.552531e-05
1.789066e+01	-5.616858e-05
1.799399e+01	-5.681931e-05
1.809793e+01	-5.747757e-05
1.820246e+01	-5.814346e-05
1.830760e+01	-5.881706e-05
1.841334e+01	-5.949847e-05
1.851969e+01	-6.018777e-05
1.862666e+01	-6.088506e-05
1.873425e+01	-6.159043e-05
1.884246e+01	-6.230396e-05
1.895129e+01	-6.302577e-05
1.906075e+01	-6.375593e-05
1.917085e+01	-6.449456e-05
1.928158e+01	-6.524174e-05
1.939295e+01	-6.599758e-05
1.950496e+01	-6.676217e-05
1.961762e+01	-6.753562e-05
1.973093e+01	-6.831804e-05
1.984490e+01	-6.910952e-05
1.995952e+01	-6.991016e-05
2.007480e+01	-7.072008e-05
2.019076e+01	-7.153939e-05
2.030738e+01	-7.236819e-05
2.042467e+01	-7.320658e-05
2.054264e+01	-7.405470e-05
2.066130e+01	-7.491263e-05
2.078064e+01	-7.578051e-05
2.090066e+01	-7.665844e-05
2.102139e+01	-7.754654e-05
2.114280e+01	-7.844493e-05
2.126492e+01	-7.935373e-05
2.138775e+01	-8.027306e-05
2.151128e+01	-8.120303e-05
2.163553e+01	-8.214378e-05
2.176050e+01	-8.309543e-05
2.188619e+01	-8.405811e-05
2.201260e+01	-8.503194e-05
2.213974e+01	-8.601705e-05
2.226762e+01	-8.701357e-05
2.239624e+01	-8.802163e-05
2.252560e+01	-8.904138e-05
2.265571e+01	-9.007294e-05
2.278656e+01	-9.111645e-05
2.291818e+01	-9.217204e-05
2.305055e+01	-9.323987e-05
2.318369e+01	-9.432007e-05
2.331760e+01	-9.541278e-05
2.345228e+01	-9.651815e-05
2.358774e+01	-9.763633e-05
2.372398e+01	-9.876746e-05
2.386101e+01	-9.991170e-05
2.399883e+01	-1.010692e-04
2.413745e+01	-1.022401e-04
2.427686e+01	-1.034246e-04
2.441709e+01	-1.046227e-04
2.455812e+01	-1.058348e-04
2.469997e+01	-1.070609e-04
2.484263e+01	-1.083012e-04
2.498612e+01	-1.095559e-04
2.513044e+01	-1.108251e-04
2.527559e+01	-1.121091e-04
2.542158e+01	-1.134079e-04
2.556842e+01	-1.147217e-04
2.571610e+01	-1.160508e-04
2.586463e+01	-1.173952e-04
2.601403e+01	-1.187553e-04
2.616428e+01	-1.201311e-04
2.631541e+01	-1.215228e-04
2.646740e+01	-1.229307e-04
2.662028e+01	-1.243548e-04
2.677404e+01	-1.257955e-04
2.692868e+01	-1.272528e-04
2.708422e+01	-1.287271e-04
2.724066e+01	-1.302184e-04
2.739800e+01	-1.317270e-04
2.755625e+01	-1.332531e-04
2.771541e+01	-1.347968e-04
2.787550e+01	-1.363584e-04
2.803650e+01	-1.379382e-04
2.819844e+01	-1.395362e-04
2.836131e+01	-1.411527e-04
2.852513e+01	-1.427880e-04
2.868989e+01	-1.444422e-04
2.885560e+01	-1.461156e-04
2.902227e+01	-1.478084e-04
2.918990e+01	-1.495207e-04
2.935850e+01	-1.512529e-04
2.952807e+01	-1.530052e-04
2.969863e+01	-1.547778e-04
2.987016e+01	-1.565709e-04
3.004269e+01	-1.583848e-04
3.021622e+01	-1.602197e-04
3.039075e+01	-1.620758e-04
3.056628e+01	-1.639535e-04
3.074283e+01	-1.658529e-04
3.092040e+01	-1.677743e-04
3.109900e+01	-1.697180e-04
3.127862e+01	-1.716842e-04
3.145929e+01	-1.736732e-04
3.164099e+01	-1.756852e-04
3.182375e+01	-1.777205e-04
3.200756e+01	-1.797794e-04
3.219244e+01	-1.818621e-04
3.237838e+01	-1.839690e-04
3.256540e+01	-1.861003e-04
3.275349e+01	-1.882563e-04
3.294268e+01	-1.904372e-04
3.313295e+01	-1.926434e-04
3.332433e+01	-1.948752e-04
3.351681e+01	-1.971329e-04
3.371040e+01	-1.994166e-04
3.390511e+01	-2.017269e-04
3.410094e+01	-2.040639e-04
3.429791e+01	-2.064280e-04
3.449601e+01	-2.088194e-04
3.469526e+01	-2.112386e-04
3.489566e+01	-2.136858e-04
3.509721e+01	-2.161614e-04
3.529993e+01	-2.186656e-04
3.550382e+01	-2.211988e-04
3.570889e+01	-2.237614e-04
3.591515e+01	-2.263537e-04
3.612259e+01	-2.289760e-04
3.633123e+01	-2.316287e-04
3.654108e+01	-2.343121e-04
3.675214e+01	-2.370266e-04
3.696442e+01	-2.397725e-04
3.717792e+01	-2.425503e-04
3.739266e+01	-2.453602e-04
3.760864e+01	-2.482027e-04
3.782587e+01	-2.510781e-04
3.804435e+01	-2.539868e-04
3.826409e+01	-2.569292e-04
3.848510e+01	-2.599058e-04
3.870739e+01	-2.629167e-04
3.893096e+01	-2.659626e-04
3.915583e+01	-2.690438e-04
3.938199e+01	-2.721606e-04
3.960946e+01	-2.753136e-04
3.983824e+01	-2.785031e-04
4.006834e+01	-2.817295e-04
4.029978e+01	-2.849933e-04
4.053255e+01	-2.882949e-04
4.076666e+01	-2.916348e-04
4.100213e+01	-2.950133e-04
4.123896e+01	-2.984310e-04
4.147715e+01	-3.018883e-04
4.171672e+01	-3.053856e-04
4.195767e+01	-3.089235e-04
4.220002e+01	-3.125023e-04
4.244377e+01	-3.161226e-04
4.268892e+01	-3.197849e-04
4.293549e+01	-3.234895e-04
4.318348e+01	-3.272371e-04
4.343291e+01	-3.310281e-04
4.368377e+01	-3.348630e-04
4.393609e+01	-3.387423e-04
4.418986e+01	-3.426666e-04
4.444510e+01	-3.466363e-04
4.470182e+01	-3.506520e-04
4.496001e+01	-3.547143e-04
4.521970e+01	-3.588236e-04
4.548089e+01	-3.629805e-04
4.574358e+01	-3.671855e-04
4.600779e+01	-3.714393e-04
4.627353e+01	-3.757423e-04
4.654081e+01	-3.800952e-04
4.680963e+01	-3.844985e-04
4.708000e+01	-3.889528e-04
4.735193e+01	-3.934588e-04
4.762543e+01	-3.980169e-04
4.790051e+01	-4.026278e-04
4.817719e+01	-4.072921e-04
4.845545e+01	-4.120105e-04
4.873533e+01	-4.167835e-04
4.901682e+01	-4.216119e-04
4.929994e+01	-4.264961e-04
4.958470e+01	-4.314369e-04
4.987110e+01	-4.364350e-04
5.015915e+01	-4.414910e-04
5.044887e+01	-4.466055e-04
5.074026e+01	-4.517793e-04
5.103333e+01	-4.570130e-04
5.132810e+01	-4.623073e-04
5.162457e+01	-4.676630e-04
5.192275e+01	-4.730807e-04
5.222265e+01	-4.785612e-04
5.252429e+01	-4.841051e-04
5.282767e+01	-4.897133e-04
5.313280e+01	-4.953864e-04
5.343969e+01	-5.011253e-04
5.374836e+01	-5.069306e-04
5.405880e+01	-5.128032e-04
5.437105e+01	-5.187438e-04
5.468509e+01	-5.247533e-04
5.500095e+01	-5.308323e-04
5.531863e+01	-5.369818e-04
5.563815e+01	-5.432025e-04
5.595951e+01	-5.494952e-04
5.628273e+01	-5.558609e-04
5.660782e+01	-5.623002e-04
5.693479e+01	-5.688142e-04
5.726364e+01	-5.754037e-04
5.759439e+01	-5.820694e-04
5.792705e+01	-5.888124e-04
5.826164e+01	-5.956335e-04
5.859815e+01	-6.025336e-04
5.893662e+01	-6.095136e-04
5.927703e+01	-6.165745e-04
5.961941e+01	-6.237172e-04
5.996377e+01	-6.309426e-04
6.031012e+01	-6.382517e-04
6.065847e+01	-6.456454e-04
6.100883e+01	-6.531249e-04
6.136121e+01	-6.606909e-04
6.171563e+01	-6.683446e-04
6.207210e+01	-6.760870e-04
6.243063e+01	-6.839190e-04
6.279122e+01	-6.918418e-04
6.315390e+01	-6.998563e-04
6.351868e+01	-7.079637e-04
6.388556e+01	-7.161649e-04
6.425456e+01	-7.244612e-04
6.462569e+01	-7.328536e-04
6.499897e+01	-7.413432e-04
6.537440e+01	-7.499311e-04
6.575200e+01	-7.586185e-04
6.613178e+01	-7.674065e-04
6.651375e+01	-7.762963e-04
6.689793e+01	-7.852891e-04
6.728433e+01	-7.943861e-04
6.767297e+01	-8.035884e-04
6.806384e+01	-8.128974e-04
6.845698e+01	-8.223141e-04
6.885238e+01	-8.318399e-04
6.925007e+01	-8.414761e-04
6.965005e+01	-8.512239e-04
7.005235e+01	-8.610845e-04
7.045697e+01	-8.710594e-04
7.086393e+01	-8.811499e-04
7.127323e+01	-8.913572e-04
7.168490e+01	-9.016827e-04
7.209895e+01	-9.121279e-04
7.251539e+01	-9.226940e-04
7.293424e+01	-9.333825e-04
7.335551e+01	-9.441948e-04
7.377920e+01	-9.551324e-04
7.420535e+01	-9.661966e-04
7.463396e+01	-9.773890e-04
7.506504e+01	-9.887110e-04
7.549861e+01	-1.000164e-03
7.593469e+01	-1.011750e-03
7.637328e+01	-1.023470e-03
7.681441e+01	-1.035326e-03
7.725809e+01	-1.047319e-03
7.770433e+01	-1.059451e-03
7.815315e+01	-1.071723e-03
7.860456e+01	-1.084138e-03
7.905857e+01	-1.096697e-03
7.951521e+01	-1.109400e-03
7.997449e+01	-1.122251e-03
8.043642e+01	-1.135251e-03
8.090102e+01	-1.148402e-03
8.136830e+01	-1.161705e-03
8.183828e+01	-1.175161e-03
8.231097e+01	-1.188774e-03
8.278640e+01	-1.202544e-03
8.326457e+01	-1.216474e-03
8.374550e+01	-1.230566e-03
8.422921e+01	-1.244820e-03
8.471572e+01	-1.259239e-03
8.520503e+01	-1.273826e-03
8.569717e+01	-1.288581e-03
8.619215e+01	-1.303508e-03
8.669000e+01	-1.318607e-03
8.719071e+01	-1.333881e-03
8.769432e+01	-1.349332e-03
8.820084e+01	-1.364962e-03
8.871029e+01	-1.380773e-03
8.922267e+01	-1.396767e-03
8.973802e+01	-1.412946e-03
9.025634e+01	-1.429313e-03
9.077766e+01	-1.445869e-03
9.130199e+01	-1.462617e-03
9.182935e+01	-1.479559e-03
9.235975e+01	-1.496697e-03
9.289321e+01	-1.514034e-03
9.342976e+01	-1.531571e-03
9.396941e+01	-1.549311e-03
9.451217e+01	-1.567257e-03
9.505807e+01	-1.585411e-03
9.560712e+01	-1.603775e-03
9.615934e+01	-1.622352e-03
9.671476e+01	-1.641144e-03
9.727338e+01	-1.660153e-03
9.783522e+01	-1.679383e-03
9.840032e+01	-1.698835e-03
9.896867e+01	-1.718513e-03
9.954031e+01	-1.738418e-03
1.001153e+02	-1.758554e-03
1.006935e+02	-1.778923e-03
1.012751e+02	-1.799528e-03
1.018601e+02	-1.820372e-03
1.024484e+02	-1.841457e-03
1.030402e+02	-1.862786e-03
1.036353e+02	-1.884362e-03
1.042339e+02	-1.906188e-03
1.048360e+02	-1.928267e-03
1.054415e+02	-1.950602e-03
1.060505e+02	-1.973195e-03
1.066631e+02	-1.996049e-03
1.072791e+02	-2.019169e-03
1.078988e+02	-2.042556e-03
1.085220e+02	-2.066214e-03
1.091488e+02	-2.090146e-03
1.097793e+02	-2.114355e-03
1.104133e+02	-2.138844e-03
1.110511e+02	-2.163617e-03
1.116925e+02	-2.188677e-03
1.123376e+02	-2.214027e-03
1.129865e+02	-2.239670e-03
1.136391e+02	-2.265611e-03
1.142955e+02	-2.291851e-03
1.149556e+02	-2.318396e-03
1.156196e+02	-2.345248e-03
1.162874e+02	-2.372411e-03
1.169591e+02	-2.399888e-03
1.176347e+02	-2.427684e-03
1.183141e+02	-2.455801e-03
1.189975e+02	-2.484244e-03
1.196848e+02	-2.513016e-03
1.203761e+02	-2.542122e-03
1.210714e+02	-2.571564e-03
1.217707e+02	-2.601348e-03
1.224740e+02	-2.631476e-03
1.231814e+02	-2.661953e-03
1.238929e+02	-2.692783e-03
1.246085e+02	-2.723969e-03
1.253283e+02	-2.755517e-03
1.260522e+02	-2.787430e-03
1.267802e+02	-2.819713e-03
1.275125e+02	-2.852369e-03
1.282490e+02	-2.885404e-03
1.289898e+02	-2.918821e-03
1.297348e+02	-2.952625e-03
1.304842e+02	-2.986820e-03
1.312378e+02	-3.021411e-03
1.319959e+02	-3.056402e-03
1.327583e+02	-3.091799e-03
1.335251e+02	-3.127605e-03
1.342963e+02	-3.163826e-03
1.350720e+02	-3.200466e-03
1.358522e+02	-3.237531e-03
1.366368e+02	-3.275024e-03
1.374260e+02	-3.312952e-03
1.382198e+02	-3.351318e-03
1.390182e+02	-3.390129e-03
1.398211e+02	-3.429389e-03
1.406287e+02	-3.469104e-03
1.414410e+02	-3.509278e-03
1.422579e+02	-3.549917e-03
1.430796e+02	-3.591027e-03
1.439060e+02	-3.632612e-03
1.447372e+02	-3.674679e-03
1.455732e+02	-3.717233e-03
1.464141e+02	-3.760280e-03
1.472597e+02	-3.803824e-03
1.481103e+02	-3.847873e-03
1.489658e+02	-3.892432e-03
1.498262e+02	-3.937506e-03
1.506916e+02	-3.983102e-03
1.515620e+02	-4.029226e-03
1.524374e+02	-4.075884e-03
1.533179e+02	-4.123081e-03
1.542034e+02	-4.170825e-03
1.550941e+02	-4.219122e-03
1.559899e+02	-4.267977e-03
1.568909e+02	-4.317398e-03
1.577971e+02	-4.367391e-03
1.587085e+02	-4.417963e-03
1.596252e+02	-4.469120e-03
1.605472e+02	-4.520869e-03
1.614745e+02	-4.573217e-03
1.624072e+02	-4.626170e-03
1.633453e+02	-4.679737e-03
1.642887e+02	-4.733923e-03
1.652377e+02	-4.788736e-03
1.661921e+02	-4.844184e-03
1.671520e+02	-4.900274e-03
1.681175e+02	-4.957012e-03
1.690885e+02	-5.014407e-03
1.700651e+02	-5.072466e-03
1.710474e+02	-5.131197e-03
1.720354e+02	-5.190608e-03
1.730291e+02	-5.250706e-03
1.740285e+02	-5.311500e-03
1.750337e+02	-5.372997e-03
1.760446e+02	-5.435205e-03
1.770615e+02	-5.498133e-03
1.780842e+02	-5.561790e-03
1.791128e+02	-5.626183e-03
1.801473e+02	-5.691321e-03
1.811878e+02	-5.757212e-03
1.822344e+02	-5.823866e-03
1.832870e+02	-5.891291e-03
1.843456e+02	-5.959496e-03
1.854104e+02	-6.028491e-03
1.864813e+02	-6.098283e-03
1.875584e+02	-6.168883e-03
1.886418e+02	-6.240300e-03
1.897313e+02	-6.312543e-03
1.908272e+02	-6.385621e-03
1.919294e+02	-6.459545e-03
1.930380e+02	-6.534324e-03
1.941530e+02	-6.609968e-03
1.952744e+02	-6.686487e-03
1.964023e+02	-6.763891e-03
1.975367e+02	-6.842191e-03
1.986777e+02	-6.921396e-03
1.998252e+02	-7.001517e-03
2.009794e+02	-7.082565e-03
2.021403e+02	-7.164551e-03
2.033078e+02	-7.247485e-03
2.044821e+02	-7.331377e-03
2.056632e+02	-7.416241e-03
2.068511e+02	-7.502085e-03
2.080459e+02	-7.588923e-03
2.092475e+02	-7.676764e-03
2.104561e+02	-7.765622e-03
2.116717e+02	-7.855507e-03
2.128943e+02	-7.946432e-03
2.141240e+02	-8.038408e-03
2.153608e+02	-8.131447e-03
2.166047e+02	-8.225563e-03
2.178558e+02	-8.320766e-03
2.191141e+02	-8.417071e-03
2.203797e+02	-8.514489e-03
2.216526e+02	-8.613033e-03
2.229329e+02	-8.712717e-03
2.242205e+02	-8.813553e-03
2.255156e+02	-8.915556e-03
2.268182e+02	-9.018737e-03
2.281283e+02	-9.123111e-03
2.294459e+02	-9.228692e-03
2.307712e+02	-9.335494e-03
2.321041e+02	-9.443530e-03
2.334447e+02	-9.552815e-03
2.347931e+02	-9.663363e-03
2.361493e+02	-9.775189e-03
2.375133e+02	-9.888308e-03
2.388851e+02	-1.000273e-02
2.402649e+02	-1.011848e-02
2.416527e+02	-1.023557e-02
2.430484e+02	-1.035401e-02
2.444523e+02	-1.047382e-02
2.458642e+02	-1.059501e-02
2.472843e+02	-1.071761e-02
2.487126e+02	-1.084162e-02
2.501492e+02	-1.096706e-02
2.515940e+02	-1.109395e-02
2.530472e+02	-1.122231e-02
2.545088e+02	-1.135216e-02
2.559789e+02	-1.148350e-02
2.574574e+02	-1.161636e-02
2.589444e+02	-1.175076e-02
2.604401e+02	-1.188670e-02
2.619444e+02	-1.202422e-02
2.634574e+02	-1.216333e-02
2.649791e+02	-1.230405e-02
2.665096e+02	-1.244639e-02
2.680489e+02	-1.259037e-02
2.695972e+02	-1.273602e-02
2.711544e+02	-1.288335e-02
2.727205e+02	-1.303238e-02
2.742958e+02	-1.318314e-02
2.758801e+02	-1.333563e-02
2.774736e+02	-1.348989e-02
2.790762e+02	-1.364592e-02
2.806882e+02	-1.380376e-02
2.823094e+02	-1.396343e-02
2.839400e+02	-1.412493e-02
2.855800e+02	-1.428830e-02
2.872295e+02	-1.445356e-02
2.888886e+02	-1.462073e-02
2.905572e+02	-1.478982e-02
2.922354e+02	-1.496087e-02
2.939234e+02	-1.513389e-02
2.956211e+02	-1.530891e-02
2.973286e+02	-1.548595e-02
2.990459e+02	-1.566504e-02
3.007732e+02	-1.584619e-02
3.025104e+02	-1.602943e-02
3.042577e+02	-1.621479e-02
3.060151e+02	-1.640228e-02
3.077826e+02	-1.659194e-02
3.095604e+02	-1.678379e-02
3.113484e+02	-1.697785e-02
3.131467e+02	-1.717416e-02
3.149554e+02	-1.737273e-02
3.167746e+02	-1.757358e-02
3.186043e+02	-1.777676e-02
3.204445e+02	-1.798228e-02
3.222954e+02	-1.819017e-02
3.241570e+02	-1.840046e-02
3.260293e+02	-1.861318e-02
3.279124e+02	-1.882835e-02
3.298064e+02	-1.904600e-02
3.317114e+02	-1.926616e-02
3.336273e+02	-1.948886e-02
3.355544e+02	-1.971413e-02
3.374925e+02	-1.994200e-02
3.394418e+02	-2.017249e-02
3.414024e+02	-2.040565e-02
3.433744e+02	-2.064149e-02
3.453577e+02	-2.088005e-02
3.473525e+02	-2.112136e-02
3.493588e+02	-2.136545e-02
3.513766e+02	-2.161236e-02
3.534062e+02	-2.186211e-02
3.554474e+02	-2.211474e-02
3.575005e+02	-2.237028e-02
3.595654e+02	-2.262877e-02
3.616422e+02	-2.289024e-02
3.637311e+02	-2.315472e-02
3.658320e+02	-2.342224e-02
3.679450e+02	-2.369285e-02
3.700702e+02	-2.396658e-02
3.722077e+02	-2.424346e-02
3.743576e+02	-2.452354e-02
3.765199e+02	-2.480683e-02
3.786946e+02	-2.509339e-02
3.808820e+02	-2.538325e-02
3.830819e+02	-2.567645e-02
3.852946e+02	-2.597303e-02
3.875200e+02	-2.627302e-02
3.897583e+02	-2.657647e-02
3.920096e+02	-2.688341e-02
3.942738e+02	-2.719388e-02
3.965511e+02	-2.750793e-02
3.988416e+02	-2.782559e-02
4.011452e+02	-2.814691e-02
4.034622e+02	-2.847192e-02
4.057926e+02	-2.880068e-02
4.081365e+02	-2.913322e-02
4.104938e+02	-2.946959e-02
4.128648e+02	-2.980983e-02
4.152495e+02	-3.015398e-02
4.176480e+02	-3.050209e-02
4.200603e+02	-3.085421e-02
4.224866e+02	-3.121037e-02
4.249268e+02	-3.157063e-02
4.273812e+02	-3.193504e-02
4.298497e+02	-3.230364e-02
4.323325e+02	-3.267647e-02
4.348297e+02	-3.305359e-02
4.373412e+02	-3.343505e-02
4.398673e+02	-3.382089e-02
4.424079e+02	-3.421116e-02
4.449633e+02	-3.460593e-02
4.475334e+02	-3.500522e-02
4.501183e+02	-3.540911e-02
4.527182e+02	-3.581764e-02
4.553330e+02	-3.623086e-02
4.579630e+02	-3.664883e-02
4.606082e+02	-3.707160e-02
4.632687e+02	-3.749922e-02
4.659445e+02	-3.793176e-02
4.686358e+02	-3.836926e-02
4.713426e+02	-3.881179e-02
4.740650e+02	-3.925940e-02
4.768032e+02	-3.971214e-02
4.795572e+02	-4.017009e-02
4.823271e+02	-4.063328e-02
4.851130e+02	-4.110180e-02
4.879150e+02	-4.157569e-02
4.907332e+02	-4.205502e-02
4.935676e+02	-4.253984e-02
4.964185e+02	-4.303023e-02
4.992858e+02	-4.352625e-02
5.021696e+02	-4.402795e-02
5.050701e+02	-4.453540e-02
5.079874e+02	-4.504867e-02
5.109215e+02	-4.556783e-02
5.138726e+02	-4.609294e-02
5.168407e+02	-4.662407e-02
5.198259e+02	-4.716128e-02
5.228284e+02	-4.770465e-02
5.258482e+02	-4.825424e-02
5.288855e+02	-4.881014e-02
5.319403e+02	-4.937239e-02
5.350128e+02	-4.994109e-02
5.381030e+02	-5.051630e-02
5.412111e+02	-5.109810e-02
5.443371e+02	-5.168655e-02
5.474812e+02	-5.228175e-02
5.506434e+02	-5.288375e-02
5.538239e+02	-5.349264e-02
5.570228e+02	-5.410850e-02
5.602401e+02	-5.473141e-02
5.634760e+02	-5.536144e-02
5.667306e+02	-5.599868e-02
5.700040e+02	-5.664320e-02
5.732964e+02	-5.729509e-02
5.766077e+02	-5.795444e-02
5.799382e+02	-5.862132e-02
5.832879e+02	-5.929582e-02
5.866569e+02	-5.997803e-02
5.900454e+02	-6.066803e-02
5.934535e+02	-6.136592e-02
5.968813e+02	-6.207177e-02
6.003288e+02	-6.278569e-02
6.037963e+02	-6.350776e-02
6.072838e+02	-6.423806e-02
6.107914e+02	-6.497671e-02
6.143194e+02	-6.572378e-02
6.178676e+02	-6.647938e-02
6.214364e+02	-6.724359e-02
6.250258e+02	-6.801652e-02
6.286359e+02	-6.879827e-02
6.322669e+02	-6.958893e-02
6.359189e+02	-7.038860e-02
6.395919e+02	-7.119738e-02
6.432862e+02	-7.201538e-02
6.470017e+02	-7.284270e-02
6.507388e+02	-7.367945e-02
6.544974e+02	-7.452572e-02
6.582778e+02	-7.538163e-02
6.620800e+02	-7.624728e-02
6.659041e+02	-7.712278e-02
6.697504e+02	-7.800825e-02
6.736188e+02	-7.890379e-02
6.775096e+02	-7.980951e-02
6.814229e+02	-8.072554e-02
6.853587e+02	-8.165198e-02
6.893173e+02	-8.258895e-02
6.932988e+02	-8.353657e-02
6.973033e+02	-8.449495e-02
7.013309e+02	-8.546422e-02
