Frequency(Hz)	Magnitude(dB)
1.000000e+01	-1.417823e-05
1.005776e+01	-1.434248e-05
1.011585e+01	-1.450865e-05
1.017428e+01	-1.467673e-05
1.023305e+01	-1.484677e-05
1.029215e+01	-1.501877e-05
1.035160e+01	-1.519277e-05
1.041139e+01	-1.536878e-05
1.047153e+01	-1.554683e-05
1.053201e+01	-1.572694e-05
1.059284e+01	-1.590914e-05
1.065403e+01	-1.609346e-05
1.071556e+01	-1.627990e-05
1.077746e+01	-1.646851e-05
1.083971e+01	-1.665930e-05
1.090232e+01	-1.685230e-05
1.096529e+01	-1.704754e-05
1.102862e+01	-1.724504e-05
1.109232e+01	-1.744483e-05
1.115639e+01	-1.764693e-05
1.122083e+01	-1.785138e-05
1.128564e+01	-1.805819e-05
1.135083e+01	-1.826740e-05
1.141639e+01	-1.847903e-05
1.148233e+01	-1.869312e-05
1.154865e+01	-1.890968e-05
1.161536e+01	-1.912875e-05
1.168245e+01	-1.935037e-05
1.174992e+01	-1.957454e-05
1.181779e+01	-1.980132e-05
1.188605e+01	-2.003072e-05
1.195470e+01	-2.026279e-05
1.202375e+01	-2.049753e-05
1.209320e+01	-2.073500e-05
1.216305e+01	-2.097522e-05
1.223330e+01	-2.121823e-05
1.230396e+01	-2.146405e-05
1.237503e+01	-2.171271e-05
1.244651e+01	-2.196426e-05
1.251840e+01	-2.221872e-05
1.259070e+01	-2.247613e-05
1.266343e+01	-2.273652e-05
1.273657e+01	-2.299993e-05
1.281014e+01	-2.326639e-05
1.288413e+01	-2.353594e-05
1.295855e+01	-2.380861e-05
1.303339e+01	-2.408444e-05
1.310867e+01	-2.436346e-05
1.318439e+01	-2.464572e-05
1.326054e+01	-2.493124e-05
1.333713e+01	-2.522008e-05
1.341417e+01	-2.551226e-05
1.349165e+01	-2.580782e-05
1.356958e+01	-2.610681e-05
1.364795e+01	-2.640927e-05
1.372678e+01	-2.671523e-05
1.380607e+01	-2.702473e-05
1.388581e+01	-2.733782e-05
1.396602e+01	-2.765453e-05
1.404668e+01	-2.797492e-05
1.412782e+01	-2.829901e-05
1.420942e+01	-2.862686e-05
1.429149e+01	-2.895851e-05
1.437404e+01	-2.929400e-05
1.445706e+01	-2.963338e-05
1.454057e+01	-2.997669e-05
1.462455e+01	-3.032398e-05
1.470902e+01	-3.067529e-05
1.479398e+01	-3.103067e-05
1.487943e+01	-3.139017e-05
1.496537e+01	-3.175383e-05
1.505181e+01	-3.212171e-05
1.513875e+01	-3.249384e-05
1.522619e+01	-3.287029e-05
1.531414e+01	-3.325110e-05
1.540259e+01	-3.363632e-05
1.549156e+01	-3.402601e-05
1.558103e+01	-3.442021e-05
1.567103e+01	-3.481897e-05
1.576155e+01	-3.522236e-05
1.585258e+01	-3.563042e-05
1.594415e+01	-3.604321e-05
1.603624e+01	-3.646077e-05
1.612886e+01	-3.688318e-05
1.622202e+01	-3.731048e-05
1.631572e+01	-3.774273e-05
1.640996e+01	-3.817999e-05
1.650474e+01	-3.862231e-05
1.660008e+01	-3.906976e-05
1.669596e+01	-3.952239e-05
1.679239e+01	-3.998027e-05
1.688938e+01	-4.044345e-05
1.698694e+01	-4.091200e-05
1.708505e+01	-4.138597e-05
1.718373e+01	-4.186544e-05
1.728299e+01	-4.235046e-05
1.738281e+01	-4.284110e-05
1.748322e+01	-4.333742e-05
1.758420e+01	-4.383949e-05
1.768576e+01	-4.434738e-05
1.778792e+01	-4.486116e-05
1.789066e+01	-4.538089e-05
1.799399e+01	-4.590663e-05
1.809793e+01	-4.643847e-05
1.820246e+01	-4.697647e-05
1.830760e+01	-4.752070e-05
1.841334e+01	-4.807124e-05
1.851969e+01	-4.862816e-05
1.862666e+01	-4.919152e-05
1.873425e+01	-4.976142e-05
1.884246e+01	-5.033792e-05
1.895129e+01	-5.092109e-05
1.906075e+01	-5.151102e-05
1.917085e+01	-5.210779e-05
1.928158e+01	-5.271147e-05
1.939295e+01	-5.332214e-05
1.950496e+01	-5.393989e-05
1.961762e+01	-5.456479e-05
1.973093e+01	-5.519694e-05
1.984490e+01	-5.583641e-05
1.995952e+01	-5.648328e-05
2.007480e+01	-5.713765e-05
2.019076e+01	-5.779960e-05
2.030738e+01	-5.846922e-05
2.042467e+01	-5.914660e-05
2.054264e+01	-5.983183e-05
2.066130e+01	-6.052499e-05
2.078064e+01	-6.122618e-05
2.090066e+01	-6.193550e-05
2.102139e+01	-6.265304e-05
2.114280e+01	-6.337888e-05
2.126492e+01	-6.411314e-05
2.138775e+01	-6.485590e-05
2.151128e+01	-6.560727e-05
2.163553e+01	-6.636735e-05
2.176050e+01	-6.713622e-05
2.188619e+01	-6.791401e-05
2.201260e+01	-6.870081e-05
2.213974e+01	-6.949672e-05
2.226762e+01	-7.030185e-05
2.239624e+01	-7.111631e-05
2.252560e+01	-7.194021e-05
2.265571e+01	-7.277365e-05
2.278656e+01	-7.361674e-05
2.291818e+01	-7.446961e-05
2.305055e+01	-7.533235e-05
2.318369e+01	-7.620509e-05
2.331760e+01	-7.708794e-05
2.345228e+01	-7.798101e-05
2.358774e+01	-7.888444e-05
2.372398e+01	-7.979833e-05
2.386101e+01	-8.072281e-05
2.399883e+01	-8.165799e-05
2.413745e+01	-8.260401e-05
2.427686e+01	-8.356100e-05
2.441709e+01	-8.452906e-05
2.455812e+01	-8.550835e-05
2.469997e+01	-8.649898e-05
2.484263e+01	-8.750108e-05
2.498612e+01	-8.851479e-05
2.513044e+01	-8.954025e-05
2.527559e+01	-9.057759e-05
2.542158e+01	-9.162695e-05
2.556842e+01	-9.268846e-05
2.571610e+01	-9.376227e-05
2.586463e+01	-9.484852e-05
2.601403e+01	-9.594735e-05
2.616428e+01	-9.705892e-05
2.631541e+01	-9.818336e-05
2.646740e+01	-9.932083e-05
2.662028e+01	-1.004715e-04
2.677404e+01	-1.016355e-04
2.692868e+01	-1.028129e-04
2.708422e+01	-1.040040e-04
2.724066e+01	-1.052089e-04
2.739800e+01	-1.064278e-04
2.755625e+01	-1.076608e-04
2.771541e+01	-1.089080e-04
2.787550e+01	-1.101697e-04
2.803650e+01	-1.114461e-04
2.819844e+01	-1.127372e-04
2.836131e+01	-1.140433e-04
2.852513e+01	-1.153645e-04
2.868989e+01	-1.167010e-04
2.885560e+01	-1.180530e-04
2.902227e+01	-1.194206e-04
2.918990e+01	-1.208041e-04
2.935850e+01	-1.222037e-04
2.952807e+01	-1.236194e-04
2.969863e+01	-1.250515e-04
2.987016e+01	-1.265003e-04
3.004269e+01	-1.279658e-04
3.021622e+01	-1.294483e-04
3.039075e+01	-1.309480e-04
3.056628e+01	-1.324650e-04
3.074283e+01	-1.339996e-04
3.092040e+01	-1.355520e-04
3.109900e+01	-1.371224e-04
3.127862e+01	-1.387110e-04
3.145929e+01	-1.403180e-04
3.164099e+01	-1.419436e-04
3.182375e+01	-1.435880e-04
3.200756e+01	-1.452515e-04
3.219244e+01	-1.469342e-04
3.237838e+01	-1.486365e-04
3.256540e+01	-1.503584e-04
3.275349e+01	-1.521004e-04
3.294268e+01	-1.538624e-04
3.313295e+01	-1.556450e-04
3.332433e+01	-1.574481e-04
3.351681e+01	-1.592722e-04
3.371040e+01	-1.611173e-04
3.390511e+01	-1.629839e-04
3.410094e+01	-1.648721e-04
3.429791e+01	-1.667821e-04
3.449601e+01	-1.687143e-04
3.469526e+01	-1.706689e-04
3.489566e+01	-1.726461e-04
3.509721e+01	-1.746462e-04
3.529993e+01	-1.766695e-04
3.550382e+01	-1.787162e-04
3.570889e+01	-1.807866e-04
3.591515e+01	-1.828810e-04
3.612259e+01	-1.849997e-04
3.633123e+01	-1.871430e-04
3.654108e+01	-1.893110e-04
3.675214e+01	-1.915042e-04
3.696442e+01	-1.937228e-04
3.717792e+01	-1.959670e-04
3.739266e+01	-1.982373e-04
3.760864e+01	-2.005339e-04
3.782587e+01	-2.028571e-04
3.804435e+01	-2.052072e-04
3.826409e+01	-2.075845e-04
3.848510e+01	-2.099894e-04
3.870739e+01	-2.124221e-04
3.893096e+01	-2.148830e-04
3.915583e+01	-2.173724e-04
3.938199e+01	-2.198907e-04
3.960946e+01	-2.224381e-04
3.983824e+01	-2.250151e-04
4.006834e+01	-2.276219e-04
4.029978e+01	-2.302589e-04
4.053255e+01	-2.329264e-04
4.076666e+01	-2.356248e-04
4.100213e+01	-2.383545e-04
4.123896e+01	-2.411159e-04
4.147715e+01	-2.439092e-04
4.171672e+01	-2.467349e-04
4.195767e+01	-2.495933e-04
4.220002e+01	-2.524848e-04
4.244377e+01	-2.554098e-04
4.268892e+01	-2.583687e-04
4.293549e+01	-2.613619e-04
4.318348e+01	-2.643898e-04
4.343291e+01	-2.674527e-04
4.368377e+01	-2.705511e-04
4.393609e+01	-2.736854e-04
4.418986e+01	-2.768560e-04
4.444510e+01	-2.800634e-04
4.470182e+01	-2.833079e-04
4.496001e+01	-2.865900e-04
4.521970e+01	-2.899101e-04
4.548089e+01	-2.932687e-04
4.574358e+01	-2.966662e-04
4.600779e+01	-3.001030e-04
4.627353e+01	-3.035797e-04
4.654081e+01	-3.070966e-04
4.680963e+01	-3.106543e-04
4.708000e+01	-3.142532e-04
4.735193e+01	-3.178937e-04
4.762543e+01	-3.215765e-04
4.790051e+01	-3.253019e-04
4.817719e+01	-3.290705e-04
4.845545e+01	-3.328827e-04
4.873533e+01	-3.367391e-04
4.901682e+01	-3.406401e-04
4.929994e+01	-3.445864e-04
4.958470e+01	-3.485784e-04
4.987110e+01	-3.526166e-04
5.015915e+01	-3.567016e-04
5.044887e+01	-3.608339e-04
5.074026e+01	-3.650141e-04
5.103333e+01	-3.692427e-04
5.132810e+01	-3.735203e-04
5.162457e+01	-3.778474e-04
5.192275e+01	-3.822247e-04
5.222265e+01	-3.866527e-04
5.252429e+01	-3.911320e-04
5.282767e+01	-3.956631e-04
5.313280e+01	-4.002468e-04
5.343969e+01	-4.048835e-04
5.374836e+01	-4.095740e-04
5.405880e+01	-4.143188e-04
5.437105e+01	-4.191186e-04
5.468509e+01	-4.239739e-04
5.500095e+01	-4.288856e-04
5.531863e+01	-4.338541e-04
5.563815e+01	-4.388801e-04
5.595951e+01	-4.439644e-04
5.628273e+01	-4.491076e-04
5.660782e+01	-4.543104e-04
5.693479e+01	-4.595734e-04
5.726364e+01	-4.648974e-04
5.759439e+01	-4.702831e-04
5.792705e+01	-4.757311e-04
5.826164e+01	-4.812423e-04
5.859815e+01	-4.868173e-04
5.893662e+01	-4.924569e-04
5.927703e+01	-4.981618e-04
5.961941e+01	-5.039328e-04
5.996377e+01	-5.097707e-04
6.031012e+01	-5.156762e-04
6.065847e+01	-5.216501e-04
6.100883e+01	-5.276932e-04
6.136121e+01	-5.338063e-04
6.171563e+01	-5.399902e-04
6.207210e+01	-5.462457e-04
6.243063e+01	-5.525737e-04
6.279122e+01	-5.589750e-04
6.315390e+01	-5.654505e-04
6.351868e+01	-5.720009e-04
6.388556e+01	-5.786273e-04
6.425456e+01	-5.853304e-04
6.462569e+01	-5.921112e-04
6.499897e+01	-5.989704e-04
6.537440e+01	-6.059092e-04
6.575200e+01	-6.129283e-04
6.613178e+01	-6.200288e-04
6.651375e+01	-6.272115e-04
6.689793e+01	-6.344773e-04
6.728433e+01	-6.418274e-04
6.767297e+01	-6.492626e-04
6.806384e+01	-6.567839e-04
6.845698e+01	-6.643923e-04
6.885238e+01	-6.720889e-04
6.925007e+01	-6.798746e-04
6.965005e+01	-6.877505e-04
7.005235e+01	-6.957177e-04
7.045697e+01	-7.037771e-04
7.086393e+01	-7.119299e-04
7.127323e+01	-7.201771e-04
7.168490e+01	-7.285199e-04
7.209895e+01	-7.369593e-04
7.251539e+01	-7.454964e-04
7.293424e+01	-7.541324e-04
7.335551e+01	-7.628685e-04
7.377920e+01	-7.717057e-04
7.420535e+01	-7.806454e-04
7.463396e+01	-7.896885e-04
7.506504e+01	-7.988365e-04
7.549861e+01	-8.080903e-04
7.593469e+01	-8.174514e-04
7.637328e+01	-8.269209e-04
7.681441e+01	-8.365001e-04
7.725809e+01	-8.461902e-04
7.770433e+01	-8.559926e-04
7.815315e+01	-8.659085e-04
7.860456e+01	-8.759393e-04
7.905857e+01	-8.860862e-04
7.951521e+01	-8.963507e-04
7.997449e+01	-9.067341e-04
8.043642e+01	-9.172378e-04
8.090102e+01	-9.278631e-04
8.136830e+01	-9.386115e-04
8.183828e+01	-9.494844e-04
8.231097e+01	-9.604832e-04
8.278640e+01	-9.716094e-04
8.326457e+01	-9.828645e-04
8.374550e+01	-9.942499e-04
8.422921e+01	-1.005767e-03
8.471572e+01	-1.017418e-03
8.520503e+01	-1.029204e-03
8.569717e+01	-1.041126e-03
8.619215e+01	-1.053186e-03
8.669000e+01	-1.065386e-03
8.719071e+01	-1.077727e-03
8.769432e+01	-1.090211e-03
8.820084e+01	-1.102840e-03
8.871029e+01	-1.115615e-03
8.922267e+01	-1.128538e-03
8.973802e+01	-1.141611e-03
9.025634e+01	-1.154835e-03
9.077766e+01	-1.168212e-03
9.130199e+01	-1.181745e-03
9.182935e+01	-1.195434e-03
9.235975e+01	-1.209281e-03
9.289321e+01	-1.223289e-03
9.342976e+01	-1.237459e-03
9.396941e+01	-1.251793e-03
9.451217e+01	-1.266294e-03
9.505807e+01	-1.280962e-03
9.560712e+01	-1.295800e-03
9.615934e+01	-1.310810e-03
9.671476e+01	-1.325994e-03
9.727338e+01	-1.341353e-03
9.783522e+01	-1.356891e-03
9.840032e+01	-1.372608e-03
9.896867e+01	-1.388508e-03
9.954031e+01	-1.404591e-03
1.001153e+02	-1.420861e-03
1.006935e+02	-1.437320e-03
1.012751e+02	-1.453968e-03
1.018601e+02	-1.470810e-03
1.024484e+02	-1.487847e-03
1.030402e+02	-1.505081e-03
1.036353e+02	-1.522515e-03
1.042339e+02	-1.540150e-03
1.048360e+02	-1.557990e-03
1.054415e+02	-1.576037e-03
1.060505e+02	-1.594292e-03
1.066631e+02	-1.612759e-03
1.072791e+02	-1.631440e-03
1.078988e+02	-1.650337e-03
1.085220e+02	-1.669453e-03
1.091488e+02	-1.688790e-03
1.097793e+02	-1.708351e-03
1.104133e+02	-1.728139e-03
1.110511e+02	-1.748156e-03
1.116925e+02	-1.768405e-03
1.123376e+02	-1.788888e-03
1.129865e+02	-1.809608e-03
1.136391e+02	-1.830569e-03
1.142955e+02	-1.851772e-03
1.149556e+02	-1.873221e-03
1.156196e+02	-1.894918e-03
1.162874e+02	-1.916866e-03
1.169591e+02	-1.939068e-03
1.176347e+02	-1.961528e-03
1.183141e+02	-1.984247e-03
1.189975e+02	-2.007230e-03
1.196848e+02	-2.030479e-03
1.203761e+02	-2.053997e-03
1.210714e+02	-2.077788e-03
1.217707e+02	-2.101853e-03
1.224740e+02	-2.126198e-03
1.231814e+02	-2.150824e-03
1.238929e+02	-2.175736e-03
1.246085e+02	-2.200936e-03
1.253283e+02	-2.226428e-03
1.260522e+02	-2.252215e-03
1.267802e+02	-2.278301e-03
1.275125e+02	-2.304689e-03
1.282490e+02	-2.331382e-03
1.289898e+02	-2.358384e-03
1.297348e+02	-2.385699e-03
1.304842e+02	-2.413330e-03
1.312378e+02	-2.441282e-03
1.319959e+02	-2.469556e-03
1.327583e+02	-2.498159e-03
1.335251e+02	-2.527092e-03
1.342963e+02	-2.556360e-03
1.350720e+02	-2.585968e-03
1.358522e+02	-2.615918e-03
1.366368e+02	-2.646215e-03
1.374260e+02	-2.676862e-03
1.382198e+02	-2.707865e-03
1.390182e+02	-2.739226e-03
1.398211e+02	-2.770951e-03
1.406287e+02	-2.803043e-03
1.414410e+02	-2.835506e-03
1.422579e+02	-2.868345e-03
1.430796e+02	-2.901565e-03
1.439060e+02	-2.935169e-03
1.447372e+02	-2.969162e-03
1.455732e+02	-3.003548e-03
1.464141e+02	-3.038333e-03
1.472597e+02	-3.073520e-03
1.481103e+02	-3.109115e-03
1.489658e+02	-3.145122e-03
1.498262e+02	-3.181546e-03
1.506916e+02	-3.218391e-03
1.515620e+02	-3.255663e-03
1.524374e+02	-3.293366e-03
1.533179e+02	-3.331506e-03
1.542034e+02	-3.370088e-03
1.550941e+02	-3.409116e-03
1.559899e+02	-3.448595e-03
1.568909e+02	-3.488532e-03
1.577971e+02	-3.528931e-03
1.587085e+02	-3.569798e-03
1.596252e+02	-3.611138e-03
1.605472e+02	-3.652956e-03
1.614745e+02	-3.695259e-03
1.624072e+02	-3.738051e-03
1.633453e+02	-3.781338e-03
1.642887e+02	-3.825127e-03
1.652377e+02	-3.869422e-03
1.661921e+02	-3.914230e-03
1.671520e+02	-3.959556e-03
1.681175e+02	-4.005408e-03
1.690885e+02	-4.051790e-03
1.700651e+02	-4.098709e-03
1.710474e+02	-4.146171e-03
1.720354e+02	-4.194182e-03
1.730291e+02	-4.242749e-03
1.740285e+02	-4.291878e-03
1.750337e+02	-4.341575e-03
1.760446e+02	-4.391848e-03
1.770615e+02	-4.442703e-03
1.780842e+02	-4.494146e-03
1.791128e+02	-4.546184e-03
1.801473e+02	-4.598825e-03
1.811878e+02	-4.652075e-03
1.822344e+02	-4.705941e-03
1.832870e+02	-4.760431e-03
1.843456e+02	-4.815551e-03
1.854104e+02	-4.871309e-03
1.864813e+02	-4.927712e-03
1.875584e+02	-4.984768e-03
1.886418e+02	-5.042485e-03
1.897313e+02	-5.100869e-03
1.908272e+02	-5.159928e-03
1.919294e+02	-5.219672e-03
1.930380e+02	-5.280106e-03
1.941530e+02	-5.341240e-03
1.952744e+02	-5.403081e-03
1.964023e+02	-5.465637e-03
1.975367e+02	-5.528918e-03
1.986777e+02	-5.592930e-03
1.998252e+02	-5.657683e-03
2.009794e+02	-5.723186e-03
2.021403e+02	-5.789446e-03
2.033078e+02	-5.856473e-03
2.044821e+02	-5.924275e-03
2.056632e+02	-5.992862e-03
2.068511e+02	-6.062242e-03
2.080459e+02	-6.132425e-03
2.092475e+02	-6.203420e-03
2.104561e+02	-6.275236e-03
2.116717e+02	-6.347883e-03
2.128943e+02	-6.421371e-03
2.141240e+02	-6.495708e-03
2.153608e+02	-6.570905e-03
2.166047e+02	-6.646973e-03
2.178558e+02	-6.723920e-03
2.191141e+02	-6.801757e-03
2.203797e+02	-6.880494e-03
2.216526e+02	-6.960143e-03
2.229329e+02	-7.040712e-03
2.242205e+02	-7.122213e-03
2.255156e+02	-7.204657e-03
2.268182e+02	-7.288055e-03
2.281283e+02	-7.372417e-03
2.294459e+02	-7.457755e-03
2.307712e+02	-7.544080e-03
2.321041e+02	-7.631403e-03
2.334447e+02	-7.719736e-03
2.347931e+02	-7.809090e-03
2.361493e+02	-7.899478e-03
2.375133e+02	-7.990911e-03
2.388851e+02	-8.083401e-03
2.402649e+02	-8.176961e-03
2.416527e+02	-8.271603e-03
2.430484e+02	-8.367339e-03
2.444523e+02	-8.464182e-03
2.458642e+02	-8.562144e-03
2.472843e+02	-8.661240e-03
2.487126e+02	-8.761481e-03
2.501492e+02	-8.862881e-03
2.515940e+02	-8.965453e-03
2.530472e+02	-9.069212e-03
2.545088e+02	-9.174170e-03
2.559789e+02	-9.280341e-03
2.574574e+02	-9.387739e-03
2.589444e+02	-9.496379e-03
2.604401e+02	-9.606275e-03
2.619444e+02	-9.717441e-03
2.634574e+02	-9.829893e-03
2.649791e+02	-9.943644e-03
2.665096e+02	-1.005871e-02
2.680489e+02	-1.017511e-02
2.695972e+02	-1.029285e-02
2.711544e+02	-1.041195e-02
2.727205e+02	-1.053243e-02
2.742958e+02	-1.065430e-02
2.758801e+02	-1.077758e-02
2.774736e+02	-1.090228e-02
2.790762e+02	-1.102842e-02
2.806882e+02	-1.115603e-02
2.823094e+02	-1.128510e-02
2.839400e+02	-1.141567e-02
2.855800e+02	-1.154775e-02
2.872295e+02	-1.168135e-02
2.888886e+02	-1.181650e-02
2.905572e+02	-1.195321e-02
2.922354e+02	-1.209149e-02
2.939234e+02	-1.223138e-02
2.956211e+02	-1.237288e-02
2.973286e+02	-1.251602e-02
2.990459e+02	-1.266081e-02
3.007732e+02	-1.280727e-02
3.025104e+02	-1.295542e-02
3.042577e+02	-1.310529e-02
3.060151e+02	-1.325688e-02
3.077826e+02	-1.341023e-02
3.095604e+02	-1.356534e-02
3.113484e+02	-1.372225e-02
3.131467e+02	-1.388097e-02
3.149554e+02	-1.404153e-02
3.167746e+02	-1.420394e-02
3.186043e+02	-1.436822e-02
3.204445e+02	-1.453440e-02
3.222954e+02	-1.470250e-02
3.241570e+02	-1.487254e-02
3.260293e+02	-1.504454e-02
3.279124e+02	-1.521853e-02
3.298064e+02	-1.539452e-02
3.317114e+02	-1.557255e-02
3.336273e+02	-1.575264e-02
3.355544e+02	-1.593480e-02
3.374925e+02	-1.611906e-02
3.394418e+02	-1.630546e-02
3.414024e+02	-1.649400e-02
3.433744e+02	-1.668472e-02
3.453577e+02	-1.687764e-02
3.473525e+02	-1.707278e-02
3.493588e+02	-1.727018e-02
3.513766e+02	-1.746986e-02
3.534062e+02	-1.767184e-02
3.554474e+02	-1.787615e-02
3.575005e+02	-1.808281e-02
3.595654e+02	-1.829186e-02
3.616422e+02	-1.850333e-02
3.637311e+02	-1.871723e-02
3.658320e+02	-1.893360e-02
3.679450e+02	-1.915246e-02
3.700702e+02	-1.937385e-02
3.722077e+02	-1.959780e-02
3.743576e+02	-1.982432e-02
3.765199e+02	-2.005346e-02
3.786946e+02	-2.028524e-02
3.808820e+02	-2.051969e-02
3.830819e+02	-2.075685e-02
3.852946e+02	-2.099674e-02
3.875200e+02	-2.123939e-02
3.897583e+02	-2.148485e-02
3.920096e+02	-2.173313e-02
3.942738e+02	-2.198427e-02
3.965511e+02	-2.223831e-02
3.988416e+02	-2.249528e-02
4.011452e+02	-2.275521e-02
4.034622e+02	-2.301813e-02
4.057926e+02	-2.328408e-02
4.081365e+02	-2.355310e-02
4.104938e+02	-2.382522e-02
4.128648e+02	-2.410047e-02
4.152495e+02	-2.437890e-02
4.176480e+02	-2.466053e-02
4.200603e+02	-2.494540e-02
4.224866e+02	-2.523356e-02
4.249268e+02	-2.552503e-02
4.273812e+02	-2.581987e-02
4.298497e+02	-2.611809e-02
4.323325e+02	-2.641975e-02
4.348297e+02	-2.672489e-02
4.373412e+02	-2.703354e-02
4.398673e+02	-2.734574e-02
4.424079e+02	-2.766153e-02
4.449633e+02	-2.798096e-02
4.475334e+02	-2.830407e-02
4.501183e+02	-2.863090e-02
4.527182e+02	-2.896148e-02
4.553330e+02	-2.929587e-02
4.579630e+02	-2.963411e-02
4.606082e+02	-2.997624e-02
4.632687e+02	-3.032231e-02
4.659445e+02	-3.067236e-02
4.686358e+02	-3.102643e-02
4.713426e+02	-3.138458e-02
4.740650e+02	-3.174684e-02
4.768032e+02	-3.211327e-02
4.795572e+02	-3.248392e-02
4.823271e+02	-3.285882e-02
4.851130e+02	-3.323804e-02
4.879150e+02	-3.362162e-02
4.907332e+02	-3.400960e-02
4.935676e+02	-3.440205e-02
4.964185e+02	-3.479900e-02
4.992858e+02	-3.520052e-02
5.021696e+02	-3.560665e-02
5.050701e+02	-3.601745e-02
5.079874e+02	-3.643296e-02
5.109215e+02	-3.685325e-02
5.138726e+02	-3.727837e-02
5.168407e+02	-3.770837e-02
5.198259e+02	-3.814331e-02
5.228284e+02	-3.858324e-02
5.258482e+02	-3.902822e-02
5.288855e+02	-3.947831e-02
5.319403e+02	-3.993357e-02
5.350128e+02	-4.039406e-02
5.381030e+02	-4.085982e-02
5.412111e+02	-4.133094e-02
5.443371e+02	-4.180746e-02
5.474812e+02	-4.228944e-02
5.506434e+02	-4.277696e-02
5.538239e+02	-4.327007e-02
5.570228e+02	-4.376883e-02
5.602401e+02	-4.427331e-02
5.634760e+02	-4.478358e-02
5.667306e+02	-4.529970e-02
5.700040e+02	-4.582173e-02
5.732964e+02	-4.634975e-02
5.766077e+02	-4.688382e-02
5.799382e+02	-4.742401e-02
5.832879e+02	-4.797039e-02
5.866569e+02	-4.852302e-02
5.900454e+02	-4.908199e-02
5.934535e+02	-4.964736e-02
5.968813e+02	-5.021921e-02
6.003288e+02	-5.079760e-02
6.037963e+02	-5.138262e-02
6.072838e+02	-5.197433e-02
6.107914e+02	-5.257282e-02
6.143194e+02	-5.317815e-02
6.178676e+02	-5.379041e-02
6.214364e+02	-5.440968e-02
6.250258e+02	-5.503603e-02
6.286359e+02	-5.566954e-02
6.322669e+02	-5.631030e-02
6.359189e+02	-5.695839e-02
6.395919e+02	-5.761388e-02
6.432862e+02	-5.827687e-02
6.470017e+02	-5.894743e-02
6.507388e+02	-5.962566e-02
6.544974e+02	-6.031164e-02
6.582778e+02	-6.100545e-02
6.620800e+02	-6.170719e-02
6.659041e+02	-6.241694e-02
6.697504e+02	-6.313479e-02
6.736188e+02	-6.386084e-02
6.775096e+02	-6.459518e-02
6.814229e+02	-6.533790e-02
6.853587e+02	-6.608909e-02
6.893173e+02	-6.684885e-02
6.932988e+02	-6.761728e-02
6.973033e+02	-6.839447e-02
7.013309e+02	-6.918053e-02
