Frequency(Hz)	Magnitude(dB)
1.000000e+01	-2.226853e+00
1.005776e+01	-2.247373e+00
1.011585e+01	-2.267362e+00
1.017428e+01	-2.287780e+00
1.023305e+01	-2.308478e+00
1.029215e+01	-2.328936e+00
1.035160e+01	-2.350084e+00
1.041139e+01	-2.371083e+00
1.047153e+01	-2.392175e+00
1.053201e+01	-2.413151e+00
1.059284e+01	-2.434854e+00
1.065403e+01	-2.456096e+00
1.071556e+01	-2.477887e+00
1.077746e+01	-2.499867e+00
1.083971e+01	-2.521690e+00
1.090232e+01	-2.543798e+00
1.096529e+01	-2.566086e+00
1.102862e+01	-2.588394e+00
1.109232e+01	-2.610927e+00
1.115639e+01	-2.633755e+00
1.122083e+01	-2.656507e+00
1.128564e+01	-2.679241e+00
1.135083e+01	-2.702582e+00
1.141639e+01	-2.725762e+00
1.148233e+01	-2.748981e+00
1.154865e+01	-2.772862e+00
1.161536e+01	-2.796320e+00
1.168245e+01	-2.820116e+00
1.174992e+01	-2.844011e+00
1.181779e+01	-2.868172e+00
1.188605e+01	-2.892368e+00
1.195470e+01	-2.916748e+00
1.202375e+01	-2.941332e+00
1.209320e+01	-2.965957e+00
1.216305e+01	-2.990980e+00
1.223330e+01	-3.015926e+00
1.230396e+01	-3.041122e+00
1.237503e+01	-3.066210e+00
1.244651e+01	-3.091817e+00
1.251840e+01	-3.117431e+00
1.259070e+01	-3.143100e+00
1.266343e+01	-3.168760e+00
1.273657e+01	-3.194776e+00
1.281014e+01	-3.220681e+00
1.288413e+01	-3.247102e+00
1.295855e+01	-3.273376e+00
1.303339e+01	-3.300177e+00
1.310867e+01	-3.326983e+00
1.318439e+01	-3.353668e+00
1.326054e+01	-3.380465e+00
1.333713e+01	-3.407716e+00
1.341417e+01	-3.435171e+00
1.349165e+01	-3.462530e+00
1.356958e+01	-3.489729e+00
1.364795e+01	-3.517733e+00
1.372678e+01	-3.545592e+00
1.380607e+01	-3.573673e+00
1.388581e+01	-3.601737e+00
1.396602e+01	-3.629798e+00
1.404668e+01	-3.658616e+00
1.412782e+01	-3.686835e+00
1.420942e+01	-3.715728e+00
1.429149e+01	-3.744225e+00
1.437404e+01	-3.773401e+00
1.445706e+01	-3.802483e+00
1.454057e+01	-3.831660e+00
1.462455e+01	-3.861192e+00
1.470902e+01	-3.890864e+00
1.479398e+01	-3.920247e+00
1.487943e+01	-3.950145e+00
1.496537e+01	-3.980068e+00
1.505181e+01	-4.010224e+00
1.513875e+01	-4.040580e+00
1.522619e+01	-4.070621e+00
1.531414e+01	-4.101205e+00
1.540259e+01	-4.132060e+00
1.549156e+01	-4.162535e+00
1.558103e+01	-4.193476e+00
1.567103e+01	-4.224905e+00
1.576155e+01	-4.256003e+00
1.585258e+01	-4.287289e+00
1.594415e+01	-4.318667e+00
1.603624e+01	-4.350163e+00
1.612886e+01	-4.382080e+00
1.622202e+01	-4.413597e+00
1.631572e+01	-4.445808e+00
1.640996e+01	-4.477572e+00
1.650474e+01	-4.510208e+00
1.660008e+01	-4.542366e+00
1.669596e+01	-4.574829e+00
1.679239e+01	-4.607865e+00
1.688938e+01	-4.640484e+00
1.698694e+01	-4.673606e+00
1.708505e+01	-4.706370e+00
1.718373e+01	-4.739566e+00
1.728299e+01	-4.772482e+00
1.738281e+01	-4.806171e+00
1.748322e+01	-4.839941e+00
1.758420e+01	-4.873241e+00
1.768576e+01	-4.907405e+00
1.778792e+01	-4.941347e+00
1.789066e+01	-4.975288e+00
1.799399e+01	-5.009546e+00
1.809793e+01	-5.043825e+00
1.820246e+01	-5.078237e+00
1.830760e+01	-5.112563e+00
1.841334e+01	-5.147394e+00
1.851969e+01	-5.182279e+00
1.862666e+01	-5.217139e+00
1.873425e+01	-5.252047e+00
1.884246e+01	-5.287052e+00
1.895129e+01	-5.322449e+00
1.906075e+01	-5.357899e+00
1.917085e+01	-5.393586e+00
1.928158e+01	-5.429291e+00
1.939295e+01	-5.464641e+00
1.950496e+01	-5.500503e+00
1.961762e+01	-5.536842e+00
1.973093e+01	-5.573005e+00
1.984490e+01	-5.608982e+00
1.995952e+01	-5.645174e+00
2.007480e+01	-5.682149e+00
2.019076e+01	-5.718655e+00
2.030738e+01	-5.754909e+00
2.042467e+01	-5.791724e+00
2.054264e+01	-5.828665e+00
2.066130e+01	-5.865947e+00
2.078064e+01	-5.902626e+00
2.090066e+01	-5.940169e+00
2.102139e+01	-5.977559e+00
2.114280e+01	-6.015039e+00
2.126492e+01	-6.052477e+00
2.138775e+01	-6.090316e+00
2.151128e+01	-6.128197e+00
2.163553e+01	-6.165854e+00
2.176050e+01	-6.203613e+00
2.188619e+01	-6.241407e+00
2.201260e+01	-6.280213e+00
2.213974e+01	-6.318301e+00
2.226762e+01	-6.356491e+00
2.239624e+01	-6.395322e+00
2.252560e+01	-6.433810e+00
2.265571e+01	-6.472218e+00
2.278656e+01	-6.511407e+00
2.291818e+01	-6.550547e+00
2.305055e+01	-6.589354e+00
2.318369e+01	-6.628481e+00
2.331760e+01	-6.667459e+00
2.345228e+01	-6.706769e+00
2.358774e+01	-6.746082e+00
2.372398e+01	-6.785744e+00
2.386101e+01	-6.825461e+00
2.399883e+01	-6.865085e+00
2.413745e+01	-6.905015e+00
2.427686e+01	-6.944714e+00
2.441709e+01	-6.984407e+00
2.455812e+01	-7.024936e+00
2.469997e+01	-7.064670e+00
2.484263e+01	-7.105099e+00
2.498612e+01	-7.145011e+00
2.513044e+01	-7.185398e+00
2.527559e+01	-7.226324e+00
2.542158e+01	-7.267140e+00
2.556842e+01	-7.307435e+00
2.571610e+01	-7.348716e+00
2.586463e+01	-7.389113e+00
2.601403e+01	-7.430488e+00
2.616428e+01	-7.471245e+00
2.631541e+01	-7.511958e+00
2.646740e+01	-7.553861e+00
2.662028e+01	-7.595171e+00
2.677404e+01	-7.635867e+00
2.692868e+01	-7.677566e+00
2.708422e+01	-7.719038e+00
2.724066e+01	-7.760211e+00
2.739800e+01	-7.802489e+00
2.755625e+01	-7.844141e+00
2.771541e+01	-7.886068e+00
2.787550e+01	-7.927871e+00
2.803650e+01	-7.969981e+00
2.819844e+01	-8.012097e+00
2.836131e+01	-8.053969e+00
2.852513e+01	-8.096430e+00
2.868989e+01	-8.138810e+00
2.885560e+01	-8.181159e+00
2.902227e+01	-8.223708e+00
2.918990e+01	-8.266267e+00
2.935850e+01	-8.308575e+00
2.952807e+01	-8.350954e+00
2.969863e+01	-8.394710e+00
2.987016e+01	-8.436881e+00
3.004269e+01	-8.480010e+00
3.021622e+01	-8.522988e+00
3.039075e+01	-8.565955e+00
3.056628e+01	-8.608795e+00
3.074283e+01	-8.651859e+00
3.092040e+01	-8.695741e+00
3.109900e+01	-8.738365e+00
3.127862e+01	-8.781627e+00
3.145929e+01	-8.825779e+00
3.164099e+01	-8.868745e+00
3.182375e+01	-8.912854e+00
3.200756e+01	-8.956185e+00
3.219244e+01	-8.999591e+00
3.237838e+01	-9.044207e+00
3.256540e+01	-9.087422e+00
3.275349e+01	-9.131256e+00
3.294268e+01	-9.175484e+00
3.313295e+01	-9.219179e+00
3.332433e+01	-9.262907e+00
3.351681e+01	-9.307288e+00
3.371040e+01	-9.351793e+00
3.390511e+01	-9.396360e+00
3.410094e+01	-9.440129e+00
3.429791e+01	-9.484800e+00
3.449601e+01	-9.528737e+00
3.469526e+01	-9.573326e+00
3.489566e+01	-9.618464e+00
3.509721e+01	-9.662471e+00
3.529993e+01	-9.707058e+00
3.550382e+01	-9.752006e+00
3.570889e+01	-9.796635e+00
3.591515e+01	-9.841202e+00
3.612259e+01	-9.886413e+00
3.633123e+01	-9.931382e+00
3.654108e+01	-9.976228e+00
3.675214e+01	-1.002144e+01
3.696442e+01	-1.006633e+01
3.717792e+01	-1.011108e+01
3.739266e+01	-1.015656e+01
3.760864e+01	-1.020254e+01
3.782587e+01	-1.024706e+01
3.804435e+01	-1.029273e+01
3.826409e+01	-1.033785e+01
3.848510e+01	-1.038366e+01
3.870739e+01	-1.042873e+01
3.893096e+01	-1.047471e+01
3.915583e+01	-1.051998e+01
3.938199e+01	-1.056579e+01
3.960946e+01	-1.061080e+01
3.983824e+01	-1.065624e+01
4.006834e+01	-1.070244e+01
4.029978e+01	-1.074831e+01
4.053255e+01	-1.079433e+01
4.076666e+01	-1.083959e+01
4.100213e+01	-1.088616e+01
4.123896e+01	-1.093232e+01
4.147715e+01	-1.097872e+01
4.171672e+01	-1.102385e+01
4.195767e+01	-1.106990e+01
4.220002e+01	-1.111677e+01
4.244377e+01	-1.116230e+01
4.268892e+01	-1.120886e+01
4.293549e+01	-1.125498e+01
4.318348e+01	-1.130091e+01
4.343291e+01	-1.134754e+01
4.368377e+01	-1.139413e+01
4.393609e+01	-1.143985e+01
4.418986e+01	-1.148693e+01
4.444510e+01	-1.153275e+01
4.470182e+01	-1.158007e+01
4.496001e+01	-1.162669e+01
4.521970e+01	-1.167225e+01
4.548089e+01	-1.171934e+01
4.574358e+01	-1.176610e+01
4.600779e+01	-1.181337e+01
4.627353e+01	-1.186031e+01
4.654081e+01	-1.190711e+01
4.680963e+01	-1.195352e+01
4.708000e+01	-1.200067e+01
4.735193e+01	-1.204690e+01
4.762543e+01	-1.209435e+01
4.790051e+01	-1.214071e+01
4.817719e+01	-1.218744e+01
4.845545e+01	-1.223476e+01
4.873533e+01	-1.228203e+01
4.901682e+01	-1.232918e+01
4.929994e+01	-1.237619e+01
4.958470e+01	-1.242314e+01
4.987110e+01	-1.247122e+01
5.015915e+01	-1.251798e+01
5.044887e+01	-1.256549e+01
5.074026e+01	-1.261290e+01
5.103333e+01	-1.265945e+01
5.132810e+01	-1.270737e+01
5.162457e+01	-1.275406e+01
5.192275e+01	-1.280233e+01
5.222265e+01	-1.284853e+01
5.252429e+01	-1.289596e+01
5.282767e+01	-1.294367e+01
5.313280e+01	-1.299122e+01
5.343969e+01	-1.303925e+01
5.374836e+01	-1.308699e+01
5.405880e+01	-1.313388e+01
5.437105e+01	-1.318183e+01
5.468509e+01	-1.322945e+01
5.500095e+01	-1.327777e+01
5.531863e+01	-1.332424e+01
5.563815e+01	-1.337251e+01
5.595951e+01	-1.341969e+01
5.628273e+01	-1.346801e+01
5.660782e+01	-1.351610e+01
5.693479e+01	-1.356330e+01
5.726364e+01	-1.361132e+01
5.759439e+01	-1.365917e+01
5.792705e+01	-1.370734e+01
5.826164e+01	-1.375539e+01
5.859815e+01	-1.380387e+01
5.893662e+01	-1.385020e+01
5.927703e+01	-1.389933e+01
5.961941e+01	-1.394731e+01
5.996377e+01	-1.399487e+01
6.031012e+01	-1.404324e+01
6.065847e+01	-1.409178e+01
6.100883e+01	-1.413850e+01
6.136121e+01	-1.418777e+01
6.171563e+01	-1.423634e+01
6.207210e+01	-1.428316e+01
6.243063e+01	-1.433255e+01
6.279122e+01	-1.437990e+01
6.315390e+01	-1.442816e+01
6.351868e+01	-1.447654e+01
6.388556e+01	-1.452453e+01
6.425456e+01	-1.457319e+01
6.462569e+01	-1.462179e+01
6.499897e+01	-1.466871e+01
6.537440e+01	-1.471739e+01
6.575200e+01	-1.476641e+01
6.613178e+01	-1.481514e+01
6.651375e+01	-1.486225e+01
6.689793e+01	-1.491073e+01
6.728433e+01	-1.495977e+01
6.767297e+01	-1.500663e+01
6.806384e+01	-1.505675e+01
6.845698e+01	-1.510512e+01
6.885238e+01	-1.515454e+01
6.925007e+01	-1.520199e+01
6.965005e+01	-1.525121e+01
7.005235e+01	-1.529882e+01
7.045697e+01	-1.534769e+01
7.086393e+01	-1.539766e+01
7.127323e+01	-1.544382e+01
7.168490e+01	-1.549243e+01
7.209895e+01	-1.554302e+01
7.251539e+01	-1.559085e+01
7.293424e+01	-1.563904e+01
7.335551e+01	-1.568866e+01
7.377920e+01	-1.573677e+01
7.420535e+01	-1.578638e+01
7.463396e+01	-1.583395e+01
7.506504e+01	-1.588323e+01
7.549861e+01	-1.593155e+01
7.593469e+01	-1.598071e+01
7.637328e+01	-1.603037e+01
7.681441e+01	-1.607923e+01
7.725809e+01	-1.612622e+01
7.770433e+01	-1.617531e+01
7.815315e+01	-1.622400e+01
7.860456e+01	-1.627402e+01
7.905857e+01	-1.632175e+01
7.951521e+01	-1.636991e+01
7.997449e+01	-1.641980e+01
8.043642e+01	-1.646875e+01
8.090102e+01	-1.651758e+01
8.136830e+01	-1.656517e+01
8.183828e+01	-1.661609e+01
8.231097e+01	-1.666341e+01
8.278640e+01	-1.671367e+01
8.326457e+01	-1.676172e+01
8.374550e+01	-1.681189e+01
8.422921e+01	-1.686025e+01
8.471572e+01	-1.691055e+01
8.520503e+01	-1.695815e+01
8.569717e+01	-1.700748e+01
8.619215e+01	-1.705754e+01
8.669000e+01	-1.710599e+01
8.719071e+01	-1.715506e+01
8.769432e+01	-1.720247e+01
8.820084e+01	-1.725254e+01
8.871029e+01	-1.730133e+01
8.922267e+01	-1.735169e+01
8.973802e+01	-1.740026e+01
9.025634e+01	-1.744954e+01
9.077766e+01	-1.749874e+01
9.130199e+01	-1.754703e+01
9.182935e+01	-1.759643e+01
9.235975e+01	-1.764458e+01
9.289321e+01	-1.769511e+01
9.342976e+01	-1.774451e+01
9.396941e+01	-1.779293e+01
9.451217e+01	-1.784224e+01
9.505807e+01	-1.789275e+01
9.560712e+01	-1.794170e+01
9.615934e+01	-1.799006e+01
9.671476e+01	-1.803982e+01
9.727338e+01	-1.808967e+01
9.783522e+01	-1.813934e+01
9.840032e+01	-1.818780e+01
9.896867e+01	-1.823726e+01
9.954031e+01	-1.828711e+01
1.001153e+02	-1.833590e+01
1.006935e+02	-1.838346e+01
1.012751e+02	-1.843350e+01
1.018601e+02	-1.848418e+01
1.024484e+02	-1.853192e+01
1.030402e+02	-1.858167e+01
1.036353e+02	-1.863040e+01
1.042339e+02	-1.867944e+01
1.048360e+02	-1.872911e+01
1.054415e+02	-1.877819e+01
1.060505e+02	-1.882991e+01
1.066631e+02	-1.887810e+01
1.072791e+02	-1.892644e+01
1.078988e+02	-1.897689e+01
1.085220e+02	-1.902647e+01
1.091488e+02	-1.907574e+01
1.097793e+02	-1.912512e+01
1.104133e+02	-1.917386e+01
1.110511e+02	-1.922442e+01
1.116925e+02	-1.927402e+01
1.123376e+02	-1.932234e+01
1.129865e+02	-1.937249e+01
1.136391e+02	-1.942132e+01
1.142955e+02	-1.947118e+01
1.149556e+02	-1.952090e+01
1.156196e+02	-1.957038e+01
1.162874e+02	-1.962035e+01
1.169591e+02	-1.966860e+01
1.176347e+02	-1.971846e+01
1.183141e+02	-1.976837e+01
1.189975e+02	-1.981615e+01
1.196848e+02	-1.986692e+01
1.203761e+02	-1.991634e+01
1.210714e+02	-1.996659e+01
1.217707e+02	-2.001503e+01
1.224740e+02	-2.006411e+01
1.231814e+02	-2.011348e+01
1.238929e+02	-2.016619e+01
1.246085e+02	-2.021315e+01
1.253283e+02	-2.026394e+01
1.260522e+02	-2.031354e+01
1.267802e+02	-2.036113e+01
1.275125e+02	-2.041290e+01
1.282490e+02	-2.046172e+01
1.289898e+02	-2.051180e+01
1.297348e+02	-2.056063e+01
1.304842e+02	-2.060913e+01
1.312378e+02	-2.065917e+01
1.319959e+02	-2.071033e+01
1.327583e+02	-2.075870e+01
1.335251e+02	-2.080954e+01
1.342963e+02	-2.085913e+01
1.350720e+02	-2.090803e+01
1.358522e+02	-2.095773e+01
1.366368e+02	-2.100796e+01
1.374260e+02	-2.105580e+01
1.382198e+02	-2.110589e+01
1.390182e+02	-2.115728e+01
1.398211e+02	-2.120653e+01
1.406287e+02	-2.125480e+01
1.414410e+02	-2.130544e+01
1.422579e+02	-2.135445e+01
1.430796e+02	-2.140319e+01
1.439060e+02	-2.145315e+01
1.447372e+02	-2.150440e+01
1.455732e+02	-2.155281e+01
1.464141e+02	-2.160417e+01
1.472597e+02	-2.165091e+01
1.481103e+02	-2.170519e+01
1.489658e+02	-2.175253e+01
1.498262e+02	-2.180528e+01
1.506916e+02	-2.185339e+01
1.515620e+02	-2.190267e+01
1.524374e+02	-2.194982e+01
1.533179e+02	-2.200279e+01
1.542034e+02	-2.205079e+01
1.550941e+02	-2.210239e+01
1.559899e+02	-2.215012e+01
1.568909e+02	-2.219893e+01
1.577971e+02	-2.224841e+01
1.587085e+02	-2.230117e+01
1.596252e+02	-2.234930e+01
1.605472e+02	-2.239968e+01
1.614745e+02	-2.244977e+01
1.624072e+02	-2.249827e+01
1.633453e+02	-2.254930e+01
1.642887e+02	-2.259734e+01
1.652377e+02	-2.264819e+01
1.661921e+02	-2.269711e+01
1.671520e+02	-2.274814e+01
1.681175e+02	-2.279913e+01
1.690885e+02	-2.284614e+01
1.700651e+02	-2.289785e+01
1.710474e+02	-2.294670e+01
1.720354e+02	-2.299648e+01
1.730291e+02	-2.304515e+01
1.740285e+02	-2.309516e+01
1.750337e+02	-2.315079e+01
1.760446e+02	-2.319477e+01
1.770615e+02	-2.324401e+01
1.780842e+02	-2.329656e+01
1.791128e+02	-2.334588e+01
1.801473e+02	-2.339458e+01
1.811878e+02	-2.344375e+01
1.822344e+02	-2.349378e+01
1.832870e+02	-2.354368e+01
1.843456e+02	-2.359516e+01
1.854104e+02	-2.364281e+01
1.864813e+02	-2.369517e+01
1.875584e+02	-2.374283e+01
1.886418e+02	-2.379131e+01
1.897313e+02	-2.384413e+01
1.908272e+02	-2.389362e+01
1.919294e+02	-2.394345e+01
1.930380e+02	-2.399310e+01
1.941530e+02	-2.404145e+01
1.952744e+02	-2.409303e+01
1.964023e+02	-2.414439e+01
1.975367e+02	-2.419179e+01
1.986777e+02	-2.424327e+01
1.998252e+02	-2.429332e+01
2.009794e+02	-2.434020e+01
2.021403e+02	-2.439129e+01
2.033078e+02	-2.444111e+01
2.044821e+02	-2.449307e+01
2.056632e+02	-2.454142e+01
2.068511e+02	-2.458937e+01
2.080459e+02	-2.464085e+01
2.092475e+02	-2.469228e+01
2.104561e+02	-2.474397e+01
2.116717e+02	-2.479057e+01
2.128943e+02	-2.484131e+01
2.141240e+02	-2.489205e+01
2.153608e+02	-2.494102e+01
2.166047e+02	-2.499255e+01
2.178558e+02	-2.504249e+01
2.191141e+02	-2.509073e+01
2.203797e+02	-2.514179e+01
2.216526e+02	-2.519026e+01
2.229329e+02	-2.523943e+01
2.242205e+02	-2.528675e+01
2.255156e+02	-2.534056e+01
2.268182e+02	-2.538813e+01
2.281283e+02	-2.544177e+01
2.294459e+02	-2.549004e+01
2.307712e+02	-2.553894e+01
2.321041e+02	-2.558897e+01
2.334447e+02	-2.564125e+01
2.347931e+02	-2.568986e+01
2.361493e+02	-2.573922e+01
2.375133e+02	-2.578939e+01
2.388851e+02	-2.583866e+01
2.402649e+02	-2.589212e+01
2.416527e+02	-2.593591e+01
2.430484e+02	-2.599035e+01
2.444523e+02	-2.603875e+01
2.458642e+02	-2.608974e+01
2.472843e+02	-2.613882e+01
2.487126e+02	-2.618864e+01
2.501492e+02	-2.624175e+01
2.515940e+02	-2.629056e+01
2.530472e+02	-2.633957e+01
2.545088e+02	-2.639107e+01
2.559789e+02	-2.643610e+01
2.574574e+02	-2.649136e+01
2.589444e+02	-2.653685e+01
2.604401e+02	-2.659201e+01
2.619444e+02	-2.663472e+01
2.634574e+02	-2.668701e+01
2.649791e+02	-2.673948e+01
2.665096e+02	-2.679220e+01
2.680489e+02	-2.683796e+01
2.695972e+02	-2.688468e+01
2.711544e+02	-2.693784e+01
2.727205e+02	-2.698578e+01
2.742958e+02	-2.703458e+01
2.758801e+02	-2.708893e+01
2.774736e+02	-2.714191e+01
2.790762e+02	-2.718820e+01
2.806882e+02	-2.724119e+01
2.823094e+02	-2.728517e+01
2.839400e+02	-2.733668e+01
2.855800e+02	-2.738936e+01
2.872295e+02	-2.743801e+01
2.888886e+02	-2.748692e+01
2.905572e+02	-2.754063e+01
2.922354e+02	-2.758846e+01
2.939234e+02	-2.763790e+01
2.956211e+02	-2.768894e+01
2.973286e+02	-2.773668e+01
2.990459e+02	-2.778858e+01
3.007732e+02	-2.783635e+01
3.025104e+02	-2.788927e+01
3.042577e+02	-2.794144e+01
3.060151e+02	-2.798922e+01
3.077826e+02	-2.804352e+01
3.095604e+02	-2.808595e+01
3.113484e+02	-2.814092e+01
3.131467e+02	-2.819093e+01
3.149554e+02	-2.823795e+01
3.167746e+02	-2.828239e+01
3.186043e+02	-2.833691e+01
3.204445e+02	-2.838673e+01
3.222954e+02	-2.843997e+01
3.241570e+02	-2.849215e+01
3.260293e+02	-2.854048e+01
3.279124e+02	-2.858854e+01
3.298064e+02	-2.864292e+01
3.317114e+02	-2.868611e+01
3.336273e+02	-2.873972e+01
3.355544e+02	-2.878369e+01
3.374925e+02	-2.883993e+01
3.394418e+02	-2.888798e+01
3.414024e+02	-2.893910e+01
3.433744e+02	-2.898417e+01
3.453577e+02	-2.903615e+01
3.473525e+02	-2.909119e+01
3.493588e+02	-2.913778e+01
3.513766e+02	-2.918684e+01
3.534062e+02	-2.924013e+01
3.554474e+02	-2.928655e+01
3.575005e+02	-2.933782e+01
3.595654e+02	-2.938866e+01
3.616422e+02	-2.943486e+01
3.637311e+02	-2.948581e+01
3.658320e+02	-2.954380e+01
3.679450e+02	-2.958849e+01
3.700702e+02	-2.964025e+01
3.722077e+02	-2.968935e+01
3.743576e+02	-2.973827e+01
3.765199e+02	-2.979283e+01
3.786946e+02	-2.983712e+01
3.808820e+02	-2.989118e+01
3.830819e+02	-2.993694e+01
3.852946e+02	-2.997793e+01
3.875200e+02	-3.003756e+01
3.897583e+02	-3.008579e+01
3.920096e+02	-3.014074e+01
3.942738e+02	-3.019149e+01
3.965511e+02	-3.023823e+01
3.988416e+02	-3.029109e+01
4.011452e+02	-3.033802e+01
4.034622e+02	-3.038998e+01
4.057926e+02	-3.043666e+01
4.081365e+02	-3.049034e+01
4.104938e+02	-3.054063e+01
4.128648e+02	-3.058856e+01
4.152495e+02	-3.063996e+01
4.176480e+02	-3.068834e+01
4.200603e+02	-3.074026e+01
4.224866e+02	-3.079312e+01
4.249268e+02	-3.084386e+01
4.273812e+02	-3.089488e+01
4.298497e+02	-3.094302e+01
4.323325e+02	-3.099658e+01
4.348297e+02	-3.104880e+01
4.373412e+02	-3.109854e+01
4.398673e+02	-3.114298e+01
4.424079e+02	-3.119324e+01
4.449633e+02	-3.124694e+01
4.475334e+02	-3.128914e+01
4.501183e+02	-3.134131e+01
4.527182e+02	-3.139360e+01
4.553330e+02	-3.144432e+01
4.579630e+02	-3.149635e+01
4.606082e+02	-3.154248e+01
4.632687e+02	-3.159273e+01
4.659445e+02	-3.163849e+01
4.686358e+02	-3.169461e+01
4.713426e+02	-3.174927e+01
4.740650e+02	-3.179862e+01
4.768032e+02	-3.184183e+01
4.795572e+02	-3.189143e+01
4.823271e+02	-3.194119e+01
4.851130e+02	-3.200155e+01
4.879150e+02	-3.204774e+01
4.907332e+02	-3.209846e+01
4.935676e+02	-3.215122e+01
4.964185e+02	-3.219830e+01
4.992858e+02	-3.224357e+01
5.021696e+02	-3.229228e+01
5.050701e+02	-3.234458e+01
5.079874e+02	-3.240148e+01
5.109215e+02	-3.244811e+01
5.138726e+02	-3.250483e+01
5.168407e+02	-3.254164e+01
5.198259e+02	-3.259943e+01
5.228284e+02	-3.264568e+01
5.258482e+02	-3.270285e+01
5.288855e+02	-3.274614e+01
5.319403e+02	-3.279919e+01
5.350128e+02	-3.285282e+01
5.381030e+02	-3.290259e+01
5.412111e+02	-3.294918e+01
5.443371e+02	-3.298770e+01
5.474812e+02	-3.304642e+01
5.506434e+02	-3.310346e+01
5.538239e+02	-3.314314e+01
5.570228e+02	-3.320407e+01
5.602401e+02	-3.324315e+01
5.634760e+02	-3.330405e+01
5.667306e+02	-3.334964e+01
5.700040e+02	-3.340119e+01
5.732964e+02	-3.345417e+01
5.766077e+02	-3.350613e+01
5.799382e+02	-3.355681e+01
5.832879e+02	-3.360074e+01
5.866569e+02	-3.365591e+01
5.900454e+02	-3.370168e+01
5.934535e+02	-3.375932e+01
5.968813e+02	-3.380760e+01
6.003288e+02	-3.384286e+01
6.037963e+02	-3.390698e+01
6.072838e+02	-3.395441e+01
6.107914e+02	-3.400099e+01
6.143194e+02	-3.405684e+01
6.178676e+02	-3.411187e+01
6.214364e+02	-3.415489e+01
6.250258e+02	-3.420449e+01
6.286359e+02	-3.425267e+01
6.322669e+02	-3.430458e+01
6.359189e+02	-3.435974e+01
6.395919e+02	-3.441739e+01
6.432862e+02	-3.445628e+01
6.470017e+02	-3.451122e+01
6.507388e+02	-3.456037e+01
6.544974e+02	-3.461021e+01
6.582778e+02	-3.465971e+01
6.620800e+02	-3.471259e+01
6.659041e+02	-3.476124e+01
6.697504e+02	-3.481303e+01
6.736188e+02	-3.485762e+01
6.775096e+02	-3.490269e+01
6.814229e+02	-3.495250e+01
6.853587e+02	-3.501348e+01
6.893173e+02	-3.506509e+01
6.932988e+02	-3.511977e+01
6.973033e+02	-3.516595e+01
7.013309e+02	-3.520877e+01
