Frequency(Hz)	Magnitude(dB)
1.000000e+01	-2.070875e+00
1.005776e+01	-2.089832e+00
1.011585e+01	-2.109095e+00
1.017428e+01	-2.128275e+00
1.023305e+01	-2.147861e+00
1.029215e+01	-2.167502e+00
1.035160e+01	-2.187070e+00
1.041139e+01	-2.207092e+00
1.047153e+01	-2.227107e+00
1.053201e+01	-2.247140e+00
1.059284e+01	-2.267493e+00
1.065403e+01	-2.287653e+00
1.071556e+01	-2.308227e+00
1.077746e+01	-2.329030e+00
1.083971e+01	-2.350156e+00
1.090232e+01	-2.370817e+00
1.096529e+01	-2.392112e+00
1.102862e+01	-2.413174e+00
1.109232e+01	-2.434486e+00
1.115639e+01	-2.456250e+00
1.122083e+01	-2.477969e+00
1.128564e+01	-2.499792e+00
1.135083e+01	-2.521667e+00
1.141639e+01	-2.543573e+00
1.148233e+01	-2.566021e+00
1.154865e+01	-2.588326e+00
1.161536e+01	-2.610895e+00
1.168245e+01	-2.633697e+00
1.174992e+01	-2.656460e+00
1.181779e+01	-2.679550e+00
1.188605e+01	-2.702521e+00
1.195470e+01	-2.725915e+00
1.202375e+01	-2.749237e+00
1.209320e+01	-2.772634e+00
1.216305e+01	-2.796387e+00
1.223330e+01	-2.820176e+00
1.230396e+01	-2.843771e+00
1.237503e+01	-2.868263e+00
1.244651e+01	-2.892462e+00
1.251840e+01	-2.917006e+00
1.259070e+01	-2.941509e+00
1.266343e+01	-2.966294e+00
1.273657e+01	-2.990903e+00
1.281014e+01	-3.016238e+00
1.288413e+01	-3.041065e+00
1.295855e+01	-3.066369e+00
1.303339e+01	-3.091515e+00
1.310867e+01	-3.117099e+00
1.318439e+01	-3.143020e+00
1.326054e+01	-3.168806e+00
1.333713e+01	-3.194837e+00
1.341417e+01	-3.220997e+00
1.349165e+01	-3.247256e+00
1.356958e+01	-3.273757e+00
1.364795e+01	-3.300149e+00
1.372678e+01	-3.326963e+00
1.380607e+01	-3.353694e+00
1.388581e+01	-3.380542e+00
1.396602e+01	-3.407996e+00
1.404668e+01	-3.435204e+00
1.412782e+01	-3.462507e+00
1.420942e+01	-3.490082e+00
1.429149e+01	-3.517757e+00
1.437404e+01	-3.545639e+00
1.445706e+01	-3.573627e+00
1.454057e+01	-3.601784e+00
1.462455e+01	-3.629862e+00
1.470902e+01	-3.658228e+00
1.479398e+01	-3.686814e+00
1.487943e+01	-3.715710e+00
1.496537e+01	-3.744352e+00
1.505181e+01	-3.773632e+00
1.513875e+01	-3.802584e+00
1.522619e+01	-3.831740e+00
1.531414e+01	-3.861319e+00
1.540259e+01	-3.890632e+00
1.549156e+01	-3.920271e+00
1.558103e+01	-3.949979e+00
1.567103e+01	-3.980251e+00
1.576155e+01	-4.010279e+00
1.585258e+01	-4.040653e+00
1.594415e+01	-4.070527e+00
1.603624e+01	-4.101082e+00
1.612886e+01	-4.132081e+00
1.622202e+01	-4.162457e+00
1.631572e+01	-4.193627e+00
1.640996e+01	-4.224767e+00
1.650474e+01	-4.255804e+00
1.660008e+01	-4.287294e+00
1.669596e+01	-4.318648e+00
1.679239e+01	-4.349953e+00
1.688938e+01	-4.381946e+00
1.698694e+01	-4.413650e+00
1.708505e+01	-4.445881e+00
1.718373e+01	-4.477845e+00
1.728299e+01	-4.509951e+00
1.738281e+01	-4.542488e+00
1.748322e+01	-4.574990e+00
1.758420e+01	-4.607614e+00
1.768576e+01	-4.640471e+00
1.778792e+01	-4.673289e+00
1.789066e+01	-4.706373e+00
1.799399e+01	-4.739717e+00
1.809793e+01	-4.772887e+00
1.820246e+01	-4.806350e+00
1.830760e+01	-4.839854e+00
1.841334e+01	-4.873413e+00
1.851969e+01	-4.906968e+00
1.862666e+01	-4.941234e+00
1.873425e+01	-4.975305e+00
1.884246e+01	-5.009427e+00
1.895129e+01	-5.043875e+00
1.906075e+01	-5.078131e+00
1.917085e+01	-5.112485e+00
1.928158e+01	-5.147624e+00
1.939295e+01	-5.182387e+00
1.950496e+01	-5.217239e+00
1.961762e+01	-5.252228e+00
1.973093e+01	-5.286984e+00
1.984490e+01	-5.322579e+00
1.995952e+01	-5.357922e+00
2.007480e+01	-5.393556e+00
2.019076e+01	-5.429114e+00
2.030738e+01	-5.465100e+00
2.042467e+01	-5.500652e+00
2.054264e+01	-5.536766e+00
2.066130e+01	-5.572858e+00
2.078064e+01	-5.609416e+00
2.090066e+01	-5.645655e+00
2.102139e+01	-5.681791e+00
2.114280e+01	-5.718176e+00
2.126492e+01	-5.754895e+00
2.138775e+01	-5.791470e+00
2.151128e+01	-5.828954e+00
2.163553e+01	-5.865637e+00
2.176050e+01	-5.902839e+00
2.188619e+01	-5.939892e+00
2.201260e+01	-5.977450e+00
2.213974e+01	-6.014897e+00
2.226762e+01	-6.052519e+00
2.239624e+01	-6.090277e+00
2.252560e+01	-6.127477e+00
2.265571e+01	-6.165796e+00
2.278656e+01	-6.204000e+00
2.291818e+01	-6.241629e+00
2.305055e+01	-6.280282e+00
2.318369e+01	-6.318737e+00
2.331760e+01	-6.356672e+00
2.345228e+01	-6.395172e+00
2.358774e+01	-6.433889e+00
2.372398e+01	-6.472736e+00
2.386101e+01	-6.511065e+00
2.399883e+01	-6.550277e+00
2.413745e+01	-6.589020e+00
2.427686e+01	-6.628259e+00
2.441709e+01	-6.666948e+00
2.455812e+01	-6.706725e+00
2.469997e+01	-6.746336e+00
2.484263e+01	-6.785587e+00
2.498612e+01	-6.825203e+00
2.513044e+01	-6.864941e+00
2.527559e+01	-6.904752e+00
2.542158e+01	-6.944608e+00
2.556842e+01	-6.984550e+00
2.571610e+01	-7.024581e+00
2.586463e+01	-7.064671e+00
2.601403e+01	-7.105041e+00
2.616428e+01	-7.145551e+00
2.631541e+01	-7.186125e+00
2.646740e+01	-7.226537e+00
2.662028e+01	-7.266806e+00
2.677404e+01	-7.307280e+00
2.692868e+01	-7.348650e+00
2.708422e+01	-7.388964e+00
2.724066e+01	-7.429981e+00
2.739800e+01	-7.471292e+00
2.755625e+01	-7.512570e+00
2.771541e+01	-7.553450e+00
2.787550e+01	-7.594794e+00
2.803650e+01	-7.636317e+00
2.819844e+01	-7.677268e+00
2.836131e+01	-7.718885e+00
2.852513e+01	-7.760712e+00
2.868989e+01	-7.802334e+00
2.885560e+01	-7.844444e+00
2.902227e+01	-7.886056e+00
2.918990e+01	-7.928307e+00
2.935850e+01	-7.970059e+00
2.952807e+01	-8.012115e+00
2.969863e+01	-8.054299e+00
2.987016e+01	-8.096270e+00
3.004269e+01	-8.138459e+00
3.021622e+01	-8.180680e+00
3.039075e+01	-8.223739e+00
3.056628e+01	-8.266128e+00
3.074283e+01	-8.308820e+00
3.092040e+01	-8.351382e+00
3.109900e+01	-8.393893e+00
3.127862e+01	-8.436903e+00
3.145929e+01	-8.479463e+00
3.164099e+01	-8.523039e+00
3.182375e+01	-8.565902e+00
3.200756e+01	-8.608705e+00
3.219244e+01	-8.652234e+00
3.237838e+01	-8.695166e+00
3.256540e+01	-8.738685e+00
3.275349e+01	-8.782023e+00
3.294268e+01	-8.825447e+00
3.313295e+01	-8.868763e+00
3.332433e+01	-8.912722e+00
3.351681e+01	-8.956208e+00
3.371040e+01	-8.999734e+00
3.390511e+01	-9.043805e+00
3.410094e+01	-9.087289e+00
3.429791e+01	-9.131570e+00
3.449601e+01	-9.175014e+00
3.469526e+01	-9.219335e+00
3.489566e+01	-9.263813e+00
3.509721e+01	-9.307570e+00
3.529993e+01	-9.351751e+00
3.550382e+01	-9.396627e+00
3.570889e+01	-9.439782e+00
3.591515e+01	-9.484679e+00
3.612259e+01	-9.528324e+00
3.633123e+01	-9.573461e+00
3.654108e+01	-9.618180e+00
3.675214e+01	-9.663057e+00
3.696442e+01	-9.706783e+00
3.717792e+01	-9.751259e+00
3.739266e+01	-9.797145e+00
3.760864e+01	-9.841833e+00
3.782587e+01	-9.886517e+00
3.804435e+01	-9.931697e+00
3.826409e+01	-9.976098e+00
3.848510e+01	-1.002111e+01
3.870739e+01	-1.006639e+01
3.893096e+01	-1.011176e+01
3.915583e+01	-1.015648e+01
3.938199e+01	-1.020193e+01
3.960946e+01	-1.024715e+01
3.983824e+01	-1.029235e+01
4.006834e+01	-1.033841e+01
4.029978e+01	-1.038376e+01
4.053255e+01	-1.042892e+01
4.076666e+01	-1.047437e+01
4.100213e+01	-1.051980e+01
4.123896e+01	-1.056559e+01
4.147715e+01	-1.061159e+01
4.171672e+01	-1.065652e+01
4.195767e+01	-1.070192e+01
4.220002e+01	-1.074808e+01
4.244377e+01	-1.079430e+01
4.268892e+01	-1.084020e+01
4.293549e+01	-1.088652e+01
4.318348e+01	-1.093217e+01
4.343291e+01	-1.097812e+01
4.368377e+01	-1.102399e+01
4.393609e+01	-1.107069e+01
4.418986e+01	-1.111655e+01
4.444510e+01	-1.116207e+01
4.470182e+01	-1.120857e+01
4.496001e+01	-1.125486e+01
4.521970e+01	-1.130128e+01
4.548089e+01	-1.134772e+01
4.574358e+01	-1.139461e+01
4.600779e+01	-1.144071e+01
4.627353e+01	-1.148662e+01
4.654081e+01	-1.153365e+01
4.680963e+01	-1.157972e+01
4.708000e+01	-1.162658e+01
4.735193e+01	-1.167318e+01
4.762543e+01	-1.172002e+01
4.790051e+01	-1.176628e+01
4.817719e+01	-1.181332e+01
4.845545e+01	-1.185983e+01
4.873533e+01	-1.190647e+01
4.901682e+01	-1.195296e+01
4.929994e+01	-1.200048e+01
4.958470e+01	-1.204744e+01
4.987110e+01	-1.209416e+01
5.015915e+01	-1.214126e+01
5.044887e+01	-1.218834e+01
5.074026e+01	-1.223498e+01
5.103333e+01	-1.228234e+01
5.132810e+01	-1.232918e+01
5.162457e+01	-1.237663e+01
5.192275e+01	-1.242325e+01
5.222265e+01	-1.247015e+01
5.252429e+01	-1.251775e+01
5.282767e+01	-1.256513e+01
5.313280e+01	-1.261204e+01
5.343969e+01	-1.265936e+01
5.374836e+01	-1.270721e+01
5.405880e+01	-1.275390e+01
5.437105e+01	-1.280158e+01
5.468509e+01	-1.284920e+01
5.500095e+01	-1.289620e+01
5.531863e+01	-1.294355e+01
5.563815e+01	-1.299133e+01
5.595951e+01	-1.303864e+01
5.628273e+01	-1.308619e+01
5.660782e+01	-1.313400e+01
5.693479e+01	-1.318194e+01
5.726364e+01	-1.322871e+01
5.759439e+01	-1.327695e+01
5.792705e+01	-1.332464e+01
5.826164e+01	-1.337214e+01
5.859815e+01	-1.342047e+01
5.893662e+01	-1.346801e+01
5.927703e+01	-1.351571e+01
5.961941e+01	-1.356383e+01
5.996377e+01	-1.361145e+01
6.031012e+01	-1.365916e+01
6.065847e+01	-1.370704e+01
6.100883e+01	-1.375435e+01
6.136121e+01	-1.380299e+01
6.171563e+01	-1.385081e+01
6.207210e+01	-1.389944e+01
6.243063e+01	-1.394747e+01
6.279122e+01	-1.399486e+01
6.315390e+01	-1.404335e+01
6.351868e+01	-1.409024e+01
6.388556e+01	-1.413884e+01
6.425456e+01	-1.418742e+01
6.462569e+01	-1.423491e+01
6.499897e+01	-1.428365e+01
6.537440e+01	-1.433122e+01
6.575200e+01	-1.437919e+01
6.613178e+01	-1.442791e+01
6.651375e+01	-1.447564e+01
6.689793e+01	-1.452471e+01
6.728433e+01	-1.457294e+01
6.767297e+01	-1.462128e+01
6.806384e+01	-1.466943e+01
6.845698e+01	-1.471761e+01
6.885238e+01	-1.476655e+01
6.925007e+01	-1.481373e+01
6.965005e+01	-1.486222e+01
7.005235e+01	-1.491084e+01
7.045697e+01	-1.496005e+01
7.086393e+01	-1.500823e+01
7.127323e+01	-1.505664e+01
7.168490e+01	-1.510464e+01
7.209895e+01	-1.515313e+01
7.251539e+01	-1.520158e+01
7.293424e+01	-1.525103e+01
7.335551e+01	-1.529870e+01
7.377920e+01	-1.534750e+01
7.420535e+01	-1.539607e+01
7.463396e+01	-1.544490e+01
7.506504e+01	-1.549317e+01
7.549861e+01	-1.554217e+01
7.593469e+01	-1.559130e+01
7.637328e+01	-1.563897e+01
7.681441e+01	-1.568881e+01
7.725809e+01	-1.573677e+01
7.770433e+01	-1.578652e+01
7.815315e+01	-1.583426e+01
7.860456e+01	-1.588250e+01
7.905857e+01	-1.593208e+01
7.951521e+01	-1.597994e+01
7.997449e+01	-1.602895e+01
8.043642e+01	-1.607858e+01
8.090102e+01	-1.612722e+01
8.136830e+01	-1.617650e+01
8.183828e+01	-1.622459e+01
8.231097e+01	-1.627327e+01
8.278640e+01	-1.632236e+01
8.326457e+01	-1.637184e+01
8.374550e+01	-1.641996e+01
8.422921e+01	-1.646928e+01
8.471572e+01	-1.651751e+01
8.520503e+01	-1.656510e+01
8.569717e+01	-1.661517e+01
8.619215e+01	-1.666431e+01
8.669000e+01	-1.671382e+01
8.719071e+01	-1.676217e+01
8.769432e+01	-1.681152e+01
8.820084e+01	-1.685974e+01
8.871029e+01	-1.690917e+01
8.922267e+01	-1.695846e+01
8.973802e+01	-1.700772e+01
9.025634e+01	-1.705637e+01
9.077766e+01	-1.710522e+01
9.130199e+01	-1.715491e+01
9.182935e+01	-1.720358e+01
9.235975e+01	-1.725360e+01
9.289321e+01	-1.730255e+01
9.342976e+01	-1.735066e+01
9.396941e+01	-1.739969e+01
9.451217e+01	-1.745007e+01
9.505807e+01	-1.749922e+01
9.560712e+01	-1.754810e+01
9.615934e+01	-1.759694e+01
9.671476e+01	-1.764503e+01
9.727338e+01	-1.769528e+01
9.783522e+01	-1.774409e+01
9.840032e+01	-1.779307e+01
9.896867e+01	-1.784378e+01
9.954031e+01	-1.789216e+01
1.001153e+02	-1.794219e+01
1.006935e+02	-1.799056e+01
1.012751e+02	-1.803903e+01
1.018601e+02	-1.808962e+01
1.024484e+02	-1.813777e+01
1.030402e+02	-1.818733e+01
1.036353e+02	-1.823672e+01
1.042339e+02	-1.828725e+01
1.048360e+02	-1.833560e+01
1.054415e+02	-1.838485e+01
1.060505e+02	-1.843482e+01
1.066631e+02	-1.848345e+01
1.072791e+02	-1.853242e+01
1.078988e+02	-1.858175e+01
1.085220e+02	-1.863195e+01
1.091488e+02	-1.868128e+01
1.097793e+02	-1.873083e+01
1.104133e+02	-1.877913e+01
1.110511e+02	-1.882903e+01
1.116925e+02	-1.887691e+01
1.123376e+02	-1.892833e+01
1.129865e+02	-1.897610e+01
1.136391e+02	-1.902613e+01
1.142955e+02	-1.907522e+01
1.149556e+02	-1.912708e+01
1.156196e+02	-1.917545e+01
1.162874e+02	-1.922481e+01
1.169591e+02	-1.927412e+01
1.176347e+02	-1.932277e+01
1.183141e+02	-1.937312e+01
1.189975e+02	-1.942163e+01
1.196848e+02	-1.947089e+01
1.203761e+02	-1.951968e+01
1.210714e+02	-1.956922e+01
1.217707e+02	-1.962052e+01
1.224740e+02	-1.966884e+01
1.231814e+02	-1.971791e+01
1.238929e+02	-1.976874e+01
1.246085e+02	-1.981736e+01
1.253283e+02	-1.986706e+01
1.260522e+02	-1.991722e+01
1.267802e+02	-1.996777e+01
1.275125e+02	-2.001567e+01
1.282490e+02	-2.006530e+01
1.289898e+02	-2.011447e+01
1.297348e+02	-2.016461e+01
1.304842e+02	-2.021406e+01
1.312378e+02	-2.026398e+01
1.319959e+02	-2.031346e+01
1.327583e+02	-2.036248e+01
1.335251e+02	-2.041147e+01
1.342963e+02	-2.046224e+01
1.350720e+02	-2.051124e+01
1.358522e+02	-2.056042e+01
1.366368e+02	-2.060984e+01
1.374260e+02	-2.065963e+01
1.382198e+02	-2.071019e+01
1.390182e+02	-2.075928e+01
1.398211e+02	-2.081012e+01
1.406287e+02	-2.085805e+01
1.414410e+02	-2.090915e+01
1.422579e+02	-2.095843e+01
1.430796e+02	-2.100839e+01
1.439060e+02	-2.105800e+01
1.447372e+02	-2.110777e+01
1.455732e+02	-2.115588e+01
1.464141e+02	-2.120680e+01
1.472597e+02	-2.125479e+01
1.481103e+02	-2.130631e+01
1.489658e+02	-2.135600e+01
1.498262e+02	-2.140826e+01
1.506916e+02	-2.145350e+01
1.515620e+02	-2.150556e+01
1.524374e+02	-2.155488e+01
1.533179e+02	-2.160458e+01
1.542034e+02	-2.165441e+01
1.550941e+02	-2.170485e+01
1.559899e+02	-2.175326e+01
1.568909e+02	-2.180446e+01
1.577971e+02	-2.185355e+01
1.587085e+02	-2.190301e+01
1.596252e+02	-2.195134e+01
1.605472e+02	-2.200066e+01
1.614745e+02	-2.205050e+01
1.624072e+02	-2.210106e+01
1.633453e+02	-2.214953e+01
1.642887e+02	-2.220160e+01
1.652377e+02	-2.224790e+01
1.661921e+02	-2.230042e+01
1.671520e+02	-2.234902e+01
1.681175e+02	-2.239980e+01
1.690885e+02	-2.245093e+01
1.700651e+02	-2.249838e+01
1.710474e+02	-2.254772e+01
1.720354e+02	-2.260010e+01
1.730291e+02	-2.264627e+01
1.740285e+02	-2.269870e+01
1.750337e+02	-2.274870e+01
1.760446e+02	-2.279740e+01
1.770615e+02	-2.284690e+01
1.780842e+02	-2.289766e+01
1.791128e+02	-2.294730e+01
1.801473e+02	-2.299598e+01
1.811878e+02	-2.304816e+01
1.822344e+02	-2.309615e+01
1.832870e+02	-2.314508e+01
1.843456e+02	-2.319727e+01
1.854104e+02	-2.324677e+01
1.864813e+02	-2.329525e+01
1.875584e+02	-2.334535e+01
1.886418e+02	-2.339265e+01
1.897313e+02	-2.344450e+01
1.908272e+02	-2.349462e+01
1.919294e+02	-2.354460e+01
1.930380e+02	-2.359423e+01
1.941530e+02	-2.364619e+01
1.952744e+02	-2.369583e+01
1.964023e+02	-2.374570e+01
1.975367e+02	-2.379585e+01
1.986777e+02	-2.384541e+01
1.998252e+02	-2.389326e+01
2.009794e+02	-2.394490e+01
2.021403e+02	-2.399320e+01
2.033078e+02	-2.404223e+01
2.044821e+02	-2.409254e+01
2.056632e+02	-2.414428e+01
2.068511e+02	-2.419227e+01
2.080459e+02	-2.424124e+01
2.092475e+02	-2.429305e+01
2.104561e+02	-2.434266e+01
2.116717e+02	-2.439008e+01
2.128943e+02	-2.444204e+01
2.141240e+02	-2.449261e+01
2.153608e+02	-2.454303e+01
2.166047e+02	-2.459299e+01
2.178558e+02	-2.464109e+01
2.191141e+02	-2.469227e+01
2.203797e+02	-2.474086e+01
2.216526e+02	-2.479263e+01
2.229329e+02	-2.483911e+01
2.242205e+02	-2.489065e+01
2.255156e+02	-2.494084e+01
2.268182e+02	-2.499040e+01
2.281283e+02	-2.504335e+01
2.294459e+02	-2.509008e+01
2.307712e+02	-2.514132e+01
2.321041e+02	-2.519274e+01
2.334447e+02	-2.524211e+01
2.347931e+02	-2.529030e+01
2.361493e+02	-2.533817e+01
2.375133e+02	-2.539298e+01
2.388851e+02	-2.544004e+01
2.402649e+02	-2.549154e+01
2.416527e+02	-2.554083e+01
2.430484e+02	-2.559093e+01
2.444523e+02	-2.563936e+01
2.458642e+02	-2.568952e+01
2.472843e+02	-2.573919e+01
2.487126e+02	-2.578992e+01
2.501492e+02	-2.583918e+01
2.515940e+02	-2.588909e+01
2.530472e+02	-2.594044e+01
2.545088e+02	-2.598962e+01
2.559789e+02	-2.603857e+01
2.574574e+02	-2.608825e+01
2.589444e+02	-2.613886e+01
2.604401e+02	-2.619329e+01
2.619444e+02	-2.623823e+01
2.634574e+02	-2.628638e+01
2.649791e+02	-2.634137e+01
2.665096e+02	-2.639073e+01
2.680489e+02	-2.643679e+01
2.695972e+02	-2.649405e+01
2.711544e+02	-2.654201e+01
2.727205e+02	-2.659013e+01
2.742958e+02	-2.664161e+01
2.758801e+02	-2.669056e+01
2.774736e+02	-2.673910e+01
2.790762e+02	-2.679117e+01
2.806882e+02	-2.683935e+01
2.823094e+02	-2.688862e+01
2.839400e+02	-2.693913e+01
2.855800e+02	-2.699152e+01
2.872295e+02	-2.703640e+01
2.888886e+02	-2.708792e+01
2.905572e+02	-2.713681e+01
2.922354e+02	-2.718612e+01
2.939234e+02	-2.723814e+01
2.956211e+02	-2.728840e+01
2.973286e+02	-2.733939e+01
2.990459e+02	-2.739136e+01
3.007732e+02	-2.743730e+01
3.025104e+02	-2.748814e+01
3.042577e+02	-2.754111e+01
3.060151e+02	-2.759046e+01
3.077826e+02	-2.764058e+01
3.095604e+02	-2.768863e+01
3.113484e+02	-2.773771e+01
3.131467e+02	-2.779199e+01
3.149554e+02	-2.784277e+01
3.167746e+02	-2.788772e+01
3.186043e+02	-2.793901e+01
3.204445e+02	-2.799264e+01
3.222954e+02	-2.803859e+01
3.241570e+02	-2.809076e+01
3.260293e+02	-2.814115e+01
3.279124e+02	-2.818812e+01
3.298064e+02	-2.824152e+01
3.317114e+02	-2.829038e+01
3.336273e+02	-2.833909e+01
3.355544e+02	-2.838548e+01
3.374925e+02	-2.843910e+01
3.394418e+02	-2.849128e+01
3.414024e+02	-2.853735e+01
3.433744e+02	-2.859007e+01
3.453577e+02	-2.864103e+01
3.473525e+02	-2.869277e+01
3.493588e+02	-2.874266e+01
3.513766e+02	-2.879114e+01
3.534062e+02	-2.884115e+01
3.554474e+02	-2.889176e+01
3.575005e+02	-2.894059e+01
3.595654e+02	-2.898717e+01
3.616422e+02	-2.903842e+01
3.637311e+02	-2.908922e+01
3.658320e+02	-2.913881e+01
3.679450e+02	-2.918673e+01
3.700702e+02	-2.924382e+01
3.722077e+02	-2.928714e+01
3.743576e+02	-2.933924e+01
3.765199e+02	-2.939164e+01
3.786946e+02	-2.944088e+01
3.808820e+02	-2.949123e+01
3.830819e+02	-2.954102e+01
3.852946e+02	-2.959023e+01
3.875200e+02	-2.964440e+01
3.897583e+02	-2.969239e+01
3.920096e+02	-2.973999e+01
3.942738e+02	-2.978713e+01
3.965511e+02	-2.984397e+01
3.988416e+02	-2.989196e+01
4.011452e+02	-2.994485e+01
4.034622e+02	-2.999411e+01
4.057926e+02	-3.004076e+01
4.081365e+02	-3.009082e+01
4.104938e+02	-3.014531e+01
4.128648e+02	-3.019047e+01
4.152495e+02	-3.024351e+01
4.176480e+02	-3.029424e+01
4.200603e+02	-3.034128e+01
4.224866e+02	-3.039714e+01
4.249268e+02	-3.044362e+01
4.273812e+02	-3.049128e+01
4.298497e+02	-3.054718e+01
4.323325e+02	-3.059706e+01
4.348297e+02	-3.064316e+01
4.373412e+02	-3.069133e+01
4.398673e+02	-3.073654e+01
4.424079e+02	-3.079317e+01
4.449633e+02	-3.084866e+01
4.475334e+02	-3.089345e+01
4.501183e+02	-3.094678e+01
4.527182e+02	-3.099835e+01
4.553330e+02	-3.104568e+01
4.579630e+02	-3.109515e+01
4.606082e+02	-3.114169e+01
4.632687e+02	-3.119044e+01
4.659445e+02	-3.124090e+01
4.686358e+02	-3.129128e+01
4.713426e+02	-3.134614e+01
4.740650e+02	-3.139664e+01
4.768032e+02	-3.144425e+01
4.795572e+02	-3.149654e+01
4.823271e+02	-3.154541e+01
4.851130e+02	-3.159094e+01
4.879150e+02	-3.164717e+01
4.907332e+02	-3.170222e+01
4.935676e+02	-3.175033e+01
4.964185e+02	-3.180232e+01
4.992858e+02	-3.184568e+01
5.021696e+02	-3.190272e+01
5.050701e+02	-3.194938e+01
5.079874e+02	-3.200251e+01
5.109215e+02	-3.204453e+01
5.138726e+02	-3.209527e+01
5.168407e+02	-3.214548e+01
5.198259e+02	-3.219961e+01
5.228284e+02	-3.225309e+01
5.258482e+02	-3.229375e+01
5.288855e+02	-3.235079e+01
5.319403e+02	-3.239537e+01
5.350128e+02	-3.244941e+01
5.381030e+02	-3.250296e+01
5.412111e+02	-3.255450e+01
5.443371e+02	-3.260351e+01
5.474812e+02	-3.265399e+01
5.506434e+02	-3.270400e+01
5.538239e+02	-3.275465e+01
5.570228e+02	-3.280411e+01
5.602401e+02	-3.285070e+01
5.634760e+02	-3.290233e+01
5.667306e+02	-3.294948e+01
5.700040e+02	-3.300360e+01
5.732964e+02	-3.305360e+01
5.766077e+02	-3.311309e+01
5.799382e+02	-3.314736e+01
5.832879e+02	-3.320821e+01
5.866569e+02	-3.325012e+01
5.900454e+02	-3.330377e+01
5.934535e+02	-3.335732e+01
5.968813e+02	-3.340059e+01
6.003288e+02	-3.345377e+01
6.037963e+02	-3.350435e+01
6.072838e+02	-3.355799e+01
6.107914e+02	-3.360728e+01
6.143194e+02	-3.365232e+01
6.178676e+02	-3.370536e+01
6.214364e+02	-3.375644e+01
6.250258e+02	-3.380838e+01
6.286359e+02	-3.386456e+01
6.322669e+02	-3.391850e+01
6.359189e+02	-3.396844e+01
6.395919e+02	-3.401035e+01
6.432862e+02	-3.405737e+01
6.470017e+02	-3.410498e+01
6.507388e+02	-3.416315e+01
6.544974e+02	-3.421622e+01
6.582778e+02	-3.425847e+01
6.620800e+02	-3.431264e+01
6.659041e+02	-3.435846e+01
6.697504e+02	-3.441936e+01
6.736188e+02	-3.446163e+01
6.775096e+02	-3.450589e+01
6.814229e+02	-3.455974e+01
6.853587e+02	-3.461333e+01
6.893173e+02	-3.465904e+01
6.932988e+02	-3.471075e+01
6.973033e+02	-3.477305e+01
7.013309e+02	-3.481580e+01
