Frequency(Hz)	Magnitude(dB)
1.000000e+01	-2.059160e+00
1.005776e+01	-2.077977e+00
1.011585e+01	-2.097143e+00
1.017428e+01	-2.116318e+00
1.023305e+01	-2.135946e+00
1.029215e+01	-2.155473e+00
1.035160e+01	-2.174769e+00
1.041139e+01	-2.194827e+00
1.047153e+01	-2.214707e+00
1.053201e+01	-2.234759e+00
1.059284e+01	-2.254652e+00
1.065403e+01	-2.275108e+00
1.071556e+01	-2.295506e+00
1.077746e+01	-2.316171e+00
1.083971e+01	-2.336871e+00
1.090232e+01	-2.357869e+00
1.096529e+01	-2.378989e+00
1.102862e+01	-2.400113e+00
1.109232e+01	-2.421581e+00
1.115639e+01	-2.442717e+00
1.122083e+01	-2.464495e+00
1.128564e+01	-2.486300e+00
1.135083e+01	-2.508066e+00
1.141639e+01	-2.530126e+00
1.148233e+01	-2.552170e+00
1.154865e+01	-2.574549e+00
1.161536e+01	-2.596913e+00
1.168245e+01	-2.619435e+00
1.174992e+01	-2.642455e+00
1.181779e+01	-2.665061e+00
1.188605e+01	-2.688231e+00
1.195470e+01	-2.711464e+00
1.202375e+01	-2.734862e+00
1.209320e+01	-2.757867e+00
1.216305e+01	-2.781558e+00
1.223330e+01	-2.805478e+00
1.230396e+01	-2.829296e+00
1.237503e+01	-2.853252e+00
1.244651e+01	-2.877592e+00
1.251840e+01	-2.901764e+00
1.259070e+01	-2.926189e+00
1.266343e+01	-2.950672e+00
1.273657e+01	-2.975664e+00
1.281014e+01	-3.000445e+00
1.288413e+01	-3.025557e+00
1.295855e+01	-3.050740e+00
1.303339e+01	-3.075952e+00
1.310867e+01	-3.101374e+00
1.318439e+01	-3.127125e+00
1.326054e+01	-3.152768e+00
1.333713e+01	-3.178620e+00
1.341417e+01	-3.204465e+00
1.349165e+01	-3.230965e+00
1.356958e+01	-3.257363e+00
1.364795e+01	-3.283848e+00
1.372678e+01	-3.310321e+00
1.380607e+01	-3.337071e+00
1.388581e+01	-3.363976e+00
1.396602e+01	-3.391051e+00
1.404668e+01	-3.417916e+00
1.412782e+01	-3.445647e+00
1.420942e+01	-3.472885e+00
1.429149e+01	-3.500424e+00
1.437404e+01	-3.528317e+00
1.445706e+01	-3.556327e+00
1.454057e+01	-3.584358e+00
1.462455e+01	-3.612651e+00
1.470902e+01	-3.640768e+00
1.479398e+01	-3.669085e+00
1.487943e+01	-3.697903e+00
1.496537e+01	-3.726754e+00
1.505181e+01	-3.755506e+00
1.513875e+01	-3.784350e+00
1.522619e+01	-3.813615e+00
1.531414e+01	-3.842866e+00
1.540259e+01	-3.872336e+00
1.549156e+01	-3.902025e+00
1.558103e+01	-3.931766e+00
1.567103e+01	-3.961598e+00
1.576155e+01	-3.991715e+00
1.585258e+01	-4.021714e+00
1.594415e+01	-4.052144e+00
1.603624e+01	-4.082680e+00
1.612886e+01	-4.112862e+00
1.622202e+01	-4.143664e+00
1.631572e+01	-4.174494e+00
1.640996e+01	-4.205381e+00
1.650474e+01	-4.236484e+00
1.660008e+01	-4.267899e+00
1.669596e+01	-4.299232e+00
1.679239e+01	-4.330771e+00
1.688938e+01	-4.362509e+00
1.698694e+01	-4.394221e+00
1.708505e+01	-4.425905e+00
1.718373e+01	-4.458189e+00
1.728299e+01	-4.490041e+00
1.738281e+01	-4.522502e+00
1.748322e+01	-4.554778e+00
1.758420e+01	-4.587463e+00
1.768576e+01	-4.620246e+00
1.778792e+01	-4.652953e+00
1.789066e+01	-4.685952e+00
1.799399e+01	-4.718841e+00
1.809793e+01	-4.752334e+00
1.820246e+01	-4.785751e+00
1.830760e+01	-4.819140e+00
1.841334e+01	-4.852528e+00
1.851969e+01	-4.886504e+00
1.862666e+01	-4.920176e+00
1.873425e+01	-4.954181e+00
1.884246e+01	-4.988302e+00
1.895129e+01	-5.022651e+00
1.906075e+01	-5.056953e+00
1.917085e+01	-5.091667e+00
1.928158e+01	-5.125999e+00
1.939295e+01	-5.160498e+00
1.950496e+01	-5.195653e+00
1.961762e+01	-5.230996e+00
1.973093e+01	-5.265556e+00
1.984490e+01	-5.300774e+00
1.995952e+01	-5.336005e+00
2.007480e+01	-5.371305e+00
2.019076e+01	-5.407169e+00
2.030738e+01	-5.442941e+00
2.042467e+01	-5.478546e+00
2.054264e+01	-5.514554e+00
2.066130e+01	-5.550726e+00
2.078064e+01	-5.586708e+00
2.090066e+01	-5.623068e+00
2.102139e+01	-5.659265e+00
2.114280e+01	-5.695669e+00
2.126492e+01	-5.732643e+00
2.138775e+01	-5.769145e+00
2.151128e+01	-5.806217e+00
2.163553e+01	-5.842951e+00
2.176050e+01	-5.880000e+00
2.188619e+01	-5.917175e+00
2.201260e+01	-5.954368e+00
2.213974e+01	-5.991956e+00
2.226762e+01	-6.029486e+00
2.239624e+01	-6.066923e+00
2.252560e+01	-6.104118e+00
2.265571e+01	-6.142304e+00
2.278656e+01	-6.180358e+00
2.291818e+01	-6.218382e+00
2.305055e+01	-6.256142e+00
2.318369e+01	-6.294803e+00
2.331760e+01	-6.332997e+00
2.345228e+01	-6.371579e+00
2.358774e+01	-6.409655e+00
2.372398e+01	-6.448852e+00
2.386101e+01	-6.487444e+00
2.399883e+01	-6.526110e+00
2.413745e+01	-6.565407e+00
2.427686e+01	-6.604396e+00
2.441709e+01	-6.643210e+00
2.455812e+01	-6.682765e+00
2.469997e+01	-6.721769e+00
2.484263e+01	-6.761235e+00
2.498612e+01	-6.800847e+00
2.513044e+01	-6.840576e+00
2.527559e+01	-6.880333e+00
2.542158e+01	-6.920174e+00
2.556842e+01	-6.959672e+00
2.571610e+01	-6.999544e+00
2.586463e+01	-7.039899e+00
2.601403e+01	-7.080484e+00
2.616428e+01	-7.120857e+00
2.631541e+01	-7.160814e+00
2.646740e+01	-7.201003e+00
2.662028e+01	-7.241653e+00
2.677404e+01	-7.282542e+00
2.692868e+01	-7.323205e+00
2.708422e+01	-7.363692e+00
2.724066e+01	-7.404941e+00
2.739800e+01	-7.446004e+00
2.755625e+01	-7.486987e+00
2.771541e+01	-7.527780e+00
2.787550e+01	-7.569169e+00
2.803650e+01	-7.610707e+00
2.819844e+01	-7.652074e+00
2.836131e+01	-7.693343e+00
2.852513e+01	-7.735333e+00
2.868989e+01	-7.777034e+00
2.885560e+01	-7.818709e+00
2.902227e+01	-7.860354e+00
2.918990e+01	-7.902134e+00
2.935850e+01	-7.943932e+00
2.952807e+01	-7.986059e+00
2.969863e+01	-8.027954e+00
2.987016e+01	-8.070666e+00
3.004269e+01	-8.112662e+00
3.021622e+01	-8.155138e+00
3.039075e+01	-8.197251e+00
3.056628e+01	-8.239805e+00
3.074283e+01	-8.282605e+00
3.092040e+01	-8.325399e+00
3.109900e+01	-8.367670e+00
3.127862e+01	-8.410562e+00
3.145929e+01	-8.453295e+00
3.164099e+01	-8.496185e+00
3.182375e+01	-8.539332e+00
3.200756e+01	-8.582287e+00
3.219244e+01	-8.625132e+00
3.237838e+01	-8.668346e+00
3.256540e+01	-8.712301e+00
3.275349e+01	-8.755064e+00
3.294268e+01	-8.798374e+00
3.313295e+01	-8.842174e+00
3.332433e+01	-8.885503e+00
3.351681e+01	-8.929432e+00
3.371040e+01	-8.972938e+00
3.390511e+01	-9.016651e+00
3.410094e+01	-9.060354e+00
3.429791e+01	-9.103939e+00
3.449601e+01	-9.148045e+00
3.469526e+01	-9.191995e+00
3.489566e+01	-9.236090e+00
3.509721e+01	-9.279754e+00
3.529993e+01	-9.324004e+00
3.550382e+01	-9.368444e+00
3.570889e+01	-9.412902e+00
3.591515e+01	-9.456855e+00
3.612259e+01	-9.501559e+00
3.633123e+01	-9.546376e+00
3.654108e+01	-9.590491e+00
3.675214e+01	-9.635197e+00
3.696442e+01	-9.679407e+00
3.717792e+01	-9.724099e+00
3.739266e+01	-9.769185e+00
3.760864e+01	-9.813650e+00
3.782587e+01	-9.858904e+00
3.804435e+01	-9.903999e+00
3.826409e+01	-9.948534e+00
3.848510e+01	-9.993417e+00
3.870739e+01	-1.003916e+01
3.893096e+01	-1.008399e+01
3.915583e+01	-1.012877e+01
3.938199e+01	-1.017408e+01
3.960946e+01	-1.021968e+01
3.983824e+01	-1.026430e+01
4.006834e+01	-1.030961e+01
4.029978e+01	-1.035517e+01
4.053255e+01	-1.040067e+01
4.076666e+01	-1.044646e+01
4.100213e+01	-1.049162e+01
4.123896e+01	-1.053694e+01
4.147715e+01	-1.058348e+01
4.171672e+01	-1.062910e+01
4.195767e+01	-1.067403e+01
4.220002e+01	-1.072002e+01
4.244377e+01	-1.076634e+01
4.268892e+01	-1.081177e+01
4.293549e+01	-1.085800e+01
4.318348e+01	-1.090375e+01
4.343291e+01	-1.094971e+01
4.368377e+01	-1.099567e+01
4.393609e+01	-1.104163e+01
4.418986e+01	-1.108709e+01
4.444510e+01	-1.113331e+01
4.470182e+01	-1.118029e+01
4.496001e+01	-1.122667e+01
4.521970e+01	-1.127260e+01
4.548089e+01	-1.131896e+01
4.574358e+01	-1.136525e+01
4.600779e+01	-1.141188e+01
4.627353e+01	-1.145786e+01
4.654081e+01	-1.150473e+01
4.680963e+01	-1.155106e+01
4.708000e+01	-1.159757e+01
4.735193e+01	-1.164479e+01
4.762543e+01	-1.169133e+01
4.790051e+01	-1.173722e+01
4.817719e+01	-1.178424e+01
4.845545e+01	-1.183108e+01
4.873533e+01	-1.187796e+01
4.901682e+01	-1.192404e+01
4.929994e+01	-1.197192e+01
4.958470e+01	-1.201822e+01
4.987110e+01	-1.206573e+01
5.015915e+01	-1.211194e+01
5.044887e+01	-1.215911e+01
5.074026e+01	-1.220635e+01
5.103333e+01	-1.225368e+01
5.132810e+01	-1.229971e+01
5.162457e+01	-1.234753e+01
5.192275e+01	-1.239453e+01
5.222265e+01	-1.244160e+01
5.252429e+01	-1.248895e+01
5.282767e+01	-1.253603e+01
5.313280e+01	-1.258326e+01
5.343969e+01	-1.263065e+01
5.374836e+01	-1.267778e+01
5.405880e+01	-1.272476e+01
5.437105e+01	-1.277208e+01
5.468509e+01	-1.282040e+01
5.500095e+01	-1.286748e+01
5.531863e+01	-1.291505e+01
5.563815e+01	-1.296232e+01
5.595951e+01	-1.301011e+01
5.628273e+01	-1.305725e+01
5.660782e+01	-1.310439e+01
5.693479e+01	-1.315299e+01
5.726364e+01	-1.320006e+01
5.759439e+01	-1.324760e+01
5.792705e+01	-1.329616e+01
5.826164e+01	-1.334242e+01
5.859815e+01	-1.339039e+01
5.893662e+01	-1.343799e+01
5.927703e+01	-1.348605e+01
5.961941e+01	-1.353439e+01
5.996377e+01	-1.358205e+01
6.031012e+01	-1.362908e+01
6.065847e+01	-1.367752e+01
6.100883e+01	-1.372539e+01
6.136121e+01	-1.377358e+01
6.171563e+01	-1.382134e+01
6.207210e+01	-1.386891e+01
6.243063e+01	-1.391761e+01
6.279122e+01	-1.396548e+01
6.315390e+01	-1.401368e+01
6.351868e+01	-1.406114e+01
6.388556e+01	-1.410991e+01
6.425456e+01	-1.415792e+01
6.462569e+01	-1.420529e+01
6.499897e+01	-1.425378e+01
6.537440e+01	-1.430187e+01
6.575200e+01	-1.435059e+01
6.613178e+01	-1.439866e+01
6.651375e+01	-1.444600e+01
6.689793e+01	-1.449515e+01
6.728433e+01	-1.454389e+01
6.767297e+01	-1.459138e+01
6.806384e+01	-1.463949e+01
6.845698e+01	-1.468840e+01
6.885238e+01	-1.473630e+01
6.925007e+01	-1.478384e+01
6.965005e+01	-1.483352e+01
7.005235e+01	-1.488095e+01
7.045697e+01	-1.493019e+01
7.086393e+01	-1.497797e+01
7.127323e+01	-1.502732e+01
7.168490e+01	-1.507572e+01
7.209895e+01	-1.512341e+01
7.251539e+01	-1.517253e+01
7.293424e+01	-1.522097e+01
7.335551e+01	-1.526815e+01
7.377920e+01	-1.531783e+01
7.420535e+01	-1.536705e+01
7.463396e+01	-1.541533e+01
7.506504e+01	-1.546318e+01
7.549861e+01	-1.551229e+01
7.593469e+01	-1.556003e+01
7.637328e+01	-1.561014e+01
7.681441e+01	-1.565865e+01
7.725809e+01	-1.570732e+01
7.770433e+01	-1.575525e+01
7.815315e+01	-1.580368e+01
7.860456e+01	-1.585305e+01
7.905857e+01	-1.590285e+01
7.951521e+01	-1.595006e+01
7.997449e+01	-1.599949e+01
8.043642e+01	-1.604834e+01
8.090102e+01	-1.609748e+01
8.136830e+01	-1.614661e+01
8.183828e+01	-1.619414e+01
8.231097e+01	-1.624224e+01
8.278640e+01	-1.629158e+01
8.326457e+01	-1.634078e+01
8.374550e+01	-1.639000e+01
8.422921e+01	-1.643918e+01
8.471572e+01	-1.648766e+01
8.520503e+01	-1.653627e+01
8.569717e+01	-1.658607e+01
8.619215e+01	-1.663366e+01
8.669000e+01	-1.668311e+01
8.719071e+01	-1.673378e+01
8.769432e+01	-1.678105e+01
8.820084e+01	-1.683084e+01
8.871029e+01	-1.687992e+01
8.922267e+01	-1.692687e+01
8.973802e+01	-1.697673e+01
9.025634e+01	-1.702658e+01
9.077766e+01	-1.707564e+01
9.130199e+01	-1.712411e+01
9.182935e+01	-1.717339e+01
9.235975e+01	-1.722219e+01
9.289321e+01	-1.727211e+01
9.342976e+01	-1.732025e+01
9.396941e+01	-1.737013e+01
9.451217e+01	-1.741771e+01
9.505807e+01	-1.746826e+01
9.560712e+01	-1.751739e+01
9.615934e+01	-1.756588e+01
9.671476e+01	-1.761469e+01
9.727338e+01	-1.766493e+01
9.783522e+01	-1.771486e+01
9.840032e+01	-1.776397e+01
9.896867e+01	-1.781205e+01
9.954031e+01	-1.786142e+01
1.001153e+02	-1.791059e+01
1.006935e+02	-1.795918e+01
1.012751e+02	-1.800998e+01
1.018601e+02	-1.805911e+01
1.024484e+02	-1.810728e+01
1.030402e+02	-1.815677e+01
1.036353e+02	-1.820614e+01
1.042339e+02	-1.825618e+01
1.048360e+02	-1.830460e+01
1.054415e+02	-1.835374e+01
1.060505e+02	-1.840220e+01
1.066631e+02	-1.845228e+01
1.072791e+02	-1.850288e+01
1.078988e+02	-1.855192e+01
1.085220e+02	-1.860146e+01
1.091488e+02	-1.865091e+01
1.097793e+02	-1.869990e+01
1.104133e+02	-1.874870e+01
1.110511e+02	-1.879899e+01
1.116925e+02	-1.884774e+01
1.123376e+02	-1.889766e+01
1.129865e+02	-1.894595e+01
1.136391e+02	-1.899453e+01
1.142955e+02	-1.904536e+01
1.149556e+02	-1.909505e+01
1.156196e+02	-1.914330e+01
1.162874e+02	-1.919380e+01
1.169591e+02	-1.924344e+01
1.176347e+02	-1.929236e+01
1.183141e+02	-1.934092e+01
1.189975e+02	-1.939063e+01
1.196848e+02	-1.944232e+01
1.203761e+02	-1.949060e+01
1.210714e+02	-1.953981e+01
1.217707e+02	-1.958988e+01
1.224740e+02	-1.963796e+01
1.231814e+02	-1.968875e+01
1.238929e+02	-1.973809e+01
1.246085e+02	-1.978712e+01
1.253283e+02	-1.983537e+01
1.260522e+02	-1.988608e+01
1.267802e+02	-1.993515e+01
1.275125e+02	-1.998492e+01
1.282490e+02	-2.003541e+01
1.289898e+02	-2.008477e+01
1.297348e+02	-2.013386e+01
1.304842e+02	-2.018284e+01
1.312378e+02	-2.023357e+01
1.319959e+02	-2.028168e+01
1.327583e+02	-2.033338e+01
1.335251e+02	-2.038180e+01
1.342963e+02	-2.043129e+01
1.350720e+02	-2.048094e+01
1.358522e+02	-2.052991e+01
1.366368e+02	-2.058060e+01
1.374260e+02	-2.062983e+01
1.382198e+02	-2.067943e+01
1.390182e+02	-2.072982e+01
1.398211e+02	-2.077957e+01
1.406287e+02	-2.082916e+01
1.414410e+02	-2.087825e+01
1.422579e+02	-2.092903e+01
1.430796e+02	-2.097675e+01
1.439060e+02	-2.102666e+01
1.447372e+02	-2.107647e+01
1.455732e+02	-2.112524e+01
1.464141e+02	-2.117462e+01
1.472597e+02	-2.122726e+01
1.481103e+02	-2.127549e+01
1.489658e+02	-2.132494e+01
1.498262e+02	-2.137363e+01
1.506916e+02	-2.142367e+01
1.515620e+02	-2.147430e+01
1.524374e+02	-2.152343e+01
1.533179e+02	-2.157371e+01
1.542034e+02	-2.162214e+01
1.550941e+02	-2.167195e+01
1.559899e+02	-2.172182e+01
1.568909e+02	-2.177179e+01
1.577971e+02	-2.182086e+01
1.587085e+02	-2.187138e+01
1.596252e+02	-2.192250e+01
1.605472e+02	-2.197090e+01
1.614745e+02	-2.202079e+01
1.624072e+02	-2.207031e+01
1.633453e+02	-2.211893e+01
1.642887e+02	-2.216797e+01
1.652377e+02	-2.222016e+01
1.661921e+02	-2.226780e+01
1.671520e+02	-2.231799e+01
1.681175e+02	-2.236808e+01
1.690885e+02	-2.241901e+01
1.700651e+02	-2.246933e+01
1.710474e+02	-2.251809e+01
1.720354e+02	-2.256808e+01
1.730291e+02	-2.261690e+01
1.740285e+02	-2.266898e+01
1.750337e+02	-2.271735e+01
1.760446e+02	-2.276860e+01
1.770615e+02	-2.281527e+01
1.780842e+02	-2.286843e+01
1.791128e+02	-2.291563e+01
1.801473e+02	-2.296576e+01
1.811878e+02	-2.301432e+01
1.822344e+02	-2.306595e+01
1.832870e+02	-2.311556e+01
1.843456e+02	-2.316773e+01
1.854104e+02	-2.321541e+01
1.864813e+02	-2.326347e+01
1.875584e+02	-2.331329e+01
1.886418e+02	-2.336430e+01
1.897313e+02	-2.341633e+01
1.908272e+02	-2.346399e+01
1.919294e+02	-2.351430e+01
1.930380e+02	-2.356295e+01
1.941530e+02	-2.361585e+01
1.952744e+02	-2.366509e+01
1.964023e+02	-2.371484e+01
1.975367e+02	-2.376194e+01
1.986777e+02	-2.381070e+01
1.998252e+02	-2.386448e+01
2.009794e+02	-2.391172e+01
2.021403e+02	-2.396366e+01
2.033078e+02	-2.401302e+01
2.044821e+02	-2.406358e+01
2.056632e+02	-2.411151e+01
2.068511e+02	-2.416051e+01
2.080459e+02	-2.421210e+01
2.092475e+02	-2.426074e+01
2.104561e+02	-2.431238e+01
2.116717e+02	-2.436349e+01
2.128943e+02	-2.441289e+01
2.141240e+02	-2.446166e+01
2.153608e+02	-2.451068e+01
2.166047e+02	-2.456058e+01
2.178558e+02	-2.461142e+01
2.191141e+02	-2.466307e+01
2.203797e+02	-2.471091e+01
2.216526e+02	-2.476097e+01
2.229329e+02	-2.481268e+01
2.242205e+02	-2.485961e+01
2.255156e+02	-2.490958e+01
2.268182e+02	-2.495943e+01
2.281283e+02	-2.501213e+01
2.294459e+02	-2.506071e+01
2.307712e+02	-2.510810e+01
2.321041e+02	-2.516039e+01
2.334447e+02	-2.520865e+01
2.347931e+02	-2.525835e+01
2.361493e+02	-2.530951e+01
2.375133e+02	-2.536193e+01
2.388851e+02	-2.541142e+01
2.402649e+02	-2.545867e+01
2.416527e+02	-2.550999e+01
2.430484e+02	-2.556363e+01
2.444523e+02	-2.560882e+01
2.458642e+02	-2.565851e+01
2.472843e+02	-2.570736e+01
2.487126e+02	-2.576070e+01
2.501492e+02	-2.580810e+01
2.515940e+02	-2.585661e+01
2.530472e+02	-2.590943e+01
2.545088e+02	-2.595847e+01
2.559789e+02	-2.600553e+01
2.574574e+02	-2.605744e+01
2.589444e+02	-2.611035e+01
2.604401e+02	-2.615773e+01
2.619444e+02	-2.621079e+01
2.634574e+02	-2.626109e+01
2.649791e+02	-2.631040e+01
2.665096e+02	-2.635480e+01
2.680489e+02	-2.640927e+01
2.695972e+02	-2.645931e+01
2.711544e+02	-2.651021e+01
2.727205e+02	-2.655888e+01
2.742958e+02	-2.661113e+01
2.758801e+02	-2.665805e+01
2.774736e+02	-2.670789e+01
2.790762e+02	-2.675695e+01
2.806882e+02	-2.680891e+01
2.823094e+02	-2.685862e+01
2.839400e+02	-2.690724e+01
2.855800e+02	-2.695553e+01
2.872295e+02	-2.700444e+01
2.888886e+02	-2.705994e+01
2.905572e+02	-2.710924e+01
2.922354e+02	-2.715660e+01
2.939234e+02	-2.720993e+01
2.956211e+02	-2.725761e+01
2.973286e+02	-2.731064e+01
2.990459e+02	-2.735677e+01
3.007732e+02	-2.740870e+01
3.025104e+02	-2.745713e+01
3.042577e+02	-2.751015e+01
3.060151e+02	-2.755519e+01
3.077826e+02	-2.760694e+01
3.095604e+02	-2.766167e+01
3.113484e+02	-2.770839e+01
3.131467e+02	-2.775547e+01
3.149554e+02	-2.780563e+01
3.167746e+02	-2.785669e+01
3.186043e+02	-2.790783e+01
3.204445e+02	-2.795797e+01
3.222954e+02	-2.800779e+01
3.241570e+02	-2.806060e+01
3.260293e+02	-2.810329e+01
3.279124e+02	-2.815799e+01
3.298064e+02	-2.820894e+01
3.317114e+02	-2.826020e+01
3.336273e+02	-2.830968e+01
3.355544e+02	-2.835881e+01
3.374925e+02	-2.841007e+01
3.394418e+02	-2.845877e+01
3.414024e+02	-2.850684e+01
3.433744e+02	-2.855936e+01
3.453577e+02	-2.860957e+01
3.473525e+02	-2.865925e+01
3.493588e+02	-2.871161e+01
3.513766e+02	-2.876026e+01
3.534062e+02	-2.881021e+01
3.554474e+02	-2.886237e+01
3.575005e+02	-2.890790e+01
3.595654e+02	-2.895597e+01
3.616422e+02	-2.900647e+01
3.637311e+02	-2.905774e+01
3.658320e+02	-2.911007e+01
3.679450e+02	-2.915810e+01
3.700702e+02	-2.920713e+01
3.722077e+02	-2.925937e+01
3.743576e+02	-2.931163e+01
3.765199e+02	-2.935761e+01
3.786946e+02	-2.941021e+01
3.808820e+02	-2.945691e+01
3.830819e+02	-2.951346e+01
3.852946e+02	-2.955765e+01
3.875200e+02	-2.960818e+01
3.897583e+02	-2.966156e+01
3.920096e+02	-2.971139e+01
3.942738e+02	-2.975795e+01
3.965511e+02	-2.981153e+01
3.988416e+02	-2.986081e+01
4.011452e+02	-2.990979e+01
4.034622e+02	-2.995874e+01
4.057926e+02	-3.000845e+01
4.081365e+02	-3.006557e+01
4.104938e+02	-3.011248e+01
4.128648e+02	-3.015964e+01
4.152495e+02	-3.020911e+01
4.176480e+02	-3.026199e+01
4.200603e+02	-3.030877e+01
4.224866e+02	-3.035990e+01
4.249268e+02	-3.040818e+01
4.273812e+02	-3.046352e+01
4.298497e+02	-3.050967e+01
4.323325e+02	-3.056630e+01
4.348297e+02	-3.061280e+01
4.373412e+02	-3.066681e+01
4.398673e+02	-3.071214e+01
4.424079e+02	-3.077038e+01
4.449633e+02	-3.080963e+01
4.475334e+02	-3.086157e+01
4.501183e+02	-3.091325e+01
4.527182e+02	-3.096471e+01
4.553330e+02	-3.101102e+01
4.579630e+02	-3.106583e+01
4.606082e+02	-3.111365e+01
4.632687e+02	-3.116517e+01
4.659445e+02	-3.121477e+01
4.686358e+02	-3.126663e+01
4.713426e+02	-3.131549e+01
4.740650e+02	-3.136123e+01
4.768032e+02	-3.141497e+01
4.795572e+02	-3.146599e+01
4.823271e+02	-3.151184e+01
4.851130e+02	-3.156193e+01
4.879150e+02	-3.161370e+01
4.907332e+02	-3.166054e+01
4.935676e+02	-3.172120e+01
4.964185e+02	-3.176500e+01
4.992858e+02	-3.181960e+01
5.021696e+02	-3.186657e+01
5.050701e+02	-3.191139e+01
5.079874e+02	-3.196899e+01
5.109215e+02	-3.201676e+01
5.138726e+02	-3.206870e+01
5.168407e+02	-3.211500e+01
5.198259e+02	-3.217077e+01
5.228284e+02	-3.222524e+01
5.258482e+02	-3.226772e+01
5.288855e+02	-3.231729e+01
5.319403e+02	-3.236971e+01
5.350128e+02	-3.242028e+01
5.381030e+02	-3.247070e+01
5.412111e+02	-3.252128e+01
5.443371e+02	-3.257549e+01
5.474812e+02	-3.262228e+01
5.506434e+02	-3.267293e+01
5.538239e+02	-3.272277e+01
5.570228e+02	-3.277247e+01
5.602401e+02	-3.282040e+01
5.634760e+02	-3.286801e+01
5.667306e+02	-3.292408e+01
5.700040e+02	-3.296761e+01
5.732964e+02	-3.302898e+01
5.766077e+02	-3.307294e+01
5.799382e+02	-3.311932e+01
5.832879e+02	-3.317226e+01
5.866569e+02	-3.322185e+01
5.900454e+02	-3.327040e+01
5.934535e+02	-3.332236e+01
5.968813e+02	-3.336915e+01
6.003288e+02	-3.342567e+01
6.037963e+02	-3.348000e+01
6.072838e+02	-3.352354e+01
6.107914e+02	-3.356419e+01
6.143194e+02	-3.362562e+01
6.178676e+02	-3.367736e+01
6.214364e+02	-3.372861e+01
6.250258e+02	-3.377718e+01
6.286359e+02	-3.381953e+01
6.322669e+02	-3.387646e+01
6.359189e+02	-3.393238e+01
6.395919e+02	-3.397033e+01
6.432862e+02	-3.402878e+01
6.470017e+02	-3.408090e+01
6.507388e+02	-3.413085e+01
6.544974e+02	-3.416918e+01
6.582778e+02	-3.422795e+01
6.620800e+02	-3.427834e+01
6.659041e+02	-3.432462e+01
6.697504e+02	-3.438199e+01
6.736188e+02	-3.443555e+01
6.775096e+02	-3.448007e+01
6.814229e+02	-3.453478e+01
6.853587e+02	-3.459164e+01
6.893173e+02	-3.463122e+01
6.932988e+02	-3.468482e+01
6.973033e+02	-3.473546e+01
7.013309e+02	-3.478957e+01
