Frequency(Hz)	Magnitude(dB)
1.000000e+01	-2.216196e+00
1.005776e+01	-2.236292e+00
1.011585e+01	-2.256322e+00
1.017428e+01	-2.276850e+00
1.023305e+01	-2.297302e+00
1.029215e+01	-2.318020e+00
1.035160e+01	-2.338759e+00
1.041139e+01	-2.359546e+00
1.047153e+01	-2.380584e+00
1.053201e+01	-2.402057e+00
1.059284e+01	-2.423156e+00
1.065403e+01	-2.444709e+00
1.071556e+01	-2.466212e+00
1.077746e+01	-2.488117e+00
1.083971e+01	-2.509728e+00
1.090232e+01	-2.531695e+00
1.096529e+01	-2.553910e+00
1.102862e+01	-2.576374e+00
1.109232e+01	-2.598958e+00
1.115639e+01	-2.621395e+00
1.122083e+01	-2.644179e+00
1.128564e+01	-2.667089e+00
1.135083e+01	-2.690058e+00
1.141639e+01	-2.713361e+00
1.148233e+01	-2.736669e+00
1.154865e+01	-2.760084e+00
1.161536e+01	-2.783498e+00
1.168245e+01	-2.807352e+00
1.174992e+01	-2.831388e+00
1.181779e+01	-2.855192e+00
1.188605e+01	-2.879405e+00
1.195470e+01	-2.903662e+00
1.202375e+01	-2.928355e+00
1.209320e+01	-2.952624e+00
1.216305e+01	-2.977467e+00
1.223330e+01	-3.002591e+00
1.230396e+01	-3.027726e+00
1.237503e+01	-3.052700e+00
1.244651e+01	-3.078093e+00
1.251840e+01	-3.103638e+00
1.259070e+01	-3.129240e+00
1.266343e+01	-3.154808e+00
1.273657e+01	-3.180688e+00
1.281014e+01	-3.206961e+00
1.288413e+01	-3.233047e+00
1.295855e+01	-3.259384e+00
1.303339e+01	-3.285863e+00
1.310867e+01	-3.312679e+00
1.318439e+01	-3.338989e+00
1.326054e+01	-3.366081e+00
1.333713e+01	-3.393084e+00
1.341417e+01	-3.420648e+00
1.349165e+01	-3.447823e+00
1.356958e+01	-3.475355e+00
1.364795e+01	-3.502821e+00
1.372678e+01	-3.530650e+00
1.380607e+01	-3.558465e+00
1.388581e+01	-3.586508e+00
1.396602e+01	-3.614832e+00
1.404668e+01	-3.643372e+00
1.412782e+01	-3.671737e+00
1.420942e+01	-3.700262e+00
1.429149e+01	-3.728883e+00
1.437404e+01	-3.758012e+00
1.445706e+01	-3.786887e+00
1.454057e+01	-3.815905e+00
1.462455e+01	-3.845510e+00
1.470902e+01	-3.874900e+00
1.479398e+01	-3.904304e+00
1.487943e+01	-3.934259e+00
1.496537e+01	-3.963984e+00
1.505181e+01	-3.994116e+00
1.513875e+01	-4.023967e+00
1.522619e+01	-4.054618e+00
1.531414e+01	-4.084941e+00
1.540259e+01	-4.115594e+00
1.549156e+01	-4.146154e+00
1.558103e+01	-4.176703e+00
1.567103e+01	-4.208096e+00
1.576155e+01	-4.239219e+00
1.585258e+01	-4.270349e+00
1.594415e+01	-4.301962e+00
1.603624e+01	-4.333201e+00
1.612886e+01	-4.364935e+00
1.622202e+01	-4.396781e+00
1.631572e+01	-4.428625e+00
1.640996e+01	-4.460723e+00
1.650474e+01	-4.492778e+00
1.660008e+01	-4.525228e+00
1.669596e+01	-4.557339e+00
1.679239e+01	-4.590421e+00
1.688938e+01	-4.623001e+00
1.698694e+01	-4.655823e+00
1.708505e+01	-4.688816e+00
1.718373e+01	-4.721734e+00
1.728299e+01	-4.754802e+00
1.738281e+01	-4.788149e+00
1.748322e+01	-4.821885e+00
1.758420e+01	-4.855388e+00
1.768576e+01	-4.888881e+00
1.778792e+01	-4.922772e+00
1.789066e+01	-4.956991e+00
1.799399e+01	-4.990925e+00
1.809793e+01	-5.025247e+00
1.820246e+01	-5.059654e+00
1.830760e+01	-5.094347e+00
1.841334e+01	-5.128897e+00
1.851969e+01	-5.163565e+00
1.862666e+01	-5.198541e+00
1.873425e+01	-5.233471e+00
1.884246e+01	-5.268144e+00
1.895129e+01	-5.303916e+00
1.906075e+01	-5.339335e+00
1.917085e+01	-5.374410e+00
1.928158e+01	-5.410248e+00
1.939295e+01	-5.445843e+00
1.950496e+01	-5.481402e+00
1.961762e+01	-5.517470e+00
1.973093e+01	-5.553481e+00
1.984490e+01	-5.589630e+00
1.995952e+01	-5.625782e+00
2.007480e+01	-5.662207e+00
2.019076e+01	-5.698798e+00
2.030738e+01	-5.735507e+00
2.042467e+01	-5.771936e+00
2.054264e+01	-5.808987e+00
2.066130e+01	-5.845942e+00
2.078064e+01	-5.883104e+00
2.090066e+01	-5.919818e+00
2.102139e+01	-5.957447e+00
2.114280e+01	-5.994751e+00
2.126492e+01	-6.032283e+00
2.138775e+01	-6.069995e+00
2.151128e+01	-6.107363e+00
2.163553e+01	-6.145755e+00
2.176050e+01	-6.183380e+00
2.188619e+01	-6.221658e+00
2.201260e+01	-6.259711e+00
2.213974e+01	-6.297717e+00
2.226762e+01	-6.336067e+00
2.239624e+01	-6.374945e+00
2.252560e+01	-6.413267e+00
2.265571e+01	-6.451815e+00
2.278656e+01	-6.490685e+00
2.291818e+01	-6.529265e+00
2.305055e+01	-6.568295e+00
2.318369e+01	-6.607400e+00
2.331760e+01	-6.646251e+00
2.345228e+01	-6.686019e+00
2.358774e+01	-6.725163e+00
2.372398e+01	-6.764607e+00
2.386101e+01	-6.804152e+00
2.399883e+01	-6.843837e+00
2.413745e+01	-6.883433e+00
2.427686e+01	-6.923353e+00
2.441709e+01	-6.963155e+00
2.455812e+01	-7.003236e+00
2.469997e+01	-7.043405e+00
2.484263e+01	-7.083574e+00
2.498612e+01	-7.123896e+00
2.513044e+01	-7.164153e+00
2.527559e+01	-7.204818e+00
2.542158e+01	-7.244889e+00
2.556842e+01	-7.285786e+00
2.571610e+01	-7.326754e+00
2.586463e+01	-7.367458e+00
2.601403e+01	-7.408076e+00
2.616428e+01	-7.449127e+00
2.631541e+01	-7.490170e+00
2.646740e+01	-7.531575e+00
2.662028e+01	-7.572823e+00
2.677404e+01	-7.613901e+00
2.692868e+01	-7.655407e+00
2.708422e+01	-7.697067e+00
2.724066e+01	-7.738320e+00
2.739800e+01	-7.780093e+00
2.755625e+01	-7.821736e+00
2.771541e+01	-7.863527e+00
2.787550e+01	-7.905799e+00
2.803650e+01	-7.947413e+00
2.819844e+01	-7.989408e+00
2.836131e+01	-8.031642e+00
2.852513e+01	-8.073530e+00
2.868989e+01	-8.116173e+00
2.885560e+01	-8.158229e+00
2.902227e+01	-8.201041e+00
2.918990e+01	-8.243452e+00
2.935850e+01	-8.285640e+00
2.952807e+01	-8.328618e+00
2.969863e+01	-8.371485e+00
2.987016e+01	-8.414016e+00
3.004269e+01	-8.456461e+00
3.021622e+01	-8.499456e+00
3.039075e+01	-8.542827e+00
3.056628e+01	-8.585737e+00
3.074283e+01	-8.629411e+00
3.092040e+01	-8.672387e+00
3.109900e+01	-8.715605e+00
3.127862e+01	-8.759235e+00
3.145929e+01	-8.802295e+00
3.164099e+01	-8.846014e+00
3.182375e+01	-8.889310e+00
3.200756e+01	-8.932512e+00
3.219244e+01	-8.976491e+00
3.237838e+01	-9.020312e+00
3.256540e+01	-9.063938e+00
3.275349e+01	-9.107607e+00
3.294268e+01	-9.152211e+00
3.313295e+01	-9.195812e+00
3.332433e+01	-9.239617e+00
3.351681e+01	-9.283701e+00
3.371040e+01	-9.327413e+00
3.390511e+01	-9.372311e+00
3.410094e+01	-9.416392e+00
3.429791e+01	-9.461011e+00
3.449601e+01	-9.505516e+00
3.469526e+01	-9.549887e+00
3.489566e+01	-9.594805e+00
3.509721e+01	-9.638777e+00
3.529993e+01	-9.683432e+00
3.550382e+01	-9.727944e+00
3.570889e+01	-9.772730e+00
3.591515e+01	-9.817916e+00
3.612259e+01	-9.862151e+00
3.633123e+01	-9.907016e+00
3.654108e+01	-9.952463e+00
3.675214e+01	-9.996892e+00
3.696442e+01	-1.004212e+01
3.717792e+01	-1.008715e+01
3.739266e+01	-1.013225e+01
3.760864e+01	-1.017758e+01
3.782587e+01	-1.022260e+01
3.804435e+01	-1.026823e+01
3.826409e+01	-1.031325e+01
3.848510e+01	-1.035915e+01
3.870739e+01	-1.040463e+01
3.893096e+01	-1.044963e+01
3.915583e+01	-1.049562e+01
3.938199e+01	-1.054073e+01
3.960946e+01	-1.058659e+01
3.983824e+01	-1.063258e+01
4.006834e+01	-1.067769e+01
4.029978e+01	-1.072416e+01
4.053255e+01	-1.077019e+01
4.076666e+01	-1.081574e+01
4.100213e+01	-1.086108e+01
4.123896e+01	-1.090730e+01
4.147715e+01	-1.095382e+01
4.171672e+01	-1.099923e+01
4.195767e+01	-1.104528e+01
4.220002e+01	-1.109183e+01
4.244377e+01	-1.113828e+01
4.268892e+01	-1.118375e+01
4.293549e+01	-1.123049e+01
4.318348e+01	-1.127639e+01
4.343291e+01	-1.132283e+01
4.368377e+01	-1.136913e+01
4.393609e+01	-1.141567e+01
4.418986e+01	-1.146181e+01
4.444510e+01	-1.150852e+01
4.470182e+01	-1.155483e+01
4.496001e+01	-1.160162e+01
4.521970e+01	-1.164748e+01
4.548089e+01	-1.169503e+01
4.574358e+01	-1.174100e+01
4.600779e+01	-1.178815e+01
4.627353e+01	-1.183514e+01
4.654081e+01	-1.188164e+01
4.680963e+01	-1.192820e+01
4.708000e+01	-1.197485e+01
4.735193e+01	-1.202186e+01
4.762543e+01	-1.206878e+01
4.790051e+01	-1.211581e+01
4.817719e+01	-1.216297e+01
4.845545e+01	-1.220954e+01
4.873533e+01	-1.225730e+01
4.901682e+01	-1.230389e+01
4.929994e+01	-1.235187e+01
4.958470e+01	-1.239803e+01
4.987110e+01	-1.244524e+01
5.015915e+01	-1.249245e+01
5.044887e+01	-1.253944e+01
5.074026e+01	-1.258721e+01
5.103333e+01	-1.263414e+01
5.132810e+01	-1.268143e+01
5.162457e+01	-1.272867e+01
5.192275e+01	-1.277642e+01
5.222265e+01	-1.282309e+01
5.252429e+01	-1.287140e+01
5.282767e+01	-1.291849e+01
5.313280e+01	-1.296619e+01
5.343969e+01	-1.301353e+01
5.374836e+01	-1.306107e+01
5.405880e+01	-1.310856e+01
5.437105e+01	-1.315515e+01
5.468509e+01	-1.320399e+01
5.500095e+01	-1.325129e+01
5.531863e+01	-1.329875e+01
5.563815e+01	-1.334716e+01
5.595951e+01	-1.339494e+01
5.628273e+01	-1.344245e+01
5.660782e+01	-1.348998e+01
5.693479e+01	-1.353784e+01
5.726364e+01	-1.358605e+01
5.759439e+01	-1.363394e+01
5.792705e+01	-1.368199e+01
5.826164e+01	-1.372955e+01
5.859815e+01	-1.377621e+01
5.893662e+01	-1.382499e+01
5.927703e+01	-1.387232e+01
5.961941e+01	-1.392168e+01
5.996377e+01	-1.396953e+01
6.031012e+01	-1.401645e+01
6.065847e+01	-1.406554e+01
6.100883e+01	-1.411327e+01
6.136121e+01	-1.416159e+01
6.171563e+01	-1.420927e+01
6.207210e+01	-1.425788e+01
6.243063e+01	-1.430600e+01
6.279122e+01	-1.435422e+01
6.315390e+01	-1.440262e+01
6.351868e+01	-1.445002e+01
6.388556e+01	-1.449893e+01
6.425456e+01	-1.454774e+01
6.462569e+01	-1.459549e+01
6.499897e+01	-1.464444e+01
6.537440e+01	-1.469132e+01
6.575200e+01	-1.474026e+01
6.613178e+01	-1.478880e+01
6.651375e+01	-1.483692e+01
6.689793e+01	-1.488499e+01
6.728433e+01	-1.493441e+01
6.767297e+01	-1.498283e+01
6.806384e+01	-1.503100e+01
6.845698e+01	-1.507905e+01
6.885238e+01	-1.512767e+01
6.925007e+01	-1.517602e+01
6.965005e+01	-1.522482e+01
7.005235e+01	-1.527381e+01
7.045697e+01	-1.532215e+01
7.086393e+01	-1.537001e+01
7.127323e+01	-1.541866e+01
7.168490e+01	-1.546702e+01
7.209895e+01	-1.551584e+01
7.251539e+01	-1.556496e+01
7.293424e+01	-1.561364e+01
7.335551e+01	-1.566220e+01
7.377920e+01	-1.571079e+01
7.420535e+01	-1.575990e+01
7.463396e+01	-1.580854e+01
7.506504e+01	-1.585728e+01
7.549861e+01	-1.590547e+01
7.593469e+01	-1.595420e+01
7.637328e+01	-1.600329e+01
7.681441e+01	-1.605238e+01
7.725809e+01	-1.610016e+01
7.770433e+01	-1.614967e+01
7.815315e+01	-1.619783e+01
7.860456e+01	-1.624801e+01
7.905857e+01	-1.629562e+01
7.951521e+01	-1.634432e+01
7.997449e+01	-1.639382e+01
8.043642e+01	-1.644316e+01
8.090102e+01	-1.649172e+01
8.136830e+01	-1.654119e+01
8.183828e+01	-1.658887e+01
8.231097e+01	-1.663778e+01
8.278640e+01	-1.668739e+01
8.326457e+01	-1.673513e+01
8.374550e+01	-1.678576e+01
8.422921e+01	-1.683400e+01
8.471572e+01	-1.688356e+01
8.520503e+01	-1.693242e+01
8.569717e+01	-1.698132e+01
8.619215e+01	-1.703009e+01
8.669000e+01	-1.707914e+01
8.719071e+01	-1.712855e+01
8.769432e+01	-1.717732e+01
8.820084e+01	-1.722673e+01
8.871029e+01	-1.727600e+01
8.922267e+01	-1.732471e+01
8.973802e+01	-1.737456e+01
9.025634e+01	-1.742210e+01
9.077766e+01	-1.747143e+01
9.130199e+01	-1.752097e+01
9.182935e+01	-1.757009e+01
9.235975e+01	-1.761922e+01
9.289321e+01	-1.766871e+01
9.342976e+01	-1.771876e+01
9.396941e+01	-1.776633e+01
9.451217e+01	-1.781484e+01
9.505807e+01	-1.786574e+01
9.560712e+01	-1.791587e+01
9.615934e+01	-1.796451e+01
9.671476e+01	-1.801262e+01
9.727338e+01	-1.806187e+01
9.783522e+01	-1.811099e+01
9.840032e+01	-1.816073e+01
9.896867e+01	-1.821105e+01
9.954031e+01	-1.825928e+01
1.001153e+02	-1.830906e+01
1.006935e+02	-1.835807e+01
1.012751e+02	-1.840830e+01
1.018601e+02	-1.845602e+01
1.024484e+02	-1.850512e+01
1.030402e+02	-1.855419e+01
1.036353e+02	-1.860447e+01
1.042339e+02	-1.865339e+01
1.048360e+02	-1.870365e+01
1.054415e+02	-1.875346e+01
1.060505e+02	-1.880350e+01
1.066631e+02	-1.885089e+01
1.072791e+02	-1.890211e+01
1.078988e+02	-1.894957e+01
1.085220e+02	-1.899977e+01
1.091488e+02	-1.904786e+01
1.097793e+02	-1.910021e+01
1.104133e+02	-1.914695e+01
1.110511e+02	-1.919773e+01
1.116925e+02	-1.924696e+01
1.123376e+02	-1.929631e+01
1.129865e+02	-1.934471e+01
1.136391e+02	-1.939540e+01
1.142955e+02	-1.944497e+01
1.149556e+02	-1.949397e+01
1.156196e+02	-1.954291e+01
1.162874e+02	-1.959302e+01
1.169591e+02	-1.964168e+01
1.176347e+02	-1.969172e+01
1.183141e+02	-1.974273e+01
1.189975e+02	-1.979129e+01
1.196848e+02	-1.984127e+01
1.203761e+02	-1.989101e+01
1.210714e+02	-1.993695e+01
1.217707e+02	-1.998959e+01
1.224740e+02	-2.003899e+01
1.231814e+02	-2.008806e+01
1.238929e+02	-2.013763e+01
1.246085e+02	-2.018746e+01
1.253283e+02	-2.023587e+01
1.260522e+02	-2.028592e+01
1.267802e+02	-2.033538e+01
1.275125e+02	-2.038592e+01
1.282490e+02	-2.043491e+01
1.289898e+02	-2.048553e+01
1.297348e+02	-2.053525e+01
1.304842e+02	-2.058285e+01
1.312378e+02	-2.063221e+01
1.319959e+02	-2.068230e+01
1.327583e+02	-2.073125e+01
1.335251e+02	-2.078139e+01
1.342963e+02	-2.083375e+01
1.350720e+02	-2.088205e+01
1.358522e+02	-2.093152e+01
1.366368e+02	-2.098100e+01
1.374260e+02	-2.103074e+01
1.382198e+02	-2.108005e+01
1.390182e+02	-2.112836e+01
1.398211e+02	-2.118133e+01
1.406287e+02	-2.122909e+01
1.414410e+02	-2.128105e+01
1.422579e+02	-2.132824e+01
1.430796e+02	-2.137758e+01
1.439060e+02	-2.142844e+01
1.447372e+02	-2.147533e+01
1.455732e+02	-2.152642e+01
1.464141e+02	-2.157500e+01
1.472597e+02	-2.162458e+01
1.481103e+02	-2.167578e+01
1.489658e+02	-2.172751e+01
1.498262e+02	-2.177522e+01
1.506916e+02	-2.182563e+01
1.515620e+02	-2.187651e+01
1.524374e+02	-2.192425e+01
1.533179e+02	-2.197440e+01
1.542034e+02	-2.202508e+01
1.550941e+02	-2.207353e+01
1.559899e+02	-2.212284e+01
1.568909e+02	-2.217289e+01
1.577971e+02	-2.222424e+01
1.587085e+02	-2.227487e+01
1.596252e+02	-2.232195e+01
1.605472e+02	-2.237279e+01
1.614745e+02	-2.242414e+01
1.624072e+02	-2.247329e+01
1.633453e+02	-2.251996e+01
1.642887e+02	-2.257147e+01
1.652377e+02	-2.262246e+01
1.661921e+02	-2.267083e+01
1.671520e+02	-2.272022e+01
1.681175e+02	-2.276998e+01
1.690885e+02	-2.281968e+01
1.700651e+02	-2.287165e+01
1.710474e+02	-2.292218e+01
1.720354e+02	-2.297009e+01
1.730291e+02	-2.301801e+01
1.740285e+02	-2.307048e+01
1.750337e+02	-2.311920e+01
1.760446e+02	-2.316738e+01
1.770615e+02	-2.321862e+01
1.780842e+02	-2.326908e+01
1.791128e+02	-2.331891e+01
1.801473e+02	-2.336719e+01
1.811878e+02	-2.341923e+01
1.822344e+02	-2.346959e+01
1.832870e+02	-2.352004e+01
1.843456e+02	-2.356767e+01
1.854104e+02	-2.361597e+01
1.864813e+02	-2.366902e+01
1.875584e+02	-2.371710e+01
1.886418e+02	-2.376821e+01
1.897313e+02	-2.381734e+01
1.908272e+02	-2.386624e+01
1.919294e+02	-2.391770e+01
1.930380e+02	-2.396801e+01
1.941530e+02	-2.401759e+01
1.952744e+02	-2.406548e+01
1.964023e+02	-2.411769e+01
1.975367e+02	-2.416669e+01
1.986777e+02	-2.421540e+01
1.998252e+02	-2.426512e+01
2.009794e+02	-2.431343e+01
2.021403e+02	-2.436704e+01
2.033078e+02	-2.441475e+01
2.044821e+02	-2.446405e+01
2.056632e+02	-2.451508e+01
2.068511e+02	-2.456603e+01
2.080459e+02	-2.461339e+01
2.092475e+02	-2.466603e+01
2.104561e+02	-2.471506e+01
2.116717e+02	-2.476344e+01
2.128943e+02	-2.481691e+01
2.141240e+02	-2.486049e+01
2.153608e+02	-2.491575e+01
2.166047e+02	-2.496209e+01
2.178558e+02	-2.501568e+01
2.191141e+02	-2.506714e+01
2.203797e+02	-2.511370e+01
2.216526e+02	-2.516181e+01
2.229329e+02	-2.521755e+01
2.242205e+02	-2.526336e+01
2.255156e+02	-2.531720e+01
2.268182e+02	-2.536240e+01
2.281283e+02	-2.541341e+01
2.294459e+02	-2.546614e+01
2.307712e+02	-2.551286e+01
2.321041e+02	-2.556074e+01
2.334447e+02	-2.561343e+01
2.347931e+02	-2.566090e+01
2.361493e+02	-2.571452e+01
2.375133e+02	-2.576102e+01
2.388851e+02	-2.581043e+01
2.402649e+02	-2.586354e+01
2.416527e+02	-2.591482e+01
2.430484e+02	-2.596289e+01
2.444523e+02	-2.601429e+01
2.458642e+02	-2.606298e+01
2.472843e+02	-2.611324e+01
2.487126e+02	-2.616365e+01
2.501492e+02	-2.621495e+01
2.515940e+02	-2.626283e+01
2.530472e+02	-2.631272e+01
2.545088e+02	-2.636167e+01
2.559789e+02	-2.641643e+01
2.574574e+02	-2.646448e+01
2.589444e+02	-2.651259e+01
2.604401e+02	-2.656471e+01
2.619444e+02	-2.661060e+01
2.634574e+02	-2.666153e+01
2.649791e+02	-2.671302e+01
2.665096e+02	-2.676439e+01
2.680489e+02	-2.680963e+01
2.695972e+02	-2.685939e+01
2.711544e+02	-2.691224e+01
2.727205e+02	-2.696067e+01
2.742958e+02	-2.701136e+01
2.758801e+02	-2.706466e+01
2.774736e+02	-2.711508e+01
2.790762e+02	-2.716184e+01
2.806882e+02	-2.721070e+01
2.823094e+02	-2.726464e+01
2.839400e+02	-2.731133e+01
2.855800e+02	-2.736289e+01
2.872295e+02	-2.741168e+01
2.888886e+02	-2.746256e+01
2.905572e+02	-2.751309e+01
2.922354e+02	-2.756105e+01
2.939234e+02	-2.760939e+01
2.956211e+02	-2.766186e+01
2.973286e+02	-2.771652e+01
2.990459e+02	-2.775727e+01
3.007732e+02	-2.781140e+01
3.025104e+02	-2.786281e+01
3.042577e+02	-2.791161e+01
3.060151e+02	-2.796404e+01
3.077826e+02	-2.800906e+01
3.095604e+02	-2.806517e+01
3.113484e+02	-2.811318e+01
3.131467e+02	-2.815922e+01
3.149554e+02	-2.821086e+01
3.167746e+02	-2.825654e+01
3.186043e+02	-2.831214e+01
3.204445e+02	-2.836376e+01
3.222954e+02	-2.841336e+01
3.241570e+02	-2.846507e+01
3.260293e+02	-2.851399e+01
3.279124e+02	-2.856564e+01
3.298064e+02	-2.861038e+01
3.317114e+02	-2.865950e+01
3.336273e+02	-2.871088e+01
3.355544e+02	-2.876375e+01
3.374925e+02	-2.881400e+01
3.394418e+02	-2.886557e+01
3.414024e+02	-2.891097e+01
3.433744e+02	-2.896363e+01
3.453577e+02	-2.901007e+01
3.473525e+02	-2.906172e+01
3.493588e+02	-2.911280e+01
3.513766e+02	-2.916370e+01
3.534062e+02	-2.921070e+01
3.554474e+02	-2.926423e+01
3.575005e+02	-2.931190e+01
3.595654e+02	-2.936232e+01
3.616422e+02	-2.941351e+01
3.637311e+02	-2.946706e+01
3.658320e+02	-2.950763e+01
3.679450e+02	-2.956353e+01
3.700702e+02	-2.961004e+01
3.722077e+02	-2.965931e+01
3.743576e+02	-2.971295e+01
3.765199e+02	-2.976355e+01
3.786946e+02	-2.981376e+01
3.808820e+02	-2.986411e+01
3.830819e+02	-2.991238e+01
3.852946e+02	-2.996372e+01
3.875200e+02	-3.000999e+01
3.897583e+02	-3.006810e+01
3.920096e+02	-3.011313e+01
3.942738e+02	-3.016314e+01
3.965511e+02	-3.021222e+01
3.988416e+02	-3.026344e+01
4.011452e+02	-3.031919e+01
4.034622e+02	-3.036555e+01
4.057926e+02	-3.041247e+01
4.081365e+02	-3.046154e+01
4.104938e+02	-3.052020e+01
4.128648e+02	-3.056415e+01
4.152495e+02	-3.061311e+01
4.176480e+02	-3.066376e+01
4.200603e+02	-3.071561e+01
4.224866e+02	-3.076347e+01
4.249268e+02	-3.081836e+01
4.273812e+02	-3.086164e+01
4.298497e+02	-3.091685e+01
4.323325e+02	-3.097261e+01
4.348297e+02	-3.101045e+01
4.373412e+02	-3.106895e+01
4.398673e+02	-3.112177e+01
4.424079e+02	-3.116377e+01
4.449633e+02	-3.122157e+01
4.475334e+02	-3.126840e+01
4.501183e+02	-3.131394e+01
4.527182e+02	-3.136437e+01
4.553330e+02	-3.142005e+01
4.579630e+02	-3.146600e+01
4.606082e+02	-3.151504e+01
4.632687e+02	-3.156748e+01
4.659445e+02	-3.162566e+01
4.686358e+02	-3.167083e+01
4.713426e+02	-3.171731e+01
4.740650e+02	-3.176784e+01
4.768032e+02	-3.182188e+01
4.795572e+02	-3.186810e+01
4.823271e+02	-3.192245e+01
4.851130e+02	-3.196101e+01
4.879150e+02	-3.201617e+01
4.907332e+02	-3.206775e+01
4.935676e+02	-3.212754e+01
4.964185e+02	-3.216935e+01
4.992858e+02	-3.221937e+01
5.021696e+02	-3.226902e+01
5.050701e+02	-3.232127e+01
5.079874e+02	-3.238212e+01
5.109215e+02	-3.241799e+01
5.138726e+02	-3.246551e+01
5.168407e+02	-3.252242e+01
5.198259e+02	-3.257149e+01
5.228284e+02	-3.262267e+01
5.258482e+02	-3.267621e+01
5.288855e+02	-3.271972e+01
5.319403e+02	-3.277838e+01
5.350128e+02	-3.282274e+01
5.381030e+02	-3.286341e+01
5.412111e+02	-3.292689e+01
5.443371e+02	-3.297540e+01
5.474812e+02	-3.302600e+01
5.506434e+02	-3.307958e+01
5.538239e+02	-3.312112e+01
5.570228e+02	-3.317355e+01
5.602401e+02	-3.322595e+01
5.634760e+02	-3.327415e+01
5.667306e+02	-3.332576e+01
5.700040e+02	-3.337698e+01
5.732964e+02	-3.343283e+01
5.766077e+02	-3.348194e+01
5.799382e+02	-3.353142e+01
5.832879e+02	-3.357906e+01
5.866569e+02	-3.362671e+01
5.900454e+02	-3.368063e+01
5.934535e+02	-3.373002e+01
5.968813e+02	-3.378019e+01
6.003288e+02	-3.382473e+01
6.037963e+02	-3.388163e+01
6.072838e+02	-3.392748e+01
6.107914e+02	-3.397697e+01
6.143194e+02	-3.403425e+01
6.178676e+02	-3.407447e+01
6.214364e+02	-3.413224e+01
6.250258e+02	-3.418179e+01
6.286359e+02	-3.423026e+01
6.322669e+02	-3.428769e+01
6.359189e+02	-3.433377e+01
6.395919e+02	-3.437938e+01
6.432862e+02	-3.443280e+01
6.470017e+02	-3.448690e+01
6.507388e+02	-3.452960e+01
6.544974e+02	-3.458315e+01
6.582778e+02	-3.463852e+01
6.620800e+02	-3.468605e+01
6.659041e+02	-3.473204e+01
6.697504e+02	-3.478011e+01
6.736188e+02	-3.483175e+01
6.775096e+02	-3.488990e+01
6.814229e+02	-3.493646e+01
6.853587e+02	-3.499015e+01
6.893173e+02	-3.503104e+01
6.932988e+02	-3.508864e+01
6.973033e+02	-3.513830e+01
7.013309e+02	-3.519047e+01
