Frequency(Hz)	Magnitude(dB)
1.000000e+01	-1.619093e-05
1.005776e+01	-1.637851e-05
1.011585e+01	-1.656826e-05
1.017428e+01	-1.676021e-05
1.023305e+01	-1.695438e-05
1.029215e+01	-1.715080e-05
1.035160e+01	-1.734949e-05
1.041139e+01	-1.755049e-05
1.047153e+01	-1.775382e-05
1.053201e+01	-1.795950e-05
1.059284e+01	-1.816757e-05
1.065403e+01	-1.837804e-05
1.071556e+01	-1.859096e-05
1.077746e+01	-1.880634e-05
1.083971e+01	-1.902422e-05
1.090232e+01	-1.924462e-05
1.096529e+01	-1.946757e-05
1.102862e+01	-1.969311e-05
1.109232e+01	-1.992126e-05
1.115639e+01	-2.015205e-05
1.122083e+01	-2.038552e-05
1.128564e+01	-2.062169e-05
1.135083e+01	-2.086059e-05
1.141639e+01	-2.110227e-05
1.148233e+01	-2.134674e-05
1.154865e+01	-2.159405e-05
1.161536e+01	-2.184422e-05
1.168245e+01	-2.209730e-05
1.174992e+01	-2.235330e-05
1.181779e+01	-2.261227e-05
1.188605e+01	-2.287424e-05
1.195470e+01	-2.313924e-05
1.202375e+01	-2.340731e-05
1.209320e+01	-2.367849e-05
1.216305e+01	-2.395281e-05
1.223330e+01	-2.423031e-05
1.230396e+01	-2.451103e-05
1.237503e+01	-2.479499e-05
1.244651e+01	-2.508225e-05
1.251840e+01	-2.537283e-05
1.259070e+01	-2.566678e-05
1.266343e+01	-2.596414e-05
1.273657e+01	-2.626494e-05
1.281014e+01	-2.656923e-05
1.288413e+01	-2.687704e-05
1.295855e+01	-2.718841e-05
1.303339e+01	-2.750340e-05
1.310867e+01	-2.782203e-05
1.318439e+01	-2.814436e-05
1.326054e+01	-2.847042e-05
1.333713e+01	-2.880025e-05
1.341417e+01	-2.913391e-05
1.349165e+01	-2.947144e-05
1.356958e+01	-2.981287e-05
1.364795e+01	-3.015826e-05
1.372678e+01	-3.050765e-05
1.380607e+01	-3.086109e-05
1.388581e+01	-3.121862e-05
1.396602e+01	-3.158030e-05
1.404668e+01	-3.194616e-05
1.412782e+01	-3.231626e-05
1.420942e+01	-3.269066e-05
1.429149e+01	-3.306938e-05
1.437404e+01	-3.345250e-05
1.445706e+01	-3.384006e-05
1.454057e+01	-3.423210e-05
1.462455e+01	-3.462869e-05
1.470902e+01	-3.502987e-05
1.479398e+01	-3.543570e-05
1.487943e+01	-3.584623e-05
1.496537e+01	-3.626152e-05
1.505181e+01	-3.668161e-05
1.513875e+01	-3.710658e-05
1.522619e+01	-3.753647e-05
1.531414e+01	-3.797134e-05
1.540259e+01	-3.841124e-05
1.549156e+01	-3.885625e-05
1.558103e+01	-3.930640e-05
1.567103e+01	-3.976178e-05
1.576155e+01	-4.022243e-05
1.585258e+01	-4.068841e-05
1.594415e+01	-4.115980e-05
1.603624e+01	-4.163664e-05
1.612886e+01	-4.211901e-05
1.622202e+01	-4.260697e-05
1.631572e+01	-4.310058e-05
1.640996e+01	-4.359991e-05
1.650474e+01	-4.410503e-05
1.660008e+01	-4.461599e-05
1.669596e+01	-4.513288e-05
1.679239e+01	-4.565575e-05
1.688938e+01	-4.618469e-05
1.698694e+01	-4.671975e-05
1.708505e+01	-4.726100e-05
1.718373e+01	-4.780853e-05
1.728299e+01	-4.836240e-05
1.738281e+01	-4.892269e-05
1.748322e+01	-4.948947e-05
1.758420e+01	-5.006282e-05
1.768576e+01	-5.064281e-05
1.778792e+01	-5.122952e-05
1.789066e+01	-5.182302e-05
1.799399e+01	-5.242340e-05
1.809793e+01	-5.303074e-05
1.820246e+01	-5.364511e-05
1.830760e+01	-5.426660e-05
1.841334e+01	-5.489529e-05
1.851969e+01	-5.553126e-05
1.862666e+01	-5.617460e-05
1.873425e+01	-5.682540e-05
1.884246e+01	-5.748373e-05
1.895129e+01	-5.814969e-05
1.906075e+01	-5.882337e-05
1.917085e+01	-5.950485e-05
1.928158e+01	-6.019422e-05
1.939295e+01	-6.089159e-05
1.950496e+01	-6.159703e-05
1.961762e+01	-6.231064e-05
1.973093e+01	-6.303252e-05
1.984490e+01	-6.376276e-05
1.995952e+01	-6.450147e-05
2.007480e+01	-6.524873e-05
2.019076e+01	-6.600465e-05
2.030738e+01	-6.676933e-05
2.042467e+01	-6.754286e-05
2.054264e+01	-6.832536e-05
2.066130e+01	-6.911692e-05
2.078064e+01	-6.991765e-05
2.090066e+01	-7.072766e-05
2.102139e+01	-7.154706e-05
2.114280e+01	-7.237594e-05
2.126492e+01	-7.321443e-05
2.138775e+01	-7.406263e-05
2.151128e+01	-7.492066e-05
2.163553e+01	-7.578863e-05
2.176050e+01	-7.666665e-05
2.188619e+01	-7.755485e-05
2.201260e+01	-7.845334e-05
2.213974e+01	-7.936223e-05
2.226762e+01	-8.028166e-05
2.239624e+01	-8.121174e-05
2.252560e+01	-8.215259e-05
2.265571e+01	-8.310434e-05
2.278656e+01	-8.406712e-05
2.291818e+01	-8.504105e-05
2.305055e+01	-8.602626e-05
2.318369e+01	-8.702289e-05
2.331760e+01	-8.803107e-05
2.345228e+01	-8.905092e-05
2.358774e+01	-9.008259e-05
2.372398e+01	-9.112621e-05
2.386101e+01	-9.218192e-05
2.399883e+01	-9.324986e-05
2.413745e+01	-9.433018e-05
2.427686e+01	-9.542301e-05
2.441709e+01	-9.652850e-05
2.455812e+01	-9.764679e-05
2.469997e+01	-9.877805e-05
2.484263e+01	-9.992240e-05
2.498612e+01	-1.010800e-04
2.513044e+01	-1.022510e-04
2.527559e+01	-1.034356e-04
2.542158e+01	-1.046340e-04
2.556842e+01	-1.058462e-04
2.571610e+01	-1.070724e-04
2.586463e+01	-1.083128e-04
2.601403e+01	-1.095677e-04
2.616428e+01	-1.108370e-04
2.631541e+01	-1.121211e-04
2.646740e+01	-1.134200e-04
2.662028e+01	-1.147340e-04
2.677404e+01	-1.160632e-04
2.692868e+01	-1.174078e-04
2.708422e+01	-1.187680e-04
2.724066e+01	-1.201439e-04
2.739800e+01	-1.215358e-04
2.755625e+01	-1.229438e-04
2.771541e+01	-1.243681e-04
2.787550e+01	-1.258090e-04
2.803650e+01	-1.272665e-04
2.819844e+01	-1.287409e-04
2.836131e+01	-1.302323e-04
2.852513e+01	-1.317411e-04
2.868989e+01	-1.332673e-04
2.885560e+01	-1.348113e-04
2.902227e+01	-1.363731e-04
2.918990e+01	-1.379530e-04
2.935850e+01	-1.395511e-04
2.952807e+01	-1.411679e-04
2.969863e+01	-1.428033e-04
2.987016e+01	-1.444577e-04
3.004269e+01	-1.461312e-04
3.021622e+01	-1.478242e-04
3.039075e+01	-1.495367e-04
3.056628e+01	-1.512691e-04
3.074283e+01	-1.530216e-04
3.092040e+01	-1.547944e-04
3.109900e+01	-1.565877e-04
3.127862e+01	-1.584018e-04
3.145929e+01	-1.602368e-04
3.164099e+01	-1.620932e-04
3.182375e+01	-1.639711e-04
3.200756e+01	-1.658707e-04
3.219244e+01	-1.677923e-04
3.237838e+01	-1.697362e-04
3.256540e+01	-1.717026e-04
3.275349e+01	-1.736918e-04
3.294268e+01	-1.757040e-04
3.313295e+01	-1.777395e-04
3.332433e+01	-1.797986e-04
3.351681e+01	-1.818816e-04
3.371040e+01	-1.839887e-04
3.390511e+01	-1.861202e-04
3.410094e+01	-1.882764e-04
3.429791e+01	-1.904576e-04
3.449601e+01	-1.926641e-04
3.469526e+01	-1.948961e-04
3.489566e+01	-1.971540e-04
3.509721e+01	-1.994380e-04
3.529993e+01	-2.017485e-04
3.550382e+01	-2.040858e-04
3.570889e+01	-2.064501e-04
3.591515e+01	-2.088418e-04
3.612259e+01	-2.112613e-04
3.633123e+01	-2.137087e-04
3.654108e+01	-2.161845e-04
3.675214e+01	-2.186890e-04
3.696442e+01	-2.212225e-04
3.717792e+01	-2.237854e-04
3.739266e+01	-2.263779e-04
3.760864e+01	-2.290005e-04
3.782587e+01	-2.316535e-04
3.804435e+01	-2.343372e-04
3.826409e+01	-2.370520e-04
3.848510e+01	-2.397982e-04
3.870739e+01	-2.425763e-04
3.893096e+01	-2.453865e-04
3.915583e+01	-2.482293e-04
3.938199e+01	-2.511050e-04
3.960946e+01	-2.540140e-04
3.983824e+01	-2.569568e-04
4.006834e+01	-2.599336e-04
4.029978e+01	-2.629449e-04
4.053255e+01	-2.659911e-04
4.076666e+01	-2.690726e-04
4.100213e+01	-2.721898e-04
4.123896e+01	-2.753431e-04
4.147715e+01	-2.785329e-04
4.171672e+01	-2.817597e-04
4.195767e+01	-2.850238e-04
4.220002e+01	-2.883258e-04
4.244377e+01	-2.916660e-04
4.268892e+01	-2.950449e-04
4.293549e+01	-2.984630e-04
4.318348e+01	-3.019207e-04
4.343291e+01	-3.054184e-04
4.368377e+01	-3.089566e-04
4.393609e+01	-3.125358e-04
4.418986e+01	-3.161565e-04
4.444510e+01	-3.198191e-04
4.470182e+01	-3.235242e-04
4.496001e+01	-3.272722e-04
4.521970e+01	-3.310636e-04
4.548089e+01	-3.348989e-04
4.574358e+01	-3.387786e-04
4.600779e+01	-3.427033e-04
4.627353e+01	-3.466735e-04
4.654081e+01	-3.506896e-04
4.680963e+01	-3.547523e-04
4.708000e+01	-3.588620e-04
4.735193e+01	-3.630194e-04
4.762543e+01	-3.672249e-04
4.790051e+01	-3.714791e-04
4.817719e+01	-3.757826e-04
4.845545e+01	-3.801359e-04
4.873533e+01	-3.845397e-04
4.901682e+01	-3.889945e-04
4.929994e+01	-3.935009e-04
4.958470e+01	-3.980595e-04
4.987110e+01	-4.026710e-04
5.015915e+01	-4.073358e-04
5.044887e+01	-4.120547e-04
5.074026e+01	-4.168282e-04
5.103333e+01	-4.216570e-04
5.132810e+01	-4.265418e-04
5.162457e+01	-4.314832e-04
5.192275e+01	-4.364818e-04
5.222265e+01	-4.415383e-04
5.252429e+01	-4.466534e-04
5.282767e+01	-4.518277e-04
5.313280e+01	-4.570620e-04
5.343969e+01	-4.623569e-04
5.374836e+01	-4.677131e-04
5.405880e+01	-4.731314e-04
5.437105e+01	-4.786125e-04
5.468509e+01	-4.841570e-04
5.500095e+01	-4.897658e-04
5.531863e+01	-4.954395e-04
5.563815e+01	-5.011790e-04
5.595951e+01	-5.069850e-04
5.628273e+01	-5.128582e-04
5.660782e+01	-5.187994e-04
5.693479e+01	-5.248095e-04
5.726364e+01	-5.308892e-04
5.759439e+01	-5.370393e-04
5.792705e+01	-5.432607e-04
5.826164e+01	-5.495541e-04
5.859815e+01	-5.559204e-04
5.893662e+01	-5.623605e-04
5.927703e+01	-5.688752e-04
5.961941e+01	-5.754653e-04
5.996377e+01	-5.821318e-04
6.031012e+01	-5.888755e-04
6.065847e+01	-5.956973e-04
6.100883e+01	-6.025981e-04
6.136121e+01	-6.095789e-04
6.171563e+01	-6.166406e-04
6.207210e+01	-6.237840e-04
6.243063e+01	-6.310102e-04
6.279122e+01	-6.383201e-04
6.315390e+01	-6.457146e-04
6.351868e+01	-6.531949e-04
6.388556e+01	-6.607617e-04
6.425456e+01	-6.684162e-04
6.462569e+01	-6.761594e-04
6.499897e+01	-6.839923e-04
6.537440e+01	-6.919159e-04
6.575200e+01	-6.999313e-04
6.613178e+01	-7.080395e-04
6.651375e+01	-7.162417e-04
6.689793e+01	-7.245389e-04
6.728433e+01	-7.329321e-04
6.767297e+01	-7.414226e-04
6.806384e+01	-7.500115e-04
6.845698e+01	-7.586998e-04
6.885238e+01	-7.674888e-04
6.925007e+01	-7.763795e-04
6.965005e+01	-7.853733e-04
7.005235e+01	-7.944712e-04
7.045697e+01	-8.036745e-04
7.086393e+01	-8.129845e-04
7.127323e+01	-8.224022e-04
7.168490e+01	-8.319291e-04
7.209895e+01	-8.415663e-04
7.251539e+01	-8.513151e-04
7.293424e+01	-8.611768e-04
7.335551e+01	-8.711528e-04
7.377920e+01	-8.812443e-04
7.420535e+01	-8.914527e-04
7.463396e+01	-9.017794e-04
7.506504e+01	-9.122256e-04
7.549861e+01	-9.227929e-04
7.593469e+01	-9.334825e-04
7.637328e+01	-9.442960e-04
7.681441e+01	-9.552347e-04
7.725809e+01	-9.663002e-04
7.770433e+01	-9.774938e-04
7.815315e+01	-9.888170e-04
7.860456e+01	-1.000271e-03
7.905857e+01	-1.011858e-03
7.951521e+01	-1.023580e-03
7.997449e+01	-1.035437e-03
8.043642e+01	-1.047431e-03
8.090102e+01	-1.059564e-03
8.136830e+01	-1.071838e-03
8.183828e+01	-1.084254e-03
8.231097e+01	-1.096814e-03
8.278640e+01	-1.109519e-03
8.326457e+01	-1.122372e-03
8.374550e+01	-1.135373e-03
8.422921e+01	-1.148525e-03
8.471572e+01	-1.161829e-03
8.520503e+01	-1.175287e-03
8.569717e+01	-1.188902e-03
8.619215e+01	-1.202673e-03
8.669000e+01	-1.216605e-03
8.719071e+01	-1.230697e-03
8.769432e+01	-1.244953e-03
8.820084e+01	-1.259374e-03
8.871029e+01	-1.273962e-03
8.922267e+01	-1.288719e-03
8.973802e+01	-1.303647e-03
9.025634e+01	-1.318748e-03
9.077766e+01	-1.334024e-03
9.130199e+01	-1.349476e-03
9.182935e+01	-1.365108e-03
9.235975e+01	-1.380921e-03
9.289321e+01	-1.396916e-03
9.342976e+01	-1.413098e-03
9.396941e+01	-1.429466e-03
9.451217e+01	-1.446024e-03
9.505807e+01	-1.462774e-03
9.560712e+01	-1.479717e-03
9.615934e+01	-1.496857e-03
9.671476e+01	-1.514196e-03
9.727338e+01	-1.531735e-03
9.783522e+01	-1.549478e-03
9.840032e+01	-1.567425e-03
9.896867e+01	-1.585581e-03
9.954031e+01	-1.603947e-03
1.001153e+02	-1.622526e-03
1.006935e+02	-1.641320e-03
1.012751e+02	-1.660331e-03
1.018601e+02	-1.679563e-03
1.024484e+02	-1.699017e-03
1.030402e+02	-1.718697e-03
1.036353e+02	-1.738604e-03
1.042339e+02	-1.758743e-03
1.048360e+02	-1.779114e-03
1.054415e+02	-1.799721e-03
1.060505e+02	-1.820567e-03
1.066631e+02	-1.841654e-03
1.072791e+02	-1.862986e-03
1.078988e+02	-1.884564e-03
1.085220e+02	-1.906393e-03
1.091488e+02	-1.928474e-03
1.097793e+02	-1.950811e-03
1.104133e+02	-1.973406e-03
1.110511e+02	-1.996263e-03
1.116925e+02	-2.019385e-03
1.123376e+02	-2.042775e-03
1.129865e+02	-2.066435e-03
1.136391e+02	-2.090370e-03
1.142955e+02	-2.114581e-03
1.149556e+02	-2.139073e-03
1.156196e+02	-2.163849e-03
1.162874e+02	-2.188911e-03
1.169591e+02	-2.214264e-03
1.176347e+02	-2.239910e-03
1.183141e+02	-2.265853e-03
1.189975e+02	-2.292097e-03
1.196848e+02	-2.318644e-03
1.203761e+02	-2.345499e-03
1.210714e+02	-2.372665e-03
1.217707e+02	-2.400145e-03
1.224740e+02	-2.427944e-03
1.231814e+02	-2.456064e-03
1.238929e+02	-2.484510e-03
1.246085e+02	-2.513286e-03
1.253283e+02	-2.542394e-03
1.260522e+02	-2.571840e-03
1.267802e+02	-2.601626e-03
1.275125e+02	-2.631758e-03
1.282490e+02	-2.662238e-03
1.289898e+02	-2.693071e-03
1.297348e+02	-2.724261e-03
1.304842e+02	-2.755813e-03
1.312378e+02	-2.787729e-03
1.319959e+02	-2.820015e-03
1.327583e+02	-2.852675e-03
1.335251e+02	-2.885713e-03
1.342963e+02	-2.919134e-03
1.350720e+02	-2.952941e-03
1.358522e+02	-2.987140e-03
1.366368e+02	-3.021735e-03
1.374260e+02	-3.056730e-03
1.382198e+02	-3.092130e-03
1.390182e+02	-3.127941e-03
1.398211e+02	-3.164165e-03
1.406287e+02	-3.200809e-03
1.414410e+02	-3.237878e-03
1.422579e+02	-3.275375e-03
1.430796e+02	-3.313307e-03
1.439060e+02	-3.351678e-03
1.447372e+02	-3.390493e-03
1.455732e+02	-3.429757e-03
1.464141e+02	-3.469475e-03
1.472597e+02	-3.509654e-03
1.481103e+02	-3.550298e-03
1.489658e+02	-3.591412e-03
1.498262e+02	-3.633002e-03
1.506916e+02	-3.675073e-03
1.515620e+02	-3.717632e-03
1.524374e+02	-3.760683e-03
1.533179e+02	-3.804232e-03
1.542034e+02	-3.848286e-03
1.550941e+02	-3.892849e-03
1.559899e+02	-3.937928e-03
1.568909e+02	-3.983529e-03
1.577971e+02	-4.029658e-03
1.587085e+02	-4.076321e-03
1.596252e+02	-4.123523e-03
1.605472e+02	-4.171272e-03
1.614745e+02	-4.219574e-03
1.624072e+02	-4.268435e-03
1.633453e+02	-4.317861e-03
1.642887e+02	-4.367860e-03
1.652377e+02	-4.418437e-03
1.661921e+02	-4.469599e-03
1.671520e+02	-4.521353e-03
1.681175e+02	-4.573707e-03
1.690885e+02	-4.626666e-03
1.700651e+02	-4.680238e-03
1.710474e+02	-4.734431e-03
1.720354e+02	-4.789250e-03
1.730291e+02	-4.844703e-03
1.740285e+02	-4.900799e-03
1.750337e+02	-4.957543e-03
1.760446e+02	-5.014945e-03
1.770615e+02	-5.073010e-03
1.780842e+02	-5.131747e-03
1.791128e+02	-5.191164e-03
1.801473e+02	-5.251269e-03
1.811878e+02	-5.312069e-03
1.822344e+02	-5.373573e-03
1.832870e+02	-5.435788e-03
1.843456e+02	-5.498723e-03
1.854104e+02	-5.562386e-03
1.864813e+02	-5.626786e-03
1.875584e+02	-5.691931e-03
1.886418e+02	-5.757829e-03
1.897313e+02	-5.824491e-03
1.908272e+02	-5.891923e-03
1.919294e+02	-5.960135e-03
1.930380e+02	-6.029137e-03
1.941530e+02	-6.098937e-03
1.952744e+02	-6.169545e-03
1.964023e+02	-6.240969e-03
1.975367e+02	-6.313219e-03
1.986777e+02	-6.386306e-03
1.998252e+02	-6.460238e-03
2.009794e+02	-6.535025e-03
2.021403e+02	-6.610677e-03
2.033078e+02	-6.687204e-03
2.044821e+02	-6.764617e-03
2.056632e+02	-6.842924e-03
2.068511e+02	-6.922138e-03
2.080459e+02	-7.002268e-03
2.092475e+02	-7.083325e-03
2.104561e+02	-7.165319e-03
2.116717e+02	-7.248262e-03
2.128943e+02	-7.332164e-03
2.141240e+02	-7.417036e-03
2.153608e+02	-7.502890e-03
2.166047e+02	-7.589736e-03
2.178558e+02	-7.677588e-03
2.191141e+02	-7.766455e-03
2.203797e+02	-7.856349e-03
2.216526e+02	-7.947284e-03
2.229329e+02	-8.039270e-03
2.242205e+02	-8.132319e-03
2.255156e+02	-8.226445e-03
2.268182e+02	-8.321659e-03
2.281283e+02	-8.417973e-03
2.294459e+02	-8.515402e-03
2.307712e+02	-8.613957e-03
2.321041e+02	-8.713651e-03
2.334447e+02	-8.814499e-03
2.347931e+02	-8.916512e-03
2.361493e+02	-9.019704e-03
2.375133e+02	-9.124090e-03
2.388851e+02	-9.229682e-03
2.402649e+02	-9.336495e-03
2.416527e+02	-9.444543e-03
2.430484e+02	-9.553839e-03
2.444523e+02	-9.664399e-03
2.458642e+02	-9.776238e-03
2.472843e+02	-9.889369e-03
2.487126e+02	-1.000381e-02
2.501492e+02	-1.011957e-02
2.515940e+02	-1.023667e-02
2.530472e+02	-1.035512e-02
2.545088e+02	-1.047494e-02
2.559789e+02	-1.059615e-02
2.574574e+02	-1.071876e-02
2.589444e+02	-1.084278e-02
2.604401e+02	-1.096824e-02
2.619444e+02	-1.109514e-02
2.634574e+02	-1.122352e-02
2.649791e+02	-1.135337e-02
2.665096e+02	-1.148473e-02
2.680489e+02	-1.161761e-02
2.695972e+02	-1.175202e-02
2.711544e+02	-1.188798e-02
2.727205e+02	-1.202551e-02
2.742958e+02	-1.216464e-02
2.758801e+02	-1.230537e-02
2.774736e+02	-1.244772e-02
2.790762e+02	-1.259172e-02
2.806882e+02	-1.273739e-02
2.823094e+02	-1.288473e-02
2.839400e+02	-1.303378e-02
2.855800e+02	-1.318455e-02
2.872295e+02	-1.333706e-02
2.888886e+02	-1.349133e-02
2.905572e+02	-1.364739e-02
2.922354e+02	-1.380524e-02
2.939234e+02	-1.396492e-02
2.956211e+02	-1.412645e-02
2.973286e+02	-1.428984e-02
2.990459e+02	-1.445511e-02
3.007732e+02	-1.462229e-02
3.025104e+02	-1.479141e-02
3.042577e+02	-1.496247e-02
3.060151e+02	-1.513551e-02
3.077826e+02	-1.531055e-02
3.095604e+02	-1.548761e-02
3.113484e+02	-1.566672e-02
3.131467e+02	-1.584789e-02
3.149554e+02	-1.603115e-02
3.167746e+02	-1.621653e-02
3.186043e+02	-1.640404e-02
3.204445e+02	-1.659372e-02
3.222954e+02	-1.678559e-02
3.241570e+02	-1.697968e-02
3.260293e+02	-1.717600e-02
3.279124e+02	-1.737459e-02
3.298064e+02	-1.757547e-02
3.317114e+02	-1.777867e-02
3.336273e+02	-1.798421e-02
3.355544e+02	-1.819213e-02
3.374925e+02	-1.840244e-02
3.394418e+02	-1.861518e-02
3.414024e+02	-1.883037e-02
3.433744e+02	-1.904804e-02
3.453577e+02	-1.926823e-02
3.473525e+02	-1.949095e-02
3.493588e+02	-1.971625e-02
3.513766e+02	-1.994414e-02
3.534062e+02	-2.017466e-02
3.554474e+02	-2.040784e-02
3.575005e+02	-2.064370e-02
3.595654e+02	-2.088229e-02
3.616422e+02	-2.112362e-02
3.637311e+02	-2.136774e-02
3.658320e+02	-2.161468e-02
3.679450e+02	-2.186446e-02
3.700702e+02	-2.211711e-02
3.722077e+02	-2.237268e-02
3.743576e+02	-2.263120e-02
3.765199e+02	-2.289269e-02
3.786946e+02	-2.315720e-02
3.808820e+02	-2.342476e-02
3.830819e+02	-2.369540e-02
3.852946e+02	-2.396916e-02
3.875200e+02	-2.424607e-02
3.897583e+02	-2.452617e-02
3.920096e+02	-2.480950e-02
3.942738e+02	-2.509609e-02
3.965511e+02	-2.538598e-02
3.988416e+02	-2.567921e-02
4.011452e+02	-2.597582e-02
4.034622e+02	-2.627584e-02
4.057926e+02	-2.657932e-02
4.081365e+02	-2.688629e-02
4.104938e+02	-2.719680e-02
4.128648e+02	-2.751088e-02
4.152495e+02	-2.782858e-02
4.176480e+02	-2.814993e-02
4.200603e+02	-2.847498e-02
4.224866e+02	-2.880378e-02
4.249268e+02	-2.913635e-02
4.273812e+02	-2.947276e-02
4.298497e+02	-2.981303e-02
4.323325e+02	-3.015722e-02
4.348297e+02	-3.050537e-02
4.373412e+02	-3.085752e-02
4.398673e+02	-3.121373e-02
4.424079e+02	-3.157403e-02
4.449633e+02	-3.193847e-02
4.475334e+02	-3.230711e-02
4.501183e+02	-3.267998e-02
4.527182e+02	-3.305714e-02
4.553330e+02	-3.343864e-02
4.579630e+02	-3.382452e-02
4.606082e+02	-3.421484e-02
4.632687e+02	-3.460965e-02
4.659445e+02	-3.500899e-02
4.686358e+02	-3.541292e-02
4.713426e+02	-3.582149e-02
4.740650e+02	-3.623476e-02
4.768032e+02	-3.665277e-02
4.795572e+02	-3.707558e-02
4.823271e+02	-3.750326e-02
4.851130e+02	-3.793584e-02
4.879150e+02	-3.837339e-02
4.907332e+02	-3.881596e-02
4.935676e+02	-3.926362e-02
4.964185e+02	-3.971641e-02
4.992858e+02	-4.017441e-02
5.021696e+02	-4.063766e-02
5.050701e+02	-4.110622e-02
5.079874e+02	-4.158016e-02
5.109215e+02	-4.205954e-02
5.138726e+02	-4.254442e-02
5.168407e+02	-4.303486e-02
5.198259e+02	-4.353093e-02
5.228284e+02	-4.403268e-02
5.258482e+02	-4.454019e-02
5.288855e+02	-4.505352e-02
5.319403e+02	-4.557274e-02
5.350128e+02	-4.609790e-02
5.381030e+02	-4.662908e-02
5.412111e+02	-4.716636e-02
5.443371e+02	-4.770978e-02
5.474812e+02	-4.825944e-02
5.506434e+02	-4.881539e-02
5.538239e+02	-4.937771e-02
5.570228e+02	-4.994647e-02
5.602401e+02	-5.052174e-02
5.634760e+02	-5.110360e-02
5.667306e+02	-5.169212e-02
5.700040e+02	-5.228738e-02
5.732964e+02	-5.288945e-02
5.766077e+02	-5.349841e-02
5.799382e+02	-5.411433e-02
5.832879e+02	-5.473731e-02
5.866569e+02	-5.536740e-02
5.900454e+02	-5.600471e-02
5.934535e+02	-5.664930e-02
5.968813e+02	-5.730127e-02
6.003288e+02	-5.796068e-02
6.037963e+02	-5.862764e-02
6.072838e+02	-5.930221e-02
6.107914e+02	-5.998449e-02
6.143194e+02	-6.067457e-02
6.178676e+02	-6.137253e-02
6.214364e+02	-6.207846e-02
6.250258e+02	-6.279246e-02
6.286359e+02	-6.351460e-02
6.322669e+02	-6.424499e-02
6.359189e+02	-6.498371e-02
6.395919e+02	-6.573087e-02
6.432862e+02	-6.648655e-02
6.470017e+02	-6.725084e-02
6.507388e+02	-6.802386e-02
6.544974e+02	-6.880569e-02
6.582778e+02	-6.959643e-02
6.620800e+02	-7.039619e-02
6.659041e+02	-7.120506e-02
6.697504e+02	-7.202315e-02
6.736188e+02	-7.285056e-02
6.775096e+02	-7.368740e-02
6.814229e+02	-7.453376e-02
6.853587e+02	-7.538976e-02
6.893173e+02	-7.625551e-02
6.932988e+02	-7.713111e-02
6.973033e+02	-7.801667e-02
7.013309e+02	-7.891230e-02
