Frequency(Hz)	Magnitude(dB)
1.000000e+01	-2.117569e+00
1.005776e+01	-2.136917e+00
1.011585e+01	-2.156461e+00
1.017428e+01	-2.176159e+00
1.023305e+01	-2.195933e+00
1.029215e+01	-2.215843e+00
1.035160e+01	-2.235753e+00
1.041139e+01	-2.255973e+00
1.047153e+01	-2.276442e+00
1.053201e+01	-2.296919e+00
1.059284e+01	-2.317602e+00
1.065403e+01	-2.338317e+00
1.071556e+01	-2.359114e+00
1.077746e+01	-2.379928e+00
1.083971e+01	-2.401360e+00
1.090232e+01	-2.422689e+00
1.096529e+01	-2.444284e+00
1.102862e+01	-2.465711e+00
1.109232e+01	-2.487443e+00
1.115639e+01	-2.509325e+00
1.122083e+01	-2.531464e+00
1.128564e+01	-2.553431e+00
1.135083e+01	-2.575804e+00
1.141639e+01	-2.598156e+00
1.148233e+01	-2.621015e+00
1.154865e+01	-2.643556e+00
1.161536e+01	-2.666410e+00
1.168245e+01	-2.689426e+00
1.174992e+01	-2.712517e+00
1.181779e+01	-2.736107e+00
1.188605e+01	-2.759644e+00
1.195470e+01	-2.783318e+00
1.202375e+01	-2.806832e+00
1.209320e+01	-2.831058e+00
1.216305e+01	-2.854857e+00
1.223330e+01	-2.878651e+00
1.230396e+01	-2.903285e+00
1.237503e+01	-2.927700e+00
1.244651e+01	-2.952299e+00
1.251840e+01	-2.977013e+00
1.259070e+01	-3.001784e+00
1.266343e+01	-3.027019e+00
1.273657e+01	-3.052144e+00
1.281014e+01	-3.077156e+00
1.288413e+01	-3.103072e+00
1.295855e+01	-3.128494e+00
1.303339e+01	-3.154152e+00
1.310867e+01	-3.180267e+00
1.318439e+01	-3.206406e+00
1.326054e+01	-3.232566e+00
1.333713e+01	-3.258600e+00
1.341417e+01	-3.285226e+00
1.349165e+01	-3.311749e+00
1.356958e+01	-3.338764e+00
1.364795e+01	-3.365650e+00
1.372678e+01	-3.392383e+00
1.380607e+01	-3.419669e+00
1.388581e+01	-3.447253e+00
1.396602e+01	-3.474645e+00
1.404668e+01	-3.502373e+00
1.412782e+01	-3.530094e+00
1.420942e+01	-3.558103e+00
1.429149e+01	-3.585979e+00
1.437404e+01	-3.614089e+00
1.445706e+01	-3.642515e+00
1.454057e+01	-3.670640e+00
1.462455e+01	-3.699572e+00
1.470902e+01	-3.728300e+00
1.479398e+01	-3.757092e+00
1.487943e+01	-3.786043e+00
1.496537e+01	-3.815068e+00
1.505181e+01	-3.844699e+00
1.513875e+01	-3.874112e+00
1.522619e+01	-3.903648e+00
1.531414e+01	-3.933160e+00
1.540259e+01	-3.963118e+00
1.549156e+01	-3.993175e+00
1.558103e+01	-4.023544e+00
1.567103e+01	-4.053910e+00
1.576155e+01	-4.084327e+00
1.585258e+01	-4.114650e+00
1.594415e+01	-4.145534e+00
1.603624e+01	-4.175980e+00
1.612886e+01	-4.207404e+00
1.622202e+01	-4.238420e+00
1.631572e+01	-4.269558e+00
1.640996e+01	-4.301303e+00
1.650474e+01	-4.332294e+00
1.660008e+01	-4.364001e+00
1.669596e+01	-4.396143e+00
1.679239e+01	-4.427865e+00
1.688938e+01	-4.460007e+00
1.698694e+01	-4.492167e+00
1.708505e+01	-4.524517e+00
1.718373e+01	-4.556951e+00
1.728299e+01	-4.589309e+00
1.738281e+01	-4.622120e+00
1.748322e+01	-4.654807e+00
1.758420e+01	-4.687971e+00
1.768576e+01	-4.720889e+00
1.778792e+01	-4.754064e+00
1.789066e+01	-4.787633e+00
1.799399e+01	-4.821046e+00
1.809793e+01	-4.854811e+00
1.820246e+01	-4.888201e+00
1.830760e+01	-4.922153e+00
1.841334e+01	-4.956157e+00
1.851969e+01	-4.990520e+00
1.862666e+01	-5.024390e+00
1.873425e+01	-5.058898e+00
1.884246e+01	-5.093461e+00
1.895129e+01	-5.127992e+00
1.906075e+01	-5.162744e+00
1.917085e+01	-5.197456e+00
1.928158e+01	-5.232173e+00
1.939295e+01	-5.267736e+00
1.950496e+01	-5.302603e+00
1.961762e+01	-5.338250e+00
1.973093e+01	-5.373711e+00
1.984490e+01	-5.409382e+00
1.995952e+01	-5.445116e+00
2.007480e+01	-5.480313e+00
2.019076e+01	-5.516466e+00
2.030738e+01	-5.552655e+00
2.042467e+01	-5.588695e+00
2.054264e+01	-5.625022e+00
2.066130e+01	-5.661230e+00
2.078064e+01	-5.697645e+00
2.090066e+01	-5.734511e+00
2.102139e+01	-5.771544e+00
2.114280e+01	-5.807958e+00
2.126492e+01	-5.844830e+00
2.138775e+01	-5.882234e+00
2.151128e+01	-5.919089e+00
2.163553e+01	-5.956534e+00
2.176050e+01	-5.993718e+00
2.188619e+01	-6.031716e+00
2.201260e+01	-6.069064e+00
2.213974e+01	-6.106524e+00
2.226762e+01	-6.144249e+00
2.239624e+01	-6.182285e+00
2.252560e+01	-6.220416e+00
2.265571e+01	-6.258630e+00
2.278656e+01	-6.296978e+00
2.291818e+01	-6.335025e+00
2.305055e+01	-6.373808e+00
2.318369e+01	-6.412058e+00
2.331760e+01	-6.451125e+00
2.345228e+01	-6.489533e+00
2.358774e+01	-6.528812e+00
2.372398e+01	-6.567422e+00
2.386101e+01	-6.606510e+00
2.399883e+01	-6.645685e+00
2.413745e+01	-6.684994e+00
2.427686e+01	-6.724344e+00
2.441709e+01	-6.763836e+00
2.455812e+01	-6.803172e+00
2.469997e+01	-6.843171e+00
2.484263e+01	-6.882436e+00
2.498612e+01	-6.922814e+00
2.513044e+01	-6.962288e+00
2.527559e+01	-7.002544e+00
2.542158e+01	-7.042446e+00
2.556842e+01	-7.082159e+00
2.571610e+01	-7.123042e+00
2.586463e+01	-7.163220e+00
2.601403e+01	-7.203366e+00
2.616428e+01	-7.243941e+00
2.631541e+01	-7.284752e+00
2.646740e+01	-7.325706e+00
2.662028e+01	-7.366087e+00
2.677404e+01	-7.407040e+00
2.692868e+01	-7.448131e+00
2.708422e+01	-7.489353e+00
2.724066e+01	-7.530582e+00
2.739800e+01	-7.571409e+00
2.755625e+01	-7.612893e+00
2.771541e+01	-7.654108e+00
2.787550e+01	-7.695980e+00
2.803650e+01	-7.737726e+00
2.819844e+01	-7.778682e+00
2.836131e+01	-7.820853e+00
2.852513e+01	-7.862123e+00
2.868989e+01	-7.904131e+00
2.885560e+01	-7.946467e+00
2.902227e+01	-7.988288e+00
2.918990e+01	-8.030786e+00
2.935850e+01	-8.072647e+00
2.952807e+01	-8.115065e+00
2.969863e+01	-8.157509e+00
2.987016e+01	-8.199501e+00
3.004269e+01	-8.242252e+00
3.021622e+01	-8.285119e+00
3.039075e+01	-8.327531e+00
3.056628e+01	-8.370374e+00
3.074283e+01	-8.413300e+00
3.092040e+01	-8.455624e+00
3.109900e+01	-8.498606e+00
3.127862e+01	-8.542001e+00
3.145929e+01	-8.584981e+00
3.164099e+01	-8.627859e+00
3.182375e+01	-8.670899e+00
3.200756e+01	-8.714377e+00
3.219244e+01	-8.757905e+00
3.237838e+01	-8.800887e+00
3.256540e+01	-8.844592e+00
3.275349e+01	-8.888393e+00
3.294268e+01	-8.931404e+00
3.313295e+01	-8.975184e+00
3.332433e+01	-9.018959e+00
3.351681e+01	-9.062702e+00
3.371040e+01	-9.107237e+00
3.390511e+01	-9.150825e+00
3.410094e+01	-9.194712e+00
3.429791e+01	-9.238248e+00
3.449601e+01	-9.282765e+00
3.469526e+01	-9.327455e+00
3.489566e+01	-9.370833e+00
3.509721e+01	-9.415326e+00
3.529993e+01	-9.459932e+00
3.550382e+01	-9.504226e+00
3.570889e+01	-9.548576e+00
3.591515e+01	-9.592589e+00
3.612259e+01	-9.637800e+00
3.633123e+01	-9.682281e+00
3.654108e+01	-9.727166e+00
3.675214e+01	-9.771360e+00
3.696442e+01	-9.816032e+00
3.717792e+01	-9.861274e+00
3.739266e+01	-9.905850e+00
3.760864e+01	-9.950977e+00
3.782587e+01	-9.996432e+00
3.804435e+01	-1.004154e+01
3.826409e+01	-1.008672e+01
3.848510e+01	-1.013112e+01
3.870739e+01	-1.017700e+01
3.893096e+01	-1.022200e+01
3.915583e+01	-1.026701e+01
3.938199e+01	-1.031271e+01
3.960946e+01	-1.035838e+01
3.983824e+01	-1.040357e+01
4.006834e+01	-1.044882e+01
4.029978e+01	-1.049452e+01
4.053255e+01	-1.054025e+01
4.076666e+01	-1.058524e+01
4.100213e+01	-1.063126e+01
4.123896e+01	-1.067730e+01
4.147715e+01	-1.072239e+01
4.171672e+01	-1.076875e+01
4.195767e+01	-1.081484e+01
4.220002e+01	-1.086012e+01
4.244377e+01	-1.090593e+01
4.268892e+01	-1.095258e+01
4.293549e+01	-1.099818e+01
4.318348e+01	-1.104477e+01
4.343291e+01	-1.109027e+01
4.368377e+01	-1.113646e+01
4.393609e+01	-1.118292e+01
4.418986e+01	-1.122906e+01
4.444510e+01	-1.127532e+01
4.470182e+01	-1.132124e+01
4.496001e+01	-1.136825e+01
4.521970e+01	-1.141434e+01
4.548089e+01	-1.146047e+01
4.574358e+01	-1.150778e+01
4.600779e+01	-1.155396e+01
4.627353e+01	-1.160050e+01
4.654081e+01	-1.164718e+01
4.680963e+01	-1.169350e+01
4.708000e+01	-1.174004e+01
4.735193e+01	-1.178685e+01
4.762543e+01	-1.183361e+01
4.790051e+01	-1.187980e+01
4.817719e+01	-1.192689e+01
4.845545e+01	-1.197376e+01
4.873533e+01	-1.202126e+01
4.901682e+01	-1.206768e+01
4.929994e+01	-1.211454e+01
4.958470e+01	-1.216165e+01
4.987110e+01	-1.220847e+01
5.015915e+01	-1.225581e+01
5.044887e+01	-1.230246e+01
5.074026e+01	-1.234962e+01
5.103333e+01	-1.239704e+01
5.132810e+01	-1.244398e+01
5.162457e+01	-1.249231e+01
5.192275e+01	-1.253871e+01
5.222265e+01	-1.258570e+01
5.252429e+01	-1.263329e+01
5.282767e+01	-1.268071e+01
5.313280e+01	-1.272797e+01
5.343969e+01	-1.277562e+01
5.374836e+01	-1.282321e+01
5.405880e+01	-1.287012e+01
5.437105e+01	-1.291751e+01
5.468509e+01	-1.296579e+01
5.500095e+01	-1.301234e+01
5.531863e+01	-1.306019e+01
5.563815e+01	-1.310777e+01
5.595951e+01	-1.315507e+01
5.628273e+01	-1.320265e+01
5.660782e+01	-1.325047e+01
5.693479e+01	-1.329855e+01
5.726364e+01	-1.334552e+01
5.759439e+01	-1.339355e+01
5.792705e+01	-1.344128e+01
5.826164e+01	-1.348876e+01
5.859815e+01	-1.353687e+01
5.893662e+01	-1.358491e+01
5.927703e+01	-1.363290e+01
5.961941e+01	-1.368107e+01
5.996377e+01	-1.372876e+01
6.031012e+01	-1.377646e+01
6.065847e+01	-1.382474e+01
6.100883e+01	-1.387200e+01
6.136121e+01	-1.392016e+01
6.171563e+01	-1.396877e+01
6.207210e+01	-1.401544e+01
6.243063e+01	-1.406384e+01
6.279122e+01	-1.411208e+01
6.315390e+01	-1.416116e+01
6.351868e+01	-1.420890e+01
6.388556e+01	-1.425680e+01
6.425456e+01	-1.430537e+01
6.462569e+01	-1.435232e+01
6.499897e+01	-1.440111e+01
6.537440e+01	-1.444985e+01
6.575200e+01	-1.449743e+01
6.613178e+01	-1.454574e+01
6.651375e+01	-1.459513e+01
6.689793e+01	-1.464248e+01
6.728433e+01	-1.469148e+01
6.767297e+01	-1.473943e+01
6.806384e+01	-1.478766e+01
6.845698e+01	-1.483660e+01
6.885238e+01	-1.488465e+01
6.925007e+01	-1.493267e+01
6.965005e+01	-1.498177e+01
7.005235e+01	-1.502897e+01
7.045697e+01	-1.507834e+01
7.086393e+01	-1.512676e+01
7.127323e+01	-1.517581e+01
7.168490e+01	-1.522383e+01
7.209895e+01	-1.527249e+01
7.251539e+01	-1.532047e+01
7.293424e+01	-1.536910e+01
7.335551e+01	-1.541787e+01
7.377920e+01	-1.546635e+01
7.420535e+01	-1.551446e+01
7.463396e+01	-1.556367e+01
7.506504e+01	-1.561228e+01
7.549861e+01	-1.566129e+01
7.593469e+01	-1.570954e+01
7.637328e+01	-1.575842e+01
7.681441e+01	-1.580716e+01
7.725809e+01	-1.585537e+01
7.770433e+01	-1.590366e+01
7.815315e+01	-1.595323e+01
7.860456e+01	-1.600067e+01
7.905857e+01	-1.604975e+01
7.951521e+01	-1.609887e+01
7.997449e+01	-1.614796e+01
8.043642e+01	-1.619868e+01
8.090102e+01	-1.624687e+01
8.136830e+01	-1.629473e+01
8.183828e+01	-1.634402e+01
8.231097e+01	-1.639303e+01
8.278640e+01	-1.644158e+01
8.326457e+01	-1.649034e+01
8.374550e+01	-1.653981e+01
8.422921e+01	-1.658677e+01
8.471572e+01	-1.663705e+01
8.520503e+01	-1.668628e+01
8.569717e+01	-1.673549e+01
8.619215e+01	-1.678537e+01
8.669000e+01	-1.683323e+01
8.719071e+01	-1.688279e+01
8.769432e+01	-1.693081e+01
8.820084e+01	-1.697982e+01
8.871029e+01	-1.702955e+01
8.922267e+01	-1.707730e+01
8.973802e+01	-1.712672e+01
9.025634e+01	-1.717657e+01
9.077766e+01	-1.722541e+01
9.130199e+01	-1.727436e+01
9.182935e+01	-1.732349e+01
9.235975e+01	-1.737337e+01
9.289321e+01	-1.742269e+01
9.342976e+01	-1.747125e+01
9.396941e+01	-1.752083e+01
9.451217e+01	-1.756879e+01
9.505807e+01	-1.761874e+01
9.560712e+01	-1.766655e+01
9.615934e+01	-1.771600e+01
9.671476e+01	-1.776620e+01
9.727338e+01	-1.781456e+01
9.783522e+01	-1.786463e+01
9.840032e+01	-1.791445e+01
9.896867e+01	-1.796270e+01
9.954031e+01	-1.801259e+01
1.001153e+02	-1.806243e+01
1.006935e+02	-1.811130e+01
1.012751e+02	-1.816003e+01
1.018601e+02	-1.820806e+01
1.024484e+02	-1.825892e+01
1.030402e+02	-1.830770e+01
1.036353e+02	-1.835771e+01
1.042339e+02	-1.840605e+01
1.048360e+02	-1.845701e+01
1.054415e+02	-1.850528e+01
1.060505e+02	-1.855321e+01
1.066631e+02	-1.860379e+01
1.072791e+02	-1.865341e+01
1.078988e+02	-1.870284e+01
1.085220e+02	-1.875218e+01
1.091488e+02	-1.880026e+01
1.097793e+02	-1.884985e+01
1.104133e+02	-1.889990e+01
1.110511e+02	-1.894908e+01
1.116925e+02	-1.899905e+01
1.123376e+02	-1.904685e+01
1.129865e+02	-1.909743e+01
1.136391e+02	-1.914675e+01
1.142955e+02	-1.919654e+01
1.149556e+02	-1.924735e+01
1.156196e+02	-1.929553e+01
1.162874e+02	-1.934483e+01
1.169591e+02	-1.939321e+01
1.176347e+02	-1.944415e+01
1.183141e+02	-1.949277e+01
1.189975e+02	-1.954230e+01
1.196848e+02	-1.959317e+01
1.203761e+02	-1.964130e+01
1.210714e+02	-1.969048e+01
1.217707e+02	-1.974103e+01
1.224740e+02	-1.979033e+01
1.231814e+02	-1.984129e+01
1.238929e+02	-1.989057e+01
1.246085e+02	-1.993844e+01
1.253283e+02	-1.998862e+01
1.260522e+02	-2.003690e+01
1.267802e+02	-2.008773e+01
1.275125e+02	-2.013609e+01
1.282490e+02	-2.018513e+01
1.289898e+02	-2.023672e+01
1.297348e+02	-2.028574e+01
1.304842e+02	-2.033427e+01
1.312378e+02	-2.038534e+01
1.319959e+02	-2.043423e+01
1.327583e+02	-2.048229e+01
1.335251e+02	-2.053422e+01
1.342963e+02	-2.058366e+01
1.350720e+02	-2.063345e+01
1.358522e+02	-2.068104e+01
1.366368e+02	-2.073234e+01
1.374260e+02	-2.078138e+01
1.382198e+02	-2.083300e+01
1.390182e+02	-2.088028e+01
1.398211e+02	-2.093086e+01
1.406287e+02	-2.098000e+01
1.414410e+02	-2.102825e+01
1.422579e+02	-2.107827e+01
1.430796e+02	-2.113056e+01
1.439060e+02	-2.117874e+01
1.447372e+02	-2.122872e+01
1.455732e+02	-2.127765e+01
1.464141e+02	-2.132920e+01
1.472597e+02	-2.137958e+01
1.481103e+02	-2.142633e+01
1.489658e+02	-2.147564e+01
1.498262e+02	-2.152598e+01
1.506916e+02	-2.157550e+01
1.515620e+02	-2.162488e+01
1.524374e+02	-2.167489e+01
1.533179e+02	-2.172363e+01
1.542034e+02	-2.177387e+01
1.550941e+02	-2.182611e+01
1.559899e+02	-2.187413e+01
1.568909e+02	-2.192223e+01
1.577971e+02	-2.197200e+01
1.587085e+02	-2.202393e+01
1.596252e+02	-2.207320e+01
1.605472e+02	-2.212343e+01
1.614745e+02	-2.217357e+01
1.624072e+02	-2.222238e+01
1.633453e+02	-2.227342e+01
1.642887e+02	-2.232104e+01
1.652377e+02	-2.237062e+01
1.661921e+02	-2.242256e+01
1.671520e+02	-2.247190e+01
1.681175e+02	-2.252081e+01
1.690885e+02	-2.257155e+01
1.700651e+02	-2.262013e+01
1.710474e+02	-2.266944e+01
1.720354e+02	-2.272045e+01
1.730291e+02	-2.277084e+01
1.740285e+02	-2.281939e+01
1.750337e+02	-2.287032e+01
1.760446e+02	-2.291875e+01
1.770615e+02	-2.296925e+01
1.780842e+02	-2.301884e+01
1.791128e+02	-2.306764e+01
1.801473e+02	-2.311581e+01
1.811878e+02	-2.316932e+01
1.822344e+02	-2.321809e+01
1.832870e+02	-2.326915e+01
1.843456e+02	-2.331539e+01
1.854104e+02	-2.336802e+01
1.864813e+02	-2.341851e+01
1.875584e+02	-2.346620e+01
1.886418e+02	-2.351533e+01
1.897313e+02	-2.356556e+01
1.908272e+02	-2.361561e+01
1.919294e+02	-2.366705e+01
1.930380e+02	-2.371519e+01
1.941530e+02	-2.376620e+01
1.952744e+02	-2.381466e+01
1.964023e+02	-2.386876e+01
1.975367e+02	-2.391677e+01
1.986777e+02	-2.396433e+01
1.998252e+02	-2.401586e+01
2.009794e+02	-2.406774e+01
2.021403e+02	-2.411805e+01
2.033078e+02	-2.416615e+01
2.044821e+02	-2.421492e+01
2.056632e+02	-2.426688e+01
2.068511e+02	-2.431760e+01
2.080459e+02	-2.436297e+01
2.092475e+02	-2.441598e+01
2.104561e+02	-2.446448e+01
2.116717e+02	-2.451068e+01
2.128943e+02	-2.456649e+01
2.141240e+02	-2.461374e+01
2.153608e+02	-2.466310e+01
2.166047e+02	-2.471454e+01
2.178558e+02	-2.476384e+01
2.191141e+02	-2.481070e+01
2.203797e+02	-2.486337e+01
2.216526e+02	-2.491198e+01
2.229329e+02	-2.496448e+01
2.242205e+02	-2.501265e+01
2.255156e+02	-2.506262e+01
2.268182e+02	-2.511391e+01
2.281283e+02	-2.516136e+01
2.294459e+02	-2.521496e+01
2.307712e+02	-2.526484e+01
2.321041e+02	-2.531190e+01
2.334447e+02	-2.536324e+01
2.347931e+02	-2.541303e+01
2.361493e+02	-2.546265e+01
2.375133e+02	-2.551174e+01
2.388851e+02	-2.556175e+01
2.402649e+02	-2.561255e+01
2.416527e+02	-2.566267e+01
2.430484e+02	-2.570944e+01
2.444523e+02	-2.576299e+01
2.458642e+02	-2.581072e+01
2.472843e+02	-2.586315e+01
2.487126e+02	-2.591385e+01
2.501492e+02	-2.595954e+01
2.515940e+02	-2.601178e+01
2.530472e+02	-2.605946e+01
2.545088e+02	-2.611302e+01
2.559789e+02	-2.616064e+01
2.574574e+02	-2.621037e+01
2.589444e+02	-2.625943e+01
2.604401e+02	-2.631157e+01
2.619444e+02	-2.636124e+01
2.634574e+02	-2.641237e+01
2.649791e+02	-2.646201e+01
2.665096e+02	-2.651200e+01
2.680489e+02	-2.656153e+01
2.695972e+02	-2.661286e+01
2.711544e+02	-2.666160e+01
2.727205e+02	-2.671076e+01
2.742958e+02	-2.676200e+01
2.758801e+02	-2.680918e+01
2.774736e+02	-2.685837e+01
2.790762e+02	-2.690637e+01
2.806882e+02	-2.696136e+01
2.823094e+02	-2.701081e+01
2.839400e+02	-2.706237e+01
2.855800e+02	-2.711261e+01
2.872295e+02	-2.716242e+01
2.888886e+02	-2.721295e+01
2.905572e+02	-2.725877e+01
2.922354e+02	-2.731114e+01
2.939234e+02	-2.736082e+01
2.956211e+02	-2.741081e+01
2.973286e+02	-2.746341e+01
2.990459e+02	-2.751070e+01
3.007732e+02	-2.756353e+01
3.025104e+02	-2.761080e+01
3.042577e+02	-2.765974e+01
3.060151e+02	-2.771374e+01
3.077826e+02	-2.776505e+01
3.095604e+02	-2.781275e+01
3.113484e+02	-2.786425e+01
3.131467e+02	-2.790995e+01
3.149554e+02	-2.796216e+01
3.167746e+02	-2.801360e+01
3.186043e+02	-2.806205e+01
3.204445e+02	-2.810943e+01
3.222954e+02	-2.816294e+01
3.241570e+02	-2.820784e+01
3.260293e+02	-2.826107e+01
3.279124e+02	-2.831363e+01
3.298064e+02	-2.835859e+01
3.317114e+02	-2.841254e+01
3.336273e+02	-2.846502e+01
3.355544e+02	-2.851467e+01
3.374925e+02	-2.856468e+01
3.394418e+02	-2.860811e+01
3.414024e+02	-2.866162e+01
3.433744e+02	-2.871019e+01
3.453577e+02	-2.876198e+01
3.473525e+02	-2.881505e+01
3.493588e+02	-2.886146e+01
3.513766e+02	-2.890966e+01
3.534062e+02	-2.896129e+01
3.554474e+02	-2.901175e+01
3.575005e+02	-2.906339e+01
3.595654e+02	-2.911297e+01
3.616422e+02	-2.916052e+01
3.637311e+02	-2.921335e+01
3.658320e+02	-2.926205e+01
3.679450e+02	-2.931291e+01
3.700702e+02	-2.936391e+01
3.722077e+02	-2.941572e+01
3.743576e+02	-2.946382e+01
3.765199e+02	-2.951500e+01
3.786946e+02	-2.956368e+01
3.808820e+02	-2.961001e+01
3.830819e+02	-2.966589e+01
3.852946e+02	-2.971060e+01
3.875200e+02	-2.976313e+01
3.897583e+02	-2.981170e+01
3.920096e+02	-2.986045e+01
3.942738e+02	-2.991306e+01
3.965511e+02	-2.996339e+01
3.988416e+02	-3.000793e+01
4.011452e+02	-3.006827e+01
4.034622e+02	-3.011371e+01
4.057926e+02	-3.016673e+01
4.081365e+02	-3.021105e+01
4.104938e+02	-3.026082e+01
4.128648e+02	-3.031430e+01
4.152495e+02	-3.037028e+01
4.176480e+02	-3.041421e+01
4.200603e+02	-3.046284e+01
4.224866e+02	-3.050806e+01
4.249268e+02	-3.056945e+01
4.273812e+02	-3.061110e+01
4.298497e+02	-3.066421e+01
4.323325e+02	-3.071407e+01
4.348297e+02	-3.076548e+01
4.373412e+02	-3.081525e+01
4.398673e+02	-3.086747e+01
4.424079e+02	-3.091999e+01
4.449633e+02	-3.097026e+01
4.475334e+02	-3.101708e+01
4.501183e+02	-3.106557e+01
4.527182e+02	-3.111984e+01
4.553330e+02	-3.116622e+01
4.579630e+02	-3.121855e+01
4.606082e+02	-3.127021e+01
4.632687e+02	-3.132128e+01
4.659445e+02	-3.136579e+01
4.686358e+02	-3.141869e+01
4.713426e+02	-3.147038e+01
4.740650e+02	-3.152060e+01
4.768032e+02	-3.157023e+01
4.795572e+02	-3.161505e+01
4.823271e+02	-3.167283e+01
4.851130e+02	-3.171813e+01
4.879150e+02	-3.177624e+01
4.907332e+02	-3.181987e+01
4.935676e+02	-3.186532e+01
4.964185e+02	-3.191599e+01
4.992858e+02	-3.196168e+01
5.021696e+02	-3.201545e+01
5.050701e+02	-3.206656e+01
5.079874e+02	-3.212051e+01
5.109215e+02	-3.216934e+01
5.138726e+02	-3.222202e+01
5.168407e+02	-3.227178e+01
5.198259e+02	-3.232015e+01
5.228284e+02	-3.237484e+01
5.258482e+02	-3.242125e+01
5.288855e+02	-3.247432e+01
5.319403e+02	-3.252056e+01
5.350128e+02	-3.256904e+01
5.381030e+02	-3.262711e+01
5.412111e+02	-3.266974e+01
5.443371e+02	-3.272295e+01
5.474812e+02	-3.277723e+01
5.506434e+02	-3.282795e+01
5.538239e+02	-3.286841e+01
5.570228e+02	-3.292759e+01
5.602401e+02	-3.297760e+01
5.634760e+02	-3.302333e+01
5.667306e+02	-3.307276e+01
5.700040e+02	-3.312609e+01
5.732964e+02	-3.318280e+01
5.766077e+02	-3.322747e+01
5.799382e+02	-3.328033e+01
5.832879e+02	-3.332713e+01
5.866569e+02	-3.337812e+01
5.900454e+02	-3.342816e+01
5.934535e+02	-3.348167e+01
5.968813e+02	-3.352445e+01
6.003288e+02	-3.357867e+01
6.037963e+02	-3.362544e+01
6.072838e+02	-3.367808e+01
6.107914e+02	-3.373258e+01
6.143194e+02	-3.377405e+01
6.178676e+02	-3.382448e+01
6.214364e+02	-3.388203e+01
6.250258e+02	-3.393233e+01
6.286359e+02	-3.397912e+01
6.322669e+02	-3.403598e+01
6.359189e+02	-3.407526e+01
6.395919e+02	-3.414127e+01
6.432862e+02	-3.417228e+01
6.470017e+02	-3.423304e+01
6.507388e+02	-3.428116e+01
6.544974e+02	-3.433295e+01
6.582778e+02	-3.438427e+01
6.620800e+02	-3.443383e+01
6.659041e+02	-3.448515e+01
6.697504e+02	-3.453521e+01
6.736188e+02	-3.458725e+01
6.775096e+02	-3.464198e+01
6.814229e+02	-3.469212e+01
6.853587e+02	-3.474306e+01
6.893173e+02	-3.478822e+01
6.932988e+02	-3.483962e+01
6.973033e+02	-3.489188e+01
7.013309e+02	-3.492912e+01
