Frequency(Hz)	Magnitude(dB)
1.000000e+01	-1.656211e-05
1.005776e+01	-1.675398e-05
1.011585e+01	-1.694808e-05
1.017428e+01	-1.714443e-05
1.023305e+01	-1.734305e-05
1.029215e+01	-1.754398e-05
1.035160e+01	-1.774723e-05
1.041139e+01	-1.795284e-05
1.047153e+01	-1.816082e-05
1.053201e+01	-1.837122e-05
1.059284e+01	-1.858406e-05
1.065403e+01	-1.879936e-05
1.071556e+01	-1.901715e-05
1.077746e+01	-1.923747e-05
1.083971e+01	-1.946034e-05
1.090232e+01	-1.968580e-05
1.096529e+01	-1.991386e-05
1.102862e+01	-2.014457e-05
1.109232e+01	-2.037795e-05
1.115639e+01	-2.061403e-05
1.122083e+01	-2.085285e-05
1.128564e+01	-2.109444e-05
1.135083e+01	-2.133882e-05
1.141639e+01	-2.158604e-05
1.148233e+01	-2.183612e-05
1.154865e+01	-2.208909e-05
1.161536e+01	-2.234500e-05
1.168245e+01	-2.260387e-05
1.174992e+01	-2.286574e-05
1.181779e+01	-2.313065e-05
1.188605e+01	-2.339862e-05
1.195470e+01	-2.366970e-05
1.202375e+01	-2.394392e-05
1.209320e+01	-2.422132e-05
1.216305e+01	-2.450193e-05
1.223330e+01	-2.478579e-05
1.230396e+01	-2.507294e-05
1.237503e+01	-2.536341e-05
1.244651e+01	-2.565726e-05
1.251840e+01	-2.595450e-05
1.259070e+01	-2.625519e-05
1.266343e+01	-2.655936e-05
1.273657e+01	-2.686706e-05
1.281014e+01	-2.717832e-05
1.288413e+01	-2.749319e-05
1.295855e+01	-2.781170e-05
1.303339e+01	-2.813391e-05
1.310867e+01	-2.845985e-05
1.318439e+01	-2.878956e-05
1.326054e+01	-2.912310e-05
1.333713e+01	-2.946049e-05
1.341417e+01	-2.980180e-05
1.349165e+01	-3.014706e-05
1.356958e+01	-3.049632e-05
1.364795e+01	-3.084963e-05
1.372678e+01	-3.120703e-05
1.380607e+01	-3.156857e-05
1.388581e+01	-3.193430e-05
1.396602e+01	-3.230427e-05
1.404668e+01	-3.267852e-05
1.412782e+01	-3.305711e-05
1.420942e+01	-3.344008e-05
1.429149e+01	-3.382749e-05
1.437404e+01	-3.421939e-05
1.445706e+01	-3.461583e-05
1.454057e+01	-3.501687e-05
1.462455e+01	-3.542254e-05
1.470902e+01	-3.583292e-05
1.479398e+01	-3.624806e-05
1.487943e+01	-3.666800e-05
1.496537e+01	-3.709280e-05
1.505181e+01	-3.752253e-05
1.513875e+01	-3.795724e-05
1.522619e+01	-3.839698e-05
1.531414e+01	-3.884182e-05
1.540259e+01	-3.929181e-05
1.549156e+01	-3.974702e-05
1.558103e+01	-4.020750e-05
1.567103e+01	-4.067331e-05
1.576155e+01	-4.114452e-05
1.585258e+01	-4.162119e-05
1.594415e+01	-4.210338e-05
1.603624e+01	-4.259115e-05
1.612886e+01	-4.308458e-05
1.622202e+01	-4.358373e-05
1.631572e+01	-4.408865e-05
1.640996e+01	-4.459943e-05
1.650474e+01	-4.511612e-05
1.660008e+01	-4.563880e-05
1.669596e+01	-4.616754e-05
1.679239e+01	-4.670240e-05
1.688938e+01	-4.724346e-05
1.698694e+01	-4.779078e-05
1.708505e+01	-4.834445e-05
1.718373e+01	-4.890453e-05
1.728299e+01	-4.947110e-05
1.738281e+01	-5.004423e-05
1.748322e+01	-5.062401e-05
1.758420e+01	-5.121050e-05
1.768576e+01	-5.180378e-05
1.778792e+01	-5.240394e-05
1.789066e+01	-5.301105e-05
1.799399e+01	-5.362519e-05
1.809793e+01	-5.424645e-05
1.820246e+01	-5.487491e-05
1.830760e+01	-5.551065e-05
1.841334e+01	-5.615375e-05
1.851969e+01	-5.680430e-05
1.862666e+01	-5.746239e-05
1.873425e+01	-5.812810e-05
1.884246e+01	-5.880153e-05
1.895129e+01	-5.948276e-05
1.906075e+01	-6.017188e-05
1.917085e+01	-6.086898e-05
1.928158e+01	-6.157416e-05
1.939295e+01	-6.228751e-05
1.950496e+01	-6.300912e-05
1.961762e+01	-6.373909e-05
1.973093e+01	-6.447752e-05
1.984490e+01	-6.522451e-05
1.995952e+01	-6.598015e-05
2.007480e+01	-6.674454e-05
2.019076e+01	-6.751779e-05
2.030738e+01	-6.829999e-05
2.042467e+01	-6.909126e-05
2.054264e+01	-6.989170e-05
2.066130e+01	-7.070141e-05
2.078064e+01	-7.152049e-05
2.090066e+01	-7.234907e-05
2.102139e+01	-7.318725e-05
2.114280e+01	-7.403514e-05
2.126492e+01	-7.489285e-05
2.138775e+01	-7.576049e-05
2.151128e+01	-7.663819e-05
2.163553e+01	-7.752606e-05
2.176050e+01	-7.842421e-05
2.188619e+01	-7.933277e-05
2.201260e+01	-8.025186e-05
2.213974e+01	-8.118159e-05
2.226762e+01	-8.212209e-05
2.239624e+01	-8.307349e-05
2.252560e+01	-8.403591e-05
2.265571e+01	-8.500948e-05
2.278656e+01	-8.599433e-05
2.291818e+01	-8.699058e-05
2.305055e+01	-8.799839e-05
2.318369e+01	-8.901786e-05
2.331760e+01	-9.004915e-05
2.345228e+01	-9.109238e-05
2.358774e+01	-9.214770e-05
2.372398e+01	-9.321524e-05
2.386101e+01	-9.429516e-05
2.399883e+01	-9.538758e-05
2.413745e+01	-9.649266e-05
2.427686e+01	-9.761054e-05
2.441709e+01	-9.874138e-05
2.455812e+01	-9.988531e-05
2.469997e+01	-1.010425e-04
2.484263e+01	-1.022131e-04
2.498612e+01	-1.033972e-04
2.513044e+01	-1.045951e-04
2.527559e+01	-1.058069e-04
2.542158e+01	-1.070326e-04
2.556842e+01	-1.082726e-04
2.571610e+01	-1.095270e-04
2.586463e+01	-1.107959e-04
2.601403e+01	-1.120795e-04
2.616428e+01	-1.133779e-04
2.631541e+01	-1.146914e-04
2.646740e+01	-1.160201e-04
2.662028e+01	-1.173642e-04
2.677404e+01	-1.187239e-04
2.692868e+01	-1.200993e-04
2.708422e+01	-1.214907e-04
2.724066e+01	-1.228982e-04
2.739800e+01	-1.243220e-04
2.755625e+01	-1.257623e-04
2.771541e+01	-1.272192e-04
2.787550e+01	-1.286931e-04
2.803650e+01	-1.301840e-04
2.819844e+01	-1.316922e-04
2.836131e+01	-1.332179e-04
2.852513e+01	-1.347612e-04
2.868989e+01	-1.363224e-04
2.885560e+01	-1.379017e-04
2.902227e+01	-1.394993e-04
2.918990e+01	-1.411155e-04
2.935850e+01	-1.427503e-04
2.952807e+01	-1.444041e-04
2.969863e+01	-1.460770e-04
2.987016e+01	-1.477693e-04
3.004269e+01	-1.494812e-04
3.021622e+01	-1.512130e-04
3.039075e+01	-1.529648e-04
3.056628e+01	-1.547369e-04
3.074283e+01	-1.565295e-04
3.092040e+01	-1.583429e-04
3.109900e+01	-1.601774e-04
3.127862e+01	-1.620330e-04
3.145929e+01	-1.639102e-04
3.164099e+01	-1.658091e-04
3.182375e+01	-1.677300e-04
3.200756e+01	-1.696732e-04
3.219244e+01	-1.716388e-04
3.237838e+01	-1.736273e-04
3.256540e+01	-1.756388e-04
3.275349e+01	-1.776735e-04
3.294268e+01	-1.797319e-04
3.313295e+01	-1.818141e-04
3.332433e+01	-1.839204e-04
3.351681e+01	-1.860511e-04
3.371040e+01	-1.882066e-04
3.390511e+01	-1.903869e-04
3.410094e+01	-1.925926e-04
3.429791e+01	-1.948238e-04
3.449601e+01	-1.970808e-04
3.469526e+01	-1.993640e-04
3.489566e+01	-2.016736e-04
3.509721e+01	-2.040100e-04
3.529993e+01	-2.063735e-04
3.550382e+01	-2.087643e-04
3.570889e+01	-2.111828e-04
3.591515e+01	-2.136294e-04
3.612259e+01	-2.161043e-04
3.633123e+01	-2.186078e-04
3.654108e+01	-2.211404e-04
3.675214e+01	-2.237023e-04
3.696442e+01	-2.262939e-04
3.717792e+01	-2.289155e-04
3.739266e+01	-2.315675e-04
3.760864e+01	-2.342502e-04
3.782587e+01	-2.369640e-04
3.804435e+01	-2.397092e-04
3.826409e+01	-2.424862e-04
3.848510e+01	-2.452954e-04
3.870739e+01	-2.481371e-04
3.893096e+01	-2.510118e-04
3.915583e+01	-2.539197e-04
3.938199e+01	-2.568614e-04
3.960946e+01	-2.598371e-04
3.983824e+01	-2.628473e-04
4.006834e+01	-2.658924e-04
4.029978e+01	-2.689727e-04
4.053255e+01	-2.720887e-04
4.076666e+01	-2.752409e-04
4.100213e+01	-2.784295e-04
4.123896e+01	-2.816551e-04
4.147715e+01	-2.849180e-04
4.171672e+01	-2.882188e-04
4.195767e+01	-2.915577e-04
4.220002e+01	-2.949354e-04
4.244377e+01	-2.983522e-04
4.268892e+01	-3.018086e-04
4.293549e+01	-3.053050e-04
4.318348e+01	-3.088419e-04
4.343291e+01	-3.124198e-04
4.368377e+01	-3.160391e-04
4.393609e+01	-3.197004e-04
4.418986e+01	-3.234041e-04
4.444510e+01	-3.271507e-04
4.470182e+01	-3.309407e-04
4.496001e+01	-3.347745e-04
4.521970e+01	-3.386528e-04
4.548089e+01	-3.425761e-04
4.574358e+01	-3.465448e-04
4.600779e+01	-3.505594e-04
4.627353e+01	-3.546206e-04
4.654081e+01	-3.587288e-04
4.680963e+01	-3.628846e-04
4.708000e+01	-3.670885e-04
4.735193e+01	-3.713412e-04
4.762543e+01	-3.756431e-04
4.790051e+01	-3.799948e-04
4.817719e+01	-3.843970e-04
4.845545e+01	-3.888501e-04
4.873533e+01	-3.933548e-04
4.901682e+01	-3.979118e-04
4.929994e+01	-4.025215e-04
4.958470e+01	-4.071846e-04
4.987110e+01	-4.119017e-04
5.015915e+01	-4.166735e-04
5.044887e+01	-4.215005e-04
5.074026e+01	-4.263835e-04
5.103333e+01	-4.313230e-04
5.132810e+01	-4.363197e-04
5.162457e+01	-4.413744e-04
5.192275e+01	-4.464875e-04
5.222265e+01	-4.516599e-04
5.252429e+01	-4.568923e-04
5.282767e+01	-4.621852e-04
5.313280e+01	-4.675395e-04
5.343969e+01	-4.729558e-04
5.374836e+01	-4.784348e-04
5.405880e+01	-4.839773e-04
5.437105e+01	-4.895840e-04
5.468509e+01	-4.952556e-04
5.500095e+01	-5.009929e-04
5.531863e+01	-5.067967e-04
5.563815e+01	-5.126678e-04
5.595951e+01	-5.186068e-04
5.628273e+01	-5.246147e-04
5.660782e+01	-5.306921e-04
5.693479e+01	-5.368399e-04
5.726364e+01	-5.430590e-04
5.759439e+01	-5.493501e-04
5.792705e+01	-5.557140e-04
5.826164e+01	-5.621517e-04
5.859815e+01	-5.686640e-04
5.893662e+01	-5.752517e-04
5.927703e+01	-5.819157e-04
5.961941e+01	-5.886569e-04
5.996377e+01	-5.954762e-04
6.031012e+01	-6.023744e-04
6.065847e+01	-6.093526e-04
6.100883e+01	-6.164116e-04
6.136121e+01	-6.235524e-04
6.171563e+01	-6.307759e-04
6.207210e+01	-6.380831e-04
6.243063e+01	-6.454749e-04
6.279122e+01	-6.529524e-04
6.315390e+01	-6.605164e-04
6.351868e+01	-6.681681e-04
6.388556e+01	-6.759084e-04
6.425456e+01	-6.837384e-04
6.462569e+01	-6.916590e-04
6.499897e+01	-6.996714e-04
6.537440e+01	-7.077767e-04
6.575200e+01	-7.159758e-04
6.613178e+01	-7.242699e-04
6.651375e+01	-7.326600e-04
6.689793e+01	-7.411474e-04
6.728433e+01	-7.497330e-04
6.767297e+01	-7.584181e-04
6.806384e+01	-7.672038e-04
6.845698e+01	-7.760913e-04
6.885238e+01	-7.850817e-04
6.925007e+01	-7.941763e-04
6.965005e+01	-8.033762e-04
7.005235e+01	-8.126826e-04
7.045697e+01	-8.220969e-04
7.086393e+01	-8.316202e-04
7.127323e+01	-8.412538e-04
7.168490e+01	-8.509990e-04
7.209895e+01	-8.608571e-04
7.251539e+01	-8.708294e-04
7.293424e+01	-8.809171e-04
7.335551e+01	-8.911217e-04
7.377920e+01	-9.014446e-04
7.420535e+01	-9.118869e-04
7.463396e+01	-9.224503e-04
7.506504e+01	-9.331360e-04
7.549861e+01	-9.439454e-04
7.593469e+01	-9.548801e-04
7.637328e+01	-9.659414e-04
7.681441e+01	-9.771308e-04
7.725809e+01	-9.884499e-04
7.770433e+01	-9.999000e-04
7.815315e+01	-1.011483e-03
7.860456e+01	-1.023200e-03
7.905857e+01	-1.035052e-03
7.951521e+01	-1.047042e-03
7.997449e+01	-1.059171e-03
8.043642e+01	-1.071440e-03
8.090102e+01	-1.083852e-03
8.136830e+01	-1.096407e-03
8.183828e+01	-1.109107e-03
8.231097e+01	-1.121955e-03
8.278640e+01	-1.134951e-03
8.326457e+01	-1.148098e-03
8.374550e+01	-1.161398e-03
8.422921e+01	-1.174851e-03
8.471572e+01	-1.188460e-03
8.520503e+01	-1.202227e-03
8.569717e+01	-1.216153e-03
8.619215e+01	-1.230240e-03
8.669000e+01	-1.244491e-03
8.719071e+01	-1.258907e-03
8.769432e+01	-1.273489e-03
8.820084e+01	-1.288241e-03
8.871029e+01	-1.303163e-03
8.922267e+01	-1.318259e-03
8.973802e+01	-1.333529e-03
9.025634e+01	-1.348975e-03
9.077766e+01	-1.364601e-03
9.130199e+01	-1.380408e-03
9.182935e+01	-1.396398e-03
9.235975e+01	-1.412573e-03
9.289321e+01	-1.428935e-03
9.342976e+01	-1.445487e-03
9.396941e+01	-1.462231e-03
9.451217e+01	-1.479168e-03
9.505807e+01	-1.496302e-03
9.560712e+01	-1.513634e-03
9.615934e+01	-1.531166e-03
9.671476e+01	-1.548902e-03
9.727338e+01	-1.566843e-03
9.783522e+01	-1.584992e-03
9.840032e+01	-1.603352e-03
9.896867e+01	-1.621923e-03
9.954031e+01	-1.640710e-03
1.001153e+02	-1.659715e-03
1.006935e+02	-1.678939e-03
1.012751e+02	-1.698386e-03
1.018601e+02	-1.718059e-03
1.024484e+02	-1.737959e-03
1.030402e+02	-1.758090e-03
1.036353e+02	-1.778453e-03
1.042339e+02	-1.799053e-03
1.048360e+02	-1.819891e-03
1.054415e+02	-1.840970e-03
1.060505e+02	-1.862294e-03
1.066631e+02	-1.883865e-03
1.072791e+02	-1.905685e-03
1.078988e+02	-1.927758e-03
1.085220e+02	-1.950086e-03
1.091488e+02	-1.972673e-03
1.097793e+02	-1.995522e-03
1.104133e+02	-2.018635e-03
1.110511e+02	-2.042016e-03
1.116925e+02	-2.065668e-03
1.123376e+02	-2.089594e-03
1.129865e+02	-2.113796e-03
1.136391e+02	-2.138279e-03
1.142955e+02	-2.163045e-03
1.149556e+02	-2.188099e-03
1.156196e+02	-2.213442e-03
1.162874e+02	-2.239078e-03
1.169591e+02	-2.265012e-03
1.176347e+02	-2.291246e-03
1.183141e+02	-2.317783e-03
1.189975e+02	-2.344628e-03
1.196848e+02	-2.371784e-03
1.203761e+02	-2.399254e-03
1.210714e+02	-2.427042e-03
1.217707e+02	-2.455152e-03
1.224740e+02	-2.483588e-03
1.231814e+02	-2.512352e-03
1.238929e+02	-2.541450e-03
1.246085e+02	-2.570885e-03
1.253283e+02	-2.600660e-03
1.260522e+02	-2.630780e-03
1.267802e+02	-2.661249e-03
1.275125e+02	-2.692071e-03
1.282490e+02	-2.723250e-03
1.289898e+02	-2.754789e-03
1.297348e+02	-2.786694e-03
1.304842e+02	-2.818968e-03
1.312378e+02	-2.851616e-03
1.319959e+02	-2.884641e-03
1.327583e+02	-2.918050e-03
1.335251e+02	-2.951844e-03
1.342963e+02	-2.986031e-03
1.350720e+02	-3.020612e-03
1.358522e+02	-3.055595e-03
1.366368e+02	-3.090982e-03
1.374260e+02	-3.126779e-03
1.382198e+02	-3.162990e-03
1.390182e+02	-3.199621e-03
1.398211e+02	-3.236675e-03
1.406287e+02	-3.274159e-03
1.414410e+02	-3.312076e-03
1.422579e+02	-3.350433e-03
1.430796e+02	-3.389233e-03
1.439060e+02	-3.428483e-03
1.447372e+02	-3.468187e-03
1.455732e+02	-3.508351e-03
1.464141e+02	-3.548979e-03
1.472597e+02	-3.590078e-03
1.481103e+02	-3.631652e-03
1.489658e+02	-3.673708e-03
1.498262e+02	-3.716251e-03
1.506916e+02	-3.759286e-03
1.515620e+02	-3.802819e-03
1.524374e+02	-3.846856e-03
1.533179e+02	-3.891403e-03
1.542034e+02	-3.936465e-03
1.550941e+02	-3.982049e-03
1.559899e+02	-4.028161e-03
1.568909e+02	-4.074806e-03
1.577971e+02	-4.121992e-03
1.587085e+02	-4.169723e-03
1.596252e+02	-4.218007e-03
1.605472e+02	-4.266850e-03
1.614745e+02	-4.316257e-03
1.624072e+02	-4.366237e-03
1.633453e+02	-4.416795e-03
1.642887e+02	-4.467939e-03
1.652377e+02	-4.519674e-03
1.661921e+02	-4.572008e-03
1.671520e+02	-4.624948e-03
1.681175e+02	-4.678500e-03
1.690885e+02	-4.732672e-03
1.700651e+02	-4.787471e-03
1.710474e+02	-4.842904e-03
1.720354e+02	-4.898978e-03
1.730291e+02	-4.955702e-03
1.740285e+02	-5.013082e-03
1.750337e+02	-5.071126e-03
1.760446e+02	-5.129841e-03
1.770615e+02	-5.189236e-03
1.780842e+02	-5.249318e-03
1.791128e+02	-5.310096e-03
1.801473e+02	-5.371576e-03
1.811878e+02	-5.433768e-03
1.822344e+02	-5.496680e-03
1.832870e+02	-5.560320e-03
1.843456e+02	-5.624696e-03
1.854104e+02	-5.689816e-03
1.864813e+02	-5.755690e-03
1.875584e+02	-5.822327e-03
1.886418e+02	-5.889734e-03
1.897313e+02	-5.957921e-03
1.908272e+02	-6.026897e-03
1.919294e+02	-6.096671e-03
1.930380e+02	-6.167252e-03
1.941530e+02	-6.238650e-03
1.952744e+02	-6.310874e-03
1.964023e+02	-6.383933e-03
1.975367e+02	-6.457837e-03
1.986777e+02	-6.532597e-03
1.998252e+02	-6.608221e-03
2.009794e+02	-6.684719e-03
2.021403e+02	-6.762103e-03
2.033078e+02	-6.840382e-03
2.044821e+02	-6.919566e-03
2.056632e+02	-6.999666e-03
2.068511e+02	-7.080693e-03
2.080459e+02	-7.162657e-03
2.092475e+02	-7.245568e-03
2.104561e+02	-7.329439e-03
2.116717e+02	-7.414280e-03
2.128943e+02	-7.500102e-03
2.141240e+02	-7.586916e-03
2.153608e+02	-7.674735e-03
2.166047e+02	-7.763569e-03
2.178558e+02	-7.853430e-03
2.191141e+02	-7.944330e-03
2.203797e+02	-8.036282e-03
2.216526e+02	-8.129297e-03
2.229329e+02	-8.223388e-03
2.242205e+02	-8.318566e-03
2.255156e+02	-8.414845e-03
2.268182e+02	-8.512237e-03
2.281283e+02	-8.610756e-03
2.294459e+02	-8.710413e-03
2.307712e+02	-8.811223e-03
2.321041e+02	-8.913198e-03
2.334447e+02	-9.016352e-03
2.347931e+02	-9.120699e-03
2.361493e+02	-9.226252e-03
2.375133e+02	-9.333025e-03
2.388851e+02	-9.441032e-03
2.402649e+02	-9.550288e-03
2.416527e+02	-9.660807e-03
2.430484e+02	-9.772604e-03
2.444523e+02	-9.885693e-03
2.458642e+02	-1.000009e-02
2.472843e+02	-1.011581e-02
2.487126e+02	-1.023286e-02
2.501492e+02	-1.035127e-02
2.515940e+02	-1.047105e-02
2.530472e+02	-1.059221e-02
2.545088e+02	-1.071477e-02
2.559789e+02	-1.083875e-02
2.574574e+02	-1.096416e-02
2.589444e+02	-1.109102e-02
2.604401e+02	-1.121934e-02
2.619444e+02	-1.134915e-02
2.634574e+02	-1.148046e-02
2.649791e+02	-1.161329e-02
2.665096e+02	-1.174765e-02
2.680489e+02	-1.188356e-02
2.695972e+02	-1.202104e-02
2.711544e+02	-1.216011e-02
2.727205e+02	-1.230079e-02
2.742958e+02	-1.244309e-02
2.758801e+02	-1.258704e-02
2.774736e+02	-1.273265e-02
2.790762e+02	-1.287994e-02
2.806882e+02	-1.302893e-02
2.823094e+02	-1.317965e-02
2.839400e+02	-1.333210e-02
2.855800e+02	-1.348632e-02
2.872295e+02	-1.364231e-02
2.888886e+02	-1.380011e-02
2.905572e+02	-1.395973e-02
2.922354e+02	-1.412119e-02
2.939234e+02	-1.428452e-02
2.956211e+02	-1.444973e-02
2.973286e+02	-1.461686e-02
2.990459e+02	-1.478591e-02
3.007732e+02	-1.495691e-02
3.025104e+02	-1.512989e-02
3.042577e+02	-1.530486e-02
3.060151e+02	-1.548185e-02
3.077826e+02	-1.566089e-02
3.095604e+02	-1.584199e-02
3.113484e+02	-1.602519e-02
3.131467e+02	-1.621049e-02
3.149554e+02	-1.639794e-02
3.167746e+02	-1.658755e-02
3.186043e+02	-1.677935e-02
3.204445e+02	-1.697336e-02
3.222954e+02	-1.716961e-02
3.241570e+02	-1.736813e-02
3.260293e+02	-1.756893e-02
3.279124e+02	-1.777205e-02
3.298064e+02	-1.797752e-02
3.317114e+02	-1.818536e-02
3.336273e+02	-1.839559e-02
3.355544e+02	-1.860825e-02
3.374925e+02	-1.882336e-02
3.394418e+02	-1.904095e-02
3.414024e+02	-1.926106e-02
3.433744e+02	-1.948370e-02
3.453577e+02	-1.970891e-02
3.473525e+02	-1.993672e-02
3.493588e+02	-2.016715e-02
3.513766e+02	-2.040024e-02
3.534062e+02	-2.063602e-02
3.554474e+02	-2.087452e-02
3.575005e+02	-2.111576e-02
3.595654e+02	-2.135979e-02
3.616422e+02	-2.160663e-02
3.637311e+02	-2.185632e-02
3.658320e+02	-2.210888e-02
3.679450e+02	-2.236435e-02
3.700702e+02	-2.262277e-02
3.722077e+02	-2.288417e-02
3.743576e+02	-2.314858e-02
3.765199e+02	-2.341604e-02
3.786946e+02	-2.368658e-02
3.808820e+02	-2.396023e-02
3.830819e+02	-2.423704e-02
3.852946e+02	-2.451704e-02
3.875200e+02	-2.480026e-02
3.897583e+02	-2.508674e-02
3.920096e+02	-2.537653e-02
3.942738e+02	-2.566965e-02
3.965511e+02	-2.596615e-02
3.988416e+02	-2.626606e-02
4.011452e+02	-2.656942e-02
4.034622e+02	-2.687628e-02
4.057926e+02	-2.718667e-02
4.081365e+02	-2.750063e-02
4.104938e+02	-2.781821e-02
4.128648e+02	-2.813944e-02
4.152495e+02	-2.846437e-02
4.176480e+02	-2.879304e-02
4.200603e+02	-2.912550e-02
4.224866e+02	-2.946177e-02
4.249268e+02	-2.980192e-02
4.273812e+02	-3.014598e-02
4.298497e+02	-3.049400e-02
4.323325e+02	-3.084602e-02
4.348297e+02	-3.120209e-02
4.373412e+02	-3.156226e-02
4.398673e+02	-3.192657e-02
4.424079e+02	-3.229507e-02
4.449633e+02	-3.266780e-02
4.475334e+02	-3.304482e-02
4.501183e+02	-3.342617e-02
4.527182e+02	-3.381191e-02
4.553330e+02	-3.420209e-02
4.579630e+02	-3.459674e-02
4.606082e+02	-3.499593e-02
4.632687e+02	-3.539971e-02
4.659445e+02	-3.580813e-02
4.686358e+02	-3.622124e-02
4.713426e+02	-3.663910e-02
4.740650e+02	-3.706176e-02
4.768032e+02	-3.748927e-02
4.795572e+02	-3.792169e-02
4.823271e+02	-3.835907e-02
4.851130e+02	-3.880148e-02
4.879150e+02	-3.924897e-02
4.907332e+02	-3.970160e-02
4.935676e+02	-4.015942e-02
4.964185e+02	-4.062249e-02
4.992858e+02	-4.109088e-02
5.021696e+02	-4.156465e-02
5.050701e+02	-4.204384e-02
5.079874e+02	-4.252854e-02
5.109215e+02	-4.301880e-02
5.138726e+02	-4.351468e-02
5.168407e+02	-4.401625e-02
5.198259e+02	-4.452357e-02
5.228284e+02	-4.503670e-02
5.258482e+02	-4.555572e-02
5.288855e+02	-4.608069e-02
5.319403e+02	-4.661167e-02
5.350128e+02	-4.714874e-02
5.381030e+02	-4.769197e-02
5.412111e+02	-4.824141e-02
5.443371e+02	-4.879716e-02
5.474812e+02	-4.935926e-02
5.506434e+02	-4.992781e-02
5.538239e+02	-5.050286e-02
5.570228e+02	-5.108450e-02
5.602401e+02	-5.167280e-02
5.634760e+02	-5.226784e-02
5.667306e+02	-5.286968e-02
5.700040e+02	-5.347841e-02
5.732964e+02	-5.409410e-02
5.766077e+02	-5.471684e-02
5.799382e+02	-5.534671e-02
5.832879e+02	-5.598377e-02
5.866569e+02	-5.662812e-02
5.900454e+02	-5.727984e-02
5.934535e+02	-5.793901e-02
5.968813e+02	-5.860571e-02
6.003288e+02	-5.928003e-02
6.037963e+02	-5.996206e-02
6.072838e+02	-6.065187e-02
6.107914e+02	-6.134957e-02
6.143194e+02	-6.205524e-02
6.178676e+02	-6.276896e-02
6.214364e+02	-6.349083e-02
6.250258e+02	-6.422094e-02
6.286359e+02	-6.495939e-02
6.322669e+02	-6.570626e-02
6.359189e+02	-6.646165e-02
6.395919e+02	-6.722566e-02
6.432862e+02	-6.799839e-02
6.470017e+02	-6.877992e-02
6.507388e+02	-6.957037e-02
6.544974e+02	-7.036982e-02
6.582778e+02	-7.117839e-02
6.620800e+02	-7.199617e-02
6.659041e+02	-7.282327e-02
6.697504e+02	-7.365979e-02
6.736188e+02	-7.450583e-02
6.775096e+02	-7.536151e-02
6.814229e+02	-7.622692e-02
6.853587e+02	-7.710219e-02
6.893173e+02	-7.798742e-02
6.932988e+02	-7.888272e-02
6.973033e+02	-7.978820e-02
7.013309e+02	-8.070397e-02
