Frequency(Hz)	Magnitude(dB)
1.000000e+01	-2.337091e+00
1.005776e+01	-2.357976e+00
1.011585e+01	-2.379005e+00
1.017428e+01	-2.400207e+00
1.023305e+01	-2.421512e+00
1.029215e+01	-2.442807e+00
1.035160e+01	-2.464334e+00
1.041139e+01	-2.486404e+00
1.047153e+01	-2.508115e+00
1.053201e+01	-2.530246e+00
1.059284e+01	-2.552407e+00
1.065403e+01	-2.574705e+00
1.071556e+01	-2.597260e+00
1.077746e+01	-2.619745e+00
1.083971e+01	-2.642427e+00
1.090232e+01	-2.665545e+00
1.096529e+01	-2.688471e+00
1.102862e+01	-2.711570e+00
1.109232e+01	-2.734756e+00
1.115639e+01	-2.758236e+00
1.122083e+01	-2.781983e+00
1.128564e+01	-2.805696e+00
1.135083e+01	-2.829277e+00
1.141639e+01	-2.853556e+00
1.148233e+01	-2.877587e+00
1.154865e+01	-2.901900e+00
1.161536e+01	-2.926346e+00
1.168245e+01	-2.950960e+00
1.174992e+01	-2.975737e+00
1.181779e+01	-3.000700e+00
1.188605e+01	-3.025586e+00
1.195470e+01	-3.050967e+00
1.202375e+01	-3.076102e+00
1.209320e+01	-3.101701e+00
1.216305e+01	-3.126966e+00
1.223330e+01	-3.152854e+00
1.230396e+01	-3.179075e+00
1.237503e+01	-3.204987e+00
1.244651e+01	-3.231220e+00
1.251840e+01	-3.257445e+00
1.259070e+01	-3.284063e+00
1.266343e+01	-3.310483e+00
1.273657e+01	-3.337523e+00
1.281014e+01	-3.364136e+00
1.288413e+01	-3.391381e+00
1.295855e+01	-3.418372e+00
1.303339e+01	-3.445678e+00
1.310867e+01	-3.473018e+00
1.318439e+01	-3.500728e+00
1.326054e+01	-3.528331e+00
1.333713e+01	-3.556390e+00
1.341417e+01	-3.584521e+00
1.349165e+01	-3.612816e+00
1.356958e+01	-3.640802e+00
1.364795e+01	-3.669231e+00
1.372678e+01	-3.697722e+00
1.380607e+01	-3.726700e+00
1.388581e+01	-3.755505e+00
1.396602e+01	-3.784679e+00
1.404668e+01	-3.813930e+00
1.412782e+01	-3.843211e+00
1.420942e+01	-3.872449e+00
1.429149e+01	-3.902233e+00
1.437404e+01	-3.931823e+00
1.445706e+01	-3.961717e+00
1.454057e+01	-3.991645e+00
1.462455e+01	-4.021843e+00
1.470902e+01	-4.052125e+00
1.479398e+01	-4.082577e+00
1.487943e+01	-4.113301e+00
1.496537e+01	-4.143670e+00
1.505181e+01	-4.174750e+00
1.513875e+01	-4.205850e+00
1.522619e+01	-4.236837e+00
1.531414e+01	-4.267877e+00
1.540259e+01	-4.299213e+00
1.549156e+01	-4.330766e+00
1.558103e+01	-4.362645e+00
1.567103e+01	-4.394474e+00
1.576155e+01	-4.425869e+00
1.585258e+01	-4.458272e+00
1.594415e+01	-4.490297e+00
1.603624e+01	-4.522875e+00
1.612886e+01	-4.554911e+00
1.622202e+01	-4.587755e+00
1.631572e+01	-4.620148e+00
1.640996e+01	-4.653166e+00
1.650474e+01	-4.686113e+00
1.660008e+01	-4.719188e+00
1.669596e+01	-4.752691e+00
1.679239e+01	-4.785659e+00
1.688938e+01	-4.819324e+00
1.698694e+01	-4.852666e+00
1.708505e+01	-4.886442e+00
1.718373e+01	-4.920537e+00
1.728299e+01	-4.954234e+00
1.738281e+01	-4.988679e+00
1.748322e+01	-5.022711e+00
1.758420e+01	-5.057100e+00
1.768576e+01	-5.091629e+00
1.778792e+01	-5.126044e+00
1.789066e+01	-5.161024e+00
1.799399e+01	-5.195755e+00
1.809793e+01	-5.230743e+00
1.820246e+01	-5.265843e+00
1.830760e+01	-5.301053e+00
1.841334e+01	-5.336442e+00
1.851969e+01	-5.371692e+00
1.862666e+01	-5.407204e+00
1.873425e+01	-5.442915e+00
1.884246e+01	-5.478743e+00
1.895129e+01	-5.514549e+00
1.906075e+01	-5.550764e+00
1.917085e+01	-5.586930e+00
1.928158e+01	-5.623128e+00
1.939295e+01	-5.659453e+00
1.950496e+01	-5.695859e+00
1.961762e+01	-5.732617e+00
1.973093e+01	-5.769113e+00
1.984490e+01	-5.806209e+00
1.995952e+01	-5.843040e+00
2.007480e+01	-5.880263e+00
2.019076e+01	-5.917295e+00
2.030738e+01	-5.954461e+00
2.042467e+01	-5.991820e+00
2.054264e+01	-6.029545e+00
2.066130e+01	-6.066890e+00
2.078064e+01	-6.104824e+00
2.090066e+01	-6.142498e+00
2.102139e+01	-6.180464e+00
2.114280e+01	-6.218798e+00
2.126492e+01	-6.256824e+00
2.138775e+01	-6.294681e+00
2.151128e+01	-6.333081e+00
2.163553e+01	-6.371551e+00
2.176050e+01	-6.410181e+00
2.188619e+01	-6.448680e+00
2.201260e+01	-6.487809e+00
2.213974e+01	-6.526769e+00
2.226762e+01	-6.565376e+00
2.239624e+01	-6.604392e+00
2.252560e+01	-6.643160e+00
2.265571e+01	-6.682737e+00
2.278656e+01	-6.721748e+00
2.291818e+01	-6.761687e+00
2.305055e+01	-6.801285e+00
2.318369e+01	-6.840541e+00
2.331760e+01	-6.880461e+00
2.345228e+01	-6.920677e+00
2.358774e+01	-6.960265e+00
2.372398e+01	-7.000206e+00
2.386101e+01	-7.040461e+00
2.399883e+01	-7.080245e+00
2.413745e+01	-7.121175e+00
2.427686e+01	-7.160956e+00
2.441709e+01	-7.201421e+00
2.455812e+01	-7.242040e+00
2.469997e+01	-7.282980e+00
2.484263e+01	-7.323276e+00
2.498612e+01	-7.364183e+00
2.513044e+01	-7.405348e+00
2.527559e+01	-7.446213e+00
2.542158e+01	-7.487164e+00
2.556842e+01	-7.528142e+00
2.571610e+01	-7.569342e+00
2.586463e+01	-7.610692e+00
2.601403e+01	-7.652137e+00
2.616428e+01	-7.693587e+00
2.631541e+01	-7.735290e+00
2.646740e+01	-7.776778e+00
2.662028e+01	-7.818579e+00
2.677404e+01	-7.860335e+00
2.692868e+01	-7.902641e+00
2.708422e+01	-7.944458e+00
2.724066e+01	-7.986302e+00
2.739800e+01	-8.028070e+00
2.755625e+01	-8.070752e+00
2.771541e+01	-8.112868e+00
2.787550e+01	-8.155449e+00
2.803650e+01	-8.197431e+00
2.819844e+01	-8.240112e+00
2.836131e+01	-8.282676e+00
2.852513e+01	-8.325495e+00
2.868989e+01	-8.367773e+00
2.885560e+01	-8.410809e+00
2.902227e+01	-8.453840e+00
2.918990e+01	-8.496601e+00
2.935850e+01	-8.539660e+00
2.952807e+01	-8.582508e+00
2.969863e+01	-8.625642e+00
2.987016e+01	-8.668756e+00
3.004269e+01	-8.711709e+00
3.021622e+01	-8.755543e+00
3.039075e+01	-8.799116e+00
3.056628e+01	-8.842560e+00
3.074283e+01	-8.885971e+00
3.092040e+01	-8.929313e+00
3.109900e+01	-8.973135e+00
3.127862e+01	-9.016994e+00
3.145929e+01	-9.060652e+00
3.164099e+01	-9.104460e+00
3.182375e+01	-9.148135e+00
3.200756e+01	-9.192409e+00
3.219244e+01	-9.236149e+00
3.237838e+01	-9.280372e+00
3.256540e+01	-9.324471e+00
3.275349e+01	-9.368872e+00
3.294268e+01	-9.413321e+00
3.313295e+01	-9.457420e+00
3.332433e+01	-9.501721e+00
3.351681e+01	-9.546160e+00
3.371040e+01	-9.590590e+00
3.390511e+01	-9.635003e+00
3.410094e+01	-9.679947e+00
3.429791e+01	-9.724395e+00
3.449601e+01	-9.769456e+00
3.469526e+01	-9.814073e+00
3.489566e+01	-9.858626e+00
3.509721e+01	-9.903640e+00
3.529993e+01	-9.948077e+00
3.550382e+01	-9.993678e+00
3.570889e+01	-1.003877e+01
3.591515e+01	-1.008415e+01
3.612259e+01	-1.012893e+01
3.633123e+01	-1.017450e+01
3.654108e+01	-1.021915e+01
3.675214e+01	-1.026479e+01
3.696442e+01	-1.030997e+01
3.717792e+01	-1.035550e+01
3.739266e+01	-1.040170e+01
3.760864e+01	-1.044670e+01
3.782587e+01	-1.049229e+01
3.804435e+01	-1.053715e+01
3.826409e+01	-1.058269e+01
3.848510e+01	-1.062950e+01
3.870739e+01	-1.067442e+01
3.893096e+01	-1.071984e+01
3.915583e+01	-1.076593e+01
3.938199e+01	-1.081169e+01
3.960946e+01	-1.085763e+01
3.983824e+01	-1.090339e+01
4.006834e+01	-1.094954e+01
4.029978e+01	-1.099569e+01
4.053255e+01	-1.104214e+01
4.076666e+01	-1.108828e+01
4.100213e+01	-1.113423e+01
4.123896e+01	-1.118036e+01
4.147715e+01	-1.122634e+01
4.171672e+01	-1.127295e+01
4.195767e+01	-1.131952e+01
4.220002e+01	-1.136561e+01
4.244377e+01	-1.141154e+01
4.268892e+01	-1.145877e+01
4.293549e+01	-1.150466e+01
4.318348e+01	-1.155182e+01
4.343291e+01	-1.159800e+01
4.368377e+01	-1.164489e+01
4.393609e+01	-1.169160e+01
4.418986e+01	-1.173789e+01
4.444510e+01	-1.178471e+01
4.470182e+01	-1.183123e+01
4.496001e+01	-1.187760e+01
4.521970e+01	-1.192487e+01
4.548089e+01	-1.197115e+01
4.574358e+01	-1.201857e+01
4.600779e+01	-1.206494e+01
4.627353e+01	-1.211213e+01
4.654081e+01	-1.215909e+01
4.680963e+01	-1.220584e+01
4.708000e+01	-1.225310e+01
4.735193e+01	-1.230083e+01
4.762543e+01	-1.234730e+01
4.790051e+01	-1.239470e+01
4.817719e+01	-1.244170e+01
4.845545e+01	-1.248927e+01
4.873533e+01	-1.253561e+01
4.901682e+01	-1.258337e+01
4.929994e+01	-1.263160e+01
4.958470e+01	-1.267762e+01
4.987110e+01	-1.272507e+01
5.015915e+01	-1.277189e+01
5.044887e+01	-1.282008e+01
5.074026e+01	-1.286755e+01
5.103333e+01	-1.291525e+01
5.132810e+01	-1.296214e+01
5.162457e+01	-1.300980e+01
5.192275e+01	-1.305755e+01
5.222265e+01	-1.310471e+01
5.252429e+01	-1.315239e+01
5.282767e+01	-1.320042e+01
5.313280e+01	-1.324857e+01
5.343969e+01	-1.329577e+01
5.374836e+01	-1.334375e+01
5.405880e+01	-1.339042e+01
5.437105e+01	-1.343890e+01
5.468509e+01	-1.348691e+01
5.500095e+01	-1.353408e+01
5.531863e+01	-1.358283e+01
5.563815e+01	-1.363015e+01
5.595951e+01	-1.367734e+01
5.628273e+01	-1.372532e+01
5.660782e+01	-1.377290e+01
5.693479e+01	-1.382122e+01
5.726364e+01	-1.386937e+01
5.759439e+01	-1.391784e+01
5.792705e+01	-1.396583e+01
5.826164e+01	-1.401318e+01
5.859815e+01	-1.406285e+01
5.893662e+01	-1.410994e+01
5.927703e+01	-1.415749e+01
5.961941e+01	-1.420529e+01
5.996377e+01	-1.425299e+01
6.031012e+01	-1.430263e+01
6.065847e+01	-1.435058e+01
6.100883e+01	-1.439858e+01
6.136121e+01	-1.444728e+01
6.171563e+01	-1.449578e+01
6.207210e+01	-1.454263e+01
6.243063e+01	-1.459185e+01
6.279122e+01	-1.464001e+01
6.315390e+01	-1.468903e+01
6.351868e+01	-1.473562e+01
6.388556e+01	-1.478537e+01
6.425456e+01	-1.483297e+01
6.462569e+01	-1.488157e+01
6.499897e+01	-1.492933e+01
6.537440e+01	-1.497731e+01
6.575200e+01	-1.502709e+01
6.613178e+01	-1.507493e+01
6.651375e+01	-1.512404e+01
6.689793e+01	-1.517214e+01
6.728433e+01	-1.522157e+01
6.767297e+01	-1.526897e+01
6.806384e+01	-1.531862e+01
6.845698e+01	-1.536596e+01
6.885238e+01	-1.541554e+01
6.925007e+01	-1.546440e+01
6.965005e+01	-1.551353e+01
7.005235e+01	-1.556069e+01
7.045697e+01	-1.560999e+01
7.086393e+01	-1.565757e+01
7.127323e+01	-1.570711e+01
7.168490e+01	-1.575515e+01
7.209895e+01	-1.580473e+01
7.251539e+01	-1.585384e+01
7.293424e+01	-1.590139e+01
7.335551e+01	-1.595113e+01
7.377920e+01	-1.599961e+01
7.420535e+01	-1.604744e+01
7.463396e+01	-1.609779e+01
7.506504e+01	-1.614537e+01
7.549861e+01	-1.619429e+01
7.593469e+01	-1.624320e+01
7.637328e+01	-1.629255e+01
7.681441e+01	-1.634068e+01
7.725809e+01	-1.639022e+01
7.770433e+01	-1.643936e+01
7.815315e+01	-1.648842e+01
7.860456e+01	-1.653685e+01
7.905857e+01	-1.658462e+01
7.951521e+01	-1.663484e+01
7.997449e+01	-1.668296e+01
8.043642e+01	-1.673292e+01
8.090102e+01	-1.678169e+01
8.136830e+01	-1.682921e+01
8.183828e+01	-1.687959e+01
8.231097e+01	-1.692893e+01
8.278640e+01	-1.697821e+01
8.326457e+01	-1.702624e+01
8.374550e+01	-1.707548e+01
8.422921e+01	-1.712533e+01
8.471572e+01	-1.717326e+01
8.520503e+01	-1.722236e+01
8.569717e+01	-1.727187e+01
8.619215e+01	-1.732163e+01
8.669000e+01	-1.736920e+01
8.719071e+01	-1.741885e+01
8.769432e+01	-1.746737e+01
8.820084e+01	-1.751809e+01
8.871029e+01	-1.756718e+01
8.922267e+01	-1.761672e+01
8.973802e+01	-1.766449e+01
9.025634e+01	-1.771454e+01
9.077766e+01	-1.776221e+01
9.130199e+01	-1.781185e+01
9.182935e+01	-1.786178e+01
9.235975e+01	-1.791031e+01
9.289321e+01	-1.796004e+01
9.342976e+01	-1.800917e+01
9.396941e+01	-1.805896e+01
9.451217e+01	-1.810768e+01
9.505807e+01	-1.815624e+01
9.560712e+01	-1.820711e+01
9.615934e+01	-1.825563e+01
9.671476e+01	-1.830514e+01
9.727338e+01	-1.835415e+01
9.783522e+01	-1.840395e+01
9.840032e+01	-1.845251e+01
9.896867e+01	-1.850243e+01
9.954031e+01	-1.855248e+01
1.001153e+02	-1.860109e+01
1.006935e+02	-1.864955e+01
1.012751e+02	-1.869977e+01
1.018601e+02	-1.874812e+01
1.024484e+02	-1.879849e+01
1.030402e+02	-1.884693e+01
1.036353e+02	-1.889748e+01
1.042339e+02	-1.894684e+01
1.048360e+02	-1.899638e+01
1.054415e+02	-1.904415e+01
1.060505e+02	-1.909496e+01
1.066631e+02	-1.914357e+01
1.072791e+02	-1.919411e+01
1.078988e+02	-1.924429e+01
1.085220e+02	-1.929266e+01
1.091488e+02	-1.934079e+01
1.097793e+02	-1.939150e+01
1.104133e+02	-1.944116e+01
1.110511e+02	-1.949033e+01
1.116925e+02	-1.953974e+01
1.123376e+02	-1.958865e+01
1.129865e+02	-1.963931e+01
1.136391e+02	-1.968728e+01
1.142955e+02	-1.973797e+01
1.149556e+02	-1.978721e+01
1.156196e+02	-1.983688e+01
1.162874e+02	-1.988661e+01
1.169591e+02	-1.993554e+01
1.176347e+02	-1.998482e+01
1.183141e+02	-2.003518e+01
1.189975e+02	-2.008463e+01
1.196848e+02	-2.013362e+01
1.203761e+02	-2.018288e+01
1.210714e+02	-2.023272e+01
1.217707e+02	-2.028283e+01
1.224740e+02	-2.033328e+01
1.231814e+02	-2.038211e+01
1.238929e+02	-2.043135e+01
1.246085e+02	-2.048211e+01
1.253283e+02	-2.053026e+01
1.260522e+02	-2.058169e+01
1.267802e+02	-2.062888e+01
1.275125e+02	-2.068035e+01
1.282490e+02	-2.072898e+01
1.289898e+02	-2.077805e+01
1.297348e+02	-2.082971e+01
1.304842e+02	-2.087980e+01
1.312378e+02	-2.092638e+01
1.319959e+02	-2.097649e+01
1.327583e+02	-2.102709e+01
1.335251e+02	-2.107670e+01
1.342963e+02	-2.112696e+01
1.350720e+02	-2.117572e+01
1.358522e+02	-2.122628e+01
1.366368e+02	-2.127560e+01
1.374260e+02	-2.132290e+01
1.382198e+02	-2.137469e+01
1.390182e+02	-2.142404e+01
1.398211e+02	-2.147474e+01
1.406287e+02	-2.152344e+01
1.414410e+02	-2.157227e+01
1.422579e+02	-2.162367e+01
1.430796e+02	-2.167220e+01
1.439060e+02	-2.172299e+01
1.447372e+02	-2.177108e+01
1.455732e+02	-2.182280e+01
1.464141e+02	-2.187138e+01
1.472597e+02	-2.192095e+01
1.481103e+02	-2.197120e+01
1.489658e+02	-2.202116e+01
1.498262e+02	-2.206968e+01
1.506916e+02	-2.212096e+01
1.515620e+02	-2.217010e+01
1.524374e+02	-2.221877e+01
1.533179e+02	-2.226996e+01
1.542034e+02	-2.231956e+01
1.550941e+02	-2.236928e+01
1.559899e+02	-2.241951e+01
1.568909e+02	-2.246860e+01
1.577971e+02	-2.251655e+01
1.587085e+02	-2.256787e+01
1.596252e+02	-2.261773e+01
1.605472e+02	-2.266544e+01
1.614745e+02	-2.271771e+01
1.624072e+02	-2.276629e+01
1.633453e+02	-2.281746e+01
1.642887e+02	-2.286596e+01
1.652377e+02	-2.291623e+01
1.661921e+02	-2.296492e+01
1.671520e+02	-2.301536e+01
1.681175e+02	-2.306606e+01
1.690885e+02	-2.311629e+01
1.700651e+02	-2.316372e+01
1.710474e+02	-2.321289e+01
1.720354e+02	-2.326481e+01
1.730291e+02	-2.331331e+01
1.740285e+02	-2.336783e+01
1.750337e+02	-2.341510e+01
1.760446e+02	-2.346283e+01
1.770615e+02	-2.351276e+01
1.780842e+02	-2.356064e+01
1.791128e+02	-2.361188e+01
1.801473e+02	-2.366446e+01
1.811878e+02	-2.371335e+01
1.822344e+02	-2.376454e+01
1.832870e+02	-2.381277e+01
1.843456e+02	-2.386061e+01
1.854104e+02	-2.391202e+01
1.864813e+02	-2.396256e+01
1.875584e+02	-2.401450e+01
1.886418e+02	-2.406118e+01
1.897313e+02	-2.411246e+01
1.908272e+02	-2.416156e+01
1.919294e+02	-2.420996e+01
1.930380e+02	-2.426006e+01
1.941530e+02	-2.431213e+01
1.952744e+02	-2.436172e+01
1.964023e+02	-2.440781e+01
1.975367e+02	-2.445871e+01
1.986777e+02	-2.451237e+01
1.998252e+02	-2.456206e+01
2.009794e+02	-2.461409e+01
2.021403e+02	-2.466159e+01
2.033078e+02	-2.471290e+01
2.044821e+02	-2.476002e+01
2.056632e+02	-2.481211e+01
2.068511e+02	-2.486078e+01
2.080459e+02	-2.491064e+01
2.092475e+02	-2.496031e+01
2.104561e+02	-2.501036e+01
2.116717e+02	-2.506200e+01
2.128943e+02	-2.510843e+01
2.141240e+02	-2.515856e+01
2.153608e+02	-2.521302e+01
2.166047e+02	-2.526296e+01
2.178558e+02	-2.530772e+01
2.191141e+02	-2.535620e+01
2.203797e+02	-2.541310e+01
2.216526e+02	-2.546030e+01
2.229329e+02	-2.550740e+01
2.242205e+02	-2.556252e+01
2.255156e+02	-2.560934e+01
2.268182e+02	-2.565820e+01
2.281283e+02	-2.571213e+01
2.294459e+02	-2.575596e+01
2.307712e+02	-2.580797e+01
2.321041e+02	-2.586038e+01
2.334447e+02	-2.590916e+01
2.347931e+02	-2.595737e+01
2.361493e+02	-2.600886e+01
2.375133e+02	-2.605858e+01
2.388851e+02	-2.610746e+01
2.402649e+02	-2.616072e+01
2.416527e+02	-2.620917e+01
2.430484e+02	-2.625609e+01
2.444523e+02	-2.630747e+01
2.458642e+02	-2.635772e+01
2.472843e+02	-2.640910e+01
2.487126e+02	-2.645751e+01
2.501492e+02	-2.650847e+01
2.515940e+02	-2.655748e+01
2.530472e+02	-2.660876e+01
2.545088e+02	-2.665749e+01
2.559789e+02	-2.670570e+01
2.574574e+02	-2.675500e+01
2.589444e+02	-2.680667e+01
2.604401e+02	-2.685674e+01
2.619444e+02	-2.691081e+01
2.634574e+02	-2.695598e+01
2.649791e+02	-2.700989e+01
2.665096e+02	-2.705801e+01
2.680489e+02	-2.710723e+01
2.695972e+02	-2.715892e+01
2.711544e+02	-2.721156e+01
2.727205e+02	-2.725791e+01
2.742958e+02	-2.731139e+01
2.758801e+02	-2.735685e+01
2.774736e+02	-2.740984e+01
2.790762e+02	-2.745869e+01
2.806882e+02	-2.750839e+01
2.823094e+02	-2.755842e+01
2.839400e+02	-2.760970e+01
2.855800e+02	-2.765874e+01
2.872295e+02	-2.770701e+01
2.888886e+02	-2.776068e+01
2.905572e+02	-2.780834e+01
2.922354e+02	-2.786077e+01
2.939234e+02	-2.790724e+01
2.956211e+02	-2.795797e+01
2.973286e+02	-2.800825e+01
2.990459e+02	-2.805750e+01
3.007732e+02	-2.810491e+01
3.025104e+02	-2.815834e+01
3.042577e+02	-2.820580e+01
3.060151e+02	-2.825782e+01
3.077826e+02	-2.830957e+01
3.095604e+02	-2.835669e+01
3.113484e+02	-2.841113e+01
3.131467e+02	-2.845866e+01
3.149554e+02	-2.850761e+01
3.167746e+02	-2.855550e+01
3.186043e+02	-2.860825e+01
3.204445e+02	-2.865471e+01
3.222954e+02	-2.870839e+01
3.241570e+02	-2.875893e+01
3.260293e+02	-2.880835e+01
3.279124e+02	-2.886070e+01
3.298064e+02	-2.890785e+01
3.317114e+02	-2.895710e+01
3.336273e+02	-2.900975e+01
3.355544e+02	-2.905766e+01
3.374925e+02	-2.910609e+01
3.394418e+02	-2.916011e+01
3.414024e+02	-2.921151e+01
3.433744e+02	-2.926184e+01
3.453577e+02	-2.930631e+01
3.473525e+02	-2.935884e+01
3.493588e+02	-2.940957e+01
3.513766e+02	-2.945839e+01
3.534062e+02	-2.950970e+01
3.554474e+02	-2.955892e+01
3.575005e+02	-2.960818e+01
3.595654e+02	-2.965934e+01
3.616422e+02	-2.970906e+01
3.637311e+02	-2.975924e+01
3.658320e+02	-2.981518e+01
3.679450e+02	-2.986108e+01
3.700702e+02	-2.991127e+01
3.722077e+02	-2.996132e+01
3.743576e+02	-3.000712e+01
3.765199e+02	-3.005709e+01
3.786946e+02	-3.011753e+01
3.808820e+02	-3.015957e+01
3.830819e+02	-3.021037e+01
3.852946e+02	-3.025932e+01
3.875200e+02	-3.031220e+01
3.897583e+02	-3.036313e+01
3.920096e+02	-3.041006e+01
3.942738e+02	-3.045760e+01
3.965511e+02	-3.050645e+01
3.988416e+02	-3.056397e+01
4.011452e+02	-3.061357e+01
4.034622e+02	-3.066078e+01
4.057926e+02	-3.070915e+01
4.081365e+02	-3.076224e+01
4.104938e+02	-3.081285e+01
4.128648e+02	-3.086255e+01
4.152495e+02	-3.091257e+01
4.176480e+02	-3.096380e+01
4.200603e+02	-3.101223e+01
4.224866e+02	-3.106463e+01
4.249268e+02	-3.111479e+01
4.273812e+02	-3.116520e+01
4.298497e+02	-3.121122e+01
4.323325e+02	-3.126478e+01
4.348297e+02	-3.131520e+01
4.373412e+02	-3.136061e+01
4.398673e+02	-3.141044e+01
4.424079e+02	-3.145905e+01
4.449633e+02	-3.151520e+01
4.475334e+02	-3.156994e+01
4.501183e+02	-3.161371e+01
4.527182e+02	-3.166323e+01
4.553330e+02	-3.171033e+01
4.579630e+02	-3.177019e+01
4.606082e+02	-3.181622e+01
4.632687e+02	-3.186348e+01
4.659445e+02	-3.191988e+01
4.686358e+02	-3.196867e+01
4.713426e+02	-3.201546e+01
4.740650e+02	-3.205956e+01
4.768032e+02	-3.211889e+01
4.795572e+02	-3.216622e+01
4.823271e+02	-3.222224e+01
4.851130e+02	-3.226129e+01
4.879150e+02	-3.230899e+01
4.907332e+02	-3.237478e+01
4.935676e+02	-3.241739e+01
4.964185e+02	-3.247472e+01
4.992858e+02	-3.252372e+01
5.021696e+02	-3.257554e+01
5.050701e+02	-3.262629e+01
5.079874e+02	-3.267134e+01
5.109215e+02	-3.271891e+01
5.138726e+02	-3.277646e+01
5.168407e+02	-3.282732e+01
5.198259e+02	-3.287216e+01
5.228284e+02	-3.292046e+01
5.258482e+02	-3.297438e+01
5.288855e+02	-3.302121e+01
5.319403e+02	-3.306442e+01
5.350128e+02	-3.311283e+01
5.381030e+02	-3.316981e+01
5.412111e+02	-3.321996e+01
5.443371e+02	-3.327668e+01
5.474812e+02	-3.332653e+01
5.506434e+02	-3.336734e+01
5.538239e+02	-3.342009e+01
5.570228e+02	-3.346702e+01
5.602401e+02	-3.352526e+01
5.634760e+02	-3.357460e+01
5.667306e+02	-3.361883e+01
5.700040e+02	-3.367747e+01
5.732964e+02	-3.372678e+01
5.766077e+02	-3.377323e+01
5.799382e+02	-3.381887e+01
5.832879e+02	-3.386868e+01
5.866569e+02	-3.392170e+01
5.900454e+02	-3.397789e+01
5.934535e+02	-3.403247e+01
5.968813e+02	-3.407340e+01
6.003288e+02	-3.412357e+01
6.037963e+02	-3.417318e+01
6.072838e+02	-3.422621e+01
6.107914e+02	-3.427866e+01
6.143194e+02	-3.433071e+01
6.178676e+02	-3.437814e+01
6.214364e+02	-3.442299e+01
6.250258e+02	-3.447964e+01
6.286359e+02	-3.453882e+01
6.322669e+02	-3.458283e+01
6.359189e+02	-3.462810e+01
6.395919e+02	-3.467368e+01
6.432862e+02	-3.473265e+01
6.470017e+02	-3.478107e+01
6.507388e+02	-3.483096e+01
6.544974e+02	-3.488847e+01
6.582778e+02	-3.493270e+01
6.620800e+02	-3.498920e+01
6.659041e+02	-3.502270e+01
6.697504e+02	-3.508818e+01
6.736188e+02	-3.514119e+01
6.775096e+02	-3.518062e+01
6.814229e+02	-3.524001e+01
6.853587e+02	-3.528792e+01
6.893173e+02	-3.534102e+01
6.932988e+02	-3.538625e+01
6.973033e+02	-3.544760e+01
7.013309e+02	-3.549110e+01
