Frequency(Hz)	Magnitude(dB)
1.000000e+01	-2.340303e+00
1.005776e+01	-2.360902e+00
1.011585e+01	-2.382177e+00
1.017428e+01	-2.403351e+00
1.023305e+01	-2.424642e+00
1.029215e+01	-2.446134e+00
1.035160e+01	-2.467692e+00
1.041139e+01	-2.489283e+00
1.047153e+01	-2.511259e+00
1.053201e+01	-2.533257e+00
1.059284e+01	-2.555606e+00
1.065403e+01	-2.577978e+00
1.071556e+01	-2.600378e+00
1.077746e+01	-2.623177e+00
1.083971e+01	-2.645879e+00
1.090232e+01	-2.668483e+00
1.096529e+01	-2.691732e+00
1.102862e+01	-2.714933e+00
1.109232e+01	-2.738025e+00
1.115639e+01	-2.761609e+00
1.122083e+01	-2.785177e+00
1.128564e+01	-2.808596e+00
1.135083e+01	-2.833001e+00
1.141639e+01	-2.856993e+00
1.148233e+01	-2.880904e+00
1.154865e+01	-2.905383e+00
1.161536e+01	-2.929977e+00
1.168245e+01	-2.954516e+00
1.174992e+01	-2.979349e+00
1.181779e+01	-3.004016e+00
1.188605e+01	-3.029368e+00
1.195470e+01	-3.054476e+00
1.202375e+01	-3.079881e+00
1.209320e+01	-3.105407e+00
1.216305e+01	-3.130760e+00
1.223330e+01	-3.156487e+00
1.230396e+01	-3.182410e+00
1.237503e+01	-3.208534e+00
1.244651e+01	-3.234799e+00
1.251840e+01	-3.260909e+00
1.259070e+01	-3.287672e+00
1.266343e+01	-3.314151e+00
1.273657e+01	-3.341021e+00
1.281014e+01	-3.367793e+00
1.288413e+01	-3.394828e+00
1.295855e+01	-3.422104e+00
1.303339e+01	-3.449625e+00
1.310867e+01	-3.476734e+00
1.318439e+01	-3.504620e+00
1.326054e+01	-3.532232e+00
1.333713e+01	-3.560154e+00
1.341417e+01	-3.588167e+00
1.349165e+01	-3.616478e+00
1.356958e+01	-3.644705e+00
1.364795e+01	-3.673445e+00
1.372678e+01	-3.702161e+00
1.380607e+01	-3.730762e+00
1.388581e+01	-3.759596e+00
1.396602e+01	-3.788915e+00
1.404668e+01	-3.818002e+00
1.412782e+01	-3.847344e+00
1.420942e+01	-3.876710e+00
1.429149e+01	-3.906412e+00
1.437404e+01	-3.936052e+00
1.445706e+01	-3.965853e+00
1.454057e+01	-3.995950e+00
1.462455e+01	-4.026357e+00
1.470902e+01	-4.056478e+00
1.479398e+01	-4.086867e+00
1.487943e+01	-4.117331e+00
1.496537e+01	-4.148179e+00
1.505181e+01	-4.179213e+00
1.513875e+01	-4.210012e+00
1.522619e+01	-4.241248e+00
1.531414e+01	-4.272144e+00
1.540259e+01	-4.303871e+00
1.549156e+01	-4.335168e+00
1.558103e+01	-4.366985e+00
1.567103e+01	-4.398951e+00
1.576155e+01	-4.430652e+00
1.585258e+01	-4.462581e+00
1.594415e+01	-4.494765e+00
1.603624e+01	-4.527206e+00
1.612886e+01	-4.559780e+00
1.622202e+01	-4.592546e+00
1.631572e+01	-4.624992e+00
1.640996e+01	-4.658004e+00
1.650474e+01	-4.690805e+00
1.660008e+01	-4.724052e+00
1.669596e+01	-4.757047e+00
1.679239e+01	-4.790526e+00
1.688938e+01	-4.823861e+00
1.698694e+01	-4.857700e+00
1.708505e+01	-4.891096e+00
1.718373e+01	-4.925465e+00
1.728299e+01	-4.959160e+00
1.738281e+01	-4.993390e+00
1.748322e+01	-5.027594e+00
1.758420e+01	-5.061857e+00
1.768576e+01	-5.096297e+00
1.778792e+01	-5.131039e+00
1.789066e+01	-5.165743e+00
1.799399e+01	-5.200643e+00
1.809793e+01	-5.235697e+00
1.820246e+01	-5.270540e+00
1.830760e+01	-5.305960e+00
1.841334e+01	-5.341643e+00
1.851969e+01	-5.376562e+00
1.862666e+01	-5.412427e+00
1.873425e+01	-5.447826e+00
1.884246e+01	-5.483774e+00
1.895129e+01	-5.519948e+00
1.906075e+01	-5.555791e+00
1.917085e+01	-5.592202e+00
1.928158e+01	-5.628113e+00
1.939295e+01	-5.664757e+00
1.950496e+01	-5.701198e+00
1.961762e+01	-5.737520e+00
1.973093e+01	-5.774624e+00
1.984490e+01	-5.811410e+00
1.995952e+01	-5.848433e+00
2.007480e+01	-5.885347e+00
2.019076e+01	-5.922568e+00
2.030738e+01	-5.959974e+00
2.042467e+01	-5.996949e+00
2.054264e+01	-6.034524e+00
2.066130e+01	-6.072415e+00
2.078064e+01	-6.110313e+00
2.090066e+01	-6.148050e+00
2.102139e+01	-6.185660e+00
2.114280e+01	-6.223526e+00
2.126492e+01	-6.261765e+00
2.138775e+01	-6.299989e+00
2.151128e+01	-6.338738e+00
2.163553e+01	-6.377078e+00
2.176050e+01	-6.415649e+00
2.188619e+01	-6.454566e+00
2.201260e+01	-6.493349e+00
2.213974e+01	-6.531750e+00
2.226762e+01	-6.570642e+00
2.239624e+01	-6.610022e+00
2.252560e+01	-6.649147e+00
2.265571e+01	-6.688356e+00
2.278656e+01	-6.727935e+00
2.291818e+01	-6.766948e+00
2.305055e+01	-6.806397e+00
2.318369e+01	-6.845589e+00
2.331760e+01	-6.885952e+00
2.345228e+01	-6.925804e+00
2.358774e+01	-6.965900e+00
2.372398e+01	-7.005922e+00
2.386101e+01	-7.045769e+00
2.399883e+01	-7.085805e+00
2.413745e+01	-7.126404e+00
2.427686e+01	-7.166797e+00
2.441709e+01	-7.207122e+00
2.455812e+01	-7.247933e+00
2.469997e+01	-7.288242e+00
2.484263e+01	-7.329282e+00
2.498612e+01	-7.370000e+00
2.513044e+01	-7.410626e+00
2.527559e+01	-7.451934e+00
2.542158e+01	-7.492628e+00
2.556842e+01	-7.533935e+00
2.571610e+01	-7.575399e+00
2.586463e+01	-7.616954e+00
2.601403e+01	-7.658096e+00
2.616428e+01	-7.699642e+00
2.631541e+01	-7.741124e+00
2.646740e+01	-7.783286e+00
2.662028e+01	-7.824458e+00
2.677404e+01	-7.866399e+00
2.692868e+01	-7.908113e+00
2.708422e+01	-7.950181e+00
2.724066e+01	-7.992498e+00
2.739800e+01	-8.034440e+00
2.755625e+01	-8.076655e+00
2.771541e+01	-8.118918e+00
2.787550e+01	-8.160702e+00
2.803650e+01	-8.203862e+00
2.819844e+01	-8.246093e+00
2.836131e+01	-8.288400e+00
2.852513e+01	-8.331368e+00
2.868989e+01	-8.374012e+00
2.885560e+01	-8.416417e+00
2.902227e+01	-8.459677e+00
2.918990e+01	-8.502662e+00
2.935850e+01	-8.545186e+00
2.952807e+01	-8.588566e+00
2.969863e+01	-8.631486e+00
2.987016e+01	-8.674448e+00
3.004269e+01	-8.718415e+00
3.021622e+01	-8.761819e+00
3.039075e+01	-8.804969e+00
3.056628e+01	-8.848681e+00
3.074283e+01	-8.892152e+00
3.092040e+01	-8.935767e+00
3.109900e+01	-8.979142e+00
3.127862e+01	-9.023243e+00
3.145929e+01	-9.067035e+00
3.164099e+01	-9.110349e+00
3.182375e+01	-9.154646e+00
3.200756e+01	-9.198158e+00
3.219244e+01	-9.243260e+00
3.237838e+01	-9.286639e+00
3.256540e+01	-9.330747e+00
3.275349e+01	-9.374961e+00
3.294268e+01	-9.419072e+00
3.313295e+01	-9.463715e+00
3.332433e+01	-9.507926e+00
3.351681e+01	-9.552785e+00
3.371040e+01	-9.597468e+00
3.390511e+01	-9.641929e+00
3.410094e+01	-9.686290e+00
3.429791e+01	-9.730270e+00
3.449601e+01	-9.775845e+00
3.469526e+01	-9.820093e+00
3.489566e+01	-9.864862e+00
3.509721e+01	-9.910520e+00
3.529993e+01	-9.955413e+00
3.550382e+01	-1.000001e+01
3.570889e+01	-1.004491e+01
3.591515e+01	-1.009027e+01
3.612259e+01	-1.013519e+01
3.633123e+01	-1.018096e+01
3.654108e+01	-1.022621e+01
3.675214e+01	-1.027169e+01
3.696442e+01	-1.031604e+01
3.717792e+01	-1.036189e+01
3.739266e+01	-1.040762e+01
3.760864e+01	-1.045317e+01
3.782587e+01	-1.049920e+01
3.804435e+01	-1.054387e+01
3.826409e+01	-1.059015e+01
3.848510e+01	-1.063540e+01
3.870739e+01	-1.068136e+01
3.893096e+01	-1.072640e+01
3.915583e+01	-1.077235e+01
3.938199e+01	-1.081860e+01
3.960946e+01	-1.086432e+01
3.983824e+01	-1.091049e+01
4.006834e+01	-1.095630e+01
4.029978e+01	-1.100219e+01
4.053255e+01	-1.104853e+01
4.076666e+01	-1.109447e+01
4.100213e+01	-1.114060e+01
4.123896e+01	-1.118675e+01
4.147715e+01	-1.123291e+01
4.171672e+01	-1.127926e+01
4.195767e+01	-1.132593e+01
4.220002e+01	-1.137204e+01
4.244377e+01	-1.141826e+01
4.268892e+01	-1.146495e+01
4.293549e+01	-1.151118e+01
4.318348e+01	-1.155825e+01
4.343291e+01	-1.160446e+01
4.368377e+01	-1.165106e+01
4.393609e+01	-1.169717e+01
4.418986e+01	-1.174457e+01
4.444510e+01	-1.179085e+01
4.470182e+01	-1.183786e+01
4.496001e+01	-1.188455e+01
4.521970e+01	-1.193144e+01
4.548089e+01	-1.197768e+01
4.574358e+01	-1.202516e+01
4.600779e+01	-1.207146e+01
4.627353e+01	-1.211861e+01
4.654081e+01	-1.216549e+01
4.680963e+01	-1.221277e+01
4.708000e+01	-1.225970e+01
4.735193e+01	-1.230744e+01
4.762543e+01	-1.235456e+01
4.790051e+01	-1.240093e+01
4.817719e+01	-1.244901e+01
4.845545e+01	-1.249566e+01
4.873533e+01	-1.254260e+01
4.901682e+01	-1.259017e+01
4.929994e+01	-1.263716e+01
4.958470e+01	-1.268495e+01
4.987110e+01	-1.273226e+01
5.015915e+01	-1.277947e+01
5.044887e+01	-1.282670e+01
5.074026e+01	-1.287363e+01
5.103333e+01	-1.292197e+01
5.132810e+01	-1.296945e+01
5.162457e+01	-1.301639e+01
5.192275e+01	-1.306411e+01
5.222265e+01	-1.311151e+01
5.252429e+01	-1.315901e+01
5.282767e+01	-1.320682e+01
5.313280e+01	-1.325483e+01
5.343969e+01	-1.330239e+01
5.374836e+01	-1.335028e+01
5.405880e+01	-1.339740e+01
5.437105e+01	-1.344475e+01
5.468509e+01	-1.349286e+01
5.500095e+01	-1.354116e+01
5.531863e+01	-1.358916e+01
5.563815e+01	-1.363632e+01
5.595951e+01	-1.368443e+01
5.628273e+01	-1.373220e+01
5.660782e+01	-1.377989e+01
5.693479e+01	-1.382844e+01
5.726364e+01	-1.387648e+01
5.759439e+01	-1.392483e+01
5.792705e+01	-1.397213e+01
5.826164e+01	-1.402051e+01
5.859815e+01	-1.406827e+01
5.893662e+01	-1.411713e+01
5.927703e+01	-1.416451e+01
5.961941e+01	-1.421229e+01
5.996377e+01	-1.426166e+01
6.031012e+01	-1.430868e+01
6.065847e+01	-1.435784e+01
6.100883e+01	-1.440534e+01
6.136121e+01	-1.445378e+01
6.171563e+01	-1.450260e+01
6.207210e+01	-1.455102e+01
6.243063e+01	-1.459882e+01
6.279122e+01	-1.464712e+01
6.315390e+01	-1.469572e+01
6.351868e+01	-1.474207e+01
6.388556e+01	-1.479111e+01
6.425456e+01	-1.484074e+01
6.462569e+01	-1.488902e+01
6.499897e+01	-1.493622e+01
6.537440e+01	-1.498502e+01
6.575200e+01	-1.503316e+01
6.613178e+01	-1.508174e+01
6.651375e+01	-1.513000e+01
6.689793e+01	-1.517934e+01
6.728433e+01	-1.522779e+01
6.767297e+01	-1.527658e+01
6.806384e+01	-1.532473e+01
6.845698e+01	-1.537332e+01
6.885238e+01	-1.542135e+01
6.925007e+01	-1.547034e+01
6.965005e+01	-1.551858e+01
7.005235e+01	-1.556767e+01
7.045697e+01	-1.561700e+01
7.086393e+01	-1.566527e+01
7.127323e+01	-1.571445e+01
7.168490e+01	-1.576300e+01
7.209895e+01	-1.581074e+01
7.251539e+01	-1.586111e+01
7.293424e+01	-1.590962e+01
7.335551e+01	-1.595776e+01
7.377920e+01	-1.600620e+01
7.420535e+01	-1.605637e+01
7.463396e+01	-1.610325e+01
7.506504e+01	-1.615334e+01
7.549861e+01	-1.620204e+01
7.593469e+01	-1.625002e+01
7.637328e+01	-1.629911e+01
7.681441e+01	-1.634847e+01
7.725809e+01	-1.639605e+01
7.770433e+01	-1.644668e+01
7.815315e+01	-1.649413e+01
7.860456e+01	-1.654462e+01
7.905857e+01	-1.659350e+01
7.951521e+01	-1.664204e+01
7.997449e+01	-1.669050e+01
8.043642e+01	-1.674003e+01
8.090102e+01	-1.678851e+01
8.136830e+01	-1.683823e+01
8.183828e+01	-1.688584e+01
8.231097e+01	-1.693480e+01
8.278640e+01	-1.698452e+01
8.326457e+01	-1.703360e+01
8.374550e+01	-1.708289e+01
8.422921e+01	-1.713040e+01
8.471572e+01	-1.718191e+01
8.520503e+01	-1.722893e+01
8.569717e+01	-1.727775e+01
8.619215e+01	-1.732739e+01
8.669000e+01	-1.737732e+01
8.719071e+01	-1.742523e+01
8.769432e+01	-1.747590e+01
8.820084e+01	-1.752409e+01
8.871029e+01	-1.757375e+01
8.922267e+01	-1.762322e+01
8.973802e+01	-1.767240e+01
9.025634e+01	-1.772200e+01
9.077766e+01	-1.777011e+01
9.130199e+01	-1.781927e+01
9.182935e+01	-1.786916e+01
9.235975e+01	-1.791756e+01
9.289321e+01	-1.796697e+01
9.342976e+01	-1.801772e+01
9.396941e+01	-1.806547e+01
9.451217e+01	-1.811474e+01
9.505807e+01	-1.816447e+01
9.560712e+01	-1.821270e+01
9.615934e+01	-1.826337e+01
9.671476e+01	-1.831182e+01
9.727338e+01	-1.836013e+01
9.783522e+01	-1.841064e+01
9.840032e+01	-1.846039e+01
9.896867e+01	-1.851052e+01
9.954031e+01	-1.855778e+01
1.001153e+02	-1.860826e+01
1.006935e+02	-1.865706e+01
1.012751e+02	-1.870626e+01
1.018601e+02	-1.875619e+01
1.024484e+02	-1.880545e+01
1.030402e+02	-1.885378e+01
1.036353e+02	-1.890435e+01
1.042339e+02	-1.895352e+01
1.048360e+02	-1.900356e+01
1.054415e+02	-1.905322e+01
1.060505e+02	-1.910160e+01
1.066631e+02	-1.915072e+01
1.072791e+02	-1.919967e+01
1.078988e+02	-1.925054e+01
1.085220e+02	-1.929917e+01
1.091488e+02	-1.934812e+01
1.097793e+02	-1.939795e+01
1.104133e+02	-1.944737e+01
1.110511e+02	-1.949816e+01
1.116925e+02	-1.954676e+01
1.123376e+02	-1.959790e+01
1.129865e+02	-1.964595e+01
1.136391e+02	-1.969497e+01
1.142955e+02	-1.974458e+01
1.149556e+02	-1.979534e+01
1.156196e+02	-1.984389e+01
1.162874e+02	-1.989331e+01
1.169591e+02	-1.994190e+01
1.176347e+02	-1.999435e+01
1.183141e+02	-2.004106e+01
1.189975e+02	-2.009202e+01
1.196848e+02	-2.014129e+01
1.203761e+02	-2.019052e+01
1.210714e+02	-2.023993e+01
1.217707e+02	-2.028997e+01
1.224740e+02	-2.033969e+01
1.231814e+02	-2.038891e+01
1.238929e+02	-2.043731e+01
1.246085e+02	-2.048838e+01
1.253283e+02	-2.053670e+01
1.260522e+02	-2.058734e+01
1.267802e+02	-2.063654e+01
1.275125e+02	-2.068619e+01
1.282490e+02	-2.073634e+01
1.289898e+02	-2.078526e+01
1.297348e+02	-2.083506e+01
1.304842e+02	-2.088447e+01
1.312378e+02	-2.093628e+01
1.319959e+02	-2.098253e+01
1.327583e+02	-2.103258e+01
1.335251e+02	-2.108303e+01
1.342963e+02	-2.113486e+01
1.350720e+02	-2.118207e+01
1.358522e+02	-2.123226e+01
1.366368e+02	-2.128248e+01
1.374260e+02	-2.133278e+01
1.382198e+02	-2.138217e+01
1.390182e+02	-2.143149e+01
1.398211e+02	-2.148321e+01
1.406287e+02	-2.152948e+01
1.414410e+02	-2.158027e+01
1.422579e+02	-2.163234e+01
1.430796e+02	-2.167905e+01
1.439060e+02	-2.172686e+01
1.447372e+02	-2.177811e+01
1.455732e+02	-2.182853e+01
1.464141e+02	-2.187846e+01
1.472597e+02	-2.192614e+01
1.481103e+02	-2.197694e+01
1.489658e+02	-2.202778e+01
1.498262e+02	-2.207616e+01
1.506916e+02	-2.212672e+01
1.515620e+02	-2.217675e+01
1.524374e+02	-2.222477e+01
1.533179e+02	-2.227677e+01
1.542034e+02	-2.232654e+01
1.550941e+02	-2.237623e+01
1.559899e+02	-2.242557e+01
1.568909e+02	-2.247567e+01
1.577971e+02	-2.252430e+01
1.587085e+02	-2.257507e+01
1.596252e+02	-2.262515e+01
1.605472e+02	-2.267361e+01
1.614745e+02	-2.272359e+01
1.624072e+02	-2.277305e+01
1.633453e+02	-2.282360e+01
1.642887e+02	-2.287433e+01
1.652377e+02	-2.292182e+01
1.661921e+02	-2.297450e+01
1.671520e+02	-2.302277e+01
1.681175e+02	-2.307125e+01
1.690885e+02	-2.312381e+01
1.700651e+02	-2.317283e+01
1.710474e+02	-2.322383e+01
1.720354e+02	-2.327194e+01
1.730291e+02	-2.331825e+01
1.740285e+02	-2.337076e+01
1.750337e+02	-2.342146e+01
1.760446e+02	-2.347161e+01
1.770615e+02	-2.352319e+01
1.780842e+02	-2.357145e+01
1.791128e+02	-2.361904e+01
1.801473e+02	-2.367078e+01
1.811878e+02	-2.372163e+01
1.822344e+02	-2.376997e+01
1.832870e+02	-2.381896e+01
1.843456e+02	-2.387150e+01
1.854104e+02	-2.391801e+01
1.864813e+02	-2.396736e+01
1.875584e+02	-2.401729e+01
1.886418e+02	-2.406877e+01
1.897313e+02	-2.412083e+01
1.908272e+02	-2.416903e+01
1.919294e+02	-2.421788e+01
1.930380e+02	-2.426835e+01
1.941530e+02	-2.431804e+01
1.952744e+02	-2.436932e+01
1.964023e+02	-2.441804e+01
1.975367e+02	-2.446847e+01
1.986777e+02	-2.451868e+01
1.998252e+02	-2.456889e+01
2.009794e+02	-2.461802e+01
2.021403e+02	-2.466907e+01
2.033078e+02	-2.471775e+01
2.044821e+02	-2.476879e+01
2.056632e+02	-2.481645e+01
2.068511e+02	-2.486639e+01
2.080459e+02	-2.491679e+01
2.092475e+02	-2.496770e+01
2.104561e+02	-2.502042e+01
2.116717e+02	-2.506796e+01
2.128943e+02	-2.511400e+01
2.141240e+02	-2.516588e+01
2.153608e+02	-2.521558e+01
2.166047e+02	-2.526549e+01
2.178558e+02	-2.531995e+01
2.191141e+02	-2.536543e+01
2.203797e+02	-2.541749e+01
2.216526e+02	-2.546534e+01
2.229329e+02	-2.551320e+01
2.242205e+02	-2.556526e+01
2.255156e+02	-2.561915e+01
2.268182e+02	-2.566519e+01
2.281283e+02	-2.571612e+01
2.294459e+02	-2.576504e+01
2.307712e+02	-2.581701e+01
2.321041e+02	-2.586359e+01
2.334447e+02	-2.591601e+01
2.347931e+02	-2.596638e+01
2.361493e+02	-2.601615e+01
2.375133e+02	-2.606333e+01
2.388851e+02	-2.611460e+01
2.402649e+02	-2.616232e+01
2.416527e+02	-2.621557e+01
2.430484e+02	-2.626647e+01
2.444523e+02	-2.631628e+01
2.458642e+02	-2.636434e+01
2.472843e+02	-2.641651e+01
2.487126e+02	-2.646681e+01
2.501492e+02	-2.651302e+01
2.515940e+02	-2.656750e+01
2.530472e+02	-2.661415e+01
2.545088e+02	-2.666405e+01
2.559789e+02	-2.671725e+01
2.574574e+02	-2.676480e+01
2.589444e+02	-2.681439e+01
2.604401e+02	-2.686367e+01
2.619444e+02	-2.691331e+01
2.634574e+02	-2.696425e+01
2.649791e+02	-2.701354e+01
2.665096e+02	-2.706445e+01
2.680489e+02	-2.711405e+01
2.695972e+02	-2.716525e+01
2.711544e+02	-2.721551e+01
2.727205e+02	-2.726510e+01
2.742958e+02	-2.731290e+01
2.758801e+02	-2.736627e+01
2.774736e+02	-2.741247e+01
2.790762e+02	-2.746345e+01
2.806882e+02	-2.751327e+01
2.823094e+02	-2.756159e+01
2.839400e+02	-2.761415e+01
2.855800e+02	-2.766168e+01
2.872295e+02	-2.771450e+01
2.888886e+02	-2.776498e+01
2.905572e+02	-2.781601e+01
2.922354e+02	-2.786467e+01
2.939234e+02	-2.791601e+01
2.956211e+02	-2.796006e+01
2.973286e+02	-2.801484e+01
2.990459e+02	-2.806725e+01
3.007732e+02	-2.811263e+01
3.025104e+02	-2.816845e+01
3.042577e+02	-2.821372e+01
3.060151e+02	-2.826583e+01
3.077826e+02	-2.831844e+01
3.095604e+02	-2.836759e+01
3.113484e+02	-2.841678e+01
3.131467e+02	-2.846316e+01
3.149554e+02	-2.851746e+01
3.167746e+02	-2.856609e+01
3.186043e+02	-2.861330e+01
3.204445e+02	-2.866767e+01
3.222954e+02	-2.871277e+01
3.241570e+02	-2.876783e+01
3.260293e+02	-2.881640e+01
3.279124e+02	-2.886510e+01
3.298064e+02	-2.891750e+01
3.317114e+02	-2.896719e+01
3.336273e+02	-2.901881e+01
3.355544e+02	-2.906625e+01
3.374925e+02	-2.911690e+01
3.394418e+02	-2.916777e+01
3.414024e+02	-2.921548e+01
3.433744e+02	-2.926488e+01
3.453577e+02	-2.931936e+01
3.473525e+02	-2.936829e+01
3.493588e+02	-2.941655e+01
3.513766e+02	-2.946574e+01
3.534062e+02	-2.951628e+01
3.554474e+02	-2.956746e+01
3.575005e+02	-2.961480e+01
3.595654e+02	-2.966737e+01
3.616422e+02	-2.971715e+01
3.637311e+02	-2.976218e+01
3.658320e+02	-2.981768e+01
3.679450e+02	-2.986730e+01
3.700702e+02	-2.991971e+01
3.722077e+02	-2.996688e+01
3.743576e+02	-3.001465e+01
3.765199e+02	-3.006432e+01
3.786946e+02	-3.012054e+01
3.808820e+02	-3.016528e+01
3.830819e+02	-3.021649e+01
3.852946e+02	-3.027374e+01
3.875200e+02	-3.031265e+01
3.897583e+02	-3.036680e+01
3.920096e+02	-3.042154e+01
3.942738e+02	-3.047379e+01
3.965511e+02	-3.051659e+01
3.988416e+02	-3.057077e+01
4.011452e+02	-3.061798e+01
4.034622e+02	-3.066053e+01
4.057926e+02	-3.072147e+01
4.081365e+02	-3.076764e+01
4.104938e+02	-3.081664e+01
4.128648e+02	-3.087175e+01
4.152495e+02	-3.091592e+01
4.176480e+02	-3.097339e+01
4.200603e+02	-3.101621e+01
4.224866e+02	-3.106482e+01
4.249268e+02	-3.111721e+01
4.273812e+02	-3.117182e+01
4.298497e+02	-3.121338e+01
4.323325e+02	-3.126777e+01
4.348297e+02	-3.132005e+01
4.373412e+02	-3.137237e+01
4.398673e+02	-3.142573e+01
4.424079e+02	-3.146764e+01
4.449633e+02	-3.152071e+01
4.475334e+02	-3.157448e+01
4.501183e+02	-3.161975e+01
4.527182e+02	-3.167037e+01
4.553330e+02	-3.172006e+01
4.579630e+02	-3.177011e+01
4.606082e+02	-3.182234e+01
4.632687e+02	-3.187958e+01
4.659445e+02	-3.192087e+01
4.686358e+02	-3.196558e+01
4.713426e+02	-3.202060e+01
4.740650e+02	-3.207712e+01
4.768032e+02	-3.212134e+01
4.795572e+02	-3.217589e+01
4.823271e+02	-3.221902e+01
4.851130e+02	-3.228156e+01
4.879150e+02	-3.231816e+01
4.907332e+02	-3.237441e+01
4.935676e+02	-3.242676e+01
4.964185e+02	-3.247547e+01
4.992858e+02	-3.252135e+01
5.021696e+02	-3.257247e+01
5.050701e+02	-3.262070e+01
5.079874e+02	-3.267916e+01
5.109215e+02	-3.272515e+01
5.138726e+02	-3.278123e+01
5.168407e+02	-3.282551e+01
5.198259e+02	-3.287637e+01
5.228284e+02	-3.292183e+01
5.258482e+02	-3.298028e+01
5.288855e+02	-3.303179e+01
5.319403e+02	-3.307769e+01
5.350128e+02	-3.312588e+01
5.381030e+02	-3.317533e+01
5.412111e+02	-3.322694e+01
5.443371e+02	-3.328742e+01
5.474812e+02	-3.333104e+01
5.506434e+02	-3.337465e+01
5.538239e+02	-3.342135e+01
5.570228e+02	-3.347636e+01
5.602401e+02	-3.352917e+01
5.634760e+02	-3.357847e+01
5.667306e+02	-3.362970e+01
5.700040e+02	-3.367830e+01
5.732964e+02	-3.372595e+01
5.766077e+02	-3.378145e+01
5.799382e+02	-3.383066e+01
5.832879e+02	-3.389008e+01
5.866569e+02	-3.393530e+01
5.900454e+02	-3.398568e+01
5.934535e+02	-3.403064e+01
5.968813e+02	-3.408363e+01
6.003288e+02	-3.413060e+01
6.037963e+02	-3.419446e+01
6.072838e+02	-3.423223e+01
6.107914e+02	-3.427894e+01
6.143194e+02	-3.432761e+01
6.178676e+02	-3.438571e+01
6.214364e+02	-3.444051e+01
6.250258e+02	-3.449201e+01
6.286359e+02	-3.453521e+01
6.322669e+02	-3.457906e+01
6.359189e+02	-3.463706e+01
6.395919e+02	-3.468879e+01
6.432862e+02	-3.472974e+01
6.470017e+02	-3.479494e+01
6.507388e+02	-3.483674e+01
6.544974e+02	-3.489375e+01
6.582778e+02	-3.493172e+01
6.620800e+02	-3.498973e+01
6.659041e+02	-3.504356e+01
6.697504e+02	-3.509160e+01
6.736188e+02	-3.514392e+01
6.775096e+02	-3.519265e+01
6.814229e+02	-3.524634e+01
6.853587e+02	-3.528847e+01
6.893173e+02	-3.534227e+01
6.932988e+02	-3.539591e+01
6.973033e+02	-3.544323e+01
7.013309e+02	-3.549045e+01
