Frequency(Hz)	Magnitude(dB)
1.000000e+01	-1.840481e-05
1.005776e+01	-1.861804e-05
1.011585e+01	-1.883373e-05
1.017428e+01	-1.905193e-05
1.023305e+01	-1.927265e-05
1.029215e+01	-1.949593e-05
1.035160e+01	-1.972179e-05
1.041139e+01	-1.995027e-05
1.047153e+01	-2.018140e-05
1.053201e+01	-2.041521e-05
1.059284e+01	-2.065172e-05
1.065403e+01	-2.089098e-05
1.071556e+01	-2.113301e-05
1.077746e+01	-2.137784e-05
1.083971e+01	-2.162551e-05
1.090232e+01	-2.187604e-05
1.096529e+01	-2.212948e-05
1.102862e+01	-2.238586e-05
1.109232e+01	-2.264520e-05
1.115639e+01	-2.290755e-05
1.122083e+01	-2.317294e-05
1.128564e+01	-2.344141e-05
1.135083e+01	-2.371298e-05
1.141639e+01	-2.398770e-05
1.148233e+01	-2.426561e-05
1.154865e+01	-2.454673e-05
1.161536e+01	-2.483111e-05
1.168245e+01	-2.511878e-05
1.174992e+01	-2.540979e-05
1.181779e+01	-2.570417e-05
1.188605e+01	-2.600196e-05
1.195470e+01	-2.630320e-05
1.202375e+01	-2.660793e-05
1.209320e+01	-2.691619e-05
1.216305e+01	-2.722802e-05
1.223330e+01	-2.754346e-05
1.230396e+01	-2.786256e-05
1.237503e+01	-2.818535e-05
1.244651e+01	-2.851189e-05
1.251840e+01	-2.884220e-05
1.259070e+01	-2.917635e-05
1.266343e+01	-2.951436e-05
1.273657e+01	-2.985629e-05
1.281014e+01	-3.020219e-05
1.288413e+01	-3.055208e-05
1.295855e+01	-3.090604e-05
1.303339e+01	-3.126409e-05
1.310867e+01	-3.162629e-05
1.318439e+01	-3.199269e-05
1.326054e+01	-3.236333e-05
1.333713e+01	-3.273827e-05
1.341417e+01	-3.311755e-05
1.349165e+01	-3.350123e-05
1.356958e+01	-3.388935e-05
1.364795e+01	-3.428196e-05
1.372678e+01	-3.467913e-05
1.380607e+01	-3.508089e-05
1.388581e+01	-3.548731e-05
1.396602e+01	-3.589844e-05
1.404668e+01	-3.631433e-05
1.412782e+01	-3.673504e-05
1.420942e+01	-3.716063e-05
1.429149e+01	-3.759114e-05
1.437404e+01	-3.802664e-05
1.445706e+01	-3.846719e-05
1.454057e+01	-3.891284e-05
1.462455e+01	-3.936366e-05
1.470902e+01	-3.981969e-05
1.479398e+01	-4.028101e-05
1.487943e+01	-4.074768e-05
1.496537e+01	-4.121975e-05
1.505181e+01	-4.169729e-05
1.513875e+01	-4.218036e-05
1.522619e+01	-4.266903e-05
1.531414e+01	-4.316336e-05
1.540259e+01	-4.366342e-05
1.549156e+01	-4.416927e-05
1.558103e+01	-4.468098e-05
1.567103e+01	-4.519862e-05
1.576155e+01	-4.572225e-05
1.585258e+01	-4.625196e-05
1.594415e+01	-4.678780e-05
1.603624e+01	-4.732984e-05
1.612886e+01	-4.787817e-05
1.622202e+01	-4.843285e-05
1.631572e+01	-4.899395e-05
1.640996e+01	-4.956156e-05
1.650474e+01	-5.013574e-05
1.660008e+01	-5.071657e-05
1.669596e+01	-5.130413e-05
1.679239e+01	-5.189850e-05
1.688938e+01	-5.249976e-05
1.698694e+01	-5.310798e-05
1.708505e+01	-5.372325e-05
1.718373e+01	-5.434564e-05
1.728299e+01	-5.497525e-05
1.738281e+01	-5.561215e-05
1.748322e+01	-5.625642e-05
1.758420e+01	-5.690817e-05
1.768576e+01	-5.756746e-05
1.778792e+01	-5.823439e-05
1.789066e+01	-5.890905e-05
1.799399e+01	-5.959152e-05
1.809793e+01	-6.028190e-05
1.820246e+01	-6.098028e-05
1.830760e+01	-6.168675e-05
1.841334e+01	-6.240140e-05
1.851969e+01	-6.312433e-05
1.862666e+01	-6.385564e-05
1.873425e+01	-6.459542e-05
1.884246e+01	-6.534377e-05
1.895129e+01	-6.610079e-05
1.906075e+01	-6.686658e-05
1.917085e+01	-6.764124e-05
1.928158e+01	-6.842488e-05
1.939295e+01	-6.921759e-05
1.950496e+01	-7.001949e-05
1.961762e+01	-7.083068e-05
1.973093e+01	-7.165127e-05
1.984490e+01	-7.248136e-05
1.995952e+01	-7.332107e-05
2.007480e+01	-7.417051e-05
2.019076e+01	-7.502979e-05
2.030738e+01	-7.589902e-05
2.042467e+01	-7.677832e-05
2.054264e+01	-7.766781e-05
2.066130e+01	-7.856761e-05
2.078064e+01	-7.947783e-05
2.090066e+01	-8.039859e-05
2.102139e+01	-8.133002e-05
2.114280e+01	-8.227225e-05
2.126492e+01	-8.322538e-05
2.138775e+01	-8.418956e-05
2.151128e+01	-8.516491e-05
2.163553e+01	-8.615156e-05
2.176050e+01	-8.714964e-05
2.188619e+01	-8.815929e-05
2.201260e+01	-8.918063e-05
2.213974e+01	-9.021380e-05
2.226762e+01	-9.125894e-05
2.239624e+01	-9.231619e-05
2.252560e+01	-9.338569e-05
2.265571e+01	-9.446757e-05
2.278656e+01	-9.556199e-05
2.291818e+01	-9.666909e-05
2.305055e+01	-9.778902e-05
2.318369e+01	-9.892192e-05
2.331760e+01	-1.000679e-04
2.345228e+01	-1.012272e-04
2.358774e+01	-1.024000e-04
2.372398e+01	-1.035863e-04
2.386101e+01	-1.047864e-04
2.399883e+01	-1.060003e-04
2.413745e+01	-1.072284e-04
2.427686e+01	-1.084706e-04
2.441709e+01	-1.097273e-04
2.455812e+01	-1.109985e-04
2.469997e+01	-1.122844e-04
2.484263e+01	-1.135852e-04
2.498612e+01	-1.149011e-04
2.513044e+01	-1.162323e-04
2.527559e+01	-1.175788e-04
2.542158e+01	-1.189410e-04
2.556842e+01	-1.203189e-04
2.571610e+01	-1.217128e-04
2.586463e+01	-1.231229e-04
2.601403e+01	-1.245493e-04
2.616428e+01	-1.259922e-04
2.631541e+01	-1.274518e-04
2.646740e+01	-1.289284e-04
2.662028e+01	-1.304220e-04
2.677404e+01	-1.319330e-04
2.692868e+01	-1.334614e-04
2.708422e+01	-1.350076e-04
2.724066e+01	-1.365717e-04
2.739800e+01	-1.381539e-04
2.755625e+01	-1.397544e-04
2.771541e+01	-1.413735e-04
2.787550e+01	-1.430113e-04
2.803650e+01	-1.446681e-04
2.819844e+01	-1.463441e-04
2.836131e+01	-1.480395e-04
2.852513e+01	-1.497546e-04
2.868989e+01	-1.514895e-04
2.885560e+01	-1.532445e-04
2.902227e+01	-1.550198e-04
2.918990e+01	-1.568157e-04
2.935850e+01	-1.586325e-04
2.952807e+01	-1.604702e-04
2.969863e+01	-1.623293e-04
2.987016e+01	-1.642099e-04
3.004269e+01	-1.661123e-04
3.021622e+01	-1.680367e-04
3.039075e+01	-1.699834e-04
3.056628e+01	-1.719527e-04
3.074283e+01	-1.739448e-04
3.092040e+01	-1.759599e-04
3.109900e+01	-1.779984e-04
3.127862e+01	-1.800605e-04
3.145929e+01	-1.821465e-04
3.164099e+01	-1.842567e-04
3.182375e+01	-1.863913e-04
3.200756e+01	-1.885507e-04
3.219244e+01	-1.907350e-04
3.237838e+01	-1.929447e-04
3.256540e+01	-1.951800e-04
3.275349e+01	-1.974411e-04
3.294268e+01	-1.997285e-04
3.313295e+01	-2.020424e-04
3.332433e+01	-2.043830e-04
3.351681e+01	-2.067508e-04
3.371040e+01	-2.091460e-04
3.390511e+01	-2.115690e-04
3.410094e+01	-2.140200e-04
3.429791e+01	-2.164994e-04
3.449601e+01	-2.190075e-04
3.469526e+01	-2.215447e-04
3.489566e+01	-2.241113e-04
3.509721e+01	-2.267077e-04
3.529993e+01	-2.293341e-04
3.550382e+01	-2.319909e-04
3.570889e+01	-2.346785e-04
3.591515e+01	-2.373972e-04
3.612259e+01	-2.401475e-04
3.633123e+01	-2.429296e-04
3.654108e+01	-2.457439e-04
3.675214e+01	-2.485908e-04
3.696442e+01	-2.514707e-04
3.717792e+01	-2.543840e-04
3.739266e+01	-2.573310e-04
3.760864e+01	-2.603122e-04
3.782587e+01	-2.633279e-04
3.804435e+01	-2.663785e-04
3.826409e+01	-2.694645e-04
3.848510e+01	-2.725862e-04
3.870739e+01	-2.757441e-04
3.893096e+01	-2.789386e-04
3.915583e+01	-2.821701e-04
3.938199e+01	-2.854390e-04
3.960946e+01	-2.887458e-04
3.983824e+01	-2.920908e-04
4.006834e+01	-2.954747e-04
4.029978e+01	-2.988977e-04
4.053255e+01	-3.023604e-04
4.076666e+01	-3.058632e-04
4.100213e+01	-3.094066e-04
4.123896e+01	-3.129910e-04
4.147715e+01	-3.166170e-04
4.171672e+01	-3.202850e-04
4.195767e+01	-3.239954e-04
4.220002e+01	-3.277488e-04
4.244377e+01	-3.315458e-04
4.268892e+01	-3.353867e-04
4.293549e+01	-3.392721e-04
4.318348e+01	-3.432025e-04
4.343291e+01	-3.471784e-04
4.368377e+01	-3.512004e-04
4.393609e+01	-3.552690e-04
4.418986e+01	-3.593847e-04
4.444510e+01	-3.635481e-04
4.470182e+01	-3.677597e-04
4.496001e+01	-3.720201e-04
4.521970e+01	-3.763299e-04
4.548089e+01	-3.806896e-04
4.574358e+01	-3.850998e-04
4.600779e+01	-3.895611e-04
4.627353e+01	-3.940741e-04
4.654081e+01	-3.986393e-04
4.680963e+01	-4.032574e-04
4.708000e+01	-4.079291e-04
4.735193e+01	-4.126548e-04
4.762543e+01	-4.174353e-04
4.790051e+01	-4.222712e-04
4.817719e+01	-4.271631e-04
4.845545e+01	-4.321116e-04
4.873533e+01	-4.371175e-04
4.901682e+01	-4.421814e-04
4.929994e+01	-4.473039e-04
4.958470e+01	-4.524858e-04
4.987110e+01	-4.577277e-04
5.015915e+01	-4.630303e-04
5.044887e+01	-4.683943e-04
5.074026e+01	-4.738205e-04
5.103333e+01	-4.793096e-04
5.132810e+01	-4.848622e-04
5.162457e+01	-4.904791e-04
5.192275e+01	-4.961611e-04
5.222265e+01	-5.019090e-04
5.252429e+01	-5.077234e-04
5.282767e+01	-5.136051e-04
5.313280e+01	-5.195550e-04
5.343969e+01	-5.255739e-04
5.374836e+01	-5.316624e-04
5.405880e+01	-5.378215e-04
5.437105e+01	-5.440519e-04
5.468509e+01	-5.503545e-04
5.500095e+01	-5.567301e-04
5.531863e+01	-5.631796e-04
5.563815e+01	-5.697037e-04
5.595951e+01	-5.763035e-04
5.628273e+01	-5.829796e-04
5.660782e+01	-5.897332e-04
5.693479e+01	-5.965649e-04
5.726364e+01	-6.034758e-04
5.759439e+01	-6.104667e-04
5.792705e+01	-6.175387e-04
5.826164e+01	-6.246925e-04
5.859815e+01	-6.319292e-04
5.893662e+01	-6.392498e-04
5.927703e+01	-6.466551e-04
5.961941e+01	-6.541462e-04
5.996377e+01	-6.617241e-04
6.031012e+01	-6.693898e-04
6.065847e+01	-6.771442e-04
6.100883e+01	-6.849885e-04
6.136121e+01	-6.929236e-04
6.171563e+01	-7.009507e-04
6.207210e+01	-7.090708e-04
6.243063e+01	-7.172849e-04
6.279122e+01	-7.255941e-04
6.315390e+01	-7.339996e-04
6.351868e+01	-7.425025e-04
6.388556e+01	-7.511038e-04
6.425456e+01	-7.598048e-04
6.462569e+01	-7.686066e-04
6.499897e+01	-7.775103e-04
6.537440e+01	-7.865171e-04
6.575200e+01	-7.956283e-04
6.613178e+01	-8.048450e-04
6.651375e+01	-8.141685e-04
6.689793e+01	-8.236000e-04
6.728433e+01	-8.331407e-04
6.767297e+01	-8.427919e-04
6.806384e+01	-8.525549e-04
6.845698e+01	-8.624310e-04
6.885238e+01	-8.724215e-04
6.925007e+01	-8.825278e-04
6.965005e+01	-8.927510e-04
7.005235e+01	-9.030927e-04
7.045697e+01	-9.135542e-04
7.086393e+01	-9.241368e-04
7.127323e+01	-9.348421e-04
7.168490e+01	-9.456713e-04
7.209895e+01	-9.566259e-04
7.251539e+01	-9.677075e-04
7.293424e+01	-9.789174e-04
7.335551e+01	-9.902571e-04
7.377920e+01	-1.001728e-03
7.420535e+01	-1.013332e-03
7.463396e+01	-1.025070e-03
7.506504e+01	-1.036945e-03
7.549861e+01	-1.048957e-03
7.593469e+01	-1.061108e-03
7.637328e+01	-1.073399e-03
7.681441e+01	-1.085833e-03
7.725809e+01	-1.098411e-03
7.770433e+01	-1.111135e-03
7.815315e+01	-1.124006e-03
7.860456e+01	-1.137027e-03
7.905857e+01	-1.150198e-03
7.951521e+01	-1.163521e-03
7.997449e+01	-1.176999e-03
8.043642e+01	-1.190633e-03
8.090102e+01	-1.204425e-03
8.136830e+01	-1.218377e-03
8.183828e+01	-1.232490e-03
8.231097e+01	-1.246766e-03
8.278640e+01	-1.261208e-03
8.326457e+01	-1.275818e-03
8.374550e+01	-1.290596e-03
8.422921e+01	-1.305546e-03
8.471572e+01	-1.320669e-03
8.520503e+01	-1.335967e-03
8.569717e+01	-1.351442e-03
8.619215e+01	-1.367096e-03
8.669000e+01	-1.382932e-03
8.719071e+01	-1.398951e-03
8.769432e+01	-1.415155e-03
8.820084e+01	-1.431548e-03
8.871029e+01	-1.448130e-03
8.922267e+01	-1.464904e-03
8.973802e+01	-1.481872e-03
9.025634e+01	-1.499037e-03
9.077766e+01	-1.516401e-03
9.130199e+01	-1.533966e-03
9.182935e+01	-1.551734e-03
9.235975e+01	-1.569708e-03
9.289321e+01	-1.587890e-03
9.342976e+01	-1.606283e-03
9.396941e+01	-1.624889e-03
9.451217e+01	-1.643710e-03
9.505807e+01	-1.662749e-03
9.560712e+01	-1.682009e-03
9.615934e+01	-1.701491e-03
9.671476e+01	-1.721200e-03
9.727338e+01	-1.741136e-03
9.783522e+01	-1.761304e-03
9.840032e+01	-1.781705e-03
9.896867e+01	-1.802342e-03
9.954031e+01	-1.823218e-03
1.001153e+02	-1.844336e-03
1.006935e+02	-1.865699e-03
1.012751e+02	-1.887309e-03
1.018601e+02	-1.909169e-03
1.024484e+02	-1.931282e-03
1.030402e+02	-1.953652e-03
1.036353e+02	-1.976280e-03
1.042339e+02	-1.999170e-03
1.048360e+02	-2.022326e-03
1.054415e+02	-2.045750e-03
1.060505e+02	-2.069445e-03
1.066631e+02	-2.093414e-03
1.072791e+02	-2.117661e-03
1.078988e+02	-2.142188e-03
1.085220e+02	-2.167000e-03
1.091488e+02	-2.192099e-03
1.097793e+02	-2.217488e-03
1.104133e+02	-2.243172e-03
1.110511e+02	-2.269153e-03
1.116925e+02	-2.295435e-03
1.123376e+02	-2.322021e-03
1.129865e+02	-2.348915e-03
1.136391e+02	-2.376120e-03
1.142955e+02	-2.403640e-03
1.149556e+02	-2.431479e-03
1.156196e+02	-2.459641e-03
1.162874e+02	-2.488128e-03
1.169591e+02	-2.516945e-03
1.176347e+02	-2.546096e-03
1.183141e+02	-2.575585e-03
1.189975e+02	-2.605415e-03
1.196848e+02	-2.635590e-03
1.203761e+02	-2.666115e-03
1.210714e+02	-2.696993e-03
1.217707e+02	-2.728228e-03
1.224740e+02	-2.759825e-03
1.231814e+02	-2.791788e-03
1.238929e+02	-2.824121e-03
1.246085e+02	-2.856829e-03
1.253283e+02	-2.889915e-03
1.260522e+02	-2.923384e-03
1.267802e+02	-2.957241e-03
1.275125e+02	-2.991489e-03
1.282490e+02	-3.026134e-03
1.289898e+02	-3.061181e-03
1.297348e+02	-3.096633e-03
1.304842e+02	-3.132495e-03
1.312378e+02	-3.168772e-03
1.319959e+02	-3.205470e-03
1.327583e+02	-3.242592e-03
1.335251e+02	-3.280144e-03
1.342963e+02	-3.318131e-03
1.350720e+02	-3.356558e-03
1.358522e+02	-3.395429e-03
1.366368e+02	-3.434750e-03
1.374260e+02	-3.474527e-03
1.382198e+02	-3.514764e-03
1.390182e+02	-3.555467e-03
1.398211e+02	-3.596641e-03
1.406287e+02	-3.638291e-03
1.414410e+02	-3.680424e-03
1.422579e+02	-3.723044e-03
1.430796e+02	-3.766158e-03
1.439060e+02	-3.809771e-03
1.447372e+02	-3.853888e-03
1.455732e+02	-3.898516e-03
1.464141e+02	-3.943661e-03
1.472597e+02	-3.989329e-03
1.481103e+02	-4.035524e-03
1.489658e+02	-4.082255e-03
1.498262e+02	-4.129527e-03
1.506916e+02	-4.177345e-03
1.515620e+02	-4.225717e-03
1.524374e+02	-4.274649e-03
1.533179e+02	-4.324147e-03
1.542034e+02	-4.374218e-03
1.550941e+02	-4.424869e-03
1.559899e+02	-4.476106e-03
1.568909e+02	-4.527936e-03
1.577971e+02	-4.580365e-03
1.587085e+02	-4.633402e-03
1.596252e+02	-4.687052e-03
1.605472e+02	-4.741323e-03
1.614745e+02	-4.796222e-03
1.624072e+02	-4.851756e-03
1.633453e+02	-4.907933e-03
1.642887e+02	-4.964760e-03
1.652377e+02	-5.022245e-03
1.661921e+02	-5.080395e-03
1.671520e+02	-5.139218e-03
1.681175e+02	-5.198721e-03
1.690885e+02	-5.258913e-03
1.700651e+02	-5.319802e-03
1.710474e+02	-5.381395e-03
1.720354e+02	-5.443700e-03
1.730291e+02	-5.506727e-03
1.740285e+02	-5.570483e-03
1.750337e+02	-5.634976e-03
1.760446e+02	-5.700216e-03
1.770615e+02	-5.766210e-03
1.780842e+02	-5.832969e-03
1.791128e+02	-5.900499e-03
1.801473e+02	-5.968811e-03
1.811878e+02	-6.037913e-03
1.822344e+02	-6.107814e-03
1.832870e+02	-6.178524e-03
1.843456e+02	-6.250052e-03
1.854104e+02	-6.322408e-03
1.864813e+02	-6.395601e-03
1.875584e+02	-6.469640e-03
1.886418e+02	-6.544536e-03
1.897313e+02	-6.620298e-03
1.908272e+02	-6.696937e-03
1.919294e+02	-6.774462e-03
1.930380e+02	-6.852884e-03
1.941530e+02	-6.932212e-03
1.952744e+02	-7.012459e-03
1.964023e+02	-7.093634e-03
1.975367e+02	-7.175747e-03
1.986777e+02	-7.258810e-03
1.998252e+02	-7.342834e-03
2.009794e+02	-7.427830e-03
2.021403e+02	-7.513809e-03
2.033078e+02	-7.600782e-03
2.044821e+02	-7.688760e-03
2.056632e+02	-7.777757e-03
2.068511e+02	-7.867782e-03
2.080459e+02	-7.958849e-03
2.092475e+02	-8.050968e-03
2.104561e+02	-8.144153e-03
2.116717e+02	-8.238415e-03
2.128943e+02	-8.333768e-03
2.141240e+02	-8.430223e-03
2.153608e+02	-8.527793e-03
2.166047e+02	-8.626491e-03
2.178558e+02	-8.726330e-03
2.191141e+02	-8.827324e-03
2.203797e+02	-8.929486e-03
2.216526e+02	-9.032828e-03
2.229329e+02	-9.137365e-03
2.242205e+02	-9.243111e-03
2.255156e+02	-9.350079e-03
2.268182e+02	-9.458284e-03
2.281283e+02	-9.567739e-03
2.294459e+02	-9.678460e-03
2.307712e+02	-9.790461e-03
2.321041e+02	-9.903756e-03
2.334447e+02	-1.001836e-02
2.347931e+02	-1.013429e-02
2.361493e+02	-1.025156e-02
2.375133e+02	-1.037018e-02
2.388851e+02	-1.049018e-02
2.402649e+02	-1.061156e-02
2.416527e+02	-1.073435e-02
2.430484e+02	-1.085855e-02
2.444523e+02	-1.098419e-02
2.458642e+02	-1.111128e-02
2.472843e+02	-1.123984e-02
2.487126e+02	-1.136989e-02
2.501492e+02	-1.150144e-02
2.515940e+02	-1.163450e-02
2.530472e+02	-1.176911e-02
2.545088e+02	-1.190527e-02
2.559789e+02	-1.204300e-02
2.574574e+02	-1.218233e-02
2.589444e+02	-1.232326e-02
2.604401e+02	-1.246583e-02
2.619444e+02	-1.261004e-02
2.634574e+02	-1.275591e-02
2.649791e+02	-1.290347e-02
2.665096e+02	-1.305274e-02
2.680489e+02	-1.320373e-02
2.695972e+02	-1.335646e-02
2.711544e+02	-1.351095e-02
2.727205e+02	-1.366723e-02
2.742958e+02	-1.382532e-02
2.758801e+02	-1.398523e-02
2.774736e+02	-1.414699e-02
2.790762e+02	-1.431061e-02
2.806882e+02	-1.447613e-02
2.823094e+02	-1.464356e-02
2.839400e+02	-1.481291e-02
2.855800e+02	-1.498423e-02
2.872295e+02	-1.515752e-02
2.888886e+02	-1.533281e-02
2.905572e+02	-1.551013e-02
2.922354e+02	-1.568949e-02
2.939234e+02	-1.587093e-02
2.956211e+02	-1.605446e-02
2.973286e+02	-1.624010e-02
2.990459e+02	-1.642789e-02
3.007732e+02	-1.661785e-02
3.025104e+02	-1.680999e-02
3.042577e+02	-1.700436e-02
3.060151e+02	-1.720097e-02
3.077826e+02	-1.739985e-02
3.095604e+02	-1.760102e-02
3.113484e+02	-1.780451e-02
3.131467e+02	-1.801035e-02
3.149554e+02	-1.821857e-02
3.167746e+02	-1.842918e-02
3.186043e+02	-1.864223e-02
3.204445e+02	-1.885774e-02
3.222954e+02	-1.907573e-02
3.241570e+02	-1.929623e-02
3.260293e+02	-1.951928e-02
3.279124e+02	-1.974490e-02
3.298064e+02	-1.997312e-02
3.317114e+02	-2.020397e-02
3.336273e+02	-2.043749e-02
3.355544e+02	-2.067370e-02
3.374925e+02	-2.091263e-02
3.394418e+02	-2.115432e-02
3.414024e+02	-2.139879e-02
3.433744e+02	-2.164608e-02
3.453577e+02	-2.189622e-02
3.473525e+02	-2.214924e-02
3.493588e+02	-2.240519e-02
3.513766e+02	-2.266408e-02
3.534062e+02	-2.292595e-02
3.554474e+02	-2.319084e-02
3.575005e+02	-2.345879e-02
3.595654e+02	-2.372982e-02
3.616422e+02	-2.400397e-02
3.637311e+02	-2.428128e-02
3.658320e+02	-2.456179e-02
3.679450e+02	-2.484553e-02
3.700702e+02	-2.513253e-02
3.722077e+02	-2.542285e-02
3.743576e+02	-2.571650e-02
3.765199e+02	-2.601354e-02
3.786946e+02	-2.631400e-02
3.808820e+02	-2.661792e-02
3.830819e+02	-2.692533e-02
3.852946e+02	-2.723629e-02
3.875200e+02	-2.755082e-02
3.897583e+02	-2.786898e-02
3.920096e+02	-2.819080e-02
3.942738e+02	-2.851632e-02
3.965511e+02	-2.884559e-02
3.988416e+02	-2.917865e-02
4.011452e+02	-2.951554e-02
4.034622e+02	-2.985630e-02
4.057926e+02	-3.020099e-02
4.081365e+02	-3.054964e-02
4.104938e+02	-3.090231e-02
4.128648e+02	-3.125902e-02
4.152495e+02	-3.161985e-02
4.176480e+02	-3.198482e-02
4.200603e+02	-3.235399e-02
4.224866e+02	-3.272740e-02
4.249268e+02	-3.310511e-02
4.273812e+02	-3.348716e-02
4.298497e+02	-3.387360e-02
4.323325e+02	-3.426448e-02
4.348297e+02	-3.465985e-02
4.373412e+02	-3.505977e-02
4.398673e+02	-3.546429e-02
4.424079e+02	-3.587345e-02
4.449633e+02	-3.628731e-02
4.475334e+02	-3.670593e-02
4.501183e+02	-3.712935e-02
4.527182e+02	-3.755764e-02
4.553330e+02	-3.799085e-02
4.579630e+02	-3.842903e-02
4.606082e+02	-3.887224e-02
4.632687e+02	-3.932055e-02
4.659445e+02	-3.977399e-02
4.686358e+02	-4.023265e-02
4.713426e+02	-4.069656e-02
4.740650e+02	-4.116581e-02
4.768032e+02	-4.164043e-02
4.795572e+02	-4.212050e-02
4.823271e+02	-4.260608e-02
4.851130e+02	-4.309723e-02
4.879150e+02	-4.359401e-02
4.907332e+02	-4.409649e-02
4.935676e+02	-4.460473e-02
4.964185e+02	-4.511880e-02
4.992858e+02	-4.563876e-02
5.021696e+02	-4.616468e-02
5.050701e+02	-4.669663e-02
5.079874e+02	-4.723468e-02
5.109215e+02	-4.777889e-02
5.138726e+02	-4.832933e-02
5.168407e+02	-4.888609e-02
5.198259e+02	-4.944921e-02
5.228284e+02	-5.001879e-02
5.258482e+02	-5.059489e-02
5.288855e+02	-5.117759e-02
5.319403e+02	-5.176696e-02
5.350128e+02	-5.236307e-02
5.381030e+02	-5.296600e-02
5.412111e+02	-5.357584e-02
5.443371e+02	-5.419265e-02
5.474812e+02	-5.481652e-02
5.506434e+02	-5.544753e-02
5.538239e+02	-5.608575e-02
5.570228e+02	-5.673127e-02
5.602401e+02	-5.738417e-02
5.634760e+02	-5.804453e-02
5.667306e+02	-5.871244e-02
5.700040e+02	-5.938799e-02
5.732964e+02	-6.007125e-02
5.766077e+02	-6.076232e-02
5.799382e+02	-6.146128e-02
5.832879e+02	-6.216823e-02
5.866569e+02	-6.288324e-02
5.900454e+02	-6.360643e-02
5.934535e+02	-6.433786e-02
5.968813e+02	-6.507765e-02
6.003288e+02	-6.582587e-02
6.037963e+02	-6.658263e-02
6.072838e+02	-6.734803e-02
6.107914e+02	-6.812215e-02
6.143194e+02	-6.890510e-02
6.178676e+02	-6.969698e-02
6.214364e+02	-7.049788e-02
6.250258e+02	-7.130791e-02
6.286359e+02	-7.212718e-02
6.322669e+02	-7.295577e-02
6.359189e+02	-7.379380e-02
6.395919e+02	-7.464138e-02
6.432862e+02	-7.549860e-02
6.470017e+02	-7.636559e-02
6.507388e+02	-7.724244e-02
6.544974e+02	-7.812927e-02
6.582778e+02	-7.902618e-02
6.620800e+02	-7.993330e-02
6.659041e+02	-8.085074e-02
6.697504e+02	-8.177860e-02
6.736188e+02	-8.271701e-02
6.775096e+02	-8.366609e-02
6.814229e+02	-8.462595e-02
6.853587e+02	-8.559671e-02
6.893173e+02	-8.657850e-02
6.932988e+02	-8.757143e-02
6.973033e+02	-8.857564e-02
7.013309e+02	-8.959124e-02
