Frequency(Hz)	Magnitude(dB)
1.000000e+01	-1.955688e+00
1.005776e+01	-1.973961e+00
1.011585e+01	-1.992359e+00
1.017428e+01	-2.010681e+00
1.023305e+01	-2.029558e+00
1.029215e+01	-2.048117e+00
1.035160e+01	-2.066778e+00
1.041139e+01	-2.085713e+00
1.047153e+01	-2.105251e+00
1.053201e+01	-2.124431e+00
1.059284e+01	-2.143773e+00
1.065403e+01	-2.163400e+00
1.071556e+01	-2.183017e+00
1.077746e+01	-2.202733e+00
1.083971e+01	-2.222709e+00
1.090232e+01	-2.242991e+00
1.096529e+01	-2.263181e+00
1.102862e+01	-2.283580e+00
1.109232e+01	-2.303944e+00
1.115639e+01	-2.324965e+00
1.122083e+01	-2.345477e+00
1.128564e+01	-2.366533e+00
1.135083e+01	-2.387630e+00
1.141639e+01	-2.408950e+00
1.148233e+01	-2.430007e+00
1.154865e+01	-2.451697e+00
1.161536e+01	-2.473124e+00
1.168245e+01	-2.495310e+00
1.174992e+01	-2.517087e+00
1.181779e+01	-2.539211e+00
1.188605e+01	-2.561442e+00
1.195470e+01	-2.583786e+00
1.202375e+01	-2.606290e+00
1.209320e+01	-2.628809e+00
1.216305e+01	-2.651679e+00
1.223330e+01	-2.674553e+00
1.230396e+01	-2.697675e+00
1.237503e+01	-2.721040e+00
1.244651e+01	-2.744192e+00
1.251840e+01	-2.767710e+00
1.259070e+01	-2.791561e+00
1.266343e+01	-2.815436e+00
1.273657e+01	-2.839088e+00
1.281014e+01	-2.863288e+00
1.288413e+01	-2.887357e+00
1.295855e+01	-2.911637e+00
1.303339e+01	-2.936122e+00
1.310867e+01	-2.960883e+00
1.318439e+01	-2.985883e+00
1.326054e+01	-3.010709e+00
1.333713e+01	-3.035770e+00
1.341417e+01	-3.061118e+00
1.349165e+01	-3.086597e+00
1.356958e+01	-3.111870e+00
1.364795e+01	-3.137548e+00
1.372678e+01	-3.163530e+00
1.380607e+01	-3.189179e+00
1.388581e+01	-3.215457e+00
1.396602e+01	-3.241545e+00
1.404668e+01	-3.268114e+00
1.412782e+01	-3.294958e+00
1.420942e+01	-3.321400e+00
1.429149e+01	-3.348164e+00
1.437404e+01	-3.374890e+00
1.445706e+01	-3.402155e+00
1.454057e+01	-3.429298e+00
1.462455e+01	-3.456848e+00
1.470902e+01	-3.484555e+00
1.479398e+01	-3.511981e+00
1.487943e+01	-3.539831e+00
1.496537e+01	-3.567834e+00
1.505181e+01	-3.595848e+00
1.513875e+01	-3.624186e+00
1.522619e+01	-3.652315e+00
1.531414e+01	-3.681204e+00
1.540259e+01	-3.709522e+00
1.549156e+01	-3.738693e+00
1.558103e+01	-3.767320e+00
1.567103e+01	-3.796436e+00
1.576155e+01	-3.825511e+00
1.585258e+01	-3.855063e+00
1.594415e+01	-3.884785e+00
1.603624e+01	-3.914084e+00
1.612886e+01	-3.943628e+00
1.622202e+01	-3.974056e+00
1.631572e+01	-4.003983e+00
1.640996e+01	-4.034180e+00
1.650474e+01	-4.064484e+00
1.660008e+01	-4.094942e+00
1.669596e+01	-4.125450e+00
1.679239e+01	-4.156378e+00
1.688938e+01	-4.187241e+00
1.698694e+01	-4.217977e+00
1.708505e+01	-4.249552e+00
1.718373e+01	-4.280688e+00
1.728299e+01	-4.312039e+00
1.738281e+01	-4.343708e+00
1.748322e+01	-4.375506e+00
1.758420e+01	-4.407310e+00
1.768576e+01	-4.439230e+00
1.778792e+01	-4.471049e+00
1.789066e+01	-4.503427e+00
1.799399e+01	-4.535839e+00
1.809793e+01	-4.568227e+00
1.820246e+01	-4.601013e+00
1.830760e+01	-4.633730e+00
1.841334e+01	-4.666581e+00
1.851969e+01	-4.699616e+00
1.862666e+01	-4.732538e+00
1.873425e+01	-4.765895e+00
1.884246e+01	-4.799488e+00
1.895129e+01	-4.832990e+00
1.906075e+01	-4.866650e+00
1.917085e+01	-4.900384e+00
1.928158e+01	-4.934338e+00
1.939295e+01	-4.968154e+00
1.950496e+01	-5.002456e+00
1.961762e+01	-5.036858e+00
1.973093e+01	-5.070858e+00
1.984490e+01	-5.105787e+00
1.995952e+01	-5.139972e+00
2.007480e+01	-5.175122e+00
2.019076e+01	-5.209951e+00
2.030738e+01	-5.244824e+00
2.042467e+01	-5.280209e+00
2.054264e+01	-5.315442e+00
2.066130e+01	-5.350649e+00
2.078064e+01	-5.386182e+00
2.090066e+01	-5.421820e+00
2.102139e+01	-5.457545e+00
2.114280e+01	-5.493608e+00
2.126492e+01	-5.529537e+00
2.138775e+01	-5.565403e+00
2.151128e+01	-5.601637e+00
2.163553e+01	-5.637834e+00
2.176050e+01	-5.674405e+00
2.188619e+01	-5.710621e+00
2.201260e+01	-5.747364e+00
2.213974e+01	-5.783975e+00
2.226762e+01	-5.820823e+00
2.239624e+01	-5.858393e+00
2.252560e+01	-5.895033e+00
2.265571e+01	-5.932265e+00
2.278656e+01	-5.969803e+00
2.291818e+01	-6.007282e+00
2.305055e+01	-6.044848e+00
2.318369e+01	-6.082307e+00
2.331760e+01	-6.120126e+00
2.345228e+01	-6.157752e+00
2.358774e+01	-6.195862e+00
2.372398e+01	-6.233851e+00
2.386101e+01	-6.272227e+00
2.399883e+01	-6.310507e+00
2.413745e+01	-6.348750e+00
2.427686e+01	-6.387438e+00
2.441709e+01	-6.426083e+00
2.455812e+01	-6.464644e+00
2.469997e+01	-6.503435e+00
2.484263e+01	-6.542099e+00
2.498612e+01	-6.581086e+00
2.513044e+01	-6.619992e+00
2.527559e+01	-6.659585e+00
2.542158e+01	-6.698767e+00
2.556842e+01	-6.738094e+00
2.571610e+01	-6.777744e+00
2.586463e+01	-6.817322e+00
2.601403e+01	-6.857018e+00
2.616428e+01	-6.896490e+00
2.631541e+01	-6.936403e+00
2.646740e+01	-6.976401e+00
2.662028e+01	-7.016485e+00
2.677404e+01	-7.056776e+00
2.692868e+01	-7.096741e+00
2.708422e+01	-7.137256e+00
2.724066e+01	-7.177492e+00
2.739800e+01	-7.217708e+00
2.755625e+01	-7.258686e+00
2.771541e+01	-7.299256e+00
2.787550e+01	-7.339851e+00
2.803650e+01	-7.380818e+00
2.819844e+01	-7.421613e+00
2.836131e+01	-7.462822e+00
2.852513e+01	-7.504094e+00
2.868989e+01	-7.545087e+00
2.885560e+01	-7.585999e+00
2.902227e+01	-7.627340e+00
2.918990e+01	-7.669172e+00
2.935850e+01	-7.710375e+00
2.952807e+01	-7.752190e+00
2.969863e+01	-7.793850e+00
2.987016e+01	-7.835535e+00
3.004269e+01	-7.877301e+00
3.021622e+01	-7.919398e+00
3.039075e+01	-7.961178e+00
3.056628e+01	-8.003455e+00
3.074283e+01	-8.045406e+00
3.092040e+01	-8.087714e+00
3.109900e+01	-8.129838e+00
3.127862e+01	-8.172103e+00
3.145929e+01	-8.215014e+00
3.164099e+01	-8.257467e+00
3.182375e+01	-8.300397e+00
3.200756e+01	-8.342725e+00
3.219244e+01	-8.385356e+00
3.237838e+01	-8.428020e+00
3.256540e+01	-8.470939e+00
3.275349e+01	-8.513930e+00
3.294268e+01	-8.556664e+00
3.313295e+01	-8.600037e+00
3.332433e+01	-8.642846e+00
3.351681e+01	-8.686797e+00
3.371040e+01	-8.730218e+00
3.390511e+01	-8.773021e+00
3.410094e+01	-8.816454e+00
3.429791e+01	-8.860085e+00
3.449601e+01	-8.903942e+00
3.469526e+01	-8.947427e+00
3.489566e+01	-8.991240e+00
3.509721e+01	-9.034774e+00
3.529993e+01	-9.077898e+00
3.550382e+01	-9.122023e+00
3.570889e+01	-9.166798e+00
3.591515e+01	-9.209847e+00
3.612259e+01	-9.254161e+00
3.633123e+01	-9.298751e+00
3.654108e+01	-9.342234e+00
3.675214e+01	-9.386635e+00
3.696442e+01	-9.430885e+00
3.717792e+01	-9.474983e+00
3.739266e+01	-9.519434e+00
3.760864e+01	-9.563976e+00
3.782587e+01	-9.609024e+00
3.804435e+01	-9.653046e+00
3.826409e+01	-9.698228e+00
3.848510e+01	-9.742408e+00
3.870739e+01	-9.787076e+00
3.893096e+01	-9.832149e+00
3.915583e+01	-9.877815e+00
3.938199e+01	-9.922074e+00
3.960946e+01	-9.967348e+00
3.983824e+01	-1.001194e+01
4.006834e+01	-1.005708e+01
4.029978e+01	-1.010228e+01
4.053255e+01	-1.014732e+01
4.076666e+01	-1.019259e+01
4.100213e+01	-1.023776e+01
4.123896e+01	-1.028282e+01
4.147715e+01	-1.032865e+01
4.171672e+01	-1.037442e+01
4.195767e+01	-1.041951e+01
4.220002e+01	-1.046507e+01
4.244377e+01	-1.051026e+01
4.268892e+01	-1.055637e+01
4.293549e+01	-1.060184e+01
4.318348e+01	-1.064717e+01
4.343291e+01	-1.069315e+01
4.368377e+01	-1.073878e+01
4.393609e+01	-1.078508e+01
4.418986e+01	-1.083055e+01
4.444510e+01	-1.087646e+01
4.470182e+01	-1.092204e+01
4.496001e+01	-1.096868e+01
4.521970e+01	-1.101485e+01
4.548089e+01	-1.106032e+01
4.574358e+01	-1.110673e+01
4.600779e+01	-1.115327e+01
4.627353e+01	-1.119928e+01
4.654081e+01	-1.124565e+01
4.680963e+01	-1.129192e+01
4.708000e+01	-1.133812e+01
4.735193e+01	-1.138424e+01
4.762543e+01	-1.143109e+01
4.790051e+01	-1.147753e+01
4.817719e+01	-1.152424e+01
4.845545e+01	-1.157012e+01
4.873533e+01	-1.161629e+01
4.901682e+01	-1.166348e+01
4.929994e+01	-1.171000e+01
4.958470e+01	-1.175662e+01
4.987110e+01	-1.180302e+01
5.015915e+01	-1.185025e+01
5.044887e+01	-1.189640e+01
5.074026e+01	-1.194429e+01
5.103333e+01	-1.199105e+01
5.132810e+01	-1.203798e+01
5.162457e+01	-1.208401e+01
5.192275e+01	-1.213187e+01
5.222265e+01	-1.217842e+01
5.252429e+01	-1.222578e+01
5.282767e+01	-1.227230e+01
5.313280e+01	-1.232014e+01
5.343969e+01	-1.236653e+01
5.374836e+01	-1.241414e+01
5.405880e+01	-1.246077e+01
5.437105e+01	-1.250838e+01
5.468509e+01	-1.255510e+01
5.500095e+01	-1.260232e+01
5.531863e+01	-1.264935e+01
5.563815e+01	-1.269712e+01
5.595951e+01	-1.274452e+01
5.628273e+01	-1.279133e+01
5.660782e+01	-1.283975e+01
5.693479e+01	-1.288702e+01
5.726364e+01	-1.293490e+01
5.759439e+01	-1.298119e+01
5.792705e+01	-1.302936e+01
5.826164e+01	-1.307662e+01
5.859815e+01	-1.312415e+01
5.893662e+01	-1.317152e+01
5.927703e+01	-1.321932e+01
5.961941e+01	-1.326698e+01
5.996377e+01	-1.331519e+01
6.031012e+01	-1.336236e+01
6.065847e+01	-1.341105e+01
6.100883e+01	-1.345762e+01
6.136121e+01	-1.350560e+01
6.171563e+01	-1.355372e+01
6.207210e+01	-1.360144e+01
6.243063e+01	-1.364946e+01
6.279122e+01	-1.369667e+01
6.315390e+01	-1.374507e+01
6.351868e+01	-1.379310e+01
6.388556e+01	-1.384075e+01
6.425456e+01	-1.388902e+01
6.462569e+01	-1.393755e+01
6.499897e+01	-1.398459e+01
6.537440e+01	-1.403301e+01
6.575200e+01	-1.408112e+01
6.613178e+01	-1.412985e+01
6.651375e+01	-1.417833e+01
6.689793e+01	-1.422598e+01
6.728433e+01	-1.427296e+01
6.767297e+01	-1.432219e+01
6.806384e+01	-1.437044e+01
6.845698e+01	-1.441850e+01
6.885238e+01	-1.446689e+01
6.925007e+01	-1.451468e+01
6.965005e+01	-1.456266e+01
7.005235e+01	-1.461127e+01
7.045697e+01	-1.465903e+01
7.086393e+01	-1.470804e+01
7.127323e+01	-1.475628e+01
7.168490e+01	-1.480359e+01
7.209895e+01	-1.485340e+01
7.251539e+01	-1.490046e+01
7.293424e+01	-1.495065e+01
7.335551e+01	-1.499813e+01
7.377920e+01	-1.504632e+01
7.420535e+01	-1.509587e+01
7.463396e+01	-1.514363e+01
7.506504e+01	-1.519230e+01
7.549861e+01	-1.524130e+01
7.593469e+01	-1.528816e+01
7.637328e+01	-1.533817e+01
7.681441e+01	-1.538623e+01
7.725809e+01	-1.543558e+01
7.770433e+01	-1.548397e+01
7.815315e+01	-1.553158e+01
7.860456e+01	-1.557996e+01
7.905857e+01	-1.562975e+01
7.951521e+01	-1.567844e+01
7.997449e+01	-1.572703e+01
8.043642e+01	-1.577593e+01
8.090102e+01	-1.582368e+01
8.136830e+01	-1.587243e+01
8.183828e+01	-1.592177e+01
8.231097e+01	-1.596985e+01
8.278640e+01	-1.601988e+01
8.326457e+01	-1.606756e+01
8.374550e+01	-1.611613e+01
8.422921e+01	-1.616633e+01
8.471572e+01	-1.621449e+01
8.520503e+01	-1.626329e+01
8.569717e+01	-1.631064e+01
8.619215e+01	-1.636034e+01
8.669000e+01	-1.641028e+01
8.719071e+01	-1.645900e+01
8.769432e+01	-1.650864e+01
8.820084e+01	-1.655659e+01
8.871029e+01	-1.660581e+01
8.922267e+01	-1.665432e+01
8.973802e+01	-1.670409e+01
9.025634e+01	-1.675145e+01
9.077766e+01	-1.680022e+01
9.130199e+01	-1.685049e+01
9.182935e+01	-1.689970e+01
9.235975e+01	-1.694885e+01
9.289321e+01	-1.699771e+01
9.342976e+01	-1.704556e+01
9.396941e+01	-1.709696e+01
9.451217e+01	-1.714511e+01
9.505807e+01	-1.719250e+01
9.560712e+01	-1.724347e+01
9.615934e+01	-1.729171e+01
9.671476e+01	-1.734052e+01
9.727338e+01	-1.739054e+01
9.783522e+01	-1.743803e+01
9.840032e+01	-1.748834e+01
9.896867e+01	-1.753597e+01
9.954031e+01	-1.758698e+01
1.001153e+02	-1.763467e+01
1.006935e+02	-1.768498e+01
1.012751e+02	-1.773559e+01
1.018601e+02	-1.778289e+01
1.024484e+02	-1.783207e+01
1.030402e+02	-1.788209e+01
1.036353e+02	-1.793130e+01
1.042339e+02	-1.798065e+01
1.048360e+02	-1.803057e+01
1.054415e+02	-1.807894e+01
1.060505e+02	-1.812712e+01
1.066631e+02	-1.817827e+01
1.072791e+02	-1.822633e+01
1.078988e+02	-1.827536e+01
1.085220e+02	-1.832542e+01
1.091488e+02	-1.837474e+01
1.097793e+02	-1.842286e+01
1.104133e+02	-1.847151e+01
1.110511e+02	-1.852325e+01
1.116925e+02	-1.857242e+01
1.123376e+02	-1.862189e+01
1.129865e+02	-1.866933e+01
1.136391e+02	-1.871896e+01
1.142955e+02	-1.876858e+01
1.149556e+02	-1.882032e+01
1.156196e+02	-1.886728e+01
1.162874e+02	-1.891591e+01
1.169591e+02	-1.896598e+01
1.176347e+02	-1.901529e+01
1.183141e+02	-1.906641e+01
1.189975e+02	-1.911478e+01
1.196848e+02	-1.916466e+01
1.203761e+02	-1.921372e+01
1.210714e+02	-1.926263e+01
1.217707e+02	-1.931243e+01
1.224740e+02	-1.936234e+01
1.231814e+02	-1.940988e+01
1.238929e+02	-1.946108e+01
1.246085e+02	-1.951235e+01
1.253283e+02	-1.956120e+01
1.260522e+02	-1.960934e+01
1.267802e+02	-1.965783e+01
1.275125e+02	-1.970854e+01
1.282490e+02	-1.975647e+01
1.289898e+02	-1.980836e+01
1.297348e+02	-1.985784e+01
1.304842e+02	-1.990855e+01
1.312378e+02	-1.995603e+01
1.319959e+02	-2.000481e+01
1.327583e+02	-2.005449e+01
1.335251e+02	-2.010689e+01
1.342963e+02	-2.015324e+01
1.350720e+02	-2.020322e+01
1.358522e+02	-2.025318e+01
1.366368e+02	-2.030228e+01
1.374260e+02	-2.035214e+01
1.382198e+02	-2.040417e+01
1.390182e+02	-2.045091e+01
1.398211e+02	-2.050071e+01
1.406287e+02	-2.055026e+01
1.414410e+02	-2.060049e+01
1.422579e+02	-2.065069e+01
1.430796e+02	-2.069984e+01
1.439060e+02	-2.074876e+01
1.447372e+02	-2.079926e+01
1.455732e+02	-2.084732e+01
1.464141e+02	-2.089727e+01
1.472597e+02	-2.094686e+01
1.481103e+02	-2.099683e+01
1.489658e+02	-2.104770e+01
1.498262e+02	-2.109768e+01
1.506916e+02	-2.114737e+01
1.515620e+02	-2.119499e+01
1.524374e+02	-2.124667e+01
1.533179e+02	-2.129468e+01
1.542034e+02	-2.134397e+01
1.550941e+02	-2.139343e+01
1.559899e+02	-2.144350e+01
1.568909e+02	-2.149551e+01
1.577971e+02	-2.154433e+01
1.587085e+02	-2.159244e+01
1.596252e+02	-2.164291e+01
1.605472e+02	-2.169339e+01
1.614745e+02	-2.174272e+01
1.624072e+02	-2.179260e+01
1.633453e+02	-2.184166e+01
1.642887e+02	-2.189195e+01
1.652377e+02	-2.194125e+01
1.661921e+02	-2.198961e+01
1.671520e+02	-2.204334e+01
1.681175e+02	-2.209198e+01
1.690885e+02	-2.213993e+01
1.700651e+02	-2.218753e+01
1.710474e+02	-2.223881e+01
1.720354e+02	-2.228841e+01
1.730291e+02	-2.234048e+01
1.740285e+02	-2.238920e+01
1.750337e+02	-2.243760e+01
1.760446e+02	-2.248843e+01
1.770615e+02	-2.253974e+01
1.780842e+02	-2.258738e+01
1.791128e+02	-2.263699e+01
1.801473e+02	-2.268687e+01
1.811878e+02	-2.273825e+01
1.822344e+02	-2.278514e+01
1.832870e+02	-2.283804e+01
1.843456e+02	-2.288681e+01
1.854104e+02	-2.293785e+01
1.864813e+02	-2.298623e+01
1.875584e+02	-2.303298e+01
1.886418e+02	-2.308576e+01
1.897313e+02	-2.313656e+01
1.908272e+02	-2.318554e+01
1.919294e+02	-2.323666e+01
1.930380e+02	-2.328465e+01
1.941530e+02	-2.333390e+01
1.952744e+02	-2.338369e+01
1.964023e+02	-2.343508e+01
1.975367e+02	-2.348360e+01
1.986777e+02	-2.353439e+01
1.998252e+02	-2.358303e+01
2.009794e+02	-2.363530e+01
2.021403e+02	-2.368503e+01
2.033078e+02	-2.373186e+01
2.044821e+02	-2.378452e+01
2.056632e+02	-2.383315e+01
2.068511e+02	-2.388340e+01
2.080459e+02	-2.393378e+01
2.092475e+02	-2.398248e+01
2.104561e+02	-2.403138e+01
2.116717e+02	-2.408339e+01
2.128943e+02	-2.413250e+01
2.141240e+02	-2.418123e+01
2.153608e+02	-2.423312e+01
2.166047e+02	-2.428526e+01
2.178558e+02	-2.433181e+01
2.191141e+02	-2.438276e+01
2.203797e+02	-2.442981e+01
2.216526e+02	-2.448282e+01
2.229329e+02	-2.453160e+01
2.242205e+02	-2.458190e+01
2.255156e+02	-2.463277e+01
2.268182e+02	-2.468389e+01
2.281283e+02	-2.472907e+01
2.294459e+02	-2.478120e+01
2.307712e+02	-2.483259e+01
2.321041e+02	-2.488219e+01
2.334447e+02	-2.493020e+01
2.347931e+02	-2.497965e+01
2.361493e+02	-2.503150e+01
2.375133e+02	-2.507710e+01
2.388851e+02	-2.512985e+01
2.402649e+02	-2.517924e+01
2.416527e+02	-2.523055e+01
2.430484e+02	-2.528042e+01
2.444523e+02	-2.532938e+01
2.458642e+02	-2.538199e+01
2.472843e+02	-2.543027e+01
2.487126e+02	-2.547993e+01
2.501492e+02	-2.552876e+01
2.515940e+02	-2.557953e+01
2.530472e+02	-2.562837e+01
2.545088e+02	-2.568141e+01
2.559789e+02	-2.572914e+01
2.574574e+02	-2.577893e+01
2.589444e+02	-2.583108e+01
2.604401e+02	-2.588046e+01
2.619444e+02	-2.593029e+01
2.634574e+02	-2.597806e+01
2.649791e+02	-2.603168e+01
2.665096e+02	-2.608024e+01
2.680489e+02	-2.612593e+01
2.695972e+02	-2.617901e+01
2.711544e+02	-2.623031e+01
2.727205e+02	-2.627734e+01
2.742958e+02	-2.632735e+01
2.758801e+02	-2.637952e+01
2.774736e+02	-2.643268e+01
2.790762e+02	-2.647733e+01
2.806882e+02	-2.652746e+01
2.823094e+02	-2.657911e+01
2.839400e+02	-2.662785e+01
2.855800e+02	-2.667917e+01
2.872295e+02	-2.672853e+01
2.888886e+02	-2.677395e+01
2.905572e+02	-2.682793e+01
2.922354e+02	-2.687514e+01
2.939234e+02	-2.692599e+01
2.956211e+02	-2.697506e+01
2.973286e+02	-2.702927e+01
2.990459e+02	-2.707789e+01
3.007732e+02	-2.713129e+01
3.025104e+02	-2.718049e+01
3.042577e+02	-2.722809e+01
3.060151e+02	-2.727921e+01
3.077826e+02	-2.732708e+01
3.095604e+02	-2.738144e+01
3.113484e+02	-2.743052e+01
3.131467e+02	-2.747772e+01
3.149554e+02	-2.752794e+01
3.167746e+02	-2.757730e+01
3.186043e+02	-2.762977e+01
3.204445e+02	-2.768210e+01
3.222954e+02	-2.772720e+01
3.241570e+02	-2.777663e+01
3.260293e+02	-2.782867e+01
3.279124e+02	-2.788170e+01
3.298064e+02	-2.793039e+01
3.317114e+02	-2.797962e+01
3.336273e+02	-2.802419e+01
3.355544e+02	-2.807919e+01
3.374925e+02	-2.812924e+01
3.394418e+02	-2.818121e+01
3.414024e+02	-2.823062e+01
3.433744e+02	-2.827782e+01
3.453577e+02	-2.832816e+01
3.473525e+02	-2.837536e+01
3.493588e+02	-2.842951e+01
3.513766e+02	-2.848049e+01
3.534062e+02	-2.852555e+01
3.554474e+02	-2.858243e+01
3.575005e+02	-2.863093e+01
3.595654e+02	-2.867816e+01
3.616422e+02	-2.872937e+01
3.637311e+02	-2.878217e+01
3.658320e+02	-2.882805e+01
3.679450e+02	-2.887976e+01
3.700702e+02	-2.893017e+01
3.722077e+02	-2.898208e+01
3.743576e+02	-2.902815e+01
3.765199e+02	-2.908222e+01
3.786946e+02	-2.913111e+01
3.808820e+02	-2.917725e+01
3.830819e+02	-2.923329e+01
3.852946e+02	-2.928078e+01
3.875200e+02	-2.932848e+01
3.897583e+02	-2.937966e+01
3.920096e+02	-2.942838e+01
3.942738e+02	-2.947617e+01
3.965511e+02	-2.952872e+01
3.988416e+02	-2.957888e+01
4.011452e+02	-2.963256e+01
4.034622e+02	-2.967977e+01
4.057926e+02	-2.972752e+01
4.081365e+02	-2.978108e+01
4.104938e+02	-2.983176e+01
4.128648e+02	-2.988054e+01
4.152495e+02	-2.993187e+01
4.176480e+02	-2.998093e+01
4.200603e+02	-3.003300e+01
4.224866e+02	-3.008464e+01
4.249268e+02	-3.013296e+01
4.273812e+02	-3.018338e+01
4.298497e+02	-3.023035e+01
4.323325e+02	-3.028449e+01
4.348297e+02	-3.033472e+01
4.373412e+02	-3.038146e+01
4.398673e+02	-3.043198e+01
4.424079e+02	-3.048029e+01
4.449633e+02	-3.053053e+01
4.475334e+02	-3.058149e+01
4.501183e+02	-3.063561e+01
4.527182e+02	-3.069014e+01
4.553330e+02	-3.073491e+01
4.579630e+02	-3.078745e+01
4.606082e+02	-3.084072e+01
4.632687e+02	-3.088241e+01
4.659445e+02	-3.093293e+01
4.686358e+02	-3.097930e+01
4.713426e+02	-3.103808e+01
4.740650e+02	-3.108422e+01
4.768032e+02	-3.113101e+01
4.795572e+02	-3.118290e+01
4.823271e+02	-3.123010e+01
4.851130e+02	-3.128343e+01
4.879150e+02	-3.134004e+01
4.907332e+02	-3.138501e+01
4.935676e+02	-3.142292e+01
4.964185e+02	-3.148841e+01
4.992858e+02	-3.153353e+01
5.021696e+02	-3.158774e+01
5.050701e+02	-3.163183e+01
5.079874e+02	-3.168302e+01
5.109215e+02	-3.173535e+01
5.138726e+02	-3.178456e+01
5.168407e+02	-3.183627e+01
5.198259e+02	-3.188596e+01
5.228284e+02	-3.194401e+01
5.258482e+02	-3.198652e+01
5.288855e+02	-3.203920e+01
5.319403e+02	-3.208643e+01
5.350128e+02	-3.213720e+01
5.381030e+02	-3.219523e+01
5.412111e+02	-3.223850e+01
5.443371e+02	-3.229681e+01
5.474812e+02	-3.234304e+01
5.506434e+02	-3.238746e+01
5.538239e+02	-3.244332e+01
5.570228e+02	-3.248856e+01
5.602401e+02	-3.253794e+01
5.634760e+02	-3.259619e+01
5.667306e+02	-3.264070e+01
5.700040e+02	-3.269655e+01
5.732964e+02	-3.274179e+01
5.766077e+02	-3.278795e+01
5.799382e+02	-3.283118e+01
5.832879e+02	-3.289353e+01
5.866569e+02	-3.294597e+01
5.900454e+02	-3.299221e+01
5.934535e+02	-3.304007e+01
5.968813e+02	-3.309047e+01
6.003288e+02	-3.314585e+01
6.037963e+02	-3.319233e+01
6.072838e+02	-3.324057e+01
6.107914e+02	-3.329930e+01
6.143194e+02	-3.333788e+01
6.178676e+02	-3.339378e+01
6.214364e+02	-3.344922e+01
6.250258e+02	-3.349443e+01
6.286359e+02	-3.354831e+01
6.322669e+02	-3.359395e+01
6.359189e+02	-3.364074e+01
6.395919e+02	-3.369654e+01
6.432862e+02	-3.374672e+01
6.470017e+02	-3.379052e+01
6.507388e+02	-3.384471e+01
6.544974e+02	-3.390027e+01
6.582778e+02	-3.394987e+01
6.620800e+02	-3.399878e+01
6.659041e+02	-3.404413e+01
6.697504e+02	-3.409925e+01
6.736188e+02	-3.415704e+01
6.775096e+02	-3.419941e+01
6.814229e+02	-3.424991e+01
6.853587e+02	-3.430563e+01
6.893173e+02	-3.434881e+01
6.932988e+02	-3.439861e+01
6.973033e+02	-3.445008e+01
7.013309e+02	-3.450158e+01
