Frequency(Hz)	Magnitude(dB)
1.000000e+01	-2.046930e+00
1.005776e+01	-2.065979e+00
1.011585e+01	-2.084829e+00
1.017428e+01	-2.104023e+00
1.023305e+01	-2.123393e+00
1.029215e+01	-2.142499e+00
1.035160e+01	-2.162397e+00
1.041139e+01	-2.181939e+00
1.047153e+01	-2.201598e+00
1.053201e+01	-2.221938e+00
1.059284e+01	-2.242014e+00
1.065403e+01	-2.262222e+00
1.071556e+01	-2.282370e+00
1.077746e+01	-2.302829e+00
1.083971e+01	-2.323603e+00
1.090232e+01	-2.344802e+00
1.096529e+01	-2.365272e+00
1.102862e+01	-2.386448e+00
1.109232e+01	-2.407589e+00
1.115639e+01	-2.429126e+00
1.122083e+01	-2.450436e+00
1.128564e+01	-2.472045e+00
1.135083e+01	-2.493923e+00
1.141639e+01	-2.515807e+00
1.148233e+01	-2.537975e+00
1.154865e+01	-2.560010e+00
1.161536e+01	-2.582651e+00
1.168245e+01	-2.604838e+00
1.174992e+01	-2.627592e+00
1.181779e+01	-2.650363e+00
1.188605e+01	-2.673363e+00
1.195470e+01	-2.696262e+00
1.202375e+01	-2.719722e+00
1.209320e+01	-2.742807e+00
1.216305e+01	-2.766797e+00
1.223330e+01	-2.789913e+00
1.230396e+01	-2.813979e+00
1.237503e+01	-2.837829e+00
1.244651e+01	-2.861873e+00
1.251840e+01	-2.885997e+00
1.259070e+01	-2.910422e+00
1.266343e+01	-2.934976e+00
1.273657e+01	-2.959554e+00
1.281014e+01	-2.984277e+00
1.288413e+01	-3.009389e+00
1.295855e+01	-3.034613e+00
1.303339e+01	-3.059258e+00
1.310867e+01	-3.085079e+00
1.318439e+01	-3.110536e+00
1.326054e+01	-3.136311e+00
1.333713e+01	-3.161948e+00
1.341417e+01	-3.188051e+00
1.349165e+01	-3.213812e+00
1.356958e+01	-3.240239e+00
1.364795e+01	-3.266682e+00
1.372678e+01	-3.293030e+00
1.380607e+01	-3.319688e+00
1.388581e+01	-3.346657e+00
1.396602e+01	-3.373753e+00
1.404668e+01	-3.400639e+00
1.412782e+01	-3.427892e+00
1.420942e+01	-3.455207e+00
1.429149e+01	-3.482909e+00
1.437404e+01	-3.510328e+00
1.445706e+01	-3.538336e+00
1.454057e+01	-3.566280e+00
1.462455e+01	-3.594119e+00
1.470902e+01	-3.622496e+00
1.479398e+01	-3.650948e+00
1.487943e+01	-3.679282e+00
1.496537e+01	-3.707846e+00
1.505181e+01	-3.736761e+00
1.513875e+01	-3.765826e+00
1.522619e+01	-3.794960e+00
1.531414e+01	-3.824087e+00
1.540259e+01	-3.853262e+00
1.549156e+01	-3.883098e+00
1.558103e+01	-3.912628e+00
1.567103e+01	-3.942461e+00
1.576155e+01	-3.971942e+00
1.585258e+01	-4.002465e+00
1.594415e+01	-4.032494e+00
1.603624e+01	-4.062908e+00
1.612886e+01	-4.093515e+00
1.622202e+01	-4.123850e+00
1.631572e+01	-4.154695e+00
1.640996e+01	-4.185458e+00
1.650474e+01	-4.216493e+00
1.660008e+01	-4.247833e+00
1.669596e+01	-4.278736e+00
1.679239e+01	-4.310501e+00
1.688938e+01	-4.341982e+00
1.698694e+01	-4.373783e+00
1.708505e+01	-4.405471e+00
1.718373e+01	-4.437150e+00
1.728299e+01	-4.469606e+00
1.738281e+01	-4.501664e+00
1.748322e+01	-4.534003e+00
1.758420e+01	-4.566697e+00
1.768576e+01	-4.598880e+00
1.778792e+01	-4.631980e+00
1.789066e+01	-4.664904e+00
1.799399e+01	-4.697801e+00
1.809793e+01	-4.730634e+00
1.820246e+01	-4.764139e+00
1.830760e+01	-4.797834e+00
1.841334e+01	-4.831182e+00
1.851969e+01	-4.864832e+00
1.862666e+01	-4.898296e+00
1.873425e+01	-4.932255e+00
1.884246e+01	-4.966328e+00
1.895129e+01	-5.000768e+00
1.906075e+01	-5.035109e+00
1.917085e+01	-5.069036e+00
1.928158e+01	-5.103474e+00
1.939295e+01	-5.137996e+00
1.950496e+01	-5.173330e+00
1.961762e+01	-5.207729e+00
1.973093e+01	-5.242952e+00
1.984490e+01	-5.278110e+00
1.995952e+01	-5.313250e+00
2.007480e+01	-5.348754e+00
2.019076e+01	-5.384006e+00
2.030738e+01	-5.419888e+00
2.042467e+01	-5.455498e+00
2.054264e+01	-5.491124e+00
2.066130e+01	-5.527376e+00
2.078064e+01	-5.563356e+00
2.090066e+01	-5.599710e+00
2.102139e+01	-5.635774e+00
2.114280e+01	-5.672374e+00
2.126492e+01	-5.708660e+00
2.138775e+01	-5.745393e+00
2.151128e+01	-5.782189e+00
2.163553e+01	-5.819103e+00
2.176050e+01	-5.856234e+00
2.188619e+01	-5.892964e+00
2.201260e+01	-5.930260e+00
2.213974e+01	-5.967761e+00
2.226762e+01	-6.005063e+00
2.239624e+01	-6.042642e+00
2.252560e+01	-6.080231e+00
2.265571e+01	-6.118050e+00
2.278656e+01	-6.155575e+00
2.291818e+01	-6.193996e+00
2.305055e+01	-6.231718e+00
2.318369e+01	-6.269990e+00
2.331760e+01	-6.308472e+00
2.345228e+01	-6.346548e+00
2.358774e+01	-6.384986e+00
2.372398e+01	-6.423641e+00
2.386101e+01	-6.462305e+00
2.399883e+01	-6.501156e+00
2.413745e+01	-6.539847e+00
2.427686e+01	-6.579123e+00
2.441709e+01	-6.618255e+00
2.455812e+01	-6.657167e+00
2.469997e+01	-6.696467e+00
2.484263e+01	-6.735798e+00
2.498612e+01	-6.775484e+00
2.513044e+01	-6.814829e+00
2.527559e+01	-6.854761e+00
2.542158e+01	-6.894378e+00
2.556842e+01	-6.934444e+00
2.571610e+01	-6.974145e+00
2.586463e+01	-7.014210e+00
2.601403e+01	-7.054326e+00
2.616428e+01	-7.094252e+00
2.631541e+01	-7.134784e+00
2.646740e+01	-7.175507e+00
2.662028e+01	-7.215602e+00
2.677404e+01	-7.256330e+00
2.692868e+01	-7.297109e+00
2.708422e+01	-7.337788e+00
2.724066e+01	-7.378559e+00
2.739800e+01	-7.419559e+00
2.755625e+01	-7.460903e+00
2.771541e+01	-7.501481e+00
2.787550e+01	-7.542924e+00
2.803650e+01	-7.584261e+00
2.819844e+01	-7.625441e+00
2.836131e+01	-7.667053e+00
2.852513e+01	-7.708443e+00
2.868989e+01	-7.749865e+00
2.885560e+01	-7.791424e+00
2.902227e+01	-7.833201e+00
2.918990e+01	-7.875164e+00
2.935850e+01	-7.917253e+00
2.952807e+01	-7.959054e+00
2.969863e+01	-8.001655e+00
2.987016e+01	-8.043298e+00
3.004269e+01	-8.085358e+00
3.021622e+01	-8.128052e+00
3.039075e+01	-8.170110e+00
3.056628e+01	-8.212480e+00
3.074283e+01	-8.255046e+00
3.092040e+01	-8.297398e+00
3.109900e+01	-8.340452e+00
3.127862e+01	-8.382967e+00
3.145929e+01	-8.425801e+00
3.164099e+01	-8.468454e+00
3.182375e+01	-8.511537e+00
3.200756e+01	-8.554545e+00
3.219244e+01	-8.597705e+00
3.237838e+01	-8.641068e+00
3.256540e+01	-8.684070e+00
3.275349e+01	-8.727010e+00
3.294268e+01	-8.770546e+00
3.313295e+01	-8.814205e+00
3.332433e+01	-8.857713e+00
3.351681e+01	-8.900994e+00
3.371040e+01	-8.944676e+00
3.390511e+01	-8.988280e+00
3.410094e+01	-9.032243e+00
3.429791e+01	-9.076025e+00
3.449601e+01	-9.120144e+00
3.469526e+01	-9.163495e+00
3.489566e+01	-9.208060e+00
3.509721e+01	-9.251772e+00
3.529993e+01	-9.295524e+00
3.550382e+01	-9.339662e+00
3.570889e+01	-9.384672e+00
3.591515e+01	-9.428542e+00
3.612259e+01	-9.473292e+00
3.633123e+01	-9.517263e+00
3.654108e+01	-9.562248e+00
3.675214e+01	-9.606329e+00
3.696442e+01	-9.651080e+00
3.717792e+01	-9.695183e+00
3.739266e+01	-9.740142e+00
3.760864e+01	-9.784231e+00
3.782587e+01	-9.829365e+00
3.804435e+01	-9.874453e+00
3.826409e+01	-9.919405e+00
3.848510e+01	-9.964219e+00
3.870739e+01	-1.000916e+01
3.893096e+01	-1.005486e+01
3.915583e+01	-1.009958e+01
3.938199e+01	-1.014497e+01
3.960946e+01	-1.019082e+01
3.983824e+01	-1.023541e+01
4.006834e+01	-1.028032e+01
4.029978e+01	-1.032611e+01
4.053255e+01	-1.037139e+01
4.076666e+01	-1.041699e+01
4.100213e+01	-1.046204e+01
4.123896e+01	-1.050776e+01
4.147715e+01	-1.055383e+01
4.171672e+01	-1.059928e+01
4.195767e+01	-1.064509e+01
4.220002e+01	-1.069066e+01
4.244377e+01	-1.073595e+01
4.268892e+01	-1.078267e+01
4.293549e+01	-1.082850e+01
4.318348e+01	-1.087429e+01
4.343291e+01	-1.091971e+01
4.368377e+01	-1.096660e+01
4.393609e+01	-1.101188e+01
4.418986e+01	-1.105830e+01
4.444510e+01	-1.110435e+01
4.470182e+01	-1.115086e+01
4.496001e+01	-1.119627e+01
4.521970e+01	-1.124285e+01
4.548089e+01	-1.128919e+01
4.574358e+01	-1.133590e+01
4.600779e+01	-1.138147e+01
4.627353e+01	-1.142833e+01
4.654081e+01	-1.147479e+01
4.680963e+01	-1.152110e+01
4.708000e+01	-1.156814e+01
4.735193e+01	-1.161428e+01
4.762543e+01	-1.166105e+01
4.790051e+01	-1.170721e+01
4.817719e+01	-1.175406e+01
4.845545e+01	-1.180079e+01
4.873533e+01	-1.184692e+01
4.901682e+01	-1.189454e+01
4.929994e+01	-1.194057e+01
4.958470e+01	-1.198776e+01
4.987110e+01	-1.203510e+01
5.015915e+01	-1.208241e+01
5.044887e+01	-1.212909e+01
5.074026e+01	-1.217585e+01
5.103333e+01	-1.222255e+01
5.132810e+01	-1.226990e+01
5.162457e+01	-1.231695e+01
5.192275e+01	-1.236309e+01
5.222265e+01	-1.241104e+01
5.252429e+01	-1.245897e+01
5.282767e+01	-1.250540e+01
5.313280e+01	-1.255255e+01
5.343969e+01	-1.260003e+01
5.374836e+01	-1.264740e+01
5.405880e+01	-1.269454e+01
5.437105e+01	-1.274208e+01
5.468509e+01	-1.278923e+01
5.500095e+01	-1.283695e+01
5.531863e+01	-1.288360e+01
5.563815e+01	-1.293181e+01
5.595951e+01	-1.297931e+01
5.628273e+01	-1.302617e+01
5.660782e+01	-1.307416e+01
5.693479e+01	-1.312232e+01
5.726364e+01	-1.316953e+01
5.759439e+01	-1.321726e+01
5.792705e+01	-1.326490e+01
5.826164e+01	-1.331237e+01
5.859815e+01	-1.335997e+01
5.893662e+01	-1.340817e+01
5.927703e+01	-1.345428e+01
5.961941e+01	-1.350297e+01
5.996377e+01	-1.355089e+01
6.031012e+01	-1.359919e+01
6.065847e+01	-1.364665e+01
6.100883e+01	-1.369431e+01
6.136121e+01	-1.374318e+01
6.171563e+01	-1.379068e+01
6.207210e+01	-1.383916e+01
6.243063e+01	-1.388620e+01
6.279122e+01	-1.393394e+01
6.315390e+01	-1.398270e+01
6.351868e+01	-1.403017e+01
6.388556e+01	-1.407807e+01
6.425456e+01	-1.412705e+01
6.462569e+01	-1.417492e+01
6.499897e+01	-1.422329e+01
6.537440e+01	-1.427082e+01
6.575200e+01	-1.431850e+01
6.613178e+01	-1.436753e+01
6.651375e+01	-1.441561e+01
6.689793e+01	-1.446393e+01
6.728433e+01	-1.451208e+01
6.767297e+01	-1.456025e+01
6.806384e+01	-1.460912e+01
6.845698e+01	-1.465675e+01
6.885238e+01	-1.470469e+01
6.925007e+01	-1.475280e+01
6.965005e+01	-1.480153e+01
7.005235e+01	-1.484984e+01
7.045697e+01	-1.489914e+01
7.086393e+01	-1.494723e+01
7.127323e+01	-1.499641e+01
7.168490e+01	-1.504440e+01
7.209895e+01	-1.509264e+01
7.251539e+01	-1.514142e+01
7.293424e+01	-1.518893e+01
7.335551e+01	-1.523764e+01
7.377920e+01	-1.528716e+01
7.420535e+01	-1.533502e+01
7.463396e+01	-1.538356e+01
7.506504e+01	-1.543321e+01
7.549861e+01	-1.548164e+01
7.593469e+01	-1.552875e+01
7.637328e+01	-1.557821e+01
7.681441e+01	-1.562679e+01
7.725809e+01	-1.567551e+01
7.770433e+01	-1.572447e+01
7.815315e+01	-1.577313e+01
7.860456e+01	-1.582124e+01
7.905857e+01	-1.586989e+01
7.951521e+01	-1.591871e+01
7.997449e+01	-1.596819e+01
8.043642e+01	-1.601563e+01
8.090102e+01	-1.606526e+01
8.136830e+01	-1.611337e+01
8.183828e+01	-1.616350e+01
8.231097e+01	-1.621165e+01
8.278640e+01	-1.626051e+01
8.326457e+01	-1.630957e+01
8.374550e+01	-1.635796e+01
8.422921e+01	-1.640660e+01
8.471572e+01	-1.645603e+01
8.520503e+01	-1.650478e+01
8.569717e+01	-1.655280e+01
8.619215e+01	-1.660306e+01
8.669000e+01	-1.665260e+01
8.719071e+01	-1.670130e+01
8.769432e+01	-1.674958e+01
8.820084e+01	-1.679918e+01
8.871029e+01	-1.684756e+01
8.922267e+01	-1.689712e+01
8.973802e+01	-1.694602e+01
9.025634e+01	-1.699540e+01
9.077766e+01	-1.704428e+01
9.130199e+01	-1.709273e+01
9.182935e+01	-1.714234e+01
9.235975e+01	-1.719074e+01
9.289321e+01	-1.724003e+01
9.342976e+01	-1.728838e+01
9.396941e+01	-1.734051e+01
9.451217e+01	-1.738695e+01
9.505807e+01	-1.743606e+01
9.560712e+01	-1.748600e+01
9.615934e+01	-1.753454e+01
9.671476e+01	-1.758464e+01
9.727338e+01	-1.763271e+01
9.783522e+01	-1.768202e+01
9.840032e+01	-1.773201e+01
9.896867e+01	-1.778057e+01
9.954031e+01	-1.782900e+01
1.001153e+02	-1.787916e+01
1.006935e+02	-1.792896e+01
1.012751e+02	-1.797918e+01
1.018601e+02	-1.802580e+01
1.024484e+02	-1.807499e+01
1.030402e+02	-1.812541e+01
1.036353e+02	-1.817418e+01
1.042339e+02	-1.822380e+01
1.048360e+02	-1.827286e+01
1.054415e+02	-1.832236e+01
1.060505e+02	-1.837158e+01
1.066631e+02	-1.842238e+01
1.072791e+02	-1.847068e+01
1.078988e+02	-1.851855e+01
1.085220e+02	-1.856785e+01
1.091488e+02	-1.861809e+01
1.097793e+02	-1.866787e+01
1.104133e+02	-1.871584e+01
1.110511e+02	-1.876732e+01
1.116925e+02	-1.881585e+01
1.123376e+02	-1.886422e+01
1.129865e+02	-1.891443e+01
1.136391e+02	-1.896431e+01
1.142955e+02	-1.901176e+01
1.149556e+02	-1.906275e+01
1.156196e+02	-1.911121e+01
1.162874e+02	-1.916215e+01
1.169591e+02	-1.921186e+01
1.176347e+02	-1.925936e+01
1.183141e+02	-1.931065e+01
1.189975e+02	-1.936019e+01
1.196848e+02	-1.940995e+01
1.203761e+02	-1.945729e+01
1.210714e+02	-1.950659e+01
1.217707e+02	-1.955822e+01
1.224740e+02	-1.960780e+01
1.231814e+02	-1.965514e+01
1.238929e+02	-1.970404e+01
1.246085e+02	-1.975341e+01
1.253283e+02	-1.980363e+01
1.260522e+02	-1.985414e+01
1.267802e+02	-1.990428e+01
1.275125e+02	-1.995260e+01
1.282490e+02	-2.000318e+01
1.289898e+02	-2.005264e+01
1.297348e+02	-2.010141e+01
1.304842e+02	-2.015050e+01
1.312378e+02	-2.020233e+01
1.319959e+02	-2.025046e+01
1.327583e+02	-2.029972e+01
1.335251e+02	-2.035033e+01
1.342963e+02	-2.039924e+01
1.350720e+02	-2.044889e+01
1.358522e+02	-2.049834e+01
1.366368e+02	-2.054715e+01
1.374260e+02	-2.059760e+01
1.382198e+02	-2.064641e+01
1.390182e+02	-2.069647e+01
1.398211e+02	-2.074608e+01
1.406287e+02	-2.079503e+01
1.414410e+02	-2.084530e+01
1.422579e+02	-2.089606e+01
1.430796e+02	-2.094399e+01
1.439060e+02	-2.099390e+01
1.447372e+02	-2.104432e+01
1.455732e+02	-2.109491e+01
1.464141e+02	-2.114343e+01
1.472597e+02	-2.119275e+01
1.481103e+02	-2.124311e+01
1.489658e+02	-2.129255e+01
1.498262e+02	-2.134171e+01
1.506916e+02	-2.139250e+01
1.515620e+02	-2.144344e+01
1.524374e+02	-2.149072e+01
1.533179e+02	-2.154049e+01
1.542034e+02	-2.159211e+01
1.550941e+02	-2.164021e+01
1.559899e+02	-2.169042e+01
1.568909e+02	-2.173815e+01
1.577971e+02	-2.178914e+01
1.587085e+02	-2.184076e+01
1.596252e+02	-2.188967e+01
1.605472e+02	-2.193885e+01
1.614745e+02	-2.198796e+01
1.624072e+02	-2.203788e+01
1.633453e+02	-2.208713e+01
1.642887e+02	-2.213860e+01
1.652377e+02	-2.218926e+01
1.661921e+02	-2.223647e+01
1.671520e+02	-2.228560e+01
1.681175e+02	-2.233775e+01
1.690885e+02	-2.238368e+01
1.700651e+02	-2.243581e+01
1.710474e+02	-2.248615e+01
1.720354e+02	-2.253635e+01
1.730291e+02	-2.258697e+01
1.740285e+02	-2.263449e+01
1.750337e+02	-2.268439e+01
1.760446e+02	-2.273478e+01
1.770615e+02	-2.278608e+01
1.780842e+02	-2.283377e+01
1.791128e+02	-2.288360e+01
1.801473e+02	-2.293479e+01
1.811878e+02	-2.298534e+01
1.822344e+02	-2.303384e+01
1.832870e+02	-2.308278e+01
1.843456e+02	-2.313129e+01
1.854104e+02	-2.318329e+01
1.864813e+02	-2.323291e+01
1.875584e+02	-2.328356e+01
1.886418e+02	-2.333093e+01
1.897313e+02	-2.338284e+01
1.908272e+02	-2.343166e+01
1.919294e+02	-2.348013e+01
1.930380e+02	-2.353069e+01
1.941530e+02	-2.358132e+01
1.952744e+02	-2.363289e+01
1.964023e+02	-2.368296e+01
1.975367e+02	-2.372869e+01
1.986777e+02	-2.378195e+01
1.998252e+02	-2.382800e+01
2.009794e+02	-2.388111e+01
2.021403e+02	-2.392815e+01
2.033078e+02	-2.397856e+01
2.044821e+02	-2.402800e+01
2.056632e+02	-2.407967e+01
2.068511e+02	-2.412671e+01
2.080459e+02	-2.417919e+01
2.092475e+02	-2.422759e+01
2.104561e+02	-2.427745e+01
2.116717e+02	-2.432745e+01
2.128943e+02	-2.437538e+01
2.141240e+02	-2.442907e+01
2.153608e+02	-2.447974e+01
2.166047e+02	-2.452857e+01
2.178558e+02	-2.457699e+01
2.191141e+02	-2.462661e+01
2.203797e+02	-2.467915e+01
2.216526e+02	-2.472816e+01
2.229329e+02	-2.477469e+01
2.242205e+02	-2.482645e+01
2.255156e+02	-2.487892e+01
2.268182e+02	-2.492736e+01
2.281283e+02	-2.497678e+01
2.294459e+02	-2.502783e+01
2.307712e+02	-2.507683e+01
2.321041e+02	-2.512714e+01
2.334447e+02	-2.517747e+01
2.347931e+02	-2.523101e+01
2.361493e+02	-2.527907e+01
2.375133e+02	-2.532640e+01
2.388851e+02	-2.537628e+01
2.402649e+02	-2.542679e+01
2.416527e+02	-2.547323e+01
2.430484e+02	-2.552367e+01
2.444523e+02	-2.557830e+01
2.458642e+02	-2.562549e+01
2.472843e+02	-2.567742e+01
2.487126e+02	-2.572838e+01
2.501492e+02	-2.577737e+01
2.515940e+02	-2.582687e+01
2.530472e+02	-2.587530e+01
2.545088e+02	-2.592418e+01
2.559789e+02	-2.597607e+01
2.574574e+02	-2.602510e+01
2.589444e+02	-2.607867e+01
2.604401e+02	-2.612714e+01
2.619444e+02	-2.617654e+01
2.634574e+02	-2.622344e+01
2.649791e+02	-2.627413e+01
2.665096e+02	-2.632704e+01
2.680489e+02	-2.637311e+01
2.695972e+02	-2.642236e+01
2.711544e+02	-2.648039e+01
2.727205e+02	-2.652628e+01
2.742958e+02	-2.657481e+01
2.758801e+02	-2.662617e+01
2.774736e+02	-2.667604e+01
2.790762e+02	-2.672416e+01
2.806882e+02	-2.677588e+01
2.823094e+02	-2.682597e+01
2.839400e+02	-2.687762e+01
2.855800e+02	-2.692432e+01
2.872295e+02	-2.697743e+01
2.888886e+02	-2.702362e+01
2.905572e+02	-2.707750e+01
2.922354e+02	-2.712685e+01
2.939234e+02	-2.717772e+01
2.956211e+02	-2.722756e+01
2.973286e+02	-2.727349e+01
2.990459e+02	-2.732773e+01
3.007732e+02	-2.737162e+01
3.025104e+02	-2.742248e+01
3.042577e+02	-2.747736e+01
3.060151e+02	-2.752895e+01
3.077826e+02	-2.757384e+01
3.095604e+02	-2.762604e+01
3.113484e+02	-2.767428e+01
3.131467e+02	-2.772053e+01
3.149554e+02	-2.777265e+01
3.167746e+02	-2.782266e+01
3.186043e+02	-2.787495e+01
3.204445e+02	-2.792804e+01
3.222954e+02	-2.797337e+01
3.241570e+02	-2.802547e+01
3.260293e+02	-2.807586e+01
3.279124e+02	-2.812612e+01
3.298064e+02	-2.817615e+01
3.317114e+02	-2.822914e+01
3.336273e+02	-2.827259e+01
3.355544e+02	-2.832293e+01
3.374925e+02	-2.837491e+01
3.394418e+02	-2.842385e+01
3.414024e+02	-2.847727e+01
3.433744e+02	-2.852647e+01
3.453577e+02	-2.857456e+01
3.473525e+02	-2.862424e+01
3.493588e+02	-2.867595e+01
3.513766e+02	-2.872698e+01
3.534062e+02	-2.877923e+01
3.554474e+02	-2.882567e+01
3.575005e+02	-2.887405e+01
3.595654e+02	-2.892885e+01
3.616422e+02	-2.897356e+01
3.637311e+02	-2.902123e+01
3.658320e+02	-2.907544e+01
3.679450e+02	-2.912665e+01
3.700702e+02	-2.917170e+01
3.722077e+02	-2.922388e+01
3.743576e+02	-2.927607e+01
3.765199e+02	-2.932708e+01
3.786946e+02	-2.937373e+01
3.808820e+02	-2.942390e+01
3.830819e+02	-2.948037e+01
3.852946e+02	-2.952495e+01
3.875200e+02	-2.957669e+01
3.897583e+02	-2.962355e+01
3.920096e+02	-2.967714e+01
3.942738e+02	-2.972439e+01
3.965511e+02	-2.977794e+01
3.988416e+02	-2.982293e+01
4.011452e+02	-2.987855e+01
4.034622e+02	-2.992923e+01
4.057926e+02	-2.997564e+01
4.081365e+02	-3.002511e+01
4.104938e+02	-3.007144e+01
4.128648e+02	-3.013026e+01
4.152495e+02	-3.017684e+01
4.176480e+02	-3.022633e+01
4.200603e+02	-3.027842e+01
4.224866e+02	-3.033131e+01
4.249268e+02	-3.037797e+01
4.273812e+02	-3.042910e+01
4.298497e+02	-3.048055e+01
4.323325e+02	-3.052731e+01
4.348297e+02	-3.058339e+01
4.373412e+02	-3.062679e+01
4.398673e+02	-3.068108e+01
4.424079e+02	-3.072596e+01
4.449633e+02	-3.078162e+01
4.475334e+02	-3.083279e+01
4.501183e+02	-3.087788e+01
4.527182e+02	-3.093014e+01
4.553330e+02	-3.098030e+01
4.579630e+02	-3.103038e+01
4.606082e+02	-3.107361e+01
4.632687e+02	-3.113120e+01
4.659445e+02	-3.118306e+01
4.686358e+02	-3.122927e+01
4.713426e+02	-3.128163e+01
4.740650e+02	-3.132745e+01
4.768032e+02	-3.138081e+01
4.795572e+02	-3.143295e+01
4.823271e+02	-3.147961e+01
4.851130e+02	-3.152932e+01
4.879150e+02	-3.158076e+01
4.907332e+02	-3.163047e+01
4.935676e+02	-3.168373e+01
4.964185e+02	-3.172716e+01
4.992858e+02	-3.177575e+01
5.021696e+02	-3.183738e+01
5.050701e+02	-3.188016e+01
5.079874e+02	-3.193623e+01
5.109215e+02	-3.197900e+01
5.138726e+02	-3.203465e+01
5.168407e+02	-3.208294e+01
5.198259e+02	-3.213850e+01
5.228284e+02	-3.218489e+01
5.258482e+02	-3.223117e+01
5.288855e+02	-3.228542e+01
5.319403e+02	-3.233661e+01
5.350128e+02	-3.238406e+01
5.381030e+02	-3.243607e+01
5.412111e+02	-3.248242e+01
5.443371e+02	-3.253005e+01
5.474812e+02	-3.258479e+01
5.506434e+02	-3.263765e+01
5.538239e+02	-3.268930e+01
5.570228e+02	-3.273255e+01
5.602401e+02	-3.278327e+01
5.634760e+02	-3.283093e+01
5.667306e+02	-3.288808e+01
5.700040e+02	-3.293412e+01
5.732964e+02	-3.297996e+01
5.766077e+02	-3.303424e+01
5.799382e+02	-3.309090e+01
5.832879e+02	-3.313623e+01
5.866569e+02	-3.318872e+01
5.900454e+02	-3.323422e+01
5.934535e+02	-3.329198e+01
5.968813e+02	-3.334031e+01
6.003288e+02	-3.338928e+01
6.037963e+02	-3.343610e+01
6.072838e+02	-3.348604e+01
6.107914e+02	-3.354512e+01
6.143194e+02	-3.359127e+01
6.178676e+02	-3.364197e+01
6.214364e+02	-3.368927e+01
6.250258e+02	-3.373827e+01
6.286359e+02	-3.379190e+01
6.322669e+02	-3.384636e+01
6.359189e+02	-3.388728e+01
6.395919e+02	-3.394947e+01
6.432862e+02	-3.399616e+01
6.470017e+02	-3.404020e+01
6.507388e+02	-3.409077e+01
6.544974e+02	-3.414422e+01
6.582778e+02	-3.418978e+01
6.620800e+02	-3.424248e+01
6.659041e+02	-3.428915e+01
6.697504e+02	-3.434227e+01
6.736188e+02	-3.439785e+01
6.775096e+02	-3.444788e+01
6.814229e+02	-3.449042e+01
6.853587e+02	-3.454710e+01
6.893173e+02	-3.459306e+01
6.932988e+02	-3.464059e+01
6.973033e+02	-3.469442e+01
7.013309e+02	-3.474744e+01
