Frequency(Hz)	Magnitude(dB)
1.000000e+01	-1.896969e-05
1.005776e+01	-1.918946e-05
1.011585e+01	-1.941178e-05
1.017428e+01	-1.963667e-05
1.023305e+01	-1.986416e-05
1.029215e+01	-2.009430e-05
1.035160e+01	-2.032709e-05
1.041139e+01	-2.056259e-05
1.047153e+01	-2.080081e-05
1.053201e+01	-2.104179e-05
1.059284e+01	-2.128557e-05
1.065403e+01	-2.153217e-05
1.071556e+01	-2.178162e-05
1.077746e+01	-2.203397e-05
1.083971e+01	-2.228924e-05
1.090232e+01	-2.254746e-05
1.096529e+01	-2.280868e-05
1.102862e+01	-2.307292e-05
1.109232e+01	-2.334023e-05
1.115639e+01	-2.361063e-05
1.122083e+01	-2.388417e-05
1.128564e+01	-2.416087e-05
1.135083e+01	-2.444078e-05
1.141639e+01	-2.472393e-05
1.148233e+01	-2.501037e-05
1.154865e+01	-2.530012e-05
1.161536e+01	-2.559323e-05
1.168245e+01	-2.588973e-05
1.174992e+01	-2.618967e-05
1.181779e+01	-2.649308e-05
1.188605e+01	-2.680001e-05
1.195470e+01	-2.711050e-05
1.202375e+01	-2.742458e-05
1.209320e+01	-2.774230e-05
1.216305e+01	-2.806370e-05
1.223330e+01	-2.838882e-05
1.230396e+01	-2.871772e-05
1.237503e+01	-2.905042e-05
1.244651e+01	-2.938697e-05
1.251840e+01	-2.972743e-05
1.259070e+01	-3.007183e-05
1.266343e+01	-3.042022e-05
1.273657e+01	-3.077264e-05
1.281014e+01	-3.112915e-05
1.288413e+01	-3.148979e-05
1.295855e+01	-3.185461e-05
1.303339e+01	-3.222365e-05
1.310867e+01	-3.259697e-05
1.318439e+01	-3.297461e-05
1.326054e+01	-3.335663e-05
1.333713e+01	-3.374307e-05
1.341417e+01	-3.413400e-05
1.349165e+01	-3.452945e-05
1.356958e+01	-3.492948e-05
1.364795e+01	-3.533414e-05
1.372678e+01	-3.574350e-05
1.380607e+01	-3.615759e-05
1.388581e+01	-3.657649e-05
1.396602e+01	-3.700024e-05
1.404668e+01	-3.742889e-05
1.412782e+01	-3.786251e-05
1.420942e+01	-3.830116e-05
1.429149e+01	-3.874489e-05
1.437404e+01	-3.919376e-05
1.445706e+01	-3.964782e-05
1.454057e+01	-4.010715e-05
1.462455e+01	-4.057180e-05
1.470902e+01	-4.104184e-05
1.479398e+01	-4.151732e-05
1.487943e+01	-4.199830e-05
1.496537e+01	-4.248486e-05
1.505181e+01	-4.297706e-05
1.513875e+01	-4.347496e-05
1.522619e+01	-4.397863e-05
1.531414e+01	-4.448813e-05
1.540259e+01	-4.500353e-05
1.549156e+01	-4.552491e-05
1.558103e+01	-4.605233e-05
1.567103e+01	-4.658585e-05
1.576155e+01	-4.712556e-05
1.585258e+01	-4.767152e-05
1.594415e+01	-4.822380e-05
1.603624e+01	-4.878249e-05
1.612886e+01	-4.934764e-05
1.622202e+01	-4.991934e-05
1.631572e+01	-5.049767e-05
1.640996e+01	-5.108270e-05
1.650474e+01	-5.167450e-05
1.660008e+01	-5.227316e-05
1.669596e+01	-5.287876e-05
1.679239e+01	-5.349137e-05
1.688938e+01	-5.411108e-05
1.698694e+01	-5.473796e-05
1.708505e+01	-5.537211e-05
1.718373e+01	-5.601361e-05
1.728299e+01	-5.666254e-05
1.738281e+01	-5.731899e-05
1.748322e+01	-5.798304e-05
1.758420e+01	-5.865479e-05
1.768576e+01	-5.933431e-05
1.778792e+01	-6.002171e-05
1.789066e+01	-6.071708e-05
1.799399e+01	-6.142050e-05
1.809793e+01	-6.213206e-05
1.820246e+01	-6.285188e-05
1.830760e+01	-6.358003e-05
1.841334e+01	-6.431661e-05
1.851969e+01	-6.506174e-05
1.862666e+01	-6.581549e-05
1.873425e+01	-6.657797e-05
1.884246e+01	-6.734929e-05
1.895129e+01	-6.812955e-05
1.906075e+01	-6.891884e-05
1.917085e+01	-6.971728e-05
1.928158e+01	-7.052496e-05
1.939295e+01	-7.134201e-05
1.950496e+01	-7.216852e-05
1.961762e+01	-7.300460e-05
1.973093e+01	-7.385038e-05
1.984490e+01	-7.470595e-05
1.995952e+01	-7.557143e-05
2.007480e+01	-7.644694e-05
2.019076e+01	-7.733259e-05
2.030738e+01	-7.822850e-05
2.042467e+01	-7.913479e-05
2.054264e+01	-8.005158e-05
2.066130e+01	-8.097899e-05
2.078064e+01	-8.191715e-05
2.090066e+01	-8.286617e-05
2.102139e+01	-8.382619e-05
2.114280e+01	-8.479733e-05
2.126492e+01	-8.577972e-05
2.138775e+01	-8.677349e-05
2.151128e+01	-8.777878e-05
2.163553e+01	-8.879571e-05
2.176050e+01	-8.982442e-05
2.188619e+01	-9.086505e-05
2.201260e+01	-9.191774e-05
2.213974e+01	-9.298262e-05
2.226762e+01	-9.405984e-05
2.239624e+01	-9.514953e-05
2.252560e+01	-9.625186e-05
2.265571e+01	-9.736695e-05
2.278656e+01	-9.849496e-05
2.291818e+01	-9.963604e-05
2.305055e+01	-1.007903e-04
2.318369e+01	-1.019580e-04
2.331760e+01	-1.031392e-04
2.345228e+01	-1.043341e-04
2.358774e+01	-1.055428e-04
2.372398e+01	-1.067655e-04
2.386101e+01	-1.080024e-04
2.399883e+01	-1.092537e-04
2.413745e+01	-1.105194e-04
2.427686e+01	-1.117998e-04
2.441709e+01	-1.130950e-04
2.455812e+01	-1.144052e-04
2.469997e+01	-1.157306e-04
2.484263e+01	-1.170713e-04
2.498612e+01	-1.184276e-04
2.513044e+01	-1.197996e-04
2.527559e+01	-1.211875e-04
2.542158e+01	-1.225915e-04
2.556842e+01	-1.240117e-04
2.571610e+01	-1.254484e-04
2.586463e+01	-1.269017e-04
2.601403e+01	-1.283719e-04
2.616428e+01	-1.298591e-04
2.631541e+01	-1.313636e-04
2.646740e+01	-1.328854e-04
2.662028e+01	-1.344249e-04
2.677404e+01	-1.359822e-04
2.692868e+01	-1.375576e-04
2.708422e+01	-1.391512e-04
2.724066e+01	-1.407633e-04
2.739800e+01	-1.423940e-04
2.755625e+01	-1.440437e-04
2.771541e+01	-1.457125e-04
2.787550e+01	-1.474005e-04
2.803650e+01	-1.491082e-04
2.819844e+01	-1.508356e-04
2.836131e+01	-1.525831e-04
2.852513e+01	-1.543507e-04
2.868989e+01	-1.561389e-04
2.885560e+01	-1.579478e-04
2.902227e+01	-1.597776e-04
2.918990e+01	-1.616287e-04
2.935850e+01	-1.635011e-04
2.952807e+01	-1.653953e-04
2.969863e+01	-1.673114e-04
2.987016e+01	-1.692497e-04
3.004269e+01	-1.712105e-04
3.021622e+01	-1.731940e-04
3.039075e+01	-1.752004e-04
3.056628e+01	-1.772302e-04
3.074283e+01	-1.792834e-04
3.092040e+01	-1.813604e-04
3.109900e+01	-1.834614e-04
3.127862e+01	-1.855868e-04
3.145929e+01	-1.877369e-04
3.164099e+01	-1.899118e-04
3.182375e+01	-1.921119e-04
3.200756e+01	-1.943376e-04
3.219244e+01	-1.965890e-04
3.237838e+01	-1.988665e-04
3.256540e+01	-2.011703e-04
3.275349e+01	-2.035009e-04
3.294268e+01	-2.058584e-04
3.313295e+01	-2.082433e-04
3.332433e+01	-2.106558e-04
3.351681e+01	-2.130963e-04
3.371040e+01	-2.155650e-04
3.390511e+01	-2.180623e-04
3.410094e+01	-2.205885e-04
3.429791e+01	-2.231441e-04
3.449601e+01	-2.257292e-04
3.469526e+01	-2.283442e-04
3.489566e+01	-2.309896e-04
3.509721e+01	-2.336656e-04
3.529993e+01	-2.363726e-04
3.550382e+01	-2.391110e-04
3.570889e+01	-2.418811e-04
3.591515e+01	-2.446833e-04
3.612259e+01	-2.475179e-04
3.633123e+01	-2.503854e-04
3.654108e+01	-2.532861e-04
3.675214e+01	-2.562204e-04
3.696442e+01	-2.591887e-04
3.717792e+01	-2.621914e-04
3.739266e+01	-2.652288e-04
3.760864e+01	-2.683015e-04
3.782587e+01	-2.714097e-04
3.804435e+01	-2.745540e-04
3.826409e+01	-2.777347e-04
3.848510e+01	-2.809522e-04
3.870739e+01	-2.842070e-04
3.893096e+01	-2.874995e-04
3.915583e+01	-2.908302e-04
3.938199e+01	-2.941994e-04
3.960946e+01	-2.976077e-04
3.983824e+01	-3.010554e-04
4.006834e+01	-3.045431e-04
4.029978e+01	-3.080712e-04
4.053255e+01	-3.116402e-04
4.076666e+01	-3.152505e-04
4.100213e+01	-3.189026e-04
4.123896e+01	-3.225970e-04
4.147715e+01	-3.263343e-04
4.171672e+01	-3.301148e-04
4.195767e+01	-3.339391e-04
4.220002e+01	-3.378077e-04
4.244377e+01	-3.417212e-04
4.268892e+01	-3.456800e-04
4.293549e+01	-3.496846e-04
4.318348e+01	-3.537356e-04
4.343291e+01	-3.578336e-04
4.368377e+01	-3.619790e-04
4.393609e+01	-3.661725e-04
4.418986e+01	-3.704145e-04
4.444510e+01	-3.747057e-04
4.470182e+01	-3.790465e-04
4.496001e+01	-3.834377e-04
4.521970e+01	-3.878797e-04
4.548089e+01	-3.923732e-04
4.574358e+01	-3.969188e-04
4.600779e+01	-4.015170e-04
4.627353e+01	-4.061684e-04
4.654081e+01	-4.108738e-04
4.680963e+01	-4.156337e-04
4.708000e+01	-4.204487e-04
4.735193e+01	-4.253194e-04
4.762543e+01	-4.302466e-04
4.790051e+01	-4.352309e-04
4.817719e+01	-4.402729e-04
4.845545e+01	-4.453733e-04
4.873533e+01	-4.505328e-04
4.901682e+01	-4.557521e-04
4.929994e+01	-4.610319e-04
4.958470e+01	-4.663728e-04
4.987110e+01	-4.717755e-04
5.015915e+01	-4.772409e-04
5.044887e+01	-4.827695e-04
5.074026e+01	-4.883622e-04
5.103333e+01	-4.940197e-04
5.132810e+01	-4.997427e-04
5.162457e+01	-5.055321e-04
5.192275e+01	-5.113884e-04
5.222265e+01	-5.173127e-04
5.252429e+01	-5.233055e-04
5.282767e+01	-5.293678e-04
5.313280e+01	-5.355003e-04
5.343969e+01	-5.417038e-04
5.374836e+01	-5.479792e-04
5.405880e+01	-5.543273e-04
5.437105e+01	-5.607489e-04
5.468509e+01	-5.672449e-04
5.500095e+01	-5.738162e-04
5.531863e+01	-5.804635e-04
5.563815e+01	-5.871879e-04
5.595951e+01	-5.939902e-04
5.628273e+01	-6.008713e-04
5.660782e+01	-6.078320e-04
5.693479e+01	-6.148734e-04
5.726364e+01	-6.219964e-04
5.759439e+01	-6.292019e-04
5.792705e+01	-6.364908e-04
5.826164e+01	-6.438642e-04
5.859815e+01	-6.513230e-04
5.893662e+01	-6.588682e-04
5.927703e+01	-6.665007e-04
5.961941e+01	-6.742217e-04
5.996377e+01	-6.820322e-04
6.031012e+01	-6.899331e-04
6.065847e+01	-6.979255e-04
6.100883e+01	-7.060105e-04
6.136121e+01	-7.141891e-04
6.171563e+01	-7.224625e-04
6.207210e+01	-7.308318e-04
6.243063e+01	-7.392979e-04
6.279122e+01	-7.478622e-04
6.315390e+01	-7.565256e-04
6.351868e+01	-7.652894e-04
6.388556e+01	-7.741547e-04
6.425456e+01	-7.831227e-04
6.462569e+01	-7.921945e-04
6.499897e+01	-8.013715e-04
6.537440e+01	-8.106547e-04
6.575200e+01	-8.200455e-04
6.613178e+01	-8.295450e-04
6.651375e+01	-8.391546e-04
6.689793e+01	-8.488755e-04
6.728433e+01	-8.587090e-04
6.767297e+01	-8.686563e-04
6.806384e+01	-8.787189e-04
6.845698e+01	-8.888981e-04
6.885238e+01	-8.991952e-04
6.925007e+01	-9.096115e-04
6.965005e+01	-9.201485e-04
7.005235e+01	-9.308075e-04
7.045697e+01	-9.415900e-04
7.086393e+01	-9.524974e-04
7.127323e+01	-9.635311e-04
7.168490e+01	-9.746926e-04
7.209895e+01	-9.859834e-04
7.251539e+01	-9.974050e-04
7.293424e+01	-1.008959e-03
7.335551e+01	-1.020647e-03
7.377920e+01	-1.032470e-03
7.420535e+01	-1.044430e-03
7.463396e+01	-1.056528e-03
7.506504e+01	-1.068767e-03
7.549861e+01	-1.081147e-03
7.593469e+01	-1.093671e-03
7.637328e+01	-1.106340e-03
7.681441e+01	-1.119155e-03
7.725809e+01	-1.132120e-03
7.770433e+01	-1.145234e-03
7.815315e+01	-1.158500e-03
7.860456e+01	-1.171919e-03
7.905857e+01	-1.185495e-03
7.951521e+01	-1.199227e-03
7.997449e+01	-1.213118e-03
8.043642e+01	-1.227171e-03
8.090102e+01	-1.241386e-03
8.136830e+01	-1.255766e-03
8.183828e+01	-1.270312e-03
8.231097e+01	-1.285027e-03
8.278640e+01	-1.299912e-03
8.326457e+01	-1.314969e-03
8.374550e+01	-1.330201e-03
8.422921e+01	-1.345610e-03
8.471572e+01	-1.361196e-03
8.520503e+01	-1.376964e-03
8.569717e+01	-1.392914e-03
8.619215e+01	-1.409048e-03
8.669000e+01	-1.425370e-03
8.719071e+01	-1.441880e-03
8.769432e+01	-1.458582e-03
8.820084e+01	-1.475477e-03
8.871029e+01	-1.492568e-03
8.922267e+01	-1.509857e-03
8.973802e+01	-1.527346e-03
9.025634e+01	-1.545038e-03
9.077766e+01	-1.562934e-03
9.130199e+01	-1.581038e-03
9.182935e+01	-1.599351e-03
9.235975e+01	-1.617877e-03
9.289321e+01	-1.636617e-03
9.342976e+01	-1.655574e-03
9.396941e+01	-1.674750e-03
9.451217e+01	-1.694149e-03
9.505807e+01	-1.713772e-03
9.560712e+01	-1.733623e-03
9.615934e+01	-1.753703e-03
9.671476e+01	-1.774016e-03
9.727338e+01	-1.794564e-03
9.783522e+01	-1.815350e-03
9.840032e+01	-1.836377e-03
9.896867e+01	-1.857648e-03
9.954031e+01	-1.879164e-03
1.001153e+02	-1.900930e-03
1.006935e+02	-1.922948e-03
1.012751e+02	-1.945221e-03
1.018601e+02	-1.967752e-03
1.024484e+02	-1.990543e-03
1.030402e+02	-2.013599e-03
1.036353e+02	-2.036922e-03
1.042339e+02	-2.060514e-03
1.048360e+02	-2.084380e-03
1.054415e+02	-2.108522e-03
1.060505e+02	-2.132944e-03
1.066631e+02	-2.157649e-03
1.072791e+02	-2.182639e-03
1.078988e+02	-2.207919e-03
1.085220e+02	-2.233492e-03
1.091488e+02	-2.259361e-03
1.097793e+02	-2.285529e-03
1.104133e+02	-2.312001e-03
1.110511e+02	-2.338779e-03
1.116925e+02	-2.365867e-03
1.123376e+02	-2.393268e-03
1.129865e+02	-2.420987e-03
1.136391e+02	-2.449027e-03
1.142955e+02	-2.477392e-03
1.149556e+02	-2.506085e-03
1.156196e+02	-2.535110e-03
1.162874e+02	-2.564471e-03
1.169591e+02	-2.594172e-03
1.176347e+02	-2.624217e-03
1.183141e+02	-2.654610e-03
1.189975e+02	-2.685355e-03
1.196848e+02	-2.716456e-03
1.203761e+02	-2.747917e-03
1.210714e+02	-2.779742e-03
1.217707e+02	-2.811936e-03
1.224740e+02	-2.844502e-03
1.231814e+02	-2.877445e-03
1.238929e+02	-2.910770e-03
1.246085e+02	-2.944481e-03
1.253283e+02	-2.978581e-03
1.260522e+02	-3.013077e-03
1.267802e+02	-3.047972e-03
1.275125e+02	-3.083271e-03
1.282490e+02	-3.118979e-03
1.289898e+02	-3.155100e-03
1.297348e+02	-3.191639e-03
1.304842e+02	-3.228601e-03
1.312378e+02	-3.265991e-03
1.319959e+02	-3.303814e-03
1.327583e+02	-3.342075e-03
1.335251e+02	-3.380779e-03
1.342963e+02	-3.419931e-03
1.350720e+02	-3.459536e-03
1.358522e+02	-3.499599e-03
1.366368e+02	-3.540126e-03
1.374260e+02	-3.581123e-03
1.382198e+02	-3.622593e-03
1.390182e+02	-3.664544e-03
1.398211e+02	-3.706981e-03
1.406287e+02	-3.749909e-03
1.414410e+02	-3.793333e-03
1.422579e+02	-3.837261e-03
1.430796e+02	-3.881696e-03
1.439060e+02	-3.926647e-03
1.447372e+02	-3.972117e-03
1.455732e+02	-4.018114e-03
1.464141e+02	-4.064643e-03
1.472597e+02	-4.111710e-03
1.481103e+02	-4.159323e-03
1.489658e+02	-4.207486e-03
1.498262e+02	-4.256207e-03
1.506916e+02	-4.305492e-03
1.515620e+02	-4.355347e-03
1.524374e+02	-4.405779e-03
1.533179e+02	-4.456795e-03
1.542034e+02	-4.508401e-03
1.550941e+02	-4.560605e-03
1.559899e+02	-4.613412e-03
1.568909e+02	-4.666831e-03
1.577971e+02	-4.720868e-03
1.587085e+02	-4.775530e-03
1.596252e+02	-4.830825e-03
1.605472e+02	-4.886760e-03
1.614745e+02	-4.943342e-03
1.624072e+02	-5.000579e-03
1.633453e+02	-5.058478e-03
1.642887e+02	-5.117047e-03
1.652377e+02	-5.176294e-03
1.661921e+02	-5.236227e-03
1.671520e+02	-5.296853e-03
1.681175e+02	-5.358180e-03
1.690885e+02	-5.420217e-03
1.700651e+02	-5.482972e-03
1.710474e+02	-5.546453e-03
1.720354e+02	-5.610669e-03
1.730291e+02	-5.675627e-03
1.740285e+02	-5.741337e-03
1.750337e+02	-5.807807e-03
1.760446e+02	-5.875047e-03
1.770615e+02	-5.943064e-03
1.780842e+02	-6.011868e-03
1.791128e+02	-6.081468e-03
1.801473e+02	-6.151873e-03
1.811878e+02	-6.223093e-03
1.822344e+02	-6.295137e-03
1.832870e+02	-6.368014e-03
1.843456e+02	-6.441734e-03
1.854104e+02	-6.516307e-03
1.864813e+02	-6.591743e-03
1.875584e+02	-6.668051e-03
1.886418e+02	-6.745242e-03
1.897313e+02	-6.823326e-03
1.908272e+02	-6.902313e-03
1.919294e+02	-6.982214e-03
1.930380e+02	-7.063038e-03
1.941530e+02	-7.144798e-03
1.952744e+02	-7.227503e-03
1.964023e+02	-7.311165e-03
1.975367e+02	-7.395794e-03
1.986777e+02	-7.481402e-03
1.998252e+02	-7.568001e-03
2.009794e+02	-7.655600e-03
2.021403e+02	-7.744213e-03
2.033078e+02	-7.833851e-03
2.044821e+02	-7.924525e-03
2.056632e+02	-8.016247e-03
2.068511e+02	-8.109031e-03
2.080459e+02	-8.202887e-03
2.092475e+02	-8.297828e-03
2.104561e+02	-8.393868e-03
2.116717e+02	-8.491017e-03
2.128943e+02	-8.589290e-03
2.141240e+02	-8.688700e-03
2.153608e+02	-8.789258e-03
2.166047e+02	-8.890979e-03
2.178558e+02	-8.993877e-03
2.191141e+02	-9.097963e-03
2.203797e+02	-9.203254e-03
2.216526e+02	-9.309761e-03
2.229329e+02	-9.417500e-03
2.242205e+02	-9.526484e-03
2.255156e+02	-9.636728e-03
2.268182e+02	-9.748246e-03
2.281283e+02	-9.861053e-03
2.294459e+02	-9.975164e-03
2.307712e+02	-1.009059e-02
2.321041e+02	-1.020736e-02
2.334447e+02	-1.032547e-02
2.347931e+02	-1.044495e-02
2.361493e+02	-1.056581e-02
2.375133e+02	-1.068807e-02
2.388851e+02	-1.081174e-02
2.402649e+02	-1.093684e-02
2.416527e+02	-1.106338e-02
2.430484e+02	-1.119139e-02
2.444523e+02	-1.132087e-02
2.458642e+02	-1.145185e-02
2.472843e+02	-1.158435e-02
2.487126e+02	-1.171837e-02
2.501492e+02	-1.185395e-02
2.515940e+02	-1.199109e-02
2.530472e+02	-1.212981e-02
2.545088e+02	-1.227014e-02
2.559789e+02	-1.241209e-02
2.574574e+02	-1.255568e-02
2.589444e+02	-1.270093e-02
2.604401e+02	-1.284785e-02
2.619444e+02	-1.299647e-02
2.634574e+02	-1.314681e-02
2.649791e+02	-1.329889e-02
2.665096e+02	-1.345272e-02
2.680489e+02	-1.360833e-02
2.695972e+02	-1.376573e-02
2.711544e+02	-1.392495e-02
2.727205e+02	-1.408602e-02
2.742958e+02	-1.424894e-02
2.758801e+02	-1.441374e-02
2.774736e+02	-1.458045e-02
2.790762e+02	-1.474908e-02
2.806882e+02	-1.491965e-02
2.823094e+02	-1.509220e-02
2.839400e+02	-1.526674e-02
2.855800e+02	-1.544329e-02
2.872295e+02	-1.562188e-02
2.888886e+02	-1.580254e-02
2.905572e+02	-1.598527e-02
2.922354e+02	-1.617012e-02
2.939234e+02	-1.635710e-02
2.956211e+02	-1.654624e-02
2.973286e+02	-1.673756e-02
2.990459e+02	-1.693109e-02
3.007732e+02	-1.712686e-02
3.025104e+02	-1.732488e-02
3.042577e+02	-1.752518e-02
3.060151e+02	-1.772780e-02
3.077826e+02	-1.793276e-02
3.095604e+02	-1.814008e-02
3.113484e+02	-1.834979e-02
3.131467e+02	-1.856192e-02
3.149554e+02	-1.877650e-02
3.167746e+02	-1.899355e-02
3.186043e+02	-1.921311e-02
3.204445e+02	-1.943520e-02
3.222954e+02	-1.965985e-02
3.241570e+02	-1.988709e-02
3.260293e+02	-2.011695e-02
3.279124e+02	-2.034946e-02
3.298064e+02	-2.058465e-02
3.317114e+02	-2.082256e-02
3.336273e+02	-2.106321e-02
3.355544e+02	-2.130663e-02
3.374925e+02	-2.155286e-02
3.394418e+02	-2.180192e-02
3.414024e+02	-2.205386e-02
3.433744e+02	-2.230870e-02
3.453577e+02	-2.256648e-02
3.473525e+02	-2.282723e-02
3.493588e+02	-2.309098e-02
3.513766e+02	-2.335778e-02
3.534062e+02	-2.362764e-02
3.554474e+02	-2.390062e-02
3.575005e+02	-2.417674e-02
3.595654e+02	-2.445604e-02
3.616422e+02	-2.473856e-02
3.637311e+02	-2.502434e-02
3.658320e+02	-2.531340e-02
3.679450e+02	-2.560580e-02
3.700702e+02	-2.590156e-02
3.722077e+02	-2.620073e-02
3.743576e+02	-2.650334e-02
3.765199e+02	-2.680944e-02
3.786946e+02	-2.711906e-02
3.808820e+02	-2.743224e-02
3.830819e+02	-2.774903e-02
3.852946e+02	-2.806947e-02
3.875200e+02	-2.839360e-02
3.897583e+02	-2.872145e-02
3.920096e+02	-2.905308e-02
3.942738e+02	-2.938853e-02
3.965511e+02	-2.972783e-02
3.988416e+02	-3.007104e-02
4.011452e+02	-3.041820e-02
4.034622e+02	-3.076935e-02
4.057926e+02	-3.112454e-02
4.081365e+02	-3.148381e-02
4.104938e+02	-3.184722e-02
4.128648e+02	-3.221480e-02
4.152495e+02	-3.258661e-02
4.176480e+02	-3.296270e-02
4.200603e+02	-3.334311e-02
4.224866e+02	-3.372790e-02
4.249268e+02	-3.411710e-02
4.273812e+02	-3.451078e-02
4.298497e+02	-3.490899e-02
4.323325e+02	-3.531177e-02
4.348297e+02	-3.571918e-02
4.373412e+02	-3.613127e-02
4.398673e+02	-3.654809e-02
4.424079e+02	-3.696970e-02
4.449633e+02	-3.739616e-02
4.475334e+02	-3.782751e-02
4.501183e+02	-3.826381e-02
4.527182e+02	-3.870513e-02
4.553330e+02	-3.915151e-02
4.579630e+02	-3.960302e-02
4.606082e+02	-4.005971e-02
4.632687e+02	-4.052164e-02
4.659445e+02	-4.098887e-02
4.686358e+02	-4.146147e-02
4.713426e+02	-4.193948e-02
4.740650e+02	-4.242298e-02
4.768032e+02	-4.291203e-02
4.795572e+02	-4.340669e-02
4.823271e+02	-4.390702e-02
4.851130e+02	-4.441308e-02
4.879150e+02	-4.492495e-02
4.907332e+02	-4.544269e-02
4.935676e+02	-4.596636e-02
4.964185e+02	-4.649604e-02
4.992858e+02	-4.703178e-02
5.021696e+02	-4.757367e-02
5.050701e+02	-4.812176e-02
5.079874e+02	-4.867613e-02
5.109215e+02	-4.923686e-02
5.138726e+02	-4.980400e-02
5.168407e+02	-5.037764e-02
5.198259e+02	-5.095785e-02
5.228284e+02	-5.154470e-02
5.258482e+02	-5.213826e-02
5.288855e+02	-5.273863e-02
5.319403e+02	-5.334586e-02
5.350128e+02	-5.396004e-02
5.381030e+02	-5.458124e-02
5.412111e+02	-5.520956e-02
5.443371e+02	-5.584505e-02
5.474812e+02	-5.648782e-02
5.506434e+02	-5.713793e-02
5.538239e+02	-5.779548e-02
5.570228e+02	-5.846054e-02
5.602401e+02	-5.913321e-02
5.634760e+02	-5.981356e-02
5.667306e+02	-6.050168e-02
5.700040e+02	-6.119766e-02
5.732964e+02	-6.190159e-02
5.766077e+02	-6.261356e-02
5.799382e+02	-6.333366e-02
5.832879e+02	-6.406198e-02
5.866569e+02	-6.479862e-02
5.900454e+02	-6.554366e-02
5.934535e+02	-6.629720e-02
5.968813e+02	-6.705933e-02
6.003288e+02	-6.783016e-02
6.037963e+02	-6.860978e-02
6.072838e+02	-6.939829e-02
6.107914e+02	-7.019578e-02
6.143194e+02	-7.100237e-02
6.178676e+02	-7.181814e-02
6.214364e+02	-7.264321e-02
6.250258e+02	-7.347768e-02
6.286359e+02	-7.432165e-02
6.322669e+02	-7.517524e-02
6.359189e+02	-7.603854e-02
6.395919e+02	-7.691166e-02
6.432862e+02	-7.779472e-02
6.470017e+02	-7.868783e-02
6.507388e+02	-7.959110e-02
6.544974e+02	-8.050463e-02
6.582778e+02	-8.142856e-02
6.620800e+02	-8.236299e-02
6.659041e+02	-8.330804e-02
6.697504e+02	-8.426382e-02
6.736188e+02	-8.523047e-02
6.775096e+02	-8.620809e-02
6.814229e+02	-8.719681e-02
6.853587e+02	-8.819676e-02
6.893173e+02	-8.920806e-02
6.932988e+02	-9.023083e-02
6.973033e+02	-9.126521e-02
7.013309e+02	-9.231131e-02
