Frequency(Hz)	Magnitude(dB)
1.000000e+01	-2.016560e+00
1.005776e+01	-2.035037e+00
1.011585e+01	-2.053833e+00
1.017428e+01	-2.072931e+00
1.023305e+01	-2.091786e+00
1.029215e+01	-2.110976e+00
1.035160e+01	-2.130321e+00
1.041139e+01	-2.149692e+00
1.047153e+01	-2.169476e+00
1.053201e+01	-2.189327e+00
1.059284e+01	-2.209066e+00
1.065403e+01	-2.228845e+00
1.071556e+01	-2.249024e+00
1.077746e+01	-2.269362e+00
1.083971e+01	-2.289890e+00
1.090232e+01	-2.310566e+00
1.096529e+01	-2.331140e+00
1.102862e+01	-2.352106e+00
1.109232e+01	-2.372979e+00
1.115639e+01	-2.394002e+00
1.122083e+01	-2.415475e+00
1.128564e+01	-2.436818e+00
1.135083e+01	-2.458293e+00
1.141639e+01	-2.480245e+00
1.148233e+01	-2.501915e+00
1.154865e+01	-2.523781e+00
1.161536e+01	-2.545922e+00
1.168245e+01	-2.568141e+00
1.174992e+01	-2.590561e+00
1.181779e+01	-2.613333e+00
1.188605e+01	-2.636113e+00
1.195470e+01	-2.658587e+00
1.202375e+01	-2.681673e+00
1.209320e+01	-2.704905e+00
1.216305e+01	-2.728257e+00
1.223330e+01	-2.751271e+00
1.230396e+01	-2.775046e+00
1.237503e+01	-2.798685e+00
1.244651e+01	-2.822565e+00
1.251840e+01	-2.846419e+00
1.259070e+01	-2.870808e+00
1.266343e+01	-2.894894e+00
1.273657e+01	-2.919546e+00
1.281014e+01	-2.943986e+00
1.288413e+01	-2.968509e+00
1.295855e+01	-2.993529e+00
1.303339e+01	-3.018516e+00
1.310867e+01	-3.043428e+00
1.318439e+01	-3.068967e+00
1.326054e+01	-3.094070e+00
1.333713e+01	-3.119730e+00
1.341417e+01	-3.145426e+00
1.349165e+01	-3.171492e+00
1.356958e+01	-3.196975e+00
1.364795e+01	-3.223380e+00
1.372678e+01	-3.249756e+00
1.380607e+01	-3.276219e+00
1.388581e+01	-3.302824e+00
1.396602e+01	-3.329486e+00
1.404668e+01	-3.356145e+00
1.412782e+01	-3.383280e+00
1.420942e+01	-3.410273e+00
1.429149e+01	-3.437701e+00
1.437404e+01	-3.465187e+00
1.445706e+01	-3.492679e+00
1.454057e+01	-3.520513e+00
1.462455e+01	-3.548377e+00
1.470902e+01	-3.576329e+00
1.479398e+01	-3.604387e+00
1.487943e+01	-3.632922e+00
1.496537e+01	-3.660963e+00
1.505181e+01	-3.689840e+00
1.513875e+01	-3.718344e+00
1.522619e+01	-3.747425e+00
1.531414e+01	-3.776080e+00
1.540259e+01	-3.805291e+00
1.549156e+01	-3.834699e+00
1.558103e+01	-3.864034e+00
1.567103e+01	-3.893571e+00
1.576155e+01	-3.923080e+00
1.585258e+01	-3.953259e+00
1.594415e+01	-3.982898e+00
1.603624e+01	-4.013312e+00
1.612886e+01	-4.043227e+00
1.622202e+01	-4.073619e+00
1.631572e+01	-4.104396e+00
1.640996e+01	-4.135230e+00
1.650474e+01	-4.165873e+00
1.660008e+01	-4.196825e+00
1.669596e+01	-4.227629e+00
1.679239e+01	-4.258878e+00
1.688938e+01	-4.290307e+00
1.698694e+01	-4.321828e+00
1.708505e+01	-4.353210e+00
1.718373e+01	-4.384914e+00
1.728299e+01	-4.417046e+00
1.738281e+01	-4.448911e+00
1.748322e+01	-4.481166e+00
1.758420e+01	-4.513562e+00
1.768576e+01	-4.545683e+00
1.778792e+01	-4.578237e+00
1.789066e+01	-4.611158e+00
1.799399e+01	-4.643520e+00
1.809793e+01	-4.676479e+00
1.820246e+01	-4.709487e+00
1.830760e+01	-4.742837e+00
1.841334e+01	-4.776213e+00
1.851969e+01	-4.809955e+00
1.862666e+01	-4.843258e+00
1.873425e+01	-4.876852e+00
1.884246e+01	-4.910526e+00
1.895129e+01	-4.944404e+00
1.906075e+01	-4.978535e+00
1.917085e+01	-5.013028e+00
1.928158e+01	-5.047178e+00
1.939295e+01	-5.081470e+00
1.950496e+01	-5.116301e+00
1.961762e+01	-5.150898e+00
1.973093e+01	-5.185765e+00
1.984490e+01	-5.220505e+00
1.995952e+01	-5.255493e+00
2.007480e+01	-5.290761e+00
2.019076e+01	-5.326160e+00
2.030738e+01	-5.361703e+00
2.042467e+01	-5.397028e+00
2.054264e+01	-5.432793e+00
2.066130e+01	-5.468473e+00
2.078064e+01	-5.504246e+00
2.090066e+01	-5.540435e+00
2.102139e+01	-5.576361e+00
2.114280e+01	-5.612770e+00
2.126492e+01	-5.649056e+00
2.138775e+01	-5.685705e+00
2.151128e+01	-5.721788e+00
2.163553e+01	-5.758762e+00
2.176050e+01	-5.795745e+00
2.188619e+01	-5.832296e+00
2.201260e+01	-5.869515e+00
2.213974e+01	-5.906617e+00
2.226762e+01	-5.943843e+00
2.239624e+01	-5.981382e+00
2.252560e+01	-6.018557e+00
2.265571e+01	-6.055929e+00
2.278656e+01	-6.093891e+00
2.291818e+01	-6.131442e+00
2.305055e+01	-6.169371e+00
2.318369e+01	-6.207424e+00
2.331760e+01	-6.245581e+00
2.345228e+01	-6.283878e+00
2.358774e+01	-6.322174e+00
2.372398e+01	-6.360861e+00
2.386101e+01	-6.399445e+00
2.399883e+01	-6.437719e+00
2.413745e+01	-6.476582e+00
2.427686e+01	-6.515439e+00
2.441709e+01	-6.554016e+00
2.455812e+01	-6.593230e+00
2.469997e+01	-6.632301e+00
2.484263e+01	-6.671876e+00
2.498612e+01	-6.710645e+00
2.513044e+01	-6.750228e+00
2.527559e+01	-6.789677e+00
2.542158e+01	-6.829243e+00
2.556842e+01	-6.868566e+00
2.571610e+01	-6.908714e+00
2.586463e+01	-6.948757e+00
2.601403e+01	-6.988085e+00
2.616428e+01	-7.028521e+00
2.631541e+01	-7.069214e+00
2.646740e+01	-7.109231e+00
2.662028e+01	-7.149005e+00
2.677404e+01	-7.189719e+00
2.692868e+01	-7.230663e+00
2.708422e+01	-7.271063e+00
2.724066e+01	-7.311588e+00
2.739800e+01	-7.352469e+00
2.755625e+01	-7.392836e+00
2.771541e+01	-7.434053e+00
2.787550e+01	-7.475297e+00
2.803650e+01	-7.516539e+00
2.819844e+01	-7.557926e+00
2.836131e+01	-7.598691e+00
2.852513e+01	-7.640529e+00
2.868989e+01	-7.681881e+00
2.885560e+01	-7.723244e+00
2.902227e+01	-7.764846e+00
2.918990e+01	-7.806559e+00
2.935850e+01	-7.848582e+00
2.952807e+01	-7.890096e+00
2.969863e+01	-7.932150e+00
2.987016e+01	-7.973974e+00
3.004269e+01	-8.016228e+00
3.021622e+01	-8.058182e+00
3.039075e+01	-8.101110e+00
3.056628e+01	-8.143503e+00
3.074283e+01	-8.185060e+00
3.092040e+01	-8.227885e+00
3.109900e+01	-8.270011e+00
3.127862e+01	-8.312783e+00
3.145929e+01	-8.355871e+00
3.164099e+01	-8.398644e+00
3.182375e+01	-8.441227e+00
3.200756e+01	-8.483982e+00
3.219244e+01	-8.526882e+00
3.237838e+01	-8.570236e+00
3.256540e+01	-8.613475e+00
3.275349e+01	-8.656239e+00
3.294268e+01	-8.699422e+00
3.313295e+01	-8.742806e+00
3.332433e+01	-8.786913e+00
3.351681e+01	-8.830004e+00
3.371040e+01	-8.873144e+00
3.390511e+01	-8.916361e+00
3.410094e+01	-8.960498e+00
3.429791e+01	-9.004325e+00
3.449601e+01	-9.047886e+00
3.469526e+01	-9.091553e+00
3.489566e+01	-9.135643e+00
3.509721e+01	-9.179619e+00
3.529993e+01	-9.223725e+00
3.550382e+01	-9.267719e+00
3.570889e+01	-9.311720e+00
3.591515e+01	-9.356357e+00
3.612259e+01	-9.400415e+00
3.633123e+01	-9.444279e+00
3.654108e+01	-9.488764e+00
3.675214e+01	-9.533316e+00
3.696442e+01	-9.577898e+00
3.717792e+01	-9.622318e+00
3.739266e+01	-9.667424e+00
3.760864e+01	-9.711585e+00
3.782587e+01	-9.756065e+00
3.804435e+01	-9.801060e+00
3.826409e+01	-9.845557e+00
3.848510e+01	-9.890696e+00
3.870739e+01	-9.935843e+00
3.893096e+01	-9.981187e+00
3.915583e+01	-1.002589e+01
3.938199e+01	-1.007078e+01
3.960946e+01	-1.011606e+01
3.983824e+01	-1.016078e+01
4.006834e+01	-1.020640e+01
4.029978e+01	-1.025223e+01
4.053255e+01	-1.029707e+01
4.076666e+01	-1.034258e+01
4.100213e+01	-1.038765e+01
4.123896e+01	-1.043273e+01
4.147715e+01	-1.047889e+01
4.171672e+01	-1.052471e+01
4.195767e+01	-1.057011e+01
4.220002e+01	-1.061593e+01
4.244377e+01	-1.066162e+01
4.268892e+01	-1.070658e+01
4.293549e+01	-1.075358e+01
4.318348e+01	-1.079861e+01
4.343291e+01	-1.084447e+01
4.368377e+01	-1.088987e+01
4.393609e+01	-1.093634e+01
4.418986e+01	-1.098288e+01
4.444510e+01	-1.102884e+01
4.470182e+01	-1.107499e+01
4.496001e+01	-1.112113e+01
4.521970e+01	-1.116683e+01
4.548089e+01	-1.121322e+01
4.574358e+01	-1.125962e+01
4.600779e+01	-1.130581e+01
4.627353e+01	-1.135239e+01
4.654081e+01	-1.139881e+01
4.680963e+01	-1.144545e+01
4.708000e+01	-1.149141e+01
4.735193e+01	-1.153753e+01
4.762543e+01	-1.158411e+01
4.790051e+01	-1.163063e+01
4.817719e+01	-1.167781e+01
4.845545e+01	-1.172445e+01
4.873533e+01	-1.177086e+01
4.901682e+01	-1.181791e+01
4.929994e+01	-1.186399e+01
4.958470e+01	-1.191117e+01
4.987110e+01	-1.195779e+01
5.015915e+01	-1.200483e+01
5.044887e+01	-1.205218e+01
5.074026e+01	-1.209902e+01
5.103333e+01	-1.214519e+01
5.132810e+01	-1.219226e+01
5.162457e+01	-1.224021e+01
5.192275e+01	-1.228690e+01
5.222265e+01	-1.233414e+01
5.252429e+01	-1.238126e+01
5.282767e+01	-1.242776e+01
5.313280e+01	-1.247578e+01
5.343969e+01	-1.252235e+01
5.374836e+01	-1.256965e+01
5.405880e+01	-1.261672e+01
5.437105e+01	-1.266506e+01
5.468509e+01	-1.271205e+01
5.500095e+01	-1.275920e+01
5.531863e+01	-1.280653e+01
5.563815e+01	-1.285426e+01
5.595951e+01	-1.290115e+01
5.628273e+01	-1.294957e+01
5.660782e+01	-1.299633e+01
5.693479e+01	-1.304338e+01
5.726364e+01	-1.309133e+01
5.759439e+01	-1.313897e+01
5.792705e+01	-1.318628e+01
5.826164e+01	-1.323511e+01
5.859815e+01	-1.328154e+01
5.893662e+01	-1.332934e+01
5.927703e+01	-1.337721e+01
5.961941e+01	-1.342479e+01
5.996377e+01	-1.347248e+01
6.031012e+01	-1.352061e+01
6.065847e+01	-1.356806e+01
6.100883e+01	-1.361692e+01
6.136121e+01	-1.366403e+01
6.171563e+01	-1.371162e+01
6.207210e+01	-1.376010e+01
6.243063e+01	-1.380772e+01
6.279122e+01	-1.385597e+01
6.315390e+01	-1.390394e+01
6.351868e+01	-1.395143e+01
6.388556e+01	-1.399969e+01
6.425456e+01	-1.404695e+01
6.462569e+01	-1.409684e+01
6.499897e+01	-1.414354e+01
6.537440e+01	-1.419159e+01
6.575200e+01	-1.424006e+01
6.613178e+01	-1.428858e+01
6.651375e+01	-1.433611e+01
6.689793e+01	-1.438470e+01
6.728433e+01	-1.443343e+01
6.767297e+01	-1.448084e+01
6.806384e+01	-1.452969e+01
6.845698e+01	-1.457827e+01
6.885238e+01	-1.462558e+01
6.925007e+01	-1.467444e+01
6.965005e+01	-1.472240e+01
7.005235e+01	-1.477173e+01
7.045697e+01	-1.481978e+01
7.086393e+01	-1.486794e+01
7.127323e+01	-1.491639e+01
7.168490e+01	-1.496530e+01
7.209895e+01	-1.501219e+01
7.251539e+01	-1.506217e+01
7.293424e+01	-1.511014e+01
7.335551e+01	-1.515873e+01
7.377920e+01	-1.520696e+01
7.420535e+01	-1.525553e+01
7.463396e+01	-1.530505e+01
7.506504e+01	-1.535336e+01
7.549861e+01	-1.540103e+01
7.593469e+01	-1.545032e+01
7.637328e+01	-1.549928e+01
7.681441e+01	-1.554716e+01
7.725809e+01	-1.559620e+01
7.770433e+01	-1.564429e+01
7.815315e+01	-1.569409e+01
7.860456e+01	-1.574174e+01
7.905857e+01	-1.579065e+01
7.951521e+01	-1.583834e+01
7.997449e+01	-1.588809e+01
8.043642e+01	-1.593729e+01
8.090102e+01	-1.598491e+01
8.136830e+01	-1.603404e+01
8.183828e+01	-1.608366e+01
8.231097e+01	-1.613093e+01
8.278640e+01	-1.618011e+01
8.326457e+01	-1.622959e+01
8.374550e+01	-1.627888e+01
8.422921e+01	-1.632775e+01
8.471572e+01	-1.637665e+01
8.520503e+01	-1.642585e+01
8.569717e+01	-1.647380e+01
8.619215e+01	-1.652210e+01
8.669000e+01	-1.657149e+01
8.719071e+01	-1.662089e+01
8.769432e+01	-1.666819e+01
8.820084e+01	-1.671906e+01
8.871029e+01	-1.676785e+01
8.922267e+01	-1.681534e+01
8.973802e+01	-1.686500e+01
9.025634e+01	-1.691452e+01
9.077766e+01	-1.696282e+01
9.130199e+01	-1.701220e+01
9.182935e+01	-1.706045e+01
9.235975e+01	-1.711090e+01
9.289321e+01	-1.716059e+01
9.342976e+01	-1.720780e+01
9.396941e+01	-1.725837e+01
9.451217e+01	-1.730587e+01
9.505807e+01	-1.735650e+01
9.560712e+01	-1.740470e+01
9.615934e+01	-1.745391e+01
9.671476e+01	-1.750324e+01
9.727338e+01	-1.755263e+01
9.783522e+01	-1.760143e+01
9.840032e+01	-1.765108e+01
9.896867e+01	-1.770081e+01
9.954031e+01	-1.775035e+01
1.001153e+02	-1.779868e+01
1.006935e+02	-1.784720e+01
1.012751e+02	-1.789594e+01
1.018601e+02	-1.794574e+01
1.024484e+02	-1.799519e+01
1.030402e+02	-1.804526e+01
1.036353e+02	-1.809530e+01
1.042339e+02	-1.814340e+01
1.048360e+02	-1.819228e+01
1.054415e+02	-1.824060e+01
1.060505e+02	-1.828990e+01
1.066631e+02	-1.833944e+01
1.072791e+02	-1.839017e+01
1.078988e+02	-1.843963e+01
1.085220e+02	-1.849022e+01
1.091488e+02	-1.853927e+01
1.097793e+02	-1.858585e+01
1.104133e+02	-1.863599e+01
1.110511e+02	-1.868560e+01
1.116925e+02	-1.873526e+01
1.123376e+02	-1.878330e+01
1.129865e+02	-1.883342e+01
1.136391e+02	-1.888308e+01
1.142955e+02	-1.893233e+01
1.149556e+02	-1.898212e+01
1.156196e+02	-1.903227e+01
1.162874e+02	-1.908006e+01
1.169591e+02	-1.913050e+01
1.176347e+02	-1.918006e+01
1.183141e+02	-1.922838e+01
1.189975e+02	-1.927888e+01
1.196848e+02	-1.932829e+01
1.203761e+02	-1.937824e+01
1.210714e+02	-1.942641e+01
1.217707e+02	-1.947666e+01
1.224740e+02	-1.952461e+01
1.231814e+02	-1.957510e+01
1.238929e+02	-1.962562e+01
1.246085e+02	-1.967348e+01
1.253283e+02	-1.972304e+01
1.260522e+02	-1.977272e+01
1.267802e+02	-1.982179e+01
1.275125e+02	-1.987118e+01
1.282490e+02	-1.992250e+01
1.289898e+02	-1.997188e+01
1.297348e+02	-2.002017e+01
1.304842e+02	-2.007017e+01
1.312378e+02	-2.012002e+01
1.319959e+02	-2.017047e+01
1.327583e+02	-2.021932e+01
1.335251e+02	-2.026776e+01
1.342963e+02	-2.031961e+01
1.350720e+02	-2.036881e+01
1.358522e+02	-2.041769e+01
1.366368e+02	-2.046646e+01
1.374260e+02	-2.051554e+01
1.382198e+02	-2.056515e+01
1.390182e+02	-2.061528e+01
1.398211e+02	-2.066496e+01
1.406287e+02	-2.071487e+01
1.414410e+02	-2.076458e+01
1.422579e+02	-2.081353e+01
1.430796e+02	-2.086314e+01
1.439060e+02	-2.091251e+01
1.447372e+02	-2.096365e+01
1.455732e+02	-2.101123e+01
1.464141e+02	-2.106211e+01
1.472597e+02	-2.111074e+01
1.481103e+02	-2.116224e+01
1.489658e+02	-2.121040e+01
1.498262e+02	-2.126377e+01
1.506916e+02	-2.130985e+01
1.515620e+02	-2.136030e+01
1.524374e+02	-2.140952e+01
1.533179e+02	-2.145778e+01
1.542034e+02	-2.151001e+01
1.550941e+02	-2.155765e+01
1.559899e+02	-2.160852e+01
1.568909e+02	-2.165944e+01
1.577971e+02	-2.170797e+01
1.587085e+02	-2.175954e+01
1.596252e+02	-2.180797e+01
1.605472e+02	-2.185546e+01
1.614745e+02	-2.190566e+01
1.624072e+02	-2.195568e+01
1.633453e+02	-2.200668e+01
1.642887e+02	-2.205402e+01
1.652377e+02	-2.210629e+01
1.661921e+02	-2.215561e+01
1.671520e+02	-2.220561e+01
1.681175e+02	-2.225671e+01
1.690885e+02	-2.230556e+01
1.700651e+02	-2.235375e+01
1.710474e+02	-2.240228e+01
1.720354e+02	-2.245340e+01
1.730291e+02	-2.250345e+01
1.740285e+02	-2.255462e+01
1.750337e+02	-2.260600e+01
1.760446e+02	-2.265533e+01
1.770615e+02	-2.270102e+01
1.780842e+02	-2.275266e+01
1.791128e+02	-2.280242e+01
1.801473e+02	-2.285296e+01
1.811878e+02	-2.290173e+01
1.822344e+02	-2.295090e+01
1.832870e+02	-2.300113e+01
1.843456e+02	-2.305122e+01
1.854104e+02	-2.310210e+01
1.864813e+02	-2.314948e+01
1.875584e+02	-2.319980e+01
1.886418e+02	-2.325018e+01
1.897313e+02	-2.330071e+01
1.908272e+02	-2.335112e+01
1.919294e+02	-2.340273e+01
1.930380e+02	-2.344997e+01
1.941530e+02	-2.350222e+01
1.952744e+02	-2.355044e+01
1.964023e+02	-2.360118e+01
1.975367e+02	-2.364787e+01
1.986777e+02	-2.369904e+01
1.998252e+02	-2.374906e+01
2.009794e+02	-2.379807e+01
2.021403e+02	-2.384996e+01
2.033078e+02	-2.389744e+01
2.044821e+02	-2.394746e+01
2.056632e+02	-2.399979e+01
2.068511e+02	-2.404787e+01
2.080459e+02	-2.409613e+01
2.092475e+02	-2.414933e+01
2.104561e+02	-2.419910e+01
2.116717e+02	-2.424684e+01
2.128943e+02	-2.429800e+01
2.141240e+02	-2.434762e+01
2.153608e+02	-2.439674e+01
2.166047e+02	-2.444827e+01
2.178558e+02	-2.449776e+01
2.191141e+02	-2.454757e+01
2.203797e+02	-2.459909e+01
2.216526e+02	-2.464762e+01
2.229329e+02	-2.469837e+01
2.242205e+02	-2.474804e+01
2.255156e+02	-2.479422e+01
2.268182e+02	-2.484649e+01
2.281283e+02	-2.489649e+01
2.294459e+02	-2.494793e+01
2.307712e+02	-2.499605e+01
2.321041e+02	-2.504579e+01
2.334447e+02	-2.509444e+01
2.347931e+02	-2.514597e+01
2.361493e+02	-2.519785e+01
2.375133e+02	-2.524803e+01
2.388851e+02	-2.529331e+01
2.402649e+02	-2.534412e+01
2.416527e+02	-2.539794e+01
2.430484e+02	-2.544879e+01
2.444523e+02	-2.549597e+01
2.458642e+02	-2.554413e+01
2.472843e+02	-2.559664e+01
2.487126e+02	-2.564557e+01
2.501492e+02	-2.569418e+01
2.515940e+02	-2.574375e+01
2.530472e+02	-2.579504e+01
2.545088e+02	-2.584584e+01
2.559789e+02	-2.589496e+01
2.574574e+02	-2.594616e+01
2.589444e+02	-2.599254e+01
2.604401e+02	-2.604552e+01
2.619444e+02	-2.609598e+01
2.634574e+02	-2.614203e+01
2.649791e+02	-2.619525e+01
2.665096e+02	-2.624260e+01
2.680489e+02	-2.629336e+01
2.695972e+02	-2.634619e+01
2.711544e+02	-2.639680e+01
2.727205e+02	-2.644635e+01
2.742958e+02	-2.649795e+01
2.758801e+02	-2.654444e+01
2.774736e+02	-2.659212e+01
2.790762e+02	-2.664454e+01
2.806882e+02	-2.669272e+01
2.823094e+02	-2.674506e+01
2.839400e+02	-2.679776e+01
2.855800e+02	-2.684732e+01
2.872295e+02	-2.689780e+01
2.888886e+02	-2.694668e+01
2.905572e+02	-2.699575e+01
2.922354e+02	-2.704350e+01
2.939234e+02	-2.709273e+01
2.956211e+02	-2.714410e+01
2.973286e+02	-2.719558e+01
2.990459e+02	-2.724705e+01
3.007732e+02	-2.729412e+01
3.025104e+02	-2.734638e+01
3.042577e+02	-2.739721e+01
3.060151e+02	-2.744210e+01
3.077826e+02	-2.749353e+01
3.095604e+02	-2.754196e+01
3.113484e+02	-2.759521e+01
3.131467e+02	-2.764401e+01
3.149554e+02	-2.770047e+01
3.167746e+02	-2.774635e+01
3.186043e+02	-2.779619e+01
3.204445e+02	-2.784699e+01
3.222954e+02	-2.789354e+01
3.241570e+02	-2.794291e+01
3.260293e+02	-2.799358e+01
3.279124e+02	-2.804717e+01
3.298064e+02	-2.809451e+01
3.317114e+02	-2.814547e+01
3.336273e+02	-2.819524e+01
3.355544e+02	-2.824498e+01
3.374925e+02	-2.829852e+01
3.394418e+02	-2.834767e+01
3.414024e+02	-2.839648e+01
3.433744e+02	-2.844539e+01
3.453577e+02	-2.849695e+01
3.473525e+02	-2.854535e+01
3.493588e+02	-2.859623e+01
3.513766e+02	-2.864696e+01
3.534062e+02	-2.869520e+01
3.554474e+02	-2.874809e+01
3.575005e+02	-2.879176e+01
3.595654e+02	-2.884961e+01
3.616422e+02	-2.889143e+01
3.637311e+02	-2.894496e+01
3.658320e+02	-2.899825e+01
3.679450e+02	-2.904073e+01
3.700702e+02	-2.909840e+01
3.722077e+02	-2.914382e+01
3.743576e+02	-2.919566e+01
3.765199e+02	-2.925096e+01
3.786946e+02	-2.929615e+01
3.808820e+02	-2.934884e+01
3.830819e+02	-2.939797e+01
3.852946e+02	-2.945121e+01
3.875200e+02	-2.949434e+01
3.897583e+02	-2.954425e+01
3.920096e+02	-2.960106e+01
3.942738e+02	-2.964582e+01
3.965511e+02	-2.969924e+01
3.988416e+02	-2.974498e+01
4.011452e+02	-2.979411e+01
4.034622e+02	-2.984473e+01
4.057926e+02	-2.989730e+01
4.081365e+02	-2.994685e+01
4.104938e+02	-3.000002e+01
4.128648e+02	-3.005147e+01
4.152495e+02	-3.009691e+01
4.176480e+02	-3.015203e+01
4.200603e+02	-3.019386e+01
4.224866e+02	-3.024762e+01
4.249268e+02	-3.029697e+01
4.273812e+02	-3.035090e+01
4.298497e+02	-3.039995e+01
4.323325e+02	-3.044883e+01
4.348297e+02	-3.050195e+01
4.373412e+02	-3.054867e+01
4.398673e+02	-3.059858e+01
4.424079e+02	-3.064322e+01
4.449633e+02	-3.069961e+01
4.475334e+02	-3.074429e+01
4.501183e+02	-3.079909e+01
4.527182e+02	-3.084531e+01
4.553330e+02	-3.089568e+01
4.579630e+02	-3.094898e+01
4.606082e+02	-3.100716e+01
4.632687e+02	-3.105250e+01
4.659445e+02	-3.110342e+01
4.686358e+02	-3.115217e+01
4.713426e+02	-3.119632e+01
4.740650e+02	-3.125170e+01
4.768032e+02	-3.130330e+01
4.795572e+02	-3.134893e+01
4.823271e+02	-3.140337e+01
4.851130e+02	-3.144978e+01
4.879150e+02	-3.150594e+01
4.907332e+02	-3.154902e+01
4.935676e+02	-3.160111e+01
4.964185e+02	-3.165352e+01
4.992858e+02	-3.170489e+01
5.021696e+02	-3.175780e+01
5.050701e+02	-3.180351e+01
5.079874e+02	-3.185358e+01
5.109215e+02	-3.190459e+01
5.138726e+02	-3.195221e+01
5.168407e+02	-3.200127e+01
5.198259e+02	-3.205218e+01
5.228284e+02	-3.209592e+01
5.258482e+02	-3.216031e+01
5.288855e+02	-3.220820e+01
5.319403e+02	-3.225497e+01
5.350128e+02	-3.230621e+01
5.381030e+02	-3.235990e+01
5.412111e+02	-3.240434e+01
5.443371e+02	-3.245340e+01
5.474812e+02	-3.251008e+01
5.506434e+02	-3.255414e+01
5.538239e+02	-3.260579e+01
5.570228e+02	-3.265330e+01
5.602401e+02	-3.271249e+01
5.634760e+02	-3.276490e+01
5.667306e+02	-3.280306e+01
5.700040e+02	-3.286499e+01
5.732964e+02	-3.291637e+01
5.766077e+02	-3.296097e+01
5.799382e+02	-3.299844e+01
5.832879e+02	-3.305909e+01
5.866569e+02	-3.310717e+01
5.900454e+02	-3.316459e+01
5.934535e+02	-3.321362e+01
5.968813e+02	-3.326746e+01
6.003288e+02	-3.330506e+01
6.037963e+02	-3.337005e+01
6.072838e+02	-3.340603e+01
6.107914e+02	-3.346165e+01
6.143194e+02	-3.351639e+01
6.178676e+02	-3.355909e+01
6.214364e+02	-3.360967e+01
6.250258e+02	-3.366845e+01
6.286359e+02	-3.371489e+01
6.322669e+02	-3.376389e+01
6.359189e+02	-3.381697e+01
6.395919e+02	-3.386109e+01
6.432862e+02	-3.391234e+01
6.470017e+02	-3.395857e+01
6.507388e+02	-3.402181e+01
6.544974e+02	-3.407172e+01
6.582778e+02	-3.411057e+01
6.620800e+02	-3.416773e+01
6.659041e+02	-3.421844e+01
6.697504e+02	-3.426802e+01
6.736188e+02	-3.431995e+01
6.775096e+02	-3.436054e+01
6.814229e+02	-3.441789e+01
6.853587e+02	-3.447307e+01
6.893173e+02	-3.451484e+01
6.932988e+02	-3.456915e+01
6.973033e+02	-3.463592e+01
7.013309e+02	-3.466611e+01
