Frequency(Hz)	Magnitude(dB)
1.000000e+01	-2.303266e+00
1.005776e+01	-2.323783e+00
1.011585e+01	-2.344653e+00
1.017428e+01	-2.365788e+00
1.023305e+01	-2.386556e+00
1.029215e+01	-2.407842e+00
1.035160e+01	-2.429250e+00
1.041139e+01	-2.450879e+00
1.047153e+01	-2.472362e+00
1.053201e+01	-2.493843e+00
1.059284e+01	-2.515955e+00
1.065403e+01	-2.538247e+00
1.071556e+01	-2.560429e+00
1.077746e+01	-2.582909e+00
1.083971e+01	-2.605019e+00
1.090232e+01	-2.627791e+00
1.096529e+01	-2.650594e+00
1.102862e+01	-2.673567e+00
1.109232e+01	-2.696765e+00
1.115639e+01	-2.719930e+00
1.122083e+01	-2.743126e+00
1.128564e+01	-2.766769e+00
1.135083e+01	-2.790496e+00
1.141639e+01	-2.814173e+00
1.148233e+01	-2.838085e+00
1.154865e+01	-2.862189e+00
1.161536e+01	-2.886376e+00
1.168245e+01	-2.910634e+00
1.174992e+01	-2.935134e+00
1.181779e+01	-2.959851e+00
1.188605e+01	-2.984595e+00
1.195470e+01	-3.009675e+00
1.202375e+01	-3.034583e+00
1.209320e+01	-3.059876e+00
1.216305e+01	-3.085234e+00
1.223330e+01	-3.110851e+00
1.230396e+01	-3.136448e+00
1.237503e+01	-3.162193e+00
1.244651e+01	-3.188075e+00
1.251840e+01	-3.214311e+00
1.259070e+01	-3.240370e+00
1.266343e+01	-3.266873e+00
1.273657e+01	-3.293459e+00
1.281014e+01	-3.320003e+00
1.288413e+01	-3.346790e+00
1.295855e+01	-3.373829e+00
1.303339e+01	-3.400923e+00
1.310867e+01	-3.427935e+00
1.318439e+01	-3.455326e+00
1.326054e+01	-3.483002e+00
1.333713e+01	-3.510694e+00
1.341417e+01	-3.538531e+00
1.349165e+01	-3.566300e+00
1.356958e+01	-3.594436e+00
1.364795e+01	-3.622762e+00
1.372678e+01	-3.650953e+00
1.380607e+01	-3.679474e+00
1.388581e+01	-3.708163e+00
1.396602e+01	-3.736911e+00
1.404668e+01	-3.766035e+00
1.412782e+01	-3.794894e+00
1.420942e+01	-3.824366e+00
1.429149e+01	-3.853628e+00
1.437404e+01	-3.883009e+00
1.445706e+01	-3.912736e+00
1.454057e+01	-3.942746e+00
1.462455e+01	-3.972814e+00
1.470902e+01	-4.002537e+00
1.479398e+01	-4.032744e+00
1.487943e+01	-4.063022e+00
1.496537e+01	-4.093405e+00
1.505181e+01	-4.124115e+00
1.513875e+01	-4.154963e+00
1.522619e+01	-4.185666e+00
1.531414e+01	-4.216795e+00
1.540259e+01	-4.247876e+00
1.549156e+01	-4.279239e+00
1.558103e+01	-4.310398e+00
1.567103e+01	-4.342084e+00
1.576155e+01	-4.373921e+00
1.585258e+01	-4.405695e+00
1.594415e+01	-4.437532e+00
1.603624e+01	-4.469616e+00
1.612886e+01	-4.501998e+00
1.622202e+01	-4.534392e+00
1.631572e+01	-4.566534e+00
1.640996e+01	-4.599331e+00
1.650474e+01	-4.632205e+00
1.660008e+01	-4.664997e+00
1.669596e+01	-4.698161e+00
1.679239e+01	-4.731086e+00
1.688938e+01	-4.764340e+00
1.698694e+01	-4.798201e+00
1.708505e+01	-4.831299e+00
1.718373e+01	-4.864966e+00
1.728299e+01	-4.898806e+00
1.738281e+01	-4.932606e+00
1.748322e+01	-4.966669e+00
1.758420e+01	-5.000875e+00
1.768576e+01	-5.035310e+00
1.778792e+01	-5.069545e+00
1.789066e+01	-5.103788e+00
1.799399e+01	-5.138523e+00
1.809793e+01	-5.173196e+00
1.820246e+01	-5.208241e+00
1.830760e+01	-5.243243e+00
1.841334e+01	-5.278808e+00
1.851969e+01	-5.313682e+00
1.862666e+01	-5.348875e+00
1.873425e+01	-5.384788e+00
1.884246e+01	-5.419831e+00
1.895129e+01	-5.455842e+00
1.906075e+01	-5.491504e+00
1.917085e+01	-5.527462e+00
1.928158e+01	-5.563867e+00
1.939295e+01	-5.600042e+00
1.950496e+01	-5.635817e+00
1.961762e+01	-5.672537e+00
1.973093e+01	-5.709126e+00
1.984490e+01	-5.745690e+00
1.995952e+01	-5.782539e+00
2.007480e+01	-5.819280e+00
2.019076e+01	-5.856038e+00
2.030738e+01	-5.893619e+00
2.042467e+01	-5.930477e+00
2.054264e+01	-5.968221e+00
2.066130e+01	-6.005415e+00
2.078064e+01	-6.043040e+00
2.090066e+01	-6.080878e+00
2.102139e+01	-6.118469e+00
2.114280e+01	-6.156184e+00
2.126492e+01	-6.194187e+00
2.138775e+01	-6.232119e+00
2.151128e+01	-6.270485e+00
2.163553e+01	-6.308592e+00
2.176050e+01	-6.346926e+00
2.188619e+01	-6.385653e+00
2.201260e+01	-6.424020e+00
2.213974e+01	-6.462726e+00
2.226762e+01	-6.501241e+00
2.239624e+01	-6.540383e+00
2.252560e+01	-6.579319e+00
2.265571e+01	-6.618742e+00
2.278656e+01	-6.657688e+00
2.291818e+01	-6.696911e+00
2.305055e+01	-6.736258e+00
2.318369e+01	-6.775571e+00
2.331760e+01	-6.815173e+00
2.345228e+01	-6.855239e+00
2.358774e+01	-6.894767e+00
2.372398e+01	-6.934614e+00
2.386101e+01	-6.974348e+00
2.399883e+01	-7.014583e+00
2.413745e+01	-7.054644e+00
2.427686e+01	-7.094817e+00
2.441709e+01	-7.135100e+00
2.455812e+01	-7.175252e+00
2.469997e+01	-7.216118e+00
2.484263e+01	-7.256766e+00
2.498612e+01	-7.297240e+00
2.513044e+01	-7.338116e+00
2.527559e+01	-7.378627e+00
2.542158e+01	-7.419798e+00
2.556842e+01	-7.460975e+00
2.571610e+01	-7.501998e+00
2.586463e+01	-7.542858e+00
2.601403e+01	-7.584122e+00
2.616428e+01	-7.625358e+00
2.631541e+01	-7.666832e+00
2.646740e+01	-7.708939e+00
2.662028e+01	-7.750168e+00
2.677404e+01	-7.791876e+00
2.692868e+01	-7.833401e+00
2.708422e+01	-7.875693e+00
2.724066e+01	-7.917230e+00
2.739800e+01	-7.959807e+00
2.755625e+01	-8.001086e+00
2.771541e+01	-8.043897e+00
2.787550e+01	-8.085828e+00
2.803650e+01	-8.128034e+00
2.819844e+01	-8.170296e+00
2.836131e+01	-8.212344e+00
2.852513e+01	-8.254803e+00
2.868989e+01	-8.297568e+00
2.885560e+01	-8.340196e+00
2.902227e+01	-8.383352e+00
2.918990e+01	-8.425905e+00
2.935850e+01	-8.469020e+00
2.952807e+01	-8.511818e+00
2.969863e+01	-8.554826e+00
2.987016e+01	-8.597908e+00
3.004269e+01	-8.641400e+00
3.021622e+01	-8.683888e+00
3.039075e+01	-8.727300e+00
3.056628e+01	-8.770919e+00
3.074283e+01	-8.814334e+00
3.092040e+01	-8.857999e+00
3.109900e+01	-8.901515e+00
3.127862e+01	-8.945678e+00
3.145929e+01	-8.988667e+00
3.164099e+01	-9.032873e+00
3.182375e+01	-9.076699e+00
3.200756e+01	-9.120198e+00
3.219244e+01	-9.163925e+00
3.237838e+01	-9.208682e+00
3.256540e+01	-9.252186e+00
3.275349e+01	-9.296163e+00
3.294268e+01	-9.340581e+00
3.313295e+01	-9.384617e+00
3.332433e+01	-9.429036e+00
3.351681e+01	-9.473439e+00
3.371040e+01	-9.517506e+00
3.390511e+01	-9.561940e+00
3.410094e+01	-9.606499e+00
3.429791e+01	-9.651231e+00
3.449601e+01	-9.695483e+00
3.469526e+01	-9.740718e+00
3.489566e+01	-9.785306e+00
3.509721e+01	-9.830120e+00
3.529993e+01	-9.874916e+00
3.550382e+01	-9.919900e+00
3.570889e+01	-9.965107e+00
3.591515e+01	-1.001021e+01
3.612259e+01	-1.005493e+01
3.633123e+01	-1.010020e+01
3.654108e+01	-1.014561e+01
3.675214e+01	-1.019051e+01
3.696442e+01	-1.023535e+01
3.717792e+01	-1.028136e+01
3.739266e+01	-1.032669e+01
3.760864e+01	-1.037169e+01
3.782587e+01	-1.041726e+01
3.804435e+01	-1.046315e+01
3.826409e+01	-1.050861e+01
3.848510e+01	-1.055361e+01
3.870739e+01	-1.059978e+01
3.893096e+01	-1.064488e+01
3.915583e+01	-1.069122e+01
3.938199e+01	-1.073697e+01
3.960946e+01	-1.078229e+01
3.983824e+01	-1.082866e+01
4.006834e+01	-1.087467e+01
4.029978e+01	-1.092018e+01
4.053255e+01	-1.096629e+01
4.076666e+01	-1.101232e+01
4.100213e+01	-1.105828e+01
4.123896e+01	-1.110509e+01
4.147715e+01	-1.115085e+01
4.171672e+01	-1.119667e+01
4.195767e+01	-1.124372e+01
4.220002e+01	-1.128992e+01
4.244377e+01	-1.133607e+01
4.268892e+01	-1.138305e+01
4.293549e+01	-1.142837e+01
4.318348e+01	-1.147573e+01
4.343291e+01	-1.152202e+01
4.368377e+01	-1.156805e+01
4.393609e+01	-1.161427e+01
4.418986e+01	-1.166126e+01
4.444510e+01	-1.170800e+01
4.470182e+01	-1.175458e+01
4.496001e+01	-1.180105e+01
4.521970e+01	-1.184755e+01
4.548089e+01	-1.189481e+01
4.574358e+01	-1.194089e+01
4.600779e+01	-1.198824e+01
4.627353e+01	-1.203435e+01
4.654081e+01	-1.208215e+01
4.680963e+01	-1.212952e+01
4.708000e+01	-1.217630e+01
4.735193e+01	-1.222263e+01
4.762543e+01	-1.226971e+01
4.790051e+01	-1.231738e+01
4.817719e+01	-1.236458e+01
4.845545e+01	-1.241116e+01
4.873533e+01	-1.245933e+01
4.901682e+01	-1.250568e+01
4.929994e+01	-1.255302e+01
4.958470e+01	-1.260027e+01
4.987110e+01	-1.264747e+01
5.015915e+01	-1.269516e+01
5.044887e+01	-1.274223e+01
5.074026e+01	-1.278970e+01
5.103333e+01	-1.283694e+01
5.132810e+01	-1.288470e+01
5.162457e+01	-1.293258e+01
5.192275e+01	-1.297968e+01
5.222265e+01	-1.302686e+01
5.252429e+01	-1.307450e+01
5.282767e+01	-1.312235e+01
5.313280e+01	-1.316875e+01
5.343969e+01	-1.321736e+01
5.374836e+01	-1.326556e+01
5.405880e+01	-1.331325e+01
5.437105e+01	-1.336063e+01
5.468509e+01	-1.340800e+01
5.500095e+01	-1.345539e+01
5.531863e+01	-1.350409e+01
5.563815e+01	-1.355206e+01
5.595951e+01	-1.359908e+01
5.628273e+01	-1.364693e+01
5.660782e+01	-1.369492e+01
5.693479e+01	-1.374298e+01
5.726364e+01	-1.379147e+01
5.759439e+01	-1.383810e+01
5.792705e+01	-1.388649e+01
5.826164e+01	-1.393524e+01
5.859815e+01	-1.398314e+01
5.893662e+01	-1.403041e+01
5.927703e+01	-1.407933e+01
5.961941e+01	-1.412715e+01
5.996377e+01	-1.417558e+01
6.031012e+01	-1.422343e+01
6.065847e+01	-1.427176e+01
6.100883e+01	-1.431978e+01
6.136121e+01	-1.436751e+01
6.171563e+01	-1.441574e+01
6.207210e+01	-1.446451e+01
6.243063e+01	-1.451162e+01
6.279122e+01	-1.456196e+01
6.315390e+01	-1.460876e+01
6.351868e+01	-1.465755e+01
6.388556e+01	-1.470545e+01
6.425456e+01	-1.475425e+01
6.462569e+01	-1.480210e+01
6.499897e+01	-1.485152e+01
6.537440e+01	-1.489879e+01
6.575200e+01	-1.494760e+01
6.613178e+01	-1.499608e+01
6.651375e+01	-1.504401e+01
6.689793e+01	-1.509311e+01
6.728433e+01	-1.514100e+01
6.767297e+01	-1.518970e+01
6.806384e+01	-1.523848e+01
6.845698e+01	-1.528665e+01
6.885238e+01	-1.533554e+01
6.925007e+01	-1.538380e+01
6.965005e+01	-1.543319e+01
7.005235e+01	-1.548123e+01
7.045697e+01	-1.553000e+01
7.086393e+01	-1.557890e+01
7.127323e+01	-1.562697e+01
7.168490e+01	-1.567595e+01
7.209895e+01	-1.572527e+01
7.251539e+01	-1.577305e+01
7.293424e+01	-1.582216e+01
7.335551e+01	-1.587034e+01
7.377920e+01	-1.591909e+01
7.420535e+01	-1.596877e+01
7.463396e+01	-1.601734e+01
7.506504e+01	-1.606524e+01
7.549861e+01	-1.611510e+01
7.593469e+01	-1.616337e+01
7.637328e+01	-1.621293e+01
7.681441e+01	-1.626091e+01
7.725809e+01	-1.630987e+01
7.770433e+01	-1.635965e+01
7.815315e+01	-1.640712e+01
7.860456e+01	-1.645712e+01
7.905857e+01	-1.650590e+01
7.951521e+01	-1.655457e+01
7.997449e+01	-1.660334e+01
8.043642e+01	-1.665295e+01
8.090102e+01	-1.670182e+01
8.136830e+01	-1.675072e+01
8.183828e+01	-1.679893e+01
8.231097e+01	-1.684846e+01
8.278640e+01	-1.689657e+01
8.326457e+01	-1.694648e+01
8.374550e+01	-1.699540e+01
8.422921e+01	-1.704441e+01
8.471572e+01	-1.709329e+01
8.520503e+01	-1.714075e+01
8.569717e+01	-1.719203e+01
8.619215e+01	-1.723941e+01
8.669000e+01	-1.728955e+01
8.719071e+01	-1.733866e+01
8.769432e+01	-1.738782e+01
8.820084e+01	-1.743747e+01
8.871029e+01	-1.748715e+01
8.922267e+01	-1.753498e+01
8.973802e+01	-1.758489e+01
9.025634e+01	-1.763305e+01
9.077766e+01	-1.768358e+01
9.130199e+01	-1.773260e+01
9.182935e+01	-1.778142e+01
9.235975e+01	-1.783043e+01
9.289321e+01	-1.787925e+01
9.342976e+01	-1.792888e+01
9.396941e+01	-1.797799e+01
9.451217e+01	-1.802761e+01
9.505807e+01	-1.807653e+01
9.560712e+01	-1.812525e+01
9.615934e+01	-1.817558e+01
9.671476e+01	-1.822491e+01
9.727338e+01	-1.827273e+01
9.783522e+01	-1.832218e+01
9.840032e+01	-1.837277e+01
9.896867e+01	-1.842147e+01
9.954031e+01	-1.847199e+01
1.001153e+02	-1.852144e+01
1.006935e+02	-1.856781e+01
1.012751e+02	-1.861729e+01
1.018601e+02	-1.866817e+01
1.024484e+02	-1.871668e+01
1.030402e+02	-1.876659e+01
1.036353e+02	-1.881553e+01
1.042339e+02	-1.886566e+01
1.048360e+02	-1.891545e+01
1.054415e+02	-1.896341e+01
1.060505e+02	-1.901349e+01
1.066631e+02	-1.906436e+01
1.072791e+02	-1.911324e+01
1.078988e+02	-1.916288e+01
1.085220e+02	-1.921155e+01
1.091488e+02	-1.926128e+01
1.097793e+02	-1.931038e+01
1.104133e+02	-1.936060e+01
1.110511e+02	-1.941001e+01
1.116925e+02	-1.946053e+01
1.123376e+02	-1.950775e+01
1.129865e+02	-1.955765e+01
1.136391e+02	-1.960749e+01
1.142955e+02	-1.965747e+01
1.149556e+02	-1.970632e+01
1.156196e+02	-1.975472e+01
1.162874e+02	-1.980596e+01
1.169591e+02	-1.985549e+01
1.176347e+02	-1.990413e+01
1.183141e+02	-1.995287e+01
1.189975e+02	-2.000470e+01
1.196848e+02	-2.005295e+01
1.203761e+02	-2.010284e+01
1.210714e+02	-2.015195e+01
1.217707e+02	-2.020234e+01
1.224740e+02	-2.025013e+01
1.231814e+02	-2.030115e+01
1.238929e+02	-2.034882e+01
1.246085e+02	-2.039787e+01
1.253283e+02	-2.044879e+01
1.260522e+02	-2.049736e+01
1.267802e+02	-2.054762e+01
1.275125e+02	-2.059914e+01
1.282490e+02	-2.064755e+01
1.289898e+02	-2.069760e+01
1.297348e+02	-2.074705e+01
1.304842e+02	-2.079491e+01
1.312378e+02	-2.084620e+01
1.319959e+02	-2.089618e+01
1.327583e+02	-2.094523e+01
1.335251e+02	-2.099293e+01
1.342963e+02	-2.104512e+01
1.350720e+02	-2.109250e+01
1.358522e+02	-2.114454e+01
1.366368e+02	-2.119314e+01
1.374260e+02	-2.124379e+01
1.382198e+02	-2.129286e+01
1.390182e+02	-2.134143e+01
1.398211e+02	-2.139356e+01
1.406287e+02	-2.144439e+01
1.414410e+02	-2.149184e+01
1.422579e+02	-2.154103e+01
1.430796e+02	-2.159043e+01
1.439060e+02	-2.163970e+01
1.447372e+02	-2.168921e+01
1.455732e+02	-2.174118e+01
1.464141e+02	-2.178844e+01
1.472597e+02	-2.184019e+01
1.481103e+02	-2.189071e+01
1.489658e+02	-2.193939e+01
1.498262e+02	-2.198875e+01
1.506916e+02	-2.203985e+01
1.515620e+02	-2.208717e+01
1.524374e+02	-2.213740e+01
1.533179e+02	-2.218763e+01
1.542034e+02	-2.223770e+01
1.550941e+02	-2.228715e+01
1.559899e+02	-2.233714e+01
1.568909e+02	-2.238527e+01
1.577971e+02	-2.243784e+01
1.587085e+02	-2.248487e+01
1.596252e+02	-2.253389e+01
1.605472e+02	-2.258607e+01
1.614745e+02	-2.263366e+01
1.624072e+02	-2.268256e+01
1.633453e+02	-2.273430e+01
1.642887e+02	-2.278312e+01
1.652377e+02	-2.283381e+01
1.661921e+02	-2.288580e+01
1.671520e+02	-2.293595e+01
1.681175e+02	-2.298561e+01
1.690885e+02	-2.303325e+01
1.700651e+02	-2.308611e+01
1.710474e+02	-2.313441e+01
1.720354e+02	-2.318411e+01
1.730291e+02	-2.323316e+01
1.740285e+02	-2.328336e+01
1.750337e+02	-2.333222e+01
1.760446e+02	-2.338450e+01
1.770615e+02	-2.343115e+01
1.780842e+02	-2.348217e+01
1.791128e+02	-2.353183e+01
1.801473e+02	-2.357964e+01
1.811878e+02	-2.363226e+01
1.822344e+02	-2.368240e+01
1.832870e+02	-2.373190e+01
1.843456e+02	-2.377981e+01
1.854104e+02	-2.383058e+01
1.864813e+02	-2.387915e+01
1.875584e+02	-2.392908e+01
1.886418e+02	-2.397962e+01
1.897313e+02	-2.403149e+01
1.908272e+02	-2.408108e+01
1.919294e+02	-2.412974e+01
1.930380e+02	-2.417987e+01
1.941530e+02	-2.422928e+01
1.952744e+02	-2.427825e+01
1.964023e+02	-2.433155e+01
1.975367e+02	-2.438039e+01
1.986777e+02	-2.442784e+01
1.998252e+02	-2.447807e+01
2.009794e+02	-2.452987e+01
2.021403e+02	-2.457794e+01
2.033078e+02	-2.462739e+01
2.044821e+02	-2.467771e+01
2.056632e+02	-2.472652e+01
2.068511e+02	-2.477440e+01
2.080459e+02	-2.482934e+01
2.092475e+02	-2.487643e+01
2.104561e+02	-2.492779e+01
2.116717e+02	-2.497811e+01
2.128943e+02	-2.502883e+01
2.141240e+02	-2.507741e+01
2.153608e+02	-2.512872e+01
2.166047e+02	-2.517523e+01
2.178558e+02	-2.522581e+01
2.191141e+02	-2.527900e+01
2.203797e+02	-2.532803e+01
2.216526e+02	-2.537908e+01
2.229329e+02	-2.542839e+01
2.242205e+02	-2.547550e+01
2.255156e+02	-2.552462e+01
2.268182e+02	-2.557814e+01
2.281283e+02	-2.562484e+01
2.294459e+02	-2.567545e+01
2.307712e+02	-2.572640e+01
2.321041e+02	-2.577775e+01
2.334447e+02	-2.582744e+01
2.347931e+02	-2.588004e+01
2.361493e+02	-2.592283e+01
2.375133e+02	-2.597948e+01
2.388851e+02	-2.602827e+01
2.402649e+02	-2.607668e+01
2.416527e+02	-2.612776e+01
2.430484e+02	-2.617742e+01
2.444523e+02	-2.622650e+01
2.458642e+02	-2.627571e+01
2.472843e+02	-2.632577e+01
2.487126e+02	-2.637759e+01
2.501492e+02	-2.642697e+01
2.515940e+02	-2.647570e+01
2.530472e+02	-2.652693e+01
2.545088e+02	-2.657687e+01
2.559789e+02	-2.662646e+01
2.574574e+02	-2.667733e+01
2.589444e+02	-2.672696e+01
2.604401e+02	-2.677438e+01
2.619444e+02	-2.682795e+01
2.634574e+02	-2.687596e+01
2.649791e+02	-2.692414e+01
2.665096e+02	-2.697590e+01
2.680489e+02	-2.702361e+01
2.695972e+02	-2.707502e+01
2.711544e+02	-2.712305e+01
2.727205e+02	-2.717852e+01
2.742958e+02	-2.722671e+01
2.758801e+02	-2.727148e+01
2.774736e+02	-2.732687e+01
2.790762e+02	-2.737633e+01
2.806882e+02	-2.742528e+01
2.823094e+02	-2.747300e+01
2.839400e+02	-2.752335e+01
2.855800e+02	-2.757460e+01
2.872295e+02	-2.762482e+01
2.888886e+02	-2.767477e+01
2.905572e+02	-2.772540e+01
2.922354e+02	-2.777440e+01
2.939234e+02	-2.782597e+01
2.956211e+02	-2.787651e+01
2.973286e+02	-2.792530e+01
2.990459e+02	-2.797334e+01
3.007732e+02	-2.802498e+01
3.025104e+02	-2.807577e+01
3.042577e+02	-2.812159e+01
3.060151e+02	-2.817745e+01
3.077826e+02	-2.822843e+01
3.095604e+02	-2.827539e+01
3.113484e+02	-2.832815e+01
3.131467e+02	-2.837742e+01
3.149554e+02	-2.842551e+01
3.167746e+02	-2.847839e+01
3.186043e+02	-2.852565e+01
3.204445e+02	-2.858082e+01
3.222954e+02	-2.862838e+01
3.241570e+02	-2.867612e+01
3.260293e+02	-2.872482e+01
3.279124e+02	-2.877729e+01
3.298064e+02	-2.882607e+01
3.317114e+02	-2.887417e+01
3.336273e+02	-2.892752e+01
3.355544e+02	-2.897147e+01
3.374925e+02	-2.902597e+01
3.394418e+02	-2.907341e+01
3.414024e+02	-2.912759e+01
3.433744e+02	-2.917423e+01
3.453577e+02	-2.922570e+01
3.473525e+02	-2.927617e+01
3.493588e+02	-2.932883e+01
3.513766e+02	-2.937508e+01
3.534062e+02	-2.942864e+01
3.554474e+02	-2.947934e+01
3.575005e+02	-2.952464e+01
3.595654e+02	-2.958036e+01
3.616422e+02	-2.962694e+01
3.637311e+02	-2.968085e+01
3.658320e+02	-2.972365e+01
3.679450e+02	-2.977722e+01
3.700702e+02	-2.982970e+01
3.722077e+02	-2.987792e+01
3.743576e+02	-2.992795e+01
3.765199e+02	-2.997993e+01
3.786946e+02	-3.002643e+01
3.808820e+02	-3.007703e+01
3.830819e+02	-3.013028e+01
3.852946e+02	-3.018449e+01
3.875200e+02	-3.022760e+01
3.897583e+02	-3.028111e+01
3.920096e+02	-3.032990e+01
3.942738e+02	-3.037997e+01
3.965511e+02	-3.043088e+01
3.988416e+02	-3.048182e+01
4.011452e+02	-3.052684e+01
4.034622e+02	-3.058056e+01
4.057926e+02	-3.062490e+01
4.081365e+02	-3.067671e+01
4.104938e+02	-3.073136e+01
4.128648e+02	-3.077751e+01
4.152495e+02	-3.083268e+01
4.176480e+02	-3.087731e+01
4.200603e+02	-3.093246e+01
4.224866e+02	-3.097871e+01
4.249268e+02	-3.103707e+01
4.273812e+02	-3.108527e+01
4.298497e+02	-3.113322e+01
4.323325e+02	-3.118492e+01
4.348297e+02	-3.123197e+01
4.373412e+02	-3.128299e+01
4.398673e+02	-3.133328e+01
4.424079e+02	-3.137914e+01
4.449633e+02	-3.143010e+01
4.475334e+02	-3.148723e+01
4.501183e+02	-3.153530e+01
4.527182e+02	-3.158006e+01
4.553330e+02	-3.163005e+01
4.579630e+02	-3.168895e+01
4.606082e+02	-3.173410e+01
4.632687e+02	-3.178326e+01
4.659445e+02	-3.183554e+01
4.686358e+02	-3.188728e+01
4.713426e+02	-3.192738e+01
4.740650e+02	-3.198439e+01
4.768032e+02	-3.203377e+01
4.795572e+02	-3.208318e+01
4.823271e+02	-3.213777e+01
4.851130e+02	-3.218867e+01
4.879150e+02	-3.222869e+01
4.907332e+02	-3.228538e+01
4.935676e+02	-3.233155e+01
4.964185e+02	-3.238614e+01
4.992858e+02	-3.243854e+01
5.021696e+02	-3.248839e+01
5.050701e+02	-3.253909e+01
5.079874e+02	-3.258367e+01
5.109215e+02	-3.263461e+01
5.138726e+02	-3.268323e+01
5.168407e+02	-3.274008e+01
5.198259e+02	-3.279488e+01
5.228284e+02	-3.284121e+01
5.258482e+02	-3.289305e+01
5.288855e+02	-3.293843e+01
5.319403e+02	-3.298430e+01
5.350128e+02	-3.303934e+01
5.381030e+02	-3.307567e+01
5.412111e+02	-3.314262e+01
5.443371e+02	-3.318404e+01
5.474812e+02	-3.323904e+01
5.506434e+02	-3.329410e+01
5.538239e+02	-3.334343e+01
5.570228e+02	-3.339489e+01
5.602401e+02	-3.344468e+01
5.634760e+02	-3.348768e+01
5.667306e+02	-3.353469e+01
5.700040e+02	-3.359331e+01
5.732964e+02	-3.363551e+01
5.766077e+02	-3.368464e+01
5.799382e+02	-3.374556e+01
5.832879e+02	-3.378887e+01
5.866569e+02	-3.384649e+01
5.900454e+02	-3.388825e+01
5.934535e+02	-3.393929e+01
5.968813e+02	-3.398852e+01
6.003288e+02	-3.404157e+01
6.037963e+02	-3.409118e+01
6.072838e+02	-3.415084e+01
6.107914e+02	-3.419667e+01
6.143194e+02	-3.424387e+01
6.178676e+02	-3.429836e+01
6.214364e+02	-3.434837e+01
6.250258e+02	-3.439725e+01
6.286359e+02	-3.445239e+01
6.322669e+02	-3.449259e+01
6.359189e+02	-3.455151e+01
6.395919e+02	-3.459577e+01
6.432862e+02	-3.465932e+01
6.470017e+02	-3.470510e+01
6.507388e+02	-3.475239e+01
6.544974e+02	-3.479176e+01
6.582778e+02	-3.484638e+01
6.620800e+02	-3.490791e+01
6.659041e+02	-3.495336e+01
6.697504e+02	-3.499974e+01
6.736188e+02	-3.504495e+01
6.775096e+02	-3.509705e+01
6.814229e+02	-3.515208e+01
6.853587e+02	-3.520225e+01
6.893173e+02	-3.525161e+01
6.932988e+02	-3.530606e+01
6.973033e+02	-3.535618e+01
7.013309e+02	-3.540805e+01
