Frequency(Hz)	Magnitude(dB)
1.000000e+01	-1.775257e-05
1.005776e+01	-1.795824e-05
1.011585e+01	-1.816629e-05
1.017428e+01	-1.837675e-05
1.023305e+01	-1.858965e-05
1.029215e+01	-1.880502e-05
1.035160e+01	-1.902288e-05
1.041139e+01	-1.924327e-05
1.047153e+01	-1.946620e-05
1.053201e+01	-1.969173e-05
1.059284e+01	-1.991986e-05
1.065403e+01	-2.015064e-05
1.071556e+01	-2.038409e-05
1.077746e+01	-2.062024e-05
1.083971e+01	-2.085913e-05
1.090232e+01	-2.110079e-05
1.096529e+01	-2.134525e-05
1.102862e+01	-2.159254e-05
1.109232e+01	-2.184269e-05
1.115639e+01	-2.209575e-05
1.122083e+01	-2.235173e-05
1.128564e+01	-2.261068e-05
1.135083e+01	-2.287263e-05
1.141639e+01	-2.313762e-05
1.148233e+01	-2.340567e-05
1.154865e+01	-2.367683e-05
1.161536e+01	-2.395113e-05
1.168245e+01	-2.422861e-05
1.174992e+01	-2.450931e-05
1.181779e+01	-2.479325e-05
1.188605e+01	-2.508049e-05
1.195470e+01	-2.537105e-05
1.202375e+01	-2.566498e-05
1.209320e+01	-2.596232e-05
1.216305e+01	-2.626310e-05
1.223330e+01	-2.656736e-05
1.230396e+01	-2.687515e-05
1.237503e+01	-2.718651e-05
1.244651e+01	-2.750147e-05
1.251840e+01	-2.782008e-05
1.259070e+01	-2.814238e-05
1.266343e+01	-2.846842e-05
1.273657e+01	-2.879823e-05
1.281014e+01	-2.913187e-05
1.288413e+01	-2.946937e-05
1.295855e+01	-2.981078e-05
1.303339e+01	-3.015614e-05
1.310867e+01	-3.050551e-05
1.318439e+01	-3.085892e-05
1.326054e+01	-3.121643e-05
1.333713e+01	-3.157808e-05
1.341417e+01	-3.194392e-05
1.349165e+01	-3.231400e-05
1.356958e+01	-3.268836e-05
1.364795e+01	-3.306707e-05
1.372678e+01	-3.345015e-05
1.380607e+01	-3.383768e-05
1.388581e+01	-3.422970e-05
1.396602e+01	-3.462626e-05
1.404668e+01	-3.502741e-05
1.412782e+01	-3.543321e-05
1.420942e+01	-3.584372e-05
1.429149e+01	-3.625897e-05
1.437404e+01	-3.667904e-05
1.445706e+01	-3.710398e-05
1.454057e+01	-3.753384e-05
1.462455e+01	-3.796867e-05
1.470902e+01	-3.840855e-05
1.479398e+01	-3.885352e-05
1.487943e+01	-3.930365e-05
1.496537e+01	-3.975899e-05
1.505181e+01	-4.021961e-05
1.513875e+01	-4.068556e-05
1.522619e+01	-4.115691e-05
1.531414e+01	-4.163372e-05
1.540259e+01	-4.211606e-05
1.549156e+01	-4.260398e-05
1.558103e+01	-4.309756e-05
1.567103e+01	-4.359685e-05
1.576155e+01	-4.410193e-05
1.585258e+01	-4.461286e-05
1.594415e+01	-4.512971e-05
1.603624e+01	-4.565255e-05
1.612886e+01	-4.618145e-05
1.622202e+01	-4.671647e-05
1.631572e+01	-4.725769e-05
1.640996e+01	-4.780518e-05
1.650474e+01	-4.835901e-05
1.660008e+01	-4.891926e-05
1.669596e+01	-4.948600e-05
1.679239e+01	-5.005931e-05
1.688938e+01	-5.063926e-05
1.698694e+01	-5.122592e-05
1.708505e+01	-5.181939e-05
1.718373e+01	-5.241972e-05
1.728299e+01	-5.302702e-05
1.738281e+01	-5.364135e-05
1.748322e+01	-5.426279e-05
1.758420e+01	-5.489144e-05
1.768576e+01	-5.552737e-05
1.778792e+01	-5.617066e-05
1.789066e+01	-5.682141e-05
1.799399e+01	-5.747970e-05
1.809793e+01	-5.814561e-05
1.820246e+01	-5.881924e-05
1.830760e+01	-5.950067e-05
1.841334e+01	-6.019000e-05
1.851969e+01	-6.088731e-05
1.862666e+01	-6.159271e-05
1.873425e+01	-6.230627e-05
1.884246e+01	-6.302810e-05
1.895129e+01	-6.375829e-05
1.906075e+01	-6.449694e-05
1.917085e+01	-6.524415e-05
1.928158e+01	-6.600002e-05
1.939295e+01	-6.676464e-05
1.950496e+01	-6.753812e-05
1.961762e+01	-6.832057e-05
1.973093e+01	-6.911207e-05
1.984490e+01	-6.991275e-05
1.995952e+01	-7.072270e-05
2.007480e+01	-7.154204e-05
2.019076e+01	-7.237086e-05
2.030738e+01	-7.320929e-05
2.042467e+01	-7.405744e-05
2.054264e+01	-7.491541e-05
2.066130e+01	-7.578331e-05
2.078064e+01	-7.666128e-05
2.090066e+01	-7.754941e-05
2.102139e+01	-7.844784e-05
2.114280e+01	-7.935667e-05
2.126492e+01	-8.027603e-05
2.138775e+01	-8.120604e-05
2.151128e+01	-8.214682e-05
2.163553e+01	-8.309851e-05
2.176050e+01	-8.406122e-05
2.188619e+01	-8.503508e-05
2.201260e+01	-8.602023e-05
2.213974e+01	-8.701679e-05
2.226762e+01	-8.802489e-05
2.239624e+01	-8.904467e-05
2.252560e+01	-9.007627e-05
2.265571e+01	-9.111982e-05
2.278656e+01	-9.217546e-05
2.291818e+01	-9.324332e-05
2.305055e+01	-9.432356e-05
2.318369e+01	-9.541631e-05
2.331760e+01	-9.652173e-05
2.345228e+01	-9.763994e-05
2.358774e+01	-9.877112e-05
2.372398e+01	-9.991539e-05
2.386101e+01	-1.010729e-04
2.399883e+01	-1.022439e-04
2.413745e+01	-1.034284e-04
2.427686e+01	-1.046266e-04
2.441709e+01	-1.058387e-04
2.455812e+01	-1.070649e-04
2.469997e+01	-1.083052e-04
2.484263e+01	-1.095600e-04
2.498612e+01	-1.108292e-04
2.513044e+01	-1.121132e-04
2.527559e+01	-1.134121e-04
2.542158e+01	-1.147260e-04
2.556842e+01	-1.160551e-04
2.571610e+01	-1.173996e-04
2.586463e+01	-1.187597e-04
2.601403e+01	-1.201355e-04
2.616428e+01	-1.215273e-04
2.631541e+01	-1.229352e-04
2.646740e+01	-1.243594e-04
2.662028e+01	-1.258001e-04
2.677404e+01	-1.272576e-04
2.692868e+01	-1.287318e-04
2.708422e+01	-1.302232e-04
2.724066e+01	-1.317319e-04
2.739800e+01	-1.332580e-04
2.755625e+01	-1.348018e-04
2.771541e+01	-1.363635e-04
2.787550e+01	-1.379433e-04
2.803650e+01	-1.395414e-04
2.819844e+01	-1.411580e-04
2.836131e+01	-1.427933e-04
2.852513e+01	-1.444476e-04
2.868989e+01	-1.461210e-04
2.885560e+01	-1.478138e-04
2.902227e+01	-1.495263e-04
2.918990e+01	-1.512585e-04
2.935850e+01	-1.530109e-04
2.952807e+01	-1.547835e-04
2.969863e+01	-1.565767e-04
2.987016e+01	-1.583906e-04
3.004269e+01	-1.602256e-04
3.021622e+01	-1.620818e-04
3.039075e+01	-1.639596e-04
3.056628e+01	-1.658590e-04
3.074283e+01	-1.677805e-04
3.092040e+01	-1.697243e-04
3.109900e+01	-1.716905e-04
3.127862e+01	-1.736796e-04
3.145929e+01	-1.756917e-04
3.164099e+01	-1.777271e-04
3.182375e+01	-1.797860e-04
3.200756e+01	-1.818689e-04
3.219244e+01	-1.839758e-04
3.237838e+01	-1.861072e-04
3.256540e+01	-1.882632e-04
3.275349e+01	-1.904443e-04
3.294268e+01	-1.926506e-04
3.313295e+01	-1.948824e-04
3.332433e+01	-1.971402e-04
3.351681e+01	-1.994240e-04
3.371040e+01	-2.017344e-04
3.390511e+01	-2.040715e-04
3.410094e+01	-2.064356e-04
3.429791e+01	-2.088272e-04
3.449601e+01	-2.112464e-04
3.469526e+01	-2.136937e-04
3.489566e+01	-2.161694e-04
3.509721e+01	-2.186737e-04
3.529993e+01	-2.212070e-04
3.550382e+01	-2.237697e-04
3.570889e+01	-2.263621e-04
3.591515e+01	-2.289845e-04
3.612259e+01	-2.316372e-04
3.633123e+01	-2.343207e-04
3.654108e+01	-2.370353e-04
3.675214e+01	-2.397814e-04
3.696442e+01	-2.425592e-04
3.717792e+01	-2.453693e-04
3.739266e+01	-2.482119e-04
3.760864e+01	-2.510874e-04
3.782587e+01	-2.539962e-04
3.804435e+01	-2.569388e-04
3.826409e+01	-2.599154e-04
3.848510e+01	-2.629265e-04
3.870739e+01	-2.659725e-04
3.893096e+01	-2.690537e-04
3.915583e+01	-2.721707e-04
3.938199e+01	-2.753238e-04
3.960946e+01	-2.785134e-04
3.983824e+01	-2.817399e-04
4.006834e+01	-2.850038e-04
4.029978e+01	-2.883056e-04
4.053255e+01	-2.916456e-04
4.076666e+01	-2.950243e-04
4.100213e+01	-2.984421e-04
4.123896e+01	-3.018995e-04
4.147715e+01	-3.053970e-04
4.171672e+01	-3.089349e-04
4.195767e+01	-3.125139e-04
4.220002e+01	-3.161343e-04
4.244377e+01	-3.197967e-04
4.268892e+01	-3.235015e-04
4.293549e+01	-3.272492e-04
4.318348e+01	-3.310403e-04
4.343291e+01	-3.348754e-04
4.368377e+01	-3.387549e-04
4.393609e+01	-3.426793e-04
4.418986e+01	-3.466491e-04
4.444510e+01	-3.506650e-04
4.470182e+01	-3.547274e-04
4.496001e+01	-3.588368e-04
4.521970e+01	-3.629939e-04
4.548089e+01	-3.671991e-04
4.574358e+01	-3.714530e-04
4.600779e+01	-3.757562e-04
4.627353e+01	-3.801093e-04
4.654081e+01	-3.845128e-04
4.680963e+01	-3.889672e-04
4.708000e+01	-3.934733e-04
4.735193e+01	-3.980316e-04
4.762543e+01	-4.026427e-04
4.790051e+01	-4.073072e-04
4.817719e+01	-4.120258e-04
4.845545e+01	-4.167990e-04
4.873533e+01	-4.216275e-04
4.901682e+01	-4.265119e-04
4.929994e+01	-4.314529e-04
4.958470e+01	-4.364512e-04
4.987110e+01	-4.415073e-04
5.015915e+01	-4.466220e-04
5.044887e+01	-4.517960e-04
5.074026e+01	-4.570299e-04
5.103333e+01	-4.623244e-04
5.132810e+01	-4.676803e-04
5.162457e+01	-4.730982e-04
5.192275e+01	-4.785789e-04
5.222265e+01	-4.841231e-04
5.252429e+01	-4.897314e-04
5.282767e+01	-4.954048e-04
5.313280e+01	-5.011439e-04
5.343969e+01	-5.069494e-04
5.374836e+01	-5.128222e-04
5.405880e+01	-5.187630e-04
5.437105e+01	-5.247727e-04
5.468509e+01	-5.308520e-04
5.500095e+01	-5.370016e-04
5.531863e+01	-5.432226e-04
5.563815e+01	-5.495156e-04
5.595951e+01	-5.558814e-04
5.628273e+01	-5.623211e-04
5.660782e+01	-5.688353e-04
5.693479e+01	-5.754250e-04
5.726364e+01	-5.820910e-04
5.759439e+01	-5.888342e-04
5.792705e+01	-5.956555e-04
5.826164e+01	-6.025559e-04
5.859815e+01	-6.095362e-04
5.893662e+01	-6.165973e-04
5.927703e+01	-6.237403e-04
5.961941e+01	-6.309659e-04
5.996377e+01	-6.382753e-04
6.031012e+01	-6.456694e-04
6.065847e+01	-6.531490e-04
6.100883e+01	-6.607154e-04
6.136121e+01	-6.683694e-04
6.171563e+01	-6.761120e-04
6.207210e+01	-6.839443e-04
6.243063e+01	-6.918674e-04
6.279122e+01	-6.998822e-04
6.315390e+01	-7.079899e-04
6.351868e+01	-7.161915e-04
6.388556e+01	-7.244880e-04
6.425456e+01	-7.328807e-04
6.462569e+01	-7.413706e-04
6.499897e+01	-7.499589e-04
6.537440e+01	-7.586466e-04
6.575200e+01	-7.674349e-04
6.613178e+01	-7.763251e-04
6.651375e+01	-7.853182e-04
6.689793e+01	-7.944155e-04
6.728433e+01	-8.036182e-04
6.767297e+01	-8.129274e-04
6.806384e+01	-8.223445e-04
6.845698e+01	-8.318707e-04
6.885238e+01	-8.415072e-04
6.925007e+01	-8.512554e-04
6.965005e+01	-8.611164e-04
7.005235e+01	-8.710917e-04
7.045697e+01	-8.811825e-04
7.086393e+01	-8.913902e-04
7.127323e+01	-9.017161e-04
7.168490e+01	-9.121617e-04
7.209895e+01	-9.227282e-04
7.251539e+01	-9.334171e-04
7.293424e+01	-9.442298e-04
7.335551e+01	-9.551678e-04
7.377920e+01	-9.662324e-04
7.420535e+01	-9.774252e-04
7.463396e+01	-9.887477e-04
7.506504e+01	-1.000201e-03
7.549861e+01	-1.011788e-03
7.593469e+01	-1.023508e-03
7.637328e+01	-1.035364e-03
7.681441e+01	-1.047358e-03
7.725809e+01	-1.059490e-03
7.770433e+01	-1.071763e-03
7.815315e+01	-1.084178e-03
7.860456e+01	-1.096737e-03
7.905857e+01	-1.109442e-03
7.951521e+01	-1.122293e-03
7.997449e+01	-1.135293e-03
8.043642e+01	-1.148444e-03
8.090102e+01	-1.161748e-03
8.136830e+01	-1.175205e-03
8.183828e+01	-1.188818e-03
8.231097e+01	-1.202589e-03
8.278640e+01	-1.216519e-03
8.326457e+01	-1.230611e-03
8.374550e+01	-1.244866e-03
8.422921e+01	-1.259286e-03
8.471572e+01	-1.273873e-03
8.520503e+01	-1.288629e-03
8.569717e+01	-1.303556e-03
8.619215e+01	-1.318656e-03
8.669000e+01	-1.333930e-03
8.719071e+01	-1.349382e-03
8.769432e+01	-1.365012e-03
8.820084e+01	-1.380824e-03
8.871029e+01	-1.396819e-03
8.922267e+01	-1.412998e-03
8.973802e+01	-1.429366e-03
9.025634e+01	-1.445923e-03
9.077766e+01	-1.462671e-03
9.130199e+01	-1.479614e-03
9.182935e+01	-1.496752e-03
9.235975e+01	-1.514090e-03
9.289321e+01	-1.531628e-03
9.342976e+01	-1.549369e-03
9.396941e+01	-1.567315e-03
9.451217e+01	-1.585470e-03
9.505807e+01	-1.603835e-03
9.560712e+01	-1.622412e-03
9.615934e+01	-1.641205e-03
9.671476e+01	-1.660215e-03
9.727338e+01	-1.679445e-03
9.783522e+01	-1.698898e-03
9.840032e+01	-1.718576e-03
9.896867e+01	-1.738483e-03
9.954031e+01	-1.758619e-03
1.001153e+02	-1.778989e-03
1.006935e+02	-1.799595e-03
1.012751e+02	-1.820439e-03
1.018601e+02	-1.841525e-03
1.024484e+02	-1.862855e-03
1.030402e+02	-1.884432e-03
1.036353e+02	-1.906259e-03
1.042339e+02	-1.928339e-03
1.048360e+02	-1.950674e-03
1.054415e+02	-1.973268e-03
1.060505e+02	-1.996123e-03
1.066631e+02	-2.019244e-03
1.072791e+02	-2.042632e-03
1.078988e+02	-2.066290e-03
1.085220e+02	-2.090223e-03
1.091488e+02	-2.114433e-03
1.097793e+02	-2.138923e-03
1.104133e+02	-2.163697e-03
1.110511e+02	-2.188758e-03
1.116925e+02	-2.214109e-03
1.123376e+02	-2.239753e-03
1.129865e+02	-2.265695e-03
1.136391e+02	-2.291936e-03
1.142955e+02	-2.318482e-03
1.149556e+02	-2.345335e-03
1.156196e+02	-2.372499e-03
1.162874e+02	-2.399977e-03
1.169591e+02	-2.427774e-03
1.176347e+02	-2.455892e-03
1.183141e+02	-2.484336e-03
1.189975e+02	-2.513110e-03
1.196848e+02	-2.542216e-03
1.203761e+02	-2.571660e-03
1.210714e+02	-2.601444e-03
1.217707e+02	-2.631573e-03
1.224740e+02	-2.662051e-03
1.231814e+02	-2.692882e-03
1.238929e+02	-2.724070e-03
1.246085e+02	-2.755619e-03
1.253283e+02	-2.787534e-03
1.260522e+02	-2.819818e-03
1.267802e+02	-2.852475e-03
1.275125e+02	-2.885511e-03
1.282490e+02	-2.918929e-03
1.289898e+02	-2.952734e-03
1.297348e+02	-2.986930e-03
1.304842e+02	-3.021523e-03
1.312378e+02	-3.056516e-03
1.319959e+02	-3.091914e-03
1.327583e+02	-3.127721e-03
1.335251e+02	-3.163944e-03
1.342963e+02	-3.200585e-03
1.350720e+02	-3.237651e-03
1.358522e+02	-3.275146e-03
1.366368e+02	-3.313075e-03
1.374260e+02	-3.351443e-03
1.382198e+02	-3.390255e-03
1.390182e+02	-3.429516e-03
1.398211e+02	-3.469232e-03
1.406287e+02	-3.509408e-03
1.414410e+02	-3.550049e-03
1.422579e+02	-3.591160e-03
1.430796e+02	-3.632747e-03
1.439060e+02	-3.674816e-03
1.447372e+02	-3.717371e-03
1.455732e+02	-3.760419e-03
1.464141e+02	-3.803965e-03
1.472597e+02	-3.848016e-03
1.481103e+02	-3.892576e-03
1.489658e+02	-3.937652e-03
1.498262e+02	-3.983250e-03
1.506916e+02	-4.029375e-03
1.515620e+02	-4.076035e-03
1.524374e+02	-4.123234e-03
1.533179e+02	-4.170980e-03
1.542034e+02	-4.219278e-03
1.550941e+02	-4.268136e-03
1.559899e+02	-4.317559e-03
1.568909e+02	-4.367553e-03
1.577971e+02	-4.418127e-03
1.587085e+02	-4.469286e-03
1.596252e+02	-4.521037e-03
1.605472e+02	-4.573386e-03
1.614745e+02	-4.626342e-03
1.624072e+02	-4.679910e-03
1.633453e+02	-4.734099e-03
1.642887e+02	-4.788914e-03
1.652377e+02	-4.844364e-03
1.661921e+02	-4.900455e-03
1.671520e+02	-4.957196e-03
1.681175e+02	-5.014593e-03
1.690885e+02	-5.072655e-03
1.700651e+02	-5.131388e-03
1.710474e+02	-5.190801e-03
1.720354e+02	-5.250901e-03
1.730291e+02	-5.311697e-03
1.740285e+02	-5.373196e-03
1.750337e+02	-5.435407e-03
1.760446e+02	-5.498337e-03
1.770615e+02	-5.561996e-03
1.780842e+02	-5.626392e-03
1.791128e+02	-5.691532e-03
1.801473e+02	-5.757426e-03
1.811878e+02	-5.824083e-03
1.822344e+02	-5.891510e-03
1.832870e+02	-5.959718e-03
1.843456e+02	-6.028715e-03
1.854104e+02	-6.098510e-03
1.864813e+02	-6.169112e-03
1.875584e+02	-6.240532e-03
1.886418e+02	-6.312777e-03
1.897313e+02	-6.385858e-03
1.908272e+02	-6.459785e-03
1.919294e+02	-6.534567e-03
1.930380e+02	-6.610214e-03
1.941530e+02	-6.686736e-03
1.952744e+02	-6.764143e-03
1.964023e+02	-6.842445e-03
1.975367e+02	-6.921653e-03
1.986777e+02	-7.001778e-03
1.998252e+02	-7.082829e-03
2.009794e+02	-7.164817e-03
2.021403e+02	-7.247754e-03
2.033078e+02	-7.331650e-03
2.044821e+02	-7.416516e-03
2.056632e+02	-7.502364e-03
2.068511e+02	-7.589205e-03
2.080459e+02	-7.677050e-03
2.092475e+02	-7.765911e-03
2.104561e+02	-7.855799e-03
2.116717e+02	-7.946727e-03
2.128943e+02	-8.038707e-03
2.141240e+02	-8.131750e-03
2.153608e+02	-8.225869e-03
2.166047e+02	-8.321076e-03
2.178558e+02	-8.417384e-03
2.191141e+02	-8.514806e-03
2.203797e+02	-8.613354e-03
2.216526e+02	-8.713041e-03
2.229329e+02	-8.813881e-03
2.242205e+02	-8.915887e-03
2.255156e+02	-9.019073e-03
2.268182e+02	-9.123451e-03
2.281283e+02	-9.229036e-03
2.294459e+02	-9.335841e-03
2.307712e+02	-9.443881e-03
2.321041e+02	-9.553170e-03
2.334447e+02	-9.663723e-03
2.347931e+02	-9.775553e-03
2.361493e+02	-9.888676e-03
2.375133e+02	-1.000311e-02
2.388851e+02	-1.011886e-02
2.402649e+02	-1.023595e-02
2.416527e+02	-1.035440e-02
2.430484e+02	-1.047421e-02
2.444523e+02	-1.059541e-02
2.458642e+02	-1.071800e-02
2.472843e+02	-1.084202e-02
2.487126e+02	-1.096747e-02
2.501492e+02	-1.109437e-02
2.515940e+02	-1.122273e-02
2.530472e+02	-1.135258e-02
2.545088e+02	-1.148393e-02
2.559789e+02	-1.161679e-02
2.574574e+02	-1.175119e-02
2.589444e+02	-1.188715e-02
2.604401e+02	-1.202467e-02
2.619444e+02	-1.216379e-02
2.634574e+02	-1.230451e-02
2.649791e+02	-1.244685e-02
2.665096e+02	-1.259084e-02
2.680489e+02	-1.273650e-02
2.695972e+02	-1.288383e-02
2.711544e+02	-1.303287e-02
2.727205e+02	-1.318363e-02
2.742958e+02	-1.333613e-02
2.758801e+02	-1.349039e-02
2.774736e+02	-1.364643e-02
2.790762e+02	-1.380428e-02
2.806882e+02	-1.396395e-02
2.823094e+02	-1.412546e-02
2.839400e+02	-1.428884e-02
2.855800e+02	-1.445410e-02
2.872295e+02	-1.462127e-02
2.888886e+02	-1.479037e-02
2.905572e+02	-1.496143e-02
2.922354e+02	-1.513446e-02
2.939234e+02	-1.530948e-02
2.956211e+02	-1.548653e-02
2.973286e+02	-1.566562e-02
2.990459e+02	-1.584678e-02
3.007732e+02	-1.603003e-02
3.025104e+02	-1.621539e-02
3.042577e+02	-1.640290e-02
3.060151e+02	-1.659256e-02
3.077826e+02	-1.678442e-02
3.095604e+02	-1.697849e-02
3.113484e+02	-1.717480e-02
3.131467e+02	-1.737338e-02
3.149554e+02	-1.757424e-02
3.167746e+02	-1.777743e-02
3.186043e+02	-1.798295e-02
3.204445e+02	-1.819085e-02
3.222954e+02	-1.840115e-02
3.241570e+02	-1.861387e-02
3.260293e+02	-1.882905e-02
3.279124e+02	-1.904671e-02
3.298064e+02	-1.926688e-02
3.317114e+02	-1.948959e-02
3.336273e+02	-1.971487e-02
3.355544e+02	-1.994275e-02
3.374925e+02	-2.017325e-02
3.394418e+02	-2.040641e-02
3.414024e+02	-2.064226e-02
3.433744e+02	-2.088083e-02
3.453577e+02	-2.112215e-02
3.473525e+02	-2.136625e-02
3.493588e+02	-2.161317e-02
3.513766e+02	-2.186293e-02
3.534062e+02	-2.211557e-02
3.554474e+02	-2.237112e-02
3.575005e+02	-2.262962e-02
3.595654e+02	-2.289110e-02
3.616422e+02	-2.315559e-02
3.637311e+02	-2.342312e-02
3.658320e+02	-2.369374e-02
3.679450e+02	-2.396748e-02
3.700702e+02	-2.424438e-02
3.722077e+02	-2.452446e-02
3.743576e+02	-2.480777e-02
3.765199e+02	-2.509434e-02
3.786946e+02	-2.538421e-02
3.808820e+02	-2.567742e-02
3.830819e+02	-2.597401e-02
3.852946e+02	-2.627401e-02
3.875200e+02	-2.657747e-02
3.897583e+02	-2.688442e-02
3.920096e+02	-2.719490e-02
3.942738e+02	-2.750896e-02
3.965511e+02	-2.782664e-02
3.988416e+02	-2.814797e-02
4.011452e+02	-2.847300e-02
4.034622e+02	-2.880177e-02
4.057926e+02	-2.913432e-02
4.081365e+02	-2.947070e-02
4.104938e+02	-2.981095e-02
4.128648e+02	-3.015512e-02
4.152495e+02	-3.050324e-02
4.176480e+02	-3.085537e-02
4.200603e+02	-3.121155e-02
4.224866e+02	-3.157183e-02
4.249268e+02	-3.193625e-02
4.273812e+02	-3.230486e-02
4.298497e+02	-3.267770e-02
4.323325e+02	-3.305484e-02
4.348297e+02	-3.343631e-02
4.373412e+02	-3.382217e-02
4.398673e+02	-3.421246e-02
4.424079e+02	-3.460724e-02
4.449633e+02	-3.500655e-02
4.475334e+02	-3.541045e-02
4.501183e+02	-3.581900e-02
4.527182e+02	-3.623223e-02
4.553330e+02	-3.665022e-02
4.579630e+02	-3.707300e-02
4.606082e+02	-3.750064e-02
4.632687e+02	-3.793320e-02
4.659445e+02	-3.837072e-02
4.686358e+02	-3.881326e-02
4.713426e+02	-3.926089e-02
4.740650e+02	-3.971365e-02
4.768032e+02	-4.017161e-02
4.795572e+02	-4.063483e-02
4.823271e+02	-4.110336e-02
4.851130e+02	-4.157727e-02
4.879150e+02	-4.205662e-02
4.907332e+02	-4.254146e-02
4.935676e+02	-4.303187e-02
4.964185e+02	-4.352790e-02
4.992858e+02	-4.402962e-02
5.021696e+02	-4.453710e-02
5.050701e+02	-4.505039e-02
5.079874e+02	-4.556957e-02
5.109215e+02	-4.609470e-02
5.138726e+02	-4.662584e-02
5.168407e+02	-4.716308e-02
5.198259e+02	-4.770647e-02
5.228284e+02	-4.825609e-02
5.258482e+02	-4.881200e-02
5.288855e+02	-4.937428e-02
5.319403e+02	-4.994300e-02
5.350128e+02	-5.051823e-02
5.381030e+02	-5.110005e-02
5.412111e+02	-5.168853e-02
5.443371e+02	-5.228375e-02
5.474812e+02	-5.288577e-02
5.506434e+02	-5.349469e-02
5.538239e+02	-5.411058e-02
5.570228e+02	-5.473351e-02
5.602401e+02	-5.536356e-02
5.634760e+02	-5.600082e-02
5.667306e+02	-5.664537e-02
5.700040e+02	-5.729729e-02
5.732964e+02	-5.795666e-02
5.766077e+02	-5.862357e-02
5.799382e+02	-5.929810e-02
5.832879e+02	-5.998033e-02
5.866569e+02	-6.067036e-02
5.900454e+02	-6.136828e-02
5.934535e+02	-6.207416e-02
5.968813e+02	-6.278811e-02
6.003288e+02	-6.351020e-02
6.037963e+02	-6.424054e-02
6.072838e+02	-6.497921e-02
6.107914e+02	-6.572631e-02
6.143194e+02	-6.648194e-02
6.178676e+02	-6.724619e-02
6.214364e+02	-6.801915e-02
6.250258e+02	-6.880093e-02
6.286359e+02	-6.959162e-02
6.322669e+02	-7.039132e-02
6.359189e+02	-7.120014e-02
6.395919e+02	-7.201817e-02
6.432862e+02	-7.284552e-02
6.470017e+02	-7.368230e-02
6.507388e+02	-7.452861e-02
6.544974e+02	-7.538455e-02
6.582778e+02	-7.625024e-02
6.620800e+02	-7.712578e-02
6.659041e+02	-7.801128e-02
6.697504e+02	-7.890685e-02
6.736188e+02	-7.981262e-02
6.775096e+02	-8.072868e-02
6.814229e+02	-8.165516e-02
6.853587e+02	-8.259216e-02
6.893173e+02	-8.353982e-02
6.932988e+02	-8.449825e-02
6.973033e+02	-8.546756e-02
7.013309e+02	-8.644788e-02
