Frequency(Hz)	Magnitude(dB)
1.000000e+01	-2.104083e+00
1.005776e+01	-2.123270e+00
1.011585e+01	-2.142686e+00
1.017428e+01	-2.162308e+00
1.023305e+01	-2.181879e+00
1.029215e+01	-2.202015e+00
1.035160e+01	-2.221936e+00
1.041139e+01	-2.241926e+00
1.047153e+01	-2.261919e+00
1.053201e+01	-2.282535e+00
1.059284e+01	-2.303067e+00
1.065403e+01	-2.323709e+00
1.071556e+01	-2.344526e+00
1.077746e+01	-2.365571e+00
1.083971e+01	-2.386492e+00
1.090232e+01	-2.407867e+00
1.096529e+01	-2.429115e+00
1.102862e+01	-2.450522e+00
1.109232e+01	-2.472406e+00
1.115639e+01	-2.494025e+00
1.122083e+01	-2.515884e+00
1.128564e+01	-2.538156e+00
1.135083e+01	-2.560189e+00
1.141639e+01	-2.582663e+00
1.148233e+01	-2.605065e+00
1.154865e+01	-2.627877e+00
1.161536e+01	-2.650362e+00
1.168245e+01	-2.673262e+00
1.174992e+01	-2.696327e+00
1.181779e+01	-2.719730e+00
1.188605e+01	-2.743108e+00
1.195470e+01	-2.766689e+00
1.202375e+01	-2.790282e+00
1.209320e+01	-2.813787e+00
1.216305e+01	-2.838134e+00
1.223330e+01	-2.862129e+00
1.230396e+01	-2.885922e+00
1.237503e+01	-2.910530e+00
1.244651e+01	-2.934861e+00
1.251840e+01	-2.959868e+00
1.259070e+01	-2.984712e+00
1.266343e+01	-3.009615e+00
1.273657e+01	-3.034399e+00
1.281014e+01	-3.059807e+00
1.288413e+01	-3.085067e+00
1.295855e+01	-3.110424e+00
1.303339e+01	-3.136246e+00
1.310867e+01	-3.161804e+00
1.318439e+01	-3.188171e+00
1.326054e+01	-3.214283e+00
1.333713e+01	-3.240126e+00
1.341417e+01	-3.266659e+00
1.349165e+01	-3.293323e+00
1.356958e+01	-3.319988e+00
1.364795e+01	-3.346523e+00
1.372678e+01	-3.373529e+00
1.380607e+01	-3.400895e+00
1.388581e+01	-3.427847e+00
1.396602e+01	-3.455435e+00
1.404668e+01	-3.482781e+00
1.412782e+01	-3.510614e+00
1.420942e+01	-3.538267e+00
1.429149e+01	-3.566234e+00
1.437404e+01	-3.594129e+00
1.445706e+01	-3.622725e+00
1.454057e+01	-3.651072e+00
1.462455e+01	-3.679373e+00
1.470902e+01	-3.708161e+00
1.479398e+01	-3.737077e+00
1.487943e+01	-3.765964e+00
1.496537e+01	-3.795127e+00
1.505181e+01	-3.824265e+00
1.513875e+01	-3.853307e+00
1.522619e+01	-3.882700e+00
1.531414e+01	-3.912577e+00
1.540259e+01	-3.942481e+00
1.549156e+01	-3.972361e+00
1.558103e+01	-4.002229e+00
1.567103e+01	-4.032537e+00
1.576155e+01	-4.062943e+00
1.585258e+01	-4.093426e+00
1.594415e+01	-4.124016e+00
1.603624e+01	-4.154697e+00
1.612886e+01	-4.185844e+00
1.622202e+01	-4.216675e+00
1.631572e+01	-4.247876e+00
1.640996e+01	-4.279117e+00
1.650474e+01	-4.310377e+00
1.660008e+01	-4.341746e+00
1.669596e+01	-4.373759e+00
1.679239e+01	-4.405357e+00
1.688938e+01	-4.437388e+00
1.698694e+01	-4.469510e+00
1.708505e+01	-4.501590e+00
1.718373e+01	-4.534203e+00
1.728299e+01	-4.566456e+00
1.738281e+01	-4.599471e+00
1.748322e+01	-4.632104e+00
1.758420e+01	-4.664693e+00
1.768576e+01	-4.697654e+00
1.778792e+01	-4.731116e+00
1.789066e+01	-4.764128e+00
1.799399e+01	-4.797674e+00
1.809793e+01	-4.830973e+00
1.820246e+01	-4.864851e+00
1.830760e+01	-4.898346e+00
1.841334e+01	-4.932430e+00
1.851969e+01	-4.966556e+00
1.862666e+01	-5.000473e+00
1.873425e+01	-5.035121e+00
1.884246e+01	-5.069413e+00
1.895129e+01	-5.103894e+00
1.906075e+01	-5.138645e+00
1.917085e+01	-5.173173e+00
1.928158e+01	-5.208052e+00
1.939295e+01	-5.243005e+00
1.950496e+01	-5.278210e+00
1.961762e+01	-5.313232e+00
1.973093e+01	-5.348590e+00
1.984490e+01	-5.384174e+00
1.995952e+01	-5.420065e+00
2.007480e+01	-5.455635e+00
2.019076e+01	-5.491435e+00
2.030738e+01	-5.527380e+00
2.042467e+01	-5.563564e+00
2.054264e+01	-5.599824e+00
2.066130e+01	-5.636096e+00
2.078064e+01	-5.672468e+00
2.090066e+01	-5.708934e+00
2.102139e+01	-5.745687e+00
2.114280e+01	-5.782427e+00
2.126492e+01	-5.819235e+00
2.138775e+01	-5.856133e+00
2.151128e+01	-5.893296e+00
2.163553e+01	-5.930650e+00
2.176050e+01	-5.967878e+00
2.188619e+01	-6.005404e+00
2.201260e+01	-6.042599e+00
2.213974e+01	-6.080602e+00
2.226762e+01	-6.117910e+00
2.239624e+01	-6.155878e+00
2.252560e+01	-6.193877e+00
2.265571e+01	-6.231892e+00
2.278656e+01	-6.270128e+00
2.291818e+01	-6.308205e+00
2.305055e+01	-6.346883e+00
2.318369e+01	-6.385425e+00
2.331760e+01	-6.423707e+00
2.345228e+01	-6.462624e+00
2.358774e+01	-6.501445e+00
2.372398e+01	-6.540095e+00
2.386101e+01	-6.579235e+00
2.399883e+01	-6.618241e+00
2.413745e+01	-6.657526e+00
2.427686e+01	-6.696779e+00
2.441709e+01	-6.736302e+00
2.455812e+01	-6.775652e+00
2.469997e+01	-6.815276e+00
2.484263e+01	-6.855026e+00
2.498612e+01	-6.894597e+00
2.513044e+01	-6.934644e+00
2.527559e+01	-6.974206e+00
2.542158e+01	-7.014047e+00
2.556842e+01	-7.054199e+00
2.571610e+01	-7.094791e+00
2.586463e+01	-7.135054e+00
2.601403e+01	-7.175176e+00
2.616428e+01	-7.215800e+00
2.631541e+01	-7.256512e+00
2.646740e+01	-7.297117e+00
2.662028e+01	-7.338179e+00
2.677404e+01	-7.378672e+00
2.692868e+01	-7.419439e+00
2.708422e+01	-7.460693e+00
2.724066e+01	-7.501391e+00
2.739800e+01	-7.542645e+00
2.755625e+01	-7.584142e+00
2.771541e+01	-7.625758e+00
2.787550e+01	-7.666659e+00
2.803650e+01	-7.708340e+00
2.819844e+01	-7.749854e+00
2.836131e+01	-7.791552e+00
2.852513e+01	-7.833533e+00
2.868989e+01	-7.875481e+00
2.885560e+01	-7.916907e+00
2.902227e+01	-7.959147e+00
2.918990e+01	-8.001002e+00
2.935850e+01	-8.042879e+00
2.952807e+01	-8.085240e+00
2.969863e+01	-8.127740e+00
2.987016e+01	-8.170245e+00
3.004269e+01	-8.212980e+00
3.021622e+01	-8.254673e+00
3.039075e+01	-8.297550e+00
3.056628e+01	-8.340767e+00
3.074283e+01	-8.383633e+00
3.092040e+01	-8.425708e+00
3.109900e+01	-8.468981e+00
3.127862e+01	-8.511852e+00
3.145929e+01	-8.554164e+00
3.164099e+01	-8.597234e+00
3.182375e+01	-8.641259e+00
3.200756e+01	-8.683978e+00
3.219244e+01	-8.727433e+00
3.237838e+01	-8.770894e+00
3.256540e+01	-8.813970e+00
3.275349e+01	-8.857661e+00
3.294268e+01	-8.901558e+00
3.313295e+01	-8.945114e+00
3.332433e+01	-8.988330e+00
3.351681e+01	-9.032563e+00
3.371040e+01	-9.076404e+00
3.390511e+01	-9.120120e+00
3.410094e+01	-9.163863e+00
3.429791e+01	-9.207710e+00
3.449601e+01	-9.252146e+00
3.469526e+01	-9.295642e+00
3.489566e+01	-9.340033e+00
3.509721e+01	-9.384203e+00
3.529993e+01	-9.428911e+00
3.550382e+01	-9.473123e+00
3.570889e+01	-9.517194e+00
3.591515e+01	-9.562003e+00
3.612259e+01	-9.606501e+00
3.633123e+01	-9.651249e+00
3.654108e+01	-9.695852e+00
3.675214e+01	-9.740278e+00
3.696442e+01	-9.784781e+00
3.717792e+01	-9.829455e+00
3.739266e+01	-9.874548e+00
3.760864e+01	-9.919830e+00
3.782587e+01	-9.964614e+00
3.804435e+01	-1.000965e+01
3.826409e+01	-1.005531e+01
3.848510e+01	-1.009979e+01
3.870739e+01	-1.014500e+01
3.893096e+01	-1.019040e+01
3.915583e+01	-1.023509e+01
3.938199e+01	-1.028032e+01
3.960946e+01	-1.032620e+01
3.983824e+01	-1.037105e+01
4.006834e+01	-1.041686e+01
4.029978e+01	-1.046266e+01
4.053255e+01	-1.050830e+01
4.076666e+01	-1.055360e+01
4.100213e+01	-1.059886e+01
4.123896e+01	-1.064510e+01
4.147715e+01	-1.069062e+01
4.171672e+01	-1.073704e+01
4.195767e+01	-1.078256e+01
4.220002e+01	-1.082833e+01
4.244377e+01	-1.087428e+01
4.268892e+01	-1.092037e+01
4.293549e+01	-1.096602e+01
4.318348e+01	-1.101231e+01
4.343291e+01	-1.105820e+01
4.368377e+01	-1.110451e+01
4.393609e+01	-1.115037e+01
4.418986e+01	-1.119643e+01
4.444510e+01	-1.124289e+01
4.470182e+01	-1.128902e+01
4.496001e+01	-1.133569e+01
4.521970e+01	-1.138145e+01
4.548089e+01	-1.142783e+01
4.574358e+01	-1.147486e+01
4.600779e+01	-1.152169e+01
4.627353e+01	-1.156760e+01
4.654081e+01	-1.161388e+01
4.680963e+01	-1.166139e+01
4.708000e+01	-1.170740e+01
4.735193e+01	-1.175429e+01
4.762543e+01	-1.180081e+01
4.790051e+01	-1.184803e+01
4.817719e+01	-1.189478e+01
4.845545e+01	-1.194111e+01
4.873533e+01	-1.198787e+01
4.901682e+01	-1.203511e+01
4.929994e+01	-1.208158e+01
4.958470e+01	-1.212913e+01
4.987110e+01	-1.217552e+01
5.015915e+01	-1.222303e+01
5.044887e+01	-1.226983e+01
5.074026e+01	-1.231759e+01
5.103333e+01	-1.236404e+01
5.132810e+01	-1.241130e+01
5.162457e+01	-1.245840e+01
5.192275e+01	-1.250577e+01
5.222265e+01	-1.255325e+01
5.252429e+01	-1.260008e+01
5.282767e+01	-1.264733e+01
5.313280e+01	-1.269544e+01
5.343969e+01	-1.274174e+01
5.374836e+01	-1.278976e+01
5.405880e+01	-1.283672e+01
5.437105e+01	-1.288429e+01
5.468509e+01	-1.293125e+01
5.500095e+01	-1.297892e+01
5.531863e+01	-1.302737e+01
5.563815e+01	-1.307420e+01
5.595951e+01	-1.312260e+01
5.628273e+01	-1.317047e+01
5.660782e+01	-1.321711e+01
5.693479e+01	-1.326493e+01
5.726364e+01	-1.331203e+01
5.759439e+01	-1.336018e+01
5.792705e+01	-1.340816e+01
5.826164e+01	-1.345573e+01
5.859815e+01	-1.350350e+01
5.893662e+01	-1.355142e+01
5.927703e+01	-1.359881e+01
5.961941e+01	-1.364695e+01
5.996377e+01	-1.369468e+01
6.031012e+01	-1.374211e+01
6.065847e+01	-1.379075e+01
6.100883e+01	-1.383885e+01
6.136121e+01	-1.388608e+01
6.171563e+01	-1.393457e+01
6.207210e+01	-1.398289e+01
6.243063e+01	-1.403049e+01
6.279122e+01	-1.407920e+01
6.315390e+01	-1.412701e+01
6.351868e+01	-1.417469e+01
6.388556e+01	-1.422220e+01
6.425456e+01	-1.427175e+01
6.462569e+01	-1.431955e+01
6.499897e+01	-1.436776e+01
6.537440e+01	-1.441464e+01
6.575200e+01	-1.446412e+01
6.613178e+01	-1.451172e+01
6.651375e+01	-1.456085e+01
6.689793e+01	-1.460868e+01
6.728433e+01	-1.465734e+01
6.767297e+01	-1.470481e+01
6.806384e+01	-1.475423e+01
6.845698e+01	-1.480223e+01
6.885238e+01	-1.485090e+01
6.925007e+01	-1.489905e+01
6.965005e+01	-1.494771e+01
7.005235e+01	-1.499585e+01
7.045697e+01	-1.504416e+01
7.086393e+01	-1.509249e+01
7.127323e+01	-1.514190e+01
7.168490e+01	-1.518956e+01
7.209895e+01	-1.523809e+01
7.251539e+01	-1.528710e+01
7.293424e+01	-1.533531e+01
7.335551e+01	-1.538427e+01
7.377920e+01	-1.543352e+01
7.420535e+01	-1.548146e+01
7.463396e+01	-1.553057e+01
7.506504e+01	-1.557802e+01
7.549861e+01	-1.562725e+01
7.593469e+01	-1.567557e+01
7.637328e+01	-1.572469e+01
7.681441e+01	-1.577255e+01
7.725809e+01	-1.582153e+01
7.770433e+01	-1.587109e+01
7.815315e+01	-1.591850e+01
7.860456e+01	-1.596726e+01
7.905857e+01	-1.601563e+01
7.951521e+01	-1.606475e+01
7.997449e+01	-1.611427e+01
8.043642e+01	-1.616315e+01
8.090102e+01	-1.621260e+01
8.136830e+01	-1.626117e+01
8.183828e+01	-1.630987e+01
8.231097e+01	-1.635785e+01
8.278640e+01	-1.640742e+01
8.326457e+01	-1.645684e+01
8.374550e+01	-1.650532e+01
8.422921e+01	-1.655474e+01
8.471572e+01	-1.660281e+01
8.520503e+01	-1.665204e+01
8.569717e+01	-1.670101e+01
8.619215e+01	-1.675107e+01
8.669000e+01	-1.679951e+01
8.719071e+01	-1.684673e+01
8.769432e+01	-1.689799e+01
8.820084e+01	-1.694600e+01
8.871029e+01	-1.699500e+01
8.922267e+01	-1.704344e+01
8.973802e+01	-1.709384e+01
9.025634e+01	-1.714173e+01
9.077766e+01	-1.719096e+01
9.130199e+01	-1.723924e+01
9.182935e+01	-1.728931e+01
9.235975e+01	-1.733757e+01
9.289321e+01	-1.738821e+01
9.342976e+01	-1.743706e+01
9.396941e+01	-1.748546e+01
9.451217e+01	-1.753484e+01
9.505807e+01	-1.758268e+01
9.560712e+01	-1.763345e+01
9.615934e+01	-1.768275e+01
9.671476e+01	-1.773229e+01
9.727338e+01	-1.777993e+01
9.783522e+01	-1.782944e+01
9.840032e+01	-1.787810e+01
9.896867e+01	-1.792959e+01
9.954031e+01	-1.797769e+01
1.001153e+02	-1.802709e+01
1.006935e+02	-1.807699e+01
1.012751e+02	-1.812558e+01
1.018601e+02	-1.817429e+01
1.024484e+02	-1.822313e+01
1.030402e+02	-1.827273e+01
1.036353e+02	-1.832273e+01
1.042339e+02	-1.837241e+01
1.048360e+02	-1.842195e+01
1.054415e+02	-1.847041e+01
1.060505e+02	-1.851962e+01
1.066631e+02	-1.856797e+01
1.072791e+02	-1.861852e+01
1.078988e+02	-1.866783e+01
1.085220e+02	-1.871743e+01
1.091488e+02	-1.876590e+01
1.097793e+02	-1.881552e+01
1.104133e+02	-1.886296e+01
1.110511e+02	-1.891376e+01
1.116925e+02	-1.896568e+01
1.123376e+02	-1.901383e+01
1.129865e+02	-1.906163e+01
1.136391e+02	-1.911174e+01
1.142955e+02	-1.916280e+01
1.149556e+02	-1.921131e+01
1.156196e+02	-1.926182e+01
1.162874e+02	-1.930959e+01
1.169591e+02	-1.935925e+01
1.176347e+02	-1.940867e+01
1.183141e+02	-1.945693e+01
1.189975e+02	-1.950738e+01
1.196848e+02	-1.955617e+01
1.203761e+02	-1.960628e+01
1.210714e+02	-1.965542e+01
1.217707e+02	-1.970672e+01
1.224740e+02	-1.975548e+01
1.231814e+02	-1.980623e+01
1.238929e+02	-1.985563e+01
1.246085e+02	-1.990311e+01
1.253283e+02	-1.995278e+01
1.260522e+02	-2.000200e+01
1.267802e+02	-2.005260e+01
1.275125e+02	-2.010342e+01
1.282490e+02	-2.015157e+01
1.289898e+02	-2.020101e+01
1.297348e+02	-2.025207e+01
1.304842e+02	-2.030027e+01
1.312378e+02	-2.035120e+01
1.319959e+02	-2.040012e+01
1.327583e+02	-2.044712e+01
1.335251e+02	-2.049769e+01
1.342963e+02	-2.054631e+01
1.350720e+02	-2.059750e+01
1.358522e+02	-2.064749e+01
1.366368e+02	-2.069792e+01
1.374260e+02	-2.074608e+01
1.382198e+02	-2.079572e+01
1.390182e+02	-2.084534e+01
1.398211e+02	-2.089488e+01
1.406287e+02	-2.094679e+01
1.414410e+02	-2.099458e+01
1.422579e+02	-2.104395e+01
1.430796e+02	-2.109585e+01
1.439060e+02	-2.114352e+01
1.447372e+02	-2.119353e+01
1.455732e+02	-2.124199e+01
1.464141e+02	-2.129408e+01
1.472597e+02	-2.134323e+01
1.481103e+02	-2.139303e+01
1.489658e+02	-2.144168e+01
1.498262e+02	-2.149138e+01
1.506916e+02	-2.154199e+01
1.515620e+02	-2.159057e+01
1.524374e+02	-2.164116e+01
1.533179e+02	-2.169191e+01
1.542034e+02	-2.174165e+01
1.550941e+02	-2.178895e+01
1.559899e+02	-2.184150e+01
1.568909e+02	-2.188708e+01
1.577971e+02	-2.193681e+01
1.587085e+02	-2.198815e+01
1.596252e+02	-2.203715e+01
1.605472e+02	-2.208827e+01
1.614745e+02	-2.213832e+01
1.624072e+02	-2.218586e+01
1.633453e+02	-2.223856e+01
1.642887e+02	-2.228787e+01
1.652377e+02	-2.233460e+01
1.661921e+02	-2.238613e+01
1.671520e+02	-2.243655e+01
1.681175e+02	-2.248643e+01
1.690885e+02	-2.253328e+01
1.700651e+02	-2.258549e+01
1.710474e+02	-2.263591e+01
1.720354e+02	-2.268525e+01
1.730291e+02	-2.273474e+01
1.740285e+02	-2.278545e+01
1.750337e+02	-2.283306e+01
1.760446e+02	-2.288529e+01
1.770615e+02	-2.293464e+01
1.780842e+02	-2.298476e+01
1.791128e+02	-2.303319e+01
1.801473e+02	-2.308200e+01
1.811878e+02	-2.313432e+01
1.822344e+02	-2.318159e+01
1.832870e+02	-2.323331e+01
1.843456e+02	-2.328321e+01
1.854104e+02	-2.333255e+01
1.864813e+02	-2.338224e+01
1.875584e+02	-2.343207e+01
1.886418e+02	-2.348294e+01
1.897313e+02	-2.352992e+01
1.908272e+02	-2.358112e+01
1.919294e+02	-2.363450e+01
1.930380e+02	-2.368156e+01
1.941530e+02	-2.373187e+01
1.952744e+02	-2.378216e+01
1.964023e+02	-2.383220e+01
1.975367e+02	-2.388175e+01
1.986777e+02	-2.393083e+01
1.998252e+02	-2.397974e+01
2.009794e+02	-2.403024e+01
2.021403e+02	-2.407949e+01
2.033078e+02	-2.413056e+01
2.044821e+02	-2.417835e+01
2.056632e+02	-2.422912e+01
2.068511e+02	-2.427903e+01
2.080459e+02	-2.433094e+01
2.092475e+02	-2.437803e+01
2.104561e+02	-2.442971e+01
2.116717e+02	-2.447933e+01
2.128943e+02	-2.452856e+01
2.141240e+02	-2.457868e+01
2.153608e+02	-2.463013e+01
2.166047e+02	-2.468076e+01
2.178558e+02	-2.472842e+01
2.191141e+02	-2.477662e+01
2.203797e+02	-2.482801e+01
2.216526e+02	-2.487605e+01
2.229329e+02	-2.492969e+01
2.242205e+02	-2.497802e+01
2.255156e+02	-2.502780e+01
2.268182e+02	-2.507986e+01
2.281283e+02	-2.513012e+01
2.294459e+02	-2.517914e+01
2.307712e+02	-2.522922e+01
2.321041e+02	-2.527997e+01
2.334447e+02	-2.532936e+01
2.347931e+02	-2.537755e+01
2.361493e+02	-2.542532e+01
2.375133e+02	-2.548193e+01
2.388851e+02	-2.552892e+01
2.402649e+02	-2.557795e+01
2.416527e+02	-2.562753e+01
2.430484e+02	-2.567937e+01
2.444523e+02	-2.572557e+01
2.458642e+02	-2.577530e+01
2.472843e+02	-2.582898e+01
2.487126e+02	-2.587699e+01
2.501492e+02	-2.593136e+01
2.515940e+02	-2.597484e+01
2.530472e+02	-2.602511e+01
2.545088e+02	-2.607447e+01
2.559789e+02	-2.612165e+01
2.574574e+02	-2.617819e+01
2.589444e+02	-2.622711e+01
2.604401e+02	-2.627785e+01
2.619444e+02	-2.632292e+01
2.634574e+02	-2.637546e+01
2.649791e+02	-2.642597e+01
2.665096e+02	-2.647605e+01
2.680489e+02	-2.652460e+01
2.695972e+02	-2.657747e+01
2.711544e+02	-2.662471e+01
2.727205e+02	-2.667424e+01
2.742958e+02	-2.672517e+01
2.758801e+02	-2.677519e+01
2.774736e+02	-2.682584e+01
2.790762e+02	-2.687435e+01
2.806882e+02	-2.692712e+01
2.823094e+02	-2.697706e+01
2.839400e+02	-2.702489e+01
2.855800e+02	-2.707539e+01
2.872295e+02	-2.712611e+01
2.888886e+02	-2.717697e+01
2.905572e+02	-2.722523e+01
2.922354e+02	-2.727790e+01
2.939234e+02	-2.732392e+01
2.956211e+02	-2.737758e+01
2.973286e+02	-2.742620e+01
2.990459e+02	-2.747881e+01
3.007732e+02	-2.752351e+01
3.025104e+02	-2.757814e+01
3.042577e+02	-2.762711e+01
3.060151e+02	-2.767863e+01
3.077826e+02	-2.772578e+01
3.095604e+02	-2.777622e+01
3.113484e+02	-2.782561e+01
3.131467e+02	-2.787220e+01
3.149554e+02	-2.792857e+01
3.167746e+02	-2.797467e+01
3.186043e+02	-2.802547e+01
3.204445e+02	-2.807516e+01
3.222954e+02	-2.812956e+01
3.241570e+02	-2.817871e+01
3.260293e+02	-2.822572e+01
3.279124e+02	-2.827760e+01
3.298064e+02	-2.832443e+01
3.317114e+02	-2.837625e+01
3.336273e+02	-2.843047e+01
3.355544e+02	-2.847828e+01
3.374925e+02	-2.852734e+01
3.394418e+02	-2.857695e+01
3.414024e+02	-2.862875e+01
3.433744e+02	-2.867367e+01
3.453577e+02	-2.873201e+01
3.473525e+02	-2.877574e+01
3.493588e+02	-2.882574e+01
3.513766e+02	-2.888130e+01
3.534062e+02	-2.892957e+01
3.554474e+02	-2.897979e+01
3.575005e+02	-2.902928e+01
3.595654e+02	-2.907599e+01
3.616422e+02	-2.912531e+01
3.637311e+02	-2.917492e+01
3.658320e+02	-2.922693e+01
3.679450e+02	-2.927849e+01
3.700702e+02	-2.932586e+01
3.722077e+02	-2.937606e+01
3.743576e+02	-2.942819e+01
3.765199e+02	-2.947884e+01
3.786946e+02	-2.952678e+01
3.808820e+02	-2.957754e+01
3.830819e+02	-2.963270e+01
3.852946e+02	-2.967969e+01
3.875200e+02	-2.972907e+01
3.897583e+02	-2.977638e+01
3.920096e+02	-2.982903e+01
3.942738e+02	-2.987943e+01
3.965511e+02	-2.992607e+01
3.988416e+02	-2.998044e+01
4.011452e+02	-3.003137e+01
4.034622e+02	-3.007572e+01
4.057926e+02	-3.012772e+01
4.081365e+02	-3.017758e+01
4.104938e+02	-3.022551e+01
4.128648e+02	-3.028047e+01
4.152495e+02	-3.032773e+01
4.176480e+02	-3.038304e+01
4.200603e+02	-3.043493e+01
4.224866e+02	-3.048497e+01
4.249268e+02	-3.053265e+01
4.273812e+02	-3.058261e+01
4.298497e+02	-3.063199e+01
4.323325e+02	-3.068029e+01
4.348297e+02	-3.073410e+01
4.373412e+02	-3.077445e+01
4.398673e+02	-3.083000e+01
4.424079e+02	-3.087779e+01
4.449633e+02	-3.093511e+01
4.475334e+02	-3.097886e+01
4.501183e+02	-3.102555e+01
4.527182e+02	-3.107968e+01
4.553330e+02	-3.113123e+01
4.579630e+02	-3.118260e+01
4.606082e+02	-3.123408e+01
4.632687e+02	-3.127881e+01
4.659445e+02	-3.133657e+01
4.686358e+02	-3.139186e+01
4.713426e+02	-3.143124e+01
4.740650e+02	-3.148389e+01
4.768032e+02	-3.154138e+01
4.795572e+02	-3.158443e+01
4.823271e+02	-3.163133e+01
4.851130e+02	-3.168582e+01
4.879150e+02	-3.173316e+01
4.907332e+02	-3.178119e+01
4.935676e+02	-3.182895e+01
4.964185e+02	-3.188884e+01
4.992858e+02	-3.193556e+01
5.021696e+02	-3.198649e+01
5.050701e+02	-3.203906e+01
5.079874e+02	-3.208697e+01
5.109215e+02	-3.213460e+01
5.138726e+02	-3.218698e+01
5.168407e+02	-3.223198e+01
5.198259e+02	-3.227991e+01
5.228284e+02	-3.233314e+01
5.258482e+02	-3.238602e+01
5.288855e+02	-3.243720e+01
5.319403e+02	-3.249427e+01
5.350128e+02	-3.252926e+01
5.381030e+02	-3.258256e+01
5.412111e+02	-3.264449e+01
5.443371e+02	-3.268421e+01
5.474812e+02	-3.274214e+01
5.506434e+02	-3.278850e+01
5.538239e+02	-3.283499e+01
5.570228e+02	-3.288313e+01
5.602401e+02	-3.293049e+01
5.634760e+02	-3.298902e+01
5.667306e+02	-3.304463e+01
5.700040e+02	-3.309576e+01
5.732964e+02	-3.314104e+01
5.766077e+02	-3.319253e+01
5.799382e+02	-3.323351e+01
5.832879e+02	-3.329036e+01
5.866569e+02	-3.334483e+01
5.900454e+02	-3.339424e+01
5.934535e+02	-3.343687e+01
5.968813e+02	-3.349203e+01
6.003288e+02	-3.353979e+01
6.037963e+02	-3.359588e+01
6.072838e+02	-3.363717e+01
6.107914e+02	-3.368872e+01
6.143194e+02	-3.374241e+01
6.178676e+02	-3.379498e+01
6.214364e+02	-3.383971e+01
6.250258e+02	-3.389425e+01
6.286359e+02	-3.394002e+01
6.322669e+02	-3.399617e+01
6.359189e+02	-3.404626e+01
6.395919e+02	-3.409255e+01
6.432862e+02	-3.414788e+01
6.470017e+02	-3.419824e+01
6.507388e+02	-3.424322e+01
6.544974e+02	-3.429909e+01
6.582778e+02	-3.435531e+01
6.620800e+02	-3.440240e+01
6.659041e+02	-3.444280e+01
6.697504e+02	-3.449636e+01
6.736188e+02	-3.454183e+01
6.775096e+02	-3.459628e+01
6.814229e+02	-3.465241e+01
6.853587e+02	-3.469333e+01
6.893173e+02	-3.474227e+01
6.932988e+02	-3.480108e+01
6.973033e+02	-3.485125e+01
7.013309e+02	-3.490586e+01
