Frequency(Hz)	Magnitude(dB)
1.000000e+01	-2.068699e+00
1.005776e+01	-2.087763e+00
1.011585e+01	-2.106843e+00
1.017428e+01	-2.126207e+00
1.023305e+01	-2.145470e+00
1.029215e+01	-2.164983e+00
1.035160e+01	-2.185035e+00
1.041139e+01	-2.204647e+00
1.047153e+01	-2.224708e+00
1.053201e+01	-2.244642e+00
1.059284e+01	-2.265150e+00
1.065403e+01	-2.285482e+00
1.071556e+01	-2.305974e+00
1.077746e+01	-2.326578e+00
1.083971e+01	-2.347537e+00
1.090232e+01	-2.368797e+00
1.096529e+01	-2.389511e+00
1.102862e+01	-2.410678e+00
1.109232e+01	-2.432215e+00
1.115639e+01	-2.453626e+00
1.122083e+01	-2.475250e+00
1.128564e+01	-2.497039e+00
1.135083e+01	-2.519232e+00
1.141639e+01	-2.541165e+00
1.148233e+01	-2.563263e+00
1.154865e+01	-2.585813e+00
1.161536e+01	-2.608155e+00
1.168245e+01	-2.630849e+00
1.174992e+01	-2.653780e+00
1.181779e+01	-2.676463e+00
1.188605e+01	-2.699900e+00
1.195470e+01	-2.722950e+00
1.202375e+01	-2.746446e+00
1.209320e+01	-2.770013e+00
1.216305e+01	-2.793525e+00
1.223330e+01	-2.817318e+00
1.230396e+01	-2.841089e+00
1.237503e+01	-2.865290e+00
1.244651e+01	-2.889751e+00
1.251840e+01	-2.914123e+00
1.259070e+01	-2.938462e+00
1.266343e+01	-2.963357e+00
1.273657e+01	-2.988027e+00
1.281014e+01	-3.012936e+00
1.288413e+01	-3.037902e+00
1.295855e+01	-3.063383e+00
1.303339e+01	-3.088740e+00
1.310867e+01	-3.114145e+00
1.318439e+01	-3.139939e+00
1.326054e+01	-3.165497e+00
1.333713e+01	-3.191638e+00
1.341417e+01	-3.217788e+00
1.349165e+01	-3.244065e+00
1.356958e+01	-3.270565e+00
1.364795e+01	-3.297304e+00
1.372678e+01	-3.323575e+00
1.380607e+01	-3.350495e+00
1.388581e+01	-3.377669e+00
1.396602e+01	-3.404683e+00
1.404668e+01	-3.431802e+00
1.412782e+01	-3.459064e+00
1.420942e+01	-3.486816e+00
1.429149e+01	-3.514362e+00
1.437404e+01	-3.542376e+00
1.445706e+01	-3.570176e+00
1.454057e+01	-3.598616e+00
1.462455e+01	-3.626669e+00
1.470902e+01	-3.654968e+00
1.479398e+01	-3.683493e+00
1.487943e+01	-3.712366e+00
1.496537e+01	-3.741075e+00
1.505181e+01	-3.769850e+00
1.513875e+01	-3.799238e+00
1.522619e+01	-3.828288e+00
1.531414e+01	-3.857654e+00
1.540259e+01	-3.887126e+00
1.549156e+01	-3.916671e+00
1.558103e+01	-3.946595e+00
1.567103e+01	-3.976493e+00
1.576155e+01	-4.006701e+00
1.585258e+01	-4.037235e+00
1.594415e+01	-4.067542e+00
1.603624e+01	-4.097910e+00
1.612886e+01	-4.128395e+00
1.622202e+01	-4.158988e+00
1.631572e+01	-4.189962e+00
1.640996e+01	-4.221119e+00
1.650474e+01	-4.252307e+00
1.660008e+01	-4.283264e+00
1.669596e+01	-4.315368e+00
1.679239e+01	-4.346497e+00
1.688938e+01	-4.378068e+00
1.698694e+01	-4.410114e+00
1.708505e+01	-4.442197e+00
1.718373e+01	-4.473913e+00
1.728299e+01	-4.506358e+00
1.738281e+01	-4.538751e+00
1.748322e+01	-4.571269e+00
1.758420e+01	-4.603900e+00
1.768576e+01	-4.636474e+00
1.778792e+01	-4.669623e+00
1.789066e+01	-4.702244e+00
1.799399e+01	-4.735971e+00
1.809793e+01	-4.769096e+00
1.820246e+01	-4.802476e+00
1.830760e+01	-4.836051e+00
1.841334e+01	-4.869650e+00
1.851969e+01	-4.903437e+00
1.862666e+01	-4.937017e+00
1.873425e+01	-4.970908e+00
1.884246e+01	-5.005415e+00
1.895129e+01	-5.039813e+00
1.906075e+01	-5.073977e+00
1.917085e+01	-5.108603e+00
1.928158e+01	-5.143560e+00
1.939295e+01	-5.178274e+00
1.950496e+01	-5.212970e+00
1.961762e+01	-5.247968e+00
1.973093e+01	-5.283492e+00
1.984490e+01	-5.318456e+00
1.995952e+01	-5.353535e+00
2.007480e+01	-5.389523e+00
2.019076e+01	-5.425008e+00
2.030738e+01	-5.460529e+00
2.042467e+01	-5.496418e+00
2.054264e+01	-5.532611e+00
2.066130e+01	-5.568794e+00
2.078064e+01	-5.604875e+00
2.090066e+01	-5.640941e+00
2.102139e+01	-5.677274e+00
2.114280e+01	-5.713997e+00
2.126492e+01	-5.750859e+00
2.138775e+01	-5.787607e+00
2.151128e+01	-5.824513e+00
2.163553e+01	-5.861559e+00
2.176050e+01	-5.898483e+00
2.188619e+01	-5.935582e+00
2.201260e+01	-5.973036e+00
2.213974e+01	-6.010358e+00
2.226762e+01	-6.047865e+00
2.239624e+01	-6.085758e+00
2.252560e+01	-6.123203e+00
2.265571e+01	-6.161667e+00
2.278656e+01	-6.199295e+00
2.291818e+01	-6.237326e+00
2.305055e+01	-6.275416e+00
2.318369e+01	-6.313726e+00
2.331760e+01	-6.352425e+00
2.345228e+01	-6.390570e+00
2.358774e+01	-6.429190e+00
2.372398e+01	-6.468125e+00
2.386101e+01	-6.506532e+00
2.399883e+01	-6.545537e+00
2.413745e+01	-6.584865e+00
2.427686e+01	-6.623884e+00
2.441709e+01	-6.662870e+00
2.455812e+01	-6.702085e+00
2.469997e+01	-6.741738e+00
2.484263e+01	-6.780804e+00
2.498612e+01	-6.820353e+00
2.513044e+01	-6.860392e+00
2.527559e+01	-6.900301e+00
2.542158e+01	-6.939822e+00
2.556842e+01	-6.980128e+00
2.571610e+01	-7.020200e+00
2.586463e+01	-7.060108e+00
2.601403e+01	-7.100729e+00
2.616428e+01	-7.140951e+00
2.631541e+01	-7.181084e+00
2.646740e+01	-7.221369e+00
2.662028e+01	-7.261996e+00
2.677404e+01	-7.302710e+00
2.692868e+01	-7.344340e+00
2.708422e+01	-7.384214e+00
2.724066e+01	-7.425638e+00
2.739800e+01	-7.466640e+00
2.755625e+01	-7.507761e+00
2.771541e+01	-7.548626e+00
2.787550e+01	-7.590421e+00
2.803650e+01	-7.630933e+00
2.819844e+01	-7.672851e+00
2.836131e+01	-7.714316e+00
2.852513e+01	-7.756124e+00
2.868989e+01	-7.797953e+00
2.885560e+01	-7.839681e+00
2.902227e+01	-7.881446e+00
2.918990e+01	-7.922771e+00
2.935850e+01	-7.965098e+00
2.952807e+01	-8.006897e+00
2.969863e+01	-8.049622e+00
2.987016e+01	-8.091456e+00
3.004269e+01	-8.133503e+00
3.021622e+01	-8.176031e+00
3.039075e+01	-8.218633e+00
3.056628e+01	-8.261029e+00
3.074283e+01	-8.303844e+00
3.092040e+01	-8.346209e+00
3.109900e+01	-8.389181e+00
3.127862e+01	-8.432151e+00
3.145929e+01	-8.474963e+00
3.164099e+01	-8.517693e+00
3.182375e+01	-8.560749e+00
3.200756e+01	-8.603629e+00
3.219244e+01	-8.646257e+00
3.237838e+01	-8.690599e+00
3.256540e+01	-8.733143e+00
3.275349e+01	-8.777114e+00
3.294268e+01	-8.820129e+00
3.313295e+01	-8.864094e+00
3.332433e+01	-8.907448e+00
3.351681e+01	-8.950715e+00
3.371040e+01	-8.995177e+00
3.390511e+01	-9.038684e+00
3.410094e+01	-9.082612e+00
3.429791e+01	-9.125711e+00
3.449601e+01	-9.170507e+00
3.469526e+01	-9.213715e+00
3.489566e+01	-9.258094e+00
3.509721e+01	-9.302293e+00
3.529993e+01	-9.346523e+00
3.550382e+01	-9.391029e+00
3.570889e+01	-9.435362e+00
3.591515e+01	-9.479892e+00
3.612259e+01	-9.523527e+00
3.633123e+01	-9.568460e+00
3.654108e+01	-9.612784e+00
3.675214e+01	-9.657288e+00
3.696442e+01	-9.701870e+00
3.717792e+01	-9.746488e+00
3.739266e+01	-9.792167e+00
3.760864e+01	-9.836109e+00
3.782587e+01	-9.881086e+00
3.804435e+01	-9.926217e+00
3.826409e+01	-9.971109e+00
3.848510e+01	-1.001601e+01
3.870739e+01	-1.006154e+01
3.893096e+01	-1.010636e+01
3.915583e+01	-1.015160e+01
3.938199e+01	-1.019724e+01
3.960946e+01	-1.024176e+01
3.983824e+01	-1.028763e+01
4.006834e+01	-1.033270e+01
4.029978e+01	-1.037814e+01
4.053255e+01	-1.042339e+01
4.076666e+01	-1.046913e+01
4.100213e+01	-1.051473e+01
4.123896e+01	-1.056037e+01
4.147715e+01	-1.060615e+01
4.171672e+01	-1.065146e+01
4.195767e+01	-1.069674e+01
4.220002e+01	-1.074338e+01
4.244377e+01	-1.078887e+01
4.268892e+01	-1.083476e+01
4.293549e+01	-1.088091e+01
4.318348e+01	-1.092742e+01
4.343291e+01	-1.097232e+01
4.368377e+01	-1.101854e+01
4.393609e+01	-1.106481e+01
4.418986e+01	-1.111088e+01
4.444510e+01	-1.115698e+01
4.470182e+01	-1.120353e+01
4.496001e+01	-1.124950e+01
4.521970e+01	-1.129584e+01
4.548089e+01	-1.134219e+01
4.574358e+01	-1.138858e+01
4.600779e+01	-1.143467e+01
4.627353e+01	-1.148148e+01
4.654081e+01	-1.152791e+01
4.680963e+01	-1.157447e+01
4.708000e+01	-1.162085e+01
4.735193e+01	-1.166768e+01
4.762543e+01	-1.171361e+01
4.790051e+01	-1.176097e+01
4.817719e+01	-1.180729e+01
4.845545e+01	-1.185524e+01
4.873533e+01	-1.190084e+01
4.901682e+01	-1.194754e+01
4.929994e+01	-1.199411e+01
4.958470e+01	-1.204171e+01
4.987110e+01	-1.208838e+01
5.015915e+01	-1.213545e+01
5.044887e+01	-1.218200e+01
5.074026e+01	-1.222951e+01
5.103333e+01	-1.227640e+01
5.132810e+01	-1.232318e+01
5.162457e+01	-1.237111e+01
5.192275e+01	-1.241777e+01
5.222265e+01	-1.246522e+01
5.252429e+01	-1.251268e+01
5.282767e+01	-1.255936e+01
5.313280e+01	-1.260707e+01
5.343969e+01	-1.265364e+01
5.374836e+01	-1.270124e+01
5.405880e+01	-1.274834e+01
5.437105e+01	-1.279644e+01
5.468509e+01	-1.284320e+01
5.500095e+01	-1.289189e+01
5.531863e+01	-1.293905e+01
5.563815e+01	-1.298488e+01
5.595951e+01	-1.303289e+01
5.628273e+01	-1.308110e+01
5.660782e+01	-1.312848e+01
5.693479e+01	-1.317608e+01
5.726364e+01	-1.322422e+01
5.759439e+01	-1.327086e+01
5.792705e+01	-1.331898e+01
5.826164e+01	-1.336703e+01
5.859815e+01	-1.341397e+01
5.893662e+01	-1.346299e+01
5.927703e+01	-1.351055e+01
5.961941e+01	-1.355905e+01
5.996377e+01	-1.360587e+01
6.031012e+01	-1.365333e+01
6.065847e+01	-1.370200e+01
6.100883e+01	-1.374920e+01
6.136121e+01	-1.379765e+01
6.171563e+01	-1.384551e+01
6.207210e+01	-1.389329e+01
6.243063e+01	-1.394223e+01
6.279122e+01	-1.398922e+01
6.315390e+01	-1.403743e+01
6.351868e+01	-1.408572e+01
6.388556e+01	-1.413344e+01
6.425456e+01	-1.418184e+01
6.462569e+01	-1.422991e+01
6.499897e+01	-1.427799e+01
6.537440e+01	-1.432608e+01
6.575200e+01	-1.437526e+01
6.613178e+01	-1.442202e+01
6.651375e+01	-1.447057e+01
6.689793e+01	-1.451875e+01
6.728433e+01	-1.456789e+01
6.767297e+01	-1.461581e+01
6.806384e+01	-1.466410e+01
6.845698e+01	-1.471194e+01
6.885238e+01	-1.476101e+01
6.925007e+01	-1.480977e+01
6.965005e+01	-1.485679e+01
7.005235e+01	-1.490508e+01
7.045697e+01	-1.495415e+01
7.086393e+01	-1.500273e+01
7.127323e+01	-1.505099e+01
7.168490e+01	-1.509902e+01
7.209895e+01	-1.514789e+01
7.251539e+01	-1.519610e+01
7.293424e+01	-1.524585e+01
7.335551e+01	-1.529397e+01
7.377920e+01	-1.534193e+01
7.420535e+01	-1.539126e+01
7.463396e+01	-1.543839e+01
7.506504e+01	-1.548796e+01
7.549861e+01	-1.553659e+01
7.593469e+01	-1.558578e+01
7.637328e+01	-1.563383e+01
7.681441e+01	-1.568207e+01
7.725809e+01	-1.573103e+01
7.770433e+01	-1.577828e+01
7.815315e+01	-1.582897e+01
7.860456e+01	-1.587769e+01
7.905857e+01	-1.592559e+01
7.951521e+01	-1.597515e+01
7.997449e+01	-1.602391e+01
8.043642e+01	-1.607244e+01
8.090102e+01	-1.612023e+01
8.136830e+01	-1.616884e+01
8.183828e+01	-1.621930e+01
8.231097e+01	-1.626701e+01
8.278640e+01	-1.631660e+01
8.326457e+01	-1.636567e+01
8.374550e+01	-1.641402e+01
8.422921e+01	-1.646340e+01
8.471572e+01	-1.651150e+01
8.520503e+01	-1.656017e+01
8.569717e+01	-1.660970e+01
8.619215e+01	-1.665821e+01
8.669000e+01	-1.670869e+01
8.719071e+01	-1.675693e+01
8.769432e+01	-1.680548e+01
8.820084e+01	-1.685474e+01
8.871029e+01	-1.690314e+01
8.922267e+01	-1.695124e+01
8.973802e+01	-1.700278e+01
9.025634e+01	-1.705023e+01
9.077766e+01	-1.709974e+01
9.130199e+01	-1.714826e+01
9.182935e+01	-1.719848e+01
9.235975e+01	-1.724760e+01
9.289321e+01	-1.729630e+01
9.342976e+01	-1.734546e+01
9.396941e+01	-1.739319e+01
9.451217e+01	-1.744397e+01
9.505807e+01	-1.749270e+01
9.560712e+01	-1.754179e+01
9.615934e+01	-1.759174e+01
9.671476e+01	-1.764045e+01
9.727338e+01	-1.768893e+01
9.783522e+01	-1.773877e+01
9.840032e+01	-1.778713e+01
9.896867e+01	-1.783774e+01
9.954031e+01	-1.788628e+01
1.001153e+02	-1.793497e+01
1.006935e+02	-1.798409e+01
1.012751e+02	-1.803424e+01
1.018601e+02	-1.808305e+01
1.024484e+02	-1.813037e+01
1.030402e+02	-1.818228e+01
1.036353e+02	-1.823110e+01
1.042339e+02	-1.828092e+01
1.048360e+02	-1.832875e+01
1.054415e+02	-1.837843e+01
1.060505e+02	-1.842823e+01
1.066631e+02	-1.847623e+01
1.072791e+02	-1.852611e+01
1.078988e+02	-1.857696e+01
1.085220e+02	-1.862394e+01
1.091488e+02	-1.867468e+01
1.097793e+02	-1.872396e+01
1.104133e+02	-1.877463e+01
1.110511e+02	-1.882355e+01
1.116925e+02	-1.887205e+01
1.123376e+02	-1.892033e+01
1.129865e+02	-1.897225e+01
1.136391e+02	-1.902036e+01
1.142955e+02	-1.906914e+01
1.149556e+02	-1.911980e+01
1.156196e+02	-1.916813e+01
1.162874e+02	-1.921848e+01
1.169591e+02	-1.926750e+01
1.176347e+02	-1.931724e+01
1.183141e+02	-1.936623e+01
1.189975e+02	-1.941494e+01
1.196848e+02	-1.946529e+01
1.203761e+02	-1.951448e+01
1.210714e+02	-1.956355e+01
1.217707e+02	-1.961516e+01
1.224740e+02	-1.966202e+01
1.231814e+02	-1.971274e+01
1.238929e+02	-1.976246e+01
1.246085e+02	-1.981198e+01
1.253283e+02	-1.986114e+01
1.260522e+02	-1.991160e+01
1.267802e+02	-1.996061e+01
1.275125e+02	-2.000964e+01
1.282490e+02	-2.005824e+01
1.289898e+02	-2.010925e+01
1.297348e+02	-2.015914e+01
1.304842e+02	-2.020896e+01
1.312378e+02	-2.025841e+01
1.319959e+02	-2.030705e+01
1.327583e+02	-2.035699e+01
1.335251e+02	-2.040523e+01
1.342963e+02	-2.045414e+01
1.350720e+02	-2.050565e+01
1.358522e+02	-2.055681e+01
1.366368e+02	-2.060267e+01
1.374260e+02	-2.065439e+01
1.382198e+02	-2.070445e+01
1.390182e+02	-2.075382e+01
1.398211e+02	-2.080330e+01
1.406287e+02	-2.085202e+01
1.414410e+02	-2.090268e+01
1.422579e+02	-2.095285e+01
1.430796e+02	-2.100282e+01
1.439060e+02	-2.105123e+01
1.447372e+02	-2.110141e+01
1.455732e+02	-2.115028e+01
1.464141e+02	-2.120185e+01
1.472597e+02	-2.125019e+01
1.481103e+02	-2.130039e+01
1.489658e+02	-2.134998e+01
1.498262e+02	-2.139790e+01
1.506916e+02	-2.144828e+01
1.515620e+02	-2.149910e+01
1.524374e+02	-2.154720e+01
1.533179e+02	-2.159829e+01
1.542034e+02	-2.164840e+01
1.550941e+02	-2.169717e+01
1.559899e+02	-2.174727e+01
1.568909e+02	-2.179727e+01
1.577971e+02	-2.184563e+01
1.587085e+02	-2.189439e+01
1.596252e+02	-2.194579e+01
1.605472e+02	-2.199442e+01
1.614745e+02	-2.204620e+01
1.624072e+02	-2.209371e+01
1.633453e+02	-2.214244e+01
1.642887e+02	-2.219580e+01
1.652377e+02	-2.224507e+01
1.661921e+02	-2.229340e+01
1.671520e+02	-2.234427e+01
1.681175e+02	-2.239491e+01
1.690885e+02	-2.244453e+01
1.700651e+02	-2.249175e+01
1.710474e+02	-2.254323e+01
1.720354e+02	-2.259307e+01
1.730291e+02	-2.264283e+01
1.740285e+02	-2.269218e+01
1.750337e+02	-2.274258e+01
1.760446e+02	-2.278945e+01
1.770615e+02	-2.283948e+01
1.780842e+02	-2.288943e+01
1.791128e+02	-2.294315e+01
1.801473e+02	-2.299166e+01
1.811878e+02	-2.304127e+01
1.822344e+02	-2.309068e+01
1.832870e+02	-2.313914e+01
1.843456e+02	-2.318981e+01
1.854104e+02	-2.324016e+01
1.864813e+02	-2.328866e+01
1.875584e+02	-2.333918e+01
1.886418e+02	-2.338913e+01
1.897313e+02	-2.343879e+01
1.908272e+02	-2.348798e+01
1.919294e+02	-2.353830e+01
1.930380e+02	-2.359076e+01
1.941530e+02	-2.363765e+01
1.952744e+02	-2.368794e+01
1.964023e+02	-2.373657e+01
1.975367e+02	-2.378731e+01
1.986777e+02	-2.383689e+01
1.998252e+02	-2.388690e+01
2.009794e+02	-2.393729e+01
2.021403e+02	-2.398786e+01
2.033078e+02	-2.403583e+01
2.044821e+02	-2.408942e+01
2.056632e+02	-2.413805e+01
2.068511e+02	-2.418917e+01
2.080459e+02	-2.423803e+01
2.092475e+02	-2.428728e+01
2.104561e+02	-2.433434e+01
2.116717e+02	-2.438658e+01
2.128943e+02	-2.443573e+01
2.141240e+02	-2.448485e+01
2.153608e+02	-2.453550e+01
2.166047e+02	-2.458539e+01
2.178558e+02	-2.463710e+01
2.191141e+02	-2.468475e+01
2.203797e+02	-2.473485e+01
2.216526e+02	-2.478433e+01
2.229329e+02	-2.483392e+01
2.242205e+02	-2.488648e+01
2.255156e+02	-2.493383e+01
2.268182e+02	-2.498617e+01
2.281283e+02	-2.503330e+01
2.294459e+02	-2.508394e+01
2.307712e+02	-2.513189e+01
2.321041e+02	-2.518647e+01
2.334447e+02	-2.523694e+01
2.347931e+02	-2.528870e+01
2.361493e+02	-2.533475e+01
2.375133e+02	-2.538703e+01
2.388851e+02	-2.543368e+01
2.402649e+02	-2.548256e+01
2.416527e+02	-2.553279e+01
2.430484e+02	-2.558321e+01
2.444523e+02	-2.562908e+01
2.458642e+02	-2.568406e+01
2.472843e+02	-2.573653e+01
2.487126e+02	-2.578490e+01
2.501492e+02	-2.583364e+01
2.515940e+02	-2.588151e+01
2.530472e+02	-2.593163e+01
2.545088e+02	-2.598485e+01
2.559789e+02	-2.603238e+01
2.574574e+02	-2.608349e+01
2.589444e+02	-2.613201e+01
2.604401e+02	-2.618238e+01
2.619444e+02	-2.623320e+01
2.634574e+02	-2.628532e+01
2.649791e+02	-2.633145e+01
2.665096e+02	-2.638344e+01
2.680489e+02	-2.643178e+01
2.695972e+02	-2.648585e+01
2.711544e+02	-2.653286e+01
2.727205e+02	-2.658400e+01
2.742958e+02	-2.663248e+01
2.758801e+02	-2.668202e+01
2.774736e+02	-2.673467e+01
2.790762e+02	-2.678541e+01
2.806882e+02	-2.683175e+01
2.823094e+02	-2.688108e+01
2.839400e+02	-2.693315e+01
2.855800e+02	-2.698633e+01
2.872295e+02	-2.703346e+01
2.888886e+02	-2.708473e+01
2.905572e+02	-2.713325e+01
2.922354e+02	-2.718401e+01
2.939234e+02	-2.723299e+01
2.956211e+02	-2.728020e+01
2.973286e+02	-2.733083e+01
2.990459e+02	-2.738188e+01
3.007732e+02	-2.743490e+01
3.025104e+02	-2.748273e+01
3.042577e+02	-2.753376e+01
3.060151e+02	-2.758311e+01
3.077826e+02	-2.763548e+01
3.095604e+02	-2.768534e+01
3.113484e+02	-2.773438e+01
3.131467e+02	-2.778376e+01
3.149554e+02	-2.783382e+01
3.167746e+02	-2.788306e+01
3.186043e+02	-2.793380e+01
3.204445e+02	-2.798185e+01
3.222954e+02	-2.803120e+01
3.241570e+02	-2.808831e+01
3.260293e+02	-2.813183e+01
3.279124e+02	-2.818082e+01
3.298064e+02	-2.823119e+01
3.317114e+02	-2.828298e+01
3.336273e+02	-2.833412e+01
3.355544e+02	-2.838242e+01
3.374925e+02	-2.843400e+01
3.394418e+02	-2.848310e+01
3.414024e+02	-2.852771e+01
3.433744e+02	-2.858404e+01
3.453577e+02	-2.863206e+01
3.473525e+02	-2.868449e+01
3.493588e+02	-2.873666e+01
3.513766e+02	-2.878710e+01
3.534062e+02	-2.883313e+01
3.554474e+02	-2.888296e+01
3.575005e+02	-2.893296e+01
3.595654e+02	-2.898307e+01
3.616422e+02	-2.903401e+01
3.637311e+02	-2.908345e+01
3.658320e+02	-2.913641e+01
3.679450e+02	-2.918373e+01
3.700702e+02	-2.923423e+01
3.722077e+02	-2.928484e+01
3.743576e+02	-2.933725e+01
3.765199e+02	-2.938634e+01
3.786946e+02	-2.943453e+01
3.808820e+02	-2.948622e+01
3.830819e+02	-2.953614e+01
3.852946e+02	-2.958384e+01
3.875200e+02	-2.963400e+01
3.897583e+02	-2.968184e+01
3.920096e+02	-2.973200e+01
3.942738e+02	-2.978098e+01
3.965511e+02	-2.983577e+01
3.988416e+02	-2.988713e+01
4.011452e+02	-2.993481e+01
4.034622e+02	-2.998331e+01
4.057926e+02	-3.003623e+01
4.081365e+02	-3.008175e+01
4.104938e+02	-3.013986e+01
4.128648e+02	-3.018096e+01
4.152495e+02	-3.023849e+01
4.176480e+02	-3.029243e+01
4.200603e+02	-3.033813e+01
4.224866e+02	-3.038439e+01
4.249268e+02	-3.044162e+01
4.273812e+02	-3.048147e+01
4.298497e+02	-3.054139e+01
4.323325e+02	-3.058314e+01
4.348297e+02	-3.063691e+01
4.373412e+02	-3.068755e+01
4.398673e+02	-3.073460e+01
4.424079e+02	-3.078539e+01
4.449633e+02	-3.084143e+01
4.475334e+02	-3.089019e+01
4.501183e+02	-3.093803e+01
4.527182e+02	-3.098405e+01
4.553330e+02	-3.103921e+01
4.579630e+02	-3.109012e+01
4.606082e+02	-3.113452e+01
4.632687e+02	-3.119457e+01
4.659445e+02	-3.123641e+01
4.686358e+02	-3.128645e+01
4.713426e+02	-3.133563e+01
4.740650e+02	-3.138664e+01
4.768032e+02	-3.143769e+01
4.795572e+02	-3.148757e+01
4.823271e+02	-3.153830e+01
4.851130e+02	-3.158432e+01
4.879150e+02	-3.163941e+01
4.907332e+02	-3.169327e+01
4.935676e+02	-3.173990e+01
4.964185e+02	-3.178632e+01
4.992858e+02	-3.183860e+01
5.021696e+02	-3.189232e+01
5.050701e+02	-3.193849e+01
5.079874e+02	-3.198997e+01
5.109215e+02	-3.204494e+01
5.138726e+02	-3.208684e+01
5.168407e+02	-3.214668e+01
5.198259e+02	-3.219100e+01
5.228284e+02	-3.224376e+01
5.258482e+02	-3.229589e+01
5.288855e+02	-3.234688e+01
5.319403e+02	-3.239149e+01
5.350128e+02	-3.245211e+01
5.381030e+02	-3.249139e+01
5.412111e+02	-3.254404e+01
5.443371e+02	-3.259051e+01
5.474812e+02	-3.264056e+01
5.506434e+02	-3.269138e+01
5.538239e+02	-3.274530e+01
5.570228e+02	-3.279699e+01
5.602401e+02	-3.285134e+01
5.634760e+02	-3.289191e+01
5.667306e+02	-3.294421e+01
5.700040e+02	-3.299951e+01
5.732964e+02	-3.304570e+01
5.766077e+02	-3.310059e+01
5.799382e+02	-3.315289e+01
5.832879e+02	-3.318842e+01
5.866569e+02	-3.324392e+01
5.900454e+02	-3.329979e+01
5.934535e+02	-3.334764e+01
5.968813e+02	-3.339838e+01
6.003288e+02	-3.344988e+01
6.037963e+02	-3.349723e+01
6.072838e+02	-3.355095e+01
6.107914e+02	-3.359246e+01
6.143194e+02	-3.365180e+01
6.178676e+02	-3.369611e+01
6.214364e+02	-3.374697e+01
6.250258e+02	-3.380171e+01
6.286359e+02	-3.385782e+01
6.322669e+02	-3.390310e+01
6.359189e+02	-3.395283e+01
6.395919e+02	-3.400237e+01
6.432862e+02	-3.405330e+01
6.470017e+02	-3.410630e+01
6.507388e+02	-3.414702e+01
6.544974e+02	-3.420546e+01
6.582778e+02	-3.425227e+01
6.620800e+02	-3.430678e+01
6.659041e+02	-3.434528e+01
6.697504e+02	-3.441229e+01
6.736188e+02	-3.445736e+01
6.775096e+02	-3.451403e+01
6.814229e+02	-3.455515e+01
6.853587e+02	-3.460331e+01
6.893173e+02	-3.465751e+01
6.932988e+02	-3.471193e+01
6.973033e+02	-3.475658e+01
7.013309e+02	-3.481188e+01
