Frequency(Hz)	Magnitude(dB)
1.000000e+01	-1.562350e-05
1.005776e+01	-1.580450e-05
1.011585e+01	-1.598760e-05
1.017428e+01	-1.617282e-05
1.023305e+01	-1.636019e-05
1.029215e+01	-1.654973e-05
1.035160e+01	-1.674146e-05
1.041139e+01	-1.693541e-05
1.047153e+01	-1.713161e-05
1.053201e+01	-1.733009e-05
1.059284e+01	-1.753086e-05
1.065403e+01	-1.773396e-05
1.071556e+01	-1.793941e-05
1.077746e+01	-1.814725e-05
1.083971e+01	-1.835749e-05
1.090232e+01	-1.857016e-05
1.096529e+01	-1.878530e-05
1.102862e+01	-1.900294e-05
1.109232e+01	-1.922309e-05
1.115639e+01	-1.944579e-05
1.122083e+01	-1.967108e-05
1.128564e+01	-1.989897e-05
1.135083e+01	-2.012951e-05
1.141639e+01	-2.036271e-05
1.148233e+01	-2.059862e-05
1.154865e+01	-2.083726e-05
1.161536e+01	-2.107867e-05
1.168245e+01	-2.132287e-05
1.174992e+01	-2.156990e-05
1.181779e+01	-2.181979e-05
1.188605e+01	-2.207258e-05
1.195470e+01	-2.232830e-05
1.202375e+01	-2.258697e-05
1.209320e+01	-2.284865e-05
1.216305e+01	-2.311336e-05
1.223330e+01	-2.338113e-05
1.230396e+01	-2.365201e-05
1.237503e+01	-2.392602e-05
1.244651e+01	-2.420321e-05
1.251840e+01	-2.448361e-05
1.259070e+01	-2.476726e-05
1.266343e+01	-2.505419e-05
1.273657e+01	-2.534445e-05
1.281014e+01	-2.563807e-05
1.288413e+01	-2.593510e-05
1.295855e+01	-2.623556e-05
1.303339e+01	-2.653951e-05
1.310867e+01	-2.684697e-05
1.318439e+01	-2.715800e-05
1.326054e+01	-2.747264e-05
1.333713e+01	-2.779091e-05
1.341417e+01	-2.811288e-05
1.349165e+01	-2.843857e-05
1.356958e+01	-2.876804e-05
1.364795e+01	-2.910132e-05
1.372678e+01	-2.943847e-05
1.380607e+01	-2.977952e-05
1.388581e+01	-3.012452e-05
1.396602e+01	-3.047352e-05
1.404668e+01	-3.082657e-05
1.412782e+01	-3.118370e-05
1.420942e+01	-3.154497e-05
1.429149e+01	-3.191043e-05
1.437404e+01	-3.228012e-05
1.445706e+01	-3.265409e-05
1.454057e+01	-3.303239e-05
1.462455e+01	-3.341508e-05
1.470902e+01	-3.380220e-05
1.479398e+01	-3.419381e-05
1.487943e+01	-3.458995e-05
1.496537e+01	-3.499069e-05
1.505181e+01	-3.539606e-05
1.513875e+01	-3.580613e-05
1.522619e+01	-3.622096e-05
1.531414e+01	-3.664058e-05
1.540259e+01	-3.706507e-05
1.549156e+01	-3.749448e-05
1.558103e+01	-3.792886e-05
1.567103e+01	-3.836828e-05
1.576155e+01	-3.881278e-05
1.585258e+01	-3.926244e-05
1.594415e+01	-3.971730e-05
1.603624e+01	-4.017744e-05
1.612886e+01	-4.064290e-05
1.622202e+01	-4.111376e-05
1.631572e+01	-4.159007e-05
1.640996e+01	-4.207190e-05
1.650474e+01	-4.255931e-05
1.660008e+01	-4.305237e-05
1.669596e+01	-4.355114e-05
1.679239e+01	-4.405569e-05
1.688938e+01	-4.456609e-05
1.698694e+01	-4.508240e-05
1.708505e+01	-4.560469e-05
1.718373e+01	-4.613303e-05
1.728299e+01	-4.666749e-05
1.738281e+01	-4.720814e-05
1.748322e+01	-4.775506e-05
1.758420e+01	-4.830831e-05
1.768576e+01	-4.886797e-05
1.778792e+01	-4.943412e-05
1.789066e+01	-5.000682e-05
1.799399e+01	-5.058616e-05
1.809793e+01	-5.117221e-05
1.820246e+01	-5.176505e-05
1.830760e+01	-5.236476e-05
1.841334e+01	-5.297142e-05
1.851969e+01	-5.358510e-05
1.862666e+01	-5.420590e-05
1.873425e+01	-5.483389e-05
1.884246e+01	-5.546915e-05
1.895129e+01	-5.611177e-05
1.906075e+01	-5.676183e-05
1.917085e+01	-5.741943e-05
1.928158e+01	-5.808465e-05
1.939295e+01	-5.875757e-05
1.950496e+01	-5.943829e-05
1.961762e+01	-6.012689e-05
1.973093e+01	-6.082348e-05
1.984490e+01	-6.152813e-05
1.995952e+01	-6.224094e-05
2.007480e+01	-6.296202e-05
2.019076e+01	-6.369144e-05
2.030738e+01	-6.442932e-05
2.042467e+01	-6.517575e-05
2.054264e+01	-6.593082e-05
2.066130e+01	-6.669464e-05
2.078064e+01	-6.746731e-05
2.090066e+01	-6.824893e-05
2.102139e+01	-6.903961e-05
2.114280e+01	-6.983945e-05
2.126492e+01	-7.064855e-05
2.138775e+01	-7.146703e-05
2.151128e+01	-7.229498e-05
2.163553e+01	-7.313254e-05
2.176050e+01	-7.397979e-05
2.188619e+01	-7.483686e-05
2.201260e+01	-7.570386e-05
2.213974e+01	-7.658090e-05
2.226762e+01	-7.746810e-05
2.239624e+01	-7.836558e-05
2.252560e+01	-7.927346e-05
2.265571e+01	-8.019186e-05
2.278656e+01	-8.112090e-05
2.291818e+01	-8.206070e-05
2.305055e+01	-8.301138e-05
2.318369e+01	-8.397308e-05
2.331760e+01	-8.494593e-05
2.345228e+01	-8.593004e-05
2.358774e+01	-8.692555e-05
2.372398e+01	-8.793260e-05
2.386101e+01	-8.895131e-05
2.399883e+01	-8.998183e-05
2.413745e+01	-9.102428e-05
2.427686e+01	-9.207881e-05
2.441709e+01	-9.314556e-05
2.455812e+01	-9.422466e-05
2.469997e+01	-9.531627e-05
2.484263e+01	-9.642052e-05
2.498612e+01	-9.753757e-05
2.513044e+01	-9.866756e-05
2.527559e+01	-9.981064e-05
2.542158e+01	-1.009670e-04
2.556842e+01	-1.021367e-04
2.571610e+01	-1.033199e-04
2.586463e+01	-1.045169e-04
2.601403e+01	-1.057278e-04
2.616428e+01	-1.069526e-04
2.631541e+01	-1.081917e-04
2.646740e+01	-1.094451e-04
2.662028e+01	-1.107130e-04
2.677404e+01	-1.119957e-04
2.692868e+01	-1.132932e-04
2.708422e+01	-1.146057e-04
2.724066e+01	-1.159334e-04
2.739800e+01	-1.172765e-04
2.755625e+01	-1.186352e-04
2.771541e+01	-1.200096e-04
2.787550e+01	-1.213999e-04
2.803650e+01	-1.228063e-04
2.819844e+01	-1.242290e-04
2.836131e+01	-1.256682e-04
2.852513e+01	-1.271241e-04
2.868989e+01	-1.285969e-04
2.885560e+01	-1.300867e-04
2.902227e+01	-1.315937e-04
2.918990e+01	-1.331183e-04
2.935850e+01	-1.346605e-04
2.952807e+01	-1.362205e-04
2.969863e+01	-1.377986e-04
2.987016e+01	-1.393951e-04
3.004269e+01	-1.410100e-04
3.021622e+01	-1.426436e-04
3.039075e+01	-1.442961e-04
3.056628e+01	-1.459678e-04
3.074283e+01	-1.476588e-04
3.092040e+01	-1.493695e-04
3.109900e+01	-1.510999e-04
3.127862e+01	-1.528504e-04
3.145929e+01	-1.546212e-04
3.164099e+01	-1.564125e-04
3.182375e+01	-1.582246e-04
3.200756e+01	-1.600576e-04
3.219244e+01	-1.619119e-04
3.237838e+01	-1.637877e-04
3.256540e+01	-1.656851e-04
3.275349e+01	-1.676046e-04
3.294268e+01	-1.695463e-04
3.313295e+01	-1.715105e-04
3.332433e+01	-1.734975e-04
3.351681e+01	-1.755075e-04
3.371040e+01	-1.775407e-04
3.390511e+01	-1.795975e-04
3.410094e+01	-1.816782e-04
3.429791e+01	-1.837829e-04
3.449601e+01	-1.859121e-04
3.469526e+01	-1.880659e-04
3.489566e+01	-1.902446e-04
3.509721e+01	-1.924486e-04
3.529993e+01	-1.946781e-04
3.550382e+01	-1.969335e-04
3.570889e+01	-1.992149e-04
3.591515e+01	-2.015228e-04
3.612259e+01	-2.038575e-04
3.633123e+01	-2.062192e-04
3.654108e+01	-2.086082e-04
3.675214e+01	-2.110250e-04
3.696442e+01	-2.134697e-04
3.717792e+01	-2.159427e-04
3.739266e+01	-2.184444e-04
3.760864e+01	-2.209751e-04
3.782587e+01	-2.235351e-04
3.804435e+01	-2.261247e-04
3.826409e+01	-2.287444e-04
3.848510e+01	-2.313944e-04
3.870739e+01	-2.340751e-04
3.893096e+01	-2.367868e-04
3.915583e+01	-2.395300e-04
3.938199e+01	-2.423049e-04
3.960946e+01	-2.451120e-04
3.983824e+01	-2.479516e-04
4.006834e+01	-2.508241e-04
4.029978e+01	-2.537299e-04
4.053255e+01	-2.566694e-04
4.076666e+01	-2.596429e-04
4.100213e+01	-2.626508e-04
4.123896e+01	-2.656936e-04
4.147715e+01	-2.687716e-04
4.171672e+01	-2.718853e-04
4.195767e+01	-2.750351e-04
4.220002e+01	-2.782214e-04
4.244377e+01	-2.814445e-04
4.268892e+01	-2.847050e-04
4.293549e+01	-2.880033e-04
4.318348e+01	-2.913398e-04
4.343291e+01	-2.947149e-04
4.368377e+01	-2.981292e-04
4.393609e+01	-3.015830e-04
4.418986e+01	-3.050768e-04
4.444510e+01	-3.086110e-04
4.470182e+01	-3.121862e-04
4.496001e+01	-3.158029e-04
4.521970e+01	-3.194614e-04
4.548089e+01	-3.231623e-04
4.574358e+01	-3.269061e-04
4.600779e+01	-3.306933e-04
4.627353e+01	-3.345243e-04
4.654081e+01	-3.383997e-04
4.680963e+01	-3.423200e-04
4.708000e+01	-3.462857e-04
4.735193e+01	-3.502974e-04
4.762543e+01	-3.543555e-04
4.790051e+01	-3.584606e-04
4.817719e+01	-3.626133e-04
4.845545e+01	-3.668141e-04
4.873533e+01	-3.710636e-04
4.901682e+01	-3.753623e-04
4.929994e+01	-3.797107e-04
4.958470e+01	-3.841096e-04
4.987110e+01	-3.885594e-04
5.015915e+01	-3.930608e-04
5.044887e+01	-3.976143e-04
5.074026e+01	-4.022206e-04
5.103333e+01	-4.068802e-04
5.132810e+01	-4.115938e-04
5.162457e+01	-4.163620e-04
5.192275e+01	-4.211854e-04
5.222265e+01	-4.260647e-04
5.252429e+01	-4.310005e-04
5.282767e+01	-4.359936e-04
5.313280e+01	-4.410444e-04
5.343969e+01	-4.461538e-04
5.374836e+01	-4.513223e-04
5.405880e+01	-4.565507e-04
5.437105e+01	-4.618397e-04
5.468509e+01	-4.671900e-04
5.500095e+01	-4.726022e-04
5.531863e+01	-4.780771e-04
5.563815e+01	-4.836155e-04
5.595951e+01	-4.892180e-04
5.628273e+01	-4.948854e-04
5.660782e+01	-5.006184e-04
5.693479e+01	-5.064179e-04
5.726364e+01	-5.122845e-04
5.759439e+01	-5.182191e-04
5.792705e+01	-5.242225e-04
5.826164e+01	-5.302954e-04
5.859815e+01	-5.364386e-04
5.893662e+01	-5.426530e-04
5.927703e+01	-5.489394e-04
5.961941e+01	-5.552986e-04
5.996377e+01	-5.617315e-04
6.031012e+01	-5.682389e-04
6.065847e+01	-5.748217e-04
6.100883e+01	-5.814807e-04
6.136121e+01	-5.882168e-04
6.171563e+01	-5.950310e-04
6.207210e+01	-6.019241e-04
6.243063e+01	-6.088971e-04
6.279122e+01	-6.159508e-04
6.315390e+01	-6.230863e-04
6.351868e+01	-6.303044e-04
6.388556e+01	-6.376061e-04
6.425456e+01	-6.449924e-04
6.462569e+01	-6.524643e-04
6.499897e+01	-6.600227e-04
6.537440e+01	-6.676686e-04
6.575200e+01	-6.754031e-04
6.613178e+01	-6.832273e-04
6.651375e+01	-6.911420e-04
6.689793e+01	-6.991484e-04
6.728433e+01	-7.072476e-04
6.767297e+01	-7.154406e-04
6.806384e+01	-7.237285e-04
6.845698e+01	-7.321123e-04
6.885238e+01	-7.405933e-04
6.925007e+01	-7.491726e-04
6.965005e+01	-7.578512e-04
7.005235e+01	-7.666303e-04
7.045697e+01	-7.755112e-04
7.086393e+01	-7.844949e-04
7.127323e+01	-7.935826e-04
7.168490e+01	-8.027756e-04
7.209895e+01	-8.120751e-04
7.251539e+01	-8.214824e-04
7.293424e+01	-8.309986e-04
7.335551e+01	-8.406250e-04
7.377920e+01	-8.503629e-04
7.420535e+01	-8.602136e-04
7.463396e+01	-8.701784e-04
7.506504e+01	-8.802586e-04
7.549861e+01	-8.904556e-04
7.593469e+01	-9.007707e-04
7.637328e+01	-9.112053e-04
7.681441e+01	-9.217608e-04
7.725809e+01	-9.324385e-04
7.770433e+01	-9.432398e-04
7.815315e+01	-9.541663e-04
7.860456e+01	-9.652194e-04
7.905857e+01	-9.764005e-04
7.951521e+01	-9.877110e-04
7.997449e+01	-9.991526e-04
8.043642e+01	-1.010727e-03
8.090102e+01	-1.022435e-03
8.136830e+01	-1.034279e-03
8.183828e+01	-1.046260e-03
8.231097e+01	-1.058379e-03
8.278640e+01	-1.070639e-03
8.326457e+01	-1.083042e-03
8.374550e+01	-1.095587e-03
8.422921e+01	-1.108278e-03
8.471572e+01	-1.121116e-03
8.520503e+01	-1.134103e-03
8.569717e+01	-1.147240e-03
8.619215e+01	-1.160530e-03
8.669000e+01	-1.173973e-03
8.719071e+01	-1.187572e-03
8.769432e+01	-1.201328e-03
8.820084e+01	-1.215244e-03
8.871029e+01	-1.229321e-03
8.922267e+01	-1.243561e-03
8.973802e+01	-1.257966e-03
9.025634e+01	-1.272538e-03
9.077766e+01	-1.287278e-03
9.130199e+01	-1.302189e-03
9.182935e+01	-1.317273e-03
9.235975e+01	-1.332532e-03
9.289321e+01	-1.347967e-03
9.342976e+01	-1.363581e-03
9.396941e+01	-1.379376e-03
9.451217e+01	-1.395354e-03
9.505807e+01	-1.411517e-03
9.560712e+01	-1.427867e-03
9.615934e+01	-1.444407e-03
9.671476e+01	-1.461138e-03
9.727338e+01	-1.478062e-03
9.783522e+01	-1.495183e-03
9.840032e+01	-1.512502e-03
9.896867e+01	-1.530022e-03
9.954031e+01	-1.547745e-03
1.001153e+02	-1.565672e-03
1.006935e+02	-1.583808e-03
1.012751e+02	-1.602153e-03
1.018601e+02	-1.620711e-03
1.024484e+02	-1.639484e-03
1.030402e+02	-1.658474e-03
1.036353e+02	-1.677684e-03
1.042339e+02	-1.697117e-03
1.048360e+02	-1.716775e-03
1.054415e+02	-1.736660e-03
1.060505e+02	-1.756776e-03
1.066631e+02	-1.777124e-03
1.072791e+02	-1.797708e-03
1.078988e+02	-1.818531e-03
1.085220e+02	-1.839595e-03
1.091488e+02	-1.860902e-03
1.097793e+02	-1.882457e-03
1.104133e+02	-1.904261e-03
1.110511e+02	-1.926317e-03
1.116925e+02	-1.948629e-03
1.123376e+02	-1.971199e-03
1.129865e+02	-1.994031e-03
1.136391e+02	-2.017127e-03
1.142955e+02	-2.040490e-03
1.149556e+02	-2.064124e-03
1.156196e+02	-2.088032e-03
1.162874e+02	-2.112216e-03
1.169591e+02	-2.136681e-03
1.176347e+02	-2.161429e-03
1.183141e+02	-2.186463e-03
1.189975e+02	-2.211788e-03
1.196848e+02	-2.237405e-03
1.203761e+02	-2.263319e-03
1.210714e+02	-2.289534e-03
1.217707e+02	-2.316051e-03
1.224740e+02	-2.342876e-03
1.231814e+02	-2.370012e-03
1.238929e+02	-2.397461e-03
1.246085e+02	-2.425229e-03
1.253283e+02	-2.453318e-03
1.260522e+02	-2.481732e-03
1.267802e+02	-2.510475e-03
1.275125e+02	-2.539551e-03
1.282490e+02	-2.568964e-03
1.289898e+02	-2.598717e-03
1.297348e+02	-2.628815e-03
1.304842e+02	-2.659261e-03
1.312378e+02	-2.690059e-03
1.319959e+02	-2.721215e-03
1.327583e+02	-2.752731e-03
1.335251e+02	-2.784612e-03
1.342963e+02	-2.816862e-03
1.350720e+02	-2.849485e-03
1.358522e+02	-2.882486e-03
1.366368e+02	-2.915869e-03
1.374260e+02	-2.949639e-03
1.382198e+02	-2.983799e-03
1.390182e+02	-3.018355e-03
1.398211e+02	-3.053311e-03
1.406287e+02	-3.088672e-03
1.414410e+02	-3.124442e-03
1.422579e+02	-3.160627e-03
1.430796e+02	-3.197230e-03
1.439060e+02	-3.234257e-03
1.447372e+02	-3.271712e-03
1.455732e+02	-3.309602e-03
1.464141e+02	-3.347929e-03
1.472597e+02	-3.386701e-03
1.481103e+02	-3.425921e-03
1.489658e+02	-3.465596e-03
1.498262e+02	-3.505729e-03
1.506916e+02	-3.546327e-03
1.515620e+02	-3.587396e-03
1.524374e+02	-3.628939e-03
1.533179e+02	-3.670963e-03
1.542034e+02	-3.713474e-03
1.550941e+02	-3.756477e-03
1.559899e+02	-3.799978e-03
1.568909e+02	-3.843982e-03
1.577971e+02	-3.888496e-03
1.587085e+02	-3.933524e-03
1.596252e+02	-3.979074e-03
1.605472e+02	-4.025152e-03
1.614745e+02	-4.071762e-03
1.624072e+02	-4.118912e-03
1.633453e+02	-4.166608e-03
1.642887e+02	-4.214856e-03
1.652377e+02	-4.263662e-03
1.661921e+02	-4.313033e-03
1.671520e+02	-4.362975e-03
1.681175e+02	-4.413496e-03
1.690885e+02	-4.464601e-03
1.700651e+02	-4.516298e-03
1.710474e+02	-4.568592e-03
1.720354e+02	-4.621493e-03
1.730291e+02	-4.675005e-03
1.740285e+02	-4.729136e-03
1.750337e+02	-4.783894e-03
1.760446e+02	-4.839286e-03
1.770615e+02	-4.895319e-03
1.780842e+02	-4.952000e-03
1.791128e+02	-5.009337e-03
1.801473e+02	-5.067338e-03
1.811878e+02	-5.126009e-03
1.822344e+02	-5.185360e-03
1.832870e+02	-5.245397e-03
1.843456e+02	-5.306129e-03
1.854104e+02	-5.367564e-03
1.864813e+02	-5.429710e-03
1.875584e+02	-5.492574e-03
1.886418e+02	-5.556167e-03
1.897313e+02	-5.620494e-03
1.908272e+02	-5.685567e-03
1.919294e+02	-5.751392e-03
1.930380e+02	-5.817978e-03
1.941530e+02	-5.885335e-03
1.952744e+02	-5.953471e-03
1.964023e+02	-6.022396e-03
1.975367e+02	-6.092118e-03
1.986777e+02	-6.162646e-03
1.998252e+02	-6.233991e-03
2.009794e+02	-6.306161e-03
2.021403e+02	-6.379165e-03
2.033078e+02	-6.453015e-03
2.044821e+02	-6.527718e-03
2.056632e+02	-6.603286e-03
2.068511e+02	-6.679727e-03
2.080459e+02	-6.757053e-03
2.092475e+02	-6.835274e-03
2.104561e+02	-6.914399e-03
2.116717e+02	-6.994439e-03
2.128943e+02	-7.075406e-03
2.141240e+02	-7.157308e-03
2.153608e+02	-7.240158e-03
2.166047e+02	-7.323966e-03
2.178558e+02	-7.408744e-03
2.191141e+02	-7.494502e-03
2.203797e+02	-7.581251e-03
2.216526e+02	-7.669004e-03
2.229329e+02	-7.757772e-03
2.242205e+02	-7.847566e-03
2.255156e+02	-7.938399e-03
2.268182e+02	-8.030282e-03
2.281283e+02	-8.123228e-03
2.294459e+02	-8.217248e-03
2.307712e+02	-8.312356e-03
2.321041e+02	-8.408563e-03
2.334447e+02	-8.505882e-03
2.347931e+02	-8.604327e-03
2.361493e+02	-8.703910e-03
2.375133e+02	-8.804645e-03
2.388851e+02	-8.906544e-03
2.402649e+02	-9.009621e-03
2.416527e+02	-9.113890e-03
2.430484e+02	-9.219364e-03
2.444523e+02	-9.326058e-03
2.458642e+02	-9.433985e-03
2.472843e+02	-9.543160e-03
2.487126e+02	-9.653596e-03
2.501492e+02	-9.765310e-03
2.515940e+02	-9.878314e-03
2.530472e+02	-9.992625e-03
2.545088e+02	-1.010826e-02
2.559789e+02	-1.022522e-02
2.574574e+02	-1.034355e-02
2.589444e+02	-1.046323e-02
2.604401e+02	-1.058430e-02
2.619444e+02	-1.070677e-02
2.634574e+02	-1.083066e-02
2.649791e+02	-1.095598e-02
2.665096e+02	-1.108274e-02
2.680489e+02	-1.121097e-02
2.695972e+02	-1.134068e-02
2.711544e+02	-1.147189e-02
2.727205e+02	-1.160462e-02
2.742958e+02	-1.173888e-02
2.758801e+02	-1.187469e-02
2.774736e+02	-1.201207e-02
2.790762e+02	-1.215104e-02
2.806882e+02	-1.229161e-02
2.823094e+02	-1.243381e-02
2.839400e+02	-1.257765e-02
2.855800e+02	-1.272315e-02
2.872295e+02	-1.287033e-02
2.888886e+02	-1.301921e-02
2.905572e+02	-1.316982e-02
2.922354e+02	-1.332216e-02
2.939234e+02	-1.347626e-02
2.956211e+02	-1.363214e-02
2.973286e+02	-1.378982e-02
2.990459e+02	-1.394932e-02
3.007732e+02	-1.411066e-02
3.025104e+02	-1.427387e-02
3.042577e+02	-1.443896e-02
3.060151e+02	-1.460595e-02
3.077826e+02	-1.477488e-02
3.095604e+02	-1.494575e-02
3.113484e+02	-1.511860e-02
3.131467e+02	-1.529345e-02
3.149554e+02	-1.547031e-02
3.167746e+02	-1.564921e-02
3.186043e+02	-1.583018e-02
3.204445e+02	-1.601324e-02
3.222954e+02	-1.619841e-02
3.241570e+02	-1.638571e-02
3.260293e+02	-1.657518e-02
3.279124e+02	-1.676684e-02
3.298064e+02	-1.696071e-02
3.317114e+02	-1.715681e-02
3.336273e+02	-1.735518e-02
3.355544e+02	-1.755583e-02
3.374925e+02	-1.775881e-02
3.394418e+02	-1.796412e-02
3.414024e+02	-1.817180e-02
3.433744e+02	-1.838188e-02
3.453577e+02	-1.859438e-02
3.473525e+02	-1.880933e-02
3.493588e+02	-1.902676e-02
3.513766e+02	-1.924670e-02
3.534062e+02	-1.946918e-02
3.554474e+02	-1.969422e-02
3.575005e+02	-1.992186e-02
3.595654e+02	-2.015212e-02
3.616422e+02	-2.038504e-02
3.637311e+02	-2.062064e-02
3.658320e+02	-2.085896e-02
3.679450e+02	-2.110003e-02
3.700702e+02	-2.134388e-02
3.722077e+02	-2.159053e-02
3.743576e+02	-2.184003e-02
3.765199e+02	-2.209241e-02
3.786946e+02	-2.234770e-02
3.808820e+02	-2.260592e-02
3.830819e+02	-2.286713e-02
3.852946e+02	-2.313134e-02
3.875200e+02	-2.339860e-02
3.897583e+02	-2.366894e-02
3.920096e+02	-2.394239e-02
3.942738e+02	-2.421899e-02
3.965511e+02	-2.449878e-02
3.988416e+02	-2.478179e-02
4.011452e+02	-2.506806e-02
4.034622e+02	-2.535763e-02
4.057926e+02	-2.565054e-02
4.081365e+02	-2.594681e-02
4.104938e+02	-2.624650e-02
4.128648e+02	-2.654964e-02
4.152495e+02	-2.685627e-02
4.176480e+02	-2.716643e-02
4.200603e+02	-2.748017e-02
4.224866e+02	-2.779751e-02
4.249268e+02	-2.811850e-02
4.273812e+02	-2.844319e-02
4.298497e+02	-2.877162e-02
4.323325e+02	-2.910383e-02
4.348297e+02	-2.943985e-02
4.373412e+02	-2.977975e-02
4.398673e+02	-3.012356e-02
4.424079e+02	-3.047132e-02
4.449633e+02	-3.082308e-02
4.475334e+02	-3.117888e-02
4.501183e+02	-3.153878e-02
4.527182e+02	-3.190282e-02
4.553330e+02	-3.227105e-02
4.579630e+02	-3.264351e-02
4.606082e+02	-3.302025e-02
4.632687e+02	-3.340132e-02
4.659445e+02	-3.378677e-02
4.686358e+02	-3.417666e-02
4.713426e+02	-3.457102e-02
4.740650e+02	-3.496992e-02
4.768032e+02	-3.537340e-02
4.795572e+02	-3.578152e-02
4.823271e+02	-3.619432e-02
4.851130e+02	-3.661187e-02
4.879150e+02	-3.703422e-02
4.907332e+02	-3.746141e-02
4.935676e+02	-3.789351e-02
4.964185e+02	-3.833058e-02
4.992858e+02	-3.877266e-02
5.021696e+02	-3.921982e-02
5.050701e+02	-3.967211e-02
5.079874e+02	-4.012959e-02
5.109215e+02	-4.059232e-02
5.138726e+02	-4.106037e-02
5.168407e+02	-4.153378e-02
5.198259e+02	-4.201263e-02
5.228284e+02	-4.249697e-02
5.258482e+02	-4.298686e-02
5.288855e+02	-4.348238e-02
5.319403e+02	-4.398358e-02
5.350128e+02	-4.449052e-02
5.381030e+02	-4.500328e-02
5.412111e+02	-4.552191e-02
5.443371e+02	-4.604650e-02
5.474812e+02	-4.657709e-02
5.506434e+02	-4.711376e-02
5.538239e+02	-4.765659e-02
5.570228e+02	-4.820563e-02
5.602401e+02	-4.876096e-02
5.634760e+02	-4.932266e-02
5.667306e+02	-4.989079e-02
5.700040e+02	-5.046542e-02
5.732964e+02	-5.104663e-02
5.766077e+02	-5.163450e-02
5.799382e+02	-5.222909e-02
5.832879e+02	-5.283049e-02
5.866569e+02	-5.343878e-02
5.900454e+02	-5.405402e-02
5.934535e+02	-5.467630e-02
5.968813e+02	-5.530570e-02
6.003288e+02	-5.594230e-02
6.037963e+02	-5.658618e-02
6.072838e+02	-5.723741e-02
6.107914e+02	-5.789610e-02
6.143194e+02	-5.856231e-02
6.178676e+02	-5.923614e-02
6.214364e+02	-5.991766e-02
6.250258e+02	-6.060698e-02
6.286359e+02	-6.130416e-02
6.322669e+02	-6.200931e-02
6.359189e+02	-6.272251e-02
6.395919e+02	-6.344385e-02
6.432862e+02	-6.417343e-02
6.470017e+02	-6.491134e-02
6.507388e+02	-6.565766e-02
6.544974e+02	-6.641250e-02
6.582778e+02	-6.717595e-02
6.620800e+02	-6.794811e-02
6.659041e+02	-6.872908e-02
6.697504e+02	-6.951894e-02
6.736188e+02	-7.031782e-02
6.775096e+02	-7.112579e-02
6.814229e+02	-7.194298e-02
6.853587e+02	-7.276947e-02
6.893173e+02	-7.360537e-02
6.932988e+02	-7.445080e-02
6.973033e+02	-7.530585e-02
7.013309e+02	-7.617064e-02
