Frequency(Hz)	Magnitude(dB)
1.000000e+01	-1.784660e-05
1.005776e+01	-1.805335e-05
1.011585e+01	-1.826251e-05
1.017428e+01	-1.847408e-05
1.023305e+01	-1.868811e-05
1.029215e+01	-1.890462e-05
1.035160e+01	-1.912363e-05
1.041139e+01	-1.934518e-05
1.047153e+01	-1.956930e-05
1.053201e+01	-1.979602e-05
1.059284e+01	-2.002536e-05
1.065403e+01	-2.025736e-05
1.071556e+01	-2.049205e-05
1.077746e+01	-2.072945e-05
1.083971e+01	-2.096961e-05
1.090232e+01	-2.121255e-05
1.096529e+01	-2.145830e-05
1.102862e+01	-2.170690e-05
1.109232e+01	-2.195838e-05
1.115639e+01	-2.221277e-05
1.122083e+01	-2.247011e-05
1.128564e+01	-2.273043e-05
1.135083e+01	-2.299377e-05
1.141639e+01	-2.326016e-05
1.148233e+01	-2.352963e-05
1.154865e+01	-2.380223e-05
1.161536e+01	-2.407799e-05
1.168245e+01	-2.435694e-05
1.174992e+01	-2.463912e-05
1.181779e+01	-2.492457e-05
1.188605e+01	-2.521332e-05
1.195470e+01	-2.550543e-05
1.202375e+01	-2.580091e-05
1.209320e+01	-2.609982e-05
1.216305e+01	-2.640220e-05
1.223330e+01	-2.670807e-05
1.230396e+01	-2.701749e-05
1.237503e+01	-2.733050e-05
1.244651e+01	-2.764713e-05
1.251840e+01	-2.796742e-05
1.259070e+01	-2.829143e-05
1.266343e+01	-2.861920e-05
1.273657e+01	-2.895076e-05
1.281014e+01	-2.928616e-05
1.288413e+01	-2.962545e-05
1.295855e+01	-2.996866e-05
1.303339e+01	-3.031586e-05
1.310867e+01	-3.066707e-05
1.318439e+01	-3.102236e-05
1.326054e+01	-3.138176e-05
1.333713e+01	-3.174533e-05
1.341417e+01	-3.211310e-05
1.349165e+01	-3.248514e-05
1.356958e+01	-3.286149e-05
1.364795e+01	-3.324220e-05
1.372678e+01	-3.362732e-05
1.380607e+01	-3.401690e-05
1.388581e+01	-3.441099e-05
1.396602e+01	-3.480965e-05
1.404668e+01	-3.521293e-05
1.412782e+01	-3.562088e-05
1.420942e+01	-3.603355e-05
1.429149e+01	-3.645101e-05
1.437404e+01	-3.687330e-05
1.445706e+01	-3.730049e-05
1.454057e+01	-3.773262e-05
1.462455e+01	-3.816977e-05
1.470902e+01	-3.861197e-05
1.479398e+01	-3.905930e-05
1.487943e+01	-3.951181e-05
1.496537e+01	-3.996956e-05
1.505181e+01	-4.043262e-05
1.513875e+01	-4.090104e-05
1.522619e+01	-4.137489e-05
1.531414e+01	-4.185423e-05
1.540259e+01	-4.233912e-05
1.549156e+01	-4.282962e-05
1.558103e+01	-4.332582e-05
1.567103e+01	-4.382775e-05
1.576155e+01	-4.433551e-05
1.585258e+01	-4.484915e-05
1.594415e+01	-4.536873e-05
1.603624e+01	-4.589434e-05
1.612886e+01	-4.642604e-05
1.622202e+01	-4.696389e-05
1.631572e+01	-4.750798e-05
1.640996e+01	-4.805837e-05
1.650474e+01	-4.861513e-05
1.660008e+01	-4.917835e-05
1.669596e+01	-4.974809e-05
1.679239e+01	-5.032444e-05
1.688938e+01	-5.090745e-05
1.698694e+01	-5.149723e-05
1.708505e+01	-5.209383e-05
1.718373e+01	-5.269735e-05
1.728299e+01	-5.330786e-05
1.738281e+01	-5.392544e-05
1.748322e+01	-5.455018e-05
1.758420e+01	-5.518216e-05
1.768576e+01	-5.582145e-05
1.778792e+01	-5.646816e-05
1.789066e+01	-5.712235e-05
1.799399e+01	-5.778413e-05
1.809793e+01	-5.845357e-05
1.820246e+01	-5.913076e-05
1.830760e+01	-5.981580e-05
1.841334e+01	-6.050878e-05
1.851969e+01	-6.120979e-05
1.862666e+01	-6.191892e-05
1.873425e+01	-6.263626e-05
1.884246e+01	-6.336191e-05
1.895129e+01	-6.409597e-05
1.906075e+01	-6.483854e-05
1.917085e+01	-6.558970e-05
1.928158e+01	-6.634957e-05
1.939295e+01	-6.711825e-05
1.950496e+01	-6.789582e-05
1.961762e+01	-6.868241e-05
1.973093e+01	-6.947811e-05
1.984490e+01	-7.028302e-05
1.995952e+01	-7.109727e-05
2.007480e+01	-7.192094e-05
2.019076e+01	-7.275416e-05
2.030738e+01	-7.359703e-05
2.042467e+01	-7.444966e-05
2.054264e+01	-7.531218e-05
2.066130e+01	-7.618468e-05
2.078064e+01	-7.706729e-05
2.090066e+01	-7.796013e-05
2.102139e+01	-7.886331e-05
2.114280e+01	-7.977696e-05
2.126492e+01	-8.070119e-05
2.138775e+01	-8.163613e-05
2.151128e+01	-8.258189e-05
2.163553e+01	-8.353862e-05
2.176050e+01	-8.450643e-05
2.188619e+01	-8.548545e-05
2.201260e+01	-8.647581e-05
2.213974e+01	-8.747765e-05
2.226762e+01	-8.849109e-05
2.239624e+01	-8.951627e-05
2.252560e+01	-9.055333e-05
2.265571e+01	-9.160241e-05
2.278656e+01	-9.266364e-05
2.291818e+01	-9.373716e-05
2.305055e+01	-9.482312e-05
2.318369e+01	-9.592166e-05
2.331760e+01	-9.703293e-05
2.345228e+01	-9.815707e-05
2.358774e+01	-9.929423e-05
2.372398e+01	-1.004446e-04
2.386101e+01	-1.016082e-04
2.399883e+01	-1.027854e-04
2.413745e+01	-1.039762e-04
2.427686e+01	-1.051807e-04
2.441709e+01	-1.063993e-04
2.455812e+01	-1.076319e-04
2.469997e+01	-1.088789e-04
2.484263e+01	-1.101402e-04
2.498612e+01	-1.114162e-04
2.513044e+01	-1.127070e-04
2.527559e+01	-1.140127e-04
2.542158e+01	-1.153336e-04
2.556842e+01	-1.166697e-04
2.571610e+01	-1.180214e-04
2.586463e+01	-1.193886e-04
2.601403e+01	-1.207718e-04
2.616428e+01	-1.221709e-04
2.631541e+01	-1.235863e-04
2.646740e+01	-1.250181e-04
2.662028e+01	-1.264664e-04
2.677404e+01	-1.279315e-04
2.692868e+01	-1.294136e-04
2.708422e+01	-1.309129e-04
2.724066e+01	-1.324295e-04
2.739800e+01	-1.339638e-04
2.755625e+01	-1.355157e-04
2.771541e+01	-1.370857e-04
2.787550e+01	-1.386739e-04
2.803650e+01	-1.402804e-04
2.819844e+01	-1.419056e-04
2.836131e+01	-1.435495e-04
2.852513e+01	-1.452126e-04
2.868989e+01	-1.468949e-04
2.885560e+01	-1.485967e-04
2.902227e+01	-1.503182e-04
2.918990e+01	-1.520596e-04
2.935850e+01	-1.538212e-04
2.952807e+01	-1.556033e-04
2.969863e+01	-1.574060e-04
2.987016e+01	-1.592295e-04
3.004269e+01	-1.610742e-04
3.021622e+01	-1.629402e-04
3.039075e+01	-1.648279e-04
3.056628e+01	-1.667375e-04
3.074283e+01	-1.686691e-04
3.092040e+01	-1.706232e-04
3.109900e+01	-1.725998e-04
3.127862e+01	-1.745994e-04
3.145929e+01	-1.766222e-04
3.164099e+01	-1.786683e-04
3.182375e+01	-1.807382e-04
3.200756e+01	-1.828321e-04
3.219244e+01	-1.849502e-04
3.237838e+01	-1.870928e-04
3.256540e+01	-1.892603e-04
3.275349e+01	-1.914529e-04
3.294268e+01	-1.936709e-04
3.313295e+01	-1.959146e-04
3.332433e+01	-1.981842e-04
3.351681e+01	-2.004802e-04
3.371040e+01	-2.028028e-04
3.390511e+01	-2.051522e-04
3.410094e+01	-2.075289e-04
3.429791e+01	-2.099332e-04
3.449601e+01	-2.123652e-04
3.469526e+01	-2.148255e-04
3.489566e+01	-2.173142e-04
3.509721e+01	-2.198318e-04
3.529993e+01	-2.223786e-04
3.550382e+01	-2.249548e-04
3.570889e+01	-2.275609e-04
3.591515e+01	-2.301972e-04
3.612259e+01	-2.328640e-04
3.633123e+01	-2.355617e-04
3.654108e+01	-2.382907e-04
3.675214e+01	-2.410513e-04
3.696442e+01	-2.438439e-04
3.717792e+01	-2.466688e-04
3.739266e+01	-2.495264e-04
3.760864e+01	-2.524172e-04
3.782587e+01	-2.553414e-04
3.804435e+01	-2.582995e-04
3.826409e+01	-2.612919e-04
3.848510e+01	-2.643190e-04
3.870739e+01	-2.673811e-04
3.893096e+01	-2.704787e-04
3.915583e+01	-2.736121e-04
3.938199e+01	-2.767819e-04
3.960946e+01	-2.799884e-04
3.983824e+01	-2.832320e-04
4.006834e+01	-2.865133e-04
4.029978e+01	-2.898325e-04
4.053255e+01	-2.931902e-04
4.076666e+01	-2.965867e-04
4.100213e+01	-3.000227e-04
4.123896e+01	-3.034984e-04
4.147715e+01	-3.070144e-04
4.171672e+01	-3.105711e-04
4.195767e+01	-3.141690e-04
4.220002e+01	-3.178086e-04
4.244377e+01	-3.214904e-04
4.268892e+01	-3.252148e-04
4.293549e+01	-3.289823e-04
4.318348e+01	-3.327936e-04
4.343291e+01	-3.366489e-04
4.368377e+01	-3.405489e-04
4.393609e+01	-3.444941e-04
4.418986e+01	-3.484850e-04
4.444510e+01	-3.525222e-04
4.470182e+01	-3.566061e-04
4.496001e+01	-3.607373e-04
4.521970e+01	-3.649163e-04
4.548089e+01	-3.691438e-04
4.574358e+01	-3.734203e-04
4.600779e+01	-3.777462e-04
4.627353e+01	-3.821224e-04
4.654081e+01	-3.865491e-04
4.680963e+01	-3.910272e-04
4.708000e+01	-3.955572e-04
4.735193e+01	-4.001396e-04
4.762543e+01	-4.047751e-04
4.790051e+01	-4.094643e-04
4.817719e+01	-4.142079e-04
4.845545e+01	-4.190063e-04
4.873533e+01	-4.238604e-04
4.901682e+01	-4.287707e-04
4.929994e+01	-4.337379e-04
4.958470e+01	-4.387626e-04
4.987110e+01	-4.438455e-04
5.015915e+01	-4.489873e-04
5.044887e+01	-4.541887e-04
5.074026e+01	-4.594503e-04
5.103333e+01	-4.647729e-04
5.132810e+01	-4.701571e-04
5.162457e+01	-4.756037e-04
5.192275e+01	-4.811134e-04
5.222265e+01	-4.866870e-04
5.252429e+01	-4.923250e-04
5.282767e+01	-4.980284e-04
5.313280e+01	-5.037979e-04
5.343969e+01	-5.096342e-04
5.374836e+01	-5.155381e-04
5.405880e+01	-5.215104e-04
5.437105e+01	-5.275519e-04
5.468509e+01	-5.336633e-04
5.500095e+01	-5.398456e-04
5.531863e+01	-5.460994e-04
5.563815e+01	-5.524258e-04
5.595951e+01	-5.588253e-04
5.628273e+01	-5.652991e-04
5.660782e+01	-5.718478e-04
5.693479e+01	-5.784724e-04
5.726364e+01	-5.851737e-04
5.759439e+01	-5.919526e-04
5.792705e+01	-5.988101e-04
5.826164e+01	-6.057470e-04
5.859815e+01	-6.127642e-04
5.893662e+01	-6.198627e-04
5.927703e+01	-6.270435e-04
5.961941e+01	-6.343075e-04
5.996377e+01	-6.416555e-04
6.031012e+01	-6.490887e-04
6.065847e+01	-6.566080e-04
6.100883e+01	-6.642144e-04
6.136121e+01	-6.719090e-04
6.171563e+01	-6.796926e-04
6.207210e+01	-6.875664e-04
6.243063e+01	-6.955314e-04
6.279122e+01	-7.035887e-04
6.315390e+01	-7.117393e-04
6.351868e+01	-7.199843e-04
6.388556e+01	-7.283248e-04
6.425456e+01	-7.367619e-04
6.462569e+01	-7.452968e-04
6.499897e+01	-7.539305e-04
6.537440e+01	-7.626642e-04
6.575200e+01	-7.714991e-04
6.613178e+01	-7.804363e-04
6.651375e+01	-7.894771e-04
6.689793e+01	-7.986226e-04
6.728433e+01	-8.078740e-04
6.767297e+01	-8.172325e-04
6.806384e+01	-8.266995e-04
6.845698e+01	-8.362761e-04
6.885238e+01	-8.459636e-04
6.925007e+01	-8.557634e-04
6.965005e+01	-8.656767e-04
7.005235e+01	-8.757048e-04
7.045697e+01	-8.858490e-04
7.086393e+01	-8.961107e-04
7.127323e+01	-9.064913e-04
7.168490e+01	-9.169922e-04
7.209895e+01	-9.276147e-04
7.251539e+01	-9.383602e-04
7.293424e+01	-9.492301e-04
7.335551e+01	-9.602260e-04
7.377920e+01	-9.713492e-04
7.420535e+01	-9.826013e-04
7.463396e+01	-9.939837e-04
7.506504e+01	-1.005498e-03
7.549861e+01	-1.017146e-03
7.593469e+01	-1.028928e-03
7.637328e+01	-1.040847e-03
7.681441e+01	-1.052904e-03
7.725809e+01	-1.065101e-03
7.770433e+01	-1.077439e-03
7.815315e+01	-1.089920e-03
7.860456e+01	-1.102545e-03
7.905857e+01	-1.115317e-03
7.951521e+01	-1.128236e-03
7.997449e+01	-1.141305e-03
8.043642e+01	-1.154526e-03
8.090102e+01	-1.167900e-03
8.136830e+01	-1.181428e-03
8.183828e+01	-1.195114e-03
8.231097e+01	-1.208957e-03
8.278640e+01	-1.222961e-03
8.326457e+01	-1.237128e-03
8.374550e+01	-1.251458e-03
8.422921e+01	-1.265955e-03
8.471572e+01	-1.280619e-03
8.520503e+01	-1.295453e-03
8.569717e+01	-1.310459e-03
8.619215e+01	-1.325639e-03
8.669000e+01	-1.340994e-03
8.719071e+01	-1.356527e-03
8.769432e+01	-1.372241e-03
8.820084e+01	-1.388136e-03
8.871029e+01	-1.404215e-03
8.922267e+01	-1.420481e-03
8.973802e+01	-1.436935e-03
9.025634e+01	-1.453579e-03
9.077766e+01	-1.470416e-03
9.130199e+01	-1.487449e-03
9.182935e+01	-1.504678e-03
9.235975e+01	-1.522107e-03
9.289321e+01	-1.539738e-03
9.342976e+01	-1.557573e-03
9.396941e+01	-1.575615e-03
9.451217e+01	-1.593865e-03
9.505807e+01	-1.612327e-03
9.560712e+01	-1.631003e-03
9.615934e+01	-1.649895e-03
9.671476e+01	-1.669006e-03
9.727338e+01	-1.688338e-03
9.783522e+01	-1.707894e-03
9.840032e+01	-1.727677e-03
9.896867e+01	-1.747688e-03
9.954031e+01	-1.767931e-03
1.001153e+02	-1.788409e-03
1.006935e+02	-1.809124e-03
1.012751e+02	-1.830079e-03
1.018601e+02	-1.851276e-03
1.024484e+02	-1.872719e-03
1.030402e+02	-1.894410e-03
1.036353e+02	-1.916353e-03
1.042339e+02	-1.938549e-03
1.048360e+02	-1.961003e-03
1.054415e+02	-1.983716e-03
1.060505e+02	-2.006693e-03
1.066631e+02	-2.029936e-03
1.072791e+02	-2.053447e-03
1.078988e+02	-2.077231e-03
1.085220e+02	-2.101291e-03
1.091488e+02	-2.125629e-03
1.097793e+02	-2.150249e-03
1.104133e+02	-2.175154e-03
1.110511e+02	-2.200347e-03
1.116925e+02	-2.225832e-03
1.123376e+02	-2.251612e-03
1.129865e+02	-2.277691e-03
1.136391e+02	-2.304072e-03
1.142955e+02	-2.330758e-03
1.149556e+02	-2.357753e-03
1.156196e+02	-2.385060e-03
1.162874e+02	-2.412684e-03
1.169591e+02	-2.440628e-03
1.176347e+02	-2.468895e-03
1.183141e+02	-2.497490e-03
1.189975e+02	-2.526416e-03
1.196848e+02	-2.555676e-03
1.203761e+02	-2.585276e-03
1.210714e+02	-2.615218e-03
1.217707e+02	-2.645506e-03
1.224740e+02	-2.676146e-03
1.231814e+02	-2.707140e-03
1.238929e+02	-2.738493e-03
1.246085e+02	-2.770209e-03
1.253283e+02	-2.802292e-03
1.260522e+02	-2.834747e-03
1.267802e+02	-2.867577e-03
1.275125e+02	-2.900788e-03
1.282490e+02	-2.934383e-03
1.289898e+02	-2.968367e-03
1.297348e+02	-3.002744e-03
1.304842e+02	-3.037520e-03
1.312378e+02	-3.072698e-03
1.319959e+02	-3.108283e-03
1.327583e+02	-3.144280e-03
1.335251e+02	-3.180694e-03
1.342963e+02	-3.217530e-03
1.350720e+02	-3.254792e-03
1.358522e+02	-3.292485e-03
1.366368e+02	-3.330615e-03
1.374260e+02	-3.369186e-03
1.382198e+02	-3.408203e-03
1.390182e+02	-3.447672e-03
1.398211e+02	-3.487598e-03
1.406287e+02	-3.527987e-03
1.414410e+02	-3.568843e-03
1.422579e+02	-3.610171e-03
1.430796e+02	-3.651979e-03
1.439060e+02	-3.694270e-03
1.447372e+02	-3.737050e-03
1.455732e+02	-3.780326e-03
1.464141e+02	-3.824103e-03
1.472597e+02	-3.868386e-03
1.481103e+02	-3.913182e-03
1.489658e+02	-3.958497e-03
1.498262e+02	-4.004336e-03
1.506916e+02	-4.050705e-03
1.515620e+02	-4.097612e-03
1.524374e+02	-4.145061e-03
1.533179e+02	-4.193059e-03
1.542034e+02	-4.241613e-03
1.550941e+02	-4.290729e-03
1.559899e+02	-4.340413e-03
1.568909e+02	-4.390673e-03
1.577971e+02	-4.441514e-03
1.587085e+02	-4.492943e-03
1.596252e+02	-4.544968e-03
1.605472e+02	-4.597595e-03
1.614745e+02	-4.650830e-03
1.624072e+02	-4.704682e-03
1.633453e+02	-4.759157e-03
1.642887e+02	-4.814263e-03
1.652377e+02	-4.870006e-03
1.661921e+02	-4.926394e-03
1.671520e+02	-4.983435e-03
1.681175e+02	-5.041135e-03
1.690885e+02	-5.099504e-03
1.700651e+02	-5.158548e-03
1.710474e+02	-5.218275e-03
1.720354e+02	-5.278693e-03
1.730291e+02	-5.339811e-03
1.740285e+02	-5.401635e-03
1.750337e+02	-5.464175e-03
1.760446e+02	-5.527438e-03
1.770615e+02	-5.591434e-03
1.780842e+02	-5.656170e-03
1.791128e+02	-5.721655e-03
1.801473e+02	-5.787897e-03
1.811878e+02	-5.854906e-03
1.822344e+02	-5.922691e-03
1.832870e+02	-5.991259e-03
1.843456e+02	-6.060621e-03
1.854104e+02	-6.130785e-03
1.864813e+02	-6.201761e-03
1.875584e+02	-6.273558e-03
1.886418e+02	-6.346185e-03
1.897313e+02	-6.419653e-03
1.908272e+02	-6.493970e-03
1.919294e+02	-6.569148e-03
1.930380e+02	-6.645195e-03
1.941530e+02	-6.722121e-03
1.952744e+02	-6.799938e-03
1.964023e+02	-6.878654e-03
1.975367e+02	-6.958281e-03
1.986777e+02	-7.038829e-03
1.998252e+02	-7.120308e-03
2.009794e+02	-7.202730e-03
2.021403e+02	-7.286106e-03
2.033078e+02	-7.370445e-03
2.044821e+02	-7.455760e-03
2.056632e+02	-7.542062e-03
2.068511e+02	-7.629362e-03
2.080459e+02	-7.717671e-03
2.092475e+02	-7.807002e-03
2.104561e+02	-7.897365e-03
2.116717e+02	-7.988774e-03
2.128943e+02	-8.081240e-03
2.141240e+02	-8.174774e-03
2.153608e+02	-8.269391e-03
2.166047e+02	-8.365101e-03
2.178558e+02	-8.461918e-03
2.191141e+02	-8.559855e-03
2.203797e+02	-8.658924e-03
2.216526e+02	-8.759138e-03
2.229329e+02	-8.860511e-03
2.242205e+02	-8.963056e-03
2.255156e+02	-9.066787e-03
2.268182e+02	-9.171717e-03
2.281283e+02	-9.277859e-03
2.294459e+02	-9.385229e-03
2.307712e+02	-9.493840e-03
2.321041e+02	-9.603707e-03
2.334447e+02	-9.714843e-03
2.347931e+02	-9.827265e-03
2.361493e+02	-9.940985e-03
2.375133e+02	-1.005602e-02
2.388851e+02	-1.017239e-02
2.402649e+02	-1.029009e-02
2.416527e+02	-1.040916e-02
2.430484e+02	-1.052961e-02
2.444523e+02	-1.065145e-02
2.458642e+02	-1.077470e-02
2.472843e+02	-1.089937e-02
2.487126e+02	-1.102548e-02
2.501492e+02	-1.115305e-02
2.515940e+02	-1.128209e-02
2.530472e+02	-1.141262e-02
2.545088e+02	-1.154466e-02
2.559789e+02	-1.167823e-02
2.574574e+02	-1.181334e-02
2.589444e+02	-1.195001e-02
2.604401e+02	-1.208826e-02
2.619444e+02	-1.222811e-02
2.634574e+02	-1.236957e-02
2.649791e+02	-1.251267e-02
2.665096e+02	-1.265742e-02
2.680489e+02	-1.280384e-02
2.695972e+02	-1.295196e-02
2.711544e+02	-1.310178e-02
2.727205e+02	-1.325334e-02
2.742958e+02	-1.340664e-02
2.758801e+02	-1.356172e-02
2.774736e+02	-1.371859e-02
2.790762e+02	-1.387727e-02
2.806882e+02	-1.403778e-02
2.823094e+02	-1.420014e-02
2.839400e+02	-1.436438e-02
2.855800e+02	-1.453052e-02
2.872295e+02	-1.469857e-02
2.888886e+02	-1.486856e-02
2.905572e+02	-1.504052e-02
2.922354e+02	-1.521446e-02
2.939234e+02	-1.539041e-02
2.956211e+02	-1.556839e-02
2.973286e+02	-1.574843e-02
2.990459e+02	-1.593054e-02
3.007732e+02	-1.611476e-02
3.025104e+02	-1.630110e-02
3.042577e+02	-1.648959e-02
3.060151e+02	-1.668026e-02
3.077826e+02	-1.687313e-02
3.095604e+02	-1.706822e-02
3.113484e+02	-1.726557e-02
3.131467e+02	-1.746519e-02
3.149554e+02	-1.766712e-02
3.167746e+02	-1.787137e-02
3.186043e+02	-1.807798e-02
3.204445e+02	-1.828698e-02
3.222954e+02	-1.849839e-02
3.241570e+02	-1.871223e-02
3.260293e+02	-1.892854e-02
3.279124e+02	-1.914735e-02
3.298064e+02	-1.936868e-02
3.317114e+02	-1.959256e-02
3.336273e+02	-1.981903e-02
3.355544e+02	-2.004811e-02
3.374925e+02	-2.027982e-02
3.394418e+02	-2.051422e-02
3.414024e+02	-2.075131e-02
3.433744e+02	-2.099113e-02
3.453577e+02	-2.123373e-02
3.473525e+02	-2.147911e-02
3.493588e+02	-2.172733e-02
3.513766e+02	-2.197841e-02
3.534062e+02	-2.223238e-02
3.554474e+02	-2.248928e-02
3.575005e+02	-2.274914e-02
3.595654e+02	-2.301199e-02
3.616422e+02	-2.327787e-02
3.637311e+02	-2.354682e-02
3.658320e+02	-2.381887e-02
3.679450e+02	-2.409404e-02
3.700702e+02	-2.437239e-02
3.722077e+02	-2.465395e-02
3.743576e+02	-2.493875e-02
3.765199e+02	-2.522683e-02
3.786946e+02	-2.551823e-02
3.808820e+02	-2.581298e-02
3.830819e+02	-2.611113e-02
3.852946e+02	-2.641271e-02
3.875200e+02	-2.671777e-02
3.897583e+02	-2.702633e-02
3.920096e+02	-2.733845e-02
3.942738e+02	-2.765416e-02
3.965511e+02	-2.797351e-02
3.988416e+02	-2.829653e-02
4.011452e+02	-2.862327e-02
4.034622e+02	-2.895377e-02
4.057926e+02	-2.928807e-02
4.081365e+02	-2.962622e-02
4.104938e+02	-2.996826e-02
4.128648e+02	-3.031423e-02
4.152495e+02	-3.066419e-02
4.176480e+02	-3.101817e-02
4.200603e+02	-3.137622e-02
4.224866e+02	-3.173839e-02
4.249268e+02	-3.210472e-02
4.273812e+02	-3.247527e-02
4.298497e+02	-3.285007e-02
4.323325e+02	-3.322919e-02
4.348297e+02	-3.361267e-02
4.373412e+02	-3.400055e-02
4.398673e+02	-3.439289e-02
4.424079e+02	-3.478974e-02
4.449633e+02	-3.519115e-02
4.475334e+02	-3.559717e-02
4.501183e+02	-3.600786e-02
4.527182e+02	-3.642327e-02
4.553330e+02	-3.684345e-02
4.579630e+02	-3.726845e-02
4.606082e+02	-3.769834e-02
4.632687e+02	-3.813316e-02
4.659445e+02	-3.857298e-02
4.686358e+02	-3.901784e-02
4.713426e+02	-3.946781e-02
4.740650e+02	-3.992295e-02
4.768032e+02	-4.038331e-02
4.795572e+02	-4.084896e-02
4.823271e+02	-4.131995e-02
4.851130e+02	-4.179634e-02
4.879150e+02	-4.227820e-02
4.907332e+02	-4.276559e-02
4.935676e+02	-4.325856e-02
4.964185e+02	-4.375720e-02
4.992858e+02	-4.426155e-02
5.021696e+02	-4.477168e-02
5.050701e+02	-4.528766e-02
5.079874e+02	-4.580956e-02
5.109215e+02	-4.633743e-02
5.138726e+02	-4.687136e-02
5.168407e+02	-4.741141e-02
5.198259e+02	-4.795765e-02
5.228284e+02	-4.851014e-02
5.258482e+02	-4.906896e-02
5.288855e+02	-4.963418e-02
5.319403e+02	-5.020588e-02
5.350128e+02	-5.078412e-02
5.381030e+02	-5.136898e-02
5.412111e+02	-5.196054e-02
5.443371e+02	-5.255887e-02
5.474812e+02	-5.316404e-02
5.506434e+02	-5.377614e-02
5.538239e+02	-5.439524e-02
5.570228e+02	-5.502143e-02
5.602401e+02	-5.565478e-02
5.634760e+02	-5.629537e-02
5.667306e+02	-5.694328e-02
5.700040e+02	-5.759860e-02
5.732964e+02	-5.826142e-02
5.766077e+02	-5.893181e-02
5.799382e+02	-5.960986e-02
5.832879e+02	-6.029565e-02
5.866569e+02	-6.098928e-02
5.900454e+02	-6.169084e-02
5.934535e+02	-6.240040e-02
5.968813e+02	-6.311807e-02
6.003288e+02	-6.384393e-02
6.037963e+02	-6.457807e-02
6.072838e+02	-6.532060e-02
6.107914e+02	-6.607159e-02
6.143194e+02	-6.683116e-02
6.178676e+02	-6.759938e-02
6.214364e+02	-6.837637e-02
6.250258e+02	-6.916222e-02
6.286359e+02	-6.995703e-02
6.322669e+02	-7.076089e-02
6.359189e+02	-7.157392e-02
6.395919e+02	-7.239621e-02
6.432862e+02	-7.322787e-02
6.470017e+02	-7.406899e-02
6.507388e+02	-7.491970e-02
6.544974e+02	-7.578009e-02
6.582778e+02	-7.665028e-02
6.620800e+02	-7.753037e-02
6.659041e+02	-7.842047e-02
6.697504e+02	-7.932070e-02
6.736188e+02	-8.023116e-02
6.775096e+02	-8.115198e-02
6.814229e+02	-8.208327e-02
6.853587e+02	-8.302514e-02
6.893173e+02	-8.397771e-02
6.932988e+02	-8.494111e-02
6.973033e+02	-8.591545e-02
7.013309e+02	-8.690085e-02
