Frequency(Hz)	Magnitude(dB)
1.000000e+01	-1.829830e+00
1.005776e+01	-1.846982e+00
1.011585e+01	-1.864509e+00
1.017428e+01	-1.881880e+00
1.023305e+01	-1.899595e+00
1.029215e+01	-1.917537e+00
1.035160e+01	-1.935435e+00
1.041139e+01	-1.953288e+00
1.047153e+01	-1.971705e+00
1.053201e+01	-1.989642e+00
1.059284e+01	-2.008342e+00
1.065403e+01	-2.026906e+00
1.071556e+01	-2.045333e+00
1.077746e+01	-2.064420e+00
1.083971e+01	-2.083468e+00
1.090232e+01	-2.102642e+00
1.096529e+01	-2.121834e+00
1.102862e+01	-2.141210e+00
1.109232e+01	-2.160989e+00
1.115639e+01	-2.180400e+00
1.122083e+01	-2.200332e+00
1.128564e+01	-2.220179e+00
1.135083e+01	-2.240422e+00
1.141639e+01	-2.260685e+00
1.148233e+01	-2.280894e+00
1.154865e+01	-2.301769e+00
1.161536e+01	-2.321870e+00
1.168245e+01	-2.343166e+00
1.174992e+01	-2.363950e+00
1.181779e+01	-2.384985e+00
1.188605e+01	-2.406033e+00
1.195470e+01	-2.427447e+00
1.202375e+01	-2.448981e+00
1.209320e+01	-2.470563e+00
1.216305e+01	-2.492334e+00
1.223330e+01	-2.514350e+00
1.230396e+01	-2.536462e+00
1.237503e+01	-2.558462e+00
1.244651e+01	-2.580814e+00
1.251840e+01	-2.603279e+00
1.259070e+01	-2.625932e+00
1.266343e+01	-2.648651e+00
1.273657e+01	-2.671590e+00
1.281014e+01	-2.694542e+00
1.288413e+01	-2.717805e+00
1.295855e+01	-2.741292e+00
1.303339e+01	-2.764754e+00
1.310867e+01	-2.788433e+00
1.318439e+01	-2.811992e+00
1.326054e+01	-2.836077e+00
1.333713e+01	-2.860028e+00
1.341417e+01	-2.884274e+00
1.349165e+01	-2.908581e+00
1.356958e+01	-2.933183e+00
1.364795e+01	-2.957825e+00
1.372678e+01	-2.982578e+00
1.380607e+01	-3.007515e+00
1.388581e+01	-3.032585e+00
1.396602e+01	-3.057672e+00
1.404668e+01	-3.082942e+00
1.412782e+01	-3.108622e+00
1.420942e+01	-3.134154e+00
1.429149e+01	-3.160057e+00
1.437404e+01	-3.185922e+00
1.445706e+01	-3.212064e+00
1.454057e+01	-3.238266e+00
1.462455e+01	-3.264815e+00
1.470902e+01	-3.291245e+00
1.479398e+01	-3.317972e+00
1.487943e+01	-3.344676e+00
1.496537e+01	-3.371672e+00
1.505181e+01	-3.398400e+00
1.513875e+01	-3.425806e+00
1.522619e+01	-3.453257e+00
1.531414e+01	-3.480625e+00
1.540259e+01	-3.508387e+00
1.549156e+01	-3.535930e+00
1.558103e+01	-3.564236e+00
1.567103e+01	-3.592081e+00
1.576155e+01	-3.620139e+00
1.585258e+01	-3.648608e+00
1.594415e+01	-3.677509e+00
1.603624e+01	-3.705791e+00
1.612886e+01	-3.734534e+00
1.622202e+01	-3.763699e+00
1.631572e+01	-3.792741e+00
1.640996e+01	-3.821973e+00
1.650474e+01	-3.851370e+00
1.660008e+01	-3.880580e+00
1.669596e+01	-3.910356e+00
1.679239e+01	-3.940027e+00
1.688938e+01	-3.970039e+00
1.698694e+01	-4.000086e+00
1.708505e+01	-4.030274e+00
1.718373e+01	-4.060656e+00
1.728299e+01	-4.090857e+00
1.738281e+01	-4.121595e+00
1.748322e+01	-4.152199e+00
1.758420e+01	-4.183293e+00
1.768576e+01	-4.214325e+00
1.778792e+01	-4.245224e+00
1.789066e+01	-4.276340e+00
1.799399e+01	-4.307871e+00
1.809793e+01	-4.339576e+00
1.820246e+01	-4.371317e+00
1.830760e+01	-4.403103e+00
1.841334e+01	-4.434963e+00
1.851969e+01	-4.466989e+00
1.862666e+01	-4.499285e+00
1.873425e+01	-4.531615e+00
1.884246e+01	-4.564048e+00
1.895129e+01	-4.596921e+00
1.906075e+01	-4.629577e+00
1.917085e+01	-4.662399e+00
1.928158e+01	-4.695081e+00
1.939295e+01	-4.728308e+00
1.950496e+01	-4.761732e+00
1.961762e+01	-4.794758e+00
1.973093e+01	-4.828521e+00
1.984490e+01	-4.862159e+00
1.995952e+01	-4.895748e+00
2.007480e+01	-4.929549e+00
2.019076e+01	-4.963837e+00
2.030738e+01	-4.997722e+00
2.042467e+01	-5.032163e+00
2.054264e+01	-5.066415e+00
2.066130e+01	-5.100892e+00
2.078064e+01	-5.135667e+00
2.090066e+01	-5.170565e+00
2.102139e+01	-5.205321e+00
2.114280e+01	-5.240251e+00
2.126492e+01	-5.275777e+00
2.138775e+01	-5.310672e+00
2.151128e+01	-5.345903e+00
2.163553e+01	-5.381318e+00
2.176050e+01	-5.417215e+00
2.188619e+01	-5.452715e+00
2.201260e+01	-5.488839e+00
2.213974e+01	-5.524692e+00
2.226762e+01	-5.560628e+00
2.239624e+01	-5.596977e+00
2.252560e+01	-5.633132e+00
2.265571e+01	-5.669589e+00
2.278656e+01	-5.706160e+00
2.291818e+01	-5.742942e+00
2.305055e+01	-5.779445e+00
2.318369e+01	-5.816168e+00
2.331760e+01	-5.853285e+00
2.345228e+01	-5.890235e+00
2.358774e+01	-5.927548e+00
2.372398e+01	-5.964861e+00
2.386101e+01	-6.002306e+00
2.399883e+01	-6.039510e+00
2.413745e+01	-6.077319e+00
2.427686e+01	-6.115044e+00
2.441709e+01	-6.153269e+00
2.455812e+01	-6.191025e+00
2.469997e+01	-6.229022e+00
2.484263e+01	-6.266979e+00
2.498612e+01	-6.305203e+00
2.513044e+01	-6.343534e+00
2.527559e+01	-6.382162e+00
2.542158e+01	-6.420775e+00
2.556842e+01	-6.459061e+00
2.571610e+01	-6.498119e+00
2.586463e+01	-6.537144e+00
2.601403e+01	-6.576494e+00
2.616428e+01	-6.615041e+00
2.631541e+01	-6.654505e+00
2.646740e+01	-6.693405e+00
2.662028e+01	-6.732970e+00
2.677404e+01	-6.772395e+00
2.692868e+01	-6.811915e+00
2.708422e+01	-6.851626e+00
2.724066e+01	-6.891268e+00
2.739800e+01	-6.930859e+00
2.755625e+01	-6.971280e+00
2.771541e+01	-7.011317e+00
2.787550e+01	-7.051418e+00
2.803650e+01	-7.091305e+00
2.819844e+01	-7.131609e+00
2.836131e+01	-7.172324e+00
2.852513e+01	-7.212824e+00
2.868989e+01	-7.253435e+00
2.885560e+01	-7.294220e+00
2.902227e+01	-7.334531e+00
2.918990e+01	-7.375623e+00
2.935850e+01	-7.416273e+00
2.952807e+01	-7.457560e+00
2.969863e+01	-7.498275e+00
2.987016e+01	-7.539689e+00
3.004269e+01	-7.580910e+00
3.021622e+01	-7.621981e+00
3.039075e+01	-7.663880e+00
3.056628e+01	-7.705221e+00
3.074283e+01	-7.746574e+00
3.092040e+01	-7.787998e+00
3.109900e+01	-7.830204e+00
3.127862e+01	-7.872365e+00
3.145929e+01	-7.913638e+00
3.164099e+01	-7.955851e+00
3.182375e+01	-7.997970e+00
3.200756e+01	-8.039515e+00
3.219244e+01	-8.081592e+00
3.237838e+01	-8.124139e+00
3.256540e+01	-8.166766e+00
3.275349e+01	-8.209140e+00
3.294268e+01	-8.251676e+00
3.313295e+01	-8.294370e+00
3.332433e+01	-8.337191e+00
3.351681e+01	-8.379942e+00
3.371040e+01	-8.422855e+00
3.390511e+01	-8.465314e+00
3.410094e+01	-8.508315e+00
3.429791e+01	-8.551514e+00
3.449601e+01	-8.594074e+00
3.469526e+01	-8.637762e+00
3.489566e+01	-8.680506e+00
3.509721e+01	-8.724176e+00
3.529993e+01	-8.767257e+00
3.550382e+01	-8.811176e+00
3.570889e+01	-8.853924e+00
3.591515e+01	-8.898126e+00
3.612259e+01	-8.941329e+00
3.633123e+01	-8.984897e+00
3.654108e+01	-9.029233e+00
3.675214e+01	-9.072443e+00
3.696442e+01	-9.116529e+00
3.717792e+01	-9.160359e+00
3.739266e+01	-9.204450e+00
3.760864e+01	-9.248241e+00
3.782587e+01	-9.292644e+00
3.804435e+01	-9.336707e+00
3.826409e+01	-9.381130e+00
3.848510e+01	-9.425434e+00
3.870739e+01	-9.469518e+00
3.893096e+01	-9.513555e+00
3.915583e+01	-9.558431e+00
3.938199e+01	-9.602981e+00
3.960946e+01	-9.647534e+00
3.983824e+01	-9.692279e+00
4.006834e+01	-9.737113e+00
4.029978e+01	-9.781829e+00
4.053255e+01	-9.826000e+00
4.076666e+01	-9.871123e+00
4.100213e+01	-9.916087e+00
4.123896e+01	-9.960587e+00
4.147715e+01	-1.000612e+01
4.171672e+01	-1.005102e+01
4.195767e+01	-1.009650e+01
4.220002e+01	-1.014085e+01
4.244377e+01	-1.018665e+01
4.268892e+01	-1.023228e+01
4.293549e+01	-1.027696e+01
4.318348e+01	-1.032288e+01
4.343291e+01	-1.036786e+01
4.368377e+01	-1.041382e+01
4.393609e+01	-1.045905e+01
4.418986e+01	-1.050464e+01
4.444510e+01	-1.055024e+01
4.470182e+01	-1.059546e+01
4.496001e+01	-1.064105e+01
4.521970e+01	-1.068757e+01
4.548089e+01	-1.073325e+01
4.574358e+01	-1.077868e+01
4.600779e+01	-1.082455e+01
4.627353e+01	-1.087003e+01
4.654081e+01	-1.091659e+01
4.680963e+01	-1.096256e+01
4.708000e+01	-1.100798e+01
4.735193e+01	-1.105467e+01
4.762543e+01	-1.110129e+01
4.790051e+01	-1.114693e+01
4.817719e+01	-1.119304e+01
4.845545e+01	-1.123971e+01
4.873533e+01	-1.128585e+01
4.901682e+01	-1.133090e+01
4.929994e+01	-1.137846e+01
4.958470e+01	-1.142476e+01
4.987110e+01	-1.147098e+01
5.015915e+01	-1.151747e+01
5.044887e+01	-1.156479e+01
5.074026e+01	-1.161084e+01
5.103333e+01	-1.165718e+01
5.132810e+01	-1.170383e+01
5.162457e+01	-1.175050e+01
5.192275e+01	-1.179676e+01
5.222265e+01	-1.184402e+01
5.252429e+01	-1.189107e+01
5.282767e+01	-1.193749e+01
5.313280e+01	-1.198479e+01
5.343969e+01	-1.203093e+01
5.374836e+01	-1.207773e+01
5.405880e+01	-1.212523e+01
5.437105e+01	-1.217265e+01
5.468509e+01	-1.221847e+01
5.500095e+01	-1.226528e+01
5.531863e+01	-1.231306e+01
5.563815e+01	-1.236062e+01
5.595951e+01	-1.240748e+01
5.628273e+01	-1.245493e+01
5.660782e+01	-1.250198e+01
5.693479e+01	-1.254847e+01
5.726364e+01	-1.259656e+01
5.759439e+01	-1.264388e+01
5.792705e+01	-1.269082e+01
5.826164e+01	-1.273830e+01
5.859815e+01	-1.278561e+01
5.893662e+01	-1.283339e+01
5.927703e+01	-1.288061e+01
5.961941e+01	-1.292800e+01
5.996377e+01	-1.297594e+01
6.031012e+01	-1.302369e+01
6.065847e+01	-1.307040e+01
6.100883e+01	-1.311798e+01
6.136121e+01	-1.316519e+01
6.171563e+01	-1.321377e+01
6.207210e+01	-1.326124e+01
6.243063e+01	-1.330846e+01
6.279122e+01	-1.335671e+01
6.315390e+01	-1.340345e+01
6.351868e+01	-1.345118e+01
6.388556e+01	-1.349938e+01
6.425456e+01	-1.354794e+01
6.462569e+01	-1.359586e+01
6.499897e+01	-1.364301e+01
6.537440e+01	-1.369117e+01
6.575200e+01	-1.373877e+01
6.613178e+01	-1.378674e+01
6.651375e+01	-1.383451e+01
6.689793e+01	-1.388265e+01
6.728433e+01	-1.393104e+01
6.767297e+01	-1.397969e+01
6.806384e+01	-1.402725e+01
6.845698e+01	-1.407542e+01
6.885238e+01	-1.412244e+01
6.925007e+01	-1.417104e+01
6.965005e+01	-1.421858e+01
7.005235e+01	-1.426741e+01
7.045697e+01	-1.431598e+01
7.086393e+01	-1.436328e+01
7.127323e+01	-1.441219e+01
7.168490e+01	-1.446044e+01
7.209895e+01	-1.450917e+01
7.251539e+01	-1.455704e+01
7.293424e+01	-1.460431e+01
7.335551e+01	-1.465275e+01
7.377920e+01	-1.470174e+01
7.420535e+01	-1.475056e+01
7.463396e+01	-1.479866e+01
7.506504e+01	-1.484655e+01
7.549861e+01	-1.489490e+01
7.593469e+01	-1.494344e+01
7.637328e+01	-1.499209e+01
7.681441e+01	-1.504106e+01
7.725809e+01	-1.508996e+01
7.770433e+01	-1.513650e+01
7.815315e+01	-1.518584e+01
7.860456e+01	-1.523408e+01
7.905857e+01	-1.528226e+01
7.951521e+01	-1.533224e+01
7.997449e+01	-1.537962e+01
8.043642e+01	-1.542842e+01
8.090102e+01	-1.547617e+01
8.136830e+01	-1.552574e+01
8.183828e+01	-1.557416e+01
8.231097e+01	-1.562298e+01
8.278640e+01	-1.567265e+01
8.326457e+01	-1.572077e+01
8.374550e+01	-1.576908e+01
8.422921e+01	-1.581788e+01
8.471572e+01	-1.586734e+01
8.520503e+01	-1.591539e+01
8.569717e+01	-1.596475e+01
8.619215e+01	-1.601294e+01
8.669000e+01	-1.606167e+01
8.719071e+01	-1.611087e+01
8.769432e+01	-1.615959e+01
8.820084e+01	-1.620837e+01
8.871029e+01	-1.625724e+01
8.922267e+01	-1.630521e+01
8.973802e+01	-1.635478e+01
9.025634e+01	-1.640307e+01
9.077766e+01	-1.645179e+01
9.130199e+01	-1.650156e+01
9.182935e+01	-1.655038e+01
9.235975e+01	-1.659820e+01
9.289321e+01	-1.664776e+01
9.342976e+01	-1.669786e+01
9.396941e+01	-1.674577e+01
9.451217e+01	-1.679495e+01
9.505807e+01	-1.684449e+01
9.560712e+01	-1.689262e+01
9.615934e+01	-1.694318e+01
9.671476e+01	-1.699267e+01
9.727338e+01	-1.704059e+01
9.783522e+01	-1.708826e+01
9.840032e+01	-1.713763e+01
9.896867e+01	-1.718725e+01
9.954031e+01	-1.723562e+01
1.001153e+02	-1.728667e+01
1.006935e+02	-1.733442e+01
1.012751e+02	-1.738446e+01
1.018601e+02	-1.743306e+01
1.024484e+02	-1.748204e+01
1.030402e+02	-1.753112e+01
1.036353e+02	-1.758055e+01
1.042339e+02	-1.762950e+01
1.048360e+02	-1.767737e+01
1.054415e+02	-1.772746e+01
1.060505e+02	-1.777735e+01
1.066631e+02	-1.782626e+01
1.072791e+02	-1.787469e+01
1.078988e+02	-1.792446e+01
1.085220e+02	-1.797443e+01
1.091488e+02	-1.802327e+01
1.097793e+02	-1.807230e+01
1.104133e+02	-1.812266e+01
1.110511e+02	-1.817110e+01
1.116925e+02	-1.822142e+01
1.123376e+02	-1.827017e+01
1.129865e+02	-1.831757e+01
1.136391e+02	-1.836752e+01
1.142955e+02	-1.841734e+01
1.149556e+02	-1.846602e+01
1.156196e+02	-1.851639e+01
1.162874e+02	-1.856567e+01
1.169591e+02	-1.861431e+01
1.176347e+02	-1.866519e+01
1.183141e+02	-1.871231e+01
1.189975e+02	-1.876180e+01
1.196848e+02	-1.881120e+01
1.203761e+02	-1.886113e+01
1.210714e+02	-1.891036e+01
1.217707e+02	-1.895917e+01
1.224740e+02	-1.900868e+01
1.231814e+02	-1.905889e+01
1.238929e+02	-1.910900e+01
1.246085e+02	-1.915739e+01
1.253283e+02	-1.920686e+01
1.260522e+02	-1.925688e+01
1.267802e+02	-1.930629e+01
1.275125e+02	-1.935476e+01
1.282490e+02	-1.940617e+01
1.289898e+02	-1.945344e+01
1.297348e+02	-1.950415e+01
1.304842e+02	-1.955345e+01
1.312378e+02	-1.960385e+01
1.319959e+02	-1.965195e+01
1.327583e+02	-1.970211e+01
1.335251e+02	-1.975121e+01
1.342963e+02	-1.980313e+01
1.350720e+02	-1.985076e+01
1.358522e+02	-1.989905e+01
1.366368e+02	-1.995141e+01
1.374260e+02	-1.999786e+01
1.382198e+02	-2.004931e+01
1.390182e+02	-2.009694e+01
1.398211e+02	-2.014773e+01
1.406287e+02	-2.019622e+01
1.414410e+02	-2.024658e+01
1.422579e+02	-2.029591e+01
1.430796e+02	-2.034653e+01
1.439060e+02	-2.039583e+01
1.447372e+02	-2.044698e+01
1.455732e+02	-2.049508e+01
1.464141e+02	-2.054538e+01
1.472597e+02	-2.059353e+01
1.481103e+02	-2.064405e+01
1.489658e+02	-2.069223e+01
1.498262e+02	-2.074348e+01
1.506916e+02	-2.079189e+01
1.515620e+02	-2.084210e+01
1.524374e+02	-2.089283e+01
1.533179e+02	-2.094025e+01
1.542034e+02	-2.099174e+01
1.550941e+02	-2.104034e+01
1.559899e+02	-2.108940e+01
1.568909e+02	-2.114004e+01
1.577971e+02	-2.118936e+01
1.587085e+02	-2.123972e+01
1.596252e+02	-2.128912e+01
1.605472e+02	-2.133802e+01
1.614745e+02	-2.138725e+01
1.624072e+02	-2.143830e+01
1.633453e+02	-2.148559e+01
1.642887e+02	-2.153601e+01
1.652377e+02	-2.158636e+01
1.661921e+02	-2.163687e+01
1.671520e+02	-2.168695e+01
1.681175e+02	-2.173776e+01
1.690885e+02	-2.178555e+01
1.700651e+02	-2.183736e+01
1.710474e+02	-2.188601e+01
1.720354e+02	-2.193554e+01
1.730291e+02	-2.198482e+01
1.740285e+02	-2.203409e+01
1.750337e+02	-2.208545e+01
1.760446e+02	-2.213374e+01
1.770615e+02	-2.218333e+01
1.780842e+02	-2.223569e+01
1.791128e+02	-2.228345e+01
1.801473e+02	-2.233431e+01
1.811878e+02	-2.238221e+01
1.822344e+02	-2.243313e+01
1.832870e+02	-2.248153e+01
1.843456e+02	-2.253230e+01
1.854104e+02	-2.258099e+01
1.864813e+02	-2.263068e+01
1.875584e+02	-2.268193e+01
1.886418e+02	-2.273245e+01
1.897313e+02	-2.278176e+01
1.908272e+02	-2.282838e+01
1.919294e+02	-2.288348e+01
1.930380e+02	-2.292963e+01
1.941530e+02	-2.297969e+01
1.952744e+02	-2.302922e+01
1.964023e+02	-2.307686e+01
1.975367e+02	-2.312856e+01
1.986777e+02	-2.317913e+01
1.998252e+02	-2.323103e+01
2.009794e+02	-2.328004e+01
2.021403e+02	-2.333063e+01
2.033078e+02	-2.337672e+01
2.044821e+02	-2.342716e+01
2.056632e+02	-2.347840e+01
2.068511e+02	-2.352680e+01
2.080459e+02	-2.357468e+01
2.092475e+02	-2.362624e+01
2.104561e+02	-2.367764e+01
2.116717e+02	-2.372697e+01
2.128943e+02	-2.377783e+01
2.141240e+02	-2.382466e+01
2.153608e+02	-2.388103e+01
2.166047e+02	-2.392575e+01
2.178558e+02	-2.397507e+01
2.191141e+02	-2.402724e+01
2.203797e+02	-2.407971e+01
2.216526e+02	-2.412523e+01
2.229329e+02	-2.417625e+01
2.242205e+02	-2.422768e+01
2.255156e+02	-2.427606e+01
2.268182e+02	-2.432632e+01
2.281283e+02	-2.437788e+01
2.294459e+02	-2.442430e+01
2.307712e+02	-2.447401e+01
2.321041e+02	-2.452524e+01
2.334447e+02	-2.457272e+01
2.347931e+02	-2.462503e+01
2.361493e+02	-2.467337e+01
2.375133e+02	-2.472348e+01
2.388851e+02	-2.477460e+01
2.402649e+02	-2.482181e+01
2.416527e+02	-2.487461e+01
2.430484e+02	-2.492027e+01
2.444523e+02	-2.497386e+01
2.458642e+02	-2.502649e+01
2.472843e+02	-2.507528e+01
2.487126e+02	-2.512579e+01
2.501492e+02	-2.517064e+01
2.515940e+02	-2.522077e+01
2.530472e+02	-2.527434e+01
2.545088e+02	-2.532500e+01
2.559789e+02	-2.537331e+01
2.574574e+02	-2.542429e+01
2.589444e+02	-2.547401e+01
2.604401e+02	-2.552399e+01
2.619444e+02	-2.557431e+01
2.634574e+02	-2.562375e+01
2.649791e+02	-2.567232e+01
2.665096e+02	-2.572237e+01
2.680489e+02	-2.577026e+01
2.695972e+02	-2.582138e+01
2.711544e+02	-2.587369e+01
2.727205e+02	-2.592140e+01
2.742958e+02	-2.597086e+01
2.758801e+02	-2.602037e+01
2.774736e+02	-2.607232e+01
2.790762e+02	-2.612523e+01
2.806882e+02	-2.617237e+01
2.823094e+02	-2.622228e+01
2.839400e+02	-2.627301e+01
2.855800e+02	-2.632061e+01
2.872295e+02	-2.637256e+01
2.888886e+02	-2.642381e+01
2.905572e+02	-2.647300e+01
2.922354e+02	-2.652519e+01
2.939234e+02	-2.657524e+01
2.956211e+02	-2.662440e+01
2.973286e+02	-2.667251e+01
2.990459e+02	-2.672150e+01
3.007732e+02	-2.677190e+01
3.025104e+02	-2.682089e+01
3.042577e+02	-2.687165e+01
3.060151e+02	-2.692223e+01
3.077826e+02	-2.697388e+01
3.095604e+02	-2.702171e+01
3.113484e+02	-2.707317e+01
3.131467e+02	-2.712272e+01
3.149554e+02	-2.717146e+01
3.167746e+02	-2.722340e+01
3.186043e+02	-2.727560e+01
3.204445e+02	-2.732103e+01
3.222954e+02	-2.736752e+01
3.241570e+02	-2.742057e+01
3.260293e+02	-2.747427e+01
3.279124e+02	-2.752092e+01
3.298064e+02	-2.757297e+01
3.317114e+02	-2.762247e+01
3.336273e+02	-2.767439e+01
3.355544e+02	-2.772065e+01
3.374925e+02	-2.777116e+01
3.394418e+02	-2.782393e+01
3.414024e+02	-2.787227e+01
3.433744e+02	-2.791959e+01
3.453577e+02	-2.797450e+01
3.473525e+02	-2.802277e+01
3.493588e+02	-2.807222e+01
3.513766e+02	-2.812368e+01
3.534062e+02	-2.817225e+01
3.554474e+02	-2.822539e+01
3.575005e+02	-2.827579e+01
3.595654e+02	-2.832668e+01
3.616422e+02	-2.837380e+01
3.637311e+02	-2.842239e+01
3.658320e+02	-2.847717e+01
3.679450e+02	-2.852914e+01
3.700702e+02	-2.857244e+01
3.722077e+02	-2.862572e+01
3.743576e+02	-2.867430e+01
3.765199e+02	-2.872225e+01
3.786946e+02	-2.877153e+01
3.808820e+02	-2.882239e+01
3.830819e+02	-2.887114e+01
3.852946e+02	-2.892433e+01
3.875200e+02	-2.896815e+01
3.897583e+02	-2.902413e+01
3.920096e+02	-2.906730e+01
3.942738e+02	-2.913084e+01
3.965511e+02	-2.916912e+01
3.988416e+02	-2.922956e+01
4.011452e+02	-2.927168e+01
4.034622e+02	-2.932770e+01
4.057926e+02	-2.937066e+01
4.081365e+02	-2.942439e+01
4.104938e+02	-2.947186e+01
4.128648e+02	-2.952802e+01
4.152495e+02	-2.957237e+01
4.176480e+02	-2.962184e+01
4.200603e+02	-2.967999e+01
4.224866e+02	-2.972544e+01
4.249268e+02	-2.977636e+01
4.273812e+02	-2.982422e+01
4.298497e+02	-2.987868e+01
4.323325e+02	-2.992370e+01
4.348297e+02	-2.997275e+01
4.373412e+02	-3.002706e+01
4.398673e+02	-3.007493e+01
4.424079e+02	-3.013159e+01
4.449633e+02	-3.017384e+01
4.475334e+02	-3.022004e+01
4.501183e+02	-3.027497e+01
4.527182e+02	-3.033176e+01
4.553330e+02	-3.037941e+01
4.579630e+02	-3.042128e+01
4.606082e+02	-3.047929e+01
4.632687e+02	-3.052770e+01
4.659445e+02	-3.057532e+01
4.686358e+02	-3.062788e+01
4.713426e+02	-3.067822e+01
4.740650e+02	-3.073548e+01
4.768032e+02	-3.078047e+01
4.795572e+02	-3.082983e+01
4.823271e+02	-3.087545e+01
4.851130e+02	-3.093132e+01
4.879150e+02	-3.097217e+01
4.907332e+02	-3.102631e+01
4.935676e+02	-3.107796e+01
4.964185e+02	-3.112783e+01
4.992858e+02	-3.118188e+01
5.021696e+02	-3.122910e+01
5.050701e+02	-3.127703e+01
5.079874e+02	-3.133145e+01
5.109215e+02	-3.137742e+01
5.138726e+02	-3.142430e+01
5.168407e+02	-3.147691e+01
5.198259e+02	-3.153148e+01
5.228284e+02	-3.158302e+01
5.258482e+02	-3.162968e+01
5.288855e+02	-3.167939e+01
5.319403e+02	-3.173404e+01
5.350128e+02	-3.177154e+01
5.381030e+02	-3.182674e+01
5.412111e+02	-3.188431e+01
5.443371e+02	-3.193197e+01
5.474812e+02	-3.198622e+01
5.506434e+02	-3.203175e+01
5.538239e+02	-3.208340e+01
5.570228e+02	-3.213674e+01
5.602401e+02	-3.218146e+01
5.634760e+02	-3.224184e+01
5.667306e+02	-3.228544e+01
5.700040e+02	-3.233873e+01
5.732964e+02	-3.238085e+01
5.766077e+02	-3.243935e+01
5.799382e+02	-3.248446e+01
5.832879e+02	-3.253852e+01
5.866569e+02	-3.258701e+01
5.900454e+02	-3.263415e+01
5.934535e+02	-3.268084e+01
5.968813e+02	-3.273405e+01
6.003288e+02	-3.278605e+01
6.037963e+02	-3.283379e+01
6.072838e+02	-3.287896e+01
6.107914e+02	-3.293862e+01
6.143194e+02	-3.298444e+01
6.178676e+02	-3.304263e+01
6.214364e+02	-3.308839e+01
6.250258e+02	-3.313727e+01
6.286359e+02	-3.318534e+01
6.322669e+02	-3.323635e+01
6.359189e+02	-3.328649e+01
6.395919e+02	-3.333878e+01
6.432862e+02	-3.339087e+01
6.470017e+02	-3.343866e+01
6.507388e+02	-3.348668e+01
6.544974e+02	-3.354038e+01
6.582778e+02	-3.358791e+01
6.620800e+02	-3.364043e+01
6.659041e+02	-3.368138e+01
6.697504e+02	-3.373508e+01
6.736188e+02	-3.379495e+01
6.775096e+02	-3.384934e+01
6.814229e+02	-3.389438e+01
6.853587e+02	-3.394442e+01
6.893173e+02	-3.398753e+01
6.932988e+02	-3.404606e+01
6.973033e+02	-3.409608e+01
7.013309e+02	-3.414104e+01
