Frequency(Hz)	Magnitude(dB)
1.000000e+01	-1.687075e-05
1.005776e+01	-1.706620e-05
1.011585e+01	-1.726392e-05
1.017428e+01	-1.746393e-05
1.023305e+01	-1.766625e-05
1.029215e+01	-1.787092e-05
1.035160e+01	-1.807796e-05
1.041139e+01	-1.828740e-05
1.047153e+01	-1.849926e-05
1.053201e+01	-1.871358e-05
1.059284e+01	-1.893038e-05
1.065403e+01	-1.914969e-05
1.071556e+01	-1.937155e-05
1.077746e+01	-1.959597e-05
1.083971e+01	-1.982300e-05
1.090232e+01	-2.005265e-05
1.096529e+01	-2.028497e-05
1.102862e+01	-2.051997e-05
1.109232e+01	-2.075770e-05
1.115639e+01	-2.099818e-05
1.122083e+01	-2.124145e-05
1.128564e+01	-2.148754e-05
1.135083e+01	-2.173648e-05
1.141639e+01	-2.198830e-05
1.148233e+01	-2.224304e-05
1.154865e+01	-2.250073e-05
1.161536e+01	-2.276141e-05
1.168245e+01	-2.302511e-05
1.174992e+01	-2.329186e-05
1.181779e+01	-2.356170e-05
1.188605e+01	-2.383467e-05
1.195470e+01	-2.411080e-05
1.202375e+01	-2.439013e-05
1.209320e+01	-2.467269e-05
1.216305e+01	-2.495853e-05
1.223330e+01	-2.524768e-05
1.230396e+01	-2.554019e-05
1.237503e+01	-2.583607e-05
1.244651e+01	-2.613539e-05
1.251840e+01	-2.643818e-05
1.259070e+01	-2.674447e-05
1.266343e+01	-2.705431e-05
1.273657e+01	-2.736774e-05
1.281014e+01	-2.768480e-05
1.288413e+01	-2.800554e-05
1.295855e+01	-2.832999e-05
1.303339e+01	-2.865820e-05
1.310867e+01	-2.899021e-05
1.318439e+01	-2.932607e-05
1.326054e+01	-2.966582e-05
1.333713e+01	-3.000950e-05
1.341417e+01	-3.035717e-05
1.349165e+01	-3.070887e-05
1.356958e+01	-3.106464e-05
1.364795e+01	-3.142453e-05
1.372678e+01	-3.178859e-05
1.380607e+01	-3.215687e-05
1.388581e+01	-3.252941e-05
1.396602e+01	-3.290627e-05
1.404668e+01	-3.328750e-05
1.412782e+01	-3.367314e-05
1.420942e+01	-3.406325e-05
1.429149e+01	-3.445789e-05
1.437404e+01	-3.485709e-05
1.445706e+01	-3.526092e-05
1.454057e+01	-3.566942e-05
1.462455e+01	-3.608266e-05
1.470902e+01	-3.650069e-05
1.479398e+01	-3.692355e-05
1.487943e+01	-3.735132e-05
1.496537e+01	-3.778405e-05
1.505181e+01	-3.822178e-05
1.513875e+01	-3.866459e-05
1.522619e+01	-3.911253e-05
1.531414e+01	-3.956566e-05
1.540259e+01	-4.002403e-05
1.549156e+01	-4.048772e-05
1.558103e+01	-4.095678e-05
1.567103e+01	-4.143127e-05
1.576155e+01	-4.191126e-05
1.585258e+01	-4.239682e-05
1.594415e+01	-4.288799e-05
1.603624e+01	-4.338486e-05
1.612886e+01	-4.388748e-05
1.622202e+01	-4.439593e-05
1.631572e+01	-4.491027e-05
1.640996e+01	-4.543056e-05
1.650474e+01	-4.595688e-05
1.660008e+01	-4.648930e-05
1.669596e+01	-4.702789e-05
1.679239e+01	-4.757272e-05
1.688938e+01	-4.812386e-05
1.698694e+01	-4.868139e-05
1.708505e+01	-4.924537e-05
1.718373e+01	-4.981589e-05
1.728299e+01	-5.039302e-05
1.738281e+01	-5.097683e-05
1.748322e+01	-5.156741e-05
1.758420e+01	-5.216483e-05
1.768576e+01	-5.276917e-05
1.778792e+01	-5.338051e-05
1.789066e+01	-5.399893e-05
1.799399e+01	-5.462452e-05
1.809793e+01	-5.525736e-05
1.820246e+01	-5.589753e-05
1.830760e+01	-5.654511e-05
1.841334e+01	-5.720020e-05
1.851969e+01	-5.786287e-05
1.862666e+01	-5.853323e-05
1.873425e+01	-5.921135e-05
1.884246e+01	-5.989732e-05
1.895129e+01	-6.059124e-05
1.906075e+01	-6.129321e-05
1.917085e+01	-6.200330e-05
1.928158e+01	-6.272162e-05
1.939295e+01	-6.344826e-05
1.950496e+01	-6.418332e-05
1.961762e+01	-6.492690e-05
1.973093e+01	-6.567909e-05
1.984490e+01	-6.643999e-05
1.995952e+01	-6.720971e-05
2.007480e+01	-6.798835e-05
2.019076e+01	-6.877601e-05
2.030738e+01	-6.957279e-05
2.042467e+01	-7.037881e-05
2.054264e+01	-7.119416e-05
2.066130e+01	-7.201895e-05
2.078064e+01	-7.285331e-05
2.090066e+01	-7.369733e-05
2.102139e+01	-7.455112e-05
2.114280e+01	-7.541481e-05
2.126492e+01	-7.628850e-05
2.138775e+01	-7.717232e-05
2.151128e+01	-7.806638e-05
2.163553e+01	-7.897079e-05
2.176050e+01	-7.988568e-05
2.188619e+01	-8.081117e-05
2.201260e+01	-8.174738e-05
2.213974e+01	-8.269444e-05
2.226762e+01	-8.365247e-05
2.239624e+01	-8.462159e-05
2.252560e+01	-8.560195e-05
2.265571e+01	-8.659366e-05
2.278656e+01	-8.759686e-05
2.291818e+01	-8.861169e-05
2.305055e+01	-8.963827e-05
2.318369e+01	-9.067674e-05
2.331760e+01	-9.172724e-05
2.345228e+01	-9.278992e-05
2.358774e+01	-9.386490e-05
2.372398e+01	-9.495234e-05
2.386101e+01	-9.605238e-05
2.399883e+01	-9.716516e-05
2.413745e+01	-9.829083e-05
2.427686e+01	-9.942955e-05
2.441709e+01	-1.005815e-04
2.455812e+01	-1.017467e-04
2.469997e+01	-1.029255e-04
2.484263e+01	-1.041179e-04
2.498612e+01	-1.053241e-04
2.513044e+01	-1.065443e-04
2.527559e+01	-1.077786e-04
2.542158e+01	-1.090272e-04
2.556842e+01	-1.102903e-04
2.571610e+01	-1.115681e-04
2.586463e+01	-1.128606e-04
2.601403e+01	-1.141681e-04
2.616428e+01	-1.154907e-04
2.631541e+01	-1.168287e-04
2.646740e+01	-1.181822e-04
2.662028e+01	-1.195513e-04
2.677404e+01	-1.209364e-04
2.692868e+01	-1.223374e-04
2.708422e+01	-1.237547e-04
2.724066e+01	-1.251884e-04
2.739800e+01	-1.266388e-04
2.755625e+01	-1.281059e-04
2.771541e+01	-1.295900e-04
2.787550e+01	-1.310913e-04
2.803650e+01	-1.326100e-04
2.819844e+01	-1.341463e-04
2.836131e+01	-1.357004e-04
2.852513e+01	-1.372725e-04
2.868989e+01	-1.388628e-04
2.885560e+01	-1.404716e-04
2.902227e+01	-1.420989e-04
2.918990e+01	-1.437452e-04
2.935850e+01	-1.454105e-04
2.952807e+01	-1.470951e-04
2.969863e+01	-1.487992e-04
2.987016e+01	-1.505230e-04
3.004269e+01	-1.522668e-04
3.021622e+01	-1.540309e-04
3.039075e+01	-1.558153e-04
3.056628e+01	-1.576205e-04
3.074283e+01	-1.594465e-04
3.092040e+01	-1.612937e-04
3.109900e+01	-1.631623e-04
3.127862e+01	-1.650525e-04
3.145929e+01	-1.669647e-04
3.164099e+01	-1.688990e-04
3.182375e+01	-1.708557e-04
3.200756e+01	-1.728351e-04
3.219244e+01	-1.748374e-04
3.237838e+01	-1.768629e-04
3.256540e+01	-1.789118e-04
3.275349e+01	-1.809845e-04
3.294268e+01	-1.830812e-04
3.313295e+01	-1.852022e-04
3.332433e+01	-1.873478e-04
3.351681e+01	-1.895182e-04
3.371040e+01	-1.917138e-04
3.390511e+01	-1.939348e-04
3.410094e+01	-1.961816e-04
3.429791e+01	-1.984543e-04
3.449601e+01	-2.007534e-04
3.469526e+01	-2.030791e-04
3.489566e+01	-2.054318e-04
3.509721e+01	-2.078117e-04
3.529993e+01	-2.102192e-04
3.550382e+01	-2.126546e-04
3.570889e+01	-2.151182e-04
3.591515e+01	-2.176104e-04
3.612259e+01	-2.201314e-04
3.633123e+01	-2.226816e-04
3.654108e+01	-2.252614e-04
3.675214e+01	-2.278710e-04
3.696442e+01	-2.305109e-04
3.717792e+01	-2.331814e-04
3.739266e+01	-2.358828e-04
3.760864e+01	-2.386155e-04
3.782587e+01	-2.413798e-04
3.804435e+01	-2.441762e-04
3.826409e+01	-2.470049e-04
3.848510e+01	-2.498665e-04
3.870739e+01	-2.527612e-04
3.893096e+01	-2.556894e-04
3.915583e+01	-2.586515e-04
3.938199e+01	-2.616480e-04
3.960946e+01	-2.646792e-04
3.983824e+01	-2.677455e-04
4.006834e+01	-2.708473e-04
4.029978e+01	-2.739850e-04
4.053255e+01	-2.771591e-04
4.076666e+01	-2.803700e-04
4.100213e+01	-2.836180e-04
4.123896e+01	-2.869037e-04
4.147715e+01	-2.902275e-04
4.171672e+01	-2.935897e-04
4.195767e+01	-2.969909e-04
4.220002e+01	-3.004315e-04
4.244377e+01	-3.039120e-04
4.268892e+01	-3.074327e-04
4.293549e+01	-3.109943e-04
4.318348e+01	-3.145971e-04
4.343291e+01	-3.182417e-04
4.368377e+01	-3.219285e-04
4.393609e+01	-3.256580e-04
4.418986e+01	-3.294307e-04
4.444510e+01	-3.332471e-04
4.470182e+01	-3.371077e-04
4.496001e+01	-3.410130e-04
4.521970e+01	-3.449636e-04
4.548089e+01	-3.489599e-04
4.574358e+01	-3.530026e-04
4.600779e+01	-3.570920e-04
4.627353e+01	-3.612289e-04
4.654081e+01	-3.654136e-04
4.680963e+01	-3.696469e-04
4.708000e+01	-3.739291e-04
4.735193e+01	-3.782610e-04
4.762543e+01	-3.826431e-04
4.790051e+01	-3.870759e-04
4.817719e+01	-3.915601e-04
4.845545e+01	-3.960962e-04
4.873533e+01	-4.006849e-04
4.901682e+01	-4.053267e-04
4.929994e+01	-4.100223e-04
4.958470e+01	-4.147723e-04
4.987110e+01	-4.195773e-04
5.015915e+01	-4.244380e-04
5.044887e+01	-4.293550e-04
5.074026e+01	-4.343290e-04
5.103333e+01	-4.393605e-04
5.132810e+01	-4.444504e-04
5.162457e+01	-4.495992e-04
5.192275e+01	-4.548076e-04
5.222265e+01	-4.600764e-04
5.252429e+01	-4.654063e-04
5.282767e+01	-4.707978e-04
5.313280e+01	-4.762519e-04
5.343969e+01	-4.817691e-04
5.374836e+01	-4.873502e-04
5.405880e+01	-4.929959e-04
5.437105e+01	-4.987071e-04
5.468509e+01	-5.044844e-04
5.500095e+01	-5.103287e-04
5.531863e+01	-5.162406e-04
5.563815e+01	-5.222211e-04
5.595951e+01	-5.282708e-04
5.628273e+01	-5.343906e-04
5.660782e+01	-5.405812e-04
5.693479e+01	-5.468436e-04
5.726364e+01	-5.531785e-04
5.759439e+01	-5.595869e-04
5.792705e+01	-5.660694e-04
5.826164e+01	-5.726270e-04
5.859815e+01	-5.792606e-04
5.893662e+01	-5.859711e-04
5.927703e+01	-5.927593e-04
5.961941e+01	-5.996261e-04
5.996377e+01	-6.065724e-04
6.031012e+01	-6.135992e-04
6.065847e+01	-6.207074e-04
6.100883e+01	-6.278980e-04
6.136121e+01	-6.351718e-04
6.171563e+01	-6.425299e-04
6.207210e+01	-6.499732e-04
6.243063e+01	-6.575028e-04
6.279122e+01	-6.651196e-04
6.315390e+01	-6.728246e-04
6.351868e+01	-6.806188e-04
6.388556e+01	-6.885033e-04
6.425456e+01	-6.964792e-04
6.462569e+01	-7.045474e-04
6.499897e+01	-7.127091e-04
6.537440e+01	-7.209654e-04
6.575200e+01	-7.293173e-04
6.613178e+01	-7.377659e-04
6.651375e+01	-7.463124e-04
6.689793e+01	-7.549579e-04
6.728433e+01	-7.637035e-04
6.767297e+01	-7.725504e-04
6.806384e+01	-7.814998e-04
6.845698e+01	-7.905529e-04
6.885238e+01	-7.997108e-04
6.925007e+01	-8.089748e-04
6.965005e+01	-8.183461e-04
7.005235e+01	-8.278260e-04
7.045697e+01	-8.374157e-04
7.086393e+01	-8.471164e-04
7.127323e+01	-8.569295e-04
7.168490e+01	-8.668563e-04
7.209895e+01	-8.768980e-04
7.251539e+01	-8.870561e-04
7.293424e+01	-8.973318e-04
7.335551e+01	-9.077266e-04
7.377920e+01	-9.182417e-04
7.420535e+01	-9.288787e-04
7.463396e+01	-9.396388e-04
7.506504e+01	-9.505236e-04
7.549861e+01	-9.615344e-04
7.593469e+01	-9.726728e-04
7.637328e+01	-9.839402e-04
7.681441e+01	-9.953382e-04
7.725809e+01	-1.006868e-03
7.770433e+01	-1.018532e-03
7.815315e+01	-1.030330e-03
7.860456e+01	-1.042265e-03
7.905857e+01	-1.054339e-03
7.951521e+01	-1.066552e-03
7.997449e+01	-1.078907e-03
8.043642e+01	-1.091405e-03
8.090102e+01	-1.104047e-03
8.136830e+01	-1.116836e-03
8.183828e+01	-1.129774e-03
8.231097e+01	-1.142861e-03
8.278640e+01	-1.156099e-03
8.326457e+01	-1.169491e-03
8.374550e+01	-1.183038e-03
8.422921e+01	-1.196742e-03
8.471572e+01	-1.210605e-03
8.520503e+01	-1.224628e-03
8.569717e+01	-1.238813e-03
8.619215e+01	-1.253163e-03
8.669000e+01	-1.267680e-03
8.719071e+01	-1.282364e-03
8.769432e+01	-1.297218e-03
8.820084e+01	-1.312244e-03
8.871029e+01	-1.327445e-03
8.922267e+01	-1.342821e-03
8.973802e+01	-1.358376e-03
9.025634e+01	-1.374110e-03
9.077766e+01	-1.390027e-03
9.130199e+01	-1.406129e-03
9.182935e+01	-1.422416e-03
9.235975e+01	-1.438893e-03
9.289321e+01	-1.455560e-03
9.342976e+01	-1.472420e-03
9.396941e+01	-1.489475e-03
9.451217e+01	-1.506728e-03
9.505807e+01	-1.524181e-03
9.560712e+01	-1.541836e-03
9.615934e+01	-1.559695e-03
9.671476e+01	-1.577762e-03
9.727338e+01	-1.596037e-03
9.783522e+01	-1.614524e-03
9.840032e+01	-1.633225e-03
9.896867e+01	-1.652143e-03
9.954031e+01	-1.671280e-03
1.001153e+02	-1.690638e-03
1.006935e+02	-1.710221e-03
1.012751e+02	-1.730030e-03
1.018601e+02	-1.750069e-03
1.024484e+02	-1.770340e-03
1.030402e+02	-1.790846e-03
1.036353e+02	-1.811589e-03
1.042339e+02	-1.832572e-03
1.048360e+02	-1.853799e-03
1.054415e+02	-1.875271e-03
1.060505e+02	-1.896991e-03
1.066631e+02	-1.918964e-03
1.072791e+02	-1.941190e-03
1.078988e+02	-1.963675e-03
1.085220e+02	-1.986419e-03
1.091488e+02	-2.009427e-03
1.097793e+02	-2.032701e-03
1.104133e+02	-2.056245e-03
1.110511e+02	-2.080061e-03
1.116925e+02	-2.104154e-03
1.123376e+02	-2.128525e-03
1.129865e+02	-2.153178e-03
1.136391e+02	-2.178117e-03
1.142955e+02	-2.203345e-03
1.149556e+02	-2.228865e-03
1.156196e+02	-2.254680e-03
1.162874e+02	-2.280794e-03
1.169591e+02	-2.307211e-03
1.176347e+02	-2.333933e-03
1.183141e+02	-2.360965e-03
1.189975e+02	-2.388310e-03
1.196848e+02	-2.415971e-03
1.203761e+02	-2.443953e-03
1.210714e+02	-2.472259e-03
1.217707e+02	-2.500892e-03
1.224740e+02	-2.529857e-03
1.231814e+02	-2.559158e-03
1.238929e+02	-2.588798e-03
1.246085e+02	-2.618780e-03
1.253283e+02	-2.649110e-03
1.260522e+02	-2.679792e-03
1.267802e+02	-2.710828e-03
1.275125e+02	-2.742224e-03
1.282490e+02	-2.773983e-03
1.289898e+02	-2.806110e-03
1.297348e+02	-2.838609e-03
1.304842e+02	-2.871484e-03
1.312378e+02	-2.904740e-03
1.319959e+02	-2.938380e-03
1.327583e+02	-2.972411e-03
1.335251e+02	-3.006835e-03
1.342963e+02	-3.041658e-03
1.350720e+02	-3.076884e-03
1.358522e+02	-3.112517e-03
1.366368e+02	-3.148563e-03
1.374260e+02	-3.185027e-03
1.382198e+02	-3.221913e-03
1.390182e+02	-3.259225e-03
1.398211e+02	-3.296970e-03
1.406287e+02	-3.335152e-03
1.414410e+02	-3.373775e-03
1.422579e+02	-3.412846e-03
1.430796e+02	-3.452369e-03
1.439060e+02	-3.492349e-03
1.447372e+02	-3.532793e-03
1.455732e+02	-3.573704e-03
1.464141e+02	-3.615089e-03
1.472597e+02	-3.656953e-03
1.481103e+02	-3.699302e-03
1.489658e+02	-3.742141e-03
1.498262e+02	-3.785475e-03
1.506916e+02	-3.829312e-03
1.515620e+02	-3.873656e-03
1.524374e+02	-3.918513e-03
1.533179e+02	-3.963889e-03
1.542034e+02	-4.009790e-03
1.550941e+02	-4.056223e-03
1.559899e+02	-4.103193e-03
1.568909e+02	-4.150707e-03
1.577971e+02	-4.198771e-03
1.587085e+02	-4.247391e-03
1.596252e+02	-4.296573e-03
1.605472e+02	-4.346325e-03
1.614745e+02	-4.396653e-03
1.624072e+02	-4.447563e-03
1.633453e+02	-4.499063e-03
1.642887e+02	-4.551158e-03
1.652377e+02	-4.603857e-03
1.661921e+02	-4.657165e-03
1.671520e+02	-4.711090e-03
1.681175e+02	-4.765639e-03
1.690885e+02	-4.820819e-03
1.700651e+02	-4.876639e-03
1.710474e+02	-4.933103e-03
1.720354e+02	-4.990222e-03
1.730291e+02	-5.048001e-03
1.740285e+02	-5.106449e-03
1.750337e+02	-5.165573e-03
1.760446e+02	-5.225382e-03
1.770615e+02	-5.285882e-03
1.780842e+02	-5.347083e-03
1.791128e+02	-5.408991e-03
1.801473e+02	-5.471616e-03
1.811878e+02	-5.534966e-03
1.822344e+02	-5.599049e-03
1.832870e+02	-5.663873e-03
1.843456e+02	-5.729447e-03
1.854104e+02	-5.795779e-03
1.864813e+02	-5.862879e-03
1.875584e+02	-5.930756e-03
1.886418e+02	-5.999418e-03
1.897313e+02	-6.068874e-03
1.908272e+02	-6.139133e-03
1.919294e+02	-6.210206e-03
1.930380e+02	-6.282100e-03
1.941530e+02	-6.354827e-03
1.952744e+02	-6.428394e-03
1.964023e+02	-6.502813e-03
1.975367e+02	-6.578093e-03
1.986777e+02	-6.654243e-03
1.998252e+02	-6.731274e-03
2.009794e+02	-6.809196e-03
2.021403e+02	-6.888020e-03
2.033078e+02	-6.967755e-03
2.044821e+02	-7.048413e-03
2.056632e+02	-7.130003e-03
2.068511e+02	-7.212537e-03
2.080459e+02	-7.296026e-03
2.092475e+02	-7.380480e-03
2.104561e+02	-7.465911e-03
2.116717e+02	-7.552330e-03
2.128943e+02	-7.639749e-03
2.141240e+02	-7.728178e-03
2.153608e+02	-7.817630e-03
2.166047e+02	-7.908117e-03
2.178558e+02	-7.999650e-03
2.191141e+02	-8.092241e-03
2.203797e+02	-8.185903e-03
2.216526e+02	-8.280648e-03
2.229329e+02	-8.376489e-03
2.242205e+02	-8.473438e-03
2.255156e+02	-8.571508e-03
2.268182e+02	-8.670711e-03
2.281283e+02	-8.771062e-03
2.294459e+02	-8.872573e-03
2.307712e+02	-8.975257e-03
2.321041e+02	-9.079129e-03
2.334447e+02	-9.184201e-03
2.347931e+02	-9.290488e-03
2.361493e+02	-9.398004e-03
2.375133e+02	-9.506763e-03
2.388851e+02	-9.616779e-03
2.402649e+02	-9.728066e-03
2.416527e+02	-9.840640e-03
2.430484e+02	-9.954516e-03
2.444523e+02	-1.006971e-02
2.458642e+02	-1.018623e-02
2.472843e+02	-1.030410e-02
2.487126e+02	-1.042333e-02
2.501492e+02	-1.054394e-02
2.515940e+02	-1.066595e-02
2.530472e+02	-1.078936e-02
2.545088e+02	-1.091420e-02
2.559789e+02	-1.104048e-02
2.574574e+02	-1.116822e-02
2.589444e+02	-1.129744e-02
2.604401e+02	-1.142815e-02
2.619444e+02	-1.156037e-02
2.634574e+02	-1.169412e-02
2.649791e+02	-1.182942e-02
2.665096e+02	-1.196627e-02
2.680489e+02	-1.210471e-02
2.695972e+02	-1.224475e-02
2.711544e+02	-1.238641e-02
2.727205e+02	-1.252970e-02
2.742958e+02	-1.267464e-02
2.758801e+02	-1.282127e-02
2.774736e+02	-1.296958e-02
2.790762e+02	-1.311961e-02
2.806882e+02	-1.327137e-02
2.823094e+02	-1.342488e-02
2.839400e+02	-1.358017e-02
2.855800e+02	-1.373725e-02
2.872295e+02	-1.389614e-02
2.888886e+02	-1.405687e-02
2.905572e+02	-1.421946e-02
2.922354e+02	-1.438392e-02
2.939234e+02	-1.455028e-02
2.956211e+02	-1.471856e-02
2.973286e+02	-1.488879e-02
2.990459e+02	-1.506098e-02
3.007732e+02	-1.523516e-02
3.025104e+02	-1.541135e-02
3.042577e+02	-1.558957e-02
3.060151e+02	-1.576985e-02
3.077826e+02	-1.595221e-02
3.095604e+02	-1.613668e-02
3.113484e+02	-1.632327e-02
3.131467e+02	-1.651202e-02
3.149554e+02	-1.670295e-02
3.167746e+02	-1.689608e-02
3.186043e+02	-1.709143e-02
3.204445e+02	-1.728905e-02
3.222954e+02	-1.748894e-02
3.241570e+02	-1.769114e-02
3.260293e+02	-1.789567e-02
3.279124e+02	-1.810256e-02
3.298064e+02	-1.831184e-02
3.317114e+02	-1.852354e-02
3.336273e+02	-1.873767e-02
3.355544e+02	-1.895428e-02
3.374925e+02	-1.917338e-02
3.394418e+02	-1.939501e-02
3.414024e+02	-1.961920e-02
3.433744e+02	-1.984597e-02
3.453577e+02	-2.007536e-02
3.473525e+02	-2.030739e-02
3.493588e+02	-2.054210e-02
3.513766e+02	-2.077951e-02
3.534062e+02	-2.101966e-02
3.554474e+02	-2.126258e-02
3.575005e+02	-2.150830e-02
3.595654e+02	-2.175686e-02
3.616422e+02	-2.200828e-02
3.637311e+02	-2.226259e-02
3.658320e+02	-2.251984e-02
3.679450e+02	-2.278005e-02
3.700702e+02	-2.304326e-02
3.722077e+02	-2.330950e-02
3.743576e+02	-2.357881e-02
3.765199e+02	-2.385123e-02
3.786946e+02	-2.412678e-02
3.808820e+02	-2.440551e-02
3.830819e+02	-2.468744e-02
3.852946e+02	-2.497263e-02
3.875200e+02	-2.526110e-02
3.897583e+02	-2.555289e-02
3.920096e+02	-2.584804e-02
3.942738e+02	-2.614660e-02
3.965511e+02	-2.644859e-02
3.988416e+02	-2.675405e-02
4.011452e+02	-2.706304e-02
4.034622e+02	-2.737558e-02
4.057926e+02	-2.769172e-02
4.081365e+02	-2.801149e-02
4.104938e+02	-2.833495e-02
4.128648e+02	-2.866213e-02
4.152495e+02	-2.899308e-02
4.176480e+02	-2.932783e-02
4.200603e+02	-2.966644e-02
4.224866e+02	-3.000894e-02
4.249268e+02	-3.035538e-02
4.273812e+02	-3.070581e-02
4.298497e+02	-3.106027e-02
4.323325e+02	-3.141881e-02
4.348297e+02	-3.178147e-02
4.373412e+02	-3.214829e-02
4.398673e+02	-3.251934e-02
4.424079e+02	-3.289466e-02
4.449633e+02	-3.327428e-02
4.475334e+02	-3.365828e-02
4.501183e+02	-3.404668e-02
4.527182e+02	-3.443956e-02
4.553330e+02	-3.483694e-02
4.579630e+02	-3.523889e-02
4.606082e+02	-3.564547e-02
4.632687e+02	-3.605671e-02
4.659445e+02	-3.647268e-02
4.686358e+02	-3.689342e-02
4.713426e+02	-3.731900e-02
4.740650e+02	-3.774947e-02
4.768032e+02	-3.818488e-02
4.795572e+02	-3.862528e-02
4.823271e+02	-3.907075e-02
4.851130e+02	-3.952133e-02
4.879150e+02	-3.997708e-02
4.907332e+02	-4.043807e-02
4.935676e+02	-4.090434e-02
4.964185e+02	-4.137596e-02
4.992858e+02	-4.185300e-02
5.021696e+02	-4.233551e-02
5.050701e+02	-4.282355e-02
5.079874e+02	-4.331719e-02
5.109215e+02	-4.381650e-02
5.138726e+02	-4.432153e-02
5.168407e+02	-4.483235e-02
5.198259e+02	-4.534902e-02
5.228284e+02	-4.587162e-02
5.258482e+02	-4.640021e-02
5.288855e+02	-4.693486e-02
5.319403e+02	-4.747563e-02
5.350128e+02	-4.802260e-02
5.381030e+02	-4.857584e-02
5.412111e+02	-4.913541e-02
5.443371e+02	-4.970140e-02
5.474812e+02	-5.027386e-02
5.506434e+02	-5.085288e-02
5.538239e+02	-5.143853e-02
5.570228e+02	-5.203088e-02
5.602401e+02	-5.263001e-02
5.634760e+02	-5.323600e-02
5.667306e+02	-5.384893e-02
5.700040e+02	-5.446886e-02
5.732964e+02	-5.509589e-02
5.766077e+02	-5.573009e-02
5.799382e+02	-5.637154e-02
5.832879e+02	-5.702032e-02
5.866569e+02	-5.767653e-02
5.900454e+02	-5.834023e-02
5.934535e+02	-5.901152e-02
5.968813e+02	-5.969048e-02
6.003288e+02	-6.037719e-02
6.037963e+02	-6.107176e-02
6.072838e+02	-6.177425e-02
6.107914e+02	-6.248477e-02
6.143194e+02	-6.320340e-02
6.178676e+02	-6.393023e-02
6.214364e+02	-6.466536e-02
6.250258e+02	-6.540888e-02
6.286359e+02	-6.616088e-02
6.322669e+02	-6.692146e-02
6.359189e+02	-6.769072e-02
6.395919e+02	-6.846875e-02
6.432862e+02	-6.925565e-02
6.470017e+02	-7.005152e-02
6.507388e+02	-7.085646e-02
6.544974e+02	-7.167057e-02
6.582778e+02	-7.249396e-02
6.620800e+02	-7.332673e-02
6.659041e+02	-7.416899e-02
6.697504e+02	-7.502083e-02
6.736188e+02	-7.588237e-02
6.775096e+02	-7.675372e-02
6.814229e+02	-7.763499e-02
6.853587e+02	-7.852628e-02
6.893173e+02	-7.942771e-02
6.932988e+02	-8.033939e-02
6.973033e+02	-8.126144e-02
7.013309e+02	-8.219397e-02
