Frequency(Hz)	Magnitude(dB)
1.000000e+01	-2.341170e+00
1.005776e+01	-2.361970e+00
1.011585e+01	-2.382999e+00
1.017428e+01	-2.404341e+00
1.023305e+01	-2.425783e+00
1.029215e+01	-2.447101e+00
1.035160e+01	-2.468797e+00
1.041139e+01	-2.490605e+00
1.047153e+01	-2.512306e+00
1.053201e+01	-2.534792e+00
1.059284e+01	-2.556761e+00
1.065403e+01	-2.579083e+00
1.071556e+01	-2.601400e+00
1.077746e+01	-2.624176e+00
1.083971e+01	-2.646822e+00
1.090232e+01	-2.669842e+00
1.096529e+01	-2.692734e+00
1.102862e+01	-2.716097e+00
1.109232e+01	-2.739342e+00
1.115639e+01	-2.762937e+00
1.122083e+01	-2.786227e+00
1.128564e+01	-2.810355e+00
1.135083e+01	-2.834126e+00
1.141639e+01	-2.858186e+00
1.148233e+01	-2.882457e+00
1.154865e+01	-2.906478e+00
1.161536e+01	-2.931026e+00
1.168245e+01	-2.955868e+00
1.174992e+01	-2.980501e+00
1.181779e+01	-3.005427e+00
1.188605e+01	-3.030628e+00
1.195470e+01	-3.055645e+00
1.202375e+01	-3.081048e+00
1.209320e+01	-3.106463e+00
1.216305e+01	-3.132208e+00
1.223330e+01	-3.157753e+00
1.230396e+01	-3.183712e+00
1.237503e+01	-3.210101e+00
1.244651e+01	-3.236183e+00
1.251840e+01	-3.262242e+00
1.259070e+01	-3.289087e+00
1.266343e+01	-3.315516e+00
1.273657e+01	-3.342474e+00
1.281014e+01	-3.369511e+00
1.288413e+01	-3.396553e+00
1.295855e+01	-3.423501e+00
1.303339e+01	-3.450885e+00
1.310867e+01	-3.478348e+00
1.318439e+01	-3.506173e+00
1.326054e+01	-3.533905e+00
1.333713e+01	-3.561843e+00
1.341417e+01	-3.589766e+00
1.349165e+01	-3.618136e+00
1.356958e+01	-3.646345e+00
1.364795e+01	-3.674862e+00
1.372678e+01	-3.703899e+00
1.380607e+01	-3.732208e+00
1.388581e+01	-3.761332e+00
1.396602e+01	-3.790178e+00
1.404668e+01	-3.819623e+00
1.412782e+01	-3.848847e+00
1.420942e+01	-3.878326e+00
1.429149e+01	-3.907623e+00
1.437404e+01	-3.937527e+00
1.445706e+01	-3.967644e+00
1.454057e+01	-3.997350e+00
1.462455e+01	-4.027606e+00
1.470902e+01	-4.057942e+00
1.479398e+01	-4.088407e+00
1.487943e+01	-4.119049e+00
1.496537e+01	-4.149808e+00
1.505181e+01	-4.180149e+00
1.513875e+01	-4.211684e+00
1.522619e+01	-4.242551e+00
1.531414e+01	-4.274360e+00
1.540259e+01	-4.305658e+00
1.549156e+01	-4.336623e+00
1.558103e+01	-4.368495e+00
1.567103e+01	-4.400429e+00
1.576155e+01	-4.432562e+00
1.585258e+01	-4.464222e+00
1.594415e+01	-4.496610e+00
1.603624e+01	-4.528832e+00
1.612886e+01	-4.561143e+00
1.622202e+01	-4.593688e+00
1.631572e+01	-4.626631e+00
1.640996e+01	-4.659262e+00
1.650474e+01	-4.692616e+00
1.660008e+01	-4.725599e+00
1.669596e+01	-4.759283e+00
1.679239e+01	-4.792274e+00
1.688938e+01	-4.825626e+00
1.698694e+01	-4.859449e+00
1.708505e+01	-4.893021e+00
1.718373e+01	-4.927146e+00
1.728299e+01	-4.961218e+00
1.738281e+01	-4.995015e+00
1.748322e+01	-5.029189e+00
1.758420e+01	-5.063547e+00
1.768576e+01	-5.098193e+00
1.778792e+01	-5.132980e+00
1.789066e+01	-5.167591e+00
1.799399e+01	-5.202671e+00
1.809793e+01	-5.237274e+00
1.820246e+01	-5.272642e+00
1.830760e+01	-5.307836e+00
1.841334e+01	-5.342982e+00
1.851969e+01	-5.378494e+00
1.862666e+01	-5.414010e+00
1.873425e+01	-5.449869e+00
1.884246e+01	-5.485795e+00
1.895129e+01	-5.521593e+00
1.906075e+01	-5.557914e+00
1.917085e+01	-5.593809e+00
1.928158e+01	-5.630099e+00
1.939295e+01	-5.666618e+00
1.950496e+01	-5.702703e+00
1.961762e+01	-5.739963e+00
1.973093e+01	-5.776497e+00
1.984490e+01	-5.812747e+00
1.995952e+01	-5.850095e+00
2.007480e+01	-5.887432e+00
2.019076e+01	-5.924333e+00
2.030738e+01	-5.962106e+00
2.042467e+01	-5.999346e+00
2.054264e+01	-6.037079e+00
2.066130e+01	-6.074513e+00
2.078064e+01	-6.111820e+00
2.090066e+01	-6.149747e+00
2.102139e+01	-6.187524e+00
2.114280e+01	-6.225863e+00
2.126492e+01	-6.264050e+00
2.138775e+01	-6.302656e+00
2.151128e+01	-6.340619e+00
2.163553e+01	-6.378995e+00
2.176050e+01	-6.417578e+00
2.188619e+01	-6.456251e+00
2.201260e+01	-6.495156e+00
2.213974e+01	-6.534007e+00
2.226762e+01	-6.572997e+00
2.239624e+01	-6.611842e+00
2.252560e+01	-6.651333e+00
2.265571e+01	-6.689977e+00
2.278656e+01	-6.729788e+00
2.291818e+01	-6.769305e+00
2.305055e+01	-6.808550e+00
2.318369e+01	-6.848081e+00
2.331760e+01	-6.888419e+00
2.345228e+01	-6.927944e+00
2.358774e+01	-6.967884e+00
2.372398e+01	-7.007614e+00
2.386101e+01	-7.047521e+00
2.399883e+01	-7.087986e+00
2.413745e+01	-7.128659e+00
2.427686e+01	-7.169008e+00
2.441709e+01	-7.209327e+00
2.455812e+01	-7.250042e+00
2.469997e+01	-7.290293e+00
2.484263e+01	-7.331324e+00
2.498612e+01	-7.372044e+00
2.513044e+01	-7.413204e+00
2.527559e+01	-7.453973e+00
2.542158e+01	-7.495266e+00
2.556842e+01	-7.536187e+00
2.571610e+01	-7.577245e+00
2.586463e+01	-7.618726e+00
2.601403e+01	-7.659984e+00
2.616428e+01	-7.701669e+00
2.631541e+01	-7.743084e+00
2.646740e+01	-7.785084e+00
2.662028e+01	-7.827032e+00
2.677404e+01	-7.868574e+00
2.692868e+01	-7.910743e+00
2.708422e+01	-7.952459e+00
2.724066e+01	-7.994406e+00
2.739800e+01	-8.036635e+00
2.755625e+01	-8.078532e+00
2.771541e+01	-8.121171e+00
2.787550e+01	-8.163300e+00
2.803650e+01	-8.205654e+00
2.819844e+01	-8.248170e+00
2.836131e+01	-8.290733e+00
2.852513e+01	-8.333346e+00
2.868989e+01	-8.375951e+00
2.885560e+01	-8.419077e+00
2.902227e+01	-8.461657e+00
2.918990e+01	-8.505267e+00
2.935850e+01	-8.547783e+00
2.952807e+01	-8.590645e+00
2.969863e+01	-8.634148e+00
2.987016e+01	-8.677372e+00
3.004269e+01	-8.720515e+00
3.021622e+01	-8.764163e+00
3.039075e+01	-8.807192e+00
3.056628e+01	-8.850791e+00
3.074283e+01	-8.894381e+00
3.092040e+01	-8.937546e+00
3.109900e+01	-8.981827e+00
3.127862e+01	-9.025493e+00
3.145929e+01	-9.068548e+00
3.164099e+01	-9.112721e+00
3.182375e+01	-9.156692e+00
3.200756e+01	-9.201098e+00
3.219244e+01	-9.244882e+00
3.237838e+01	-9.288557e+00
3.256540e+01	-9.332854e+00
3.275349e+01	-9.377650e+00
3.294268e+01	-9.421230e+00
3.313295e+01	-9.465891e+00
3.332433e+01	-9.510722e+00
3.351681e+01	-9.554367e+00
3.371040e+01	-9.599269e+00
3.390511e+01	-9.644079e+00
3.410094e+01	-9.688336e+00
3.429791e+01	-9.732957e+00
3.449601e+01	-9.778197e+00
3.469526e+01	-9.822839e+00
3.489566e+01	-9.867651e+00
3.509721e+01	-9.912495e+00
3.529993e+01	-9.957488e+00
3.550382e+01	-1.000245e+01
3.570889e+01	-1.004748e+01
3.591515e+01	-1.009261e+01
3.612259e+01	-1.013783e+01
3.633123e+01	-1.018321e+01
3.654108e+01	-1.022810e+01
3.675214e+01	-1.027338e+01
3.696442e+01	-1.031898e+01
3.717792e+01	-1.036412e+01
3.739266e+01	-1.040958e+01
3.760864e+01	-1.045496e+01
3.782587e+01	-1.050104e+01
3.804435e+01	-1.054619e+01
3.826409e+01	-1.059200e+01
3.848510e+01	-1.063671e+01
3.870739e+01	-1.068332e+01
3.893096e+01	-1.072936e+01
3.915583e+01	-1.077468e+01
3.938199e+01	-1.082055e+01
3.960946e+01	-1.086652e+01
3.983824e+01	-1.091281e+01
4.006834e+01	-1.095860e+01
4.029978e+01	-1.100498e+01
4.053255e+01	-1.105061e+01
4.076666e+01	-1.109728e+01
4.100213e+01	-1.114298e+01
4.123896e+01	-1.118927e+01
4.147715e+01	-1.123552e+01
4.171672e+01	-1.128191e+01
4.195767e+01	-1.132835e+01
4.220002e+01	-1.137454e+01
4.244377e+01	-1.142149e+01
4.268892e+01	-1.146793e+01
4.293549e+01	-1.151385e+01
4.318348e+01	-1.156116e+01
4.343291e+01	-1.160691e+01
4.368377e+01	-1.165363e+01
4.393609e+01	-1.170019e+01
4.418986e+01	-1.174677e+01
4.444510e+01	-1.179341e+01
4.470182e+01	-1.184028e+01
4.496001e+01	-1.188670e+01
4.521970e+01	-1.193404e+01
4.548089e+01	-1.198061e+01
4.574358e+01	-1.202787e+01
4.600779e+01	-1.207390e+01
4.627353e+01	-1.212107e+01
4.654081e+01	-1.216847e+01
4.680963e+01	-1.221613e+01
4.708000e+01	-1.226197e+01
4.735193e+01	-1.230915e+01
4.762543e+01	-1.235606e+01
4.790051e+01	-1.240329e+01
4.817719e+01	-1.245095e+01
4.845545e+01	-1.249827e+01
4.873533e+01	-1.254507e+01
4.901682e+01	-1.259247e+01
4.929994e+01	-1.263983e+01
4.958470e+01	-1.268702e+01
4.987110e+01	-1.273407e+01
5.015915e+01	-1.278126e+01
5.044887e+01	-1.282919e+01
5.074026e+01	-1.287686e+01
5.103333e+01	-1.292471e+01
5.132810e+01	-1.297115e+01
5.162457e+01	-1.301924e+01
5.192275e+01	-1.306612e+01
5.222265e+01	-1.311448e+01
5.252429e+01	-1.316118e+01
5.282767e+01	-1.320905e+01
5.313280e+01	-1.325708e+01
5.343969e+01	-1.330457e+01
5.374836e+01	-1.335225e+01
5.405880e+01	-1.339984e+01
5.437105e+01	-1.344738e+01
5.468509e+01	-1.349610e+01
5.500095e+01	-1.354367e+01
5.531863e+01	-1.359118e+01
5.563815e+01	-1.363874e+01
5.595951e+01	-1.368734e+01
5.628273e+01	-1.373529e+01
5.660782e+01	-1.378332e+01
5.693479e+01	-1.383121e+01
5.726364e+01	-1.387866e+01
5.759439e+01	-1.392732e+01
5.792705e+01	-1.397456e+01
5.826164e+01	-1.402320e+01
5.859815e+01	-1.407106e+01
5.893662e+01	-1.411883e+01
5.927703e+01	-1.416703e+01
5.961941e+01	-1.421572e+01
5.996377e+01	-1.426343e+01
6.031012e+01	-1.431186e+01
6.065847e+01	-1.436020e+01
6.100883e+01	-1.440785e+01
6.136121e+01	-1.445619e+01
6.171563e+01	-1.450353e+01
6.207210e+01	-1.455235e+01
6.243063e+01	-1.460056e+01
6.279122e+01	-1.464911e+01
6.315390e+01	-1.469739e+01
6.351868e+01	-1.474527e+01
6.388556e+01	-1.479407e+01
6.425456e+01	-1.484280e+01
6.462569e+01	-1.489119e+01
6.499897e+01	-1.494051e+01
6.537440e+01	-1.498806e+01
6.575200e+01	-1.503648e+01
6.613178e+01	-1.508512e+01
6.651375e+01	-1.513385e+01
6.689793e+01	-1.518144e+01
6.728433e+01	-1.523024e+01
6.767297e+01	-1.527940e+01
6.806384e+01	-1.532698e+01
6.845698e+01	-1.537511e+01
6.885238e+01	-1.542488e+01
6.925007e+01	-1.547180e+01
6.965005e+01	-1.552190e+01
7.005235e+01	-1.557057e+01
7.045697e+01	-1.561994e+01
7.086393e+01	-1.566825e+01
7.127323e+01	-1.571605e+01
7.168490e+01	-1.576623e+01
7.209895e+01	-1.581318e+01
7.251539e+01	-1.586246e+01
7.293424e+01	-1.591077e+01
7.335551e+01	-1.595988e+01
7.377920e+01	-1.600847e+01
7.420535e+01	-1.605764e+01
7.463396e+01	-1.610688e+01
7.506504e+01	-1.615525e+01
7.549861e+01	-1.620429e+01
7.593469e+01	-1.625272e+01
7.637328e+01	-1.630189e+01
7.681441e+01	-1.635096e+01
7.725809e+01	-1.639834e+01
7.770433e+01	-1.644865e+01
7.815315e+01	-1.649752e+01
7.860456e+01	-1.654575e+01
7.905857e+01	-1.659674e+01
7.951521e+01	-1.664366e+01
7.997449e+01	-1.669302e+01
8.043642e+01	-1.674269e+01
8.090102e+01	-1.679106e+01
8.136830e+01	-1.684070e+01
8.183828e+01	-1.688870e+01
8.231097e+01	-1.693811e+01
8.278640e+01	-1.698767e+01
8.326457e+01	-1.703656e+01
8.374550e+01	-1.708514e+01
8.422921e+01	-1.713432e+01
8.471572e+01	-1.718274e+01
8.520503e+01	-1.723246e+01
8.569717e+01	-1.728083e+01
8.619215e+01	-1.733035e+01
8.669000e+01	-1.738035e+01
8.719071e+01	-1.742940e+01
8.769432e+01	-1.747843e+01
8.820084e+01	-1.752586e+01
8.871029e+01	-1.757642e+01
8.922267e+01	-1.762512e+01
8.973802e+01	-1.767429e+01
9.025634e+01	-1.772341e+01
9.077766e+01	-1.777201e+01
9.130199e+01	-1.782285e+01
9.182935e+01	-1.787056e+01
9.235975e+01	-1.792081e+01
9.289321e+01	-1.796983e+01
9.342976e+01	-1.801922e+01
9.396941e+01	-1.806840e+01
9.451217e+01	-1.811847e+01
9.505807e+01	-1.816709e+01
9.560712e+01	-1.821534e+01
9.615934e+01	-1.826488e+01
9.671476e+01	-1.831473e+01
9.727338e+01	-1.836424e+01
9.783522e+01	-1.841350e+01
9.840032e+01	-1.846166e+01
9.896867e+01	-1.851244e+01
9.954031e+01	-1.856053e+01
1.001153e+02	-1.860985e+01
1.006935e+02	-1.866044e+01
1.012751e+02	-1.870950e+01
1.018601e+02	-1.875879e+01
1.024484e+02	-1.880680e+01
1.030402e+02	-1.885721e+01
1.036353e+02	-1.890708e+01
1.042339e+02	-1.895507e+01
1.048360e+02	-1.900487e+01
1.054415e+02	-1.905423e+01
1.060505e+02	-1.910362e+01
1.066631e+02	-1.915380e+01
1.072791e+02	-1.920366e+01
1.078988e+02	-1.925269e+01
1.085220e+02	-1.930177e+01
1.091488e+02	-1.935170e+01
1.097793e+02	-1.940001e+01
1.104133e+02	-1.945133e+01
1.110511e+02	-1.949910e+01
1.116925e+02	-1.954886e+01
1.123376e+02	-1.959972e+01
1.129865e+02	-1.964811e+01
1.136391e+02	-1.969674e+01
1.142955e+02	-1.974629e+01
1.149556e+02	-1.979716e+01
1.156196e+02	-1.984727e+01
1.162874e+02	-1.989680e+01
1.169591e+02	-1.994581e+01
1.176347e+02	-1.999613e+01
1.183141e+02	-2.004367e+01
1.189975e+02	-2.009487e+01
1.196848e+02	-2.014449e+01
1.203761e+02	-2.019318e+01
1.210714e+02	-2.024311e+01
1.217707e+02	-2.029138e+01
1.224740e+02	-2.034152e+01
1.231814e+02	-2.039237e+01
1.238929e+02	-2.044004e+01
1.246085e+02	-2.048970e+01
1.253283e+02	-2.053988e+01
1.260522e+02	-2.058885e+01
1.267802e+02	-2.064058e+01
1.275125e+02	-2.068888e+01
1.282490e+02	-2.073953e+01
1.289898e+02	-2.078888e+01
1.297348e+02	-2.083833e+01
1.304842e+02	-2.088675e+01
1.312378e+02	-2.093785e+01
1.319959e+02	-2.098711e+01
1.327583e+02	-2.103582e+01
1.335251e+02	-2.108728e+01
1.342963e+02	-2.113756e+01
1.350720e+02	-2.118543e+01
1.358522e+02	-2.123573e+01
1.366368e+02	-2.128610e+01
1.374260e+02	-2.133502e+01
1.382198e+02	-2.138525e+01
1.390182e+02	-2.143367e+01
1.398211e+02	-2.148265e+01
1.406287e+02	-2.153496e+01
1.414410e+02	-2.158303e+01
1.422579e+02	-2.163085e+01
1.430796e+02	-2.168218e+01
1.439060e+02	-2.173337e+01
1.447372e+02	-2.178323e+01
1.455732e+02	-2.183000e+01
1.464141e+02	-2.188110e+01
1.472597e+02	-2.193122e+01
1.481103e+02	-2.197977e+01
1.489658e+02	-2.203132e+01
1.498262e+02	-2.207863e+01
1.506916e+02	-2.212943e+01
1.515620e+02	-2.217783e+01
1.524374e+02	-2.222976e+01
1.533179e+02	-2.228012e+01
1.542034e+02	-2.232879e+01
1.550941e+02	-2.237796e+01
1.559899e+02	-2.242919e+01
1.568909e+02	-2.247921e+01
1.577971e+02	-2.252908e+01
1.587085e+02	-2.257748e+01
1.596252e+02	-2.262923e+01
1.605472e+02	-2.267724e+01
1.614745e+02	-2.272750e+01
1.624072e+02	-2.277644e+01
1.633453e+02	-2.282759e+01
1.642887e+02	-2.287737e+01
1.652377e+02	-2.292485e+01
1.661921e+02	-2.297598e+01
1.671520e+02	-2.302360e+01
1.681175e+02	-2.307509e+01
1.690885e+02	-2.312669e+01
1.700651e+02	-2.317479e+01
1.710474e+02	-2.322560e+01
1.720354e+02	-2.327387e+01
1.730291e+02	-2.332521e+01
1.740285e+02	-2.337274e+01
1.750337e+02	-2.342353e+01
1.760446e+02	-2.347521e+01
1.770615e+02	-2.352324e+01
1.780842e+02	-2.357305e+01
1.791128e+02	-2.362419e+01
1.801473e+02	-2.367326e+01
1.811878e+02	-2.372343e+01
1.822344e+02	-2.377286e+01
1.832870e+02	-2.382525e+01
1.843456e+02	-2.387257e+01
1.854104e+02	-2.392150e+01
1.864813e+02	-2.397148e+01
1.875584e+02	-2.402249e+01
1.886418e+02	-2.407145e+01
1.897313e+02	-2.412086e+01
1.908272e+02	-2.417188e+01
1.919294e+02	-2.422198e+01
1.930380e+02	-2.427221e+01
1.941530e+02	-2.432437e+01
1.952744e+02	-2.437173e+01
1.964023e+02	-2.442558e+01
1.975367e+02	-2.447046e+01
1.986777e+02	-2.452346e+01
1.998252e+02	-2.456986e+01
2.009794e+02	-2.462488e+01
2.021403e+02	-2.467148e+01
2.033078e+02	-2.471936e+01
2.044821e+02	-2.476902e+01
2.056632e+02	-2.482032e+01
2.068511e+02	-2.486834e+01
2.080459e+02	-2.492065e+01
2.092475e+02	-2.497132e+01
2.104561e+02	-2.502000e+01
2.116717e+02	-2.507182e+01
2.128943e+02	-2.511910e+01
2.141240e+02	-2.517041e+01
2.153608e+02	-2.521573e+01
2.166047e+02	-2.526870e+01
2.178558e+02	-2.531940e+01
2.191141e+02	-2.537014e+01
2.203797e+02	-2.541675e+01
2.216526e+02	-2.546860e+01
2.229329e+02	-2.551752e+01
2.242205e+02	-2.556805e+01
2.255156e+02	-2.562117e+01
2.268182e+02	-2.567139e+01
2.281283e+02	-2.571973e+01
2.294459e+02	-2.577463e+01
2.307712e+02	-2.581942e+01
2.321041e+02	-2.586825e+01
2.334447e+02	-2.591872e+01
2.347931e+02	-2.596815e+01
2.361493e+02	-2.601716e+01
2.375133e+02	-2.606763e+01
2.388851e+02	-2.611697e+01
2.402649e+02	-2.616961e+01
2.416527e+02	-2.621503e+01
2.430484e+02	-2.627067e+01
2.444523e+02	-2.632162e+01
2.458642e+02	-2.636922e+01
2.472843e+02	-2.641957e+01
2.487126e+02	-2.646653e+01
2.501492e+02	-2.651419e+01
2.515940e+02	-2.656847e+01
2.530472e+02	-2.662180e+01
2.545088e+02	-2.666916e+01
2.559789e+02	-2.671992e+01
2.574574e+02	-2.676838e+01
2.589444e+02	-2.681500e+01
2.604401e+02	-2.686801e+01
2.619444e+02	-2.691639e+01
2.634574e+02	-2.697086e+01
2.649791e+02	-2.701543e+01
2.665096e+02	-2.706560e+01
2.680489e+02	-2.711908e+01
2.695972e+02	-2.717068e+01
2.711544e+02	-2.721437e+01
2.727205e+02	-2.727216e+01
2.742958e+02	-2.732139e+01
2.758801e+02	-2.737054e+01
2.774736e+02	-2.742032e+01
2.790762e+02	-2.746619e+01
2.806882e+02	-2.751809e+01
2.823094e+02	-2.756586e+01
2.839400e+02	-2.761904e+01
2.855800e+02	-2.767126e+01
2.872295e+02	-2.771688e+01
2.888886e+02	-2.776627e+01
2.905572e+02	-2.781828e+01
2.922354e+02	-2.786786e+01
2.939234e+02	-2.792261e+01
2.956211e+02	-2.796674e+01
2.973286e+02	-2.801805e+01
2.990459e+02	-2.806742e+01
3.007732e+02	-2.811557e+01
3.025104e+02	-2.816534e+01
3.042577e+02	-2.821900e+01
3.060151e+02	-2.826823e+01
3.077826e+02	-2.831829e+01
3.095604e+02	-2.836803e+01
3.113484e+02	-2.841489e+01
3.131467e+02	-2.847029e+01
3.149554e+02	-2.852111e+01
3.167746e+02	-2.856497e+01
3.186043e+02	-2.861496e+01
3.204445e+02	-2.866739e+01
3.222954e+02	-2.871626e+01
3.241570e+02	-2.876591e+01
3.260293e+02	-2.881861e+01
3.279124e+02	-2.887195e+01
3.298064e+02	-2.892428e+01
3.317114e+02	-2.896780e+01
3.336273e+02	-2.902179e+01
3.355544e+02	-2.906937e+01
3.374925e+02	-2.911988e+01
3.394418e+02	-2.916697e+01
3.414024e+02	-2.921771e+01
3.433744e+02	-2.926626e+01
3.453577e+02	-2.931899e+01
3.473525e+02	-2.936603e+01
3.493588e+02	-2.941369e+01
3.513766e+02	-2.947207e+01
3.534062e+02	-2.951817e+01
3.554474e+02	-2.956213e+01
3.575005e+02	-2.961936e+01
3.595654e+02	-2.967245e+01
3.616422e+02	-2.971805e+01
3.637311e+02	-2.977197e+01
3.658320e+02	-2.981706e+01
3.679450e+02	-2.986856e+01
3.700702e+02	-2.992173e+01
3.722077e+02	-2.997700e+01
3.743576e+02	-3.001997e+01
3.765199e+02	-3.006567e+01
3.786946e+02	-3.012049e+01
3.808820e+02	-3.017816e+01
3.830819e+02	-3.021828e+01
3.852946e+02	-3.027158e+01
3.875200e+02	-3.031684e+01
3.897583e+02	-3.036524e+01
3.920096e+02	-3.041575e+01
3.942738e+02	-3.047299e+01
3.965511e+02	-3.052088e+01
3.988416e+02	-3.057272e+01
4.011452e+02	-3.062311e+01
4.034622e+02	-3.067059e+01
4.057926e+02	-3.072349e+01
4.081365e+02	-3.077357e+01
4.104938e+02	-3.081805e+01
4.128648e+02	-3.087240e+01
4.152495e+02	-3.092486e+01
4.176480e+02	-3.097144e+01
4.200603e+02	-3.102356e+01
4.224866e+02	-3.107841e+01
4.249268e+02	-3.112650e+01
4.273812e+02	-3.117129e+01
4.298497e+02	-3.122802e+01
4.323325e+02	-3.127594e+01
4.348297e+02	-3.132456e+01
4.373412e+02	-3.137850e+01
4.398673e+02	-3.142229e+01
4.424079e+02	-3.147105e+01
4.449633e+02	-3.152051e+01
4.475334e+02	-3.157395e+01
4.501183e+02	-3.161800e+01
4.527182e+02	-3.167041e+01
4.553330e+02	-3.172981e+01
4.579630e+02	-3.177942e+01
4.606082e+02	-3.182490e+01
4.632687e+02	-3.187416e+01
4.659445e+02	-3.192300e+01
4.686358e+02	-3.197564e+01
4.713426e+02	-3.202907e+01
4.740650e+02	-3.207809e+01
4.768032e+02	-3.213215e+01
4.795572e+02	-3.217955e+01
4.823271e+02	-3.223624e+01
4.851130e+02	-3.227118e+01
4.879150e+02	-3.233006e+01
4.907332e+02	-3.237504e+01
4.935676e+02	-3.242913e+01
4.964185e+02	-3.248438e+01
4.992858e+02	-3.253153e+01
5.021696e+02	-3.258010e+01
5.050701e+02	-3.262876e+01
5.079874e+02	-3.268032e+01
5.109215e+02	-3.271784e+01
5.138726e+02	-3.277509e+01
5.168407e+02	-3.282605e+01
5.198259e+02	-3.287542e+01
5.228284e+02	-3.293500e+01
5.258482e+02	-3.298026e+01
5.288855e+02	-3.302661e+01
5.319403e+02	-3.307923e+01
5.350128e+02	-3.312958e+01
5.381030e+02	-3.318132e+01
5.412111e+02	-3.323044e+01
5.443371e+02	-3.328241e+01
5.474812e+02	-3.333039e+01
5.506434e+02	-3.338529e+01
5.538239e+02	-3.343095e+01
5.570228e+02	-3.349412e+01
5.602401e+02	-3.352583e+01
5.634760e+02	-3.357928e+01
5.667306e+02	-3.363406e+01
5.700040e+02	-3.369130e+01
5.732964e+02	-3.372806e+01
5.766077e+02	-3.378414e+01
5.799382e+02	-3.383450e+01
5.832879e+02	-3.388401e+01
5.866569e+02	-3.393242e+01
5.900454e+02	-3.398501e+01
5.934535e+02	-3.404643e+01
5.968813e+02	-3.409564e+01
6.003288e+02	-3.414256e+01
6.037963e+02	-3.418758e+01
6.072838e+02	-3.424010e+01
6.107914e+02	-3.428860e+01
6.143194e+02	-3.433019e+01
6.178676e+02	-3.438507e+01
6.214364e+02	-3.443995e+01
6.250258e+02	-3.448848e+01
6.286359e+02	-3.454223e+01
6.322669e+02	-3.458776e+01
6.359189e+02	-3.464489e+01
6.395919e+02	-3.469127e+01
6.432862e+02	-3.474144e+01
6.470017e+02	-3.478884e+01
6.507388e+02	-3.484835e+01
6.544974e+02	-3.489180e+01
6.582778e+02	-3.494573e+01
6.620800e+02	-3.498785e+01
6.659041e+02	-3.504386e+01
6.697504e+02	-3.509746e+01
6.736188e+02	-3.514435e+01
6.775096e+02	-3.518925e+01
6.814229e+02	-3.524320e+01
6.853587e+02	-3.529419e+01
6.893173e+02	-3.534196e+01
6.932988e+02	-3.539573e+01
6.973033e+02	-3.545730e+01
7.013309e+02	-3.550088e+01
