Frequency(Hz)	Magnitude(dB)
1.000000e+01	-1.980553e+00
1.005776e+01	-1.999081e+00
1.011585e+01	-2.017683e+00
1.017428e+01	-2.036165e+00
1.023305e+01	-2.055073e+00
1.029215e+01	-2.073939e+00
1.035160e+01	-2.093016e+00
1.041139e+01	-2.112319e+00
1.047153e+01	-2.131612e+00
1.053201e+01	-2.150779e+00
1.059284e+01	-2.170671e+00
1.065403e+01	-2.190330e+00
1.071556e+01	-2.210328e+00
1.077746e+01	-2.230175e+00
1.083971e+01	-2.250146e+00
1.090232e+01	-2.270758e+00
1.096529e+01	-2.291202e+00
1.102862e+01	-2.311646e+00
1.109232e+01	-2.332355e+00
1.115639e+01	-2.353257e+00
1.122083e+01	-2.374424e+00
1.128564e+01	-2.395403e+00
1.135083e+01	-2.416756e+00
1.141639e+01	-2.438148e+00
1.148233e+01	-2.459743e+00
1.154865e+01	-2.481431e+00
1.161536e+01	-2.503423e+00
1.168245e+01	-2.525392e+00
1.174992e+01	-2.547477e+00
1.181779e+01	-2.569616e+00
1.188605e+01	-2.592214e+00
1.195470e+01	-2.614631e+00
1.202375e+01	-2.637311e+00
1.209320e+01	-2.660261e+00
1.216305e+01	-2.683137e+00
1.223330e+01	-2.706323e+00
1.230396e+01	-2.729622e+00
1.237503e+01	-2.753090e+00
1.244651e+01	-2.776619e+00
1.251840e+01	-2.800077e+00
1.259070e+01	-2.824216e+00
1.266343e+01	-2.848077e+00
1.273657e+01	-2.872114e+00
1.281014e+01	-2.896549e+00
1.288413e+01	-2.920895e+00
1.295855e+01	-2.945387e+00
1.303339e+01	-2.970116e+00
1.310867e+01	-2.995035e+00
1.318439e+01	-3.020090e+00
1.326054e+01	-3.045227e+00
1.333713e+01	-3.070634e+00
1.341417e+01	-3.095958e+00
1.349165e+01	-3.121533e+00
1.356958e+01	-3.147123e+00
1.364795e+01	-3.172929e+00
1.372678e+01	-3.198995e+00
1.380607e+01	-3.225377e+00
1.388581e+01	-3.251493e+00
1.396602e+01	-3.277812e+00
1.404668e+01	-3.304317e+00
1.412782e+01	-3.331224e+00
1.420942e+01	-3.358198e+00
1.429149e+01	-3.385258e+00
1.437404e+01	-3.412280e+00
1.445706e+01	-3.439584e+00
1.454057e+01	-3.467053e+00
1.462455e+01	-3.494776e+00
1.470902e+01	-3.522357e+00
1.479398e+01	-3.550091e+00
1.487943e+01	-3.578290e+00
1.496537e+01	-3.606167e+00
1.505181e+01	-3.634276e+00
1.513875e+01	-3.662548e+00
1.522619e+01	-3.691609e+00
1.531414e+01	-3.720243e+00
1.540259e+01	-3.749075e+00
1.549156e+01	-3.778177e+00
1.558103e+01	-3.807184e+00
1.567103e+01	-3.836559e+00
1.576155e+01	-3.865804e+00
1.585258e+01	-3.895283e+00
1.594415e+01	-3.925204e+00
1.603624e+01	-3.955141e+00
1.612886e+01	-3.985162e+00
1.622202e+01	-4.015192e+00
1.631572e+01	-4.045528e+00
1.640996e+01	-4.076038e+00
1.650474e+01	-4.106378e+00
1.660008e+01	-4.136979e+00
1.669596e+01	-4.167777e+00
1.679239e+01	-4.198800e+00
1.688938e+01	-4.229657e+00
1.698694e+01	-4.261208e+00
1.708505e+01	-4.292221e+00
1.718373e+01	-4.323689e+00
1.728299e+01	-4.355347e+00
1.738281e+01	-4.386914e+00
1.748322e+01	-4.418809e+00
1.758420e+01	-4.451149e+00
1.768576e+01	-4.482865e+00
1.778792e+01	-4.515261e+00
1.789066e+01	-4.547718e+00
1.799399e+01	-4.580387e+00
1.809793e+01	-4.612797e+00
1.820246e+01	-4.645789e+00
1.830760e+01	-4.678913e+00
1.841334e+01	-4.711827e+00
1.851969e+01	-4.745028e+00
1.862666e+01	-4.778380e+00
1.873425e+01	-4.811478e+00
1.884246e+01	-4.845211e+00
1.895129e+01	-4.878960e+00
1.906075e+01	-4.912808e+00
1.917085e+01	-4.946838e+00
1.928158e+01	-4.980817e+00
1.939295e+01	-5.014805e+00
1.950496e+01	-5.049516e+00
1.961762e+01	-5.083698e+00
1.973093e+01	-5.118433e+00
1.984490e+01	-5.153229e+00
1.995952e+01	-5.188038e+00
2.007480e+01	-5.222691e+00
2.019076e+01	-5.257739e+00
2.030738e+01	-5.292950e+00
2.042467e+01	-5.328299e+00
2.054264e+01	-5.363247e+00
2.066130e+01	-5.399208e+00
2.078064e+01	-5.434750e+00
2.090066e+01	-5.470910e+00
2.102139e+01	-5.506568e+00
2.114280e+01	-5.542674e+00
2.126492e+01	-5.578823e+00
2.138775e+01	-5.614801e+00
2.151128e+01	-5.651036e+00
2.163553e+01	-5.687888e+00
2.176050e+01	-5.724519e+00
2.188619e+01	-5.761144e+00
2.201260e+01	-5.798201e+00
2.213974e+01	-5.834393e+00
2.226762e+01	-5.871719e+00
2.239624e+01	-5.908719e+00
2.252560e+01	-5.946198e+00
2.265571e+01	-5.983458e+00
2.278656e+01	-6.020824e+00
2.291818e+01	-6.058744e+00
2.305055e+01	-6.096382e+00
2.318369e+01	-6.133891e+00
2.331760e+01	-6.171844e+00
2.345228e+01	-6.210038e+00
2.358774e+01	-6.248362e+00
2.372398e+01	-6.286293e+00
2.386101e+01	-6.324517e+00
2.399883e+01	-6.362883e+00
2.413745e+01	-6.401549e+00
2.427686e+01	-6.439923e+00
2.441709e+01	-6.479283e+00
2.455812e+01	-6.517472e+00
2.469997e+01	-6.556874e+00
2.484263e+01	-6.595699e+00
2.498612e+01	-6.634904e+00
2.513044e+01	-6.674137e+00
2.527559e+01	-6.713302e+00
2.542158e+01	-6.752638e+00
2.556842e+01	-6.792242e+00
2.571610e+01	-6.831950e+00
2.586463e+01	-6.871625e+00
2.601403e+01	-6.911554e+00
2.616428e+01	-6.951681e+00
2.631541e+01	-6.991280e+00
2.646740e+01	-7.031442e+00
2.662028e+01	-7.071417e+00
2.677404e+01	-7.111595e+00
2.692868e+01	-7.152098e+00
2.708422e+01	-7.192384e+00
2.724066e+01	-7.232617e+00
2.739800e+01	-7.273739e+00
2.755625e+01	-7.314133e+00
2.771541e+01	-7.355092e+00
2.787550e+01	-7.395842e+00
2.803650e+01	-7.437173e+00
2.819844e+01	-7.477722e+00
2.836131e+01	-7.518957e+00
2.852513e+01	-7.560194e+00
2.868989e+01	-7.601939e+00
2.885560e+01	-7.642760e+00
2.902227e+01	-7.684312e+00
2.918990e+01	-7.726128e+00
2.935850e+01	-7.768197e+00
2.952807e+01	-7.809580e+00
2.969863e+01	-7.851437e+00
2.987016e+01	-7.892633e+00
3.004269e+01	-7.934545e+00
3.021622e+01	-7.976860e+00
3.039075e+01	-8.019245e+00
3.056628e+01	-8.061191e+00
3.074283e+01	-8.103351e+00
3.092040e+01	-8.145404e+00
3.109900e+01	-8.188107e+00
3.127862e+01	-8.231035e+00
3.145929e+01	-8.273429e+00
3.164099e+01	-8.315895e+00
3.182375e+01	-8.358650e+00
3.200756e+01	-8.401115e+00
3.219244e+01	-8.443563e+00
3.237838e+01	-8.486352e+00
3.256540e+01	-8.529841e+00
3.275349e+01	-8.572762e+00
3.294268e+01	-8.615755e+00
3.313295e+01	-8.659142e+00
3.332433e+01	-8.702629e+00
3.351681e+01	-8.745698e+00
3.371040e+01	-8.789144e+00
3.390511e+01	-8.832771e+00
3.410094e+01	-8.875740e+00
3.429791e+01	-8.919681e+00
3.449601e+01	-8.963691e+00
3.469526e+01	-9.007119e+00
3.489566e+01	-9.050955e+00
3.509721e+01	-9.094535e+00
3.529993e+01	-9.138202e+00
3.550382e+01	-9.182483e+00
3.570889e+01	-9.226526e+00
3.591515e+01	-9.270509e+00
3.612259e+01	-9.314600e+00
3.633123e+01	-9.359336e+00
3.654108e+01	-9.403146e+00
3.675214e+01	-9.447734e+00
3.696442e+01	-9.491764e+00
3.717792e+01	-9.536509e+00
3.739266e+01	-9.580948e+00
3.760864e+01	-9.625478e+00
3.782587e+01	-9.670086e+00
3.804435e+01	-9.714391e+00
3.826409e+01	-9.759930e+00
3.848510e+01	-9.804133e+00
3.870739e+01	-9.848834e+00
3.893096e+01	-9.894108e+00
3.915583e+01	-9.939074e+00
3.938199e+01	-9.983886e+00
3.960946e+01	-1.002911e+01
3.983824e+01	-1.007344e+01
4.006834e+01	-1.011913e+01
4.029978e+01	-1.016378e+01
4.053255e+01	-1.020943e+01
4.076666e+01	-1.025424e+01
4.100213e+01	-1.029996e+01
4.123896e+01	-1.034552e+01
4.147715e+01	-1.039068e+01
4.171672e+01	-1.043604e+01
4.195767e+01	-1.048139e+01
4.220002e+01	-1.052708e+01
4.244377e+01	-1.057231e+01
4.268892e+01	-1.061876e+01
4.293549e+01	-1.066450e+01
4.318348e+01	-1.071035e+01
4.343291e+01	-1.075589e+01
4.368377e+01	-1.080192e+01
4.393609e+01	-1.084728e+01
4.418986e+01	-1.089349e+01
4.444510e+01	-1.093958e+01
4.470182e+01	-1.098562e+01
4.496001e+01	-1.103133e+01
4.521970e+01	-1.107747e+01
4.548089e+01	-1.112372e+01
4.574358e+01	-1.116973e+01
4.600779e+01	-1.121595e+01
4.627353e+01	-1.126281e+01
4.654081e+01	-1.130922e+01
4.680963e+01	-1.135553e+01
4.708000e+01	-1.140149e+01
4.735193e+01	-1.144810e+01
4.762543e+01	-1.149509e+01
4.790051e+01	-1.154078e+01
4.817719e+01	-1.158720e+01
4.845545e+01	-1.163416e+01
4.873533e+01	-1.168058e+01
4.901682e+01	-1.172719e+01
4.929994e+01	-1.177400e+01
4.958470e+01	-1.182076e+01
4.987110e+01	-1.186748e+01
5.015915e+01	-1.191439e+01
5.044887e+01	-1.196094e+01
5.074026e+01	-1.200801e+01
5.103333e+01	-1.205482e+01
5.132810e+01	-1.210146e+01
5.162457e+01	-1.214814e+01
5.192275e+01	-1.219509e+01
5.222265e+01	-1.224302e+01
5.252429e+01	-1.229072e+01
5.282767e+01	-1.233685e+01
5.313280e+01	-1.238371e+01
5.343969e+01	-1.243158e+01
5.374836e+01	-1.247869e+01
5.405880e+01	-1.252548e+01
5.437105e+01	-1.257277e+01
5.468509e+01	-1.261967e+01
5.500095e+01	-1.266743e+01
5.531863e+01	-1.271468e+01
5.563815e+01	-1.276261e+01
5.595951e+01	-1.281005e+01
5.628273e+01	-1.285686e+01
5.660782e+01	-1.290428e+01
5.693479e+01	-1.295119e+01
5.726364e+01	-1.299944e+01
5.759439e+01	-1.304577e+01
5.792705e+01	-1.309482e+01
5.826164e+01	-1.314221e+01
5.859815e+01	-1.318969e+01
5.893662e+01	-1.323687e+01
5.927703e+01	-1.328494e+01
5.961941e+01	-1.333245e+01
5.996377e+01	-1.338097e+01
6.031012e+01	-1.342846e+01
6.065847e+01	-1.347461e+01
6.100883e+01	-1.352417e+01
6.136121e+01	-1.357137e+01
6.171563e+01	-1.361975e+01
6.207210e+01	-1.366770e+01
6.243063e+01	-1.371488e+01
6.279122e+01	-1.376333e+01
6.315390e+01	-1.381041e+01
6.351868e+01	-1.385938e+01
6.388556e+01	-1.390676e+01
6.425456e+01	-1.395477e+01
6.462569e+01	-1.400318e+01
6.499897e+01	-1.405126e+01
6.537440e+01	-1.409941e+01
6.575200e+01	-1.414730e+01
6.613178e+01	-1.419567e+01
6.651375e+01	-1.424322e+01
6.689793e+01	-1.429169e+01
6.728433e+01	-1.433957e+01
6.767297e+01	-1.438833e+01
6.806384e+01	-1.443536e+01
6.845698e+01	-1.448451e+01
6.885238e+01	-1.453267e+01
6.925007e+01	-1.458158e+01
6.965005e+01	-1.462923e+01
7.005235e+01	-1.467722e+01
7.045697e+01	-1.472561e+01
7.086393e+01	-1.477420e+01
7.127323e+01	-1.482282e+01
7.168490e+01	-1.487085e+01
7.209895e+01	-1.491893e+01
7.251539e+01	-1.496808e+01
7.293424e+01	-1.501662e+01
7.335551e+01	-1.506429e+01
7.377920e+01	-1.511304e+01
7.420535e+01	-1.516231e+01
7.463396e+01	-1.520970e+01
7.506504e+01	-1.525949e+01
7.549861e+01	-1.530680e+01
7.593469e+01	-1.535484e+01
7.637328e+01	-1.540451e+01
7.681441e+01	-1.545272e+01
7.725809e+01	-1.550219e+01
7.770433e+01	-1.555094e+01
7.815315e+01	-1.559877e+01
7.860456e+01	-1.564733e+01
7.905857e+01	-1.569604e+01
7.951521e+01	-1.574531e+01
7.997449e+01	-1.579388e+01
8.043642e+01	-1.584265e+01
8.090102e+01	-1.589046e+01
8.136830e+01	-1.594017e+01
8.183828e+01	-1.598933e+01
8.231097e+01	-1.603705e+01
8.278640e+01	-1.608619e+01
8.326457e+01	-1.613449e+01
8.374550e+01	-1.618405e+01
8.422921e+01	-1.623188e+01
8.471572e+01	-1.628109e+01
8.520503e+01	-1.633110e+01
8.569717e+01	-1.637928e+01
8.619215e+01	-1.642895e+01
8.669000e+01	-1.647709e+01
8.719071e+01	-1.652610e+01
8.769432e+01	-1.657449e+01
8.820084e+01	-1.662441e+01
8.871029e+01	-1.667391e+01
8.922267e+01	-1.672141e+01
8.973802e+01	-1.677175e+01
9.025634e+01	-1.681980e+01
9.077766e+01	-1.686848e+01
9.130199e+01	-1.691696e+01
9.182935e+01	-1.696728e+01
9.235975e+01	-1.701544e+01
9.289321e+01	-1.706406e+01
9.342976e+01	-1.711496e+01
9.396941e+01	-1.716239e+01
9.451217e+01	-1.721124e+01
9.505807e+01	-1.726168e+01
9.560712e+01	-1.730998e+01
9.615934e+01	-1.735819e+01
9.671476e+01	-1.740839e+01
9.727338e+01	-1.745715e+01
9.783522e+01	-1.750648e+01
9.840032e+01	-1.755589e+01
9.896867e+01	-1.760508e+01
9.954031e+01	-1.765396e+01
1.001153e+02	-1.770444e+01
1.006935e+02	-1.775211e+01
1.012751e+02	-1.780227e+01
1.018601e+02	-1.785047e+01
1.024484e+02	-1.790045e+01
1.030402e+02	-1.794985e+01
1.036353e+02	-1.799727e+01
1.042339e+02	-1.804871e+01
1.048360e+02	-1.809671e+01
1.054415e+02	-1.814544e+01
1.060505e+02	-1.819430e+01
1.066631e+02	-1.824474e+01
1.072791e+02	-1.829531e+01
1.078988e+02	-1.834321e+01
1.085220e+02	-1.839439e+01
1.091488e+02	-1.844159e+01
1.097793e+02	-1.849278e+01
1.104133e+02	-1.854093e+01
1.110511e+02	-1.859026e+01
1.116925e+02	-1.863950e+01
1.123376e+02	-1.868823e+01
1.129865e+02	-1.873637e+01
1.136391e+02	-1.878646e+01
1.142955e+02	-1.883683e+01
1.149556e+02	-1.888761e+01
1.156196e+02	-1.893533e+01
1.162874e+02	-1.898502e+01
1.169591e+02	-1.903549e+01
1.176347e+02	-1.908408e+01
1.183141e+02	-1.913261e+01
1.189975e+02	-1.918314e+01
1.196848e+02	-1.923285e+01
1.203761e+02	-1.928172e+01
1.210714e+02	-1.933099e+01
1.217707e+02	-1.937982e+01
1.224740e+02	-1.943117e+01
1.231814e+02	-1.947997e+01
1.238929e+02	-1.952934e+01
1.246085e+02	-1.957858e+01
1.253283e+02	-1.962817e+01
1.260522e+02	-1.967840e+01
1.267802e+02	-1.972629e+01
1.275125e+02	-1.977571e+01
1.282490e+02	-1.982584e+01
1.289898e+02	-1.987514e+01
1.297348e+02	-1.992386e+01
1.304842e+02	-1.997506e+01
1.312378e+02	-2.002368e+01
1.319959e+02	-2.007316e+01
1.327583e+02	-2.012340e+01
1.335251e+02	-2.017213e+01
1.342963e+02	-2.022274e+01
1.350720e+02	-2.027270e+01
1.358522e+02	-2.032054e+01
1.366368e+02	-2.037223e+01
1.374260e+02	-2.041945e+01
1.382198e+02	-2.046989e+01
1.390182e+02	-2.051886e+01
1.398211e+02	-2.057013e+01
1.406287e+02	-2.061931e+01
1.414410e+02	-2.066924e+01
1.422579e+02	-2.071872e+01
1.430796e+02	-2.076742e+01
1.439060e+02	-2.081683e+01
1.447372e+02	-2.086653e+01
1.455732e+02	-2.091722e+01
1.464141e+02	-2.096514e+01
1.472597e+02	-2.101668e+01
1.481103e+02	-2.106422e+01
1.489658e+02	-2.111420e+01
1.498262e+02	-2.116461e+01
1.506916e+02	-2.121419e+01
1.515620e+02	-2.126404e+01
1.524374e+02	-2.131418e+01
1.533179e+02	-2.136309e+01
1.542034e+02	-2.141323e+01
1.550941e+02	-2.146085e+01
1.559899e+02	-2.151517e+01
1.568909e+02	-2.156272e+01
1.577971e+02	-2.160986e+01
1.587085e+02	-2.166143e+01
1.596252e+02	-2.171250e+01
1.605472e+02	-2.175988e+01
1.614745e+02	-2.181206e+01
1.624072e+02	-2.185854e+01
1.633453e+02	-2.190894e+01
1.642887e+02	-2.196124e+01
1.652377e+02	-2.201013e+01
1.661921e+02	-2.206125e+01
1.671520e+02	-2.211050e+01
1.681175e+02	-2.215873e+01
1.690885e+02	-2.220756e+01
1.700651e+02	-2.225755e+01
1.710474e+02	-2.230784e+01
1.720354e+02	-2.235667e+01
1.730291e+02	-2.240688e+01
1.740285e+02	-2.245632e+01
1.750337e+02	-2.250851e+01
1.760446e+02	-2.255882e+01
1.770615e+02	-2.260635e+01
1.780842e+02	-2.265507e+01
1.791128e+02	-2.270430e+01
1.801473e+02	-2.275561e+01
1.811878e+02	-2.280491e+01
1.822344e+02	-2.285719e+01
1.832870e+02	-2.290464e+01
1.843456e+02	-2.295505e+01
1.854104e+02	-2.300328e+01
1.864813e+02	-2.305530e+01
1.875584e+02	-2.310570e+01
1.886418e+02	-2.315257e+01
1.897313e+02	-2.320340e+01
1.908272e+02	-2.325362e+01
1.919294e+02	-2.330309e+01
1.930380e+02	-2.335446e+01
1.941530e+02	-2.340519e+01
1.952744e+02	-2.345403e+01
1.964023e+02	-2.350260e+01
1.975367e+02	-2.355174e+01
1.986777e+02	-2.360226e+01
1.998252e+02	-2.365320e+01
2.009794e+02	-2.370250e+01
2.021403e+02	-2.375260e+01
2.033078e+02	-2.379995e+01
2.044821e+02	-2.385097e+01
2.056632e+02	-2.390275e+01
2.068511e+02	-2.395168e+01
2.080459e+02	-2.400102e+01
2.092475e+02	-2.405057e+01
2.104561e+02	-2.410234e+01
2.116717e+02	-2.414996e+01
2.128943e+02	-2.420047e+01
2.141240e+02	-2.425147e+01
2.153608e+02	-2.430036e+01
2.166047e+02	-2.435026e+01
2.178558e+02	-2.440022e+01
2.191141e+02	-2.445242e+01
2.203797e+02	-2.449911e+01
2.216526e+02	-2.454924e+01
2.229329e+02	-2.459940e+01
2.242205e+02	-2.465104e+01
2.255156e+02	-2.469789e+01
2.268182e+02	-2.474698e+01
2.281283e+02	-2.480103e+01
2.294459e+02	-2.485082e+01
2.307712e+02	-2.489941e+01
2.321041e+02	-2.494943e+01
2.334447e+02	-2.499955e+01
2.347931e+02	-2.505001e+01
2.361493e+02	-2.509890e+01
2.375133e+02	-2.514856e+01
2.388851e+02	-2.519612e+01
2.402649e+02	-2.524924e+01
2.416527e+02	-2.529710e+01
2.430484e+02	-2.535205e+01
2.444523e+02	-2.539715e+01
2.458642e+02	-2.544927e+01
2.472843e+02	-2.549750e+01
2.487126e+02	-2.554978e+01
2.501492e+02	-2.559817e+01
2.515940e+02	-2.564617e+01
2.530472e+02	-2.569742e+01
2.545088e+02	-2.574602e+01
2.559789e+02	-2.579704e+01
2.574574e+02	-2.584707e+01
2.589444e+02	-2.590116e+01
2.604401e+02	-2.594917e+01
2.619444e+02	-2.599629e+01
2.634574e+02	-2.604856e+01
2.649791e+02	-2.609495e+01
2.665096e+02	-2.614853e+01
2.680489e+02	-2.619573e+01
2.695972e+02	-2.624652e+01
2.711544e+02	-2.629703e+01
2.727205e+02	-2.634698e+01
2.742958e+02	-2.639668e+01
2.758801e+02	-2.644798e+01
2.774736e+02	-2.649801e+01
2.790762e+02	-2.654576e+01
2.806882e+02	-2.659731e+01
2.823094e+02	-2.665050e+01
2.839400e+02	-2.669667e+01
2.855800e+02	-2.675060e+01
2.872295e+02	-2.679550e+01
2.888886e+02	-2.684892e+01
2.905572e+02	-2.690028e+01
2.922354e+02	-2.694825e+01
2.939234e+02	-2.699728e+01
2.956211e+02	-2.704812e+01
2.973286e+02	-2.709502e+01
2.990459e+02	-2.714601e+01
3.007732e+02	-2.719715e+01
3.025104e+02	-2.724867e+01
3.042577e+02	-2.729770e+01
3.060151e+02	-2.734859e+01
3.077826e+02	-2.739546e+01
3.095604e+02	-2.744474e+01
3.113484e+02	-2.749835e+01
3.131467e+02	-2.754694e+01
3.149554e+02	-2.760036e+01
3.167746e+02	-2.764667e+01
3.186043e+02	-2.769675e+01
3.204445e+02	-2.775065e+01
3.222954e+02	-2.779817e+01
3.241570e+02	-2.784606e+01
3.260293e+02	-2.789835e+01
3.279124e+02	-2.794746e+01
3.298064e+02	-2.799576e+01
3.317114e+02	-2.804964e+01
3.336273e+02	-2.810283e+01
3.355544e+02	-2.814897e+01
3.374925e+02	-2.820188e+01
3.394418e+02	-2.824926e+01
3.414024e+02	-2.829914e+01
3.433744e+02	-2.835015e+01
3.453577e+02	-2.840125e+01
3.473525e+02	-2.844719e+01
3.493588e+02	-2.850015e+01
3.513766e+02	-2.854710e+01
3.534062e+02	-2.859642e+01
3.554474e+02	-2.864969e+01
3.575005e+02	-2.869773e+01
3.595654e+02	-2.874916e+01
3.616422e+02	-2.880008e+01
3.637311e+02	-2.884985e+01
3.658320e+02	-2.889987e+01
3.679450e+02	-2.894848e+01
3.700702e+02	-2.899776e+01
3.722077e+02	-2.904844e+01
3.743576e+02	-2.909885e+01
3.765199e+02	-2.915097e+01
3.786946e+02	-2.920331e+01
3.808820e+02	-2.924546e+01
3.830819e+02	-2.929945e+01
3.852946e+02	-2.934951e+01
3.875200e+02	-2.940523e+01
3.897583e+02	-2.944915e+01
3.920096e+02	-2.950034e+01
3.942738e+02	-2.955133e+01
3.965511e+02	-2.960000e+01
3.988416e+02	-2.965051e+01
4.011452e+02	-2.970352e+01
4.034622e+02	-2.974885e+01
4.057926e+02	-2.980259e+01
4.081365e+02	-2.985196e+01
4.104938e+02	-2.989769e+01
4.128648e+02	-2.994734e+01
4.152495e+02	-3.000067e+01
4.176480e+02	-3.004787e+01
4.200603e+02	-3.010258e+01
4.224866e+02	-3.015000e+01
4.249268e+02	-3.020149e+01
4.273812e+02	-3.025170e+01
4.298497e+02	-3.030166e+01
4.323325e+02	-3.035203e+01
4.348297e+02	-3.040070e+01
4.373412e+02	-3.045444e+01
4.398673e+02	-3.050935e+01
4.424079e+02	-3.055138e+01
4.449633e+02	-3.060015e+01
4.475334e+02	-3.065601e+01
4.501183e+02	-3.070135e+01
4.527182e+02	-3.075188e+01
4.553330e+02	-3.080551e+01
4.579630e+02	-3.085616e+01
4.606082e+02	-3.090630e+01
4.632687e+02	-3.095136e+01
4.659445e+02	-3.101078e+01
4.686358e+02	-3.105552e+01
4.713426e+02	-3.110634e+01
4.740650e+02	-3.115587e+01
4.768032e+02	-3.119995e+01
4.795572e+02	-3.125173e+01
4.823271e+02	-3.130129e+01
4.851130e+02	-3.135681e+01
4.879150e+02	-3.140449e+01
4.907332e+02	-3.146206e+01
4.935676e+02	-3.150613e+01
4.964185e+02	-3.155138e+01
4.992858e+02	-3.160476e+01
5.021696e+02	-3.165649e+01
5.050701e+02	-3.170441e+01
5.079874e+02	-3.175356e+01
5.109215e+02	-3.180696e+01
5.138726e+02	-3.185134e+01
5.168407e+02	-3.190725e+01
5.198259e+02	-3.195231e+01
5.228284e+02	-3.200341e+01
5.258482e+02	-3.205520e+01
5.288855e+02	-3.211135e+01
5.319403e+02	-3.215660e+01
5.350128e+02	-3.221340e+01
5.381030e+02	-3.226132e+01
5.412111e+02	-3.230531e+01
5.443371e+02	-3.236177e+01
5.474812e+02	-3.241039e+01
5.506434e+02	-3.245604e+01
5.538239e+02	-3.251528e+01
5.570228e+02	-3.256008e+01
5.602401e+02	-3.261655e+01
5.634760e+02	-3.265818e+01
5.667306e+02	-3.271084e+01
5.700040e+02	-3.276223e+01
5.732964e+02	-3.281542e+01
5.766077e+02	-3.286449e+01
5.799382e+02	-3.291235e+01
5.832879e+02	-3.296025e+01
5.866569e+02	-3.301672e+01
5.900454e+02	-3.307202e+01
5.934535e+02	-3.311137e+01
5.968813e+02	-3.316909e+01
6.003288e+02	-3.321441e+01
6.037963e+02	-3.326879e+01
6.072838e+02	-3.331720e+01
6.107914e+02	-3.335984e+01
6.143194e+02	-3.340678e+01
6.178676e+02	-3.346103e+01
6.214364e+02	-3.350708e+01
6.250258e+02	-3.356912e+01
6.286359e+02	-3.360991e+01
6.322669e+02	-3.366984e+01
6.359189e+02	-3.372298e+01
6.395919e+02	-3.376332e+01
6.432862e+02	-3.381670e+01
6.470017e+02	-3.386831e+01
6.507388e+02	-3.392043e+01
6.544974e+02	-3.396550e+01
6.582778e+02	-3.402134e+01
6.620800e+02	-3.406526e+01
6.659041e+02	-3.412060e+01
6.697504e+02	-3.417028e+01
6.736188e+02	-3.421609e+01
6.775096e+02	-3.426418e+01
6.814229e+02	-3.431994e+01
6.853587e+02	-3.436652e+01
6.893173e+02	-3.442186e+01
6.932988e+02	-3.447852e+01
6.973033e+02	-3.451859e+01
7.013309e+02	-3.457850e+01
