Frequency(Hz)	Magnitude(dB)
1.000000e+01	-1.590903e-05
1.005776e+01	-1.609334e-05
1.011585e+01	-1.627979e-05
1.017428e+01	-1.646839e-05
1.023305e+01	-1.665918e-05
1.029215e+01	-1.685218e-05
1.035160e+01	-1.704742e-05
1.041139e+01	-1.724492e-05
1.047153e+01	-1.744471e-05
1.053201e+01	-1.764681e-05
1.059284e+01	-1.785125e-05
1.065403e+01	-1.805806e-05
1.071556e+01	-1.826727e-05
1.077746e+01	-1.847890e-05
1.083971e+01	-1.869298e-05
1.090232e+01	-1.890955e-05
1.096529e+01	-1.912862e-05
1.102862e+01	-1.935023e-05
1.109232e+01	-1.957441e-05
1.115639e+01	-1.980118e-05
1.122083e+01	-2.003058e-05
1.128564e+01	-2.026264e-05
1.135083e+01	-2.049739e-05
1.141639e+01	-2.073486e-05
1.148233e+01	-2.097507e-05
1.154865e+01	-2.121808e-05
1.161536e+01	-2.146389e-05
1.168245e+01	-2.171256e-05
1.174992e+01	-2.196410e-05
1.181779e+01	-2.221856e-05
1.188605e+01	-2.247597e-05
1.195470e+01	-2.273636e-05
1.202375e+01	-2.299977e-05
1.209320e+01	-2.326622e-05
1.216305e+01	-2.353577e-05
1.223330e+01	-2.380844e-05
1.230396e+01	-2.408426e-05
1.237503e+01	-2.436329e-05
1.244651e+01	-2.464554e-05
1.251840e+01	-2.493107e-05
1.259070e+01	-2.521990e-05
1.266343e+01	-2.551208e-05
1.273657e+01	-2.580764e-05
1.281014e+01	-2.610663e-05
1.288413e+01	-2.640908e-05
1.295855e+01	-2.671504e-05
1.303339e+01	-2.702454e-05
1.310867e+01	-2.733762e-05
1.318439e+01	-2.765433e-05
1.326054e+01	-2.797472e-05
1.333713e+01	-2.829881e-05
1.341417e+01	-2.862666e-05
1.349165e+01	-2.895831e-05
1.356958e+01	-2.929380e-05
1.364795e+01	-2.963317e-05
1.372678e+01	-2.997648e-05
1.380607e+01	-3.032376e-05
1.388581e+01	-3.067507e-05
1.396602e+01	-3.103045e-05
1.404668e+01	-3.138994e-05
1.412782e+01	-3.175360e-05
1.420942e+01	-3.212148e-05
1.429149e+01	-3.249361e-05
1.437404e+01	-3.287006e-05
1.445706e+01	-3.325087e-05
1.454057e+01	-3.363608e-05
1.462455e+01	-3.402577e-05
1.470902e+01	-3.441996e-05
1.479398e+01	-3.481873e-05
1.487943e+01	-3.522211e-05
1.496537e+01	-3.563017e-05
1.505181e+01	-3.604295e-05
1.513875e+01	-3.646052e-05
1.522619e+01	-3.688292e-05
1.531414e+01	-3.731022e-05
1.540259e+01	-3.774246e-05
1.549156e+01	-3.817972e-05
1.558103e+01	-3.862204e-05
1.567103e+01	-3.906948e-05
1.576155e+01	-3.952211e-05
1.585258e+01	-3.997999e-05
1.594415e+01	-4.044316e-05
1.603624e+01	-4.091171e-05
1.612886e+01	-4.138568e-05
1.622202e+01	-4.186514e-05
1.631572e+01	-4.235016e-05
1.640996e+01	-4.284079e-05
1.650474e+01	-4.333711e-05
1.660008e+01	-4.383918e-05
1.669596e+01	-4.434707e-05
1.679239e+01	-4.486084e-05
1.688938e+01	-4.538056e-05
1.698694e+01	-4.590631e-05
1.708505e+01	-4.643814e-05
1.718373e+01	-4.697614e-05
1.728299e+01	-4.752037e-05
1.738281e+01	-4.807090e-05
1.748322e+01	-4.862781e-05
1.758420e+01	-4.919117e-05
1.768576e+01	-4.976107e-05
1.778792e+01	-5.033756e-05
1.789066e+01	-5.092073e-05
1.799399e+01	-5.151066e-05
1.809793e+01	-5.210742e-05
1.820246e+01	-5.271109e-05
1.830760e+01	-5.332176e-05
1.841334e+01	-5.393951e-05
1.851969e+01	-5.456441e-05
1.862666e+01	-5.519655e-05
1.873425e+01	-5.583601e-05
1.884246e+01	-5.648288e-05
1.895129e+01	-5.713725e-05
1.906075e+01	-5.779919e-05
1.917085e+01	-5.846881e-05
1.928158e+01	-5.914618e-05
1.939295e+01	-5.983140e-05
1.950496e+01	-6.052456e-05
1.961762e+01	-6.122575e-05
1.973093e+01	-6.193506e-05
1.984490e+01	-6.265259e-05
1.995952e+01	-6.337844e-05
2.007480e+01	-6.411269e-05
2.019076e+01	-6.485544e-05
2.030738e+01	-6.560681e-05
2.042467e+01	-6.636687e-05
2.054264e+01	-6.713575e-05
2.066130e+01	-6.791353e-05
2.078064e+01	-6.870032e-05
2.090066e+01	-6.949622e-05
2.102139e+01	-7.030135e-05
2.114280e+01	-7.111581e-05
2.126492e+01	-7.193970e-05
2.138775e+01	-7.277313e-05
2.151128e+01	-7.361622e-05
2.163553e+01	-7.446908e-05
2.176050e+01	-7.533181e-05
2.188619e+01	-7.620455e-05
2.201260e+01	-7.708739e-05
2.213974e+01	-7.798046e-05
2.226762e+01	-7.888388e-05
2.239624e+01	-7.979776e-05
2.252560e+01	-8.072223e-05
2.265571e+01	-8.165741e-05
2.278656e+01	-8.260343e-05
2.291818e+01	-8.356040e-05
2.305055e+01	-8.452846e-05
2.318369e+01	-8.550774e-05
2.331760e+01	-8.649836e-05
2.345228e+01	-8.750046e-05
2.358774e+01	-8.851417e-05
2.372398e+01	-8.953962e-05
2.386101e+01	-9.057695e-05
2.399883e+01	-9.162630e-05
2.413745e+01	-9.268780e-05
2.427686e+01	-9.376160e-05
2.441709e+01	-9.484785e-05
2.455812e+01	-9.594667e-05
2.469997e+01	-9.705823e-05
2.484263e+01	-9.818266e-05
2.498612e+01	-9.932012e-05
2.513044e+01	-1.004708e-04
2.527559e+01	-1.016347e-04
2.542158e+01	-1.028122e-04
2.556842e+01	-1.040033e-04
2.571610e+01	-1.052082e-04
2.586463e+01	-1.064270e-04
2.601403e+01	-1.076600e-04
2.616428e+01	-1.089072e-04
2.631541e+01	-1.101690e-04
2.646740e+01	-1.114453e-04
2.662028e+01	-1.127364e-04
2.677404e+01	-1.140424e-04
2.692868e+01	-1.153636e-04
2.708422e+01	-1.167001e-04
2.724066e+01	-1.180521e-04
2.739800e+01	-1.194198e-04
2.755625e+01	-1.208033e-04
2.771541e+01	-1.222028e-04
2.787550e+01	-1.236185e-04
2.803650e+01	-1.250507e-04
2.819844e+01	-1.264994e-04
2.836131e+01	-1.279649e-04
2.852513e+01	-1.294474e-04
2.868989e+01	-1.309470e-04
2.885560e+01	-1.324641e-04
2.902227e+01	-1.339987e-04
2.918990e+01	-1.355511e-04
2.935850e+01	-1.371214e-04
2.952807e+01	-1.387100e-04
2.969863e+01	-1.403170e-04
2.987016e+01	-1.419426e-04
3.004269e+01	-1.435870e-04
3.021622e+01	-1.452504e-04
3.039075e+01	-1.469332e-04
3.056628e+01	-1.486354e-04
3.074283e+01	-1.503574e-04
3.092040e+01	-1.520993e-04
3.109900e+01	-1.538614e-04
3.127862e+01	-1.556439e-04
3.145929e+01	-1.574470e-04
3.164099e+01	-1.592710e-04
3.182375e+01	-1.611162e-04
3.200756e+01	-1.629827e-04
3.219244e+01	-1.648709e-04
3.237838e+01	-1.667809e-04
3.256540e+01	-1.687131e-04
3.275349e+01	-1.706677e-04
3.294268e+01	-1.726448e-04
3.313295e+01	-1.746449e-04
3.332433e+01	-1.766682e-04
3.351681e+01	-1.787149e-04
3.371040e+01	-1.807853e-04
3.390511e+01	-1.828797e-04
3.410094e+01	-1.849984e-04
3.429791e+01	-1.871416e-04
3.449601e+01	-1.893097e-04
3.469526e+01	-1.915028e-04
3.489566e+01	-1.937214e-04
3.509721e+01	-1.959657e-04
3.529993e+01	-1.982359e-04
3.550382e+01	-2.005325e-04
3.570889e+01	-2.028557e-04
3.591515e+01	-2.052057e-04
3.612259e+01	-2.075830e-04
3.633123e+01	-2.099879e-04
3.654108e+01	-2.124206e-04
3.675214e+01	-2.148815e-04
3.696442e+01	-2.173709e-04
3.717792e+01	-2.198891e-04
3.739266e+01	-2.224365e-04
3.760864e+01	-2.250135e-04
3.782587e+01	-2.276202e-04
3.804435e+01	-2.302572e-04
3.826409e+01	-2.329247e-04
3.848510e+01	-2.356232e-04
3.870739e+01	-2.383529e-04
3.893096e+01	-2.411142e-04
3.915583e+01	-2.439075e-04
3.938199e+01	-2.467331e-04
3.960946e+01	-2.495915e-04
3.983824e+01	-2.524830e-04
4.006834e+01	-2.554080e-04
4.029978e+01	-2.583669e-04
4.053255e+01	-2.613600e-04
4.076666e+01	-2.643879e-04
4.100213e+01	-2.674508e-04
4.123896e+01	-2.705492e-04
4.147715e+01	-2.736835e-04
4.171672e+01	-2.768541e-04
4.195767e+01	-2.800614e-04
4.220002e+01	-2.833059e-04
4.244377e+01	-2.865880e-04
4.268892e+01	-2.899081e-04
4.293549e+01	-2.932666e-04
4.318348e+01	-2.966641e-04
4.343291e+01	-3.001009e-04
4.368377e+01	-3.035775e-04
4.393609e+01	-3.070944e-04
4.418986e+01	-3.106521e-04
4.444510e+01	-3.142509e-04
4.470182e+01	-3.178915e-04
4.496001e+01	-3.215742e-04
4.521970e+01	-3.252996e-04
4.548089e+01	-3.290681e-04
4.574358e+01	-3.328803e-04
4.600779e+01	-3.367367e-04
4.627353e+01	-3.406377e-04
4.654081e+01	-3.445840e-04
4.680963e+01	-3.485759e-04
4.708000e+01	-3.526141e-04
4.735193e+01	-3.566990e-04
4.762543e+01	-3.608313e-04
4.790051e+01	-3.650115e-04
4.817719e+01	-3.692401e-04
4.845545e+01	-3.735176e-04
4.873533e+01	-3.778447e-04
4.901682e+01	-3.822220e-04
4.929994e+01	-3.866499e-04
4.958470e+01	-3.911292e-04
4.987110e+01	-3.956603e-04
5.015915e+01	-4.002439e-04
5.044887e+01	-4.048807e-04
5.074026e+01	-4.095711e-04
5.103333e+01	-4.143159e-04
5.132810e+01	-4.191156e-04
5.162457e+01	-4.239709e-04
5.192275e+01	-4.288825e-04
5.222265e+01	-4.338510e-04
5.252429e+01	-4.388770e-04
5.282767e+01	-4.439613e-04
5.313280e+01	-4.491044e-04
5.343969e+01	-4.543071e-04
5.374836e+01	-4.595701e-04
5.405880e+01	-4.648941e-04
5.437105e+01	-4.702797e-04
5.468509e+01	-4.757277e-04
5.500095e+01	-4.812389e-04
5.531863e+01	-4.868139e-04
5.563815e+01	-4.924534e-04
5.595951e+01	-4.981583e-04
5.628273e+01	-5.039293e-04
5.660782e+01	-5.097671e-04
5.693479e+01	-5.156725e-04
5.726364e+01	-5.216464e-04
5.759439e+01	-5.276894e-04
5.792705e+01	-5.338025e-04
5.826164e+01	-5.399863e-04
5.859815e+01	-5.462418e-04
5.893662e+01	-5.525698e-04
5.927703e+01	-5.589710e-04
5.961941e+01	-5.654465e-04
5.996377e+01	-5.719969e-04
6.031012e+01	-5.786232e-04
6.065847e+01	-5.853262e-04
6.100883e+01	-5.921069e-04
6.136121e+01	-5.989662e-04
6.171563e+01	-6.059049e-04
6.207210e+01	-6.129240e-04
6.243063e+01	-6.200244e-04
6.279122e+01	-6.272070e-04
6.315390e+01	-6.344728e-04
6.351868e+01	-6.418228e-04
6.388556e+01	-6.492580e-04
6.425456e+01	-6.567792e-04
6.462569e+01	-6.643876e-04
6.499897e+01	-6.720841e-04
6.537440e+01	-6.798698e-04
6.575200e+01	-6.877457e-04
6.613178e+01	-6.957127e-04
6.651375e+01	-7.037721e-04
6.689793e+01	-7.119248e-04
6.728433e+01	-7.201720e-04
6.767297e+01	-7.285147e-04
6.806384e+01	-7.369540e-04
6.845698e+01	-7.454911e-04
6.885238e+01	-7.541271e-04
6.925007e+01	-7.628631e-04
6.965005e+01	-7.717003e-04
7.005235e+01	-7.806398e-04
7.045697e+01	-7.896829e-04
7.086393e+01	-7.988308e-04
7.127323e+01	-8.080846e-04
7.168490e+01	-8.174456e-04
7.209895e+01	-8.269150e-04
7.251539e+01	-8.364941e-04
7.293424e+01	-8.461842e-04
7.335551e+01	-8.559865e-04
7.377920e+01	-8.659023e-04
7.420535e+01	-8.759331e-04
7.463396e+01	-8.860799e-04
7.506504e+01	-8.963444e-04
7.549861e+01	-9.067277e-04
7.593469e+01	-9.172312e-04
7.637328e+01	-9.278565e-04
7.681441e+01	-9.386048e-04
7.725809e+01	-9.494776e-04
7.770433e+01	-9.604763e-04
7.815315e+01	-9.716025e-04
7.860456e+01	-9.828575e-04
7.905857e+01	-9.942428e-04
7.951521e+01	-1.005760e-03
7.997449e+01	-1.017411e-03
8.043642e+01	-1.029196e-03
8.090102e+01	-1.041118e-03
8.136830e+01	-1.053179e-03
8.183828e+01	-1.065378e-03
8.231097e+01	-1.077720e-03
8.278640e+01	-1.090204e-03
8.326457e+01	-1.102832e-03
8.374550e+01	-1.115607e-03
8.422921e+01	-1.128530e-03
8.471572e+01	-1.141603e-03
8.520503e+01	-1.154827e-03
8.569717e+01	-1.168204e-03
8.619215e+01	-1.181736e-03
8.669000e+01	-1.195425e-03
8.719071e+01	-1.209273e-03
8.769432e+01	-1.223280e-03
8.820084e+01	-1.237450e-03
8.871029e+01	-1.251784e-03
8.922267e+01	-1.266285e-03
8.973802e+01	-1.280953e-03
9.025634e+01	-1.295791e-03
9.077766e+01	-1.310800e-03
9.130199e+01	-1.325984e-03
9.182935e+01	-1.341344e-03
9.235975e+01	-1.356881e-03
9.289321e+01	-1.372598e-03
9.342976e+01	-1.388498e-03
9.396941e+01	-1.404581e-03
9.451217e+01	-1.420851e-03
9.505807e+01	-1.437309e-03
9.560712e+01	-1.453958e-03
9.615934e+01	-1.470800e-03
9.671476e+01	-1.487836e-03
9.727338e+01	-1.505070e-03
9.783522e+01	-1.522504e-03
9.840032e+01	-1.540139e-03
9.896867e+01	-1.557979e-03
9.954031e+01	-1.576026e-03
1.001153e+02	-1.594281e-03
1.006935e+02	-1.612748e-03
1.012751e+02	-1.631428e-03
1.018601e+02	-1.650325e-03
1.024484e+02	-1.669441e-03
1.030402e+02	-1.688778e-03
1.036353e+02	-1.708339e-03
1.042339e+02	-1.728127e-03
1.048360e+02	-1.748144e-03
1.054415e+02	-1.768392e-03
1.060505e+02	-1.788875e-03
1.066631e+02	-1.809596e-03
1.072791e+02	-1.830556e-03
1.078988e+02	-1.851759e-03
1.085220e+02	-1.873207e-03
1.091488e+02	-1.894904e-03
1.097793e+02	-1.916852e-03
1.104133e+02	-1.939054e-03
1.110511e+02	-1.961514e-03
1.116925e+02	-1.984233e-03
1.123376e+02	-2.007216e-03
1.129865e+02	-2.030465e-03
1.136391e+02	-2.053982e-03
1.142955e+02	-2.077773e-03
1.149556e+02	-2.101838e-03
1.156196e+02	-2.126183e-03
1.162874e+02	-2.150809e-03
1.169591e+02	-2.175721e-03
1.176347e+02	-2.200920e-03
1.183141e+02	-2.226412e-03
1.189975e+02	-2.252199e-03
1.196848e+02	-2.278285e-03
1.203761e+02	-2.304672e-03
1.210714e+02	-2.331365e-03
1.217707e+02	-2.358367e-03
1.224740e+02	-2.385682e-03
1.231814e+02	-2.413313e-03
1.238929e+02	-2.441264e-03
1.246085e+02	-2.469539e-03
1.253283e+02	-2.498141e-03
1.260522e+02	-2.527074e-03
1.267802e+02	-2.556342e-03
1.275125e+02	-2.585949e-03
1.282490e+02	-2.615899e-03
1.289898e+02	-2.646196e-03
1.297348e+02	-2.676843e-03
1.304842e+02	-2.707845e-03
1.312378e+02	-2.739207e-03
1.319959e+02	-2.770931e-03
1.327583e+02	-2.803022e-03
1.335251e+02	-2.835486e-03
1.342963e+02	-2.868325e-03
1.350720e+02	-2.901544e-03
1.358522e+02	-2.935148e-03
1.366368e+02	-2.969140e-03
1.374260e+02	-3.003527e-03
1.382198e+02	-3.038311e-03
1.390182e+02	-3.073498e-03
1.398211e+02	-3.109093e-03
1.406287e+02	-3.145099e-03
1.414410e+02	-3.181523e-03
1.422579e+02	-3.218368e-03
1.430796e+02	-3.255640e-03
1.439060e+02	-3.293343e-03
1.447372e+02	-3.331482e-03
1.455732e+02	-3.370063e-03
1.464141e+02	-3.409091e-03
1.472597e+02	-3.448571e-03
1.481103e+02	-3.488507e-03
1.489658e+02	-3.528906e-03
1.498262e+02	-3.569772e-03
1.506916e+02	-3.611112e-03
1.515620e+02	-3.652930e-03
1.524374e+02	-3.695232e-03
1.533179e+02	-3.738024e-03
1.542034e+02	-3.781311e-03
1.550941e+02	-3.825099e-03
1.559899e+02	-3.869394e-03
1.568909e+02	-3.914202e-03
1.577971e+02	-3.959528e-03
1.587085e+02	-4.005379e-03
1.596252e+02	-4.051761e-03
1.605472e+02	-4.098679e-03
1.614745e+02	-4.146141e-03
1.624072e+02	-4.194152e-03
1.633453e+02	-4.242718e-03
1.642887e+02	-4.291847e-03
1.652377e+02	-4.341544e-03
1.661921e+02	-4.391816e-03
1.671520e+02	-4.442671e-03
1.681175e+02	-4.494114e-03
1.690885e+02	-4.546152e-03
1.700651e+02	-4.598792e-03
1.710474e+02	-4.652042e-03
1.720354e+02	-4.705907e-03
1.730291e+02	-4.760397e-03
1.740285e+02	-4.815516e-03
1.750337e+02	-4.871274e-03
1.760446e+02	-4.927677e-03
1.770615e+02	-4.984733e-03
1.780842e+02	-5.042448e-03
1.791128e+02	-5.100832e-03
1.801473e+02	-5.159891e-03
1.811878e+02	-5.219634e-03
1.822344e+02	-5.280068e-03
1.832870e+02	-5.341201e-03
1.843456e+02	-5.403042e-03
1.854104e+02	-5.465598e-03
1.864813e+02	-5.528878e-03
1.875584e+02	-5.592890e-03
1.886418e+02	-5.657643e-03
1.897313e+02	-5.723145e-03
1.908272e+02	-5.789404e-03
1.919294e+02	-5.856431e-03
1.930380e+02	-5.924233e-03
1.941530e+02	-5.992819e-03
1.952744e+02	-6.062199e-03
1.964023e+02	-6.132381e-03
1.975367e+02	-6.203375e-03
1.986777e+02	-6.275191e-03
1.998252e+02	-6.347837e-03
2.009794e+02	-6.421324e-03
2.021403e+02	-6.495661e-03
2.033078e+02	-6.570858e-03
2.044821e+02	-6.646924e-03
2.056632e+02	-6.723871e-03
2.068511e+02	-6.801708e-03
2.080459e+02	-6.880445e-03
2.092475e+02	-6.960092e-03
2.104561e+02	-7.040661e-03
2.116717e+02	-7.122162e-03
2.128943e+02	-7.204605e-03
2.141240e+02	-7.288002e-03
2.153608e+02	-7.372364e-03
2.166047e+02	-7.457701e-03
2.178558e+02	-7.544025e-03
2.191141e+02	-7.631347e-03
2.203797e+02	-7.719680e-03
2.216526e+02	-7.809033e-03
2.229329e+02	-7.899420e-03
2.242205e+02	-7.990853e-03
2.255156e+02	-8.083342e-03
2.268182e+02	-8.176902e-03
2.281283e+02	-8.271543e-03
2.294459e+02	-8.367278e-03
2.307712e+02	-8.464120e-03
2.321041e+02	-8.562082e-03
2.334447e+02	-8.661177e-03
2.347931e+02	-8.761417e-03
2.361493e+02	-8.862817e-03
2.375133e+02	-8.965388e-03
2.388851e+02	-9.069146e-03
2.402649e+02	-9.174103e-03
2.416527e+02	-9.280273e-03
2.430484e+02	-9.387671e-03
2.444523e+02	-9.496310e-03
2.458642e+02	-9.606205e-03
2.472843e+02	-9.717370e-03
2.487126e+02	-9.829821e-03
2.501492e+02	-9.943571e-03
2.515940e+02	-1.005864e-02
2.530472e+02	-1.017503e-02
2.545088e+02	-1.029277e-02
2.559789e+02	-1.041187e-02
2.574574e+02	-1.053235e-02
2.589444e+02	-1.065422e-02
2.604401e+02	-1.077750e-02
2.619444e+02	-1.090220e-02
2.634574e+02	-1.102834e-02
2.649791e+02	-1.115595e-02
2.665096e+02	-1.128502e-02
2.680489e+02	-1.141559e-02
2.695972e+02	-1.154766e-02
2.711544e+02	-1.168127e-02
2.727205e+02	-1.181641e-02
2.742958e+02	-1.195312e-02
2.758801e+02	-1.209141e-02
2.774736e+02	-1.223129e-02
2.790762e+02	-1.237279e-02
2.806882e+02	-1.251592e-02
2.823094e+02	-1.266071e-02
2.839400e+02	-1.280717e-02
2.855800e+02	-1.295532e-02
2.872295e+02	-1.310519e-02
2.888886e+02	-1.325678e-02
2.905572e+02	-1.341013e-02
2.922354e+02	-1.356524e-02
2.939234e+02	-1.372215e-02
2.956211e+02	-1.388087e-02
2.973286e+02	-1.404142e-02
2.990459e+02	-1.420383e-02
3.007732e+02	-1.436811e-02
3.025104e+02	-1.453429e-02
3.042577e+02	-1.470239e-02
3.060151e+02	-1.487243e-02
3.077826e+02	-1.504443e-02
3.095604e+02	-1.521841e-02
3.113484e+02	-1.539441e-02
3.131467e+02	-1.557244e-02
3.149554e+02	-1.575252e-02
3.167746e+02	-1.593468e-02
3.186043e+02	-1.611894e-02
3.204445e+02	-1.630533e-02
3.222954e+02	-1.649388e-02
3.241570e+02	-1.668459e-02
3.260293e+02	-1.687751e-02
3.279124e+02	-1.707266e-02
3.298064e+02	-1.727005e-02
3.317114e+02	-1.746973e-02
3.336273e+02	-1.767170e-02
3.355544e+02	-1.787601e-02
3.374925e+02	-1.808268e-02
3.394418e+02	-1.829173e-02
3.414024e+02	-1.850319e-02
3.433744e+02	-1.871709e-02
3.453577e+02	-1.893346e-02
3.473525e+02	-1.915232e-02
3.493588e+02	-1.937371e-02
3.513766e+02	-1.959765e-02
3.534062e+02	-1.982417e-02
3.554474e+02	-2.005331e-02
3.575005e+02	-2.028509e-02
3.595654e+02	-2.051954e-02
3.616422e+02	-2.075669e-02
3.637311e+02	-2.099658e-02
3.658320e+02	-2.123923e-02
3.679450e+02	-2.148468e-02
3.700702e+02	-2.173296e-02
3.722077e+02	-2.198411e-02
3.743576e+02	-2.223814e-02
3.765199e+02	-2.249511e-02
3.786946e+02	-2.275503e-02
3.808820e+02	-2.301796e-02
3.830819e+02	-2.328391e-02
3.852946e+02	-2.355292e-02
3.875200e+02	-2.382504e-02
3.897583e+02	-2.410029e-02
3.920096e+02	-2.437871e-02
3.942738e+02	-2.466034e-02
3.965511e+02	-2.494521e-02
3.988416e+02	-2.523337e-02
4.011452e+02	-2.552484e-02
4.034622e+02	-2.581967e-02
4.057926e+02	-2.611789e-02
4.081365e+02	-2.641955e-02
4.104938e+02	-2.672468e-02
4.128648e+02	-2.703333e-02
4.152495e+02	-2.734553e-02
4.176480e+02	-2.766132e-02
4.200603e+02	-2.798075e-02
4.224866e+02	-2.830385e-02
4.249268e+02	-2.863068e-02
4.273812e+02	-2.896126e-02
4.298497e+02	-2.929565e-02
4.323325e+02	-2.963388e-02
4.348297e+02	-2.997601e-02
4.373412e+02	-3.032207e-02
4.398673e+02	-3.067212e-02
4.424079e+02	-3.102619e-02
4.449633e+02	-3.138433e-02
4.475334e+02	-3.174660e-02
4.501183e+02	-3.211302e-02
4.527182e+02	-3.248367e-02
4.553330e+02	-3.285857e-02
4.579630e+02	-3.323778e-02
4.606082e+02	-3.362136e-02
4.632687e+02	-3.400934e-02
4.659445e+02	-3.440178e-02
4.686358e+02	-3.479873e-02
4.713426e+02	-3.520024e-02
4.740650e+02	-3.560637e-02
4.768032e+02	-3.601717e-02
4.795572e+02	-3.643268e-02
4.823271e+02	-3.685296e-02
4.851130e+02	-3.727808e-02
4.879150e+02	-3.770807e-02
4.907332e+02	-3.814301e-02
4.935676e+02	-3.858293e-02
4.964185e+02	-3.902791e-02
4.992858e+02	-3.947800e-02
5.021696e+02	-3.993326e-02
5.050701e+02	-4.039374e-02
5.079874e+02	-4.085950e-02
5.109215e+02	-4.133061e-02
5.138726e+02	-4.180712e-02
5.168407e+02	-4.228911e-02
5.198259e+02	-4.277662e-02
5.228284e+02	-4.326972e-02
5.258482e+02	-4.376848e-02
5.288855e+02	-4.427296e-02
5.319403e+02	-4.478322e-02
5.350128e+02	-4.529933e-02
5.381030e+02	-4.582136e-02
5.412111e+02	-4.634937e-02
5.443371e+02	-4.688344e-02
5.474812e+02	-4.742362e-02
5.506434e+02	-4.797000e-02
5.538239e+02	-4.852263e-02
5.570228e+02	-4.908159e-02
5.602401e+02	-4.964696e-02
5.634760e+02	-5.021880e-02
5.667306e+02	-5.079719e-02
5.700040e+02	-5.138220e-02
5.732964e+02	-5.197391e-02
5.766077e+02	-5.257239e-02
5.799382e+02	-5.317772e-02
5.832879e+02	-5.378997e-02
5.866569e+02	-5.440923e-02
5.900454e+02	-5.503558e-02
5.934535e+02	-5.566908e-02
5.968813e+02	-5.630984e-02
6.003288e+02	-5.695791e-02
6.037963e+02	-5.761340e-02
6.072838e+02	-5.827638e-02
6.107914e+02	-5.894694e-02
6.143194e+02	-5.962516e-02
6.178676e+02	-6.031113e-02
6.214364e+02	-6.100494e-02
6.250258e+02	-6.170667e-02
6.286359e+02	-6.241641e-02
6.322669e+02	-6.313426e-02
6.359189e+02	-6.386031e-02
6.395919e+02	-6.459464e-02
6.432862e+02	-6.533735e-02
6.470017e+02	-6.608853e-02
6.507388e+02	-6.684829e-02
6.544974e+02	-6.761671e-02
6.582778e+02	-6.839389e-02
6.620800e+02	-6.917994e-02
6.659041e+02	-6.997494e-02
6.697504e+02	-7.077901e-02
6.736188e+02	-7.159224e-02
6.775096e+02	-7.241474e-02
6.814229e+02	-7.324660e-02
6.853587e+02	-7.408794e-02
6.893173e+02	-7.493886e-02
6.932988e+02	-7.579947e-02
6.973033e+02	-7.666988e-02
7.013309e+02	-7.755018e-02
