Frequency(Hz)	Magnitude(dB)
1.000000e+01	-1.762308e-05
1.005776e+01	-1.782725e-05
1.011585e+01	-1.803379e-05
1.017428e+01	-1.824271e-05
1.023305e+01	-1.845406e-05
1.029215e+01	-1.866785e-05
1.035160e+01	-1.888412e-05
1.041139e+01	-1.910290e-05
1.047153e+01	-1.932421e-05
1.053201e+01	-1.954809e-05
1.059284e+01	-1.977456e-05
1.065403e+01	-2.000365e-05
1.071556e+01	-2.023540e-05
1.077746e+01	-2.046983e-05
1.083971e+01	-2.070698e-05
1.090232e+01	-2.094688e-05
1.096529e+01	-2.118955e-05
1.102862e+01	-2.143504e-05
1.109232e+01	-2.168337e-05
1.115639e+01	-2.193457e-05
1.122083e+01	-2.218869e-05
1.128564e+01	-2.244575e-05
1.135083e+01	-2.270579e-05
1.141639e+01	-2.296885e-05
1.148233e+01	-2.323495e-05
1.154865e+01	-2.350413e-05
1.161536e+01	-2.377643e-05
1.168245e+01	-2.405189e-05
1.174992e+01	-2.433053e-05
1.181779e+01	-2.461241e-05
1.188605e+01	-2.489755e-05
1.195470e+01	-2.518599e-05
1.202375e+01	-2.547778e-05
1.209320e+01	-2.577294e-05
1.216305e+01	-2.607153e-05
1.223330e+01	-2.637358e-05
1.230396e+01	-2.667912e-05
1.237503e+01	-2.698820e-05
1.244651e+01	-2.730087e-05
1.251840e+01	-2.761716e-05
1.259070e+01	-2.793711e-05
1.266343e+01	-2.826077e-05
1.273657e+01	-2.858817e-05
1.281014e+01	-2.891937e-05
1.288413e+01	-2.925441e-05
1.295855e+01	-2.959333e-05
1.303339e+01	-2.993618e-05
1.310867e+01	-3.028300e-05
1.318439e+01	-3.063383e-05
1.326054e+01	-3.098873e-05
1.333713e+01	-3.134774e-05
1.341417e+01	-3.171091e-05
1.349165e+01	-3.207829e-05
1.356958e+01	-3.244993e-05
1.364795e+01	-3.282587e-05
1.372678e+01	-3.320616e-05
1.380607e+01	-3.359086e-05
1.388581e+01	-3.398002e-05
1.396602e+01	-3.437369e-05
1.404668e+01	-3.477192e-05
1.412782e+01	-3.517476e-05
1.420942e+01	-3.558227e-05
1.429149e+01	-3.599449e-05
1.437404e+01	-3.641150e-05
1.445706e+01	-3.683333e-05
1.454057e+01	-3.726006e-05
1.462455e+01	-3.769172e-05
1.470902e+01	-3.812839e-05
1.479398e+01	-3.857012e-05
1.487943e+01	-3.901696e-05
1.496537e+01	-3.946898e-05
1.505181e+01	-3.992624e-05
1.513875e+01	-4.038879e-05
1.522619e+01	-4.085671e-05
1.531414e+01	-4.133004e-05
1.540259e+01	-4.180886e-05
1.549156e+01	-4.229322e-05
1.558103e+01	-4.278320e-05
1.567103e+01	-4.327885e-05
1.576155e+01	-4.378025e-05
1.585258e+01	-4.428745e-05
1.594415e+01	-4.480053e-05
1.603624e+01	-4.531955e-05
1.612886e+01	-4.584459e-05
1.622202e+01	-4.637571e-05
1.631572e+01	-4.691298e-05
1.640996e+01	-4.745648e-05
1.650474e+01	-4.800627e-05
1.660008e+01	-4.856244e-05
1.669596e+01	-4.912504e-05
1.679239e+01	-4.969417e-05
1.688938e+01	-5.026988e-05
1.698694e+01	-5.085227e-05
1.708505e+01	-5.144141e-05
1.718373e+01	-5.203737e-05
1.728299e+01	-5.264023e-05
1.738281e+01	-5.325008e-05
1.748322e+01	-5.386699e-05
1.758420e+01	-5.449105e-05
1.768576e+01	-5.512234e-05
1.778792e+01	-5.576094e-05
1.789066e+01	-5.640695e-05
1.799399e+01	-5.706043e-05
1.809793e+01	-5.772149e-05
1.820246e+01	-5.839020e-05
1.830760e+01	-5.906667e-05
1.841334e+01	-5.975097e-05
1.851969e+01	-6.044319e-05
1.862666e+01	-6.114344e-05
1.873425e+01	-6.185180e-05
1.884246e+01	-6.256836e-05
1.895129e+01	-6.329323e-05
1.906075e+01	-6.402649e-05
1.917085e+01	-6.476825e-05
1.928158e+01	-6.551861e-05
1.939295e+01	-6.627765e-05
1.950496e+01	-6.704549e-05
1.961762e+01	-6.782223e-05
1.973093e+01	-6.860796e-05
1.984490e+01	-6.940279e-05
1.995952e+01	-7.020684e-05
2.007480e+01	-7.102020e-05
2.019076e+01	-7.184298e-05
2.030738e+01	-7.267529e-05
2.042467e+01	-7.351725e-05
2.054264e+01	-7.436896e-05
2.066130e+01	-7.523054e-05
2.078064e+01	-7.610210e-05
2.090066e+01	-7.698375e-05
2.102139e+01	-7.787563e-05
2.114280e+01	-7.877783e-05
2.126492e+01	-7.969048e-05
2.138775e+01	-8.061371e-05
2.151128e+01	-8.154763e-05
2.163553e+01	-8.249238e-05
2.176050e+01	-8.344807e-05
2.188619e+01	-8.441483e-05
2.201260e+01	-8.539278e-05
2.213974e+01	-8.638207e-05
2.226762e+01	-8.738282e-05
2.239624e+01	-8.839517e-05
2.252560e+01	-8.941924e-05
2.265571e+01	-9.045518e-05
2.278656e+01	-9.150311e-05
2.291818e+01	-9.256319e-05
2.305055e+01	-9.363555e-05
2.318369e+01	-9.472033e-05
2.331760e+01	-9.581768e-05
2.345228e+01	-9.692775e-05
2.358774e+01	-9.805067e-05
2.372398e+01	-9.918660e-05
2.386101e+01	-1.003357e-04
2.399883e+01	-1.014981e-04
2.413745e+01	-1.026740e-04
2.427686e+01	-1.038635e-04
2.441709e+01	-1.050667e-04
2.455812e+01	-1.062839e-04
2.469997e+01	-1.075153e-04
2.484263e+01	-1.087608e-04
2.498612e+01	-1.100208e-04
2.513044e+01	-1.112954e-04
2.527559e+01	-1.125848e-04
2.542158e+01	-1.138891e-04
2.556842e+01	-1.152085e-04
2.571610e+01	-1.165433e-04
2.586463e+01	-1.178934e-04
2.601403e+01	-1.192592e-04
2.616428e+01	-1.206409e-04
2.631541e+01	-1.220385e-04
2.646740e+01	-1.234523e-04
2.662028e+01	-1.248825e-04
2.677404e+01	-1.263293e-04
2.692868e+01	-1.277929e-04
2.708422e+01	-1.292734e-04
2.724066e+01	-1.307710e-04
2.739800e+01	-1.322860e-04
2.755625e+01	-1.338185e-04
2.771541e+01	-1.353688e-04
2.787550e+01	-1.369371e-04
2.803650e+01	-1.385235e-04
2.819844e+01	-1.401283e-04
2.836131e+01	-1.417517e-04
2.852513e+01	-1.433939e-04
2.868989e+01	-1.450552e-04
2.885560e+01	-1.467357e-04
2.902227e+01	-1.484356e-04
2.918990e+01	-1.501552e-04
2.935850e+01	-1.518948e-04
2.952807e+01	-1.536545e-04
2.969863e+01	-1.554346e-04
2.987016e+01	-1.572353e-04
3.004269e+01	-1.590569e-04
3.021622e+01	-1.608996e-04
3.039075e+01	-1.627636e-04
3.056628e+01	-1.646493e-04
3.074283e+01	-1.665567e-04
3.092040e+01	-1.684863e-04
3.109900e+01	-1.704382e-04
3.127862e+01	-1.724127e-04
3.145929e+01	-1.744102e-04
3.164099e+01	-1.764307e-04
3.182375e+01	-1.784747e-04
3.200756e+01	-1.805423e-04
3.219244e+01	-1.826339e-04
3.237838e+01	-1.847497e-04
3.256540e+01	-1.868900e-04
3.275349e+01	-1.890552e-04
3.294268e+01	-1.912454e-04
3.313295e+01	-1.934610e-04
3.332433e+01	-1.957022e-04
3.351681e+01	-1.979694e-04
3.371040e+01	-2.002629e-04
3.390511e+01	-2.025829e-04
3.410094e+01	-2.049299e-04
3.429791e+01	-2.073040e-04
3.449601e+01	-2.097056e-04
3.469526e+01	-2.121350e-04
3.489566e+01	-2.145926e-04
3.509721e+01	-2.170787e-04
3.529993e+01	-2.195935e-04
3.550382e+01	-2.221375e-04
3.570889e+01	-2.247110e-04
3.591515e+01	-2.273142e-04
3.612259e+01	-2.299477e-04
3.633123e+01	-2.326116e-04
3.654108e+01	-2.353064e-04
3.675214e+01	-2.380324e-04
3.696442e+01	-2.407900e-04
3.717792e+01	-2.435796e-04
3.739266e+01	-2.464014e-04
3.760864e+01	-2.492560e-04
3.782587e+01	-2.521436e-04
3.804435e+01	-2.550646e-04
3.826409e+01	-2.580196e-04
3.848510e+01	-2.610087e-04
3.870739e+01	-2.640325e-04
3.893096e+01	-2.670912e-04
3.915583e+01	-2.701855e-04
3.938199e+01	-2.733156e-04
3.960946e+01	-2.764819e-04
3.983824e+01	-2.796849e-04
4.006834e+01	-2.829250e-04
4.029978e+01	-2.862027e-04
4.053255e+01	-2.895183e-04
4.076666e+01	-2.928724e-04
4.100213e+01	-2.962652e-04
4.123896e+01	-2.996974e-04
4.147715e+01	-3.031694e-04
4.171672e+01	-3.066816e-04
4.195767e+01	-3.102344e-04
4.220002e+01	-3.138285e-04
4.244377e+01	-3.174641e-04
4.268892e+01	-3.211419e-04
4.293549e+01	-3.248623e-04
4.318348e+01	-3.286257e-04
4.343291e+01	-3.324328e-04
4.368377e+01	-3.362840e-04
4.393609e+01	-3.401798e-04
4.418986e+01	-3.441207e-04
4.444510e+01	-3.481073e-04
4.470182e+01	-3.521400e-04
4.496001e+01	-3.562195e-04
4.521970e+01	-3.603462e-04
4.548089e+01	-3.645208e-04
4.574358e+01	-3.687437e-04
4.600779e+01	-3.730155e-04
4.627353e+01	-3.773368e-04
4.654081e+01	-3.817082e-04
4.680963e+01	-3.861301e-04
4.708000e+01	-3.906034e-04
4.735193e+01	-3.951284e-04
4.762543e+01	-3.997059e-04
4.790051e+01	-4.043364e-04
4.817719e+01	-4.090205e-04
4.845545e+01	-4.137589e-04
4.873533e+01	-4.185522e-04
4.901682e+01	-4.234010e-04
4.929994e+01	-4.283059e-04
4.958470e+01	-4.332677e-04
4.987110e+01	-4.382870e-04
5.015915e+01	-4.433644e-04
5.044887e+01	-4.485007e-04
5.074026e+01	-4.536964e-04
5.103333e+01	-4.589523e-04
5.132810e+01	-4.642691e-04
5.162457e+01	-4.696475e-04
5.192275e+01	-4.750882e-04
5.222265e+01	-4.805919e-04
5.252429e+01	-4.861594e-04
5.282767e+01	-4.917914e-04
5.313280e+01	-4.974886e-04
5.343969e+01	-5.032518e-04
5.374836e+01	-5.090818e-04
5.405880e+01	-5.149793e-04
5.437105e+01	-5.209451e-04
5.468509e+01	-5.269800e-04
5.500095e+01	-5.330849e-04
5.531863e+01	-5.392604e-04
5.563815e+01	-5.455075e-04
5.595951e+01	-5.518270e-04
5.628273e+01	-5.582196e-04
5.660782e+01	-5.646863e-04
5.693479e+01	-5.712279e-04
5.726364e+01	-5.778453e-04
5.759439e+01	-5.845394e-04
5.792705e+01	-5.913110e-04
5.826164e+01	-5.981610e-04
5.859815e+01	-6.050904e-04
5.893662e+01	-6.121000e-04
5.927703e+01	-6.191909e-04
5.961941e+01	-6.263638e-04
5.996377e+01	-6.336199e-04
6.031012e+01	-6.409600e-04
6.065847e+01	-6.483852e-04
6.100883e+01	-6.558963e-04
6.136121e+01	-6.634945e-04
6.171563e+01	-6.711807e-04
6.207210e+01	-6.789559e-04
6.243063e+01	-6.868211e-04
6.279122e+01	-6.947775e-04
6.315390e+01	-7.028260e-04
6.351868e+01	-7.109678e-04
6.388556e+01	-7.192039e-04
6.425456e+01	-7.275354e-04
6.462569e+01	-7.359633e-04
6.499897e+01	-7.444889e-04
6.537440e+01	-7.531133e-04
6.575200e+01	-7.618376e-04
6.613178e+01	-7.706629e-04
6.651375e+01	-7.795904e-04
6.689793e+01	-7.886214e-04
6.728433e+01	-7.977569e-04
6.767297e+01	-8.069983e-04
6.806384e+01	-8.163467e-04
6.845698e+01	-8.258034e-04
6.885238e+01	-8.353697e-04
6.925007e+01	-8.450467e-04
6.965005e+01	-8.548358e-04
7.005235e+01	-8.647384e-04
7.045697e+01	-8.747556e-04
7.086393e+01	-8.848888e-04
7.127323e+01	-8.951394e-04
7.168490e+01	-9.055088e-04
7.209895e+01	-9.159983e-04
7.251539e+01	-9.266092e-04
7.293424e+01	-9.373431e-04
7.335551e+01	-9.482013e-04
7.377920e+01	-9.591852e-04
7.420535e+01	-9.702964e-04
7.463396e+01	-9.815363e-04
7.506504e+01	-9.929064e-04
7.549861e+01	-1.004408e-03
7.593469e+01	-1.016043e-03
7.637328e+01	-1.027813e-03
7.681441e+01	-1.039719e-03
7.725809e+01	-1.051763e-03
7.770433e+01	-1.063946e-03
7.815315e+01	-1.076271e-03
7.860456e+01	-1.088738e-03
7.905857e+01	-1.101350e-03
7.951521e+01	-1.114108e-03
7.997449e+01	-1.127013e-03
8.043642e+01	-1.140068e-03
8.090102e+01	-1.153275e-03
8.136830e+01	-1.166634e-03
8.183828e+01	-1.180148e-03
8.231097e+01	-1.193818e-03
8.278640e+01	-1.207647e-03
8.326457e+01	-1.221636e-03
8.374550e+01	-1.235787e-03
8.422921e+01	-1.250102e-03
8.471572e+01	-1.264582e-03
8.520503e+01	-1.279231e-03
8.569717e+01	-1.294049e-03
8.619215e+01	-1.309038e-03
8.669000e+01	-1.324202e-03
8.719071e+01	-1.339541e-03
8.769432e+01	-1.355057e-03
8.820084e+01	-1.370753e-03
8.871029e+01	-1.386631e-03
8.922267e+01	-1.402693e-03
8.973802e+01	-1.418941e-03
9.025634e+01	-1.435377e-03
9.077766e+01	-1.452004e-03
9.130199e+01	-1.468823e-03
9.182935e+01	-1.485837e-03
9.235975e+01	-1.503047e-03
9.289321e+01	-1.520458e-03
9.342976e+01	-1.538069e-03
9.396941e+01	-1.555885e-03
9.451217e+01	-1.573907e-03
9.505807e+01	-1.592138e-03
9.560712e+01	-1.610580e-03
9.615934e+01	-1.629235e-03
9.671476e+01	-1.648107e-03
9.727338e+01	-1.667197e-03
9.783522e+01	-1.686508e-03
9.840032e+01	-1.706043e-03
9.896867e+01	-1.725804e-03
9.954031e+01	-1.745794e-03
1.001153e+02	-1.766015e-03
1.006935e+02	-1.786471e-03
1.012751e+02	-1.807163e-03
1.018601e+02	-1.828095e-03
1.024484e+02	-1.849270e-03
1.030402e+02	-1.870689e-03
1.036353e+02	-1.892357e-03
1.042339e+02	-1.914276e-03
1.048360e+02	-1.936448e-03
1.054415e+02	-1.958877e-03
1.060505e+02	-1.981566e-03
1.066631e+02	-2.004518e-03
1.072791e+02	-2.027735e-03
1.078988e+02	-2.051222e-03
1.085220e+02	-2.074980e-03
1.091488e+02	-2.099013e-03
1.097793e+02	-2.123325e-03
1.104133e+02	-2.147918e-03
1.110511e+02	-2.172796e-03
1.116925e+02	-2.197962e-03
1.123376e+02	-2.223420e-03
1.129865e+02	-2.249172e-03
1.136391e+02	-2.275222e-03
1.142955e+02	-2.301575e-03
1.149556e+02	-2.328232e-03
1.156196e+02	-2.355198e-03
1.162874e+02	-2.382476e-03
1.169591e+02	-2.410070e-03
1.176347e+02	-2.437983e-03
1.183141e+02	-2.466220e-03
1.189975e+02	-2.494783e-03
1.196848e+02	-2.523678e-03
1.203761e+02	-2.552906e-03
1.210714e+02	-2.582474e-03
1.217707e+02	-2.612383e-03
1.224740e+02	-2.642639e-03
1.231814e+02	-2.673246e-03
1.238929e+02	-2.704206e-03
1.246085e+02	-2.735525e-03
1.253283e+02	-2.767207e-03
1.260522e+02	-2.799255e-03
1.267802e+02	-2.831675e-03
1.275125e+02	-2.864470e-03
1.282490e+02	-2.897644e-03
1.289898e+02	-2.931203e-03
1.297348e+02	-2.965150e-03
1.304842e+02	-2.999490e-03
1.312378e+02	-3.034228e-03
1.319959e+02	-3.069368e-03
1.327583e+02	-3.104915e-03
1.335251e+02	-3.140873e-03
1.342963e+02	-3.177247e-03
1.350720e+02	-3.214043e-03
1.358522e+02	-3.251264e-03
1.366368e+02	-3.288917e-03
1.374260e+02	-3.327005e-03
1.382198e+02	-3.365535e-03
1.390182e+02	-3.404510e-03
1.398211e+02	-3.443936e-03
1.406287e+02	-3.483819e-03
1.414410e+02	-3.524164e-03
1.422579e+02	-3.564975e-03
1.430796e+02	-3.606259e-03
1.439060e+02	-3.648021e-03
1.447372e+02	-3.690266e-03
1.455732e+02	-3.733001e-03
1.464141e+02	-3.776230e-03
1.472597e+02	-3.819959e-03
1.481103e+02	-3.864194e-03
1.489658e+02	-3.908942e-03
1.498262e+02	-3.954207e-03
1.506916e+02	-3.999997e-03
1.515620e+02	-4.046316e-03
1.524374e+02	-4.093172e-03
1.533179e+02	-4.140569e-03
1.542034e+02	-4.188516e-03
1.550941e+02	-4.237017e-03
1.559899e+02	-4.286080e-03
1.568909e+02	-4.335710e-03
1.577971e+02	-4.385915e-03
1.587085e+02	-4.436701e-03
1.596252e+02	-4.488075e-03
1.605472e+02	-4.540043e-03
1.614745e+02	-4.592613e-03
1.624072e+02	-4.645791e-03
1.633453e+02	-4.699584e-03
1.642887e+02	-4.754001e-03
1.652377e+02	-4.809046e-03
1.661921e+02	-4.864729e-03
1.671520e+02	-4.921056e-03
1.681175e+02	-4.978035e-03
1.690885e+02	-5.035673e-03
1.700651e+02	-5.093979e-03
1.710474e+02	-5.152959e-03
1.720354e+02	-5.212621e-03
1.730291e+02	-5.272974e-03
1.740285e+02	-5.334025e-03
1.750337e+02	-5.395783e-03
1.760446e+02	-5.458255e-03
1.770615e+02	-5.521450e-03
1.780842e+02	-5.585376e-03
1.791128e+02	-5.650042e-03
1.801473e+02	-5.715456e-03
1.811878e+02	-5.781627e-03
1.822344e+02	-5.848563e-03
1.832870e+02	-5.916274e-03
1.843456e+02	-5.984768e-03
1.854104e+02	-6.054055e-03
1.864813e+02	-6.124143e-03
1.875584e+02	-6.195042e-03
1.886418e+02	-6.266761e-03
1.897313e+02	-6.339310e-03
1.908272e+02	-6.412698e-03
1.919294e+02	-6.486935e-03
1.930380e+02	-6.562031e-03
1.941530e+02	-6.637996e-03
1.952744e+02	-6.714839e-03
1.964023e+02	-6.792571e-03
1.975367e+02	-6.871202e-03
1.986777e+02	-6.950743e-03
1.998252e+02	-7.031204e-03
2.009794e+02	-7.112595e-03
2.021403e+02	-7.194928e-03
2.033078e+02	-7.278213e-03
2.044821e+02	-7.362461e-03
2.056632e+02	-7.447684e-03
2.068511e+02	-7.533892e-03
2.080459e+02	-7.621097e-03
2.092475e+02	-7.709311e-03
2.104561e+02	-7.798545e-03
2.116717e+02	-7.888811e-03
2.128943e+02	-7.980120e-03
2.141240e+02	-8.072486e-03
2.153608e+02	-8.165919e-03
2.166047e+02	-8.260433e-03
2.178558e+02	-8.356040e-03
2.191141e+02	-8.452753e-03
2.203797e+02	-8.550583e-03
2.216526e+02	-8.649545e-03
2.229329e+02	-8.749651e-03
2.242205e+02	-8.850914e-03
2.255156e+02	-8.953348e-03
2.268182e+02	-9.056967e-03
2.281283e+02	-9.161783e-03
2.294459e+02	-9.267811e-03
2.307712e+02	-9.375064e-03
2.321041e+02	-9.483558e-03
2.334447e+02	-9.593306e-03
2.347931e+02	-9.704322e-03
2.361493e+02	-9.816621e-03
2.375133e+02	-9.930219e-03
2.388851e+02	-1.004513e-02
2.402649e+02	-1.016137e-02
2.416527e+02	-1.027895e-02
2.430484e+02	-1.039789e-02
2.444523e+02	-1.051821e-02
2.458642e+02	-1.063991e-02
2.472843e+02	-1.076303e-02
2.487126e+02	-1.088756e-02
2.501492e+02	-1.101354e-02
2.515940e+02	-1.114097e-02
2.530472e+02	-1.126987e-02
2.545088e+02	-1.140026e-02
2.559789e+02	-1.153216e-02
2.574574e+02	-1.166558e-02
2.589444e+02	-1.180055e-02
2.604401e+02	-1.193707e-02
2.619444e+02	-1.207517e-02
2.634574e+02	-1.221487e-02
2.649791e+02	-1.235618e-02
2.665096e+02	-1.249912e-02
2.680489e+02	-1.264372e-02
2.695972e+02	-1.278998e-02
2.711544e+02	-1.293794e-02
2.727205e+02	-1.308760e-02
2.742958e+02	-1.323899e-02
2.758801e+02	-1.339213e-02
2.774736e+02	-1.354704e-02
2.790762e+02	-1.370373e-02
2.806882e+02	-1.386224e-02
2.823094e+02	-1.402258e-02
2.839400e+02	-1.418477e-02
2.855800e+02	-1.434883e-02
2.872295e+02	-1.451479e-02
2.888886e+02	-1.468266e-02
2.905572e+02	-1.485247e-02
2.922354e+02	-1.502424e-02
2.939234e+02	-1.519799e-02
2.956211e+02	-1.537375e-02
2.973286e+02	-1.555154e-02
2.990459e+02	-1.573138e-02
3.007732e+02	-1.591330e-02
3.025104e+02	-1.609732e-02
3.042577e+02	-1.628346e-02
3.060151e+02	-1.647175e-02
3.077826e+02	-1.666221e-02
3.095604e+02	-1.685487e-02
3.113484e+02	-1.704975e-02
3.131467e+02	-1.724688e-02
3.149554e+02	-1.744629e-02
3.167746e+02	-1.764800e-02
3.186043e+02	-1.785203e-02
3.204445e+02	-1.805842e-02
3.222954e+02	-1.826719e-02
3.241570e+02	-1.847837e-02
3.260293e+02	-1.869198e-02
3.279124e+02	-1.890806e-02
3.298064e+02	-1.912663e-02
3.317114e+02	-1.934772e-02
3.336273e+02	-1.957136e-02
3.355544e+02	-1.979758e-02
3.374925e+02	-2.002641e-02
3.394418e+02	-2.025788e-02
3.414024e+02	-2.049202e-02
3.433744e+02	-2.072886e-02
3.453577e+02	-2.096842e-02
3.473525e+02	-2.121075e-02
3.493588e+02	-2.145587e-02
3.513766e+02	-2.170382e-02
3.534062e+02	-2.195463e-02
3.554474e+02	-2.220833e-02
3.575005e+02	-2.246495e-02
3.595654e+02	-2.272453e-02
3.616422e+02	-2.298710e-02
3.637311e+02	-2.325269e-02
3.658320e+02	-2.352135e-02
3.679450e+02	-2.379310e-02
3.700702e+02	-2.406798e-02
3.722077e+02	-2.434603e-02
3.743576e+02	-2.462729e-02
3.765199e+02	-2.491178e-02
3.786946e+02	-2.519955e-02
3.808820e+02	-2.549063e-02
3.830819e+02	-2.578507e-02
3.852946e+02	-2.608289e-02
3.875200e+02	-2.638415e-02
3.897583e+02	-2.668887e-02
3.920096e+02	-2.699711e-02
3.942738e+02	-2.730889e-02
3.965511e+02	-2.762426e-02
3.988416e+02	-2.794326e-02
4.011452e+02	-2.826593e-02
4.034622e+02	-2.859232e-02
4.057926e+02	-2.892246e-02
4.081365e+02	-2.925640e-02
4.104938e+02	-2.959419e-02
4.128648e+02	-2.993586e-02
4.152495e+02	-3.028146e-02
4.176480e+02	-3.063104e-02
4.200603e+02	-3.098464e-02
4.224866e+02	-3.134230e-02
4.249268e+02	-3.170408e-02
4.273812e+02	-3.207002e-02
4.298497e+02	-3.244017e-02
4.323325e+02	-3.281457e-02
4.348297e+02	-3.319328e-02
4.373412e+02	-3.357634e-02
4.398673e+02	-3.396380e-02
4.424079e+02	-3.435572e-02
4.449633e+02	-3.475215e-02
4.475334e+02	-3.515312e-02
4.501183e+02	-3.555871e-02
4.527182e+02	-3.596896e-02
4.553330e+02	-3.638391e-02
4.579630e+02	-3.680364e-02
4.606082e+02	-3.722819e-02
4.632687e+02	-3.765761e-02
4.659445e+02	-3.809196e-02
4.686358e+02	-3.853131e-02
4.713426e+02	-3.897569e-02
4.740650e+02	-3.942518e-02
4.768032e+02	-3.987983e-02
4.795572e+02	-4.033970e-02
4.823271e+02	-4.080484e-02
4.851130e+02	-4.127532e-02
4.879150e+02	-4.175120e-02
4.907332e+02	-4.223254e-02
4.935676e+02	-4.271941e-02
4.964185e+02	-4.321185e-02
4.992858e+02	-4.370995e-02
5.021696e+02	-4.421376e-02
5.050701e+02	-4.472334e-02
5.079874e+02	-4.523877e-02
5.109215e+02	-4.576010e-02
5.138726e+02	-4.628741e-02
5.168407e+02	-4.682077e-02
5.198259e+02	-4.736023e-02
5.228284e+02	-4.790588e-02
5.258482e+02	-4.845778e-02
5.288855e+02	-4.901600e-02
5.319403e+02	-4.958062e-02
5.350128e+02	-5.015170e-02
5.381030e+02	-5.072932e-02
5.412111e+02	-5.131355e-02
5.443371e+02	-5.190447e-02
5.474812e+02	-5.250216e-02
5.506434e+02	-5.310668e-02
5.538239e+02	-5.371813e-02
5.570228e+02	-5.433657e-02
5.602401e+02	-5.496208e-02
5.634760e+02	-5.559475e-02
5.667306e+02	-5.623465e-02
5.700040e+02	-5.688187e-02
5.732964e+02	-5.753649e-02
5.766077e+02	-5.819859e-02
5.799382e+02	-5.886826e-02
5.832879e+02	-5.954558e-02
5.866569e+02	-6.023064e-02
5.900454e+02	-6.092353e-02
5.934535e+02	-6.162433e-02
5.968813e+02	-6.233314e-02
6.003288e+02	-6.305004e-02
6.037963e+02	-6.377512e-02
6.072838e+02	-6.450848e-02
6.107914e+02	-6.525020e-02
6.143194e+02	-6.600039e-02
6.178676e+02	-6.675914e-02
6.214364e+02	-6.752655e-02
6.250258e+02	-6.830271e-02
6.286359e+02	-6.908771e-02
6.322669e+02	-6.988167e-02
6.359189e+02	-7.068467e-02
6.395919e+02	-7.149683e-02
6.432862e+02	-7.231824e-02
6.470017e+02	-7.314901e-02
6.507388e+02	-7.398923e-02
6.544974e+02	-7.483903e-02
6.582778e+02	-7.569850e-02
6.620800e+02	-7.656776e-02
6.659041e+02	-7.744691e-02
6.697504e+02	-7.833606e-02
6.736188e+02	-7.923532e-02
6.775096e+02	-8.014481e-02
6.814229e+02	-8.106465e-02
6.853587e+02	-8.199494e-02
6.893173e+02	-8.293581e-02
6.932988e+02	-8.388736e-02
6.973033e+02	-8.484973e-02
7.013309e+02	-8.582303e-02
