Frequency(Hz)	Magnitude(dB)
1.000000e+01	-2.301107e+00
1.005776e+01	-2.321859e+00
1.011585e+01	-2.342682e+00
1.017428e+01	-2.363604e+00
1.023305e+01	-2.384646e+00
1.029215e+01	-2.405911e+00
1.035160e+01	-2.427292e+00
1.041139e+01	-2.448640e+00
1.047153e+01	-2.470470e+00
1.053201e+01	-2.491970e+00
1.059284e+01	-2.513923e+00
1.065403e+01	-2.535999e+00
1.071556e+01	-2.557946e+00
1.077746e+01	-2.580363e+00
1.083971e+01	-2.602874e+00
1.090232e+01	-2.625742e+00
1.096529e+01	-2.648269e+00
1.102862e+01	-2.671248e+00
1.109232e+01	-2.694321e+00
1.115639e+01	-2.717459e+00
1.122083e+01	-2.740833e+00
1.128564e+01	-2.764296e+00
1.135083e+01	-2.788096e+00
1.141639e+01	-2.811638e+00
1.148233e+01	-2.835550e+00
1.154865e+01	-2.859663e+00
1.161536e+01	-2.883862e+00
1.168245e+01	-2.908258e+00
1.174992e+01	-2.933011e+00
1.181779e+01	-2.957411e+00
1.188605e+01	-2.982056e+00
1.195470e+01	-3.006894e+00
1.202375e+01	-3.032236e+00
1.209320e+01	-3.057411e+00
1.216305e+01	-3.082837e+00
1.223330e+01	-3.108119e+00
1.230396e+01	-3.134124e+00
1.237503e+01	-3.159721e+00
1.244651e+01	-3.185431e+00
1.251840e+01	-3.211547e+00
1.259070e+01	-3.238016e+00
1.266343e+01	-3.264171e+00
1.273657e+01	-3.290624e+00
1.281014e+01	-3.317551e+00
1.288413e+01	-3.344385e+00
1.295855e+01	-3.371067e+00
1.303339e+01	-3.398359e+00
1.310867e+01	-3.425419e+00
1.318439e+01	-3.452728e+00
1.326054e+01	-3.480385e+00
1.333713e+01	-3.507923e+00
1.341417e+01	-3.535751e+00
1.349165e+01	-3.563875e+00
1.356958e+01	-3.591850e+00
1.364795e+01	-3.620115e+00
1.372678e+01	-3.648310e+00
1.380607e+01	-3.676599e+00
1.388581e+01	-3.705676e+00
1.396602e+01	-3.734346e+00
1.404668e+01	-3.763223e+00
1.412782e+01	-3.792092e+00
1.420942e+01	-3.821370e+00
1.429149e+01	-3.850756e+00
1.437404e+01	-3.880025e+00
1.445706e+01	-3.909987e+00
1.454057e+01	-3.939843e+00
1.462455e+01	-3.969217e+00
1.470902e+01	-3.999644e+00
1.479398e+01	-4.029788e+00
1.487943e+01	-4.059852e+00
1.496537e+01	-4.090397e+00
1.505181e+01	-4.121253e+00
1.513875e+01	-4.151833e+00
1.522619e+01	-4.182732e+00
1.531414e+01	-4.213802e+00
1.540259e+01	-4.244889e+00
1.549156e+01	-4.276163e+00
1.558103e+01	-4.307380e+00
1.567103e+01	-4.338977e+00
1.576155e+01	-4.370394e+00
1.585258e+01	-4.402579e+00
1.594415e+01	-4.434509e+00
1.603624e+01	-4.466617e+00
1.612886e+01	-4.498344e+00
1.622202e+01	-4.531045e+00
1.631572e+01	-4.563509e+00
1.640996e+01	-4.596117e+00
1.650474e+01	-4.628598e+00
1.660008e+01	-4.661832e+00
1.669596e+01	-4.694972e+00
1.679239e+01	-4.727976e+00
1.688938e+01	-4.761417e+00
1.698694e+01	-4.794600e+00
1.708505e+01	-4.827950e+00
1.718373e+01	-4.861477e+00
1.728299e+01	-4.895063e+00
1.738281e+01	-4.929328e+00
1.748322e+01	-4.963065e+00
1.758420e+01	-4.997445e+00
1.768576e+01	-5.031850e+00
1.778792e+01	-5.065779e+00
1.789066e+01	-5.100642e+00
1.799399e+01	-5.135100e+00
1.809793e+01	-5.170155e+00
1.820246e+01	-5.204895e+00
1.830760e+01	-5.239955e+00
1.841334e+01	-5.274571e+00
1.851969e+01	-5.310118e+00
1.862666e+01	-5.345483e+00
1.873425e+01	-5.380982e+00
1.884246e+01	-5.416615e+00
1.895129e+01	-5.452335e+00
1.906075e+01	-5.488030e+00
1.917085e+01	-5.523929e+00
1.928158e+01	-5.559917e+00
1.939295e+01	-5.596351e+00
1.950496e+01	-5.632347e+00
1.961762e+01	-5.668824e+00
1.973093e+01	-5.705221e+00
1.984490e+01	-5.742076e+00
1.995952e+01	-5.778958e+00
2.007480e+01	-5.815558e+00
2.019076e+01	-5.852830e+00
2.030738e+01	-5.889970e+00
2.042467e+01	-5.927056e+00
2.054264e+01	-5.964347e+00
2.066130e+01	-6.001764e+00
2.078064e+01	-6.039223e+00
2.090066e+01	-6.076591e+00
2.102139e+01	-6.114499e+00
2.114280e+01	-6.152474e+00
2.126492e+01	-6.190259e+00
2.138775e+01	-6.228227e+00
2.151128e+01	-6.266454e+00
2.163553e+01	-6.304808e+00
2.176050e+01	-6.343165e+00
2.188619e+01	-6.381386e+00
2.201260e+01	-6.420283e+00
2.213974e+01	-6.458805e+00
2.226762e+01	-6.497538e+00
2.239624e+01	-6.536539e+00
2.252560e+01	-6.575366e+00
2.265571e+01	-6.614411e+00
2.278656e+01	-6.653836e+00
2.291818e+01	-6.692710e+00
2.305055e+01	-6.732513e+00
2.318369e+01	-6.771784e+00
2.331760e+01	-6.811236e+00
2.345228e+01	-6.851115e+00
2.358774e+01	-6.891029e+00
2.372398e+01	-6.930431e+00
2.386101e+01	-6.970899e+00
2.399883e+01	-7.010606e+00
2.413745e+01	-7.050386e+00
2.427686e+01	-7.090851e+00
2.441709e+01	-7.130954e+00
2.455812e+01	-7.172016e+00
2.469997e+01	-7.212049e+00
2.484263e+01	-7.252657e+00
2.498612e+01	-7.293190e+00
2.513044e+01	-7.333871e+00
2.527559e+01	-7.374591e+00
2.542158e+01	-7.415580e+00
2.556842e+01	-7.456778e+00
2.571610e+01	-7.497678e+00
2.586463e+01	-7.538973e+00
2.601403e+01	-7.580385e+00
2.616428e+01	-7.621536e+00
2.631541e+01	-7.663054e+00
2.646740e+01	-7.704806e+00
2.662028e+01	-7.746215e+00
2.677404e+01	-7.787505e+00
2.692868e+01	-7.829350e+00
2.708422e+01	-7.871165e+00
2.724066e+01	-7.913189e+00
2.739800e+01	-7.954974e+00
2.755625e+01	-7.997251e+00
2.771541e+01	-8.039028e+00
2.787550e+01	-8.081727e+00
2.803650e+01	-8.123967e+00
2.819844e+01	-8.166203e+00
2.836131e+01	-8.208542e+00
2.852513e+01	-8.250859e+00
2.868989e+01	-8.293589e+00
2.885560e+01	-8.336347e+00
2.902227e+01	-8.379136e+00
2.918990e+01	-8.421860e+00
2.935850e+01	-8.464386e+00
2.952807e+01	-8.507518e+00
2.969863e+01	-8.550496e+00
2.987016e+01	-8.594261e+00
3.004269e+01	-8.636429e+00
3.021622e+01	-8.680137e+00
3.039075e+01	-8.723239e+00
3.056628e+01	-8.766725e+00
3.074283e+01	-8.810405e+00
3.092040e+01	-8.853525e+00
3.109900e+01	-8.897326e+00
3.127862e+01	-8.940863e+00
3.145929e+01	-8.984355e+00
3.164099e+01	-9.028843e+00
3.182375e+01	-9.072287e+00
3.200756e+01	-9.115713e+00
3.219244e+01	-9.159754e+00
3.237838e+01	-9.203806e+00
3.256540e+01	-9.248137e+00
3.275349e+01	-9.291341e+00
3.294268e+01	-9.336324e+00
3.313295e+01	-9.380758e+00
3.332433e+01	-9.424429e+00
3.351681e+01	-9.468714e+00
3.371040e+01	-9.513228e+00
3.390511e+01	-9.557865e+00
3.410094e+01	-9.602390e+00
3.429791e+01	-9.647408e+00
3.449601e+01	-9.691714e+00
3.469526e+01	-9.736336e+00
3.489566e+01	-9.780589e+00
3.509721e+01	-9.825643e+00
3.529993e+01	-9.870337e+00
3.550382e+01	-9.915230e+00
3.570889e+01	-9.960304e+00
3.591515e+01	-1.000575e+01
3.612259e+01	-1.005063e+01
3.633123e+01	-1.009600e+01
3.654108e+01	-1.014063e+01
3.675214e+01	-1.018616e+01
3.696442e+01	-1.023103e+01
3.717792e+01	-1.027684e+01
3.739266e+01	-1.032164e+01
3.760864e+01	-1.036751e+01
3.782587e+01	-1.041259e+01
3.804435e+01	-1.045813e+01
3.826409e+01	-1.050362e+01
3.848510e+01	-1.054945e+01
3.870739e+01	-1.059470e+01
3.893096e+01	-1.064042e+01
3.915583e+01	-1.068649e+01
3.938199e+01	-1.073212e+01
3.960946e+01	-1.077807e+01
3.983824e+01	-1.082415e+01
4.006834e+01	-1.087045e+01
4.029978e+01	-1.091567e+01
4.053255e+01	-1.096168e+01
4.076666e+01	-1.100782e+01
4.100213e+01	-1.105388e+01
4.123896e+01	-1.110038e+01
4.147715e+01	-1.114600e+01
4.171672e+01	-1.119208e+01
4.195767e+01	-1.123857e+01
4.220002e+01	-1.128479e+01
4.244377e+01	-1.133124e+01
4.268892e+01	-1.137789e+01
4.293549e+01	-1.142343e+01
4.318348e+01	-1.147052e+01
4.343291e+01	-1.151686e+01
4.368377e+01	-1.156361e+01
4.393609e+01	-1.160986e+01
4.418986e+01	-1.165623e+01
4.444510e+01	-1.170331e+01
4.470182e+01	-1.174991e+01
4.496001e+01	-1.179627e+01
4.521970e+01	-1.184293e+01
4.548089e+01	-1.189031e+01
4.574358e+01	-1.193703e+01
4.600779e+01	-1.198432e+01
4.627353e+01	-1.203118e+01
4.654081e+01	-1.207805e+01
4.680963e+01	-1.212463e+01
4.708000e+01	-1.217125e+01
4.735193e+01	-1.221830e+01
4.762543e+01	-1.226535e+01
4.790051e+01	-1.231243e+01
4.817719e+01	-1.236013e+01
4.845545e+01	-1.240688e+01
4.873533e+01	-1.245382e+01
4.901682e+01	-1.250117e+01
4.929994e+01	-1.254819e+01
4.958470e+01	-1.259602e+01
4.987110e+01	-1.264257e+01
5.015915e+01	-1.268978e+01
5.044887e+01	-1.273810e+01
5.074026e+01	-1.278520e+01
5.103333e+01	-1.283233e+01
5.132810e+01	-1.288041e+01
5.162457e+01	-1.292765e+01
5.192275e+01	-1.297501e+01
5.222265e+01	-1.302257e+01
5.252429e+01	-1.307027e+01
5.282767e+01	-1.311744e+01
5.313280e+01	-1.316560e+01
5.343969e+01	-1.321259e+01
5.374836e+01	-1.325995e+01
5.405880e+01	-1.330765e+01
5.437105e+01	-1.335635e+01
5.468509e+01	-1.340339e+01
5.500095e+01	-1.345154e+01
5.531863e+01	-1.349864e+01
5.563815e+01	-1.354653e+01
5.595951e+01	-1.359464e+01
5.628273e+01	-1.364161e+01
5.660782e+01	-1.369097e+01
5.693479e+01	-1.373795e+01
5.726364e+01	-1.378608e+01
5.759439e+01	-1.383379e+01
5.792705e+01	-1.388241e+01
5.826164e+01	-1.392953e+01
5.859815e+01	-1.397781e+01
5.893662e+01	-1.402623e+01
5.927703e+01	-1.407468e+01
5.961941e+01	-1.412161e+01
5.996377e+01	-1.416953e+01
6.031012e+01	-1.421849e+01
6.065847e+01	-1.426657e+01
6.100883e+01	-1.431499e+01
6.136121e+01	-1.436307e+01
6.171563e+01	-1.441100e+01
6.207210e+01	-1.445914e+01
6.243063e+01	-1.450803e+01
6.279122e+01	-1.455598e+01
6.315390e+01	-1.460422e+01
6.351868e+01	-1.465337e+01
6.388556e+01	-1.470091e+01
6.425456e+01	-1.475008e+01
6.462569e+01	-1.479759e+01
6.499897e+01	-1.484674e+01
6.537440e+01	-1.489387e+01
6.575200e+01	-1.494235e+01
6.613178e+01	-1.499119e+01
6.651375e+01	-1.503982e+01
6.689793e+01	-1.508830e+01
6.728433e+01	-1.513663e+01
6.767297e+01	-1.518516e+01
6.806384e+01	-1.523333e+01
6.845698e+01	-1.528293e+01
6.885238e+01	-1.533170e+01
6.925007e+01	-1.537893e+01
6.965005e+01	-1.542788e+01
7.005235e+01	-1.547714e+01
7.045697e+01	-1.552509e+01
7.086393e+01	-1.557399e+01
7.127323e+01	-1.562259e+01
7.168490e+01	-1.567010e+01
7.209895e+01	-1.572004e+01
7.251539e+01	-1.576770e+01
7.293424e+01	-1.581695e+01
7.335551e+01	-1.586554e+01
7.377920e+01	-1.591571e+01
7.420535e+01	-1.596357e+01
7.463396e+01	-1.601189e+01
7.506504e+01	-1.606089e+01
7.549861e+01	-1.610958e+01
7.593469e+01	-1.615927e+01
7.637328e+01	-1.620780e+01
7.681441e+01	-1.625675e+01
7.725809e+01	-1.630517e+01
7.770433e+01	-1.635303e+01
7.815315e+01	-1.640316e+01
7.860456e+01	-1.645218e+01
7.905857e+01	-1.650056e+01
7.951521e+01	-1.654987e+01
7.997449e+01	-1.659770e+01
8.043642e+01	-1.664707e+01
8.090102e+01	-1.669649e+01
8.136830e+01	-1.674528e+01
8.183828e+01	-1.679360e+01
8.231097e+01	-1.684196e+01
8.278640e+01	-1.689147e+01
8.326457e+01	-1.694182e+01
8.374550e+01	-1.699089e+01
8.422921e+01	-1.703927e+01
8.471572e+01	-1.708851e+01
8.520503e+01	-1.713756e+01
8.569717e+01	-1.718659e+01
8.619215e+01	-1.723608e+01
8.669000e+01	-1.728485e+01
8.719071e+01	-1.733416e+01
8.769432e+01	-1.738297e+01
8.820084e+01	-1.743167e+01
8.871029e+01	-1.748055e+01
8.922267e+01	-1.752965e+01
8.973802e+01	-1.757989e+01
9.025634e+01	-1.762840e+01
9.077766e+01	-1.767714e+01
9.130199e+01	-1.772665e+01
9.182935e+01	-1.777582e+01
9.235975e+01	-1.782508e+01
9.289321e+01	-1.787455e+01
9.342976e+01	-1.792350e+01
9.396941e+01	-1.797098e+01
9.451217e+01	-1.802242e+01
9.505807e+01	-1.807167e+01
9.560712e+01	-1.812142e+01
9.615934e+01	-1.816922e+01
9.671476e+01	-1.821973e+01
9.727338e+01	-1.826729e+01
9.783522e+01	-1.831715e+01
9.840032e+01	-1.836766e+01
9.896867e+01	-1.841629e+01
9.954031e+01	-1.846689e+01
1.001153e+02	-1.851479e+01
1.006935e+02	-1.856423e+01
1.012751e+02	-1.861363e+01
1.018601e+02	-1.866218e+01
1.024484e+02	-1.871362e+01
1.030402e+02	-1.876280e+01
1.036353e+02	-1.881007e+01
1.042339e+02	-1.886039e+01
1.048360e+02	-1.891067e+01
1.054415e+02	-1.895947e+01
1.060505e+02	-1.900899e+01
1.066631e+02	-1.905821e+01
1.072791e+02	-1.910726e+01
1.078988e+02	-1.915657e+01
1.085220e+02	-1.920577e+01
1.091488e+02	-1.925567e+01
1.097793e+02	-1.930474e+01
1.104133e+02	-1.935308e+01
1.110511e+02	-1.940272e+01
1.116925e+02	-1.945417e+01
1.123376e+02	-1.950374e+01
1.129865e+02	-1.955294e+01
1.136391e+02	-1.960189e+01
1.142955e+02	-1.965040e+01
1.149556e+02	-1.970143e+01
1.156196e+02	-1.975019e+01
1.162874e+02	-1.980125e+01
1.169591e+02	-1.984988e+01
1.176347e+02	-1.989965e+01
1.183141e+02	-1.994924e+01
1.189975e+02	-1.999910e+01
1.196848e+02	-2.004802e+01
1.203761e+02	-2.009730e+01
1.210714e+02	-2.014633e+01
1.217707e+02	-2.019649e+01
1.224740e+02	-2.024502e+01
1.231814e+02	-2.029490e+01
1.238929e+02	-2.034552e+01
1.246085e+02	-2.039507e+01
1.253283e+02	-2.044495e+01
1.260522e+02	-2.049447e+01
1.267802e+02	-2.054297e+01
1.275125e+02	-2.059171e+01
1.282490e+02	-2.064330e+01
1.289898e+02	-2.069328e+01
1.297348e+02	-2.074009e+01
1.304842e+02	-2.079288e+01
1.312378e+02	-2.084257e+01
1.319959e+02	-2.089011e+01
1.327583e+02	-2.093933e+01
1.335251e+02	-2.098999e+01
1.342963e+02	-2.103971e+01
1.350720e+02	-2.108821e+01
1.358522e+02	-2.113795e+01
1.366368e+02	-2.118898e+01
1.374260e+02	-2.123739e+01
1.382198e+02	-2.128797e+01
1.390182e+02	-2.133549e+01
1.398211e+02	-2.138732e+01
1.406287e+02	-2.143467e+01
1.414410e+02	-2.148597e+01
1.422579e+02	-2.153535e+01
1.430796e+02	-2.158608e+01
1.439060e+02	-2.163635e+01
1.447372e+02	-2.168414e+01
1.455732e+02	-2.173623e+01
1.464141e+02	-2.178409e+01
1.472597e+02	-2.183383e+01
1.481103e+02	-2.188510e+01
1.489658e+02	-2.193343e+01
1.498262e+02	-2.198466e+01
1.506916e+02	-2.203411e+01
1.515620e+02	-2.208510e+01
1.524374e+02	-2.213463e+01
1.533179e+02	-2.218149e+01
1.542034e+02	-2.223522e+01
1.550941e+02	-2.228256e+01
1.559899e+02	-2.233090e+01
1.568909e+02	-2.238165e+01
1.577971e+02	-2.243437e+01
1.587085e+02	-2.247982e+01
1.596252e+02	-2.253085e+01
1.605472e+02	-2.258093e+01
1.614745e+02	-2.263014e+01
1.624072e+02	-2.268090e+01
1.633453e+02	-2.273007e+01
1.642887e+02	-2.277968e+01
1.652377e+02	-2.282842e+01
1.661921e+02	-2.288020e+01
1.671520e+02	-2.292833e+01
1.681175e+02	-2.297956e+01
1.690885e+02	-2.302975e+01
1.700651e+02	-2.307943e+01
1.710474e+02	-2.312986e+01
1.720354e+02	-2.317680e+01
1.730291e+02	-2.322633e+01
1.740285e+02	-2.327795e+01
1.750337e+02	-2.332710e+01
1.760446e+02	-2.337714e+01
1.770615e+02	-2.342737e+01
1.780842e+02	-2.347622e+01
1.791128e+02	-2.352794e+01
1.801473e+02	-2.357406e+01
1.811878e+02	-2.362727e+01
1.822344e+02	-2.367683e+01
1.832870e+02	-2.372720e+01
1.843456e+02	-2.377738e+01
1.854104e+02	-2.382506e+01
1.864813e+02	-2.387508e+01
1.875584e+02	-2.392675e+01
1.886418e+02	-2.397663e+01
1.897313e+02	-2.402340e+01
1.908272e+02	-2.407404e+01
1.919294e+02	-2.412298e+01
1.930380e+02	-2.417562e+01
1.941530e+02	-2.422447e+01
1.952744e+02	-2.427448e+01
1.964023e+02	-2.432615e+01
1.975367e+02	-2.437320e+01
1.986777e+02	-2.442465e+01
1.998252e+02	-2.447662e+01
2.009794e+02	-2.452513e+01
2.021403e+02	-2.457317e+01
2.033078e+02	-2.462317e+01
2.044821e+02	-2.467480e+01
2.056632e+02	-2.472398e+01
2.068511e+02	-2.477024e+01
2.080459e+02	-2.482438e+01
2.092475e+02	-2.487477e+01
2.104561e+02	-2.492278e+01
2.116717e+02	-2.497285e+01
2.128943e+02	-2.502306e+01
2.141240e+02	-2.507460e+01
2.153608e+02	-2.512296e+01
2.166047e+02	-2.517179e+01
2.178558e+02	-2.522382e+01
2.191141e+02	-2.527383e+01
2.203797e+02	-2.532306e+01
2.216526e+02	-2.537261e+01
2.229329e+02	-2.542277e+01
2.242205e+02	-2.547102e+01
2.255156e+02	-2.552341e+01
2.268182e+02	-2.557149e+01
2.281283e+02	-2.562410e+01
2.294459e+02	-2.567372e+01
2.307712e+02	-2.572115e+01
2.321041e+02	-2.577305e+01
2.334447e+02	-2.582238e+01
2.347931e+02	-2.587498e+01
2.361493e+02	-2.592394e+01
2.375133e+02	-2.597502e+01
2.388851e+02	-2.602111e+01
2.402649e+02	-2.607286e+01
2.416527e+02	-2.612054e+01
2.430484e+02	-2.617118e+01
2.444523e+02	-2.622095e+01
2.458642e+02	-2.627159e+01
2.472843e+02	-2.632091e+01
2.487126e+02	-2.637211e+01
2.501492e+02	-2.642337e+01
2.515940e+02	-2.647312e+01
2.530472e+02	-2.651942e+01
2.545088e+02	-2.657160e+01
2.559789e+02	-2.662116e+01
2.574574e+02	-2.667252e+01
2.589444e+02	-2.672298e+01
2.604401e+02	-2.677056e+01
2.619444e+02	-2.682361e+01
2.634574e+02	-2.687447e+01
2.649791e+02	-2.691971e+01
2.665096e+02	-2.697288e+01
2.680489e+02	-2.702103e+01
2.695972e+02	-2.707449e+01
2.711544e+02	-2.712341e+01
2.727205e+02	-2.717276e+01
2.742958e+02	-2.722095e+01
2.758801e+02	-2.726880e+01
2.774736e+02	-2.732031e+01
2.790762e+02	-2.736935e+01
2.806882e+02	-2.741462e+01
2.823094e+02	-2.747350e+01
2.839400e+02	-2.752060e+01
2.855800e+02	-2.757082e+01
2.872295e+02	-2.761925e+01
2.888886e+02	-2.766718e+01
2.905572e+02	-2.771667e+01
2.922354e+02	-2.777011e+01
2.939234e+02	-2.781900e+01
2.956211e+02	-2.787038e+01
2.973286e+02	-2.792003e+01
2.990459e+02	-2.797198e+01
3.007732e+02	-2.801926e+01
3.025104e+02	-2.807297e+01
3.042577e+02	-2.812531e+01
3.060151e+02	-2.816920e+01
3.077826e+02	-2.822253e+01
3.095604e+02	-2.827059e+01
3.113484e+02	-2.832315e+01
3.131467e+02	-2.837317e+01
3.149554e+02	-2.842085e+01
3.167746e+02	-2.846913e+01
3.186043e+02	-2.852141e+01
3.204445e+02	-2.857433e+01
3.222954e+02	-2.862379e+01
3.241570e+02	-2.866900e+01
3.260293e+02	-2.872618e+01
3.279124e+02	-2.876925e+01
3.298064e+02	-2.882353e+01
3.317114e+02	-2.886577e+01
3.336273e+02	-2.892688e+01
3.355544e+02	-2.897322e+01
3.374925e+02	-2.902185e+01
3.394418e+02	-2.906845e+01
3.414024e+02	-2.912431e+01
3.433744e+02	-2.917615e+01
3.453577e+02	-2.921705e+01
3.473525e+02	-2.927271e+01
3.493588e+02	-2.932529e+01
3.513766e+02	-2.937213e+01
3.534062e+02	-2.941960e+01
3.554474e+02	-2.947540e+01
3.575005e+02	-2.952579e+01
3.595654e+02	-2.957209e+01
3.616422e+02	-2.962724e+01
3.637311e+02	-2.967370e+01
3.658320e+02	-2.972217e+01
3.679450e+02	-2.977555e+01
3.700702e+02	-2.981829e+01
3.722077e+02	-2.986733e+01
3.743576e+02	-2.992311e+01
3.765199e+02	-2.997241e+01
3.786946e+02	-3.002505e+01
3.808820e+02	-3.007509e+01
3.830819e+02	-3.012491e+01
3.852946e+02	-3.017242e+01
3.875200e+02	-3.022716e+01
3.897583e+02	-3.026841e+01
3.920096e+02	-3.032132e+01
3.942738e+02	-3.037144e+01
3.965511e+02	-3.042395e+01
3.988416e+02	-3.047829e+01
4.011452e+02	-3.052184e+01
4.034622e+02	-3.057645e+01
4.057926e+02	-3.062996e+01
4.081365e+02	-3.067613e+01
4.104938e+02	-3.072349e+01
4.128648e+02	-3.077998e+01
4.152495e+02	-3.082768e+01
4.176480e+02	-3.087382e+01
4.200603e+02	-3.092321e+01
4.224866e+02	-3.097564e+01
4.249268e+02	-3.102774e+01
4.273812e+02	-3.107079e+01
4.298497e+02	-3.112552e+01
4.323325e+02	-3.117654e+01
4.348297e+02	-3.122861e+01
4.373412e+02	-3.128025e+01
4.398673e+02	-3.132534e+01
4.424079e+02	-3.138077e+01
4.449633e+02	-3.142994e+01
4.475334e+02	-3.147741e+01
4.501183e+02	-3.153066e+01
4.527182e+02	-3.157750e+01
4.553330e+02	-3.162490e+01
4.579630e+02	-3.167889e+01
4.606082e+02	-3.173561e+01
4.632687e+02	-3.177731e+01
4.659445e+02	-3.182844e+01
4.686358e+02	-3.187928e+01
4.713426e+02	-3.192657e+01
4.740650e+02	-3.197977e+01
4.768032e+02	-3.202928e+01
4.795572e+02	-3.207586e+01
4.823271e+02	-3.213939e+01
4.851130e+02	-3.217989e+01
4.879150e+02	-3.223256e+01
4.907332e+02	-3.228189e+01
4.935676e+02	-3.232491e+01
4.964185e+02	-3.238206e+01
4.992858e+02	-3.242908e+01
5.021696e+02	-3.248524e+01
5.050701e+02	-3.253331e+01
5.079874e+02	-3.257837e+01
5.109215e+02	-3.263017e+01
5.138726e+02	-3.268377e+01
5.168407e+02	-3.273332e+01
5.198259e+02	-3.277715e+01
5.228284e+02	-3.283624e+01
5.258482e+02	-3.288415e+01
5.288855e+02	-3.293573e+01
5.319403e+02	-3.298284e+01
5.350128e+02	-3.302772e+01
5.381030e+02	-3.308528e+01
5.412111e+02	-3.313703e+01
5.443371e+02	-3.318388e+01
5.474812e+02	-3.322834e+01
5.506434e+02	-3.328540e+01
5.538239e+02	-3.334168e+01
5.570228e+02	-3.338043e+01
5.602401e+02	-3.343705e+01
5.634760e+02	-3.348567e+01
5.667306e+02	-3.353358e+01
5.700040e+02	-3.359231e+01
5.732964e+02	-3.364584e+01
5.766077e+02	-3.369010e+01
5.799382e+02	-3.374089e+01
5.832879e+02	-3.379167e+01
5.866569e+02	-3.384123e+01
5.900454e+02	-3.388977e+01
5.934535e+02	-3.394440e+01
5.968813e+02	-3.398840e+01
6.003288e+02	-3.403872e+01
6.037963e+02	-3.408761e+01
6.072838e+02	-3.413722e+01
6.107914e+02	-3.419167e+01
6.143194e+02	-3.424676e+01
6.178676e+02	-3.429404e+01
6.214364e+02	-3.434481e+01
6.250258e+02	-3.439022e+01
6.286359e+02	-3.444626e+01
6.322669e+02	-3.448504e+01
6.359189e+02	-3.455149e+01
6.395919e+02	-3.460000e+01
6.432862e+02	-3.464346e+01
6.470017e+02	-3.469444e+01
6.507388e+02	-3.474041e+01
6.544974e+02	-3.479184e+01
6.582778e+02	-3.484938e+01
6.620800e+02	-3.489027e+01
6.659041e+02	-3.494214e+01
6.697504e+02	-3.499802e+01
6.736188e+02	-3.504366e+01
6.775096e+02	-3.509642e+01
6.814229e+02	-3.515327e+01
6.853587e+02	-3.520247e+01
6.893173e+02	-3.524761e+01
6.932988e+02	-3.529148e+01
6.973033e+02	-3.535147e+01
7.013309e+02	-3.538427e+01
