Frequency(Hz)	Magnitude(dB)
1.000000e+01	-1.554737e-05
1.005776e+01	-1.572749e-05
1.011585e+01	-1.590970e-05
1.017428e+01	-1.609402e-05
1.023305e+01	-1.628047e-05
1.029215e+01	-1.646909e-05
1.035160e+01	-1.665989e-05
1.041139e+01	-1.685289e-05
1.047153e+01	-1.704814e-05
1.053201e+01	-1.724565e-05
1.059284e+01	-1.744544e-05
1.065403e+01	-1.764755e-05
1.071556e+01	-1.785200e-05
1.077746e+01	-1.805882e-05
1.083971e+01	-1.826804e-05
1.090232e+01	-1.847968e-05
1.096529e+01	-1.869377e-05
1.102862e+01	-1.891034e-05
1.109232e+01	-1.912942e-05
1.115639e+01	-1.935104e-05
1.122083e+01	-1.957523e-05
1.128564e+01	-1.980201e-05
1.135083e+01	-2.003143e-05
1.141639e+01	-2.026349e-05
1.148233e+01	-2.049825e-05
1.154865e+01	-2.073573e-05
1.161536e+01	-2.097596e-05
1.168245e+01	-2.121897e-05
1.174992e+01	-2.146480e-05
1.181779e+01	-2.171347e-05
1.188605e+01	-2.196503e-05
1.195470e+01	-2.221950e-05
1.202375e+01	-2.247692e-05
1.209320e+01	-2.273732e-05
1.216305e+01	-2.300074e-05
1.223330e+01	-2.326720e-05
1.230396e+01	-2.353676e-05
1.237503e+01	-2.380944e-05
1.244651e+01	-2.408528e-05
1.251840e+01	-2.436431e-05
1.259070e+01	-2.464658e-05
1.266343e+01	-2.493212e-05
1.273657e+01	-2.522096e-05
1.281014e+01	-2.551315e-05
1.288413e+01	-2.580873e-05
1.295855e+01	-2.610773e-05
1.303339e+01	-2.641019e-05
1.310867e+01	-2.671616e-05
1.318439e+01	-2.702567e-05
1.326054e+01	-2.733877e-05
1.333713e+01	-2.765550e-05
1.341417e+01	-2.797590e-05
1.349165e+01	-2.830000e-05
1.356958e+01	-2.862787e-05
1.364795e+01	-2.895953e-05
1.372678e+01	-2.929503e-05
1.380607e+01	-2.963442e-05
1.388581e+01	-2.997774e-05
1.396602e+01	-3.032504e-05
1.404668e+01	-3.067636e-05
1.412782e+01	-3.103176e-05
1.420942e+01	-3.139127e-05
1.429149e+01	-3.175494e-05
1.437404e+01	-3.212283e-05
1.445706e+01	-3.249498e-05
1.454057e+01	-3.287144e-05
1.462455e+01	-3.325227e-05
1.470902e+01	-3.363750e-05
1.479398e+01	-3.402720e-05
1.487943e+01	-3.442141e-05
1.496537e+01	-3.482019e-05
1.505181e+01	-3.522359e-05
1.513875e+01	-3.563167e-05
1.522619e+01	-3.604447e-05
1.531414e+01	-3.646205e-05
1.540259e+01	-3.688447e-05
1.549156e+01	-3.731179e-05
1.558103e+01	-3.774405e-05
1.567103e+01	-3.818133e-05
1.576155e+01	-3.862367e-05
1.585258e+01	-3.907113e-05
1.594415e+01	-3.952378e-05
1.603624e+01	-3.998167e-05
1.612886e+01	-4.044487e-05
1.622202e+01	-4.091343e-05
1.631572e+01	-4.138742e-05
1.640996e+01	-4.186690e-05
1.650474e+01	-4.235194e-05
1.660008e+01	-4.284260e-05
1.669596e+01	-4.333894e-05
1.679239e+01	-4.384103e-05
1.688938e+01	-4.434894e-05
1.698694e+01	-4.486273e-05
1.708505e+01	-4.538247e-05
1.718373e+01	-4.590824e-05
1.728299e+01	-4.644010e-05
1.738281e+01	-4.697812e-05
1.748322e+01	-4.752237e-05
1.758420e+01	-4.807292e-05
1.768576e+01	-4.862986e-05
1.778792e+01	-4.919325e-05
1.789066e+01	-4.976316e-05
1.799399e+01	-5.033968e-05
1.809793e+01	-5.092287e-05
1.820246e+01	-5.151283e-05
1.830760e+01	-5.210961e-05
1.841334e+01	-5.271331e-05
1.851969e+01	-5.332401e-05
1.862666e+01	-5.394178e-05
1.873425e+01	-5.456671e-05
1.884246e+01	-5.519887e-05
1.895129e+01	-5.583836e-05
1.906075e+01	-5.648526e-05
1.917085e+01	-5.713965e-05
1.928158e+01	-5.780163e-05
1.939295e+01	-5.847127e-05
1.950496e+01	-5.914867e-05
1.961762e+01	-5.983392e-05
1.973093e+01	-6.052711e-05
1.984490e+01	-6.122833e-05
1.995952e+01	-6.193767e-05
2.007480e+01	-6.265523e-05
2.019076e+01	-6.338110e-05
2.030738e+01	-6.411539e-05
2.042467e+01	-6.485818e-05
2.054264e+01	-6.560957e-05
2.066130e+01	-6.636967e-05
2.078064e+01	-6.713857e-05
2.090066e+01	-6.791639e-05
2.102139e+01	-6.870321e-05
2.114280e+01	-6.949915e-05
2.126492e+01	-7.030431e-05
2.138775e+01	-7.111880e-05
2.151128e+01	-7.194273e-05
2.163553e+01	-7.277619e-05
2.176050e+01	-7.361932e-05
2.188619e+01	-7.447221e-05
2.201260e+01	-7.533499e-05
2.213974e+01	-7.620776e-05
2.226762e+01	-7.709064e-05
2.239624e+01	-7.798375e-05
2.252560e+01	-7.888720e-05
2.265571e+01	-7.980112e-05
2.278656e+01	-8.072563e-05
2.291818e+01	-8.166085e-05
2.305055e+01	-8.260691e-05
2.318369e+01	-8.356392e-05
2.331760e+01	-8.453202e-05
2.345228e+01	-8.551134e-05
2.358774e+01	-8.650201e-05
2.372398e+01	-8.750414e-05
2.386101e+01	-8.851789e-05
2.399883e+01	-8.954339e-05
2.413745e+01	-9.058076e-05
2.427686e+01	-9.163016e-05
2.441709e+01	-9.269170e-05
2.455812e+01	-9.376555e-05
2.469997e+01	-9.485184e-05
2.484263e+01	-9.595071e-05
2.498612e+01	-9.706232e-05
2.513044e+01	-9.818680e-05
2.527559e+01	-9.932431e-05
2.542158e+01	-1.004750e-04
2.556842e+01	-1.016390e-04
2.571610e+01	-1.028165e-04
2.586463e+01	-1.040077e-04
2.601403e+01	-1.052126e-04
2.616428e+01	-1.064315e-04
2.631541e+01	-1.076645e-04
2.646740e+01	-1.089118e-04
2.662028e+01	-1.101736e-04
2.677404e+01	-1.114500e-04
2.692868e+01	-1.127411e-04
2.708422e+01	-1.140472e-04
2.724066e+01	-1.153685e-04
2.739800e+01	-1.167051e-04
2.755625e+01	-1.180571e-04
2.771541e+01	-1.194248e-04
2.787550e+01	-1.208084e-04
2.803650e+01	-1.222079e-04
2.819844e+01	-1.236237e-04
2.836131e+01	-1.250559e-04
2.852513e+01	-1.265047e-04
2.868989e+01	-1.279703e-04
2.885560e+01	-1.294528e-04
2.902227e+01	-1.309526e-04
2.918990e+01	-1.324697e-04
2.935850e+01	-1.340043e-04
2.952807e+01	-1.355568e-04
2.969863e+01	-1.371272e-04
2.987016e+01	-1.387159e-04
3.004269e+01	-1.403229e-04
3.021622e+01	-1.419485e-04
3.039075e+01	-1.435930e-04
3.056628e+01	-1.452566e-04
3.074283e+01	-1.469394e-04
3.092040e+01	-1.486417e-04
3.109900e+01	-1.503637e-04
3.127862e+01	-1.521057e-04
3.145929e+01	-1.538678e-04
3.164099e+01	-1.556504e-04
3.182375e+01	-1.574536e-04
3.200756e+01	-1.592777e-04
3.219244e+01	-1.611230e-04
3.237838e+01	-1.629896e-04
3.256540e+01	-1.648778e-04
3.275349e+01	-1.667880e-04
3.294268e+01	-1.687202e-04
3.313295e+01	-1.706748e-04
3.332433e+01	-1.726521e-04
3.351681e+01	-1.746523e-04
3.371040e+01	-1.766757e-04
3.390511e+01	-1.787225e-04
3.410094e+01	-1.807930e-04
3.429791e+01	-1.828874e-04
3.449601e+01	-1.850062e-04
3.469526e+01	-1.871495e-04
3.489566e+01	-1.893176e-04
3.509721e+01	-1.915109e-04
3.529993e+01	-1.937295e-04
3.550382e+01	-1.959739e-04
3.570889e+01	-1.982443e-04
3.591515e+01	-2.005409e-04
3.612259e+01	-2.028642e-04
3.633123e+01	-2.052144e-04
3.654108e+01	-2.075918e-04
3.675214e+01	-2.099967e-04
3.696442e+01	-2.124296e-04
3.717792e+01	-2.148905e-04
3.739266e+01	-2.173801e-04
3.760864e+01	-2.198984e-04
3.782587e+01	-2.224459e-04
3.804435e+01	-2.250229e-04
3.826409e+01	-2.276298e-04
3.848510e+01	-2.302669e-04
3.870739e+01	-2.329346e-04
3.893096e+01	-2.356331e-04
3.915583e+01	-2.383629e-04
3.938199e+01	-2.411243e-04
3.960946e+01	-2.439177e-04
3.983824e+01	-2.467435e-04
4.006834e+01	-2.496020e-04
4.029978e+01	-2.524936e-04
4.053255e+01	-2.554188e-04
4.076666e+01	-2.583778e-04
4.100213e+01	-2.613711e-04
4.123896e+01	-2.643990e-04
4.147715e+01	-2.674621e-04
4.171672e+01	-2.705606e-04
4.195767e+01	-2.736950e-04
4.220002e+01	-2.768657e-04
4.244377e+01	-2.800732e-04
4.268892e+01	-2.833178e-04
4.293549e+01	-2.866000e-04
4.318348e+01	-2.899203e-04
4.343291e+01	-2.932790e-04
4.368377e+01	-2.966766e-04
4.393609e+01	-3.001135e-04
4.418986e+01	-3.035903e-04
4.444510e+01	-3.071073e-04
4.470182e+01	-3.106651e-04
4.496001e+01	-3.142642e-04
4.521970e+01	-3.179049e-04
4.548089e+01	-3.215877e-04
4.574358e+01	-3.253133e-04
4.600779e+01	-3.290820e-04
4.627353e+01	-3.328943e-04
4.654081e+01	-3.367509e-04
4.680963e+01	-3.406521e-04
4.708000e+01	-3.445985e-04
4.735193e+01	-3.485906e-04
4.762543e+01	-3.526289e-04
4.790051e+01	-3.567141e-04
4.817719e+01	-3.608465e-04
4.845545e+01	-3.650269e-04
4.873533e+01	-3.692556e-04
4.901682e+01	-3.735334e-04
4.929994e+01	-3.778607e-04
4.958470e+01	-3.822381e-04
4.987110e+01	-3.866662e-04
5.015915e+01	-3.911456e-04
5.044887e+01	-3.956770e-04
5.074026e+01	-4.002608e-04
5.103333e+01	-4.048977e-04
5.132810e+01	-4.095883e-04
5.162457e+01	-4.143333e-04
5.192275e+01	-4.191332e-04
5.222265e+01	-4.239888e-04
5.252429e+01	-4.289006e-04
5.282767e+01	-4.338692e-04
5.313280e+01	-4.388955e-04
5.343969e+01	-4.439800e-04
5.374836e+01	-4.491233e-04
5.405880e+01	-4.543263e-04
5.437105e+01	-4.595895e-04
5.468509e+01	-4.649137e-04
5.500095e+01	-4.702995e-04
5.531863e+01	-4.757478e-04
5.563815e+01	-4.812591e-04
5.595951e+01	-4.868343e-04
5.628273e+01	-4.924741e-04
5.660782e+01	-4.981793e-04
5.693479e+01	-5.039505e-04
5.726364e+01	-5.097885e-04
5.759439e+01	-5.156942e-04
5.792705e+01	-5.216683e-04
5.826164e+01	-5.277116e-04
5.859815e+01	-5.338249e-04
5.893662e+01	-5.400091e-04
5.927703e+01	-5.462648e-04
5.961941e+01	-5.525930e-04
5.996377e+01	-5.589946e-04
6.031012e+01	-5.654703e-04
6.065847e+01	-5.720210e-04
6.100883e+01	-5.786475e-04
6.136121e+01	-5.853509e-04
6.171563e+01	-5.921319e-04
6.207210e+01	-5.989914e-04
6.243063e+01	-6.059304e-04
6.279122e+01	-6.129498e-04
6.315390e+01	-6.200505e-04
6.351868e+01	-6.272334e-04
6.388556e+01	-6.344995e-04
6.425456e+01	-6.418498e-04
6.462569e+01	-6.492853e-04
6.499897e+01	-6.568069e-04
6.537440e+01	-6.644156e-04
6.575200e+01	-6.721124e-04
6.613178e+01	-6.798984e-04
6.651375e+01	-6.877746e-04
6.689793e+01	-6.957420e-04
6.728433e+01	-7.038017e-04
6.767297e+01	-7.119548e-04
6.806384e+01	-7.202023e-04
6.845698e+01	-7.285453e-04
6.885238e+01	-7.369850e-04
6.925007e+01	-7.455225e-04
6.965005e+01	-7.541588e-04
7.005235e+01	-7.628952e-04
7.045697e+01	-7.717327e-04
7.086393e+01	-7.806727e-04
7.127323e+01	-7.897162e-04
7.168490e+01	-7.988644e-04
7.209895e+01	-8.081186e-04
7.251539e+01	-8.174800e-04
7.293424e+01	-8.269498e-04
7.335551e+01	-8.365293e-04
7.377920e+01	-8.462198e-04
7.420535e+01	-8.560225e-04
7.463396e+01	-8.659388e-04
7.506504e+01	-8.759699e-04
7.549861e+01	-8.861172e-04
7.593469e+01	-8.963821e-04
7.637328e+01	-9.067658e-04
7.681441e+01	-9.172698e-04
7.725809e+01	-9.278955e-04
7.770433e+01	-9.386443e-04
7.815315e+01	-9.495176e-04
7.860456e+01	-9.605168e-04
7.905857e+01	-9.716434e-04
7.951521e+01	-9.828988e-04
7.997449e+01	-9.942847e-04
8.043642e+01	-1.005802e-03
8.090102e+01	-1.017454e-03
8.136830e+01	-1.029240e-03
8.183828e+01	-1.041162e-03
8.231097e+01	-1.053223e-03
8.278640e+01	-1.065423e-03
8.326457e+01	-1.077765e-03
8.374550e+01	-1.090250e-03
8.422921e+01	-1.102879e-03
8.471572e+01	-1.115654e-03
8.520503e+01	-1.128578e-03
8.569717e+01	-1.141651e-03
8.619215e+01	-1.154876e-03
8.669000e+01	-1.168253e-03
8.719071e+01	-1.181786e-03
8.769432e+01	-1.195475e-03
8.820084e+01	-1.209323e-03
8.871029e+01	-1.223332e-03
8.922267e+01	-1.237502e-03
8.973802e+01	-1.251837e-03
9.025634e+01	-1.266338e-03
9.077766e+01	-1.281007e-03
9.130199e+01	-1.295845e-03
9.182935e+01	-1.310856e-03
9.235975e+01	-1.326040e-03
9.289321e+01	-1.341400e-03
9.342976e+01	-1.356938e-03
9.396941e+01	-1.372656e-03
9.451217e+01	-1.388556e-03
9.505807e+01	-1.404640e-03
9.560712e+01	-1.420911e-03
9.615934e+01	-1.437370e-03
9.671476e+01	-1.454019e-03
9.727338e+01	-1.470862e-03
9.783522e+01	-1.487899e-03
9.840032e+01	-1.505134e-03
9.896867e+01	-1.522568e-03
9.954031e+01	-1.540204e-03
1.001153e+02	-1.558045e-03
1.006935e+02	-1.576092e-03
1.012751e+02	-1.594348e-03
1.018601e+02	-1.612815e-03
1.024484e+02	-1.631497e-03
1.030402e+02	-1.650395e-03
1.036353e+02	-1.669511e-03
1.042339e+02	-1.688849e-03
1.048360e+02	-1.708411e-03
1.054415e+02	-1.728199e-03
1.060505e+02	-1.748217e-03
1.066631e+02	-1.768467e-03
1.072791e+02	-1.788950e-03
1.078988e+02	-1.809672e-03
1.085220e+02	-1.830633e-03
1.091488e+02	-1.851837e-03
1.097793e+02	-1.873286e-03
1.104133e+02	-1.894984e-03
1.110511e+02	-1.916933e-03
1.116925e+02	-1.939136e-03
1.123376e+02	-1.961596e-03
1.129865e+02	-1.984317e-03
1.136391e+02	-2.007300e-03
1.142955e+02	-2.030550e-03
1.149556e+02	-2.054069e-03
1.156196e+02	-2.077860e-03
1.162874e+02	-2.101927e-03
1.169591e+02	-2.126272e-03
1.176347e+02	-2.150899e-03
1.183141e+02	-2.175812e-03
1.189975e+02	-2.201013e-03
1.196848e+02	-2.226506e-03
1.203761e+02	-2.252294e-03
1.210714e+02	-2.278380e-03
1.217707e+02	-2.304769e-03
1.224740e+02	-2.331463e-03
1.231814e+02	-2.358466e-03
1.238929e+02	-2.385782e-03
1.246085e+02	-2.413414e-03
1.253283e+02	-2.441367e-03
1.260522e+02	-2.469642e-03
1.267802e+02	-2.498246e-03
1.275125e+02	-2.527180e-03
1.282490e+02	-2.556450e-03
1.289898e+02	-2.586058e-03
1.297348e+02	-2.616009e-03
1.304842e+02	-2.646307e-03
1.312378e+02	-2.676956e-03
1.319959e+02	-2.707959e-03
1.327583e+02	-2.739322e-03
1.335251e+02	-2.771047e-03
1.342963e+02	-2.803140e-03
1.350720e+02	-2.835605e-03
1.358522e+02	-2.868445e-03
1.366368e+02	-2.901666e-03
1.374260e+02	-2.935271e-03
1.382198e+02	-2.969265e-03
1.390182e+02	-3.003653e-03
1.398211e+02	-3.038439e-03
1.406287e+02	-3.073627e-03
1.414410e+02	-3.109223e-03
1.422579e+02	-3.145231e-03
1.430796e+02	-3.181656e-03
1.439060e+02	-3.218503e-03
1.447372e+02	-3.255776e-03
1.455732e+02	-3.293481e-03
1.464141e+02	-3.331622e-03
1.472597e+02	-3.370205e-03
1.481103e+02	-3.409234e-03
1.489658e+02	-3.448715e-03
1.498262e+02	-3.488653e-03
1.506916e+02	-3.529054e-03
1.515620e+02	-3.569922e-03
1.524374e+02	-3.611263e-03
1.533179e+02	-3.653083e-03
1.542034e+02	-3.695387e-03
1.550941e+02	-3.738181e-03
1.559899e+02	-3.781470e-03
1.568909e+02	-3.825259e-03
1.577971e+02	-3.869556e-03
1.587085e+02	-3.914366e-03
1.596252e+02	-3.959694e-03
1.605472e+02	-4.005547e-03
1.614745e+02	-4.051931e-03
1.624072e+02	-4.098851e-03
1.633453e+02	-4.146315e-03
1.642887e+02	-4.194327e-03
1.652377e+02	-4.242896e-03
1.661921e+02	-4.292027e-03
1.671520e+02	-4.341726e-03
1.681175e+02	-4.392001e-03
1.690885e+02	-4.442857e-03
1.700651e+02	-4.494302e-03
1.710474e+02	-4.546342e-03
1.720354e+02	-4.598985e-03
1.730291e+02	-4.652237e-03
1.740285e+02	-4.706105e-03
1.750337e+02	-4.760596e-03
1.760446e+02	-4.815718e-03
1.770615e+02	-4.871478e-03
1.780842e+02	-4.927883e-03
1.791128e+02	-4.984941e-03
1.801473e+02	-5.042660e-03
1.811878e+02	-5.101046e-03
1.822344e+02	-5.160107e-03
1.832870e+02	-5.219853e-03
1.843456e+02	-5.280289e-03
1.854104e+02	-5.341425e-03
1.864813e+02	-5.403268e-03
1.875584e+02	-5.465827e-03
1.886418e+02	-5.529109e-03
1.897313e+02	-5.593124e-03
1.908272e+02	-5.657879e-03
1.919294e+02	-5.723384e-03
1.930380e+02	-5.789647e-03
1.941530e+02	-5.856676e-03
1.952744e+02	-5.924480e-03
1.964023e+02	-5.993070e-03
1.975367e+02	-6.062452e-03
1.986777e+02	-6.132638e-03
1.998252e+02	-6.203635e-03
2.009794e+02	-6.275453e-03
2.021403e+02	-6.348103e-03
2.033078e+02	-6.421593e-03
2.044821e+02	-6.495933e-03
2.056632e+02	-6.571133e-03
2.068511e+02	-6.647202e-03
2.080459e+02	-6.724152e-03
2.092475e+02	-6.801992e-03
2.104561e+02	-6.880732e-03
2.116717e+02	-6.960383e-03
2.128943e+02	-7.040955e-03
2.141240e+02	-7.122459e-03
2.153608e+02	-7.204906e-03
2.166047e+02	-7.288307e-03
2.178558e+02	-7.372672e-03
2.191141e+02	-7.458012e-03
2.203797e+02	-7.544340e-03
2.216526e+02	-7.631666e-03
2.229329e+02	-7.720002e-03
2.242205e+02	-7.809359e-03
2.255156e+02	-7.899750e-03
2.268182e+02	-7.991186e-03
2.281283e+02	-8.083680e-03
2.294459e+02	-8.177243e-03
2.307712e+02	-8.271888e-03
2.321041e+02	-8.367627e-03
2.334447e+02	-8.464473e-03
2.347931e+02	-8.562439e-03
2.361493e+02	-8.661538e-03
2.375133e+02	-8.761783e-03
2.388851e+02	-8.863186e-03
2.402649e+02	-8.965762e-03
2.416527e+02	-9.069524e-03
2.430484e+02	-9.174485e-03
2.444523e+02	-9.280660e-03
2.458642e+02	-9.388062e-03
2.472843e+02	-9.496706e-03
2.487126e+02	-9.606605e-03
2.501492e+02	-9.717775e-03
2.515940e+02	-9.830230e-03
2.530472e+02	-9.943985e-03
2.545088e+02	-1.005905e-02
2.559789e+02	-1.017545e-02
2.574574e+02	-1.029320e-02
2.589444e+02	-1.041231e-02
2.604401e+02	-1.053279e-02
2.619444e+02	-1.065466e-02
2.634574e+02	-1.077795e-02
2.649791e+02	-1.090265e-02
2.665096e+02	-1.102880e-02
2.680489e+02	-1.115641e-02
2.695972e+02	-1.128549e-02
2.711544e+02	-1.141606e-02
2.727205e+02	-1.154814e-02
2.742958e+02	-1.168175e-02
2.758801e+02	-1.181690e-02
2.774736e+02	-1.195362e-02
2.790762e+02	-1.209191e-02
2.806882e+02	-1.223180e-02
2.823094e+02	-1.237330e-02
2.839400e+02	-1.251644e-02
2.855800e+02	-1.266124e-02
2.872295e+02	-1.280770e-02
2.888886e+02	-1.295586e-02
2.905572e+02	-1.310573e-02
2.922354e+02	-1.325733e-02
2.939234e+02	-1.341068e-02
2.956211e+02	-1.356581e-02
2.973286e+02	-1.372272e-02
2.990459e+02	-1.388145e-02
3.007732e+02	-1.404201e-02
3.025104e+02	-1.420442e-02
3.042577e+02	-1.436871e-02
3.060151e+02	-1.453489e-02
3.077826e+02	-1.470300e-02
3.095604e+02	-1.487304e-02
3.113484e+02	-1.504505e-02
3.131467e+02	-1.521904e-02
3.149554e+02	-1.539505e-02
3.167746e+02	-1.557308e-02
3.186043e+02	-1.575317e-02
3.204445e+02	-1.593534e-02
3.222954e+02	-1.611961e-02
3.241570e+02	-1.630601e-02
3.260293e+02	-1.649456e-02
3.279124e+02	-1.668528e-02
3.298064e+02	-1.687821e-02
3.317114e+02	-1.707336e-02
3.336273e+02	-1.727076e-02
3.355544e+02	-1.747045e-02
3.374925e+02	-1.767243e-02
3.394418e+02	-1.787675e-02
3.414024e+02	-1.808342e-02
3.433744e+02	-1.829248e-02
3.453577e+02	-1.850395e-02
3.473525e+02	-1.871786e-02
3.493588e+02	-1.893424e-02
3.513766e+02	-1.915311e-02
3.534062e+02	-1.937451e-02
3.554474e+02	-1.959846e-02
3.575005e+02	-1.982499e-02
3.595654e+02	-2.005413e-02
3.616422e+02	-2.028592e-02
3.637311e+02	-2.052038e-02
3.658320e+02	-2.075754e-02
3.679450e+02	-2.099744e-02
3.700702e+02	-2.124011e-02
3.722077e+02	-2.148557e-02
3.743576e+02	-2.173386e-02
3.765199e+02	-2.198501e-02
3.786946e+02	-2.223906e-02
3.808820e+02	-2.249603e-02
3.830819e+02	-2.275597e-02
3.852946e+02	-2.301890e-02
3.875200e+02	-2.328486e-02
3.897583e+02	-2.355389e-02
3.920096e+02	-2.382602e-02
3.942738e+02	-2.410128e-02
3.965511e+02	-2.437971e-02
3.988416e+02	-2.466135e-02
4.011452e+02	-2.494623e-02
4.034622e+02	-2.523440e-02
4.057926e+02	-2.552588e-02
4.081365e+02	-2.582073e-02
4.104938e+02	-2.611896e-02
4.128648e+02	-2.642063e-02
4.152495e+02	-2.672578e-02
4.176480e+02	-2.703443e-02
4.200603e+02	-2.734665e-02
4.224866e+02	-2.766245e-02
4.249268e+02	-2.798189e-02
4.273812e+02	-2.830501e-02
4.298497e+02	-2.863184e-02
4.323325e+02	-2.896244e-02
4.348297e+02	-2.929684e-02
4.373412e+02	-2.963509e-02
4.398673e+02	-2.997723e-02
4.424079e+02	-3.032331e-02
4.449633e+02	-3.067337e-02
4.475334e+02	-3.102745e-02
4.501183e+02	-3.138561e-02
4.527182e+02	-3.174789e-02
4.553330e+02	-3.211433e-02
4.579630e+02	-3.248498e-02
4.606082e+02	-3.285990e-02
4.632687e+02	-3.323913e-02
4.659445e+02	-3.362272e-02
4.686358e+02	-3.401072e-02
4.713426e+02	-3.440317e-02
4.740650e+02	-3.480014e-02
4.768032e+02	-3.520167e-02
4.795572e+02	-3.560781e-02
4.823271e+02	-3.601862e-02
4.851130e+02	-3.643415e-02
4.879150e+02	-3.685445e-02
4.907332e+02	-3.727958e-02
4.935676e+02	-3.770959e-02
4.964185e+02	-3.814454e-02
4.992858e+02	-3.858449e-02
5.021696e+02	-3.902949e-02
5.050701e+02	-3.947959e-02
5.079874e+02	-3.993486e-02
5.109215e+02	-4.039536e-02
5.138726e+02	-4.086114e-02
5.168407e+02	-4.133227e-02
5.198259e+02	-4.180880e-02
5.228284e+02	-4.229080e-02
5.258482e+02	-4.277833e-02
5.288855e+02	-4.327145e-02
5.319403e+02	-4.377023e-02
5.350128e+02	-4.427473e-02
5.381030e+02	-4.478501e-02
5.412111e+02	-4.530114e-02
5.443371e+02	-4.582319e-02
5.474812e+02	-4.635123e-02
5.506434e+02	-4.688531e-02
5.538239e+02	-4.742552e-02
5.570228e+02	-4.797191e-02
5.602401e+02	-4.852456e-02
5.634760e+02	-4.908355e-02
5.667306e+02	-4.964894e-02
5.700040e+02	-5.022080e-02
5.732964e+02	-5.079921e-02
5.766077e+02	-5.138424e-02
5.799382e+02	-5.197597e-02
5.832879e+02	-5.257447e-02
5.866569e+02	-5.317982e-02
5.900454e+02	-5.379210e-02
5.934535e+02	-5.441138e-02
5.968813e+02	-5.503775e-02
6.003288e+02	-5.567128e-02
6.037963e+02	-5.631206e-02
6.072838e+02	-5.696016e-02
6.107914e+02	-5.761567e-02
6.143194e+02	-5.827868e-02
6.178676e+02	-5.894926e-02
6.214364e+02	-5.962751e-02
6.250258e+02	-6.031350e-02
6.286359e+02	-6.100733e-02
6.322669e+02	-6.170909e-02
6.359189e+02	-6.241886e-02
6.395919e+02	-6.313673e-02
6.432862e+02	-6.386280e-02
6.470017e+02	-6.459716e-02
6.507388e+02	-6.533990e-02
6.544974e+02	-6.609111e-02
6.582778e+02	-6.685089e-02
6.620800e+02	-6.761934e-02
6.659041e+02	-6.839655e-02
6.697504e+02	-6.918263e-02
6.736188e+02	-6.997766e-02
6.775096e+02	-7.078176e-02
6.814229e+02	-7.159502e-02
6.853587e+02	-7.241754e-02
6.893173e+02	-7.324944e-02
6.932988e+02	-7.409081e-02
6.973033e+02	-7.494176e-02
7.013309e+02	-7.580239e-02
