Frequency(Hz)	Magnitude(dB)
1.000000e+01	-2.131627e+00
1.005776e+01	-2.150912e+00
1.011585e+01	-2.170466e+00
1.017428e+01	-2.190265e+00
1.023305e+01	-2.210048e+00
1.029215e+01	-2.230227e+00
1.035160e+01	-2.250536e+00
1.041139e+01	-2.270486e+00
1.047153e+01	-2.291038e+00
1.053201e+01	-2.311665e+00
1.059284e+01	-2.332493e+00
1.065403e+01	-2.353167e+00
1.071556e+01	-2.374326e+00
1.077746e+01	-2.395459e+00
1.083971e+01	-2.416688e+00
1.090232e+01	-2.438233e+00
1.096529e+01	-2.459726e+00
1.102862e+01	-2.481440e+00
1.109232e+01	-2.502895e+00
1.115639e+01	-2.525088e+00
1.122083e+01	-2.547133e+00
1.128564e+01	-2.569599e+00
1.135083e+01	-2.592001e+00
1.141639e+01	-2.614481e+00
1.148233e+01	-2.637221e+00
1.154865e+01	-2.659955e+00
1.161536e+01	-2.683355e+00
1.168245e+01	-2.706025e+00
1.174992e+01	-2.729577e+00
1.181779e+01	-2.752987e+00
1.188605e+01	-2.776305e+00
1.195470e+01	-2.800047e+00
1.202375e+01	-2.823931e+00
1.209320e+01	-2.847967e+00
1.216305e+01	-2.872085e+00
1.223330e+01	-2.896279e+00
1.230396e+01	-2.920759e+00
1.237503e+01	-2.945338e+00
1.244651e+01	-2.970052e+00
1.251840e+01	-2.994622e+00
1.259070e+01	-3.019760e+00
1.266343e+01	-3.045160e+00
1.273657e+01	-3.070333e+00
1.281014e+01	-3.095796e+00
1.288413e+01	-3.121517e+00
1.295855e+01	-3.147098e+00
1.303339e+01	-3.173019e+00
1.310867e+01	-3.198762e+00
1.318439e+01	-3.224919e+00
1.326054e+01	-3.251463e+00
1.333713e+01	-3.277758e+00
1.341417e+01	-3.304279e+00
1.349165e+01	-3.331179e+00
1.356958e+01	-3.358017e+00
1.364795e+01	-3.384987e+00
1.372678e+01	-3.412182e+00
1.380607e+01	-3.439278e+00
1.388581e+01	-3.466867e+00
1.396602e+01	-3.494522e+00
1.404668e+01	-3.522187e+00
1.412782e+01	-3.549872e+00
1.420942e+01	-3.577696e+00
1.429149e+01	-3.606068e+00
1.437404e+01	-3.634495e+00
1.445706e+01	-3.662863e+00
1.454057e+01	-3.691289e+00
1.462455e+01	-3.720306e+00
1.470902e+01	-3.749131e+00
1.479398e+01	-3.777865e+00
1.487943e+01	-3.807401e+00
1.496537e+01	-3.836361e+00
1.505181e+01	-3.866016e+00
1.513875e+01	-3.895433e+00
1.522619e+01	-3.925028e+00
1.531414e+01	-3.954970e+00
1.540259e+01	-3.984954e+00
1.549156e+01	-4.015006e+00
1.558103e+01	-4.045245e+00
1.567103e+01	-4.075824e+00
1.576155e+01	-4.106216e+00
1.585258e+01	-4.136899e+00
1.594415e+01	-4.167763e+00
1.603624e+01	-4.198525e+00
1.612886e+01	-4.229945e+00
1.622202e+01	-4.260792e+00
1.631572e+01	-4.292341e+00
1.640996e+01	-4.323728e+00
1.650474e+01	-4.355117e+00
1.660008e+01	-4.386894e+00
1.669596e+01	-4.418804e+00
1.679239e+01	-4.451013e+00
1.688938e+01	-4.483117e+00
1.698694e+01	-4.515208e+00
1.708505e+01	-4.547791e+00
1.718373e+01	-4.579972e+00
1.728299e+01	-4.612666e+00
1.738281e+01	-4.645097e+00
1.748322e+01	-4.678919e+00
1.758420e+01	-4.711543e+00
1.768576e+01	-4.744789e+00
1.778792e+01	-4.777953e+00
1.789066e+01	-4.811632e+00
1.799399e+01	-4.845171e+00
1.809793e+01	-4.878619e+00
1.820246e+01	-4.912695e+00
1.830760e+01	-4.946639e+00
1.841334e+01	-4.980492e+00
1.851969e+01	-5.014710e+00
1.862666e+01	-5.048992e+00
1.873425e+01	-5.083466e+00
1.884246e+01	-5.117866e+00
1.895129e+01	-5.152980e+00
1.906075e+01	-5.187617e+00
1.917085e+01	-5.222774e+00
1.928158e+01	-5.257906e+00
1.939295e+01	-5.292862e+00
1.950496e+01	-5.328238e+00
1.961762e+01	-5.363560e+00
1.973093e+01	-5.399130e+00
1.984490e+01	-5.434721e+00
1.995952e+01	-5.470832e+00
2.007480e+01	-5.506471e+00
2.019076e+01	-5.542728e+00
2.030738e+01	-5.578494e+00
2.042467e+01	-5.615117e+00
2.054264e+01	-5.651061e+00
2.066130e+01	-5.687639e+00
2.078064e+01	-5.724236e+00
2.090066e+01	-5.761119e+00
2.102139e+01	-5.797619e+00
2.114280e+01	-5.834767e+00
2.126492e+01	-5.871367e+00
2.138775e+01	-5.908860e+00
2.151128e+01	-5.945972e+00
2.163553e+01	-5.983624e+00
2.176050e+01	-6.021046e+00
2.188619e+01	-6.058764e+00
2.201260e+01	-6.095955e+00
2.213974e+01	-6.134203e+00
2.226762e+01	-6.171657e+00
2.239624e+01	-6.210210e+00
2.252560e+01	-6.248192e+00
2.265571e+01	-6.286427e+00
2.278656e+01	-6.324398e+00
2.291818e+01	-6.363008e+00
2.305055e+01	-6.401599e+00
2.318369e+01	-6.440003e+00
2.331760e+01	-6.478737e+00
2.345228e+01	-6.517746e+00
2.358774e+01	-6.556365e+00
2.372398e+01	-6.595281e+00
2.386101e+01	-6.634701e+00
2.399883e+01	-6.674043e+00
2.413745e+01	-6.712998e+00
2.427686e+01	-6.752171e+00
2.441709e+01	-6.792231e+00
2.455812e+01	-6.831622e+00
2.469997e+01	-6.870959e+00
2.484263e+01	-6.911384e+00
2.498612e+01	-6.950721e+00
2.513044e+01	-6.991064e+00
2.527559e+01	-7.030955e+00
2.542158e+01	-7.071495e+00
2.556842e+01	-7.111442e+00
2.571610e+01	-7.151945e+00
2.586463e+01	-7.192202e+00
2.601403e+01	-7.232966e+00
2.616428e+01	-7.273581e+00
2.631541e+01	-7.314562e+00
2.646740e+01	-7.355099e+00
2.662028e+01	-7.395361e+00
2.677404e+01	-7.436689e+00
2.692868e+01	-7.477868e+00
2.708422e+01	-7.518589e+00
2.724066e+01	-7.560540e+00
2.739800e+01	-7.601129e+00
2.755625e+01	-7.643029e+00
2.771541e+01	-7.684232e+00
2.787550e+01	-7.725954e+00
2.803650e+01	-7.767495e+00
2.819844e+01	-7.808835e+00
2.836131e+01	-7.851249e+00
2.852513e+01	-7.892656e+00
2.868989e+01	-7.934487e+00
2.885560e+01	-7.976521e+00
2.902227e+01	-8.019001e+00
2.918990e+01	-8.060933e+00
2.935850e+01	-8.103310e+00
2.952807e+01	-8.145360e+00
2.969863e+01	-8.187851e+00
2.987016e+01	-8.230449e+00
3.004269e+01	-8.272615e+00
3.021622e+01	-8.315644e+00
3.039075e+01	-8.358201e+00
3.056628e+01	-8.400760e+00
3.074283e+01	-8.443723e+00
3.092040e+01	-8.486798e+00
3.109900e+01	-8.529563e+00
3.127862e+01	-8.572525e+00
3.145929e+01	-8.615893e+00
3.164099e+01	-8.658918e+00
3.182375e+01	-8.702324e+00
3.200756e+01	-8.745981e+00
3.219244e+01	-8.788736e+00
3.237838e+01	-8.832432e+00
3.256540e+01	-8.875965e+00
3.275349e+01	-8.919112e+00
3.294268e+01	-8.962912e+00
3.313295e+01	-9.006875e+00
3.332433e+01	-9.050827e+00
3.351681e+01	-9.094522e+00
3.371040e+01	-9.138554e+00
3.390511e+01	-9.182059e+00
3.410094e+01	-9.226326e+00
3.429791e+01	-9.269955e+00
3.449601e+01	-9.314311e+00
3.469526e+01	-9.358654e+00
3.489566e+01	-9.403306e+00
3.509721e+01	-9.447498e+00
3.529993e+01	-9.492054e+00
3.550382e+01	-9.536070e+00
3.570889e+01	-9.581128e+00
3.591515e+01	-9.625030e+00
3.612259e+01	-9.670279e+00
3.633123e+01	-9.714083e+00
3.654108e+01	-9.759217e+00
3.675214e+01	-9.804027e+00
3.696442e+01	-9.848490e+00
3.717792e+01	-9.893478e+00
3.739266e+01	-9.938687e+00
3.760864e+01	-9.983169e+00
3.782587e+01	-1.002865e+01
3.804435e+01	-1.007341e+01
3.826409e+01	-1.011874e+01
3.848510e+01	-1.016389e+01
3.870739e+01	-1.020928e+01
3.893096e+01	-1.025458e+01
3.915583e+01	-1.029982e+01
3.938199e+01	-1.034486e+01
3.960946e+01	-1.039022e+01
3.983824e+01	-1.043562e+01
4.006834e+01	-1.048120e+01
4.029978e+01	-1.052679e+01
4.053255e+01	-1.057287e+01
4.076666e+01	-1.061819e+01
4.100213e+01	-1.066390e+01
4.123896e+01	-1.070980e+01
4.147715e+01	-1.075511e+01
4.171672e+01	-1.080139e+01
4.195767e+01	-1.084743e+01
4.220002e+01	-1.089317e+01
4.244377e+01	-1.093968e+01
4.268892e+01	-1.098561e+01
4.293549e+01	-1.103182e+01
4.318348e+01	-1.107744e+01
4.343291e+01	-1.112363e+01
4.368377e+01	-1.117001e+01
4.393609e+01	-1.121644e+01
4.418986e+01	-1.126242e+01
4.444510e+01	-1.130875e+01
4.470182e+01	-1.135466e+01
4.496001e+01	-1.140123e+01
4.521970e+01	-1.144749e+01
4.548089e+01	-1.149420e+01
4.574358e+01	-1.154070e+01
4.600779e+01	-1.158725e+01
4.627353e+01	-1.163358e+01
4.654081e+01	-1.168082e+01
4.680963e+01	-1.172707e+01
4.708000e+01	-1.177390e+01
4.735193e+01	-1.182073e+01
4.762543e+01	-1.186695e+01
4.790051e+01	-1.191414e+01
4.817719e+01	-1.196122e+01
4.845545e+01	-1.200737e+01
4.873533e+01	-1.205455e+01
4.901682e+01	-1.210130e+01
4.929994e+01	-1.214831e+01
4.958470e+01	-1.219590e+01
4.987110e+01	-1.224281e+01
5.015915e+01	-1.228885e+01
5.044887e+01	-1.233682e+01
5.074026e+01	-1.238399e+01
5.103333e+01	-1.243067e+01
5.132810e+01	-1.247869e+01
5.162457e+01	-1.252590e+01
5.192275e+01	-1.257247e+01
5.222265e+01	-1.262095e+01
5.252429e+01	-1.266770e+01
5.282767e+01	-1.271432e+01
5.313280e+01	-1.276142e+01
5.343969e+01	-1.280927e+01
5.374836e+01	-1.285678e+01
5.405880e+01	-1.290434e+01
5.437105e+01	-1.295125e+01
5.468509e+01	-1.299897e+01
5.500095e+01	-1.304652e+01
5.531863e+01	-1.309499e+01
5.563815e+01	-1.314138e+01
5.595951e+01	-1.318934e+01
5.628273e+01	-1.323663e+01
5.660782e+01	-1.328431e+01
5.693479e+01	-1.333216e+01
5.726364e+01	-1.337970e+01
5.759439e+01	-1.342851e+01
5.792705e+01	-1.347566e+01
5.826164e+01	-1.352343e+01
5.859815e+01	-1.357133e+01
5.893662e+01	-1.361956e+01
5.927703e+01	-1.366755e+01
5.961941e+01	-1.371458e+01
5.996377e+01	-1.376256e+01
6.031012e+01	-1.381109e+01
6.065847e+01	-1.385933e+01
6.100883e+01	-1.390579e+01
6.136121e+01	-1.395461e+01
6.171563e+01	-1.400223e+01
6.207210e+01	-1.405107e+01
6.243063e+01	-1.409893e+01
6.279122e+01	-1.414659e+01
6.315390e+01	-1.419550e+01
6.351868e+01	-1.424350e+01
6.388556e+01	-1.429142e+01
6.425456e+01	-1.433872e+01
6.462569e+01	-1.438818e+01
6.499897e+01	-1.443685e+01
6.537440e+01	-1.448380e+01
6.575200e+01	-1.453197e+01
6.613178e+01	-1.458099e+01
6.651375e+01	-1.462848e+01
6.689793e+01	-1.467665e+01
6.728433e+01	-1.472515e+01
6.767297e+01	-1.477416e+01
6.806384e+01	-1.482206e+01
6.845698e+01	-1.487041e+01
6.885238e+01	-1.491951e+01
6.925007e+01	-1.496704e+01
6.965005e+01	-1.501664e+01
7.005235e+01	-1.506484e+01
7.045697e+01	-1.511243e+01
7.086393e+01	-1.516096e+01
7.127323e+01	-1.521011e+01
7.168490e+01	-1.525818e+01
7.209895e+01	-1.530825e+01
7.251539e+01	-1.535501e+01
7.293424e+01	-1.540401e+01
7.335551e+01	-1.545205e+01
7.377920e+01	-1.550178e+01
7.420535e+01	-1.555008e+01
7.463396e+01	-1.559832e+01
7.506504e+01	-1.564707e+01
7.549861e+01	-1.569580e+01
7.593469e+01	-1.574417e+01
7.637328e+01	-1.579332e+01
7.681441e+01	-1.584263e+01
7.725809e+01	-1.589153e+01
7.770433e+01	-1.593967e+01
7.815315e+01	-1.598771e+01
7.860456e+01	-1.603679e+01
7.905857e+01	-1.608575e+01
7.951521e+01	-1.613459e+01
7.997449e+01	-1.618285e+01
8.043642e+01	-1.623252e+01
8.090102e+01	-1.628179e+01
8.136830e+01	-1.632957e+01
8.183828e+01	-1.638003e+01
8.231097e+01	-1.642712e+01
8.278640e+01	-1.647729e+01
8.326457e+01	-1.652441e+01
8.374550e+01	-1.657523e+01
8.422921e+01	-1.662316e+01
8.471572e+01	-1.667222e+01
8.520503e+01	-1.672140e+01
8.569717e+01	-1.677006e+01
8.619215e+01	-1.681956e+01
8.669000e+01	-1.686816e+01
8.719071e+01	-1.691744e+01
8.769432e+01	-1.696576e+01
8.820084e+01	-1.701536e+01
8.871029e+01	-1.706461e+01
8.922267e+01	-1.711438e+01
8.973802e+01	-1.716374e+01
9.025634e+01	-1.721076e+01
9.077766e+01	-1.726066e+01
9.130199e+01	-1.730949e+01
9.182935e+01	-1.735819e+01
9.235975e+01	-1.740834e+01
9.289321e+01	-1.745709e+01
9.342976e+01	-1.750601e+01
9.396941e+01	-1.755545e+01
9.451217e+01	-1.760494e+01
9.505807e+01	-1.765302e+01
9.560712e+01	-1.770355e+01
9.615934e+01	-1.775228e+01
9.671476e+01	-1.780120e+01
9.727338e+01	-1.785094e+01
9.783522e+01	-1.789888e+01
9.840032e+01	-1.794937e+01
9.896867e+01	-1.799835e+01
9.954031e+01	-1.804709e+01
1.001153e+02	-1.809651e+01
1.006935e+02	-1.814714e+01
1.012751e+02	-1.819555e+01
1.018601e+02	-1.824446e+01
1.024484e+02	-1.829325e+01
1.030402e+02	-1.834221e+01
1.036353e+02	-1.839226e+01
1.042339e+02	-1.844221e+01
1.048360e+02	-1.849095e+01
1.054415e+02	-1.854106e+01
1.060505e+02	-1.858907e+01
1.066631e+02	-1.864057e+01
1.072791e+02	-1.868891e+01
1.078988e+02	-1.873670e+01
1.085220e+02	-1.878671e+01
1.091488e+02	-1.883693e+01
1.097793e+02	-1.888542e+01
1.104133e+02	-1.893591e+01
1.110511e+02	-1.898554e+01
1.116925e+02	-1.903412e+01
1.123376e+02	-1.908378e+01
1.129865e+02	-1.913324e+01
1.136391e+02	-1.918404e+01
1.142955e+02	-1.923243e+01
1.149556e+02	-1.928048e+01
1.156196e+02	-1.932967e+01
1.162874e+02	-1.937950e+01
1.169591e+02	-1.942749e+01
1.176347e+02	-1.947811e+01
1.183141e+02	-1.952908e+01
1.189975e+02	-1.957855e+01
1.196848e+02	-1.962695e+01
1.203761e+02	-1.967467e+01
1.210714e+02	-1.972632e+01
1.217707e+02	-1.977603e+01
1.224740e+02	-1.982449e+01
1.231814e+02	-1.987580e+01
1.238929e+02	-1.992324e+01
1.246085e+02	-1.997523e+01
1.253283e+02	-2.002451e+01
1.260522e+02	-2.007340e+01
1.267802e+02	-2.012255e+01
1.275125e+02	-2.017235e+01
1.282490e+02	-2.022288e+01
1.289898e+02	-2.027141e+01
1.297348e+02	-2.032134e+01
1.304842e+02	-2.036956e+01
1.312378e+02	-2.041955e+01
1.319959e+02	-2.046985e+01
1.327583e+02	-2.051856e+01
1.335251e+02	-2.056920e+01
1.342963e+02	-2.061992e+01
1.350720e+02	-2.066838e+01
1.358522e+02	-2.071887e+01
1.366368e+02	-2.076802e+01
1.374260e+02	-2.081744e+01
1.382198e+02	-2.086669e+01
1.390182e+02	-2.091832e+01
1.398211e+02	-2.096799e+01
1.406287e+02	-2.101687e+01
1.414410e+02	-2.106760e+01
1.422579e+02	-2.111470e+01
1.430796e+02	-2.116423e+01
1.439060e+02	-2.121497e+01
1.447372e+02	-2.126544e+01
1.455732e+02	-2.131374e+01
1.464141e+02	-2.136299e+01
1.472597e+02	-2.141360e+01
1.481103e+02	-2.146314e+01
1.489658e+02	-2.151115e+01
1.498262e+02	-2.156218e+01
1.506916e+02	-2.161145e+01
1.515620e+02	-2.166225e+01
1.524374e+02	-2.171224e+01
1.533179e+02	-2.176082e+01
1.542034e+02	-2.180990e+01
1.550941e+02	-2.186091e+01
1.559899e+02	-2.191144e+01
1.568909e+02	-2.195965e+01
1.577971e+02	-2.200853e+01
1.587085e+02	-2.205883e+01
1.596252e+02	-2.210760e+01
1.605472e+02	-2.215997e+01
1.614745e+02	-2.220929e+01
1.624072e+02	-2.225801e+01
1.633453e+02	-2.230828e+01
1.642887e+02	-2.235540e+01
1.652377e+02	-2.240888e+01
1.661921e+02	-2.245767e+01
1.671520e+02	-2.250563e+01
1.681175e+02	-2.255613e+01
1.690885e+02	-2.260740e+01
1.700651e+02	-2.265727e+01
1.710474e+02	-2.270477e+01
1.720354e+02	-2.275374e+01
1.730291e+02	-2.280590e+01
1.740285e+02	-2.285398e+01
1.750337e+02	-2.290547e+01
1.760446e+02	-2.295417e+01
1.770615e+02	-2.300426e+01
1.780842e+02	-2.305459e+01
1.791128e+02	-2.310244e+01
1.801473e+02	-2.315313e+01
1.811878e+02	-2.320362e+01
1.822344e+02	-2.325442e+01
1.832870e+02	-2.330339e+01
1.843456e+02	-2.335286e+01
1.854104e+02	-2.340378e+01
1.864813e+02	-2.345154e+01
1.875584e+02	-2.350085e+01
1.886418e+02	-2.355297e+01
1.897313e+02	-2.360293e+01
1.908272e+02	-2.365181e+01
1.919294e+02	-2.370299e+01
1.930380e+02	-2.375192e+01
1.941530e+02	-2.380091e+01
1.952744e+02	-2.385327e+01
1.964023e+02	-2.390231e+01
1.975367e+02	-2.395066e+01
1.986777e+02	-2.400194e+01
1.998252e+02	-2.404921e+01
2.009794e+02	-2.410119e+01
2.021403e+02	-2.414976e+01
2.033078e+02	-2.420180e+01
2.044821e+02	-2.425141e+01
2.056632e+02	-2.429728e+01
2.068511e+02	-2.435251e+01
2.080459e+02	-2.439815e+01
2.092475e+02	-2.445292e+01
2.104561e+02	-2.450253e+01
2.116717e+02	-2.455129e+01
2.128943e+02	-2.459780e+01
2.141240e+02	-2.464925e+01
2.153608e+02	-2.469962e+01
2.166047e+02	-2.474832e+01
2.178558e+02	-2.479851e+01
2.191141e+02	-2.485102e+01
2.203797e+02	-2.489821e+01
2.216526e+02	-2.494979e+01
2.229329e+02	-2.499912e+01
2.242205e+02	-2.504810e+01
2.255156e+02	-2.509669e+01
2.268182e+02	-2.514747e+01
2.281283e+02	-2.519923e+01
2.294459e+02	-2.525069e+01
2.307712e+02	-2.529674e+01
2.321041e+02	-2.534907e+01
2.334447e+02	-2.539987e+01
2.347931e+02	-2.544596e+01
2.361493e+02	-2.549887e+01
2.375133e+02	-2.554892e+01
2.388851e+02	-2.559723e+01
2.402649e+02	-2.565057e+01
2.416527e+02	-2.569997e+01
2.430484e+02	-2.574593e+01
2.444523e+02	-2.579673e+01
2.458642e+02	-2.584658e+01
2.472843e+02	-2.589662e+01
2.487126e+02	-2.594839e+01
2.501492e+02	-2.600333e+01
2.515940e+02	-2.604575e+01
2.530472e+02	-2.609594e+01
2.545088e+02	-2.614371e+01
2.559789e+02	-2.619477e+01
2.574574e+02	-2.624690e+01
2.589444e+02	-2.629596e+01
2.604401e+02	-2.634577e+01
2.619444e+02	-2.639544e+01
2.634574e+02	-2.644630e+01
2.649791e+02	-2.649828e+01
2.665096e+02	-2.654456e+01
2.680489e+02	-2.659899e+01
2.695972e+02	-2.664333e+01
2.711544e+02	-2.669703e+01
2.727205e+02	-2.674472e+01
2.742958e+02	-2.679364e+01
2.758801e+02	-2.684482e+01
2.774736e+02	-2.689600e+01
2.790762e+02	-2.694691e+01
2.806882e+02	-2.699769e+01
2.823094e+02	-2.704780e+01
2.839400e+02	-2.709818e+01
2.855800e+02	-2.714657e+01
2.872295e+02	-2.719615e+01
2.888886e+02	-2.724344e+01
2.905572e+02	-2.729546e+01
2.922354e+02	-2.734504e+01
2.939234e+02	-2.739573e+01
2.956211e+02	-2.744412e+01
2.973286e+02	-2.749228e+01
2.990459e+02	-2.754517e+01
3.007732e+02	-2.759745e+01
3.025104e+02	-2.764803e+01
3.042577e+02	-2.769855e+01
3.060151e+02	-2.774630e+01
3.077826e+02	-2.779514e+01
3.095604e+02	-2.784897e+01
3.113484e+02	-2.789927e+01
3.131467e+02	-2.794489e+01
3.149554e+02	-2.799716e+01
3.167746e+02	-2.804612e+01
3.186043e+02	-2.809732e+01
3.204445e+02	-2.815097e+01
3.222954e+02	-2.819802e+01
3.241570e+02	-2.824777e+01
3.260293e+02	-2.829741e+01
3.279124e+02	-2.834581e+01
3.298064e+02	-2.839597e+01
3.317114e+02	-2.844377e+01
3.336273e+02	-2.849307e+01
3.355544e+02	-2.854601e+01
3.374925e+02	-2.859762e+01
3.394418e+02	-2.864549e+01
3.414024e+02	-2.869524e+01
3.433744e+02	-2.874804e+01
3.453577e+02	-2.879976e+01
3.473525e+02	-2.884813e+01
3.493588e+02	-2.889617e+01
3.513766e+02	-2.894777e+01
3.534062e+02	-2.899648e+01
3.554474e+02	-2.904769e+01
3.575005e+02	-2.909920e+01
3.595654e+02	-2.914914e+01
3.616422e+02	-2.920028e+01
3.637311e+02	-2.924770e+01
3.658320e+02	-2.929802e+01
3.679450e+02	-2.935094e+01
3.700702e+02	-2.940239e+01
3.722077e+02	-2.944753e+01
3.743576e+02	-2.950254e+01
3.765199e+02	-2.954706e+01
3.786946e+02	-2.959822e+01
3.808820e+02	-2.965259e+01
3.830819e+02	-2.969631e+01
3.852946e+02	-2.975040e+01
3.875200e+02	-2.980177e+01
3.897583e+02	-2.985102e+01
3.920096e+02	-2.990310e+01
3.942738e+02	-2.994285e+01
3.965511e+02	-3.000340e+01
3.988416e+02	-3.005568e+01
4.011452e+02	-3.010256e+01
4.034622e+02	-3.015142e+01
4.057926e+02	-3.019735e+01
4.081365e+02	-3.025524e+01
4.104938e+02	-3.029715e+01
4.128648e+02	-3.035025e+01
4.152495e+02	-3.039915e+01
4.176480e+02	-3.044801e+01
4.200603e+02	-3.050296e+01
4.224866e+02	-3.055073e+01
4.249268e+02	-3.060039e+01
4.273812e+02	-3.065360e+01
4.298497e+02	-3.069925e+01
4.323325e+02	-3.075449e+01
4.348297e+02	-3.079716e+01
4.373412e+02	-3.084775e+01
4.398673e+02	-3.090231e+01
4.424079e+02	-3.094950e+01
4.449633e+02	-3.100561e+01
4.475334e+02	-3.105223e+01
4.501183e+02	-3.110254e+01
4.527182e+02	-3.115351e+01
4.553330e+02	-3.120227e+01
4.579630e+02	-3.125244e+01
4.606082e+02	-3.130143e+01
4.632687e+02	-3.135072e+01
4.659445e+02	-3.140259e+01
4.686358e+02	-3.145386e+01
4.713426e+02	-3.150281e+01
4.740650e+02	-3.155142e+01
4.768032e+02	-3.160645e+01
4.795572e+02	-3.165814e+01
4.823271e+02	-3.170413e+01
4.851130e+02	-3.175250e+01
4.879150e+02	-3.180308e+01
4.907332e+02	-3.185962e+01
4.935676e+02	-3.190207e+01
4.964185e+02	-3.195647e+01
4.992858e+02	-3.200575e+01
5.021696e+02	-3.205678e+01
5.050701e+02	-3.211070e+01
5.079874e+02	-3.215637e+01
5.109215e+02	-3.220454e+01
5.138726e+02	-3.226035e+01
5.168407e+02	-3.230760e+01
5.198259e+02	-3.235807e+01
5.228284e+02	-3.240824e+01
5.258482e+02	-3.246216e+01
5.288855e+02	-3.250555e+01
5.319403e+02	-3.255986e+01
5.350128e+02	-3.260511e+01
5.381030e+02	-3.266252e+01
5.412111e+02	-3.270766e+01
5.443371e+02	-3.277086e+01
5.474812e+02	-3.281316e+01
5.506434e+02	-3.285839e+01
5.538239e+02	-3.290574e+01
5.570228e+02	-3.296281e+01
5.602401e+02	-3.300665e+01
5.634760e+02	-3.305839e+01
5.667306e+02	-3.311595e+01
5.700040e+02	-3.316220e+01
5.732964e+02	-3.322034e+01
5.766077e+02	-3.326162e+01
5.799382e+02	-3.331359e+01
5.832879e+02	-3.336421e+01
5.866569e+02	-3.341420e+01
5.900454e+02	-3.347219e+01
5.934535e+02	-3.351506e+01
5.968813e+02	-3.355836e+01
6.003288e+02	-3.360694e+01
6.037963e+02	-3.366154e+01
6.072838e+02	-3.371158e+01
6.107914e+02	-3.376742e+01
6.143194e+02	-3.381331e+01
6.178676e+02	-3.386701e+01
6.214364e+02	-3.391680e+01
6.250258e+02	-3.397116e+01
6.286359e+02	-3.401166e+01
6.322669e+02	-3.407245e+01
6.359189e+02	-3.411615e+01
6.395919e+02	-3.416985e+01
6.432862e+02	-3.422648e+01
6.470017e+02	-3.426782e+01
6.507388e+02	-3.431639e+01
6.544974e+02	-3.437006e+01
6.582778e+02	-3.441212e+01
6.620800e+02	-3.447064e+01
6.659041e+02	-3.451937e+01
6.697504e+02	-3.457457e+01
6.736188e+02	-3.462332e+01
6.775096e+02	-3.467244e+01
6.814229e+02	-3.473148e+01
6.853587e+02	-3.477607e+01
6.893173e+02	-3.481167e+01
6.932988e+02	-3.486901e+01
6.973033e+02	-3.491903e+01
7.013309e+02	-3.497632e+01
