Frequency(Hz)	Magnitude(dB)
1.000000e+01	-2.131708e+00
1.005776e+01	-2.151172e+00
1.011585e+01	-2.170833e+00
1.017428e+01	-2.190280e+00
1.023305e+01	-2.210458e+00
1.029215e+01	-2.230279e+00
1.035160e+01	-2.250722e+00
1.041139e+01	-2.270942e+00
1.047153e+01	-2.291469e+00
1.053201e+01	-2.311932e+00
1.059284e+01	-2.332800e+00
1.065403e+01	-2.353536e+00
1.071556e+01	-2.374431e+00
1.077746e+01	-2.395649e+00
1.083971e+01	-2.416651e+00
1.090232e+01	-2.438376e+00
1.096529e+01	-2.459710e+00
1.102862e+01	-2.481548e+00
1.109232e+01	-2.503622e+00
1.115639e+01	-2.525272e+00
1.122083e+01	-2.547489e+00
1.128564e+01	-2.569802e+00
1.135083e+01	-2.592164e+00
1.141639e+01	-2.614893e+00
1.148233e+01	-2.637486e+00
1.154865e+01	-2.660442e+00
1.161536e+01	-2.683512e+00
1.168245e+01	-2.706327e+00
1.174992e+01	-2.729791e+00
1.181779e+01	-2.753186e+00
1.188605e+01	-2.776623e+00
1.195470e+01	-2.800437e+00
1.202375e+01	-2.824460e+00
1.209320e+01	-2.848136e+00
1.216305e+01	-2.872379e+00
1.223330e+01	-2.896564e+00
1.230396e+01	-2.921061e+00
1.237503e+01	-2.945503e+00
1.244651e+01	-2.970488e+00
1.251840e+01	-2.995348e+00
1.259070e+01	-3.020296e+00
1.266343e+01	-3.045314e+00
1.273657e+01	-3.070604e+00
1.281014e+01	-3.096110e+00
1.288413e+01	-3.121571e+00
1.295855e+01	-3.147249e+00
1.303339e+01	-3.173228e+00
1.310867e+01	-3.199242e+00
1.318439e+01	-3.225239e+00
1.326054e+01	-3.251734e+00
1.333713e+01	-3.278025e+00
1.341417e+01	-3.304383e+00
1.349165e+01	-3.331430e+00
1.356958e+01	-3.358340e+00
1.364795e+01	-3.385308e+00
1.372678e+01	-3.412321e+00
1.380607e+01	-3.439754e+00
1.388581e+01	-3.467220e+00
1.396602e+01	-3.494543e+00
1.404668e+01	-3.522615e+00
1.412782e+01	-3.550261e+00
1.420942e+01	-3.578340e+00
1.429149e+01	-3.606438e+00
1.437404e+01	-3.634568e+00
1.445706e+01	-3.663122e+00
1.454057e+01	-3.691743e+00
1.462455e+01	-3.720707e+00
1.470902e+01	-3.749155e+00
1.479398e+01	-3.778320e+00
1.487943e+01	-3.807707e+00
1.496537e+01	-3.837022e+00
1.505181e+01	-3.866259e+00
1.513875e+01	-3.895735e+00
1.522619e+01	-3.925278e+00
1.531414e+01	-3.955149e+00
1.540259e+01	-3.985151e+00
1.549156e+01	-4.015301e+00
1.558103e+01	-4.045783e+00
1.567103e+01	-4.075959e+00
1.576155e+01	-4.106428e+00
1.585258e+01	-4.137139e+00
1.594415e+01	-4.168029e+00
1.603624e+01	-4.198585e+00
1.612886e+01	-4.230027e+00
1.622202e+01	-4.261404e+00
1.631572e+01	-4.292648e+00
1.640996e+01	-4.324041e+00
1.650474e+01	-4.355605e+00
1.660008e+01	-4.387671e+00
1.669596e+01	-4.419156e+00
1.679239e+01	-4.451322e+00
1.688938e+01	-4.483505e+00
1.698694e+01	-4.515516e+00
1.708505e+01	-4.548107e+00
1.718373e+01	-4.580740e+00
1.728299e+01	-4.613208e+00
1.738281e+01	-4.645731e+00
1.748322e+01	-4.678886e+00
1.758420e+01	-4.711943e+00
1.768576e+01	-4.745106e+00
1.778792e+01	-4.778561e+00
1.789066e+01	-4.812272e+00
1.799399e+01	-4.845312e+00
1.809793e+01	-4.879175e+00
1.820246e+01	-4.913277e+00
1.830760e+01	-4.947128e+00
1.841334e+01	-4.980759e+00
1.851969e+01	-5.015073e+00
1.862666e+01	-5.049457e+00
1.873425e+01	-5.084156e+00
1.884246e+01	-5.118595e+00
1.895129e+01	-5.153310e+00
1.906075e+01	-5.188365e+00
1.917085e+01	-5.222975e+00
1.928158e+01	-5.258114e+00
1.939295e+01	-5.293359e+00
1.950496e+01	-5.328540e+00
1.961762e+01	-5.364163e+00
1.973093e+01	-5.399345e+00
1.984490e+01	-5.435284e+00
1.995952e+01	-5.471191e+00
2.007480e+01	-5.506840e+00
2.019076e+01	-5.542862e+00
2.030738e+01	-5.578768e+00
2.042467e+01	-5.614958e+00
2.054264e+01	-5.651455e+00
2.066130e+01	-5.687813e+00
2.078064e+01	-5.724739e+00
2.090066e+01	-5.761303e+00
2.102139e+01	-5.798205e+00
2.114280e+01	-5.835210e+00
2.126492e+01	-5.872049e+00
2.138775e+01	-5.909337e+00
2.151128e+01	-5.946485e+00
2.163553e+01	-5.983706e+00
2.176050e+01	-6.021402e+00
2.188619e+01	-6.058597e+00
2.201260e+01	-6.096769e+00
2.213974e+01	-6.134296e+00
2.226762e+01	-6.172485e+00
2.239624e+01	-6.210795e+00
2.252560e+01	-6.248088e+00
2.265571e+01	-6.286630e+00
2.278656e+01	-6.324540e+00
2.291818e+01	-6.363176e+00
2.305055e+01	-6.401713e+00
2.318369e+01	-6.440362e+00
2.331760e+01	-6.479410e+00
2.345228e+01	-6.518033e+00
2.358774e+01	-6.556960e+00
2.372398e+01	-6.595953e+00
2.386101e+01	-6.634632e+00
2.399883e+01	-6.674129e+00
2.413745e+01	-6.713682e+00
2.427686e+01	-6.753119e+00
2.441709e+01	-6.792456e+00
2.455812e+01	-6.831814e+00
2.469997e+01	-6.871786e+00
2.484263e+01	-6.911538e+00
2.498612e+01	-6.951587e+00
2.513044e+01	-6.991387e+00
2.527559e+01	-7.031353e+00
2.542158e+01	-7.071796e+00
2.556842e+01	-7.111844e+00
2.571610e+01	-7.152776e+00
2.586463e+01	-7.192794e+00
2.601403e+01	-7.233692e+00
2.616428e+01	-7.273921e+00
2.631541e+01	-7.314528e+00
2.646740e+01	-7.355372e+00
2.662028e+01	-7.396291e+00
2.677404e+01	-7.437277e+00
2.692868e+01	-7.478092e+00
2.708422e+01	-7.519153e+00
2.724066e+01	-7.560515e+00
2.739800e+01	-7.601478e+00
2.755625e+01	-7.643373e+00
2.771541e+01	-7.684402e+00
2.787550e+01	-7.726245e+00
2.803650e+01	-7.768006e+00
2.819844e+01	-7.809636e+00
2.836131e+01	-7.851404e+00
2.852513e+01	-7.893588e+00
2.868989e+01	-7.934936e+00
2.885560e+01	-7.977052e+00
2.902227e+01	-8.019057e+00
2.918990e+01	-8.061561e+00
2.935850e+01	-8.103711e+00
2.952807e+01	-8.145740e+00
2.969863e+01	-8.188286e+00
2.987016e+01	-8.230764e+00
3.004269e+01	-8.273296e+00
3.021622e+01	-8.316286e+00
3.039075e+01	-8.358617e+00
3.056628e+01	-8.401213e+00
3.074283e+01	-8.444430e+00
3.092040e+01	-8.487511e+00
3.109900e+01	-8.530572e+00
3.127862e+01	-8.572770e+00
3.145929e+01	-8.616257e+00
3.164099e+01	-8.658932e+00
3.182375e+01	-8.702570e+00
3.200756e+01	-8.746075e+00
3.219244e+01	-8.789151e+00
3.237838e+01	-8.832905e+00
3.256540e+01	-8.876501e+00
3.275349e+01	-8.920032e+00
3.294268e+01	-8.963636e+00
3.313295e+01	-9.007304e+00
3.332433e+01	-9.051116e+00
3.351681e+01	-9.095196e+00
3.371040e+01	-9.138800e+00
3.390511e+01	-9.182912e+00
3.410094e+01	-9.226879e+00
3.429791e+01	-9.270811e+00
3.449601e+01	-9.315062e+00
3.469526e+01	-9.359244e+00
3.489566e+01	-9.403340e+00
3.509721e+01	-9.447694e+00
3.529993e+01	-9.492276e+00
3.550382e+01	-9.536854e+00
3.570889e+01	-9.581127e+00
3.591515e+01	-9.625529e+00
3.612259e+01	-9.670368e+00
3.633123e+01	-9.714843e+00
3.654108e+01	-9.759598e+00
3.675214e+01	-9.803902e+00
3.696442e+01	-9.849446e+00
3.717792e+01	-9.893923e+00
3.739266e+01	-9.939349e+00
3.760864e+01	-9.983606e+00
3.782587e+01	-1.002948e+01
3.804435e+01	-1.007404e+01
3.826409e+01	-1.011915e+01
3.848510e+01	-1.016442e+01
3.870739e+01	-1.020988e+01
3.893096e+01	-1.025500e+01
3.915583e+01	-1.030021e+01
3.938199e+01	-1.034531e+01
3.960946e+01	-1.039142e+01
3.983824e+01	-1.043631e+01
4.006834e+01	-1.048198e+01
4.029978e+01	-1.052783e+01
4.053255e+01	-1.057308e+01
4.076666e+01	-1.061882e+01
4.100213e+01	-1.066433e+01
4.123896e+01	-1.070994e+01
4.147715e+01	-1.075629e+01
4.171672e+01	-1.080201e+01
4.195767e+01	-1.084741e+01
4.220002e+01	-1.089329e+01
4.244377e+01	-1.094005e+01
4.268892e+01	-1.098610e+01
4.293549e+01	-1.103193e+01
4.318348e+01	-1.107803e+01
4.343291e+01	-1.112450e+01
4.368377e+01	-1.117043e+01
4.393609e+01	-1.121619e+01
4.418986e+01	-1.126281e+01
4.444510e+01	-1.130874e+01
4.470182e+01	-1.135510e+01
4.496001e+01	-1.140200e+01
4.521970e+01	-1.144877e+01
4.548089e+01	-1.149530e+01
4.574358e+01	-1.154113e+01
4.600779e+01	-1.158743e+01
4.627353e+01	-1.163415e+01
4.654081e+01	-1.168146e+01
4.680963e+01	-1.172719e+01
4.708000e+01	-1.177444e+01
4.735193e+01	-1.182153e+01
4.762543e+01	-1.186746e+01
4.790051e+01	-1.191464e+01
4.817719e+01	-1.196070e+01
4.845545e+01	-1.200863e+01
4.873533e+01	-1.205484e+01
4.901682e+01	-1.210230e+01
4.929994e+01	-1.214894e+01
4.958470e+01	-1.219687e+01
4.987110e+01	-1.224286e+01
5.015915e+01	-1.229031e+01
5.044887e+01	-1.233748e+01
5.074026e+01	-1.238433e+01
5.103333e+01	-1.243141e+01
5.132810e+01	-1.247973e+01
5.162457e+01	-1.252636e+01
5.192275e+01	-1.257265e+01
5.222265e+01	-1.262045e+01
5.252429e+01	-1.266763e+01
5.282767e+01	-1.271501e+01
5.313280e+01	-1.276238e+01
5.343969e+01	-1.281003e+01
5.374836e+01	-1.285742e+01
5.405880e+01	-1.290534e+01
5.437105e+01	-1.295206e+01
5.468509e+01	-1.300067e+01
5.500095e+01	-1.304680e+01
5.531863e+01	-1.309532e+01
5.563815e+01	-1.314252e+01
5.595951e+01	-1.318980e+01
5.628273e+01	-1.323813e+01
5.660782e+01	-1.328457e+01
5.693479e+01	-1.333273e+01
5.726364e+01	-1.338085e+01
5.759439e+01	-1.342825e+01
5.792705e+01	-1.347645e+01
5.826164e+01	-1.352317e+01
5.859815e+01	-1.357176e+01
5.893662e+01	-1.362046e+01
5.927703e+01	-1.366733e+01
5.961941e+01	-1.371557e+01
5.996377e+01	-1.376329e+01
6.031012e+01	-1.381115e+01
6.065847e+01	-1.385854e+01
6.100883e+01	-1.390637e+01
6.136121e+01	-1.395530e+01
6.171563e+01	-1.400332e+01
6.207210e+01	-1.405121e+01
6.243063e+01	-1.409945e+01
6.279122e+01	-1.414741e+01
6.315390e+01	-1.419548e+01
6.351868e+01	-1.424345e+01
6.388556e+01	-1.429250e+01
6.425456e+01	-1.434049e+01
6.462569e+01	-1.438805e+01
6.499897e+01	-1.443679e+01
6.537440e+01	-1.448424e+01
6.575200e+01	-1.453275e+01
6.613178e+01	-1.458159e+01
6.651375e+01	-1.462918e+01
6.689793e+01	-1.467683e+01
6.728433e+01	-1.472545e+01
6.767297e+01	-1.477406e+01
6.806384e+01	-1.482225e+01
6.845698e+01	-1.487117e+01
6.885238e+01	-1.491993e+01
6.925007e+01	-1.496840e+01
6.965005e+01	-1.501671e+01
7.005235e+01	-1.506498e+01
7.045697e+01	-1.511327e+01
7.086393e+01	-1.516202e+01
7.127323e+01	-1.521097e+01
7.168490e+01	-1.525912e+01
7.209895e+01	-1.530757e+01
7.251539e+01	-1.535606e+01
7.293424e+01	-1.540433e+01
7.335551e+01	-1.545308e+01
7.377920e+01	-1.550173e+01
7.420535e+01	-1.555088e+01
7.463396e+01	-1.559870e+01
7.506504e+01	-1.564739e+01
7.549861e+01	-1.569616e+01
7.593469e+01	-1.574558e+01
7.637328e+01	-1.579394e+01
7.681441e+01	-1.584229e+01
7.725809e+01	-1.589184e+01
7.770433e+01	-1.594052e+01
7.815315e+01	-1.598953e+01
7.860456e+01	-1.603694e+01
7.905857e+01	-1.608530e+01
7.951521e+01	-1.613520e+01
7.997449e+01	-1.618462e+01
8.043642e+01	-1.623192e+01
8.090102e+01	-1.628125e+01
8.136830e+01	-1.632999e+01
8.183828e+01	-1.638021e+01
8.231097e+01	-1.642823e+01
8.278640e+01	-1.647713e+01
8.326457e+01	-1.652678e+01
8.374550e+01	-1.657525e+01
8.422921e+01	-1.662336e+01
8.471572e+01	-1.667301e+01
8.520503e+01	-1.672209e+01
8.569717e+01	-1.677152e+01
8.619215e+01	-1.682050e+01
8.669000e+01	-1.686849e+01
8.719071e+01	-1.691760e+01
8.769432e+01	-1.696673e+01
8.820084e+01	-1.701496e+01
8.871029e+01	-1.706413e+01
8.922267e+01	-1.711495e+01
8.973802e+01	-1.716336e+01
9.025634e+01	-1.721243e+01
9.077766e+01	-1.726102e+01
9.130199e+01	-1.731069e+01
9.182935e+01	-1.735930e+01
9.235975e+01	-1.740890e+01
9.289321e+01	-1.745668e+01
9.342976e+01	-1.750687e+01
9.396941e+01	-1.755522e+01
9.451217e+01	-1.760414e+01
9.505807e+01	-1.765335e+01
9.560712e+01	-1.770225e+01
9.615934e+01	-1.775261e+01
9.671476e+01	-1.780318e+01
9.727338e+01	-1.785198e+01
9.783522e+01	-1.790066e+01
9.840032e+01	-1.794912e+01
9.896867e+01	-1.799919e+01
9.954031e+01	-1.804845e+01
1.001153e+02	-1.809700e+01
1.006935e+02	-1.814725e+01
1.012751e+02	-1.819544e+01
1.018601e+02	-1.824500e+01
1.024484e+02	-1.829418e+01
1.030402e+02	-1.834184e+01
1.036353e+02	-1.839289e+01
1.042339e+02	-1.844264e+01
1.048360e+02	-1.849231e+01
1.054415e+02	-1.854112e+01
1.060505e+02	-1.858951e+01
1.066631e+02	-1.863877e+01
1.072791e+02	-1.869004e+01
1.078988e+02	-1.873693e+01
1.085220e+02	-1.878615e+01
1.091488e+02	-1.883744e+01
1.097793e+02	-1.888577e+01
1.104133e+02	-1.893557e+01
1.110511e+02	-1.898525e+01
1.116925e+02	-1.903411e+01
1.123376e+02	-1.908478e+01
1.129865e+02	-1.913257e+01
1.136391e+02	-1.918393e+01
1.142955e+02	-1.923167e+01
1.149556e+02	-1.928215e+01
1.156196e+02	-1.933143e+01
1.162874e+02	-1.938073e+01
1.169591e+02	-1.942939e+01
1.176347e+02	-1.948060e+01
1.183141e+02	-1.953020e+01
1.189975e+02	-1.957882e+01
1.196848e+02	-1.962784e+01
1.203761e+02	-1.967780e+01
1.210714e+02	-1.972694e+01
1.217707e+02	-1.977572e+01
1.224740e+02	-1.982618e+01
1.231814e+02	-1.987435e+01
1.238929e+02	-1.992597e+01
1.246085e+02	-1.997605e+01
1.253283e+02	-2.002434e+01
1.260522e+02	-2.007368e+01
1.267802e+02	-2.012395e+01
1.275125e+02	-2.017229e+01
1.282490e+02	-2.022218e+01
1.289898e+02	-2.027100e+01
1.297348e+02	-2.032162e+01
1.304842e+02	-2.037047e+01
1.312378e+02	-2.042079e+01
1.319959e+02	-2.047089e+01
1.327583e+02	-2.051912e+01
1.335251e+02	-2.057036e+01
1.342963e+02	-2.061821e+01
1.350720e+02	-2.066941e+01
1.358522e+02	-2.071824e+01
1.366368e+02	-2.076685e+01
1.374260e+02	-2.081795e+01
1.382198e+02	-2.086749e+01
1.390182e+02	-2.091765e+01
1.398211e+02	-2.096489e+01
1.406287e+02	-2.101435e+01
1.414410e+02	-2.106515e+01
1.422579e+02	-2.111429e+01
1.430796e+02	-2.116422e+01
1.439060e+02	-2.121584e+01
1.447372e+02	-2.126326e+01
1.455732e+02	-2.131418e+01
1.464141e+02	-2.136582e+01
1.472597e+02	-2.141390e+01
1.481103e+02	-2.146053e+01
1.489658e+02	-2.151386e+01
1.498262e+02	-2.156179e+01
1.506916e+02	-2.161262e+01
1.515620e+02	-2.166143e+01
1.524374e+02	-2.171335e+01
1.533179e+02	-2.176025e+01
1.542034e+02	-2.181049e+01
1.550941e+02	-2.186050e+01
1.559899e+02	-2.190780e+01
1.568909e+02	-2.195834e+01
1.577971e+02	-2.201116e+01
1.587085e+02	-2.205890e+01
1.596252e+02	-2.210937e+01
1.605472e+02	-2.216156e+01
1.614745e+02	-2.220802e+01
1.624072e+02	-2.225985e+01
1.633453e+02	-2.231131e+01
1.642887e+02	-2.235802e+01
1.652377e+02	-2.240617e+01
1.661921e+02	-2.245719e+01
1.671520e+02	-2.250732e+01
1.681175e+02	-2.255927e+01
1.690885e+02	-2.260627e+01
1.700651e+02	-2.265794e+01
1.710474e+02	-2.270695e+01
1.720354e+02	-2.275642e+01
1.730291e+02	-2.280550e+01
1.740285e+02	-2.285500e+01
1.750337e+02	-2.290598e+01
1.760446e+02	-2.295495e+01
1.770615e+02	-2.300443e+01
1.780842e+02	-2.305660e+01
1.791128e+02	-2.310511e+01
1.801473e+02	-2.315496e+01
1.811878e+02	-2.320419e+01
1.822344e+02	-2.325522e+01
1.832870e+02	-2.330512e+01
1.843456e+02	-2.335373e+01
1.854104e+02	-2.340253e+01
1.864813e+02	-2.345341e+01
1.875584e+02	-2.350387e+01
1.886418e+02	-2.355214e+01
1.897313e+02	-2.360207e+01
1.908272e+02	-2.365391e+01
1.919294e+02	-2.370087e+01
1.930380e+02	-2.375406e+01
1.941530e+02	-2.380203e+01
1.952744e+02	-2.385282e+01
1.964023e+02	-2.390042e+01
1.975367e+02	-2.395466e+01
1.986777e+02	-2.399990e+01
1.998252e+02	-2.405324e+01
2.009794e+02	-2.410341e+01
2.021403e+02	-2.415139e+01
2.033078e+02	-2.420027e+01
2.044821e+02	-2.424977e+01
2.056632e+02	-2.429912e+01
2.068511e+02	-2.435185e+01
2.080459e+02	-2.440196e+01
2.092475e+02	-2.444863e+01
2.104561e+02	-2.450026e+01
2.116717e+02	-2.455078e+01
2.128943e+02	-2.459997e+01
2.141240e+02	-2.465151e+01
2.153608e+02	-2.470118e+01
2.166047e+02	-2.475020e+01
2.178558e+02	-2.480029e+01
2.191141e+02	-2.484856e+01
2.203797e+02	-2.489794e+01
2.216526e+02	-2.495098e+01
2.229329e+02	-2.499932e+01
2.242205e+02	-2.504859e+01
2.255156e+02	-2.509931e+01
2.268182e+02	-2.514850e+01
2.281283e+02	-2.519668e+01
2.294459e+02	-2.524826e+01
2.307712e+02	-2.529973e+01
2.321041e+02	-2.534851e+01
2.334447e+02	-2.539862e+01
2.347931e+02	-2.544713e+01
2.361493e+02	-2.549902e+01
2.375133e+02	-2.554670e+01
2.388851e+02	-2.559811e+01
2.402649e+02	-2.564877e+01
2.416527e+02	-2.569733e+01
2.430484e+02	-2.574788e+01
2.444523e+02	-2.579679e+01
2.458642e+02	-2.584786e+01
2.472843e+02	-2.589825e+01
2.487126e+02	-2.595204e+01
2.501492e+02	-2.599683e+01
2.515940e+02	-2.604839e+01
2.530472e+02	-2.609670e+01
2.545088e+02	-2.614682e+01
2.559789e+02	-2.619892e+01
2.574574e+02	-2.625024e+01
2.589444e+02	-2.629871e+01
2.604401e+02	-2.635025e+01
2.619444e+02	-2.639627e+01
2.634574e+02	-2.644406e+01
2.649791e+02	-2.650105e+01
2.665096e+02	-2.654684e+01
2.680489e+02	-2.659454e+01
2.695972e+02	-2.664787e+01
2.711544e+02	-2.669788e+01
2.727205e+02	-2.674828e+01
2.742958e+02	-2.679862e+01
2.758801e+02	-2.684895e+01
2.774736e+02	-2.690145e+01
2.790762e+02	-2.694782e+01
2.806882e+02	-2.699888e+01
2.823094e+02	-2.704542e+01
2.839400e+02	-2.709858e+01
2.855800e+02	-2.714656e+01
2.872295e+02	-2.719661e+01
2.888886e+02	-2.724722e+01
2.905572e+02	-2.730031e+01
2.922354e+02	-2.734322e+01
2.939234e+02	-2.739620e+01
2.956211e+02	-2.744783e+01
2.973286e+02	-2.750101e+01
2.990459e+02	-2.755032e+01
3.007732e+02	-2.759598e+01
3.025104e+02	-2.764694e+01
3.042577e+02	-2.769675e+01
3.060151e+02	-2.774622e+01
3.077826e+02	-2.779725e+01
3.095604e+02	-2.784710e+01
3.113484e+02	-2.790144e+01
3.131467e+02	-2.794922e+01
3.149554e+02	-2.799613e+01
3.167746e+02	-2.804873e+01
3.186043e+02	-2.809637e+01
3.204445e+02	-2.814838e+01
3.222954e+02	-2.819869e+01
3.241570e+02	-2.824895e+01
3.260293e+02	-2.829541e+01
3.279124e+02	-2.834474e+01
3.298064e+02	-2.839841e+01
3.317114e+02	-2.844669e+01
3.336273e+02	-2.849227e+01
3.355544e+02	-2.854673e+01
3.374925e+02	-2.859702e+01
3.394418e+02	-2.864882e+01
3.414024e+02	-2.869854e+01
3.433744e+02	-2.874538e+01
3.453577e+02	-2.879609e+01
3.473525e+02	-2.884841e+01
3.493588e+02	-2.889735e+01
3.513766e+02	-2.894917e+01
3.534062e+02	-2.899713e+01
3.554474e+02	-2.904711e+01
3.575005e+02	-2.909855e+01
3.595654e+02	-2.915018e+01
3.616422e+02	-2.919945e+01
3.637311e+02	-2.925024e+01
3.658320e+02	-2.929733e+01
3.679450e+02	-2.935006e+01
3.700702e+02	-2.939988e+01
3.722077e+02	-2.945315e+01
3.743576e+02	-2.949954e+01
3.765199e+02	-2.954460e+01
3.786946e+02	-2.960334e+01
3.808820e+02	-2.964849e+01
3.830819e+02	-2.969700e+01
3.852946e+02	-2.974696e+01
3.875200e+02	-2.980200e+01
3.897583e+02	-2.984965e+01
3.920096e+02	-2.989530e+01
3.942738e+02	-2.994864e+01
3.965511e+02	-2.999919e+01
3.988416e+02	-3.004942e+01
4.011452e+02	-3.009645e+01
4.034622e+02	-3.014480e+01
4.057926e+02	-3.020500e+01
4.081365e+02	-3.024870e+01
4.104938e+02	-3.029918e+01
4.128648e+02	-3.035342e+01
4.152495e+02	-3.040328e+01
4.176480e+02	-3.044983e+01
4.200603e+02	-3.050363e+01
4.224866e+02	-3.055079e+01
4.249268e+02	-3.060041e+01
4.273812e+02	-3.064863e+01
4.298497e+02	-3.070082e+01
4.323325e+02	-3.075425e+01
4.348297e+02	-3.080515e+01
4.373412e+02	-3.085604e+01
4.398673e+02	-3.090018e+01
4.424079e+02	-3.095281e+01
4.449633e+02	-3.099020e+01
4.475334e+02	-3.105235e+01
4.501183e+02	-3.110251e+01
4.527182e+02	-3.115798e+01
4.553330e+02	-3.119984e+01
4.579630e+02	-3.125047e+01
4.606082e+02	-3.130546e+01
4.632687e+02	-3.135179e+01
4.659445e+02	-3.140606e+01
4.686358e+02	-3.144837e+01
4.713426e+02	-3.149965e+01
4.740650e+02	-3.155869e+01
4.768032e+02	-3.160851e+01
4.795572e+02	-3.165403e+01
4.823271e+02	-3.170285e+01
4.851130e+02	-3.175208e+01
4.879150e+02	-3.180519e+01
4.907332e+02	-3.185186e+01
4.935676e+02	-3.190309e+01
4.964185e+02	-3.195658e+01
4.992858e+02	-3.200520e+01
5.021696e+02	-3.205774e+01
5.050701e+02	-3.210145e+01
5.079874e+02	-3.216184e+01
5.109215e+02	-3.221034e+01
5.138726e+02	-3.225095e+01
5.168407e+02	-3.231316e+01
5.198259e+02	-3.235109e+01
5.228284e+02	-3.239783e+01
5.258482e+02	-3.245976e+01
5.288855e+02	-3.250731e+01
5.319403e+02	-3.255895e+01
5.350128e+02	-3.260802e+01
5.381030e+02	-3.265367e+01
5.412111e+02	-3.271106e+01
5.443371e+02	-3.275877e+01
5.474812e+02	-3.281645e+01
5.506434e+02	-3.285324e+01
5.538239e+02	-3.290978e+01
5.570228e+02	-3.295590e+01
5.602401e+02	-3.300624e+01
5.634760e+02	-3.305918e+01
5.667306e+02	-3.311500e+01
5.700040e+02	-3.316131e+01
5.732964e+02	-3.321391e+01
5.766077e+02	-3.326227e+01
5.799382e+02	-3.331038e+01
5.832879e+02	-3.336783e+01
5.866569e+02	-3.340953e+01
5.900454e+02	-3.345936e+01
5.934535e+02	-3.350753e+01
5.968813e+02	-3.356251e+01
6.003288e+02	-3.361153e+01
6.037963e+02	-3.366364e+01
6.072838e+02	-3.371262e+01
6.107914e+02	-3.376413e+01
6.143194e+02	-3.381255e+01
6.178676e+02	-3.386422e+01
6.214364e+02	-3.391694e+01
6.250258e+02	-3.396736e+01
6.286359e+02	-3.402005e+01
6.322669e+02	-3.406719e+01
6.359189e+02	-3.412068e+01
6.395919e+02	-3.417424e+01
6.432862e+02	-3.421576e+01
6.470017e+02	-3.426452e+01
6.507388e+02	-3.431280e+01
6.544974e+02	-3.436966e+01
6.582778e+02	-3.441818e+01
6.620800e+02	-3.447362e+01
6.659041e+02	-3.452572e+01
6.697504e+02	-3.457173e+01
6.736188e+02	-3.462043e+01
6.775096e+02	-3.466239e+01
6.814229e+02	-3.471876e+01
6.853587e+02	-3.477269e+01
6.893173e+02	-3.481539e+01
6.932988e+02	-3.486818e+01
6.973033e+02	-3.492731e+01
7.013309e+02	-3.497887e+01
