Frequency(Hz)	Magnitude(dB)
1.000000e+01	-2.134169e+00
1.005776e+01	-2.153453e+00
1.011585e+01	-2.173166e+00
1.017428e+01	-2.192768e+00
1.023305e+01	-2.212950e+00
1.029215e+01	-2.232812e+00
1.035160e+01	-2.252922e+00
1.041139e+01	-2.273377e+00
1.047153e+01	-2.293695e+00
1.053201e+01	-2.314653e+00
1.059284e+01	-2.335104e+00
1.065403e+01	-2.355966e+00
1.071556e+01	-2.376938e+00
1.077746e+01	-2.398349e+00
1.083971e+01	-2.419580e+00
1.090232e+01	-2.440870e+00
1.096529e+01	-2.462632e+00
1.102862e+01	-2.484398e+00
1.109232e+01	-2.506054e+00
1.115639e+01	-2.528201e+00
1.122083e+01	-2.550168e+00
1.128564e+01	-2.572398e+00
1.135083e+01	-2.594975e+00
1.141639e+01	-2.617507e+00
1.148233e+01	-2.640065e+00
1.154865e+01	-2.663056e+00
1.161536e+01	-2.686128e+00
1.168245e+01	-2.709577e+00
1.174992e+01	-2.732735e+00
1.181779e+01	-2.756062e+00
1.188605e+01	-2.779685e+00
1.195470e+01	-2.803381e+00
1.202375e+01	-2.827302e+00
1.209320e+01	-2.851087e+00
1.216305e+01	-2.875377e+00
1.223330e+01	-2.899648e+00
1.230396e+01	-2.924003e+00
1.237503e+01	-2.948599e+00
1.244651e+01	-2.973462e+00
1.251840e+01	-2.998248e+00
1.259070e+01	-3.023219e+00
1.266343e+01	-3.048337e+00
1.273657e+01	-3.073642e+00
1.281014e+01	-3.099080e+00
1.288413e+01	-3.124946e+00
1.295855e+01	-3.150323e+00
1.303339e+01	-3.176228e+00
1.310867e+01	-3.202268e+00
1.318439e+01	-3.228739e+00
1.326054e+01	-3.254865e+00
1.333713e+01	-3.281497e+00
1.341417e+01	-3.308021e+00
1.349165e+01	-3.334637e+00
1.356958e+01	-3.361315e+00
1.364795e+01	-3.388477e+00
1.372678e+01	-3.415792e+00
1.380607e+01	-3.443013e+00
1.388581e+01	-3.470562e+00
1.396602e+01	-3.498279e+00
1.404668e+01	-3.526095e+00
1.412782e+01	-3.553555e+00
1.420942e+01	-3.581733e+00
1.429149e+01	-3.609833e+00
1.437404e+01	-3.638367e+00
1.445706e+01	-3.666888e+00
1.454057e+01	-3.695151e+00
1.462455e+01	-3.723997e+00
1.470902e+01	-3.752854e+00
1.479398e+01	-3.781896e+00
1.487943e+01	-3.811053e+00
1.496537e+01	-3.840437e+00
1.505181e+01	-3.869607e+00
1.513875e+01	-3.899380e+00
1.522619e+01	-3.929003e+00
1.531414e+01	-3.958974e+00
1.540259e+01	-3.988803e+00
1.549156e+01	-4.019100e+00
1.558103e+01	-4.049292e+00
1.567103e+01	-4.079953e+00
1.576155e+01	-4.110296e+00
1.585258e+01	-4.141021e+00
1.594415e+01	-4.171711e+00
1.603624e+01	-4.202767e+00
1.612886e+01	-4.233657e+00
1.622202e+01	-4.265074e+00
1.631572e+01	-4.296377e+00
1.640996e+01	-4.327606e+00
1.650474e+01	-4.359602e+00
1.660008e+01	-4.391106e+00
1.669596e+01	-4.422994e+00
1.679239e+01	-4.455454e+00
1.688938e+01	-4.487364e+00
1.698694e+01	-4.519741e+00
1.708505e+01	-4.551880e+00
1.718373e+01	-4.584671e+00
1.728299e+01	-4.617352e+00
1.738281e+01	-4.650087e+00
1.748322e+01	-4.683067e+00
1.758420e+01	-4.716246e+00
1.768576e+01	-4.749327e+00
1.778792e+01	-4.782456e+00
1.789066e+01	-4.816065e+00
1.799399e+01	-4.849700e+00
1.809793e+01	-4.883228e+00
1.820246e+01	-4.917324e+00
1.830760e+01	-4.951171e+00
1.841334e+01	-4.985310e+00
1.851969e+01	-5.019673e+00
1.862666e+01	-5.053669e+00
1.873425e+01	-5.088380e+00
1.884246e+01	-5.122739e+00
1.895129e+01	-5.157413e+00
1.906075e+01	-5.192331e+00
1.917085e+01	-5.227393e+00
1.928158e+01	-5.262347e+00
1.939295e+01	-5.297698e+00
1.950496e+01	-5.333042e+00
1.961762e+01	-5.368439e+00
1.973093e+01	-5.404083e+00
1.984490e+01	-5.439537e+00
1.995952e+01	-5.475351e+00
2.007480e+01	-5.511333e+00
2.019076e+01	-5.547279e+00
2.030738e+01	-5.583541e+00
2.042467e+01	-5.619534e+00
2.054264e+01	-5.656625e+00
2.066130e+01	-5.692549e+00
2.078064e+01	-5.728922e+00
2.090066e+01	-5.766147e+00
2.102139e+01	-5.802922e+00
2.114280e+01	-5.839563e+00
2.126492e+01	-5.876845e+00
2.138775e+01	-5.913585e+00
2.151128e+01	-5.951457e+00
2.163553e+01	-5.988238e+00
2.176050e+01	-6.026031e+00
2.188619e+01	-6.063544e+00
2.201260e+01	-6.101509e+00
2.213974e+01	-6.139141e+00
2.226762e+01	-6.176955e+00
2.239624e+01	-6.214695e+00
2.252560e+01	-6.252910e+00
2.265571e+01	-6.291386e+00
2.278656e+01	-6.329823e+00
2.291818e+01	-6.368368e+00
2.305055e+01	-6.406773e+00
2.318369e+01	-6.445257e+00
2.331760e+01	-6.484130e+00
2.345228e+01	-6.522776e+00
2.358774e+01	-6.562051e+00
2.372398e+01	-6.600691e+00
2.386101e+01	-6.639694e+00
2.399883e+01	-6.678967e+00
2.413745e+01	-6.718029e+00
2.427686e+01	-6.757479e+00
2.441709e+01	-6.797367e+00
2.455812e+01	-6.836795e+00
2.469997e+01	-6.876418e+00
2.484263e+01	-6.916269e+00
2.498612e+01	-6.956283e+00
2.513044e+01	-6.996531e+00
2.527559e+01	-7.036557e+00
2.542158e+01	-7.076769e+00
2.556842e+01	-7.116682e+00
2.571610e+01	-7.157610e+00
2.586463e+01	-7.197741e+00
2.601403e+01	-7.238254e+00
2.616428e+01	-7.278678e+00
2.631541e+01	-7.319679e+00
2.646740e+01	-7.360392e+00
2.662028e+01	-7.401112e+00
2.677404e+01	-7.442321e+00
2.692868e+01	-7.483052e+00
2.708422e+01	-7.524311e+00
2.724066e+01	-7.565624e+00
2.739800e+01	-7.606673e+00
2.755625e+01	-7.648113e+00
2.771541e+01	-7.690284e+00
2.787550e+01	-7.731820e+00
2.803650e+01	-7.773204e+00
2.819844e+01	-7.814678e+00
2.836131e+01	-7.856627e+00
2.852513e+01	-7.898032e+00
2.868989e+01	-7.939880e+00
2.885560e+01	-7.982041e+00
2.902227e+01	-8.024324e+00
2.918990e+01	-8.066055e+00
2.935850e+01	-8.108417e+00
2.952807e+01	-8.151284e+00
2.969863e+01	-8.193549e+00
2.987016e+01	-8.235891e+00
3.004269e+01	-8.278711e+00
3.021622e+01	-8.321157e+00
3.039075e+01	-8.363922e+00
3.056628e+01	-8.406926e+00
3.074283e+01	-8.449361e+00
3.092040e+01	-8.492860e+00
3.109900e+01	-8.535150e+00
3.127862e+01	-8.578028e+00
3.145929e+01	-8.621510e+00
3.164099e+01	-8.664853e+00
3.182375e+01	-8.708192e+00
3.200756e+01	-8.751399e+00
3.219244e+01	-8.794467e+00
3.237838e+01	-8.838446e+00
3.256540e+01	-8.881400e+00
3.275349e+01	-8.925603e+00
3.294268e+01	-8.969017e+00
3.313295e+01	-9.012050e+00
3.332433e+01	-9.056438e+00
3.351681e+01	-9.100219e+00
3.371040e+01	-9.144439e+00
3.390511e+01	-9.188014e+00
3.410094e+01	-9.232460e+00
3.429791e+01	-9.275619e+00
3.449601e+01	-9.320722e+00
3.469526e+01	-9.364511e+00
3.489566e+01	-9.408658e+00
3.509721e+01	-9.453691e+00
3.529993e+01	-9.497227e+00
3.550382e+01	-9.541768e+00
3.570889e+01	-9.586432e+00
3.591515e+01	-9.630769e+00
3.612259e+01	-9.675897e+00
3.633123e+01	-9.720453e+00
3.654108e+01	-9.765071e+00
3.675214e+01	-9.809974e+00
3.696442e+01	-9.854852e+00
3.717792e+01	-9.899712e+00
3.739266e+01	-9.944125e+00
3.760864e+01	-9.989544e+00
3.782587e+01	-1.003459e+01
3.804435e+01	-1.007953e+01
3.826409e+01	-1.012431e+01
3.848510e+01	-1.016992e+01
3.870739e+01	-1.021515e+01
3.893096e+01	-1.026067e+01
3.915583e+01	-1.030586e+01
3.938199e+01	-1.035118e+01
3.960946e+01	-1.039624e+01
3.983824e+01	-1.044204e+01
4.006834e+01	-1.048791e+01
4.029978e+01	-1.053328e+01
4.053255e+01	-1.057877e+01
4.076666e+01	-1.062448e+01
4.100213e+01	-1.067038e+01
4.123896e+01	-1.071597e+01
4.147715e+01	-1.076252e+01
4.171672e+01	-1.080803e+01
4.195767e+01	-1.085360e+01
4.220002e+01	-1.089904e+01
4.244377e+01	-1.094568e+01
4.268892e+01	-1.099145e+01
4.293549e+01	-1.103753e+01
4.318348e+01	-1.108380e+01
4.343291e+01	-1.113014e+01
4.368377e+01	-1.117597e+01
4.393609e+01	-1.122209e+01
4.418986e+01	-1.126890e+01
4.444510e+01	-1.131474e+01
4.470182e+01	-1.136064e+01
4.496001e+01	-1.140767e+01
4.521970e+01	-1.145374e+01
4.548089e+01	-1.150145e+01
4.574358e+01	-1.154725e+01
4.600779e+01	-1.159338e+01
4.627353e+01	-1.164046e+01
4.654081e+01	-1.168647e+01
4.680963e+01	-1.173320e+01
4.708000e+01	-1.178023e+01
4.735193e+01	-1.182709e+01
4.762543e+01	-1.187344e+01
4.790051e+01	-1.192074e+01
4.817719e+01	-1.196728e+01
4.845545e+01	-1.201516e+01
4.873533e+01	-1.206054e+01
4.901682e+01	-1.210797e+01
4.929994e+01	-1.215455e+01
4.958470e+01	-1.220223e+01
4.987110e+01	-1.224871e+01
5.015915e+01	-1.229587e+01
5.044887e+01	-1.234283e+01
5.074026e+01	-1.238997e+01
5.103333e+01	-1.243739e+01
5.132810e+01	-1.248428e+01
5.162457e+01	-1.253147e+01
5.192275e+01	-1.257825e+01
5.222265e+01	-1.262648e+01
5.252429e+01	-1.267333e+01
5.282767e+01	-1.272135e+01
5.313280e+01	-1.276848e+01
5.343969e+01	-1.281540e+01
5.374836e+01	-1.286321e+01
5.405880e+01	-1.291054e+01
5.437105e+01	-1.295818e+01
5.468509e+01	-1.300567e+01
5.500095e+01	-1.305316e+01
5.531863e+01	-1.310057e+01
5.563815e+01	-1.314789e+01
5.595951e+01	-1.319565e+01
5.628273e+01	-1.324335e+01
5.660782e+01	-1.329058e+01
5.693479e+01	-1.333926e+01
5.726364e+01	-1.338603e+01
5.759439e+01	-1.343377e+01
5.792705e+01	-1.348218e+01
5.826164e+01	-1.352970e+01
5.859815e+01	-1.357770e+01
5.893662e+01	-1.362579e+01
5.927703e+01	-1.367375e+01
5.961941e+01	-1.372145e+01
5.996377e+01	-1.376963e+01
6.031012e+01	-1.381728e+01
6.065847e+01	-1.386488e+01
6.100883e+01	-1.391347e+01
6.136121e+01	-1.396186e+01
6.171563e+01	-1.400915e+01
6.207210e+01	-1.405657e+01
6.243063e+01	-1.410491e+01
6.279122e+01	-1.415317e+01
6.315390e+01	-1.420121e+01
6.351868e+01	-1.424943e+01
6.388556e+01	-1.429790e+01
6.425456e+01	-1.434579e+01
6.462569e+01	-1.439360e+01
6.499897e+01	-1.444285e+01
6.537440e+01	-1.449072e+01
6.575200e+01	-1.453851e+01
6.613178e+01	-1.458779e+01
6.651375e+01	-1.463536e+01
6.689793e+01	-1.468417e+01
6.728433e+01	-1.473214e+01
6.767297e+01	-1.478039e+01
6.806384e+01	-1.482887e+01
6.845698e+01	-1.487697e+01
6.885238e+01	-1.492561e+01
6.925007e+01	-1.497450e+01
6.965005e+01	-1.502227e+01
7.005235e+01	-1.507095e+01
7.045697e+01	-1.511953e+01
7.086393e+01	-1.516754e+01
7.127323e+01	-1.521736e+01
7.168490e+01	-1.526535e+01
7.209895e+01	-1.531275e+01
7.251539e+01	-1.536250e+01
7.293424e+01	-1.541102e+01
7.335551e+01	-1.545895e+01
7.377920e+01	-1.550815e+01
7.420535e+01	-1.555641e+01
7.463396e+01	-1.560568e+01
7.506504e+01	-1.565450e+01
7.549861e+01	-1.570263e+01
7.593469e+01	-1.575101e+01
7.637328e+01	-1.579929e+01
7.681441e+01	-1.584846e+01
7.725809e+01	-1.589771e+01
7.770433e+01	-1.594657e+01
7.815315e+01	-1.599467e+01
7.860456e+01	-1.604334e+01
7.905857e+01	-1.609252e+01
7.951521e+01	-1.614142e+01
7.997449e+01	-1.619124e+01
8.043642e+01	-1.623880e+01
8.090102e+01	-1.628691e+01
8.136830e+01	-1.633689e+01
8.183828e+01	-1.638555e+01
8.231097e+01	-1.643517e+01
8.278640e+01	-1.648349e+01
8.326457e+01	-1.653244e+01
8.374550e+01	-1.658072e+01
8.422921e+01	-1.663128e+01
8.471572e+01	-1.667956e+01
8.520503e+01	-1.672833e+01
8.569717e+01	-1.677745e+01
8.619215e+01	-1.682559e+01
8.669000e+01	-1.687452e+01
8.719071e+01	-1.692420e+01
8.769432e+01	-1.697249e+01
8.820084e+01	-1.702187e+01
8.871029e+01	-1.707117e+01
8.922267e+01	-1.711894e+01
8.973802e+01	-1.716981e+01
9.025634e+01	-1.721848e+01
9.077766e+01	-1.726720e+01
9.130199e+01	-1.731702e+01
9.182935e+01	-1.736489e+01
9.235975e+01	-1.741464e+01
9.289321e+01	-1.746303e+01
9.342976e+01	-1.751312e+01
9.396941e+01	-1.756272e+01
9.451217e+01	-1.761209e+01
9.505807e+01	-1.765955e+01
9.560712e+01	-1.770981e+01
9.615934e+01	-1.775805e+01
9.671476e+01	-1.780743e+01
9.727338e+01	-1.785692e+01
9.783522e+01	-1.790688e+01
9.840032e+01	-1.795645e+01
9.896867e+01	-1.800449e+01
9.954031e+01	-1.805387e+01
1.001153e+02	-1.810240e+01
1.006935e+02	-1.815261e+01
1.012751e+02	-1.820187e+01
1.018601e+02	-1.825119e+01
1.024484e+02	-1.829960e+01
1.030402e+02	-1.834983e+01
1.036353e+02	-1.839929e+01
1.042339e+02	-1.844894e+01
1.048360e+02	-1.849797e+01
1.054415e+02	-1.854694e+01
1.060505e+02	-1.859659e+01
1.066631e+02	-1.864648e+01
1.072791e+02	-1.869457e+01
1.078988e+02	-1.874462e+01
1.085220e+02	-1.879296e+01
1.091488e+02	-1.884196e+01
1.097793e+02	-1.889286e+01
1.104133e+02	-1.894261e+01
1.110511e+02	-1.899235e+01
1.116925e+02	-1.904159e+01
1.123376e+02	-1.909071e+01
1.129865e+02	-1.913800e+01
1.136391e+02	-1.918848e+01
1.142955e+02	-1.923940e+01
1.149556e+02	-1.928898e+01
1.156196e+02	-1.933856e+01
1.162874e+02	-1.938660e+01
1.169591e+02	-1.943706e+01
1.176347e+02	-1.948607e+01
1.183141e+02	-1.953572e+01
1.189975e+02	-1.958592e+01
1.196848e+02	-1.963301e+01
1.203761e+02	-1.968432e+01
1.210714e+02	-1.973374e+01
1.217707e+02	-1.978259e+01
1.224740e+02	-1.983207e+01
1.231814e+02	-1.988182e+01
1.238929e+02	-1.993234e+01
1.246085e+02	-1.998065e+01
1.253283e+02	-2.002981e+01
1.260522e+02	-2.007967e+01
1.267802e+02	-2.012831e+01
1.275125e+02	-2.017775e+01
1.282490e+02	-2.022700e+01
1.289898e+02	-2.027815e+01
1.297348e+02	-2.032876e+01
1.304842e+02	-2.037774e+01
1.312378e+02	-2.042544e+01
1.319959e+02	-2.047735e+01
1.327583e+02	-2.052542e+01
1.335251e+02	-2.057551e+01
1.342963e+02	-2.062558e+01
1.350720e+02	-2.067506e+01
1.358522e+02	-2.072521e+01
1.366368e+02	-2.077412e+01
1.374260e+02	-2.082466e+01
1.382198e+02	-2.087248e+01
1.390182e+02	-2.092284e+01
1.398211e+02	-2.097285e+01
1.406287e+02	-2.102245e+01
1.414410e+02	-2.107317e+01
1.422579e+02	-2.112429e+01
1.430796e+02	-2.117070e+01
1.439060e+02	-2.122033e+01
1.447372e+02	-2.126919e+01
1.455732e+02	-2.131958e+01
1.464141e+02	-2.137001e+01
1.472597e+02	-2.142030e+01
1.481103e+02	-2.146960e+01
1.489658e+02	-2.151766e+01
1.498262e+02	-2.156758e+01
1.506916e+02	-2.161674e+01
1.515620e+02	-2.166742e+01
1.524374e+02	-2.171706e+01
1.533179e+02	-2.176786e+01
1.542034e+02	-2.181823e+01
1.550941e+02	-2.186943e+01
1.559899e+02	-2.191587e+01
1.568909e+02	-2.196614e+01
1.577971e+02	-2.201799e+01
1.587085e+02	-2.206701e+01
1.596252e+02	-2.211668e+01
1.605472e+02	-2.216571e+01
1.614745e+02	-2.221460e+01
1.624072e+02	-2.226324e+01
1.633453e+02	-2.231410e+01
1.642887e+02	-2.236391e+01
1.652377e+02	-2.241439e+01
1.661921e+02	-2.246381e+01
1.671520e+02	-2.251489e+01
1.681175e+02	-2.256273e+01
1.690885e+02	-2.261290e+01
1.700651e+02	-2.266142e+01
1.710474e+02	-2.271347e+01
1.720354e+02	-2.276427e+01
1.730291e+02	-2.281198e+01
1.740285e+02	-2.286315e+01
1.750337e+02	-2.291058e+01
1.760446e+02	-2.296361e+01
1.770615e+02	-2.301351e+01
1.780842e+02	-2.306131e+01
1.791128e+02	-2.311062e+01
1.801473e+02	-2.316062e+01
1.811878e+02	-2.321243e+01
1.822344e+02	-2.325807e+01
1.832870e+02	-2.330999e+01
1.843456e+02	-2.335948e+01
1.854104e+02	-2.340959e+01
1.864813e+02	-2.345931e+01
1.875584e+02	-2.351006e+01
1.886418e+02	-2.355783e+01
1.897313e+02	-2.360956e+01
1.908272e+02	-2.365901e+01
1.919294e+02	-2.370965e+01
1.930380e+02	-2.375863e+01
1.941530e+02	-2.381047e+01
1.952744e+02	-2.385724e+01
1.964023e+02	-2.390801e+01
1.975367e+02	-2.395793e+01
1.986777e+02	-2.400806e+01
1.998252e+02	-2.405630e+01
2.009794e+02	-2.410761e+01
2.021403e+02	-2.415916e+01
2.033078e+02	-2.420764e+01
2.044821e+02	-2.425741e+01
2.056632e+02	-2.430616e+01
2.068511e+02	-2.435708e+01
2.080459e+02	-2.440657e+01
2.092475e+02	-2.445694e+01
2.104561e+02	-2.450666e+01
2.116717e+02	-2.455881e+01
2.128943e+02	-2.460783e+01
2.141240e+02	-2.465578e+01
2.153608e+02	-2.470526e+01
2.166047e+02	-2.475719e+01
2.178558e+02	-2.480554e+01
2.191141e+02	-2.485747e+01
2.203797e+02	-2.490677e+01
2.216526e+02	-2.495360e+01
2.229329e+02	-2.500518e+01
2.242205e+02	-2.505359e+01
2.255156e+02	-2.510565e+01
2.268182e+02	-2.515497e+01
2.281283e+02	-2.520619e+01
2.294459e+02	-2.525602e+01
2.307712e+02	-2.530861e+01
2.321041e+02	-2.535536e+01
2.334447e+02	-2.540679e+01
2.347931e+02	-2.545308e+01
2.361493e+02	-2.550490e+01
2.375133e+02	-2.555676e+01
2.388851e+02	-2.560430e+01
2.402649e+02	-2.565343e+01
2.416527e+02	-2.570352e+01
2.430484e+02	-2.575409e+01
2.444523e+02	-2.580625e+01
2.458642e+02	-2.585417e+01
2.472843e+02	-2.590503e+01
2.487126e+02	-2.595259e+01
2.501492e+02	-2.600401e+01
2.515940e+02	-2.605354e+01
2.530472e+02	-2.610538e+01
2.545088e+02	-2.615214e+01
2.559789e+02	-2.620486e+01
2.574574e+02	-2.625285e+01
2.589444e+02	-2.630156e+01
2.604401e+02	-2.635298e+01
2.619444e+02	-2.640316e+01
2.634574e+02	-2.645579e+01
2.649791e+02	-2.650190e+01
2.665096e+02	-2.655717e+01
2.680489e+02	-2.660636e+01
2.695972e+02	-2.665506e+01
2.711544e+02	-2.670434e+01
2.727205e+02	-2.675460e+01
2.742958e+02	-2.680647e+01
2.758801e+02	-2.685182e+01
2.774736e+02	-2.690259e+01
2.790762e+02	-2.695487e+01
2.806882e+02	-2.700102e+01
2.823094e+02	-2.705411e+01
2.839400e+02	-2.710462e+01
2.855800e+02	-2.715874e+01
2.872295e+02	-2.720316e+01
2.888886e+02	-2.725529e+01
2.905572e+02	-2.730422e+01
2.922354e+02	-2.734977e+01
2.939234e+02	-2.740268e+01
2.956211e+02	-2.745802e+01
2.973286e+02	-2.750502e+01
2.990459e+02	-2.755712e+01
3.007732e+02	-2.760519e+01
3.025104e+02	-2.765301e+01
3.042577e+02	-2.770000e+01
3.060151e+02	-2.775421e+01
3.077826e+02	-2.780206e+01
3.095604e+02	-2.785046e+01
3.113484e+02	-2.790527e+01
3.131467e+02	-2.795044e+01
3.149554e+02	-2.800041e+01
3.167746e+02	-2.805196e+01
3.186043e+02	-2.810194e+01
3.204445e+02	-2.815264e+01
3.222954e+02	-2.820373e+01
3.241570e+02	-2.825316e+01
3.260293e+02	-2.830447e+01
3.279124e+02	-2.835996e+01
3.298064e+02	-2.840569e+01
3.317114e+02	-2.845667e+01
3.336273e+02	-2.850272e+01
3.355544e+02	-2.855502e+01
3.374925e+02	-2.860426e+01
3.394418e+02	-2.865483e+01
3.414024e+02	-2.870446e+01
3.433744e+02	-2.875215e+01
3.453577e+02	-2.880200e+01
3.473525e+02	-2.885524e+01
3.493588e+02	-2.890695e+01
3.513766e+02	-2.895851e+01
3.534062e+02	-2.900453e+01
3.554474e+02	-2.905672e+01
3.575005e+02	-2.910616e+01
3.595654e+02	-2.915725e+01
3.616422e+02	-2.920770e+01
3.637311e+02	-2.925801e+01
3.658320e+02	-2.930606e+01
3.679450e+02	-2.935857e+01
3.700702e+02	-2.939718e+01
3.722077e+02	-2.945462e+01
3.743576e+02	-2.950648e+01
3.765199e+02	-2.955559e+01
3.786946e+02	-2.960723e+01
3.808820e+02	-2.965260e+01
3.830819e+02	-2.970808e+01
3.852946e+02	-2.975477e+01
3.875200e+02	-2.980239e+01
3.897583e+02	-2.985568e+01
3.920096e+02	-2.991182e+01
3.942738e+02	-2.996115e+01
3.965511e+02	-3.000508e+01
3.988416e+02	-3.005506e+01
4.011452e+02	-3.010729e+01
4.034622e+02	-3.015837e+01
4.057926e+02	-3.020974e+01
4.081365e+02	-3.025659e+01
4.104938e+02	-3.030867e+01
4.128648e+02	-3.035662e+01
4.152495e+02	-3.040447e+01
4.176480e+02	-3.046262e+01
4.200603e+02	-3.050417e+01
4.224866e+02	-3.055726e+01
4.249268e+02	-3.061175e+01
4.273812e+02	-3.065543e+01
4.298497e+02	-3.070727e+01
4.323325e+02	-3.075953e+01
4.348297e+02	-3.081274e+01
4.373412e+02	-3.086031e+01
4.398673e+02	-3.090676e+01
4.424079e+02	-3.095677e+01
4.449633e+02	-3.100355e+01
4.475334e+02	-3.105880e+01
4.501183e+02	-3.110650e+01
4.527182e+02	-3.115990e+01
4.553330e+02	-3.120767e+01
4.579630e+02	-3.125634e+01
4.606082e+02	-3.131126e+01
4.632687e+02	-3.135979e+01
4.659445e+02	-3.141143e+01
4.686358e+02	-3.146250e+01
4.713426e+02	-3.150884e+01
4.740650e+02	-3.156075e+01
4.768032e+02	-3.160859e+01
4.795572e+02	-3.166452e+01
4.823271e+02	-3.171600e+01
4.851130e+02	-3.176019e+01
4.879150e+02	-3.181057e+01
4.907332e+02	-3.185914e+01
4.935676e+02	-3.190588e+01
4.964185e+02	-3.196744e+01
4.992858e+02	-3.201453e+01
5.021696e+02	-3.205925e+01
5.050701e+02	-3.211108e+01
5.079874e+02	-3.215917e+01
5.109215e+02	-3.221763e+01
5.138726e+02	-3.226231e+01
5.168407e+02	-3.231904e+01
5.198259e+02	-3.236084e+01
5.228284e+02	-3.241447e+01
5.258482e+02	-3.246416e+01
5.288855e+02	-3.251611e+01
5.319403e+02	-3.257143e+01
5.350128e+02	-3.261762e+01
5.381030e+02	-3.265836e+01
5.412111e+02	-3.272199e+01
5.443371e+02	-3.276701e+01
5.474812e+02	-3.280982e+01
5.506434e+02	-3.286437e+01
5.538239e+02	-3.291684e+01
5.570228e+02	-3.296984e+01
5.602401e+02	-3.301976e+01
5.634760e+02	-3.306741e+01
5.667306e+02	-3.311749e+01
5.700040e+02	-3.315950e+01
5.732964e+02	-3.321935e+01
5.766077e+02	-3.326781e+01
5.799382e+02	-3.331109e+01
5.832879e+02	-3.336812e+01
5.866569e+02	-3.342203e+01
5.900454e+02	-3.345918e+01
5.934535e+02	-3.352085e+01
5.968813e+02	-3.357769e+01
6.003288e+02	-3.361789e+01
6.037963e+02	-3.366900e+01
6.072838e+02	-3.372796e+01
6.107914e+02	-3.377456e+01
6.143194e+02	-3.381790e+01
6.178676e+02	-3.387815e+01
6.214364e+02	-3.392509e+01
6.250258e+02	-3.397029e+01
6.286359e+02	-3.402256e+01
6.322669e+02	-3.408356e+01
6.359189e+02	-3.411554e+01
6.395919e+02	-3.417486e+01
6.432862e+02	-3.423045e+01
6.470017e+02	-3.427781e+01
6.507388e+02	-3.432809e+01
6.544974e+02	-3.436873e+01
6.582778e+02	-3.442676e+01
6.620800e+02	-3.447174e+01
6.659041e+02	-3.452771e+01
6.697504e+02	-3.457752e+01
6.736188e+02	-3.462702e+01
6.775096e+02	-3.468318e+01
6.814229e+02	-3.472954e+01
6.853587e+02	-3.477752e+01
6.893173e+02	-3.482746e+01
6.932988e+02	-3.488728e+01
6.973033e+02	-3.493016e+01
7.013309e+02	-3.498876e+01
