Frequency(Hz)	Magnitude(dB)
1.000000e+01	-1.830454e-05
1.005776e+01	-1.851660e-05
1.011585e+01	-1.873112e-05
1.017428e+01	-1.894812e-05
1.023305e+01	-1.916764e-05
1.029215e+01	-1.938970e-05
1.035160e+01	-1.961434e-05
1.041139e+01	-1.984158e-05
1.047153e+01	-2.007145e-05
1.053201e+01	-2.030398e-05
1.059284e+01	-2.053921e-05
1.065403e+01	-2.077716e-05
1.071556e+01	-2.101787e-05
1.077746e+01	-2.126136e-05
1.083971e+01	-2.150768e-05
1.090232e+01	-2.175685e-05
1.096529e+01	-2.200891e-05
1.102862e+01	-2.226389e-05
1.109232e+01	-2.252182e-05
1.115639e+01	-2.278274e-05
1.122083e+01	-2.304669e-05
1.128564e+01	-2.331369e-05
1.135083e+01	-2.358378e-05
1.141639e+01	-2.385701e-05
1.148233e+01	-2.413340e-05
1.154865e+01	-2.441299e-05
1.161536e+01	-2.469582e-05
1.168245e+01	-2.498193e-05
1.174992e+01	-2.527135e-05
1.181779e+01	-2.556412e-05
1.188605e+01	-2.586029e-05
1.195470e+01	-2.615989e-05
1.202375e+01	-2.646296e-05
1.209320e+01	-2.676954e-05
1.216305e+01	-2.707967e-05
1.223330e+01	-2.739339e-05
1.230396e+01	-2.771075e-05
1.237503e+01	-2.803179e-05
1.244651e+01	-2.835654e-05
1.251840e+01	-2.868506e-05
1.259070e+01	-2.901738e-05
1.266343e+01	-2.935356e-05
1.273657e+01	-2.969362e-05
1.281014e+01	-3.003763e-05
1.288413e+01	-3.038563e-05
1.295855e+01	-3.073765e-05
1.303339e+01	-3.109375e-05
1.310867e+01	-3.145398e-05
1.318439e+01	-3.181838e-05
1.326054e+01	-3.218701e-05
1.333713e+01	-3.255990e-05
1.341417e+01	-3.293712e-05
1.349165e+01	-3.331870e-05
1.356958e+01	-3.370470e-05
1.364795e+01	-3.409518e-05
1.372678e+01	-3.449018e-05
1.380607e+01	-3.488976e-05
1.388581e+01	-3.529397e-05
1.396602e+01	-3.570285e-05
1.404668e+01	-3.611648e-05
1.412782e+01	-3.653490e-05
1.420942e+01	-3.695816e-05
1.429149e+01	-3.738633e-05
1.437404e+01	-3.781946e-05
1.445706e+01	-3.825761e-05
1.454057e+01	-3.870083e-05
1.462455e+01	-3.914919e-05
1.470902e+01	-3.960274e-05
1.479398e+01	-4.006155e-05
1.487943e+01	-4.052567e-05
1.496537e+01	-4.099517e-05
1.505181e+01	-4.147011e-05
1.513875e+01	-4.195055e-05
1.522619e+01	-4.243655e-05
1.531414e+01	-4.292819e-05
1.540259e+01	-4.342552e-05
1.549156e+01	-4.392862e-05
1.558103e+01	-4.443754e-05
1.567103e+01	-4.495236e-05
1.576155e+01	-4.547314e-05
1.585258e+01	-4.599996e-05
1.594415e+01	-4.653288e-05
1.603624e+01	-4.707197e-05
1.612886e+01	-4.761731e-05
1.622202e+01	-4.816897e-05
1.631572e+01	-4.872702e-05
1.640996e+01	-4.929153e-05
1.650474e+01	-4.986258e-05
1.660008e+01	-5.044025e-05
1.669596e+01	-5.102461e-05
1.679239e+01	-5.161574e-05
1.688938e+01	-5.221372e-05
1.698694e+01	-5.281863e-05
1.708505e+01	-5.343054e-05
1.718373e+01	-5.404955e-05
1.728299e+01	-5.467572e-05
1.738281e+01	-5.530915e-05
1.748322e+01	-5.594992e-05
1.758420e+01	-5.659811e-05
1.768576e+01	-5.725381e-05
1.778792e+01	-5.791711e-05
1.789066e+01	-5.858809e-05
1.799399e+01	-5.926684e-05
1.809793e+01	-5.995346e-05
1.820246e+01	-6.064804e-05
1.830760e+01	-6.135066e-05
1.841334e+01	-6.206141e-05
1.851969e+01	-6.278041e-05
1.862666e+01	-6.350773e-05
1.873425e+01	-6.424348e-05
1.884246e+01	-6.498775e-05
1.895129e+01	-6.574065e-05
1.906075e+01	-6.650227e-05
1.917085e+01	-6.727271e-05
1.928158e+01	-6.805208e-05
1.939295e+01	-6.884047e-05
1.950496e+01	-6.963800e-05
1.961762e+01	-7.044477e-05
1.973093e+01	-7.126089e-05
1.984490e+01	-7.208646e-05
1.995952e+01	-7.292159e-05
2.007480e+01	-7.376640e-05
2.019076e+01	-7.462100e-05
2.030738e+01	-7.548550e-05
2.042467e+01	-7.636001e-05
2.054264e+01	-7.724465e-05
2.066130e+01	-7.813955e-05
2.078064e+01	-7.904481e-05
2.090066e+01	-7.996055e-05
2.102139e+01	-8.088691e-05
2.114280e+01	-8.182400e-05
2.126492e+01	-8.277195e-05
2.138775e+01	-8.373087e-05
2.151128e+01	-8.470091e-05
2.163553e+01	-8.568218e-05
2.176050e+01	-8.667482e-05
2.188619e+01	-8.767897e-05
2.201260e+01	-8.869474e-05
2.213974e+01	-8.972228e-05
2.226762e+01	-9.076173e-05
2.239624e+01	-9.181322e-05
2.252560e+01	-9.287689e-05
2.265571e+01	-9.395288e-05
2.278656e+01	-9.504134e-05
2.291818e+01	-9.614241e-05
2.305055e+01	-9.725623e-05
2.318369e+01	-9.838296e-05
2.331760e+01	-9.952274e-05
2.345228e+01	-1.006757e-04
2.358774e+01	-1.018421e-04
2.372398e+01	-1.030219e-04
2.386101e+01	-1.042154e-04
2.399883e+01	-1.054228e-04
2.413745e+01	-1.066441e-04
2.427686e+01	-1.078796e-04
2.441709e+01	-1.091294e-04
2.455812e+01	-1.103937e-04
2.469997e+01	-1.116726e-04
2.484263e+01	-1.129664e-04
2.498612e+01	-1.142751e-04
2.513044e+01	-1.155990e-04
2.527559e+01	-1.169382e-04
2.542158e+01	-1.182930e-04
2.556842e+01	-1.196634e-04
2.571610e+01	-1.210497e-04
2.586463e+01	-1.224521e-04
2.601403e+01	-1.238707e-04
2.616428e+01	-1.253058e-04
2.631541e+01	-1.267575e-04
2.646740e+01	-1.282259e-04
2.662028e+01	-1.297115e-04
2.677404e+01	-1.312142e-04
2.692868e+01	-1.327343e-04
2.708422e+01	-1.342721e-04
2.724066e+01	-1.358276e-04
2.739800e+01	-1.374012e-04
2.755625e+01	-1.389930e-04
2.771541e+01	-1.406032e-04
2.787550e+01	-1.422321e-04
2.803650e+01	-1.438799e-04
2.819844e+01	-1.455468e-04
2.836131e+01	-1.472329e-04
2.852513e+01	-1.489386e-04
2.868989e+01	-1.506641e-04
2.885560e+01	-1.524096e-04
2.902227e+01	-1.541752e-04
2.918990e+01	-1.559614e-04
2.935850e+01	-1.577682e-04
2.952807e+01	-1.595960e-04
2.969863e+01	-1.614449e-04
2.987016e+01	-1.633152e-04
3.004269e+01	-1.652072e-04
3.021622e+01	-1.671212e-04
3.039075e+01	-1.690573e-04
3.056628e+01	-1.710158e-04
3.074283e+01	-1.729971e-04
3.092040e+01	-1.750012e-04
3.109900e+01	-1.770286e-04
3.127862e+01	-1.790795e-04
3.145929e+01	-1.811542e-04
3.164099e+01	-1.832528e-04
3.182375e+01	-1.853758e-04
3.200756e+01	-1.875234e-04
3.219244e+01	-1.896959e-04
3.237838e+01	-1.918935e-04
3.256540e+01	-1.941166e-04
3.275349e+01	-1.963654e-04
3.294268e+01	-1.986403e-04
3.313295e+01	-2.009416e-04
3.332433e+01	-2.032695e-04
3.351681e+01	-2.056244e-04
3.371040e+01	-2.080065e-04
3.390511e+01	-2.104163e-04
3.410094e+01	-2.128540e-04
3.429791e+01	-2.153199e-04
3.449601e+01	-2.178143e-04
3.469526e+01	-2.203377e-04
3.489566e+01	-2.228903e-04
3.509721e+01	-2.254725e-04
3.529993e+01	-2.280846e-04
3.550382e+01	-2.307270e-04
3.570889e+01	-2.333999e-04
3.591515e+01	-2.361038e-04
3.612259e+01	-2.388391e-04
3.633123e+01	-2.416060e-04
3.654108e+01	-2.444050e-04
3.675214e+01	-2.472365e-04
3.696442e+01	-2.501007e-04
3.717792e+01	-2.529981e-04
3.739266e+01	-2.559290e-04
3.760864e+01	-2.588940e-04
3.782587e+01	-2.618932e-04
3.804435e+01	-2.649272e-04
3.826409e+01	-2.679964e-04
3.848510e+01	-2.711011e-04
3.870739e+01	-2.742418e-04
3.893096e+01	-2.774189e-04
3.915583e+01	-2.806327e-04
3.938199e+01	-2.838838e-04
3.960946e+01	-2.871726e-04
3.983824e+01	-2.904995e-04
4.006834e+01	-2.938649e-04
4.029978e+01	-2.972693e-04
4.053255e+01	-3.007131e-04
4.076666e+01	-3.041968e-04
4.100213e+01	-3.077209e-04
4.123896e+01	-3.112858e-04
4.147715e+01	-3.148920e-04
4.171672e+01	-3.185400e-04
4.195767e+01	-3.222302e-04
4.220002e+01	-3.259632e-04
4.244377e+01	-3.297394e-04
4.268892e+01	-3.335594e-04
4.293549e+01	-3.374236e-04
4.318348e+01	-3.413326e-04
4.343291e+01	-3.452869e-04
4.368377e+01	-3.492870e-04
4.393609e+01	-3.533334e-04
4.418986e+01	-3.574267e-04
4.444510e+01	-3.615674e-04
4.470182e+01	-3.657561e-04
4.496001e+01	-3.699933e-04
4.521970e+01	-3.742796e-04
4.548089e+01	-3.786156e-04
4.574358e+01	-3.830017e-04
4.600779e+01	-3.874387e-04
4.627353e+01	-3.919271e-04
4.654081e+01	-3.964675e-04
4.680963e+01	-4.010604e-04
4.708000e+01	-4.057066e-04
4.735193e+01	-4.104066e-04
4.762543e+01	-4.151611e-04
4.790051e+01	-4.199706e-04
4.817719e+01	-4.248358e-04
4.845545e+01	-4.297574e-04
4.873533e+01	-4.347360e-04
4.901682e+01	-4.397723e-04
4.929994e+01	-4.448669e-04
4.958470e+01	-4.500206e-04
4.987110e+01	-4.552339e-04
5.015915e+01	-4.605077e-04
5.044887e+01	-4.658425e-04
5.074026e+01	-4.712391e-04
5.103333e+01	-4.766982e-04
5.132810e+01	-4.822206e-04
5.162457e+01	-4.878070e-04
5.192275e+01	-4.934580e-04
5.222265e+01	-4.991745e-04
5.252429e+01	-5.049573e-04
5.282767e+01	-5.108070e-04
5.313280e+01	-5.167245e-04
5.343969e+01	-5.227105e-04
5.374836e+01	-5.287659e-04
5.405880e+01	-5.348914e-04
5.437105e+01	-5.410879e-04
5.468509e+01	-5.473562e-04
5.500095e+01	-5.536970e-04
5.531863e+01	-5.601113e-04
5.563815e+01	-5.666000e-04
5.595951e+01	-5.731638e-04
5.628273e+01	-5.798036e-04
5.660782e+01	-5.865203e-04
5.693479e+01	-5.933148e-04
5.726364e+01	-6.001881e-04
5.759439e+01	-6.071409e-04
5.792705e+01	-6.141743e-04
5.826164e+01	-6.212892e-04
5.859815e+01	-6.284865e-04
5.893662e+01	-6.357671e-04
5.927703e+01	-6.431321e-04
5.961941e+01	-6.505824e-04
5.996377e+01	-6.581190e-04
6.031012e+01	-6.657430e-04
6.065847e+01	-6.734552e-04
6.100883e+01	-6.812567e-04
6.136121e+01	-6.891486e-04
6.171563e+01	-6.971320e-04
6.207210e+01	-7.052078e-04
6.243063e+01	-7.133771e-04
6.279122e+01	-7.216411e-04
6.315390e+01	-7.300008e-04
6.351868e+01	-7.384574e-04
6.388556e+01	-7.470119e-04
6.425456e+01	-7.556655e-04
6.462569e+01	-7.644193e-04
6.499897e+01	-7.732745e-04
6.537440e+01	-7.822323e-04
6.575200e+01	-7.912938e-04
6.613178e+01	-8.004603e-04
6.651375e+01	-8.097330e-04
6.689793e+01	-8.191131e-04
6.728433e+01	-8.286019e-04
6.767297e+01	-8.382005e-04
6.806384e+01	-8.479104e-04
6.845698e+01	-8.577327e-04
6.885238e+01	-8.676687e-04
6.925007e+01	-8.777199e-04
6.965005e+01	-8.878875e-04
7.005235e+01	-8.981729e-04
7.045697e+01	-9.085773e-04
7.086393e+01	-9.191023e-04
7.127323e+01	-9.297493e-04
7.168490e+01	-9.405195e-04
7.209895e+01	-9.514145e-04
7.251539e+01	-9.624356e-04
7.293424e+01	-9.735845e-04
7.335551e+01	-9.848624e-04
7.377920e+01	-9.962710e-04
7.420535e+01	-1.007812e-03
7.463396e+01	-1.019486e-03
7.506504e+01	-1.031296e-03
7.549861e+01	-1.043242e-03
7.593469e+01	-1.055327e-03
7.637328e+01	-1.067552e-03
7.681441e+01	-1.079918e-03
7.725809e+01	-1.092428e-03
7.770433e+01	-1.105082e-03
7.815315e+01	-1.117883e-03
7.860456e+01	-1.130832e-03
7.905857e+01	-1.143932e-03
7.951521e+01	-1.157183e-03
7.997449e+01	-1.170587e-03
8.043642e+01	-1.184147e-03
8.090102e+01	-1.197864e-03
8.136830e+01	-1.211739e-03
8.183828e+01	-1.225776e-03
8.231097e+01	-1.239975e-03
8.278640e+01	-1.254338e-03
8.326457e+01	-1.268868e-03
8.374550e+01	-1.283566e-03
8.422921e+01	-1.298434e-03
8.471572e+01	-1.313474e-03
8.520503e+01	-1.328689e-03
8.569717e+01	-1.344080e-03
8.619215e+01	-1.359649e-03
8.669000e+01	-1.375398e-03
8.719071e+01	-1.391330e-03
8.769432e+01	-1.407446e-03
8.820084e+01	-1.423749e-03
8.871029e+01	-1.440241e-03
8.922267e+01	-1.456924e-03
8.973802e+01	-1.473800e-03
9.025634e+01	-1.490871e-03
9.077766e+01	-1.508141e-03
9.130199e+01	-1.525610e-03
9.182935e+01	-1.543281e-03
9.235975e+01	-1.561157e-03
9.289321e+01	-1.579240e-03
9.342976e+01	-1.597533e-03
9.396941e+01	-1.616037e-03
9.451217e+01	-1.634756e-03
9.505807e+01	-1.653692e-03
9.560712e+01	-1.672846e-03
9.615934e+01	-1.692223e-03
9.671476e+01	-1.711824e-03
9.727338e+01	-1.731652e-03
9.783522e+01	-1.751709e-03
9.840032e+01	-1.771999e-03
9.896867e+01	-1.792524e-03
9.954031e+01	-1.813287e-03
1.001153e+02	-1.834290e-03
1.006935e+02	-1.855536e-03
1.012751e+02	-1.877028e-03
1.018601e+02	-1.898769e-03
1.024484e+02	-1.920762e-03
1.030402e+02	-1.943010e-03
1.036353e+02	-1.965515e-03
1.042339e+02	-1.988281e-03
1.048360e+02	-2.011310e-03
1.054415e+02	-2.034606e-03
1.060505e+02	-2.058172e-03
1.066631e+02	-2.082011e-03
1.072791e+02	-2.106126e-03
1.078988e+02	-2.130520e-03
1.085220e+02	-2.155196e-03
1.091488e+02	-2.180158e-03
1.097793e+02	-2.205410e-03
1.104133e+02	-2.230953e-03
1.110511e+02	-2.256793e-03
1.116925e+02	-2.282932e-03
1.123376e+02	-2.309373e-03
1.129865e+02	-2.336120e-03
1.136391e+02	-2.363178e-03
1.142955e+02	-2.390548e-03
1.149556e+02	-2.418236e-03
1.156196e+02	-2.446244e-03
1.162874e+02	-2.474576e-03
1.169591e+02	-2.503236e-03
1.176347e+02	-2.532228e-03
1.183141e+02	-2.561556e-03
1.189975e+02	-2.591224e-03
1.196848e+02	-2.621235e-03
1.203761e+02	-2.651593e-03
1.210714e+02	-2.682303e-03
1.217707e+02	-2.713368e-03
1.224740e+02	-2.744794e-03
1.231814e+02	-2.776583e-03
1.238929e+02	-2.808740e-03
1.246085e+02	-2.841269e-03
1.253283e+02	-2.874175e-03
1.260522e+02	-2.907462e-03
1.267802e+02	-2.941134e-03
1.275125e+02	-2.975196e-03
1.282490e+02	-3.009653e-03
1.289898e+02	-3.044508e-03
1.297348e+02	-3.079767e-03
1.304842e+02	-3.115434e-03
1.312378e+02	-3.151514e-03
1.319959e+02	-3.188012e-03
1.327583e+02	-3.224932e-03
1.335251e+02	-3.262280e-03
1.342963e+02	-3.300060e-03
1.350720e+02	-3.338277e-03
1.358522e+02	-3.376937e-03
1.366368e+02	-3.416044e-03
1.374260e+02	-3.455604e-03
1.382198e+02	-3.495622e-03
1.390182e+02	-3.536103e-03
1.398211e+02	-3.577053e-03
1.406287e+02	-3.618477e-03
1.414410e+02	-3.660380e-03
1.422579e+02	-3.702768e-03
1.430796e+02	-3.745648e-03
1.439060e+02	-3.789023e-03
1.447372e+02	-3.832900e-03
1.455732e+02	-3.877286e-03
1.464141e+02	-3.922185e-03
1.472597e+02	-3.967603e-03
1.481103e+02	-4.013548e-03
1.489658e+02	-4.060024e-03
1.498262e+02	-4.107038e-03
1.506916e+02	-4.154597e-03
1.515620e+02	-4.202705e-03
1.524374e+02	-4.251371e-03
1.533179e+02	-4.300600e-03
1.542034e+02	-4.350398e-03
1.550941e+02	-4.400773e-03
1.559899e+02	-4.451731e-03
1.568909e+02	-4.503279e-03
1.577971e+02	-4.555423e-03
1.587085e+02	-4.608171e-03
1.596252e+02	-4.661529e-03
1.605472e+02	-4.715504e-03
1.614745e+02	-4.770105e-03
1.624072e+02	-4.825337e-03
1.633453e+02	-4.881208e-03
1.642887e+02	-4.937726e-03
1.652377e+02	-4.994898e-03
1.661921e+02	-5.052731e-03
1.671520e+02	-5.111234e-03
1.681175e+02	-5.170414e-03
1.690885e+02	-5.230278e-03
1.700651e+02	-5.290835e-03
1.710474e+02	-5.352093e-03
1.720354e+02	-5.414060e-03
1.730291e+02	-5.476743e-03
1.740285e+02	-5.540152e-03
1.750337e+02	-5.604295e-03
1.760446e+02	-5.669180e-03
1.770615e+02	-5.734815e-03
1.780842e+02	-5.801210e-03
1.791128e+02	-5.868373e-03
1.801473e+02	-5.936313e-03
1.811878e+02	-6.005039e-03
1.822344e+02	-6.074560e-03
1.832870e+02	-6.144886e-03
1.843456e+02	-6.216025e-03
1.854104e+02	-6.287987e-03
1.864813e+02	-6.360781e-03
1.875584e+02	-6.434418e-03
1.886418e+02	-6.508906e-03
1.897313e+02	-6.584256e-03
1.908272e+02	-6.660478e-03
1.919294e+02	-6.737581e-03
1.930380e+02	-6.815576e-03
1.941530e+02	-6.894474e-03
1.952744e+02	-6.974284e-03
1.964023e+02	-7.055017e-03
1.975367e+02	-7.136684e-03
1.986777e+02	-7.219295e-03
1.998252e+02	-7.302862e-03
2.009794e+02	-7.387395e-03
2.021403e+02	-7.472906e-03
2.033078e+02	-7.559406e-03
2.044821e+02	-7.646907e-03
2.056632e+02	-7.735419e-03
2.068511e+02	-7.824955e-03
2.080459e+02	-7.915526e-03
2.092475e+02	-8.007145e-03
2.104561e+02	-8.099823e-03
2.116717e+02	-8.193573e-03
2.128943e+02	-8.288407e-03
2.141240e+02	-8.384337e-03
2.153608e+02	-8.481376e-03
2.166047e+02	-8.579538e-03
2.178558e+02	-8.678835e-03
2.191141e+02	-8.779279e-03
2.203797e+02	-8.880885e-03
2.216526e+02	-8.983666e-03
2.229329e+02	-9.087635e-03
2.242205e+02	-9.192805e-03
2.255156e+02	-9.299192e-03
2.268182e+02	-9.406809e-03
2.281283e+02	-9.515669e-03
2.294459e+02	-9.625788e-03
2.307712e+02	-9.737180e-03
2.321041e+02	-9.849859e-03
2.334447e+02	-9.963841e-03
2.347931e+02	-1.007914e-02
2.361493e+02	-1.019577e-02
2.375133e+02	-1.031375e-02
2.388851e+02	-1.043310e-02
2.402649e+02	-1.055382e-02
2.416527e+02	-1.067594e-02
2.430484e+02	-1.079947e-02
2.444523e+02	-1.092442e-02
2.458642e+02	-1.105082e-02
2.472843e+02	-1.117868e-02
2.487126e+02	-1.130802e-02
2.501492e+02	-1.143886e-02
2.515940e+02	-1.157120e-02
2.530472e+02	-1.170508e-02
2.545088e+02	-1.184050e-02
2.559789e+02	-1.197748e-02
2.574574e+02	-1.211605e-02
2.589444e+02	-1.225622e-02
2.604401e+02	-1.239801e-02
2.619444e+02	-1.254143e-02
2.634574e+02	-1.268652e-02
2.649791e+02	-1.283327e-02
2.665096e+02	-1.298173e-02
2.680489e+02	-1.313190e-02
2.695972e+02	-1.328380e-02
2.711544e+02	-1.343746e-02
2.727205e+02	-1.359289e-02
2.742958e+02	-1.375012e-02
2.758801e+02	-1.390916e-02
2.774736e+02	-1.407004e-02
2.790762e+02	-1.423278e-02
2.806882e+02	-1.439739e-02
2.823094e+02	-1.456391e-02
2.839400e+02	-1.473235e-02
2.855800e+02	-1.490273e-02
2.872295e+02	-1.507508e-02
2.888886e+02	-1.524943e-02
2.905572e+02	-1.542578e-02
2.922354e+02	-1.560417e-02
2.939234e+02	-1.578462e-02
2.956211e+02	-1.596715e-02
2.973286e+02	-1.615179e-02
2.990459e+02	-1.633856e-02
3.007732e+02	-1.652748e-02
3.025104e+02	-1.671859e-02
3.042577e+02	-1.691190e-02
3.060151e+02	-1.710744e-02
3.077826e+02	-1.730524e-02
3.095604e+02	-1.750532e-02
3.113484e+02	-1.770771e-02
3.131467e+02	-1.791243e-02
3.149554e+02	-1.811952e-02
3.167746e+02	-1.832899e-02
3.186043e+02	-1.854088e-02
3.204445e+02	-1.875522e-02
3.222954e+02	-1.897203e-02
3.241570e+02	-1.919133e-02
3.260293e+02	-1.941317e-02
3.279124e+02	-1.963757e-02
3.298064e+02	-1.986455e-02
3.317114e+02	-2.009416e-02
3.336273e+02	-2.032640e-02
3.355544e+02	-2.056133e-02
3.374925e+02	-2.079897e-02
3.394418e+02	-2.103934e-02
3.414024e+02	-2.128249e-02
3.433744e+02	-2.152844e-02
3.453577e+02	-2.177723e-02
3.473525e+02	-2.202888e-02
3.493588e+02	-2.228343e-02
3.513766e+02	-2.254092e-02
3.534062e+02	-2.280138e-02
3.554474e+02	-2.306483e-02
3.575005e+02	-2.333132e-02
3.595654e+02	-2.360089e-02
3.616422e+02	-2.387356e-02
3.637311e+02	-2.414937e-02
3.658320e+02	-2.442835e-02
3.679450e+02	-2.471055e-02
3.700702e+02	-2.499601e-02
3.722077e+02	-2.528475e-02
3.743576e+02	-2.557681e-02
3.765199e+02	-2.587224e-02
3.786946e+02	-2.617107e-02
3.808820e+02	-2.647334e-02
3.830819e+02	-2.677909e-02
3.852946e+02	-2.708837e-02
3.875200e+02	-2.740120e-02
3.897583e+02	-2.771763e-02
3.920096e+02	-2.803771e-02
3.942738e+02	-2.836147e-02
3.965511e+02	-2.868896e-02
3.988416e+02	-2.902021e-02
4.011452e+02	-2.935528e-02
4.034622e+02	-2.969420e-02
4.057926e+02	-3.003702e-02
4.081365e+02	-3.038379e-02
4.104938e+02	-3.073455e-02
4.128648e+02	-3.108934e-02
4.152495e+02	-3.144821e-02
4.176480e+02	-3.181120e-02
4.200603e+02	-3.217838e-02
4.224866e+02	-3.254977e-02
4.249268e+02	-3.292544e-02
4.273812e+02	-3.330542e-02
4.298497e+02	-3.368977e-02
4.323325e+02	-3.407854e-02
4.348297e+02	-3.447178e-02
4.373412e+02	-3.486954e-02
4.398673e+02	-3.527186e-02
4.424079e+02	-3.567881e-02
4.449633e+02	-3.609044e-02
4.475334e+02	-3.650680e-02
4.501183e+02	-3.692794e-02
4.527182e+02	-3.735391e-02
4.553330e+02	-3.778478e-02
4.579630e+02	-3.822060e-02
4.606082e+02	-3.866142e-02
4.632687e+02	-3.910730e-02
4.659445e+02	-3.955830e-02
4.686358e+02	-4.001448e-02
4.713426e+02	-4.047589e-02
4.740650e+02	-4.094260e-02
4.768032e+02	-4.141466e-02
4.795572e+02	-4.189214e-02
4.823271e+02	-4.237510e-02
4.851130e+02	-4.286360e-02
4.879150e+02	-4.335770e-02
4.907332e+02	-4.385747e-02
4.935676e+02	-4.436297e-02
4.964185e+02	-4.487427e-02
4.992858e+02	-4.539143e-02
5.021696e+02	-4.591452e-02
5.050701e+02	-4.644360e-02
5.079874e+02	-4.697874e-02
5.109215e+02	-4.752002e-02
5.138726e+02	-4.806750e-02
5.168407e+02	-4.862126e-02
5.198259e+02	-4.918135e-02
5.228284e+02	-4.974786e-02
5.258482e+02	-5.032086e-02
5.288855e+02	-5.090042e-02
5.319403e+02	-5.148661e-02
5.350128e+02	-5.207952e-02
5.381030e+02	-5.267921e-02
5.412111e+02	-5.328576e-02
5.443371e+02	-5.389926e-02
5.474812e+02	-5.451977e-02
5.506434e+02	-5.514738e-02
5.538239e+02	-5.578217e-02
5.570228e+02	-5.642422e-02
5.602401e+02	-5.707361e-02
5.634760e+02	-5.773042e-02
5.667306e+02	-5.839475e-02
5.700040e+02	-5.906666e-02
5.732964e+02	-5.974625e-02
5.766077e+02	-6.043361e-02
5.799382e+02	-6.112882e-02
5.832879e+02	-6.183197e-02
5.866569e+02	-6.254315e-02
5.900454e+02	-6.326244e-02
5.934535e+02	-6.398995e-02
5.968813e+02	-6.472577e-02
6.003288e+02	-6.546998e-02
6.037963e+02	-6.622268e-02
6.072838e+02	-6.698397e-02
6.107914e+02	-6.775394e-02
6.143194e+02	-6.853270e-02
6.178676e+02	-6.932033e-02
6.214364e+02	-7.011694e-02
6.250258e+02	-7.092263e-02
6.286359e+02	-7.173750e-02
6.322669e+02	-7.256166e-02
6.359189e+02	-7.339520e-02
6.395919e+02	-7.423824e-02
6.432862e+02	-7.509088e-02
6.470017e+02	-7.595322e-02
6.507388e+02	-7.682538e-02
6.544974e+02	-7.770746e-02
6.582778e+02	-7.859958e-02
6.620800e+02	-7.950185e-02
6.659041e+02	-8.041438e-02
6.697504e+02	-8.133728e-02
6.736188e+02	-8.227068e-02
6.775096e+02	-8.321469e-02
6.814229e+02	-8.416942e-02
6.853587e+02	-8.513499e-02
6.893173e+02	-8.611154e-02
6.932988e+02	-8.709917e-02
6.973033e+02	-8.809802e-02
7.013309e+02	-8.910820e-02
