Frequency(Hz)	Magnitude(dB)
1.000000e+01	-2.139689e+00
1.005776e+01	-2.159135e+00
1.011585e+01	-2.178805e+00
1.017428e+01	-2.198757e+00
1.023305e+01	-2.218661e+00
1.029215e+01	-2.238483e+00
1.035160e+01	-2.258797e+00
1.041139e+01	-2.279434e+00
1.047153e+01	-2.299720e+00
1.053201e+01	-2.320473e+00
1.059284e+01	-2.341228e+00
1.065403e+01	-2.362173e+00
1.071556e+01	-2.383061e+00
1.077746e+01	-2.404412e+00
1.083971e+01	-2.425866e+00
1.090232e+01	-2.447262e+00
1.096529e+01	-2.468782e+00
1.102862e+01	-2.490532e+00
1.109232e+01	-2.512330e+00
1.115639e+01	-2.534470e+00
1.122083e+01	-2.556659e+00
1.128564e+01	-2.579020e+00
1.135083e+01	-2.601446e+00
1.141639e+01	-2.624163e+00
1.148233e+01	-2.647000e+00
1.154865e+01	-2.669887e+00
1.161536e+01	-2.692846e+00
1.168245e+01	-2.715946e+00
1.174992e+01	-2.739199e+00
1.181779e+01	-2.762783e+00
1.188605e+01	-2.786230e+00
1.195470e+01	-2.809910e+00
1.202375e+01	-2.834069e+00
1.209320e+01	-2.858290e+00
1.216305e+01	-2.882300e+00
1.223330e+01	-2.906799e+00
1.230396e+01	-2.931122e+00
1.237503e+01	-2.955825e+00
1.244651e+01	-2.980518e+00
1.251840e+01	-3.005559e+00
1.259070e+01	-3.030449e+00
1.266343e+01	-3.055620e+00
1.273657e+01	-3.080961e+00
1.281014e+01	-3.106579e+00
1.288413e+01	-3.132281e+00
1.295855e+01	-3.157896e+00
1.303339e+01	-3.183768e+00
1.310867e+01	-3.209978e+00
1.318439e+01	-3.236271e+00
1.326054e+01	-3.262465e+00
1.333713e+01	-3.288952e+00
1.341417e+01	-3.315695e+00
1.349165e+01	-3.342482e+00
1.356958e+01	-3.369257e+00
1.364795e+01	-3.396135e+00
1.372678e+01	-3.423501e+00
1.380607e+01	-3.450802e+00
1.388581e+01	-3.478488e+00
1.396602e+01	-3.505896e+00
1.404668e+01	-3.533870e+00
1.412782e+01	-3.561926e+00
1.420942e+01	-3.590039e+00
1.429149e+01	-3.618202e+00
1.437404e+01	-3.646363e+00
1.445706e+01	-3.674904e+00
1.454057e+01	-3.703458e+00
1.462455e+01	-3.732450e+00
1.470902e+01	-3.761294e+00
1.479398e+01	-3.790275e+00
1.487943e+01	-3.819526e+00
1.496537e+01	-3.848842e+00
1.505181e+01	-3.878333e+00
1.513875e+01	-3.907932e+00
1.522619e+01	-3.937777e+00
1.531414e+01	-3.967698e+00
1.540259e+01	-3.997574e+00
1.549156e+01	-4.027673e+00
1.558103e+01	-4.058047e+00
1.567103e+01	-4.088253e+00
1.576155e+01	-4.119141e+00
1.585258e+01	-4.149738e+00
1.594415e+01	-4.180758e+00
1.603624e+01	-4.211393e+00
1.612886e+01	-4.242640e+00
1.622202e+01	-4.274184e+00
1.631572e+01	-4.305846e+00
1.640996e+01	-4.337230e+00
1.650474e+01	-4.368599e+00
1.660008e+01	-4.400461e+00
1.669596e+01	-4.432613e+00
1.679239e+01	-4.464219e+00
1.688938e+01	-4.496684e+00
1.698694e+01	-4.528950e+00
1.708505e+01	-4.561435e+00
1.718373e+01	-4.593928e+00
1.728299e+01	-4.626635e+00
1.738281e+01	-4.659816e+00
1.748322e+01	-4.692625e+00
1.758420e+01	-4.725643e+00
1.768576e+01	-4.758934e+00
1.778792e+01	-4.792186e+00
1.789066e+01	-4.825686e+00
1.799399e+01	-4.859559e+00
1.809793e+01	-4.893175e+00
1.820246e+01	-4.926913e+00
1.830760e+01	-4.961017e+00
1.841334e+01	-4.995183e+00
1.851969e+01	-5.029275e+00
1.862666e+01	-5.063836e+00
1.873425e+01	-5.098267e+00
1.884246e+01	-5.132971e+00
1.895129e+01	-5.167703e+00
1.906075e+01	-5.202496e+00
1.917085e+01	-5.237559e+00
1.928158e+01	-5.272655e+00
1.939295e+01	-5.307840e+00
1.950496e+01	-5.343193e+00
1.961762e+01	-5.378411e+00
1.973093e+01	-5.414375e+00
1.984490e+01	-5.450097e+00
1.995952e+01	-5.485627e+00
2.007480e+01	-5.521659e+00
2.019076e+01	-5.558145e+00
2.030738e+01	-5.593795e+00
2.042467e+01	-5.630211e+00
2.054264e+01	-5.666105e+00
2.066130e+01	-5.702702e+00
2.078064e+01	-5.739879e+00
2.090066e+01	-5.776265e+00
2.102139e+01	-5.813361e+00
2.114280e+01	-5.850433e+00
2.126492e+01	-5.887478e+00
2.138775e+01	-5.924570e+00
2.151128e+01	-5.961955e+00
2.163553e+01	-5.998819e+00
2.176050e+01	-6.036887e+00
2.188619e+01	-6.074368e+00
2.201260e+01	-6.112047e+00
2.213974e+01	-6.150013e+00
2.226762e+01	-6.187637e+00
2.239624e+01	-6.226053e+00
2.252560e+01	-6.264223e+00
2.265571e+01	-6.302325e+00
2.278656e+01	-6.340499e+00
2.291818e+01	-6.379112e+00
2.305055e+01	-6.417773e+00
2.318369e+01	-6.456166e+00
2.331760e+01	-6.494959e+00
2.345228e+01	-6.534187e+00
2.358774e+01	-6.572938e+00
2.372398e+01	-6.611832e+00
2.386101e+01	-6.651439e+00
2.399883e+01	-6.690357e+00
2.413745e+01	-6.729613e+00
2.427686e+01	-6.768995e+00
2.441709e+01	-6.808647e+00
2.455812e+01	-6.848168e+00
2.469997e+01	-6.888349e+00
2.484263e+01	-6.928053e+00
2.498612e+01	-6.968065e+00
2.513044e+01	-7.008116e+00
2.527559e+01	-7.048199e+00
2.542158e+01	-7.088356e+00
2.556842e+01	-7.128557e+00
2.571610e+01	-7.168791e+00
2.586463e+01	-7.209322e+00
2.601403e+01	-7.249718e+00
2.616428e+01	-7.290639e+00
2.631541e+01	-7.331459e+00
2.646740e+01	-7.372096e+00
2.662028e+01	-7.412726e+00
2.677404e+01	-7.453734e+00
2.692868e+01	-7.495423e+00
2.708422e+01	-7.536169e+00
2.724066e+01	-7.577156e+00
2.739800e+01	-7.618868e+00
2.755625e+01	-7.660277e+00
2.771541e+01	-7.701661e+00
2.787550e+01	-7.743345e+00
2.803650e+01	-7.785209e+00
2.819844e+01	-7.826481e+00
2.836131e+01	-7.868405e+00
2.852513e+01	-7.910129e+00
2.868989e+01	-7.952290e+00
2.885560e+01	-7.994175e+00
2.902227e+01	-8.036601e+00
2.918990e+01	-8.078892e+00
2.935850e+01	-8.120987e+00
2.952807e+01	-8.163217e+00
2.969863e+01	-8.205602e+00
2.987016e+01	-8.248513e+00
3.004269e+01	-8.291056e+00
3.021622e+01	-8.333835e+00
3.039075e+01	-8.376115e+00
3.056628e+01	-8.419018e+00
3.074283e+01	-8.461864e+00
3.092040e+01	-8.504653e+00
3.109900e+01	-8.548405e+00
3.127862e+01	-8.591188e+00
3.145929e+01	-8.634191e+00
3.164099e+01	-8.677046e+00
3.182375e+01	-8.720646e+00
3.200756e+01	-8.763724e+00
3.219244e+01	-8.807489e+00
3.237838e+01	-8.850646e+00
3.256540e+01	-8.894889e+00
3.275349e+01	-8.937920e+00
3.294268e+01	-8.981196e+00
3.313295e+01	-9.025170e+00
3.332433e+01	-9.069252e+00
3.351681e+01	-9.112866e+00
3.371040e+01	-9.156393e+00
3.390511e+01	-9.200816e+00
3.410094e+01	-9.244596e+00
3.429791e+01	-9.289080e+00
3.449601e+01	-9.333148e+00
3.469526e+01	-9.377126e+00
3.489566e+01	-9.421726e+00
3.509721e+01	-9.466436e+00
3.529993e+01	-9.510468e+00
3.550382e+01	-9.554742e+00
3.570889e+01	-9.599386e+00
3.591515e+01	-9.644085e+00
3.612259e+01	-9.688690e+00
3.633123e+01	-9.732912e+00
3.654108e+01	-9.777594e+00
3.675214e+01	-9.822553e+00
3.696442e+01	-9.867616e+00
3.717792e+01	-9.912285e+00
3.739266e+01	-9.957917e+00
3.760864e+01	-1.000227e+01
3.782587e+01	-1.004750e+01
3.804435e+01	-1.009246e+01
3.826409e+01	-1.013762e+01
3.848510e+01	-1.018248e+01
3.870739e+01	-1.022826e+01
3.893096e+01	-1.027384e+01
3.915583e+01	-1.031896e+01
3.938199e+01	-1.036478e+01
3.960946e+01	-1.041001e+01
3.983824e+01	-1.045512e+01
4.006834e+01	-1.050044e+01
4.029978e+01	-1.054632e+01
4.053255e+01	-1.059196e+01
4.076666e+01	-1.063738e+01
4.100213e+01	-1.068372e+01
4.123896e+01	-1.072947e+01
4.147715e+01	-1.077488e+01
4.171672e+01	-1.082123e+01
4.195767e+01	-1.086678e+01
4.220002e+01	-1.091275e+01
4.244377e+01	-1.095878e+01
4.268892e+01	-1.100407e+01
4.293549e+01	-1.105075e+01
4.318348e+01	-1.109746e+01
4.343291e+01	-1.114356e+01
4.368377e+01	-1.118909e+01
4.393609e+01	-1.123577e+01
4.418986e+01	-1.128143e+01
4.444510e+01	-1.132820e+01
4.470182e+01	-1.137471e+01
4.496001e+01	-1.142070e+01
4.521970e+01	-1.146731e+01
4.548089e+01	-1.151433e+01
4.574358e+01	-1.156021e+01
4.600779e+01	-1.160717e+01
4.627353e+01	-1.165372e+01
4.654081e+01	-1.170019e+01
4.680963e+01	-1.174676e+01
4.708000e+01	-1.179372e+01
4.735193e+01	-1.184025e+01
4.762543e+01	-1.188693e+01
4.790051e+01	-1.193388e+01
4.817719e+01	-1.198090e+01
4.845545e+01	-1.202727e+01
4.873533e+01	-1.207329e+01
4.901682e+01	-1.212121e+01
4.929994e+01	-1.216852e+01
4.958470e+01	-1.221493e+01
4.987110e+01	-1.226191e+01
5.015915e+01	-1.230907e+01
5.044887e+01	-1.235601e+01
5.074026e+01	-1.240405e+01
5.103333e+01	-1.245083e+01
5.132810e+01	-1.249874e+01
5.162457e+01	-1.254526e+01
5.192275e+01	-1.259213e+01
5.222265e+01	-1.263935e+01
5.252429e+01	-1.268672e+01
5.282767e+01	-1.273526e+01
5.313280e+01	-1.278186e+01
5.343969e+01	-1.282912e+01
5.374836e+01	-1.287667e+01
5.405880e+01	-1.292377e+01
5.437105e+01	-1.297174e+01
5.468509e+01	-1.301944e+01
5.500095e+01	-1.306649e+01
5.531863e+01	-1.311456e+01
5.563815e+01	-1.316160e+01
5.595951e+01	-1.321006e+01
5.628273e+01	-1.325711e+01
5.660782e+01	-1.330539e+01
5.693479e+01	-1.335181e+01
5.726364e+01	-1.340107e+01
5.759439e+01	-1.344801e+01
5.792705e+01	-1.349575e+01
5.826164e+01	-1.354436e+01
5.859815e+01	-1.359076e+01
5.893662e+01	-1.363986e+01
5.927703e+01	-1.368652e+01
5.961941e+01	-1.373526e+01
5.996377e+01	-1.378357e+01
6.031012e+01	-1.383178e+01
6.065847e+01	-1.387941e+01
6.100883e+01	-1.392706e+01
6.136121e+01	-1.397495e+01
6.171563e+01	-1.402348e+01
6.207210e+01	-1.407089e+01
6.243063e+01	-1.411990e+01
6.279122e+01	-1.416722e+01
6.315390e+01	-1.421514e+01
6.351868e+01	-1.426374e+01
6.388556e+01	-1.431221e+01
6.425456e+01	-1.435949e+01
6.462569e+01	-1.440857e+01
6.499897e+01	-1.445632e+01
6.537440e+01	-1.450391e+01
6.575200e+01	-1.455243e+01
6.613178e+01	-1.460055e+01
6.651375e+01	-1.464933e+01
6.689793e+01	-1.469845e+01
6.728433e+01	-1.474571e+01
6.767297e+01	-1.479492e+01
6.806384e+01	-1.484166e+01
6.845698e+01	-1.489087e+01
6.885238e+01	-1.493940e+01
6.925007e+01	-1.498797e+01
6.965005e+01	-1.503623e+01
7.005235e+01	-1.508432e+01
7.045697e+01	-1.513369e+01
7.086393e+01	-1.518246e+01
7.127323e+01	-1.523070e+01
7.168490e+01	-1.527875e+01
7.209895e+01	-1.532704e+01
7.251539e+01	-1.537608e+01
7.293424e+01	-1.542459e+01
7.335551e+01	-1.547244e+01
7.377920e+01	-1.552192e+01
7.420535e+01	-1.557004e+01
7.463396e+01	-1.561883e+01
7.506504e+01	-1.566709e+01
7.549861e+01	-1.571566e+01
7.593469e+01	-1.576505e+01
7.637328e+01	-1.581425e+01
7.681441e+01	-1.586246e+01
7.725809e+01	-1.591202e+01
7.770433e+01	-1.595949e+01
7.815315e+01	-1.600898e+01
7.860456e+01	-1.605817e+01
7.905857e+01	-1.610668e+01
7.951521e+01	-1.615589e+01
7.997449e+01	-1.620396e+01
8.043642e+01	-1.625271e+01
8.090102e+01	-1.630210e+01
8.136830e+01	-1.634951e+01
8.183828e+01	-1.639950e+01
8.231097e+01	-1.644895e+01
8.278640e+01	-1.649800e+01
8.326457e+01	-1.654656e+01
8.374550e+01	-1.659474e+01
8.422921e+01	-1.664454e+01
8.471572e+01	-1.669290e+01
8.520503e+01	-1.674120e+01
8.569717e+01	-1.679050e+01
8.619215e+01	-1.683914e+01
8.669000e+01	-1.689023e+01
8.719071e+01	-1.693858e+01
8.769432e+01	-1.698645e+01
8.820084e+01	-1.703609e+01
8.871029e+01	-1.708599e+01
8.922267e+01	-1.713511e+01
8.973802e+01	-1.718271e+01
9.025634e+01	-1.723365e+01
9.077766e+01	-1.728206e+01
9.130199e+01	-1.732938e+01
9.182935e+01	-1.737915e+01
9.235975e+01	-1.742800e+01
9.289321e+01	-1.747837e+01
9.342976e+01	-1.752546e+01
9.396941e+01	-1.757571e+01
9.451217e+01	-1.762495e+01
9.505807e+01	-1.767581e+01
9.560712e+01	-1.772235e+01
9.615934e+01	-1.777156e+01
9.671476e+01	-1.782271e+01
9.727338e+01	-1.787075e+01
9.783522e+01	-1.791985e+01
9.840032e+01	-1.797024e+01
9.896867e+01	-1.801963e+01
9.954031e+01	-1.806731e+01
1.001153e+02	-1.811745e+01
1.006935e+02	-1.816596e+01
1.012751e+02	-1.821655e+01
1.018601e+02	-1.826539e+01
1.024484e+02	-1.831458e+01
1.030402e+02	-1.836409e+01
1.036353e+02	-1.841324e+01
1.042339e+02	-1.846331e+01
1.048360e+02	-1.851331e+01
1.054415e+02	-1.856031e+01
1.060505e+02	-1.861074e+01
1.066631e+02	-1.865986e+01
1.072791e+02	-1.870850e+01
1.078988e+02	-1.875892e+01
1.085220e+02	-1.880856e+01
1.091488e+02	-1.885695e+01
1.097793e+02	-1.890613e+01
1.104133e+02	-1.895603e+01
1.110511e+02	-1.900552e+01
1.116925e+02	-1.905596e+01
1.123376e+02	-1.910325e+01
1.129865e+02	-1.915351e+01
1.136391e+02	-1.920329e+01
1.142955e+02	-1.925216e+01
1.149556e+02	-1.930065e+01
1.156196e+02	-1.935095e+01
1.162874e+02	-1.940119e+01
1.169591e+02	-1.945078e+01
1.176347e+02	-1.949999e+01
1.183141e+02	-1.954806e+01
1.189975e+02	-1.959980e+01
1.196848e+02	-1.964660e+01
1.203761e+02	-1.969598e+01
1.210714e+02	-1.974701e+01
1.217707e+02	-1.979698e+01
1.224740e+02	-1.984745e+01
1.231814e+02	-1.989620e+01
1.238929e+02	-1.994525e+01
1.246085e+02	-1.999396e+01
1.253283e+02	-2.004505e+01
1.260522e+02	-2.009386e+01
1.267802e+02	-2.014277e+01
1.275125e+02	-2.019261e+01
1.282490e+02	-2.024238e+01
1.289898e+02	-2.029389e+01
1.297348e+02	-2.034107e+01
1.304842e+02	-2.039232e+01
1.312378e+02	-2.044198e+01
1.319959e+02	-2.049110e+01
1.327583e+02	-2.054079e+01
1.335251e+02	-2.058870e+01
1.342963e+02	-2.063978e+01
1.350720e+02	-2.068932e+01
1.358522e+02	-2.073955e+01
1.366368e+02	-2.078799e+01
1.374260e+02	-2.083813e+01
1.382198e+02	-2.088787e+01
1.390182e+02	-2.093788e+01
1.398211e+02	-2.098623e+01
1.406287e+02	-2.103647e+01
1.414410e+02	-2.108531e+01
1.422579e+02	-2.113469e+01
1.430796e+02	-2.118386e+01
1.439060e+02	-2.123609e+01
1.447372e+02	-2.128415e+01
1.455732e+02	-2.133316e+01
1.464141e+02	-2.138482e+01
1.472597e+02	-2.143408e+01
1.481103e+02	-2.148188e+01
1.489658e+02	-2.153107e+01
1.498262e+02	-2.158213e+01
1.506916e+02	-2.163415e+01
1.515620e+02	-2.168328e+01
1.524374e+02	-2.173268e+01
1.533179e+02	-2.178284e+01
1.542034e+02	-2.183052e+01
1.550941e+02	-2.188320e+01
1.559899e+02	-2.192998e+01
1.568909e+02	-2.198067e+01
1.577971e+02	-2.203119e+01
1.587085e+02	-2.207992e+01
1.596252e+02	-2.213083e+01
1.605472e+02	-2.217918e+01
1.614745e+02	-2.222912e+01
1.624072e+02	-2.227972e+01
1.633453e+02	-2.232851e+01
1.642887e+02	-2.237865e+01
1.652377e+02	-2.242807e+01
1.661921e+02	-2.247782e+01
1.671520e+02	-2.252780e+01
1.681175e+02	-2.257797e+01
1.690885e+02	-2.262591e+01
1.700651e+02	-2.267815e+01
1.710474e+02	-2.272728e+01
1.720354e+02	-2.277768e+01
1.730291e+02	-2.282659e+01
1.740285e+02	-2.287662e+01
1.750337e+02	-2.292550e+01
1.760446e+02	-2.297551e+01
1.770615e+02	-2.302470e+01
1.780842e+02	-2.307537e+01
1.791128e+02	-2.312293e+01
1.801473e+02	-2.317557e+01
1.811878e+02	-2.322549e+01
1.822344e+02	-2.327516e+01
1.832870e+02	-2.332245e+01
1.843456e+02	-2.337422e+01
1.854104e+02	-2.342343e+01
1.864813e+02	-2.347411e+01
1.875584e+02	-2.352375e+01
1.886418e+02	-2.357541e+01
1.897313e+02	-2.362323e+01
1.908272e+02	-2.367207e+01
1.919294e+02	-2.372091e+01
1.930380e+02	-2.377245e+01
1.941530e+02	-2.382348e+01
1.952744e+02	-2.386971e+01
1.964023e+02	-2.391994e+01
1.975367e+02	-2.397289e+01
1.986777e+02	-2.402165e+01
1.998252e+02	-2.407024e+01
2.009794e+02	-2.412329e+01
2.021403e+02	-2.417023e+01
2.033078e+02	-2.422011e+01
2.044821e+02	-2.427213e+01
2.056632e+02	-2.432082e+01
2.068511e+02	-2.437154e+01
2.080459e+02	-2.442306e+01
2.092475e+02	-2.446997e+01
2.104561e+02	-2.452046e+01
2.116717e+02	-2.457102e+01
2.128943e+02	-2.461982e+01
2.141240e+02	-2.467272e+01
2.153608e+02	-2.471941e+01
2.166047e+02	-2.477158e+01
2.178558e+02	-2.481772e+01
2.191141e+02	-2.486861e+01
2.203797e+02	-2.491972e+01
2.216526e+02	-2.496966e+01
2.229329e+02	-2.501946e+01
2.242205e+02	-2.506763e+01
2.255156e+02	-2.511785e+01
2.268182e+02	-2.516655e+01
2.281283e+02	-2.521821e+01
2.294459e+02	-2.526814e+01
2.307712e+02	-2.531873e+01
2.321041e+02	-2.536886e+01
2.334447e+02	-2.542081e+01
2.347931e+02	-2.546943e+01
2.361493e+02	-2.551832e+01
2.375133e+02	-2.556905e+01
2.388851e+02	-2.561710e+01
2.402649e+02	-2.566874e+01
2.416527e+02	-2.571724e+01
2.430484e+02	-2.576974e+01
2.444523e+02	-2.582242e+01
2.458642e+02	-2.586948e+01
2.472843e+02	-2.592172e+01
2.487126e+02	-2.596614e+01
2.501492e+02	-2.602098e+01
2.515940e+02	-2.606702e+01
2.530472e+02	-2.611764e+01
2.545088e+02	-2.616957e+01
2.559789e+02	-2.621756e+01
2.574574e+02	-2.627128e+01
2.589444e+02	-2.631847e+01
2.604401e+02	-2.636678e+01
2.619444e+02	-2.641502e+01
2.634574e+02	-2.646708e+01
2.649791e+02	-2.651737e+01
2.665096e+02	-2.656699e+01
2.680489e+02	-2.661938e+01
2.695972e+02	-2.666847e+01
2.711544e+02	-2.671409e+01
2.727205e+02	-2.676969e+01
2.742958e+02	-2.681912e+01
2.758801e+02	-2.686659e+01
2.774736e+02	-2.691749e+01
2.790762e+02	-2.696811e+01
2.806882e+02	-2.701604e+01
2.823094e+02	-2.707010e+01
2.839400e+02	-2.711688e+01
2.855800e+02	-2.716691e+01
2.872295e+02	-2.721582e+01
2.888886e+02	-2.726933e+01
2.905572e+02	-2.731700e+01
2.922354e+02	-2.736532e+01
2.939234e+02	-2.741549e+01
2.956211e+02	-2.746833e+01
2.973286e+02	-2.751742e+01
2.990459e+02	-2.756794e+01
3.007732e+02	-2.761552e+01
3.025104e+02	-2.766942e+01
3.042577e+02	-2.771841e+01
3.060151e+02	-2.776565e+01
3.077826e+02	-2.781682e+01
3.095604e+02	-2.786639e+01
3.113484e+02	-2.791831e+01
3.131467e+02	-2.796635e+01
3.149554e+02	-2.801784e+01
3.167746e+02	-2.806737e+01
3.186043e+02	-2.811741e+01
3.204445e+02	-2.816703e+01
3.222954e+02	-2.821831e+01
3.241570e+02	-2.826914e+01
3.260293e+02	-2.831915e+01
3.279124e+02	-2.836839e+01
3.298064e+02	-2.841473e+01
3.317114e+02	-2.846824e+01
3.336273e+02	-2.851837e+01
3.355544e+02	-2.856746e+01
3.374925e+02	-2.862048e+01
3.394418e+02	-2.866829e+01
3.414024e+02	-2.871513e+01
3.433744e+02	-2.877043e+01
3.453577e+02	-2.881555e+01
3.473525e+02	-2.886660e+01
3.493588e+02	-2.891796e+01
3.513766e+02	-2.897194e+01
3.534062e+02	-2.902226e+01
3.554474e+02	-2.906833e+01
3.575005e+02	-2.912219e+01
3.595654e+02	-2.916809e+01
3.616422e+02	-2.922087e+01
3.637311e+02	-2.926588e+01
3.658320e+02	-2.932023e+01
3.679450e+02	-2.936706e+01
3.700702e+02	-2.941947e+01
3.722077e+02	-2.947052e+01
3.743576e+02	-2.951971e+01
3.765199e+02	-2.956781e+01
3.786946e+02	-2.962073e+01
3.808820e+02	-2.967223e+01
3.830819e+02	-2.971943e+01
3.852946e+02	-2.976736e+01
3.875200e+02	-2.982099e+01
3.897583e+02	-2.986854e+01
3.920096e+02	-2.992134e+01
3.942738e+02	-2.996880e+01
3.965511e+02	-3.002330e+01
3.988416e+02	-3.007120e+01
4.011452e+02	-3.012212e+01
4.034622e+02	-3.016503e+01
4.057926e+02	-3.021365e+01
4.081365e+02	-3.026879e+01
4.104938e+02	-3.031857e+01
4.128648e+02	-3.037238e+01
4.152495e+02	-3.042410e+01
4.176480e+02	-3.047091e+01
4.200603e+02	-3.052233e+01
4.224866e+02	-3.056994e+01
4.249268e+02	-3.062119e+01
4.273812e+02	-3.067061e+01
4.298497e+02	-3.072134e+01
4.323325e+02	-3.077645e+01
4.348297e+02	-3.081586e+01
4.373412e+02	-3.087115e+01
4.398673e+02	-3.092136e+01
4.424079e+02	-3.096917e+01
4.449633e+02	-3.102656e+01
4.475334e+02	-3.107139e+01
4.501183e+02	-3.112391e+01
4.527182e+02	-3.116619e+01
4.553330e+02	-3.122688e+01
4.579630e+02	-3.127403e+01
4.606082e+02	-3.131947e+01
4.632687e+02	-3.137164e+01
4.659445e+02	-3.142984e+01
4.686358e+02	-3.147360e+01
4.713426e+02	-3.151665e+01
4.740650e+02	-3.157180e+01
4.768032e+02	-3.162720e+01
4.795572e+02	-3.167392e+01
4.823271e+02	-3.172092e+01
4.851130e+02	-3.177307e+01
4.879150e+02	-3.182811e+01
4.907332e+02	-3.187086e+01
4.935676e+02	-3.192593e+01
4.964185e+02	-3.197596e+01
4.992858e+02	-3.202270e+01
5.021696e+02	-3.207315e+01
5.050701e+02	-3.212798e+01
5.079874e+02	-3.217456e+01
5.109215e+02	-3.223329e+01
5.138726e+02	-3.227689e+01
5.168407e+02	-3.232041e+01
5.198259e+02	-3.237853e+01
5.228284e+02	-3.242884e+01
5.258482e+02	-3.247976e+01
5.288855e+02	-3.252608e+01
5.319403e+02	-3.258187e+01
5.350128e+02	-3.262452e+01
5.381030e+02	-3.267549e+01
5.412111e+02	-3.273365e+01
5.443371e+02	-3.277915e+01
5.474812e+02	-3.282797e+01
5.506434e+02	-3.287868e+01
5.538239e+02	-3.292308e+01
5.570228e+02	-3.297451e+01
5.602401e+02	-3.302246e+01
5.634760e+02	-3.308101e+01
5.667306e+02	-3.313111e+01
5.700040e+02	-3.318279e+01
5.732964e+02	-3.322821e+01
5.766077e+02	-3.328850e+01
5.799382e+02	-3.333539e+01
5.832879e+02	-3.338271e+01
5.866569e+02	-3.343202e+01
5.900454e+02	-3.348604e+01
5.934535e+02	-3.353443e+01
5.968813e+02	-3.358052e+01
6.003288e+02	-3.362818e+01
6.037963e+02	-3.368409e+01
6.072838e+02	-3.372828e+01
6.107914e+02	-3.377731e+01
6.143194e+02	-3.383010e+01
6.178676e+02	-3.388467e+01
6.214364e+02	-3.394090e+01
6.250258e+02	-3.398047e+01
6.286359e+02	-3.403152e+01
6.322669e+02	-3.408547e+01
6.359189e+02	-3.412797e+01
6.395919e+02	-3.418422e+01
6.432862e+02	-3.423502e+01
6.470017e+02	-3.428753e+01
6.507388e+02	-3.434162e+01
6.544974e+02	-3.437724e+01
6.582778e+02	-3.443850e+01
6.620800e+02	-3.448451e+01
6.659041e+02	-3.453356e+01
6.697504e+02	-3.458894e+01
6.736188e+02	-3.463667e+01
6.775096e+02	-3.469170e+01
6.814229e+02	-3.474382e+01
6.853587e+02	-3.478533e+01
6.893173e+02	-3.484356e+01
6.932988e+02	-3.489527e+01
6.973033e+02	-3.494139e+01
7.013309e+02	-3.499031e+01
