Frequency(Hz)	Magnitude(dB)
1.000000e+01	-2.308253e+00
1.005776e+01	-2.328861e+00
1.011585e+01	-2.349634e+00
1.017428e+01	-2.370710e+00
1.023305e+01	-2.391868e+00
1.029215e+01	-2.412992e+00
1.035160e+01	-2.434334e+00
1.041139e+01	-2.455905e+00
1.047153e+01	-2.477788e+00
1.053201e+01	-2.499737e+00
1.059284e+01	-2.521487e+00
1.065403e+01	-2.543459e+00
1.071556e+01	-2.565853e+00
1.077746e+01	-2.588339e+00
1.083971e+01	-2.610836e+00
1.090232e+01	-2.633163e+00
1.096529e+01	-2.656232e+00
1.102862e+01	-2.679431e+00
1.109232e+01	-2.702325e+00
1.115639e+01	-2.725603e+00
1.122083e+01	-2.748987e+00
1.128564e+01	-2.772493e+00
1.135083e+01	-2.796139e+00
1.141639e+01	-2.819954e+00
1.148233e+01	-2.844138e+00
1.154865e+01	-2.868251e+00
1.161536e+01	-2.892245e+00
1.168245e+01	-2.916678e+00
1.174992e+01	-2.941371e+00
1.181779e+01	-2.965968e+00
1.188605e+01	-2.990797e+00
1.195470e+01	-3.015724e+00
1.202375e+01	-3.040910e+00
1.209320e+01	-3.066039e+00
1.216305e+01	-3.091513e+00
1.223330e+01	-3.117057e+00
1.230396e+01	-3.142824e+00
1.237503e+01	-3.168517e+00
1.244651e+01	-3.194626e+00
1.251840e+01	-3.220955e+00
1.259070e+01	-3.246696e+00
1.266343e+01	-3.273390e+00
1.273657e+01	-3.299995e+00
1.281014e+01	-3.326660e+00
1.288413e+01	-3.353377e+00
1.295855e+01	-3.380593e+00
1.303339e+01	-3.407552e+00
1.310867e+01	-3.435045e+00
1.318439e+01	-3.462235e+00
1.326054e+01	-3.489871e+00
1.333713e+01	-3.517351e+00
1.341417e+01	-3.545557e+00
1.349165e+01	-3.573314e+00
1.356958e+01	-3.601460e+00
1.364795e+01	-3.629756e+00
1.372678e+01	-3.658113e+00
1.380607e+01	-3.686731e+00
1.388581e+01	-3.715469e+00
1.396602e+01	-3.744603e+00
1.404668e+01	-3.773402e+00
1.412782e+01	-3.802357e+00
1.420942e+01	-3.831515e+00
1.429149e+01	-3.860989e+00
1.437404e+01	-3.890424e+00
1.445706e+01	-3.920230e+00
1.454057e+01	-3.949982e+00
1.462455e+01	-3.979894e+00
1.470902e+01	-4.009983e+00
1.479398e+01	-4.040202e+00
1.487943e+01	-4.070436e+00
1.496537e+01	-4.101137e+00
1.505181e+01	-4.131823e+00
1.513875e+01	-4.162535e+00
1.522619e+01	-4.193443e+00
1.531414e+01	-4.224604e+00
1.540259e+01	-4.255625e+00
1.549156e+01	-4.287025e+00
1.558103e+01	-4.318537e+00
1.567103e+01	-4.350110e+00
1.576155e+01	-4.381602e+00
1.585258e+01	-4.413451e+00
1.594415e+01	-4.445604e+00
1.603624e+01	-4.477414e+00
1.612886e+01	-4.510147e+00
1.622202e+01	-4.542552e+00
1.631572e+01	-4.574994e+00
1.640996e+01	-4.607406e+00
1.650474e+01	-4.640197e+00
1.660008e+01	-4.673094e+00
1.669596e+01	-4.706307e+00
1.679239e+01	-4.739341e+00
1.688938e+01	-4.772570e+00
1.698694e+01	-4.805639e+00
1.708505e+01	-4.839548e+00
1.718373e+01	-4.873337e+00
1.728299e+01	-4.907353e+00
1.738281e+01	-4.940909e+00
1.748322e+01	-4.974975e+00
1.758420e+01	-5.009243e+00
1.768576e+01	-5.043714e+00
1.778792e+01	-5.077784e+00
1.789066e+01	-5.112258e+00
1.799399e+01	-5.147300e+00
1.809793e+01	-5.181882e+00
1.820246e+01	-5.216793e+00
1.830760e+01	-5.251668e+00
1.841334e+01	-5.287346e+00
1.851969e+01	-5.322503e+00
1.862666e+01	-5.357930e+00
1.873425e+01	-5.393281e+00
1.884246e+01	-5.429012e+00
1.895129e+01	-5.464509e+00
1.906075e+01	-5.500716e+00
1.917085e+01	-5.536629e+00
1.928158e+01	-5.572741e+00
1.939295e+01	-5.608831e+00
1.950496e+01	-5.645503e+00
1.961762e+01	-5.681450e+00
1.973093e+01	-5.717960e+00
1.984490e+01	-5.755121e+00
1.995952e+01	-5.791781e+00
2.007480e+01	-5.828673e+00
2.019076e+01	-5.865442e+00
2.030738e+01	-5.902413e+00
2.042467e+01	-5.939755e+00
2.054264e+01	-5.977045e+00
2.066130e+01	-6.014616e+00
2.078064e+01	-6.052266e+00
2.090066e+01	-6.089931e+00
2.102139e+01	-6.127591e+00
2.114280e+01	-6.165641e+00
2.126492e+01	-6.203564e+00
2.138775e+01	-6.241659e+00
2.151128e+01	-6.279768e+00
2.163553e+01	-6.318172e+00
2.176050e+01	-6.356435e+00
2.188619e+01	-6.394866e+00
2.201260e+01	-6.433635e+00
2.213974e+01	-6.472232e+00
2.226762e+01	-6.511031e+00
2.239624e+01	-6.550163e+00
2.252560e+01	-6.588865e+00
2.265571e+01	-6.628288e+00
2.278656e+01	-6.667480e+00
2.291818e+01	-6.706483e+00
2.305055e+01	-6.745910e+00
2.318369e+01	-6.785148e+00
2.331760e+01	-6.825088e+00
2.345228e+01	-6.864812e+00
2.358774e+01	-6.904424e+00
2.372398e+01	-6.944761e+00
2.386101e+01	-6.984363e+00
2.399883e+01	-7.024393e+00
2.413745e+01	-7.064650e+00
2.427686e+01	-7.105240e+00
2.441709e+01	-7.145209e+00
2.455812e+01	-7.185336e+00
2.469997e+01	-7.226010e+00
2.484263e+01	-7.266969e+00
2.498612e+01	-7.307497e+00
2.513044e+01	-7.348115e+00
2.527559e+01	-7.388907e+00
2.542158e+01	-7.429567e+00
2.556842e+01	-7.471104e+00
2.571610e+01	-7.512005e+00
2.586463e+01	-7.553267e+00
2.601403e+01	-7.594308e+00
2.616428e+01	-7.635648e+00
2.631541e+01	-7.677368e+00
2.646740e+01	-7.718866e+00
2.662028e+01	-7.760351e+00
2.677404e+01	-7.802247e+00
2.692868e+01	-7.843719e+00
2.708422e+01	-7.885574e+00
2.724066e+01	-7.927812e+00
2.739800e+01	-7.969723e+00
2.755625e+01	-8.012221e+00
2.771541e+01	-8.054060e+00
2.787550e+01	-8.096297e+00
2.803650e+01	-8.138222e+00
2.819844e+01	-8.180892e+00
2.836131e+01	-8.222766e+00
2.852513e+01	-8.265354e+00
2.868989e+01	-8.308790e+00
2.885560e+01	-8.350832e+00
2.902227e+01	-8.394116e+00
2.918990e+01	-8.436720e+00
2.935850e+01	-8.479320e+00
2.952807e+01	-8.522553e+00
2.969863e+01	-8.565494e+00
2.987016e+01	-8.608548e+00
3.004269e+01	-8.651646e+00
3.021622e+01	-8.694817e+00
3.039075e+01	-8.738207e+00
3.056628e+01	-8.781120e+00
3.074283e+01	-8.825261e+00
3.092040e+01	-8.868743e+00
3.109900e+01	-8.912563e+00
3.127862e+01	-8.955841e+00
3.145929e+01	-8.998827e+00
3.164099e+01	-9.043120e+00
3.182375e+01	-9.086856e+00
3.200756e+01	-9.130976e+00
3.219244e+01	-9.174368e+00
3.237838e+01	-9.218950e+00
3.256540e+01	-9.263171e+00
3.275349e+01	-9.307351e+00
3.294268e+01	-9.351401e+00
3.313295e+01	-9.395679e+00
3.332433e+01	-9.439951e+00
3.351681e+01	-9.483978e+00
3.371040e+01	-9.528427e+00
3.390511e+01	-9.573196e+00
3.410094e+01	-9.617998e+00
3.429791e+01	-9.662514e+00
3.449601e+01	-9.707000e+00
3.469526e+01	-9.751381e+00
3.489566e+01	-9.797095e+00
3.509721e+01	-9.841686e+00
3.529993e+01	-9.886561e+00
3.550382e+01	-9.931049e+00
3.570889e+01	-9.976048e+00
3.591515e+01	-1.002100e+01
3.612259e+01	-1.006639e+01
3.633123e+01	-1.011116e+01
3.654108e+01	-1.015569e+01
3.675214e+01	-1.020200e+01
3.696442e+01	-1.024688e+01
3.717792e+01	-1.029223e+01
3.739266e+01	-1.033772e+01
3.760864e+01	-1.038325e+01
3.782587e+01	-1.042856e+01
3.804435e+01	-1.047422e+01
3.826409e+01	-1.051930e+01
3.848510e+01	-1.056535e+01
3.870739e+01	-1.061032e+01
3.893096e+01	-1.065626e+01
3.915583e+01	-1.070204e+01
3.938199e+01	-1.074850e+01
3.960946e+01	-1.079351e+01
3.983824e+01	-1.083996e+01
4.006834e+01	-1.088537e+01
4.029978e+01	-1.093164e+01
4.053255e+01	-1.097812e+01
4.076666e+01	-1.102437e+01
4.100213e+01	-1.107016e+01
4.123896e+01	-1.111529e+01
4.147715e+01	-1.116173e+01
4.171672e+01	-1.120818e+01
4.195767e+01	-1.125449e+01
4.220002e+01	-1.130078e+01
4.244377e+01	-1.134663e+01
4.268892e+01	-1.139341e+01
4.293549e+01	-1.143997e+01
4.318348e+01	-1.148628e+01
4.343291e+01	-1.153304e+01
4.368377e+01	-1.157928e+01
4.393609e+01	-1.162575e+01
4.418986e+01	-1.167275e+01
4.444510e+01	-1.171934e+01
4.470182e+01	-1.176554e+01
4.496001e+01	-1.181247e+01
4.521970e+01	-1.185960e+01
4.548089e+01	-1.190666e+01
4.574358e+01	-1.195332e+01
4.600779e+01	-1.200000e+01
4.627353e+01	-1.204679e+01
4.654081e+01	-1.209415e+01
4.680963e+01	-1.214103e+01
4.708000e+01	-1.218782e+01
4.735193e+01	-1.223515e+01
4.762543e+01	-1.228171e+01
4.790051e+01	-1.232875e+01
4.817719e+01	-1.237581e+01
4.845545e+01	-1.242322e+01
4.873533e+01	-1.247056e+01
4.901682e+01	-1.251714e+01
4.929994e+01	-1.256507e+01
4.958470e+01	-1.261225e+01
4.987110e+01	-1.266024e+01
5.015915e+01	-1.270603e+01
5.044887e+01	-1.275434e+01
5.074026e+01	-1.280169e+01
5.103333e+01	-1.284912e+01
5.132810e+01	-1.289608e+01
5.162457e+01	-1.294398e+01
5.192275e+01	-1.299096e+01
5.222265e+01	-1.303862e+01
5.252429e+01	-1.308666e+01
5.282767e+01	-1.313343e+01
5.313280e+01	-1.318193e+01
5.343969e+01	-1.322920e+01
5.374836e+01	-1.327660e+01
5.405880e+01	-1.332428e+01
5.437105e+01	-1.337223e+01
5.468509e+01	-1.341957e+01
5.500095e+01	-1.346739e+01
5.531863e+01	-1.351459e+01
5.563815e+01	-1.356252e+01
5.595951e+01	-1.361009e+01
5.628273e+01	-1.365906e+01
5.660782e+01	-1.370668e+01
5.693479e+01	-1.375433e+01
5.726364e+01	-1.380229e+01
5.759439e+01	-1.385037e+01
5.792705e+01	-1.389828e+01
5.826164e+01	-1.394686e+01
5.859815e+01	-1.399477e+01
5.893662e+01	-1.404274e+01
5.927703e+01	-1.409077e+01
5.961941e+01	-1.413905e+01
5.996377e+01	-1.418668e+01
6.031012e+01	-1.423566e+01
6.065847e+01	-1.428362e+01
6.100883e+01	-1.433203e+01
6.136121e+01	-1.437871e+01
6.171563e+01	-1.442838e+01
6.207210e+01	-1.447599e+01
6.243063e+01	-1.452505e+01
6.279122e+01	-1.457313e+01
6.315390e+01	-1.462087e+01
6.351868e+01	-1.466966e+01
6.388556e+01	-1.471750e+01
6.425456e+01	-1.476570e+01
6.462569e+01	-1.481441e+01
6.499897e+01	-1.486264e+01
6.537440e+01	-1.491094e+01
6.575200e+01	-1.495910e+01
6.613178e+01	-1.500808e+01
6.651375e+01	-1.505617e+01
6.689793e+01	-1.510464e+01
6.728433e+01	-1.515388e+01
6.767297e+01	-1.520227e+01
6.806384e+01	-1.525022e+01
6.845698e+01	-1.529881e+01
6.885238e+01	-1.534725e+01
6.925007e+01	-1.539595e+01
6.965005e+01	-1.544498e+01
7.005235e+01	-1.549287e+01
7.045697e+01	-1.554229e+01
7.086393e+01	-1.559019e+01
7.127323e+01	-1.563952e+01
7.168490e+01	-1.568667e+01
7.209895e+01	-1.573651e+01
7.251539e+01	-1.578614e+01
7.293424e+01	-1.583347e+01
7.335551e+01	-1.588230e+01
7.377920e+01	-1.593132e+01
7.420535e+01	-1.597922e+01
7.463396e+01	-1.602895e+01
7.506504e+01	-1.607729e+01
7.549861e+01	-1.612610e+01
7.593469e+01	-1.617545e+01
7.637328e+01	-1.622525e+01
7.681441e+01	-1.627301e+01
7.725809e+01	-1.632095e+01
7.770433e+01	-1.637079e+01
7.815315e+01	-1.641912e+01
7.860456e+01	-1.646876e+01
7.905857e+01	-1.651754e+01
7.951521e+01	-1.656550e+01
7.997449e+01	-1.661582e+01
8.043642e+01	-1.666401e+01
8.090102e+01	-1.671323e+01
8.136830e+01	-1.676152e+01
8.183828e+01	-1.681101e+01
8.231097e+01	-1.686017e+01
8.278640e+01	-1.690913e+01
8.326457e+01	-1.695855e+01
8.374550e+01	-1.700770e+01
8.422921e+01	-1.705660e+01
8.471572e+01	-1.710643e+01
8.520503e+01	-1.715489e+01
8.569717e+01	-1.720334e+01
8.619215e+01	-1.725331e+01
8.669000e+01	-1.730279e+01
8.719071e+01	-1.735082e+01
8.769432e+01	-1.739973e+01
8.820084e+01	-1.744799e+01
8.871029e+01	-1.749865e+01
8.922267e+01	-1.754772e+01
8.973802e+01	-1.759731e+01
9.025634e+01	-1.764554e+01
9.077766e+01	-1.769467e+01
9.130199e+01	-1.774353e+01
9.182935e+01	-1.779303e+01
9.235975e+01	-1.784320e+01
9.289321e+01	-1.789257e+01
9.342976e+01	-1.794054e+01
9.396941e+01	-1.799040e+01
9.451217e+01	-1.803916e+01
9.505807e+01	-1.808763e+01
9.560712e+01	-1.813748e+01
9.615934e+01	-1.818780e+01
9.671476e+01	-1.823699e+01
9.727338e+01	-1.828494e+01
9.783522e+01	-1.833414e+01
9.840032e+01	-1.838293e+01
9.896867e+01	-1.843365e+01
9.954031e+01	-1.848270e+01
1.001153e+02	-1.853181e+01
1.006935e+02	-1.858188e+01
1.012751e+02	-1.862998e+01
1.018601e+02	-1.868095e+01
1.024484e+02	-1.872978e+01
1.030402e+02	-1.877925e+01
1.036353e+02	-1.882709e+01
1.042339e+02	-1.887819e+01
1.048360e+02	-1.892756e+01
1.054415e+02	-1.897657e+01
1.060505e+02	-1.902722e+01
1.066631e+02	-1.907489e+01
1.072791e+02	-1.912528e+01
1.078988e+02	-1.917434e+01
1.085220e+02	-1.922405e+01
1.091488e+02	-1.927253e+01
1.097793e+02	-1.932271e+01
1.104133e+02	-1.937222e+01
1.110511e+02	-1.942089e+01
1.116925e+02	-1.947043e+01
1.123376e+02	-1.952060e+01
1.129865e+02	-1.956997e+01
1.136391e+02	-1.961852e+01
1.142955e+02	-1.966805e+01
1.149556e+02	-1.971897e+01
1.156196e+02	-1.976805e+01
1.162874e+02	-1.981808e+01
1.169591e+02	-1.986599e+01
1.176347e+02	-1.991694e+01
1.183141e+02	-1.996625e+01
1.189975e+02	-2.001520e+01
1.196848e+02	-2.006492e+01
1.203761e+02	-2.011310e+01
1.210714e+02	-2.016461e+01
1.217707e+02	-2.021239e+01
1.224740e+02	-2.026328e+01
1.231814e+02	-2.031307e+01
1.238929e+02	-2.036176e+01
1.246085e+02	-2.041190e+01
1.253283e+02	-2.046189e+01
1.260522e+02	-2.051067e+01
1.267802e+02	-2.056130e+01
1.275125e+02	-2.060929e+01
1.282490e+02	-2.066156e+01
1.289898e+02	-2.070701e+01
1.297348e+02	-2.076031e+01
1.304842e+02	-2.080955e+01
1.312378e+02	-2.085824e+01
1.319959e+02	-2.090755e+01
1.327583e+02	-2.095898e+01
1.335251e+02	-2.100720e+01
1.342963e+02	-2.105661e+01
1.350720e+02	-2.110622e+01
1.358522e+02	-2.115671e+01
1.366368e+02	-2.120676e+01
1.374260e+02	-2.125531e+01
1.382198e+02	-2.130298e+01
1.390182e+02	-2.135331e+01
1.398211e+02	-2.140259e+01
1.406287e+02	-2.145394e+01
1.414410e+02	-2.150251e+01
1.422579e+02	-2.155699e+01
1.430796e+02	-2.160382e+01
1.439060e+02	-2.165211e+01
1.447372e+02	-2.170276e+01
1.455732e+02	-2.175272e+01
1.464141e+02	-2.180227e+01
1.472597e+02	-2.185222e+01
1.481103e+02	-2.190087e+01
1.489658e+02	-2.195137e+01
1.498262e+02	-2.200019e+01
1.506916e+02	-2.204965e+01
1.515620e+02	-2.209898e+01
1.524374e+02	-2.214873e+01
1.533179e+02	-2.219841e+01
1.542034e+02	-2.224949e+01
1.550941e+02	-2.229976e+01
1.559899e+02	-2.234892e+01
1.568909e+02	-2.239949e+01
1.577971e+02	-2.244908e+01
1.587085e+02	-2.249801e+01
1.596252e+02	-2.254966e+01
1.605472e+02	-2.259849e+01
1.614745e+02	-2.264797e+01
1.624072e+02	-2.269660e+01
1.633453e+02	-2.274748e+01
1.642887e+02	-2.279731e+01
1.652377e+02	-2.284694e+01
1.661921e+02	-2.289693e+01
1.671520e+02	-2.294727e+01
1.681175e+02	-2.299577e+01
1.690885e+02	-2.304581e+01
1.700651e+02	-2.309368e+01
1.710474e+02	-2.314667e+01
1.720354e+02	-2.319590e+01
1.730291e+02	-2.324808e+01
1.740285e+02	-2.329337e+01
1.750337e+02	-2.334496e+01
1.760446e+02	-2.339527e+01
1.770615e+02	-2.344316e+01
1.780842e+02	-2.349670e+01
1.791128e+02	-2.354304e+01
1.801473e+02	-2.359414e+01
1.811878e+02	-2.364198e+01
1.822344e+02	-2.369342e+01
1.832870e+02	-2.374261e+01
1.843456e+02	-2.379408e+01
1.854104e+02	-2.384576e+01
1.864813e+02	-2.389430e+01
1.875584e+02	-2.394274e+01
1.886418e+02	-2.399128e+01
1.897313e+02	-2.404209e+01
1.908272e+02	-2.409083e+01
1.919294e+02	-2.414161e+01
1.930380e+02	-2.419303e+01
1.941530e+02	-2.424376e+01
1.952744e+02	-2.429391e+01
1.964023e+02	-2.434164e+01
1.975367e+02	-2.439104e+01
1.986777e+02	-2.444157e+01
1.998252e+02	-2.449173e+01
2.009794e+02	-2.454099e+01
2.021403e+02	-2.459189e+01
2.033078e+02	-2.464001e+01
2.044821e+02	-2.468912e+01
2.056632e+02	-2.473944e+01
2.068511e+02	-2.479123e+01
2.080459e+02	-2.483846e+01
2.092475e+02	-2.489297e+01
2.104561e+02	-2.494220e+01
2.116717e+02	-2.499450e+01
2.128943e+02	-2.503931e+01
2.141240e+02	-2.509199e+01
2.153608e+02	-2.513985e+01
2.166047e+02	-2.519017e+01
2.178558e+02	-2.523754e+01
2.191141e+02	-2.528812e+01
2.203797e+02	-2.534228e+01
2.216526e+02	-2.538966e+01
2.229329e+02	-2.543720e+01
2.242205e+02	-2.548987e+01
2.255156e+02	-2.553641e+01
2.268182e+02	-2.558943e+01
2.281283e+02	-2.563671e+01
2.294459e+02	-2.569129e+01
2.307712e+02	-2.573849e+01
2.321041e+02	-2.578864e+01
2.334447e+02	-2.583790e+01
2.347931e+02	-2.588885e+01
2.361493e+02	-2.593946e+01
2.375133e+02	-2.598709e+01
2.388851e+02	-2.603981e+01
2.402649e+02	-2.608612e+01
2.416527e+02	-2.613986e+01
2.430484e+02	-2.618879e+01
2.444523e+02	-2.623892e+01
2.458642e+02	-2.629014e+01
2.472843e+02	-2.633993e+01
2.487126e+02	-2.638563e+01
2.501492e+02	-2.643804e+01
2.515940e+02	-2.648973e+01
2.530472e+02	-2.653976e+01
2.545088e+02	-2.658946e+01
2.559789e+02	-2.663624e+01
2.574574e+02	-2.668672e+01
2.589444e+02	-2.673759e+01
2.604401e+02	-2.679161e+01
2.619444e+02	-2.684070e+01
2.634574e+02	-2.688630e+01
2.649791e+02	-2.693813e+01
2.665096e+02	-2.699153e+01
2.680489e+02	-2.703391e+01
2.695972e+02	-2.708778e+01
2.711544e+02	-2.713980e+01
2.727205e+02	-2.719211e+01
2.742958e+02	-2.723649e+01
2.758801e+02	-2.728884e+01
2.774736e+02	-2.733946e+01
2.790762e+02	-2.738445e+01
2.806882e+02	-2.743955e+01
2.823094e+02	-2.749061e+01
2.839400e+02	-2.753696e+01
2.855800e+02	-2.758635e+01
2.872295e+02	-2.763616e+01
2.888886e+02	-2.768983e+01
2.905572e+02	-2.774041e+01
2.922354e+02	-2.778556e+01
2.939234e+02	-2.784080e+01
2.956211e+02	-2.788558e+01
2.973286e+02	-2.793708e+01
2.990459e+02	-2.798748e+01
3.007732e+02	-2.803984e+01
3.025104e+02	-2.808792e+01
3.042577e+02	-2.814143e+01
3.060151e+02	-2.819080e+01
3.077826e+02	-2.823582e+01
3.095604e+02	-2.828591e+01
3.113484e+02	-2.834137e+01
3.131467e+02	-2.839114e+01
3.149554e+02	-2.843894e+01
3.167746e+02	-2.849055e+01
3.186043e+02	-2.853893e+01
3.204445e+02	-2.858486e+01
3.222954e+02	-2.863926e+01
3.241570e+02	-2.868923e+01
3.260293e+02	-2.874112e+01
3.279124e+02	-2.878869e+01
3.298064e+02	-2.884253e+01
3.317114e+02	-2.888732e+01
3.336273e+02	-2.894506e+01
3.355544e+02	-2.899079e+01
3.374925e+02	-2.903862e+01
3.394418e+02	-2.908735e+01
3.414024e+02	-2.913449e+01
3.433744e+02	-2.919232e+01
3.453577e+02	-2.923940e+01
3.473525e+02	-2.928851e+01
3.493588e+02	-2.933937e+01
3.513766e+02	-2.939236e+01
3.534062e+02	-2.943899e+01
3.554474e+02	-2.948776e+01
3.575005e+02	-2.954007e+01
3.595654e+02	-2.959293e+01
3.616422e+02	-2.963833e+01
3.637311e+02	-2.968709e+01
3.658320e+02	-2.974075e+01
3.679450e+02	-2.978799e+01
3.700702e+02	-2.984194e+01
3.722077e+02	-2.989028e+01
3.743576e+02	-2.993887e+01
3.765199e+02	-2.998555e+01
3.786946e+02	-3.004266e+01
3.808820e+02	-3.009276e+01
3.830819e+02	-3.014117e+01
3.852946e+02	-3.019196e+01
3.875200e+02	-3.023697e+01
3.897583e+02	-3.029257e+01
3.920096e+02	-3.034152e+01
3.942738e+02	-3.039317e+01
3.965511e+02	-3.043902e+01
3.988416e+02	-3.049437e+01
4.011452e+02	-3.054327e+01
4.034622e+02	-3.059178e+01
4.057926e+02	-3.064177e+01
4.081365e+02	-3.069381e+01
4.104938e+02	-3.073880e+01
4.128648e+02	-3.079275e+01
4.152495e+02	-3.084459e+01
4.176480e+02	-3.089300e+01
4.200603e+02	-3.093903e+01
4.224866e+02	-3.099252e+01
4.249268e+02	-3.104660e+01
4.273812e+02	-3.109151e+01
4.298497e+02	-3.114772e+01
4.323325e+02	-3.119113e+01
4.348297e+02	-3.124351e+01
4.373412e+02	-3.129898e+01
4.398673e+02	-3.133441e+01
4.424079e+02	-3.139550e+01
4.449633e+02	-3.144196e+01
4.475334e+02	-3.149363e+01
4.501183e+02	-3.154867e+01
4.527182e+02	-3.159570e+01
4.553330e+02	-3.164437e+01
4.579630e+02	-3.169761e+01
4.606082e+02	-3.174055e+01
4.632687e+02	-3.179272e+01
4.659445e+02	-3.184029e+01
4.686358e+02	-3.189140e+01
4.713426e+02	-3.195029e+01
4.740650e+02	-3.199955e+01
4.768032e+02	-3.204749e+01
4.795572e+02	-3.210364e+01
4.823271e+02	-3.214324e+01
4.851130e+02	-3.219543e+01
4.879150e+02	-3.224591e+01
4.907332e+02	-3.229136e+01
4.935676e+02	-3.235092e+01
4.964185e+02	-3.239843e+01
4.992858e+02	-3.245432e+01
5.021696e+02	-3.249948e+01
5.050701e+02	-3.254463e+01
5.079874e+02	-3.259761e+01
5.109215e+02	-3.265590e+01
5.138726e+02	-3.269343e+01
5.168407e+02	-3.275544e+01
5.198259e+02	-3.279408e+01
5.228284e+02	-3.284701e+01
5.258482e+02	-3.290029e+01
5.288855e+02	-3.294398e+01
5.319403e+02	-3.300205e+01
5.350128e+02	-3.304705e+01
5.381030e+02	-3.309528e+01
5.412111e+02	-3.314916e+01
5.443371e+02	-3.320584e+01
5.474812e+02	-3.324861e+01
5.506434e+02	-3.329581e+01
5.538239e+02	-3.334795e+01
5.570228e+02	-3.340804e+01
5.602401e+02	-3.344903e+01
5.634760e+02	-3.350215e+01
5.667306e+02	-3.355334e+01
5.700040e+02	-3.360294e+01
5.732964e+02	-3.365544e+01
5.766077e+02	-3.370578e+01
5.799382e+02	-3.375452e+01
5.832879e+02	-3.379953e+01
5.866569e+02	-3.385233e+01
5.900454e+02	-3.390297e+01
5.934535e+02	-3.395800e+01
5.968813e+02	-3.399792e+01
6.003288e+02	-3.404868e+01
6.037963e+02	-3.410530e+01
6.072838e+02	-3.415076e+01
6.107914e+02	-3.420511e+01
6.143194e+02	-3.425544e+01
6.178676e+02	-3.430828e+01
6.214364e+02	-3.435776e+01
6.250258e+02	-3.440793e+01
6.286359e+02	-3.446444e+01
6.322669e+02	-3.450735e+01
6.359189e+02	-3.456080e+01
6.395919e+02	-3.461658e+01
6.432862e+02	-3.465785e+01
6.470017e+02	-3.471225e+01
6.507388e+02	-3.475883e+01
6.544974e+02	-3.480535e+01
6.582778e+02	-3.486873e+01
6.620800e+02	-3.490905e+01
6.659041e+02	-3.496059e+01
6.697504e+02	-3.500544e+01
6.736188e+02	-3.506671e+01
6.775096e+02	-3.511047e+01
6.814229e+02	-3.516707e+01
6.853587e+02	-3.521764e+01
6.893173e+02	-3.527105e+01
6.932988e+02	-3.531318e+01
6.973033e+02	-3.536547e+01
7.013309e+02	-3.541184e+01
