Frequency(Hz)	Magnitude(dB)
1.000000e+01	-2.174823e+00
1.005776e+01	-2.194504e+00
1.011585e+01	-2.214432e+00
1.017428e+01	-2.234458e+00
1.023305e+01	-2.254649e+00
1.029215e+01	-2.274925e+00
1.035160e+01	-2.295420e+00
1.041139e+01	-2.316069e+00
1.047153e+01	-2.336502e+00
1.053201e+01	-2.357727e+00
1.059284e+01	-2.378540e+00
1.065403e+01	-2.399916e+00
1.071556e+01	-2.421422e+00
1.077746e+01	-2.442517e+00
1.083971e+01	-2.464223e+00
1.090232e+01	-2.485971e+00
1.096529e+01	-2.507859e+00
1.102862e+01	-2.529828e+00
1.109232e+01	-2.552191e+00
1.115639e+01	-2.574409e+00
1.122083e+01	-2.596698e+00
1.128564e+01	-2.619454e+00
1.135083e+01	-2.641983e+00
1.141639e+01	-2.664891e+00
1.148233e+01	-2.688023e+00
1.154865e+01	-2.711023e+00
1.161536e+01	-2.734457e+00
1.168245e+01	-2.757995e+00
1.174992e+01	-2.781409e+00
1.181779e+01	-2.805173e+00
1.188605e+01	-2.829357e+00
1.195470e+01	-2.853214e+00
1.202375e+01	-2.877143e+00
1.209320e+01	-2.901719e+00
1.216305e+01	-2.925988e+00
1.223330e+01	-2.950543e+00
1.230396e+01	-2.975343e+00
1.237503e+01	-3.000413e+00
1.244651e+01	-3.025183e+00
1.251840e+01	-3.050529e+00
1.259070e+01	-3.075725e+00
1.266343e+01	-3.101107e+00
1.273657e+01	-3.126845e+00
1.281014e+01	-3.152606e+00
1.288413e+01	-3.178548e+00
1.295855e+01	-3.204586e+00
1.303339e+01	-3.230685e+00
1.310867e+01	-3.256961e+00
1.318439e+01	-3.283425e+00
1.326054e+01	-3.310146e+00
1.333713e+01	-3.336910e+00
1.341417e+01	-3.363645e+00
1.349165e+01	-3.390845e+00
1.356958e+01	-3.417893e+00
1.364795e+01	-3.445294e+00
1.372678e+01	-3.472780e+00
1.380607e+01	-3.500446e+00
1.388581e+01	-3.528110e+00
1.396602e+01	-3.555994e+00
1.404668e+01	-3.584078e+00
1.412782e+01	-3.612102e+00
1.420942e+01	-3.640645e+00
1.429149e+01	-3.669039e+00
1.437404e+01	-3.697674e+00
1.445706e+01	-3.726287e+00
1.454057e+01	-3.755167e+00
1.462455e+01	-3.784204e+00
1.470902e+01	-3.813488e+00
1.479398e+01	-3.842745e+00
1.487943e+01	-3.872157e+00
1.496537e+01	-3.901686e+00
1.505181e+01	-3.931464e+00
1.513875e+01	-3.961430e+00
1.522619e+01	-3.991283e+00
1.531414e+01	-4.021471e+00
1.540259e+01	-4.051892e+00
1.549156e+01	-4.082167e+00
1.558103e+01	-4.112641e+00
1.567103e+01	-4.143467e+00
1.576155e+01	-4.174098e+00
1.585258e+01	-4.205136e+00
1.594415e+01	-4.236363e+00
1.603624e+01	-4.267573e+00
1.612886e+01	-4.298623e+00
1.622202e+01	-4.330386e+00
1.631572e+01	-4.361841e+00
1.640996e+01	-4.393608e+00
1.650474e+01	-4.425775e+00
1.660008e+01	-4.457563e+00
1.669596e+01	-4.489647e+00
1.679239e+01	-4.522165e+00
1.688938e+01	-4.554515e+00
1.698694e+01	-4.587236e+00
1.708505e+01	-4.619669e+00
1.718373e+01	-4.653014e+00
1.728299e+01	-4.685528e+00
1.738281e+01	-4.718555e+00
1.748322e+01	-4.751927e+00
1.758420e+01	-4.785634e+00
1.768576e+01	-4.818688e+00
1.778792e+01	-4.852415e+00
1.789066e+01	-4.886246e+00
1.799399e+01	-4.920050e+00
1.809793e+01	-4.953973e+00
1.820246e+01	-4.988053e+00
1.830760e+01	-5.021935e+00
1.841334e+01	-5.056532e+00
1.851969e+01	-5.091276e+00
1.862666e+01	-5.125461e+00
1.873425e+01	-5.160165e+00
1.884246e+01	-5.195179e+00
1.895129e+01	-5.230169e+00
1.906075e+01	-5.265000e+00
1.917085e+01	-5.300394e+00
1.928158e+01	-5.335470e+00
1.939295e+01	-5.371128e+00
1.950496e+01	-5.406843e+00
1.961762e+01	-5.442340e+00
1.973093e+01	-5.478395e+00
1.984490e+01	-5.514207e+00
1.995952e+01	-5.550550e+00
2.007480e+01	-5.586196e+00
2.019076e+01	-5.622817e+00
2.030738e+01	-5.658759e+00
2.042467e+01	-5.695337e+00
2.054264e+01	-5.732184e+00
2.066130e+01	-5.769027e+00
2.078064e+01	-5.805656e+00
2.090066e+01	-5.842200e+00
2.102139e+01	-5.879469e+00
2.114280e+01	-5.916534e+00
2.126492e+01	-5.954128e+00
2.138775e+01	-5.991150e+00
2.151128e+01	-6.028838e+00
2.163553e+01	-6.066253e+00
2.176050e+01	-6.104571e+00
2.188619e+01	-6.142103e+00
2.201260e+01	-6.180137e+00
2.213974e+01	-6.217768e+00
2.226762e+01	-6.256053e+00
2.239624e+01	-6.294709e+00
2.252560e+01	-6.332419e+00
2.265571e+01	-6.370751e+00
2.278656e+01	-6.409415e+00
2.291818e+01	-6.447834e+00
2.305055e+01	-6.487068e+00
2.318369e+01	-6.525776e+00
2.331760e+01	-6.565141e+00
2.345228e+01	-6.604007e+00
2.358774e+01	-6.643022e+00
2.372398e+01	-6.682057e+00
2.386101e+01	-6.721423e+00
2.399883e+01	-6.761138e+00
2.413745e+01	-6.800858e+00
2.427686e+01	-6.839978e+00
2.441709e+01	-6.879678e+00
2.455812e+01	-6.919326e+00
2.469997e+01	-6.959746e+00
2.484263e+01	-6.999496e+00
2.498612e+01	-7.039171e+00
2.513044e+01	-7.079786e+00
2.527559e+01	-7.120106e+00
2.542158e+01	-7.160367e+00
2.556842e+01	-7.200576e+00
2.571610e+01	-7.241316e+00
2.586463e+01	-7.282035e+00
2.601403e+01	-7.322820e+00
2.616428e+01	-7.363402e+00
2.631541e+01	-7.404567e+00
2.646740e+01	-7.445387e+00
2.662028e+01	-7.486526e+00
2.677404e+01	-7.527677e+00
2.692868e+01	-7.569084e+00
2.708422e+01	-7.610276e+00
2.724066e+01	-7.651572e+00
2.739800e+01	-7.693242e+00
2.755625e+01	-7.734509e+00
2.771541e+01	-7.776596e+00
2.787550e+01	-7.817835e+00
2.803650e+01	-7.859441e+00
2.819844e+01	-7.901601e+00
2.836131e+01	-7.943198e+00
2.852513e+01	-7.985727e+00
2.868989e+01	-8.027945e+00
2.885560e+01	-8.069500e+00
2.902227e+01	-8.112090e+00
2.918990e+01	-8.154586e+00
2.935850e+01	-8.196950e+00
2.952807e+01	-8.239673e+00
2.969863e+01	-8.282594e+00
2.987016e+01	-8.324498e+00
3.004269e+01	-8.367396e+00
3.021622e+01	-8.410239e+00
3.039075e+01	-8.452670e+00
3.056628e+01	-8.496013e+00
3.074283e+01	-8.538752e+00
3.092040e+01	-8.582033e+00
3.109900e+01	-8.625053e+00
3.127862e+01	-8.668346e+00
3.145929e+01	-8.711462e+00
3.164099e+01	-8.754683e+00
3.182375e+01	-8.798397e+00
3.200756e+01	-8.841716e+00
3.219244e+01	-8.885412e+00
3.237838e+01	-8.929389e+00
3.256540e+01	-8.972645e+00
3.275349e+01	-9.016208e+00
3.294268e+01	-9.060377e+00
3.313295e+01	-9.103455e+00
3.332433e+01	-9.147247e+00
3.351681e+01	-9.191538e+00
3.371040e+01	-9.235402e+00
3.390511e+01	-9.280204e+00
3.410094e+01	-9.323905e+00
3.429791e+01	-9.368417e+00
3.449601e+01	-9.412244e+00
3.469526e+01	-9.456821e+00
3.489566e+01	-9.501251e+00
3.509721e+01	-9.545159e+00
3.529993e+01	-9.590278e+00
3.550382e+01	-9.634355e+00
3.570889e+01	-9.679349e+00
3.591515e+01	-9.723993e+00
3.612259e+01	-9.768161e+00
3.633123e+01	-9.813552e+00
3.654108e+01	-9.858517e+00
3.675214e+01	-9.903011e+00
3.696442e+01	-9.948052e+00
3.717792e+01	-9.993016e+00
3.739266e+01	-1.003736e+01
3.760864e+01	-1.008390e+01
3.782587e+01	-1.012881e+01
3.804435e+01	-1.017362e+01
3.826409e+01	-1.021882e+01
3.848510e+01	-1.026424e+01
3.870739e+01	-1.030992e+01
3.893096e+01	-1.035425e+01
3.915583e+01	-1.039965e+01
3.938199e+01	-1.044566e+01
3.960946e+01	-1.049125e+01
3.983824e+01	-1.053609e+01
4.006834e+01	-1.058192e+01
4.029978e+01	-1.062838e+01
4.053255e+01	-1.067414e+01
4.076666e+01	-1.071971e+01
4.100213e+01	-1.076548e+01
4.123896e+01	-1.081112e+01
4.147715e+01	-1.085765e+01
4.171672e+01	-1.090303e+01
4.195767e+01	-1.094921e+01
4.220002e+01	-1.099555e+01
4.244377e+01	-1.104115e+01
4.268892e+01	-1.108746e+01
4.293549e+01	-1.113406e+01
4.318348e+01	-1.118001e+01
4.343291e+01	-1.122637e+01
4.368377e+01	-1.127216e+01
4.393609e+01	-1.131806e+01
4.418986e+01	-1.136443e+01
4.444510e+01	-1.141101e+01
4.470182e+01	-1.145749e+01
4.496001e+01	-1.150362e+01
4.521970e+01	-1.155092e+01
4.548089e+01	-1.159777e+01
4.574358e+01	-1.164323e+01
4.600779e+01	-1.169007e+01
4.627353e+01	-1.173746e+01
4.654081e+01	-1.178322e+01
4.680963e+01	-1.183062e+01
4.708000e+01	-1.187740e+01
4.735193e+01	-1.192416e+01
4.762543e+01	-1.197043e+01
4.790051e+01	-1.201806e+01
4.817719e+01	-1.206475e+01
4.845545e+01	-1.211125e+01
4.873533e+01	-1.215895e+01
4.901682e+01	-1.220578e+01
4.929994e+01	-1.225254e+01
4.958470e+01	-1.229927e+01
4.987110e+01	-1.234703e+01
5.015915e+01	-1.239418e+01
5.044887e+01	-1.244154e+01
5.074026e+01	-1.248791e+01
5.103333e+01	-1.253531e+01
5.132810e+01	-1.258294e+01
5.162457e+01	-1.263067e+01
5.192275e+01	-1.267766e+01
5.222265e+01	-1.272479e+01
5.252429e+01	-1.277290e+01
5.282767e+01	-1.281933e+01
5.313280e+01	-1.286732e+01
5.343969e+01	-1.291408e+01
5.374836e+01	-1.296198e+01
5.405880e+01	-1.301016e+01
5.437105e+01	-1.305700e+01
5.468509e+01	-1.310330e+01
5.500095e+01	-1.315215e+01
5.531863e+01	-1.319984e+01
5.563815e+01	-1.324745e+01
5.595951e+01	-1.329448e+01
5.628273e+01	-1.334171e+01
5.660782e+01	-1.339063e+01
5.693479e+01	-1.343822e+01
5.726364e+01	-1.348626e+01
5.759439e+01	-1.353341e+01
5.792705e+01	-1.358103e+01
5.826164e+01	-1.362919e+01
5.859815e+01	-1.367700e+01
5.893662e+01	-1.372447e+01
5.927703e+01	-1.377308e+01
5.961941e+01	-1.382051e+01
5.996377e+01	-1.386935e+01
6.031012e+01	-1.391666e+01
6.065847e+01	-1.396544e+01
6.100883e+01	-1.401352e+01
6.136121e+01	-1.406132e+01
6.171563e+01	-1.410900e+01
6.207210e+01	-1.415666e+01
6.243063e+01	-1.420555e+01
6.279122e+01	-1.425384e+01
6.315390e+01	-1.430124e+01
6.351868e+01	-1.434884e+01
6.388556e+01	-1.439791e+01
6.425456e+01	-1.444539e+01
6.462569e+01	-1.449407e+01
6.499897e+01	-1.454323e+01
6.537440e+01	-1.459055e+01
6.575200e+01	-1.463846e+01
6.613178e+01	-1.468794e+01
6.651375e+01	-1.473607e+01
6.689793e+01	-1.478516e+01
6.728433e+01	-1.483177e+01
6.767297e+01	-1.488082e+01
6.806384e+01	-1.492966e+01
6.845698e+01	-1.497740e+01
6.885238e+01	-1.502594e+01
6.925007e+01	-1.507466e+01
6.965005e+01	-1.512289e+01
7.005235e+01	-1.517191e+01
7.045697e+01	-1.522043e+01
7.086393e+01	-1.526899e+01
7.127323e+01	-1.531804e+01
7.168490e+01	-1.536515e+01
7.209895e+01	-1.541539e+01
7.251539e+01	-1.546369e+01
7.293424e+01	-1.551244e+01
7.335551e+01	-1.556026e+01
7.377920e+01	-1.560887e+01
7.420535e+01	-1.565791e+01
7.463396e+01	-1.570530e+01
7.506504e+01	-1.575465e+01
7.549861e+01	-1.580428e+01
7.593469e+01	-1.585319e+01
7.637328e+01	-1.590116e+01
7.681441e+01	-1.595073e+01
7.725809e+01	-1.599882e+01
7.770433e+01	-1.604683e+01
7.815315e+01	-1.609737e+01
7.860456e+01	-1.614413e+01
7.905857e+01	-1.619385e+01
7.951521e+01	-1.624227e+01
7.997449e+01	-1.629126e+01
8.043642e+01	-1.634049e+01
8.090102e+01	-1.638897e+01
8.136830e+01	-1.643837e+01
8.183828e+01	-1.648736e+01
8.231097e+01	-1.653692e+01
8.278640e+01	-1.658492e+01
8.326457e+01	-1.663442e+01
8.374550e+01	-1.668278e+01
8.422921e+01	-1.673093e+01
8.471572e+01	-1.678092e+01
8.520503e+01	-1.683012e+01
8.569717e+01	-1.687879e+01
8.619215e+01	-1.692859e+01
8.669000e+01	-1.697733e+01
8.719071e+01	-1.702462e+01
8.769432e+01	-1.707477e+01
8.820084e+01	-1.712307e+01
8.871029e+01	-1.717397e+01
8.922267e+01	-1.722219e+01
8.973802e+01	-1.727101e+01
9.025634e+01	-1.732079e+01
9.077766e+01	-1.736884e+01
9.130199e+01	-1.741863e+01
9.182935e+01	-1.746752e+01
9.235975e+01	-1.751495e+01
9.289321e+01	-1.756624e+01
9.342976e+01	-1.761506e+01
9.396941e+01	-1.766317e+01
9.451217e+01	-1.771470e+01
9.505807e+01	-1.776269e+01
9.560712e+01	-1.781209e+01
9.615934e+01	-1.786137e+01
9.671476e+01	-1.790897e+01
9.727338e+01	-1.795958e+01
9.783522e+01	-1.800894e+01
9.840032e+01	-1.805768e+01
9.896867e+01	-1.810731e+01
9.954031e+01	-1.815653e+01
1.001153e+02	-1.820579e+01
1.006935e+02	-1.825496e+01
1.012751e+02	-1.830473e+01
1.018601e+02	-1.835408e+01
1.024484e+02	-1.840280e+01
1.030402e+02	-1.845197e+01
1.036353e+02	-1.850050e+01
1.042339e+02	-1.855090e+01
1.048360e+02	-1.859959e+01
1.054415e+02	-1.864853e+01
1.060505e+02	-1.869928e+01
1.066631e+02	-1.874762e+01
1.072791e+02	-1.879737e+01
1.078988e+02	-1.884741e+01
1.085220e+02	-1.889668e+01
1.091488e+02	-1.894581e+01
1.097793e+02	-1.899629e+01
1.104133e+02	-1.904393e+01
1.110511e+02	-1.909436e+01
1.116925e+02	-1.914388e+01
1.123376e+02	-1.919307e+01
1.129865e+02	-1.924303e+01
1.136391e+02	-1.929180e+01
1.142955e+02	-1.934137e+01
1.149556e+02	-1.939160e+01
1.156196e+02	-1.944054e+01
1.162874e+02	-1.948832e+01
1.169591e+02	-1.954042e+01
1.176347e+02	-1.958919e+01
1.183141e+02	-1.963920e+01
1.189975e+02	-1.968700e+01
1.196848e+02	-1.973768e+01
1.203761e+02	-1.978728e+01
1.210714e+02	-1.983587e+01
1.217707e+02	-1.988488e+01
1.224740e+02	-1.993511e+01
1.231814e+02	-1.998620e+01
1.238929e+02	-2.003143e+01
1.246085e+02	-2.008353e+01
1.253283e+02	-2.013328e+01
1.260522e+02	-2.018384e+01
1.267802e+02	-2.023289e+01
1.275125e+02	-2.028308e+01
1.282490e+02	-2.033240e+01
1.289898e+02	-2.038112e+01
1.297348e+02	-2.043027e+01
1.304842e+02	-2.047899e+01
1.312378e+02	-2.052974e+01
1.319959e+02	-2.058017e+01
1.327583e+02	-2.062882e+01
1.335251e+02	-2.067852e+01
1.342963e+02	-2.073002e+01
1.350720e+02	-2.077884e+01
1.358522e+02	-2.082734e+01
1.366368e+02	-2.087839e+01
1.374260e+02	-2.092637e+01
1.382198e+02	-2.097681e+01
1.390182e+02	-2.102650e+01
1.398211e+02	-2.107464e+01
1.406287e+02	-2.112371e+01
1.414410e+02	-2.117512e+01
1.422579e+02	-2.122651e+01
1.430796e+02	-2.127379e+01
1.439060e+02	-2.132573e+01
1.447372e+02	-2.137269e+01
1.455732e+02	-2.142310e+01
1.464141e+02	-2.147304e+01
1.472597e+02	-2.152165e+01
1.481103e+02	-2.157183e+01
1.489658e+02	-2.162240e+01
1.498262e+02	-2.167294e+01
1.506916e+02	-2.172044e+01
1.515620e+02	-2.177043e+01
1.524374e+02	-2.182203e+01
1.533179e+02	-2.187140e+01
1.542034e+02	-2.192053e+01
1.550941e+02	-2.196930e+01
1.559899e+02	-2.201917e+01
1.568909e+02	-2.207208e+01
1.577971e+02	-2.211826e+01
1.587085e+02	-2.217134e+01
1.596252e+02	-2.221992e+01
1.605472e+02	-2.226801e+01
1.614745e+02	-2.231786e+01
1.624072e+02	-2.236913e+01
1.633453e+02	-2.241688e+01
1.642887e+02	-2.246571e+01
1.652377e+02	-2.251608e+01
1.661921e+02	-2.256619e+01
1.671520e+02	-2.261766e+01
1.681175e+02	-2.266650e+01
1.690885e+02	-2.271492e+01
1.700651e+02	-2.276726e+01
1.710474e+02	-2.281709e+01
1.720354e+02	-2.286653e+01
1.730291e+02	-2.291653e+01
1.740285e+02	-2.296630e+01
1.750337e+02	-2.301459e+01
1.760446e+02	-2.306529e+01
1.770615e+02	-2.311570e+01
1.780842e+02	-2.316608e+01
1.791128e+02	-2.321664e+01
1.801473e+02	-2.326506e+01
1.811878e+02	-2.331359e+01
1.822344e+02	-2.336285e+01
1.832870e+02	-2.341274e+01
1.843456e+02	-2.346450e+01
1.854104e+02	-2.351272e+01
1.864813e+02	-2.356467e+01
1.875584e+02	-2.361309e+01
1.886418e+02	-2.366144e+01
1.897313e+02	-2.371444e+01
1.908272e+02	-2.376351e+01
1.919294e+02	-2.381251e+01
1.930380e+02	-2.386126e+01
1.941530e+02	-2.391340e+01
1.952744e+02	-2.396196e+01
1.964023e+02	-2.400981e+01
1.975367e+02	-2.406042e+01
1.986777e+02	-2.411318e+01
1.998252e+02	-2.416189e+01
2.009794e+02	-2.421332e+01
2.021403e+02	-2.425876e+01
2.033078e+02	-2.430993e+01
2.044821e+02	-2.436004e+01
2.056632e+02	-2.440621e+01
2.068511e+02	-2.445824e+01
2.080459e+02	-2.451229e+01
2.092475e+02	-2.456111e+01
2.104561e+02	-2.461079e+01
2.116717e+02	-2.466020e+01
2.128943e+02	-2.471204e+01
2.141240e+02	-2.476042e+01
2.153608e+02	-2.480929e+01
2.166047e+02	-2.485868e+01
2.178558e+02	-2.490941e+01
2.191141e+02	-2.495959e+01
2.203797e+02	-2.500801e+01
2.216526e+02	-2.505781e+01
2.229329e+02	-2.510955e+01
2.242205e+02	-2.515812e+01
2.255156e+02	-2.521096e+01
2.268182e+02	-2.525833e+01
2.281283e+02	-2.530879e+01
2.294459e+02	-2.535733e+01
2.307712e+02	-2.540669e+01
2.321041e+02	-2.545882e+01
2.334447e+02	-2.550895e+01
2.347931e+02	-2.555772e+01
2.361493e+02	-2.560917e+01
2.375133e+02	-2.565688e+01
2.388851e+02	-2.570754e+01
2.402649e+02	-2.575995e+01
2.416527e+02	-2.580693e+01
2.430484e+02	-2.585657e+01
2.444523e+02	-2.590757e+01
2.458642e+02	-2.595778e+01
2.472843e+02	-2.600714e+01
2.487126e+02	-2.605570e+01
2.501492e+02	-2.610904e+01
2.515940e+02	-2.615987e+01
2.530472e+02	-2.620488e+01
2.545088e+02	-2.625905e+01
2.559789e+02	-2.630820e+01
2.574574e+02	-2.635860e+01
2.589444e+02	-2.640655e+01
2.604401e+02	-2.645850e+01
2.619444e+02	-2.650816e+01
2.634574e+02	-2.655917e+01
2.649791e+02	-2.660507e+01
2.665096e+02	-2.666097e+01
2.680489e+02	-2.670591e+01
2.695972e+02	-2.675921e+01
2.711544e+02	-2.680954e+01
2.727205e+02	-2.685939e+01
2.742958e+02	-2.690538e+01
2.758801e+02	-2.695938e+01
2.774736e+02	-2.700526e+01
2.790762e+02	-2.705816e+01
2.806882e+02	-2.710692e+01
2.823094e+02	-2.715598e+01
2.839400e+02	-2.720519e+01
2.855800e+02	-2.725678e+01
2.872295e+02	-2.730842e+01
2.888886e+02	-2.735647e+01
2.905572e+02	-2.740801e+01
2.922354e+02	-2.745901e+01
2.939234e+02	-2.750727e+01
2.956211e+02	-2.755622e+01
2.973286e+02	-2.761147e+01
2.990459e+02	-2.765933e+01
3.007732e+02	-2.770821e+01
3.025104e+02	-2.775738e+01
3.042577e+02	-2.780897e+01
3.060151e+02	-2.785769e+01
3.077826e+02	-2.790735e+01
3.095604e+02	-2.795869e+01
3.113484e+02	-2.800857e+01
3.131467e+02	-2.805688e+01
3.149554e+02	-2.810844e+01
3.167746e+02	-2.815997e+01
3.186043e+02	-2.820597e+01
3.204445e+02	-2.825537e+01
3.222954e+02	-2.830643e+01
3.241570e+02	-2.836084e+01
3.260293e+02	-2.840767e+01
3.279124e+02	-2.845617e+01
3.298064e+02	-2.850692e+01
3.317114e+02	-2.855638e+01
3.336273e+02	-2.861072e+01
3.355544e+02	-2.866206e+01
3.374925e+02	-2.871126e+01
3.394418e+02	-2.875753e+01
3.414024e+02	-2.881029e+01
3.433744e+02	-2.885742e+01
3.453577e+02	-2.891197e+01
3.473525e+02	-2.895616e+01
3.493588e+02	-2.900926e+01
3.513766e+02	-2.905378e+01
3.534062e+02	-2.910844e+01
3.554474e+02	-2.915585e+01
3.575005e+02	-2.921266e+01
3.595654e+02	-2.925889e+01
3.616422e+02	-2.930556e+01
3.637311e+02	-2.935754e+01
3.658320e+02	-2.941140e+01
3.679450e+02	-2.946057e+01
3.700702e+02	-2.951110e+01
3.722077e+02	-2.955625e+01
3.743576e+02	-2.961090e+01
3.765199e+02	-2.965643e+01
3.786946e+02	-2.970980e+01
3.808820e+02	-2.975947e+01
3.830819e+02	-2.981421e+01
3.852946e+02	-2.986057e+01
3.875200e+02	-2.991344e+01
3.897583e+02	-2.995859e+01
3.920096e+02	-3.001105e+01
3.942738e+02	-3.005644e+01
3.965511e+02	-3.010503e+01
3.988416e+02	-3.016494e+01
4.011452e+02	-3.020504e+01
4.034622e+02	-3.025978e+01
4.057926e+02	-3.031037e+01
4.081365e+02	-3.035720e+01
4.104938e+02	-3.041660e+01
4.128648e+02	-3.045985e+01
4.152495e+02	-3.051131e+01
4.176480e+02	-3.055792e+01
4.200603e+02	-3.061036e+01
4.224866e+02	-3.066408e+01
4.249268e+02	-3.070756e+01
4.273812e+02	-3.076626e+01
4.298497e+02	-3.081127e+01
4.323325e+02	-3.086756e+01
4.348297e+02	-3.091768e+01
4.373412e+02	-3.096592e+01
4.398673e+02	-3.101670e+01
4.424079e+02	-3.105825e+01
4.449633e+02	-3.111083e+01
4.475334e+02	-3.115961e+01
4.501183e+02	-3.121415e+01
4.527182e+02	-3.126087e+01
4.553330e+02	-3.130852e+01
4.579630e+02	-3.136462e+01
4.606082e+02	-3.141363e+01
4.632687e+02	-3.146442e+01
4.659445e+02	-3.151760e+01
4.686358e+02	-3.156383e+01
4.713426e+02	-3.160378e+01
4.740650e+02	-3.167105e+01
4.768032e+02	-3.171664e+01
4.795572e+02	-3.176724e+01
4.823271e+02	-3.181409e+01
4.851130e+02	-3.186647e+01
4.879150e+02	-3.191947e+01
4.907332e+02	-3.196714e+01
4.935676e+02	-3.201229e+01
4.964185e+02	-3.206707e+01
4.992858e+02	-3.211212e+01
5.021696e+02	-3.216560e+01
5.050701e+02	-3.221567e+01
5.079874e+02	-3.226092e+01
5.109215e+02	-3.232160e+01
5.138726e+02	-3.237238e+01
5.168407e+02	-3.241485e+01
5.198259e+02	-3.246692e+01
5.228284e+02	-3.251731e+01
5.258482e+02	-3.256870e+01
5.288855e+02	-3.261678e+01
5.319403e+02	-3.266537e+01
5.350128e+02	-3.272151e+01
5.381030e+02	-3.277159e+01
5.412111e+02	-3.281589e+01
5.443371e+02	-3.287493e+01
5.474812e+02	-3.290828e+01
5.506434e+02	-3.296393e+01
5.538239e+02	-3.302032e+01
5.570228e+02	-3.307159e+01
5.602401e+02	-3.312339e+01
5.634760e+02	-3.317591e+01
5.667306e+02	-3.322088e+01
5.700040e+02	-3.326942e+01
5.732964e+02	-3.331855e+01
5.766077e+02	-3.337084e+01
5.799382e+02	-3.341975e+01
5.832879e+02	-3.347304e+01
5.866569e+02	-3.351998e+01
5.900454e+02	-3.357507e+01
5.934535e+02	-3.363251e+01
5.968813e+02	-3.366737e+01
6.003288e+02	-3.372273e+01
6.037963e+02	-3.377664e+01
6.072838e+02	-3.382661e+01
6.107914e+02	-3.386935e+01
6.143194e+02	-3.393041e+01
6.178676e+02	-3.397610e+01
6.214364e+02	-3.401591e+01
6.250258e+02	-3.407654e+01
6.286359e+02	-3.412708e+01
6.322669e+02	-3.418034e+01
6.359189e+02	-3.423944e+01
6.395919e+02	-3.427957e+01
6.432862e+02	-3.432383e+01
6.470017e+02	-3.437237e+01
6.507388e+02	-3.442360e+01
6.544974e+02	-3.448081e+01
6.582778e+02	-3.452406e+01
6.620800e+02	-3.457344e+01
6.659041e+02	-3.462659e+01
6.697504e+02	-3.469032e+01
6.736188e+02	-3.472833e+01
6.775096e+02	-3.478307e+01
6.814229e+02	-3.482647e+01
6.853587e+02	-3.488009e+01
6.893173e+02	-3.493210e+01
6.932988e+02	-3.497398e+01
6.973033e+02	-3.503175e+01
7.013309e+02	-3.508560e+01
