Frequency(Hz)	Magnitude(dB)
1.000000e+01	-2.474791e+00
1.005776e+01	-2.496472e+00
1.011585e+01	-2.518500e+00
1.017428e+01	-2.540800e+00
1.023305e+01	-2.562865e+00
1.029215e+01	-2.585211e+00
1.035160e+01	-2.607881e+00
1.041139e+01	-2.630123e+00
1.047153e+01	-2.653306e+00
1.053201e+01	-2.676038e+00
1.059284e+01	-2.699081e+00
1.065403e+01	-2.722437e+00
1.071556e+01	-2.745612e+00
1.077746e+01	-2.769523e+00
1.083971e+01	-2.793084e+00
1.090232e+01	-2.816790e+00
1.096529e+01	-2.840788e+00
1.102862e+01	-2.864789e+00
1.109232e+01	-2.889150e+00
1.115639e+01	-2.913297e+00
1.122083e+01	-2.937839e+00
1.128564e+01	-2.962542e+00
1.135083e+01	-2.987361e+00
1.141639e+01	-3.012418e+00
1.148233e+01	-3.037657e+00
1.154865e+01	-3.062568e+00
1.161536e+01	-3.088060e+00
1.168245e+01	-3.113477e+00
1.174992e+01	-3.139212e+00
1.181779e+01	-3.164966e+00
1.188605e+01	-3.191132e+00
1.195470e+01	-3.217252e+00
1.202375e+01	-3.243413e+00
1.209320e+01	-3.269761e+00
1.216305e+01	-3.296137e+00
1.223330e+01	-3.322851e+00
1.230396e+01	-3.349606e+00
1.237503e+01	-3.376899e+00
1.244651e+01	-3.404082e+00
1.251840e+01	-3.431204e+00
1.259070e+01	-3.458136e+00
1.266343e+01	-3.486041e+00
1.273657e+01	-3.513832e+00
1.281014e+01	-3.541539e+00
1.288413e+01	-3.569378e+00
1.295855e+01	-3.597634e+00
1.303339e+01	-3.625852e+00
1.310867e+01	-3.654190e+00
1.318439e+01	-3.682705e+00
1.326054e+01	-3.711512e+00
1.333713e+01	-3.740034e+00
1.341417e+01	-3.769276e+00
1.349165e+01	-3.798302e+00
1.356958e+01	-3.827407e+00
1.364795e+01	-3.856726e+00
1.372678e+01	-3.886315e+00
1.380607e+01	-3.915964e+00
1.388581e+01	-3.945847e+00
1.396602e+01	-3.976009e+00
1.404668e+01	-4.005992e+00
1.412782e+01	-4.035840e+00
1.420942e+01	-4.066387e+00
1.429149e+01	-4.096902e+00
1.437404e+01	-4.127281e+00
1.445706e+01	-4.158289e+00
1.454057e+01	-4.189138e+00
1.462455e+01	-4.220051e+00
1.470902e+01	-4.251160e+00
1.479398e+01	-4.282478e+00
1.487943e+01	-4.314159e+00
1.496537e+01	-4.345825e+00
1.505181e+01	-4.377378e+00
1.513875e+01	-4.409002e+00
1.522619e+01	-4.441012e+00
1.531414e+01	-4.473357e+00
1.540259e+01	-4.505498e+00
1.549156e+01	-4.537964e+00
1.558103e+01	-4.570474e+00
1.567103e+01	-4.603000e+00
1.576155e+01	-4.635867e+00
1.585258e+01	-4.668570e+00
1.594415e+01	-4.701755e+00
1.603624e+01	-4.734730e+00
1.612886e+01	-4.767887e+00
1.622202e+01	-4.801538e+00
1.631572e+01	-4.835021e+00
1.640996e+01	-4.868687e+00
1.650474e+01	-4.902294e+00
1.660008e+01	-4.936050e+00
1.669596e+01	-4.970336e+00
1.679239e+01	-5.004509e+00
1.688938e+01	-5.038707e+00
1.698694e+01	-5.073113e+00
1.708505e+01	-5.107554e+00
1.718373e+01	-5.142567e+00
1.728299e+01	-5.177024e+00
1.738281e+01	-5.212411e+00
1.748322e+01	-5.247040e+00
1.758420e+01	-5.282063e+00
1.768576e+01	-5.317618e+00
1.778792e+01	-5.352903e+00
1.789066e+01	-5.388217e+00
1.799399e+01	-5.423890e+00
1.809793e+01	-5.459735e+00
1.820246e+01	-5.495459e+00
1.830760e+01	-5.531675e+00
1.841334e+01	-5.567504e+00
1.851969e+01	-5.603779e+00
1.862666e+01	-5.639927e+00
1.873425e+01	-5.676698e+00
1.884246e+01	-5.712786e+00
1.895129e+01	-5.749844e+00
1.906075e+01	-5.786568e+00
1.917085e+01	-5.823532e+00
1.928158e+01	-5.860475e+00
1.939295e+01	-5.897026e+00
1.950496e+01	-5.934651e+00
1.961762e+01	-5.972302e+00
1.973093e+01	-6.009797e+00
1.984490e+01	-6.046957e+00
1.995952e+01	-6.084761e+00
2.007480e+01	-6.122388e+00
2.019076e+01	-6.160018e+00
2.030738e+01	-6.198181e+00
2.042467e+01	-6.236427e+00
2.054264e+01	-6.274573e+00
2.066130e+01	-6.312857e+00
2.078064e+01	-6.351401e+00
2.090066e+01	-6.389408e+00
2.102139e+01	-6.428054e+00
2.114280e+01	-6.466837e+00
2.126492e+01	-6.505876e+00
2.138775e+01	-6.544691e+00
2.151128e+01	-6.583750e+00
2.163553e+01	-6.622777e+00
2.176050e+01	-6.661940e+00
2.188619e+01	-6.701487e+00
2.201260e+01	-6.740558e+00
2.213974e+01	-6.780093e+00
2.226762e+01	-6.819651e+00
2.239624e+01	-6.859507e+00
2.252560e+01	-6.899145e+00
2.265571e+01	-6.939089e+00
2.278656e+01	-6.979101e+00
2.291818e+01	-7.018820e+00
2.305055e+01	-7.058965e+00
2.318369e+01	-7.099384e+00
2.331760e+01	-7.139454e+00
2.345228e+01	-7.180022e+00
2.358774e+01	-7.220401e+00
2.372398e+01	-7.261127e+00
2.386101e+01	-7.301551e+00
2.399883e+01	-7.342349e+00
2.413745e+01	-7.383020e+00
2.427686e+01	-7.424362e+00
2.441709e+01	-7.465508e+00
2.455812e+01	-7.506266e+00
2.469997e+01	-7.547433e+00
2.484263e+01	-7.588927e+00
2.498612e+01	-7.630127e+00
2.513044e+01	-7.671798e+00
2.527559e+01	-7.713214e+00
2.542158e+01	-7.754942e+00
2.556842e+01	-7.796449e+00
2.571610e+01	-7.838473e+00
2.586463e+01	-7.880324e+00
2.601403e+01	-7.921741e+00
2.616428e+01	-7.963942e+00
2.631541e+01	-8.005981e+00
2.646740e+01	-8.048142e+00
2.662028e+01	-8.090175e+00
2.677404e+01	-8.132808e+00
2.692868e+01	-8.174668e+00
2.708422e+01	-8.217283e+00
2.724066e+01	-8.260172e+00
2.739800e+01	-8.302629e+00
2.755625e+01	-8.345485e+00
2.771541e+01	-8.387809e+00
2.787550e+01	-8.430987e+00
2.803650e+01	-8.473496e+00
2.819844e+01	-8.516679e+00
2.836131e+01	-8.559304e+00
2.852513e+01	-8.602965e+00
2.868989e+01	-8.645981e+00
2.885560e+01	-8.689223e+00
2.902227e+01	-8.732340e+00
2.918990e+01	-8.775600e+00
2.935850e+01	-8.819300e+00
2.952807e+01	-8.862734e+00
2.969863e+01	-8.906259e+00
2.987016e+01	-8.949867e+00
3.004269e+01	-8.993962e+00
3.021622e+01	-9.037427e+00
3.039075e+01	-9.081168e+00
3.056628e+01	-9.125577e+00
3.074283e+01	-9.168917e+00
3.092040e+01	-9.212921e+00
3.109900e+01	-9.256801e+00
3.127862e+01	-9.300747e+00
3.145929e+01	-9.345472e+00
3.164099e+01	-9.389627e+00
3.182375e+01	-9.433569e+00
3.200756e+01	-9.478296e+00
3.219244e+01	-9.522504e+00
3.237838e+01	-9.566666e+00
3.256540e+01	-9.611547e+00
3.275349e+01	-9.656129e+00
3.294268e+01	-9.700939e+00
3.313295e+01	-9.745651e+00
3.332433e+01	-9.789935e+00
3.351681e+01	-9.834867e+00
3.371040e+01	-9.879792e+00
3.390511e+01	-9.924759e+00
3.410094e+01	-9.969940e+00
3.429791e+01	-1.001515e+01
3.449601e+01	-1.006017e+01
3.469526e+01	-1.010563e+01
3.489566e+01	-1.015027e+01
3.509721e+01	-1.019577e+01
3.529993e+01	-1.024061e+01
3.550382e+01	-1.028622e+01
3.570889e+01	-1.033106e+01
3.591515e+01	-1.037755e+01
3.612259e+01	-1.042227e+01
3.633123e+01	-1.046739e+01
3.654108e+01	-1.051358e+01
3.675214e+01	-1.055881e+01
3.696442e+01	-1.060440e+01
3.717792e+01	-1.064959e+01
3.739266e+01	-1.069661e+01
3.760864e+01	-1.074203e+01
3.782587e+01	-1.078766e+01
3.804435e+01	-1.083374e+01
3.826409e+01	-1.087926e+01
3.848510e+01	-1.092590e+01
3.870739e+01	-1.097105e+01
3.893096e+01	-1.101727e+01
3.915583e+01	-1.106347e+01
3.938199e+01	-1.110960e+01
3.960946e+01	-1.115534e+01
3.983824e+01	-1.120251e+01
4.006834e+01	-1.124777e+01
4.029978e+01	-1.129414e+01
4.053255e+01	-1.134111e+01
4.076666e+01	-1.138784e+01
4.100213e+01	-1.143345e+01
4.123896e+01	-1.147987e+01
4.147715e+01	-1.152630e+01
4.171672e+01	-1.157270e+01
4.195767e+01	-1.161968e+01
4.220002e+01	-1.166599e+01
4.244377e+01	-1.171315e+01
4.268892e+01	-1.175929e+01
4.293549e+01	-1.180608e+01
4.318348e+01	-1.185286e+01
4.343291e+01	-1.189996e+01
4.368377e+01	-1.194694e+01
4.393609e+01	-1.199323e+01
4.418986e+01	-1.203987e+01
4.444510e+01	-1.208782e+01
4.470182e+01	-1.213474e+01
4.496001e+01	-1.218105e+01
4.521970e+01	-1.222802e+01
4.548089e+01	-1.227553e+01
4.574358e+01	-1.232281e+01
4.600779e+01	-1.237008e+01
4.627353e+01	-1.241680e+01
4.654081e+01	-1.246353e+01
4.680963e+01	-1.251115e+01
4.708000e+01	-1.255805e+01
4.735193e+01	-1.260604e+01
4.762543e+01	-1.265280e+01
4.790051e+01	-1.269988e+01
4.817719e+01	-1.274759e+01
4.845545e+01	-1.279427e+01
4.873533e+01	-1.284231e+01
4.901682e+01	-1.289004e+01
4.929994e+01	-1.293798e+01
4.958470e+01	-1.298486e+01
4.987110e+01	-1.303199e+01
5.015915e+01	-1.307985e+01
5.044887e+01	-1.312711e+01
5.074026e+01	-1.317521e+01
5.103333e+01	-1.322274e+01
5.132810e+01	-1.326929e+01
5.162457e+01	-1.331885e+01
5.192275e+01	-1.336488e+01
5.222265e+01	-1.341321e+01
5.252429e+01	-1.346128e+01
5.282767e+01	-1.350814e+01
5.313280e+01	-1.355636e+01
5.343969e+01	-1.360463e+01
5.374836e+01	-1.365255e+01
5.405880e+01	-1.369997e+01
5.437105e+01	-1.374803e+01
5.468509e+01	-1.379549e+01
5.500095e+01	-1.384404e+01
5.531863e+01	-1.389270e+01
5.563815e+01	-1.394082e+01
5.595951e+01	-1.398760e+01
5.628273e+01	-1.403654e+01
5.660782e+01	-1.408400e+01
5.693479e+01	-1.413184e+01
5.726364e+01	-1.417988e+01
5.759439e+01	-1.422781e+01
5.792705e+01	-1.427652e+01
5.826164e+01	-1.432512e+01
5.859815e+01	-1.437322e+01
5.893662e+01	-1.442031e+01
5.927703e+01	-1.446925e+01
5.961941e+01	-1.451753e+01
5.996377e+01	-1.456612e+01
6.031012e+01	-1.461463e+01
6.065847e+01	-1.466336e+01
6.100883e+01	-1.471067e+01
6.136121e+01	-1.475839e+01
6.171563e+01	-1.480711e+01
6.207210e+01	-1.485623e+01
6.243063e+01	-1.490372e+01
6.279122e+01	-1.495252e+01
6.315390e+01	-1.500123e+01
6.351868e+01	-1.504931e+01
6.388556e+01	-1.509839e+01
6.425456e+01	-1.514662e+01
6.462569e+01	-1.519552e+01
6.499897e+01	-1.524316e+01
6.537440e+01	-1.529132e+01
6.575200e+01	-1.534044e+01
6.613178e+01	-1.538905e+01
6.651375e+01	-1.543822e+01
6.689793e+01	-1.548630e+01
6.728433e+01	-1.553477e+01
6.767297e+01	-1.558343e+01
6.806384e+01	-1.563223e+01
6.845698e+01	-1.567997e+01
6.885238e+01	-1.573075e+01
6.925007e+01	-1.577803e+01
6.965005e+01	-1.582617e+01
7.005235e+01	-1.587599e+01
7.045697e+01	-1.592407e+01
7.086393e+01	-1.597267e+01
7.127323e+01	-1.602206e+01
7.168490e+01	-1.607053e+01
7.209895e+01	-1.611961e+01
7.251539e+01	-1.616885e+01
7.293424e+01	-1.621719e+01
7.335551e+01	-1.626819e+01
7.377920e+01	-1.631643e+01
7.420535e+01	-1.636436e+01
7.463396e+01	-1.641273e+01
7.506504e+01	-1.646207e+01
7.549861e+01	-1.651106e+01
7.593469e+01	-1.655922e+01
7.637328e+01	-1.660824e+01
7.681441e+01	-1.665787e+01
7.725809e+01	-1.670565e+01
7.770433e+01	-1.675563e+01
7.815315e+01	-1.680340e+01
7.860456e+01	-1.685318e+01
7.905857e+01	-1.690281e+01
7.951521e+01	-1.695235e+01
7.997449e+01	-1.700067e+01
8.043642e+01	-1.704946e+01
8.090102e+01	-1.709771e+01
8.136830e+01	-1.714650e+01
8.183828e+01	-1.719622e+01
8.231097e+01	-1.724584e+01
8.278640e+01	-1.729419e+01
8.326457e+01	-1.734336e+01
8.374550e+01	-1.739445e+01
8.422921e+01	-1.744266e+01
8.471572e+01	-1.749064e+01
8.520503e+01	-1.754150e+01
8.569717e+01	-1.759038e+01
8.619215e+01	-1.763877e+01
8.669000e+01	-1.768881e+01
8.719071e+01	-1.773765e+01
8.769432e+01	-1.778674e+01
8.820084e+01	-1.783593e+01
8.871029e+01	-1.788470e+01
8.922267e+01	-1.793412e+01
8.973802e+01	-1.798430e+01
9.025634e+01	-1.803096e+01
9.077766e+01	-1.808257e+01
9.130199e+01	-1.813026e+01
9.182935e+01	-1.817959e+01
9.235975e+01	-1.822933e+01
9.289321e+01	-1.827897e+01
9.342976e+01	-1.832790e+01
9.396941e+01	-1.837705e+01
9.451217e+01	-1.842587e+01
9.505807e+01	-1.847757e+01
9.560712e+01	-1.852631e+01
9.615934e+01	-1.857354e+01
9.671476e+01	-1.862375e+01
9.727338e+01	-1.867231e+01
9.783522e+01	-1.872342e+01
9.840032e+01	-1.877195e+01
9.896867e+01	-1.882254e+01
9.954031e+01	-1.887046e+01
1.001153e+02	-1.891960e+01
1.006935e+02	-1.896997e+01
1.012751e+02	-1.901845e+01
1.018601e+02	-1.906766e+01
1.024484e+02	-1.911859e+01
1.030402e+02	-1.916723e+01
1.036353e+02	-1.921673e+01
1.042339e+02	-1.926618e+01
1.048360e+02	-1.931545e+01
1.054415e+02	-1.936521e+01
1.060505e+02	-1.941558e+01
1.066631e+02	-1.946367e+01
1.072791e+02	-1.951359e+01
1.078988e+02	-1.956279e+01
1.085220e+02	-1.961251e+01
1.091488e+02	-1.966219e+01
1.097793e+02	-1.971118e+01
1.104133e+02	-1.976090e+01
1.110511e+02	-1.980865e+01
1.116925e+02	-1.986005e+01
1.123376e+02	-1.990838e+01
1.129865e+02	-1.995924e+01
1.136391e+02	-2.000946e+01
1.142955e+02	-2.005968e+01
1.149556e+02	-2.010869e+01
1.156196e+02	-2.015675e+01
1.162874e+02	-2.020797e+01
1.169591e+02	-2.025608e+01
1.176347e+02	-2.030633e+01
1.183141e+02	-2.035599e+01
1.189975e+02	-2.040386e+01
1.196848e+02	-2.045543e+01
1.203761e+02	-2.050334e+01
1.210714e+02	-2.055248e+01
1.217707e+02	-2.060375e+01
1.224740e+02	-2.065258e+01
1.231814e+02	-2.070230e+01
1.238929e+02	-2.075278e+01
1.246085e+02	-2.080083e+01
1.253283e+02	-2.085304e+01
1.260522e+02	-2.090021e+01
1.267802e+02	-2.094941e+01
1.275125e+02	-2.099953e+01
1.282490e+02	-2.105161e+01
1.289898e+02	-2.109900e+01
1.297348e+02	-2.114908e+01
1.304842e+02	-2.119776e+01
1.312378e+02	-2.124887e+01
1.319959e+02	-2.129895e+01
1.327583e+02	-2.134732e+01
1.335251e+02	-2.139861e+01
1.342963e+02	-2.144934e+01
1.350720e+02	-2.149694e+01
1.358522e+02	-2.154673e+01
1.366368e+02	-2.159705e+01
1.374260e+02	-2.164842e+01
1.382198e+02	-2.169675e+01
1.390182e+02	-2.174555e+01
1.398211e+02	-2.179408e+01
1.406287e+02	-2.184521e+01
1.414410e+02	-2.189473e+01
1.422579e+02	-2.194575e+01
1.430796e+02	-2.199393e+01
1.439060e+02	-2.204272e+01
1.447372e+02	-2.209374e+01
1.455732e+02	-2.214457e+01
1.464141e+02	-2.219272e+01
1.472597e+02	-2.224372e+01
1.481103e+02	-2.229073e+01
1.489658e+02	-2.234347e+01
1.498262e+02	-2.239371e+01
1.506916e+02	-2.244175e+01
1.515620e+02	-2.249166e+01
1.524374e+02	-2.254196e+01
1.533179e+02	-2.259281e+01
1.542034e+02	-2.264019e+01
1.550941e+02	-2.268913e+01
1.559899e+02	-2.273929e+01
1.568909e+02	-2.278934e+01
1.577971e+02	-2.284049e+01
1.587085e+02	-2.289059e+01
1.596252e+02	-2.294002e+01
1.605472e+02	-2.298793e+01
1.614745e+02	-2.303931e+01
1.624072e+02	-2.308731e+01
1.633453e+02	-2.313927e+01
1.642887e+02	-2.318715e+01
1.652377e+02	-2.323974e+01
1.661921e+02	-2.328846e+01
1.671520e+02	-2.333706e+01
1.681175e+02	-2.338764e+01
1.690885e+02	-2.343482e+01
1.700651e+02	-2.348690e+01
1.710474e+02	-2.353612e+01
1.720354e+02	-2.358485e+01
1.730291e+02	-2.363442e+01
1.740285e+02	-2.368751e+01
1.750337e+02	-2.373550e+01
1.760446e+02	-2.378572e+01
1.770615e+02	-2.383533e+01
1.780842e+02	-2.388660e+01
1.791128e+02	-2.393694e+01
1.801473e+02	-2.398539e+01
1.811878e+02	-2.403444e+01
1.822344e+02	-2.408639e+01
1.832870e+02	-2.413309e+01
1.843456e+02	-2.418464e+01
1.854104e+02	-2.423275e+01
1.864813e+02	-2.428473e+01
1.875584e+02	-2.433371e+01
1.886418e+02	-2.438361e+01
1.897313e+02	-2.443600e+01
1.908272e+02	-2.448405e+01
1.919294e+02	-2.453609e+01
1.930380e+02	-2.458284e+01
1.941530e+02	-2.463212e+01
1.952744e+02	-2.468624e+01
1.964023e+02	-2.473489e+01
1.975367e+02	-2.478252e+01
1.986777e+02	-2.483278e+01
1.998252e+02	-2.488086e+01
2.009794e+02	-2.493321e+01
2.021403e+02	-2.498471e+01
2.033078e+02	-2.503273e+01
2.044821e+02	-2.508285e+01
2.056632e+02	-2.513346e+01
2.068511e+02	-2.518280e+01
2.080459e+02	-2.523627e+01
2.092475e+02	-2.527973e+01
2.104561e+02	-2.533291e+01
2.116717e+02	-2.538263e+01
2.128943e+02	-2.542953e+01
2.141240e+02	-2.547942e+01
2.153608e+02	-2.553157e+01
2.166047e+02	-2.558109e+01
2.178558e+02	-2.563129e+01
2.191141e+02	-2.568309e+01
2.203797e+02	-2.573332e+01
2.216526e+02	-2.578081e+01
2.229329e+02	-2.583116e+01
2.242205e+02	-2.588408e+01
2.255156e+02	-2.593062e+01
2.268182e+02	-2.598356e+01
2.281283e+02	-2.602879e+01
2.294459e+02	-2.608280e+01
2.307712e+02	-2.613115e+01
2.321041e+02	-2.618272e+01
2.334447e+02	-2.623319e+01
2.347931e+02	-2.628344e+01
2.361493e+02	-2.633194e+01
2.375133e+02	-2.638320e+01
2.388851e+02	-2.642737e+01
2.402649e+02	-2.648101e+01
2.416527e+02	-2.653355e+01
2.430484e+02	-2.657993e+01
2.444523e+02	-2.663277e+01
2.458642e+02	-2.668234e+01
2.472843e+02	-2.673045e+01
2.487126e+02	-2.678347e+01
2.501492e+02	-2.683099e+01
2.515940e+02	-2.688146e+01
2.530472e+02	-2.693052e+01
2.545088e+02	-2.697989e+01
2.559789e+02	-2.703312e+01
2.574574e+02	-2.708138e+01
2.589444e+02	-2.712989e+01
2.604401e+02	-2.717881e+01
2.619444e+02	-2.723289e+01
2.634574e+02	-2.728158e+01
2.649791e+02	-2.733146e+01
2.665096e+02	-2.738210e+01
2.680489e+02	-2.742972e+01
2.695972e+02	-2.748003e+01
2.711544e+02	-2.753110e+01
2.727205e+02	-2.757721e+01
2.742958e+02	-2.762850e+01
2.758801e+02	-2.768235e+01
2.774736e+02	-2.773119e+01
2.790762e+02	-2.778281e+01
2.806882e+02	-2.782948e+01
2.823094e+02	-2.788459e+01
2.839400e+02	-2.793396e+01
2.855800e+02	-2.798101e+01
2.872295e+02	-2.802897e+01
2.888886e+02	-2.808552e+01
2.905572e+02	-2.813061e+01
2.922354e+02	-2.818022e+01
2.939234e+02	-2.823408e+01
2.956211e+02	-2.828094e+01
2.973286e+02	-2.833170e+01
2.990459e+02	-2.838039e+01
3.007732e+02	-2.842918e+01
3.025104e+02	-2.848154e+01
3.042577e+02	-2.853014e+01
3.060151e+02	-2.858135e+01
3.077826e+02	-2.863537e+01
3.095604e+02	-2.868156e+01
3.113484e+02	-2.872810e+01
3.131467e+02	-2.877732e+01
3.149554e+02	-2.883313e+01
3.167746e+02	-2.888305e+01
3.186043e+02	-2.892634e+01
3.204445e+02	-2.898036e+01
3.222954e+02	-2.903213e+01
3.241570e+02	-2.908448e+01
3.260293e+02	-2.912996e+01
3.279124e+02	-2.918551e+01
3.298064e+02	-2.923084e+01
3.317114e+02	-2.928326e+01
3.336273e+02	-2.932998e+01
3.355544e+02	-2.938237e+01
3.374925e+02	-2.943366e+01
3.394418e+02	-2.948851e+01
3.414024e+02	-2.953659e+01
3.433744e+02	-2.958711e+01
3.453577e+02	-2.963528e+01
3.473525e+02	-2.968392e+01
3.493588e+02	-2.973806e+01
3.513766e+02	-2.978299e+01
3.534062e+02	-2.983239e+01
3.554474e+02	-2.988678e+01
3.575005e+02	-2.993509e+01
3.595654e+02	-2.998352e+01
3.616422e+02	-3.002803e+01
3.637311e+02	-3.008012e+01
3.658320e+02	-3.013109e+01
3.679450e+02	-3.018512e+01
3.700702e+02	-3.022961e+01
3.722077e+02	-3.028448e+01
3.743576e+02	-3.033086e+01
3.765199e+02	-3.038098e+01
3.786946e+02	-3.043133e+01
3.808820e+02	-3.048394e+01
3.830819e+02	-3.053321e+01
3.852946e+02	-3.058338e+01
3.875200e+02	-3.063484e+01
3.897583e+02	-3.068316e+01
3.920096e+02	-3.073601e+01
3.942738e+02	-3.078244e+01
3.965511e+02	-3.084061e+01
3.988416e+02	-3.088582e+01
4.011452e+02	-3.093400e+01
4.034622e+02	-3.098381e+01
4.057926e+02	-3.103891e+01
4.081365e+02	-3.108338e+01
4.104938e+02	-3.113885e+01
4.128648e+02	-3.118193e+01
4.152495e+02	-3.123847e+01
4.176480e+02	-3.128638e+01
4.200603e+02	-3.133866e+01
4.224866e+02	-3.138361e+01
4.249268e+02	-3.143679e+01
4.273812e+02	-3.148248e+01
4.298497e+02	-3.153536e+01
4.323325e+02	-3.158640e+01
4.348297e+02	-3.162980e+01
4.373412e+02	-3.168914e+01
4.398673e+02	-3.173919e+01
4.424079e+02	-3.179220e+01
4.449633e+02	-3.183916e+01
4.475334e+02	-3.189042e+01
4.501183e+02	-3.193751e+01
4.527182e+02	-3.198396e+01
4.553330e+02	-3.204015e+01
4.579630e+02	-3.209070e+01
4.606082e+02	-3.213101e+01
4.632687e+02	-3.219430e+01
4.659445e+02	-3.224593e+01
4.686358e+02	-3.228857e+01
4.713426e+02	-3.234295e+01
4.740650e+02	-3.239343e+01
4.768032e+02	-3.243484e+01
4.795572e+02	-3.249141e+01
4.823271e+02	-3.254279e+01
4.851130e+02	-3.259178e+01
4.879150e+02	-3.263936e+01
4.907332e+02	-3.268640e+01
4.935676e+02	-3.274237e+01
4.964185e+02	-3.278807e+01
4.992858e+02	-3.284140e+01
5.021696e+02	-3.288825e+01
5.050701e+02	-3.293952e+01
5.079874e+02	-3.299960e+01
5.109215e+02	-3.304751e+01
5.138726e+02	-3.308701e+01
5.168407e+02	-3.314503e+01
5.198259e+02	-3.319647e+01
5.228284e+02	-3.324235e+01
5.258482e+02	-3.329784e+01
5.288855e+02	-3.334041e+01
5.319403e+02	-3.339546e+01
5.350128e+02	-3.344998e+01
5.381030e+02	-3.348766e+01
5.412111e+02	-3.355122e+01
5.443371e+02	-3.358908e+01
5.474812e+02	-3.364603e+01
5.506434e+02	-3.370001e+01
5.538239e+02	-3.375340e+01
5.570228e+02	-3.379099e+01
5.602401e+02	-3.384759e+01
5.634760e+02	-3.389201e+01
5.667306e+02	-3.394932e+01
5.700040e+02	-3.399236e+01
5.732964e+02	-3.405140e+01
5.766077e+02	-3.410127e+01
5.799382e+02	-3.415476e+01
5.832879e+02	-3.419358e+01
5.866569e+02	-3.424493e+01
5.900454e+02	-3.430159e+01
5.934535e+02	-3.433850e+01
5.968813e+02	-3.440007e+01
6.003288e+02	-3.445111e+01
6.037963e+02	-3.450213e+01
6.072838e+02	-3.454972e+01
6.107914e+02	-3.460517e+01
6.143194e+02	-3.465196e+01
6.178676e+02	-3.469732e+01
6.214364e+02	-3.475069e+01
6.250258e+02	-3.480942e+01
6.286359e+02	-3.485520e+01
6.322669e+02	-3.489362e+01
6.359189e+02	-3.495096e+01
6.395919e+02	-3.500546e+01
6.432862e+02	-3.504842e+01
6.470017e+02	-3.510352e+01
6.507388e+02	-3.516042e+01
6.544974e+02	-3.520829e+01
6.582778e+02	-3.525239e+01
6.620800e+02	-3.530920e+01
6.659041e+02	-3.536158e+01
6.697504e+02	-3.541309e+01
6.736188e+02	-3.545622e+01
6.775096e+02	-3.550384e+01
6.814229e+02	-3.555274e+01
6.853587e+02	-3.559699e+01
6.893173e+02	-3.566061e+01
6.932988e+02	-3.571346e+01
6.973033e+02	-3.576208e+01
7.013309e+02	-3.580653e+01
