Frequency(Hz)	Magnitude(dB)
1.000000e+01	-1.649524e-05
1.005776e+01	-1.668634e-05
1.011585e+01	-1.687966e-05
1.017428e+01	-1.707521e-05
1.023305e+01	-1.727303e-05
1.029215e+01	-1.747315e-05
1.035160e+01	-1.767558e-05
1.041139e+01	-1.788035e-05
1.047153e+01	-1.808750e-05
1.053201e+01	-1.829705e-05
1.059284e+01	-1.850903e-05
1.065403e+01	-1.872346e-05
1.071556e+01	-1.894037e-05
1.077746e+01	-1.915980e-05
1.083971e+01	-1.938177e-05
1.090232e+01	-1.960632e-05
1.096529e+01	-1.983346e-05
1.102862e+01	-2.006324e-05
1.109232e+01	-2.029568e-05
1.115639e+01	-2.053081e-05
1.122083e+01	-2.076866e-05
1.128564e+01	-2.100927e-05
1.135083e+01	-2.125267e-05
1.141639e+01	-2.149889e-05
1.148233e+01	-2.174796e-05
1.154865e+01	-2.199991e-05
1.161536e+01	-2.225479e-05
1.168245e+01	-2.251261e-05
1.174992e+01	-2.277343e-05
1.181779e+01	-2.303726e-05
1.188605e+01	-2.330416e-05
1.195470e+01	-2.357414e-05
1.202375e+01	-2.384725e-05
1.209320e+01	-2.412353e-05
1.216305e+01	-2.440301e-05
1.223330e+01	-2.468572e-05
1.230396e+01	-2.497171e-05
1.237503e+01	-2.526101e-05
1.244651e+01	-2.555367e-05
1.251840e+01	-2.584971e-05
1.259070e+01	-2.614919e-05
1.266343e+01	-2.645213e-05
1.273657e+01	-2.675859e-05
1.281014e+01	-2.706859e-05
1.288413e+01	-2.738219e-05
1.295855e+01	-2.769942e-05
1.303339e+01	-2.802032e-05
1.310867e+01	-2.834495e-05
1.318439e+01	-2.867333e-05
1.326054e+01	-2.900552e-05
1.333713e+01	-2.934155e-05
1.341417e+01	-2.968148e-05
1.349165e+01	-3.002535e-05
1.356958e+01	-3.037320e-05
1.364795e+01	-3.072508e-05
1.372678e+01	-3.108104e-05
1.380607e+01	-3.144112e-05
1.388581e+01	-3.180537e-05
1.396602e+01	-3.217384e-05
1.404668e+01	-3.254659e-05
1.412782e+01	-3.292365e-05
1.420942e+01	-3.330507e-05
1.429149e+01	-3.369092e-05
1.437404e+01	-3.408124e-05
1.445706e+01	-3.447608e-05
1.454057e+01	-3.487549e-05
1.462455e+01	-3.527953e-05
1.470902e+01	-3.568825e-05
1.479398e+01	-3.610171e-05
1.487943e+01	-3.651996e-05
1.496537e+01	-3.694305e-05
1.505181e+01	-3.737104e-05
1.513875e+01	-3.780399e-05
1.522619e+01	-3.824196e-05
1.531414e+01	-3.868500e-05
1.540259e+01	-3.913318e-05
1.549156e+01	-3.958655e-05
1.558103e+01	-4.004516e-05
1.567103e+01	-4.050910e-05
1.576155e+01	-4.097840e-05
1.585258e+01	-4.145315e-05
1.594415e+01	-4.193339e-05
1.603624e+01	-4.241920e-05
1.612886e+01	-4.291064e-05
1.622202e+01	-4.340776e-05
1.631572e+01	-4.391065e-05
1.640996e+01	-4.441937e-05
1.650474e+01	-4.493398e-05
1.660008e+01	-4.545455e-05
1.669596e+01	-4.598115e-05
1.679239e+01	-4.651385e-05
1.688938e+01	-4.705272e-05
1.698694e+01	-4.759784e-05
1.708505e+01	-4.814927e-05
1.718373e+01	-4.870709e-05
1.728299e+01	-4.927137e-05
1.738281e+01	-4.984219e-05
1.748322e+01	-5.041962e-05
1.758420e+01	-5.100374e-05
1.768576e+01	-5.159463e-05
1.778792e+01	-5.219237e-05
1.789066e+01	-5.279703e-05
1.799399e+01	-5.340869e-05
1.809793e+01	-5.402744e-05
1.820246e+01	-5.465336e-05
1.830760e+01	-5.528653e-05
1.841334e+01	-5.592704e-05
1.851969e+01	-5.657496e-05
1.862666e+01	-5.723040e-05
1.873425e+01	-5.789342e-05
1.884246e+01	-5.856413e-05
1.895129e+01	-5.924261e-05
1.906075e+01	-5.992894e-05
1.917085e+01	-6.062323e-05
1.928158e+01	-6.132557e-05
1.939295e+01	-6.203603e-05
1.950496e+01	-6.275473e-05
1.961762e+01	-6.348176e-05
1.973093e+01	-6.421721e-05
1.984490e+01	-6.496118e-05
1.995952e+01	-6.571376e-05
2.007480e+01	-6.647507e-05
2.019076e+01	-6.724520e-05
2.030738e+01	-6.802425e-05
2.042467e+01	-6.881232e-05
2.054264e+01	-6.960952e-05
2.066130e+01	-7.041596e-05
2.078064e+01	-7.123174e-05
2.090066e+01	-7.205698e-05
2.102139e+01	-7.289177e-05
2.114280e+01	-7.373623e-05
2.126492e+01	-7.459048e-05
2.138775e+01	-7.545463e-05
2.151128e+01	-7.632878e-05
2.163553e+01	-7.721306e-05
2.176050e+01	-7.810759e-05
2.188619e+01	-7.901248e-05
2.201260e+01	-7.992785e-05
2.213974e+01	-8.085383e-05
2.226762e+01	-8.179054e-05
2.239624e+01	-8.273809e-05
2.252560e+01	-8.369663e-05
2.265571e+01	-8.466627e-05
2.278656e+01	-8.564714e-05
2.291818e+01	-8.663938e-05
2.305055e+01	-8.764311e-05
2.318369e+01	-8.865847e-05
2.331760e+01	-8.968559e-05
2.345228e+01	-9.072461e-05
2.358774e+01	-9.177567e-05
2.372398e+01	-9.283891e-05
2.386101e+01	-9.391446e-05
2.399883e+01	-9.500247e-05
2.413745e+01	-9.610309e-05
2.427686e+01	-9.721646e-05
2.441709e+01	-9.834273e-05
2.455812e+01	-9.948204e-05
2.469997e+01	-1.006346e-04
2.484263e+01	-1.018004e-04
2.498612e+01	-1.029798e-04
2.513044e+01	-1.041728e-04
2.527559e+01	-1.053797e-04
2.542158e+01	-1.066005e-04
2.556842e+01	-1.078355e-04
2.571610e+01	-1.090848e-04
2.586463e+01	-1.103486e-04
2.601403e+01	-1.116270e-04
2.616428e+01	-1.129202e-04
2.631541e+01	-1.142284e-04
2.646740e+01	-1.155517e-04
2.662028e+01	-1.168904e-04
2.677404e+01	-1.182446e-04
2.692868e+01	-1.196145e-04
2.708422e+01	-1.210002e-04
2.724066e+01	-1.224020e-04
2.739800e+01	-1.238201e-04
2.755625e+01	-1.252545e-04
2.771541e+01	-1.267056e-04
2.787550e+01	-1.281735e-04
2.803650e+01	-1.296584e-04
2.819844e+01	-1.311605e-04
2.836131e+01	-1.326800e-04
2.852513e+01	-1.342171e-04
2.868989e+01	-1.357721e-04
2.885560e+01	-1.373450e-04
2.902227e+01	-1.389361e-04
2.918990e+01	-1.405457e-04
2.935850e+01	-1.421740e-04
2.952807e+01	-1.438211e-04
2.969863e+01	-1.454872e-04
2.987016e+01	-1.471727e-04
3.004269e+01	-1.488777e-04
3.021622e+01	-1.506025e-04
3.039075e+01	-1.523472e-04
3.056628e+01	-1.541122e-04
3.074283e+01	-1.558976e-04
3.092040e+01	-1.577037e-04
3.109900e+01	-1.595307e-04
3.127862e+01	-1.613789e-04
3.145929e+01	-1.632484e-04
3.164099e+01	-1.651397e-04
3.182375e+01	-1.670528e-04
3.200756e+01	-1.689882e-04
3.219244e+01	-1.709459e-04
3.237838e+01	-1.729263e-04
3.256540e+01	-1.749297e-04
3.275349e+01	-1.769562e-04
3.294268e+01	-1.790063e-04
3.313295e+01	-1.810801e-04
3.332433e+01	-1.831779e-04
3.351681e+01	-1.853000e-04
3.371040e+01	-1.874467e-04
3.390511e+01	-1.896183e-04
3.410094e+01	-1.918150e-04
3.429791e+01	-1.940372e-04
3.449601e+01	-1.962851e-04
3.469526e+01	-1.985591e-04
3.489566e+01	-2.008594e-04
3.509721e+01	-2.031864e-04
3.529993e+01	-2.055403e-04
3.550382e+01	-2.079215e-04
3.570889e+01	-2.103302e-04
3.591515e+01	-2.127669e-04
3.612259e+01	-2.152318e-04
3.633123e+01	-2.177253e-04
3.654108e+01	-2.202476e-04
3.675214e+01	-2.227992e-04
3.696442e+01	-2.253803e-04
3.717792e+01	-2.279913e-04
3.739266e+01	-2.306326e-04
3.760864e+01	-2.333045e-04
3.782587e+01	-2.360073e-04
3.804435e+01	-2.387414e-04
3.826409e+01	-2.415072e-04
3.848510e+01	-2.443051e-04
3.870739e+01	-2.471353e-04
3.893096e+01	-2.499984e-04
3.915583e+01	-2.528946e-04
3.938199e+01	-2.558244e-04
3.960946e+01	-2.587881e-04
3.983824e+01	-2.617861e-04
4.006834e+01	-2.648189e-04
4.029978e+01	-2.678868e-04
4.053255e+01	-2.709903e-04
4.076666e+01	-2.741297e-04
4.100213e+01	-2.773054e-04
4.123896e+01	-2.805180e-04
4.147715e+01	-2.837677e-04
4.171672e+01	-2.870552e-04
4.195767e+01	-2.903807e-04
4.220002e+01	-2.937447e-04
4.244377e+01	-2.971477e-04
4.268892e+01	-3.005901e-04
4.293549e+01	-3.040724e-04
4.318348e+01	-3.075951e-04
4.343291e+01	-3.111585e-04
4.368377e+01	-3.147632e-04
4.393609e+01	-3.184097e-04
4.418986e+01	-3.220984e-04
4.444510e+01	-3.258299e-04
4.470182e+01	-3.296046e-04
4.496001e+01	-3.334230e-04
4.521970e+01	-3.372856e-04
4.548089e+01	-3.411930e-04
4.574358e+01	-3.451457e-04
4.600779e+01	-3.491442e-04
4.627353e+01	-3.531889e-04
4.654081e+01	-3.572805e-04
4.680963e+01	-3.614196e-04
4.708000e+01	-3.656065e-04
4.735193e+01	-3.698420e-04
4.762543e+01	-3.741265e-04
4.790051e+01	-3.784607e-04
4.817719e+01	-3.828451e-04
4.845545e+01	-3.872803e-04
4.873533e+01	-3.917668e-04
4.901682e+01	-3.963053e-04
4.929994e+01	-4.008964e-04
4.958470e+01	-4.055407e-04
4.987110e+01	-4.102388e-04
5.015915e+01	-4.149913e-04
5.044887e+01	-4.197988e-04
5.074026e+01	-4.246621e-04
5.103333e+01	-4.295817e-04
5.132810e+01	-4.345582e-04
5.162457e+01	-4.395925e-04
5.192275e+01	-4.446850e-04
5.222265e+01	-4.498365e-04
5.252429e+01	-4.550478e-04
5.282767e+01	-4.603193e-04
5.313280e+01	-4.656520e-04
5.343969e+01	-4.710464e-04
5.374836e+01	-4.765033e-04
5.405880e+01	-4.820234e-04
5.437105e+01	-4.876075e-04
5.468509e+01	-4.932562e-04
5.500095e+01	-4.989704e-04
5.531863e+01	-5.047508e-04
5.563815e+01	-5.105981e-04
5.595951e+01	-5.165132e-04
5.628273e+01	-5.224968e-04
5.660782e+01	-5.285497e-04
5.693479e+01	-5.346727e-04
5.726364e+01	-5.408666e-04
5.759439e+01	-5.471323e-04
5.792705e+01	-5.534706e-04
5.826164e+01	-5.598823e-04
5.859815e+01	-5.663682e-04
5.893662e+01	-5.729293e-04
5.927703e+01	-5.795664e-04
5.961941e+01	-5.862804e-04
5.996377e+01	-5.930722e-04
6.031012e+01	-5.999426e-04
6.065847e+01	-6.068926e-04
6.100883e+01	-6.139232e-04
6.136121e+01	-6.210351e-04
6.171563e+01	-6.282295e-04
6.207210e+01	-6.355071e-04
6.243063e+01	-6.428691e-04
6.279122e+01	-6.503164e-04
6.315390e+01	-6.578499e-04
6.351868e+01	-6.654707e-04
6.388556e+01	-6.731797e-04
6.425456e+01	-6.809781e-04
6.462569e+01	-6.888668e-04
6.499897e+01	-6.968469e-04
6.537440e+01	-7.049194e-04
6.575200e+01	-7.130854e-04
6.613178e+01	-7.213460e-04
6.651375e+01	-7.297023e-04
6.689793e+01	-7.381554e-04
6.728433e+01	-7.467064e-04
6.767297e+01	-7.553564e-04
6.806384e+01	-7.641067e-04
6.845698e+01	-7.729583e-04
6.885238e+01	-7.819124e-04
6.925007e+01	-7.909702e-04
6.965005e+01	-8.001330e-04
7.005235e+01	-8.094019e-04
7.045697e+01	-8.187781e-04
7.086393e+01	-8.282630e-04
7.127323e+01	-8.378577e-04
7.168490e+01	-8.475636e-04
7.209895e+01	-8.573819e-04
7.251539e+01	-8.673139e-04
7.293424e+01	-8.773609e-04
7.335551e+01	-8.875244e-04
7.377920e+01	-8.978055e-04
7.420535e+01	-9.082058e-04
7.463396e+01	-9.187265e-04
7.506504e+01	-9.293690e-04
7.549861e+01	-9.401348e-04
7.593469e+01	-9.510254e-04
7.637328e+01	-9.620420e-04
7.681441e+01	-9.731863e-04
7.725809e+01	-9.844597e-04
7.770433e+01	-9.958636e-04
7.815315e+01	-1.007400e-03
7.860456e+01	-1.019069e-03
7.905857e+01	-1.030874e-03
7.951521e+01	-1.042816e-03
7.997449e+01	-1.054895e-03
8.043642e+01	-1.067115e-03
8.090102e+01	-1.079476e-03
8.136830e+01	-1.091981e-03
8.183828e+01	-1.104630e-03
8.231097e+01	-1.117426e-03
8.278640e+01	-1.130370e-03
8.326457e+01	-1.143464e-03
8.374550e+01	-1.156709e-03
8.422921e+01	-1.170108e-03
8.471572e+01	-1.183663e-03
8.520503e+01	-1.197374e-03
8.569717e+01	-1.211244e-03
8.619215e+01	-1.225274e-03
8.669000e+01	-1.239467e-03
8.719071e+01	-1.253825e-03
8.769432e+01	-1.268349e-03
8.820084e+01	-1.283041e-03
8.871029e+01	-1.297903e-03
8.922267e+01	-1.312937e-03
8.973802e+01	-1.328146e-03
9.025634e+01	-1.343530e-03
9.077766e+01	-1.359093e-03
9.130199e+01	-1.374836e-03
9.182935e+01	-1.390761e-03
9.235975e+01	-1.406871e-03
9.289321e+01	-1.423167e-03
9.342976e+01	-1.439652e-03
9.396941e+01	-1.456328e-03
9.451217e+01	-1.473197e-03
9.505807e+01	-1.490262e-03
9.560712e+01	-1.507524e-03
9.615934e+01	-1.524986e-03
9.671476e+01	-1.542650e-03
9.727338e+01	-1.560519e-03
9.783522e+01	-1.578595e-03
9.840032e+01	-1.596880e-03
9.896867e+01	-1.615376e-03
9.954031e+01	-1.634087e-03
1.001153e+02	-1.653015e-03
1.006935e+02	-1.672162e-03
1.012751e+02	-1.691531e-03
1.018601e+02	-1.711124e-03
1.024484e+02	-1.730944e-03
1.030402e+02	-1.750993e-03
1.036353e+02	-1.771275e-03
1.042339e+02	-1.791791e-03
1.048360e+02	-1.812545e-03
1.054415e+02	-1.833540e-03
1.060505e+02	-1.854777e-03
1.066631e+02	-1.876261e-03
1.072791e+02	-1.897993e-03
1.078988e+02	-1.919977e-03
1.085220e+02	-1.942215e-03
1.091488e+02	-1.964711e-03
1.097793e+02	-1.987468e-03
1.104133e+02	-2.010488e-03
1.110511e+02	-2.033774e-03
1.116925e+02	-2.057330e-03
1.123376e+02	-2.081159e-03
1.129865e+02	-2.105264e-03
1.136391e+02	-2.129648e-03
1.142955e+02	-2.154315e-03
1.149556e+02	-2.179267e-03
1.156196e+02	-2.204508e-03
1.162874e+02	-2.230041e-03
1.169591e+02	-2.255870e-03
1.176347e+02	-2.281998e-03
1.183141e+02	-2.308428e-03
1.189975e+02	-2.335165e-03
1.196848e+02	-2.362211e-03
1.203761e+02	-2.389570e-03
1.210714e+02	-2.417247e-03
1.217707e+02	-2.445243e-03
1.224740e+02	-2.473564e-03
1.231814e+02	-2.502212e-03
1.238929e+02	-2.531193e-03
1.246085e+02	-2.560509e-03
1.253283e+02	-2.590164e-03
1.260522e+02	-2.620163e-03
1.267802e+02	-2.650509e-03
1.275125e+02	-2.681206e-03
1.282490e+02	-2.712259e-03
1.289898e+02	-2.743671e-03
1.297348e+02	-2.775447e-03
1.304842e+02	-2.807591e-03
1.312378e+02	-2.840107e-03
1.319959e+02	-2.872999e-03
1.327583e+02	-2.906273e-03
1.335251e+02	-2.939931e-03
1.342963e+02	-2.973979e-03
1.350720e+02	-3.008422e-03
1.358522e+02	-3.043263e-03
1.366368e+02	-3.078507e-03
1.374260e+02	-3.114160e-03
1.382198e+02	-3.150225e-03
1.390182e+02	-3.186708e-03
1.398211e+02	-3.223613e-03
1.406287e+02	-3.260945e-03
1.414410e+02	-3.298710e-03
1.422579e+02	-3.336912e-03
1.430796e+02	-3.375556e-03
1.439060e+02	-3.414647e-03
1.447372e+02	-3.454191e-03
1.455732e+02	-3.494192e-03
1.464141e+02	-3.534657e-03
1.472597e+02	-3.575590e-03
1.481103e+02	-3.616997e-03
1.489658e+02	-3.658883e-03
1.498262e+02	-3.701254e-03
1.506916e+02	-3.744116e-03
1.515620e+02	-3.787473e-03
1.524374e+02	-3.831333e-03
1.533179e+02	-3.875700e-03
1.542034e+02	-3.920580e-03
1.550941e+02	-3.965981e-03
1.559899e+02	-4.011906e-03
1.568909e+02	-4.058364e-03
1.577971e+02	-4.105358e-03
1.587085e+02	-4.152897e-03
1.596252e+02	-4.200986e-03
1.605472e+02	-4.249632e-03
1.614745e+02	-4.298841e-03
1.624072e+02	-4.348619e-03
1.633453e+02	-4.398973e-03
1.642887e+02	-4.449910e-03
1.652377e+02	-4.501437e-03
1.661921e+02	-4.553560e-03
1.671520e+02	-4.606286e-03
1.681175e+02	-4.659622e-03
1.690885e+02	-4.713576e-03
1.700651e+02	-4.768154e-03
1.710474e+02	-4.823363e-03
1.720354e+02	-4.879212e-03
1.730291e+02	-4.935707e-03
1.740285e+02	-4.992855e-03
1.750337e+02	-5.050665e-03
1.760446e+02	-5.109144e-03
1.770615e+02	-5.168299e-03
1.780842e+02	-5.228139e-03
1.791128e+02	-5.288671e-03
1.801473e+02	-5.349904e-03
1.811878e+02	-5.411845e-03
1.822344e+02	-5.474503e-03
1.832870e+02	-5.537886e-03
1.843456e+02	-5.602003e-03
1.854104e+02	-5.666861e-03
1.864813e+02	-5.732470e-03
1.875584e+02	-5.798837e-03
1.886418e+02	-5.865973e-03
1.897313e+02	-5.933885e-03
1.908272e+02	-6.002583e-03
1.919294e+02	-6.072076e-03
1.930380e+02	-6.142372e-03
1.941530e+02	-6.213482e-03
1.952744e+02	-6.285415e-03
1.964023e+02	-6.358180e-03
1.975367e+02	-6.431786e-03
1.986777e+02	-6.506244e-03
1.998252e+02	-6.581563e-03
2.009794e+02	-6.657754e-03
2.021403e+02	-6.734826e-03
2.033078e+02	-6.812789e-03
2.044821e+02	-6.891654e-03
2.056632e+02	-6.971431e-03
2.068511e+02	-7.052131e-03
2.080459e+02	-7.133765e-03
2.092475e+02	-7.216342e-03
2.104561e+02	-7.299875e-03
2.116717e+02	-7.384374e-03
2.128943e+02	-7.469850e-03
2.141240e+02	-7.556315e-03
2.153608e+02	-7.643779e-03
2.166047e+02	-7.732255e-03
2.178558e+02	-7.821754e-03
2.191141e+02	-7.912289e-03
2.203797e+02	-8.003870e-03
2.216526e+02	-8.096510e-03
2.229329e+02	-8.190221e-03
2.242205e+02	-8.285016e-03
2.255156e+02	-8.380908e-03
2.268182e+02	-8.477907e-03
2.281283e+02	-8.576029e-03
2.294459e+02	-8.675285e-03
2.307712e+02	-8.775688e-03
2.321041e+02	-8.877253e-03
2.334447e+02	-8.979991e-03
2.347931e+02	-9.083918e-03
2.361493e+02	-9.189045e-03
2.375133e+02	-9.295389e-03
2.388851e+02	-9.402961e-03
2.402649e+02	-9.511777e-03
2.416527e+02	-9.621851e-03
2.430484e+02	-9.733197e-03
2.444523e+02	-9.845831e-03
2.458642e+02	-9.959766e-03
2.472843e+02	-1.007502e-02
2.487126e+02	-1.019160e-02
2.501492e+02	-1.030953e-02
2.515940e+02	-1.042883e-02
2.530472e+02	-1.054950e-02
2.545088e+02	-1.067157e-02
2.559789e+02	-1.079505e-02
2.574574e+02	-1.091995e-02
2.589444e+02	-1.104630e-02
2.604401e+02	-1.117411e-02
2.619444e+02	-1.130340e-02
2.634574e+02	-1.143418e-02
2.649791e+02	-1.156647e-02
2.665096e+02	-1.170029e-02
2.680489e+02	-1.183565e-02
2.695972e+02	-1.197258e-02
2.711544e+02	-1.211109e-02
2.727205e+02	-1.225121e-02
2.742958e+02	-1.239294e-02
2.758801e+02	-1.253630e-02
2.774736e+02	-1.268133e-02
2.790762e+02	-1.282803e-02
2.806882e+02	-1.297642e-02
2.823094e+02	-1.312653e-02
2.839400e+02	-1.327837e-02
2.855800e+02	-1.343196e-02
2.872295e+02	-1.358733e-02
2.888886e+02	-1.374449e-02
2.905572e+02	-1.390347e-02
2.922354e+02	-1.406428e-02
2.939234e+02	-1.422695e-02
2.956211e+02	-1.439150e-02
2.973286e+02	-1.455795e-02
2.990459e+02	-1.472632e-02
3.007732e+02	-1.489664e-02
3.025104e+02	-1.506892e-02
3.042577e+02	-1.524319e-02
3.060151e+02	-1.541947e-02
3.077826e+02	-1.559779e-02
3.095604e+02	-1.577816e-02
3.113484e+02	-1.596062e-02
3.131467e+02	-1.614518e-02
3.149554e+02	-1.633187e-02
3.167746e+02	-1.652072e-02
3.186043e+02	-1.671175e-02
3.204445e+02	-1.690498e-02
3.222954e+02	-1.710044e-02
3.241570e+02	-1.729816e-02
3.260293e+02	-1.749816e-02
3.279124e+02	-1.770046e-02
3.298064e+02	-1.790510e-02
3.317114e+02	-1.811210e-02
3.336273e+02	-1.832149e-02
3.355544e+02	-1.853330e-02
3.374925e+02	-1.874755e-02
3.394418e+02	-1.896426e-02
3.414024e+02	-1.918348e-02
3.433744e+02	-1.940523e-02
3.453577e+02	-1.962954e-02
3.473525e+02	-1.985643e-02
3.493588e+02	-2.008594e-02
3.513766e+02	-2.031809e-02
3.534062e+02	-2.055292e-02
3.554474e+02	-2.079046e-02
3.575005e+02	-2.103074e-02
3.595654e+02	-2.127378e-02
3.616422e+02	-2.151963e-02
3.637311e+02	-2.176832e-02
3.658320e+02	-2.201987e-02
3.679450e+02	-2.227432e-02
3.700702e+02	-2.253170e-02
3.722077e+02	-2.279205e-02
3.743576e+02	-2.305540e-02
3.765199e+02	-2.332178e-02
3.786946e+02	-2.359123e-02
3.808820e+02	-2.386379e-02
3.830819e+02	-2.413949e-02
3.852946e+02	-2.441836e-02
3.875200e+02	-2.470044e-02
3.897583e+02	-2.498578e-02
3.920096e+02	-2.527440e-02
3.942738e+02	-2.556635e-02
3.965511e+02	-2.586165e-02
3.988416e+02	-2.616036e-02
4.011452e+02	-2.646251e-02
4.034622e+02	-2.676814e-02
4.057926e+02	-2.707728e-02
4.081365e+02	-2.738999e-02
4.104938e+02	-2.770629e-02
4.128648e+02	-2.802624e-02
4.152495e+02	-2.834987e-02
4.176480e+02	-2.867722e-02
4.200603e+02	-2.900834e-02
4.224866e+02	-2.934327e-02
4.249268e+02	-2.968205e-02
4.273812e+02	-3.002473e-02
4.298497e+02	-3.037136e-02
4.323325e+02	-3.072197e-02
4.348297e+02	-3.107662e-02
4.373412e+02	-3.143534e-02
4.398673e+02	-3.179819e-02
4.424079e+02	-3.216521e-02
4.449633e+02	-3.253645e-02
4.475334e+02	-3.291196e-02
4.501183e+02	-3.329179e-02
4.527182e+02	-3.367598e-02
4.553330e+02	-3.406460e-02
4.579630e+02	-3.445767e-02
4.606082e+02	-3.485527e-02
4.632687e+02	-3.525743e-02
4.659445e+02	-3.566421e-02
4.686358e+02	-3.607567e-02
4.713426e+02	-3.649186e-02
4.740650e+02	-3.691282e-02
4.768032e+02	-3.733863e-02
4.795572e+02	-3.776932e-02
4.823271e+02	-3.820495e-02
4.851130e+02	-3.864559e-02
4.879150e+02	-3.909129e-02
4.907332e+02	-3.954211e-02
4.935676e+02	-3.999810e-02
4.964185e+02	-4.045932e-02
4.992858e+02	-4.092584e-02
5.021696e+02	-4.139771e-02
5.050701e+02	-4.187500e-02
5.079874e+02	-4.235776e-02
5.109215e+02	-4.284606e-02
5.138726e+02	-4.333996e-02
5.168407e+02	-4.383952e-02
5.198259e+02	-4.434482e-02
5.228284e+02	-4.485590e-02
5.258482e+02	-4.537285e-02
5.288855e+02	-4.589572e-02
5.319403e+02	-4.642459e-02
5.350128e+02	-4.695952e-02
5.381030e+02	-4.750057e-02
5.412111e+02	-4.804783e-02
5.443371e+02	-4.860136e-02
5.474812e+02	-4.916122e-02
5.506434e+02	-4.972750e-02
5.538239e+02	-5.030026e-02
5.570228e+02	-5.087959e-02
5.602401e+02	-5.146554e-02
5.634760e+02	-5.205820e-02
5.667306e+02	-5.265765e-02
5.700040e+02	-5.326395e-02
5.732964e+02	-5.387720e-02
5.766077e+02	-5.449745e-02
5.799382e+02	-5.512481e-02
5.832879e+02	-5.575934e-02
5.866569e+02	-5.640112e-02
5.900454e+02	-5.705025e-02
5.934535e+02	-5.770679e-02
5.968813e+02	-5.837084e-02
6.003288e+02	-5.904248e-02
6.037963e+02	-5.972179e-02
6.072838e+02	-6.040887e-02
6.107914e+02	-6.110379e-02
6.143194e+02	-6.180665e-02
6.178676e+02	-6.251754e-02
6.214364e+02	-6.323655e-02
6.250258e+02	-6.396376e-02
6.286359e+02	-6.469927e-02
6.322669e+02	-6.544318e-02
6.359189e+02	-6.619557e-02
6.395919e+02	-6.695655e-02
6.432862e+02	-6.772620e-02
6.470017e+02	-6.850464e-02
6.507388e+02	-6.929195e-02
6.544974e+02	-7.008823e-02
6.582778e+02	-7.089359e-02
6.620800e+02	-7.170813e-02
6.659041e+02	-7.253195e-02
6.697504e+02	-7.336515e-02
6.736188e+02	-7.420784e-02
6.775096e+02	-7.506013e-02
6.814229e+02	-7.592212e-02
6.853587e+02	-7.679392e-02
6.893173e+02	-7.767564e-02
6.932988e+02	-7.856740e-02
6.973033e+02	-7.946929e-02
7.013309e+02	-8.038145e-02
