Frequency(Hz)	Magnitude(dB)
1.000000e+01	-1.727579e-05
1.005776e+01	-1.747593e-05
1.011585e+01	-1.767840e-05
1.017428e+01	-1.788320e-05
1.023305e+01	-1.809039e-05
1.029215e+01	-1.829997e-05
1.035160e+01	-1.851198e-05
1.041139e+01	-1.872644e-05
1.047153e+01	-1.894339e-05
1.053201e+01	-1.916286e-05
1.059284e+01	-1.938486e-05
1.065403e+01	-1.960944e-05
1.071556e+01	-1.983662e-05
1.077746e+01	-2.006644e-05
1.083971e+01	-2.029891e-05
1.090232e+01	-2.053408e-05
1.096529e+01	-2.077197e-05
1.102862e+01	-2.101262e-05
1.109232e+01	-2.125606e-05
1.115639e+01	-2.150231e-05
1.122083e+01	-2.175142e-05
1.128564e+01	-2.200342e-05
1.135083e+01	-2.225833e-05
1.141639e+01	-2.251620e-05
1.148233e+01	-2.277706e-05
1.154865e+01	-2.304094e-05
1.161536e+01	-2.330787e-05
1.168245e+01	-2.357790e-05
1.174992e+01	-2.385105e-05
1.181779e+01	-2.412737e-05
1.188605e+01	-2.440690e-05
1.195470e+01	-2.468966e-05
1.202375e+01	-2.497569e-05
1.209320e+01	-2.526504e-05
1.216305e+01	-2.555774e-05
1.223330e+01	-2.585383e-05
1.230396e+01	-2.615336e-05
1.237503e+01	-2.645635e-05
1.244651e+01	-2.676285e-05
1.251840e+01	-2.707291e-05
1.259070e+01	-2.738655e-05
1.266343e+01	-2.770383e-05
1.273657e+01	-2.802479e-05
1.281014e+01	-2.834946e-05
1.288413e+01	-2.867790e-05
1.295855e+01	-2.901014e-05
1.303339e+01	-2.934623e-05
1.310867e+01	-2.968621e-05
1.318439e+01	-3.003013e-05
1.326054e+01	-3.037804e-05
1.333713e+01	-3.072998e-05
1.341417e+01	-3.108599e-05
1.349165e+01	-3.144613e-05
1.356958e+01	-3.181044e-05
1.364795e+01	-3.217897e-05
1.372678e+01	-3.255177e-05
1.380607e+01	-3.292889e-05
1.388581e+01	-3.331038e-05
1.396602e+01	-3.369629e-05
1.404668e+01	-3.408667e-05
1.412782e+01	-3.448157e-05
1.420942e+01	-3.488105e-05
1.429149e+01	-3.528516e-05
1.437404e+01	-3.569394e-05
1.445706e+01	-3.610746e-05
1.454057e+01	-3.652578e-05
1.462455e+01	-3.694894e-05
1.470902e+01	-3.737700e-05
1.479398e+01	-3.781002e-05
1.487943e+01	-3.824806e-05
1.496537e+01	-3.869117e-05
1.505181e+01	-3.913942e-05
1.513875e+01	-3.959286e-05
1.522619e+01	-4.005155e-05
1.531414e+01	-4.051555e-05
1.540259e+01	-4.098494e-05
1.549156e+01	-4.145976e-05
1.558103e+01	-4.194008e-05
1.567103e+01	-4.242596e-05
1.576155e+01	-4.291748e-05
1.585258e+01	-4.341468e-05
1.594415e+01	-4.391765e-05
1.603624e+01	-4.442645e-05
1.612886e+01	-4.494114e-05
1.622202e+01	-4.546179e-05
1.631572e+01	-4.598848e-05
1.640996e+01	-4.652126e-05
1.650474e+01	-4.706022e-05
1.660008e+01	-4.760542e-05
1.669596e+01	-4.815694e-05
1.679239e+01	-4.871485e-05
1.688938e+01	-4.927922e-05
1.698694e+01	-4.985013e-05
1.708505e+01	-5.042766e-05
1.718373e+01	-5.101187e-05
1.728299e+01	-5.160286e-05
1.738281e+01	-5.220069e-05
1.748322e+01	-5.280544e-05
1.758420e+01	-5.341721e-05
1.768576e+01	-5.403605e-05
1.778792e+01	-5.466207e-05
1.789066e+01	-5.529534e-05
1.799399e+01	-5.593595e-05
1.809793e+01	-5.658398e-05
1.820246e+01	-5.723952e-05
1.830760e+01	-5.790265e-05
1.841334e+01	-5.857346e-05
1.851969e+01	-5.925205e-05
1.862666e+01	-5.993850e-05
1.873425e+01	-6.063290e-05
1.884246e+01	-6.133534e-05
1.895129e+01	-6.204592e-05
1.906075e+01	-6.276474e-05
1.917085e+01	-6.349188e-05
1.928158e+01	-6.422744e-05
1.939295e+01	-6.497153e-05
1.950496e+01	-6.572424e-05
1.961762e+01	-6.648567e-05
1.973093e+01	-6.725592e-05
1.984490e+01	-6.803509e-05
1.995952e+01	-6.882329e-05
2.007480e+01	-6.962062e-05
2.019076e+01	-7.042719e-05
2.030738e+01	-7.124310e-05
2.042467e+01	-7.206846e-05
2.054264e+01	-7.290339e-05
2.066130e+01	-7.374799e-05
2.078064e+01	-7.460237e-05
2.090066e+01	-7.546665e-05
2.102139e+01	-7.634095e-05
2.114280e+01	-7.722537e-05
2.126492e+01	-7.812004e-05
2.138775e+01	-7.902507e-05
2.151128e+01	-7.994059e-05
2.163553e+01	-8.086672e-05
2.176050e+01	-8.180357e-05
2.188619e+01	-8.275128e-05
2.201260e+01	-8.370997e-05
2.213974e+01	-8.467976e-05
2.226762e+01	-8.566079e-05
2.239624e+01	-8.665319e-05
2.252560e+01	-8.765708e-05
2.265571e+01	-8.867260e-05
2.278656e+01	-8.969989e-05
2.291818e+01	-9.073907e-05
2.305055e+01	-9.179030e-05
2.318369e+01	-9.285371e-05
2.331760e+01	-9.392943e-05
2.345228e+01	-9.501762e-05
2.358774e+01	-9.611841e-05
2.372398e+01	-9.723196e-05
2.386101e+01	-9.835840e-05
2.399883e+01	-9.949790e-05
2.413745e+01	-1.006506e-04
2.427686e+01	-1.018166e-04
2.441709e+01	-1.029962e-04
2.455812e+01	-1.041894e-04
2.469997e+01	-1.053965e-04
2.484263e+01	-1.066175e-04
2.498612e+01	-1.078527e-04
2.513044e+01	-1.091022e-04
2.527559e+01	-1.103661e-04
2.542158e+01	-1.116448e-04
2.556842e+01	-1.129382e-04
2.571610e+01	-1.142466e-04
2.586463e+01	-1.155701e-04
2.601403e+01	-1.169090e-04
2.616428e+01	-1.182634e-04
2.631541e+01	-1.196335e-04
2.646740e+01	-1.210195e-04
2.662028e+01	-1.224215e-04
2.677404e+01	-1.238398e-04
2.692868e+01	-1.252745e-04
2.708422e+01	-1.267258e-04
2.724066e+01	-1.281939e-04
2.739800e+01	-1.296791e-04
2.755625e+01	-1.311814e-04
2.771541e+01	-1.327012e-04
2.787550e+01	-1.342385e-04
2.803650e+01	-1.357937e-04
2.819844e+01	-1.373669e-04
2.836131e+01	-1.389583e-04
2.852513e+01	-1.405681e-04
2.868989e+01	-1.421966e-04
2.885560e+01	-1.438440e-04
2.902227e+01	-1.455104e-04
2.918990e+01	-1.471962e-04
2.935850e+01	-1.489015e-04
2.952807e+01	-1.506265e-04
2.969863e+01	-1.523715e-04
2.987016e+01	-1.541368e-04
3.004269e+01	-1.559224e-04
3.021622e+01	-1.577288e-04
3.039075e+01	-1.595561e-04
3.056628e+01	-1.614046e-04
3.074283e+01	-1.632745e-04
3.092040e+01	-1.651660e-04
3.109900e+01	-1.670795e-04
3.127862e+01	-1.690151e-04
3.145929e+01	-1.709731e-04
3.164099e+01	-1.729539e-04
3.182375e+01	-1.749575e-04
3.200756e+01	-1.769844e-04
3.219244e+01	-1.790348e-04
3.237838e+01	-1.811089e-04
3.256540e+01	-1.832071e-04
3.275349e+01	-1.853295e-04
3.294268e+01	-1.874766e-04
3.313295e+01	-1.896485e-04
3.332433e+01	-1.918456e-04
3.351681e+01	-1.940681e-04
3.371040e+01	-1.963164e-04
3.390511e+01	-1.985907e-04
3.410094e+01	-2.008914e-04
3.429791e+01	-2.032187e-04
3.449601e+01	-2.055730e-04
3.469526e+01	-2.079546e-04
3.489566e+01	-2.103638e-04
3.509721e+01	-2.128008e-04
3.529993e+01	-2.152661e-04
3.550382e+01	-2.177600e-04
3.570889e+01	-2.202827e-04
3.591515e+01	-2.228347e-04
3.612259e+01	-2.254162e-04
3.633123e+01	-2.280277e-04
3.654108e+01	-2.306694e-04
3.675214e+01	-2.333417e-04
3.696442e+01	-2.360449e-04
3.717792e+01	-2.387795e-04
3.739266e+01	-2.415457e-04
3.760864e+01	-2.443440e-04
3.782587e+01	-2.471747e-04
3.804435e+01	-2.500382e-04
3.826409e+01	-2.529349e-04
3.848510e+01	-2.558652e-04
3.870739e+01	-2.588293e-04
3.893096e+01	-2.618279e-04
3.915583e+01	-2.648611e-04
3.938199e+01	-2.679295e-04
3.960946e+01	-2.710334e-04
3.983824e+01	-2.741733e-04
4.006834e+01	-2.773496e-04
4.029978e+01	-2.805627e-04
4.053255e+01	-2.838130e-04
4.076666e+01	-2.871009e-04
4.100213e+01	-2.904270e-04
4.123896e+01	-2.937915e-04
4.147715e+01	-2.971951e-04
4.171672e+01	-3.006380e-04
4.195767e+01	-3.041209e-04
4.220002e+01	-3.076441e-04
4.244377e+01	-3.112081e-04
4.268892e+01	-3.148134e-04
4.293549e+01	-3.184605e-04
4.318348e+01	-3.221498e-04
4.343291e+01	-3.258818e-04
4.368377e+01	-3.296571e-04
4.393609e+01	-3.334761e-04
4.418986e+01	-3.373394e-04
4.444510e+01	-3.412474e-04
4.470182e+01	-3.452007e-04
4.496001e+01	-3.491998e-04
4.521970e+01	-3.532452e-04
4.548089e+01	-3.573375e-04
4.574358e+01	-3.614772e-04
4.600779e+01	-3.656648e-04
4.627353e+01	-3.699010e-04
4.654081e+01	-3.741862e-04
4.680963e+01	-3.785210e-04
4.708000e+01	-3.829061e-04
4.735193e+01	-3.873420e-04
4.762543e+01	-3.918293e-04
4.790051e+01	-3.963685e-04
4.817719e+01	-4.009603e-04
4.845545e+01	-4.056053e-04
4.873533e+01	-4.103042e-04
4.901682e+01	-4.150574e-04
4.929994e+01	-4.198658e-04
4.958470e+01	-4.247298e-04
4.987110e+01	-4.296501e-04
5.015915e+01	-4.346275e-04
5.044887e+01	-4.396625e-04
5.074026e+01	-4.447559e-04
5.103333e+01	-4.499082e-04
5.132810e+01	-4.551203e-04
5.162457e+01	-4.603927e-04
5.192275e+01	-4.657262e-04
5.222265e+01	-4.711215e-04
5.252429e+01	-4.765792e-04
5.282767e+01	-4.821002e-04
5.313280e+01	-4.876852e-04
5.343969e+01	-4.933348e-04
5.374836e+01	-4.990499e-04
5.405880e+01	-5.048312e-04
5.437105e+01	-5.106795e-04
5.468509e+01	-5.165955e-04
5.500095e+01	-5.225800e-04
5.531863e+01	-5.286339e-04
5.563815e+01	-5.347579e-04
5.595951e+01	-5.409528e-04
5.628273e+01	-5.472195e-04
5.660782e+01	-5.535588e-04
5.693479e+01	-5.599715e-04
5.726364e+01	-5.664585e-04
5.759439e+01	-5.730207e-04
5.792705e+01	-5.796588e-04
5.826164e+01	-5.863739e-04
5.859815e+01	-5.931667e-04
5.893662e+01	-6.000382e-04
5.927703e+01	-6.069894e-04
5.961941e+01	-6.140210e-04
5.996377e+01	-6.211341e-04
6.031012e+01	-6.283296e-04
6.065847e+01	-6.356084e-04
6.100883e+01	-6.429716e-04
6.136121e+01	-6.504200e-04
6.171563e+01	-6.579547e-04
6.207210e+01	-6.655768e-04
6.243063e+01	-6.732870e-04
6.279122e+01	-6.810866e-04
6.315390e+01	-6.889766e-04
6.351868e+01	-6.969579e-04
6.388556e+01	-7.050317e-04
6.425456e+01	-7.131990e-04
6.462569e+01	-7.214610e-04
6.499897e+01	-7.298186e-04
6.537440e+01	-7.382730e-04
6.575200e+01	-7.468254e-04
6.613178e+01	-7.554768e-04
6.651375e+01	-7.642284e-04
6.689793e+01	-7.730814e-04
6.728433e+01	-7.820370e-04
6.767297e+01	-7.910963e-04
6.806384e+01	-8.002605e-04
6.845698e+01	-8.095309e-04
6.885238e+01	-8.189086e-04
6.925007e+01	-8.283950e-04
6.965005e+01	-8.379913e-04
7.005235e+01	-8.476987e-04
7.045697e+01	-8.575185e-04
7.086393e+01	-8.674521e-04
7.127323e+01	-8.775008e-04
7.168490e+01	-8.876658e-04
7.209895e+01	-8.979486e-04
7.251539e+01	-9.083505e-04
7.293424e+01	-9.188729e-04
7.335551e+01	-9.295171e-04
7.377920e+01	-9.402847e-04
7.420535e+01	-9.511769e-04
7.463396e+01	-9.621954e-04
7.506504e+01	-9.733414e-04
7.549861e+01	-9.846166e-04
7.593469e+01	-9.960223e-04
7.637328e+01	-1.007560e-03
7.681441e+01	-1.019232e-03
7.725809e+01	-1.031038e-03
7.770433e+01	-1.042982e-03
7.815315e+01	-1.055064e-03
7.860456e+01	-1.067285e-03
7.905857e+01	-1.079648e-03
7.951521e+01	-1.092155e-03
7.997449e+01	-1.104806e-03
8.043642e+01	-1.117604e-03
8.090102e+01	-1.130550e-03
8.136830e+01	-1.143646e-03
8.183828e+01	-1.156894e-03
8.231097e+01	-1.170295e-03
8.278640e+01	-1.183851e-03
8.326457e+01	-1.197565e-03
8.374550e+01	-1.211437e-03
8.422921e+01	-1.225470e-03
8.471572e+01	-1.239665e-03
8.520503e+01	-1.254025e-03
8.569717e+01	-1.268551e-03
8.619215e+01	-1.283245e-03
8.669000e+01	-1.298110e-03
8.719071e+01	-1.313146e-03
8.769432e+01	-1.328357e-03
8.820084e+01	-1.343744e-03
8.871029e+01	-1.359309e-03
8.922267e+01	-1.375055e-03
8.973802e+01	-1.390983e-03
9.025634e+01	-1.407095e-03
9.077766e+01	-1.423394e-03
9.130199e+01	-1.439882e-03
9.182935e+01	-1.456560e-03
9.235975e+01	-1.473432e-03
9.289321e+01	-1.490499e-03
9.342976e+01	-1.507764e-03
9.396941e+01	-1.525229e-03
9.451217e+01	-1.542896e-03
9.505807e+01	-1.560767e-03
9.560712e+01	-1.578846e-03
9.615934e+01	-1.597134e-03
9.671476e+01	-1.615634e-03
9.727338e+01	-1.634348e-03
9.783522e+01	-1.653279e-03
9.840032e+01	-1.672429e-03
9.896867e+01	-1.691800e-03
9.954031e+01	-1.711397e-03
1.001153e+02	-1.731220e-03
1.006935e+02	-1.751272e-03
1.012751e+02	-1.771557e-03
1.018601e+02	-1.792077e-03
1.024484e+02	-1.812834e-03
1.030402e+02	-1.833832e-03
1.036353e+02	-1.855073e-03
1.042339e+02	-1.876560e-03
1.048360e+02	-1.898295e-03
1.054415e+02	-1.920283e-03
1.060505e+02	-1.942525e-03
1.066631e+02	-1.965024e-03
1.072791e+02	-1.987784e-03
1.078988e+02	-2.010808e-03
1.085220e+02	-2.034098e-03
1.091488e+02	-2.057658e-03
1.097793e+02	-2.081491e-03
1.104133e+02	-2.105600e-03
1.110511e+02	-2.129988e-03
1.116925e+02	-2.154658e-03
1.123376e+02	-2.179614e-03
1.129865e+02	-2.204859e-03
1.136391e+02	-2.230396e-03
1.142955e+02	-2.256229e-03
1.149556e+02	-2.282362e-03
1.156196e+02	-2.308796e-03
1.162874e+02	-2.335537e-03
1.169591e+02	-2.362588e-03
1.176347e+02	-2.389951e-03
1.183141e+02	-2.417632e-03
1.189975e+02	-2.445633e-03
1.196848e+02	-2.473958e-03
1.203761e+02	-2.502611e-03
1.210714e+02	-2.531596e-03
1.217707e+02	-2.560917e-03
1.224740e+02	-2.590577e-03
1.231814e+02	-2.620580e-03
1.238929e+02	-2.650931e-03
1.246085e+02	-2.681633e-03
1.253283e+02	-2.712691e-03
1.260522e+02	-2.744108e-03
1.267802e+02	-2.775889e-03
1.275125e+02	-2.808038e-03
1.282490e+02	-2.840560e-03
1.289898e+02	-2.873457e-03
1.297348e+02	-2.906736e-03
1.304842e+02	-2.940400e-03
1.312378e+02	-2.974453e-03
1.319959e+02	-3.008901e-03
1.327583e+02	-3.043748e-03
1.335251e+02	-3.078998e-03
1.342963e+02	-3.114656e-03
1.350720e+02	-3.150727e-03
1.358522e+02	-3.187216e-03
1.366368e+02	-3.224127e-03
1.374260e+02	-3.261465e-03
1.382198e+02	-3.299236e-03
1.390182e+02	-3.337443e-03
1.398211e+02	-3.376094e-03
1.406287e+02	-3.415191e-03
1.414410e+02	-3.454741e-03
1.422579e+02	-3.494749e-03
1.430796e+02	-3.535220e-03
1.439060e+02	-3.576160e-03
1.447372e+02	-3.617573e-03
1.455732e+02	-3.659466e-03
1.464141e+02	-3.701844e-03
1.472597e+02	-3.744712e-03
1.481103e+02	-3.788077e-03
1.489658e+02	-3.831943e-03
1.498262e+02	-3.876317e-03
1.506916e+02	-3.921205e-03
1.515620e+02	-3.966613e-03
1.524374e+02	-4.012546e-03
1.533179e+02	-4.059010e-03
1.542034e+02	-4.106013e-03
1.550941e+02	-4.153559e-03
1.559899e+02	-4.201656e-03
1.568909e+02	-4.250309e-03
1.577971e+02	-4.299526e-03
1.587085e+02	-4.349312e-03
1.596252e+02	-4.399674e-03
1.605472e+02	-4.450619e-03
1.614745e+02	-4.502154e-03
1.624072e+02	-4.554285e-03
1.633453e+02	-4.607020e-03
1.642887e+02	-4.660365e-03
1.652377e+02	-4.714327e-03
1.661921e+02	-4.768913e-03
1.671520e+02	-4.824132e-03
1.681175e+02	-4.879989e-03
1.690885e+02	-4.936493e-03
1.700651e+02	-4.993650e-03
1.710474e+02	-5.051469e-03
1.720354e+02	-5.109958e-03
1.730291e+02	-5.169122e-03
1.740285e+02	-5.228972e-03
1.750337e+02	-5.289514e-03
1.760446e+02	-5.350756e-03
1.770615e+02	-5.412708e-03
1.780842e+02	-5.475376e-03
1.791128e+02	-5.538769e-03
1.801473e+02	-5.602895e-03
1.811878e+02	-5.667764e-03
1.822344e+02	-5.733383e-03
1.832870e+02	-5.799761e-03
1.843456e+02	-5.866907e-03
1.854104e+02	-5.934830e-03
1.864813e+02	-6.003539e-03
1.875584e+02	-6.073043e-03
1.886418e+02	-6.143351e-03
1.897313e+02	-6.214472e-03
1.908272e+02	-6.286416e-03
1.919294e+02	-6.359192e-03
1.930380e+02	-6.432811e-03
1.941530e+02	-6.507280e-03
1.952744e+02	-6.582612e-03
1.964023e+02	-6.658814e-03
1.975367e+02	-6.735898e-03
1.986777e+02	-6.813874e-03
1.998252e+02	-6.892752e-03
2.009794e+02	-6.972542e-03
2.021403e+02	-7.053254e-03
2.033078e+02	-7.134901e-03
2.044821e+02	-7.217492e-03
2.056632e+02	-7.301038e-03
2.068511e+02	-7.385550e-03
2.080459e+02	-7.471040e-03
2.092475e+02	-7.557518e-03
2.104561e+02	-7.644996e-03
2.116717e+02	-7.733487e-03
2.128943e+02	-7.823000e-03
2.141240e+02	-7.913549e-03
2.153608e+02	-8.005144e-03
2.166047e+02	-8.097799e-03
2.178558e+02	-8.191526e-03
2.191141e+02	-8.286336e-03
2.203797e+02	-8.382242e-03
2.216526e+02	-8.479258e-03
2.229329e+02	-8.577395e-03
2.242205e+02	-8.676666e-03
2.255156e+02	-8.777086e-03
2.268182e+02	-8.878666e-03
2.281283e+02	-8.981421e-03
2.294459e+02	-9.085364e-03
2.307712e+02	-9.190509e-03
2.321041e+02	-9.296869e-03
2.334447e+02	-9.404458e-03
2.347931e+02	-9.513292e-03
2.361493e+02	-9.623383e-03
2.375133e+02	-9.734747e-03
2.388851e+02	-9.847398e-03
2.402649e+02	-9.961352e-03
2.416527e+02	-1.007662e-02
2.430484e+02	-1.019322e-02
2.444523e+02	-1.031118e-02
2.458642e+02	-1.043049e-02
2.472843e+02	-1.055118e-02
2.487126e+02	-1.067327e-02
2.501492e+02	-1.079677e-02
2.515940e+02	-1.092169e-02
2.530472e+02	-1.104806e-02
2.545088e+02	-1.117589e-02
2.559789e+02	-1.130520e-02
2.574574e+02	-1.143600e-02
2.589444e+02	-1.156831e-02
2.604401e+02	-1.170215e-02
2.619444e+02	-1.183754e-02
2.634574e+02	-1.197449e-02
2.649791e+02	-1.211302e-02
2.665096e+02	-1.225316e-02
2.680489e+02	-1.239491e-02
2.695972e+02	-1.253830e-02
2.711544e+02	-1.268335e-02
2.727205e+02	-1.283007e-02
2.742958e+02	-1.297848e-02
2.758801e+02	-1.312861e-02
2.774736e+02	-1.328048e-02
2.790762e+02	-1.343410e-02
2.806882e+02	-1.358949e-02
2.823094e+02	-1.374668e-02
2.839400e+02	-1.390568e-02
2.855800e+02	-1.406652e-02
2.872295e+02	-1.422922e-02
2.888886e+02	-1.439379e-02
2.905572e+02	-1.456027e-02
2.922354e+02	-1.472867e-02
2.939234e+02	-1.489901e-02
2.956211e+02	-1.507132e-02
2.973286e+02	-1.524561e-02
2.990459e+02	-1.542192e-02
3.007732e+02	-1.560027e-02
3.025104e+02	-1.578067e-02
3.042577e+02	-1.596316e-02
3.060151e+02	-1.614775e-02
3.077826e+02	-1.633447e-02
3.095604e+02	-1.652335e-02
3.113484e+02	-1.671441e-02
3.131467e+02	-1.690767e-02
3.149554e+02	-1.710316e-02
3.167746e+02	-1.730091e-02
3.186043e+02	-1.750094e-02
3.204445e+02	-1.770328e-02
3.222954e+02	-1.790795e-02
3.241570e+02	-1.811499e-02
3.260293e+02	-1.832441e-02
3.279124e+02	-1.853625e-02
3.298064e+02	-1.875053e-02
3.317114e+02	-1.896728e-02
3.336273e+02	-1.918653e-02
3.355544e+02	-1.940832e-02
3.374925e+02	-1.963266e-02
3.394418e+02	-1.985959e-02
3.414024e+02	-2.008913e-02
3.433744e+02	-2.032132e-02
3.453577e+02	-2.055619e-02
3.473525e+02	-2.079377e-02
3.493588e+02	-2.103408e-02
3.513766e+02	-2.127717e-02
3.534062e+02	-2.152306e-02
3.554474e+02	-2.177178e-02
3.575005e+02	-2.202337e-02
3.595654e+02	-2.227786e-02
3.616422e+02	-2.253528e-02
3.637311e+02	-2.279567e-02
3.658320e+02	-2.305906e-02
3.679450e+02	-2.332549e-02
3.700702e+02	-2.359498e-02
3.722077e+02	-2.386758e-02
3.743576e+02	-2.414332e-02
3.765199e+02	-2.442224e-02
3.786946e+02	-2.470437e-02
3.808820e+02	-2.498975e-02
3.830819e+02	-2.527842e-02
3.852946e+02	-2.557041e-02
3.875200e+02	-2.586576e-02
3.897583e+02	-2.616452e-02
3.920096e+02	-2.646672e-02
3.942738e+02	-2.677239e-02
3.965511e+02	-2.708159e-02
3.988416e+02	-2.739434e-02
4.011452e+02	-2.771070e-02
4.034622e+02	-2.803069e-02
4.057926e+02	-2.835437e-02
4.081365e+02	-2.868178e-02
4.104938e+02	-2.901295e-02
4.128648e+02	-2.934793e-02
4.152495e+02	-2.968677e-02
4.176480e+02	-3.002950e-02
4.200603e+02	-3.037618e-02
4.224866e+02	-3.072685e-02
4.249268e+02	-3.108155e-02
4.273812e+02	-3.144033e-02
4.298497e+02	-3.180324e-02
4.323325e+02	-3.217032e-02
4.348297e+02	-3.254162e-02
4.373412e+02	-3.291719e-02
4.398673e+02	-3.329708e-02
4.424079e+02	-3.368133e-02
4.449633e+02	-3.407000e-02
4.475334e+02	-3.446314e-02
4.501183e+02	-3.486080e-02
4.527182e+02	-3.526303e-02
4.553330e+02	-3.566988e-02
4.579630e+02	-3.608140e-02
4.606082e+02	-3.649765e-02
4.632687e+02	-3.691868e-02
4.659445e+02	-3.734455e-02
4.686358e+02	-3.777531e-02
4.713426e+02	-3.821102e-02
4.740650e+02	-3.865173e-02
4.768032e+02	-3.909750e-02
4.795572e+02	-3.954838e-02
4.823271e+02	-4.000445e-02
4.851130e+02	-4.046574e-02
4.879150e+02	-4.093234e-02
4.907332e+02	-4.140428e-02
4.935676e+02	-4.188164e-02
4.964185e+02	-4.236448e-02
4.992858e+02	-4.285286e-02
5.021696e+02	-4.334683e-02
5.050701e+02	-4.384648e-02
5.079874e+02	-4.435185e-02
5.109215e+02	-4.486302e-02
5.138726e+02	-4.538005e-02
5.168407e+02	-4.590300e-02
5.198259e+02	-4.643195e-02
5.228284e+02	-4.696696e-02
5.258482e+02	-4.750811e-02
5.288855e+02	-4.805545e-02
5.319403e+02	-4.860906e-02
5.350128e+02	-4.916902e-02
5.381030e+02	-4.973538e-02
5.412111e+02	-5.030824e-02
5.443371e+02	-5.088765e-02
5.474812e+02	-5.147370e-02
5.506434e+02	-5.206645e-02
5.538239e+02	-5.266599e-02
5.570228e+02	-5.327239e-02
5.602401e+02	-5.388573e-02
5.634760e+02	-5.450609e-02
5.667306e+02	-5.513354e-02
5.700040e+02	-5.576817e-02
5.732964e+02	-5.641006e-02
5.766077e+02	-5.705928e-02
5.799382e+02	-5.771593e-02
5.832879e+02	-5.838009e-02
5.866569e+02	-5.905183e-02
5.900454e+02	-5.973125e-02
5.934535e+02	-6.041843e-02
5.968813e+02	-6.111347e-02
6.003288e+02	-6.181644e-02
6.037963e+02	-6.252744e-02
6.072838e+02	-6.324655e-02
6.107914e+02	-6.397388e-02
6.143194e+02	-6.470951e-02
6.178676e+02	-6.545353e-02
6.214364e+02	-6.620604e-02
6.250258e+02	-6.696714e-02
6.286359e+02	-6.773692e-02
6.322669e+02	-6.851547e-02
6.359189e+02	-6.930291e-02
6.395919e+02	-7.009932e-02
6.432862e+02	-7.090480e-02
6.470017e+02	-7.171947e-02
6.507388e+02	-7.254342e-02
6.544974e+02	-7.337675e-02
6.582778e+02	-7.421957e-02
6.620800e+02	-7.507199e-02
6.659041e+02	-7.593412e-02
6.697504e+02	-7.680606e-02
6.736188e+02	-7.768792e-02
6.775096e+02	-7.857981e-02
6.814229e+02	-7.948185e-02
6.853587e+02	-8.039415e-02
6.893173e+02	-8.131682e-02
6.932988e+02	-8.224998e-02
6.973033e+02	-8.319374e-02
7.013309e+02	-8.414823e-02
