Frequency(Hz)	Magnitude(dB)
1.000000e+01	-2.303549e+00
1.005776e+01	-2.323947e+00
1.011585e+01	-2.344927e+00
1.017428e+01	-2.365754e+00
1.023305e+01	-2.386915e+00
1.029215e+01	-2.408066e+00
1.035160e+01	-2.429528e+00
1.041139e+01	-2.450937e+00
1.047153e+01	-2.472706e+00
1.053201e+01	-2.494580e+00
1.059284e+01	-2.516287e+00
1.065403e+01	-2.538218e+00
1.071556e+01	-2.560498e+00
1.077746e+01	-2.582874e+00
1.083971e+01	-2.605608e+00
1.090232e+01	-2.628154e+00
1.096529e+01	-2.650860e+00
1.102862e+01	-2.673788e+00
1.109232e+01	-2.696853e+00
1.115639e+01	-2.720093e+00
1.122083e+01	-2.743461e+00
1.128564e+01	-2.766901e+00
1.135083e+01	-2.790540e+00
1.141639e+01	-2.814348e+00
1.148233e+01	-2.838349e+00
1.154865e+01	-2.862405e+00
1.161536e+01	-2.886634e+00
1.168245e+01	-2.911001e+00
1.174992e+01	-2.935384e+00
1.181779e+01	-2.959916e+00
1.188605e+01	-2.985047e+00
1.195470e+01	-3.009860e+00
1.202375e+01	-3.035244e+00
1.209320e+01	-3.060394e+00
1.216305e+01	-3.085570e+00
1.223330e+01	-3.110815e+00
1.230396e+01	-3.136848e+00
1.237503e+01	-3.162482e+00
1.244651e+01	-3.188398e+00
1.251840e+01	-3.214635e+00
1.259070e+01	-3.240688e+00
1.266343e+01	-3.267218e+00
1.273657e+01	-3.293705e+00
1.281014e+01	-3.320401e+00
1.288413e+01	-3.347032e+00
1.295855e+01	-3.374156e+00
1.303339e+01	-3.401326e+00
1.310867e+01	-3.428258e+00
1.318439e+01	-3.455654e+00
1.326054e+01	-3.483209e+00
1.333713e+01	-3.511341e+00
1.341417e+01	-3.538697e+00
1.349165e+01	-3.566687e+00
1.356958e+01	-3.595042e+00
1.364795e+01	-3.623018e+00
1.372678e+01	-3.651502e+00
1.380607e+01	-3.679845e+00
1.388581e+01	-3.708549e+00
1.396602e+01	-3.737325e+00
1.404668e+01	-3.766599e+00
1.412782e+01	-3.795521e+00
1.420942e+01	-3.824771e+00
1.429149e+01	-3.854087e+00
1.437404e+01	-3.883387e+00
1.445706e+01	-3.912972e+00
1.454057e+01	-3.942874e+00
1.462455e+01	-3.972903e+00
1.470902e+01	-4.002787e+00
1.479398e+01	-4.033074e+00
1.487943e+01	-4.063396e+00
1.496537e+01	-4.093982e+00
1.505181e+01	-4.124384e+00
1.513875e+01	-4.155112e+00
1.522619e+01	-4.186240e+00
1.531414e+01	-4.217166e+00
1.540259e+01	-4.248426e+00
1.549156e+01	-4.279654e+00
1.558103e+01	-4.310942e+00
1.567103e+01	-4.342459e+00
1.576155e+01	-4.374228e+00
1.585258e+01	-4.406239e+00
1.594415e+01	-4.438010e+00
1.603624e+01	-4.470168e+00
1.612886e+01	-4.502011e+00
1.622202e+01	-4.534395e+00
1.631572e+01	-4.567243e+00
1.640996e+01	-4.599775e+00
1.650474e+01	-4.632546e+00
1.660008e+01	-4.665160e+00
1.669596e+01	-4.698228e+00
1.679239e+01	-4.731377e+00
1.688938e+01	-4.764819e+00
1.698694e+01	-4.798106e+00
1.708505e+01	-4.831787e+00
1.718373e+01	-4.865210e+00
1.728299e+01	-4.899211e+00
1.738281e+01	-4.932912e+00
1.748322e+01	-4.967018e+00
1.758420e+01	-5.001000e+00
1.768576e+01	-5.035556e+00
1.778792e+01	-5.069655e+00
1.789066e+01	-5.104180e+00
1.799399e+01	-5.138698e+00
1.809793e+01	-5.173508e+00
1.820246e+01	-5.208966e+00
1.830760e+01	-5.244196e+00
1.841334e+01	-5.278860e+00
1.851969e+01	-5.314096e+00
1.862666e+01	-5.349609e+00
1.873425e+01	-5.384998e+00
1.884246e+01	-5.420276e+00
1.895129e+01	-5.456163e+00
1.906075e+01	-5.491935e+00
1.917085e+01	-5.528090e+00
1.928158e+01	-5.563915e+00
1.939295e+01	-5.600451e+00
1.950496e+01	-5.637002e+00
1.961762e+01	-5.672971e+00
1.973093e+01	-5.709266e+00
1.984490e+01	-5.746052e+00
1.995952e+01	-5.783127e+00
2.007480e+01	-5.819859e+00
2.019076e+01	-5.857001e+00
2.030738e+01	-5.893891e+00
2.042467e+01	-5.930866e+00
2.054264e+01	-5.968517e+00
2.066130e+01	-6.005679e+00
2.078064e+01	-6.043132e+00
2.090066e+01	-6.080878e+00
2.102139e+01	-6.118561e+00
2.114280e+01	-6.156488e+00
2.126492e+01	-6.194429e+00
2.138775e+01	-6.232215e+00
2.151128e+01	-6.270521e+00
2.163553e+01	-6.308841e+00
2.176050e+01	-6.347417e+00
2.188619e+01	-6.385516e+00
2.201260e+01	-6.424475e+00
2.213974e+01	-6.463403e+00
2.226762e+01	-6.502039e+00
2.239624e+01	-6.541052e+00
2.252560e+01	-6.579613e+00
2.265571e+01	-6.619160e+00
2.278656e+01	-6.657824e+00
2.291818e+01	-6.697421e+00
2.305055e+01	-6.736883e+00
2.318369e+01	-6.776307e+00
2.331760e+01	-6.815564e+00
2.345228e+01	-6.855419e+00
2.358774e+01	-6.895321e+00
2.372398e+01	-6.935032e+00
2.386101e+01	-6.975093e+00
2.399883e+01	-7.015036e+00
2.413745e+01	-7.055048e+00
2.427686e+01	-7.095347e+00
2.441709e+01	-7.135799e+00
2.455812e+01	-7.175902e+00
2.469997e+01	-7.216317e+00
2.484263e+01	-7.256944e+00
2.498612e+01	-7.297339e+00
2.513044e+01	-7.338339e+00
2.527559e+01	-7.379241e+00
2.542158e+01	-7.420261e+00
2.556842e+01	-7.461444e+00
2.571610e+01	-7.502152e+00
2.586463e+01	-7.543387e+00
2.601403e+01	-7.584764e+00
2.616428e+01	-7.626001e+00
2.631541e+01	-7.668166e+00
2.646740e+01	-7.708832e+00
2.662028e+01	-7.750853e+00
2.677404e+01	-7.792109e+00
2.692868e+01	-7.834346e+00
2.708422e+01	-7.875505e+00
2.724066e+01	-7.917829e+00
2.739800e+01	-7.960031e+00
2.755625e+01	-8.001854e+00
2.771541e+01	-8.044248e+00
2.787550e+01	-8.086304e+00
2.803650e+01	-8.128342e+00
2.819844e+01	-8.170717e+00
2.836131e+01	-8.213112e+00
2.852513e+01	-8.255765e+00
2.868989e+01	-8.298247e+00
2.885560e+01	-8.341079e+00
2.902227e+01	-8.383426e+00
2.918990e+01	-8.426608e+00
2.935850e+01	-8.469676e+00
2.952807e+01	-8.512148e+00
2.969863e+01	-8.555312e+00
2.987016e+01	-8.598237e+00
3.004269e+01	-8.641538e+00
3.021622e+01	-8.684753e+00
3.039075e+01	-8.728451e+00
3.056628e+01	-8.771668e+00
3.074283e+01	-8.814839e+00
3.092040e+01	-8.858795e+00
3.109900e+01	-8.901809e+00
3.127862e+01	-8.945450e+00
3.145929e+01	-8.989209e+00
3.164099e+01	-9.033131e+00
3.182375e+01	-9.076965e+00
3.200756e+01	-9.120647e+00
3.219244e+01	-9.164160e+00
3.237838e+01	-9.208556e+00
3.256540e+01	-9.251817e+00
3.275349e+01	-9.296605e+00
3.294268e+01	-9.340911e+00
3.313295e+01	-9.385223e+00
3.332433e+01	-9.429247e+00
3.351681e+01	-9.473647e+00
3.371040e+01	-9.518269e+00
3.390511e+01	-9.562924e+00
3.410094e+01	-9.606769e+00
3.429791e+01	-9.651835e+00
3.449601e+01	-9.696615e+00
3.469526e+01	-9.741484e+00
3.489566e+01	-9.786104e+00
3.509721e+01	-9.830819e+00
3.529993e+01	-9.875691e+00
3.550382e+01	-9.920145e+00
3.570889e+01	-9.965471e+00
3.591515e+01	-1.001043e+01
3.612259e+01	-1.005538e+01
3.633123e+01	-1.010095e+01
3.654108e+01	-1.014585e+01
3.675214e+01	-1.019093e+01
3.696442e+01	-1.023631e+01
3.717792e+01	-1.028192e+01
3.739266e+01	-1.032681e+01
3.760864e+01	-1.037250e+01
3.782587e+01	-1.041802e+01
3.804435e+01	-1.046354e+01
3.826409e+01	-1.050934e+01
3.848510e+01	-1.055400e+01
3.870739e+01	-1.059973e+01
3.893096e+01	-1.064546e+01
3.915583e+01	-1.069153e+01
3.938199e+01	-1.073738e+01
3.960946e+01	-1.078300e+01
3.983824e+01	-1.082884e+01
4.006834e+01	-1.087484e+01
4.029978e+01	-1.092093e+01
4.053255e+01	-1.096736e+01
4.076666e+01	-1.101223e+01
4.100213e+01	-1.105856e+01
4.123896e+01	-1.110523e+01
4.147715e+01	-1.115117e+01
4.171672e+01	-1.119783e+01
4.195767e+01	-1.124360e+01
4.220002e+01	-1.128993e+01
4.244377e+01	-1.133690e+01
4.268892e+01	-1.138245e+01
4.293549e+01	-1.142877e+01
4.318348e+01	-1.147528e+01
4.343291e+01	-1.152198e+01
4.368377e+01	-1.156880e+01
4.393609e+01	-1.161497e+01
4.418986e+01	-1.166179e+01
4.444510e+01	-1.170838e+01
4.470182e+01	-1.175506e+01
4.496001e+01	-1.180186e+01
4.521970e+01	-1.184887e+01
4.548089e+01	-1.189495e+01
4.574358e+01	-1.194271e+01
4.600779e+01	-1.198965e+01
4.627353e+01	-1.203557e+01
4.654081e+01	-1.208250e+01
4.680963e+01	-1.212960e+01
4.708000e+01	-1.217647e+01
4.735193e+01	-1.222373e+01
4.762543e+01	-1.227056e+01
4.790051e+01	-1.231721e+01
4.817719e+01	-1.236534e+01
4.845545e+01	-1.241194e+01
4.873533e+01	-1.245916e+01
4.901682e+01	-1.250586e+01
4.929994e+01	-1.255281e+01
4.958470e+01	-1.260048e+01
4.987110e+01	-1.264809e+01
5.015915e+01	-1.269521e+01
5.044887e+01	-1.274304e+01
5.074026e+01	-1.278968e+01
5.103333e+01	-1.283820e+01
5.132810e+01	-1.288554e+01
5.162457e+01	-1.293207e+01
5.192275e+01	-1.297937e+01
5.222265e+01	-1.302769e+01
5.252429e+01	-1.307528e+01
5.282767e+01	-1.312240e+01
5.313280e+01	-1.317003e+01
5.343969e+01	-1.321796e+01
5.374836e+01	-1.326557e+01
5.405880e+01	-1.331334e+01
5.437105e+01	-1.336036e+01
5.468509e+01	-1.340879e+01
5.500095e+01	-1.345546e+01
5.531863e+01	-1.350373e+01
5.563815e+01	-1.355194e+01
5.595951e+01	-1.359978e+01
5.628273e+01	-1.364741e+01
5.660782e+01	-1.369651e+01
5.693479e+01	-1.374282e+01
5.726364e+01	-1.379134e+01
5.759439e+01	-1.383850e+01
5.792705e+01	-1.388685e+01
5.826164e+01	-1.393478e+01
5.859815e+01	-1.398441e+01
5.893662e+01	-1.403139e+01
5.927703e+01	-1.407915e+01
5.961941e+01	-1.412774e+01
5.996377e+01	-1.417528e+01
6.031012e+01	-1.422324e+01
6.065847e+01	-1.427156e+01
6.100883e+01	-1.431944e+01
6.136121e+01	-1.436844e+01
6.171563e+01	-1.441690e+01
6.207210e+01	-1.446566e+01
6.243063e+01	-1.451264e+01
6.279122e+01	-1.456150e+01
6.315390e+01	-1.460972e+01
6.351868e+01	-1.465759e+01
6.388556e+01	-1.470591e+01
6.425456e+01	-1.475453e+01
6.462569e+01	-1.480320e+01
6.499897e+01	-1.485104e+01
6.537440e+01	-1.490057e+01
6.575200e+01	-1.494770e+01
6.613178e+01	-1.499677e+01
6.651375e+01	-1.504473e+01
6.689793e+01	-1.509329e+01
6.728433e+01	-1.514262e+01
6.767297e+01	-1.518950e+01
6.806384e+01	-1.523907e+01
6.845698e+01	-1.528733e+01
6.885238e+01	-1.533618e+01
6.925007e+01	-1.538476e+01
6.965005e+01	-1.543386e+01
7.005235e+01	-1.548180e+01
7.045697e+01	-1.553046e+01
7.086393e+01	-1.557877e+01
7.127323e+01	-1.562774e+01
7.168490e+01	-1.567563e+01
7.209895e+01	-1.572469e+01
7.251539e+01	-1.577382e+01
7.293424e+01	-1.582246e+01
7.335551e+01	-1.587084e+01
7.377920e+01	-1.591956e+01
7.420535e+01	-1.596832e+01
7.463396e+01	-1.601773e+01
7.506504e+01	-1.606605e+01
7.549861e+01	-1.611538e+01
7.593469e+01	-1.616382e+01
7.637328e+01	-1.621221e+01
7.681441e+01	-1.626200e+01
7.725809e+01	-1.631062e+01
7.770433e+01	-1.635822e+01
7.815315e+01	-1.640889e+01
7.860456e+01	-1.645678e+01
7.905857e+01	-1.650569e+01
7.951521e+01	-1.655508e+01
7.997449e+01	-1.660257e+01
8.043642e+01	-1.665154e+01
8.090102e+01	-1.670176e+01
8.136830e+01	-1.675079e+01
8.183828e+01	-1.679896e+01
8.231097e+01	-1.684892e+01
8.278640e+01	-1.689857e+01
8.326457e+01	-1.694714e+01
8.374550e+01	-1.699593e+01
8.422921e+01	-1.704510e+01
8.471572e+01	-1.709397e+01
8.520503e+01	-1.714385e+01
8.569717e+01	-1.719198e+01
8.619215e+01	-1.723945e+01
8.669000e+01	-1.729117e+01
8.719071e+01	-1.733881e+01
8.769432e+01	-1.738941e+01
8.820084e+01	-1.743789e+01
8.871029e+01	-1.748806e+01
8.922267e+01	-1.753610e+01
8.973802e+01	-1.758571e+01
9.025634e+01	-1.763300e+01
9.077766e+01	-1.768354e+01
9.130199e+01	-1.773169e+01
9.182935e+01	-1.778151e+01
9.235975e+01	-1.783013e+01
9.289321e+01	-1.787927e+01
9.342976e+01	-1.792841e+01
9.396941e+01	-1.797884e+01
9.451217e+01	-1.802861e+01
9.505807e+01	-1.807785e+01
9.560712e+01	-1.812541e+01
9.615934e+01	-1.817438e+01
9.671476e+01	-1.822548e+01
9.727338e+01	-1.827378e+01
9.783522e+01	-1.832316e+01
9.840032e+01	-1.837378e+01
9.896867e+01	-1.842090e+01
9.954031e+01	-1.847270e+01
1.001153e+02	-1.852059e+01
1.006935e+02	-1.856827e+01
1.012751e+02	-1.861850e+01
1.018601e+02	-1.866738e+01
1.024484e+02	-1.871694e+01
1.030402e+02	-1.876711e+01
1.036353e+02	-1.881690e+01
1.042339e+02	-1.886601e+01
1.048360e+02	-1.891554e+01
1.054415e+02	-1.896377e+01
1.060505e+02	-1.901426e+01
1.066631e+02	-1.906099e+01
1.072791e+02	-1.911244e+01
1.078988e+02	-1.916220e+01
1.085220e+02	-1.921156e+01
1.091488e+02	-1.925989e+01
1.097793e+02	-1.931083e+01
1.104133e+02	-1.935984e+01
1.110511e+02	-1.940925e+01
1.116925e+02	-1.945825e+01
1.123376e+02	-1.950976e+01
1.129865e+02	-1.955852e+01
1.136391e+02	-1.960629e+01
1.142955e+02	-1.965608e+01
1.149556e+02	-1.970584e+01
1.156196e+02	-1.975659e+01
1.162874e+02	-1.980605e+01
1.169591e+02	-1.985565e+01
1.176347e+02	-1.990396e+01
1.183141e+02	-1.995422e+01
1.189975e+02	-2.000389e+01
1.196848e+02	-2.005213e+01
1.203761e+02	-2.010304e+01
1.210714e+02	-2.015273e+01
1.217707e+02	-2.020284e+01
1.224740e+02	-2.025186e+01
1.231814e+02	-2.030209e+01
1.238929e+02	-2.035110e+01
1.246085e+02	-2.039969e+01
1.253283e+02	-2.045014e+01
1.260522e+02	-2.049914e+01
1.267802e+02	-2.054697e+01
1.275125e+02	-2.060008e+01
1.282490e+02	-2.064824e+01
1.289898e+02	-2.069672e+01
1.297348e+02	-2.074680e+01
1.304842e+02	-2.079770e+01
1.312378e+02	-2.084526e+01
1.319959e+02	-2.089680e+01
1.327583e+02	-2.094597e+01
1.335251e+02	-2.099500e+01
1.342963e+02	-2.104749e+01
1.350720e+02	-2.109469e+01
1.358522e+02	-2.114374e+01
1.366368e+02	-2.119432e+01
1.374260e+02	-2.124444e+01
1.382198e+02	-2.129399e+01
1.390182e+02	-2.134297e+01
1.398211e+02	-2.139370e+01
1.406287e+02	-2.144142e+01
1.414410e+02	-2.149181e+01
1.422579e+02	-2.154077e+01
1.430796e+02	-2.159120e+01
1.439060e+02	-2.164209e+01
1.447372e+02	-2.169020e+01
1.455732e+02	-2.173976e+01
1.464141e+02	-2.179082e+01
1.472597e+02	-2.184075e+01
1.481103e+02	-2.189133e+01
1.489658e+02	-2.193756e+01
1.498262e+02	-2.199031e+01
1.506916e+02	-2.203839e+01
1.515620e+02	-2.208782e+01
1.524374e+02	-2.213977e+01
1.533179e+02	-2.218768e+01
1.542034e+02	-2.223874e+01
1.550941e+02	-2.228748e+01
1.559899e+02	-2.233929e+01
1.568909e+02	-2.238806e+01
1.577971e+02	-2.243499e+01
1.587085e+02	-2.248892e+01
1.596252e+02	-2.253552e+01
1.605472e+02	-2.258486e+01
1.614745e+02	-2.263690e+01
1.624072e+02	-2.268514e+01
1.633453e+02	-2.273517e+01
1.642887e+02	-2.278509e+01
1.652377e+02	-2.283394e+01
1.661921e+02	-2.288585e+01
1.671520e+02	-2.293415e+01
1.681175e+02	-2.298671e+01
1.690885e+02	-2.303620e+01
1.700651e+02	-2.308242e+01
1.710474e+02	-2.313163e+01
1.720354e+02	-2.318423e+01
1.730291e+02	-2.323488e+01
1.740285e+02	-2.328253e+01
1.750337e+02	-2.333365e+01
1.760446e+02	-2.338312e+01
1.770615e+02	-2.343272e+01
1.780842e+02	-2.348214e+01
1.791128e+02	-2.353414e+01
1.801473e+02	-2.358186e+01
1.811878e+02	-2.363159e+01
1.822344e+02	-2.368542e+01
1.832870e+02	-2.373225e+01
1.843456e+02	-2.378236e+01
1.854104e+02	-2.383261e+01
1.864813e+02	-2.388133e+01
1.875584e+02	-2.393070e+01
1.886418e+02	-2.397886e+01
1.897313e+02	-2.403076e+01
1.908272e+02	-2.408057e+01
1.919294e+02	-2.413136e+01
1.930380e+02	-2.417912e+01
1.941530e+02	-2.422935e+01
1.952744e+02	-2.428078e+01
1.964023e+02	-2.432905e+01
1.975367e+02	-2.437986e+01
1.986777e+02	-2.443012e+01
1.998252e+02	-2.447918e+01
2.009794e+02	-2.453166e+01
2.021403e+02	-2.457731e+01
2.033078e+02	-2.462956e+01
2.044821e+02	-2.468006e+01
2.056632e+02	-2.472858e+01
2.068511e+02	-2.477808e+01
2.080459e+02	-2.483025e+01
2.092475e+02	-2.487921e+01
2.104561e+02	-2.492942e+01
2.116717e+02	-2.497691e+01
2.128943e+02	-2.502594e+01
2.141240e+02	-2.507734e+01
2.153608e+02	-2.512872e+01
2.166047e+02	-2.517791e+01
2.178558e+02	-2.522777e+01
2.191141e+02	-2.527883e+01
2.203797e+02	-2.532926e+01
2.216526e+02	-2.537881e+01
2.229329e+02	-2.542613e+01
2.242205e+02	-2.547781e+01
2.255156e+02	-2.552791e+01
2.268182e+02	-2.557753e+01
2.281283e+02	-2.562763e+01
2.294459e+02	-2.567752e+01
2.307712e+02	-2.572717e+01
2.321041e+02	-2.577847e+01
2.334447e+02	-2.582955e+01
2.347931e+02	-2.587621e+01
2.361493e+02	-2.592812e+01
2.375133e+02	-2.597907e+01
2.388851e+02	-2.602906e+01
2.402649e+02	-2.607715e+01
2.416527e+02	-2.612764e+01
2.430484e+02	-2.617832e+01
2.444523e+02	-2.622809e+01
2.458642e+02	-2.627447e+01
2.472843e+02	-2.632469e+01
2.487126e+02	-2.637442e+01
2.501492e+02	-2.642927e+01
2.515940e+02	-2.647933e+01
2.530472e+02	-2.652452e+01
2.545088e+02	-2.657370e+01
2.559789e+02	-2.662791e+01
2.574574e+02	-2.667631e+01
2.589444e+02	-2.672671e+01
2.604401e+02	-2.677860e+01
2.619444e+02	-2.682710e+01
2.634574e+02	-2.687819e+01
2.649791e+02	-2.692603e+01
2.665096e+02	-2.697421e+01
2.680489e+02	-2.702471e+01
2.695972e+02	-2.707889e+01
2.711544e+02	-2.712852e+01
2.727205e+02	-2.717619e+01
2.742958e+02	-2.722708e+01
2.758801e+02	-2.727177e+01
2.774736e+02	-2.732921e+01
2.790762e+02	-2.737715e+01
2.806882e+02	-2.743018e+01
2.823094e+02	-2.747576e+01
2.839400e+02	-2.752790e+01
2.855800e+02	-2.757612e+01
2.872295e+02	-2.762639e+01
2.888886e+02	-2.767122e+01
2.905572e+02	-2.772179e+01
2.922354e+02	-2.777529e+01
2.939234e+02	-2.782584e+01
2.956211e+02	-2.787361e+01
2.973286e+02	-2.792375e+01
2.990459e+02	-2.797323e+01
3.007732e+02	-2.802642e+01
3.025104e+02	-2.807543e+01
3.042577e+02	-2.813247e+01
3.060151e+02	-2.817863e+01
3.077826e+02	-2.822632e+01
3.095604e+02	-2.826992e+01
3.113484e+02	-2.832869e+01
3.131467e+02	-2.837473e+01
3.149554e+02	-2.842696e+01
3.167746e+02	-2.847897e+01
3.186043e+02	-2.852647e+01
3.204445e+02	-2.857179e+01
3.222954e+02	-2.863001e+01
3.241570e+02	-2.867820e+01
3.260293e+02	-2.872310e+01
3.279124e+02	-2.877293e+01
3.298064e+02	-2.882878e+01
3.317114e+02	-2.887513e+01
3.336273e+02	-2.892821e+01
3.355544e+02	-2.897892e+01
3.374925e+02	-2.902401e+01
3.394418e+02	-2.908242e+01
3.414024e+02	-2.912696e+01
3.433744e+02	-2.917828e+01
3.453577e+02	-2.922223e+01
3.473525e+02	-2.927751e+01
3.493588e+02	-2.932777e+01
3.513766e+02	-2.937891e+01
3.534062e+02	-2.942761e+01
3.554474e+02	-2.947471e+01
3.575005e+02	-2.952855e+01
3.595654e+02	-2.957905e+01
3.616422e+02	-2.962613e+01
3.637311e+02	-2.968043e+01
3.658320e+02	-2.972357e+01
3.679450e+02	-2.977764e+01
3.700702e+02	-2.983204e+01
3.722077e+02	-2.988104e+01
3.743576e+02	-2.992552e+01
3.765199e+02	-2.997813e+01
3.786946e+02	-3.002851e+01
3.808820e+02	-3.007932e+01
3.830819e+02	-3.012764e+01
3.852946e+02	-3.017816e+01
3.875200e+02	-3.022875e+01
3.897583e+02	-3.027878e+01
3.920096e+02	-3.032976e+01
3.942738e+02	-3.037970e+01
3.965511e+02	-3.042840e+01
3.988416e+02	-3.047854e+01
4.011452e+02	-3.052839e+01
4.034622e+02	-3.058174e+01
4.057926e+02	-3.062834e+01
4.081365e+02	-3.068012e+01
4.104938e+02	-3.073559e+01
4.128648e+02	-3.078234e+01
4.152495e+02	-3.083357e+01
4.176480e+02	-3.088709e+01
4.200603e+02	-3.092867e+01
4.224866e+02	-3.097669e+01
4.249268e+02	-3.103558e+01
4.273812e+02	-3.108189e+01
4.298497e+02	-3.113009e+01
4.323325e+02	-3.118162e+01
4.348297e+02	-3.123455e+01
4.373412e+02	-3.128397e+01
4.398673e+02	-3.132862e+01
4.424079e+02	-3.138398e+01
4.449633e+02	-3.143165e+01
4.475334e+02	-3.147360e+01
4.501183e+02	-3.153017e+01
4.527182e+02	-3.157845e+01
4.553330e+02	-3.163413e+01
4.579630e+02	-3.168315e+01
4.606082e+02	-3.173590e+01
4.632687e+02	-3.177678e+01
4.659445e+02	-3.183219e+01
4.686358e+02	-3.188005e+01
4.713426e+02	-3.193506e+01
4.740650e+02	-3.198021e+01
4.768032e+02	-3.203496e+01
4.795572e+02	-3.208395e+01
4.823271e+02	-3.213347e+01
4.851130e+02	-3.218431e+01
4.879150e+02	-3.223538e+01
4.907332e+02	-3.228342e+01
4.935676e+02	-3.233668e+01
4.964185e+02	-3.238558e+01
4.992858e+02	-3.244036e+01
5.021696e+02	-3.248583e+01
5.050701e+02	-3.253842e+01
5.079874e+02	-3.258470e+01
5.109215e+02	-3.263587e+01
5.138726e+02	-3.268854e+01
5.168407e+02	-3.273286e+01
5.198259e+02	-3.278939e+01
5.228284e+02	-3.283616e+01
5.258482e+02	-3.289219e+01
5.288855e+02	-3.293913e+01
5.319403e+02	-3.298309e+01
5.350128e+02	-3.303936e+01
5.381030e+02	-3.309094e+01
5.412111e+02	-3.313405e+01
5.443371e+02	-3.318546e+01
5.474812e+02	-3.324461e+01
5.506434e+02	-3.328592e+01
5.538239e+02	-3.333329e+01
5.570228e+02	-3.339295e+01
5.602401e+02	-3.344122e+01
5.634760e+02	-3.349281e+01
5.667306e+02	-3.353909e+01
5.700040e+02	-3.359417e+01
5.732964e+02	-3.364220e+01
5.766077e+02	-3.369436e+01
5.799382e+02	-3.373663e+01
5.832879e+02	-3.378897e+01
5.866569e+02	-3.384420e+01
5.900454e+02	-3.388516e+01
5.934535e+02	-3.393801e+01
5.968813e+02	-3.399565e+01
6.003288e+02	-3.404659e+01
6.037963e+02	-3.409351e+01
6.072838e+02	-3.414201e+01
6.107914e+02	-3.419400e+01
6.143194e+02	-3.423817e+01
6.178676e+02	-3.428770e+01
6.214364e+02	-3.434873e+01
6.250258e+02	-3.439437e+01
6.286359e+02	-3.444566e+01
6.322669e+02	-3.449386e+01
6.359189e+02	-3.454870e+01
6.395919e+02	-3.459587e+01
6.432862e+02	-3.465175e+01
6.470017e+02	-3.469174e+01
6.507388e+02	-3.475168e+01
6.544974e+02	-3.479510e+01
6.582778e+02	-3.484424e+01
6.620800e+02	-3.489601e+01
6.659041e+02	-3.494839e+01
6.697504e+02	-3.500369e+01
6.736188e+02	-3.504946e+01
6.775096e+02	-3.510523e+01
6.814229e+02	-3.514927e+01
6.853587e+02	-3.519983e+01
6.893173e+02	-3.525226e+01
6.932988e+02	-3.530450e+01
6.973033e+02	-3.535787e+01
7.013309e+02	-3.540780e+01
