Frequency(Hz)	Magnitude(dB)
1.000000e+01	-1.740979e-05
1.005776e+01	-1.761149e-05
1.011585e+01	-1.781553e-05
1.017428e+01	-1.802192e-05
1.023305e+01	-1.823071e-05
1.029215e+01	-1.844192e-05
1.035160e+01	-1.865557e-05
1.041139e+01	-1.887170e-05
1.047153e+01	-1.909034e-05
1.053201e+01	-1.931150e-05
1.059284e+01	-1.953523e-05
1.065403e+01	-1.976155e-05
1.071556e+01	-1.999049e-05
1.077746e+01	-2.022209e-05
1.083971e+01	-2.045637e-05
1.090232e+01	-2.069336e-05
1.096529e+01	-2.093310e-05
1.102862e+01	-2.117561e-05
1.109232e+01	-2.142094e-05
1.115639e+01	-2.166910e-05
1.122083e+01	-2.192015e-05
1.128564e+01	-2.217410e-05
1.135083e+01	-2.243099e-05
1.141639e+01	-2.269086e-05
1.148233e+01	-2.295374e-05
1.154865e+01	-2.321966e-05
1.161536e+01	-2.348867e-05
1.168245e+01	-2.376079e-05
1.174992e+01	-2.403606e-05
1.181779e+01	-2.431453e-05
1.188605e+01	-2.459622e-05
1.195470e+01	-2.488117e-05
1.202375e+01	-2.516943e-05
1.209320e+01	-2.546102e-05
1.216305e+01	-2.575599e-05
1.223330e+01	-2.605438e-05
1.230396e+01	-2.635623e-05
1.237503e+01	-2.666157e-05
1.244651e+01	-2.697045e-05
1.251840e+01	-2.728291e-05
1.259070e+01	-2.759899e-05
1.266343e+01	-2.791873e-05
1.273657e+01	-2.824218e-05
1.281014e+01	-2.856937e-05
1.288413e+01	-2.890035e-05
1.295855e+01	-2.923517e-05
1.303339e+01	-2.957387e-05
1.310867e+01	-2.991649e-05
1.318439e+01	-3.026308e-05
1.326054e+01	-3.061368e-05
1.333713e+01	-3.096835e-05
1.341417e+01	-3.132712e-05
1.349165e+01	-3.169006e-05
1.356958e+01	-3.205719e-05
1.364795e+01	-3.242858e-05
1.372678e+01	-3.280428e-05
1.380607e+01	-3.318432e-05
1.388581e+01	-3.356877e-05
1.396602e+01	-3.395767e-05
1.404668e+01	-3.435108e-05
1.412782e+01	-3.474904e-05
1.420942e+01	-3.515162e-05
1.429149e+01	-3.555886e-05
1.437404e+01	-3.597082e-05
1.445706e+01	-3.638755e-05
1.454057e+01	-3.680910e-05
1.462455e+01	-3.723555e-05
1.470902e+01	-3.766693e-05
1.479398e+01	-3.810331e-05
1.487943e+01	-3.854474e-05
1.496537e+01	-3.899129e-05
1.505181e+01	-3.944302e-05
1.513875e+01	-3.989997e-05
1.522619e+01	-4.036222e-05
1.531414e+01	-4.082983e-05
1.540259e+01	-4.130285e-05
1.549156e+01	-4.178135e-05
1.558103e+01	-4.226540e-05
1.567103e+01	-4.275506e-05
1.576155e+01	-4.325038e-05
1.585258e+01	-4.375145e-05
1.594415e+01	-4.425832e-05
1.603624e+01	-4.477106e-05
1.612886e+01	-4.528974e-05
1.622202e+01	-4.581443e-05
1.631572e+01	-4.634520e-05
1.640996e+01	-4.688212e-05
1.650474e+01	-4.742526e-05
1.660008e+01	-4.797470e-05
1.669596e+01	-4.853049e-05
1.679239e+01	-4.909273e-05
1.688938e+01	-4.966148e-05
1.698694e+01	-5.023682e-05
1.708505e+01	-5.081882e-05
1.718373e+01	-5.140757e-05
1.728299e+01	-5.200314e-05
1.738281e+01	-5.260560e-05
1.748322e+01	-5.321505e-05
1.758420e+01	-5.383156e-05
1.768576e+01	-5.445521e-05
1.778792e+01	-5.508608e-05
1.789066e+01	-5.572427e-05
1.799399e+01	-5.636984e-05
1.809793e+01	-5.702290e-05
1.820246e+01	-5.768352e-05
1.830760e+01	-5.835180e-05
1.841334e+01	-5.902781e-05
1.851969e+01	-5.971166e-05
1.862666e+01	-6.040343e-05
1.873425e+01	-6.110322e-05
1.884246e+01	-6.181111e-05
1.895129e+01	-6.252721e-05
1.906075e+01	-6.325160e-05
1.917085e+01	-6.398438e-05
1.928158e+01	-6.472565e-05
1.939295e+01	-6.547551e-05
1.950496e+01	-6.623405e-05
1.961762e+01	-6.700139e-05
1.973093e+01	-6.777761e-05
1.984490e+01	-6.856283e-05
1.995952e+01	-6.935714e-05
2.007480e+01	-7.016066e-05
2.019076e+01	-7.097348e-05
2.030738e+01	-7.179572e-05
2.042467e+01	-7.262749e-05
2.054264e+01	-7.346889e-05
2.066130e+01	-7.432004e-05
2.078064e+01	-7.518105e-05
2.090066e+01	-7.605204e-05
2.102139e+01	-7.693312e-05
2.114280e+01	-7.782440e-05
2.126492e+01	-7.872601e-05
2.138775e+01	-7.963806e-05
2.151128e+01	-8.056068e-05
2.163553e+01	-8.149399e-05
2.176050e+01	-8.243811e-05
2.188619e+01	-8.339317e-05
2.201260e+01	-8.435930e-05
2.213974e+01	-8.533661e-05
2.226762e+01	-8.632525e-05
2.239624e+01	-8.732535e-05
2.252560e+01	-8.833702e-05
2.265571e+01	-8.936042e-05
2.278656e+01	-9.039568e-05
2.291818e+01	-9.144293e-05
2.305055e+01	-9.250231e-05
2.318369e+01	-9.357396e-05
2.331760e+01	-9.465803e-05
2.345228e+01	-9.575466e-05
2.358774e+01	-9.686399e-05
2.372398e+01	-9.798617e-05
2.386101e+01	-9.912136e-05
2.399883e+01	-1.002697e-04
2.413745e+01	-1.014313e-04
2.427686e+01	-1.026064e-04
2.441709e+01	-1.037951e-04
2.455812e+01	-1.049976e-04
2.469997e+01	-1.062140e-04
2.484263e+01	-1.074445e-04
2.498612e+01	-1.086893e-04
2.513044e+01	-1.099485e-04
2.527559e+01	-1.112222e-04
2.542158e+01	-1.125108e-04
2.556842e+01	-1.138142e-04
2.571610e+01	-1.151328e-04
2.586463e+01	-1.164666e-04
2.601403e+01	-1.178159e-04
2.616428e+01	-1.191808e-04
2.631541e+01	-1.205615e-04
2.646740e+01	-1.219582e-04
2.662028e+01	-1.233711e-04
2.677404e+01	-1.248004e-04
2.692868e+01	-1.262462e-04
2.708422e+01	-1.277088e-04
2.724066e+01	-1.291883e-04
2.739800e+01	-1.306850e-04
2.755625e+01	-1.321990e-04
2.771541e+01	-1.337305e-04
2.787550e+01	-1.352798e-04
2.803650e+01	-1.368470e-04
2.819844e+01	-1.384324e-04
2.836131e+01	-1.400362e-04
2.852513e+01	-1.416585e-04
2.868989e+01	-1.432996e-04
2.885560e+01	-1.449598e-04
2.902227e+01	-1.466391e-04
2.918990e+01	-1.483380e-04
2.935850e+01	-1.500565e-04
2.952807e+01	-1.517949e-04
2.969863e+01	-1.535534e-04
2.987016e+01	-1.553324e-04
3.004269e+01	-1.571319e-04
3.021622e+01	-1.589523e-04
3.039075e+01	-1.607938e-04
3.056628e+01	-1.626566e-04
3.074283e+01	-1.645409e-04
3.092040e+01	-1.664472e-04
3.109900e+01	-1.683755e-04
3.127862e+01	-1.703261e-04
3.145929e+01	-1.722993e-04
3.164099e+01	-1.742954e-04
3.182375e+01	-1.763147e-04
3.200756e+01	-1.783573e-04
3.219244e+01	-1.804235e-04
3.237838e+01	-1.825138e-04
3.256540e+01	-1.846282e-04
3.275349e+01	-1.867671e-04
3.294268e+01	-1.889308e-04
3.313295e+01	-1.911196e-04
3.332433e+01	-1.933337e-04
3.351681e+01	-1.955735e-04
3.371040e+01	-1.978392e-04
3.390511e+01	-2.001312e-04
3.410094e+01	-2.024497e-04
3.429791e+01	-2.047951e-04
3.449601e+01	-2.071676e-04
3.469526e+01	-2.095677e-04
3.489566e+01	-2.119955e-04
3.509721e+01	-2.144515e-04
3.529993e+01	-2.169359e-04
3.550382e+01	-2.194491e-04
3.570889e+01	-2.219914e-04
3.591515e+01	-2.245632e-04
3.612259e+01	-2.271647e-04
3.633123e+01	-2.297964e-04
3.654108e+01	-2.324586e-04
3.675214e+01	-2.351516e-04
3.696442e+01	-2.378758e-04
3.717792e+01	-2.406316e-04
3.739266e+01	-2.434193e-04
3.760864e+01	-2.462393e-04
3.782587e+01	-2.490920e-04
3.804435e+01	-2.519777e-04
3.826409e+01	-2.548969e-04
3.848510e+01	-2.578498e-04
3.870739e+01	-2.608370e-04
3.893096e+01	-2.638588e-04
3.915583e+01	-2.669156e-04
3.938199e+01	-2.700078e-04
3.960946e+01	-2.731358e-04
3.983824e+01	-2.763000e-04
4.006834e+01	-2.795009e-04
4.029978e+01	-2.827389e-04
4.053255e+01	-2.860144e-04
4.076666e+01	-2.893279e-04
4.100213e+01	-2.926797e-04
4.123896e+01	-2.960704e-04
4.147715e+01	-2.995003e-04
4.171672e+01	-3.029700e-04
4.195767e+01	-3.064799e-04
4.220002e+01	-3.100304e-04
4.244377e+01	-3.136220e-04
4.268892e+01	-3.172553e-04
4.293549e+01	-3.209307e-04
4.318348e+01	-3.246486e-04
4.343291e+01	-3.284096e-04
4.368377e+01	-3.322142e-04
4.393609e+01	-3.360628e-04
4.418986e+01	-3.399560e-04
4.444510e+01	-3.438944e-04
4.470182e+01	-3.478783e-04
4.496001e+01	-3.519084e-04
4.521970e+01	-3.559852e-04
4.548089e+01	-3.601092e-04
4.574358e+01	-3.642810e-04
4.600779e+01	-3.685011e-04
4.627353e+01	-3.727701e-04
4.654081e+01	-3.770886e-04
4.680963e+01	-3.814571e-04
4.708000e+01	-3.858762e-04
4.735193e+01	-3.903465e-04
4.762543e+01	-3.948685e-04
4.790051e+01	-3.994430e-04
4.817719e+01	-4.040704e-04
4.845545e+01	-4.087515e-04
4.873533e+01	-4.134867e-04
4.901682e+01	-4.182769e-04
4.929994e+01	-4.231225e-04
4.958470e+01	-4.280242e-04
4.987110e+01	-4.329828e-04
5.015915e+01	-4.379987e-04
5.044887e+01	-4.430728e-04
5.074026e+01	-4.482057e-04
5.103333e+01	-4.533980e-04
5.132810e+01	-4.586504e-04
5.162457e+01	-4.639638e-04
5.192275e+01	-4.693386e-04
5.222265e+01	-4.747757e-04
5.252429e+01	-4.802758e-04
5.282767e+01	-4.858397e-04
5.313280e+01	-4.914679e-04
5.343969e+01	-4.971614e-04
5.374836e+01	-5.029208e-04
5.405880e+01	-5.087469e-04
5.437105e+01	-5.146406e-04
5.468509e+01	-5.206025e-04
5.500095e+01	-5.266334e-04
5.531863e+01	-5.327342e-04
5.563815e+01	-5.389057e-04
5.595951e+01	-5.451487e-04
5.628273e+01	-5.514640e-04
5.660782e+01	-5.578525e-04
5.693479e+01	-5.643149e-04
5.726364e+01	-5.708522e-04
5.759439e+01	-5.774653e-04
5.792705e+01	-5.841549e-04
5.826164e+01	-5.909221e-04
5.859815e+01	-5.977676e-04
5.893662e+01	-6.046924e-04
5.927703e+01	-6.116974e-04
5.961941e+01	-6.187836e-04
5.996377e+01	-6.259519e-04
6.031012e+01	-6.332032e-04
6.065847e+01	-6.405385e-04
6.100883e+01	-6.479587e-04
6.136121e+01	-6.554649e-04
6.171563e+01	-6.630581e-04
6.207210e+01	-6.707392e-04
6.243063e+01	-6.785093e-04
6.279122e+01	-6.863694e-04
6.315390e+01	-6.943205e-04
6.351868e+01	-7.023638e-04
6.388556e+01	-7.105002e-04
6.425456e+01	-7.187309e-04
6.462569e+01	-7.270569e-04
6.499897e+01	-7.354793e-04
6.537440e+01	-7.439993e-04
6.575200e+01	-7.526180e-04
6.613178e+01	-7.613365e-04
6.651375e+01	-7.701560e-04
6.689793e+01	-7.790777e-04
6.728433e+01	-7.881027e-04
6.767297e+01	-7.972323e-04
6.806384e+01	-8.064675e-04
6.845698e+01	-8.158098e-04
6.885238e+01	-8.252603e-04
6.925007e+01	-8.348202e-04
6.965005e+01	-8.444909e-04
7.005235e+01	-8.542736e-04
7.045697e+01	-8.641696e-04
7.086393e+01	-8.741803e-04
7.127323e+01	-8.843069e-04
7.168490e+01	-8.945507e-04
7.209895e+01	-9.049133e-04
7.251539e+01	-9.153958e-04
7.293424e+01	-9.259998e-04
7.335551e+01	-9.367266e-04
7.377920e+01	-9.475777e-04
7.420535e+01	-9.585544e-04
7.463396e+01	-9.696583e-04
7.506504e+01	-9.808908e-04
7.549861e+01	-9.922534e-04
7.593469e+01	-1.003748e-03
7.637328e+01	-1.015375e-03
7.681441e+01	-1.027137e-03
7.725809e+01	-1.039035e-03
7.770433e+01	-1.051071e-03
7.815315e+01	-1.063247e-03
7.860456e+01	-1.075563e-03
7.905857e+01	-1.088022e-03
7.951521e+01	-1.100626e-03
7.997449e+01	-1.113375e-03
8.043642e+01	-1.126272e-03
8.090102e+01	-1.139319e-03
8.136830e+01	-1.152516e-03
8.183828e+01	-1.165867e-03
8.231097e+01	-1.179372e-03
8.278640e+01	-1.193033e-03
8.326457e+01	-1.206853e-03
8.374550e+01	-1.220833e-03
8.422921e+01	-1.234974e-03
8.471572e+01	-1.249280e-03
8.520503e+01	-1.263751e-03
8.569717e+01	-1.278390e-03
8.619215e+01	-1.293198e-03
8.669000e+01	-1.308178e-03
8.719071e+01	-1.323331e-03
8.769432e+01	-1.338660e-03
8.820084e+01	-1.354166e-03
8.871029e+01	-1.369852e-03
8.922267e+01	-1.385720e-03
8.973802e+01	-1.401771e-03
9.025634e+01	-1.418008e-03
9.077766e+01	-1.434433e-03
9.130199e+01	-1.451049e-03
9.182935e+01	-1.467857e-03
9.235975e+01	-1.484859e-03
9.289321e+01	-1.502059e-03
9.342976e+01	-1.519458e-03
9.396941e+01	-1.537058e-03
9.451217e+01	-1.554862e-03
9.505807e+01	-1.572872e-03
9.560712e+01	-1.591091e-03
9.615934e+01	-1.609521e-03
9.671476e+01	-1.628164e-03
9.727338e+01	-1.647023e-03
9.783522e+01	-1.666101e-03
9.840032e+01	-1.685399e-03
9.896867e+01	-1.704921e-03
9.954031e+01	-1.724669e-03
1.001153e+02	-1.744646e-03
1.006935e+02	-1.764854e-03
1.012751e+02	-1.785296e-03
1.018601e+02	-1.805975e-03
1.024484e+02	-1.826893e-03
1.030402e+02	-1.848054e-03
1.036353e+02	-1.869459e-03
1.042339e+02	-1.891113e-03
1.048360e+02	-1.913017e-03
1.054415e+02	-1.935175e-03
1.060505e+02	-1.957589e-03
1.066631e+02	-1.980263e-03
1.072791e+02	-2.003200e-03
1.078988e+02	-2.026402e-03
1.085220e+02	-2.049873e-03
1.091488e+02	-2.073616e-03
1.097793e+02	-2.097633e-03
1.104133e+02	-2.121929e-03
1.110511e+02	-2.146506e-03
1.116925e+02	-2.171368e-03
1.123376e+02	-2.196517e-03
1.129865e+02	-2.221958e-03
1.136391e+02	-2.247693e-03
1.142955e+02	-2.273727e-03
1.149556e+02	-2.300061e-03
1.156196e+02	-2.326701e-03
1.162874e+02	-2.353649e-03
1.169591e+02	-2.380909e-03
1.176347e+02	-2.408485e-03
1.183141e+02	-2.436380e-03
1.189975e+02	-2.464598e-03
1.196848e+02	-2.493143e-03
1.203761e+02	-2.522018e-03
1.210714e+02	-2.551228e-03
1.217707e+02	-2.580776e-03
1.224740e+02	-2.610666e-03
1.231814e+02	-2.640902e-03
1.238929e+02	-2.671488e-03
1.246085e+02	-2.702428e-03
1.253283e+02	-2.733727e-03
1.260522e+02	-2.765388e-03
1.267802e+02	-2.797415e-03
1.275125e+02	-2.829813e-03
1.282490e+02	-2.862587e-03
1.289898e+02	-2.895740e-03
1.297348e+02	-2.929276e-03
1.304842e+02	-2.963201e-03
1.312378e+02	-2.997519e-03
1.319959e+02	-3.032233e-03
1.327583e+02	-3.067350e-03
1.335251e+02	-3.102874e-03
1.342963e+02	-3.138808e-03
1.350720e+02	-3.175159e-03
1.358522e+02	-3.211930e-03
1.366368e+02	-3.249127e-03
1.374260e+02	-3.286755e-03
1.382198e+02	-3.324818e-03
1.390182e+02	-3.363322e-03
1.398211e+02	-3.402272e-03
1.406287e+02	-3.441673e-03
1.414410e+02	-3.481529e-03
1.422579e+02	-3.521847e-03
1.430796e+02	-3.562632e-03
1.439060e+02	-3.603889e-03
1.447372e+02	-3.645623e-03
1.455732e+02	-3.687841e-03
1.464141e+02	-3.730547e-03
1.472597e+02	-3.773748e-03
1.481103e+02	-3.817448e-03
1.489658e+02	-3.861655e-03
1.498262e+02	-3.906373e-03
1.506916e+02	-3.951609e-03
1.515620e+02	-3.997368e-03
1.524374e+02	-4.043657e-03
1.533179e+02	-4.090482e-03
1.542034e+02	-4.137848e-03
1.550941e+02	-4.185763e-03
1.559899e+02	-4.234233e-03
1.568909e+02	-4.283263e-03
1.577971e+02	-4.332861e-03
1.587085e+02	-4.383033e-03
1.596252e+02	-4.433786e-03
1.605472e+02	-4.485126e-03
1.614745e+02	-4.537060e-03
1.624072e+02	-4.589595e-03
1.633453e+02	-4.642738e-03
1.642887e+02	-4.696496e-03
1.652377e+02	-4.750877e-03
1.661921e+02	-4.805886e-03
1.671520e+02	-4.861533e-03
1.681175e+02	-4.917823e-03
1.690885e+02	-4.974764e-03
1.700651e+02	-5.032365e-03
1.710474e+02	-5.090632e-03
1.720354e+02	-5.149573e-03
1.730291e+02	-5.209196e-03
1.740285e+02	-5.269510e-03
1.750337e+02	-5.330521e-03
1.760446e+02	-5.392238e-03
1.770615e+02	-5.454669e-03
1.780842e+02	-5.517822e-03
1.791128e+02	-5.581707e-03
1.801473e+02	-5.646330e-03
1.811878e+02	-5.711701e-03
1.822344e+02	-5.777828e-03
1.832870e+02	-5.844721e-03
1.843456e+02	-5.912387e-03
1.854104e+02	-5.980837e-03
1.864813e+02	-6.050078e-03
1.875584e+02	-6.120120e-03
1.886418e+02	-6.190973e-03
1.897313e+02	-6.262645e-03
1.908272e+02	-6.335146e-03
1.919294e+02	-6.408486e-03
1.930380e+02	-6.482674e-03
1.941530e+02	-6.557721e-03
1.952744e+02	-6.633636e-03
1.964023e+02	-6.710429e-03
1.975367e+02	-6.788110e-03
1.986777e+02	-6.866689e-03
1.998252e+02	-6.946178e-03
2.009794e+02	-7.026586e-03
2.021403e+02	-7.107924e-03
2.033078e+02	-7.190203e-03
2.044821e+02	-7.273433e-03
2.056632e+02	-7.357626e-03
2.068511e+02	-7.442793e-03
2.080459e+02	-7.528945e-03
2.092475e+02	-7.616093e-03
2.104561e+02	-7.704249e-03
2.116717e+02	-7.793424e-03
2.128943e+02	-7.883631e-03
2.141240e+02	-7.974881e-03
2.153608e+02	-8.067186e-03
2.166047e+02	-8.160558e-03
2.178558e+02	-8.255010e-03
2.191141e+02	-8.350554e-03
2.203797e+02	-8.447203e-03
2.216526e+02	-8.544970e-03
2.229329e+02	-8.643867e-03
2.242205e+02	-8.743907e-03
2.255156e+02	-8.845104e-03
2.268182e+02	-8.947471e-03
2.281283e+02	-9.051021e-03
2.294459e+02	-9.155769e-03
2.307712e+02	-9.261727e-03
2.321041e+02	-9.368911e-03
2.334447e+02	-9.477333e-03
2.347931e+02	-9.587009e-03
2.361493e+02	-9.697953e-03
2.375133e+02	-9.810179e-03
2.388851e+02	-9.923702e-03
2.402649e+02	-1.003854e-02
2.416527e+02	-1.015470e-02
2.430484e+02	-1.027221e-02
2.444523e+02	-1.039107e-02
2.458642e+02	-1.051131e-02
2.472843e+02	-1.063293e-02
2.487126e+02	-1.075596e-02
2.501492e+02	-1.088042e-02
2.515940e+02	-1.100631e-02
2.530472e+02	-1.113366e-02
2.545088e+02	-1.126248e-02
2.559789e+02	-1.139278e-02
2.574574e+02	-1.152460e-02
2.589444e+02	-1.165793e-02
2.604401e+02	-1.179281e-02
2.619444e+02	-1.192924e-02
2.634574e+02	-1.206725e-02
2.649791e+02	-1.220686e-02
2.665096e+02	-1.234808e-02
2.680489e+02	-1.249093e-02
2.695972e+02	-1.263542e-02
2.711544e+02	-1.278159e-02
2.727205e+02	-1.292945e-02
2.742958e+02	-1.307901e-02
2.758801e+02	-1.323031e-02
2.774736e+02	-1.338335e-02
2.790762e+02	-1.353815e-02
2.806882e+02	-1.369475e-02
2.823094e+02	-1.385315e-02
2.839400e+02	-1.401338e-02
2.855800e+02	-1.417547e-02
2.872295e+02	-1.433942e-02
2.888886e+02	-1.450527e-02
2.905572e+02	-1.467303e-02
2.922354e+02	-1.484273e-02
2.939234e+02	-1.501439e-02
2.956211e+02	-1.518803e-02
2.973286e+02	-1.536368e-02
2.990459e+02	-1.554135e-02
3.007732e+02	-1.572107e-02
3.025104e+02	-1.590287e-02
3.042577e+02	-1.608677e-02
3.060151e+02	-1.627279e-02
3.077826e+02	-1.646095e-02
3.095604e+02	-1.665129e-02
3.113484e+02	-1.684382e-02
3.131467e+02	-1.703858e-02
3.149554e+02	-1.723558e-02
3.167746e+02	-1.743486e-02
3.186043e+02	-1.763644e-02
3.204445e+02	-1.784034e-02
3.222954e+02	-1.804659e-02
3.241570e+02	-1.825522e-02
3.260293e+02	-1.846626e-02
3.279124e+02	-1.867974e-02
3.298064e+02	-1.889568e-02
3.317114e+02	-1.911411e-02
3.336273e+02	-1.933505e-02
3.355544e+02	-1.955855e-02
3.374925e+02	-1.978462e-02
3.394418e+02	-2.001330e-02
3.414024e+02	-2.024462e-02
3.433744e+02	-2.047860e-02
3.453577e+02	-2.071529e-02
3.473525e+02	-2.095470e-02
3.493588e+02	-2.119687e-02
3.513766e+02	-2.144183e-02
3.534062e+02	-2.168962e-02
3.554474e+02	-2.194026e-02
3.575005e+02	-2.219379e-02
3.595654e+02	-2.245025e-02
3.616422e+02	-2.270966e-02
3.637311e+02	-2.297206e-02
3.658320e+02	-2.323748e-02
3.679450e+02	-2.350596e-02
3.700702e+02	-2.377754e-02
3.722077e+02	-2.405224e-02
3.743576e+02	-2.433011e-02
3.765199e+02	-2.461118e-02
3.786946e+02	-2.489548e-02
3.808820e+02	-2.518307e-02
3.830819e+02	-2.547396e-02
3.852946e+02	-2.576821e-02
3.875200e+02	-2.606584e-02
3.897583e+02	-2.636690e-02
3.920096e+02	-2.667143e-02
3.942738e+02	-2.697946e-02
3.965511e+02	-2.729104e-02
3.988416e+02	-2.760620e-02
4.011452e+02	-2.792500e-02
4.034622e+02	-2.824746e-02
4.057926e+02	-2.857363e-02
4.081365e+02	-2.890356e-02
4.104938e+02	-2.923729e-02
4.128648e+02	-2.957485e-02
4.152495e+02	-2.991630e-02
4.176480e+02	-3.026168e-02
4.200603e+02	-3.061103e-02
4.224866e+02	-3.096440e-02
4.249268e+02	-3.132183e-02
4.273812e+02	-3.168338e-02
4.298497e+02	-3.204908e-02
4.323325e+02	-3.241899e-02
4.348297e+02	-3.279315e-02
4.373412e+02	-3.317161e-02
4.398673e+02	-3.355442e-02
4.424079e+02	-3.394164e-02
4.449633e+02	-3.433330e-02
4.475334e+02	-3.472947e-02
4.501183e+02	-3.513019e-02
4.527182e+02	-3.553551e-02
4.553330e+02	-3.594549e-02
4.579630e+02	-3.636018e-02
4.606082e+02	-3.677964e-02
4.632687e+02	-3.720391e-02
4.659445e+02	-3.763305e-02
4.686358e+02	-3.806713e-02
4.713426e+02	-3.850619e-02
4.740650e+02	-3.895029e-02
4.768032e+02	-3.939948e-02
4.795572e+02	-3.985384e-02
4.823271e+02	-4.031341e-02
4.851130e+02	-4.077825e-02
4.879150e+02	-4.124843e-02
4.907332e+02	-4.172400e-02
4.935676e+02	-4.220503e-02
4.964185e+02	-4.269158e-02
4.992858e+02	-4.318371e-02
5.021696e+02	-4.368149e-02
5.050701e+02	-4.418497e-02
5.079874e+02	-4.469422e-02
5.109215e+02	-4.520932e-02
5.138726e+02	-4.573032e-02
5.168407e+02	-4.625729e-02
5.198259e+02	-4.679030e-02
5.228284e+02	-4.732942e-02
5.258482e+02	-4.787472e-02
5.288855e+02	-4.842626e-02
5.319403e+02	-4.898412e-02
5.350128e+02	-4.954838e-02
5.381030e+02	-5.011909e-02
5.412111e+02	-5.069634e-02
5.443371e+02	-5.128020e-02
5.474812e+02	-5.187074e-02
5.506434e+02	-5.246804e-02
5.538239e+02	-5.307218e-02
5.570228e+02	-5.368323e-02
5.602401e+02	-5.430127e-02
5.634760e+02	-5.492638e-02
5.667306e+02	-5.555865e-02
5.700040e+02	-5.619814e-02
5.732964e+02	-5.684494e-02
5.766077e+02	-5.749914e-02
5.799382e+02	-5.816082e-02
5.832879e+02	-5.883006e-02
5.866569e+02	-5.950695e-02
5.900454e+02	-6.019158e-02
5.934535e+02	-6.088402e-02
5.968813e+02	-6.158437e-02
6.003288e+02	-6.229272e-02
6.037963e+02	-6.300916e-02
6.072838e+02	-6.373378e-02
6.107914e+02	-6.446667e-02
6.143194e+02	-6.520793e-02
6.178676e+02	-6.595764e-02
6.214364e+02	-6.671591e-02
6.250258e+02	-6.748282e-02
6.286359e+02	-6.825848e-02
6.322669e+02	-6.904299e-02
6.359189e+02	-6.983644e-02
6.395919e+02	-7.063893e-02
6.432862e+02	-7.145057e-02
6.470017e+02	-7.227146e-02
6.507388e+02	-7.310170e-02
6.544974e+02	-7.394139e-02
6.582778e+02	-7.479065e-02
6.620800e+02	-7.564958e-02
6.659041e+02	-7.651828e-02
6.697504e+02	-7.739687e-02
6.736188e+02	-7.828546e-02
6.775096e+02	-7.918415e-02
6.814229e+02	-8.009307e-02
6.853587e+02	-8.101232e-02
6.893173e+02	-8.194202e-02
6.932988e+02	-8.288229e-02
6.973033e+02	-8.383325e-02
7.013309e+02	-8.479501e-02
