Frequency(Hz)	Magnitude(dB)
1.000000e+01	-1.891461e+00
1.005776e+01	-1.909052e+00
1.011585e+01	-1.926872e+00
1.017428e+01	-1.944905e+00
1.023305e+01	-1.963088e+00
1.029215e+01	-1.981313e+00
1.035160e+01	-1.999740e+00
1.041139e+01	-2.018186e+00
1.047153e+01	-2.036836e+00
1.053201e+01	-2.055530e+00
1.059284e+01	-2.074607e+00
1.065403e+01	-2.093690e+00
1.071556e+01	-2.112713e+00
1.077746e+01	-2.132213e+00
1.083971e+01	-2.151666e+00
1.090232e+01	-2.171340e+00
1.096529e+01	-2.190990e+00
1.102862e+01	-2.210919e+00
1.109232e+01	-2.230754e+00
1.115639e+01	-2.251047e+00
1.122083e+01	-2.271266e+00
1.128564e+01	-2.291809e+00
1.135083e+01	-2.312389e+00
1.141639e+01	-2.333143e+00
1.148233e+01	-2.354203e+00
1.154865e+01	-2.375111e+00
1.161536e+01	-2.396001e+00
1.168245e+01	-2.417205e+00
1.174992e+01	-2.438742e+00
1.181779e+01	-2.460471e+00
1.188605e+01	-2.482064e+00
1.195470e+01	-2.503878e+00
1.202375e+01	-2.525991e+00
1.209320e+01	-2.548078e+00
1.216305e+01	-2.570111e+00
1.223330e+01	-2.592757e+00
1.230396e+01	-2.615195e+00
1.237503e+01	-2.637971e+00
1.244651e+01	-2.660809e+00
1.251840e+01	-2.683903e+00
1.259070e+01	-2.706892e+00
1.266343e+01	-2.730073e+00
1.273657e+01	-2.753558e+00
1.281014e+01	-2.777292e+00
1.288413e+01	-2.801061e+00
1.295855e+01	-2.824758e+00
1.303339e+01	-2.848885e+00
1.310867e+01	-2.872855e+00
1.318439e+01	-2.897247e+00
1.326054e+01	-2.921704e+00
1.333713e+01	-2.946125e+00
1.341417e+01	-2.970798e+00
1.349165e+01	-2.995547e+00
1.356958e+01	-3.020797e+00
1.364795e+01	-3.045901e+00
1.372678e+01	-3.071090e+00
1.380607e+01	-3.096747e+00
1.388581e+01	-3.122015e+00
1.396602e+01	-3.147824e+00
1.404668e+01	-3.173850e+00
1.412782e+01	-3.199871e+00
1.420942e+01	-3.226039e+00
1.429149e+01	-3.252143e+00
1.437404e+01	-3.278764e+00
1.445706e+01	-3.305121e+00
1.454057e+01	-3.332104e+00
1.462455e+01	-3.358904e+00
1.470902e+01	-3.385814e+00
1.479398e+01	-3.413096e+00
1.487943e+01	-3.440321e+00
1.496537e+01	-3.467645e+00
1.505181e+01	-3.495210e+00
1.513875e+01	-3.523160e+00
1.522619e+01	-3.550804e+00
1.531414e+01	-3.579204e+00
1.540259e+01	-3.607017e+00
1.549156e+01	-3.635459e+00
1.558103e+01	-3.664054e+00
1.567103e+01	-3.692551e+00
1.576155e+01	-3.721056e+00
1.585258e+01	-3.749860e+00
1.594415e+01	-3.778896e+00
1.603624e+01	-3.807962e+00
1.612886e+01	-3.837419e+00
1.622202e+01	-3.866849e+00
1.631572e+01	-3.896414e+00
1.640996e+01	-3.926066e+00
1.650474e+01	-3.955976e+00
1.660008e+01	-3.985823e+00
1.669596e+01	-4.016127e+00
1.679239e+01	-4.046399e+00
1.688938e+01	-4.076757e+00
1.698694e+01	-4.107274e+00
1.708505e+01	-4.138105e+00
1.718373e+01	-4.168717e+00
1.728299e+01	-4.199450e+00
1.738281e+01	-4.231029e+00
1.748322e+01	-4.261895e+00
1.758420e+01	-4.293200e+00
1.768576e+01	-4.324928e+00
1.778792e+01	-4.356093e+00
1.789066e+01	-4.388220e+00
1.799399e+01	-4.419969e+00
1.809793e+01	-4.452038e+00
1.820246e+01	-4.484350e+00
1.830760e+01	-4.516299e+00
1.841334e+01	-4.548786e+00
1.851969e+01	-4.581149e+00
1.862666e+01	-4.614163e+00
1.873425e+01	-4.646649e+00
1.884246e+01	-4.679656e+00
1.895129e+01	-4.712693e+00
1.906075e+01	-4.745987e+00
1.917085e+01	-4.779520e+00
1.928158e+01	-4.812772e+00
1.939295e+01	-4.846384e+00
1.950496e+01	-4.880037e+00
1.961762e+01	-4.913832e+00
1.973093e+01	-4.948023e+00
1.984490e+01	-4.981934e+00
1.995952e+01	-5.016083e+00
2.007480e+01	-5.050326e+00
2.019076e+01	-5.084946e+00
2.030738e+01	-5.119456e+00
2.042467e+01	-5.154176e+00
2.054264e+01	-5.188645e+00
2.066130e+01	-5.223791e+00
2.078064e+01	-5.258872e+00
2.090066e+01	-5.294089e+00
2.102139e+01	-5.329397e+00
2.114280e+01	-5.364540e+00
2.126492e+01	-5.399942e+00
2.138775e+01	-5.436081e+00
2.151128e+01	-5.471828e+00
2.163553e+01	-5.507457e+00
2.176050e+01	-5.543997e+00
2.188619e+01	-5.579817e+00
2.201260e+01	-5.616218e+00
2.213974e+01	-5.652675e+00
2.226762e+01	-5.688944e+00
2.239624e+01	-5.725423e+00
2.252560e+01	-5.761762e+00
2.265571e+01	-5.799286e+00
2.278656e+01	-5.836108e+00
2.291818e+01	-5.873122e+00
2.305055e+01	-5.910317e+00
2.318369e+01	-5.947105e+00
2.331760e+01	-5.984694e+00
2.345228e+01	-6.022080e+00
2.358774e+01	-6.059511e+00
2.372398e+01	-6.097349e+00
2.386101e+01	-6.135363e+00
2.399883e+01	-6.173211e+00
2.413745e+01	-6.211218e+00
2.427686e+01	-6.249438e+00
2.441709e+01	-6.287316e+00
2.455812e+01	-6.325778e+00
2.469997e+01	-6.364165e+00
2.484263e+01	-6.402530e+00
2.498612e+01	-6.441119e+00
2.513044e+01	-6.480044e+00
2.527559e+01	-6.518871e+00
2.542158e+01	-6.557581e+00
2.556842e+01	-6.596925e+00
2.571610e+01	-6.635584e+00
2.586463e+01	-6.675525e+00
2.601403e+01	-6.714121e+00
2.616428e+01	-6.753977e+00
2.631541e+01	-6.793417e+00
2.646740e+01	-6.833186e+00
2.662028e+01	-6.872587e+00
2.677404e+01	-6.913041e+00
2.692868e+01	-6.952224e+00
2.708422e+01	-6.992406e+00
2.724066e+01	-7.032599e+00
2.739800e+01	-7.072452e+00
2.755625e+01	-7.113008e+00
2.771541e+01	-7.153326e+00
2.787550e+01	-7.193621e+00
2.803650e+01	-7.234273e+00
2.819844e+01	-7.274941e+00
2.836131e+01	-7.315643e+00
2.852513e+01	-7.356757e+00
2.868989e+01	-7.396946e+00
2.885560e+01	-7.438006e+00
2.902227e+01	-7.479371e+00
2.918990e+01	-7.520214e+00
2.935850e+01	-7.561820e+00
2.952807e+01	-7.602861e+00
2.969863e+01	-7.644693e+00
2.987016e+01	-7.685736e+00
3.004269e+01	-7.726993e+00
3.021622e+01	-7.768685e+00
3.039075e+01	-7.810305e+00
3.056628e+01	-7.852468e+00
3.074283e+01	-7.893862e+00
3.092040e+01	-7.936226e+00
3.109900e+01	-7.978174e+00
3.127862e+01	-8.019788e+00
3.145929e+01	-8.062451e+00
3.164099e+01	-8.104963e+00
3.182375e+01	-8.146927e+00
3.200756e+01	-8.188983e+00
3.219244e+01	-8.232050e+00
3.237838e+01	-8.274490e+00
3.256540e+01	-8.317028e+00
3.275349e+01	-8.359735e+00
3.294268e+01	-8.402638e+00
3.313295e+01	-8.444984e+00
3.332433e+01	-8.488489e+00
3.351681e+01	-8.531307e+00
3.371040e+01	-8.574059e+00
3.390511e+01	-8.617610e+00
3.410094e+01	-8.660545e+00
3.429791e+01	-8.703557e+00
3.449601e+01	-8.747377e+00
3.469526e+01	-8.790236e+00
3.489566e+01	-8.834150e+00
3.509721e+01	-8.877238e+00
3.529993e+01	-8.920924e+00
3.550382e+01	-8.964936e+00
3.570889e+01	-9.008195e+00
3.591515e+01	-9.051736e+00
3.612259e+01	-9.095729e+00
3.633123e+01	-9.140050e+00
3.654108e+01	-9.183717e+00
3.675214e+01	-9.228169e+00
3.696442e+01	-9.271705e+00
3.717792e+01	-9.316163e+00
3.739266e+01	-9.360229e+00
3.760864e+01	-9.404375e+00
3.782587e+01	-9.448432e+00
3.804435e+01	-9.493210e+00
3.826409e+01	-9.537778e+00
3.848510e+01	-9.582485e+00
3.870739e+01	-9.626634e+00
3.893096e+01	-9.671634e+00
3.915583e+01	-9.715832e+00
3.938199e+01	-9.760581e+00
3.960946e+01	-9.805475e+00
3.983824e+01	-9.850463e+00
4.006834e+01	-9.895273e+00
4.029978e+01	-9.940146e+00
4.053255e+01	-9.984483e+00
4.076666e+01	-1.002956e+01
4.100213e+01	-1.007514e+01
4.123896e+01	-1.012019e+01
4.147715e+01	-1.016558e+01
4.171672e+01	-1.021024e+01
4.195767e+01	-1.025542e+01
4.220002e+01	-1.030133e+01
4.244377e+01	-1.034674e+01
4.268892e+01	-1.039265e+01
4.293549e+01	-1.043723e+01
4.318348e+01	-1.048318e+01
4.343291e+01	-1.052878e+01
4.368377e+01	-1.057463e+01
4.393609e+01	-1.062021e+01
4.418986e+01	-1.066527e+01
4.444510e+01	-1.071139e+01
4.470182e+01	-1.075759e+01
4.496001e+01	-1.080326e+01
4.521970e+01	-1.084855e+01
4.548089e+01	-1.089483e+01
4.574358e+01	-1.094127e+01
4.600779e+01	-1.098744e+01
4.627353e+01	-1.103347e+01
4.654081e+01	-1.107872e+01
4.680963e+01	-1.112531e+01
4.708000e+01	-1.117180e+01
4.735193e+01	-1.121757e+01
4.762543e+01	-1.126401e+01
4.790051e+01	-1.131008e+01
4.817719e+01	-1.135682e+01
4.845545e+01	-1.140304e+01
4.873533e+01	-1.144914e+01
4.901682e+01	-1.149556e+01
4.929994e+01	-1.154278e+01
4.958470e+01	-1.158929e+01
4.987110e+01	-1.163543e+01
5.015915e+01	-1.168160e+01
5.044887e+01	-1.172847e+01
5.074026e+01	-1.177539e+01
5.103333e+01	-1.182243e+01
5.132810e+01	-1.186888e+01
5.162457e+01	-1.191597e+01
5.192275e+01	-1.196276e+01
5.222265e+01	-1.200965e+01
5.252429e+01	-1.205620e+01
5.282767e+01	-1.210350e+01
5.313280e+01	-1.214980e+01
5.343969e+01	-1.219686e+01
5.374836e+01	-1.224421e+01
5.405880e+01	-1.229172e+01
5.437105e+01	-1.233778e+01
5.468509e+01	-1.238494e+01
5.500095e+01	-1.243214e+01
5.531863e+01	-1.247931e+01
5.563815e+01	-1.252716e+01
5.595951e+01	-1.257417e+01
5.628273e+01	-1.262159e+01
5.660782e+01	-1.266891e+01
5.693479e+01	-1.271654e+01
5.726364e+01	-1.276377e+01
5.759439e+01	-1.281069e+01
5.792705e+01	-1.285840e+01
5.826164e+01	-1.290535e+01
5.859815e+01	-1.295377e+01
5.893662e+01	-1.300122e+01
5.927703e+01	-1.304880e+01
5.961941e+01	-1.309560e+01
5.996377e+01	-1.314339e+01
6.031012e+01	-1.319120e+01
6.065847e+01	-1.323851e+01
6.100883e+01	-1.328599e+01
6.136121e+01	-1.333438e+01
6.171563e+01	-1.338098e+01
6.207210e+01	-1.342971e+01
6.243063e+01	-1.347717e+01
6.279122e+01	-1.352493e+01
6.315390e+01	-1.357341e+01
6.351868e+01	-1.362048e+01
6.388556e+01	-1.366876e+01
6.425456e+01	-1.371640e+01
6.462569e+01	-1.376412e+01
6.499897e+01	-1.381191e+01
6.537440e+01	-1.386016e+01
6.575200e+01	-1.390813e+01
6.613178e+01	-1.395593e+01
6.651375e+01	-1.400461e+01
6.689793e+01	-1.405270e+01
6.728433e+01	-1.410088e+01
6.767297e+01	-1.414813e+01
6.806384e+01	-1.419597e+01
6.845698e+01	-1.424481e+01
6.885238e+01	-1.429273e+01
6.925007e+01	-1.434079e+01
6.965005e+01	-1.438910e+01
7.005235e+01	-1.443746e+01
7.045697e+01	-1.448598e+01
7.086393e+01	-1.453415e+01
7.127323e+01	-1.458141e+01
7.168490e+01	-1.463078e+01
7.209895e+01	-1.467870e+01
7.251539e+01	-1.472649e+01
7.293424e+01	-1.477536e+01
7.335551e+01	-1.482356e+01
7.377920e+01	-1.487253e+01
7.420535e+01	-1.492031e+01
7.463396e+01	-1.496897e+01
7.506504e+01	-1.501677e+01
7.549861e+01	-1.506596e+01
7.593469e+01	-1.511454e+01
7.637328e+01	-1.516269e+01
7.681441e+01	-1.521220e+01
7.725809e+01	-1.526030e+01
7.770433e+01	-1.530880e+01
7.815315e+01	-1.535717e+01
7.860456e+01	-1.540588e+01
7.905857e+01	-1.545370e+01
7.951521e+01	-1.550350e+01
7.997449e+01	-1.555199e+01
8.043642e+01	-1.560102e+01
8.090102e+01	-1.564904e+01
8.136830e+01	-1.569819e+01
8.183828e+01	-1.574582e+01
8.231097e+01	-1.579543e+01
8.278640e+01	-1.584423e+01
8.326457e+01	-1.589326e+01
8.374550e+01	-1.594203e+01
8.422921e+01	-1.598946e+01
8.471572e+01	-1.603991e+01
8.520503e+01	-1.608764e+01
8.569717e+01	-1.613703e+01
8.619215e+01	-1.618408e+01
8.669000e+01	-1.623413e+01
8.719071e+01	-1.628256e+01
8.769432e+01	-1.633145e+01
8.820084e+01	-1.638066e+01
8.871029e+01	-1.642940e+01
8.922267e+01	-1.647835e+01
8.973802e+01	-1.652724e+01
9.025634e+01	-1.657568e+01
9.077766e+01	-1.662514e+01
9.130199e+01	-1.667455e+01
9.182935e+01	-1.672406e+01
9.235975e+01	-1.677232e+01
9.289321e+01	-1.682166e+01
9.342976e+01	-1.687026e+01
9.396941e+01	-1.691883e+01
9.451217e+01	-1.696817e+01
9.505807e+01	-1.701659e+01
9.560712e+01	-1.706693e+01
9.615934e+01	-1.711457e+01
9.671476e+01	-1.716457e+01
9.727338e+01	-1.721350e+01
9.783522e+01	-1.726301e+01
9.840032e+01	-1.731126e+01
9.896867e+01	-1.736052e+01
9.954031e+01	-1.741016e+01
1.001153e+02	-1.745936e+01
1.006935e+02	-1.750775e+01
1.012751e+02	-1.755763e+01
1.018601e+02	-1.760705e+01
1.024484e+02	-1.765530e+01
1.030402e+02	-1.770479e+01
1.036353e+02	-1.775248e+01
1.042339e+02	-1.780331e+01
1.048360e+02	-1.785298e+01
1.054415e+02	-1.790131e+01
1.060505e+02	-1.795169e+01
1.066631e+02	-1.799956e+01
1.072791e+02	-1.804912e+01
1.078988e+02	-1.809889e+01
1.085220e+02	-1.814811e+01
1.091488e+02	-1.819746e+01
1.097793e+02	-1.824650e+01
1.104133e+02	-1.829633e+01
1.110511e+02	-1.834485e+01
1.116925e+02	-1.839344e+01
1.123376e+02	-1.844341e+01
1.129865e+02	-1.849237e+01
1.136391e+02	-1.854190e+01
1.142955e+02	-1.859135e+01
1.149556e+02	-1.864159e+01
1.156196e+02	-1.868961e+01
1.162874e+02	-1.873907e+01
1.169591e+02	-1.878955e+01
1.176347e+02	-1.883890e+01
1.183141e+02	-1.888681e+01
1.189975e+02	-1.893688e+01
1.196848e+02	-1.898687e+01
1.203761e+02	-1.903524e+01
1.210714e+02	-1.908542e+01
1.217707e+02	-1.913420e+01
1.224740e+02	-1.918540e+01
1.231814e+02	-1.923490e+01
1.238929e+02	-1.928369e+01
1.246085e+02	-1.933317e+01
1.253283e+02	-1.938061e+01
1.260522e+02	-1.943045e+01
1.267802e+02	-1.948031e+01
1.275125e+02	-1.953079e+01
1.282490e+02	-1.958080e+01
1.289898e+02	-1.962925e+01
1.297348e+02	-1.967933e+01
1.304842e+02	-1.972738e+01
1.312378e+02	-1.977806e+01
1.319959e+02	-1.982604e+01
1.327583e+02	-1.987660e+01
1.335251e+02	-1.992630e+01
1.342963e+02	-1.997600e+01
1.350720e+02	-2.002546e+01
1.358522e+02	-2.007513e+01
1.366368e+02	-2.012455e+01
1.374260e+02	-2.017429e+01
1.382198e+02	-2.022345e+01
1.390182e+02	-2.027160e+01
1.398211e+02	-2.032230e+01
1.406287e+02	-2.037045e+01
1.414410e+02	-2.042240e+01
1.422579e+02	-2.047059e+01
1.430796e+02	-2.052204e+01
1.439060e+02	-2.057155e+01
1.447372e+02	-2.062177e+01
1.455732e+02	-2.067006e+01
1.464141e+02	-2.072210e+01
1.472597e+02	-2.076845e+01
1.481103e+02	-2.081865e+01
1.489658e+02	-2.086881e+01
1.498262e+02	-2.091870e+01
1.506916e+02	-2.096680e+01
1.515620e+02	-2.101691e+01
1.524374e+02	-2.106755e+01
1.533179e+02	-2.111622e+01
1.542034e+02	-2.116887e+01
1.550941e+02	-2.121578e+01
1.559899e+02	-2.126729e+01
1.568909e+02	-2.131591e+01
1.577971e+02	-2.136502e+01
1.587085e+02	-2.141503e+01
1.596252e+02	-2.146410e+01
1.605472e+02	-2.151409e+01
1.614745e+02	-2.156536e+01
1.624072e+02	-2.161332e+01
1.633453e+02	-2.166267e+01
1.642887e+02	-2.171151e+01
1.652377e+02	-2.176072e+01
1.661921e+02	-2.181266e+01
1.671520e+02	-2.186213e+01
1.681175e+02	-2.191216e+01
1.690885e+02	-2.195814e+01
1.700651e+02	-2.201164e+01
1.710474e+02	-2.206114e+01
1.720354e+02	-2.211183e+01
1.730291e+02	-2.216138e+01
1.740285e+02	-2.221022e+01
1.750337e+02	-2.226073e+01
1.760446e+02	-2.230867e+01
1.770615e+02	-2.236060e+01
1.780842e+02	-2.240848e+01
1.791128e+02	-2.246050e+01
1.801473e+02	-2.250743e+01
1.811878e+02	-2.255810e+01
1.822344e+02	-2.260767e+01
1.832870e+02	-2.265764e+01
1.843456e+02	-2.270857e+01
1.854104e+02	-2.275749e+01
1.864813e+02	-2.280871e+01
1.875584e+02	-2.285606e+01
1.886418e+02	-2.290628e+01
1.897313e+02	-2.295899e+01
1.908272e+02	-2.300700e+01
1.919294e+02	-2.305661e+01
1.930380e+02	-2.310837e+01
1.941530e+02	-2.315700e+01
1.952744e+02	-2.320559e+01
1.964023e+02	-2.325590e+01
1.975367e+02	-2.330563e+01
1.986777e+02	-2.335580e+01
1.998252e+02	-2.340572e+01
2.009794e+02	-2.345402e+01
2.021403e+02	-2.350540e+01
2.033078e+02	-2.355526e+01
2.044821e+02	-2.360483e+01
2.056632e+02	-2.365446e+01
2.068511e+02	-2.370379e+01
2.080459e+02	-2.375245e+01
2.092475e+02	-2.380447e+01
2.104561e+02	-2.385394e+01
2.116717e+02	-2.390261e+01
2.128943e+02	-2.395269e+01
2.141240e+02	-2.400403e+01
2.153608e+02	-2.405111e+01
2.166047e+02	-2.410208e+01
2.178558e+02	-2.415196e+01
2.191141e+02	-2.420086e+01
2.203797e+02	-2.425428e+01
2.216526e+02	-2.430280e+01
2.229329e+02	-2.435299e+01
2.242205e+02	-2.440001e+01
2.255156e+02	-2.445101e+01
2.268182e+02	-2.450081e+01
2.281283e+02	-2.455144e+01
2.294459e+02	-2.460234e+01
2.307712e+02	-2.465423e+01
2.321041e+02	-2.470038e+01
2.334447e+02	-2.475129e+01
2.347931e+02	-2.480195e+01
2.361493e+02	-2.485337e+01
2.375133e+02	-2.490136e+01
2.388851e+02	-2.494933e+01
2.402649e+02	-2.500105e+01
2.416527e+02	-2.504942e+01
2.430484e+02	-2.510236e+01
2.444523e+02	-2.515207e+01
2.458642e+02	-2.519811e+01
2.472843e+02	-2.525219e+01
2.487126e+02	-2.529799e+01
2.501492e+02	-2.535003e+01
2.515940e+02	-2.539675e+01
2.530472e+02	-2.544922e+01
2.545088e+02	-2.550075e+01
2.559789e+02	-2.554902e+01
2.574574e+02	-2.560057e+01
2.589444e+02	-2.564738e+01
2.604401e+02	-2.569473e+01
2.619444e+02	-2.575068e+01
2.634574e+02	-2.580108e+01
2.649791e+02	-2.585168e+01
2.665096e+02	-2.589900e+01
2.680489e+02	-2.594864e+01
2.695972e+02	-2.599944e+01
2.711544e+02	-2.604903e+01
2.727205e+02	-2.609603e+01
2.742958e+02	-2.615024e+01
2.758801e+02	-2.620053e+01
2.774736e+02	-2.625043e+01
2.790762e+02	-2.629706e+01
2.806882e+02	-2.635047e+01
2.823094e+02	-2.639787e+01
2.839400e+02	-2.645021e+01
2.855800e+02	-2.649883e+01
2.872295e+02	-2.654799e+01
2.888886e+02	-2.660248e+01
2.905572e+02	-2.665141e+01
2.922354e+02	-2.670015e+01
2.939234e+02	-2.674679e+01
2.956211e+02	-2.679857e+01
2.973286e+02	-2.684815e+01
2.990459e+02	-2.690016e+01
3.007732e+02	-2.694607e+01
3.025104e+02	-2.699898e+01
3.042577e+02	-2.705210e+01
3.060151e+02	-2.709719e+01
3.077826e+02	-2.714807e+01
3.095604e+02	-2.719657e+01
3.113484e+02	-2.724839e+01
3.131467e+02	-2.730036e+01
3.149554e+02	-2.734875e+01
3.167746e+02	-2.739980e+01
3.186043e+02	-2.744990e+01
3.204445e+02	-2.750181e+01
3.222954e+02	-2.755036e+01
3.241570e+02	-2.759678e+01
3.260293e+02	-2.764965e+01
3.279124e+02	-2.769803e+01
3.298064e+02	-2.774620e+01
3.317114e+02	-2.779516e+01
3.336273e+02	-2.785135e+01
3.355544e+02	-2.790035e+01
3.374925e+02	-2.794857e+01
3.394418e+02	-2.799677e+01
3.414024e+02	-2.804656e+01
3.433744e+02	-2.810235e+01
3.453577e+02	-2.815143e+01
3.473525e+02	-2.819541e+01
3.493588e+02	-2.824938e+01
3.513766e+02	-2.830043e+01
3.534062e+02	-2.835261e+01
3.554474e+02	-2.840177e+01
3.575005e+02	-2.844931e+01
3.595654e+02	-2.849945e+01
3.616422e+02	-2.854943e+01
3.637311e+02	-2.859770e+01
3.658320e+02	-2.865095e+01
3.679450e+02	-2.870126e+01
3.700702e+02	-2.874851e+01
3.722077e+02	-2.880290e+01
3.743576e+02	-2.885092e+01
3.765199e+02	-2.889901e+01
3.786946e+02	-2.895089e+01
3.808820e+02	-2.900134e+01
3.830819e+02	-2.904970e+01
3.852946e+02	-2.909910e+01
3.875200e+02	-2.915059e+01
3.897583e+02	-2.920219e+01
3.920096e+02	-2.925041e+01
3.942738e+02	-2.930191e+01
3.965511e+02	-2.934871e+01
3.988416e+02	-2.940163e+01
4.011452e+02	-2.945119e+01
4.034622e+02	-2.950322e+01
4.057926e+02	-2.955141e+01
4.081365e+02	-2.960494e+01
4.104938e+02	-2.965149e+01
4.128648e+02	-2.970333e+01
4.152495e+02	-2.975224e+01
4.176480e+02	-2.980049e+01
4.200603e+02	-2.985440e+01
4.224866e+02	-2.990320e+01
4.249268e+02	-2.995236e+01
4.273812e+02	-3.000486e+01
4.298497e+02	-3.005487e+01
4.323325e+02	-3.009990e+01
4.348297e+02	-3.015294e+01
4.373412e+02	-3.020224e+01
4.398673e+02	-3.025464e+01
4.424079e+02	-3.030214e+01
4.449633e+02	-3.035648e+01
4.475334e+02	-3.040005e+01
4.501183e+02	-3.045256e+01
4.527182e+02	-3.050253e+01
4.553330e+02	-3.055299e+01
4.579630e+02	-3.060223e+01
4.606082e+02	-3.065228e+01
4.632687e+02	-3.069901e+01
4.659445e+02	-3.075032e+01
4.686358e+02	-3.080406e+01
4.713426e+02	-3.085642e+01
4.740650e+02	-3.090829e+01
4.768032e+02	-3.095774e+01
4.795572e+02	-3.100704e+01
4.823271e+02	-3.105817e+01
4.851130e+02	-3.110728e+01
4.879150e+02	-3.116145e+01
4.907332e+02	-3.120700e+01
4.935676e+02	-3.125474e+01
4.964185e+02	-3.130659e+01
4.992858e+02	-3.135949e+01
5.021696e+02	-3.141709e+01
5.050701e+02	-3.145472e+01
5.079874e+02	-3.150267e+01
5.109215e+02	-3.155680e+01
5.138726e+02	-3.160166e+01
5.168407e+02	-3.165203e+01
5.198259e+02	-3.170543e+01
5.228284e+02	-3.175800e+01
5.258482e+02	-3.180864e+01
5.288855e+02	-3.185297e+01
5.319403e+02	-3.191111e+01
5.350128e+02	-3.195783e+01
5.381030e+02	-3.201081e+01
5.412111e+02	-3.205839e+01
5.443371e+02	-3.210908e+01
5.474812e+02	-3.215863e+01
5.506434e+02	-3.220782e+01
5.538239e+02	-3.226076e+01
5.570228e+02	-3.231183e+01
5.602401e+02	-3.235814e+01
5.634760e+02	-3.241004e+01
5.667306e+02	-3.246022e+01
5.700040e+02	-3.250110e+01
5.732964e+02	-3.255707e+01
5.766077e+02	-3.260455e+01
5.799382e+02	-3.266166e+01
5.832879e+02	-3.270782e+01
5.866569e+02	-3.276593e+01
5.900454e+02	-3.281630e+01
5.934535e+02	-3.286352e+01
5.968813e+02	-3.291482e+01
6.003288e+02	-3.296424e+01
6.037963e+02	-3.300905e+01
6.072838e+02	-3.306242e+01
6.107914e+02	-3.311700e+01
6.143194e+02	-3.316936e+01
6.178676e+02	-3.320825e+01
6.214364e+02	-3.327261e+01
6.250258e+02	-3.331986e+01
6.286359e+02	-3.336717e+01
6.322669e+02	-3.341498e+01
6.359189e+02	-3.345860e+01
6.395919e+02	-3.351928e+01
6.432862e+02	-3.356798e+01
6.470017e+02	-3.361908e+01
6.507388e+02	-3.366058e+01
6.544974e+02	-3.372087e+01
6.582778e+02	-3.376932e+01
6.620800e+02	-3.381948e+01
6.659041e+02	-3.387108e+01
6.697504e+02	-3.392083e+01
6.736188e+02	-3.396286e+01
6.775096e+02	-3.401663e+01
6.814229e+02	-3.406930e+01
6.853587e+02	-3.412347e+01
6.893173e+02	-3.416417e+01
6.932988e+02	-3.422131e+01
6.973033e+02	-3.426968e+01
7.013309e+02	-3.432163e+01
