Frequency(Hz)	Magnitude(dB)
1.000000e+01	-1.705094e-05
1.005776e+01	-1.724848e-05
1.011585e+01	-1.744831e-05
1.017428e+01	-1.765045e-05
1.023305e+01	-1.785494e-05
1.029215e+01	-1.806179e-05
1.035160e+01	-1.827104e-05
1.041139e+01	-1.848272e-05
1.047153e+01	-1.869684e-05
1.053201e+01	-1.891345e-05
1.059284e+01	-1.913257e-05
1.065403e+01	-1.935422e-05
1.071556e+01	-1.957845e-05
1.077746e+01	-1.980527e-05
1.083971e+01	-2.003472e-05
1.090232e+01	-2.026683e-05
1.096529e+01	-2.050162e-05
1.102862e+01	-2.073914e-05
1.109232e+01	-2.097941e-05
1.115639e+01	-2.122246e-05
1.122083e+01	-2.146833e-05
1.128564e+01	-2.171704e-05
1.135083e+01	-2.196864e-05
1.141639e+01	-2.222315e-05
1.148233e+01	-2.248061e-05
1.154865e+01	-2.274106e-05
1.161536e+01	-2.300452e-05
1.168245e+01	-2.327103e-05
1.174992e+01	-2.354063e-05
1.181779e+01	-2.381335e-05
1.188605e+01	-2.408924e-05
1.195470e+01	-2.436832e-05
1.202375e+01	-2.465063e-05
1.209320e+01	-2.493621e-05
1.216305e+01	-2.522511e-05
1.223330e+01	-2.551735e-05
1.230396e+01	-2.581297e-05
1.237503e+01	-2.611202e-05
1.244651e+01	-2.641453e-05
1.251840e+01	-2.672055e-05
1.259070e+01	-2.703012e-05
1.266343e+01	-2.734327e-05
1.273657e+01	-2.766005e-05
1.281014e+01	-2.798049e-05
1.288413e+01	-2.830465e-05
1.295855e+01	-2.863257e-05
1.303339e+01	-2.896429e-05
1.310867e+01	-2.929984e-05
1.318439e+01	-2.963929e-05
1.326054e+01	-2.998267e-05
1.333713e+01	-3.033003e-05
1.341417e+01	-3.068141e-05
1.349165e+01	-3.103686e-05
1.356958e+01	-3.139643e-05
1.364795e+01	-3.176016e-05
1.372678e+01	-3.212811e-05
1.380607e+01	-3.250032e-05
1.388581e+01	-3.287685e-05
1.396602e+01	-3.325773e-05
1.404668e+01	-3.364303e-05
1.412782e+01	-3.403279e-05
1.420942e+01	-3.442707e-05
1.429149e+01	-3.482592e-05
1.437404e+01	-3.522938e-05
1.445706e+01	-3.563752e-05
1.454057e+01	-3.605039e-05
1.462455e+01	-3.646804e-05
1.470902e+01	-3.689054e-05
1.479398e+01	-3.731792e-05
1.487943e+01	-3.775026e-05
1.496537e+01	-3.818760e-05
1.505181e+01	-3.863001e-05
1.513875e+01	-3.907755e-05
1.522619e+01	-3.953027e-05
1.531414e+01	-3.998824e-05
1.540259e+01	-4.045151e-05
1.549156e+01	-4.092015e-05
1.558103e+01	-4.139422e-05
1.567103e+01	-4.187379e-05
1.576155e+01	-4.235890e-05
1.585258e+01	-4.284964e-05
1.594415e+01	-4.334606e-05
1.603624e+01	-4.384824e-05
1.612886e+01	-4.435623e-05
1.622202e+01	-4.487010e-05
1.631572e+01	-4.538993e-05
1.640996e+01	-4.591579e-05
1.650474e+01	-4.644773e-05
1.660008e+01	-4.698584e-05
1.669596e+01	-4.753018e-05
1.679239e+01	-4.808083e-05
1.688938e+01	-4.863785e-05
1.698694e+01	-4.920133e-05
1.708505e+01	-4.977134e-05
1.718373e+01	-5.034795e-05
1.728299e+01	-5.093124e-05
1.738281e+01	-5.152129e-05
1.748322e+01	-5.211818e-05
1.758420e+01	-5.272198e-05
1.768576e+01	-5.333277e-05
1.778792e+01	-5.395064e-05
1.789066e+01	-5.457567e-05
1.799399e+01	-5.520794e-05
1.809793e+01	-5.584754e-05
1.820246e+01	-5.649455e-05
1.830760e+01	-5.714905e-05
1.841334e+01	-5.781113e-05
1.851969e+01	-5.848088e-05
1.862666e+01	-5.915840e-05
1.873425e+01	-5.984376e-05
1.884246e+01	-6.053706e-05
1.895129e+01	-6.123839e-05
1.906075e+01	-6.194785e-05
1.917085e+01	-6.266553e-05
1.928158e+01	-6.339152e-05
1.939295e+01	-6.412593e-05
1.950496e+01	-6.486884e-05
1.961762e+01	-6.562036e-05
1.973093e+01	-6.638058e-05
1.984490e+01	-6.714961e-05
1.995952e+01	-6.792755e-05
2.007480e+01	-6.871451e-05
2.019076e+01	-6.951058e-05
2.030738e+01	-7.031587e-05
2.042467e+01	-7.113049e-05
2.054264e+01	-7.195455e-05
2.066130e+01	-7.278816e-05
2.078064e+01	-7.363142e-05
2.090066e+01	-7.448445e-05
2.102139e+01	-7.534737e-05
2.114280e+01	-7.622028e-05
2.126492e+01	-7.710331e-05
2.138775e+01	-7.799656e-05
2.151128e+01	-7.890017e-05
2.163553e+01	-7.981424e-05
2.176050e+01	-8.073890e-05
2.188619e+01	-8.167428e-05
2.201260e+01	-8.262049e-05
2.213974e+01	-8.357766e-05
2.226762e+01	-8.454592e-05
2.239624e+01	-8.552540e-05
2.252560e+01	-8.651622e-05
2.265571e+01	-8.751853e-05
2.278656e+01	-8.853244e-05
2.291818e+01	-8.955811e-05
2.305055e+01	-9.059565e-05
2.318369e+01	-9.164522e-05
2.331760e+01	-9.270694e-05
2.345228e+01	-9.378097e-05
2.358774e+01	-9.486743e-05
2.372398e+01	-9.596649e-05
2.386101e+01	-9.707827e-05
2.399883e+01	-9.820294e-05
2.413745e+01	-9.934063e-05
2.427686e+01	-1.004915e-04
2.441709e+01	-1.016557e-04
2.455812e+01	-1.028334e-04
2.469997e+01	-1.040248e-04
2.484263e+01	-1.052299e-04
2.498612e+01	-1.064490e-04
2.513044e+01	-1.076822e-04
2.527559e+01	-1.089297e-04
2.542158e+01	-1.101917e-04
2.556842e+01	-1.114683e-04
2.571610e+01	-1.127597e-04
2.586463e+01	-1.140660e-04
2.601403e+01	-1.153875e-04
2.616428e+01	-1.167242e-04
2.631541e+01	-1.180765e-04
2.646740e+01	-1.194444e-04
2.662028e+01	-1.208282e-04
2.677404e+01	-1.222280e-04
2.692868e+01	-1.236441e-04
2.708422e+01	-1.250765e-04
2.724066e+01	-1.265255e-04
2.739800e+01	-1.279913e-04
2.755625e+01	-1.294741e-04
2.771541e+01	-1.309741e-04
2.787550e+01	-1.324914e-04
2.803650e+01	-1.340264e-04
2.819844e+01	-1.355791e-04
2.836131e+01	-1.371498e-04
2.852513e+01	-1.387387e-04
2.868989e+01	-1.403460e-04
2.885560e+01	-1.419719e-04
2.902227e+01	-1.436166e-04
2.918990e+01	-1.452804e-04
2.935850e+01	-1.469635e-04
2.952807e+01	-1.486661e-04
2.969863e+01	-1.503884e-04
2.987016e+01	-1.521307e-04
3.004269e+01	-1.538931e-04
3.021622e+01	-1.556760e-04
3.039075e+01	-1.574795e-04
3.056628e+01	-1.593039e-04
3.074283e+01	-1.611495e-04
3.092040e+01	-1.630164e-04
3.109900e+01	-1.649049e-04
3.127862e+01	-1.668154e-04
3.145929e+01	-1.687479e-04
3.164099e+01	-1.707029e-04
3.182375e+01	-1.726805e-04
3.200756e+01	-1.746810e-04
3.219244e+01	-1.767047e-04
3.237838e+01	-1.787518e-04
3.256540e+01	-1.808227e-04
3.275349e+01	-1.829175e-04
3.294268e+01	-1.850366e-04
3.313295e+01	-1.871803e-04
3.332433e+01	-1.893488e-04
3.351681e+01	-1.915424e-04
3.371040e+01	-1.937614e-04
3.390511e+01	-1.960061e-04
3.410094e+01	-1.982769e-04
3.429791e+01	-2.005739e-04
3.449601e+01	-2.028975e-04
3.469526e+01	-2.052481e-04
3.489566e+01	-2.076259e-04
3.509721e+01	-2.100313e-04
3.529993e+01	-2.124645e-04
3.550382e+01	-2.149259e-04
3.570889e+01	-2.174158e-04
3.591515e+01	-2.199345e-04
3.612259e+01	-2.224825e-04
3.633123e+01	-2.250599e-04
3.654108e+01	-2.276672e-04
3.675214e+01	-2.303048e-04
3.696442e+01	-2.329728e-04
3.717792e+01	-2.356718e-04
3.739266e+01	-2.384021e-04
3.760864e+01	-2.411639e-04
3.782587e+01	-2.439578e-04
3.804435e+01	-2.467841e-04
3.826409e+01	-2.496430e-04
3.848510e+01	-2.525351e-04
3.870739e+01	-2.554607e-04
3.893096e+01	-2.584202e-04
3.915583e+01	-2.614140e-04
3.938199e+01	-2.644425e-04
3.960946e+01	-2.675060e-04
3.983824e+01	-2.706051e-04
4.006834e+01	-2.737400e-04
4.029978e+01	-2.769113e-04
4.053255e+01	-2.801192e-04
4.076666e+01	-2.833644e-04
4.100213e+01	-2.866471e-04
4.123896e+01	-2.899679e-04
4.147715e+01	-2.933272e-04
4.171672e+01	-2.967253e-04
4.195767e+01	-3.001629e-04
4.220002e+01	-3.036402e-04
4.244377e+01	-3.071578e-04
4.268892e+01	-3.107162e-04
4.293549e+01	-3.143158e-04
4.318348e+01	-3.179571e-04
4.343291e+01	-3.216406e-04
4.368377e+01	-3.253668e-04
4.393609e+01	-3.291361e-04
4.418986e+01	-3.329491e-04
4.444510e+01	-3.368062e-04
4.470182e+01	-3.407081e-04
4.496001e+01	-3.446551e-04
4.521970e+01	-3.486479e-04
4.548089e+01	-3.526869e-04
4.574358e+01	-3.567727e-04
4.600779e+01	-3.609058e-04
4.627353e+01	-3.650869e-04
4.654081e+01	-3.693163e-04
4.680963e+01	-3.735948e-04
4.708000e+01	-3.779228e-04
4.735193e+01	-3.823009e-04
4.762543e+01	-3.867298e-04
4.790051e+01	-3.912099e-04
4.817719e+01	-3.957420e-04
4.845545e+01	-4.003266e-04
4.873533e+01	-4.049643e-04
4.901682e+01	-4.096557e-04
4.929994e+01	-4.144014e-04
4.958470e+01	-4.192021e-04
4.987110e+01	-4.240585e-04
5.015915e+01	-4.289711e-04
5.044887e+01	-4.339406e-04
5.074026e+01	-4.389676e-04
5.103333e+01	-4.440529e-04
5.132810e+01	-4.491971e-04
5.162457e+01	-4.544009e-04
5.192275e+01	-4.596650e-04
5.222265e+01	-4.649901e-04
5.252429e+01	-4.703768e-04
5.282767e+01	-4.758260e-04
5.313280e+01	-4.813383e-04
5.343969e+01	-4.869144e-04
5.374836e+01	-4.925551e-04
5.405880e+01	-4.982612e-04
5.437105e+01	-5.040333e-04
5.468509e+01	-5.098723e-04
5.500095e+01	-5.157790e-04
5.531863e+01	-5.217541e-04
5.563815e+01	-5.277984e-04
5.595951e+01	-5.339127e-04
5.628273e+01	-5.400978e-04
5.660782e+01	-5.463546e-04
5.693479e+01	-5.526839e-04
5.726364e+01	-5.590865e-04
5.759439e+01	-5.655632e-04
5.792705e+01	-5.721150e-04
5.826164e+01	-5.787427e-04
5.859815e+01	-5.854471e-04
5.893662e+01	-5.922292e-04
5.927703e+01	-5.990899e-04
5.961941e+01	-6.060300e-04
5.996377e+01	-6.130505e-04
6.031012e+01	-6.201524e-04
6.065847e+01	-6.273365e-04
6.100883e+01	-6.346038e-04
6.136121e+01	-6.419554e-04
6.171563e+01	-6.493920e-04
6.207210e+01	-6.569148e-04
6.243063e+01	-6.645248e-04
6.279122e+01	-6.722229e-04
6.315390e+01	-6.800102e-04
6.351868e+01	-6.878877e-04
6.388556e+01	-6.958564e-04
6.425456e+01	-7.039174e-04
6.462569e+01	-7.120718e-04
6.499897e+01	-7.203207e-04
6.537440e+01	-7.286651e-04
6.575200e+01	-7.371062e-04
6.613178e+01	-7.456450e-04
6.651375e+01	-7.542828e-04
6.689793e+01	-7.630206e-04
6.728433e+01	-7.718596e-04
6.767297e+01	-7.808010e-04
6.806384e+01	-7.898460e-04
6.845698e+01	-7.989957e-04
6.885238e+01	-8.082514e-04
6.925007e+01	-8.176144e-04
6.965005e+01	-8.270858e-04
7.005235e+01	-8.366668e-04
7.045697e+01	-8.463589e-04
7.086393e+01	-8.561633e-04
7.127323e+01	-8.660811e-04
7.168490e+01	-8.761139e-04
7.209895e+01	-8.862629e-04
7.251539e+01	-8.965294e-04
7.293424e+01	-9.069149e-04
7.335551e+01	-9.174206e-04
7.377920e+01	-9.280481e-04
7.420535e+01	-9.387986e-04
7.463396e+01	-9.496737e-04
7.506504e+01	-9.606747e-04
7.549861e+01	-9.718031e-04
7.593469e+01	-9.830604e-04
7.637328e+01	-9.944481e-04
7.681441e+01	-1.005968e-03
7.725809e+01	-1.017621e-03
7.770433e+01	-1.029409e-03
7.815315e+01	-1.041333e-03
7.860456e+01	-1.053396e-03
7.905857e+01	-1.065598e-03
7.951521e+01	-1.077942e-03
7.997449e+01	-1.090429e-03
8.043642e+01	-1.103060e-03
8.090102e+01	-1.115838e-03
8.136830e+01	-1.128763e-03
8.183828e+01	-1.141839e-03
8.231097e+01	-1.155065e-03
8.278640e+01	-1.168445e-03
8.326457e+01	-1.181980e-03
8.374550e+01	-1.195672e-03
8.422921e+01	-1.209522e-03
8.471572e+01	-1.223533e-03
8.520503e+01	-1.237706e-03
8.569717e+01	-1.252043e-03
8.619215e+01	-1.266546e-03
8.669000e+01	-1.281217e-03
8.719071e+01	-1.296058e-03
8.769432e+01	-1.311071e-03
8.820084e+01	-1.326258e-03
8.871029e+01	-1.341621e-03
8.922267e+01	-1.357161e-03
8.973802e+01	-1.372882e-03
9.025634e+01	-1.388784e-03
9.077766e+01	-1.404871e-03
9.130199e+01	-1.421144e-03
9.182935e+01	-1.437606e-03
9.235975e+01	-1.454258e-03
9.289321e+01	-1.471103e-03
9.342976e+01	-1.488144e-03
9.396941e+01	-1.505381e-03
9.451217e+01	-1.522818e-03
9.505807e+01	-1.540457e-03
9.560712e+01	-1.558301e-03
9.615934e+01	-1.576351e-03
9.671476e+01	-1.594610e-03
9.727338e+01	-1.613081e-03
9.783522e+01	-1.631765e-03
9.840032e+01	-1.650666e-03
9.896867e+01	-1.669786e-03
9.954031e+01	-1.689127e-03
1.001153e+02	-1.708692e-03
1.006935e+02	-1.728484e-03
1.012751e+02	-1.748505e-03
1.018601e+02	-1.768757e-03
1.024484e+02	-1.789245e-03
1.030402e+02	-1.809969e-03
1.036353e+02	-1.830934e-03
1.042339e+02	-1.852141e-03
1.048360e+02	-1.873594e-03
1.054415e+02	-1.895295e-03
1.060505e+02	-1.917248e-03
1.066631e+02	-1.939455e-03
1.072791e+02	-1.961919e-03
1.078988e+02	-1.984643e-03
1.085220e+02	-2.007630e-03
1.091488e+02	-2.030884e-03
1.097793e+02	-2.054407e-03
1.104133e+02	-2.078202e-03
1.110511e+02	-2.102272e-03
1.116925e+02	-2.126622e-03
1.123376e+02	-2.151253e-03
1.129865e+02	-2.176170e-03
1.136391e+02	-2.201375e-03
1.142955e+02	-2.226872e-03
1.149556e+02	-2.252664e-03
1.156196e+02	-2.278755e-03
1.162874e+02	-2.305148e-03
1.169591e+02	-2.331846e-03
1.176347e+02	-2.358854e-03
1.183141e+02	-2.386175e-03
1.189975e+02	-2.413811e-03
1.196848e+02	-2.441768e-03
1.203761e+02	-2.470049e-03
1.210714e+02	-2.498657e-03
1.217707e+02	-2.527596e-03
1.224740e+02	-2.556870e-03
1.231814e+02	-2.586483e-03
1.238929e+02	-2.616439e-03
1.246085e+02	-2.646742e-03
1.253283e+02	-2.677396e-03
1.260522e+02	-2.708404e-03
1.267802e+02	-2.739772e-03
1.275125e+02	-2.771503e-03
1.282490e+02	-2.803601e-03
1.289898e+02	-2.836071e-03
1.297348e+02	-2.868917e-03
1.304842e+02	-2.902143e-03
1.312378e+02	-2.935754e-03
1.319959e+02	-2.969753e-03
1.327583e+02	-3.004147e-03
1.335251e+02	-3.038938e-03
1.342963e+02	-3.074133e-03
1.350720e+02	-3.109735e-03
1.358522e+02	-3.145749e-03
1.366368e+02	-3.182180e-03
1.374260e+02	-3.219032e-03
1.382198e+02	-3.256312e-03
1.390182e+02	-3.294023e-03
1.398211e+02	-3.332170e-03
1.406287e+02	-3.370759e-03
1.414410e+02	-3.409795e-03
1.422579e+02	-3.449283e-03
1.430796e+02	-3.489227e-03
1.439060e+02	-3.529634e-03
1.447372e+02	-3.570509e-03
1.455732e+02	-3.611857e-03
1.464141e+02	-3.653684e-03
1.472597e+02	-3.695995e-03
1.481103e+02	-3.738795e-03
1.489658e+02	-3.782092e-03
1.498262e+02	-3.825889e-03
1.506916e+02	-3.870193e-03
1.515620e+02	-3.915010e-03
1.524374e+02	-3.960345e-03
1.533179e+02	-4.006206e-03
1.542034e+02	-4.052597e-03
1.550941e+02	-4.099525e-03
1.559899e+02	-4.146997e-03
1.568909e+02	-4.195017e-03
1.577971e+02	-4.243594e-03
1.587085e+02	-4.292733e-03
1.596252e+02	-4.342440e-03
1.605472e+02	-4.392723e-03
1.614745e+02	-4.443588e-03
1.624072e+02	-4.495041e-03
1.633453e+02	-4.547090e-03
1.642887e+02	-4.599741e-03
1.652377e+02	-4.653002e-03
1.661921e+02	-4.706879e-03
1.671520e+02	-4.761379e-03
1.681175e+02	-4.816510e-03
1.690885e+02	-4.872280e-03
1.700651e+02	-4.928694e-03
1.710474e+02	-4.985761e-03
1.720354e+02	-5.043489e-03
1.730291e+02	-5.101885e-03
1.740285e+02	-5.160956e-03
1.750337e+02	-5.220711e-03
1.760446e+02	-5.281158e-03
1.770615e+02	-5.342304e-03
1.780842e+02	-5.404157e-03
1.791128e+02	-5.466726e-03
1.801473e+02	-5.530019e-03
1.811878e+02	-5.594044e-03
1.822344e+02	-5.658810e-03
1.832870e+02	-5.724326e-03
1.843456e+02	-5.790599e-03
1.854104e+02	-5.857640e-03
1.864813e+02	-5.925455e-03
1.875584e+02	-5.994056e-03
1.886418e+02	-6.063450e-03
1.897313e+02	-6.133647e-03
1.908272e+02	-6.204656e-03
1.919294e+02	-6.276486e-03
1.930380e+02	-6.349148e-03
1.941530e+02	-6.422650e-03
1.952744e+02	-6.497002e-03
1.964023e+02	-6.572214e-03
1.975367e+02	-6.648296e-03
1.986777e+02	-6.725259e-03
1.998252e+02	-6.803111e-03
2.009794e+02	-6.881865e-03
2.021403e+02	-6.961529e-03
2.033078e+02	-7.042114e-03
2.044821e+02	-7.123632e-03
2.056632e+02	-7.206092e-03
2.068511e+02	-7.289506e-03
2.080459e+02	-7.373885e-03
2.092475e+02	-7.459240e-03
2.104561e+02	-7.545582e-03
2.116717e+02	-7.632922e-03
2.128943e+02	-7.721273e-03
2.141240e+02	-7.810645e-03
2.153608e+02	-7.901051e-03
2.166047e+02	-7.992502e-03
2.178558e+02	-8.085011e-03
2.191141e+02	-8.178589e-03
2.203797e+02	-8.273250e-03
2.216526e+02	-8.369005e-03
2.229329e+02	-8.465867e-03
2.242205e+02	-8.563849e-03
2.255156e+02	-8.662964e-03
2.268182e+02	-8.763225e-03
2.281283e+02	-8.864645e-03
2.294459e+02	-8.967238e-03
2.307712e+02	-9.071017e-03
2.321041e+02	-9.175996e-03
2.334447e+02	-9.282188e-03
2.347931e+02	-9.389608e-03
2.361493e+02	-9.498270e-03
2.375133e+02	-9.608187e-03
2.388851e+02	-9.719376e-03
2.402649e+02	-9.831849e-03
2.416527e+02	-9.945623e-03
2.430484e+02	-1.006071e-02
2.444523e+02	-1.017713e-02
2.458642e+02	-1.029489e-02
2.472843e+02	-1.041402e-02
2.487126e+02	-1.053452e-02
2.501492e+02	-1.065642e-02
2.515940e+02	-1.077972e-02
2.530472e+02	-1.090445e-02
2.545088e+02	-1.103062e-02
2.559789e+02	-1.115825e-02
2.574574e+02	-1.128735e-02
2.589444e+02	-1.141794e-02
2.604401e+02	-1.155005e-02
2.619444e+02	-1.168368e-02
2.634574e+02	-1.181885e-02
2.649791e+02	-1.195559e-02
2.665096e+02	-1.209390e-02
2.680489e+02	-1.223381e-02
2.695972e+02	-1.237534e-02
2.711544e+02	-1.251851e-02
2.727205e+02	-1.266332e-02
2.742958e+02	-1.280981e-02
2.758801e+02	-1.295800e-02
2.774736e+02	-1.310789e-02
2.790762e+02	-1.325952e-02
2.806882e+02	-1.341289e-02
2.823094e+02	-1.356804e-02
2.839400e+02	-1.372498e-02
2.855800e+02	-1.388373e-02
2.872295e+02	-1.404432e-02
2.888886e+02	-1.420676e-02
2.905572e+02	-1.437108e-02
2.922354e+02	-1.453729e-02
2.939234e+02	-1.470542e-02
2.956211e+02	-1.487549e-02
2.973286e+02	-1.504753e-02
2.990459e+02	-1.522155e-02
3.007732e+02	-1.539759e-02
3.025104e+02	-1.557565e-02
3.042577e+02	-1.575577e-02
3.060151e+02	-1.593797e-02
3.077826e+02	-1.612227e-02
3.095604e+02	-1.630870e-02
3.113484e+02	-1.649728e-02
3.131467e+02	-1.668803e-02
3.149554e+02	-1.688099e-02
3.167746e+02	-1.707618e-02
3.186043e+02	-1.727361e-02
3.204445e+02	-1.747333e-02
3.222954e+02	-1.767535e-02
3.241570e+02	-1.787970e-02
3.260293e+02	-1.808641e-02
3.279124e+02	-1.829550e-02
3.298064e+02	-1.850700e-02
3.317114e+02	-1.872095e-02
3.336273e+02	-1.893736e-02
3.355544e+02	-1.915627e-02
3.374925e+02	-1.937770e-02
3.394418e+02	-1.960169e-02
3.414024e+02	-1.982826e-02
3.433744e+02	-2.005744e-02
3.453577e+02	-2.028927e-02
3.473525e+02	-2.052377e-02
3.493588e+02	-2.076097e-02
3.513766e+02	-2.100091e-02
3.534062e+02	-2.124361e-02
3.554474e+02	-2.148911e-02
3.575005e+02	-2.173744e-02
3.595654e+02	-2.198864e-02
3.616422e+02	-2.224273e-02
3.637311e+02	-2.249974e-02
3.658320e+02	-2.275972e-02
3.679450e+02	-2.302270e-02
3.700702e+02	-2.328871e-02
3.722077e+02	-2.355778e-02
3.743576e+02	-2.382995e-02
3.765199e+02	-2.410526e-02
3.786946e+02	-2.438374e-02
3.808820e+02	-2.466542e-02
3.830819e+02	-2.495035e-02
3.852946e+02	-2.523857e-02
3.875200e+02	-2.553010e-02
3.897583e+02	-2.582499e-02
3.920096e+02	-2.612328e-02
3.942738e+02	-2.642500e-02
3.965511e+02	-2.673019e-02
3.988416e+02	-2.703890e-02
4.011452e+02	-2.735116e-02
4.034622e+02	-2.766702e-02
4.057926e+02	-2.798651e-02
4.081365e+02	-2.830968e-02
4.104938e+02	-2.863657e-02
4.128648e+02	-2.896723e-02
4.152495e+02	-2.930168e-02
4.176480e+02	-2.963999e-02
4.200603e+02	-2.998219e-02
4.224866e+02	-3.032832e-02
4.249268e+02	-3.067844e-02
4.273812e+02	-3.103258e-02
4.298497e+02	-3.139080e-02
4.323325e+02	-3.175313e-02
4.348297e+02	-3.211964e-02
4.373412e+02	-3.249036e-02
4.398673e+02	-3.286534e-02
4.424079e+02	-3.324463e-02
4.449633e+02	-3.362828e-02
4.475334e+02	-3.401634e-02
4.501183e+02	-3.440886e-02
4.527182e+02	-3.480590e-02
4.553330e+02	-3.520749e-02
4.579630e+02	-3.561370e-02
4.606082e+02	-3.602458e-02
4.632687e+02	-3.644018e-02
4.659445e+02	-3.686055e-02
4.686358e+02	-3.728575e-02
4.713426e+02	-3.771584e-02
4.740650e+02	-3.815086e-02
4.768032e+02	-3.859088e-02
4.795572e+02	-3.903595e-02
4.823271e+02	-3.948613e-02
4.851130e+02	-3.994148e-02
4.879150e+02	-4.040205e-02
4.907332e+02	-4.086791e-02
4.935676e+02	-4.133912e-02
4.964185e+02	-4.181573e-02
4.992858e+02	-4.229781e-02
5.021696e+02	-4.278542e-02
5.050701e+02	-4.327863e-02
5.079874e+02	-4.377749e-02
5.109215e+02	-4.428207e-02
5.138726e+02	-4.479243e-02
5.168407e+02	-4.530865e-02
5.198259e+02	-4.583079e-02
5.228284e+02	-4.635891e-02
5.258482e+02	-4.689308e-02
5.288855e+02	-4.743338e-02
5.319403e+02	-4.797987e-02
5.350128e+02	-4.853261e-02
5.381030e+02	-4.909169e-02
5.412111e+02	-4.965717e-02
5.443371e+02	-5.022913e-02
5.474812e+02	-5.080764e-02
5.506434e+02	-5.139277e-02
5.538239e+02	-5.198460e-02
5.570228e+02	-5.258320e-02
5.602401e+02	-5.318865e-02
5.634760e+02	-5.380103e-02
5.667306e+02	-5.442042e-02
5.700040e+02	-5.504689e-02
5.732964e+02	-5.568053e-02
5.766077e+02	-5.632141e-02
5.799382e+02	-5.696962e-02
5.832879e+02	-5.762525e-02
5.866569e+02	-5.828836e-02
5.900454e+02	-5.895906e-02
5.934535e+02	-5.963742e-02
5.968813e+02	-6.032353e-02
6.003288e+02	-6.101748e-02
6.037963e+02	-6.171935e-02
6.072838e+02	-6.242924e-02
6.107914e+02	-6.314724e-02
6.143194e+02	-6.387343e-02
6.178676e+02	-6.460791e-02
6.214364e+02	-6.535077e-02
6.250258e+02	-6.610211e-02
6.286359e+02	-6.686202e-02
6.322669e+02	-6.763060e-02
6.359189e+02	-6.840794e-02
6.395919e+02	-6.919415e-02
6.432862e+02	-6.998931e-02
6.470017e+02	-7.079355e-02
6.507388e+02	-7.160694e-02
6.544974e+02	-7.242961e-02
6.582778e+02	-7.326164e-02
6.620800e+02	-7.410315e-02
6.659041e+02	-7.495425e-02
6.697504e+02	-7.581503e-02
6.736188e+02	-7.668561e-02
6.775096e+02	-7.756610e-02
6.814229e+02	-7.845661e-02
6.853587e+02	-7.935724e-02
6.893173e+02	-8.026812e-02
6.932988e+02	-8.118936e-02
6.973033e+02	-8.212107e-02
7.013309e+02	-8.306337e-02
