Frequency(Hz)	Magnitude(dB)
1.000000e+01	-1.588832e-05
1.005776e+01	-1.607239e-05
1.011585e+01	-1.625859e-05
1.017428e+01	-1.644695e-05
1.023305e+01	-1.663749e-05
1.029215e+01	-1.683024e-05
1.035160e+01	-1.702523e-05
1.041139e+01	-1.722247e-05
1.047153e+01	-1.742199e-05
1.053201e+01	-1.762383e-05
1.059284e+01	-1.782801e-05
1.065403e+01	-1.803455e-05
1.071556e+01	-1.824349e-05
1.077746e+01	-1.845484e-05
1.083971e+01	-1.866865e-05
1.090232e+01	-1.888493e-05
1.096529e+01	-1.910371e-05
1.102862e+01	-1.932504e-05
1.109232e+01	-1.954892e-05
1.115639e+01	-1.977540e-05
1.122083e+01	-2.000450e-05
1.128564e+01	-2.023626e-05
1.135083e+01	-2.047070e-05
1.141639e+01	-2.070786e-05
1.148233e+01	-2.094777e-05
1.154865e+01	-2.119045e-05
1.161536e+01	-2.143595e-05
1.168245e+01	-2.168429e-05
1.174992e+01	-2.193551e-05
1.181779e+01	-2.218964e-05
1.188605e+01	-2.244671e-05
1.195470e+01	-2.270676e-05
1.202375e+01	-2.296982e-05
1.209320e+01	-2.323593e-05
1.216305e+01	-2.350513e-05
1.223330e+01	-2.377744e-05
1.230396e+01	-2.405291e-05
1.237503e+01	-2.433157e-05
1.244651e+01	-2.461345e-05
1.251840e+01	-2.489861e-05
1.259070e+01	-2.518706e-05
1.266343e+01	-2.547886e-05
1.273657e+01	-2.577404e-05
1.281014e+01	-2.607264e-05
1.288413e+01	-2.637470e-05
1.295855e+01	-2.668025e-05
1.303339e+01	-2.698935e-05
1.310867e+01	-2.730203e-05
1.318439e+01	-2.761833e-05
1.326054e+01	-2.793830e-05
1.333713e+01	-2.826197e-05
1.341417e+01	-2.858939e-05
1.349165e+01	-2.892060e-05
1.356958e+01	-2.925566e-05
1.364795e+01	-2.959459e-05
1.372678e+01	-2.993745e-05
1.380607e+01	-3.028428e-05
1.388581e+01	-3.063513e-05
1.396602e+01	-3.099005e-05
1.404668e+01	-3.134908e-05
1.412782e+01	-3.171226e-05
1.420942e+01	-3.207966e-05
1.429149e+01	-3.245131e-05
1.437404e+01	-3.282726e-05
1.445706e+01	-3.320757e-05
1.454057e+01	-3.359229e-05
1.462455e+01	-3.398147e-05
1.470902e+01	-3.437515e-05
1.479398e+01	-3.477339e-05
1.487943e+01	-3.517625e-05
1.496537e+01	-3.558378e-05
1.505181e+01	-3.599602e-05
1.513875e+01	-3.641305e-05
1.522619e+01	-3.683490e-05
1.531414e+01	-3.726164e-05
1.540259e+01	-3.769333e-05
1.549156e+01	-3.813001e-05
1.558103e+01	-3.857176e-05
1.567103e+01	-3.901862e-05
1.576155e+01	-3.947066e-05
1.585258e+01	-3.992793e-05
1.594415e+01	-4.039051e-05
1.603624e+01	-4.085844e-05
1.612886e+01	-4.133180e-05
1.622202e+01	-4.181063e-05
1.631572e+01	-4.229502e-05
1.640996e+01	-4.278502e-05
1.650474e+01	-4.328069e-05
1.660008e+01	-4.378211e-05
1.669596e+01	-4.428933e-05
1.679239e+01	-4.480243e-05
1.688938e+01	-4.532148e-05
1.698694e+01	-4.584654e-05
1.708505e+01	-4.637768e-05
1.718373e+01	-4.691498e-05
1.728299e+01	-4.745850e-05
1.738281e+01	-4.800831e-05
1.748322e+01	-4.856450e-05
1.758420e+01	-4.912713e-05
1.768576e+01	-4.969628e-05
1.778792e+01	-5.027202e-05
1.789066e+01	-5.085443e-05
1.799399e+01	-5.144359e-05
1.809793e+01	-5.203958e-05
1.820246e+01	-5.264247e-05
1.830760e+01	-5.325234e-05
1.841334e+01	-5.386928e-05
1.851969e+01	-5.449337e-05
1.862666e+01	-5.512468e-05
1.873425e+01	-5.576331e-05
1.884246e+01	-5.640934e-05
1.895129e+01	-5.706286e-05
1.906075e+01	-5.772394e-05
1.917085e+01	-5.839269e-05
1.928158e+01	-5.906918e-05
1.939295e+01	-5.975351e-05
1.950496e+01	-6.044576e-05
1.961762e+01	-6.114604e-05
1.973093e+01	-6.185443e-05
1.984490e+01	-6.257102e-05
1.995952e+01	-6.329592e-05
2.007480e+01	-6.402922e-05
2.019076e+01	-6.477101e-05
2.030738e+01	-6.552139e-05
2.042467e+01	-6.628047e-05
2.054264e+01	-6.704834e-05
2.066130e+01	-6.782511e-05
2.078064e+01	-6.861087e-05
2.090066e+01	-6.940574e-05
2.102139e+01	-7.020982e-05
2.114280e+01	-7.102322e-05
2.126492e+01	-7.184603e-05
2.138775e+01	-7.267838e-05
2.151128e+01	-7.352038e-05
2.163553e+01	-7.437212e-05
2.176050e+01	-7.523374e-05
2.188619e+01	-7.610533e-05
2.201260e+01	-7.698703e-05
2.213974e+01	-7.787894e-05
2.226762e+01	-7.878118e-05
2.239624e+01	-7.969387e-05
2.252560e+01	-8.061714e-05
2.265571e+01	-8.155110e-05
2.278656e+01	-8.249588e-05
2.291818e+01	-8.345161e-05
2.305055e+01	-8.441841e-05
2.318369e+01	-8.539641e-05
2.331760e+01	-8.638575e-05
2.345228e+01	-8.738654e-05
2.358774e+01	-8.839893e-05
2.372398e+01	-8.942304e-05
2.386101e+01	-9.045902e-05
2.399883e+01	-9.150700e-05
2.413745e+01	-9.256713e-05
2.427686e+01	-9.363953e-05
2.441709e+01	-9.472436e-05
2.455812e+01	-9.582176e-05
2.469997e+01	-9.693187e-05
2.484263e+01	-9.805484e-05
2.498612e+01	-9.919082e-05
2.513044e+01	-1.003400e-04
2.527559e+01	-1.015024e-04
2.542158e+01	-1.026783e-04
2.556842e+01	-1.038679e-04
2.571610e+01	-1.050712e-04
2.586463e+01	-1.062885e-04
2.601403e+01	-1.075198e-04
2.616428e+01	-1.087655e-04
2.631541e+01	-1.100255e-04
2.646740e+01	-1.113002e-04
2.662028e+01	-1.125896e-04
2.677404e+01	-1.138940e-04
2.692868e+01	-1.152134e-04
2.708422e+01	-1.165482e-04
2.724066e+01	-1.178984e-04
2.739800e+01	-1.192643e-04
2.755625e+01	-1.206460e-04
2.771541e+01	-1.220437e-04
2.787550e+01	-1.234576e-04
2.803650e+01	-1.248879e-04
2.819844e+01	-1.263347e-04
2.836131e+01	-1.277983e-04
2.852513e+01	-1.292788e-04
2.868989e+01	-1.307766e-04
2.885560e+01	-1.322916e-04
2.902227e+01	-1.338242e-04
2.918990e+01	-1.353746e-04
2.935850e+01	-1.369429e-04
2.952807e+01	-1.385294e-04
2.969863e+01	-1.401343e-04
2.987016e+01	-1.417578e-04
3.004269e+01	-1.434000e-04
3.021622e+01	-1.450613e-04
3.039075e+01	-1.467419e-04
3.056628e+01	-1.484419e-04
3.074283e+01	-1.501616e-04
3.092040e+01	-1.519013e-04
3.109900e+01	-1.536610e-04
3.127862e+01	-1.554412e-04
3.145929e+01	-1.572420e-04
3.164099e+01	-1.590637e-04
3.182375e+01	-1.609064e-04
3.200756e+01	-1.627705e-04
3.219244e+01	-1.646563e-04
3.237838e+01	-1.665638e-04
3.256540e+01	-1.684935e-04
3.275349e+01	-1.704455e-04
3.294268e+01	-1.724201e-04
3.313295e+01	-1.744176e-04
3.332433e+01	-1.764382e-04
3.351681e+01	-1.784823e-04
3.371040e+01	-1.805500e-04
3.390511e+01	-1.826417e-04
3.410094e+01	-1.847576e-04
3.429791e+01	-1.868980e-04
3.449601e+01	-1.890632e-04
3.469526e+01	-1.912535e-04
3.489566e+01	-1.934692e-04
3.509721e+01	-1.957105e-04
3.529993e+01	-1.979778e-04
3.550382e+01	-2.002714e-04
3.570889e+01	-2.025916e-04
3.591515e+01	-2.049386e-04
3.612259e+01	-2.073128e-04
3.633123e+01	-2.097145e-04
3.654108e+01	-2.121441e-04
3.675214e+01	-2.146017e-04
3.696442e+01	-2.170879e-04
3.717792e+01	-2.196029e-04
3.739266e+01	-2.221470e-04
3.760864e+01	-2.247205e-04
3.782587e+01	-2.273239e-04
3.804435e+01	-2.299574e-04
3.826409e+01	-2.326215e-04
3.848510e+01	-2.353164e-04
3.870739e+01	-2.380425e-04
3.893096e+01	-2.408002e-04
3.915583e+01	-2.435899e-04
3.938199e+01	-2.464119e-04
3.960946e+01	-2.492666e-04
3.983824e+01	-2.521543e-04
4.006834e+01	-2.550755e-04
4.029978e+01	-2.580305e-04
4.053255e+01	-2.610198e-04
4.076666e+01	-2.640437e-04
4.100213e+01	-2.671026e-04
4.123896e+01	-2.701970e-04
4.147715e+01	-2.733272e-04
4.171672e+01	-2.764936e-04
4.195767e+01	-2.796968e-04
4.220002e+01	-2.829371e-04
4.244377e+01	-2.862149e-04
4.268892e+01	-2.895306e-04
4.293549e+01	-2.928848e-04
4.318348e+01	-2.962778e-04
4.343291e+01	-2.997102e-04
4.368377e+01	-3.031823e-04
4.393609e+01	-3.066946e-04
4.418986e+01	-3.102476e-04
4.444510e+01	-3.138418e-04
4.470182e+01	-3.174776e-04
4.496001e+01	-3.211555e-04
4.521970e+01	-3.248761e-04
4.548089e+01	-3.286397e-04
4.574358e+01	-3.324470e-04
4.600779e+01	-3.362983e-04
4.627353e+01	-3.401942e-04
4.654081e+01	-3.441353e-04
4.680963e+01	-3.481221e-04
4.708000e+01	-3.521550e-04
4.735193e+01	-3.562347e-04
4.762543e+01	-3.603616e-04
4.790051e+01	-3.645363e-04
4.817719e+01	-3.687593e-04
4.845545e+01	-3.730313e-04
4.873533e+01	-3.773528e-04
4.901682e+01	-3.817244e-04
4.929994e+01	-3.861466e-04
4.958470e+01	-3.906200e-04
4.987110e+01	-3.951452e-04
5.015915e+01	-3.997229e-04
5.044887e+01	-4.043535e-04
5.074026e+01	-4.090379e-04
5.103333e+01	-4.137765e-04
5.132810e+01	-4.185700e-04
5.162457e+01	-4.234190e-04
5.192275e+01	-4.283241e-04
5.222265e+01	-4.332862e-04
5.252429e+01	-4.383056e-04
5.282767e+01	-4.433833e-04
5.313280e+01	-4.485197e-04
5.343969e+01	-4.537157e-04
5.374836e+01	-4.589718e-04
5.405880e+01	-4.642889e-04
5.437105e+01	-4.696675e-04
5.468509e+01	-4.751084e-04
5.500095e+01	-4.806124e-04
5.531863e+01	-4.861801e-04
5.563815e+01	-4.918123e-04
5.595951e+01	-4.975097e-04
5.628273e+01	-5.032732e-04
5.660782e+01	-5.091034e-04
5.693479e+01	-5.150012e-04
5.726364e+01	-5.209672e-04
5.759439e+01	-5.270024e-04
5.792705e+01	-5.331075e-04
5.826164e+01	-5.392833e-04
5.859815e+01	-5.455307e-04
5.893662e+01	-5.518504e-04
5.927703e+01	-5.582433e-04
5.961941e+01	-5.647103e-04
5.996377e+01	-5.712522e-04
6.031012e+01	-5.778699e-04
6.065847e+01	-5.845642e-04
6.100883e+01	-5.913361e-04
6.136121e+01	-5.981864e-04
6.171563e+01	-6.051161e-04
6.207210e+01	-6.121260e-04
6.243063e+01	-6.192172e-04
6.279122e+01	-6.263905e-04
6.315390e+01	-6.336468e-04
6.351868e+01	-6.409873e-04
6.388556e+01	-6.484127e-04
6.425456e+01	-6.559242e-04
6.462569e+01	-6.635227e-04
6.499897e+01	-6.712092e-04
6.537440e+01	-6.789847e-04
6.575200e+01	-6.868503e-04
6.613178e+01	-6.948070e-04
6.651375e+01	-7.028559e-04
6.689793e+01	-7.109980e-04
6.728433e+01	-7.192344e-04
6.767297e+01	-7.275663e-04
6.806384e+01	-7.359946e-04
6.845698e+01	-7.445206e-04
6.885238e+01	-7.531453e-04
6.925007e+01	-7.618699e-04
6.965005e+01	-7.706956e-04
7.005235e+01	-7.796235e-04
7.045697e+01	-7.886549e-04
7.086393e+01	-7.977908e-04
7.127323e+01	-8.070326e-04
7.168490e+01	-8.163814e-04
7.209895e+01	-8.258385e-04
7.251539e+01	-8.354052e-04
7.293424e+01	-8.450826e-04
7.335551e+01	-8.548722e-04
7.377920e+01	-8.647751e-04
7.420535e+01	-8.747927e-04
7.463396e+01	-8.849264e-04
7.506504e+01	-8.951775e-04
7.549861e+01	-9.055473e-04
7.593469e+01	-9.160372e-04
7.637328e+01	-9.266486e-04
7.681441e+01	-9.373829e-04
7.725809e+01	-9.482416e-04
7.770433e+01	-9.592260e-04
7.815315e+01	-9.703376e-04
7.860456e+01	-9.815780e-04
7.905857e+01	-9.929485e-04
7.951521e+01	-1.004451e-03
7.997449e+01	-1.016086e-03
8.043642e+01	-1.027857e-03
8.090102e+01	-1.039763e-03
8.136830e+01	-1.051808e-03
8.183828e+01	-1.063992e-03
8.231097e+01	-1.076317e-03
8.278640e+01	-1.088784e-03
8.326457e+01	-1.101397e-03
8.374550e+01	-1.114155e-03
8.422921e+01	-1.127061e-03
8.471572e+01	-1.140117e-03
8.520503e+01	-1.153324e-03
8.569717e+01	-1.166683e-03
8.619215e+01	-1.180198e-03
8.669000e+01	-1.193869e-03
8.719071e+01	-1.207698e-03
8.769432e+01	-1.221688e-03
8.820084e+01	-1.235839e-03
8.871029e+01	-1.250155e-03
8.922267e+01	-1.264636e-03
8.973802e+01	-1.279285e-03
9.025634e+01	-1.294104e-03
9.077766e+01	-1.309094e-03
9.130199e+01	-1.324258e-03
9.182935e+01	-1.339598e-03
9.235975e+01	-1.355115e-03
9.289321e+01	-1.370812e-03
9.342976e+01	-1.386690e-03
9.396941e+01	-1.402753e-03
9.451217e+01	-1.419001e-03
9.505807e+01	-1.435438e-03
9.560712e+01	-1.452065e-03
9.615934e+01	-1.468885e-03
9.671476e+01	-1.485900e-03
9.727338e+01	-1.503111e-03
9.783522e+01	-1.520522e-03
9.840032e+01	-1.538135e-03
9.896867e+01	-1.555951e-03
9.954031e+01	-1.573974e-03
1.001153e+02	-1.592206e-03
1.006935e+02	-1.610648e-03
1.012751e+02	-1.629305e-03
1.018601e+02	-1.648177e-03
1.024484e+02	-1.667268e-03
1.030402e+02	-1.686580e-03
1.036353e+02	-1.706115e-03
1.042339e+02	-1.725877e-03
1.048360e+02	-1.745868e-03
1.054415e+02	-1.766090e-03
1.060505e+02	-1.786547e-03
1.066631e+02	-1.807240e-03
1.072791e+02	-1.828173e-03
1.078988e+02	-1.849348e-03
1.085220e+02	-1.870769e-03
1.091488e+02	-1.892438e-03
1.097793e+02	-1.914357e-03
1.104133e+02	-1.936530e-03
1.110511e+02	-1.958961e-03
1.116925e+02	-1.981651e-03
1.123376e+02	-2.004603e-03
1.129865e+02	-2.027822e-03
1.136391e+02	-2.051309e-03
1.142955e+02	-2.075068e-03
1.149556e+02	-2.099103e-03
1.156196e+02	-2.123415e-03
1.162874e+02	-2.148010e-03
1.169591e+02	-2.172889e-03
1.176347e+02	-2.198056e-03
1.183141e+02	-2.223514e-03
1.189975e+02	-2.249268e-03
1.196848e+02	-2.275319e-03
1.203761e+02	-2.301672e-03
1.210714e+02	-2.328331e-03
1.217707e+02	-2.355298e-03
1.224740e+02	-2.382577e-03
1.231814e+02	-2.410172e-03
1.238929e+02	-2.438087e-03
1.246085e+02	-2.466324e-03
1.253283e+02	-2.494889e-03
1.260522e+02	-2.523785e-03
1.267802e+02	-2.553015e-03
1.275125e+02	-2.582583e-03
1.282490e+02	-2.612494e-03
1.289898e+02	-2.642752e-03
1.297348e+02	-2.673359e-03
1.304842e+02	-2.704321e-03
1.312378e+02	-2.735641e-03
1.319959e+02	-2.767324e-03
1.327583e+02	-2.799374e-03
1.335251e+02	-2.831795e-03
1.342963e+02	-2.864591e-03
1.350720e+02	-2.897767e-03
1.358522e+02	-2.931327e-03
1.366368e+02	-2.965276e-03
1.374260e+02	-2.999618e-03
1.382198e+02	-3.034357e-03
1.390182e+02	-3.069498e-03
1.398211e+02	-3.105046e-03
1.406287e+02	-3.141006e-03
1.414410e+02	-3.177382e-03
1.422579e+02	-3.214179e-03
1.430796e+02	-3.251402e-03
1.439060e+02	-3.289057e-03
1.447372e+02	-3.327146e-03
1.455732e+02	-3.365677e-03
1.464141e+02	-3.404654e-03
1.472597e+02	-3.444082e-03
1.481103e+02	-3.483967e-03
1.489658e+02	-3.524313e-03
1.498262e+02	-3.565127e-03
1.506916e+02	-3.606412e-03
1.515620e+02	-3.648176e-03
1.524374e+02	-3.690423e-03
1.533179e+02	-3.733159e-03
1.542034e+02	-3.776390e-03
1.550941e+02	-3.820121e-03
1.559899e+02	-3.864358e-03
1.568909e+02	-3.909108e-03
1.577971e+02	-3.954375e-03
1.587085e+02	-4.000167e-03
1.596252e+02	-4.046488e-03
1.605472e+02	-4.093345e-03
1.614745e+02	-4.140745e-03
1.624072e+02	-4.188694e-03
1.633453e+02	-4.237197e-03
1.642887e+02	-4.286262e-03
1.652377e+02	-4.335894e-03
1.661921e+02	-4.386101e-03
1.671520e+02	-4.436889e-03
1.681175e+02	-4.488265e-03
1.690885e+02	-4.540236e-03
1.700651e+02	-4.592808e-03
1.710474e+02	-4.645988e-03
1.720354e+02	-4.699784e-03
1.730291e+02	-4.754202e-03
1.740285e+02	-4.809250e-03
1.750337e+02	-4.864935e-03
1.760446e+02	-4.921265e-03
1.770615e+02	-4.978246e-03
1.780842e+02	-5.035887e-03
1.791128e+02	-5.094195e-03
1.801473e+02	-5.153177e-03
1.811878e+02	-5.212842e-03
1.822344e+02	-5.273198e-03
1.832870e+02	-5.334251e-03
1.843456e+02	-5.396012e-03
1.854104e+02	-5.458486e-03
1.864813e+02	-5.521684e-03
1.875584e+02	-5.585613e-03
1.886418e+02	-5.650281e-03
1.897313e+02	-5.715698e-03
1.908272e+02	-5.781872e-03
1.919294e+02	-5.848811e-03
1.930380e+02	-5.916525e-03
1.941530e+02	-5.985022e-03
1.952744e+02	-6.054311e-03
1.964023e+02	-6.124403e-03
1.975367e+02	-6.195305e-03
1.986777e+02	-6.267027e-03
1.998252e+02	-6.339579e-03
2.009794e+02	-6.412970e-03
2.021403e+02	-6.487210e-03
2.033078e+02	-6.562309e-03
2.044821e+02	-6.638277e-03
2.056632e+02	-6.715124e-03
2.068511e+02	-6.792859e-03
2.080459e+02	-6.871494e-03
2.092475e+02	-6.951038e-03
2.104561e+02	-7.031502e-03
2.116717e+02	-7.112897e-03
2.128943e+02	-7.195233e-03
2.141240e+02	-7.278521e-03
2.153608e+02	-7.362773e-03
2.166047e+02	-7.447999e-03
2.178558e+02	-7.534211e-03
2.191141e+02	-7.621420e-03
2.203797e+02	-7.709638e-03
2.216526e+02	-7.798875e-03
2.229329e+02	-7.889145e-03
2.242205e+02	-7.980459e-03
2.255156e+02	-8.072828e-03
2.268182e+02	-8.166266e-03
2.281283e+02	-8.260784e-03
2.294459e+02	-8.356394e-03
2.307712e+02	-8.453111e-03
2.321041e+02	-8.550946e-03
2.334447e+02	-8.649911e-03
2.347931e+02	-8.750022e-03
2.361493e+02	-8.851289e-03
2.375133e+02	-8.953728e-03
2.388851e+02	-9.057350e-03
2.402649e+02	-9.162171e-03
2.416527e+02	-9.268203e-03
2.430484e+02	-9.375461e-03
2.444523e+02	-9.483960e-03
2.458642e+02	-9.593712e-03
2.472843e+02	-9.704733e-03
2.487126e+02	-9.817037e-03
2.501492e+02	-9.930640e-03
2.515940e+02	-1.004555e-02
2.530472e+02	-1.016180e-02
2.545088e+02	-1.027939e-02
2.559789e+02	-1.039833e-02
2.574574e+02	-1.051865e-02
2.589444e+02	-1.064036e-02
2.604401e+02	-1.076348e-02
2.619444e+02	-1.088802e-02
2.634574e+02	-1.101400e-02
2.649791e+02	-1.114144e-02
2.665096e+02	-1.127035e-02
2.680489e+02	-1.140075e-02
2.695972e+02	-1.153265e-02
2.711544e+02	-1.166608e-02
2.727205e+02	-1.180105e-02
2.742958e+02	-1.193758e-02
2.758801e+02	-1.207568e-02
2.774736e+02	-1.221539e-02
2.790762e+02	-1.235670e-02
2.806882e+02	-1.249965e-02
2.823094e+02	-1.264425e-02
2.839400e+02	-1.279052e-02
2.855800e+02	-1.293848e-02
2.872295e+02	-1.308815e-02
2.888886e+02	-1.323955e-02
2.905572e+02	-1.339270e-02
2.922354e+02	-1.354761e-02
2.939234e+02	-1.370431e-02
2.956211e+02	-1.386283e-02
2.973286e+02	-1.402317e-02
2.990459e+02	-1.418537e-02
3.007732e+02	-1.434944e-02
3.025104e+02	-1.451540e-02
3.042577e+02	-1.468328e-02
3.060151e+02	-1.485310e-02
3.077826e+02	-1.502487e-02
3.095604e+02	-1.519864e-02
3.113484e+02	-1.537440e-02
3.131467e+02	-1.555220e-02
3.149554e+02	-1.573205e-02
3.167746e+02	-1.591397e-02
3.186043e+02	-1.609800e-02
3.204445e+02	-1.628414e-02
3.222954e+02	-1.647244e-02
3.241570e+02	-1.666291e-02
3.260293e+02	-1.685558e-02
3.279124e+02	-1.705047e-02
3.298064e+02	-1.724761e-02
3.317114e+02	-1.744703e-02
3.336273e+02	-1.764874e-02
3.355544e+02	-1.785279e-02
3.374925e+02	-1.805918e-02
3.394418e+02	-1.826796e-02
3.414024e+02	-1.847915e-02
3.433744e+02	-1.869277e-02
3.453577e+02	-1.890886e-02
3.473525e+02	-1.912744e-02
3.493588e+02	-1.934854e-02
3.513766e+02	-1.957219e-02
3.534062e+02	-1.979842e-02
3.554474e+02	-2.002726e-02
3.575005e+02	-2.025874e-02
3.595654e+02	-2.049288e-02
3.616422e+02	-2.072973e-02
3.637311e+02	-2.096931e-02
3.658320e+02	-2.121165e-02
3.679450e+02	-2.145678e-02
3.700702e+02	-2.170474e-02
3.722077e+02	-2.195555e-02
3.743576e+02	-2.220926e-02
3.765199e+02	-2.246589e-02
3.786946e+02	-2.272548e-02
3.808820e+02	-2.298807e-02
3.830819e+02	-2.325367e-02
3.852946e+02	-2.352234e-02
3.875200e+02	-2.379410e-02
3.897583e+02	-2.406900e-02
3.920096e+02	-2.434706e-02
3.942738e+02	-2.462832e-02
3.965511e+02	-2.491283e-02
3.988416e+02	-2.520061e-02
4.011452e+02	-2.549170e-02
4.034622e+02	-2.578615e-02
4.057926e+02	-2.608399e-02
4.081365e+02	-2.638526e-02
4.104938e+02	-2.669000e-02
4.128648e+02	-2.699824e-02
4.152495e+02	-2.731004e-02
4.176480e+02	-2.762542e-02
4.200603e+02	-2.794443e-02
4.224866e+02	-2.826712e-02
4.249268e+02	-2.859352e-02
4.273812e+02	-2.892368e-02
4.298497e+02	-2.925763e-02
4.323325e+02	-2.959543e-02
4.348297e+02	-2.993712e-02
4.373412e+02	-3.028273e-02
4.398673e+02	-3.063232e-02
4.424079e+02	-3.098594e-02
4.449633e+02	-3.134362e-02
4.475334e+02	-3.170541e-02
4.501183e+02	-3.207137e-02
4.527182e+02	-3.244153e-02
4.553330e+02	-3.281595e-02
4.579630e+02	-3.319467e-02
4.606082e+02	-3.357775e-02
4.632687e+02	-3.396523e-02
4.659445e+02	-3.435716e-02
4.686358e+02	-3.475360e-02
4.713426e+02	-3.515460e-02
4.740650e+02	-3.556020e-02
4.768032e+02	-3.597046e-02
4.795572e+02	-3.638544e-02
4.823271e+02	-3.680518e-02
4.851130e+02	-3.722975e-02
4.879150e+02	-3.765919e-02
4.907332e+02	-3.809356e-02
4.935676e+02	-3.853292e-02
4.964185e+02	-3.897733e-02
4.992858e+02	-3.942683e-02
5.021696e+02	-3.988150e-02
5.050701e+02	-4.034139e-02
5.079874e+02	-4.080655e-02
5.109215e+02	-4.127705e-02
5.138726e+02	-4.175295e-02
5.168407e+02	-4.223431e-02
5.198259e+02	-4.272119e-02
5.228284e+02	-4.321366e-02
5.258482e+02	-4.371178e-02
5.288855e+02	-4.421560e-02
5.319403e+02	-4.472521e-02
5.350128e+02	-4.524066e-02
5.381030e+02	-4.576201e-02
5.412111e+02	-4.628935e-02
5.443371e+02	-4.682272e-02
5.474812e+02	-4.736221e-02
5.506434e+02	-4.790788e-02
5.538239e+02	-4.845980e-02
5.570228e+02	-4.901805e-02
5.602401e+02	-4.958269e-02
5.634760e+02	-5.015379e-02
5.667306e+02	-5.073143e-02
5.700040e+02	-5.131569e-02
5.732964e+02	-5.190664e-02
5.766077e+02	-5.250435e-02
5.799382e+02	-5.310890e-02
5.832879e+02	-5.372037e-02
5.866569e+02	-5.433883e-02
5.900454e+02	-5.496437e-02
5.934535e+02	-5.559706e-02
5.968813e+02	-5.623699e-02
6.003288e+02	-5.688424e-02
6.037963e+02	-5.753888e-02
6.072838e+02	-5.820101e-02
6.107914e+02	-5.887071e-02
6.143194e+02	-5.954806e-02
6.178676e+02	-6.023315e-02
6.214364e+02	-6.092606e-02
6.250258e+02	-6.162689e-02
6.286359e+02	-6.233573e-02
6.322669e+02	-6.305265e-02
6.359189e+02	-6.377776e-02
6.395919e+02	-6.451115e-02
6.432862e+02	-6.525291e-02
6.470017e+02	-6.600313e-02
6.507388e+02	-6.676191e-02
6.544974e+02	-6.752935e-02
6.582778e+02	-6.830553e-02
6.620800e+02	-6.909057e-02
6.659041e+02	-6.988456e-02
6.697504e+02	-7.068760e-02
6.736188e+02	-7.149979e-02
6.775096e+02	-7.232123e-02
6.814229e+02	-7.315203e-02
6.853587e+02	-7.399229e-02
6.893173e+02	-7.484212e-02
6.932988e+02	-7.570163e-02
6.973033e+02	-7.657092e-02
7.013309e+02	-7.745010e-02
