Frequency(Hz)	Magnitude(dB)
1.000000e+01	-2.002784e+00
1.005776e+01	-2.021428e+00
1.011585e+01	-2.040194e+00
1.017428e+01	-2.058994e+00
1.023305e+01	-2.077935e+00
1.029215e+01	-2.096923e+00
1.035160e+01	-2.116235e+00
1.041139e+01	-2.135471e+00
1.047153e+01	-2.155256e+00
1.053201e+01	-2.174880e+00
1.059284e+01	-2.194672e+00
1.065403e+01	-2.214328e+00
1.071556e+01	-2.234460e+00
1.077746e+01	-2.254554e+00
1.083971e+01	-2.274882e+00
1.090232e+01	-2.295239e+00
1.096529e+01	-2.316153e+00
1.102862e+01	-2.336835e+00
1.109232e+01	-2.357692e+00
1.115639e+01	-2.378696e+00
1.122083e+01	-2.400045e+00
1.128564e+01	-2.421346e+00
1.135083e+01	-2.442674e+00
1.141639e+01	-2.464075e+00
1.148233e+01	-2.486065e+00
1.154865e+01	-2.507632e+00
1.161536e+01	-2.529861e+00
1.168245e+01	-2.551786e+00
1.174992e+01	-2.574250e+00
1.181779e+01	-2.596635e+00
1.188605e+01	-2.619417e+00
1.195470e+01	-2.641833e+00
1.202375e+01	-2.664861e+00
1.209320e+01	-2.687864e+00
1.216305e+01	-2.711000e+00
1.223330e+01	-2.734342e+00
1.230396e+01	-2.757858e+00
1.237503e+01	-2.781483e+00
1.244651e+01	-2.805112e+00
1.251840e+01	-2.829109e+00
1.259070e+01	-2.853041e+00
1.266343e+01	-2.877168e+00
1.273657e+01	-2.901432e+00
1.281014e+01	-2.925753e+00
1.288413e+01	-2.950574e+00
1.295855e+01	-2.975468e+00
1.303339e+01	-3.000261e+00
1.310867e+01	-3.025318e+00
1.318439e+01	-3.050456e+00
1.326054e+01	-3.075926e+00
1.333713e+01	-3.101018e+00
1.341417e+01	-3.127084e+00
1.349165e+01	-3.152511e+00
1.356958e+01	-3.178521e+00
1.364795e+01	-3.204589e+00
1.372678e+01	-3.230562e+00
1.380607e+01	-3.256877e+00
1.388581e+01	-3.283347e+00
1.396602e+01	-3.310224e+00
1.404668e+01	-3.336835e+00
1.412782e+01	-3.363672e+00
1.420942e+01	-3.390608e+00
1.429149e+01	-3.417830e+00
1.437404e+01	-3.445295e+00
1.445706e+01	-3.472661e+00
1.454057e+01	-3.500123e+00
1.462455e+01	-3.528144e+00
1.470902e+01	-3.555881e+00
1.479398e+01	-3.583964e+00
1.487943e+01	-3.612197e+00
1.496537e+01	-3.640448e+00
1.505181e+01	-3.668847e+00
1.513875e+01	-3.697625e+00
1.522619e+01	-3.726121e+00
1.531414e+01	-3.754993e+00
1.540259e+01	-3.784244e+00
1.549156e+01	-3.813534e+00
1.558103e+01	-3.842633e+00
1.567103e+01	-3.872087e+00
1.576155e+01	-3.901857e+00
1.585258e+01	-3.931180e+00
1.594415e+01	-3.961641e+00
1.603624e+01	-3.991029e+00
1.612886e+01	-4.021384e+00
1.622202e+01	-4.051588e+00
1.631572e+01	-4.081925e+00
1.640996e+01	-4.112704e+00
1.650474e+01	-4.143248e+00
1.660008e+01	-4.174332e+00
1.669596e+01	-4.205224e+00
1.679239e+01	-4.235982e+00
1.688938e+01	-4.267621e+00
1.698694e+01	-4.298631e+00
1.708505e+01	-4.330254e+00
1.718373e+01	-4.361630e+00
1.728299e+01	-4.393502e+00
1.738281e+01	-4.425700e+00
1.748322e+01	-4.457677e+00
1.758420e+01	-4.489870e+00
1.768576e+01	-4.522561e+00
1.778792e+01	-4.554251e+00
1.789066e+01	-4.586998e+00
1.799399e+01	-4.619834e+00
1.809793e+01	-4.652746e+00
1.820246e+01	-4.685617e+00
1.830760e+01	-4.718946e+00
1.841334e+01	-4.752110e+00
1.851969e+01	-4.785147e+00
1.862666e+01	-4.818962e+00
1.873425e+01	-4.852191e+00
1.884246e+01	-4.885920e+00
1.895129e+01	-4.919946e+00
1.906075e+01	-4.953636e+00
1.917085e+01	-4.988098e+00
1.928158e+01	-5.022162e+00
1.939295e+01	-5.056677e+00
1.950496e+01	-5.090857e+00
1.961762e+01	-5.125570e+00
1.973093e+01	-5.160261e+00
1.984490e+01	-5.195226e+00
1.995952e+01	-5.230103e+00
2.007480e+01	-5.265006e+00
2.019076e+01	-5.300111e+00
2.030738e+01	-5.335546e+00
2.042467e+01	-5.371088e+00
2.054264e+01	-5.406700e+00
2.066130e+01	-5.442220e+00
2.078064e+01	-5.477973e+00
2.090066e+01	-5.514244e+00
2.102139e+01	-5.550137e+00
2.114280e+01	-5.586184e+00
2.126492e+01	-5.622568e+00
2.138775e+01	-5.658984e+00
2.151128e+01	-5.695251e+00
2.163553e+01	-5.731856e+00
2.176050e+01	-5.768692e+00
2.188619e+01	-5.805469e+00
2.201260e+01	-5.842428e+00
2.213974e+01	-5.879499e+00
2.226762e+01	-5.916978e+00
2.239624e+01	-5.953935e+00
2.252560e+01	-5.991781e+00
2.265571e+01	-6.028865e+00
2.278656e+01	-6.066273e+00
2.291818e+01	-6.104069e+00
2.305055e+01	-6.141890e+00
2.318369e+01	-6.179877e+00
2.331760e+01	-6.218068e+00
2.345228e+01	-6.255990e+00
2.358774e+01	-6.294197e+00
2.372398e+01	-6.332472e+00
2.386101e+01	-6.370882e+00
2.399883e+01	-6.409481e+00
2.413745e+01	-6.448141e+00
2.427686e+01	-6.487183e+00
2.441709e+01	-6.525766e+00
2.455812e+01	-6.564914e+00
2.469997e+01	-6.603849e+00
2.484263e+01	-6.643060e+00
2.498612e+01	-6.681776e+00
2.513044e+01	-6.721170e+00
2.527559e+01	-6.761174e+00
2.542158e+01	-6.800397e+00
2.556842e+01	-6.840022e+00
2.571610e+01	-6.880185e+00
2.586463e+01	-6.919736e+00
2.601403e+01	-6.959455e+00
2.616428e+01	-6.999521e+00
2.631541e+01	-7.039419e+00
2.646740e+01	-7.079981e+00
2.662028e+01	-7.119891e+00
2.677404e+01	-7.160022e+00
2.692868e+01	-7.201082e+00
2.708422e+01	-7.241422e+00
2.724066e+01	-7.281695e+00
2.739800e+01	-7.322678e+00
2.755625e+01	-7.363506e+00
2.771541e+01	-7.404787e+00
2.787550e+01	-7.445545e+00
2.803650e+01	-7.486197e+00
2.819844e+01	-7.527809e+00
2.836131e+01	-7.568939e+00
2.852513e+01	-7.609941e+00
2.868989e+01	-7.651538e+00
2.885560e+01	-7.692857e+00
2.902227e+01	-7.734566e+00
2.918990e+01	-7.776680e+00
2.935850e+01	-7.817789e+00
2.952807e+01	-7.859615e+00
2.969863e+01	-7.901840e+00
2.987016e+01	-7.943638e+00
3.004269e+01	-7.985150e+00
3.021622e+01	-8.027918e+00
3.039075e+01	-8.070014e+00
3.056628e+01	-8.111981e+00
3.074283e+01	-8.154788e+00
3.092040e+01	-8.196788e+00
3.109900e+01	-8.239978e+00
3.127862e+01	-8.282125e+00
3.145929e+01	-8.324840e+00
3.164099e+01	-8.367054e+00
3.182375e+01	-8.410029e+00
3.200756e+01	-8.452761e+00
3.219244e+01	-8.495560e+00
3.237838e+01	-8.538350e+00
3.256540e+01	-8.581835e+00
3.275349e+01	-8.624882e+00
3.294268e+01	-8.668167e+00
3.313295e+01	-8.711358e+00
3.332433e+01	-8.754783e+00
3.351681e+01	-8.798236e+00
3.371040e+01	-8.841722e+00
3.390511e+01	-8.885167e+00
3.410094e+01	-8.928502e+00
3.429791e+01	-8.972588e+00
3.449601e+01	-9.016056e+00
3.469526e+01	-9.060105e+00
3.489566e+01	-9.103849e+00
3.509721e+01	-9.147323e+00
3.529993e+01	-9.191131e+00
3.550382e+01	-9.235559e+00
3.570889e+01	-9.279214e+00
3.591515e+01	-9.323881e+00
3.612259e+01	-9.367796e+00
3.633123e+01	-9.412125e+00
3.654108e+01	-9.456633e+00
3.675214e+01	-9.501115e+00
3.696442e+01	-9.545267e+00
3.717792e+01	-9.589941e+00
3.739266e+01	-9.634326e+00
3.760864e+01	-9.679253e+00
3.782587e+01	-9.723580e+00
3.804435e+01	-9.768322e+00
3.826409e+01	-9.813786e+00
3.848510e+01	-9.858273e+00
3.870739e+01	-9.903459e+00
3.893096e+01	-9.947652e+00
3.915583e+01	-9.993097e+00
3.938199e+01	-1.003848e+01
3.960946e+01	-1.008344e+01
3.983824e+01	-1.012803e+01
4.006834e+01	-1.017382e+01
4.029978e+01	-1.021855e+01
4.053255e+01	-1.026428e+01
4.076666e+01	-1.030964e+01
4.100213e+01	-1.035480e+01
4.123896e+01	-1.040050e+01
4.147715e+01	-1.044494e+01
4.171672e+01	-1.049124e+01
4.195767e+01	-1.053680e+01
4.220002e+01	-1.058242e+01
4.244377e+01	-1.062841e+01
4.268892e+01	-1.067382e+01
4.293549e+01	-1.071941e+01
4.318348e+01	-1.076533e+01
4.343291e+01	-1.081164e+01
4.368377e+01	-1.085714e+01
4.393609e+01	-1.090352e+01
4.418986e+01	-1.094873e+01
4.444510e+01	-1.099550e+01
4.470182e+01	-1.104109e+01
4.496001e+01	-1.108750e+01
4.521970e+01	-1.113313e+01
4.548089e+01	-1.117980e+01
4.574358e+01	-1.122550e+01
4.600779e+01	-1.127201e+01
4.627353e+01	-1.131838e+01
4.654081e+01	-1.136488e+01
4.680963e+01	-1.141160e+01
4.708000e+01	-1.145809e+01
4.735193e+01	-1.150402e+01
4.762543e+01	-1.155078e+01
4.790051e+01	-1.159655e+01
4.817719e+01	-1.164364e+01
4.845545e+01	-1.169120e+01
4.873533e+01	-1.173673e+01
4.901682e+01	-1.178318e+01
4.929994e+01	-1.183030e+01
4.958470e+01	-1.187709e+01
4.987110e+01	-1.192384e+01
5.015915e+01	-1.197069e+01
5.044887e+01	-1.201752e+01
5.074026e+01	-1.206420e+01
5.103333e+01	-1.211158e+01
5.132810e+01	-1.215814e+01
5.162457e+01	-1.220543e+01
5.192275e+01	-1.225281e+01
5.222265e+01	-1.229988e+01
5.252429e+01	-1.234705e+01
5.282767e+01	-1.239412e+01
5.313280e+01	-1.244065e+01
5.343969e+01	-1.248754e+01
5.374836e+01	-1.253458e+01
5.405880e+01	-1.258228e+01
5.437105e+01	-1.262977e+01
5.468509e+01	-1.267673e+01
5.500095e+01	-1.272454e+01
5.531863e+01	-1.277179e+01
5.563815e+01	-1.281935e+01
5.595951e+01	-1.286694e+01
5.628273e+01	-1.291464e+01
5.660782e+01	-1.296126e+01
5.693479e+01	-1.300931e+01
5.726364e+01	-1.305737e+01
5.759439e+01	-1.310421e+01
5.792705e+01	-1.315186e+01
5.826164e+01	-1.319940e+01
5.859815e+01	-1.324752e+01
5.893662e+01	-1.329466e+01
5.927703e+01	-1.334275e+01
5.961941e+01	-1.338999e+01
5.996377e+01	-1.343743e+01
6.031012e+01	-1.348601e+01
6.065847e+01	-1.353320e+01
6.100883e+01	-1.358115e+01
6.136121e+01	-1.362930e+01
6.171563e+01	-1.367690e+01
6.207210e+01	-1.372496e+01
6.243063e+01	-1.377299e+01
6.279122e+01	-1.382097e+01
6.315390e+01	-1.386925e+01
6.351868e+01	-1.391710e+01
6.388556e+01	-1.396490e+01
6.425456e+01	-1.401349e+01
6.462569e+01	-1.406134e+01
6.499897e+01	-1.410846e+01
6.537440e+01	-1.415718e+01
6.575200e+01	-1.420503e+01
6.613178e+01	-1.425310e+01
6.651375e+01	-1.430231e+01
6.689793e+01	-1.434974e+01
6.728433e+01	-1.439723e+01
6.767297e+01	-1.444665e+01
6.806384e+01	-1.449344e+01
6.845698e+01	-1.454361e+01
6.885238e+01	-1.459083e+01
6.925007e+01	-1.463922e+01
6.965005e+01	-1.468766e+01
7.005235e+01	-1.473596e+01
7.045697e+01	-1.478400e+01
7.086393e+01	-1.483255e+01
7.127323e+01	-1.488093e+01
7.168490e+01	-1.492974e+01
7.209895e+01	-1.497827e+01
7.251539e+01	-1.502605e+01
7.293424e+01	-1.507489e+01
7.335551e+01	-1.512340e+01
7.377920e+01	-1.517176e+01
7.420535e+01	-1.522147e+01
7.463396e+01	-1.526863e+01
7.506504e+01	-1.531670e+01
7.549861e+01	-1.536648e+01
7.593469e+01	-1.541356e+01
7.637328e+01	-1.546249e+01
7.681441e+01	-1.551101e+01
7.725809e+01	-1.556043e+01
7.770433e+01	-1.560941e+01
7.815315e+01	-1.565794e+01
7.860456e+01	-1.570630e+01
7.905857e+01	-1.575513e+01
7.951521e+01	-1.580402e+01
7.997449e+01	-1.585263e+01
8.043642e+01	-1.590032e+01
8.090102e+01	-1.595108e+01
8.136830e+01	-1.599919e+01
8.183828e+01	-1.604644e+01
8.231097e+01	-1.609552e+01
8.278640e+01	-1.614546e+01
8.326457e+01	-1.619476e+01
8.374550e+01	-1.624262e+01
8.422921e+01	-1.629159e+01
8.471572e+01	-1.634019e+01
8.520503e+01	-1.639031e+01
8.569717e+01	-1.643808e+01
8.619215e+01	-1.648688e+01
8.669000e+01	-1.653656e+01
8.719071e+01	-1.658427e+01
8.769432e+01	-1.663470e+01
8.820084e+01	-1.668200e+01
8.871029e+01	-1.673191e+01
8.922267e+01	-1.677996e+01
8.973802e+01	-1.682975e+01
9.025634e+01	-1.687883e+01
9.077766e+01	-1.692829e+01
9.130199e+01	-1.697709e+01
9.182935e+01	-1.702604e+01
9.235975e+01	-1.707567e+01
9.289321e+01	-1.712377e+01
9.342976e+01	-1.717248e+01
9.396941e+01	-1.722263e+01
9.451217e+01	-1.727082e+01
9.505807e+01	-1.732010e+01
9.560712e+01	-1.736942e+01
9.615934e+01	-1.741813e+01
9.671476e+01	-1.746792e+01
9.727338e+01	-1.751760e+01
9.783522e+01	-1.756667e+01
9.840032e+01	-1.761489e+01
9.896867e+01	-1.766438e+01
9.954031e+01	-1.771270e+01
1.001153e+02	-1.776238e+01
1.006935e+02	-1.781207e+01
1.012751e+02	-1.786065e+01
1.018601e+02	-1.790869e+01
1.024484e+02	-1.795865e+01
1.030402e+02	-1.800770e+01
1.036353e+02	-1.805855e+01
1.042339e+02	-1.810581e+01
1.048360e+02	-1.815674e+01
1.054415e+02	-1.820517e+01
1.060505e+02	-1.825541e+01
1.066631e+02	-1.830395e+01
1.072791e+02	-1.835405e+01
1.078988e+02	-1.840277e+01
1.085220e+02	-1.845144e+01
1.091488e+02	-1.850092e+01
1.097793e+02	-1.855015e+01
1.104133e+02	-1.860017e+01
1.110511e+02	-1.864946e+01
1.116925e+02	-1.869929e+01
1.123376e+02	-1.874913e+01
1.129865e+02	-1.879786e+01
1.136391e+02	-1.884648e+01
1.142955e+02	-1.889624e+01
1.149556e+02	-1.894490e+01
1.156196e+02	-1.899386e+01
1.162874e+02	-1.904536e+01
1.169591e+02	-1.909376e+01
1.176347e+02	-1.914340e+01
1.183141e+02	-1.919371e+01
1.189975e+02	-1.924205e+01
1.196848e+02	-1.929187e+01
1.203761e+02	-1.934168e+01
1.210714e+02	-1.939093e+01
1.217707e+02	-1.944085e+01
1.224740e+02	-1.948825e+01
1.231814e+02	-1.953771e+01
1.238929e+02	-1.958935e+01
1.246085e+02	-1.963800e+01
1.253283e+02	-1.968842e+01
1.260522e+02	-1.973720e+01
1.267802e+02	-1.978657e+01
1.275125e+02	-1.983617e+01
1.282490e+02	-1.988513e+01
1.289898e+02	-1.993588e+01
1.297348e+02	-1.998596e+01
1.304842e+02	-2.003435e+01
1.312378e+02	-2.008304e+01
1.319959e+02	-2.013094e+01
1.327583e+02	-2.018346e+01
1.335251e+02	-2.023176e+01
1.342963e+02	-2.028190e+01
1.350720e+02	-2.033195e+01
1.358522e+02	-2.037964e+01
1.366368e+02	-2.042875e+01
1.374260e+02	-2.048030e+01
1.382198e+02	-2.053032e+01
1.390182e+02	-2.057983e+01
1.398211e+02	-2.063079e+01
1.406287e+02	-2.067876e+01
1.414410e+02	-2.072929e+01
1.422579e+02	-2.077764e+01
1.430796e+02	-2.082627e+01
1.439060e+02	-2.087574e+01
1.447372e+02	-2.092563e+01
1.455732e+02	-2.097588e+01
1.464141e+02	-2.102521e+01
1.472597e+02	-2.107762e+01
1.481103e+02	-2.112438e+01
1.489658e+02	-2.117422e+01
1.498262e+02	-2.122714e+01
1.506916e+02	-2.127418e+01
1.515620e+02	-2.132387e+01
1.524374e+02	-2.137373e+01
1.533179e+02	-2.142362e+01
1.542034e+02	-2.147137e+01
1.550941e+02	-2.152245e+01
1.559899e+02	-2.157323e+01
1.568909e+02	-2.162253e+01
1.577971e+02	-2.167175e+01
1.587085e+02	-2.172185e+01
1.596252e+02	-2.177143e+01
1.605472e+02	-2.181975e+01
1.614745e+02	-2.187118e+01
1.624072e+02	-2.192223e+01
1.633453e+02	-2.197054e+01
1.642887e+02	-2.201937e+01
1.652377e+02	-2.206871e+01
1.661921e+02	-2.211977e+01
1.671520e+02	-2.217082e+01
1.681175e+02	-2.221767e+01
1.690885e+02	-2.227056e+01
1.700651e+02	-2.231839e+01
1.710474e+02	-2.236899e+01
1.720354e+02	-2.241947e+01
1.730291e+02	-2.246584e+01
1.740285e+02	-2.251676e+01
1.750337e+02	-2.256683e+01
1.760446e+02	-2.261648e+01
1.770615e+02	-2.266881e+01
1.780842e+02	-2.271863e+01
1.791128e+02	-2.276658e+01
1.801473e+02	-2.281547e+01
1.811878e+02	-2.286707e+01
1.822344e+02	-2.291363e+01
1.832870e+02	-2.296421e+01
1.843456e+02	-2.301593e+01
1.854104e+02	-2.306426e+01
1.864813e+02	-2.311261e+01
1.875584e+02	-2.316688e+01
1.886418e+02	-2.321226e+01
1.897313e+02	-2.326654e+01
1.908272e+02	-2.331384e+01
1.919294e+02	-2.336531e+01
1.930380e+02	-2.341316e+01
1.941530e+02	-2.346202e+01
1.952744e+02	-2.351376e+01
1.964023e+02	-2.356464e+01
1.975367e+02	-2.361179e+01
1.986777e+02	-2.366274e+01
1.998252e+02	-2.371286e+01
2.009794e+02	-2.376408e+01
2.021403e+02	-2.381323e+01
2.033078e+02	-2.386545e+01
2.044821e+02	-2.391333e+01
2.056632e+02	-2.396220e+01
2.068511e+02	-2.401106e+01
2.080459e+02	-2.406196e+01
2.092475e+02	-2.411126e+01
2.104561e+02	-2.416122e+01
2.116717e+02	-2.421203e+01
2.128943e+02	-2.425960e+01
2.141240e+02	-2.431212e+01
2.153608e+02	-2.436159e+01
2.166047e+02	-2.441288e+01
2.178558e+02	-2.446235e+01
2.191141e+02	-2.450891e+01
2.203797e+02	-2.455918e+01
2.216526e+02	-2.460949e+01
2.229329e+02	-2.466040e+01
2.242205e+02	-2.471011e+01
2.255156e+02	-2.475770e+01
2.268182e+02	-2.481012e+01
2.281283e+02	-2.486384e+01
2.294459e+02	-2.491073e+01
2.307712e+02	-2.496118e+01
2.321041e+02	-2.501092e+01
2.334447e+02	-2.506114e+01
2.347931e+02	-2.510923e+01
2.361493e+02	-2.516117e+01
2.375133e+02	-2.520668e+01
2.388851e+02	-2.526079e+01
2.402649e+02	-2.531071e+01
2.416527e+02	-2.535692e+01
2.430484e+02	-2.541143e+01
2.444523e+02	-2.546118e+01
2.458642e+02	-2.551094e+01
2.472843e+02	-2.555770e+01
2.487126e+02	-2.560846e+01
2.501492e+02	-2.565979e+01
2.515940e+02	-2.570617e+01
2.530472e+02	-2.575797e+01
2.545088e+02	-2.580637e+01
2.559789e+02	-2.586142e+01
2.574574e+02	-2.590646e+01
2.589444e+02	-2.595966e+01
2.604401e+02	-2.600668e+01
2.619444e+02	-2.605895e+01
2.634574e+02	-2.610817e+01
2.649791e+02	-2.616072e+01
2.665096e+02	-2.620898e+01
2.680489e+02	-2.625895e+01
2.695972e+02	-2.630827e+01
2.711544e+02	-2.635714e+01
2.727205e+02	-2.640672e+01
2.742958e+02	-2.645667e+01
2.758801e+02	-2.650539e+01
2.774736e+02	-2.655996e+01
2.790762e+02	-2.660684e+01
2.806882e+02	-2.665977e+01
2.823094e+02	-2.670820e+01
2.839400e+02	-2.676004e+01
2.855800e+02	-2.680644e+01
2.872295e+02	-2.685699e+01
2.888886e+02	-2.691048e+01
2.905572e+02	-2.695780e+01
2.922354e+02	-2.700808e+01
2.939234e+02	-2.705967e+01
2.956211e+02	-2.710678e+01
2.973286e+02	-2.715718e+01
2.990459e+02	-2.721029e+01
3.007732e+02	-2.725994e+01
3.025104e+02	-2.730910e+01
3.042577e+02	-2.735720e+01
3.060151e+02	-2.741091e+01
3.077826e+02	-2.745939e+01
3.095604e+02	-2.750957e+01
3.113484e+02	-2.755258e+01
3.131467e+02	-2.761076e+01
3.149554e+02	-2.765540e+01
3.167746e+02	-2.770850e+01
3.186043e+02	-2.775913e+01
3.204445e+02	-2.780435e+01
3.222954e+02	-2.785969e+01
3.241570e+02	-2.790699e+01
3.260293e+02	-2.795778e+01
3.279124e+02	-2.800638e+01
3.298064e+02	-2.805756e+01
3.317114e+02	-2.810916e+01
3.336273e+02	-2.815732e+01
3.355544e+02	-2.821019e+01
3.374925e+02	-2.825673e+01
3.394418e+02	-2.830603e+01
3.414024e+02	-2.835875e+01
3.433744e+02	-2.841275e+01
3.453577e+02	-2.845681e+01
3.473525e+02	-2.850968e+01
3.493588e+02	-2.855751e+01
3.513766e+02	-2.861145e+01
3.534062e+02	-2.865941e+01
3.554474e+02	-2.870701e+01
3.575005e+02	-2.876219e+01
3.595654e+02	-2.880762e+01
3.616422e+02	-2.885655e+01
3.637311e+02	-2.891492e+01
3.658320e+02	-2.895898e+01
3.679450e+02	-2.900845e+01
3.700702e+02	-2.906004e+01
3.722077e+02	-2.910879e+01
3.743576e+02	-2.915664e+01
3.765199e+02	-2.920868e+01
3.786946e+02	-2.926445e+01
3.808820e+02	-2.931421e+01
3.830819e+02	-2.936041e+01
3.852946e+02	-2.941084e+01
3.875200e+02	-2.945911e+01
3.897583e+02	-2.950679e+01
3.920096e+02	-2.955516e+01
3.942738e+02	-2.961300e+01
3.965511e+02	-2.966429e+01
3.988416e+02	-2.971132e+01
4.011452e+02	-2.976251e+01
4.034622e+02	-2.981105e+01
4.057926e+02	-2.985872e+01
4.081365e+02	-2.990822e+01
4.104938e+02	-2.995916e+01
4.128648e+02	-3.000705e+01
4.152495e+02	-3.006550e+01
4.176480e+02	-3.011170e+01
4.200603e+02	-3.016237e+01
4.224866e+02	-3.021252e+01
4.249268e+02	-3.026032e+01
4.273812e+02	-3.031568e+01
4.298497e+02	-3.036262e+01
4.323325e+02	-3.041286e+01
4.348297e+02	-3.046523e+01
4.373412e+02	-3.051390e+01
4.398673e+02	-3.056315e+01
4.424079e+02	-3.061165e+01
4.449633e+02	-3.066360e+01
4.475334e+02	-3.071183e+01
4.501183e+02	-3.076513e+01
4.527182e+02	-3.081499e+01
4.553330e+02	-3.086279e+01
4.579630e+02	-3.091434e+01
4.606082e+02	-3.096850e+01
4.632687e+02	-3.101889e+01
4.659445e+02	-3.106455e+01
4.686358e+02	-3.111903e+01
4.713426e+02	-3.116689e+01
4.740650e+02	-3.121633e+01
4.768032e+02	-3.126714e+01
4.795572e+02	-3.131805e+01
4.823271e+02	-3.136583e+01
4.851130e+02	-3.141597e+01
4.879150e+02	-3.146210e+01
4.907332e+02	-3.151303e+01
4.935676e+02	-3.156487e+01
4.964185e+02	-3.161499e+01
4.992858e+02	-3.166798e+01
5.021696e+02	-3.171828e+01
5.050701e+02	-3.176159e+01
5.079874e+02	-3.181758e+01
5.109215e+02	-3.187159e+01
5.138726e+02	-3.191737e+01
5.168407e+02	-3.196293e+01
5.198259e+02	-3.201632e+01
5.228284e+02	-3.207288e+01
5.258482e+02	-3.212088e+01
5.288855e+02	-3.216620e+01
5.319403e+02	-3.221798e+01
5.350128e+02	-3.226192e+01
5.381030e+02	-3.231807e+01
5.412111e+02	-3.237238e+01
5.443371e+02	-3.242311e+01
5.474812e+02	-3.246886e+01
5.506434e+02	-3.252206e+01
5.538239e+02	-3.257360e+01
5.570228e+02	-3.262322e+01
5.602401e+02	-3.266636e+01
5.634760e+02	-3.272544e+01
5.667306e+02	-3.277109e+01
5.700040e+02	-3.281346e+01
5.732964e+02	-3.287447e+01
5.766077e+02	-3.292345e+01
5.799382e+02	-3.297708e+01
5.832879e+02	-3.302824e+01
5.866569e+02	-3.307632e+01
5.900454e+02	-3.312937e+01
5.934535e+02	-3.317619e+01
5.968813e+02	-3.323081e+01
6.003288e+02	-3.327248e+01
6.037963e+02	-3.331957e+01
6.072838e+02	-3.338415e+01
6.107914e+02	-3.342706e+01
6.143194e+02	-3.348013e+01
6.178676e+02	-3.352755e+01
6.214364e+02	-3.357740e+01
6.250258e+02	-3.362884e+01
6.286359e+02	-3.367164e+01
6.322669e+02	-3.373104e+01
6.359189e+02	-3.379605e+01
6.395919e+02	-3.382508e+01
6.432862e+02	-3.387076e+01
6.470017e+02	-3.392881e+01
6.507388e+02	-3.397696e+01
6.544974e+02	-3.403984e+01
6.582778e+02	-3.407873e+01
6.620800e+02	-3.412792e+01
6.659041e+02	-3.418084e+01
6.697504e+02	-3.423531e+01
6.736188e+02	-3.428200e+01
6.775096e+02	-3.434134e+01
6.814229e+02	-3.438149e+01
6.853587e+02	-3.442806e+01
6.893173e+02	-3.448483e+01
6.932988e+02	-3.453526e+01
6.973033e+02	-3.457389e+01
7.013309e+02	-3.463280e+01
