Frequency(Hz)	Magnitude(dB)
1.000000e+01	-1.524939e-05
1.005776e+01	-1.542606e-05
1.011585e+01	-1.560477e-05
1.017428e+01	-1.578556e-05
1.023305e+01	-1.596844e-05
1.029215e+01	-1.615343e-05
1.035160e+01	-1.634058e-05
1.041139e+01	-1.652989e-05
1.047153e+01	-1.672139e-05
1.053201e+01	-1.691511e-05
1.059284e+01	-1.711108e-05
1.065403e+01	-1.730931e-05
1.071556e+01	-1.750985e-05
1.077746e+01	-1.771270e-05
1.083971e+01	-1.791791e-05
1.090232e+01	-1.812549e-05
1.096529e+01	-1.833548e-05
1.102862e+01	-1.854790e-05
1.109232e+01	-1.876278e-05
1.115639e+01	-1.898016e-05
1.122083e+01	-1.920005e-05
1.128564e+01	-1.942248e-05
1.135083e+01	-1.964750e-05
1.141639e+01	-1.987512e-05
1.148233e+01	-2.010538e-05
1.154865e+01	-2.033830e-05
1.161536e+01	-2.057393e-05
1.168245e+01	-2.081228e-05
1.174992e+01	-2.105340e-05
1.181779e+01	-2.129731e-05
1.188605e+01	-2.154404e-05
1.195470e+01	-2.179363e-05
1.202375e+01	-2.204612e-05
1.209320e+01	-2.230153e-05
1.216305e+01	-2.255990e-05
1.223330e+01	-2.282126e-05
1.230396e+01	-2.308565e-05
1.237503e+01	-2.335310e-05
1.244651e+01	-2.362365e-05
1.251840e+01	-2.389734e-05
1.259070e+01	-2.417420e-05
1.266343e+01	-2.445426e-05
1.273657e+01	-2.473757e-05
1.281014e+01	-2.502416e-05
1.288413e+01	-2.531407e-05
1.295855e+01	-2.560734e-05
1.303339e+01	-2.590401e-05
1.310867e+01	-2.620411e-05
1.318439e+01	-2.650769e-05
1.326054e+01	-2.681479e-05
1.333713e+01	-2.712545e-05
1.341417e+01	-2.743970e-05
1.349165e+01	-2.775760e-05
1.356958e+01	-2.807917e-05
1.364795e+01	-2.840448e-05
1.372678e+01	-2.873355e-05
1.380607e+01	-2.906644e-05
1.388581e+01	-2.940318e-05
1.396602e+01	-2.974382e-05
1.404668e+01	-3.008841e-05
1.412782e+01	-3.043699e-05
1.420942e+01	-3.078961e-05
1.429149e+01	-3.114632e-05
1.437404e+01	-3.150715e-05
1.445706e+01	-3.187217e-05
1.454057e+01	-3.224142e-05
1.462455e+01	-3.261494e-05
1.470902e+01	-3.299280e-05
1.479398e+01	-3.337502e-05
1.487943e+01	-3.376168e-05
1.496537e+01	-3.415282e-05
1.505181e+01	-3.454849e-05
1.513875e+01	-3.494874e-05
1.522619e+01	-3.535363e-05
1.531414e+01	-3.576321e-05
1.540259e+01	-3.617753e-05
1.549156e+01	-3.659666e-05
1.558103e+01	-3.702064e-05
1.567103e+01	-3.744953e-05
1.576155e+01	-3.788339e-05
1.585258e+01	-3.832228e-05
1.594415e+01	-3.876625e-05
1.603624e+01	-3.921537e-05
1.612886e+01	-3.966969e-05
1.622202e+01	-4.012927e-05
1.631572e+01	-4.059418e-05
1.640996e+01	-4.106447e-05
1.650474e+01	-4.154021e-05
1.660008e+01	-4.202146e-05
1.669596e+01	-4.250829e-05
1.679239e+01	-4.300076e-05
1.688938e+01	-4.349893e-05
1.698694e+01	-4.400288e-05
1.708505e+01	-4.451266e-05
1.718373e+01	-4.502835e-05
1.728299e+01	-4.555001e-05
1.738281e+01	-4.607772e-05
1.748322e+01	-4.661154e-05
1.758420e+01	-4.715155e-05
1.768576e+01	-4.769781e-05
1.778792e+01	-4.825040e-05
1.789066e+01	-4.880939e-05
1.799399e+01	-4.937485e-05
1.809793e+01	-4.994687e-05
1.820246e+01	-5.052552e-05
1.830760e+01	-5.111087e-05
1.841334e+01	-5.170300e-05
1.851969e+01	-5.230199e-05
1.862666e+01	-5.290792e-05
1.873425e+01	-5.352087e-05
1.884246e+01	-5.414092e-05
1.895129e+01	-5.476815e-05
1.906075e+01	-5.540265e-05
1.917085e+01	-5.604450e-05
1.928158e+01	-5.669379e-05
1.939295e+01	-5.735060e-05
1.950496e+01	-5.801502e-05
1.961762e+01	-5.868713e-05
1.973093e+01	-5.936703e-05
1.984490e+01	-6.005481e-05
1.995952e+01	-6.075056e-05
2.007480e+01	-6.145437e-05
2.019076e+01	-6.216633e-05
2.030738e+01	-6.288654e-05
2.042467e+01	-6.361509e-05
2.054264e+01	-6.435208e-05
2.066130e+01	-6.509761e-05
2.078064e+01	-6.585178e-05
2.090066e+01	-6.661469e-05
2.102139e+01	-6.738643e-05
2.114280e+01	-6.816712e-05
2.126492e+01	-6.895685e-05
2.138775e+01	-6.975572e-05
2.151128e+01	-7.056386e-05
2.163553e+01	-7.138135e-05
2.176050e+01	-7.220832e-05
2.188619e+01	-7.304486e-05
2.201260e+01	-7.389110e-05
2.213974e+01	-7.474714e-05
2.226762e+01	-7.561310e-05
2.239624e+01	-7.648909e-05
2.252560e+01	-7.737523e-05
2.265571e+01	-7.827164e-05
2.278656e+01	-7.917843e-05
2.291818e+01	-8.009573e-05
2.305055e+01	-8.102365e-05
2.318369e+01	-8.196232e-05
2.331760e+01	-8.291187e-05
2.345228e+01	-8.387242e-05
2.358774e+01	-8.484409e-05
2.372398e+01	-8.582703e-05
2.386101e+01	-8.682135e-05
2.399883e+01	-8.782718e-05
2.413745e+01	-8.884468e-05
2.427686e+01	-8.987396e-05
2.441709e+01	-9.091516e-05
2.455812e+01	-9.196843e-05
2.469997e+01	-9.303390e-05
2.484263e+01	-9.411171e-05
2.498612e+01	-9.520201e-05
2.513044e+01	-9.630494e-05
2.527559e+01	-9.742064e-05
2.542158e+01	-9.854928e-05
2.556842e+01	-9.969098e-05
2.571610e+01	-1.008459e-04
2.586463e+01	-1.020142e-04
2.601403e+01	-1.031961e-04
2.616428e+01	-1.043916e-04
2.631541e+01	-1.056010e-04
2.646740e+01	-1.068244e-04
2.662028e+01	-1.080620e-04
2.677404e+01	-1.093139e-04
2.692868e+01	-1.105803e-04
2.708422e+01	-1.118614e-04
2.724066e+01	-1.131573e-04
2.739800e+01	-1.144683e-04
2.755625e+01	-1.157944e-04
2.771541e+01	-1.171359e-04
2.787550e+01	-1.184929e-04
2.803650e+01	-1.198657e-04
2.819844e+01	-1.212543e-04
2.836131e+01	-1.226591e-04
2.852513e+01	-1.240801e-04
2.868989e+01	-1.255176e-04
2.885560e+01	-1.269717e-04
2.902227e+01	-1.284427e-04
2.918990e+01	-1.299307e-04
2.935850e+01	-1.314360e-04
2.952807e+01	-1.329587e-04
2.969863e+01	-1.344990e-04
2.987016e+01	-1.360572e-04
3.004269e+01	-1.376335e-04
3.021622e+01	-1.392279e-04
3.039075e+01	-1.408409e-04
3.056628e+01	-1.424726e-04
3.074283e+01	-1.441231e-04
3.092040e+01	-1.457928e-04
3.109900e+01	-1.474818e-04
3.127862e+01	-1.491904e-04
3.145929e+01	-1.509188e-04
3.164099e+01	-1.526672e-04
3.182375e+01	-1.544359e-04
3.200756e+01	-1.562250e-04
3.219244e+01	-1.580349e-04
3.237838e+01	-1.598657e-04
3.256540e+01	-1.617178e-04
3.275349e+01	-1.635913e-04
3.294268e+01	-1.654865e-04
3.313295e+01	-1.674037e-04
3.332433e+01	-1.693431e-04
3.351681e+01	-1.713049e-04
3.371040e+01	-1.732895e-04
3.390511e+01	-1.752971e-04
3.410094e+01	-1.773279e-04
3.429791e+01	-1.793822e-04
3.449601e+01	-1.814604e-04
3.469526e+01	-1.835626e-04
3.489566e+01	-1.856892e-04
3.509721e+01	-1.878404e-04
3.529993e+01	-1.900165e-04
3.550382e+01	-1.922179e-04
3.570889e+01	-1.944447e-04
3.591515e+01	-1.966974e-04
3.612259e+01	-1.989761e-04
3.633123e+01	-2.012813e-04
3.654108e+01	-2.036131e-04
3.675214e+01	-2.059720e-04
3.696442e+01	-2.083581e-04
3.717792e+01	-2.107720e-04
3.739266e+01	-2.132138e-04
3.760864e+01	-2.156838e-04
3.782587e+01	-2.181825e-04
3.804435e+01	-2.207102e-04
3.826409e+01	-2.232671e-04
3.848510e+01	-2.258537e-04
3.870739e+01	-2.284702e-04
3.893096e+01	-2.311170e-04
3.915583e+01	-2.337945e-04
3.938199e+01	-2.365030e-04
3.960946e+01	-2.392428e-04
3.983824e+01	-2.420145e-04
4.006834e+01	-2.448182e-04
4.029978e+01	-2.476544e-04
4.053255e+01	-2.505235e-04
4.076666e+01	-2.534258e-04
4.100213e+01	-2.563617e-04
4.123896e+01	-2.593316e-04
4.147715e+01	-2.623359e-04
4.171672e+01	-2.653751e-04
4.195767e+01	-2.684494e-04
4.220002e+01	-2.715594e-04
4.244377e+01	-2.747054e-04
4.268892e+01	-2.778878e-04
4.293549e+01	-2.811071e-04
4.318348e+01	-2.843637e-04
4.343291e+01	-2.876581e-04
4.368377e+01	-2.909905e-04
4.393609e+01	-2.943616e-04
4.418986e+01	-2.977718e-04
4.444510e+01	-3.012214e-04
4.470182e+01	-3.047110e-04
4.496001e+01	-3.082411e-04
4.521970e+01	-3.118120e-04
4.548089e+01	-3.154243e-04
4.574358e+01	-3.190784e-04
4.600779e+01	-3.227749e-04
4.627353e+01	-3.265142e-04
4.654081e+01	-3.302968e-04
4.680963e+01	-3.341233e-04
4.708000e+01	-3.379940e-04
4.735193e+01	-3.419096e-04
4.762543e+01	-3.458706e-04
4.790051e+01	-3.498774e-04
4.817719e+01	-3.539307e-04
4.845545e+01	-3.580309e-04
4.873533e+01	-3.621786e-04
4.901682e+01	-3.663744e-04
4.929994e+01	-3.706188e-04
4.958470e+01	-3.749123e-04
4.987110e+01	-3.792556e-04
5.015915e+01	-3.836491e-04
5.044887e+01	-3.880936e-04
5.074026e+01	-3.925896e-04
5.103333e+01	-3.971377e-04
5.132810e+01	-4.017384e-04
5.162457e+01	-4.063924e-04
5.192275e+01	-4.111004e-04
5.222265e+01	-4.158628e-04
5.252429e+01	-4.206805e-04
5.282767e+01	-4.255540e-04
5.313280e+01	-4.304839e-04
5.343969e+01	-4.354709e-04
5.374836e+01	-4.405157e-04
5.405880e+01	-4.456189e-04
5.437105e+01	-4.507813e-04
5.468509e+01	-4.560034e-04
5.500095e+01	-4.612861e-04
5.531863e+01	-4.666299e-04
5.563815e+01	-4.720357e-04
5.595951e+01	-4.775040e-04
5.628273e+01	-4.830357e-04
5.660782e+01	-4.886315e-04
5.693479e+01	-4.942921e-04
5.726364e+01	-5.000183e-04
5.759439e+01	-5.058108e-04
5.792705e+01	-5.116704e-04
5.826164e+01	-5.175979e-04
5.859815e+01	-5.235941e-04
5.893662e+01	-5.296597e-04
5.927703e+01	-5.357956e-04
5.961941e+01	-5.420025e-04
5.996377e+01	-5.482814e-04
6.031012e+01	-5.546330e-04
6.065847e+01	-5.610581e-04
6.100883e+01	-5.675577e-04
6.136121e+01	-5.741326e-04
6.171563e+01	-5.807836e-04
6.207210e+01	-5.875117e-04
6.243063e+01	-5.943177e-04
6.279122e+01	-6.012026e-04
6.315390e+01	-6.081672e-04
6.351868e+01	-6.152125e-04
6.388556e+01	-6.223394e-04
6.425456e+01	-6.295488e-04
6.462569e+01	-6.368418e-04
6.499897e+01	-6.442192e-04
6.537440e+01	-6.516821e-04
6.575200e+01	-6.592315e-04
6.613178e+01	-6.668683e-04
6.651375e+01	-6.745935e-04
6.689793e+01	-6.824082e-04
6.728433e+01	-6.903135e-04
6.767297e+01	-6.983103e-04
6.806384e+01	-7.063998e-04
6.845698e+01	-7.145830e-04
6.885238e+01	-7.228609e-04
6.925007e+01	-7.312347e-04
6.965005e+01	-7.397056e-04
7.005235e+01	-7.482745e-04
7.045697e+01	-7.569427e-04
7.086393e+01	-7.657114e-04
7.127323e+01	-7.745815e-04
7.168490e+01	-7.835545e-04
7.209895e+01	-7.926313e-04
7.251539e+01	-8.018133e-04
7.293424e+01	-8.111017e-04
7.335551e+01	-8.204976e-04
7.377920e+01	-8.300024e-04
7.420535e+01	-8.396173e-04
7.463396e+01	-8.493435e-04
7.506504e+01	-8.591824e-04
7.549861e+01	-8.691353e-04
7.593469e+01	-8.792035e-04
7.637328e+01	-8.893882e-04
7.681441e+01	-8.996910e-04
7.725809e+01	-9.101130e-04
7.770433e+01	-9.206558e-04
7.815315e+01	-9.313207e-04
7.860456e+01	-9.421092e-04
7.905857e+01	-9.530226e-04
7.951521e+01	-9.640624e-04
7.997449e+01	-9.752300e-04
8.043642e+01	-9.865271e-04
8.090102e+01	-9.979549e-04
8.136830e+01	-1.009515e-03
8.183828e+01	-1.021209e-03
8.231097e+01	-1.033039e-03
8.278640e+01	-1.045005e-03
8.326457e+01	-1.057111e-03
8.374550e+01	-1.069356e-03
8.422921e+01	-1.081743e-03
8.471572e+01	-1.094274e-03
8.520503e+01	-1.106950e-03
8.569717e+01	-1.119773e-03
8.619215e+01	-1.132744e-03
8.669000e+01	-1.145865e-03
8.719071e+01	-1.159139e-03
8.769432e+01	-1.172566e-03
8.820084e+01	-1.186148e-03
8.871029e+01	-1.199888e-03
8.922267e+01	-1.213787e-03
8.973802e+01	-1.227847e-03
9.025634e+01	-1.242070e-03
9.077766e+01	-1.256458e-03
9.130199e+01	-1.271012e-03
9.182935e+01	-1.285735e-03
9.235975e+01	-1.300628e-03
9.289321e+01	-1.315694e-03
9.342976e+01	-1.330935e-03
9.396941e+01	-1.346351e-03
9.451217e+01	-1.361947e-03
9.505807e+01	-1.377723e-03
9.560712e+01	-1.393682e-03
9.615934e+01	-1.409825e-03
9.671476e+01	-1.426156e-03
9.727338e+01	-1.442675e-03
9.783522e+01	-1.459386e-03
9.840032e+01	-1.476291e-03
9.896867e+01	-1.493391e-03
9.954031e+01	-1.510689e-03
1.001153e+02	-1.528188e-03
1.006935e+02	-1.545889e-03
1.012751e+02	-1.563796e-03
1.018601e+02	-1.581909e-03
1.024484e+02	-1.600233e-03
1.030402e+02	-1.618768e-03
1.036353e+02	-1.637519e-03
1.042339e+02	-1.656486e-03
1.048360e+02	-1.675673e-03
1.054415e+02	-1.695083e-03
1.060505e+02	-1.714717e-03
1.066631e+02	-1.734578e-03
1.072791e+02	-1.754670e-03
1.078988e+02	-1.774994e-03
1.085220e+02	-1.795554e-03
1.091488e+02	-1.816351e-03
1.097793e+02	-1.837390e-03
1.104133e+02	-1.858672e-03
1.110511e+02	-1.880200e-03
1.116925e+02	-1.901978e-03
1.123376e+02	-1.924008e-03
1.129865e+02	-1.946293e-03
1.136391e+02	-1.968836e-03
1.142955e+02	-1.991641e-03
1.149556e+02	-2.014709e-03
1.156196e+02	-2.038045e-03
1.162874e+02	-2.061650e-03
1.169591e+02	-2.085529e-03
1.176347e+02	-2.109685e-03
1.183141e+02	-2.134120e-03
1.189975e+02	-2.158838e-03
1.196848e+02	-2.183843e-03
1.203761e+02	-2.209137e-03
1.210714e+02	-2.234723e-03
1.217707e+02	-2.260607e-03
1.224740e+02	-2.286789e-03
1.231814e+02	-2.313275e-03
1.238929e+02	-2.340068e-03
1.246085e+02	-2.367171e-03
1.253283e+02	-2.394588e-03
1.260522e+02	-2.422322e-03
1.267802e+02	-2.450377e-03
1.275125e+02	-2.478757e-03
1.282490e+02	-2.507466e-03
1.289898e+02	-2.536507e-03
1.297348e+02	-2.565885e-03
1.304842e+02	-2.595602e-03
1.312378e+02	-2.625664e-03
1.319959e+02	-2.656074e-03
1.327583e+02	-2.686835e-03
1.335251e+02	-2.717953e-03
1.342963e+02	-2.749431e-03
1.350720e+02	-2.781274e-03
1.358522e+02	-2.813486e-03
1.366368e+02	-2.846070e-03
1.374260e+02	-2.879031e-03
1.382198e+02	-2.912374e-03
1.390182e+02	-2.946104e-03
1.398211e+02	-2.980223e-03
1.406287e+02	-3.014738e-03
1.414410e+02	-3.049652e-03
1.422579e+02	-3.084971e-03
1.430796e+02	-3.120698e-03
1.439060e+02	-3.156839e-03
1.447372e+02	-3.193398e-03
1.455732e+02	-3.230381e-03
1.464141e+02	-3.267791e-03
1.472597e+02	-3.305635e-03
1.481103e+02	-3.343917e-03
1.489658e+02	-3.382642e-03
1.498262e+02	-3.421816e-03
1.506916e+02	-3.461442e-03
1.515620e+02	-3.501528e-03
1.524374e+02	-3.542077e-03
1.533179e+02	-3.583096e-03
1.542034e+02	-3.624590e-03
1.550941e+02	-3.666564e-03
1.559899e+02	-3.709024e-03
1.568909e+02	-3.751975e-03
1.577971e+02	-3.795424e-03
1.587085e+02	-3.839375e-03
1.596252e+02	-3.883836e-03
1.605472e+02	-3.928811e-03
1.614745e+02	-3.974306e-03
1.624072e+02	-4.020328e-03
1.633453e+02	-4.066883e-03
1.642887e+02	-4.113976e-03
1.652377e+02	-4.161615e-03
1.661921e+02	-4.209805e-03
1.671520e+02	-4.258552e-03
1.681175e+02	-4.307864e-03
1.690885e+02	-4.357747e-03
1.700651e+02	-4.408207e-03
1.710474e+02	-4.459251e-03
1.720354e+02	-4.510886e-03
1.730291e+02	-4.563118e-03
1.740285e+02	-4.615955e-03
1.750337e+02	-4.669403e-03
1.760446e+02	-4.723470e-03
1.770615e+02	-4.778162e-03
1.780842e+02	-4.833487e-03
1.791128e+02	-4.889453e-03
1.801473e+02	-4.946066e-03
1.811878e+02	-5.003335e-03
1.822344e+02	-5.061266e-03
1.832870e+02	-5.119867e-03
1.843456e+02	-5.179146e-03
1.854104e+02	-5.239112e-03
1.864813e+02	-5.299771e-03
1.875584e+02	-5.361132e-03
1.886418e+02	-5.423204e-03
1.897313e+02	-5.485993e-03
1.908272e+02	-5.549509e-03
1.919294e+02	-5.613760e-03
1.930380e+02	-5.678754e-03
1.941530e+02	-5.744500e-03
1.952744e+02	-5.811007e-03
1.964023e+02	-5.878283e-03
1.975367e+02	-5.946338e-03
1.986777e+02	-6.015180e-03
1.998252e+02	-6.084819e-03
2.009794e+02	-6.155263e-03
2.021403e+02	-6.226522e-03
2.033078e+02	-6.298605e-03
2.044821e+02	-6.371522e-03
2.056632e+02	-6.445283e-03
2.068511e+02	-6.519897e-03
2.080459e+02	-6.595374e-03
2.092475e+02	-6.671724e-03
2.104561e+02	-6.748958e-03
2.116717e+02	-6.827085e-03
2.128943e+02	-6.906115e-03
2.141240e+02	-6.986060e-03
2.153608e+02	-7.066929e-03
2.166047e+02	-7.148733e-03
2.178558e+02	-7.231484e-03
2.191141e+02	-7.315192e-03
2.203797e+02	-7.399868e-03
2.216526e+02	-7.485523e-03
2.229329e+02	-7.572169e-03
2.242205e+02	-7.659817e-03
2.255156e+02	-7.748478e-03
2.268182e+02	-7.838165e-03
2.281283e+02	-7.928889e-03
2.294459e+02	-8.020662e-03
2.307712e+02	-8.113497e-03
2.321041e+02	-8.207404e-03
2.334447e+02	-8.302398e-03
2.347931e+02	-8.398490e-03
2.361493e+02	-8.495693e-03
2.375133e+02	-8.594020e-03
2.388851e+02	-8.693484e-03
2.402649e+02	-8.794098e-03
2.416527e+02	-8.895875e-03
2.430484e+02	-8.998829e-03
2.444523e+02	-9.102973e-03
2.458642e+02	-9.208321e-03
2.472843e+02	-9.314887e-03
2.487126e+02	-9.422685e-03
2.501492e+02	-9.531729e-03
2.515940e+02	-9.642033e-03
2.530472e+02	-9.753613e-03
2.545088e+02	-9.866482e-03
2.559789e+02	-9.980656e-03
2.574574e+02	-1.009615e-02
2.589444e+02	-1.021298e-02
2.604401e+02	-1.033116e-02
2.619444e+02	-1.045070e-02
2.634574e+02	-1.057163e-02
2.649791e+02	-1.069395e-02
2.665096e+02	-1.081769e-02
2.680489e+02	-1.094286e-02
2.695972e+02	-1.106947e-02
2.711544e+02	-1.119755e-02
2.727205e+02	-1.132710e-02
2.742958e+02	-1.145816e-02
2.758801e+02	-1.159072e-02
2.774736e+02	-1.172482e-02
2.790762e+02	-1.186047e-02
2.806882e+02	-1.199769e-02
2.823094e+02	-1.213649e-02
2.839400e+02	-1.227689e-02
2.855800e+02	-1.241892e-02
2.872295e+02	-1.256259e-02
2.888886e+02	-1.270792e-02
2.905572e+02	-1.285492e-02
2.922354e+02	-1.300363e-02
2.939234e+02	-1.315405e-02
2.956211e+02	-1.330621e-02
2.973286e+02	-1.346012e-02
2.990459e+02	-1.361581e-02
3.007732e+02	-1.377331e-02
3.025104e+02	-1.393262e-02
3.042577e+02	-1.409377e-02
3.060151e+02	-1.425678e-02
3.077826e+02	-1.442167e-02
3.095604e+02	-1.458847e-02
3.113484e+02	-1.475719e-02
3.131467e+02	-1.492786e-02
3.149554e+02	-1.510050e-02
3.167746e+02	-1.527514e-02
3.186043e+02	-1.545179e-02
3.204445e+02	-1.563048e-02
3.222954e+02	-1.581123e-02
3.241570e+02	-1.599407e-02
3.260293e+02	-1.617902e-02
3.279124e+02	-1.636610e-02
3.298064e+02	-1.655534e-02
3.317114e+02	-1.674677e-02
3.336273e+02	-1.694040e-02
3.355544e+02	-1.713627e-02
3.374925e+02	-1.733440e-02
3.394418e+02	-1.753482e-02
3.414024e+02	-1.773755e-02
3.433744e+02	-1.794262e-02
3.453577e+02	-1.815005e-02
3.473525e+02	-1.835988e-02
3.493588e+02	-1.857213e-02
3.513766e+02	-1.878682e-02
3.534062e+02	-1.900399e-02
3.554474e+02	-1.922367e-02
3.575005e+02	-1.944588e-02
3.595654e+02	-1.967065e-02
3.616422e+02	-1.989802e-02
3.637311e+02	-2.012801e-02
3.658320e+02	-2.036065e-02
3.679450e+02	-2.059597e-02
3.700702e+02	-2.083400e-02
3.722077e+02	-2.107478e-02
3.743576e+02	-2.131834e-02
3.765199e+02	-2.156470e-02
3.786946e+02	-2.181390e-02
3.808820e+02	-2.206598e-02
3.830819e+02	-2.232096e-02
3.852946e+02	-2.257888e-02
3.875200e+02	-2.283977e-02
3.897583e+02	-2.310367e-02
3.920096e+02	-2.337061e-02
3.942738e+02	-2.364062e-02
3.965511e+02	-2.391375e-02
3.988416e+02	-2.419002e-02
4.011452e+02	-2.446947e-02
4.034622e+02	-2.475215e-02
4.057926e+02	-2.503808e-02
4.081365e+02	-2.532730e-02
4.104938e+02	-2.561986e-02
4.128648e+02	-2.591578e-02
4.152495e+02	-2.621511e-02
4.176480e+02	-2.651789e-02
4.200603e+02	-2.682416e-02
4.224866e+02	-2.713395e-02
4.249268e+02	-2.744730e-02
4.273812e+02	-2.776427e-02
4.298497e+02	-2.808488e-02
4.323325e+02	-2.840918e-02
4.348297e+02	-2.873722e-02
4.373412e+02	-2.906903e-02
4.398673e+02	-2.940465e-02
4.424079e+02	-2.974414e-02
4.449633e+02	-3.008754e-02
4.475334e+02	-3.043489e-02
4.501183e+02	-3.078623e-02
4.527182e+02	-3.114161e-02
4.553330e+02	-3.150108e-02
4.579630e+02	-3.186469e-02
4.606082e+02	-3.223247e-02
4.632687e+02	-3.260449e-02
4.659445e+02	-3.298078e-02
4.686358e+02	-3.336140e-02
4.713426e+02	-3.374639e-02
4.740650e+02	-3.413581e-02
4.768032e+02	-3.452971e-02
4.795572e+02	-3.492813e-02
4.823271e+02	-3.533113e-02
4.851130e+02	-3.573876e-02
4.879150e+02	-3.615107e-02
4.907332e+02	-3.656812e-02
4.935676e+02	-3.698997e-02
4.964185e+02	-3.741665e-02
4.992858e+02	-3.784824e-02
5.021696e+02	-3.828478e-02
5.050701e+02	-3.872634e-02
5.079874e+02	-3.917296e-02
5.109215e+02	-3.962472e-02
5.138726e+02	-4.008165e-02
5.168407e+02	-4.054384e-02
5.198259e+02	-4.101132e-02
5.228284e+02	-4.148417e-02
5.258482e+02	-4.196245e-02
5.288855e+02	-4.244621e-02
5.319403e+02	-4.293553e-02
5.350128e+02	-4.343045e-02
5.381030e+02	-4.393105e-02
5.412111e+02	-4.443740e-02
5.443371e+02	-4.494954e-02
5.474812e+02	-4.546756e-02
5.506434e+02	-4.599152e-02
5.538239e+02	-4.652148e-02
5.570228e+02	-4.705752e-02
5.602401e+02	-4.759970e-02
5.634760e+02	-4.814809e-02
5.667306e+02	-4.870276e-02
5.700040e+02	-4.926379e-02
5.732964e+02	-4.983124e-02
5.766077e+02	-5.040519e-02
5.799382e+02	-5.098571e-02
5.832879e+02	-5.157288e-02
5.866569e+02	-5.216677e-02
5.900454e+02	-5.276746e-02
5.934535e+02	-5.337502e-02
5.968813e+02	-5.398953e-02
6.003288e+02	-5.461107e-02
6.037963e+02	-5.523973e-02
6.072838e+02	-5.587557e-02
6.107914e+02	-5.651868e-02
6.143194e+02	-5.716915e-02
6.178676e+02	-5.782705e-02
6.214364e+02	-5.849247e-02
6.250258e+02	-5.916550e-02
6.286359e+02	-5.984622e-02
6.322669e+02	-6.053471e-02
6.359189e+02	-6.123107e-02
6.395919e+02	-6.193538e-02
6.432862e+02	-6.264774e-02
6.470017e+02	-6.336823e-02
6.507388e+02	-6.409694e-02
6.544974e+02	-6.483397e-02
6.582778e+02	-6.557941e-02
6.620800e+02	-6.633336e-02
6.659041e+02	-6.709590e-02
6.697504e+02	-6.786715e-02
6.736188e+02	-6.864719e-02
6.775096e+02	-6.943612e-02
6.814229e+02	-7.023405e-02
6.853587e+02	-7.104106e-02
6.893173e+02	-7.185728e-02
6.932988e+02	-7.268280e-02
6.973033e+02	-7.351771e-02
7.013309e+02	-7.436214e-02
