Frequency(Hz)	Magnitude(dB)
1.000000e+01	-1.968459e+00
1.005776e+01	-1.986672e+00
1.011585e+01	-2.005148e+00
1.017428e+01	-2.023786e+00
1.023305e+01	-2.042478e+00
1.029215e+01	-2.061260e+00
1.035160e+01	-2.080201e+00
1.041139e+01	-2.099448e+00
1.047153e+01	-2.118548e+00
1.053201e+01	-2.138127e+00
1.059284e+01	-2.157689e+00
1.065403e+01	-2.177177e+00
1.071556e+01	-2.196993e+00
1.077746e+01	-2.216873e+00
1.083971e+01	-2.236798e+00
1.090232e+01	-2.257046e+00
1.096529e+01	-2.277618e+00
1.102862e+01	-2.297745e+00
1.109232e+01	-2.318720e+00
1.115639e+01	-2.339331e+00
1.122083e+01	-2.360441e+00
1.128564e+01	-2.381208e+00
1.135083e+01	-2.402514e+00
1.141639e+01	-2.423900e+00
1.148233e+01	-2.445171e+00
1.154865e+01	-2.467187e+00
1.161536e+01	-2.488731e+00
1.168245e+01	-2.510554e+00
1.174992e+01	-2.532503e+00
1.181779e+01	-2.554837e+00
1.188605e+01	-2.577072e+00
1.195470e+01	-2.599576e+00
1.202375e+01	-2.622258e+00
1.209320e+01	-2.644922e+00
1.216305e+01	-2.667863e+00
1.223330e+01	-2.690813e+00
1.230396e+01	-2.714061e+00
1.237503e+01	-2.737318e+00
1.244651e+01	-2.760674e+00
1.251840e+01	-2.784377e+00
1.259070e+01	-2.808166e+00
1.266343e+01	-2.831768e+00
1.273657e+01	-2.855999e+00
1.281014e+01	-2.880290e+00
1.288413e+01	-2.904431e+00
1.295855e+01	-2.928881e+00
1.303339e+01	-2.953495e+00
1.310867e+01	-2.978422e+00
1.318439e+01	-3.003249e+00
1.326054e+01	-3.028428e+00
1.333713e+01	-3.053565e+00
1.341417e+01	-3.078978e+00
1.349165e+01	-3.104442e+00
1.356958e+01	-3.129912e+00
1.364795e+01	-3.155693e+00
1.372678e+01	-3.181357e+00
1.380607e+01	-3.207583e+00
1.388581e+01	-3.234019e+00
1.396602e+01	-3.260163e+00
1.404668e+01	-3.286717e+00
1.412782e+01	-3.313238e+00
1.420942e+01	-3.340042e+00
1.429149e+01	-3.367077e+00
1.437404e+01	-3.393951e+00
1.445706e+01	-3.421192e+00
1.454057e+01	-3.448612e+00
1.462455e+01	-3.475818e+00
1.470902e+01	-3.503743e+00
1.479398e+01	-3.531382e+00
1.487943e+01	-3.559210e+00
1.496537e+01	-3.587440e+00
1.505181e+01	-3.615369e+00
1.513875e+01	-3.643935e+00
1.522619e+01	-3.672478e+00
1.531414e+01	-3.700795e+00
1.540259e+01	-3.729785e+00
1.549156e+01	-3.758636e+00
1.558103e+01	-3.787782e+00
1.567103e+01	-3.816978e+00
1.576155e+01	-3.846376e+00
1.585258e+01	-3.875706e+00
1.594415e+01	-3.905338e+00
1.603624e+01	-3.934938e+00
1.612886e+01	-3.965133e+00
1.622202e+01	-3.995222e+00
1.631572e+01	-4.024983e+00
1.640996e+01	-4.055259e+00
1.650474e+01	-4.086129e+00
1.660008e+01	-4.116503e+00
1.669596e+01	-4.147178e+00
1.679239e+01	-4.177793e+00
1.688938e+01	-4.208923e+00
1.698694e+01	-4.240033e+00
1.708505e+01	-4.271312e+00
1.718373e+01	-4.303081e+00
1.728299e+01	-4.334279e+00
1.738281e+01	-4.365837e+00
1.748322e+01	-4.397774e+00
1.758420e+01	-4.429579e+00
1.768576e+01	-4.461534e+00
1.778792e+01	-4.493767e+00
1.789066e+01	-4.525896e+00
1.799399e+01	-4.558629e+00
1.809793e+01	-4.591066e+00
1.820246e+01	-4.623750e+00
1.830760e+01	-4.656880e+00
1.841334e+01	-4.689614e+00
1.851969e+01	-4.722627e+00
1.862666e+01	-4.756283e+00
1.873425e+01	-4.789464e+00
1.884246e+01	-4.822656e+00
1.895129e+01	-4.856528e+00
1.906075e+01	-4.889965e+00
1.917085e+01	-4.924124e+00
1.928158e+01	-4.957885e+00
1.939295e+01	-4.992358e+00
1.950496e+01	-5.026232e+00
1.961762e+01	-5.060714e+00
1.973093e+01	-5.095247e+00
1.984490e+01	-5.129814e+00
1.995952e+01	-5.164616e+00
2.007480e+01	-5.199497e+00
2.019076e+01	-5.234425e+00
2.030738e+01	-5.269546e+00
2.042467e+01	-5.304682e+00
2.054264e+01	-5.340306e+00
2.066130e+01	-5.375882e+00
2.078064e+01	-5.411338e+00
2.090066e+01	-5.446792e+00
2.102139e+01	-5.482801e+00
2.114280e+01	-5.518420e+00
2.126492e+01	-5.554493e+00
2.138775e+01	-5.590875e+00
2.151128e+01	-5.627076e+00
2.163553e+01	-5.663307e+00
2.176050e+01	-5.700212e+00
2.188619e+01	-5.736273e+00
2.201260e+01	-5.773321e+00
2.213974e+01	-5.809886e+00
2.226762e+01	-5.847224e+00
2.239624e+01	-5.884338e+00
2.252560e+01	-5.921224e+00
2.265571e+01	-5.958557e+00
2.278656e+01	-5.996050e+00
2.291818e+01	-6.033594e+00
2.305055e+01	-6.070911e+00
2.318369e+01	-6.108837e+00
2.331760e+01	-6.146788e+00
2.345228e+01	-6.184691e+00
2.358774e+01	-6.222744e+00
2.372398e+01	-6.261251e+00
2.386101e+01	-6.299189e+00
2.399883e+01	-6.337298e+00
2.413745e+01	-6.375756e+00
2.427686e+01	-6.414901e+00
2.441709e+01	-6.453200e+00
2.455812e+01	-6.492080e+00
2.469997e+01	-6.530249e+00
2.484263e+01	-6.569389e+00
2.498612e+01	-6.608891e+00
2.513044e+01	-6.647729e+00
2.527559e+01	-6.686862e+00
2.542158e+01	-6.726388e+00
2.556842e+01	-6.765927e+00
2.571610e+01	-6.805474e+00
2.586463e+01	-6.845065e+00
2.601403e+01	-6.884779e+00
2.616428e+01	-6.924137e+00
2.631541e+01	-6.964202e+00
2.646740e+01	-7.004266e+00
2.662028e+01	-7.044455e+00
2.677404e+01	-7.084742e+00
2.692868e+01	-7.125133e+00
2.708422e+01	-7.165579e+00
2.724066e+01	-7.205685e+00
2.739800e+01	-7.246789e+00
2.755625e+01	-7.287070e+00
2.771541e+01	-7.327550e+00
2.787550e+01	-7.368200e+00
2.803650e+01	-7.409881e+00
2.819844e+01	-7.450433e+00
2.836131e+01	-7.491439e+00
2.852513e+01	-7.532706e+00
2.868989e+01	-7.574528e+00
2.885560e+01	-7.615312e+00
2.902227e+01	-7.656721e+00
2.918990e+01	-7.698249e+00
2.935850e+01	-7.739655e+00
2.952807e+01	-7.781404e+00
2.969863e+01	-7.822992e+00
2.987016e+01	-7.865064e+00
3.004269e+01	-7.906839e+00
3.021622e+01	-7.948949e+00
3.039075e+01	-7.990579e+00
3.056628e+01	-8.032886e+00
3.074283e+01	-8.075199e+00
3.092040e+01	-8.117757e+00
3.109900e+01	-8.159882e+00
3.127862e+01	-8.202448e+00
3.145929e+01	-8.244864e+00
3.164099e+01	-8.287581e+00
3.182375e+01	-8.330096e+00
3.200756e+01	-8.372384e+00
3.219244e+01	-8.415084e+00
3.237838e+01	-8.458336e+00
3.256540e+01	-8.500705e+00
3.275349e+01	-8.544233e+00
3.294268e+01	-8.587110e+00
3.313295e+01	-8.630421e+00
3.332433e+01	-8.673073e+00
3.351681e+01	-8.716613e+00
3.371040e+01	-8.759746e+00
3.390511e+01	-8.803340e+00
3.410094e+01	-8.846542e+00
3.429791e+01	-8.890803e+00
3.449601e+01	-8.933655e+00
3.469526e+01	-8.977501e+00
3.489566e+01	-9.021729e+00
3.509721e+01	-9.065271e+00
3.529993e+01	-9.109547e+00
3.550382e+01	-9.153012e+00
3.570889e+01	-9.197442e+00
3.591515e+01	-9.241027e+00
3.612259e+01	-9.285150e+00
3.633123e+01	-9.329593e+00
3.654108e+01	-9.373407e+00
3.675214e+01	-9.418177e+00
3.696442e+01	-9.462521e+00
3.717792e+01	-9.506559e+00
3.739266e+01	-9.550941e+00
3.760864e+01	-9.595568e+00
3.782587e+01	-9.639934e+00
3.804435e+01	-9.684827e+00
3.826409e+01	-9.729456e+00
3.848510e+01	-9.774504e+00
3.870739e+01	-9.818922e+00
3.893096e+01	-9.864383e+00
3.915583e+01	-9.908683e+00
3.938199e+01	-9.953524e+00
3.960946e+01	-9.998679e+00
3.983824e+01	-1.004432e+01
4.006834e+01	-1.008850e+01
4.029978e+01	-1.013398e+01
4.053255e+01	-1.017938e+01
4.076666e+01	-1.022425e+01
4.100213e+01	-1.026962e+01
4.123896e+01	-1.031477e+01
4.147715e+01	-1.036062e+01
4.171672e+01	-1.040589e+01
4.195767e+01	-1.045157e+01
4.220002e+01	-1.049711e+01
4.244377e+01	-1.054255e+01
4.268892e+01	-1.058797e+01
4.293549e+01	-1.063371e+01
4.318348e+01	-1.067948e+01
4.343291e+01	-1.072477e+01
4.368377e+01	-1.077129e+01
4.393609e+01	-1.081688e+01
4.418986e+01	-1.086251e+01
4.444510e+01	-1.090834e+01
4.470182e+01	-1.095478e+01
4.496001e+01	-1.100107e+01
4.521970e+01	-1.104683e+01
4.548089e+01	-1.109242e+01
4.574358e+01	-1.113878e+01
4.600779e+01	-1.118603e+01
4.627353e+01	-1.123172e+01
4.654081e+01	-1.127739e+01
4.680963e+01	-1.132407e+01
4.708000e+01	-1.136960e+01
4.735193e+01	-1.141694e+01
4.762543e+01	-1.146352e+01
4.790051e+01	-1.150999e+01
4.817719e+01	-1.155655e+01
4.845545e+01	-1.160283e+01
4.873533e+01	-1.164903e+01
4.901682e+01	-1.169596e+01
4.929994e+01	-1.174297e+01
4.958470e+01	-1.178959e+01
4.987110e+01	-1.183635e+01
5.015915e+01	-1.188242e+01
5.044887e+01	-1.193048e+01
5.074026e+01	-1.197642e+01
5.103333e+01	-1.202326e+01
5.132810e+01	-1.207013e+01
5.162457e+01	-1.211810e+01
5.192275e+01	-1.216426e+01
5.222265e+01	-1.221125e+01
5.252429e+01	-1.225874e+01
5.282767e+01	-1.230525e+01
5.313280e+01	-1.235235e+01
5.343969e+01	-1.239990e+01
5.374836e+01	-1.244597e+01
5.405880e+01	-1.249393e+01
5.437105e+01	-1.254091e+01
5.468509e+01	-1.258911e+01
5.500095e+01	-1.263574e+01
5.531863e+01	-1.268271e+01
5.563815e+01	-1.273024e+01
5.595951e+01	-1.277824e+01
5.628273e+01	-1.282603e+01
5.660782e+01	-1.287188e+01
5.693479e+01	-1.292039e+01
5.726364e+01	-1.296788e+01
5.759439e+01	-1.301538e+01
5.792705e+01	-1.306182e+01
5.826164e+01	-1.311073e+01
5.859815e+01	-1.315710e+01
5.893662e+01	-1.320526e+01
5.927703e+01	-1.325292e+01
5.961941e+01	-1.330020e+01
5.996377e+01	-1.334826e+01
6.031012e+01	-1.339639e+01
6.065847e+01	-1.344374e+01
6.100883e+01	-1.349156e+01
6.136121e+01	-1.353908e+01
6.171563e+01	-1.358706e+01
6.207210e+01	-1.363581e+01
6.243063e+01	-1.368383e+01
6.279122e+01	-1.373045e+01
6.315390e+01	-1.377967e+01
6.351868e+01	-1.382749e+01
6.388556e+01	-1.387491e+01
6.425456e+01	-1.392319e+01
6.462569e+01	-1.397063e+01
6.499897e+01	-1.401897e+01
6.537440e+01	-1.406675e+01
6.575200e+01	-1.411469e+01
6.613178e+01	-1.416262e+01
6.651375e+01	-1.421149e+01
6.689793e+01	-1.425861e+01
6.728433e+01	-1.430750e+01
6.767297e+01	-1.435541e+01
6.806384e+01	-1.440327e+01
6.845698e+01	-1.445314e+01
6.885238e+01	-1.450090e+01
6.925007e+01	-1.454875e+01
6.965005e+01	-1.459648e+01
7.005235e+01	-1.464460e+01
7.045697e+01	-1.469267e+01
7.086393e+01	-1.474110e+01
7.127323e+01	-1.478991e+01
7.168490e+01	-1.483854e+01
7.209895e+01	-1.488677e+01
7.251539e+01	-1.493538e+01
7.293424e+01	-1.498504e+01
7.335551e+01	-1.503310e+01
7.377920e+01	-1.508062e+01
7.420535e+01	-1.512849e+01
7.463396e+01	-1.517794e+01
7.506504e+01	-1.522595e+01
7.549861e+01	-1.527548e+01
7.593469e+01	-1.532377e+01
7.637328e+01	-1.537250e+01
7.681441e+01	-1.542124e+01
7.725809e+01	-1.546942e+01
7.770433e+01	-1.551777e+01
7.815315e+01	-1.556617e+01
7.860456e+01	-1.561390e+01
7.905857e+01	-1.566303e+01
7.951521e+01	-1.571257e+01
7.997449e+01	-1.576141e+01
8.043642e+01	-1.580988e+01
8.090102e+01	-1.585894e+01
8.136830e+01	-1.590743e+01
8.183828e+01	-1.595542e+01
8.231097e+01	-1.600485e+01
8.278640e+01	-1.605381e+01
8.326457e+01	-1.610236e+01
8.374550e+01	-1.615139e+01
8.422921e+01	-1.620029e+01
8.471572e+01	-1.624938e+01
8.520503e+01	-1.629708e+01
8.569717e+01	-1.634688e+01
8.619215e+01	-1.639548e+01
8.669000e+01	-1.644476e+01
8.719071e+01	-1.649341e+01
8.769432e+01	-1.654259e+01
8.820084e+01	-1.659112e+01
8.871029e+01	-1.663982e+01
8.922267e+01	-1.668871e+01
8.973802e+01	-1.673792e+01
9.025634e+01	-1.678674e+01
9.077766e+01	-1.683624e+01
9.130199e+01	-1.688472e+01
9.182935e+01	-1.693259e+01
9.235975e+01	-1.698236e+01
9.289321e+01	-1.703288e+01
9.342976e+01	-1.708065e+01
9.396941e+01	-1.713031e+01
9.451217e+01	-1.717924e+01
9.505807e+01	-1.722752e+01
9.560712e+01	-1.727627e+01
9.615934e+01	-1.732630e+01
9.671476e+01	-1.737642e+01
9.727338e+01	-1.742403e+01
9.783522e+01	-1.747445e+01
9.840032e+01	-1.752421e+01
9.896867e+01	-1.757177e+01
9.954031e+01	-1.762147e+01
1.001153e+02	-1.767013e+01
1.006935e+02	-1.771890e+01
1.012751e+02	-1.776833e+01
1.018601e+02	-1.781839e+01
1.024484e+02	-1.786787e+01
1.030402e+02	-1.791538e+01
1.036353e+02	-1.796631e+01
1.042339e+02	-1.801334e+01
1.048360e+02	-1.806476e+01
1.054415e+02	-1.811380e+01
1.060505e+02	-1.816278e+01
1.066631e+02	-1.821112e+01
1.072791e+02	-1.826199e+01
1.078988e+02	-1.831132e+01
1.085220e+02	-1.836049e+01
1.091488e+02	-1.840860e+01
1.097793e+02	-1.845689e+01
1.104133e+02	-1.850909e+01
1.110511e+02	-1.855788e+01
1.116925e+02	-1.860534e+01
1.123376e+02	-1.865699e+01
1.129865e+02	-1.870501e+01
1.136391e+02	-1.875427e+01
1.142955e+02	-1.880293e+01
1.149556e+02	-1.885307e+01
1.156196e+02	-1.890197e+01
1.162874e+02	-1.895246e+01
1.169591e+02	-1.900078e+01
1.176347e+02	-1.904962e+01
1.183141e+02	-1.910082e+01
1.189975e+02	-1.914923e+01
1.196848e+02	-1.919956e+01
1.203761e+02	-1.924927e+01
1.210714e+02	-1.929815e+01
1.217707e+02	-1.934730e+01
1.224740e+02	-1.939564e+01
1.231814e+02	-1.944629e+01
1.238929e+02	-1.949752e+01
1.246085e+02	-1.954411e+01
1.253283e+02	-1.959439e+01
1.260522e+02	-1.964517e+01
1.267802e+02	-1.969334e+01
1.275125e+02	-1.974365e+01
1.282490e+02	-1.979214e+01
1.289898e+02	-1.984236e+01
1.297348e+02	-1.989111e+01
1.304842e+02	-1.994095e+01
1.312378e+02	-1.999150e+01
1.319959e+02	-2.004090e+01
1.327583e+02	-2.009013e+01
1.335251e+02	-2.013944e+01
1.342963e+02	-2.018966e+01
1.350720e+02	-2.023791e+01
1.358522e+02	-2.028845e+01
1.366368e+02	-2.033684e+01
1.374260e+02	-2.038578e+01
1.382198e+02	-2.043740e+01
1.390182e+02	-2.048665e+01
1.398211e+02	-2.053487e+01
1.406287e+02	-2.058448e+01
1.414410e+02	-2.063620e+01
1.422579e+02	-2.068352e+01
1.430796e+02	-2.073630e+01
1.439060e+02	-2.078385e+01
1.447372e+02	-2.083254e+01
1.455732e+02	-2.088373e+01
1.464141e+02	-2.093360e+01
1.472597e+02	-2.098258e+01
1.481103e+02	-2.103183e+01
1.489658e+02	-2.108119e+01
1.498262e+02	-2.113161e+01
1.506916e+02	-2.118000e+01
1.515620e+02	-2.123108e+01
1.524374e+02	-2.128033e+01
1.533179e+02	-2.133132e+01
1.542034e+02	-2.137840e+01
1.550941e+02	-2.142834e+01
1.559899e+02	-2.147963e+01
1.568909e+02	-2.152996e+01
1.577971e+02	-2.157796e+01
1.587085e+02	-2.162831e+01
1.596252e+02	-2.167803e+01
1.605472e+02	-2.172885e+01
1.614745e+02	-2.177880e+01
1.624072e+02	-2.182816e+01
1.633453e+02	-2.187594e+01
1.642887e+02	-2.192657e+01
1.652377e+02	-2.197510e+01
1.661921e+02	-2.202687e+01
1.671520e+02	-2.207592e+01
1.681175e+02	-2.212696e+01
1.690885e+02	-2.217467e+01
1.700651e+02	-2.222465e+01
1.710474e+02	-2.227320e+01
1.720354e+02	-2.232434e+01
1.730291e+02	-2.237763e+01
1.740285e+02	-2.242293e+01
1.750337e+02	-2.247337e+01
1.760446e+02	-2.252299e+01
1.770615e+02	-2.257462e+01
1.780842e+02	-2.262451e+01
1.791128e+02	-2.267053e+01
1.801473e+02	-2.272412e+01
1.811878e+02	-2.277639e+01
1.822344e+02	-2.282118e+01
1.832870e+02	-2.287088e+01
1.843456e+02	-2.292309e+01
1.854104e+02	-2.297166e+01
1.864813e+02	-2.302306e+01
1.875584e+02	-2.307081e+01
1.886418e+02	-2.312122e+01
1.897313e+02	-2.316998e+01
1.908272e+02	-2.322053e+01
1.919294e+02	-2.327080e+01
1.930380e+02	-2.332037e+01
1.941530e+02	-2.336954e+01
1.952744e+02	-2.341890e+01
1.964023e+02	-2.346840e+01
1.975367e+02	-2.351815e+01
1.986777e+02	-2.356797e+01
1.998252e+02	-2.361750e+01
2.009794e+02	-2.366691e+01
2.021403e+02	-2.371974e+01
2.033078e+02	-2.377041e+01
2.044821e+02	-2.381943e+01
2.056632e+02	-2.386681e+01
2.068511e+02	-2.391752e+01
2.080459e+02	-2.396918e+01
2.092475e+02	-2.401961e+01
2.104561e+02	-2.406827e+01
2.116717e+02	-2.411580e+01
2.128943e+02	-2.416407e+01
2.141240e+02	-2.421789e+01
2.153608e+02	-2.426920e+01
2.166047e+02	-2.431625e+01
2.178558e+02	-2.436694e+01
2.191141e+02	-2.441582e+01
2.203797e+02	-2.446695e+01
2.216526e+02	-2.451678e+01
2.229329e+02	-2.456876e+01
2.242205e+02	-2.461671e+01
2.255156e+02	-2.467023e+01
2.268182e+02	-2.471684e+01
2.281283e+02	-2.476508e+01
2.294459e+02	-2.481665e+01
2.307712e+02	-2.486558e+01
2.321041e+02	-2.491521e+01
2.334447e+02	-2.496533e+01
2.347931e+02	-2.501457e+01
2.361493e+02	-2.506496e+01
2.375133e+02	-2.511501e+01
2.388851e+02	-2.516681e+01
2.402649e+02	-2.521515e+01
2.416527e+02	-2.526765e+01
2.430484e+02	-2.531448e+01
2.444523e+02	-2.536427e+01
2.458642e+02	-2.541603e+01
2.472843e+02	-2.546476e+01
2.487126e+02	-2.551253e+01
2.501492e+02	-2.556705e+01
2.515940e+02	-2.561514e+01
2.530472e+02	-2.566196e+01
2.545088e+02	-2.571329e+01
2.559789e+02	-2.576491e+01
2.574574e+02	-2.581360e+01
2.589444e+02	-2.586500e+01
2.604401e+02	-2.591693e+01
2.619444e+02	-2.596646e+01
2.634574e+02	-2.601576e+01
2.649791e+02	-2.606212e+01
2.665096e+02	-2.611355e+01
2.680489e+02	-2.615951e+01
2.695972e+02	-2.621313e+01
2.711544e+02	-2.626203e+01
2.727205e+02	-2.631197e+01
2.742958e+02	-2.636222e+01
2.758801e+02	-2.641372e+01
2.774736e+02	-2.646350e+01
2.790762e+02	-2.651368e+01
2.806882e+02	-2.656325e+01
2.823094e+02	-2.661423e+01
2.839400e+02	-2.666271e+01
2.855800e+02	-2.670838e+01
2.872295e+02	-2.676243e+01
2.888886e+02	-2.681322e+01
2.905572e+02	-2.686065e+01
2.922354e+02	-2.691290e+01
2.939234e+02	-2.696318e+01
2.956211e+02	-2.701646e+01
2.973286e+02	-2.706361e+01
2.990459e+02	-2.711170e+01
3.007732e+02	-2.716482e+01
3.025104e+02	-2.721014e+01
3.042577e+02	-2.726490e+01
3.060151e+02	-2.731686e+01
3.077826e+02	-2.736232e+01
3.095604e+02	-2.741251e+01
3.113484e+02	-2.746261e+01
3.131467e+02	-2.751184e+01
3.149554e+02	-2.756263e+01
3.167746e+02	-2.760868e+01
3.186043e+02	-2.766794e+01
3.204445e+02	-2.771397e+01
3.222954e+02	-2.776908e+01
3.241570e+02	-2.781384e+01
3.260293e+02	-2.786442e+01
3.279124e+02	-2.791434e+01
3.298064e+02	-2.796016e+01
3.317114e+02	-2.801495e+01
3.336273e+02	-2.806396e+01
3.355544e+02	-2.811516e+01
3.374925e+02	-2.816549e+01
3.394418e+02	-2.821602e+01
3.414024e+02	-2.826445e+01
3.433744e+02	-2.831332e+01
3.453577e+02	-2.836476e+01
3.473525e+02	-2.841842e+01
3.493588e+02	-2.846623e+01
3.513766e+02	-2.851380e+01
3.534062e+02	-2.856589e+01
3.554474e+02	-2.861569e+01
3.575005e+02	-2.866225e+01
3.595654e+02	-2.871595e+01
3.616422e+02	-2.876089e+01
3.637311e+02	-2.881476e+01
3.658320e+02	-2.886088e+01
3.679450e+02	-2.891550e+01
3.700702e+02	-2.896548e+01
3.722077e+02	-2.901869e+01
3.743576e+02	-2.906521e+01
3.765199e+02	-2.911196e+01
3.786946e+02	-2.916937e+01
3.808820e+02	-2.921836e+01
3.830819e+02	-2.926321e+01
3.852946e+02	-2.931604e+01
3.875200e+02	-2.936183e+01
3.897583e+02	-2.941329e+01
3.920096e+02	-2.946476e+01
3.942738e+02	-2.951584e+01
3.965511e+02	-2.956488e+01
3.988416e+02	-2.961546e+01
4.011452e+02	-2.966706e+01
4.034622e+02	-2.971344e+01
4.057926e+02	-2.976715e+01
4.081365e+02	-2.981701e+01
4.104938e+02	-2.986317e+01
4.128648e+02	-2.991970e+01
4.152495e+02	-2.996806e+01
4.176480e+02	-3.002087e+01
4.200603e+02	-3.006416e+01
4.224866e+02	-3.011964e+01
4.249268e+02	-3.016370e+01
4.273812e+02	-3.021481e+01
4.298497e+02	-3.027193e+01
4.323325e+02	-3.031518e+01
4.348297e+02	-3.036749e+01
4.373412e+02	-3.041599e+01
4.398673e+02	-3.046541e+01
4.424079e+02	-3.051520e+01
4.449633e+02	-3.056494e+01
4.475334e+02	-3.062044e+01
4.501183e+02	-3.066715e+01
4.527182e+02	-3.071608e+01
4.553330e+02	-3.076672e+01
4.579630e+02	-3.081654e+01
4.606082e+02	-3.086663e+01
4.632687e+02	-3.091518e+01
4.659445e+02	-3.096811e+01
4.686358e+02	-3.102345e+01
4.713426e+02	-3.107353e+01
4.740650e+02	-3.112075e+01
4.768032e+02	-3.116489e+01
4.795572e+02	-3.121411e+01
4.823271e+02	-3.127648e+01
4.851130e+02	-3.131454e+01
4.879150e+02	-3.136645e+01
4.907332e+02	-3.142135e+01
4.935676e+02	-3.146995e+01
4.964185e+02	-3.151680e+01
4.992858e+02	-3.156773e+01
5.021696e+02	-3.162535e+01
5.050701e+02	-3.167755e+01
5.079874e+02	-3.172087e+01
5.109215e+02	-3.176889e+01
5.138726e+02	-3.182302e+01
5.168407e+02	-3.186631e+01
5.198259e+02	-3.191549e+01
5.228284e+02	-3.196916e+01
5.258482e+02	-3.202997e+01
5.288855e+02	-3.207218e+01
5.319403e+02	-3.211796e+01
5.350128e+02	-3.217317e+01
5.381030e+02	-3.222319e+01
5.412111e+02	-3.227556e+01
5.443371e+02	-3.232201e+01
5.474812e+02	-3.237054e+01
5.506434e+02	-3.242191e+01
5.538239e+02	-3.247065e+01
5.570228e+02	-3.252646e+01
5.602401e+02	-3.257027e+01
5.634760e+02	-3.262138e+01
5.667306e+02	-3.267587e+01
5.700040e+02	-3.272978e+01
5.732964e+02	-3.278194e+01
5.766077e+02	-3.283351e+01
5.799382e+02	-3.288146e+01
5.832879e+02	-3.292532e+01
5.866569e+02	-3.297660e+01
5.900454e+02	-3.303026e+01
5.934535e+02	-3.307605e+01
5.968813e+02	-3.313123e+01
6.003288e+02	-3.317311e+01
6.037963e+02	-3.323026e+01
6.072838e+02	-3.327728e+01
6.107914e+02	-3.332881e+01
6.143194e+02	-3.337493e+01
6.178676e+02	-3.342870e+01
6.214364e+02	-3.347247e+01
6.250258e+02	-3.352938e+01
6.286359e+02	-3.357767e+01
6.322669e+02	-3.363693e+01
6.359189e+02	-3.367775e+01
6.395919e+02	-3.372899e+01
6.432862e+02	-3.377832e+01
6.470017e+02	-3.383787e+01
6.507388e+02	-3.388384e+01
6.544974e+02	-3.393759e+01
6.582778e+02	-3.397742e+01
6.620800e+02	-3.403700e+01
6.659041e+02	-3.408391e+01
6.697504e+02	-3.413339e+01
6.736188e+02	-3.418125e+01
6.775096e+02	-3.423231e+01
6.814229e+02	-3.428401e+01
6.853587e+02	-3.432852e+01
6.893173e+02	-3.438655e+01
6.932988e+02	-3.443508e+01
6.973033e+02	-3.449155e+01
7.013309e+02	-3.452368e+01
