Frequency(Hz)	Magnitude(dB)
1.000000e+01	-2.221282e+00
1.005776e+01	-2.241325e+00
1.011585e+01	-2.261456e+00
1.017428e+01	-2.281883e+00
1.023305e+01	-2.302526e+00
1.029215e+01	-2.323086e+00
1.035160e+01	-2.344109e+00
1.041139e+01	-2.364766e+00
1.047153e+01	-2.386076e+00
1.053201e+01	-2.406960e+00
1.059284e+01	-2.428307e+00
1.065403e+01	-2.449758e+00
1.071556e+01	-2.471396e+00
1.077746e+01	-2.493121e+00
1.083971e+01	-2.515430e+00
1.090232e+01	-2.537399e+00
1.096529e+01	-2.559547e+00
1.102862e+01	-2.581790e+00
1.109232e+01	-2.604225e+00
1.115639e+01	-2.626979e+00
1.122083e+01	-2.649568e+00
1.128564e+01	-2.672861e+00
1.135083e+01	-2.695645e+00
1.141639e+01	-2.718926e+00
1.148233e+01	-2.742336e+00
1.154865e+01	-2.765740e+00
1.161536e+01	-2.789513e+00
1.168245e+01	-2.813255e+00
1.174992e+01	-2.836969e+00
1.181779e+01	-2.861210e+00
1.188605e+01	-2.885359e+00
1.195470e+01	-2.909590e+00
1.202375e+01	-2.934481e+00
1.209320e+01	-2.958931e+00
1.216305e+01	-2.983559e+00
1.223330e+01	-3.008728e+00
1.230396e+01	-3.033627e+00
1.237503e+01	-3.059039e+00
1.244651e+01	-3.084283e+00
1.251840e+01	-3.109814e+00
1.259070e+01	-3.135471e+00
1.266343e+01	-3.161253e+00
1.273657e+01	-3.187160e+00
1.281014e+01	-3.213268e+00
1.288413e+01	-3.239616e+00
1.295855e+01	-3.265827e+00
1.303339e+01	-3.292492e+00
1.310867e+01	-3.318927e+00
1.318439e+01	-3.345606e+00
1.326054e+01	-3.372849e+00
1.333713e+01	-3.399975e+00
1.341417e+01	-3.427063e+00
1.349165e+01	-3.454384e+00
1.356958e+01	-3.481974e+00
1.364795e+01	-3.509695e+00
1.372678e+01	-3.537513e+00
1.380607e+01	-3.565324e+00
1.388581e+01	-3.593448e+00
1.396602e+01	-3.621603e+00
1.404668e+01	-3.650176e+00
1.412782e+01	-3.678464e+00
1.420942e+01	-3.707083e+00
1.429149e+01	-3.736128e+00
1.437404e+01	-3.765099e+00
1.445706e+01	-3.793896e+00
1.454057e+01	-3.823226e+00
1.462455e+01	-3.852294e+00
1.470902e+01	-3.882172e+00
1.479398e+01	-3.911586e+00
1.487943e+01	-3.941537e+00
1.496537e+01	-3.971147e+00
1.505181e+01	-4.001558e+00
1.513875e+01	-4.031678e+00
1.522619e+01	-4.061746e+00
1.531414e+01	-4.092283e+00
1.540259e+01	-4.122849e+00
1.549156e+01	-4.153683e+00
1.558103e+01	-4.184626e+00
1.567103e+01	-4.215635e+00
1.576155e+01	-4.246695e+00
1.585258e+01	-4.277739e+00
1.594415e+01	-4.309543e+00
1.603624e+01	-4.340852e+00
1.612886e+01	-4.372538e+00
1.622202e+01	-4.404330e+00
1.631572e+01	-4.436326e+00
1.640996e+01	-4.468386e+00
1.650474e+01	-4.500546e+00
1.660008e+01	-4.532988e+00
1.669596e+01	-4.565613e+00
1.679239e+01	-4.598300e+00
1.688938e+01	-4.630688e+00
1.698694e+01	-4.663695e+00
1.708505e+01	-4.696591e+00
1.718373e+01	-4.729908e+00
1.728299e+01	-4.762887e+00
1.738281e+01	-4.796233e+00
1.748322e+01	-4.830101e+00
1.758420e+01	-4.863635e+00
1.768576e+01	-4.897109e+00
1.778792e+01	-4.931244e+00
1.789066e+01	-4.965277e+00
1.799399e+01	-4.999612e+00
1.809793e+01	-5.033566e+00
1.820246e+01	-5.067991e+00
1.830760e+01	-5.102595e+00
1.841334e+01	-5.137270e+00
1.851969e+01	-5.172177e+00
1.862666e+01	-5.206874e+00
1.873425e+01	-5.241697e+00
1.884246e+01	-5.277059e+00
1.895129e+01	-5.311947e+00
1.906075e+01	-5.347932e+00
1.917085e+01	-5.383373e+00
1.928158e+01	-5.418605e+00
1.939295e+01	-5.454269e+00
1.950496e+01	-5.490175e+00
1.961762e+01	-5.525919e+00
1.973093e+01	-5.562111e+00
1.984490e+01	-5.598363e+00
1.995952e+01	-5.634618e+00
2.007480e+01	-5.670972e+00
2.019076e+01	-5.707538e+00
2.030738e+01	-5.744131e+00
2.042467e+01	-5.780842e+00
2.054264e+01	-5.817576e+00
2.066130e+01	-5.855017e+00
2.078064e+01	-5.892006e+00
2.090066e+01	-5.929283e+00
2.102139e+01	-5.966560e+00
2.114280e+01	-6.003922e+00
2.126492e+01	-6.041343e+00
2.138775e+01	-6.078965e+00
2.151128e+01	-6.116853e+00
2.163553e+01	-6.154361e+00
2.176050e+01	-6.193020e+00
2.188619e+01	-6.230614e+00
2.201260e+01	-6.268879e+00
2.213974e+01	-6.307208e+00
2.226762e+01	-6.345566e+00
2.239624e+01	-6.383670e+00
2.252560e+01	-6.422724e+00
2.265571e+01	-6.461159e+00
2.278656e+01	-6.500125e+00
2.291818e+01	-6.539155e+00
2.305055e+01	-6.577720e+00
2.318369e+01	-6.616645e+00
2.331760e+01	-6.656184e+00
2.345228e+01	-6.695578e+00
2.358774e+01	-6.734349e+00
2.372398e+01	-6.773989e+00
2.386101e+01	-6.813562e+00
2.399883e+01	-6.853219e+00
2.413745e+01	-6.892932e+00
2.427686e+01	-6.932801e+00
2.441709e+01	-6.972436e+00
2.455812e+01	-7.012976e+00
2.469997e+01	-7.053147e+00
2.484263e+01	-7.093317e+00
2.498612e+01	-7.133501e+00
2.513044e+01	-7.174053e+00
2.527559e+01	-7.214532e+00
2.542158e+01	-7.255177e+00
2.556842e+01	-7.295467e+00
2.571610e+01	-7.336165e+00
2.586463e+01	-7.377210e+00
2.601403e+01	-7.418208e+00
2.616428e+01	-7.459090e+00
2.631541e+01	-7.500126e+00
2.646740e+01	-7.541932e+00
2.662028e+01	-7.582644e+00
2.677404e+01	-7.624178e+00
2.692868e+01	-7.665671e+00
2.708422e+01	-7.707118e+00
2.724066e+01	-7.748521e+00
2.739800e+01	-7.790197e+00
2.755625e+01	-7.831740e+00
2.771541e+01	-7.873782e+00
2.787550e+01	-7.915596e+00
2.803650e+01	-7.957738e+00
2.819844e+01	-7.999593e+00
2.836131e+01	-8.041990e+00
2.852513e+01	-8.083855e+00
2.868989e+01	-8.126157e+00
2.885560e+01	-8.168120e+00
2.902227e+01	-8.210946e+00
2.918990e+01	-8.253724e+00
2.935850e+01	-8.296114e+00
2.952807e+01	-8.338681e+00
2.969863e+01	-8.381624e+00
2.987016e+01	-8.424383e+00
3.004269e+01	-8.467282e+00
3.021622e+01	-8.510372e+00
3.039075e+01	-8.553273e+00
3.056628e+01	-8.596743e+00
3.074283e+01	-8.639165e+00
3.092040e+01	-8.683082e+00
3.109900e+01	-8.726091e+00
3.127862e+01	-8.769422e+00
3.145929e+01	-8.812898e+00
3.164099e+01	-8.856010e+00
3.182375e+01	-8.899878e+00
3.200756e+01	-8.943393e+00
3.219244e+01	-8.987041e+00
3.237838e+01	-9.030919e+00
3.256540e+01	-9.074521e+00
3.275349e+01	-9.118662e+00
3.294268e+01	-9.162513e+00
3.313295e+01	-9.206431e+00
3.332433e+01	-9.250257e+00
3.351681e+01	-9.293966e+00
3.371040e+01	-9.339229e+00
3.390511e+01	-9.383044e+00
3.410094e+01	-9.426842e+00
3.429791e+01	-9.472114e+00
3.449601e+01	-9.515999e+00
3.469526e+01	-9.560495e+00
3.489566e+01	-9.605511e+00
3.509721e+01	-9.649382e+00
3.529993e+01	-9.693916e+00
3.550382e+01	-9.738927e+00
3.570889e+01	-9.783026e+00
3.591515e+01	-9.828497e+00
3.612259e+01	-9.872813e+00
3.633123e+01	-9.918050e+00
3.654108e+01	-9.963165e+00
3.675214e+01	-1.000825e+01
3.696442e+01	-1.005327e+01
3.717792e+01	-1.009813e+01
3.739266e+01	-1.014377e+01
3.760864e+01	-1.018881e+01
3.782587e+01	-1.023412e+01
3.804435e+01	-1.027944e+01
3.826409e+01	-1.032443e+01
3.848510e+01	-1.036975e+01
3.870739e+01	-1.041540e+01
3.893096e+01	-1.046081e+01
3.915583e+01	-1.050637e+01
3.938199e+01	-1.055202e+01
3.960946e+01	-1.059806e+01
3.983824e+01	-1.064370e+01
4.006834e+01	-1.068925e+01
4.029978e+01	-1.073511e+01
4.053255e+01	-1.078109e+01
4.076666e+01	-1.082611e+01
4.100213e+01	-1.087262e+01
4.123896e+01	-1.091822e+01
4.147715e+01	-1.096449e+01
4.171672e+01	-1.101085e+01
4.195767e+01	-1.105692e+01
4.220002e+01	-1.110307e+01
4.244377e+01	-1.114872e+01
4.268892e+01	-1.119509e+01
4.293549e+01	-1.124137e+01
4.318348e+01	-1.128794e+01
4.343291e+01	-1.133415e+01
4.368377e+01	-1.138041e+01
4.393609e+01	-1.142658e+01
4.418986e+01	-1.147273e+01
4.444510e+01	-1.151954e+01
4.470182e+01	-1.156600e+01
4.496001e+01	-1.161288e+01
4.521970e+01	-1.165902e+01
4.548089e+01	-1.170667e+01
4.574358e+01	-1.175229e+01
4.600779e+01	-1.179936e+01
4.627353e+01	-1.184623e+01
4.654081e+01	-1.189238e+01
4.680963e+01	-1.194009e+01
4.708000e+01	-1.198670e+01
4.735193e+01	-1.203349e+01
4.762543e+01	-1.208053e+01
4.790051e+01	-1.212706e+01
4.817719e+01	-1.217487e+01
4.845545e+01	-1.222140e+01
4.873533e+01	-1.226835e+01
4.901682e+01	-1.231590e+01
4.929994e+01	-1.236234e+01
4.958470e+01	-1.241015e+01
4.987110e+01	-1.245680e+01
5.015915e+01	-1.250393e+01
5.044887e+01	-1.255146e+01
5.074026e+01	-1.259883e+01
5.103333e+01	-1.264587e+01
5.132810e+01	-1.269334e+01
5.162457e+01	-1.274047e+01
5.192275e+01	-1.278805e+01
5.222265e+01	-1.283516e+01
5.252429e+01	-1.288213e+01
5.282767e+01	-1.293005e+01
5.313280e+01	-1.297813e+01
5.343969e+01	-1.302469e+01
5.374836e+01	-1.307303e+01
5.405880e+01	-1.312044e+01
5.437105e+01	-1.316763e+01
5.468509e+01	-1.321566e+01
5.500095e+01	-1.326328e+01
5.531863e+01	-1.331109e+01
5.563815e+01	-1.335928e+01
5.595951e+01	-1.340634e+01
5.628273e+01	-1.345475e+01
5.660782e+01	-1.350187e+01
5.693479e+01	-1.354961e+01
5.726364e+01	-1.359774e+01
5.759439e+01	-1.364549e+01
5.792705e+01	-1.369334e+01
5.826164e+01	-1.374077e+01
5.859815e+01	-1.378864e+01
5.893662e+01	-1.383626e+01
5.927703e+01	-1.388582e+01
5.961941e+01	-1.393343e+01
5.996377e+01	-1.398062e+01
6.031012e+01	-1.402931e+01
6.065847e+01	-1.407609e+01
6.100883e+01	-1.412536e+01
6.136121e+01	-1.417354e+01
6.171563e+01	-1.422180e+01
6.207210e+01	-1.426916e+01
6.243063e+01	-1.431785e+01
6.279122e+01	-1.436629e+01
6.315390e+01	-1.441403e+01
6.351868e+01	-1.446280e+01
6.388556e+01	-1.450974e+01
6.425456e+01	-1.455945e+01
6.462569e+01	-1.460672e+01
6.499897e+01	-1.465594e+01
6.537440e+01	-1.470426e+01
6.575200e+01	-1.475224e+01
6.613178e+01	-1.480034e+01
6.651375e+01	-1.484817e+01
6.689793e+01	-1.489698e+01
6.728433e+01	-1.494518e+01
6.767297e+01	-1.499371e+01
6.806384e+01	-1.504338e+01
6.845698e+01	-1.508981e+01
6.885238e+01	-1.513897e+01
6.925007e+01	-1.518709e+01
6.965005e+01	-1.523650e+01
7.005235e+01	-1.528505e+01
7.045697e+01	-1.533415e+01
7.086393e+01	-1.538182e+01
7.127323e+01	-1.543173e+01
7.168490e+01	-1.547946e+01
7.209895e+01	-1.552807e+01
7.251539e+01	-1.557633e+01
7.293424e+01	-1.562593e+01
7.335551e+01	-1.567463e+01
7.377920e+01	-1.572341e+01
7.420535e+01	-1.577137e+01
7.463396e+01	-1.582056e+01
7.506504e+01	-1.586920e+01
7.549861e+01	-1.591799e+01
7.593469e+01	-1.596592e+01
7.637328e+01	-1.601459e+01
7.681441e+01	-1.606416e+01
7.725809e+01	-1.611231e+01
7.770433e+01	-1.616143e+01
7.815315e+01	-1.621146e+01
7.860456e+01	-1.625946e+01
7.905857e+01	-1.630817e+01
7.951521e+01	-1.635668e+01
7.997449e+01	-1.640565e+01
8.043642e+01	-1.645387e+01
8.090102e+01	-1.650397e+01
8.136830e+01	-1.655329e+01
8.183828e+01	-1.660091e+01
8.231097e+01	-1.664996e+01
8.278640e+01	-1.669845e+01
8.326457e+01	-1.674779e+01
8.374550e+01	-1.679798e+01
8.422921e+01	-1.684622e+01
8.471572e+01	-1.689569e+01
8.520503e+01	-1.694423e+01
8.569717e+01	-1.699344e+01
8.619215e+01	-1.704182e+01
8.669000e+01	-1.709040e+01
8.719071e+01	-1.714061e+01
8.769432e+01	-1.719009e+01
8.820084e+01	-1.723787e+01
8.871029e+01	-1.728785e+01
8.922267e+01	-1.733778e+01
8.973802e+01	-1.738554e+01
9.025634e+01	-1.743624e+01
9.077766e+01	-1.748330e+01
9.130199e+01	-1.753265e+01
9.182935e+01	-1.758278e+01
9.235975e+01	-1.763166e+01
9.289321e+01	-1.768117e+01
9.342976e+01	-1.772944e+01
9.396941e+01	-1.777894e+01
9.451217e+01	-1.782831e+01
9.505807e+01	-1.787876e+01
9.560712e+01	-1.792680e+01
9.615934e+01	-1.797636e+01
9.671476e+01	-1.802465e+01
9.727338e+01	-1.807373e+01
9.783522e+01	-1.812404e+01
9.840032e+01	-1.817381e+01
9.896867e+01	-1.822303e+01
9.954031e+01	-1.827147e+01
1.001153e+02	-1.832020e+01
1.006935e+02	-1.836857e+01
1.012751e+02	-1.842001e+01
1.018601e+02	-1.846903e+01
1.024484e+02	-1.851780e+01
1.030402e+02	-1.856694e+01
1.036353e+02	-1.861708e+01
1.042339e+02	-1.866662e+01
1.048360e+02	-1.871662e+01
1.054415e+02	-1.876324e+01
1.060505e+02	-1.881505e+01
1.066631e+02	-1.886339e+01
1.072791e+02	-1.891377e+01
1.078988e+02	-1.896285e+01
1.085220e+02	-1.901149e+01
1.091488e+02	-1.906098e+01
1.097793e+02	-1.911177e+01
1.104133e+02	-1.916000e+01
1.110511e+02	-1.921015e+01
1.116925e+02	-1.925888e+01
1.123376e+02	-1.930751e+01
1.129865e+02	-1.935835e+01
1.136391e+02	-1.940760e+01
1.142955e+02	-1.945730e+01
1.149556e+02	-1.950642e+01
1.156196e+02	-1.955688e+01
1.162874e+02	-1.960620e+01
1.169591e+02	-1.965470e+01
1.176347e+02	-1.970507e+01
1.183141e+02	-1.975284e+01
1.189975e+02	-1.980424e+01
1.196848e+02	-1.985437e+01
1.203761e+02	-1.990050e+01
1.210714e+02	-1.995142e+01
1.217707e+02	-2.000118e+01
1.224740e+02	-2.005236e+01
1.231814e+02	-2.010115e+01
1.238929e+02	-2.014967e+01
1.246085e+02	-2.020052e+01
1.253283e+02	-2.025042e+01
1.260522e+02	-2.029971e+01
1.267802e+02	-2.034836e+01
1.275125e+02	-2.039843e+01
1.282490e+02	-2.044770e+01
1.289898e+02	-2.049600e+01
1.297348e+02	-2.054478e+01
1.304842e+02	-2.059625e+01
1.312378e+02	-2.064482e+01
1.319959e+02	-2.069529e+01
1.327583e+02	-2.074536e+01
1.335251e+02	-2.079330e+01
1.342963e+02	-2.084480e+01
1.350720e+02	-2.089314e+01
1.358522e+02	-2.094371e+01
1.366368e+02	-2.099289e+01
1.374260e+02	-2.104239e+01
1.382198e+02	-2.109306e+01
1.390182e+02	-2.114177e+01
1.398211e+02	-2.119167e+01
1.406287e+02	-2.123864e+01
1.414410e+02	-2.128912e+01
1.422579e+02	-2.133970e+01
1.430796e+02	-2.139057e+01
1.439060e+02	-2.144065e+01
1.447372e+02	-2.148903e+01
1.455732e+02	-2.154073e+01
1.464141e+02	-2.158806e+01
1.472597e+02	-2.163807e+01
1.481103e+02	-2.168920e+01
1.489658e+02	-2.173889e+01
1.498262e+02	-2.178752e+01
1.506916e+02	-2.183839e+01
1.515620e+02	-2.188743e+01
1.524374e+02	-2.193588e+01
1.533179e+02	-2.198702e+01
1.542034e+02	-2.203813e+01
1.550941e+02	-2.208440e+01
1.559899e+02	-2.213547e+01
1.568909e+02	-2.218520e+01
1.577971e+02	-2.223557e+01
1.587085e+02	-2.228419e+01
1.596252e+02	-2.233319e+01
1.605472e+02	-2.238506e+01
1.614745e+02	-2.243464e+01
1.624072e+02	-2.248466e+01
1.633453e+02	-2.253335e+01
1.642887e+02	-2.258362e+01
1.652377e+02	-2.263253e+01
1.661921e+02	-2.268192e+01
1.671520e+02	-2.273082e+01
1.681175e+02	-2.278396e+01
1.690885e+02	-2.283340e+01
1.700651e+02	-2.288448e+01
1.710474e+02	-2.293195e+01
1.720354e+02	-2.298126e+01
1.730291e+02	-2.302990e+01
1.740285e+02	-2.308272e+01
1.750337e+02	-2.313234e+01
1.760446e+02	-2.318010e+01
1.770615e+02	-2.323061e+01
1.780842e+02	-2.328069e+01
1.791128e+02	-2.333045e+01
1.801473e+02	-2.338238e+01
1.811878e+02	-2.342957e+01
1.822344e+02	-2.347996e+01
1.832870e+02	-2.353130e+01
1.843456e+02	-2.358027e+01
1.854104e+02	-2.363019e+01
1.864813e+02	-2.367992e+01
1.875584e+02	-2.372876e+01
1.886418e+02	-2.377947e+01
1.897313e+02	-2.382672e+01
1.908272e+02	-2.388160e+01
1.919294e+02	-2.392876e+01
1.930380e+02	-2.397666e+01
1.941530e+02	-2.403013e+01
1.952744e+02	-2.407864e+01
1.964023e+02	-2.412575e+01
1.975367e+02	-2.417520e+01
1.986777e+02	-2.422705e+01
1.998252e+02	-2.427794e+01
2.009794e+02	-2.432754e+01
2.021403e+02	-2.437719e+01
2.033078e+02	-2.442756e+01
2.044821e+02	-2.447977e+01
2.056632e+02	-2.452381e+01
2.068511e+02	-2.457790e+01
2.080459e+02	-2.462700e+01
2.092475e+02	-2.467616e+01
2.104561e+02	-2.472668e+01
2.116717e+02	-2.477862e+01
2.128943e+02	-2.482782e+01
2.141240e+02	-2.487584e+01
2.153608e+02	-2.492715e+01
2.166047e+02	-2.497735e+01
2.178558e+02	-2.502702e+01
2.191141e+02	-2.507570e+01
2.203797e+02	-2.512631e+01
2.216526e+02	-2.517696e+01
2.229329e+02	-2.522524e+01
2.242205e+02	-2.527496e+01
2.255156e+02	-2.532666e+01
2.268182e+02	-2.537688e+01
2.281283e+02	-2.542417e+01
2.294459e+02	-2.547569e+01
2.307712e+02	-2.552352e+01
2.321041e+02	-2.557654e+01
2.334447e+02	-2.562324e+01
2.347931e+02	-2.567639e+01
2.361493e+02	-2.572374e+01
2.375133e+02	-2.577387e+01
2.388851e+02	-2.582197e+01
2.402649e+02	-2.587311e+01
2.416527e+02	-2.592596e+01
2.430484e+02	-2.597517e+01
2.444523e+02	-2.602497e+01
2.458642e+02	-2.607631e+01
2.472843e+02	-2.612524e+01
2.487126e+02	-2.617217e+01
2.501492e+02	-2.622440e+01
2.515940e+02	-2.627762e+01
2.530472e+02	-2.632433e+01
2.545088e+02	-2.637475e+01
2.559789e+02	-2.642277e+01
2.574574e+02	-2.647354e+01
2.589444e+02	-2.652489e+01
2.604401e+02	-2.657584e+01
2.619444e+02	-2.662337e+01
2.634574e+02	-2.667281e+01
2.649791e+02	-2.672518e+01
2.665096e+02	-2.677151e+01
2.680489e+02	-2.682613e+01
2.695972e+02	-2.687501e+01
2.711544e+02	-2.692181e+01
2.727205e+02	-2.697698e+01
2.742958e+02	-2.702754e+01
2.758801e+02	-2.707295e+01
2.774736e+02	-2.712139e+01
2.790762e+02	-2.717736e+01
2.806882e+02	-2.722522e+01
2.823094e+02	-2.727366e+01
2.839400e+02	-2.732291e+01
2.855800e+02	-2.737001e+01
2.872295e+02	-2.742731e+01
2.888886e+02	-2.747201e+01
2.905572e+02	-2.752188e+01
2.922354e+02	-2.757338e+01
2.939234e+02	-2.762379e+01
2.956211e+02	-2.767199e+01
2.973286e+02	-2.772418e+01
2.990459e+02	-2.777577e+01
3.007732e+02	-2.782889e+01
3.025104e+02	-2.787302e+01
3.042577e+02	-2.792948e+01
3.060151e+02	-2.797653e+01
3.077826e+02	-2.802398e+01
3.095604e+02	-2.807170e+01
3.113484e+02	-2.812420e+01
3.131467e+02	-2.817572e+01
3.149554e+02	-2.822504e+01
3.167746e+02	-2.827656e+01
3.186043e+02	-2.832438e+01
3.204445e+02	-2.837486e+01
3.222954e+02	-2.842365e+01
3.241570e+02	-2.847504e+01
3.260293e+02	-2.852835e+01
3.279124e+02	-2.857140e+01
3.298064e+02	-2.862415e+01
3.317114e+02	-2.867585e+01
3.336273e+02	-2.872398e+01
3.355544e+02	-2.877618e+01
3.374925e+02	-2.883070e+01
3.394418e+02	-2.887824e+01
3.414024e+02	-2.892450e+01
3.433744e+02	-2.897804e+01
3.453577e+02	-2.902592e+01
3.473525e+02	-2.907654e+01
3.493588e+02	-2.912302e+01
3.513766e+02	-2.917585e+01
3.534062e+02	-2.922223e+01
3.554474e+02	-2.927639e+01
3.575005e+02	-2.932491e+01
3.595654e+02	-2.937683e+01
3.616422e+02	-2.942967e+01
3.637311e+02	-2.947070e+01
3.658320e+02	-2.952125e+01
3.679450e+02	-2.957825e+01
3.700702e+02	-2.963288e+01
3.722077e+02	-2.967765e+01
3.743576e+02	-2.972218e+01
3.765199e+02	-2.977998e+01
3.786946e+02	-2.982612e+01
3.808820e+02	-2.987469e+01
3.830819e+02	-2.993197e+01
3.852946e+02	-2.997798e+01
3.875200e+02	-3.002368e+01
3.897583e+02	-3.007277e+01
3.920096e+02	-3.012323e+01
3.942738e+02	-3.017471e+01
3.965511e+02	-3.023138e+01
3.988416e+02	-3.027783e+01
4.011452e+02	-3.033559e+01
4.034622e+02	-3.038052e+01
4.057926e+02	-3.042620e+01
4.081365e+02	-3.048113e+01
4.104938e+02	-3.052826e+01
4.128648e+02	-3.058148e+01
4.152495e+02	-3.062905e+01
4.176480e+02	-3.068129e+01
4.200603e+02	-3.072689e+01
4.224866e+02	-3.077502e+01
4.249268e+02	-3.083418e+01
4.273812e+02	-3.088154e+01
4.298497e+02	-3.093232e+01
4.323325e+02	-3.097711e+01
4.348297e+02	-3.103045e+01
4.373412e+02	-3.107640e+01
4.398673e+02	-3.113276e+01
4.424079e+02	-3.117881e+01
4.449633e+02	-3.123388e+01
4.475334e+02	-3.128028e+01
4.501183e+02	-3.133013e+01
4.527182e+02	-3.138090e+01
4.553330e+02	-3.143151e+01
4.579630e+02	-3.147794e+01
4.606082e+02	-3.152535e+01
4.632687e+02	-3.157801e+01
4.659445e+02	-3.163010e+01
4.686358e+02	-3.168547e+01
4.713426e+02	-3.173066e+01
4.740650e+02	-3.177499e+01
4.768032e+02	-3.183251e+01
4.795572e+02	-3.187668e+01
4.823271e+02	-3.192966e+01
4.851130e+02	-3.198168e+01
4.879150e+02	-3.203013e+01
4.907332e+02	-3.208110e+01
4.935676e+02	-3.213667e+01
4.964185e+02	-3.218144e+01
4.992858e+02	-3.223439e+01
5.021696e+02	-3.227938e+01
5.050701e+02	-3.233766e+01
5.079874e+02	-3.238803e+01
5.109215e+02	-3.242901e+01
5.138726e+02	-3.248467e+01
5.168407e+02	-3.253581e+01
5.198259e+02	-3.258833e+01
5.228284e+02	-3.263787e+01
5.258482e+02	-3.268824e+01
5.288855e+02	-3.273339e+01
5.319403e+02	-3.278892e+01
5.350128e+02	-3.283750e+01
5.381030e+02	-3.288263e+01
5.412111e+02	-3.293887e+01
5.443371e+02	-3.299610e+01
5.474812e+02	-3.303294e+01
5.506434e+02	-3.308556e+01
5.538239e+02	-3.313878e+01
5.570228e+02	-3.318524e+01
5.602401e+02	-3.324111e+01
5.634760e+02	-3.328767e+01
5.667306e+02	-3.333543e+01
5.700040e+02	-3.339025e+01
5.732964e+02	-3.343770e+01
5.766077e+02	-3.349018e+01
5.799382e+02	-3.354614e+01
5.832879e+02	-3.358947e+01
5.866569e+02	-3.364158e+01
5.900454e+02	-3.370014e+01
5.934535e+02	-3.374097e+01
5.968813e+02	-3.379019e+01
6.003288e+02	-3.384826e+01
6.037963e+02	-3.389070e+01
6.072838e+02	-3.394095e+01
6.107914e+02	-3.399408e+01
6.143194e+02	-3.404319e+01
6.178676e+02	-3.408947e+01
6.214364e+02	-3.414455e+01
6.250258e+02	-3.419089e+01
6.286359e+02	-3.424799e+01
6.322669e+02	-3.429381e+01
6.359189e+02	-3.434683e+01
6.395919e+02	-3.439559e+01
6.432862e+02	-3.444930e+01
6.470017e+02	-3.449714e+01
6.507388e+02	-3.455254e+01
6.544974e+02	-3.459109e+01
6.582778e+02	-3.464534e+01
6.620800e+02	-3.470649e+01
6.659041e+02	-3.474959e+01
6.697504e+02	-3.480297e+01
6.736188e+02	-3.485058e+01
6.775096e+02	-3.489462e+01
6.814229e+02	-3.495108e+01
6.853587e+02	-3.499557e+01
6.893173e+02	-3.505204e+01
6.932988e+02	-3.509819e+01
6.973033e+02	-3.514781e+01
7.013309e+02	-3.519867e+01
