Frequency(Hz)	Magnitude(dB)
1.000000e+01	-1.806698e-05
1.005776e+01	-1.827629e-05
1.011585e+01	-1.848802e-05
1.017428e+01	-1.870221e-05
1.023305e+01	-1.891888e-05
1.029215e+01	-1.913806e-05
1.035160e+01	-1.935978e-05
1.041139e+01	-1.958407e-05
1.047153e+01	-1.981095e-05
1.053201e+01	-2.004047e-05
1.059284e+01	-2.027264e-05
1.065403e+01	-2.050751e-05
1.071556e+01	-2.074509e-05
1.077746e+01	-2.098543e-05
1.083971e+01	-2.122855e-05
1.090232e+01	-2.147449e-05
1.096529e+01	-2.172327e-05
1.102862e+01	-2.197494e-05
1.109232e+01	-2.222953e-05
1.115639e+01	-2.248706e-05
1.122083e+01	-2.274758e-05
1.128564e+01	-2.301112e-05
1.135083e+01	-2.327771e-05
1.141639e+01	-2.354739e-05
1.148233e+01	-2.382019e-05
1.154865e+01	-2.409615e-05
1.161536e+01	-2.437531e-05
1.168245e+01	-2.465770e-05
1.174992e+01	-2.494337e-05
1.181779e+01	-2.523235e-05
1.188605e+01	-2.552467e-05
1.195470e+01	-2.582038e-05
1.202375e+01	-2.611951e-05
1.209320e+01	-2.642211e-05
1.216305e+01	-2.672822e-05
1.223330e+01	-2.703787e-05
1.230396e+01	-2.735111e-05
1.237503e+01	-2.766798e-05
1.244651e+01	-2.798852e-05
1.251840e+01	-2.831278e-05
1.259070e+01	-2.864079e-05
1.266343e+01	-2.897260e-05
1.273657e+01	-2.930825e-05
1.281014e+01	-2.964780e-05
1.288413e+01	-2.999127e-05
1.295855e+01	-3.033873e-05
1.303339e+01	-3.069021e-05
1.310867e+01	-3.104576e-05
1.318439e+01	-3.140544e-05
1.326054e+01	-3.176928e-05
1.333713e+01	-3.213733e-05
1.341417e+01	-3.250965e-05
1.349165e+01	-3.288628e-05
1.356958e+01	-3.326728e-05
1.364795e+01	-3.365269e-05
1.372678e+01	-3.404256e-05
1.380607e+01	-3.443695e-05
1.388581e+01	-3.483591e-05
1.396602e+01	-3.523949e-05
1.404668e+01	-3.564775e-05
1.412782e+01	-3.606074e-05
1.420942e+01	-3.647851e-05
1.429149e+01	-3.690112e-05
1.437404e+01	-3.732863e-05
1.445706e+01	-3.776109e-05
1.454057e+01	-3.819856e-05
1.462455e+01	-3.864110e-05
1.470902e+01	-3.908877e-05
1.479398e+01	-3.954162e-05
1.487943e+01	-3.999972e-05
1.496537e+01	-4.046312e-05
1.505181e+01	-4.093190e-05
1.513875e+01	-4.140610e-05
1.522619e+01	-4.188580e-05
1.531414e+01	-4.237106e-05
1.540259e+01	-4.286194e-05
1.549156e+01	-4.335850e-05
1.558103e+01	-4.386082e-05
1.567103e+01	-4.436896e-05
1.576155e+01	-4.488298e-05
1.585258e+01	-4.540296e-05
1.594415e+01	-4.592896e-05
1.603624e+01	-4.646106e-05
1.612886e+01	-4.699932e-05
1.622202e+01	-4.754382e-05
1.631572e+01	-4.809462e-05
1.640996e+01	-4.865181e-05
1.650474e+01	-4.921545e-05
1.660008e+01	-4.978562e-05
1.669596e+01	-5.036240e-05
1.679239e+01	-5.094586e-05
1.688938e+01	-5.153608e-05
1.698694e+01	-5.213314e-05
1.708505e+01	-5.273711e-05
1.718373e+01	-5.334808e-05
1.728299e+01	-5.396613e-05
1.738281e+01	-5.459134e-05
1.748322e+01	-5.522379e-05
1.758420e+01	-5.586357e-05
1.768576e+01	-5.651076e-05
1.778792e+01	-5.716545e-05
1.789066e+01	-5.782772e-05
1.799399e+01	-5.849767e-05
1.809793e+01	-5.917537e-05
1.820246e+01	-5.986093e-05
1.830760e+01	-6.055443e-05
1.841334e+01	-6.125597e-05
1.851969e+01	-6.196563e-05
1.862666e+01	-6.268351e-05
1.873425e+01	-6.340971e-05
1.884246e+01	-6.414433e-05
1.895129e+01	-6.488745e-05
1.906075e+01	-6.563919e-05
1.917085e+01	-6.639963e-05
1.928158e+01	-6.716888e-05
1.939295e+01	-6.794705e-05
1.950496e+01	-6.873422e-05
1.961762e+01	-6.953052e-05
1.973093e+01	-7.033605e-05
1.984490e+01	-7.115090e-05
1.995952e+01	-7.197520e-05
2.007480e+01	-7.280905e-05
2.019076e+01	-7.365255e-05
2.030738e+01	-7.450583e-05
2.042467e+01	-7.536899e-05
2.054264e+01	-7.624216e-05
2.066130e+01	-7.712544e-05
2.078064e+01	-7.801895e-05
2.090066e+01	-7.892281e-05
2.102139e+01	-7.983714e-05
2.114280e+01	-8.076207e-05
2.126492e+01	-8.169771e-05
2.138775e+01	-8.264420e-05
2.151128e+01	-8.360164e-05
2.163553e+01	-8.457018e-05
2.176050e+01	-8.554994e-05
2.188619e+01	-8.654105e-05
2.201260e+01	-8.754364e-05
2.213974e+01	-8.855785e-05
2.226762e+01	-8.958381e-05
2.239624e+01	-9.062165e-05
2.252560e+01	-9.167152e-05
2.265571e+01	-9.273355e-05
2.278656e+01	-9.380788e-05
2.291818e+01	-9.489466e-05
2.305055e+01	-9.599403e-05
2.318369e+01	-9.710613e-05
2.331760e+01	-9.823112e-05
2.345228e+01	-9.936914e-05
2.358774e+01	-1.005203e-04
2.372398e+01	-1.016849e-04
2.386101e+01	-1.028629e-04
2.399883e+01	-1.040546e-04
2.413745e+01	-1.052601e-04
2.427686e+01	-1.064795e-04
2.441709e+01	-1.077131e-04
2.455812e+01	-1.089610e-04
2.469997e+01	-1.102233e-04
2.484263e+01	-1.115003e-04
2.498612e+01	-1.127920e-04
2.513044e+01	-1.140987e-04
2.527559e+01	-1.154206e-04
2.542158e+01	-1.167577e-04
2.556842e+01	-1.181104e-04
2.571610e+01	-1.194787e-04
2.586463e+01	-1.208629e-04
2.601403e+01	-1.222631e-04
2.616428e+01	-1.236795e-04
2.631541e+01	-1.251124e-04
2.646740e+01	-1.265618e-04
2.662028e+01	-1.280280e-04
2.677404e+01	-1.295113e-04
2.692868e+01	-1.310117e-04
2.708422e+01	-1.325295e-04
2.724066e+01	-1.340648e-04
2.739800e+01	-1.356180e-04
2.755625e+01	-1.371891e-04
2.771541e+01	-1.387785e-04
2.787550e+01	-1.403862e-04
2.803650e+01	-1.420126e-04
2.819844e+01	-1.436578e-04
2.836131e+01	-1.453221e-04
2.852513e+01	-1.470057e-04
2.868989e+01	-1.487088e-04
2.885560e+01	-1.504316e-04
2.902227e+01	-1.521743e-04
2.918990e+01	-1.539373e-04
2.935850e+01	-1.557207e-04
2.952807e+01	-1.575247e-04
2.969863e+01	-1.593496e-04
2.987016e+01	-1.611957e-04
3.004269e+01	-1.630632e-04
3.021622e+01	-1.649523e-04
3.039075e+01	-1.668633e-04
3.056628e+01	-1.687964e-04
3.074283e+01	-1.707519e-04
3.092040e+01	-1.727301e-04
3.109900e+01	-1.747311e-04
3.127862e+01	-1.767554e-04
3.145929e+01	-1.788031e-04
3.164099e+01	-1.808746e-04
3.182375e+01	-1.829700e-04
3.200756e+01	-1.850897e-04
3.219244e+01	-1.872340e-04
3.237838e+01	-1.894031e-04
3.256540e+01	-1.915973e-04
3.275349e+01	-1.938170e-04
3.294268e+01	-1.960624e-04
3.313295e+01	-1.983338e-04
3.332433e+01	-2.006315e-04
3.351681e+01	-2.029558e-04
3.371040e+01	-2.053070e-04
3.390511e+01	-2.076855e-04
3.410094e+01	-2.100915e-04
3.429791e+01	-2.125254e-04
3.449601e+01	-2.149875e-04
3.469526e+01	-2.174782e-04
3.489566e+01	-2.199977e-04
3.509721e+01	-2.225463e-04
3.529993e+01	-2.251245e-04
3.550382e+01	-2.277326e-04
3.570889e+01	-2.303709e-04
3.591515e+01	-2.330397e-04
3.612259e+01	-2.357395e-04
3.633123e+01	-2.384705e-04
3.654108e+01	-2.412332e-04
3.675214e+01	-2.440278e-04
3.696442e+01	-2.468549e-04
3.717792e+01	-2.497147e-04
3.739266e+01	-2.526076e-04
3.760864e+01	-2.555341e-04
3.782587e+01	-2.584944e-04
3.804435e+01	-2.614890e-04
3.826409e+01	-2.645184e-04
3.848510e+01	-2.675828e-04
3.870739e+01	-2.706827e-04
3.893096e+01	-2.738186e-04
3.915583e+01	-2.769907e-04
3.938199e+01	-2.801996e-04
3.960946e+01	-2.834457e-04
3.983824e+01	-2.867294e-04
4.006834e+01	-2.900511e-04
4.029978e+01	-2.934113e-04
4.053255e+01	-2.968105e-04
4.076666e+01	-3.002490e-04
4.100213e+01	-3.037273e-04
4.123896e+01	-3.072460e-04
4.147715e+01	-3.108054e-04
4.171672e+01	-3.144060e-04
4.195767e+01	-3.180484e-04
4.220002e+01	-3.217329e-04
4.244377e+01	-3.254601e-04
4.268892e+01	-3.292305e-04
4.293549e+01	-3.330446e-04
4.318348e+01	-3.369029e-04
4.343291e+01	-3.408058e-04
4.368377e+01	-3.447540e-04
4.393609e+01	-3.487479e-04
4.418986e+01	-3.527881e-04
4.444510e+01	-3.568751e-04
4.470182e+01	-3.610094e-04
4.496001e+01	-3.651916e-04
4.521970e+01	-3.694223e-04
4.548089e+01	-3.737020e-04
4.574358e+01	-3.780312e-04
4.600779e+01	-3.824106e-04
4.627353e+01	-3.868408e-04
4.654081e+01	-3.913222e-04
4.680963e+01	-3.958556e-04
4.708000e+01	-4.004415e-04
4.735193e+01	-4.050805e-04
4.762543e+01	-4.097732e-04
4.790051e+01	-4.145203e-04
4.817719e+01	-4.193224e-04
4.845545e+01	-4.241802e-04
4.873533e+01	-4.290942e-04
4.901682e+01	-4.340651e-04
4.929994e+01	-4.390936e-04
4.958470e+01	-4.441804e-04
4.987110e+01	-4.493261e-04
5.015915e+01	-4.545313e-04
5.044887e+01	-4.597969e-04
5.074026e+01	-4.651235e-04
5.103333e+01	-4.705118e-04
5.132810e+01	-4.759625e-04
5.162457e+01	-4.814764e-04
5.192275e+01	-4.870541e-04
5.222265e+01	-4.926964e-04
5.252429e+01	-4.984041e-04
5.282767e+01	-5.041780e-04
5.313280e+01	-5.100187e-04
5.343969e+01	-5.159270e-04
5.374836e+01	-5.219038e-04
5.405880e+01	-5.279498e-04
5.437105e+01	-5.340659e-04
5.468509e+01	-5.402528e-04
5.500095e+01	-5.465114e-04
5.531863e+01	-5.528425e-04
5.563815e+01	-5.592469e-04
5.595951e+01	-5.657255e-04
5.628273e+01	-5.722792e-04
5.660782e+01	-5.789087e-04
5.693479e+01	-5.856151e-04
5.726364e+01	-5.923992e-04
5.759439e+01	-5.992618e-04
5.792705e+01	-6.062039e-04
5.826164e+01	-6.132265e-04
5.859815e+01	-6.203304e-04
5.893662e+01	-6.275165e-04
5.927703e+01	-6.347860e-04
5.961941e+01	-6.421396e-04
5.996377e+01	-6.495784e-04
6.031012e+01	-6.571034e-04
6.065847e+01	-6.647155e-04
6.100883e+01	-6.724158e-04
6.136121e+01	-6.802053e-04
6.171563e+01	-6.880851e-04
6.207210e+01	-6.960561e-04
6.243063e+01	-7.041194e-04
6.279122e+01	-7.122762e-04
6.315390e+01	-7.205274e-04
6.351868e+01	-7.288742e-04
6.388556e+01	-7.373177e-04
6.425456e+01	-7.458590e-04
6.462569e+01	-7.544992e-04
6.499897e+01	-7.632396e-04
6.537440e+01	-7.720811e-04
6.575200e+01	-7.810251e-04
6.613178e+01	-7.900726e-04
6.651375e+01	-7.992250e-04
6.689793e+01	-8.084834e-04
6.728433e+01	-8.178490e-04
6.767297e+01	-8.273231e-04
6.806384e+01	-8.369070e-04
6.845698e+01	-8.466018e-04
6.885238e+01	-8.564090e-04
6.925007e+01	-8.663297e-04
6.965005e+01	-8.763653e-04
7.005235e+01	-8.865172e-04
7.045697e+01	-8.967867e-04
7.086393e+01	-9.071752e-04
7.127323e+01	-9.176839e-04
7.168490e+01	-9.283144e-04
7.209895e+01	-9.390680e-04
7.251539e+01	-9.499462e-04
7.293424e+01	-9.609504e-04
7.335551e+01	-9.720820e-04
7.377920e+01	-9.833425e-04
7.420535e+01	-9.947335e-04
7.463396e+01	-1.006256e-03
7.506504e+01	-1.017913e-03
7.549861e+01	-1.029704e-03
7.593469e+01	-1.041632e-03
7.637328e+01	-1.053698e-03
7.681441e+01	-1.065904e-03
7.725809e+01	-1.078251e-03
7.770433e+01	-1.090742e-03
7.815315e+01	-1.103377e-03
7.860456e+01	-1.116158e-03
7.905857e+01	-1.129087e-03
7.951521e+01	-1.142166e-03
7.997449e+01	-1.155397e-03
8.043642e+01	-1.168781e-03
8.090102e+01	-1.182319e-03
8.136830e+01	-1.196015e-03
8.183828e+01	-1.209869e-03
8.231097e+01	-1.223884e-03
8.278640e+01	-1.238061e-03
8.326457e+01	-1.252402e-03
8.374550e+01	-1.266910e-03
8.422921e+01	-1.281585e-03
8.471572e+01	-1.296430e-03
8.520503e+01	-1.311447e-03
8.569717e+01	-1.326638e-03
8.619215e+01	-1.342006e-03
8.669000e+01	-1.357551e-03
8.719071e+01	-1.373276e-03
8.769432e+01	-1.389183e-03
8.820084e+01	-1.405274e-03
8.871029e+01	-1.421552e-03
8.922267e+01	-1.438019e-03
8.973802e+01	-1.454676e-03
9.025634e+01	-1.471526e-03
9.077766e+01	-1.488571e-03
9.130199e+01	-1.505813e-03
9.182935e+01	-1.523255e-03
9.235975e+01	-1.540900e-03
9.289321e+01	-1.558748e-03
9.342976e+01	-1.576803e-03
9.396941e+01	-1.595068e-03
9.451217e+01	-1.613544e-03
9.505807e+01	-1.632233e-03
9.560712e+01	-1.651140e-03
9.615934e+01	-1.670265e-03
9.671476e+01	-1.689612e-03
9.727338e+01	-1.709182e-03
9.783522e+01	-1.728980e-03
9.840032e+01	-1.749006e-03
9.896867e+01	-1.769265e-03
9.954031e+01	-1.789758e-03
1.001153e+02	-1.810489e-03
1.006935e+02	-1.831459e-03
1.012751e+02	-1.852673e-03
1.018601e+02	-1.874132e-03
1.024484e+02	-1.895839e-03
1.030402e+02	-1.917798e-03
1.036353e+02	-1.940011e-03
1.042339e+02	-1.962482e-03
1.048360e+02	-1.985213e-03
1.054415e+02	-2.008206e-03
1.060505e+02	-2.031467e-03
1.066631e+02	-2.054996e-03
1.072791e+02	-2.078798e-03
1.078988e+02	-2.102876e-03
1.085220e+02	-2.127232e-03
1.091488e+02	-2.151871e-03
1.097793e+02	-2.176794e-03
1.104133e+02	-2.202007e-03
1.110511e+02	-2.227511e-03
1.116925e+02	-2.253311e-03
1.123376e+02	-2.279409e-03
1.129865e+02	-2.305809e-03
1.136391e+02	-2.332516e-03
1.142955e+02	-2.359531e-03
1.149556e+02	-2.386859e-03
1.156196e+02	-2.414504e-03
1.162874e+02	-2.442469e-03
1.169591e+02	-2.470757e-03
1.176347e+02	-2.499374e-03
1.183141e+02	-2.528321e-03
1.189975e+02	-2.557604e-03
1.196848e+02	-2.587225e-03
1.203761e+02	-2.617190e-03
1.210714e+02	-2.647502e-03
1.217707e+02	-2.678164e-03
1.224740e+02	-2.709182e-03
1.231814e+02	-2.740558e-03
1.238929e+02	-2.772298e-03
1.246085e+02	-2.804406e-03
1.253283e+02	-2.836885e-03
1.260522e+02	-2.869740e-03
1.267802e+02	-2.902976e-03
1.275125e+02	-2.936596e-03
1.282490e+02	-2.970606e-03
1.289898e+02	-3.005009e-03
1.297348e+02	-3.039811e-03
1.304842e+02	-3.075015e-03
1.312378e+02	-3.110627e-03
1.319959e+02	-3.146652e-03
1.327583e+02	-3.183093e-03
1.335251e+02	-3.219956e-03
1.342963e+02	-3.257246e-03
1.350720e+02	-3.294968e-03
1.358522e+02	-3.333126e-03
1.366368e+02	-3.371726e-03
1.374260e+02	-3.410773e-03
1.382198e+02	-3.450272e-03
1.390182e+02	-3.490229e-03
1.398211e+02	-3.530647e-03
1.406287e+02	-3.571534e-03
1.414410e+02	-3.612894e-03
1.422579e+02	-3.654733e-03
1.430796e+02	-3.697056e-03
1.439060e+02	-3.739868e-03
1.447372e+02	-3.783177e-03
1.455732e+02	-3.826987e-03
1.464141e+02	-3.871304e-03
1.472597e+02	-3.916133e-03
1.481103e+02	-3.961482e-03
1.489658e+02	-4.007356e-03
1.498262e+02	-4.053760e-03
1.506916e+02	-4.100702e-03
1.515620e+02	-4.148187e-03
1.524374e+02	-4.196221e-03
1.533179e+02	-4.244812e-03
1.542034e+02	-4.293965e-03
1.550941e+02	-4.343686e-03
1.559899e+02	-4.393984e-03
1.568909e+02	-4.444863e-03
1.577971e+02	-4.496331e-03
1.587085e+02	-4.548395e-03
1.596252e+02	-4.601061e-03
1.605472e+02	-4.654337e-03
1.614745e+02	-4.708230e-03
1.624072e+02	-4.762746e-03
1.633453e+02	-4.817893e-03
1.642887e+02	-4.873678e-03
1.652377e+02	-4.930109e-03
1.661921e+02	-4.987192e-03
1.671520e+02	-5.044937e-03
1.681175e+02	-5.103349e-03
1.690885e+02	-5.162437e-03
1.700651e+02	-5.222210e-03
1.710474e+02	-5.282673e-03
1.720354e+02	-5.343837e-03
1.730291e+02	-5.405708e-03
1.740285e+02	-5.468295e-03
1.750337e+02	-5.531606e-03
1.760446e+02	-5.595650e-03
1.770615e+02	-5.660434e-03
1.780842e+02	-5.725969e-03
1.791128e+02	-5.792261e-03
1.801473e+02	-5.859321e-03
1.811878e+02	-5.927156e-03
1.822344e+02	-5.995776e-03
1.832870e+02	-6.065190e-03
1.843456e+02	-6.135407e-03
1.854104e+02	-6.206436e-03
1.864813e+02	-6.278287e-03
1.875584e+02	-6.350970e-03
1.886418e+02	-6.424493e-03
1.897313e+02	-6.498866e-03
1.908272e+02	-6.574100e-03
1.919294e+02	-6.650204e-03
1.930380e+02	-6.727189e-03
1.941530e+02	-6.805064e-03
1.952744e+02	-6.883840e-03
1.964023e+02	-6.963527e-03
1.975367e+02	-7.044135e-03
1.986777e+02	-7.125676e-03
1.998252e+02	-7.208160e-03
2.009794e+02	-7.291598e-03
2.021403e+02	-7.376001e-03
2.033078e+02	-7.461381e-03
2.044821e+02	-7.547747e-03
2.056632e+02	-7.635113e-03
2.068511e+02	-7.723489e-03
2.080459e+02	-7.812887e-03
2.092475e+02	-7.903318e-03
2.104561e+02	-7.994796e-03
2.116717e+02	-8.087331e-03
2.128943e+02	-8.180936e-03
2.141240e+02	-8.275624e-03
2.153608e+02	-8.371406e-03
2.166047e+02	-8.468297e-03
2.178558e+02	-8.566307e-03
2.191141e+02	-8.665450e-03
2.203797e+02	-8.765740e-03
2.216526e+02	-8.867190e-03
2.229329e+02	-8.969812e-03
2.242205e+02	-9.073620e-03
2.255156e+02	-9.178629e-03
2.268182e+02	-9.284852e-03
2.281283e+02	-9.392303e-03
2.294459e+02	-9.500996e-03
2.307712e+02	-9.610945e-03
2.321041e+02	-9.722165e-03
2.334447e+02	-9.834671e-03
2.347931e+02	-9.948477e-03
2.361493e+02	-1.006360e-02
2.375133e+02	-1.018005e-02
2.388851e+02	-1.029785e-02
2.402649e+02	-1.041701e-02
2.416527e+02	-1.053755e-02
2.430484e+02	-1.065948e-02
2.444523e+02	-1.078281e-02
2.458642e+02	-1.090758e-02
2.472843e+02	-1.103378e-02
2.487126e+02	-1.116145e-02
2.501492e+02	-1.129059e-02
2.515940e+02	-1.142122e-02
2.530472e+02	-1.155336e-02
2.545088e+02	-1.168703e-02
2.559789e+02	-1.182224e-02
2.574574e+02	-1.195902e-02
2.589444e+02	-1.209737e-02
2.604401e+02	-1.223732e-02
2.619444e+02	-1.237889e-02
2.634574e+02	-1.252210e-02
2.649791e+02	-1.266696e-02
2.665096e+02	-1.281349e-02
2.680489e+02	-1.296172e-02
2.695972e+02	-1.311165e-02
2.711544e+02	-1.326332e-02
2.727205e+02	-1.341674e-02
2.742958e+02	-1.357194e-02
2.758801e+02	-1.372892e-02
2.774736e+02	-1.388772e-02
2.790762e+02	-1.404835e-02
2.806882e+02	-1.421084e-02
2.823094e+02	-1.437520e-02
2.839400e+02	-1.454146e-02
2.855800e+02	-1.470964e-02
2.872295e+02	-1.487976e-02
2.888886e+02	-1.505185e-02
2.905572e+02	-1.522592e-02
2.922354e+02	-1.540200e-02
2.939234e+02	-1.558012e-02
2.956211e+02	-1.576029e-02
2.973286e+02	-1.594254e-02
2.990459e+02	-1.612690e-02
3.007732e+02	-1.631338e-02
3.025104e+02	-1.650201e-02
3.042577e+02	-1.669282e-02
3.060151e+02	-1.688584e-02
3.077826e+02	-1.708108e-02
3.095604e+02	-1.727857e-02
3.113484e+02	-1.747834e-02
3.131467e+02	-1.768042e-02
3.149554e+02	-1.788483e-02
3.167746e+02	-1.809160e-02
3.186043e+02	-1.830075e-02
3.204445e+02	-1.851232e-02
3.222954e+02	-1.872632e-02
3.241570e+02	-1.894280e-02
3.260293e+02	-1.916177e-02
3.279124e+02	-1.938326e-02
3.298064e+02	-1.960732e-02
3.317114e+02	-1.983395e-02
3.336273e+02	-2.006320e-02
3.355544e+02	-2.029509e-02
3.374925e+02	-2.052966e-02
3.394418e+02	-2.076693e-02
3.414024e+02	-2.100693e-02
3.433744e+02	-2.124971e-02
3.453577e+02	-2.149528e-02
3.473525e+02	-2.174368e-02
3.493588e+02	-2.199495e-02
3.513766e+02	-2.224911e-02
3.534062e+02	-2.250620e-02
3.554474e+02	-2.276626e-02
3.575005e+02	-2.302931e-02
3.595654e+02	-2.329539e-02
3.616422e+02	-2.356454e-02
3.637311e+02	-2.383679e-02
3.658320e+02	-2.411218e-02
3.679450e+02	-2.439073e-02
3.700702e+02	-2.467250e-02
3.722077e+02	-2.495752e-02
3.743576e+02	-2.524581e-02
3.765199e+02	-2.553743e-02
3.786946e+02	-2.583240e-02
3.808820e+02	-2.613077e-02
3.830819e+02	-2.643258e-02
3.852946e+02	-2.673786e-02
3.875200e+02	-2.704666e-02
3.897583e+02	-2.735901e-02
3.920096e+02	-2.767496e-02
3.942738e+02	-2.799455e-02
3.965511e+02	-2.831781e-02
3.988416e+02	-2.864480e-02
4.011452e+02	-2.897554e-02
4.034622e+02	-2.931009e-02
4.057926e+02	-2.964850e-02
4.081365e+02	-2.999079e-02
4.104938e+02	-3.033703e-02
4.128648e+02	-3.068724e-02
4.152495e+02	-3.104149e-02
4.176480e+02	-3.139981e-02
4.200603e+02	-3.176225e-02
4.224866e+02	-3.212886e-02
4.249268e+02	-3.249968e-02
4.273812e+02	-3.287477e-02
4.298497e+02	-3.325417e-02
4.323325e+02	-3.363793e-02
4.348297e+02	-3.402611e-02
4.373412e+02	-3.441874e-02
4.398673e+02	-3.481589e-02
4.424079e+02	-3.521760e-02
4.449633e+02	-3.562393e-02
4.475334e+02	-3.603492e-02
4.501183e+02	-3.645064e-02
4.527182e+02	-3.687113e-02
4.553330e+02	-3.729646e-02
4.579630e+02	-3.772666e-02
4.606082e+02	-3.816181e-02
4.632687e+02	-3.860196e-02
4.659445e+02	-3.904715e-02
4.686358e+02	-3.949746e-02
4.713426e+02	-3.995294e-02
4.740650e+02	-4.041365e-02
4.768032e+02	-4.087964e-02
4.795572e+02	-4.135098e-02
4.823271e+02	-4.182773e-02
4.851130e+02	-4.230995e-02
4.879150e+02	-4.279770e-02
4.907332e+02	-4.329105e-02
4.935676e+02	-4.379005e-02
4.964185e+02	-4.429478e-02
4.992858e+02	-4.480529e-02
5.021696e+02	-4.532166e-02
5.050701e+02	-4.584395e-02
5.079874e+02	-4.637222e-02
5.109215e+02	-4.690655e-02
5.138726e+02	-4.744700e-02
5.168407e+02	-4.799364e-02
5.198259e+02	-4.854655e-02
5.228284e+02	-4.910579e-02
5.258482e+02	-4.967143e-02
5.288855e+02	-5.024355e-02
5.319403e+02	-5.082222e-02
5.350128e+02	-5.140752e-02
5.381030e+02	-5.199952e-02
5.412111e+02	-5.259830e-02
5.443371e+02	-5.320392e-02
5.474812e+02	-5.381648e-02
5.506434e+02	-5.443604e-02
5.538239e+02	-5.506270e-02
5.570228e+02	-5.569652e-02
5.602401e+02	-5.633758e-02
5.634760e+02	-5.698598e-02
5.667306e+02	-5.764179e-02
5.700040e+02	-5.830510e-02
5.732964e+02	-5.897599e-02
5.766077e+02	-5.965454e-02
5.799382e+02	-6.034085e-02
5.832879e+02	-6.103500e-02
5.866569e+02	-6.173707e-02
5.900454e+02	-6.244717e-02
5.934535e+02	-6.316537e-02
5.968813e+02	-6.389177e-02
6.003288e+02	-6.462646e-02
6.037963e+02	-6.536954e-02
6.072838e+02	-6.612109e-02
6.107914e+02	-6.688122e-02
6.143194e+02	-6.765002e-02
6.178676e+02	-6.842758e-02
6.214364e+02	-6.921402e-02
6.250258e+02	-7.000941e-02
6.286359e+02	-7.081388e-02
6.322669e+02	-7.162751e-02
6.359189e+02	-7.245041e-02
6.395919e+02	-7.328268e-02
6.432862e+02	-7.412444e-02
6.470017e+02	-7.497577e-02
6.507388e+02	-7.583680e-02
6.544974e+02	-7.670764e-02
6.582778e+02	-7.758838e-02
6.620800e+02	-7.847914e-02
6.659041e+02	-7.938003e-02
6.697504e+02	-8.029118e-02
6.736188e+02	-8.121268e-02
6.775096e+02	-8.214465e-02
6.814229e+02	-8.308722e-02
6.853587e+02	-8.404050e-02
6.893173e+02	-8.500461e-02
6.932988e+02	-8.597967e-02
6.973033e+02	-8.696581e-02
7.013309e+02	-8.796314e-02
