Frequency(Hz)	Magnitude(dB)
1.000000e+01	-1.944030e+00
1.005776e+01	-1.962312e+00
1.011585e+01	-1.980324e+00
1.017428e+01	-1.998765e+00
1.023305e+01	-2.017219e+00
1.029215e+01	-2.035811e+00
1.035160e+01	-2.054756e+00
1.041139e+01	-2.073694e+00
1.047153e+01	-2.092668e+00
1.053201e+01	-2.111911e+00
1.059284e+01	-2.131145e+00
1.065403e+01	-2.150721e+00
1.071556e+01	-2.170212e+00
1.077746e+01	-2.189782e+00
1.083971e+01	-2.210137e+00
1.090232e+01	-2.229792e+00
1.096529e+01	-2.250039e+00
1.102862e+01	-2.270344e+00
1.109232e+01	-2.290974e+00
1.115639e+01	-2.311415e+00
1.122083e+01	-2.332359e+00
1.128564e+01	-2.353014e+00
1.135083e+01	-2.373962e+00
1.141639e+01	-2.395106e+00
1.148233e+01	-2.416452e+00
1.154865e+01	-2.437744e+00
1.161536e+01	-2.459319e+00
1.168245e+01	-2.480960e+00
1.174992e+01	-2.502799e+00
1.181779e+01	-2.524894e+00
1.188605e+01	-2.547229e+00
1.195470e+01	-2.569129e+00
1.202375e+01	-2.591666e+00
1.209320e+01	-2.614218e+00
1.216305e+01	-2.636847e+00
1.223330e+01	-2.659739e+00
1.230396e+01	-2.682697e+00
1.237503e+01	-2.705845e+00
1.244651e+01	-2.729075e+00
1.251840e+01	-2.752769e+00
1.259070e+01	-2.776187e+00
1.266343e+01	-2.799943e+00
1.273657e+01	-2.823596e+00
1.281014e+01	-2.847502e+00
1.288413e+01	-2.871766e+00
1.295855e+01	-2.896243e+00
1.303339e+01	-2.920435e+00
1.310867e+01	-2.945043e+00
1.318439e+01	-2.969937e+00
1.326054e+01	-2.994440e+00
1.333713e+01	-3.019589e+00
1.341417e+01	-3.044921e+00
1.349165e+01	-3.070155e+00
1.356958e+01	-3.095284e+00
1.364795e+01	-3.120936e+00
1.372678e+01	-3.146961e+00
1.380607e+01	-3.172665e+00
1.388581e+01	-3.198564e+00
1.396602e+01	-3.224808e+00
1.404668e+01	-3.251209e+00
1.412782e+01	-3.277566e+00
1.420942e+01	-3.303881e+00
1.429149e+01	-3.330708e+00
1.437404e+01	-3.357515e+00
1.445706e+01	-3.384492e+00
1.454057e+01	-3.411588e+00
1.462455e+01	-3.438936e+00
1.470902e+01	-3.466496e+00
1.479398e+01	-3.494070e+00
1.487943e+01	-3.522217e+00
1.496537e+01	-3.549689e+00
1.505181e+01	-3.577721e+00
1.513875e+01	-3.605624e+00
1.522619e+01	-3.634034e+00
1.531414e+01	-3.662612e+00
1.540259e+01	-3.691168e+00
1.549156e+01	-3.719973e+00
1.558103e+01	-3.748952e+00
1.567103e+01	-3.777821e+00
1.576155e+01	-3.806867e+00
1.585258e+01	-3.835835e+00
1.594415e+01	-3.865423e+00
1.603624e+01	-3.895086e+00
1.612886e+01	-3.924786e+00
1.622202e+01	-3.954630e+00
1.631572e+01	-3.984750e+00
1.640996e+01	-4.014687e+00
1.650474e+01	-4.044901e+00
1.660008e+01	-4.075044e+00
1.669596e+01	-4.105758e+00
1.679239e+01	-4.136622e+00
1.688938e+01	-4.167176e+00
1.698694e+01	-4.198071e+00
1.708505e+01	-4.229294e+00
1.718373e+01	-4.260623e+00
1.728299e+01	-4.291617e+00
1.738281e+01	-4.323358e+00
1.748322e+01	-4.354581e+00
1.758420e+01	-4.386710e+00
1.768576e+01	-4.418779e+00
1.778792e+01	-4.450832e+00
1.789066e+01	-4.482611e+00
1.799399e+01	-4.514908e+00
1.809793e+01	-4.547404e+00
1.820246e+01	-4.579756e+00
1.830760e+01	-4.612547e+00
1.841334e+01	-4.645300e+00
1.851969e+01	-4.678362e+00
1.862666e+01	-4.711066e+00
1.873425e+01	-4.744585e+00
1.884246e+01	-4.777519e+00
1.895129e+01	-4.811137e+00
1.906075e+01	-4.844721e+00
1.917085e+01	-4.878403e+00
1.928158e+01	-4.912675e+00
1.939295e+01	-4.946136e+00
1.950496e+01	-4.980528e+00
1.961762e+01	-5.014618e+00
1.973093e+01	-5.048801e+00
1.984490e+01	-5.083077e+00
1.995952e+01	-5.117924e+00
2.007480e+01	-5.152512e+00
2.019076e+01	-5.187103e+00
2.030738e+01	-5.222472e+00
2.042467e+01	-5.257303e+00
2.054264e+01	-5.292496e+00
2.066130e+01	-5.327561e+00
2.078064e+01	-5.362940e+00
2.090066e+01	-5.398609e+00
2.102139e+01	-5.434344e+00
2.114280e+01	-5.470175e+00
2.126492e+01	-5.506246e+00
2.138775e+01	-5.542306e+00
2.151128e+01	-5.578148e+00
2.163553e+01	-5.614492e+00
2.176050e+01	-5.650665e+00
2.188619e+01	-5.687190e+00
2.201260e+01	-5.723787e+00
2.213974e+01	-5.760551e+00
2.226762e+01	-5.797278e+00
2.239624e+01	-5.834046e+00
2.252560e+01	-5.871157e+00
2.265571e+01	-5.908536e+00
2.278656e+01	-5.945624e+00
2.291818e+01	-5.982651e+00
2.305055e+01	-6.020533e+00
2.318369e+01	-6.057706e+00
2.331760e+01	-6.095704e+00
2.345228e+01	-6.133747e+00
2.358774e+01	-6.171427e+00
2.372398e+01	-6.209574e+00
2.386101e+01	-6.247592e+00
2.399883e+01	-6.285763e+00
2.413745e+01	-6.323882e+00
2.427686e+01	-6.362196e+00
2.441709e+01	-6.400784e+00
2.455812e+01	-6.439818e+00
2.469997e+01	-6.478229e+00
2.484263e+01	-6.517043e+00
2.498612e+01	-6.555912e+00
2.513044e+01	-6.594705e+00
2.527559e+01	-6.634015e+00
2.542158e+01	-6.673585e+00
2.556842e+01	-6.712655e+00
2.571610e+01	-6.752255e+00
2.586463e+01	-6.791699e+00
2.601403e+01	-6.831038e+00
2.616428e+01	-6.871086e+00
2.631541e+01	-6.910517e+00
2.646740e+01	-6.950751e+00
2.662028e+01	-6.990648e+00
2.677404e+01	-7.030682e+00
2.692868e+01	-7.070777e+00
2.708422e+01	-7.110838e+00
2.724066e+01	-7.151312e+00
2.739800e+01	-7.191728e+00
2.755625e+01	-7.232672e+00
2.771541e+01	-7.272761e+00
2.787550e+01	-7.313625e+00
2.803650e+01	-7.354643e+00
2.819844e+01	-7.395413e+00
2.836131e+01	-7.436310e+00
2.852513e+01	-7.477358e+00
2.868989e+01	-7.518569e+00
2.885560e+01	-7.559806e+00
2.902227e+01	-7.600748e+00
2.918990e+01	-7.642489e+00
2.935850e+01	-7.683866e+00
2.952807e+01	-7.724687e+00
2.969863e+01	-7.767085e+00
2.987016e+01	-7.808590e+00
3.004269e+01	-7.849998e+00
3.021622e+01	-7.892357e+00
3.039075e+01	-7.934248e+00
3.056628e+01	-7.976124e+00
3.074283e+01	-8.018328e+00
3.092040e+01	-8.060549e+00
3.109900e+01	-8.102695e+00
3.127862e+01	-8.144964e+00
3.145929e+01	-8.187220e+00
3.164099e+01	-8.230077e+00
3.182375e+01	-8.272603e+00
3.200756e+01	-8.314824e+00
3.219244e+01	-8.357914e+00
3.237838e+01	-8.400750e+00
3.256540e+01	-8.443373e+00
3.275349e+01	-8.486191e+00
3.294268e+01	-8.529501e+00
3.313295e+01	-8.572383e+00
3.332433e+01	-8.615428e+00
3.351681e+01	-8.658599e+00
3.371040e+01	-8.702058e+00
3.390511e+01	-8.745198e+00
3.410094e+01	-8.788377e+00
3.429791e+01	-8.832115e+00
3.449601e+01	-8.875460e+00
3.469526e+01	-8.918991e+00
3.489566e+01	-8.962300e+00
3.509721e+01	-9.006510e+00
3.529993e+01	-9.050088e+00
3.550382e+01	-9.093997e+00
3.570889e+01	-9.138269e+00
3.591515e+01	-9.181715e+00
3.612259e+01	-9.225636e+00
3.633123e+01	-9.269956e+00
3.654108e+01	-9.313703e+00
3.675214e+01	-9.358117e+00
3.696442e+01	-9.402173e+00
3.717792e+01	-9.446772e+00
3.739266e+01	-9.490798e+00
3.760864e+01	-9.535218e+00
3.782587e+01	-9.580005e+00
3.804435e+01	-9.624325e+00
3.826409e+01	-9.669401e+00
3.848510e+01	-9.713718e+00
3.870739e+01	-9.758698e+00
3.893096e+01	-9.803382e+00
3.915583e+01	-9.848118e+00
3.938199e+01	-9.892993e+00
3.960946e+01	-9.937893e+00
3.983824e+01	-9.983048e+00
4.006834e+01	-1.002820e+01
4.029978e+01	-1.007284e+01
4.053255e+01	-1.011810e+01
4.076666e+01	-1.016348e+01
4.100213e+01	-1.020867e+01
4.123896e+01	-1.025365e+01
4.147715e+01	-1.029928e+01
4.171672e+01	-1.034480e+01
4.195767e+01	-1.038996e+01
4.220002e+01	-1.043517e+01
4.244377e+01	-1.048067e+01
4.268892e+01	-1.052650e+01
4.293549e+01	-1.057211e+01
4.318348e+01	-1.061771e+01
4.343291e+01	-1.066374e+01
4.368377e+01	-1.070891e+01
4.393609e+01	-1.075510e+01
4.418986e+01	-1.080136e+01
4.444510e+01	-1.084747e+01
4.470182e+01	-1.089257e+01
4.496001e+01	-1.093870e+01
4.521970e+01	-1.098492e+01
4.548089e+01	-1.103102e+01
4.574358e+01	-1.107707e+01
4.600779e+01	-1.112290e+01
4.627353e+01	-1.116968e+01
4.654081e+01	-1.121529e+01
4.680963e+01	-1.126203e+01
4.708000e+01	-1.130849e+01
4.735193e+01	-1.135409e+01
4.762543e+01	-1.140063e+01
4.790051e+01	-1.144738e+01
4.817719e+01	-1.149309e+01
4.845545e+01	-1.154015e+01
4.873533e+01	-1.158627e+01
4.901682e+01	-1.163295e+01
4.929994e+01	-1.167965e+01
4.958470e+01	-1.172661e+01
4.987110e+01	-1.177322e+01
5.015915e+01	-1.181887e+01
5.044887e+01	-1.186624e+01
5.074026e+01	-1.191363e+01
5.103333e+01	-1.195972e+01
5.132810e+01	-1.200715e+01
5.162457e+01	-1.205439e+01
5.192275e+01	-1.210111e+01
5.222265e+01	-1.214781e+01
5.252429e+01	-1.219512e+01
5.282767e+01	-1.224193e+01
5.313280e+01	-1.228950e+01
5.343969e+01	-1.233565e+01
5.374836e+01	-1.238391e+01
5.405880e+01	-1.243056e+01
5.437105e+01	-1.247777e+01
5.468509e+01	-1.252491e+01
5.500095e+01	-1.257225e+01
5.531863e+01	-1.261868e+01
5.563815e+01	-1.266658e+01
5.595951e+01	-1.271380e+01
5.628273e+01	-1.276139e+01
5.660782e+01	-1.280877e+01
5.693479e+01	-1.285592e+01
5.726364e+01	-1.290376e+01
5.759439e+01	-1.295103e+01
5.792705e+01	-1.299874e+01
5.826164e+01	-1.304625e+01
5.859815e+01	-1.309417e+01
5.893662e+01	-1.314074e+01
5.927703e+01	-1.318888e+01
5.961941e+01	-1.323568e+01
5.996377e+01	-1.328392e+01
6.031012e+01	-1.333220e+01
6.065847e+01	-1.338003e+01
6.100883e+01	-1.342697e+01
6.136121e+01	-1.347439e+01
6.171563e+01	-1.352296e+01
6.207210e+01	-1.357042e+01
6.243063e+01	-1.361850e+01
6.279122e+01	-1.366566e+01
6.315390e+01	-1.371438e+01
6.351868e+01	-1.376209e+01
6.388556e+01	-1.380979e+01
6.425456e+01	-1.385845e+01
6.462569e+01	-1.390543e+01
6.499897e+01	-1.395408e+01
6.537440e+01	-1.400198e+01
6.575200e+01	-1.405044e+01
6.613178e+01	-1.409920e+01
6.651375e+01	-1.414618e+01
6.689793e+01	-1.419460e+01
6.728433e+01	-1.424262e+01
6.767297e+01	-1.429100e+01
6.806384e+01	-1.433931e+01
6.845698e+01	-1.438671e+01
6.885238e+01	-1.443504e+01
6.925007e+01	-1.448286e+01
6.965005e+01	-1.453222e+01
7.005235e+01	-1.457992e+01
7.045697e+01	-1.462816e+01
7.086393e+01	-1.467662e+01
7.127323e+01	-1.472529e+01
7.168490e+01	-1.477307e+01
7.209895e+01	-1.482185e+01
7.251539e+01	-1.487036e+01
7.293424e+01	-1.491887e+01
7.335551e+01	-1.496755e+01
7.377920e+01	-1.501632e+01
7.420535e+01	-1.506485e+01
7.463396e+01	-1.511197e+01
7.506504e+01	-1.516046e+01
7.549861e+01	-1.520986e+01
7.593469e+01	-1.525809e+01
7.637328e+01	-1.530674e+01
7.681441e+01	-1.535461e+01
7.725809e+01	-1.540333e+01
7.770433e+01	-1.545265e+01
7.815315e+01	-1.549942e+01
7.860456e+01	-1.554975e+01
7.905857e+01	-1.559876e+01
7.951521e+01	-1.564715e+01
7.997449e+01	-1.569501e+01
8.043642e+01	-1.574389e+01
8.090102e+01	-1.579351e+01
8.136830e+01	-1.584157e+01
8.183828e+01	-1.588975e+01
8.231097e+01	-1.593923e+01
8.278640e+01	-1.598755e+01
8.326457e+01	-1.603616e+01
8.374550e+01	-1.608508e+01
8.422921e+01	-1.613494e+01
8.471572e+01	-1.618236e+01
8.520503e+01	-1.623145e+01
8.569717e+01	-1.628100e+01
8.619215e+01	-1.632852e+01
8.669000e+01	-1.637891e+01
8.719071e+01	-1.642737e+01
8.769432e+01	-1.647639e+01
8.820084e+01	-1.652525e+01
8.871029e+01	-1.657435e+01
8.922267e+01	-1.662232e+01
8.973802e+01	-1.667162e+01
9.025634e+01	-1.672121e+01
9.077766e+01	-1.676956e+01
9.130199e+01	-1.681914e+01
9.182935e+01	-1.686749e+01
9.235975e+01	-1.691727e+01
9.289321e+01	-1.696665e+01
9.342976e+01	-1.701428e+01
9.396941e+01	-1.706391e+01
9.451217e+01	-1.711398e+01
9.505807e+01	-1.716219e+01
9.560712e+01	-1.721225e+01
9.615934e+01	-1.725909e+01
9.671476e+01	-1.730981e+01
9.727338e+01	-1.735760e+01
9.783522e+01	-1.740723e+01
9.840032e+01	-1.745650e+01
9.896867e+01	-1.750610e+01
9.954031e+01	-1.755411e+01
1.001153e+02	-1.760373e+01
1.006935e+02	-1.765289e+01
1.012751e+02	-1.770198e+01
1.018601e+02	-1.775148e+01
1.024484e+02	-1.780119e+01
1.030402e+02	-1.784969e+01
1.036353e+02	-1.790058e+01
1.042339e+02	-1.794760e+01
1.048360e+02	-1.799858e+01
1.054415e+02	-1.804789e+01
1.060505e+02	-1.809471e+01
1.066631e+02	-1.814664e+01
1.072791e+02	-1.819516e+01
1.078988e+02	-1.824319e+01
1.085220e+02	-1.829396e+01
1.091488e+02	-1.834265e+01
1.097793e+02	-1.839296e+01
1.104133e+02	-1.844105e+01
1.110511e+02	-1.848954e+01
1.116925e+02	-1.853900e+01
1.123376e+02	-1.858892e+01
1.129865e+02	-1.863850e+01
1.136391e+02	-1.868807e+01
1.142955e+02	-1.873542e+01
1.149556e+02	-1.878583e+01
1.156196e+02	-1.883440e+01
1.162874e+02	-1.888466e+01
1.169591e+02	-1.893330e+01
1.176347e+02	-1.898510e+01
1.183141e+02	-1.903492e+01
1.189975e+02	-1.908360e+01
1.196848e+02	-1.913087e+01
1.203761e+02	-1.918159e+01
1.210714e+02	-1.923204e+01
1.217707e+02	-1.928145e+01
1.224740e+02	-1.932955e+01
1.231814e+02	-1.937996e+01
1.238929e+02	-1.942946e+01
1.246085e+02	-1.947835e+01
1.253283e+02	-1.952827e+01
1.260522e+02	-1.957716e+01
1.267802e+02	-1.962666e+01
1.275125e+02	-1.967722e+01
1.282490e+02	-1.972603e+01
1.289898e+02	-1.977533e+01
1.297348e+02	-1.982354e+01
1.304842e+02	-1.987509e+01
1.312378e+02	-1.992461e+01
1.319959e+02	-1.997312e+01
1.327583e+02	-2.002413e+01
1.335251e+02	-2.007181e+01
1.342963e+02	-2.012165e+01
1.350720e+02	-2.017110e+01
1.358522e+02	-2.022018e+01
1.366368e+02	-2.027211e+01
1.374260e+02	-2.031975e+01
1.382198e+02	-2.037040e+01
1.390182e+02	-2.042037e+01
1.398211e+02	-2.047054e+01
1.406287e+02	-2.051793e+01
1.414410e+02	-2.056646e+01
1.422579e+02	-2.061783e+01
1.430796e+02	-2.066798e+01
1.439060e+02	-2.071754e+01
1.447372e+02	-2.076756e+01
1.455732e+02	-2.081598e+01
1.464141e+02	-2.086612e+01
1.472597e+02	-2.091413e+01
1.481103e+02	-2.096525e+01
1.489658e+02	-2.101767e+01
1.498262e+02	-2.106459e+01
1.506916e+02	-2.111574e+01
1.515620e+02	-2.116319e+01
1.524374e+02	-2.121380e+01
1.533179e+02	-2.126399e+01
1.542034e+02	-2.131203e+01
1.550941e+02	-2.136088e+01
1.559899e+02	-2.141175e+01
1.568909e+02	-2.146294e+01
1.577971e+02	-2.151210e+01
1.587085e+02	-2.156115e+01
1.596252e+02	-2.160948e+01
1.605472e+02	-2.166090e+01
1.614745e+02	-2.171115e+01
1.624072e+02	-2.176046e+01
1.633453e+02	-2.180966e+01
1.642887e+02	-2.185849e+01
1.652377e+02	-2.190852e+01
1.661921e+02	-2.195669e+01
1.671520e+02	-2.200878e+01
1.681175e+02	-2.206109e+01
1.690885e+02	-2.210833e+01
1.700651e+02	-2.215985e+01
1.710474e+02	-2.220779e+01
1.720354e+02	-2.225728e+01
1.730291e+02	-2.230532e+01
1.740285e+02	-2.235627e+01
1.750337e+02	-2.240706e+01
1.760446e+02	-2.245665e+01
1.770615e+02	-2.250679e+01
1.780842e+02	-2.255347e+01
1.791128e+02	-2.260670e+01
1.801473e+02	-2.265487e+01
1.811878e+02	-2.270524e+01
1.822344e+02	-2.275463e+01
1.832870e+02	-2.280527e+01
1.843456e+02	-2.285584e+01
1.854104e+02	-2.290434e+01
1.864813e+02	-2.295621e+01
1.875584e+02	-2.300378e+01
1.886418e+02	-2.305378e+01
1.897313e+02	-2.310258e+01
1.908272e+02	-2.315209e+01
1.919294e+02	-2.320374e+01
1.930380e+02	-2.325270e+01
1.941530e+02	-2.330494e+01
1.952744e+02	-2.335376e+01
1.964023e+02	-2.340345e+01
1.975367e+02	-2.345104e+01
1.986777e+02	-2.350403e+01
1.998252e+02	-2.355027e+01
2.009794e+02	-2.360242e+01
2.021403e+02	-2.365264e+01
2.033078e+02	-2.369899e+01
2.044821e+02	-2.374984e+01
2.056632e+02	-2.380309e+01
2.068511e+02	-2.385097e+01
2.080459e+02	-2.390023e+01
2.092475e+02	-2.395033e+01
2.104561e+02	-2.400121e+01
2.116717e+02	-2.405013e+01
2.128943e+02	-2.410073e+01
2.141240e+02	-2.415042e+01
2.153608e+02	-2.420086e+01
2.166047e+02	-2.424900e+01
2.178558e+02	-2.430229e+01
2.191141e+02	-2.434852e+01
2.203797e+02	-2.440066e+01
2.216526e+02	-2.445184e+01
2.229329e+02	-2.449953e+01
2.242205e+02	-2.454992e+01
2.255156e+02	-2.460026e+01
2.268182e+02	-2.464974e+01
2.281283e+02	-2.469802e+01
2.294459e+02	-2.474973e+01
2.307712e+02	-2.479754e+01
2.321041e+02	-2.484915e+01
2.334447e+02	-2.490101e+01
2.347931e+02	-2.494817e+01
2.361493e+02	-2.499654e+01
2.375133e+02	-2.504858e+01
2.388851e+02	-2.509820e+01
2.402649e+02	-2.514917e+01
2.416527e+02	-2.519715e+01
2.430484e+02	-2.524546e+01
2.444523e+02	-2.529763e+01
2.458642e+02	-2.534969e+01
2.472843e+02	-2.539622e+01
2.487126e+02	-2.544637e+01
2.501492e+02	-2.549376e+01
2.515940e+02	-2.555116e+01
2.530472e+02	-2.559909e+01
2.545088e+02	-2.564889e+01
2.559789e+02	-2.569750e+01
2.574574e+02	-2.574539e+01
2.589444e+02	-2.579831e+01
2.604401e+02	-2.584645e+01
2.619444e+02	-2.589857e+01
2.634574e+02	-2.594669e+01
2.649791e+02	-2.599966e+01
2.665096e+02	-2.605046e+01
2.680489e+02	-2.609678e+01
2.695972e+02	-2.614641e+01
2.711544e+02	-2.619767e+01
2.727205e+02	-2.624818e+01
2.742958e+02	-2.629641e+01
2.758801e+02	-2.634635e+01
2.774736e+02	-2.639640e+01
2.790762e+02	-2.645087e+01
2.806882e+02	-2.649808e+01
2.823094e+02	-2.654348e+01
2.839400e+02	-2.659764e+01
2.855800e+02	-2.664638e+01
2.872295e+02	-2.669581e+01
2.888886e+02	-2.674564e+01
2.905572e+02	-2.679998e+01
2.922354e+02	-2.685322e+01
2.939234e+02	-2.689597e+01
2.956211e+02	-2.694435e+01
2.973286e+02	-2.699661e+01
2.990459e+02	-2.704527e+01
3.007732e+02	-2.709862e+01
3.025104e+02	-2.714701e+01
3.042577e+02	-2.719920e+01
3.060151e+02	-2.725121e+01
3.077826e+02	-2.729504e+01
3.095604e+02	-2.734828e+01
3.113484e+02	-2.739946e+01
3.131467e+02	-2.744763e+01
3.149554e+02	-2.749273e+01
3.167746e+02	-2.754591e+01
3.186043e+02	-2.759596e+01
3.204445e+02	-2.764781e+01
3.222954e+02	-2.769751e+01
3.241570e+02	-2.774765e+01
3.260293e+02	-2.779870e+01
3.279124e+02	-2.784739e+01
3.298064e+02	-2.789820e+01
3.317114e+02	-2.794717e+01
3.336273e+02	-2.799164e+01
3.355544e+02	-2.804436e+01
3.374925e+02	-2.809342e+01
3.394418e+02	-2.814472e+01
3.414024e+02	-2.819712e+01
3.433744e+02	-2.824508e+01
3.453577e+02	-2.829901e+01
3.473525e+02	-2.834490e+01
3.493588e+02	-2.839519e+01
3.513766e+02	-2.844628e+01
3.534062e+02	-2.849546e+01
3.554474e+02	-2.854713e+01
3.575005e+02	-2.859652e+01
3.595654e+02	-2.864845e+01
3.616422e+02	-2.869757e+01
3.637311e+02	-2.874586e+01
3.658320e+02	-2.879837e+01
3.679450e+02	-2.885046e+01
3.700702e+02	-2.889736e+01
3.722077e+02	-2.895023e+01
3.743576e+02	-2.899639e+01
3.765199e+02	-2.905252e+01
3.786946e+02	-2.909539e+01
3.808820e+02	-2.914629e+01
3.830819e+02	-2.919844e+01
3.852946e+02	-2.924666e+01
3.875200e+02	-2.930034e+01
3.897583e+02	-2.934840e+01
3.920096e+02	-2.939877e+01
3.942738e+02	-2.945528e+01
3.965511e+02	-2.949784e+01
3.988416e+02	-2.954713e+01
4.011452e+02	-2.959660e+01
4.034622e+02	-2.964977e+01
4.057926e+02	-2.969471e+01
4.081365e+02	-2.974516e+01
4.104938e+02	-2.980367e+01
4.128648e+02	-2.984523e+01
4.152495e+02	-2.990007e+01
4.176480e+02	-2.994427e+01
4.200603e+02	-3.000170e+01
4.224866e+02	-3.004415e+01
4.249268e+02	-3.010103e+01
4.273812e+02	-3.015374e+01
4.298497e+02	-3.020369e+01
4.323325e+02	-3.025218e+01
4.348297e+02	-3.029904e+01
4.373412e+02	-3.035466e+01
4.398673e+02	-3.039991e+01
4.424079e+02	-3.045076e+01
4.449633e+02	-3.049951e+01
4.475334e+02	-3.055425e+01
4.501183e+02	-3.060107e+01
4.527182e+02	-3.064993e+01
4.553330e+02	-3.070075e+01
4.579630e+02	-3.074946e+01
4.606082e+02	-3.079994e+01
4.632687e+02	-3.085005e+01
4.659445e+02	-3.090268e+01
4.686358e+02	-3.095059e+01
4.713426e+02	-3.100166e+01
4.740650e+02	-3.104679e+01
4.768032e+02	-3.110149e+01
4.795572e+02	-3.114919e+01
4.823271e+02	-3.120292e+01
4.851130e+02	-3.125677e+01
4.879150e+02	-3.130651e+01
4.907332e+02	-3.135874e+01
4.935676e+02	-3.140825e+01
4.964185e+02	-3.145292e+01
4.992858e+02	-3.149892e+01
5.021696e+02	-3.155161e+01
5.050701e+02	-3.160423e+01
5.079874e+02	-3.165506e+01
5.109215e+02	-3.170656e+01
5.138726e+02	-3.175569e+01
5.168407e+02	-3.180958e+01
5.198259e+02	-3.185276e+01
5.228284e+02	-3.190968e+01
5.258482e+02	-3.194893e+01
5.288855e+02	-3.200443e+01
5.319403e+02	-3.205462e+01
5.350128e+02	-3.210936e+01
5.381030e+02	-3.215644e+01
5.412111e+02	-3.220145e+01
5.443371e+02	-3.225446e+01
5.474812e+02	-3.230734e+01
5.506434e+02	-3.235997e+01
5.538239e+02	-3.241081e+01
5.570228e+02	-3.244674e+01
5.602401e+02	-3.250704e+01
5.634760e+02	-3.256014e+01
5.667306e+02	-3.261250e+01
5.700040e+02	-3.266385e+01
5.732964e+02	-3.270838e+01
5.766077e+02	-3.276007e+01
5.799382e+02	-3.280508e+01
5.832879e+02	-3.286597e+01
5.866569e+02	-3.290625e+01
5.900454e+02	-3.296076e+01
5.934535e+02	-3.301275e+01
5.968813e+02	-3.305492e+01
6.003288e+02	-3.311511e+01
6.037963e+02	-3.316547e+01
6.072838e+02	-3.320871e+01
6.107914e+02	-3.326646e+01
6.143194e+02	-3.331791e+01
6.178676e+02	-3.335477e+01
6.214364e+02	-3.340965e+01
6.250258e+02	-3.346005e+01
6.286359e+02	-3.351094e+01
6.322669e+02	-3.355788e+01
6.359189e+02	-3.362133e+01
6.395919e+02	-3.365860e+01
6.432862e+02	-3.372418e+01
6.470017e+02	-3.377113e+01
6.507388e+02	-3.381614e+01
6.544974e+02	-3.386499e+01
6.582778e+02	-3.391066e+01
6.620800e+02	-3.397253e+01
6.659041e+02	-3.400981e+01
6.697504e+02	-3.406744e+01
6.736188e+02	-3.411229e+01
6.775096e+02	-3.416673e+01
6.814229e+02	-3.421892e+01
6.853587e+02	-3.427331e+01
6.893173e+02	-3.431839e+01
6.932988e+02	-3.436289e+01
6.973033e+02	-3.442155e+01
7.013309e+02	-3.446573e+01
