Frequency(Hz)	Magnitude(dB)
1.000000e+01	-2.329260e+00
1.005776e+01	-2.349965e+00
1.011585e+01	-2.371003e+00
1.017428e+01	-2.392259e+00
1.023305e+01	-2.413289e+00
1.029215e+01	-2.434459e+00
1.035160e+01	-2.456050e+00
1.041139e+01	-2.477894e+00
1.047153e+01	-2.499792e+00
1.053201e+01	-2.521591e+00
1.059284e+01	-2.543961e+00
1.065403e+01	-2.566306e+00
1.071556e+01	-2.588599e+00
1.077746e+01	-2.610867e+00
1.083971e+01	-2.633635e+00
1.090232e+01	-2.656681e+00
1.096529e+01	-2.679666e+00
1.102862e+01	-2.702610e+00
1.109232e+01	-2.725751e+00
1.115639e+01	-2.749192e+00
1.122083e+01	-2.772574e+00
1.128564e+01	-2.796500e+00
1.135083e+01	-2.820210e+00
1.141639e+01	-2.844164e+00
1.148233e+01	-2.868245e+00
1.154865e+01	-2.892526e+00
1.161536e+01	-2.916967e+00
1.168245e+01	-2.941695e+00
1.174992e+01	-2.966362e+00
1.181779e+01	-2.991247e+00
1.188605e+01	-3.016064e+00
1.195470e+01	-3.040978e+00
1.202375e+01	-3.066471e+00
1.209320e+01	-3.091815e+00
1.216305e+01	-3.117275e+00
1.223330e+01	-3.143162e+00
1.230396e+01	-3.169154e+00
1.237503e+01	-3.194769e+00
1.244651e+01	-3.220972e+00
1.251840e+01	-3.247424e+00
1.259070e+01	-3.274000e+00
1.266343e+01	-3.300125e+00
1.273657e+01	-3.326996e+00
1.281014e+01	-3.353706e+00
1.288413e+01	-3.380573e+00
1.295855e+01	-3.407995e+00
1.303339e+01	-3.435353e+00
1.310867e+01	-3.462542e+00
1.318439e+01	-3.489945e+00
1.326054e+01	-3.517914e+00
1.333713e+01	-3.545851e+00
1.341417e+01	-3.573533e+00
1.349165e+01	-3.601623e+00
1.356958e+01	-3.630311e+00
1.364795e+01	-3.658482e+00
1.372678e+01	-3.686943e+00
1.380607e+01	-3.715599e+00
1.388581e+01	-3.744886e+00
1.396602e+01	-3.773504e+00
1.404668e+01	-3.802636e+00
1.412782e+01	-3.831739e+00
1.420942e+01	-3.861292e+00
1.429149e+01	-3.890620e+00
1.437404e+01	-3.920501e+00
1.445706e+01	-3.950333e+00
1.454057e+01	-3.980478e+00
1.462455e+01	-4.010015e+00
1.470902e+01	-4.040478e+00
1.479398e+01	-4.071037e+00
1.487943e+01	-4.101527e+00
1.496537e+01	-4.132178e+00
1.505181e+01	-4.162912e+00
1.513875e+01	-4.193868e+00
1.522619e+01	-4.224598e+00
1.531414e+01	-4.256007e+00
1.540259e+01	-4.287451e+00
1.549156e+01	-4.318469e+00
1.558103e+01	-4.350293e+00
1.567103e+01	-4.382187e+00
1.576155e+01	-4.414020e+00
1.585258e+01	-4.445826e+00
1.594415e+01	-4.478041e+00
1.603624e+01	-4.510364e+00
1.612886e+01	-4.542396e+00
1.622202e+01	-4.575173e+00
1.631572e+01	-4.607747e+00
1.640996e+01	-4.640649e+00
1.650474e+01	-4.673568e+00
1.660008e+01	-4.706575e+00
1.669596e+01	-4.739471e+00
1.679239e+01	-4.773058e+00
1.688938e+01	-4.806421e+00
1.698694e+01	-4.840020e+00
1.708505e+01	-4.873751e+00
1.718373e+01	-4.907412e+00
1.728299e+01	-4.941433e+00
1.738281e+01	-4.975181e+00
1.748322e+01	-5.009586e+00
1.758420e+01	-5.043939e+00
1.768576e+01	-5.078317e+00
1.778792e+01	-5.112644e+00
1.789066e+01	-5.147579e+00
1.799399e+01	-5.182239e+00
1.809793e+01	-5.217106e+00
1.820246e+01	-5.252505e+00
1.830760e+01	-5.287516e+00
1.841334e+01	-5.322502e+00
1.851969e+01	-5.358522e+00
1.862666e+01	-5.393724e+00
1.873425e+01	-5.429189e+00
1.884246e+01	-5.465142e+00
1.895129e+01	-5.501039e+00
1.906075e+01	-5.537021e+00
1.917085e+01	-5.572690e+00
1.928158e+01	-5.609564e+00
1.939295e+01	-5.645441e+00
1.950496e+01	-5.682029e+00
1.961762e+01	-5.718564e+00
1.973093e+01	-5.755478e+00
1.984490e+01	-5.791779e+00
1.995952e+01	-5.829090e+00
2.007480e+01	-5.866184e+00
2.019076e+01	-5.902941e+00
2.030738e+01	-5.940124e+00
2.042467e+01	-5.977448e+00
2.054264e+01	-6.015085e+00
2.066130e+01	-6.052252e+00
2.078064e+01	-6.090388e+00
2.090066e+01	-6.128100e+00
2.102139e+01	-6.165783e+00
2.114280e+01	-6.203465e+00
2.126492e+01	-6.241927e+00
2.138775e+01	-6.280105e+00
2.151128e+01	-6.318491e+00
2.163553e+01	-6.356844e+00
2.176050e+01	-6.395044e+00
2.188619e+01	-6.433859e+00
2.201260e+01	-6.472795e+00
2.213974e+01	-6.511612e+00
2.226762e+01	-6.550504e+00
2.239624e+01	-6.589830e+00
2.252560e+01	-6.628460e+00
2.265571e+01	-6.667905e+00
2.278656e+01	-6.707256e+00
2.291818e+01	-6.746388e+00
2.305055e+01	-6.785899e+00
2.318369e+01	-6.825544e+00
2.331760e+01	-6.864868e+00
2.345228e+01	-6.904899e+00
2.358774e+01	-6.944783e+00
2.372398e+01	-6.984667e+00
2.386101e+01	-7.024593e+00
2.399883e+01	-7.065086e+00
2.413745e+01	-7.105554e+00
2.427686e+01	-7.145432e+00
2.441709e+01	-7.186283e+00
2.455812e+01	-7.226255e+00
2.469997e+01	-7.266748e+00
2.484263e+01	-7.308259e+00
2.498612e+01	-7.348434e+00
2.513044e+01	-7.389376e+00
2.527559e+01	-7.430095e+00
2.542158e+01	-7.470916e+00
2.556842e+01	-7.512477e+00
2.571610e+01	-7.553409e+00
2.586463e+01	-7.595052e+00
2.601403e+01	-7.636185e+00
2.616428e+01	-7.677529e+00
2.631541e+01	-7.719442e+00
2.646740e+01	-7.760872e+00
2.662028e+01	-7.802727e+00
2.677404e+01	-7.844016e+00
2.692868e+01	-7.885697e+00
2.708422e+01	-7.928388e+00
2.724066e+01	-7.970227e+00
2.739800e+01	-8.011963e+00
2.755625e+01	-8.054536e+00
2.771541e+01	-8.096825e+00
2.787550e+01	-8.138830e+00
2.803650e+01	-8.181375e+00
2.819844e+01	-8.223520e+00
2.836131e+01	-8.266217e+00
2.852513e+01	-8.309004e+00
2.868989e+01	-8.351729e+00
2.885560e+01	-8.394215e+00
2.902227e+01	-8.437150e+00
2.918990e+01	-8.480052e+00
2.935850e+01	-8.523063e+00
2.952807e+01	-8.566062e+00
2.969863e+01	-8.609290e+00
2.987016e+01	-8.651850e+00
3.004269e+01	-8.695605e+00
3.021622e+01	-8.738858e+00
3.039075e+01	-8.782364e+00
3.056628e+01	-8.825792e+00
3.074283e+01	-8.869283e+00
3.092040e+01	-8.913122e+00
3.109900e+01	-8.956463e+00
3.127862e+01	-8.999896e+00
3.145929e+01	-9.043532e+00
3.164099e+01	-9.087989e+00
3.182375e+01	-9.131083e+00
3.200756e+01	-9.175736e+00
3.219244e+01	-9.219224e+00
3.237838e+01	-9.263371e+00
3.256540e+01	-9.307637e+00
3.275349e+01	-9.352101e+00
3.294268e+01	-9.395917e+00
3.313295e+01	-9.439919e+00
3.332433e+01	-9.484475e+00
3.351681e+01	-9.529559e+00
3.371040e+01	-9.573372e+00
3.390511e+01	-9.618602e+00
3.410094e+01	-9.662976e+00
3.429791e+01	-9.707741e+00
3.449601e+01	-9.751818e+00
3.469526e+01	-9.796772e+00
3.489566e+01	-9.841585e+00
3.509721e+01	-9.886551e+00
3.529993e+01	-9.931707e+00
3.550382e+01	-9.976551e+00
3.570889e+01	-1.002117e+01
3.591515e+01	-1.006584e+01
3.612259e+01	-1.011164e+01
3.633123e+01	-1.015639e+01
3.654108e+01	-1.020164e+01
3.675214e+01	-1.024777e+01
3.696442e+01	-1.029273e+01
3.717792e+01	-1.033827e+01
3.739266e+01	-1.038301e+01
3.760864e+01	-1.042838e+01
3.782587e+01	-1.047437e+01
3.804435e+01	-1.051990e+01
3.826409e+01	-1.056518e+01
3.848510e+01	-1.061086e+01
3.870739e+01	-1.065645e+01
3.893096e+01	-1.070224e+01
3.915583e+01	-1.074848e+01
3.938199e+01	-1.079437e+01
3.960946e+01	-1.084065e+01
3.983824e+01	-1.088648e+01
4.006834e+01	-1.093237e+01
4.029978e+01	-1.097798e+01
4.053255e+01	-1.102419e+01
4.076666e+01	-1.107055e+01
4.100213e+01	-1.111611e+01
4.123896e+01	-1.116293e+01
4.147715e+01	-1.120975e+01
4.171672e+01	-1.125498e+01
4.195767e+01	-1.130137e+01
4.220002e+01	-1.134775e+01
4.244377e+01	-1.139372e+01
4.268892e+01	-1.144078e+01
4.293549e+01	-1.148663e+01
4.318348e+01	-1.153311e+01
4.343291e+01	-1.158067e+01
4.368377e+01	-1.162690e+01
4.393609e+01	-1.167320e+01
4.418986e+01	-1.171968e+01
4.444510e+01	-1.176677e+01
4.470182e+01	-1.181321e+01
4.496001e+01	-1.185973e+01
4.521970e+01	-1.190659e+01
4.548089e+01	-1.195331e+01
4.574358e+01	-1.200050e+01
4.600779e+01	-1.204757e+01
4.627353e+01	-1.209468e+01
4.654081e+01	-1.214135e+01
4.680963e+01	-1.218812e+01
4.708000e+01	-1.223573e+01
4.735193e+01	-1.228202e+01
4.762543e+01	-1.232947e+01
4.790051e+01	-1.237662e+01
4.817719e+01	-1.242387e+01
4.845545e+01	-1.247048e+01
4.873533e+01	-1.251824e+01
4.901682e+01	-1.256551e+01
4.929994e+01	-1.261270e+01
4.958470e+01	-1.266068e+01
4.987110e+01	-1.270713e+01
5.015915e+01	-1.275514e+01
5.044887e+01	-1.280248e+01
5.074026e+01	-1.284898e+01
5.103333e+01	-1.289600e+01
5.132810e+01	-1.294330e+01
5.162457e+01	-1.299160e+01
5.192275e+01	-1.303899e+01
5.222265e+01	-1.308722e+01
5.252429e+01	-1.313439e+01
5.282767e+01	-1.318199e+01
5.313280e+01	-1.322969e+01
5.343969e+01	-1.327808e+01
5.374836e+01	-1.332478e+01
5.405880e+01	-1.337235e+01
5.437105e+01	-1.341939e+01
5.468509e+01	-1.346846e+01
5.500095e+01	-1.351602e+01
5.531863e+01	-1.356469e+01
5.563815e+01	-1.361127e+01
5.595951e+01	-1.365987e+01
5.628273e+01	-1.370717e+01
5.660782e+01	-1.375537e+01
5.693479e+01	-1.380322e+01
5.726364e+01	-1.385104e+01
5.759439e+01	-1.389912e+01
5.792705e+01	-1.394641e+01
5.826164e+01	-1.399490e+01
5.859815e+01	-1.404367e+01
5.893662e+01	-1.409171e+01
5.927703e+01	-1.413924e+01
5.961941e+01	-1.418712e+01
5.996377e+01	-1.423551e+01
6.031012e+01	-1.428355e+01
6.065847e+01	-1.433144e+01
6.100883e+01	-1.438021e+01
6.136121e+01	-1.442812e+01
6.171563e+01	-1.447643e+01
6.207210e+01	-1.452504e+01
6.243063e+01	-1.457270e+01
6.279122e+01	-1.462162e+01
6.315390e+01	-1.466918e+01
6.351868e+01	-1.471825e+01
6.388556e+01	-1.476680e+01
6.425456e+01	-1.481510e+01
6.462569e+01	-1.486272e+01
6.499897e+01	-1.491219e+01
6.537440e+01	-1.495995e+01
6.575200e+01	-1.500798e+01
6.613178e+01	-1.505688e+01
6.651375e+01	-1.510578e+01
6.689793e+01	-1.515355e+01
6.728433e+01	-1.520198e+01
6.767297e+01	-1.525118e+01
6.806384e+01	-1.529889e+01
6.845698e+01	-1.534789e+01
6.885238e+01	-1.539643e+01
6.925007e+01	-1.544511e+01
6.965005e+01	-1.549385e+01
7.005235e+01	-1.554270e+01
7.045697e+01	-1.559133e+01
7.086393e+01	-1.563900e+01
7.127323e+01	-1.568885e+01
7.168490e+01	-1.573626e+01
7.209895e+01	-1.578679e+01
7.251539e+01	-1.583454e+01
7.293424e+01	-1.588230e+01
7.335551e+01	-1.593230e+01
7.377920e+01	-1.598020e+01
7.420535e+01	-1.602962e+01
7.463396e+01	-1.607736e+01
7.506504e+01	-1.612649e+01
7.549861e+01	-1.617585e+01
7.593469e+01	-1.622523e+01
7.637328e+01	-1.627394e+01
7.681441e+01	-1.632225e+01
7.725809e+01	-1.637212e+01
7.770433e+01	-1.642022e+01
7.815315e+01	-1.646893e+01
7.860456e+01	-1.651834e+01
7.905857e+01	-1.656664e+01
7.951521e+01	-1.661663e+01
7.997449e+01	-1.666432e+01
8.043642e+01	-1.671391e+01
8.090102e+01	-1.676309e+01
8.136830e+01	-1.681137e+01
8.183828e+01	-1.686117e+01
8.231097e+01	-1.690943e+01
8.278640e+01	-1.695937e+01
8.326457e+01	-1.700764e+01
8.374550e+01	-1.705625e+01
8.422921e+01	-1.710486e+01
8.471572e+01	-1.715474e+01
8.520503e+01	-1.720371e+01
8.569717e+01	-1.725373e+01
8.619215e+01	-1.730311e+01
8.669000e+01	-1.735133e+01
8.719071e+01	-1.740141e+01
8.769432e+01	-1.744989e+01
8.820084e+01	-1.749813e+01
8.871029e+01	-1.754799e+01
8.922267e+01	-1.759703e+01
8.973802e+01	-1.764579e+01
9.025634e+01	-1.769590e+01
9.077766e+01	-1.774443e+01
9.130199e+01	-1.779250e+01
9.182935e+01	-1.784215e+01
9.235975e+01	-1.789148e+01
9.289321e+01	-1.794172e+01
9.342976e+01	-1.799184e+01
9.396941e+01	-1.804004e+01
9.451217e+01	-1.808909e+01
9.505807e+01	-1.813808e+01
9.560712e+01	-1.818663e+01
9.615934e+01	-1.823578e+01
9.671476e+01	-1.828576e+01
9.727338e+01	-1.833553e+01
9.783522e+01	-1.838514e+01
9.840032e+01	-1.843368e+01
9.896867e+01	-1.848260e+01
9.954031e+01	-1.853292e+01
1.001153e+02	-1.858261e+01
1.006935e+02	-1.863169e+01
1.012751e+02	-1.868159e+01
1.018601e+02	-1.872972e+01
1.024484e+02	-1.878068e+01
1.030402e+02	-1.882828e+01
1.036353e+02	-1.887826e+01
1.042339e+02	-1.892684e+01
1.048360e+02	-1.897752e+01
1.054415e+02	-1.902653e+01
1.060505e+02	-1.907499e+01
1.066631e+02	-1.912582e+01
1.072791e+02	-1.917518e+01
1.078988e+02	-1.922391e+01
1.085220e+02	-1.927295e+01
1.091488e+02	-1.932464e+01
1.097793e+02	-1.937279e+01
1.104133e+02	-1.942052e+01
1.110511e+02	-1.947246e+01
1.116925e+02	-1.952128e+01
1.123376e+02	-1.957095e+01
1.129865e+02	-1.961869e+01
1.136391e+02	-1.966982e+01
1.142955e+02	-1.971958e+01
1.149556e+02	-1.976888e+01
1.156196e+02	-1.981863e+01
1.162874e+02	-1.986707e+01
1.169591e+02	-1.991477e+01
1.176347e+02	-1.996661e+01
1.183141e+02	-2.001628e+01
1.189975e+02	-2.006537e+01
1.196848e+02	-2.011563e+01
1.203761e+02	-2.016501e+01
1.210714e+02	-2.021477e+01
1.217707e+02	-2.026513e+01
1.224740e+02	-2.031248e+01
1.231814e+02	-2.036245e+01
1.238929e+02	-2.041347e+01
1.246085e+02	-2.046316e+01
1.253283e+02	-2.051081e+01
1.260522e+02	-2.056143e+01
1.267802e+02	-2.061135e+01
1.275125e+02	-2.066021e+01
1.282490e+02	-2.071058e+01
1.289898e+02	-2.076191e+01
1.297348e+02	-2.081006e+01
1.304842e+02	-2.085947e+01
1.312378e+02	-2.091039e+01
1.319959e+02	-2.095823e+01
1.327583e+02	-2.100725e+01
1.335251e+02	-2.105576e+01
1.342963e+02	-2.110666e+01
1.350720e+02	-2.115542e+01
1.358522e+02	-2.120786e+01
1.366368e+02	-2.125553e+01
1.374260e+02	-2.130512e+01
1.382198e+02	-2.135540e+01
1.390182e+02	-2.140696e+01
1.398211e+02	-2.145384e+01
1.406287e+02	-2.150588e+01
1.414410e+02	-2.155489e+01
1.422579e+02	-2.160438e+01
1.430796e+02	-2.165279e+01
1.439060e+02	-2.170256e+01
1.447372e+02	-2.175244e+01
1.455732e+02	-2.180272e+01
1.464141e+02	-2.185037e+01
1.472597e+02	-2.190250e+01
1.481103e+02	-2.195127e+01
1.489658e+02	-2.200014e+01
1.498262e+02	-2.205184e+01
1.506916e+02	-2.210099e+01
1.515620e+02	-2.215089e+01
1.524374e+02	-2.220118e+01
1.533179e+02	-2.225137e+01
1.542034e+02	-2.230067e+01
1.550941e+02	-2.234881e+01
1.559899e+02	-2.239939e+01
1.568909e+02	-2.245105e+01
1.577971e+02	-2.249935e+01
1.587085e+02	-2.255140e+01
1.596252e+02	-2.259764e+01
1.605472e+02	-2.264809e+01
1.614745e+02	-2.269703e+01
1.624072e+02	-2.274715e+01
1.633453e+02	-2.279636e+01
1.642887e+02	-2.284816e+01
1.652377e+02	-2.289759e+01
1.661921e+02	-2.294688e+01
1.671520e+02	-2.299658e+01
1.681175e+02	-2.304920e+01
1.690885e+02	-2.309743e+01
1.700651e+02	-2.314697e+01
1.710474e+02	-2.319407e+01
1.720354e+02	-2.324601e+01
1.730291e+02	-2.329685e+01
1.740285e+02	-2.334561e+01
1.750337e+02	-2.339497e+01
1.760446e+02	-2.344540e+01
1.770615e+02	-2.349383e+01
1.780842e+02	-2.354409e+01
1.791128e+02	-2.359487e+01
1.801473e+02	-2.364455e+01
1.811878e+02	-2.369441e+01
1.822344e+02	-2.374466e+01
1.832870e+02	-2.379379e+01
1.843456e+02	-2.384324e+01
1.854104e+02	-2.389398e+01
1.864813e+02	-2.394330e+01
1.875584e+02	-2.399381e+01
1.886418e+02	-2.404534e+01
1.897313e+02	-2.409363e+01
1.908272e+02	-2.414638e+01
1.919294e+02	-2.419320e+01
1.930380e+02	-2.424400e+01
1.941530e+02	-2.429305e+01
1.952744e+02	-2.433923e+01
1.964023e+02	-2.439318e+01
1.975367e+02	-2.444167e+01
1.986777e+02	-2.449144e+01
1.998252e+02	-2.454125e+01
2.009794e+02	-2.459203e+01
2.021403e+02	-2.464128e+01
2.033078e+02	-2.468875e+01
2.044821e+02	-2.474120e+01
2.056632e+02	-2.479262e+01
2.068511e+02	-2.484037e+01
2.080459e+02	-2.489210e+01
2.092475e+02	-2.494368e+01
2.104561e+02	-2.499059e+01
2.116717e+02	-2.504003e+01
2.128943e+02	-2.508895e+01
2.141240e+02	-2.513845e+01
2.153608e+02	-2.518932e+01
2.166047e+02	-2.523856e+01
2.178558e+02	-2.528967e+01
2.191141e+02	-2.534146e+01
2.203797e+02	-2.538767e+01
2.216526e+02	-2.544125e+01
2.229329e+02	-2.549048e+01
2.242205e+02	-2.553839e+01
2.255156e+02	-2.558690e+01
2.268182e+02	-2.563738e+01
2.281283e+02	-2.569082e+01
2.294459e+02	-2.574021e+01
2.307712e+02	-2.579116e+01
2.321041e+02	-2.583655e+01
2.334447e+02	-2.589119e+01
2.347931e+02	-2.594039e+01
2.361493e+02	-2.598639e+01
2.375133e+02	-2.604036e+01
2.388851e+02	-2.609081e+01
2.402649e+02	-2.613650e+01
2.416527e+02	-2.619027e+01
2.430484e+02	-2.623820e+01
2.444523e+02	-2.628897e+01
2.458642e+02	-2.634181e+01
2.472843e+02	-2.639073e+01
2.487126e+02	-2.643864e+01
2.501492e+02	-2.648646e+01
2.515940e+02	-2.653759e+01
2.530472e+02	-2.659017e+01
2.545088e+02	-2.663516e+01
2.559789e+02	-2.668970e+01
2.574574e+02	-2.673713e+01
2.589444e+02	-2.678839e+01
2.604401e+02	-2.683905e+01
2.619444e+02	-2.688690e+01
2.634574e+02	-2.693560e+01
2.649791e+02	-2.698949e+01
2.665096e+02	-2.703832e+01
2.680489e+02	-2.708893e+01
2.695972e+02	-2.713357e+01
2.711544e+02	-2.719138e+01
2.727205e+02	-2.724085e+01
2.742958e+02	-2.728848e+01
2.758801e+02	-2.734033e+01
2.774736e+02	-2.738967e+01
2.790762e+02	-2.743662e+01
2.806882e+02	-2.748602e+01
2.823094e+02	-2.753852e+01
2.839400e+02	-2.758719e+01
2.855800e+02	-2.763735e+01
2.872295e+02	-2.768633e+01
2.888886e+02	-2.773924e+01
2.905572e+02	-2.778859e+01
2.922354e+02	-2.783655e+01
2.939234e+02	-2.788652e+01
2.956211e+02	-2.794153e+01
2.973286e+02	-2.798951e+01
2.990459e+02	-2.803809e+01
3.007732e+02	-2.809170e+01
3.025104e+02	-2.813867e+01
3.042577e+02	-2.818503e+01
3.060151e+02	-2.823738e+01
3.077826e+02	-2.829110e+01
3.095604e+02	-2.834132e+01
3.113484e+02	-2.838622e+01
3.131467e+02	-2.843633e+01
3.149554e+02	-2.848798e+01
3.167746e+02	-2.853994e+01
3.186043e+02	-2.858583e+01
3.204445e+02	-2.864085e+01
3.222954e+02	-2.868882e+01
3.241570e+02	-2.873985e+01
3.260293e+02	-2.878719e+01
3.279124e+02	-2.883672e+01
3.298064e+02	-2.888974e+01
3.317114e+02	-2.893630e+01
3.336273e+02	-2.899007e+01
3.355544e+02	-2.903884e+01
3.374925e+02	-2.909028e+01
3.394418e+02	-2.914089e+01
3.414024e+02	-2.918672e+01
3.433744e+02	-2.923671e+01
3.453577e+02	-2.928712e+01
3.473525e+02	-2.933464e+01
3.493588e+02	-2.939092e+01
3.513766e+02	-2.943704e+01
3.534062e+02	-2.949621e+01
3.554474e+02	-2.953952e+01
3.575005e+02	-2.958791e+01
3.595654e+02	-2.964271e+01
3.616422e+02	-2.969301e+01
3.637311e+02	-2.973612e+01
3.658320e+02	-2.978967e+01
3.679450e+02	-2.984134e+01
3.700702e+02	-2.989127e+01
3.722077e+02	-2.994152e+01
3.743576e+02	-2.999329e+01
3.765199e+02	-3.003906e+01
3.786946e+02	-3.008777e+01
3.808820e+02	-3.014013e+01
3.830819e+02	-3.019118e+01
3.852946e+02	-3.023673e+01
3.875200e+02	-3.029258e+01
3.897583e+02	-3.034046e+01
3.920096e+02	-3.038487e+01
3.942738e+02	-3.043519e+01
3.965511e+02	-3.048909e+01
3.988416e+02	-3.053897e+01
4.011452e+02	-3.058957e+01
4.034622e+02	-3.063772e+01
4.057926e+02	-3.068713e+01
4.081365e+02	-3.074400e+01
4.104938e+02	-3.079455e+01
4.128648e+02	-3.084516e+01
4.152495e+02	-3.089126e+01
4.176480e+02	-3.094250e+01
4.200603e+02	-3.098696e+01
4.224866e+02	-3.103995e+01
4.249268e+02	-3.109566e+01
4.273812e+02	-3.114092e+01
4.298497e+02	-3.118929e+01
4.323325e+02	-3.124253e+01
4.348297e+02	-3.129251e+01
4.373412e+02	-3.134335e+01
4.398673e+02	-3.139335e+01
4.424079e+02	-3.145254e+01
4.449633e+02	-3.148519e+01
4.475334e+02	-3.154235e+01
4.501183e+02	-3.158948e+01
4.527182e+02	-3.164280e+01
4.553330e+02	-3.169218e+01
4.579630e+02	-3.174675e+01
4.606082e+02	-3.179334e+01
4.632687e+02	-3.184647e+01
4.659445e+02	-3.189756e+01
4.686358e+02	-3.194438e+01
4.713426e+02	-3.200167e+01
4.740650e+02	-3.204986e+01
4.768032e+02	-3.209476e+01
4.795572e+02	-3.214921e+01
4.823271e+02	-3.219709e+01
4.851130e+02	-3.223993e+01
4.879150e+02	-3.229428e+01
4.907332e+02	-3.234939e+01
4.935676e+02	-3.239583e+01
4.964185e+02	-3.244968e+01
4.992858e+02	-3.250200e+01
5.021696e+02	-3.254321e+01
5.050701e+02	-3.259575e+01
5.079874e+02	-3.264448e+01
5.109215e+02	-3.269777e+01
5.138726e+02	-3.274643e+01
5.168407e+02	-3.279041e+01
5.198259e+02	-3.285612e+01
5.228284e+02	-3.289864e+01
5.258482e+02	-3.295163e+01
5.288855e+02	-3.299991e+01
5.319403e+02	-3.305247e+01
5.350128e+02	-3.309797e+01
5.381030e+02	-3.315357e+01
5.412111e+02	-3.319904e+01
5.443371e+02	-3.324908e+01
5.474812e+02	-3.330147e+01
5.506434e+02	-3.335258e+01
5.538239e+02	-3.340423e+01
5.570228e+02	-3.345098e+01
5.602401e+02	-3.350911e+01
5.634760e+02	-3.355458e+01
5.667306e+02	-3.358998e+01
5.700040e+02	-3.365597e+01
5.732964e+02	-3.369947e+01
5.766077e+02	-3.375211e+01
5.799382e+02	-3.380531e+01
5.832879e+02	-3.384888e+01
5.866569e+02	-3.390914e+01
5.900454e+02	-3.395742e+01
5.934535e+02	-3.400764e+01
5.968813e+02	-3.405175e+01
6.003288e+02	-3.410732e+01
6.037963e+02	-3.415612e+01
6.072838e+02	-3.419608e+01
6.107914e+02	-3.425251e+01
6.143194e+02	-3.430568e+01
6.178676e+02	-3.435724e+01
6.214364e+02	-3.440003e+01
6.250258e+02	-3.445665e+01
6.286359e+02	-3.450981e+01
6.322669e+02	-3.455745e+01
6.359189e+02	-3.460629e+01
6.395919e+02	-3.465656e+01
6.432862e+02	-3.471185e+01
6.470017e+02	-3.475901e+01
6.507388e+02	-3.480986e+01
6.544974e+02	-3.485176e+01
6.582778e+02	-3.490969e+01
6.620800e+02	-3.495571e+01
6.659041e+02	-3.501374e+01
6.697504e+02	-3.506056e+01
6.736188e+02	-3.509748e+01
6.775096e+02	-3.516216e+01
6.814229e+02	-3.520534e+01
6.853587e+02	-3.525908e+01
6.893173e+02	-3.530278e+01
6.932988e+02	-3.537137e+01
6.973033e+02	-3.541571e+01
7.013309e+02	-3.546204e+01
