Frequency(Hz)	Magnitude(dB)
1.000000e+01	-1.618970e-05
1.005776e+01	-1.637726e-05
1.011585e+01	-1.656699e-05
1.017428e+01	-1.675892e-05
1.023305e+01	-1.695308e-05
1.029215e+01	-1.714949e-05
1.035160e+01	-1.734817e-05
1.041139e+01	-1.754915e-05
1.047153e+01	-1.775246e-05
1.053201e+01	-1.795813e-05
1.059284e+01	-1.816618e-05
1.065403e+01	-1.837664e-05
1.071556e+01	-1.858954e-05
1.077746e+01	-1.880490e-05
1.083971e+01	-1.902276e-05
1.090232e+01	-1.924314e-05
1.096529e+01	-1.946608e-05
1.102862e+01	-1.969160e-05
1.109232e+01	-1.991973e-05
1.115639e+01	-2.015051e-05
1.122083e+01	-2.038396e-05
1.128564e+01	-2.062011e-05
1.135083e+01	-2.085900e-05
1.141639e+01	-2.110066e-05
1.148233e+01	-2.134511e-05
1.154865e+01	-2.159240e-05
1.161536e+01	-2.184255e-05
1.168245e+01	-2.209561e-05
1.174992e+01	-2.235159e-05
1.181779e+01	-2.261054e-05
1.188605e+01	-2.287249e-05
1.195470e+01	-2.313747e-05
1.202375e+01	-2.340552e-05
1.209320e+01	-2.367668e-05
1.216305e+01	-2.395098e-05
1.223330e+01	-2.422846e-05
1.230396e+01	-2.450915e-05
1.237503e+01	-2.479310e-05
1.244651e+01	-2.508033e-05
1.251840e+01	-2.537089e-05
1.259070e+01	-2.566482e-05
1.266343e+01	-2.596215e-05
1.273657e+01	-2.626293e-05
1.281014e+01	-2.656719e-05
1.288413e+01	-2.687498e-05
1.295855e+01	-2.718634e-05
1.303339e+01	-2.750130e-05
1.310867e+01	-2.781991e-05
1.318439e+01	-2.814221e-05
1.326054e+01	-2.846824e-05
1.333713e+01	-2.879805e-05
1.341417e+01	-2.913168e-05
1.349165e+01	-2.946918e-05
1.356958e+01	-2.981059e-05
1.364795e+01	-3.015595e-05
1.372678e+01	-3.050532e-05
1.380607e+01	-3.085873e-05
1.388581e+01	-3.121623e-05
1.396602e+01	-3.157788e-05
1.404668e+01	-3.194372e-05
1.412782e+01	-3.231379e-05
1.420942e+01	-3.268816e-05
1.429149e+01	-3.306686e-05
1.437404e+01	-3.344994e-05
1.445706e+01	-3.383747e-05
1.454057e+01	-3.422948e-05
1.462455e+01	-3.462604e-05
1.470902e+01	-3.502719e-05
1.479398e+01	-3.543299e-05
1.487943e+01	-3.584349e-05
1.496537e+01	-3.625874e-05
1.505181e+01	-3.667881e-05
1.513875e+01	-3.710374e-05
1.522619e+01	-3.753360e-05
1.531414e+01	-3.796843e-05
1.540259e+01	-3.840831e-05
1.549156e+01	-3.885327e-05
1.558103e+01	-3.930340e-05
1.567103e+01	-3.975874e-05
1.576155e+01	-4.021935e-05
1.585258e+01	-4.068530e-05
1.594415e+01	-4.115665e-05
1.603624e+01	-4.163346e-05
1.612886e+01	-4.211579e-05
1.622202e+01	-4.260371e-05
1.631572e+01	-4.309729e-05
1.640996e+01	-4.359658e-05
1.650474e+01	-4.410165e-05
1.660008e+01	-4.461258e-05
1.669596e+01	-4.512943e-05
1.679239e+01	-4.565226e-05
1.688938e+01	-4.618115e-05
1.698694e+01	-4.671617e-05
1.708505e+01	-4.725739e-05
1.718373e+01	-4.780488e-05
1.728299e+01	-4.835871e-05
1.738281e+01	-4.891895e-05
1.748322e+01	-4.948569e-05
1.758420e+01	-5.005899e-05
1.768576e+01	-5.063893e-05
1.778792e+01	-5.122560e-05
1.789066e+01	-5.181906e-05
1.799399e+01	-5.241939e-05
1.809793e+01	-5.302668e-05
1.820246e+01	-5.364101e-05
1.830760e+01	-5.426245e-05
1.841334e+01	-5.489109e-05
1.851969e+01	-5.552701e-05
1.862666e+01	-5.617031e-05
1.873425e+01	-5.682105e-05
1.884246e+01	-5.747933e-05
1.895129e+01	-5.814524e-05
1.906075e+01	-5.881887e-05
1.917085e+01	-5.950030e-05
1.928158e+01	-6.018962e-05
1.939295e+01	-6.088693e-05
1.950496e+01	-6.159232e-05
1.961762e+01	-6.230587e-05
1.973093e+01	-6.302770e-05
1.984490e+01	-6.375789e-05
1.995952e+01	-6.449654e-05
2.007480e+01	-6.524374e-05
2.019076e+01	-6.599960e-05
2.030738e+01	-6.676422e-05
2.042467e+01	-6.753770e-05
2.054264e+01	-6.832013e-05
2.066130e+01	-6.911164e-05
2.078064e+01	-6.991231e-05
2.090066e+01	-7.072225e-05
2.102139e+01	-7.154158e-05
2.114280e+01	-7.237041e-05
2.126492e+01	-7.320883e-05
2.138775e+01	-7.405697e-05
2.151128e+01	-7.491493e-05
2.163553e+01	-7.578283e-05
2.176050e+01	-7.666079e-05
2.188619e+01	-7.754892e-05
2.201260e+01	-7.844734e-05
2.213974e+01	-7.935616e-05
2.226762e+01	-8.027552e-05
2.239624e+01	-8.120552e-05
2.252560e+01	-8.214630e-05
2.265571e+01	-8.309798e-05
2.278656e+01	-8.406069e-05
2.291818e+01	-8.503454e-05
2.305055e+01	-8.601968e-05
2.318369e+01	-8.701624e-05
2.331760e+01	-8.802433e-05
2.345228e+01	-8.904411e-05
2.358774e+01	-9.007570e-05
2.372398e+01	-9.111924e-05
2.386101e+01	-9.217487e-05
2.399883e+01	-9.324273e-05
2.413745e+01	-9.432296e-05
2.427686e+01	-9.541571e-05
2.441709e+01	-9.652111e-05
2.455812e+01	-9.763933e-05
2.469997e+01	-9.877049e-05
2.484263e+01	-9.991476e-05
2.498612e+01	-1.010723e-04
2.513044e+01	-1.022432e-04
2.527559e+01	-1.034277e-04
2.542158e+01	-1.046260e-04
2.556842e+01	-1.058381e-04
2.571610e+01	-1.070642e-04
2.586463e+01	-1.083046e-04
2.601403e+01	-1.095593e-04
2.616428e+01	-1.108285e-04
2.631541e+01	-1.121125e-04
2.646740e+01	-1.134113e-04
2.662028e+01	-1.147252e-04
2.677404e+01	-1.160543e-04
2.692868e+01	-1.173988e-04
2.708422e+01	-1.187589e-04
2.724066e+01	-1.201348e-04
2.739800e+01	-1.215265e-04
2.755625e+01	-1.229344e-04
2.771541e+01	-1.243586e-04
2.787550e+01	-1.257993e-04
2.803650e+01	-1.272567e-04
2.819844e+01	-1.287310e-04
2.836131e+01	-1.302224e-04
2.852513e+01	-1.317310e-04
2.868989e+01	-1.332571e-04
2.885560e+01	-1.348009e-04
2.902227e+01	-1.363626e-04
2.918990e+01	-1.379424e-04
2.935850e+01	-1.395405e-04
2.952807e+01	-1.411571e-04
2.969863e+01	-1.427924e-04
2.987016e+01	-1.444466e-04
3.004269e+01	-1.461201e-04
3.021622e+01	-1.478129e-04
3.039075e+01	-1.495253e-04
3.056628e+01	-1.512576e-04
3.074283e+01	-1.530099e-04
3.092040e+01	-1.547825e-04
3.109900e+01	-1.565757e-04
3.127862e+01	-1.583896e-04
3.145929e+01	-1.602246e-04
3.164099e+01	-1.620808e-04
3.182375e+01	-1.639585e-04
3.200756e+01	-1.658580e-04
3.219244e+01	-1.677795e-04
3.237838e+01	-1.697232e-04
3.256540e+01	-1.716894e-04
3.275349e+01	-1.736785e-04
3.294268e+01	-1.756906e-04
3.313295e+01	-1.777259e-04
3.332433e+01	-1.797849e-04
3.351681e+01	-1.818677e-04
3.371040e+01	-1.839747e-04
3.390511e+01	-1.861060e-04
3.410094e+01	-1.882620e-04
3.429791e+01	-1.904431e-04
3.449601e+01	-1.926494e-04
3.469526e+01	-1.948812e-04
3.489566e+01	-1.971389e-04
3.509721e+01	-1.994228e-04
3.529993e+01	-2.017331e-04
3.550382e+01	-2.040702e-04
3.570889e+01	-2.064343e-04
3.591515e+01	-2.088259e-04
3.612259e+01	-2.112451e-04
3.633123e+01	-2.136924e-04
3.654108e+01	-2.161680e-04
3.675214e+01	-2.186723e-04
3.696442e+01	-2.212056e-04
3.717792e+01	-2.237683e-04
3.739266e+01	-2.263606e-04
3.760864e+01	-2.289830e-04
3.782587e+01	-2.316358e-04
3.804435e+01	-2.343193e-04
3.826409e+01	-2.370338e-04
3.848510e+01	-2.397799e-04
3.870739e+01	-2.425577e-04
3.893096e+01	-2.453677e-04
3.915583e+01	-2.482103e-04
3.938199e+01	-2.510858e-04
3.960946e+01	-2.539946e-04
3.983824e+01	-2.569371e-04
4.006834e+01	-2.599137e-04
4.029978e+01	-2.629248e-04
4.053255e+01	-2.659708e-04
4.076666e+01	-2.690520e-04
4.100213e+01	-2.721690e-04
4.123896e+01	-2.753220e-04
4.147715e+01	-2.785116e-04
4.171672e+01	-2.817381e-04
4.195767e+01	-2.850020e-04
4.220002e+01	-2.883038e-04
4.244377e+01	-2.916437e-04
4.268892e+01	-2.950224e-04
4.293549e+01	-2.984402e-04
4.318348e+01	-3.018976e-04
4.343291e+01	-3.053950e-04
4.368377e+01	-3.089330e-04
4.393609e+01	-3.125119e-04
4.418986e+01	-3.161323e-04
4.444510e+01	-3.197947e-04
4.470182e+01	-3.234994e-04
4.496001e+01	-3.272471e-04
4.521970e+01	-3.310382e-04
4.548089e+01	-3.348733e-04
4.574358e+01	-3.387527e-04
4.600779e+01	-3.426771e-04
4.627353e+01	-3.466469e-04
4.654081e+01	-3.506628e-04
4.680963e+01	-3.547251e-04
4.708000e+01	-3.588346e-04
4.735193e+01	-3.629916e-04
4.762543e+01	-3.671968e-04
4.790051e+01	-3.714507e-04
4.817719e+01	-3.757538e-04
4.845545e+01	-3.801069e-04
4.873533e+01	-3.845103e-04
4.901682e+01	-3.889648e-04
4.929994e+01	-3.934708e-04
4.958470e+01	-3.980291e-04
4.987110e+01	-4.026402e-04
5.015915e+01	-4.073046e-04
5.044887e+01	-4.120231e-04
5.074026e+01	-4.167963e-04
5.103333e+01	-4.216248e-04
5.132810e+01	-4.265092e-04
5.162457e+01	-4.314502e-04
5.192275e+01	-4.364484e-04
5.222265e+01	-4.415045e-04
5.252429e+01	-4.466192e-04
5.282767e+01	-4.517931e-04
5.313280e+01	-4.570270e-04
5.343969e+01	-4.623215e-04
5.374836e+01	-4.676773e-04
5.405880e+01	-4.730952e-04
5.437105e+01	-4.785758e-04
5.468509e+01	-4.841200e-04
5.500095e+01	-4.897283e-04
5.531863e+01	-4.954016e-04
5.563815e+01	-5.011407e-04
5.595951e+01	-5.069462e-04
5.628273e+01	-5.128189e-04
5.660782e+01	-5.187597e-04
5.693479e+01	-5.247694e-04
5.726364e+01	-5.308486e-04
5.759439e+01	-5.369982e-04
5.792705e+01	-5.432191e-04
5.826164e+01	-5.495121e-04
5.859815e+01	-5.558779e-04
5.893662e+01	-5.623175e-04
5.927703e+01	-5.688317e-04
5.961941e+01	-5.754213e-04
5.996377e+01	-5.820873e-04
6.031012e+01	-5.888304e-04
6.065847e+01	-5.956517e-04
6.100883e+01	-6.025520e-04
6.136121e+01	-6.095323e-04
6.171563e+01	-6.165934e-04
6.207210e+01	-6.237363e-04
6.243063e+01	-6.309619e-04
6.279122e+01	-6.382712e-04
6.315390e+01	-6.456652e-04
6.351868e+01	-6.531449e-04
6.388556e+01	-6.607112e-04
6.425456e+01	-6.683651e-04
6.462569e+01	-6.761077e-04
6.499897e+01	-6.839400e-04
6.537440e+01	-6.918630e-04
6.575200e+01	-6.998777e-04
6.613178e+01	-7.079854e-04
6.651375e+01	-7.161869e-04
6.689793e+01	-7.244834e-04
6.728433e+01	-7.328761e-04
6.767297e+01	-7.413659e-04
6.806384e+01	-7.499541e-04
6.845698e+01	-7.586417e-04
6.885238e+01	-7.674300e-04
6.925007e+01	-7.763201e-04
6.965005e+01	-7.853132e-04
7.005235e+01	-7.944104e-04
7.045697e+01	-8.036131e-04
7.086393e+01	-8.129223e-04
7.127323e+01	-8.223393e-04
7.168490e+01	-8.318654e-04
7.209895e+01	-8.415019e-04
7.251539e+01	-8.512499e-04
7.293424e+01	-8.611109e-04
7.335551e+01	-8.710861e-04
7.377920e+01	-8.811769e-04
7.420535e+01	-8.913845e-04
7.463396e+01	-9.017104e-04
7.506504e+01	-9.121558e-04
7.549861e+01	-9.227223e-04
7.593469e+01	-9.334111e-04
7.637328e+01	-9.442238e-04
7.681441e+01	-9.551616e-04
7.725809e+01	-9.662262e-04
7.770433e+01	-9.774190e-04
7.815315e+01	-9.887413e-04
7.860456e+01	-1.000195e-03
7.905857e+01	-1.011781e-03
7.951521e+01	-1.023501e-03
7.997449e+01	-1.035358e-03
8.043642e+01	-1.047351e-03
8.090102e+01	-1.059483e-03
8.136830e+01	-1.071756e-03
8.183828e+01	-1.084171e-03
8.231097e+01	-1.096730e-03
8.278640e+01	-1.109434e-03
8.326457e+01	-1.122286e-03
8.374550e+01	-1.135286e-03
8.422921e+01	-1.148437e-03
8.471572e+01	-1.161740e-03
8.520503e+01	-1.175197e-03
8.569717e+01	-1.188811e-03
8.619215e+01	-1.202581e-03
8.669000e+01	-1.216512e-03
8.719071e+01	-1.230603e-03
8.769432e+01	-1.244858e-03
8.820084e+01	-1.259278e-03
8.871029e+01	-1.273865e-03
8.922267e+01	-1.288621e-03
8.973802e+01	-1.303548e-03
9.025634e+01	-1.318647e-03
9.077766e+01	-1.333922e-03
9.130199e+01	-1.349373e-03
9.182935e+01	-1.365004e-03
9.235975e+01	-1.380815e-03
9.289321e+01	-1.396810e-03
9.342976e+01	-1.412989e-03
9.396941e+01	-1.429357e-03
9.451217e+01	-1.445913e-03
9.505807e+01	-1.462662e-03
9.560712e+01	-1.479604e-03
9.615934e+01	-1.496743e-03
9.671476e+01	-1.514080e-03
9.727338e+01	-1.531618e-03
9.783522e+01	-1.549359e-03
9.840032e+01	-1.567305e-03
9.896867e+01	-1.585460e-03
9.954031e+01	-1.603824e-03
1.001153e+02	-1.622402e-03
1.006935e+02	-1.641194e-03
1.012751e+02	-1.660204e-03
1.018601e+02	-1.679434e-03
1.024484e+02	-1.698887e-03
1.030402e+02	-1.718565e-03
1.036353e+02	-1.738471e-03
1.042339e+02	-1.758608e-03
1.048360e+02	-1.778978e-03
1.054415e+02	-1.799583e-03
1.060505e+02	-1.820428e-03
1.066631e+02	-1.841513e-03
1.072791e+02	-1.862843e-03
1.078988e+02	-1.884420e-03
1.085220e+02	-1.906247e-03
1.091488e+02	-1.928326e-03
1.097793e+02	-1.950661e-03
1.104133e+02	-1.973255e-03
1.110511e+02	-1.996111e-03
1.116925e+02	-2.019231e-03
1.123376e+02	-2.042618e-03
1.129865e+02	-2.066277e-03
1.136391e+02	-2.090210e-03
1.142955e+02	-2.114419e-03
1.149556e+02	-2.138909e-03
1.156196e+02	-2.163683e-03
1.162874e+02	-2.188744e-03
1.169591e+02	-2.214094e-03
1.176347e+02	-2.239739e-03
1.183141e+02	-2.265680e-03
1.189975e+02	-2.291921e-03
1.196848e+02	-2.318467e-03
1.203761e+02	-2.345320e-03
1.210714e+02	-2.372483e-03
1.217707e+02	-2.399962e-03
1.224740e+02	-2.427758e-03
1.231814e+02	-2.455876e-03
1.238929e+02	-2.484320e-03
1.246085e+02	-2.513093e-03
1.253283e+02	-2.542200e-03
1.260522e+02	-2.571643e-03
1.267802e+02	-2.601427e-03
1.275125e+02	-2.631556e-03
1.282490e+02	-2.662034e-03
1.289898e+02	-2.692865e-03
1.297348e+02	-2.724053e-03
1.304842e+02	-2.755601e-03
1.312378e+02	-2.787516e-03
1.319959e+02	-2.819799e-03
1.327583e+02	-2.852457e-03
1.335251e+02	-2.885492e-03
1.342963e+02	-2.918910e-03
1.350720e+02	-2.952715e-03
1.358522e+02	-2.986911e-03
1.366368e+02	-3.021503e-03
1.374260e+02	-3.056496e-03
1.382198e+02	-3.091893e-03
1.390182e+02	-3.127701e-03
1.398211e+02	-3.163923e-03
1.406287e+02	-3.200564e-03
1.414410e+02	-3.237630e-03
1.422579e+02	-3.275124e-03
1.430796e+02	-3.313053e-03
1.439060e+02	-3.351421e-03
1.447372e+02	-3.390233e-03
1.455732e+02	-3.429494e-03
1.464141e+02	-3.469210e-03
1.472597e+02	-3.509385e-03
1.481103e+02	-3.550025e-03
1.489658e+02	-3.591136e-03
1.498262e+02	-3.632723e-03
1.506916e+02	-3.674791e-03
1.515620e+02	-3.717347e-03
1.524374e+02	-3.760394e-03
1.533179e+02	-3.803940e-03
1.542034e+02	-3.847990e-03
1.550941e+02	-3.892550e-03
1.559899e+02	-3.937626e-03
1.568909e+02	-3.983224e-03
1.577971e+02	-4.029349e-03
1.587085e+02	-4.076008e-03
1.596252e+02	-4.123207e-03
1.605472e+02	-4.170952e-03
1.614745e+02	-4.219251e-03
1.624072e+02	-4.268108e-03
1.633453e+02	-4.317530e-03
1.642887e+02	-4.367525e-03
1.652377e+02	-4.418098e-03
1.661921e+02	-4.469256e-03
1.671520e+02	-4.521007e-03
1.681175e+02	-4.573356e-03
1.690885e+02	-4.626311e-03
1.700651e+02	-4.679879e-03
1.710474e+02	-4.734067e-03
1.720354e+02	-4.788882e-03
1.730291e+02	-4.844332e-03
1.740285e+02	-4.900423e-03
1.750337e+02	-4.957163e-03
1.760446e+02	-5.014560e-03
1.770615e+02	-5.072621e-03
1.780842e+02	-5.131354e-03
1.791128e+02	-5.190766e-03
1.801473e+02	-5.250866e-03
1.811878e+02	-5.311661e-03
1.822344e+02	-5.373160e-03
1.832870e+02	-5.435370e-03
1.843456e+02	-5.498301e-03
1.854104e+02	-5.561959e-03
1.864813e+02	-5.626354e-03
1.875584e+02	-5.691494e-03
1.886418e+02	-5.757387e-03
1.897313e+02	-5.824043e-03
1.908272e+02	-5.891471e-03
1.919294e+02	-5.959678e-03
1.930380e+02	-6.028674e-03
1.941530e+02	-6.098469e-03
1.952744e+02	-6.169071e-03
1.964023e+02	-6.240489e-03
1.975367e+02	-6.312734e-03
1.986777e+02	-6.385815e-03
1.998252e+02	-6.459741e-03
2.009794e+02	-6.534523e-03
2.021403e+02	-6.610169e-03
2.033078e+02	-6.686690e-03
2.044821e+02	-6.764097e-03
2.056632e+02	-6.842399e-03
2.068511e+02	-6.921606e-03
2.080459e+02	-7.001730e-03
2.092475e+02	-7.082780e-03
2.104561e+02	-7.164768e-03
2.116717e+02	-7.247705e-03
2.128943e+02	-7.331600e-03
2.141240e+02	-7.416466e-03
2.153608e+02	-7.502313e-03
2.166047e+02	-7.589153e-03
2.178558e+02	-7.676997e-03
2.191141e+02	-7.765857e-03
2.203797e+02	-7.855745e-03
2.216526e+02	-7.946673e-03
2.229329e+02	-8.038651e-03
2.242205e+02	-8.131694e-03
2.255156e+02	-8.225812e-03
2.268182e+02	-8.321018e-03
2.281283e+02	-8.417326e-03
2.294459e+02	-8.514747e-03
2.307712e+02	-8.613294e-03
2.321041e+02	-8.712981e-03
2.334447e+02	-8.813820e-03
2.347931e+02	-8.915826e-03
2.361493e+02	-9.019010e-03
2.375133e+02	-9.123387e-03
2.388851e+02	-9.228972e-03
2.402649e+02	-9.335776e-03
2.416527e+02	-9.443816e-03
2.430484e+02	-9.553104e-03
2.444523e+02	-9.663655e-03
2.458642e+02	-9.775485e-03
2.472843e+02	-9.888607e-03
2.487126e+02	-1.000304e-02
2.501492e+02	-1.011879e-02
2.515940e+02	-1.023588e-02
2.530472e+02	-1.035432e-02
2.545088e+02	-1.047413e-02
2.559789e+02	-1.059533e-02
2.574574e+02	-1.071793e-02
2.589444e+02	-1.084194e-02
2.604401e+02	-1.096739e-02
2.619444e+02	-1.109429e-02
2.634574e+02	-1.122265e-02
2.649791e+02	-1.135250e-02
2.665096e+02	-1.148385e-02
2.680489e+02	-1.161671e-02
2.695972e+02	-1.175111e-02
2.711544e+02	-1.188706e-02
2.727205e+02	-1.202459e-02
2.742958e+02	-1.216370e-02
2.758801e+02	-1.230442e-02
2.774736e+02	-1.244676e-02
2.790762e+02	-1.259075e-02
2.806882e+02	-1.273640e-02
2.823094e+02	-1.288374e-02
2.839400e+02	-1.303278e-02
2.855800e+02	-1.318353e-02
2.872295e+02	-1.333603e-02
2.888886e+02	-1.349029e-02
2.905572e+02	-1.364633e-02
2.922354e+02	-1.380418e-02
2.939234e+02	-1.396385e-02
2.956211e+02	-1.412536e-02
2.973286e+02	-1.428873e-02
2.990459e+02	-1.445399e-02
3.007732e+02	-1.462116e-02
3.025104e+02	-1.479026e-02
3.042577e+02	-1.496132e-02
3.060151e+02	-1.513435e-02
3.077826e+02	-1.530937e-02
3.095604e+02	-1.548642e-02
3.113484e+02	-1.566550e-02
3.131467e+02	-1.584666e-02
3.149554e+02	-1.602991e-02
3.167746e+02	-1.621527e-02
3.186043e+02	-1.640277e-02
3.204445e+02	-1.659244e-02
3.222954e+02	-1.678429e-02
3.241570e+02	-1.697836e-02
3.260293e+02	-1.717467e-02
3.279124e+02	-1.737324e-02
3.298064e+02	-1.757411e-02
3.317114e+02	-1.777729e-02
3.336273e+02	-1.798282e-02
3.355544e+02	-1.819072e-02
3.374925e+02	-1.840101e-02
3.394418e+02	-1.861373e-02
3.414024e+02	-1.882891e-02
3.433744e+02	-1.904657e-02
3.453577e+02	-1.926674e-02
3.473525e+02	-1.948944e-02
3.493588e+02	-1.971472e-02
3.513766e+02	-1.994259e-02
3.534062e+02	-2.017309e-02
3.554474e+02	-2.040625e-02
3.575005e+02	-2.064210e-02
3.595654e+02	-2.088067e-02
3.616422e+02	-2.112198e-02
3.637311e+02	-2.136608e-02
3.658320e+02	-2.161300e-02
3.679450e+02	-2.186276e-02
3.700702e+02	-2.211540e-02
3.722077e+02	-2.237095e-02
3.743576e+02	-2.262944e-02
3.765199e+02	-2.289092e-02
3.786946e+02	-2.315540e-02
3.808820e+02	-2.342294e-02
3.830819e+02	-2.369356e-02
3.852946e+02	-2.396729e-02
3.875200e+02	-2.424418e-02
3.897583e+02	-2.452426e-02
3.920096e+02	-2.480757e-02
3.942738e+02	-2.509414e-02
3.965511e+02	-2.538400e-02
3.988416e+02	-2.567721e-02
4.011452e+02	-2.597380e-02
4.034622e+02	-2.627380e-02
4.057926e+02	-2.657725e-02
4.081365e+02	-2.688420e-02
4.104938e+02	-2.719468e-02
4.128648e+02	-2.750874e-02
4.152495e+02	-2.782641e-02
4.176480e+02	-2.814774e-02
4.200603e+02	-2.847276e-02
4.224866e+02	-2.880153e-02
4.249268e+02	-2.913408e-02
4.273812e+02	-2.947046e-02
4.298497e+02	-2.981070e-02
4.323325e+02	-3.015486e-02
4.348297e+02	-3.050299e-02
4.373412e+02	-3.085511e-02
4.398673e+02	-3.121129e-02
4.424079e+02	-3.157156e-02
4.449633e+02	-3.193597e-02
4.475334e+02	-3.230458e-02
4.501183e+02	-3.267743e-02
4.527182e+02	-3.305456e-02
4.553330e+02	-3.343602e-02
4.579630e+02	-3.382188e-02
4.606082e+02	-3.421216e-02
4.632687e+02	-3.460694e-02
4.659445e+02	-3.500624e-02
4.686358e+02	-3.541014e-02
4.713426e+02	-3.581868e-02
4.740650e+02	-3.623191e-02
4.768032e+02	-3.664989e-02
4.795572e+02	-3.707268e-02
4.823271e+02	-3.750031e-02
4.851130e+02	-3.793286e-02
4.879150e+02	-3.837038e-02
4.907332e+02	-3.881291e-02
4.935676e+02	-3.926053e-02
4.964185e+02	-3.971329e-02
4.992858e+02	-4.017125e-02
5.021696e+02	-4.063446e-02
5.050701e+02	-4.110299e-02
5.079874e+02	-4.157689e-02
5.109215e+02	-4.205623e-02
5.138726e+02	-4.254107e-02
5.168407e+02	-4.303147e-02
5.198259e+02	-4.352750e-02
5.228284e+02	-4.402921e-02
5.258482e+02	-4.453668e-02
5.288855e+02	-4.504997e-02
5.319403e+02	-4.556914e-02
5.350128e+02	-4.609426e-02
5.381030e+02	-4.662540e-02
5.412111e+02	-4.716263e-02
5.443371e+02	-4.770601e-02
5.474812e+02	-4.825562e-02
5.506434e+02	-4.881153e-02
5.538239e+02	-4.937380e-02
5.570228e+02	-4.994251e-02
5.602401e+02	-5.051774e-02
5.634760e+02	-5.109955e-02
5.667306e+02	-5.168802e-02
5.700040e+02	-5.228323e-02
5.732964e+02	-5.288525e-02
5.766077e+02	-5.349416e-02
5.799382e+02	-5.411004e-02
5.832879e+02	-5.473296e-02
5.866569e+02	-5.536300e-02
5.900454e+02	-5.600026e-02
5.934535e+02	-5.664480e-02
5.968813e+02	-5.729671e-02
6.003288e+02	-5.795607e-02
6.037963e+02	-5.862297e-02
6.072838e+02	-5.929749e-02
6.107914e+02	-5.997971e-02
6.143194e+02	-6.066973e-02
6.178676e+02	-6.136763e-02
6.214364e+02	-6.207351e-02
6.250258e+02	-6.278744e-02
6.286359e+02	-6.350953e-02
6.322669e+02	-6.423985e-02
6.359189e+02	-6.497852e-02
6.395919e+02	-6.572561e-02
6.432862e+02	-6.648122e-02
6.470017e+02	-6.724546e-02
6.507388e+02	-6.801841e-02
6.544974e+02	-6.880017e-02
6.582778e+02	-6.959085e-02
6.620800e+02	-7.039054e-02
6.659041e+02	-7.119934e-02
6.697504e+02	-7.201737e-02
6.736188e+02	-7.284471e-02
6.775096e+02	-7.368147e-02
6.814229e+02	-7.452776e-02
6.853587e+02	-7.538369e-02
6.893173e+02	-7.624936e-02
6.932988e+02	-7.712489e-02
6.973033e+02	-7.801037e-02
7.013309e+02	-7.890593e-02
