Frequency(Hz)	Magnitude(dB)
1.000000e+01	-1.720387e-05
1.005776e+01	-1.740319e-05
1.011585e+01	-1.760481e-05
1.017428e+01	-1.780876e-05
1.023305e+01	-1.801508e-05
1.029215e+01	-1.822379e-05
1.035160e+01	-1.843492e-05
1.041139e+01	-1.864849e-05
1.047153e+01	-1.886454e-05
1.053201e+01	-1.908309e-05
1.059284e+01	-1.930417e-05
1.065403e+01	-1.952781e-05
1.071556e+01	-1.975405e-05
1.077746e+01	-1.998291e-05
1.083971e+01	-2.021441e-05
1.090232e+01	-2.044860e-05
1.096529e+01	-2.068550e-05
1.102862e+01	-2.092515e-05
1.109232e+01	-2.116757e-05
1.115639e+01	-2.141280e-05
1.122083e+01	-2.166088e-05
1.128564e+01	-2.191182e-05
1.135083e+01	-2.216568e-05
1.141639e+01	-2.242247e-05
1.148233e+01	-2.268224e-05
1.154865e+01	-2.294502e-05
1.161536e+01	-2.321085e-05
1.168245e+01	-2.347975e-05
1.174992e+01	-2.375177e-05
1.181779e+01	-2.402694e-05
1.188605e+01	-2.430530e-05
1.195470e+01	-2.458688e-05
1.202375e+01	-2.487172e-05
1.209320e+01	-2.515987e-05
1.216305e+01	-2.545135e-05
1.223330e+01	-2.574621e-05
1.230396e+01	-2.604449e-05
1.237503e+01	-2.634622e-05
1.244651e+01	-2.665145e-05
1.251840e+01	-2.696021e-05
1.259070e+01	-2.727255e-05
1.266343e+01	-2.758851e-05
1.273657e+01	-2.790813e-05
1.281014e+01	-2.823145e-05
1.288413e+01	-2.855852e-05
1.295855e+01	-2.888938e-05
1.303339e+01	-2.922407e-05
1.310867e+01	-2.956264e-05
1.318439e+01	-2.990513e-05
1.326054e+01	-3.025159e-05
1.333713e+01	-3.060206e-05
1.341417e+01	-3.095659e-05
1.349165e+01	-3.131523e-05
1.356958e+01	-3.167802e-05
1.364795e+01	-3.204502e-05
1.372678e+01	-3.241627e-05
1.380607e+01	-3.279182e-05
1.388581e+01	-3.317172e-05
1.396602e+01	-3.355602e-05
1.404668e+01	-3.394478e-05
1.412782e+01	-3.433804e-05
1.420942e+01	-3.473585e-05
1.429149e+01	-3.513827e-05
1.437404e+01	-3.554536e-05
1.445706e+01	-3.595716e-05
1.454057e+01	-3.637373e-05
1.462455e+01	-3.679513e-05
1.470902e+01	-3.722141e-05
1.479398e+01	-3.765263e-05
1.487943e+01	-3.808884e-05
1.496537e+01	-3.853011e-05
1.505181e+01	-3.897649e-05
1.513875e+01	-3.942804e-05
1.522619e+01	-3.988483e-05
1.531414e+01	-4.034690e-05
1.540259e+01	-4.081433e-05
1.549156e+01	-4.128717e-05
1.558103e+01	-4.176549e-05
1.567103e+01	-4.224936e-05
1.576155e+01	-4.273882e-05
1.585258e+01	-4.323396e-05
1.594415e+01	-4.373484e-05
1.603624e+01	-4.424151e-05
1.612886e+01	-4.475406e-05
1.622202e+01	-4.527255e-05
1.631572e+01	-4.579704e-05
1.640996e+01	-4.632761e-05
1.650474e+01	-4.686432e-05
1.660008e+01	-4.740726e-05
1.669596e+01	-4.795648e-05
1.679239e+01	-4.851207e-05
1.688938e+01	-4.907409e-05
1.698694e+01	-4.964262e-05
1.708505e+01	-5.021774e-05
1.718373e+01	-5.079953e-05
1.728299e+01	-5.138805e-05
1.738281e+01	-5.198339e-05
1.748322e+01	-5.258563e-05
1.758420e+01	-5.319485e-05
1.768576e+01	-5.381112e-05
1.778792e+01	-5.443453e-05
1.789066e+01	-5.506517e-05
1.799399e+01	-5.570311e-05
1.809793e+01	-5.634844e-05
1.820246e+01	-5.700125e-05
1.830760e+01	-5.766162e-05
1.841334e+01	-5.832964e-05
1.851969e+01	-5.900540e-05
1.862666e+01	-5.968899e-05
1.873425e+01	-6.038050e-05
1.884246e+01	-6.108002e-05
1.895129e+01	-6.178765e-05
1.906075e+01	-6.250347e-05
1.917085e+01	-6.322758e-05
1.928158e+01	-6.396009e-05
1.939295e+01	-6.470108e-05
1.950496e+01	-6.545065e-05
1.961762e+01	-6.620891e-05
1.973093e+01	-6.697595e-05
1.984490e+01	-6.775188e-05
1.995952e+01	-6.853680e-05
2.007480e+01	-6.933081e-05
2.019076e+01	-7.013402e-05
2.030738e+01	-7.094654e-05
2.042467e+01	-7.176846e-05
2.054264e+01	-7.259992e-05
2.066130e+01	-7.344100e-05
2.078064e+01	-7.429183e-05
2.090066e+01	-7.515251e-05
2.102139e+01	-7.602317e-05
2.114280e+01	-7.690391e-05
2.126492e+01	-7.779485e-05
2.138775e+01	-7.869612e-05
2.151128e+01	-7.960783e-05
2.163553e+01	-8.053010e-05
2.176050e+01	-8.146305e-05
2.188619e+01	-8.240682e-05
2.201260e+01	-8.336151e-05
2.213974e+01	-8.432727e-05
2.226762e+01	-8.530422e-05
2.239624e+01	-8.629248e-05
2.252560e+01	-8.729219e-05
2.265571e+01	-8.830349e-05
2.278656e+01	-8.932650e-05
2.291818e+01	-9.036136e-05
2.305055e+01	-9.140821e-05
2.318369e+01	-9.246719e-05
2.331760e+01	-9.353843e-05
2.345228e+01	-9.462209e-05
2.358774e+01	-9.571830e-05
2.372398e+01	-9.682721e-05
2.386101e+01	-9.794897e-05
2.399883e+01	-9.908372e-05
2.413745e+01	-1.002316e-04
2.427686e+01	-1.013928e-04
2.441709e+01	-1.025675e-04
2.455812e+01	-1.037557e-04
2.469997e+01	-1.049578e-04
2.484263e+01	-1.061737e-04
2.498612e+01	-1.074037e-04
2.513044e+01	-1.086480e-04
2.527559e+01	-1.099067e-04
2.542158e+01	-1.111800e-04
2.556842e+01	-1.124680e-04
2.571610e+01	-1.137710e-04
2.586463e+01	-1.150891e-04
2.601403e+01	-1.164224e-04
2.616428e+01	-1.177711e-04
2.631541e+01	-1.191355e-04
2.646740e+01	-1.205157e-04
2.662028e+01	-1.219119e-04
2.677404e+01	-1.233243e-04
2.692868e+01	-1.247530e-04
2.708422e+01	-1.261983e-04
2.724066e+01	-1.276603e-04
2.739800e+01	-1.291393e-04
2.755625e+01	-1.306354e-04
2.771541e+01	-1.321488e-04
2.787550e+01	-1.336797e-04
2.803650e+01	-1.352284e-04
2.819844e+01	-1.367951e-04
2.836131e+01	-1.383799e-04
2.852513e+01	-1.399830e-04
2.868989e+01	-1.416047e-04
2.885560e+01	-1.432452e-04
2.902227e+01	-1.449047e-04
2.918990e+01	-1.465835e-04
2.935850e+01	-1.482816e-04
2.952807e+01	-1.499995e-04
2.969863e+01	-1.517373e-04
2.987016e+01	-1.534951e-04
3.004269e+01	-1.552734e-04
3.021622e+01	-1.570722e-04
3.039075e+01	-1.588919e-04
3.056628e+01	-1.607327e-04
3.074283e+01	-1.625948e-04
3.092040e+01	-1.644785e-04
3.109900e+01	-1.663840e-04
3.127862e+01	-1.683115e-04
3.145929e+01	-1.702614e-04
3.164099e+01	-1.722339e-04
3.182375e+01	-1.742293e-04
3.200756e+01	-1.762477e-04
3.219244e+01	-1.782896e-04
3.237838e+01	-1.803550e-04
3.256540e+01	-1.824445e-04
3.275349e+01	-1.845581e-04
3.294268e+01	-1.866962e-04
3.313295e+01	-1.888591e-04
3.332433e+01	-1.910470e-04
3.351681e+01	-1.932603e-04
3.371040e+01	-1.954992e-04
3.390511e+01	-1.977641e-04
3.410094e+01	-2.000552e-04
3.429791e+01	-2.023728e-04
3.449601e+01	-2.047173e-04
3.469526e+01	-2.070890e-04
3.489566e+01	-2.094881e-04
3.509721e+01	-2.119150e-04
3.529993e+01	-2.143700e-04
3.550382e+01	-2.168535e-04
3.570889e+01	-2.193658e-04
3.591515e+01	-2.219071e-04
3.612259e+01	-2.244779e-04
3.633123e+01	-2.270785e-04
3.654108e+01	-2.297092e-04
3.675214e+01	-2.323703e-04
3.696442e+01	-2.350624e-04
3.717792e+01	-2.377855e-04
3.739266e+01	-2.405403e-04
3.760864e+01	-2.433269e-04
3.782587e+01	-2.461459e-04
3.804435e+01	-2.489974e-04
3.826409e+01	-2.518821e-04
3.848510e+01	-2.548001e-04
3.870739e+01	-2.577519e-04
3.893096e+01	-2.607380e-04
3.915583e+01	-2.637586e-04
3.938199e+01	-2.668142e-04
3.960946e+01	-2.699053e-04
3.983824e+01	-2.730321e-04
4.006834e+01	-2.761951e-04
4.029978e+01	-2.793948e-04
4.053255e+01	-2.826316e-04
4.076666e+01	-2.859058e-04
4.100213e+01	-2.892180e-04
4.123896e+01	-2.925686e-04
4.147715e+01	-2.959580e-04
4.171672e+01	-2.993866e-04
4.195767e+01	-3.028550e-04
4.220002e+01	-3.063635e-04
4.244377e+01	-3.099127e-04
4.268892e+01	-3.135030e-04
4.293549e+01	-3.171349e-04
4.318348e+01	-3.208088e-04
4.343291e+01	-3.245253e-04
4.368377e+01	-3.282849e-04
4.393609e+01	-3.320880e-04
4.418986e+01	-3.359352e-04
4.444510e+01	-3.398270e-04
4.470182e+01	-3.437638e-04
4.496001e+01	-3.477462e-04
4.521970e+01	-3.517748e-04
4.548089e+01	-3.558501e-04
4.574358e+01	-3.599725e-04
4.600779e+01	-3.641427e-04
4.627353e+01	-3.683612e-04
4.654081e+01	-3.726286e-04
4.680963e+01	-3.769454e-04
4.708000e+01	-3.813123e-04
4.735193e+01	-3.857297e-04
4.762543e+01	-3.901983e-04
4.790051e+01	-3.947186e-04
4.817719e+01	-3.992913e-04
4.845545e+01	-4.039170e-04
4.873533e+01	-4.085963e-04
4.901682e+01	-4.133298e-04
4.929994e+01	-4.181181e-04
4.958470e+01	-4.229618e-04
4.987110e+01	-4.278617e-04
5.015915e+01	-4.328184e-04
5.044887e+01	-4.378324e-04
5.074026e+01	-4.429046e-04
5.103333e+01	-4.480355e-04
5.132810e+01	-4.532259e-04
5.162457e+01	-4.584763e-04
5.192275e+01	-4.637876e-04
5.222265e+01	-4.691604e-04
5.252429e+01	-4.745955e-04
5.282767e+01	-4.800935e-04
5.313280e+01	-4.856552e-04
5.343969e+01	-4.912813e-04
5.374836e+01	-4.969726e-04
5.405880e+01	-5.027299e-04
5.437105e+01	-5.085538e-04
5.468509e+01	-5.144452e-04
5.500095e+01	-5.204048e-04
5.531863e+01	-5.264335e-04
5.563815e+01	-5.325320e-04
5.595951e+01	-5.387011e-04
5.628273e+01	-5.449417e-04
5.660782e+01	-5.512546e-04
5.693479e+01	-5.576407e-04
5.726364e+01	-5.641007e-04
5.759439e+01	-5.706355e-04
5.792705e+01	-5.772460e-04
5.826164e+01	-5.839331e-04
5.859815e+01	-5.906977e-04
5.893662e+01	-5.975406e-04
5.927703e+01	-6.044628e-04
5.961941e+01	-6.114652e-04
5.996377e+01	-6.185487e-04
6.031012e+01	-6.257142e-04
6.065847e+01	-6.329628e-04
6.100883e+01	-6.402953e-04
6.136121e+01	-6.477127e-04
6.171563e+01	-6.552161e-04
6.207210e+01	-6.628064e-04
6.243063e+01	-6.704846e-04
6.279122e+01	-6.782517e-04
6.315390e+01	-6.861088e-04
6.351868e+01	-6.940570e-04
6.388556e+01	-7.020971e-04
6.425456e+01	-7.102305e-04
6.462569e+01	-7.184580e-04
6.499897e+01	-7.267808e-04
6.537440e+01	-7.352001e-04
6.575200e+01	-7.437168e-04
6.613178e+01	-7.523323e-04
6.651375e+01	-7.610475e-04
6.689793e+01	-7.698636e-04
6.728433e+01	-7.787819e-04
6.767297e+01	-7.878035e-04
6.806384e+01	-7.969296e-04
6.845698e+01	-8.061614e-04
6.885238e+01	-8.155001e-04
6.925007e+01	-8.249470e-04
6.965005e+01	-8.345033e-04
7.005235e+01	-8.441703e-04
7.045697e+01	-8.539493e-04
7.086393e+01	-8.638416e-04
7.127323e+01	-8.738484e-04
7.168490e+01	-8.839711e-04
7.209895e+01	-8.942111e-04
7.251539e+01	-9.045697e-04
7.293424e+01	-9.150483e-04
7.335551e+01	-9.256483e-04
7.377920e+01	-9.363710e-04
7.420535e+01	-9.472179e-04
7.463396e+01	-9.581905e-04
7.506504e+01	-9.692902e-04
7.549861e+01	-9.805184e-04
7.593469e+01	-9.918767e-04
7.637328e+01	-1.003366e-03
7.681441e+01	-1.014989e-03
7.725809e+01	-1.026747e-03
7.770433e+01	-1.038641e-03
7.815315e+01	-1.050672e-03
7.860456e+01	-1.062843e-03
7.905857e+01	-1.075155e-03
7.951521e+01	-1.087609e-03
7.997449e+01	-1.100208e-03
8.043642e+01	-1.112952e-03
8.090102e+01	-1.125845e-03
8.136830e+01	-1.138886e-03
8.183828e+01	-1.152079e-03
8.231097e+01	-1.165424e-03
8.278640e+01	-1.178924e-03
8.326457e+01	-1.192580e-03
8.374550e+01	-1.206395e-03
8.422921e+01	-1.220369e-03
8.471572e+01	-1.234505e-03
8.520503e+01	-1.248805e-03
8.569717e+01	-1.263271e-03
8.619215e+01	-1.277904e-03
8.669000e+01	-1.292707e-03
8.719071e+01	-1.307681e-03
8.769432e+01	-1.322829e-03
8.820084e+01	-1.338152e-03
8.871029e+01	-1.353652e-03
8.922267e+01	-1.369332e-03
8.973802e+01	-1.385193e-03
9.025634e+01	-1.401239e-03
9.077766e+01	-1.417470e-03
9.130199e+01	-1.433889e-03
9.182935e+01	-1.450498e-03
9.235975e+01	-1.467300e-03
9.289321e+01	-1.484296e-03
9.342976e+01	-1.501489e-03
9.396941e+01	-1.518881e-03
9.451217e+01	-1.536474e-03
9.505807e+01	-1.554272e-03
9.560712e+01	-1.572275e-03
9.615934e+01	-1.590487e-03
9.671476e+01	-1.608910e-03
9.727338e+01	-1.627546e-03
9.783522e+01	-1.646398e-03
9.840032e+01	-1.665468e-03
9.896867e+01	-1.684759e-03
9.954031e+01	-1.704274e-03
1.001153e+02	-1.724014e-03
1.006935e+02	-1.743984e-03
1.012751e+02	-1.764184e-03
1.018601e+02	-1.784618e-03
1.024484e+02	-1.805289e-03
1.030402e+02	-1.826200e-03
1.036353e+02	-1.847352e-03
1.042339e+02	-1.868750e-03
1.048360e+02	-1.890395e-03
1.054415e+02	-1.912291e-03
1.060505e+02	-1.934440e-03
1.066631e+02	-1.956846e-03
1.072791e+02	-1.979512e-03
1.078988e+02	-2.002440e-03
1.085220e+02	-2.025633e-03
1.091488e+02	-2.049095e-03
1.097793e+02	-2.072829e-03
1.104133e+02	-2.096837e-03
1.110511e+02	-2.121124e-03
1.116925e+02	-2.145691e-03
1.123376e+02	-2.170543e-03
1.129865e+02	-2.195683e-03
1.136391e+02	-2.221114e-03
1.142955e+02	-2.246840e-03
1.149556e+02	-2.272863e-03
1.156196e+02	-2.299188e-03
1.162874e+02	-2.325818e-03
1.169591e+02	-2.352756e-03
1.176347e+02	-2.380005e-03
1.183141e+02	-2.407571e-03
1.189975e+02	-2.435455e-03
1.196848e+02	-2.463663e-03
1.203761e+02	-2.492197e-03
1.210714e+02	-2.521061e-03
1.217707e+02	-2.550260e-03
1.224740e+02	-2.579796e-03
1.231814e+02	-2.609675e-03
1.238929e+02	-2.639899e-03
1.246085e+02	-2.670474e-03
1.253283e+02	-2.701403e-03
1.260522e+02	-2.732689e-03
1.267802e+02	-2.764338e-03
1.275125e+02	-2.796353e-03
1.282490e+02	-2.828739e-03
1.289898e+02	-2.861500e-03
1.297348e+02	-2.894640e-03
1.304842e+02	-2.928164e-03
1.312378e+02	-2.962076e-03
1.319959e+02	-2.996381e-03
1.327583e+02	-3.031082e-03
1.335251e+02	-3.066186e-03
1.342963e+02	-3.101696e-03
1.350720e+02	-3.137617e-03
1.358522e+02	-3.173953e-03
1.366368e+02	-3.210711e-03
1.374260e+02	-3.247894e-03
1.382198e+02	-3.285507e-03
1.390182e+02	-3.323556e-03
1.398211e+02	-3.362046e-03
1.406287e+02	-3.400980e-03
1.414410e+02	-3.440366e-03
1.422579e+02	-3.480208e-03
1.430796e+02	-3.520510e-03
1.439060e+02	-3.561280e-03
1.447372e+02	-3.602521e-03
1.455732e+02	-3.644239e-03
1.464141e+02	-3.686441e-03
1.472597e+02	-3.729131e-03
1.481103e+02	-3.772315e-03
1.489658e+02	-3.815999e-03
1.498262e+02	-3.860189e-03
1.506916e+02	-3.904890e-03
1.515620e+02	-3.950109e-03
1.524374e+02	-3.995851e-03
1.533179e+02	-4.042122e-03
1.542034e+02	-4.088929e-03
1.550941e+02	-4.136278e-03
1.559899e+02	-4.184174e-03
1.568909e+02	-4.232625e-03
1.577971e+02	-4.281637e-03
1.587085e+02	-4.331216e-03
1.596252e+02	-4.381369e-03
1.605472e+02	-4.432103e-03
1.614745e+02	-4.483423e-03
1.624072e+02	-4.535338e-03
1.633453e+02	-4.587853e-03
1.642887e+02	-4.640976e-03
1.652377e+02	-4.694714e-03
1.661921e+02	-4.749073e-03
1.671520e+02	-4.804062e-03
1.681175e+02	-4.859687e-03
1.690885e+02	-4.915956e-03
1.700651e+02	-4.972876e-03
1.710474e+02	-5.030454e-03
1.720354e+02	-5.088699e-03
1.730291e+02	-5.147618e-03
1.740285e+02	-5.207219e-03
1.750337e+02	-5.267509e-03
1.760446e+02	-5.328497e-03
1.770615e+02	-5.390191e-03
1.780842e+02	-5.452598e-03
1.791128e+02	-5.515728e-03
1.801473e+02	-5.579588e-03
1.811878e+02	-5.644187e-03
1.822344e+02	-5.709533e-03
1.832870e+02	-5.775635e-03
1.843456e+02	-5.842502e-03
1.854104e+02	-5.910143e-03
1.864813e+02	-5.978566e-03
1.875584e+02	-6.047781e-03
1.886418e+02	-6.117797e-03
1.897313e+02	-6.188622e-03
1.908272e+02	-6.260267e-03
1.919294e+02	-6.332741e-03
1.930380e+02	-6.406053e-03
1.941530e+02	-6.480214e-03
1.952744e+02	-6.555232e-03
1.964023e+02	-6.631118e-03
1.975367e+02	-6.707881e-03
1.986777e+02	-6.785533e-03
1.998252e+02	-6.864083e-03
2.009794e+02	-6.943541e-03
2.021403e+02	-7.023919e-03
2.033078e+02	-7.105226e-03
2.044821e+02	-7.187473e-03
2.056632e+02	-7.270672e-03
2.068511e+02	-7.354833e-03
2.080459e+02	-7.439968e-03
2.092475e+02	-7.526087e-03
2.104561e+02	-7.613202e-03
2.116717e+02	-7.701324e-03
2.128943e+02	-7.790466e-03
2.141240e+02	-7.880638e-03
2.153608e+02	-7.971853e-03
2.166047e+02	-8.064123e-03
2.178558e+02	-8.157460e-03
2.191141e+02	-8.251877e-03
2.203797e+02	-8.347385e-03
2.216526e+02	-8.443997e-03
2.229329e+02	-8.541726e-03
2.242205e+02	-8.640586e-03
2.255156e+02	-8.740588e-03
2.268182e+02	-8.841746e-03
2.281283e+02	-8.944075e-03
2.294459e+02	-9.047586e-03
2.307712e+02	-9.152293e-03
2.321041e+02	-9.258212e-03
2.334447e+02	-9.365355e-03
2.347931e+02	-9.473736e-03
2.361493e+02	-9.583370e-03
2.375133e+02	-9.694271e-03
2.388851e+02	-9.806455e-03
2.402649e+02	-9.919935e-03
2.416527e+02	-1.003473e-02
2.430484e+02	-1.015085e-02
2.444523e+02	-1.026831e-02
2.458642e+02	-1.038712e-02
2.472843e+02	-1.050732e-02
2.487126e+02	-1.062890e-02
2.501492e+02	-1.075188e-02
2.515940e+02	-1.087629e-02
2.530472e+02	-1.100213e-02
2.545088e+02	-1.112943e-02
2.559789e+02	-1.125820e-02
2.574574e+02	-1.138846e-02
2.589444e+02	-1.152022e-02
2.604401e+02	-1.165351e-02
2.619444e+02	-1.178833e-02
2.634574e+02	-1.192471e-02
2.649791e+02	-1.206267e-02
2.665096e+02	-1.220222e-02
2.680489e+02	-1.234339e-02
2.695972e+02	-1.248618e-02
2.711544e+02	-1.263063e-02
2.727205e+02	-1.277674e-02
2.742958e+02	-1.292454e-02
2.758801e+02	-1.307405e-02
2.774736e+02	-1.322529e-02
2.790762e+02	-1.337827e-02
2.806882e+02	-1.353302e-02
2.823094e+02	-1.368955e-02
2.839400e+02	-1.384789e-02
2.855800e+02	-1.400807e-02
2.872295e+02	-1.417009e-02
2.888886e+02	-1.433398e-02
2.905572e+02	-1.449976e-02
2.922354e+02	-1.466746e-02
2.939234e+02	-1.483710e-02
2.956211e+02	-1.500869e-02
2.973286e+02	-1.518227e-02
2.990459e+02	-1.535784e-02
3.007732e+02	-1.553545e-02
3.025104e+02	-1.571511e-02
3.042577e+02	-1.589683e-02
3.060151e+02	-1.608066e-02
3.077826e+02	-1.626661e-02
3.095604e+02	-1.645470e-02
3.113484e+02	-1.664497e-02
3.131467e+02	-1.683743e-02
3.149554e+02	-1.703211e-02
3.167746e+02	-1.722904e-02
3.186043e+02	-1.742824e-02
3.204445e+02	-1.762974e-02
3.222954e+02	-1.783357e-02
3.241570e+02	-1.803974e-02
3.260293e+02	-1.824830e-02
3.279124e+02	-1.845926e-02
3.298064e+02	-1.867265e-02
3.317114e+02	-1.888851e-02
3.336273e+02	-1.910685e-02
3.355544e+02	-1.932771e-02
3.374925e+02	-1.955113e-02
3.394418e+02	-1.977711e-02
3.414024e+02	-2.000571e-02
3.433744e+02	-2.023694e-02
3.453577e+02	-2.047083e-02
3.473525e+02	-2.070742e-02
3.493588e+02	-2.094674e-02
3.513766e+02	-2.118882e-02
3.534062e+02	-2.143369e-02
3.554474e+02	-2.168139e-02
3.575005e+02	-2.193193e-02
3.595654e+02	-2.218537e-02
3.616422e+02	-2.244173e-02
3.637311e+02	-2.270104e-02
3.658320e+02	-2.296334e-02
3.679450e+02	-2.322866e-02
3.700702e+02	-2.349704e-02
3.722077e+02	-2.376851e-02
3.743576e+02	-2.404311e-02
3.765199e+02	-2.432088e-02
3.786946e+02	-2.460184e-02
3.808820e+02	-2.488604e-02
3.830819e+02	-2.517351e-02
3.852946e+02	-2.546429e-02
3.875200e+02	-2.575843e-02
3.897583e+02	-2.605595e-02
3.920096e+02	-2.635689e-02
3.942738e+02	-2.666130e-02
3.965511e+02	-2.696922e-02
3.988416e+02	-2.728068e-02
4.011452e+02	-2.759573e-02
4.034622e+02	-2.791440e-02
4.057926e+02	-2.823674e-02
4.081365e+02	-2.856279e-02
4.104938e+02	-2.889260e-02
4.128648e+02	-2.922619e-02
4.152495e+02	-2.956363e-02
4.176480e+02	-2.990495e-02
4.200603e+02	-3.025020e-02
4.224866e+02	-3.059942e-02
4.249268e+02	-3.095265e-02
4.273812e+02	-3.130995e-02
4.298497e+02	-3.167136e-02
4.323325e+02	-3.203692e-02
4.348297e+02	-3.240669e-02
4.373412e+02	-3.278071e-02
4.398673e+02	-3.315903e-02
4.424079e+02	-3.354169e-02
4.449633e+02	-3.392876e-02
4.475334e+02	-3.432028e-02
4.501183e+02	-3.471629e-02
4.527182e+02	-3.511686e-02
4.553330e+02	-3.552203e-02
4.579630e+02	-3.593185e-02
4.606082e+02	-3.634639e-02
4.632687e+02	-3.676568e-02
4.659445e+02	-3.718979e-02
4.686358e+02	-3.761878e-02
4.713426e+02	-3.805269e-02
4.740650e+02	-3.849158e-02
4.768032e+02	-3.893551e-02
4.795572e+02	-3.938454e-02
4.823271e+02	-3.983872e-02
4.851130e+02	-4.029812e-02
4.879150e+02	-4.076278e-02
4.907332e+02	-4.123278e-02
4.935676e+02	-4.170818e-02
4.964185e+02	-4.218902e-02
4.992858e+02	-4.267539e-02
5.021696e+02	-4.316733e-02
5.050701e+02	-4.366492e-02
5.079874e+02	-4.416821e-02
5.109215e+02	-4.467727e-02
5.138726e+02	-4.519217e-02
5.168407e+02	-4.571297e-02
5.198259e+02	-4.623974e-02
5.228284e+02	-4.677255e-02
5.258482e+02	-4.731147e-02
5.288855e+02	-4.785656e-02
5.319403e+02	-4.840789e-02
5.350128e+02	-4.896555e-02
5.381030e+02	-4.952958e-02
5.412111e+02	-5.010008e-02
5.443371e+02	-5.067711e-02
5.474812e+02	-5.126075e-02
5.506434e+02	-5.185107e-02
5.538239e+02	-5.244814e-02
5.570228e+02	-5.305205e-02
5.602401e+02	-5.366287e-02
5.634760e+02	-5.428068e-02
5.667306e+02	-5.490555e-02
5.700040e+02	-5.553758e-02
5.732964e+02	-5.617683e-02
5.766077e+02	-5.682339e-02
5.799382e+02	-5.747734e-02
5.832879e+02	-5.813877e-02
5.866569e+02	-5.880775e-02
5.900454e+02	-5.948439e-02
5.934535e+02	-6.016875e-02
5.968813e+02	-6.086093e-02
6.003288e+02	-6.156102e-02
6.037963e+02	-6.226910e-02
6.072838e+02	-6.298527e-02
6.107914e+02	-6.370962e-02
6.143194e+02	-6.444223e-02
6.178676e+02	-6.518320e-02
6.214364e+02	-6.593263e-02
6.250258e+02	-6.669061e-02
6.286359e+02	-6.745724e-02
6.322669e+02	-6.823260e-02
6.359189e+02	-6.901681e-02
6.395919e+02	-6.980996e-02
6.432862e+02	-7.061215e-02
6.470017e+02	-7.142348e-02
6.507388e+02	-7.224406e-02
6.544974e+02	-7.307399e-02
6.582778e+02	-7.391336e-02
6.620800e+02	-7.476230e-02
6.659041e+02	-7.562090e-02
6.697504e+02	-7.648927e-02
6.736188e+02	-7.736753e-02
6.775096e+02	-7.825578e-02
6.814229e+02	-7.915414e-02
6.853587e+02	-8.006271e-02
6.893173e+02	-8.098161e-02
6.932988e+02	-8.191096e-02
6.973033e+02	-8.285088e-02
7.013309e+02	-8.380147e-02
