Frequency(Hz)	Magnitude(dB)
1.000000e+01	-1.789244e-05
1.005776e+01	-1.809972e-05
1.011585e+01	-1.830941e-05
1.017428e+01	-1.852153e-05
1.023305e+01	-1.873611e-05
1.029215e+01	-1.895317e-05
1.035160e+01	-1.917275e-05
1.041139e+01	-1.939487e-05
1.047153e+01	-1.961957e-05
1.053201e+01	-1.984686e-05
1.059284e+01	-2.007679e-05
1.065403e+01	-2.030939e-05
1.071556e+01	-2.054468e-05
1.077746e+01	-2.078269e-05
1.083971e+01	-2.102347e-05
1.090232e+01	-2.126703e-05
1.096529e+01	-2.151341e-05
1.102862e+01	-2.176265e-05
1.109232e+01	-2.201478e-05
1.115639e+01	-2.226982e-05
1.122083e+01	-2.252783e-05
1.128564e+01	-2.278882e-05
1.135083e+01	-2.305283e-05
1.141639e+01	-2.331990e-05
1.148233e+01	-2.359007e-05
1.154865e+01	-2.386337e-05
1.161536e+01	-2.413983e-05
1.168245e+01	-2.441950e-05
1.174992e+01	-2.470240e-05
1.181779e+01	-2.498858e-05
1.188605e+01	-2.527808e-05
1.195470e+01	-2.557094e-05
1.202375e+01	-2.586718e-05
1.209320e+01	-2.616686e-05
1.216305e+01	-2.647001e-05
1.223330e+01	-2.677667e-05
1.230396e+01	-2.708688e-05
1.237503e+01	-2.740069e-05
1.244651e+01	-2.771814e-05
1.251840e+01	-2.803926e-05
1.259070e+01	-2.836410e-05
1.266343e+01	-2.869270e-05
1.273657e+01	-2.902512e-05
1.281014e+01	-2.936138e-05
1.288413e+01	-2.970154e-05
1.295855e+01	-3.004564e-05
1.303339e+01	-3.039372e-05
1.310867e+01	-3.074584e-05
1.318439e+01	-3.110204e-05
1.326054e+01	-3.146236e-05
1.333713e+01	-3.182686e-05
1.341417e+01	-3.219558e-05
1.349165e+01	-3.256858e-05
1.356958e+01	-3.294589e-05
1.364795e+01	-3.332758e-05
1.372678e+01	-3.371369e-05
1.380607e+01	-3.410427e-05
1.388581e+01	-3.449937e-05
1.396602e+01	-3.489906e-05
1.404668e+01	-3.530337e-05
1.412782e+01	-3.571237e-05
1.420942e+01	-3.612610e-05
1.429149e+01	-3.654463e-05
1.437404e+01	-3.696801e-05
1.445706e+01	-3.739629e-05
1.454057e+01	-3.782954e-05
1.462455e+01	-3.826780e-05
1.470902e+01	-3.871114e-05
1.479398e+01	-3.915962e-05
1.487943e+01	-3.961330e-05
1.496537e+01	-4.007222e-05
1.505181e+01	-4.053647e-05
1.513875e+01	-4.100609e-05
1.522619e+01	-4.148116e-05
1.531414e+01	-4.196173e-05
1.540259e+01	-4.244786e-05
1.549156e+01	-4.293963e-05
1.558103e+01	-4.343710e-05
1.567103e+01	-4.394033e-05
1.576155e+01	-4.444938e-05
1.585258e+01	-4.496434e-05
1.594415e+01	-4.548526e-05
1.603624e+01	-4.601222e-05
1.612886e+01	-4.654528e-05
1.622202e+01	-4.708452e-05
1.631572e+01	-4.763000e-05
1.640996e+01	-4.818180e-05
1.650474e+01	-4.874000e-05
1.660008e+01	-4.930466e-05
1.669596e+01	-4.987587e-05
1.679239e+01	-5.045369e-05
1.688938e+01	-5.103821e-05
1.698694e+01	-5.162950e-05
1.708505e+01	-5.222764e-05
1.718373e+01	-5.283270e-05
1.728299e+01	-5.344478e-05
1.738281e+01	-5.406395e-05
1.748322e+01	-5.469029e-05
1.758420e+01	-5.532389e-05
1.768576e+01	-5.596483e-05
1.778792e+01	-5.661319e-05
1.789066e+01	-5.726907e-05
1.799399e+01	-5.793254e-05
1.809793e+01	-5.860370e-05
1.820246e+01	-5.928264e-05
1.830760e+01	-5.996944e-05
1.841334e+01	-6.066420e-05
1.851969e+01	-6.136700e-05
1.862666e+01	-6.207795e-05
1.873425e+01	-6.279714e-05
1.884246e+01	-6.352466e-05
1.895129e+01	-6.426060e-05
1.906075e+01	-6.500507e-05
1.917085e+01	-6.575817e-05
1.928158e+01	-6.651999e-05
1.939295e+01	-6.729064e-05
1.950496e+01	-6.807021e-05
1.961762e+01	-6.885882e-05
1.973093e+01	-6.965656e-05
1.984490e+01	-7.046354e-05
1.995952e+01	-7.127988e-05
2.007480e+01	-7.210567e-05
2.019076e+01	-7.294102e-05
2.030738e+01	-7.378606e-05
2.042467e+01	-7.464088e-05
2.054264e+01	-7.550561e-05
2.066130e+01	-7.638036e-05
2.078064e+01	-7.726524e-05
2.090066e+01	-7.816037e-05
2.102139e+01	-7.906587e-05
2.114280e+01	-7.998186e-05
2.126492e+01	-8.090847e-05
2.138775e+01	-8.184581e-05
2.151128e+01	-8.279400e-05
2.163553e+01	-8.375319e-05
2.176050e+01	-8.472348e-05
2.188619e+01	-8.570502e-05
2.201260e+01	-8.669792e-05
2.213974e+01	-8.770233e-05
2.226762e+01	-8.871838e-05
2.239624e+01	-8.974619e-05
2.252560e+01	-9.078592e-05
2.265571e+01	-9.183769e-05
2.278656e+01	-9.290164e-05
2.291818e+01	-9.397792e-05
2.305055e+01	-9.506667e-05
2.318369e+01	-9.616803e-05
2.331760e+01	-9.728215e-05
2.345228e+01	-9.840918e-05
2.358774e+01	-9.954926e-05
2.372398e+01	-1.007026e-04
2.386101e+01	-1.018692e-04
2.399883e+01	-1.030494e-04
2.413745e+01	-1.042432e-04
2.427686e+01	-1.054509e-04
2.441709e+01	-1.066726e-04
2.455812e+01	-1.079084e-04
2.469997e+01	-1.091585e-04
2.484263e+01	-1.104231e-04
2.498612e+01	-1.117024e-04
2.513044e+01	-1.129965e-04
2.527559e+01	-1.143056e-04
2.542158e+01	-1.156298e-04
2.556842e+01	-1.169694e-04
2.571610e+01	-1.183245e-04
2.586463e+01	-1.196953e-04
2.601403e+01	-1.210820e-04
2.616428e+01	-1.224847e-04
2.631541e+01	-1.239037e-04
2.646740e+01	-1.253392e-04
2.662028e+01	-1.267912e-04
2.677404e+01	-1.282601e-04
2.692868e+01	-1.297460e-04
2.708422e+01	-1.312491e-04
2.724066e+01	-1.327697e-04
2.739800e+01	-1.343078e-04
2.755625e+01	-1.358638e-04
2.771541e+01	-1.374378e-04
2.787550e+01	-1.390300e-04
2.803650e+01	-1.406407e-04
2.819844e+01	-1.422700e-04
2.836131e+01	-1.439182e-04
2.852513e+01	-1.455856e-04
2.868989e+01	-1.472722e-04
2.885560e+01	-1.489783e-04
2.902227e+01	-1.507043e-04
2.918990e+01	-1.524502e-04
2.935850e+01	-1.542163e-04
2.952807e+01	-1.560029e-04
2.969863e+01	-1.578102e-04
2.987016e+01	-1.596385e-04
3.004269e+01	-1.614879e-04
3.021622e+01	-1.633587e-04
3.039075e+01	-1.652513e-04
3.056628e+01	-1.671657e-04
3.074283e+01	-1.691023e-04
3.092040e+01	-1.710614e-04
3.109900e+01	-1.730432e-04
3.127862e+01	-1.750479e-04
3.145929e+01	-1.770758e-04
3.164099e+01	-1.791272e-04
3.182375e+01	-1.812024e-04
3.200756e+01	-1.833017e-04
3.219244e+01	-1.854252e-04
3.237838e+01	-1.875734e-04
3.256540e+01	-1.897464e-04
3.275349e+01	-1.919446e-04
3.294268e+01	-1.941683e-04
3.313295e+01	-1.964178e-04
3.332433e+01	-1.986933e-04
3.351681e+01	-2.009951e-04
3.371040e+01	-2.033237e-04
3.390511e+01	-2.056792e-04
3.410094e+01	-2.080620e-04
3.429791e+01	-2.104724e-04
3.449601e+01	-2.129107e-04
3.469526e+01	-2.153772e-04
3.489566e+01	-2.178724e-04
3.509721e+01	-2.203964e-04
3.529993e+01	-2.229497e-04
3.550382e+01	-2.255326e-04
3.570889e+01	-2.281454e-04
3.591515e+01	-2.307884e-04
3.612259e+01	-2.334621e-04
3.633123e+01	-2.361668e-04
3.654108e+01	-2.389027e-04
3.675214e+01	-2.416704e-04
3.696442e+01	-2.444702e-04
3.717792e+01	-2.473023e-04
3.739266e+01	-2.501673e-04
3.760864e+01	-2.530655e-04
3.782587e+01	-2.559972e-04
3.804435e+01	-2.589630e-04
3.826409e+01	-2.619630e-04
3.848510e+01	-2.649978e-04
3.870739e+01	-2.680678e-04
3.893096e+01	-2.711734e-04
3.915583e+01	-2.743149e-04
3.938199e+01	-2.774928e-04
3.960946e+01	-2.807075e-04
3.983824e+01	-2.839595e-04
4.006834e+01	-2.872491e-04
4.029978e+01	-2.905769e-04
4.053255e+01	-2.939432e-04
4.076666e+01	-2.973485e-04
4.100213e+01	-3.007932e-04
4.123896e+01	-3.042779e-04
4.147715e+01	-3.078029e-04
4.171672e+01	-3.113688e-04
4.195767e+01	-3.149759e-04
4.220002e+01	-3.186249e-04
4.244377e+01	-3.223161e-04
4.268892e+01	-3.260501e-04
4.293549e+01	-3.298273e-04
4.318348e+01	-3.336483e-04
4.343291e+01	-3.375136e-04
4.368377e+01	-3.414236e-04
4.393609e+01	-3.453789e-04
4.418986e+01	-3.493801e-04
4.444510e+01	-3.534276e-04
4.470182e+01	-3.575220e-04
4.496001e+01	-3.616638e-04
4.521970e+01	-3.658536e-04
4.548089e+01	-3.700919e-04
4.574358e+01	-3.743793e-04
4.600779e+01	-3.787164e-04
4.627353e+01	-3.831038e-04
4.654081e+01	-3.875419e-04
4.680963e+01	-3.920315e-04
4.708000e+01	-3.965731e-04
4.735193e+01	-4.011673e-04
4.762543e+01	-4.058147e-04
4.790051e+01	-4.105160e-04
4.817719e+01	-4.152717e-04
4.845545e+01	-4.200825e-04
4.873533e+01	-4.249490e-04
4.901682e+01	-4.298719e-04
4.929994e+01	-4.348519e-04
4.958470e+01	-4.398895e-04
4.987110e+01	-4.449855e-04
5.015915e+01	-4.501405e-04
5.044887e+01	-4.553552e-04
5.074026e+01	-4.606304e-04
5.103333e+01	-4.659666e-04
5.132810e+01	-4.713647e-04
5.162457e+01	-4.768253e-04
5.192275e+01	-4.823491e-04
5.222265e+01	-4.879369e-04
5.252429e+01	-4.935895e-04
5.282767e+01	-4.993075e-04
5.313280e+01	-5.050918e-04
5.343969e+01	-5.109431e-04
5.374836e+01	-5.168622e-04
5.405880e+01	-5.228498e-04
5.437105e+01	-5.289068e-04
5.468509e+01	-5.350339e-04
5.500095e+01	-5.412321e-04
5.531863e+01	-5.475020e-04
5.563815e+01	-5.538446e-04
5.595951e+01	-5.602606e-04
5.628273e+01	-5.667509e-04
5.660782e+01	-5.733165e-04
5.693479e+01	-5.799581e-04
5.726364e+01	-5.866766e-04
5.759439e+01	-5.934729e-04
5.792705e+01	-6.003480e-04
5.826164e+01	-6.073027e-04
5.859815e+01	-6.143380e-04
5.893662e+01	-6.214547e-04
5.927703e+01	-6.286539e-04
5.961941e+01	-6.359365e-04
5.996377e+01	-6.433035e-04
6.031012e+01	-6.507558e-04
6.065847e+01	-6.582944e-04
6.100883e+01	-6.659203e-04
6.136121e+01	-6.736346e-04
6.171563e+01	-6.814382e-04
6.207210e+01	-6.893323e-04
6.243063e+01	-6.973177e-04
6.279122e+01	-7.053957e-04
6.315390e+01	-7.135672e-04
6.351868e+01	-7.218334e-04
6.388556e+01	-7.301953e-04
6.425456e+01	-7.386541e-04
6.462569e+01	-7.472109e-04
6.499897e+01	-7.558668e-04
6.537440e+01	-7.646229e-04
6.575200e+01	-7.734805e-04
6.613178e+01	-7.824407e-04
6.651375e+01	-7.915047e-04
6.689793e+01	-8.006736e-04
6.728433e+01	-8.099488e-04
6.767297e+01	-8.193314e-04
6.806384e+01	-8.288226e-04
6.845698e+01	-8.384238e-04
6.885238e+01	-8.481363e-04
6.925007e+01	-8.579612e-04
6.965005e+01	-8.678999e-04
7.005235e+01	-8.779538e-04
7.045697e+01	-8.881240e-04
7.086393e+01	-8.984121e-04
7.127323e+01	-9.088194e-04
7.168490e+01	-9.193472e-04
7.209895e+01	-9.299970e-04
7.251539e+01	-9.407701e-04
7.293424e+01	-9.516679e-04
7.335551e+01	-9.626921e-04
7.377920e+01	-9.738439e-04
7.420535e+01	-9.851248e-04
7.463396e+01	-9.965364e-04
7.506504e+01	-1.008080e-03
7.549861e+01	-1.019758e-03
7.593469e+01	-1.031571e-03
7.637328e+01	-1.043520e-03
7.681441e+01	-1.055608e-03
7.725809e+01	-1.067836e-03
7.770433e+01	-1.080206e-03
7.815315e+01	-1.092719e-03
7.860456e+01	-1.105376e-03
7.905857e+01	-1.118181e-03
7.951521e+01	-1.131134e-03
7.997449e+01	-1.144236e-03
8.043642e+01	-1.157491e-03
8.090102e+01	-1.170899e-03
8.136830e+01	-1.184462e-03
8.183828e+01	-1.198183e-03
8.231097e+01	-1.212062e-03
8.278640e+01	-1.226102e-03
8.326457e+01	-1.240305e-03
8.374550e+01	-1.254672e-03
8.422921e+01	-1.269206e-03
8.471572e+01	-1.283908e-03
8.520503e+01	-1.298780e-03
8.569717e+01	-1.313824e-03
8.619215e+01	-1.329043e-03
8.669000e+01	-1.344438e-03
8.719071e+01	-1.360011e-03
8.769432e+01	-1.375765e-03
8.820084e+01	-1.391701e-03
8.871029e+01	-1.407821e-03
8.922267e+01	-1.424129e-03
8.973802e+01	-1.440625e-03
9.025634e+01	-1.457312e-03
9.077766e+01	-1.474193e-03
9.130199e+01	-1.491269e-03
9.182935e+01	-1.508542e-03
9.235975e+01	-1.526016e-03
9.289321e+01	-1.543692e-03
9.342976e+01	-1.561573e-03
9.396941e+01	-1.579661e-03
9.451217e+01	-1.597958e-03
9.505807e+01	-1.616468e-03
9.560712e+01	-1.635191e-03
9.615934e+01	-1.654132e-03
9.671476e+01	-1.673292e-03
9.727338e+01	-1.692674e-03
9.783522e+01	-1.712280e-03
9.840032e+01	-1.732113e-03
9.896867e+01	-1.752176e-03
9.954031e+01	-1.772471e-03
1.001153e+02	-1.793002e-03
1.006935e+02	-1.813770e-03
1.012751e+02	-1.834778e-03
1.018601e+02	-1.856030e-03
1.024484e+02	-1.877528e-03
1.030402e+02	-1.899275e-03
1.036353e+02	-1.921274e-03
1.042339e+02	-1.943527e-03
1.048360e+02	-1.966038e-03
1.054415e+02	-1.988810e-03
1.060505e+02	-2.011846e-03
1.066631e+02	-2.035148e-03
1.072791e+02	-2.058720e-03
1.078988e+02	-2.082565e-03
1.085220e+02	-2.106687e-03
1.091488e+02	-2.131087e-03
1.097793e+02	-2.155770e-03
1.104133e+02	-2.180739e-03
1.110511e+02	-2.205997e-03
1.116925e+02	-2.231548e-03
1.123376e+02	-2.257394e-03
1.129865e+02	-2.283540e-03
1.136391e+02	-2.309988e-03
1.142955e+02	-2.336743e-03
1.149556e+02	-2.363807e-03
1.156196e+02	-2.391185e-03
1.162874e+02	-2.418880e-03
1.169591e+02	-2.446895e-03
1.176347e+02	-2.475235e-03
1.183141e+02	-2.503903e-03
1.189975e+02	-2.532903e-03
1.196848e+02	-2.562238e-03
1.203761e+02	-2.591914e-03
1.210714e+02	-2.621933e-03
1.217707e+02	-2.652299e-03
1.224740e+02	-2.683017e-03
1.231814e+02	-2.714091e-03
1.238929e+02	-2.745524e-03
1.246085e+02	-2.777322e-03
1.253283e+02	-2.809487e-03
1.260522e+02	-2.842025e-03
1.267802e+02	-2.874940e-03
1.275125e+02	-2.908236e-03
1.282490e+02	-2.941917e-03
1.289898e+02	-2.975988e-03
1.297348e+02	-3.010454e-03
1.304842e+02	-3.045319e-03
1.312378e+02	-3.080587e-03
1.319959e+02	-3.116264e-03
1.327583e+02	-3.152353e-03
1.335251e+02	-3.188861e-03
1.342963e+02	-3.225791e-03
1.350720e+02	-3.263148e-03
1.358522e+02	-3.300938e-03
1.366368e+02	-3.339166e-03
1.374260e+02	-3.377836e-03
1.382198e+02	-3.416953e-03
1.390182e+02	-3.456524e-03
1.398211e+02	-3.496553e-03
1.406287e+02	-3.537045e-03
1.414410e+02	-3.578005e-03
1.422579e+02	-3.619440e-03
1.430796e+02	-3.661354e-03
1.439060e+02	-3.703754e-03
1.447372e+02	-3.746645e-03
1.455732e+02	-3.790031e-03
1.464141e+02	-3.833920e-03
1.472597e+02	-3.878318e-03
1.481103e+02	-3.923229e-03
1.489658e+02	-3.968659e-03
1.498262e+02	-4.014616e-03
1.506916e+02	-4.061105e-03
1.515620e+02	-4.108131e-03
1.524374e+02	-4.155702e-03
1.533179e+02	-4.203824e-03
1.542034e+02	-4.252502e-03
1.550941e+02	-4.301744e-03
1.559899e+02	-4.351556e-03
1.568909e+02	-4.401944e-03
1.577971e+02	-4.452916e-03
1.587085e+02	-4.504477e-03
1.596252e+02	-4.556635e-03
1.605472e+02	-4.609397e-03
1.614745e+02	-4.662769e-03
1.624072e+02	-4.716759e-03
1.633453e+02	-4.771374e-03
1.642887e+02	-4.826621e-03
1.652377e+02	-4.882507e-03
1.661921e+02	-4.939040e-03
1.671520e+02	-4.996227e-03
1.681175e+02	-5.054076e-03
1.690885e+02	-5.112594e-03
1.700651e+02	-5.171789e-03
1.710474e+02	-5.231670e-03
1.720354e+02	-5.292243e-03
1.730291e+02	-5.353517e-03
1.740285e+02	-5.415500e-03
1.750337e+02	-5.478200e-03
1.760446e+02	-5.541626e-03
1.770615e+02	-5.605786e-03
1.780842e+02	-5.670688e-03
1.791128e+02	-5.736341e-03
1.801473e+02	-5.802753e-03
1.811878e+02	-5.869934e-03
1.822344e+02	-5.937892e-03
1.832870e+02	-6.006636e-03
1.843456e+02	-6.076176e-03
1.854104e+02	-6.146520e-03
1.864813e+02	-6.217678e-03
1.875584e+02	-6.289659e-03
1.886418e+02	-6.362473e-03
1.897313e+02	-6.436129e-03
1.908272e+02	-6.510637e-03
1.919294e+02	-6.586007e-03
1.930380e+02	-6.662249e-03
1.941530e+02	-6.739373e-03
1.952744e+02	-6.817389e-03
1.964023e+02	-6.896307e-03
1.975367e+02	-6.976138e-03
1.986777e+02	-7.056893e-03
1.998252e+02	-7.138581e-03
2.009794e+02	-7.221215e-03
2.021403e+02	-7.304804e-03
2.033078e+02	-7.389359e-03
2.044821e+02	-7.474893e-03
2.056632e+02	-7.561416e-03
2.068511e+02	-7.648940e-03
2.080459e+02	-7.737475e-03
2.092475e+02	-7.827035e-03
2.104561e+02	-7.917630e-03
2.116717e+02	-8.009273e-03
2.128943e+02	-8.101976e-03
2.141240e+02	-8.195751e-03
2.153608e+02	-8.290609e-03
2.166047e+02	-8.386565e-03
2.178558e+02	-8.483631e-03
2.191141e+02	-8.581818e-03
2.203797e+02	-8.681141e-03
2.216526e+02	-8.781612e-03
2.229329e+02	-8.883245e-03
2.242205e+02	-8.986053e-03
2.255156e+02	-9.090049e-03
2.268182e+02	-9.195248e-03
2.281283e+02	-9.301663e-03
2.294459e+02	-9.409308e-03
2.307712e+02	-9.518197e-03
2.321041e+02	-9.628345e-03
2.334447e+02	-9.739767e-03
2.347931e+02	-9.852476e-03
2.361493e+02	-9.966488e-03
2.375133e+02	-1.008182e-02
2.388851e+02	-1.019848e-02
2.402649e+02	-1.031649e-02
2.416527e+02	-1.043587e-02
2.430484e+02	-1.055662e-02
2.444523e+02	-1.067877e-02
2.458642e+02	-1.080233e-02
2.472843e+02	-1.092732e-02
2.487126e+02	-1.105376e-02
2.501492e+02	-1.118165e-02
2.515940e+02	-1.131103e-02
2.530472e+02	-1.144189e-02
2.545088e+02	-1.157427e-02
2.559789e+02	-1.170818e-02
2.574574e+02	-1.184364e-02
2.589444e+02	-1.198066e-02
2.604401e+02	-1.211927e-02
2.619444e+02	-1.225947e-02
2.634574e+02	-1.240130e-02
2.649791e+02	-1.254476e-02
2.665096e+02	-1.268988e-02
2.680489e+02	-1.283668e-02
2.695972e+02	-1.298517e-02
2.711544e+02	-1.313538e-02
2.727205e+02	-1.328733e-02
2.742958e+02	-1.344102e-02
2.758801e+02	-1.359650e-02
2.774736e+02	-1.375376e-02
2.790762e+02	-1.391285e-02
2.806882e+02	-1.407377e-02
2.823094e+02	-1.423655e-02
2.839400e+02	-1.440121e-02
2.855800e+02	-1.456777e-02
2.872295e+02	-1.473626e-02
2.888886e+02	-1.490669e-02
2.905572e+02	-1.507908e-02
2.922354e+02	-1.525347e-02
2.939234e+02	-1.542987e-02
2.956211e+02	-1.560831e-02
2.973286e+02	-1.578880e-02
2.990459e+02	-1.597138e-02
3.007732e+02	-1.615607e-02
3.025104e+02	-1.634289e-02
3.042577e+02	-1.653186e-02
3.060151e+02	-1.672302e-02
3.077826e+02	-1.691638e-02
3.095604e+02	-1.711197e-02
3.113484e+02	-1.730982e-02
3.131467e+02	-1.750996e-02
3.149554e+02	-1.771240e-02
3.167746e+02	-1.791718e-02
3.186043e+02	-1.812432e-02
3.204445e+02	-1.833385e-02
3.222954e+02	-1.854579e-02
3.241570e+02	-1.876019e-02
3.260293e+02	-1.897705e-02
3.279124e+02	-1.919642e-02
3.298064e+02	-1.941831e-02
3.317114e+02	-1.964277e-02
3.336273e+02	-1.986981e-02
3.355544e+02	-2.009948e-02
3.374925e+02	-2.033179e-02
3.394418e+02	-2.056678e-02
3.414024e+02	-2.080447e-02
3.433744e+02	-2.104491e-02
3.453577e+02	-2.128812e-02
3.473525e+02	-2.153414e-02
3.493588e+02	-2.178299e-02
3.513766e+02	-2.203471e-02
3.534062e+02	-2.228933e-02
3.554474e+02	-2.254688e-02
3.575005e+02	-2.280741e-02
3.595654e+02	-2.307093e-02
3.616422e+02	-2.333750e-02
3.637311e+02	-2.360713e-02
3.658320e+02	-2.387987e-02
3.679450e+02	-2.415575e-02
3.700702e+02	-2.443481e-02
3.722077e+02	-2.471709e-02
3.743576e+02	-2.500261e-02
3.765199e+02	-2.529143e-02
3.786946e+02	-2.558357e-02
3.808820e+02	-2.587908e-02
3.830819e+02	-2.617799e-02
3.852946e+02	-2.648034e-02
3.875200e+02	-2.678617e-02
3.897583e+02	-2.709552e-02
3.920096e+02	-2.740844e-02
3.942738e+02	-2.772495e-02
3.965511e+02	-2.804512e-02
3.988416e+02	-2.836896e-02
4.011452e+02	-2.869653e-02
4.034622e+02	-2.902788e-02
4.057926e+02	-2.936303e-02
4.081365e+02	-2.970204e-02
4.104938e+02	-3.004495e-02
4.128648e+02	-3.039181e-02
4.152495e+02	-3.074266e-02
4.176480e+02	-3.109754e-02
4.200603e+02	-3.145650e-02
4.224866e+02	-3.181960e-02
4.249268e+02	-3.218686e-02
4.273812e+02	-3.255836e-02
4.298497e+02	-3.293412e-02
4.323325e+02	-3.331420e-02
4.348297e+02	-3.369865e-02
4.373412e+02	-3.408752e-02
4.398673e+02	-3.448086e-02
4.424079e+02	-3.487872e-02
4.449633e+02	-3.528116e-02
4.475334e+02	-3.568821e-02
4.501183e+02	-3.609995e-02
4.527182e+02	-3.651641e-02
4.553330e+02	-3.693766e-02
4.579630e+02	-3.736375e-02
4.606082e+02	-3.779473e-02
4.632687e+02	-3.823066e-02
4.659445e+02	-3.867159e-02
4.686358e+02	-3.911759e-02
4.713426e+02	-3.956871e-02
4.740650e+02	-4.002500e-02
4.768032e+02	-4.048654e-02
4.795572e+02	-4.095337e-02
4.823271e+02	-4.142555e-02
4.851130e+02	-4.190316e-02
4.879150e+02	-4.238624e-02
4.907332e+02	-4.287487e-02
4.935676e+02	-4.336910e-02
4.964185e+02	-4.386900e-02
4.992858e+02	-4.437463e-02
5.021696e+02	-4.488606e-02
5.050701e+02	-4.540335e-02
5.079874e+02	-4.592657e-02
5.109215e+02	-4.645579e-02
5.138726e+02	-4.699108e-02
5.168407e+02	-4.753249e-02
5.198259e+02	-4.808012e-02
5.228284e+02	-4.863401e-02
5.258482e+02	-4.919425e-02
5.288855e+02	-4.976091e-02
5.319403e+02	-5.033406e-02
5.350128e+02	-5.091376e-02
5.381030e+02	-5.150011e-02
5.412111e+02	-5.209317e-02
5.443371e+02	-5.269301e-02
5.474812e+02	-5.329972e-02
5.506434e+02	-5.391338e-02
5.538239e+02	-5.453405e-02
5.570228e+02	-5.516182e-02
5.602401e+02	-5.579677e-02
5.634760e+02	-5.643899e-02
5.667306e+02	-5.708854e-02
5.700040e+02	-5.774553e-02
5.732964e+02	-5.841002e-02
5.766077e+02	-5.908211e-02
5.799382e+02	-5.976187e-02
5.832879e+02	-6.044940e-02
5.866569e+02	-6.114479e-02
5.900454e+02	-6.184812e-02
5.934535e+02	-6.255948e-02
5.968813e+02	-6.327896e-02
6.003288e+02	-6.400666e-02
6.037963e+02	-6.474266e-02
6.072838e+02	-6.548706e-02
6.107914e+02	-6.623996e-02
6.143194e+02	-6.700144e-02
6.178676e+02	-6.777161e-02
6.214364e+02	-6.855056e-02
6.250258e+02	-6.933839e-02
6.286359e+02	-7.013521e-02
6.322669e+02	-7.094110e-02
6.359189e+02	-7.175618e-02
6.395919e+02	-7.258055e-02
6.432862e+02	-7.341431e-02
6.470017e+02	-7.425756e-02
6.507388e+02	-7.511041e-02
6.544974e+02	-7.597297e-02
6.582778e+02	-7.684535e-02
6.620800e+02	-7.772766e-02
6.659041e+02	-7.862001e-02
6.697504e+02	-7.952250e-02
6.736188e+02	-8.043526e-02
6.775096e+02	-8.135840e-02
6.814229e+02	-8.229203e-02
6.853587e+02	-8.323627e-02
6.893173e+02	-8.419125e-02
6.932988e+02	-8.515707e-02
6.973033e+02	-8.613386e-02
7.013309e+02	-8.712174e-02
