Frequency(Hz)	Magnitude(dB)
1.000000e+01	-1.768950e-05
1.005776e+01	-1.789444e-05
1.011585e+01	-1.810175e-05
1.017428e+01	-1.831147e-05
1.023305e+01	-1.852361e-05
1.029215e+01	-1.873821e-05
1.035160e+01	-1.895530e-05
1.041139e+01	-1.917490e-05
1.047153e+01	-1.939704e-05
1.053201e+01	-1.962176e-05
1.059284e+01	-1.984909e-05
1.065403e+01	-2.007904e-05
1.071556e+01	-2.031166e-05
1.077746e+01	-2.054698e-05
1.083971e+01	-2.078502e-05
1.090232e+01	-2.102582e-05
1.096529e+01	-2.126941e-05
1.102862e+01	-2.151582e-05
1.109232e+01	-2.176509e-05
1.115639e+01	-2.201724e-05
1.122083e+01	-2.227232e-05
1.128564e+01	-2.253035e-05
1.135083e+01	-2.279137e-05
1.141639e+01	-2.305541e-05
1.148233e+01	-2.332251e-05
1.154865e+01	-2.359271e-05
1.161536e+01	-2.386604e-05
1.168245e+01	-2.414253e-05
1.174992e+01	-2.442223e-05
1.181779e+01	-2.470517e-05
1.188605e+01	-2.499138e-05
1.195470e+01	-2.528091e-05
1.202375e+01	-2.557380e-05
1.209320e+01	-2.587008e-05
1.216305e+01	-2.616979e-05
1.223330e+01	-2.647297e-05
1.230396e+01	-2.677967e-05
1.237503e+01	-2.708992e-05
1.244651e+01	-2.740376e-05
1.251840e+01	-2.772124e-05
1.259070e+01	-2.804240e-05
1.266343e+01	-2.836728e-05
1.273657e+01	-2.869592e-05
1.281014e+01	-2.902837e-05
1.288413e+01	-2.936467e-05
1.295855e+01	-2.970486e-05
1.303339e+01	-3.004900e-05
1.310867e+01	-3.039713e-05
1.318439e+01	-3.074929e-05
1.326054e+01	-3.110552e-05
1.333713e+01	-3.146589e-05
1.341417e+01	-3.183043e-05
1.349165e+01	-3.219919e-05
1.356958e+01	-3.257223e-05
1.364795e+01	-3.294958e-05
1.372678e+01	-3.333131e-05
1.380607e+01	-3.371746e-05
1.388581e+01	-3.410809e-05
1.396602e+01	-3.450324e-05
1.404668e+01	-3.490297e-05
1.412782e+01	-3.530733e-05
1.420942e+01	-3.571637e-05
1.429149e+01	-3.613015e-05
1.437404e+01	-3.654873e-05
1.445706e+01	-3.697215e-05
1.454057e+01	-3.740048e-05
1.462455e+01	-3.783378e-05
1.470902e+01	-3.827209e-05
1.479398e+01	-3.871548e-05
1.487943e+01	-3.916401e-05
1.496537e+01	-3.961773e-05
1.505181e+01	-4.007671e-05
1.513875e+01	-4.054101e-05
1.522619e+01	-4.101069e-05
1.531414e+01	-4.148581e-05
1.540259e+01	-4.196643e-05
1.549156e+01	-4.245262e-05
1.558103e+01	-4.294444e-05
1.567103e+01	-4.344196e-05
1.576155e+01	-4.394525e-05
1.585258e+01	-4.445436e-05
1.594415e+01	-4.496938e-05
1.603624e+01	-4.549036e-05
1.612886e+01	-4.601737e-05
1.622202e+01	-4.655049e-05
1.631572e+01	-4.708979e-05
1.640996e+01	-4.763534e-05
1.650474e+01	-4.818720e-05
1.660008e+01	-4.874546e-05
1.669596e+01	-4.931019e-05
1.679239e+01	-4.988146e-05
1.688938e+01	-5.045934e-05
1.698694e+01	-5.104393e-05
1.708505e+01	-5.163528e-05
1.718373e+01	-5.223349e-05
1.728299e+01	-5.283862e-05
1.738281e+01	-5.345077e-05
1.748322e+01	-5.407001e-05
1.758420e+01	-5.469642e-05
1.768576e+01	-5.533009e-05
1.778792e+01	-5.597110e-05
1.789066e+01	-5.661953e-05
1.799399e+01	-5.727548e-05
1.809793e+01	-5.793903e-05
1.820246e+01	-5.861027e-05
1.830760e+01	-5.928928e-05
1.841334e+01	-5.997616e-05
1.851969e+01	-6.067099e-05
1.862666e+01	-6.137388e-05
1.873425e+01	-6.208491e-05
1.884246e+01	-6.280417e-05
1.895129e+01	-6.353177e-05
1.906075e+01	-6.426780e-05
1.917085e+01	-6.501235e-05
1.928158e+01	-6.576553e-05
1.939295e+01	-6.652744e-05
1.950496e+01	-6.729817e-05
1.961762e+01	-6.807784e-05
1.973093e+01	-6.886653e-05
1.984490e+01	-6.966436e-05
1.995952e+01	-7.047144e-05
2.007480e+01	-7.128786e-05
2.019076e+01	-7.211374e-05
2.030738e+01	-7.294919e-05
2.042467e+01	-7.379432e-05
2.054264e+01	-7.464925e-05
2.066130e+01	-7.551407e-05
2.078064e+01	-7.638891e-05
2.090066e+01	-7.727389e-05
2.102139e+01	-7.816912e-05
2.114280e+01	-7.907473e-05
2.126492e+01	-7.999082e-05
2.138775e+01	-8.091753e-05
2.151128e+01	-8.185497e-05
2.163553e+01	-8.280328e-05
2.176050e+01	-8.376257e-05
2.188619e+01	-8.473297e-05
2.201260e+01	-8.571462e-05
2.213974e+01	-8.670763e-05
2.226762e+01	-8.771215e-05
2.239624e+01	-8.872831e-05
2.252560e+01	-8.975625e-05
2.265571e+01	-9.079609e-05
2.278656e+01	-9.184797e-05
2.291818e+01	-9.291205e-05
2.305055e+01	-9.398845e-05
2.318369e+01	-9.507732e-05
2.331760e+01	-9.617880e-05
2.345228e+01	-9.729305e-05
2.358774e+01	-9.842020e-05
2.372398e+01	-9.956042e-05
2.386101e+01	-1.007138e-04
2.399883e+01	-1.018806e-04
2.413745e+01	-1.030609e-04
2.427686e+01	-1.042549e-04
2.441709e+01	-1.054627e-04
2.455812e+01	-1.066845e-04
2.469997e+01	-1.079205e-04
2.484263e+01	-1.091707e-04
2.498612e+01	-1.104355e-04
2.513044e+01	-1.117149e-04
2.527559e+01	-1.130091e-04
2.542158e+01	-1.143184e-04
2.556842e+01	-1.156427e-04
2.571610e+01	-1.169825e-04
2.586463e+01	-1.183377e-04
2.601403e+01	-1.197087e-04
2.616428e+01	-1.210955e-04
2.631541e+01	-1.224984e-04
2.646740e+01	-1.239176e-04
2.662028e+01	-1.253532e-04
2.677404e+01	-1.268054e-04
2.692868e+01	-1.282745e-04
2.708422e+01	-1.297606e-04
2.724066e+01	-1.312638e-04
2.739800e+01	-1.327846e-04
2.755625e+01	-1.343229e-04
2.771541e+01	-1.358790e-04
2.787550e+01	-1.374532e-04
2.803650e+01	-1.390456e-04
2.819844e+01	-1.406565e-04
2.836131e+01	-1.422860e-04
2.852513e+01	-1.439344e-04
2.868989e+01	-1.456019e-04
2.885560e+01	-1.472887e-04
2.902227e+01	-1.489950e-04
2.918990e+01	-1.507211e-04
2.935850e+01	-1.524673e-04
2.952807e+01	-1.542336e-04
2.969863e+01	-1.560204e-04
2.987016e+01	-1.578279e-04
3.004269e+01	-1.596564e-04
3.021622e+01	-1.615060e-04
3.039075e+01	-1.633770e-04
3.056628e+01	-1.652698e-04
3.074283e+01	-1.671844e-04
3.092040e+01	-1.691213e-04
3.109900e+01	-1.710806e-04
3.127862e+01	-1.730625e-04
3.145929e+01	-1.750675e-04
3.164099e+01	-1.770956e-04
3.182375e+01	-1.791473e-04
3.200756e+01	-1.812227e-04
3.219244e+01	-1.833222e-04
3.237838e+01	-1.854460e-04
3.256540e+01	-1.875944e-04
3.275349e+01	-1.897677e-04
3.294268e+01	-1.919661e-04
3.313295e+01	-1.941901e-04
3.332433e+01	-1.964398e-04
3.351681e+01	-1.987155e-04
3.371040e+01	-2.010176e-04
3.390511e+01	-2.033464e-04
3.410094e+01	-2.057022e-04
3.429791e+01	-2.080853e-04
3.449601e+01	-2.104959e-04
3.469526e+01	-2.129345e-04
3.489566e+01	-2.154014e-04
3.509721e+01	-2.178968e-04
3.529993e+01	-2.204211e-04
3.550382e+01	-2.229747e-04
3.570889e+01	-2.255579e-04
3.591515e+01	-2.281709e-04
3.612259e+01	-2.308143e-04
3.633123e+01	-2.334883e-04
3.654108e+01	-2.361932e-04
3.675214e+01	-2.389295e-04
3.696442e+01	-2.416975e-04
3.717792e+01	-2.444975e-04
3.739266e+01	-2.473300e-04
3.760864e+01	-2.501953e-04
3.782587e+01	-2.530938e-04
3.804435e+01	-2.560259e-04
3.826409e+01	-2.589920e-04
3.848510e+01	-2.619924e-04
3.870739e+01	-2.650275e-04
3.893096e+01	-2.680979e-04
3.915583e+01	-2.712037e-04
3.938199e+01	-2.743456e-04
3.960946e+01	-2.775239e-04
3.983824e+01	-2.807390e-04
4.006834e+01	-2.839913e-04
4.029978e+01	-2.872813e-04
4.053255e+01	-2.906094e-04
4.076666e+01	-2.939761e-04
4.100213e+01	-2.973818e-04
4.123896e+01	-3.008269e-04
4.147715e+01	-3.043120e-04
4.171672e+01	-3.078374e-04
4.195767e+01	-3.114036e-04
4.220002e+01	-3.150112e-04
4.244377e+01	-3.186606e-04
4.268892e+01	-3.223522e-04
4.293549e+01	-3.260866e-04
4.318348e+01	-3.298642e-04
4.343291e+01	-3.336857e-04
4.368377e+01	-3.375514e-04
4.393609e+01	-3.414618e-04
4.418986e+01	-3.454176e-04
4.444510e+01	-3.494192e-04
4.470182e+01	-3.534672e-04
4.496001e+01	-3.575620e-04
4.521970e+01	-3.617043e-04
4.548089e+01	-3.658946e-04
4.574358e+01	-3.701334e-04
4.600779e+01	-3.744213e-04
4.627353e+01	-3.787589e-04
4.654081e+01	-3.831467e-04
4.680963e+01	-3.875854e-04
4.708000e+01	-3.920754e-04
4.735193e+01	-3.966175e-04
4.762543e+01	-4.012122e-04
4.790051e+01	-4.058602e-04
4.817719e+01	-4.105620e-04
4.845545e+01	-4.153182e-04
4.873533e+01	-4.201296e-04
4.901682e+01	-4.249966e-04
4.929994e+01	-4.299201e-04
4.958470e+01	-4.349006e-04
4.987110e+01	-4.399388e-04
5.015915e+01	-4.450353e-04
5.044887e+01	-4.501909e-04
5.074026e+01	-4.554062e-04
5.103333e+01	-4.606820e-04
5.132810e+01	-4.660188e-04
5.162457e+01	-4.714175e-04
5.192275e+01	-4.768787e-04
5.222265e+01	-4.824031e-04
5.252429e+01	-4.879916e-04
5.282767e+01	-4.936448e-04
5.313280e+01	-4.993635e-04
5.343969e+01	-5.051484e-04
5.374836e+01	-5.110003e-04
5.405880e+01	-5.169201e-04
5.437105e+01	-5.229084e-04
5.468509e+01	-5.289660e-04
5.500095e+01	-5.350939e-04
5.531863e+01	-5.412927e-04
5.563815e+01	-5.475633e-04
5.595951e+01	-5.539066e-04
5.628273e+01	-5.603233e-04
5.660782e+01	-5.668144e-04
5.693479e+01	-5.733807e-04
5.726364e+01	-5.800230e-04
5.759439e+01	-5.867423e-04
5.792705e+01	-5.935394e-04
5.826164e+01	-6.004152e-04
5.859815e+01	-6.073707e-04
5.893662e+01	-6.144068e-04
5.927703e+01	-6.215244e-04
5.961941e+01	-6.287244e-04
5.996377e+01	-6.360078e-04
6.031012e+01	-6.433756e-04
6.065847e+01	-6.508287e-04
6.100883e+01	-6.583681e-04
6.136121e+01	-6.659949e-04
6.171563e+01	-6.737101e-04
6.207210e+01	-6.815146e-04
6.243063e+01	-6.894095e-04
6.279122e+01	-6.973958e-04
6.315390e+01	-7.054747e-04
6.351868e+01	-7.136471e-04
6.388556e+01	-7.219143e-04
6.425456e+01	-7.302771e-04
6.462569e+01	-7.387369e-04
6.499897e+01	-7.472946e-04
6.537440e+01	-7.559515e-04
6.575200e+01	-7.647086e-04
6.613178e+01	-7.735672e-04
6.651375e+01	-7.825284e-04
6.689793e+01	-7.915933e-04
6.728433e+01	-8.007633e-04
6.767297e+01	-8.100395e-04
6.806384e+01	-8.194232e-04
6.845698e+01	-8.289155e-04
6.885238e+01	-8.385178e-04
6.925007e+01	-8.482313e-04
6.965005e+01	-8.580573e-04
7.005235e+01	-8.679971e-04
7.045697e+01	-8.780521e-04
7.086393e+01	-8.882235e-04
7.127323e+01	-8.985128e-04
7.168490e+01	-9.089212e-04
7.209895e+01	-9.194502e-04
7.251539e+01	-9.301011e-04
7.293424e+01	-9.408755e-04
7.335551e+01	-9.517746e-04
7.377920e+01	-9.627999e-04
7.420535e+01	-9.739530e-04
7.463396e+01	-9.852352e-04
7.506504e+01	-9.966481e-04
7.549861e+01	-1.008193e-03
7.593469e+01	-1.019872e-03
7.637328e+01	-1.031686e-03
7.681441e+01	-1.043637e-03
7.725809e+01	-1.055726e-03
7.770433e+01	-1.067956e-03
7.815315e+01	-1.080327e-03
7.860456e+01	-1.092841e-03
7.905857e+01	-1.105500e-03
7.951521e+01	-1.118306e-03
7.997449e+01	-1.131260e-03
8.043642e+01	-1.144365e-03
8.090102e+01	-1.157621e-03
8.136830e+01	-1.171030e-03
8.183828e+01	-1.184595e-03
8.231097e+01	-1.198317e-03
8.278640e+01	-1.212198e-03
8.326457e+01	-1.226240e-03
8.374550e+01	-1.240444e-03
8.422921e+01	-1.254813e-03
8.471572e+01	-1.269348e-03
8.520503e+01	-1.284051e-03
8.569717e+01	-1.298925e-03
8.619215e+01	-1.313971e-03
8.669000e+01	-1.329192e-03
8.719071e+01	-1.344588e-03
8.769432e+01	-1.360163e-03
8.820084e+01	-1.375919e-03
8.871029e+01	-1.391857e-03
8.922267e+01	-1.407979e-03
8.973802e+01	-1.424288e-03
9.025634e+01	-1.440786e-03
9.077766e+01	-1.457475e-03
9.130199e+01	-1.474358e-03
9.182935e+01	-1.491436e-03
9.235975e+01	-1.508711e-03
9.289321e+01	-1.526187e-03
9.342976e+01	-1.543865e-03
9.396941e+01	-1.561748e-03
9.451217e+01	-1.579838e-03
9.505807e+01	-1.598138e-03
9.560712e+01	-1.616649e-03
9.615934e+01	-1.635375e-03
9.671476e+01	-1.654317e-03
9.727338e+01	-1.673479e-03
9.783522e+01	-1.692863e-03
9.840032e+01	-1.712472e-03
9.896867e+01	-1.732307e-03
9.954031e+01	-1.752372e-03
1.001153e+02	-1.772670e-03
1.006935e+02	-1.793203e-03
1.012751e+02	-1.813973e-03
1.018601e+02	-1.834984e-03
1.024484e+02	-1.856238e-03
1.030402e+02	-1.877738e-03
1.036353e+02	-1.899488e-03
1.042339e+02	-1.921489e-03
1.048360e+02	-1.943745e-03
1.054415e+02	-1.966259e-03
1.060505e+02	-1.989033e-03
1.066631e+02	-2.012071e-03
1.072791e+02	-2.035376e-03
1.078988e+02	-2.058951e-03
1.085220e+02	-2.082799e-03
1.091488e+02	-2.106923e-03
1.097793e+02	-2.131326e-03
1.104133e+02	-2.156012e-03
1.110511e+02	-2.180983e-03
1.116925e+02	-2.206244e-03
1.123376e+02	-2.231798e-03
1.129865e+02	-2.257647e-03
1.136391e+02	-2.283795e-03
1.142955e+02	-2.310247e-03
1.149556e+02	-2.337004e-03
1.156196e+02	-2.364072e-03
1.162874e+02	-2.391453e-03
1.169591e+02	-2.419151e-03
1.176347e+02	-2.447169e-03
1.183141e+02	-2.475512e-03
1.189975e+02	-2.504183e-03
1.196848e+02	-2.533187e-03
1.203761e+02	-2.562526e-03
1.210714e+02	-2.592204e-03
1.217707e+02	-2.622226e-03
1.224740e+02	-2.652596e-03
1.231814e+02	-2.683318e-03
1.238929e+02	-2.714395e-03
1.246085e+02	-2.745832e-03
1.253283e+02	-2.777633e-03
1.260522e+02	-2.809802e-03
1.267802e+02	-2.842344e-03
1.275125e+02	-2.875262e-03
1.282490e+02	-2.908562e-03
1.289898e+02	-2.942247e-03
1.297348e+02	-2.976322e-03
1.304842e+02	-3.010791e-03
1.312378e+02	-3.045660e-03
1.319959e+02	-3.080932e-03
1.327583e+02	-3.116613e-03
1.335251e+02	-3.152707e-03
1.342963e+02	-3.189218e-03
1.350720e+02	-3.226152e-03
1.358522e+02	-3.263514e-03
1.366368e+02	-3.301308e-03
1.374260e+02	-3.339540e-03
1.382198e+02	-3.378214e-03
1.390182e+02	-3.417336e-03
1.398211e+02	-3.456911e-03
1.406287e+02	-3.496945e-03
1.414410e+02	-3.537441e-03
1.422579e+02	-3.578406e-03
1.430796e+02	-3.619846e-03
1.439060e+02	-3.661765e-03
1.447372e+02	-3.704169e-03
1.455732e+02	-3.747065e-03
1.464141e+02	-3.790456e-03
1.472597e+02	-3.834350e-03
1.481103e+02	-3.878752e-03
1.489658e+02	-3.923668e-03
1.498262e+02	-3.969104e-03
1.506916e+02	-4.015066e-03
1.515620e+02	-4.061560e-03
1.524374e+02	-4.108592e-03
1.533179e+02	-4.156168e-03
1.542034e+02	-4.204295e-03
1.550941e+02	-4.252979e-03
1.559899e+02	-4.302226e-03
1.568909e+02	-4.352044e-03
1.577971e+02	-4.402438e-03
1.587085e+02	-4.453415e-03
1.596252e+02	-4.504982e-03
1.605472e+02	-4.557146e-03
1.614745e+02	-4.609914e-03
1.624072e+02	-4.663292e-03
1.633453e+02	-4.717288e-03
1.642887e+02	-4.771909e-03
1.652377e+02	-4.827162e-03
1.661921e+02	-4.883054e-03
1.671520e+02	-4.939594e-03
1.681175e+02	-4.996787e-03
1.690885e+02	-5.054642e-03
1.700651e+02	-5.113167e-03
1.710474e+02	-5.172369e-03
1.720354e+02	-5.232256e-03
1.730291e+02	-5.292836e-03
1.740285e+02	-5.354117e-03
1.750337e+02	-5.416107e-03
1.760446e+02	-5.478815e-03
1.770615e+02	-5.542248e-03
1.780842e+02	-5.606415e-03
1.791128e+02	-5.671324e-03
1.801473e+02	-5.736984e-03
1.811878e+02	-5.803404e-03
1.822344e+02	-5.870592e-03
1.832870e+02	-5.938558e-03
1.843456e+02	-6.007310e-03
1.854104e+02	-6.076857e-03
1.864813e+02	-6.147210e-03
1.875584e+02	-6.218375e-03
1.886418e+02	-6.290365e-03
1.897313e+02	-6.363187e-03
1.908272e+02	-6.436851e-03
1.919294e+02	-6.511367e-03
1.930380e+02	-6.586746e-03
1.941530e+02	-6.662996e-03
1.952744e+02	-6.740129e-03
1.964023e+02	-6.818154e-03
1.975367e+02	-6.897081e-03
1.986777e+02	-6.976921e-03
1.998252e+02	-7.057684e-03
2.009794e+02	-7.139382e-03
2.021403e+02	-7.222025e-03
2.033078e+02	-7.305623e-03
2.044821e+02	-7.390189e-03
2.056632e+02	-7.475732e-03
2.068511e+02	-7.562265e-03
2.080459e+02	-7.649798e-03
2.092475e+02	-7.738344e-03
2.104561e+02	-7.827913e-03
2.116717e+02	-7.918519e-03
2.128943e+02	-8.010172e-03
2.141240e+02	-8.102885e-03
2.153608e+02	-8.196670e-03
2.166047e+02	-8.291540e-03
2.178558e+02	-8.387506e-03
2.191141e+02	-8.484583e-03
2.203797e+02	-8.582781e-03
2.216526e+02	-8.682115e-03
2.229329e+02	-8.782598e-03
2.242205e+02	-8.884242e-03
2.255156e+02	-8.987062e-03
2.268182e+02	-9.091070e-03
2.281283e+02	-9.196280e-03
2.294459e+02	-9.302707e-03
2.307712e+02	-9.410364e-03
2.321041e+02	-9.519266e-03
2.334447e+02	-9.629426e-03
2.347931e+02	-9.740860e-03
2.361493e+02	-9.853582e-03
2.375133e+02	-9.967607e-03
2.388851e+02	-1.008295e-02
2.402649e+02	-1.019963e-02
2.416527e+02	-1.031765e-02
2.430484e+02	-1.043704e-02
2.444523e+02	-1.055781e-02
2.458642e+02	-1.067997e-02
2.472843e+02	-1.080355e-02
2.487126e+02	-1.092855e-02
2.501492e+02	-1.105500e-02
2.515940e+02	-1.118291e-02
2.530472e+02	-1.131230e-02
2.545088e+02	-1.144318e-02
2.559789e+02	-1.157557e-02
2.574574e+02	-1.170950e-02
2.589444e+02	-1.184497e-02
2.604401e+02	-1.198201e-02
2.619444e+02	-1.212063e-02
2.634574e+02	-1.226085e-02
2.649791e+02	-1.240269e-02
2.665096e+02	-1.254617e-02
2.680489e+02	-1.269131e-02
2.695972e+02	-1.283812e-02
2.711544e+02	-1.298663e-02
2.727205e+02	-1.313686e-02
2.742958e+02	-1.328882e-02
2.758801e+02	-1.344253e-02
2.774736e+02	-1.359802e-02
2.790762e+02	-1.375531e-02
2.806882e+02	-1.391441e-02
2.823094e+02	-1.407535e-02
2.839400e+02	-1.423815e-02
2.855800e+02	-1.440283e-02
2.872295e+02	-1.456941e-02
2.888886e+02	-1.473791e-02
2.905572e+02	-1.490836e-02
2.922354e+02	-1.508078e-02
2.939234e+02	-1.525518e-02
2.956211e+02	-1.543160e-02
2.973286e+02	-1.561006e-02
2.990459e+02	-1.579058e-02
3.007732e+02	-1.597318e-02
3.025104e+02	-1.615789e-02
3.042577e+02	-1.634473e-02
3.060151e+02	-1.653372e-02
3.077826e+02	-1.672490e-02
3.095604e+02	-1.691828e-02
3.113484e+02	-1.711390e-02
3.131467e+02	-1.731177e-02
3.149554e+02	-1.751193e-02
3.167746e+02	-1.771439e-02
3.186043e+02	-1.791919e-02
3.204445e+02	-1.812636e-02
3.222954e+02	-1.833591e-02
3.241570e+02	-1.854788e-02
3.260293e+02	-1.876230e-02
3.279124e+02	-1.897919e-02
3.298064e+02	-1.919858e-02
3.317114e+02	-1.942050e-02
3.336273e+02	-1.964498e-02
3.355544e+02	-1.987205e-02
3.374925e+02	-2.010174e-02
3.394418e+02	-2.033407e-02
3.414024e+02	-2.056909e-02
3.433744e+02	-2.080682e-02
3.453577e+02	-2.104728e-02
3.473525e+02	-2.129052e-02
3.493588e+02	-2.153656e-02
3.513766e+02	-2.178544e-02
3.534062e+02	-2.203719e-02
3.554474e+02	-2.229184e-02
3.575005e+02	-2.254942e-02
3.595654e+02	-2.280998e-02
3.616422e+02	-2.307353e-02
3.637311e+02	-2.334012e-02
3.658320e+02	-2.360979e-02
3.679450e+02	-2.388256e-02
3.700702e+02	-2.415847e-02
3.722077e+02	-2.443756e-02
3.743576e+02	-2.471987e-02
3.765199e+02	-2.500543e-02
3.786946e+02	-2.529428e-02
3.808820e+02	-2.558645e-02
3.830819e+02	-2.588199e-02
3.852946e+02	-2.618094e-02
3.875200e+02	-2.648332e-02
3.897583e+02	-2.678919e-02
3.920096e+02	-2.709858e-02
3.942738e+02	-2.741153e-02
3.965511e+02	-2.772808e-02
3.988416e+02	-2.804828e-02
4.011452e+02	-2.837216e-02
4.034622e+02	-2.869977e-02
4.057926e+02	-2.903115e-02
4.081365e+02	-2.936634e-02
4.104938e+02	-2.970539e-02
4.128648e+02	-3.004834e-02
4.152495e+02	-3.039524e-02
4.176480e+02	-3.074612e-02
4.200603e+02	-3.110105e-02
4.224866e+02	-3.146005e-02
4.249268e+02	-3.182319e-02
4.273812e+02	-3.219050e-02
4.298497e+02	-3.256203e-02
4.323325e+02	-3.293783e-02
4.348297e+02	-3.331796e-02
4.373412e+02	-3.370246e-02
4.398673e+02	-3.409137e-02
4.424079e+02	-3.448476e-02
4.449633e+02	-3.488266e-02
4.475334e+02	-3.528514e-02
4.501183e+02	-3.569224e-02
4.527182e+02	-3.610403e-02
4.553330e+02	-3.652054e-02
4.579630e+02	-3.694183e-02
4.606082e+02	-3.736797e-02
4.632687e+02	-3.779900e-02
4.659445e+02	-3.823498e-02
4.686358e+02	-3.867596e-02
4.713426e+02	-3.912201e-02
4.740650e+02	-3.957318e-02
4.768032e+02	-4.002953e-02
4.795572e+02	-4.049111e-02
4.823271e+02	-4.095800e-02
4.851130e+02	-4.143024e-02
4.879150e+02	-4.190790e-02
4.907332e+02	-4.239104e-02
4.935676e+02	-4.287972e-02
4.964185e+02	-4.337400e-02
4.992858e+02	-4.387396e-02
5.021696e+02	-4.437965e-02
5.050701e+02	-4.489114e-02
5.079874e+02	-4.540849e-02
5.109215e+02	-4.593177e-02
5.138726e+02	-4.646105e-02
5.168407e+02	-4.699640e-02
5.198259e+02	-4.753788e-02
5.228284e+02	-4.808556e-02
5.258482e+02	-4.863952e-02
5.288855e+02	-4.919982e-02
5.319403e+02	-4.976655e-02
5.350128e+02	-5.033976e-02
5.381030e+02	-5.091953e-02
5.412111e+02	-5.150595e-02
5.443371e+02	-5.209907e-02
5.474812e+02	-5.269899e-02
5.506434e+02	-5.330577e-02
5.538239e+02	-5.391949e-02
5.570228e+02	-5.454023e-02
5.602401e+02	-5.516808e-02
5.634760e+02	-5.580310e-02
5.667306e+02	-5.644539e-02
5.700040e+02	-5.709502e-02
5.732964e+02	-5.775208e-02
5.766077e+02	-5.841665e-02
5.799382e+02	-5.908881e-02
5.832879e+02	-5.976866e-02
5.866569e+02	-6.045627e-02
5.900454e+02	-6.115174e-02
5.934535e+02	-6.185515e-02
5.968813e+02	-6.256659e-02
6.003288e+02	-6.328615e-02
6.037963e+02	-6.401393e-02
6.072838e+02	-6.475002e-02
6.107914e+02	-6.549451e-02
6.143194e+02	-6.624749e-02
6.178676e+02	-6.700906e-02
6.214364e+02	-6.777932e-02
6.250258e+02	-6.855836e-02
6.286359e+02	-6.934628e-02
6.322669e+02	-7.014319e-02
6.359189e+02	-7.094918e-02
6.395919e+02	-7.176435e-02
6.432862e+02	-7.258881e-02
6.470017e+02	-7.342267e-02
6.507388e+02	-7.426602e-02
6.544974e+02	-7.511897e-02
6.582778e+02	-7.598163e-02
6.620800e+02	-7.685411e-02
6.659041e+02	-7.773652e-02
6.697504e+02	-7.862897e-02
6.736188e+02	-7.953157e-02
6.775096e+02	-8.044444e-02
6.814229e+02	-8.136768e-02
6.853587e+02	-8.230142e-02
6.893173e+02	-8.324578e-02
6.932988e+02	-8.420086e-02
6.973033e+02	-8.516679e-02
7.013309e+02	-8.614370e-02
