Frequency(Hz)	Magnitude(dB)
1.000000e+01	-1.934737e+00
1.005776e+01	-1.952729e+00
1.011585e+01	-1.971104e+00
1.017428e+01	-1.989332e+00
1.023305e+01	-2.007701e+00
1.029215e+01	-2.026403e+00
1.035160e+01	-2.044853e+00
1.041139e+01	-2.063939e+00
1.047153e+01	-2.082936e+00
1.053201e+01	-2.101992e+00
1.059284e+01	-2.121346e+00
1.065403e+01	-2.140601e+00
1.071556e+01	-2.160391e+00
1.077746e+01	-2.179844e+00
1.083971e+01	-2.199846e+00
1.090232e+01	-2.220051e+00
1.096529e+01	-2.239615e+00
1.102862e+01	-2.260108e+00
1.109232e+01	-2.280354e+00
1.115639e+01	-2.300890e+00
1.122083e+01	-2.321508e+00
1.128564e+01	-2.342200e+00
1.135083e+01	-2.363204e+00
1.141639e+01	-2.384309e+00
1.148233e+01	-2.405565e+00
1.154865e+01	-2.426796e+00
1.161536e+01	-2.448384e+00
1.168245e+01	-2.469805e+00
1.174992e+01	-2.491622e+00
1.181779e+01	-2.513659e+00
1.188605e+01	-2.535675e+00
1.195470e+01	-2.558026e+00
1.202375e+01	-2.580326e+00
1.209320e+01	-2.602652e+00
1.216305e+01	-2.625222e+00
1.223330e+01	-2.648128e+00
1.230396e+01	-2.671097e+00
1.237503e+01	-2.694092e+00
1.244651e+01	-2.717369e+00
1.251840e+01	-2.740619e+00
1.259070e+01	-2.764106e+00
1.266343e+01	-2.787681e+00
1.273657e+01	-2.811362e+00
1.281014e+01	-2.835368e+00
1.288413e+01	-2.859649e+00
1.295855e+01	-2.883828e+00
1.303339e+01	-2.908067e+00
1.310867e+01	-2.932459e+00
1.318439e+01	-2.957191e+00
1.326054e+01	-2.981834e+00
1.333713e+01	-3.006892e+00
1.341417e+01	-3.031840e+00
1.349165e+01	-3.057102e+00
1.356958e+01	-3.082576e+00
1.364795e+01	-3.107921e+00
1.372678e+01	-3.133602e+00
1.380607e+01	-3.159480e+00
1.388581e+01	-3.185102e+00
1.396602e+01	-3.211177e+00
1.404668e+01	-3.237497e+00
1.412782e+01	-3.264028e+00
1.420942e+01	-3.290353e+00
1.429149e+01	-3.316940e+00
1.437404e+01	-3.343990e+00
1.445706e+01	-3.370838e+00
1.454057e+01	-3.397922e+00
1.462455e+01	-3.425089e+00
1.470902e+01	-3.452266e+00
1.479398e+01	-3.479959e+00
1.487943e+01	-3.507537e+00
1.496537e+01	-3.535330e+00
1.505181e+01	-3.563429e+00
1.513875e+01	-3.591357e+00
1.522619e+01	-3.619371e+00
1.531414e+01	-3.647973e+00
1.540259e+01	-3.676416e+00
1.549156e+01	-3.705002e+00
1.558103e+01	-3.733886e+00
1.567103e+01	-3.762833e+00
1.576155e+01	-3.791866e+00
1.585258e+01	-3.820912e+00
1.594415e+01	-3.850570e+00
1.603624e+01	-3.879817e+00
1.612886e+01	-3.909585e+00
1.622202e+01	-3.939218e+00
1.631572e+01	-3.969231e+00
1.640996e+01	-3.999221e+00
1.650474e+01	-4.029268e+00
1.660008e+01	-4.059468e+00
1.669596e+01	-4.089940e+00
1.679239e+01	-4.120530e+00
1.688938e+01	-4.151287e+00
1.698694e+01	-4.182280e+00
1.708505e+01	-4.213331e+00
1.718373e+01	-4.244233e+00
1.728299e+01	-4.275820e+00
1.738281e+01	-4.307206e+00
1.748322e+01	-4.338601e+00
1.758420e+01	-4.370511e+00
1.768576e+01	-4.402167e+00
1.778792e+01	-4.433961e+00
1.789066e+01	-4.466148e+00
1.799399e+01	-4.498145e+00
1.809793e+01	-4.531052e+00
1.820246e+01	-4.562949e+00
1.830760e+01	-4.595799e+00
1.841334e+01	-4.628392e+00
1.851969e+01	-4.661310e+00
1.862666e+01	-4.694395e+00
1.873425e+01	-4.727587e+00
1.884246e+01	-4.760693e+00
1.895129e+01	-4.794066e+00
1.906075e+01	-4.827581e+00
1.917085e+01	-4.861155e+00
1.928158e+01	-4.894793e+00
1.939295e+01	-4.928683e+00
1.950496e+01	-4.963039e+00
1.961762e+01	-4.997085e+00
1.973093e+01	-5.031337e+00
1.984490e+01	-5.065638e+00
1.995952e+01	-5.100053e+00
2.007480e+01	-5.134637e+00
2.019076e+01	-5.169408e+00
2.030738e+01	-5.204393e+00
2.042467e+01	-5.239464e+00
2.054264e+01	-5.274283e+00
2.066130e+01	-5.309607e+00
2.078064e+01	-5.345078e+00
2.090066e+01	-5.380575e+00
2.102139e+01	-5.416108e+00
2.114280e+01	-5.451703e+00
2.126492e+01	-5.487568e+00
2.138775e+01	-5.523567e+00
2.151128e+01	-5.559664e+00
2.163553e+01	-5.595911e+00
2.176050e+01	-5.632016e+00
2.188619e+01	-5.668408e+00
2.201260e+01	-5.705034e+00
2.213974e+01	-5.741784e+00
2.226762e+01	-5.778762e+00
2.239624e+01	-5.815273e+00
2.252560e+01	-5.852012e+00
2.265571e+01	-5.889203e+00
2.278656e+01	-5.926424e+00
2.291818e+01	-5.963888e+00
2.305055e+01	-6.001307e+00
2.318369e+01	-6.038702e+00
2.331760e+01	-6.076630e+00
2.345228e+01	-6.114053e+00
2.358774e+01	-6.152172e+00
2.372398e+01	-6.189957e+00
2.386101e+01	-6.227936e+00
2.399883e+01	-6.266341e+00
2.413745e+01	-6.304137e+00
2.427686e+01	-6.342873e+00
2.441709e+01	-6.381341e+00
2.455812e+01	-6.419763e+00
2.469997e+01	-6.458631e+00
2.484263e+01	-6.497494e+00
2.498612e+01	-6.536132e+00
2.513044e+01	-6.574979e+00
2.527559e+01	-6.614156e+00
2.542158e+01	-6.653101e+00
2.556842e+01	-6.692653e+00
2.571610e+01	-6.732173e+00
2.586463e+01	-6.771090e+00
2.601403e+01	-6.810926e+00
2.616428e+01	-6.850453e+00
2.631541e+01	-6.890224e+00
2.646740e+01	-6.930134e+00
2.662028e+01	-6.970001e+00
2.677404e+01	-7.010593e+00
2.692868e+01	-7.050100e+00
2.708422e+01	-7.089894e+00
2.724066e+01	-7.130780e+00
2.739800e+01	-7.171294e+00
2.755625e+01	-7.211517e+00
2.771541e+01	-7.252052e+00
2.787550e+01	-7.292851e+00
2.803650e+01	-7.333431e+00
2.819844e+01	-7.374266e+00
2.836131e+01	-7.414858e+00
2.852513e+01	-7.456004e+00
2.868989e+01	-7.497141e+00
2.885560e+01	-7.538477e+00
2.902227e+01	-7.579782e+00
2.918990e+01	-7.621118e+00
2.935850e+01	-7.662242e+00
2.952807e+01	-7.703686e+00
2.969863e+01	-7.745484e+00
2.987016e+01	-7.787229e+00
3.004269e+01	-7.829111e+00
3.021622e+01	-7.870132e+00
3.039075e+01	-7.912346e+00
3.056628e+01	-7.954775e+00
3.074283e+01	-7.996837e+00
3.092040e+01	-8.038553e+00
3.109900e+01	-8.080741e+00
3.127862e+01	-8.123131e+00
3.145929e+01	-8.165804e+00
3.164099e+01	-8.208228e+00
3.182375e+01	-8.250440e+00
3.200756e+01	-8.293412e+00
3.219244e+01	-8.335679e+00
3.237838e+01	-8.378540e+00
3.256540e+01	-8.421361e+00
3.275349e+01	-8.464215e+00
3.294268e+01	-8.506866e+00
3.313295e+01	-8.550305e+00
3.332433e+01	-8.592776e+00
3.351681e+01	-8.636417e+00
3.371040e+01	-8.679166e+00
3.390511e+01	-8.722949e+00
3.410094e+01	-8.766598e+00
3.429791e+01	-8.809448e+00
3.449601e+01	-8.853200e+00
3.469526e+01	-8.896566e+00
3.489566e+01	-8.940468e+00
3.509721e+01	-8.984085e+00
3.529993e+01	-9.027305e+00
3.550382e+01	-9.071462e+00
3.570889e+01	-9.115356e+00
3.591515e+01	-9.159371e+00
3.612259e+01	-9.202857e+00
3.633123e+01	-9.247081e+00
3.654108e+01	-9.291595e+00
3.675214e+01	-9.335372e+00
3.696442e+01	-9.379784e+00
3.717792e+01	-9.424286e+00
3.739266e+01	-9.468194e+00
3.760864e+01	-9.512847e+00
3.782587e+01	-9.557147e+00
3.804435e+01	-9.601906e+00
3.826409e+01	-9.646188e+00
3.848510e+01	-9.690627e+00
3.870739e+01	-9.735341e+00
3.893096e+01	-9.780705e+00
3.915583e+01	-9.825252e+00
3.938199e+01	-9.869815e+00
3.960946e+01	-9.915151e+00
3.983824e+01	-9.959727e+00
4.006834e+01	-1.000510e+01
4.029978e+01	-1.005052e+01
4.053255e+01	-1.009510e+01
4.076666e+01	-1.014031e+01
4.100213e+01	-1.018523e+01
4.123896e+01	-1.023084e+01
4.147715e+01	-1.027604e+01
4.171672e+01	-1.032122e+01
4.195767e+01	-1.036685e+01
4.220002e+01	-1.041218e+01
4.244377e+01	-1.045776e+01
4.268892e+01	-1.050367e+01
4.293549e+01	-1.054903e+01
4.318348e+01	-1.059419e+01
4.343291e+01	-1.064037e+01
4.368377e+01	-1.068600e+01
4.393609e+01	-1.073130e+01
4.418986e+01	-1.077751e+01
4.444510e+01	-1.082321e+01
4.470182e+01	-1.086926e+01
4.496001e+01	-1.091524e+01
4.521970e+01	-1.096099e+01
4.548089e+01	-1.100724e+01
4.574358e+01	-1.105327e+01
4.600779e+01	-1.109898e+01
4.627353e+01	-1.114552e+01
4.654081e+01	-1.119161e+01
4.680963e+01	-1.123806e+01
4.708000e+01	-1.128445e+01
4.735193e+01	-1.133038e+01
4.762543e+01	-1.137689e+01
4.790051e+01	-1.142360e+01
4.817719e+01	-1.147024e+01
4.845545e+01	-1.151642e+01
4.873533e+01	-1.156228e+01
4.901682e+01	-1.160935e+01
4.929994e+01	-1.165590e+01
4.958470e+01	-1.170305e+01
4.987110e+01	-1.174959e+01
5.015915e+01	-1.179595e+01
5.044887e+01	-1.184214e+01
5.074026e+01	-1.188921e+01
5.103333e+01	-1.193619e+01
5.132810e+01	-1.198353e+01
5.162457e+01	-1.203100e+01
5.192275e+01	-1.207734e+01
5.222265e+01	-1.212353e+01
5.252429e+01	-1.217119e+01
5.282767e+01	-1.221765e+01
5.313280e+01	-1.226507e+01
5.343969e+01	-1.231205e+01
5.374836e+01	-1.235870e+01
5.405880e+01	-1.240644e+01
5.437105e+01	-1.245330e+01
5.468509e+01	-1.250080e+01
5.500095e+01	-1.254735e+01
5.531863e+01	-1.259374e+01
5.563815e+01	-1.264221e+01
5.595951e+01	-1.268987e+01
5.628273e+01	-1.273650e+01
5.660782e+01	-1.278412e+01
5.693479e+01	-1.283167e+01
5.726364e+01	-1.287949e+01
5.759439e+01	-1.292669e+01
5.792705e+01	-1.297418e+01
5.826164e+01	-1.302172e+01
5.859815e+01	-1.306962e+01
5.893662e+01	-1.311744e+01
5.927703e+01	-1.316501e+01
5.961941e+01	-1.321146e+01
5.996377e+01	-1.326000e+01
6.031012e+01	-1.330793e+01
6.065847e+01	-1.335532e+01
6.100883e+01	-1.340366e+01
6.136121e+01	-1.345077e+01
6.171563e+01	-1.349862e+01
6.207210e+01	-1.354653e+01
6.243063e+01	-1.359477e+01
6.279122e+01	-1.364202e+01
6.315390e+01	-1.369038e+01
6.351868e+01	-1.373746e+01
6.388556e+01	-1.378565e+01
6.425456e+01	-1.383313e+01
6.462569e+01	-1.388108e+01
6.499897e+01	-1.392942e+01
6.537440e+01	-1.397744e+01
6.575200e+01	-1.402535e+01
6.613178e+01	-1.407331e+01
6.651375e+01	-1.412183e+01
6.689793e+01	-1.416985e+01
6.728433e+01	-1.421826e+01
6.767297e+01	-1.426640e+01
6.806384e+01	-1.431318e+01
6.845698e+01	-1.436136e+01
6.885238e+01	-1.441031e+01
6.925007e+01	-1.445872e+01
6.965005e+01	-1.450725e+01
7.005235e+01	-1.455499e+01
7.045697e+01	-1.460437e+01
7.086393e+01	-1.465188e+01
7.127323e+01	-1.470089e+01
7.168490e+01	-1.474892e+01
7.209895e+01	-1.479716e+01
7.251539e+01	-1.484515e+01
7.293424e+01	-1.489350e+01
7.335551e+01	-1.494145e+01
7.377920e+01	-1.499041e+01
7.420535e+01	-1.503909e+01
7.463396e+01	-1.508660e+01
7.506504e+01	-1.513693e+01
7.549861e+01	-1.518412e+01
7.593469e+01	-1.523303e+01
7.637328e+01	-1.528154e+01
7.681441e+01	-1.532963e+01
7.725809e+01	-1.537872e+01
7.770433e+01	-1.542811e+01
7.815315e+01	-1.547600e+01
7.860456e+01	-1.552420e+01
7.905857e+01	-1.557361e+01
7.951521e+01	-1.562161e+01
7.997449e+01	-1.566960e+01
8.043642e+01	-1.571965e+01
8.090102e+01	-1.576843e+01
8.136830e+01	-1.581722e+01
8.183828e+01	-1.586489e+01
8.231097e+01	-1.591484e+01
8.278640e+01	-1.596352e+01
8.326457e+01	-1.601108e+01
8.374550e+01	-1.605978e+01
8.422921e+01	-1.610881e+01
8.471572e+01	-1.615752e+01
8.520503e+01	-1.620629e+01
8.569717e+01	-1.625581e+01
8.619215e+01	-1.630525e+01
8.669000e+01	-1.635359e+01
8.719071e+01	-1.640185e+01
8.769432e+01	-1.644979e+01
8.820084e+01	-1.649952e+01
8.871029e+01	-1.655059e+01
8.922267e+01	-1.659802e+01
8.973802e+01	-1.664647e+01
9.025634e+01	-1.669528e+01
9.077766e+01	-1.674469e+01
9.130199e+01	-1.679464e+01
9.182935e+01	-1.684278e+01
9.235975e+01	-1.689230e+01
9.289321e+01	-1.694022e+01
9.342976e+01	-1.699050e+01
9.396941e+01	-1.703830e+01
9.451217e+01	-1.708735e+01
9.505807e+01	-1.713811e+01
9.560712e+01	-1.718566e+01
9.615934e+01	-1.723651e+01
9.671476e+01	-1.728445e+01
9.727338e+01	-1.733230e+01
9.783522e+01	-1.738257e+01
9.840032e+01	-1.743162e+01
9.896867e+01	-1.748047e+01
9.954031e+01	-1.752978e+01
1.001153e+02	-1.757846e+01
1.006935e+02	-1.762821e+01
1.012751e+02	-1.767714e+01
1.018601e+02	-1.772732e+01
1.024484e+02	-1.777563e+01
1.030402e+02	-1.782595e+01
1.036353e+02	-1.787398e+01
1.042339e+02	-1.792191e+01
1.048360e+02	-1.797231e+01
1.054415e+02	-1.802051e+01
1.060505e+02	-1.807066e+01
1.066631e+02	-1.812089e+01
1.072791e+02	-1.816924e+01
1.078988e+02	-1.821880e+01
1.085220e+02	-1.826834e+01
1.091488e+02	-1.831685e+01
1.097793e+02	-1.836677e+01
1.104133e+02	-1.841532e+01
1.110511e+02	-1.846515e+01
1.116925e+02	-1.851508e+01
1.123376e+02	-1.856436e+01
1.129865e+02	-1.861389e+01
1.136391e+02	-1.866222e+01
1.142955e+02	-1.871151e+01
1.149556e+02	-1.875991e+01
1.156196e+02	-1.881101e+01
1.162874e+02	-1.886040e+01
1.169591e+02	-1.891102e+01
1.176347e+02	-1.896074e+01
1.183141e+02	-1.900908e+01
1.189975e+02	-1.905663e+01
1.196848e+02	-1.910754e+01
1.203761e+02	-1.915521e+01
1.210714e+02	-1.920528e+01
1.217707e+02	-1.925547e+01
1.224740e+02	-1.930535e+01
1.231814e+02	-1.935502e+01
1.238929e+02	-1.940317e+01
1.246085e+02	-1.945463e+01
1.253283e+02	-1.950326e+01
1.260522e+02	-1.954937e+01
1.267802e+02	-1.960322e+01
1.275125e+02	-1.965123e+01
1.282490e+02	-1.970034e+01
1.289898e+02	-1.975117e+01
1.297348e+02	-1.980094e+01
1.304842e+02	-1.984852e+01
1.312378e+02	-1.989831e+01
1.319959e+02	-1.994709e+01
1.327583e+02	-1.999915e+01
1.335251e+02	-2.004774e+01
1.342963e+02	-2.009637e+01
1.350720e+02	-2.014580e+01
1.358522e+02	-2.019680e+01
1.366368e+02	-2.024566e+01
1.374260e+02	-2.029376e+01
1.382198e+02	-2.034546e+01
1.390182e+02	-2.039380e+01
1.398211e+02	-2.044420e+01
1.406287e+02	-2.049375e+01
1.414410e+02	-2.054453e+01
1.422579e+02	-2.059149e+01
1.430796e+02	-2.064281e+01
1.439060e+02	-2.069057e+01
1.447372e+02	-2.074110e+01
1.455732e+02	-2.079088e+01
1.464141e+02	-2.083914e+01
1.472597e+02	-2.088943e+01
1.481103e+02	-2.094044e+01
1.489658e+02	-2.099087e+01
1.498262e+02	-2.103917e+01
1.506916e+02	-2.108943e+01
1.515620e+02	-2.113856e+01
1.524374e+02	-2.119024e+01
1.533179e+02	-2.123730e+01
1.542034e+02	-2.128788e+01
1.550941e+02	-2.133831e+01
1.559899e+02	-2.138779e+01
1.568909e+02	-2.143664e+01
1.577971e+02	-2.148467e+01
1.587085e+02	-2.153540e+01
1.596252e+02	-2.158416e+01
1.605472e+02	-2.163325e+01
1.614745e+02	-2.168416e+01
1.624072e+02	-2.173511e+01
1.633453e+02	-2.178291e+01
1.642887e+02	-2.183401e+01
1.652377e+02	-2.188339e+01
1.661921e+02	-2.193569e+01
1.671520e+02	-2.198332e+01
1.681175e+02	-2.203421e+01
1.690885e+02	-2.208189e+01
1.700651e+02	-2.213287e+01
1.710474e+02	-2.218344e+01
1.720354e+02	-2.223035e+01
1.730291e+02	-2.228177e+01
1.740285e+02	-2.232883e+01
1.750337e+02	-2.238186e+01
1.760446e+02	-2.243066e+01
1.770615e+02	-2.247937e+01
1.780842e+02	-2.252973e+01
1.791128e+02	-2.257984e+01
1.801473e+02	-2.262899e+01
1.811878e+02	-2.268135e+01
1.822344e+02	-2.272989e+01
1.832870e+02	-2.277798e+01
1.843456e+02	-2.282986e+01
1.854104e+02	-2.287726e+01
1.864813e+02	-2.292803e+01
1.875584e+02	-2.297725e+01
1.886418e+02	-2.303001e+01
1.897313e+02	-2.307747e+01
1.908272e+02	-2.312713e+01
1.919294e+02	-2.317759e+01
1.930380e+02	-2.322863e+01
1.941530e+02	-2.327741e+01
1.952744e+02	-2.332856e+01
1.964023e+02	-2.337782e+01
1.975367e+02	-2.342602e+01
1.986777e+02	-2.347456e+01
1.998252e+02	-2.352809e+01
2.009794e+02	-2.357601e+01
2.021403e+02	-2.362685e+01
2.033078e+02	-2.367615e+01
2.044821e+02	-2.372727e+01
2.056632e+02	-2.377617e+01
2.068511e+02	-2.382591e+01
2.080459e+02	-2.387291e+01
2.092475e+02	-2.392467e+01
2.104561e+02	-2.397470e+01
2.116717e+02	-2.402276e+01
2.128943e+02	-2.407436e+01
2.141240e+02	-2.412446e+01
2.153608e+02	-2.417408e+01
2.166047e+02	-2.422414e+01
2.178558e+02	-2.427614e+01
2.191141e+02	-2.432304e+01
2.203797e+02	-2.437568e+01
2.216526e+02	-2.442379e+01
2.229329e+02	-2.447388e+01
2.242205e+02	-2.452477e+01
2.255156e+02	-2.457342e+01
2.268182e+02	-2.462603e+01
2.281283e+02	-2.467503e+01
2.294459e+02	-2.472316e+01
2.307712e+02	-2.477287e+01
2.321041e+02	-2.482572e+01
2.334447e+02	-2.487316e+01
2.347931e+02	-2.492236e+01
2.361493e+02	-2.497415e+01
2.375133e+02	-2.502578e+01
2.388851e+02	-2.507490e+01
2.402649e+02	-2.512368e+01
2.416527e+02	-2.517113e+01
2.430484e+02	-2.522030e+01
2.444523e+02	-2.527275e+01
2.458642e+02	-2.532303e+01
2.472843e+02	-2.537426e+01
2.487126e+02	-2.542379e+01
2.501492e+02	-2.547190e+01
2.515940e+02	-2.552036e+01
2.530472e+02	-2.557355e+01
2.545088e+02	-2.562124e+01
2.559789e+02	-2.567209e+01
2.574574e+02	-2.572004e+01
2.589444e+02	-2.576910e+01
2.604401e+02	-2.582420e+01
2.619444e+02	-2.587370e+01
2.634574e+02	-2.592081e+01
2.649791e+02	-2.596944e+01
2.665096e+02	-2.601951e+01
2.680489e+02	-2.607032e+01
2.695972e+02	-2.612030e+01
2.711544e+02	-2.617156e+01
2.727205e+02	-2.622245e+01
2.742958e+02	-2.627295e+01
2.758801e+02	-2.631933e+01
2.774736e+02	-2.637195e+01
2.790762e+02	-2.642163e+01
2.806882e+02	-2.647046e+01
2.823094e+02	-2.652365e+01
2.839400e+02	-2.657243e+01
2.855800e+02	-2.662130e+01
2.872295e+02	-2.667103e+01
2.888886e+02	-2.672073e+01
2.905572e+02	-2.677207e+01
2.922354e+02	-2.681870e+01
2.939234e+02	-2.687176e+01
2.956211e+02	-2.692411e+01
2.973286e+02	-2.696729e+01
2.990459e+02	-2.701903e+01
3.007732e+02	-2.706977e+01
3.025104e+02	-2.712078e+01
3.042577e+02	-2.717204e+01
3.060151e+02	-2.722045e+01
3.077826e+02	-2.726666e+01
3.095604e+02	-2.732107e+01
3.113484e+02	-2.737294e+01
3.131467e+02	-2.741844e+01
3.149554e+02	-2.747362e+01
3.167746e+02	-2.751843e+01
3.186043e+02	-2.756887e+01
3.204445e+02	-2.761852e+01
3.222954e+02	-2.767412e+01
3.241570e+02	-2.771979e+01
3.260293e+02	-2.777510e+01
3.279124e+02	-2.782008e+01
3.298064e+02	-2.787243e+01
3.317114e+02	-2.791605e+01
3.336273e+02	-2.796781e+01
3.355544e+02	-2.801935e+01
3.374925e+02	-2.807011e+01
3.394418e+02	-2.812315e+01
3.414024e+02	-2.816632e+01
3.433744e+02	-2.821661e+01
3.453577e+02	-2.826738e+01
3.473525e+02	-2.832084e+01
3.493588e+02	-2.837074e+01
3.513766e+02	-2.842259e+01
3.534062e+02	-2.847056e+01
3.554474e+02	-2.851599e+01
3.575005e+02	-2.856941e+01
3.595654e+02	-2.861547e+01
3.616422e+02	-2.867231e+01
3.637311e+02	-2.872102e+01
3.658320e+02	-2.876886e+01
3.679450e+02	-2.882164e+01
3.700702e+02	-2.887213e+01
3.722077e+02	-2.892342e+01
3.743576e+02	-2.896868e+01
3.765199e+02	-2.902487e+01
3.786946e+02	-2.906959e+01
3.808820e+02	-2.912504e+01
3.830819e+02	-2.917601e+01
3.852946e+02	-2.922144e+01
3.875200e+02	-2.927343e+01
3.897583e+02	-2.931680e+01
3.920096e+02	-2.937385e+01
3.942738e+02	-2.942444e+01
3.965511e+02	-2.947089e+01
3.988416e+02	-2.952202e+01
4.011452e+02	-2.956999e+01
4.034622e+02	-2.962673e+01
4.057926e+02	-2.967114e+01
4.081365e+02	-2.972416e+01
4.104938e+02	-2.977122e+01
4.128648e+02	-2.982508e+01
4.152495e+02	-2.987081e+01
4.176480e+02	-2.992457e+01
4.200603e+02	-2.997400e+01
4.224866e+02	-3.002114e+01
4.249268e+02	-3.007036e+01
4.273812e+02	-3.011819e+01
4.298497e+02	-3.016475e+01
4.323325e+02	-3.022808e+01
4.348297e+02	-3.027036e+01
4.373412e+02	-3.032397e+01
4.398673e+02	-3.037313e+01
4.424079e+02	-3.041998e+01
4.449633e+02	-3.047913e+01
4.475334e+02	-3.052379e+01
4.501183e+02	-3.057437e+01
4.527182e+02	-3.061888e+01
4.553330e+02	-3.067388e+01
4.579630e+02	-3.072516e+01
4.606082e+02	-3.077458e+01
4.632687e+02	-3.082234e+01
4.659445e+02	-3.087318e+01
4.686358e+02	-3.092498e+01
4.713426e+02	-3.097668e+01
4.740650e+02	-3.102450e+01
4.768032e+02	-3.107937e+01
4.795572e+02	-3.112555e+01
4.823271e+02	-3.117592e+01
4.851130e+02	-3.123059e+01
4.879150e+02	-3.127743e+01
4.907332e+02	-3.132756e+01
4.935676e+02	-3.137589e+01
4.964185e+02	-3.142164e+01
4.992858e+02	-3.147950e+01
5.021696e+02	-3.152830e+01
5.050701e+02	-3.157935e+01
5.079874e+02	-3.162209e+01
5.109215e+02	-3.167804e+01
5.138726e+02	-3.172730e+01
5.168407e+02	-3.177971e+01
5.198259e+02	-3.182454e+01
5.228284e+02	-3.188133e+01
5.258482e+02	-3.192748e+01
5.288855e+02	-3.197736e+01
5.319403e+02	-3.202806e+01
5.350128e+02	-3.208079e+01
5.381030e+02	-3.213167e+01
5.412111e+02	-3.217775e+01
5.443371e+02	-3.223358e+01
5.474812e+02	-3.228031e+01
5.506434e+02	-3.233684e+01
5.538239e+02	-3.238266e+01
5.570228e+02	-3.243275e+01
5.602401e+02	-3.247957e+01
5.634760e+02	-3.252948e+01
5.667306e+02	-3.257395e+01
5.700040e+02	-3.262859e+01
5.732964e+02	-3.268317e+01
5.766077e+02	-3.273694e+01
5.799382e+02	-3.278812e+01
5.832879e+02	-3.283132e+01
5.866569e+02	-3.288637e+01
5.900454e+02	-3.293202e+01
5.934535e+02	-3.298542e+01
5.968813e+02	-3.303683e+01
6.003288e+02	-3.307912e+01
6.037963e+02	-3.313686e+01
6.072838e+02	-3.319117e+01
6.107914e+02	-3.323824e+01
6.143194e+02	-3.329068e+01
6.178676e+02	-3.333095e+01
6.214364e+02	-3.339059e+01
6.250258e+02	-3.342697e+01
6.286359e+02	-3.349023e+01
6.322669e+02	-3.354241e+01
6.359189e+02	-3.358700e+01
6.395919e+02	-3.362816e+01
6.432862e+02	-3.367946e+01
6.470017e+02	-3.374100e+01
6.507388e+02	-3.378802e+01
6.544974e+02	-3.383167e+01
6.582778e+02	-3.389496e+01
6.620800e+02	-3.393497e+01
6.659041e+02	-3.399220e+01
6.697504e+02	-3.403113e+01
6.736188e+02	-3.408434e+01
6.775096e+02	-3.414077e+01
6.814229e+02	-3.418683e+01
6.853587e+02	-3.423886e+01
6.893173e+02	-3.428868e+01
6.932988e+02	-3.434124e+01
6.973033e+02	-3.439166e+01
7.013309e+02	-3.444503e+01
