Frequency(Hz)	Magnitude(dB)
1.000000e+01	-1.692272e-05
1.005776e+01	-1.711878e-05
1.011585e+01	-1.731710e-05
1.017428e+01	-1.751773e-05
1.023305e+01	-1.772067e-05
1.029215e+01	-1.792597e-05
1.035160e+01	-1.813365e-05
1.041139e+01	-1.834373e-05
1.047153e+01	-1.855625e-05
1.053201e+01	-1.877123e-05
1.059284e+01	-1.898870e-05
1.065403e+01	-1.920869e-05
1.071556e+01	-1.943122e-05
1.077746e+01	-1.965634e-05
1.083971e+01	-1.988406e-05
1.090232e+01	-2.011443e-05
1.096529e+01	-2.034746e-05
1.102862e+01	-2.058319e-05
1.109232e+01	-2.082165e-05
1.115639e+01	-2.106287e-05
1.122083e+01	-2.130689e-05
1.128564e+01	-2.155374e-05
1.135083e+01	-2.180344e-05
1.141639e+01	-2.205604e-05
1.148233e+01	-2.231156e-05
1.154865e+01	-2.257005e-05
1.161536e+01	-2.283153e-05
1.168245e+01	-2.309604e-05
1.174992e+01	-2.336361e-05
1.181779e+01	-2.363429e-05
1.188605e+01	-2.390809e-05
1.195470e+01	-2.418508e-05
1.202375e+01	-2.446527e-05
1.209320e+01	-2.474870e-05
1.216305e+01	-2.503542e-05
1.223330e+01	-2.532546e-05
1.230396e+01	-2.561886e-05
1.237503e+01	-2.591567e-05
1.244651e+01	-2.621591e-05
1.251840e+01	-2.651962e-05
1.259070e+01	-2.682686e-05
1.266343e+01	-2.713765e-05
1.273657e+01	-2.745205e-05
1.281014e+01	-2.777009e-05
1.288413e+01	-2.809181e-05
1.295855e+01	-2.841726e-05
1.303339e+01	-2.874648e-05
1.310867e+01	-2.907952e-05
1.318439e+01	-2.941641e-05
1.326054e+01	-2.975721e-05
1.333713e+01	-3.010195e-05
1.341417e+01	-3.045069e-05
1.349165e+01	-3.080347e-05
1.356958e+01	-3.116034e-05
1.364795e+01	-3.152134e-05
1.372678e+01	-3.188652e-05
1.380607e+01	-3.225593e-05
1.388581e+01	-3.262962e-05
1.396602e+01	-3.300764e-05
1.404668e+01	-3.339005e-05
1.412782e+01	-3.377688e-05
1.420942e+01	-3.416819e-05
1.429149e+01	-3.456404e-05
1.437404e+01	-3.496447e-05
1.445706e+01	-3.536954e-05
1.454057e+01	-3.577931e-05
1.462455e+01	-3.619382e-05
1.470902e+01	-3.661313e-05
1.479398e+01	-3.703730e-05
1.487943e+01	-3.746639e-05
1.496537e+01	-3.790044e-05
1.505181e+01	-3.833953e-05
1.513875e+01	-3.878370e-05
1.522619e+01	-3.923302e-05
1.531414e+01	-3.968754e-05
1.540259e+01	-4.014733e-05
1.549156e+01	-4.061245e-05
1.558103e+01	-4.108295e-05
1.567103e+01	-4.155891e-05
1.576155e+01	-4.204038e-05
1.585258e+01	-4.252743e-05
1.594415e+01	-4.302011e-05
1.603624e+01	-4.351851e-05
1.612886e+01	-4.402268e-05
1.622202e+01	-4.453270e-05
1.631572e+01	-4.504862e-05
1.640996e+01	-4.557052e-05
1.650474e+01	-4.609846e-05
1.660008e+01	-4.663252e-05
1.669596e+01	-4.717277e-05
1.679239e+01	-4.771928e-05
1.688938e+01	-4.827211e-05
1.698694e+01	-4.883136e-05
1.708505e+01	-4.939708e-05
1.718373e+01	-4.996935e-05
1.728299e+01	-5.054826e-05
1.738281e+01	-5.113387e-05
1.748322e+01	-5.172627e-05
1.758420e+01	-5.232553e-05
1.768576e+01	-5.293173e-05
1.778792e+01	-5.354496e-05
1.789066e+01	-5.416528e-05
1.799399e+01	-5.479280e-05
1.809793e+01	-5.542759e-05
1.820246e+01	-5.606973e-05
1.830760e+01	-5.671931e-05
1.841334e+01	-5.737641e-05
1.851969e+01	-5.804113e-05
1.862666e+01	-5.871355e-05
1.873425e+01	-5.939375e-05
1.884246e+01	-6.008184e-05
1.895129e+01	-6.077790e-05
1.906075e+01	-6.148203e-05
1.917085e+01	-6.219431e-05
1.928158e+01	-6.291484e-05
1.939295e+01	-6.364372e-05
1.950496e+01	-6.438105e-05
1.961762e+01	-6.512691e-05
1.973093e+01	-6.588142e-05
1.984490e+01	-6.664467e-05
1.995952e+01	-6.741676e-05
2.007480e+01	-6.819780e-05
2.019076e+01	-6.898788e-05
2.030738e+01	-6.978712e-05
2.042467e+01	-7.059562e-05
2.054264e+01	-7.141348e-05
2.066130e+01	-7.224082e-05
2.078064e+01	-7.307774e-05
2.090066e+01	-7.392436e-05
2.102139e+01	-7.478079e-05
2.114280e+01	-7.564713e-05
2.126492e+01	-7.652352e-05
2.138775e+01	-7.741006e-05
2.151128e+01	-7.830687e-05
2.163553e+01	-7.921407e-05
2.176050e+01	-8.013178e-05
2.188619e+01	-8.106012e-05
2.201260e+01	-8.199921e-05
2.213974e+01	-8.294919e-05
2.226762e+01	-8.391017e-05
2.239624e+01	-8.488228e-05
2.252560e+01	-8.586565e-05
2.265571e+01	-8.686042e-05
2.278656e+01	-8.786671e-05
2.291818e+01	-8.888466e-05
2.305055e+01	-8.991441e-05
2.318369e+01	-9.095608e-05
2.331760e+01	-9.200982e-05
2.345228e+01	-9.307577e-05
2.358774e+01	-9.415407e-05
2.372398e+01	-9.524485e-05
2.386101e+01	-9.634828e-05
2.399883e+01	-9.746449e-05
2.413745e+01	-9.859363e-05
2.427686e+01	-9.973585e-05
2.441709e+01	-1.008913e-04
2.455812e+01	-1.020601e-04
2.469997e+01	-1.032425e-04
2.484263e+01	-1.044386e-04
2.498612e+01	-1.056485e-04
2.513044e+01	-1.068725e-04
2.527559e+01	-1.081106e-04
2.542158e+01	-1.093631e-04
2.556842e+01	-1.106301e-04
2.571610e+01	-1.119118e-04
2.586463e+01	-1.132083e-04
2.601403e+01	-1.145198e-04
2.616428e+01	-1.158465e-04
2.631541e+01	-1.171886e-04
2.646740e+01	-1.185463e-04
2.662028e+01	-1.199196e-04
2.677404e+01	-1.213089e-04
2.692868e+01	-1.227143e-04
2.708422e+01	-1.241360e-04
2.724066e+01	-1.255741e-04
2.739800e+01	-1.270289e-04
2.755625e+01	-1.285005e-04
2.771541e+01	-1.299892e-04
2.787550e+01	-1.314952e-04
2.803650e+01	-1.330185e-04
2.819844e+01	-1.345596e-04
2.836131e+01	-1.361185e-04
2.852513e+01	-1.376954e-04
2.868989e+01	-1.392906e-04
2.885560e+01	-1.409043e-04
2.902227e+01	-1.425367e-04
2.918990e+01	-1.441880e-04
2.935850e+01	-1.458584e-04
2.952807e+01	-1.475482e-04
2.969863e+01	-1.492576e-04
2.987016e+01	-1.509867e-04
3.004269e+01	-1.527359e-04
3.021622e+01	-1.545054e-04
3.039075e+01	-1.562953e-04
3.056628e+01	-1.581060e-04
3.074283e+01	-1.599377e-04
3.092040e+01	-1.617906e-04
3.109900e+01	-1.636649e-04
3.127862e+01	-1.655610e-04
3.145929e+01	-1.674790e-04
3.164099e+01	-1.694193e-04
3.182375e+01	-1.713820e-04
3.200756e+01	-1.733675e-04
3.219244e+01	-1.753760e-04
3.237838e+01	-1.774077e-04
3.256540e+01	-1.794630e-04
3.275349e+01	-1.815421e-04
3.294268e+01	-1.836452e-04
3.313295e+01	-1.857728e-04
3.332433e+01	-1.879249e-04
3.351681e+01	-1.901021e-04
3.371040e+01	-1.923044e-04
3.390511e+01	-1.945322e-04
3.410094e+01	-1.967859e-04
3.429791e+01	-1.990657e-04
3.449601e+01	-2.013719e-04
3.469526e+01	-2.037047e-04
3.489566e+01	-2.060647e-04
3.509721e+01	-2.084519e-04
3.529993e+01	-2.108668e-04
3.550382e+01	-2.133097e-04
3.570889e+01	-2.157809e-04
3.591515e+01	-2.182807e-04
3.612259e+01	-2.208095e-04
3.633123e+01	-2.233676e-04
3.654108e+01	-2.259553e-04
3.675214e+01	-2.285730e-04
3.696442e+01	-2.312210e-04
3.717792e+01	-2.338997e-04
3.739266e+01	-2.366094e-04
3.760864e+01	-2.393505e-04
3.782587e+01	-2.421234e-04
3.804435e+01	-2.449284e-04
3.826409e+01	-2.477659e-04
3.848510e+01	-2.506362e-04
3.870739e+01	-2.535398e-04
3.893096e+01	-2.564771e-04
3.915583e+01	-2.594483e-04
3.938199e+01	-2.624540e-04
3.960946e+01	-2.654945e-04
3.983824e+01	-2.685703e-04
4.006834e+01	-2.716816e-04
4.029978e+01	-2.748290e-04
4.053255e+01	-2.780129e-04
4.076666e+01	-2.812337e-04
4.100213e+01	-2.844917e-04
4.123896e+01	-2.877875e-04
4.147715e+01	-2.911215e-04
4.171672e+01	-2.944941e-04
4.195767e+01	-2.979058e-04
4.220002e+01	-3.013570e-04
4.244377e+01	-3.048482e-04
4.268892e+01	-3.083798e-04
4.293549e+01	-3.119523e-04
4.318348e+01	-3.155663e-04
4.343291e+01	-3.192221e-04
4.368377e+01	-3.229202e-04
4.393609e+01	-3.266612e-04
4.418986e+01	-3.304455e-04
4.444510e+01	-3.342736e-04
4.470182e+01	-3.381461e-04
4.496001e+01	-3.420635e-04
4.521970e+01	-3.460263e-04
4.548089e+01	-3.500349e-04
4.574358e+01	-3.540900e-04
4.600779e+01	-3.581920e-04
4.627353e+01	-3.623416e-04
4.654081e+01	-3.665393e-04
4.680963e+01	-3.707856e-04
4.708000e+01	-3.750810e-04
4.735193e+01	-3.794263e-04
4.762543e+01	-3.838218e-04
4.790051e+01	-3.882683e-04
4.817719e+01	-3.927663e-04
4.845545e+01	-3.973164e-04
4.873533e+01	-4.019192e-04
4.901682e+01	-4.065753e-04
4.929994e+01	-4.112854e-04
4.958470e+01	-4.160500e-04
4.987110e+01	-4.208698e-04
5.015915e+01	-4.257455e-04
5.044887e+01	-4.306776e-04
5.074026e+01	-4.356669e-04
5.103333e+01	-4.407140e-04
5.132810e+01	-4.458195e-04
5.162457e+01	-4.509842e-04
5.192275e+01	-4.562087e-04
5.222265e+01	-4.614937e-04
5.252429e+01	-4.668399e-04
5.282767e+01	-4.722481e-04
5.313280e+01	-4.777189e-04
5.343969e+01	-4.832531e-04
5.374836e+01	-4.888514e-04
5.405880e+01	-4.945146e-04
5.437105e+01	-5.002434e-04
5.468509e+01	-5.060385e-04
5.500095e+01	-5.119007e-04
5.531863e+01	-5.178309e-04
5.563815e+01	-5.238297e-04
5.595951e+01	-5.298981e-04
5.628273e+01	-5.360367e-04
5.660782e+01	-5.422465e-04
5.693479e+01	-5.485281e-04
5.726364e+01	-5.548826e-04
5.759439e+01	-5.613106e-04
5.792705e+01	-5.678132e-04
5.826164e+01	-5.743910e-04
5.859815e+01	-5.810450e-04
5.893662e+01	-5.877761e-04
5.927703e+01	-5.945852e-04
5.961941e+01	-6.014732e-04
5.996377e+01	-6.084409e-04
6.031012e+01	-6.154894e-04
6.065847e+01	-6.226195e-04
6.100883e+01	-6.298322e-04
6.136121e+01	-6.371284e-04
6.171563e+01	-6.445092e-04
6.207210e+01	-6.519754e-04
6.243063e+01	-6.595282e-04
6.279122e+01	-6.671684e-04
6.315390e+01	-6.748971e-04
6.351868e+01	-6.827154e-04
6.388556e+01	-6.906242e-04
6.425456e+01	-6.986246e-04
6.462569e+01	-7.067177e-04
6.499897e+01	-7.149046e-04
6.537440e+01	-7.231862e-04
6.575200e+01	-7.315639e-04
6.613178e+01	-7.400385e-04
6.651375e+01	-7.486113e-04
6.689793e+01	-7.572834e-04
6.728433e+01	-7.660560e-04
6.767297e+01	-7.749302e-04
6.806384e+01	-7.839071e-04
6.845698e+01	-7.929881e-04
6.885238e+01	-8.021742e-04
6.925007e+01	-8.114668e-04
6.965005e+01	-8.208669e-04
7.005235e+01	-8.303760e-04
7.045697e+01	-8.399952e-04
7.086393e+01	-8.497258e-04
7.127323e+01	-8.595691e-04
7.168490e+01	-8.695265e-04
7.209895e+01	-8.795992e-04
7.251539e+01	-8.897885e-04
7.293424e+01	-9.000959e-04
7.335551e+01	-9.105227e-04
7.377920e+01	-9.210702e-04
7.420535e+01	-9.317399e-04
7.463396e+01	-9.425332e-04
7.506504e+01	-9.534515e-04
7.549861e+01	-9.644963e-04
7.593469e+01	-9.756690e-04
7.637328e+01	-9.869711e-04
7.681441e+01	-9.984041e-04
7.725809e+01	-1.009970e-03
7.770433e+01	-1.021669e-03
7.815315e+01	-1.033504e-03
7.860456e+01	-1.045476e-03
7.905857e+01	-1.057586e-03
7.951521e+01	-1.069837e-03
7.997449e+01	-1.082230e-03
8.043642e+01	-1.094767e-03
8.090102e+01	-1.107448e-03
8.136830e+01	-1.120277e-03
8.183828e+01	-1.133254e-03
8.231097e+01	-1.146381e-03
8.278640e+01	-1.159660e-03
8.326457e+01	-1.173093e-03
8.374550e+01	-1.186682e-03
8.422921e+01	-1.200428e-03
8.471572e+01	-1.214334e-03
8.520503e+01	-1.228400e-03
8.569717e+01	-1.242629e-03
8.619215e+01	-1.257023e-03
8.669000e+01	-1.271584e-03
8.719071e+01	-1.286314e-03
8.769432e+01	-1.301214e-03
8.820084e+01	-1.316286e-03
8.871029e+01	-1.331534e-03
8.922267e+01	-1.346957e-03
8.973802e+01	-1.362560e-03
9.025634e+01	-1.378343e-03
9.077766e+01	-1.394309e-03
9.130199e+01	-1.410460e-03
9.182935e+01	-1.426798e-03
9.235975e+01	-1.443325e-03
9.289321e+01	-1.460043e-03
9.342976e+01	-1.476955e-03
9.396941e+01	-1.494063e-03
9.451217e+01	-1.511369e-03
9.505807e+01	-1.528876e-03
9.560712e+01	-1.546585e-03
9.615934e+01	-1.564499e-03
9.671476e+01	-1.582621e-03
9.727338e+01	-1.600953e-03
9.783522e+01	-1.619497e-03
9.840032e+01	-1.638256e-03
9.896867e+01	-1.657232e-03
9.954031e+01	-1.676428e-03
1.001153e+02	-1.695846e-03
1.006935e+02	-1.715489e-03
1.012751e+02	-1.735359e-03
1.018601e+02	-1.755460e-03
1.024484e+02	-1.775793e-03
1.030402e+02	-1.796362e-03
1.036353e+02	-1.817169e-03
1.042339e+02	-1.838217e-03
1.048360e+02	-1.859508e-03
1.054415e+02	-1.881046e-03
1.060505e+02	-1.902834e-03
1.066631e+02	-1.924874e-03
1.072791e+02	-1.947169e-03
1.078988e+02	-1.969723e-03
1.085220e+02	-1.992537e-03
1.091488e+02	-2.015616e-03
1.097793e+02	-2.038962e-03
1.104133e+02	-2.062578e-03
1.110511e+02	-2.086468e-03
1.116925e+02	-2.110634e-03
1.123376e+02	-2.135081e-03
1.129865e+02	-2.159810e-03
1.136391e+02	-2.184826e-03
1.142955e+02	-2.210131e-03
1.149556e+02	-2.235729e-03
1.156196e+02	-2.261624e-03
1.162874e+02	-2.287819e-03
1.169591e+02	-2.314316e-03
1.176347e+02	-2.341121e-03
1.183141e+02	-2.368236e-03
1.189975e+02	-2.395665e-03
1.196848e+02	-2.423412e-03
1.203761e+02	-2.451480e-03
1.210714e+02	-2.479873e-03
1.217707e+02	-2.508595e-03
1.224740e+02	-2.537649e-03
1.231814e+02	-2.567039e-03
1.238929e+02	-2.596770e-03
1.246085e+02	-2.626846e-03
1.253283e+02	-2.657269e-03
1.260522e+02	-2.688045e-03
1.267802e+02	-2.719177e-03
1.275125e+02	-2.750669e-03
1.282490e+02	-2.782526e-03
1.289898e+02	-2.814752e-03
1.297348e+02	-2.847351e-03
1.304842e+02	-2.880327e-03
1.312378e+02	-2.913685e-03
1.319959e+02	-2.947430e-03
1.327583e+02	-2.981565e-03
1.335251e+02	-3.016095e-03
1.342963e+02	-3.051025e-03
1.350720e+02	-3.086359e-03
1.358522e+02	-3.122102e-03
1.366368e+02	-3.158260e-03
1.374260e+02	-3.194835e-03
1.382198e+02	-3.231835e-03
1.390182e+02	-3.269262e-03
1.398211e+02	-3.307123e-03
1.406287e+02	-3.345422e-03
1.414410e+02	-3.384165e-03
1.422579e+02	-3.423356e-03
1.430796e+02	-3.463000e-03
1.439060e+02	-3.503104e-03
1.447372e+02	-3.543671e-03
1.455732e+02	-3.584709e-03
1.464141e+02	-3.626221e-03
1.472597e+02	-3.668214e-03
1.481103e+02	-3.710693e-03
1.489658e+02	-3.753664e-03
1.498262e+02	-3.797132e-03
1.506916e+02	-3.841103e-03
1.515620e+02	-3.885584e-03
1.524374e+02	-3.930579e-03
1.533179e+02	-3.976095e-03
1.542034e+02	-4.022137e-03
1.550941e+02	-4.068713e-03
1.559899e+02	-4.115828e-03
1.568909e+02	-4.163488e-03
1.577971e+02	-4.211699e-03
1.587085e+02	-4.260469e-03
1.596252e+02	-4.309803e-03
1.605472e+02	-4.359708e-03
1.614745e+02	-4.410191e-03
1.624072e+02	-4.461258e-03
1.633453e+02	-4.512916e-03
1.642887e+02	-4.565171e-03
1.652377e+02	-4.618032e-03
1.661921e+02	-4.671504e-03
1.671520e+02	-4.725595e-03
1.681175e+02	-4.780312e-03
1.690885e+02	-4.835663e-03
1.700651e+02	-4.891653e-03
1.710474e+02	-4.948292e-03
1.720354e+02	-5.005586e-03
1.730291e+02	-5.063543e-03
1.740285e+02	-5.122171e-03
1.750337e+02	-5.181477e-03
1.760446e+02	-5.241470e-03
1.770615e+02	-5.302156e-03
1.780842e+02	-5.363545e-03
1.791128e+02	-5.425644e-03
1.801473e+02	-5.488462e-03
1.811878e+02	-5.552007e-03
1.822344e+02	-5.616286e-03
1.832870e+02	-5.681310e-03
1.843456e+02	-5.747085e-03
1.854104e+02	-5.813622e-03
1.864813e+02	-5.880929e-03
1.875584e+02	-5.949014e-03
1.886418e+02	-6.017887e-03
1.897313e+02	-6.087557e-03
1.908272e+02	-6.158033e-03
1.919294e+02	-6.229324e-03
1.930380e+02	-6.301440e-03
1.941530e+02	-6.374390e-03
1.952744e+02	-6.448184e-03
1.964023e+02	-6.522831e-03
1.975367e+02	-6.598342e-03
1.986777e+02	-6.674727e-03
1.998252e+02	-6.751995e-03
2.009794e+02	-6.830157e-03
2.021403e+02	-6.909223e-03
2.033078e+02	-6.989204e-03
2.044821e+02	-7.070109e-03
2.056632e+02	-7.151951e-03
2.068511e+02	-7.234738e-03
2.080459e+02	-7.318484e-03
2.092475e+02	-7.403198e-03
2.104561e+02	-7.488892e-03
2.116717e+02	-7.575577e-03
2.128943e+02	-7.663264e-03
2.141240e+02	-7.751965e-03
2.153608e+02	-7.841692e-03
2.166047e+02	-7.932457e-03
2.178558e+02	-8.024272e-03
2.191141e+02	-8.117148e-03
2.203797e+02	-8.211098e-03
2.216526e+02	-8.306134e-03
2.229329e+02	-8.402270e-03
2.242205e+02	-8.499516e-03
2.255156e+02	-8.597888e-03
2.268182e+02	-8.697396e-03
2.281283e+02	-8.798056e-03
2.294459e+02	-8.899879e-03
2.307712e+02	-9.002879e-03
2.321041e+02	-9.107070e-03
2.334447e+02	-9.212465e-03
2.347931e+02	-9.319079e-03
2.361493e+02	-9.426925e-03
2.375133e+02	-9.536018e-03
2.388851e+02	-9.646372e-03
2.402649e+02	-9.758002e-03
2.416527e+02	-9.870922e-03
2.430484e+02	-9.985147e-03
2.444523e+02	-1.010069e-02
2.458642e+02	-1.021757e-02
2.472843e+02	-1.033581e-02
2.487126e+02	-1.045540e-02
2.501492e+02	-1.057638e-02
2.515940e+02	-1.069876e-02
2.530472e+02	-1.082256e-02
2.545088e+02	-1.094778e-02
2.559789e+02	-1.107445e-02
2.574574e+02	-1.120258e-02
2.589444e+02	-1.133220e-02
2.604401e+02	-1.146331e-02
2.619444e+02	-1.159594e-02
2.634574e+02	-1.173010e-02
2.649791e+02	-1.186581e-02
2.665096e+02	-1.200309e-02
2.680489e+02	-1.214195e-02
2.695972e+02	-1.228242e-02
2.711544e+02	-1.242451e-02
2.727205e+02	-1.256824e-02
2.742958e+02	-1.271363e-02
2.758801e+02	-1.286071e-02
2.774736e+02	-1.300948e-02
2.790762e+02	-1.315997e-02
2.806882e+02	-1.331219e-02
2.823094e+02	-1.346618e-02
2.839400e+02	-1.362194e-02
2.855800e+02	-1.377950e-02
2.872295e+02	-1.393889e-02
2.888886e+02	-1.410011e-02
2.905572e+02	-1.426319e-02
2.922354e+02	-1.442816e-02
2.939234e+02	-1.459503e-02
2.956211e+02	-1.476383e-02
2.973286e+02	-1.493458e-02
2.990459e+02	-1.510730e-02
3.007732e+02	-1.528201e-02
3.025104e+02	-1.545874e-02
3.042577e+02	-1.563751e-02
3.060151e+02	-1.581834e-02
3.077826e+02	-1.600126e-02
3.095604e+02	-1.618630e-02
3.113484e+02	-1.637346e-02
3.131467e+02	-1.656279e-02
3.149554e+02	-1.675430e-02
3.167746e+02	-1.694803e-02
3.186043e+02	-1.714398e-02
3.204445e+02	-1.734220e-02
3.222954e+02	-1.754271e-02
3.241570e+02	-1.774553e-02
3.260293e+02	-1.795069e-02
3.279124e+02	-1.815822e-02
3.298064e+02	-1.836814e-02
3.317114e+02	-1.858048e-02
3.336273e+02	-1.879527e-02
3.355544e+02	-1.901254e-02
3.374925e+02	-1.923232e-02
3.394418e+02	-1.945463e-02
3.414024e+02	-1.967950e-02
3.433744e+02	-1.990697e-02
3.453577e+02	-2.013706e-02
3.473525e+02	-2.036981e-02
3.493588e+02	-2.060523e-02
3.513766e+02	-2.084338e-02
3.534062e+02	-2.108426e-02
3.554474e+02	-2.132793e-02
3.575005e+02	-2.157440e-02
3.595654e+02	-2.182372e-02
3.616422e+02	-2.207591e-02
3.637311e+02	-2.233100e-02
3.658320e+02	-2.258904e-02
3.679450e+02	-2.285005e-02
3.700702e+02	-2.311406e-02
3.722077e+02	-2.338112e-02
3.743576e+02	-2.365126e-02
3.765199e+02	-2.392451e-02
3.786946e+02	-2.420090e-02
3.808820e+02	-2.448048e-02
3.830819e+02	-2.476328e-02
3.852946e+02	-2.504934e-02
3.875200e+02	-2.533870e-02
3.897583e+02	-2.563138e-02
3.920096e+02	-2.592744e-02
3.942738e+02	-2.622691e-02
3.965511e+02	-2.652982e-02
3.988416e+02	-2.683622e-02
4.011452e+02	-2.714615e-02
4.034622e+02	-2.745965e-02
4.057926e+02	-2.777676e-02
4.081365e+02	-2.809751e-02
4.104938e+02	-2.842196e-02
4.128648e+02	-2.875014e-02
4.152495e+02	-2.908210e-02
4.176480e+02	-2.941788e-02
4.200603e+02	-2.975752e-02
4.224866e+02	-3.010107e-02
4.249268e+02	-3.044858e-02
4.273812e+02	-3.080008e-02
4.298497e+02	-3.115562e-02
4.323325e+02	-3.151525e-02
4.348297e+02	-3.187902e-02
4.373412e+02	-3.224697e-02
4.398673e+02	-3.261915e-02
4.424079e+02	-3.299562e-02
4.449633e+02	-3.337641e-02
4.475334e+02	-3.376157e-02
4.501183e+02	-3.415117e-02
4.527182e+02	-3.454524e-02
4.553330e+02	-3.494384e-02
4.579630e+02	-3.534702e-02
4.606082e+02	-3.575483e-02
4.632687e+02	-3.616733e-02
4.659445e+02	-3.658457e-02
4.686358e+02	-3.700660e-02
4.713426e+02	-3.743348e-02
4.740650e+02	-3.786526e-02
4.768032e+02	-3.830200e-02
4.795572e+02	-3.874376e-02
4.823271e+02	-3.919058e-02
4.851130e+02	-3.964254e-02
4.879150e+02	-4.009968e-02
4.907332e+02	-4.056207e-02
4.935676e+02	-4.102977e-02
4.964185e+02	-4.150283e-02
4.992858e+02	-4.198132e-02
5.021696e+02	-4.246531e-02
5.050701e+02	-4.295484e-02
5.079874e+02	-4.344999e-02
5.109215e+02	-4.395081e-02
5.138726e+02	-4.445738e-02
5.168407e+02	-4.496976e-02
5.198259e+02	-4.548801e-02
5.228284e+02	-4.601220e-02
5.258482e+02	-4.654241e-02
5.288855e+02	-4.707868e-02
5.319403e+02	-4.762111e-02
5.350128e+02	-4.816974e-02
5.381030e+02	-4.872466e-02
5.412111e+02	-4.928594e-02
5.443371e+02	-4.985365e-02
5.474812e+02	-5.042786e-02
5.506434e+02	-5.100864e-02
5.538239e+02	-5.159607e-02
5.570228e+02	-5.219023e-02
5.602401e+02	-5.279119e-02
5.634760e+02	-5.339902e-02
5.667306e+02	-5.401381e-02
5.700040e+02	-5.463563e-02
5.732964e+02	-5.526456e-02
5.766077e+02	-5.590069e-02
5.799382e+02	-5.654409e-02
5.832879e+02	-5.719485e-02
5.866569e+02	-5.785305e-02
5.900454e+02	-5.851877e-02
5.934535e+02	-5.919210e-02
5.968813e+02	-5.987313e-02
6.003288e+02	-6.056193e-02
6.037963e+02	-6.125860e-02
6.072838e+02	-6.196323e-02
6.107914e+02	-6.267591e-02
6.143194e+02	-6.339672e-02
6.178676e+02	-6.412576e-02
6.214364e+02	-6.486312e-02
6.250258e+02	-6.560890e-02
6.286359e+02	-6.636318e-02
6.322669e+02	-6.712607e-02
6.359189e+02	-6.789766e-02
6.395919e+02	-6.867805e-02
6.432862e+02	-6.946733e-02
6.470017e+02	-7.026562e-02
6.507388e+02	-7.107300e-02
6.544974e+02	-7.188958e-02
6.582778e+02	-7.271547e-02
6.620800e+02	-7.355076e-02
6.659041e+02	-7.439557e-02
6.697504e+02	-7.524999e-02
6.736188e+02	-7.611414e-02
6.775096e+02	-7.698813e-02
6.814229e+02	-7.787206e-02
6.853587e+02	-7.876605e-02
6.893173e+02	-7.967021e-02
6.932988e+02	-8.058465e-02
6.973033e+02	-8.150948e-02
7.013309e+02	-8.244483e-02
