Frequency(Hz)	Magnitude(dB)
1.000000e+01	-2.190345e+00
1.005776e+01	-2.210287e+00
1.011585e+01	-2.230553e+00
1.017428e+01	-2.250551e+00
1.023305e+01	-2.270760e+00
1.029215e+01	-2.291200e+00
1.035160e+01	-2.311955e+00
1.041139e+01	-2.332640e+00
1.047153e+01	-2.353518e+00
1.053201e+01	-2.374459e+00
1.059284e+01	-2.395550e+00
1.065403e+01	-2.416696e+00
1.071556e+01	-2.438156e+00
1.077746e+01	-2.459693e+00
1.083971e+01	-2.481554e+00
1.090232e+01	-2.503449e+00
1.096529e+01	-2.525319e+00
1.102862e+01	-2.547290e+00
1.109232e+01	-2.569804e+00
1.115639e+01	-2.592342e+00
1.122083e+01	-2.614777e+00
1.128564e+01	-2.637479e+00
1.135083e+01	-2.660279e+00
1.141639e+01	-2.683304e+00
1.148233e+01	-2.706302e+00
1.154865e+01	-2.729801e+00
1.161536e+01	-2.753161e+00
1.168245e+01	-2.776620e+00
1.174992e+01	-2.800100e+00
1.181779e+01	-2.824159e+00
1.188605e+01	-2.848056e+00
1.195470e+01	-2.872157e+00
1.202375e+01	-2.896578e+00
1.209320e+01	-2.920995e+00
1.216305e+01	-2.945823e+00
1.223330e+01	-2.970205e+00
1.230396e+01	-2.995229e+00
1.237503e+01	-3.020056e+00
1.244651e+01	-3.045089e+00
1.251840e+01	-3.070526e+00
1.259070e+01	-3.096005e+00
1.266343e+01	-3.121601e+00
1.273657e+01	-3.147349e+00
1.281014e+01	-3.172985e+00
1.288413e+01	-3.199032e+00
1.295855e+01	-3.225091e+00
1.303339e+01	-3.251676e+00
1.310867e+01	-3.277910e+00
1.318439e+01	-3.304698e+00
1.326054e+01	-3.331436e+00
1.333713e+01	-3.358411e+00
1.341417e+01	-3.384936e+00
1.349165e+01	-3.412434e+00
1.356958e+01	-3.439767e+00
1.364795e+01	-3.467150e+00
1.372678e+01	-3.494858e+00
1.380607e+01	-3.522517e+00
1.388581e+01	-3.550153e+00
1.396602e+01	-3.578370e+00
1.404668e+01	-3.606391e+00
1.412782e+01	-3.634805e+00
1.420942e+01	-3.663246e+00
1.429149e+01	-3.691885e+00
1.437404e+01	-3.720389e+00
1.445706e+01	-3.749178e+00
1.454057e+01	-3.778159e+00
1.462455e+01	-3.807302e+00
1.470902e+01	-3.836668e+00
1.479398e+01	-3.866327e+00
1.487943e+01	-3.895662e+00
1.496537e+01	-3.925346e+00
1.505181e+01	-3.955181e+00
1.513875e+01	-3.985522e+00
1.522619e+01	-4.015539e+00
1.531414e+01	-4.045450e+00
1.540259e+01	-4.075883e+00
1.549156e+01	-4.106455e+00
1.558103e+01	-4.137233e+00
1.567103e+01	-4.167891e+00
1.576155e+01	-4.198956e+00
1.585258e+01	-4.229907e+00
1.594415e+01	-4.260770e+00
1.603624e+01	-4.292411e+00
1.612886e+01	-4.323880e+00
1.622202e+01	-4.355489e+00
1.631572e+01	-4.387167e+00
1.640996e+01	-4.419170e+00
1.650474e+01	-4.451033e+00
1.660008e+01	-4.483527e+00
1.669596e+01	-4.515537e+00
1.679239e+01	-4.547873e+00
1.688938e+01	-4.580680e+00
1.698694e+01	-4.613242e+00
1.708505e+01	-4.645952e+00
1.718373e+01	-4.679012e+00
1.728299e+01	-4.711726e+00
1.738281e+01	-4.745091e+00
1.748322e+01	-4.778267e+00
1.758420e+01	-4.811817e+00
1.768576e+01	-4.845712e+00
1.778792e+01	-4.879010e+00
1.789066e+01	-4.912831e+00
1.799399e+01	-4.946912e+00
1.809793e+01	-4.980667e+00
1.820246e+01	-5.015150e+00
1.830760e+01	-5.049563e+00
1.841334e+01	-5.083975e+00
1.851969e+01	-5.118620e+00
1.862666e+01	-5.153129e+00
1.873425e+01	-5.188289e+00
1.884246e+01	-5.222998e+00
1.895129e+01	-5.258218e+00
1.906075e+01	-5.293462e+00
1.917085e+01	-5.328442e+00
1.928158e+01	-5.363972e+00
1.939295e+01	-5.399306e+00
1.950496e+01	-5.434996e+00
1.961762e+01	-5.471011e+00
1.973093e+01	-5.506531e+00
1.984490e+01	-5.542716e+00
1.995952e+01	-5.579322e+00
2.007480e+01	-5.615353e+00
2.019076e+01	-5.651339e+00
2.030738e+01	-5.688236e+00
2.042467e+01	-5.724749e+00
2.054264e+01	-5.761352e+00
2.066130e+01	-5.797976e+00
2.078064e+01	-5.834942e+00
2.090066e+01	-5.872263e+00
2.102139e+01	-5.909071e+00
2.114280e+01	-5.946333e+00
2.126492e+01	-5.984015e+00
2.138775e+01	-6.020984e+00
2.151128e+01	-6.058707e+00
2.163553e+01	-6.096712e+00
2.176050e+01	-6.133955e+00
2.188619e+01	-6.172405e+00
2.201260e+01	-6.210253e+00
2.213974e+01	-6.248424e+00
2.226762e+01	-6.286398e+00
2.239624e+01	-6.324857e+00
2.252560e+01	-6.363536e+00
2.265571e+01	-6.401508e+00
2.278656e+01	-6.440397e+00
2.291818e+01	-6.478552e+00
2.305055e+01	-6.518008e+00
2.318369e+01	-6.557007e+00
2.331760e+01	-6.595880e+00
2.345228e+01	-6.635071e+00
2.358774e+01	-6.673741e+00
2.372398e+01	-6.713422e+00
2.386101e+01	-6.753185e+00
2.399883e+01	-6.792884e+00
2.413745e+01	-6.831864e+00
2.427686e+01	-6.871842e+00
2.441709e+01	-6.911473e+00
2.455812e+01	-6.951800e+00
2.469997e+01	-6.991218e+00
2.484263e+01	-7.031707e+00
2.498612e+01	-7.071794e+00
2.513044e+01	-7.111745e+00
2.527559e+01	-7.152315e+00
2.542158e+01	-7.192891e+00
2.556842e+01	-7.233103e+00
2.571610e+01	-7.273590e+00
2.586463e+01	-7.314690e+00
2.601403e+01	-7.355465e+00
2.616428e+01	-7.396206e+00
2.631541e+01	-7.437173e+00
2.646740e+01	-7.478024e+00
2.662028e+01	-7.518936e+00
2.677404e+01	-7.560311e+00
2.692868e+01	-7.601769e+00
2.708422e+01	-7.642835e+00
2.724066e+01	-7.684493e+00
2.739800e+01	-7.726344e+00
2.755625e+01	-7.767828e+00
2.771541e+01	-7.809366e+00
2.787550e+01	-7.851088e+00
2.803650e+01	-7.893232e+00
2.819844e+01	-7.934965e+00
2.836131e+01	-7.977045e+00
2.852513e+01	-8.019109e+00
2.868989e+01	-8.061286e+00
2.885560e+01	-8.103434e+00
2.902227e+01	-8.145745e+00
2.918990e+01	-8.188535e+00
2.935850e+01	-8.230663e+00
2.952807e+01	-8.273351e+00
2.969863e+01	-8.315495e+00
2.987016e+01	-8.358445e+00
3.004269e+01	-8.401463e+00
3.021622e+01	-8.444254e+00
3.039075e+01	-8.487044e+00
3.056628e+01	-8.529822e+00
3.074283e+01	-8.573041e+00
3.092040e+01	-8.616268e+00
3.109900e+01	-8.659695e+00
3.127862e+01	-8.702482e+00
3.145929e+01	-8.746024e+00
3.164099e+01	-8.789164e+00
3.182375e+01	-8.832731e+00
3.200756e+01	-8.876369e+00
3.219244e+01	-8.919544e+00
3.237838e+01	-8.963631e+00
3.256540e+01	-9.007406e+00
3.275349e+01	-9.050806e+00
3.294268e+01	-9.095035e+00
3.313295e+01	-9.138957e+00
3.332433e+01	-9.182571e+00
3.351681e+01	-9.226549e+00
3.371040e+01	-9.270778e+00
3.390511e+01	-9.315236e+00
3.410094e+01	-9.359004e+00
3.429791e+01	-9.403347e+00
3.449601e+01	-9.447445e+00
3.469526e+01	-9.492368e+00
3.489566e+01	-9.536248e+00
3.509721e+01	-9.581453e+00
3.529993e+01	-9.625844e+00
3.550382e+01	-9.669942e+00
3.570889e+01	-9.714878e+00
3.591515e+01	-9.759747e+00
3.612259e+01	-9.803593e+00
3.633123e+01	-9.849214e+00
3.654108e+01	-9.894295e+00
3.675214e+01	-9.939097e+00
3.696442e+01	-9.983870e+00
3.717792e+01	-1.002910e+01
3.739266e+01	-1.007434e+01
3.760864e+01	-1.011900e+01
3.782587e+01	-1.016441e+01
3.804435e+01	-1.020979e+01
3.826409e+01	-1.025504e+01
3.848510e+01	-1.030067e+01
3.870739e+01	-1.034633e+01
3.893096e+01	-1.039165e+01
3.915583e+01	-1.043636e+01
3.938199e+01	-1.048234e+01
3.960946e+01	-1.052714e+01
3.983824e+01	-1.057368e+01
4.006834e+01	-1.061907e+01
4.029978e+01	-1.066422e+01
4.053255e+01	-1.071045e+01
4.076666e+01	-1.075639e+01
4.100213e+01	-1.080235e+01
4.123896e+01	-1.084822e+01
4.147715e+01	-1.089327e+01
4.171672e+01	-1.093977e+01
4.195767e+01	-1.098559e+01
4.220002e+01	-1.103151e+01
4.244377e+01	-1.107735e+01
4.268892e+01	-1.112430e+01
4.293549e+01	-1.117061e+01
4.318348e+01	-1.121682e+01
4.343291e+01	-1.126304e+01
4.368377e+01	-1.130888e+01
4.393609e+01	-1.135531e+01
4.418986e+01	-1.140203e+01
4.444510e+01	-1.144819e+01
4.470182e+01	-1.149514e+01
4.496001e+01	-1.154083e+01
4.521970e+01	-1.158796e+01
4.548089e+01	-1.163428e+01
4.574358e+01	-1.168081e+01
4.600779e+01	-1.172710e+01
4.627353e+01	-1.177442e+01
4.654081e+01	-1.182112e+01
4.680963e+01	-1.186763e+01
4.708000e+01	-1.191386e+01
4.735193e+01	-1.196085e+01
4.762543e+01	-1.200819e+01
4.790051e+01	-1.205449e+01
4.817719e+01	-1.210287e+01
4.845545e+01	-1.214892e+01
4.873533e+01	-1.219574e+01
4.901682e+01	-1.224267e+01
4.929994e+01	-1.228996e+01
4.958470e+01	-1.233697e+01
4.987110e+01	-1.238403e+01
5.015915e+01	-1.243153e+01
5.044887e+01	-1.247866e+01
5.074026e+01	-1.252586e+01
5.103333e+01	-1.257305e+01
5.132810e+01	-1.262033e+01
5.162457e+01	-1.266794e+01
5.192275e+01	-1.271463e+01
5.222265e+01	-1.276250e+01
5.252429e+01	-1.280970e+01
5.282767e+01	-1.285725e+01
5.313280e+01	-1.290464e+01
5.343969e+01	-1.295117e+01
5.374836e+01	-1.299921e+01
5.405880e+01	-1.304726e+01
5.437105e+01	-1.309449e+01
5.468509e+01	-1.314160e+01
5.500095e+01	-1.319025e+01
5.531863e+01	-1.323809e+01
5.563815e+01	-1.328546e+01
5.595951e+01	-1.333354e+01
5.628273e+01	-1.338079e+01
5.660782e+01	-1.342828e+01
5.693479e+01	-1.347656e+01
5.726364e+01	-1.352437e+01
5.759439e+01	-1.357141e+01
5.792705e+01	-1.361976e+01
5.826164e+01	-1.366771e+01
5.859815e+01	-1.371482e+01
5.893662e+01	-1.376270e+01
5.927703e+01	-1.381138e+01
5.961941e+01	-1.385973e+01
5.996377e+01	-1.390726e+01
6.031012e+01	-1.395561e+01
6.065847e+01	-1.400328e+01
6.100883e+01	-1.405115e+01
6.136121e+01	-1.409875e+01
6.171563e+01	-1.414748e+01
6.207210e+01	-1.419569e+01
6.243063e+01	-1.424367e+01
6.279122e+01	-1.429176e+01
6.315390e+01	-1.433911e+01
6.351868e+01	-1.438759e+01
6.388556e+01	-1.443638e+01
6.425456e+01	-1.448491e+01
6.462569e+01	-1.453298e+01
6.499897e+01	-1.458154e+01
6.537440e+01	-1.462893e+01
6.575200e+01	-1.467713e+01
6.613178e+01	-1.472638e+01
6.651375e+01	-1.477444e+01
6.689793e+01	-1.482347e+01
6.728433e+01	-1.487112e+01
6.767297e+01	-1.491999e+01
6.806384e+01	-1.496847e+01
6.845698e+01	-1.501612e+01
6.885238e+01	-1.506472e+01
6.925007e+01	-1.511414e+01
6.965005e+01	-1.516142e+01
7.005235e+01	-1.521103e+01
7.045697e+01	-1.525894e+01
7.086393e+01	-1.530598e+01
7.127323e+01	-1.535607e+01
7.168490e+01	-1.540426e+01
7.209895e+01	-1.545320e+01
7.251539e+01	-1.550219e+01
7.293424e+01	-1.555084e+01
7.335551e+01	-1.559896e+01
7.377920e+01	-1.564773e+01
7.420535e+01	-1.569625e+01
7.463396e+01	-1.574462e+01
7.506504e+01	-1.579332e+01
7.549861e+01	-1.584284e+01
7.593469e+01	-1.589138e+01
7.637328e+01	-1.594028e+01
7.681441e+01	-1.598879e+01
7.725809e+01	-1.603747e+01
7.770433e+01	-1.608641e+01
7.815315e+01	-1.613552e+01
7.860456e+01	-1.618304e+01
7.905857e+01	-1.623402e+01
7.951521e+01	-1.628217e+01
7.997449e+01	-1.633023e+01
8.043642e+01	-1.637978e+01
8.090102e+01	-1.642824e+01
8.136830e+01	-1.647655e+01
8.183828e+01	-1.652515e+01
8.231097e+01	-1.657484e+01
8.278640e+01	-1.662336e+01
8.326457e+01	-1.667269e+01
8.374550e+01	-1.672248e+01
8.422921e+01	-1.677293e+01
8.471572e+01	-1.681954e+01
8.520503e+01	-1.686888e+01
8.569717e+01	-1.691763e+01
8.619215e+01	-1.696644e+01
8.669000e+01	-1.701538e+01
8.719071e+01	-1.706440e+01
8.769432e+01	-1.711495e+01
8.820084e+01	-1.716231e+01
8.871029e+01	-1.721275e+01
8.922267e+01	-1.725997e+01
8.973802e+01	-1.730984e+01
9.025634e+01	-1.735980e+01
9.077766e+01	-1.740842e+01
9.130199e+01	-1.745743e+01
9.182935e+01	-1.750765e+01
9.235975e+01	-1.755581e+01
9.289321e+01	-1.760576e+01
9.342976e+01	-1.765477e+01
9.396941e+01	-1.770348e+01
9.451217e+01	-1.775263e+01
9.505807e+01	-1.780008e+01
9.560712e+01	-1.784931e+01
9.615934e+01	-1.790002e+01
9.671476e+01	-1.794958e+01
9.727338e+01	-1.799954e+01
9.783522e+01	-1.804809e+01
9.840032e+01	-1.809727e+01
9.896867e+01	-1.814630e+01
9.954031e+01	-1.819631e+01
1.001153e+02	-1.824422e+01
1.006935e+02	-1.829411e+01
1.012751e+02	-1.834308e+01
1.018601e+02	-1.839285e+01
1.024484e+02	-1.844222e+01
1.030402e+02	-1.849086e+01
1.036353e+02	-1.853979e+01
1.042339e+02	-1.859138e+01
1.048360e+02	-1.863997e+01
1.054415e+02	-1.868768e+01
1.060505e+02	-1.873746e+01
1.066631e+02	-1.878745e+01
1.072791e+02	-1.883598e+01
1.078988e+02	-1.888622e+01
1.085220e+02	-1.893711e+01
1.091488e+02	-1.898642e+01
1.097793e+02	-1.903399e+01
1.104133e+02	-1.908347e+01
1.110511e+02	-1.913205e+01
1.116925e+02	-1.918264e+01
1.123376e+02	-1.923247e+01
1.129865e+02	-1.928291e+01
1.136391e+02	-1.933162e+01
1.142955e+02	-1.938066e+01
1.149556e+02	-1.943007e+01
1.156196e+02	-1.947976e+01
1.162874e+02	-1.952826e+01
1.169591e+02	-1.957836e+01
1.176347e+02	-1.962492e+01
1.183141e+02	-1.967739e+01
1.189975e+02	-1.972715e+01
1.196848e+02	-1.977597e+01
1.203761e+02	-1.982442e+01
1.210714e+02	-1.987483e+01
1.217707e+02	-1.992482e+01
1.224740e+02	-1.997411e+01
1.231814e+02	-2.002426e+01
1.238929e+02	-2.007372e+01
1.246085e+02	-2.012479e+01
1.253283e+02	-2.017236e+01
1.260522e+02	-2.022092e+01
1.267802e+02	-2.027151e+01
1.275125e+02	-2.031914e+01
1.282490e+02	-2.037163e+01
1.289898e+02	-2.042066e+01
1.297348e+02	-2.047045e+01
1.304842e+02	-2.052002e+01
1.312378e+02	-2.056983e+01
1.319959e+02	-2.061974e+01
1.327583e+02	-2.066746e+01
1.335251e+02	-2.071711e+01
1.342963e+02	-2.076678e+01
1.350720e+02	-2.081694e+01
1.358522e+02	-2.086653e+01
1.366368e+02	-2.091578e+01
1.374260e+02	-2.096618e+01
1.382198e+02	-2.101633e+01
1.390182e+02	-2.106602e+01
1.398211e+02	-2.111699e+01
1.406287e+02	-2.116484e+01
1.414410e+02	-2.121379e+01
1.422579e+02	-2.126355e+01
1.430796e+02	-2.131486e+01
1.439060e+02	-2.136389e+01
1.447372e+02	-2.141302e+01
1.455732e+02	-2.146179e+01
1.464141e+02	-2.151180e+01
1.472597e+02	-2.156197e+01
1.481103e+02	-2.161045e+01
1.489658e+02	-2.166139e+01
1.498262e+02	-2.171115e+01
1.506916e+02	-2.176076e+01
1.515620e+02	-2.180863e+01
1.524374e+02	-2.185969e+01
1.533179e+02	-2.190894e+01
1.542034e+02	-2.195676e+01
1.550941e+02	-2.201006e+01
1.559899e+02	-2.205852e+01
1.568909e+02	-2.210911e+01
1.577971e+02	-2.215795e+01
1.587085e+02	-2.220721e+01
1.596252e+02	-2.225834e+01
1.605472e+02	-2.230862e+01
1.614745e+02	-2.235737e+01
1.624072e+02	-2.240777e+01
1.633453e+02	-2.245474e+01
1.642887e+02	-2.250588e+01
1.652377e+02	-2.255798e+01
1.661921e+02	-2.260569e+01
1.671520e+02	-2.265631e+01
1.681175e+02	-2.270674e+01
1.690885e+02	-2.275542e+01
1.700651e+02	-2.280600e+01
1.710474e+02	-2.285528e+01
1.720354e+02	-2.290583e+01
1.730291e+02	-2.295526e+01
1.740285e+02	-2.300413e+01
1.750337e+02	-2.305491e+01
1.760446e+02	-2.310442e+01
1.770615e+02	-2.315292e+01
1.780842e+02	-2.320355e+01
1.791128e+02	-2.325344e+01
1.801473e+02	-2.330339e+01
1.811878e+02	-2.335222e+01
1.822344e+02	-2.340443e+01
1.832870e+02	-2.345502e+01
1.843456e+02	-2.350211e+01
1.854104e+02	-2.355292e+01
1.864813e+02	-2.360317e+01
1.875584e+02	-2.365455e+01
1.886418e+02	-2.370066e+01
1.897313e+02	-2.375396e+01
1.908272e+02	-2.380308e+01
1.919294e+02	-2.385171e+01
1.930380e+02	-2.389836e+01
1.941530e+02	-2.395086e+01
1.952744e+02	-2.400049e+01
1.964023e+02	-2.405359e+01
1.975367e+02	-2.410297e+01
1.986777e+02	-2.415206e+01
1.998252e+02	-2.420024e+01
2.009794e+02	-2.425017e+01
2.021403e+02	-2.429970e+01
2.033078e+02	-2.435048e+01
2.044821e+02	-2.439885e+01
2.056632e+02	-2.445001e+01
2.068511e+02	-2.449967e+01
2.080459e+02	-2.454869e+01
2.092475e+02	-2.459864e+01
2.104561e+02	-2.465082e+01
2.116717e+02	-2.469885e+01
2.128943e+02	-2.474988e+01
2.141240e+02	-2.479808e+01
2.153608e+02	-2.485070e+01
2.166047e+02	-2.489848e+01
2.178558e+02	-2.495124e+01
2.191141e+02	-2.499693e+01
2.203797e+02	-2.504634e+01
2.216526e+02	-2.510246e+01
2.229329e+02	-2.515004e+01
2.242205e+02	-2.520026e+01
2.255156e+02	-2.524731e+01
2.268182e+02	-2.529943e+01
2.281283e+02	-2.534790e+01
2.294459e+02	-2.540016e+01
2.307712e+02	-2.544945e+01
2.321041e+02	-2.549781e+01
2.334447e+02	-2.554962e+01
2.347931e+02	-2.559889e+01
2.361493e+02	-2.564594e+01
2.375133e+02	-2.569670e+01
2.388851e+02	-2.574852e+01
2.402649e+02	-2.579750e+01
2.416527e+02	-2.584587e+01
2.430484e+02	-2.589647e+01
2.444523e+02	-2.594942e+01
2.458642e+02	-2.599755e+01
2.472843e+02	-2.604525e+01
2.487126e+02	-2.609748e+01
2.501492e+02	-2.614829e+01
2.515940e+02	-2.619843e+01
2.530472e+02	-2.624810e+01
2.545088e+02	-2.629799e+01
2.559789e+02	-2.634885e+01
2.574574e+02	-2.639636e+01
2.589444e+02	-2.644644e+01
2.604401e+02	-2.649664e+01
2.619444e+02	-2.654922e+01
2.634574e+02	-2.659818e+01
2.649791e+02	-2.664657e+01
2.665096e+02	-2.669614e+01
2.680489e+02	-2.674959e+01
2.695972e+02	-2.679616e+01
2.711544e+02	-2.684514e+01
2.727205e+02	-2.689892e+01
2.742958e+02	-2.694762e+01
2.758801e+02	-2.699473e+01
2.774736e+02	-2.704494e+01
2.790762e+02	-2.709485e+01
2.806882e+02	-2.714712e+01
2.823094e+02	-2.719539e+01
2.839400e+02	-2.724800e+01
2.855800e+02	-2.729907e+01
2.872295e+02	-2.734791e+01
2.888886e+02	-2.739343e+01
2.905572e+02	-2.744627e+01
2.922354e+02	-2.749539e+01
2.939234e+02	-2.754628e+01
2.956211e+02	-2.759745e+01
2.973286e+02	-2.765033e+01
2.990459e+02	-2.769634e+01
3.007732e+02	-2.774726e+01
3.025104e+02	-2.779995e+01
3.042577e+02	-2.784474e+01
3.060151e+02	-2.789686e+01
3.077826e+02	-2.794744e+01
3.095604e+02	-2.799804e+01
3.113484e+02	-2.804794e+01
3.131467e+02	-2.809399e+01
3.149554e+02	-2.814906e+01
3.167746e+02	-2.819865e+01
3.186043e+02	-2.824959e+01
3.204445e+02	-2.829658e+01
3.222954e+02	-2.834701e+01
3.241570e+02	-2.839215e+01
3.260293e+02	-2.844767e+01
3.279124e+02	-2.849925e+01
3.298064e+02	-2.854505e+01
3.317114e+02	-2.860063e+01
3.336273e+02	-2.864719e+01
3.355544e+02	-2.869779e+01
3.374925e+02	-2.874133e+01
3.394418e+02	-2.880005e+01
3.414024e+02	-2.884623e+01
3.433744e+02	-2.889704e+01
3.453577e+02	-2.894542e+01
3.473525e+02	-2.899992e+01
3.493588e+02	-2.904926e+01
3.513766e+02	-2.910056e+01
3.534062e+02	-2.914558e+01
3.554474e+02	-2.919399e+01
3.575005e+02	-2.925310e+01
3.595654e+02	-2.929607e+01
3.616422e+02	-2.934736e+01
3.637311e+02	-2.939960e+01
3.658320e+02	-2.944896e+01
3.679450e+02	-2.949571e+01
3.700702e+02	-2.954869e+01
3.722077e+02	-2.960291e+01
3.743576e+02	-2.965087e+01
3.765199e+02	-2.969643e+01
3.786946e+02	-2.975418e+01
3.808820e+02	-2.979905e+01
3.830819e+02	-2.984990e+01
3.852946e+02	-2.989939e+01
3.875200e+02	-2.995001e+01
3.897583e+02	-2.999780e+01
3.920096e+02	-3.005309e+01
3.942738e+02	-3.010506e+01
3.965511e+02	-3.014637e+01
3.988416e+02	-3.019696e+01
4.011452e+02	-3.024688e+01
4.034622e+02	-3.030019e+01
4.057926e+02	-3.035267e+01
4.081365e+02	-3.040335e+01
4.104938e+02	-3.045354e+01
4.128648e+02	-3.049979e+01
4.152495e+02	-3.055261e+01
4.176480e+02	-3.060092e+01
4.200603e+02	-3.065202e+01
4.224866e+02	-3.070246e+01
4.249268e+02	-3.075363e+01
4.273812e+02	-3.080131e+01
4.298497e+02	-3.085050e+01
4.323325e+02	-3.089822e+01
4.348297e+02	-3.094672e+01
4.373412e+02	-3.100499e+01
4.398673e+02	-3.105602e+01
4.424079e+02	-3.110409e+01
4.449633e+02	-3.115381e+01
4.475334e+02	-3.119646e+01
4.501183e+02	-3.125343e+01
4.527182e+02	-3.130248e+01
4.553330e+02	-3.135048e+01
4.579630e+02	-3.140453e+01
4.606082e+02	-3.145240e+01
4.632687e+02	-3.150447e+01
4.659445e+02	-3.155215e+01
4.686358e+02	-3.160687e+01
4.713426e+02	-3.165348e+01
4.740650e+02	-3.170366e+01
4.768032e+02	-3.175149e+01
4.795572e+02	-3.180714e+01
4.823271e+02	-3.185528e+01
4.851130e+02	-3.190553e+01
4.879150e+02	-3.195400e+01
4.907332e+02	-3.200609e+01
4.935676e+02	-3.205778e+01
4.964185e+02	-3.210933e+01
4.992858e+02	-3.215073e+01
5.021696e+02	-3.219741e+01
5.050701e+02	-3.225256e+01
5.079874e+02	-3.230522e+01
5.109215e+02	-3.235410e+01
5.138726e+02	-3.240753e+01
5.168407e+02	-3.244713e+01
5.198259e+02	-3.251139e+01
5.228284e+02	-3.256261e+01
5.258482e+02	-3.261035e+01
5.288855e+02	-3.265505e+01
5.319403e+02	-3.270649e+01
5.350128e+02	-3.275660e+01
5.381030e+02	-3.280627e+01
5.412111e+02	-3.286349e+01
5.443371e+02	-3.290905e+01
5.474812e+02	-3.296246e+01
5.506434e+02	-3.300284e+01
5.538239e+02	-3.305053e+01
5.570228e+02	-3.311311e+01
5.602401e+02	-3.315746e+01
5.634760e+02	-3.320528e+01
5.667306e+02	-3.326025e+01
5.700040e+02	-3.331006e+01
5.732964e+02	-3.336315e+01
5.766077e+02	-3.341156e+01
5.799382e+02	-3.346634e+01
5.832879e+02	-3.350756e+01
5.866569e+02	-3.356677e+01
5.900454e+02	-3.361276e+01
5.934535e+02	-3.366060e+01
5.968813e+02	-3.371405e+01
6.003288e+02	-3.376215e+01
6.037963e+02	-3.381353e+01
6.072838e+02	-3.386427e+01
6.107914e+02	-3.391816e+01
6.143194e+02	-3.396212e+01
6.178676e+02	-3.401230e+01
6.214364e+02	-3.406688e+01
6.250258e+02	-3.412004e+01
6.286359e+02	-3.416671e+01
6.322669e+02	-3.420804e+01
6.359189e+02	-3.426428e+01
6.395919e+02	-3.431697e+01
6.432862e+02	-3.436536e+01
6.470017e+02	-3.441532e+01
6.507388e+02	-3.446172e+01
6.544974e+02	-3.451734e+01
6.582778e+02	-3.457538e+01
6.620800e+02	-3.462069e+01
6.659041e+02	-3.466103e+01
6.697504e+02	-3.471566e+01
6.736188e+02	-3.477091e+01
6.775096e+02	-3.481543e+01
6.814229e+02	-3.487474e+01
6.853587e+02	-3.491188e+01
6.893173e+02	-3.496921e+01
6.932988e+02	-3.502799e+01
6.973033e+02	-3.507938e+01
7.013309e+02	-3.512003e+01
