Frequency(Hz)	Magnitude(dB)
1.000000e+01	-2.199435e+00
1.005776e+01	-2.219213e+00
1.011585e+01	-2.239464e+00
1.017428e+01	-2.259868e+00
1.023305e+01	-2.280261e+00
1.029215e+01	-2.300591e+00
1.035160e+01	-2.321120e+00
1.041139e+01	-2.342015e+00
1.047153e+01	-2.362855e+00
1.053201e+01	-2.383925e+00
1.059284e+01	-2.405341e+00
1.065403e+01	-2.426641e+00
1.071556e+01	-2.448009e+00
1.077746e+01	-2.469646e+00
1.083971e+01	-2.491211e+00
1.090232e+01	-2.513089e+00
1.096529e+01	-2.535304e+00
1.102862e+01	-2.557616e+00
1.109232e+01	-2.579953e+00
1.115639e+01	-2.602338e+00
1.122083e+01	-2.624723e+00
1.128564e+01	-2.647498e+00
1.135083e+01	-2.670669e+00
1.141639e+01	-2.693914e+00
1.148233e+01	-2.716932e+00
1.154865e+01	-2.740283e+00
1.161536e+01	-2.763854e+00
1.168245e+01	-2.787151e+00
1.174992e+01	-2.810990e+00
1.181779e+01	-2.835047e+00
1.188605e+01	-2.859037e+00
1.195470e+01	-2.883162e+00
1.202375e+01	-2.907510e+00
1.209320e+01	-2.931932e+00
1.216305e+01	-2.956642e+00
1.223330e+01	-2.981517e+00
1.230396e+01	-3.006395e+00
1.237503e+01	-3.031526e+00
1.244651e+01	-3.056817e+00
1.251840e+01	-3.082025e+00
1.259070e+01	-3.107462e+00
1.266343e+01	-3.133073e+00
1.273657e+01	-3.158879e+00
1.281014e+01	-3.184728e+00
1.288413e+01	-3.210880e+00
1.295855e+01	-3.237234e+00
1.303339e+01	-3.263563e+00
1.310867e+01	-3.289879e+00
1.318439e+01	-3.316663e+00
1.326054e+01	-3.343259e+00
1.333713e+01	-3.370302e+00
1.341417e+01	-3.397185e+00
1.349165e+01	-3.424669e+00
1.356958e+01	-3.452031e+00
1.364795e+01	-3.479172e+00
1.372678e+01	-3.507218e+00
1.380607e+01	-3.534962e+00
1.388581e+01	-3.563170e+00
1.396602e+01	-3.590724e+00
1.404668e+01	-3.619243e+00
1.412782e+01	-3.647471e+00
1.420942e+01	-3.676065e+00
1.429149e+01	-3.704429e+00
1.437404e+01	-3.733221e+00
1.445706e+01	-3.762143e+00
1.454057e+01	-3.791135e+00
1.462455e+01	-3.820333e+00
1.470902e+01	-3.849876e+00
1.479398e+01	-3.879414e+00
1.487943e+01	-3.909031e+00
1.496537e+01	-3.938797e+00
1.505181e+01	-3.968569e+00
1.513875e+01	-3.998719e+00
1.522619e+01	-4.028864e+00
1.531414e+01	-4.059380e+00
1.540259e+01	-4.089584e+00
1.549156e+01	-4.120109e+00
1.558103e+01	-4.150890e+00
1.567103e+01	-4.181615e+00
1.576155e+01	-4.212850e+00
1.585258e+01	-4.243900e+00
1.594415e+01	-4.275070e+00
1.603624e+01	-4.306774e+00
1.612886e+01	-4.338086e+00
1.622202e+01	-4.369681e+00
1.631572e+01	-4.401823e+00
1.640996e+01	-4.433644e+00
1.650474e+01	-4.465422e+00
1.660008e+01	-4.497726e+00
1.669596e+01	-4.530005e+00
1.679239e+01	-4.562612e+00
1.688938e+01	-4.595074e+00
1.698694e+01	-4.627918e+00
1.708505e+01	-4.660775e+00
1.718373e+01	-4.693597e+00
1.728299e+01	-4.726828e+00
1.738281e+01	-4.760266e+00
1.748322e+01	-4.793499e+00
1.758420e+01	-4.826785e+00
1.768576e+01	-4.860544e+00
1.778792e+01	-4.894548e+00
1.789066e+01	-4.928316e+00
1.799399e+01	-4.961984e+00
1.809793e+01	-4.996384e+00
1.820246e+01	-5.030488e+00
1.830760e+01	-5.065015e+00
1.841334e+01	-5.099607e+00
1.851969e+01	-5.134041e+00
1.862666e+01	-5.168797e+00
1.873425e+01	-5.203985e+00
1.884246e+01	-5.238724e+00
1.895129e+01	-5.273871e+00
1.906075e+01	-5.309086e+00
1.917085e+01	-5.344252e+00
1.928158e+01	-5.379866e+00
1.939295e+01	-5.415478e+00
1.950496e+01	-5.450999e+00
1.961762e+01	-5.487043e+00
1.973093e+01	-5.523025e+00
1.984490e+01	-5.558976e+00
1.995952e+01	-5.595170e+00
2.007480e+01	-5.631432e+00
2.019076e+01	-5.668029e+00
2.030738e+01	-5.704432e+00
2.042467e+01	-5.740975e+00
2.054264e+01	-5.778091e+00
2.066130e+01	-5.814402e+00
2.078064e+01	-5.851305e+00
2.090066e+01	-5.888623e+00
2.102139e+01	-5.925729e+00
2.114280e+01	-5.963088e+00
2.126492e+01	-6.000874e+00
2.138775e+01	-6.038200e+00
2.151128e+01	-6.075860e+00
2.163553e+01	-6.113399e+00
2.176050e+01	-6.151350e+00
2.188619e+01	-6.189390e+00
2.201260e+01	-6.227135e+00
2.213974e+01	-6.265519e+00
2.226762e+01	-6.303937e+00
2.239624e+01	-6.342303e+00
2.252560e+01	-6.380393e+00
2.265571e+01	-6.419205e+00
2.278656e+01	-6.457927e+00
2.291818e+01	-6.496783e+00
2.305055e+01	-6.535206e+00
2.318369e+01	-6.574179e+00
2.331760e+01	-6.613353e+00
2.345228e+01	-6.652641e+00
2.358774e+01	-6.691568e+00
2.372398e+01	-6.731298e+00
2.386101e+01	-6.770599e+00
2.399883e+01	-6.810106e+00
2.413745e+01	-6.849712e+00
2.427686e+01	-6.889686e+00
2.441709e+01	-6.929799e+00
2.455812e+01	-6.969304e+00
2.469997e+01	-7.009089e+00
2.484263e+01	-7.049699e+00
2.498612e+01	-7.089897e+00
2.513044e+01	-7.129965e+00
2.527559e+01	-7.170241e+00
2.542158e+01	-7.210710e+00
2.556842e+01	-7.251274e+00
2.571610e+01	-7.292054e+00
2.586463e+01	-7.332494e+00
2.601403e+01	-7.374023e+00
2.616428e+01	-7.414612e+00
2.631541e+01	-7.455335e+00
2.646740e+01	-7.496598e+00
2.662028e+01	-7.537804e+00
2.677404e+01	-7.578986e+00
2.692868e+01	-7.620321e+00
2.708422e+01	-7.661635e+00
2.724066e+01	-7.703235e+00
2.739800e+01	-7.744895e+00
2.755625e+01	-7.786599e+00
2.771541e+01	-7.828724e+00
2.787550e+01	-7.869996e+00
2.803650e+01	-7.911768e+00
2.819844e+01	-7.953753e+00
2.836131e+01	-7.995947e+00
2.852513e+01	-8.038190e+00
2.868989e+01	-8.080273e+00
2.885560e+01	-8.122756e+00
2.902227e+01	-8.164950e+00
2.918990e+01	-8.207814e+00
2.935850e+01	-8.249780e+00
2.952807e+01	-8.292417e+00
2.969863e+01	-8.335185e+00
2.987016e+01	-8.377687e+00
3.004269e+01	-8.420970e+00
3.021622e+01	-8.463333e+00
3.039075e+01	-8.506649e+00
3.056628e+01	-8.549558e+00
3.074283e+01	-8.592938e+00
3.092040e+01	-8.635527e+00
3.109900e+01	-8.678543e+00
3.127862e+01	-8.722176e+00
3.145929e+01	-8.765509e+00
3.164099e+01	-8.808784e+00
3.182375e+01	-8.852681e+00
3.200756e+01	-8.895978e+00
3.219244e+01	-8.939418e+00
3.237838e+01	-8.982855e+00
3.256540e+01	-9.026718e+00
3.275349e+01	-9.070949e+00
3.294268e+01	-9.114295e+00
3.313295e+01	-9.158136e+00
3.332433e+01	-9.202213e+00
3.351681e+01	-9.246896e+00
3.371040e+01	-9.290854e+00
3.390511e+01	-9.334748e+00
3.410094e+01	-9.378887e+00
3.429791e+01	-9.423332e+00
3.449601e+01	-9.467764e+00
3.469526e+01	-9.511963e+00
3.489566e+01	-9.557016e+00
3.509721e+01	-9.601288e+00
3.529993e+01	-9.645481e+00
3.550382e+01	-9.689629e+00
3.570889e+01	-9.734969e+00
3.591515e+01	-9.779362e+00
3.612259e+01	-9.824354e+00
3.633123e+01	-9.870127e+00
3.654108e+01	-9.913974e+00
3.675214e+01	-9.959461e+00
3.696442e+01	-1.000452e+01
3.717792e+01	-1.004951e+01
3.739266e+01	-1.009474e+01
3.760864e+01	-1.013940e+01
3.782587e+01	-1.018501e+01
3.804435e+01	-1.022970e+01
3.826409e+01	-1.027506e+01
3.848510e+01	-1.032057e+01
3.870739e+01	-1.036610e+01
3.893096e+01	-1.041159e+01
3.915583e+01	-1.045687e+01
3.938199e+01	-1.050217e+01
3.960946e+01	-1.054800e+01
3.983824e+01	-1.059364e+01
4.006834e+01	-1.063929e+01
4.029978e+01	-1.068526e+01
4.053255e+01	-1.073089e+01
4.076666e+01	-1.077677e+01
4.100213e+01	-1.082250e+01
4.123896e+01	-1.086841e+01
4.147715e+01	-1.091451e+01
4.171672e+01	-1.096046e+01
4.195767e+01	-1.100671e+01
4.220002e+01	-1.105231e+01
4.244377e+01	-1.109907e+01
4.268892e+01	-1.114473e+01
4.293549e+01	-1.119136e+01
4.318348e+01	-1.123711e+01
4.343291e+01	-1.128359e+01
4.368377e+01	-1.133016e+01
4.393609e+01	-1.137654e+01
4.418986e+01	-1.142293e+01
4.444510e+01	-1.146869e+01
4.470182e+01	-1.151498e+01
4.496001e+01	-1.156194e+01
4.521970e+01	-1.160843e+01
4.548089e+01	-1.165529e+01
4.574358e+01	-1.170199e+01
4.600779e+01	-1.174818e+01
4.627353e+01	-1.179538e+01
4.654081e+01	-1.184189e+01
4.680963e+01	-1.188852e+01
4.708000e+01	-1.193598e+01
4.735193e+01	-1.198212e+01
4.762543e+01	-1.202860e+01
4.790051e+01	-1.207586e+01
4.817719e+01	-1.212368e+01
4.845545e+01	-1.217096e+01
4.873533e+01	-1.221745e+01
4.901682e+01	-1.226411e+01
4.929994e+01	-1.231087e+01
4.958470e+01	-1.235828e+01
4.987110e+01	-1.240573e+01
5.015915e+01	-1.245276e+01
5.044887e+01	-1.250016e+01
5.074026e+01	-1.254725e+01
5.103333e+01	-1.259416e+01
5.132810e+01	-1.264146e+01
5.162457e+01	-1.268885e+01
5.192275e+01	-1.273579e+01
5.222265e+01	-1.278358e+01
5.252429e+01	-1.283135e+01
5.282767e+01	-1.287854e+01
5.313280e+01	-1.292560e+01
5.343969e+01	-1.297320e+01
5.374836e+01	-1.302063e+01
5.405880e+01	-1.306884e+01
5.437105e+01	-1.311649e+01
5.468509e+01	-1.316336e+01
5.500095e+01	-1.321180e+01
5.531863e+01	-1.325881e+01
5.563815e+01	-1.330648e+01
5.595951e+01	-1.335430e+01
5.628273e+01	-1.340141e+01
5.660782e+01	-1.345022e+01
5.693479e+01	-1.349736e+01
5.726364e+01	-1.354624e+01
5.759439e+01	-1.359318e+01
5.792705e+01	-1.364139e+01
5.826164e+01	-1.368887e+01
5.859815e+01	-1.373615e+01
5.893662e+01	-1.378413e+01
5.927703e+01	-1.383336e+01
5.961941e+01	-1.388071e+01
5.996377e+01	-1.392845e+01
6.031012e+01	-1.397675e+01
6.065847e+01	-1.402452e+01
6.100883e+01	-1.407307e+01
6.136121e+01	-1.412047e+01
6.171563e+01	-1.416895e+01
6.207210e+01	-1.421752e+01
6.243063e+01	-1.426515e+01
6.279122e+01	-1.431369e+01
6.315390e+01	-1.436192e+01
6.351868e+01	-1.440994e+01
6.388556e+01	-1.445728e+01
6.425456e+01	-1.450616e+01
6.462569e+01	-1.455389e+01
6.499897e+01	-1.460351e+01
6.537440e+01	-1.465094e+01
6.575200e+01	-1.469973e+01
6.613178e+01	-1.474744e+01
6.651375e+01	-1.479584e+01
6.689793e+01	-1.484451e+01
6.728433e+01	-1.489254e+01
6.767297e+01	-1.494124e+01
6.806384e+01	-1.498928e+01
6.845698e+01	-1.503866e+01
6.885238e+01	-1.508697e+01
6.925007e+01	-1.513520e+01
6.965005e+01	-1.518389e+01
7.005235e+01	-1.523185e+01
7.045697e+01	-1.528117e+01
7.086393e+01	-1.533015e+01
7.127323e+01	-1.537728e+01
7.168490e+01	-1.542680e+01
7.209895e+01	-1.547513e+01
7.251539e+01	-1.552309e+01
7.293424e+01	-1.557239e+01
7.335551e+01	-1.562073e+01
7.377920e+01	-1.566910e+01
7.420535e+01	-1.571860e+01
7.463396e+01	-1.576759e+01
7.506504e+01	-1.581641e+01
7.549861e+01	-1.586450e+01
7.593469e+01	-1.591199e+01
7.637328e+01	-1.596202e+01
7.681441e+01	-1.601037e+01
7.725809e+01	-1.605942e+01
7.770433e+01	-1.610875e+01
7.815315e+01	-1.615742e+01
7.860456e+01	-1.620681e+01
7.905857e+01	-1.625437e+01
7.951521e+01	-1.630393e+01
7.997449e+01	-1.635251e+01
8.043642e+01	-1.640119e+01
8.090102e+01	-1.645168e+01
8.136830e+01	-1.649821e+01
8.183828e+01	-1.654834e+01
8.231097e+01	-1.659713e+01
8.278640e+01	-1.664576e+01
8.326457e+01	-1.669498e+01
8.374550e+01	-1.674336e+01
8.422921e+01	-1.679337e+01
8.471572e+01	-1.684235e+01
8.520503e+01	-1.689161e+01
8.569717e+01	-1.693971e+01
8.619215e+01	-1.698999e+01
8.669000e+01	-1.703768e+01
8.719071e+01	-1.708698e+01
8.769432e+01	-1.713632e+01
8.820084e+01	-1.718509e+01
8.871029e+01	-1.723376e+01
8.922267e+01	-1.728393e+01
8.973802e+01	-1.733203e+01
9.025634e+01	-1.738098e+01
9.077766e+01	-1.743153e+01
9.130199e+01	-1.747910e+01
9.182935e+01	-1.752955e+01
9.235975e+01	-1.757783e+01
9.289321e+01	-1.762792e+01
9.342976e+01	-1.767692e+01
9.396941e+01	-1.772520e+01
9.451217e+01	-1.777605e+01
9.505807e+01	-1.782376e+01
9.560712e+01	-1.787254e+01
9.615934e+01	-1.792345e+01
9.671476e+01	-1.797288e+01
9.727338e+01	-1.801993e+01
9.783522e+01	-1.807011e+01
9.840032e+01	-1.812022e+01
9.896867e+01	-1.816888e+01
9.954031e+01	-1.821795e+01
1.001153e+02	-1.826691e+01
1.006935e+02	-1.831715e+01
1.012751e+02	-1.836573e+01
1.018601e+02	-1.841544e+01
1.024484e+02	-1.846355e+01
1.030402e+02	-1.851383e+01
1.036353e+02	-1.856318e+01
1.042339e+02	-1.861224e+01
1.048360e+02	-1.866205e+01
1.054415e+02	-1.871290e+01
1.060505e+02	-1.876031e+01
1.066631e+02	-1.880942e+01
1.072791e+02	-1.885861e+01
1.078988e+02	-1.890886e+01
1.085220e+02	-1.895711e+01
1.091488e+02	-1.900584e+01
1.097793e+02	-1.905665e+01
1.104133e+02	-1.910609e+01
1.110511e+02	-1.915537e+01
1.116925e+02	-1.920635e+01
1.123376e+02	-1.925456e+01
1.129865e+02	-1.930415e+01
1.136391e+02	-1.935320e+01
1.142955e+02	-1.940453e+01
1.149556e+02	-1.945221e+01
1.156196e+02	-1.950240e+01
1.162874e+02	-1.955199e+01
1.169591e+02	-1.960085e+01
1.176347e+02	-1.965177e+01
1.183141e+02	-1.970083e+01
1.189975e+02	-1.974783e+01
1.196848e+02	-1.979913e+01
1.203761e+02	-1.984792e+01
1.210714e+02	-1.989682e+01
1.217707e+02	-1.994596e+01
1.224740e+02	-1.999534e+01
1.231814e+02	-2.004603e+01
1.238929e+02	-2.009595e+01
1.246085e+02	-2.014715e+01
1.253283e+02	-2.019537e+01
1.260522e+02	-2.024419e+01
1.267802e+02	-2.029300e+01
1.275125e+02	-2.034284e+01
1.282490e+02	-2.039510e+01
1.289898e+02	-2.044371e+01
1.297348e+02	-2.049211e+01
1.304842e+02	-2.054105e+01
1.312378e+02	-2.059298e+01
1.319959e+02	-2.064171e+01
1.327583e+02	-2.069041e+01
1.335251e+02	-2.074165e+01
1.342963e+02	-2.078952e+01
1.350720e+02	-2.084076e+01
1.358522e+02	-2.088928e+01
1.366368e+02	-2.093954e+01
1.374260e+02	-2.099011e+01
1.382198e+02	-2.103762e+01
1.390182e+02	-2.108901e+01
1.398211e+02	-2.113562e+01
1.406287e+02	-2.118952e+01
1.414410e+02	-2.123643e+01
1.422579e+02	-2.128516e+01
1.430796e+02	-2.133764e+01
1.439060e+02	-2.138602e+01
1.447372e+02	-2.143767e+01
1.455732e+02	-2.148652e+01
1.464141e+02	-2.153621e+01
1.472597e+02	-2.158584e+01
1.481103e+02	-2.163293e+01
1.489658e+02	-2.168500e+01
1.498262e+02	-2.173259e+01
1.506916e+02	-2.178342e+01
1.515620e+02	-2.183353e+01
1.524374e+02	-2.188329e+01
1.533179e+02	-2.193345e+01
1.542034e+02	-2.198169e+01
1.550941e+02	-2.203197e+01
1.559899e+02	-2.208242e+01
1.568909e+02	-2.213206e+01
1.577971e+02	-2.218222e+01
1.587085e+02	-2.223352e+01
1.596252e+02	-2.228372e+01
1.605472e+02	-2.233034e+01
1.614745e+02	-2.237870e+01
1.624072e+02	-2.243010e+01
1.633453e+02	-2.247837e+01
1.642887e+02	-2.253002e+01
1.652377e+02	-2.257851e+01
1.661921e+02	-2.262868e+01
1.671520e+02	-2.268018e+01
1.681175e+02	-2.272873e+01
1.690885e+02	-2.277831e+01
1.700651e+02	-2.282815e+01
1.710474e+02	-2.287598e+01
1.720354e+02	-2.292928e+01
1.730291e+02	-2.297576e+01
1.740285e+02	-2.302720e+01
1.750337e+02	-2.307742e+01
1.760446e+02	-2.312684e+01
1.770615e+02	-2.317648e+01
1.780842e+02	-2.322241e+01
1.791128e+02	-2.327728e+01
1.801473e+02	-2.332504e+01
1.811878e+02	-2.337729e+01
1.822344e+02	-2.342587e+01
1.832870e+02	-2.347509e+01
1.843456e+02	-2.352390e+01
1.854104e+02	-2.357327e+01
1.864813e+02	-2.362292e+01
1.875584e+02	-2.367578e+01
1.886418e+02	-2.372230e+01
1.897313e+02	-2.377659e+01
1.908272e+02	-2.382590e+01
1.919294e+02	-2.387458e+01
1.930380e+02	-2.392120e+01
1.941530e+02	-2.397325e+01
1.952744e+02	-2.402650e+01
1.964023e+02	-2.407413e+01
1.975367e+02	-2.412150e+01
1.986777e+02	-2.417412e+01
1.998252e+02	-2.422321e+01
2.009794e+02	-2.427269e+01
2.021403e+02	-2.432253e+01
2.033078e+02	-2.437361e+01
2.044821e+02	-2.442426e+01
2.056632e+02	-2.447615e+01
2.068511e+02	-2.452346e+01
2.080459e+02	-2.457312e+01
2.092475e+02	-2.462410e+01
2.104561e+02	-2.467177e+01
2.116717e+02	-2.472445e+01
2.128943e+02	-2.477262e+01
2.141240e+02	-2.482387e+01
2.153608e+02	-2.487235e+01
2.166047e+02	-2.492064e+01
2.178558e+02	-2.497271e+01
2.191141e+02	-2.502340e+01
2.203797e+02	-2.507352e+01
2.216526e+02	-2.512234e+01
2.229329e+02	-2.517102e+01
2.242205e+02	-2.522471e+01
2.255156e+02	-2.527413e+01
2.268182e+02	-2.532262e+01
2.281283e+02	-2.537164e+01
2.294459e+02	-2.542368e+01
2.307712e+02	-2.547107e+01
2.321041e+02	-2.551960e+01
2.334447e+02	-2.556875e+01
2.347931e+02	-2.561941e+01
2.361493e+02	-2.567009e+01
2.375133e+02	-2.572068e+01
2.388851e+02	-2.576883e+01
2.402649e+02	-2.582148e+01
2.416527e+02	-2.586857e+01
2.430484e+02	-2.592049e+01
2.444523e+02	-2.596907e+01
2.458642e+02	-2.602366e+01
2.472843e+02	-2.606852e+01
2.487126e+02	-2.611844e+01
2.501492e+02	-2.617078e+01
2.515940e+02	-2.621859e+01
2.530472e+02	-2.626929e+01
2.545088e+02	-2.632139e+01
2.559789e+02	-2.637255e+01
2.574574e+02	-2.641933e+01
2.589444e+02	-2.647129e+01
2.604401e+02	-2.652135e+01
2.619444e+02	-2.657031e+01
2.634574e+02	-2.662154e+01
2.649791e+02	-2.667045e+01
2.665096e+02	-2.671901e+01
2.680489e+02	-2.676824e+01
2.695972e+02	-2.682381e+01
2.711544e+02	-2.687184e+01
2.727205e+02	-2.692324e+01
2.742958e+02	-2.697187e+01
2.758801e+02	-2.702014e+01
2.774736e+02	-2.707287e+01
2.790762e+02	-2.711584e+01
2.806882e+02	-2.717199e+01
2.823094e+02	-2.721531e+01
2.839400e+02	-2.726633e+01
2.855800e+02	-2.732016e+01
2.872295e+02	-2.736889e+01
2.888886e+02	-2.742032e+01
2.905572e+02	-2.746890e+01
2.922354e+02	-2.752046e+01
2.939234e+02	-2.756887e+01
2.956211e+02	-2.762216e+01
2.973286e+02	-2.767121e+01
2.990459e+02	-2.771713e+01
3.007732e+02	-2.777186e+01
3.025104e+02	-2.781900e+01
3.042577e+02	-2.787099e+01
3.060151e+02	-2.791689e+01
3.077826e+02	-2.797028e+01
3.095604e+02	-2.802318e+01
3.113484e+02	-2.806699e+01
3.131467e+02	-2.811702e+01
3.149554e+02	-2.817390e+01
3.167746e+02	-2.821948e+01
3.186043e+02	-2.826661e+01
3.204445e+02	-2.831904e+01
3.222954e+02	-2.836944e+01
3.241570e+02	-2.842259e+01
3.260293e+02	-2.846792e+01
3.279124e+02	-2.852254e+01
3.298064e+02	-2.857286e+01
3.317114e+02	-2.861822e+01
3.336273e+02	-2.867265e+01
3.355544e+02	-2.872098e+01
3.374925e+02	-2.877000e+01
3.394418e+02	-2.882449e+01
3.414024e+02	-2.887379e+01
3.433744e+02	-2.891877e+01
3.453577e+02	-2.896759e+01
3.473525e+02	-2.902149e+01
3.493588e+02	-2.906854e+01
3.513766e+02	-2.912222e+01
3.534062e+02	-2.917445e+01
3.554474e+02	-2.922293e+01
3.575005e+02	-2.927399e+01
3.595654e+02	-2.932034e+01
3.616422e+02	-2.937075e+01
3.637311e+02	-2.942050e+01
3.658320e+02	-2.947340e+01
3.679450e+02	-2.952086e+01
3.700702e+02	-2.957194e+01
3.722077e+02	-2.962196e+01
3.743576e+02	-2.966866e+01
3.765199e+02	-2.972075e+01
3.786946e+02	-2.977296e+01
3.808820e+02	-2.982077e+01
3.830819e+02	-2.987432e+01
3.852946e+02	-2.992089e+01
3.875200e+02	-2.996743e+01
3.897583e+02	-3.002384e+01
3.920096e+02	-3.007234e+01
3.942738e+02	-3.012093e+01
3.965511e+02	-3.016939e+01
3.988416e+02	-3.021835e+01
4.011452e+02	-3.027245e+01
4.034622e+02	-3.032251e+01
4.057926e+02	-3.037142e+01
4.081365e+02	-3.042375e+01
4.104938e+02	-3.047614e+01
4.128648e+02	-3.052333e+01
4.152495e+02	-3.057587e+01
4.176480e+02	-3.062498e+01
4.200603e+02	-3.066934e+01
4.224866e+02	-3.072220e+01
4.249268e+02	-3.077376e+01
4.273812e+02	-3.082633e+01
4.298497e+02	-3.087659e+01
4.323325e+02	-3.092047e+01
4.348297e+02	-3.097059e+01
4.373412e+02	-3.102817e+01
4.398673e+02	-3.107501e+01
4.424079e+02	-3.112225e+01
4.449633e+02	-3.117763e+01
4.475334e+02	-3.121958e+01
4.501183e+02	-3.127464e+01
4.527182e+02	-3.132855e+01
4.553330e+02	-3.137927e+01
4.579630e+02	-3.143141e+01
4.606082e+02	-3.147254e+01
4.632687e+02	-3.152496e+01
4.659445e+02	-3.157721e+01
4.686358e+02	-3.162532e+01
4.713426e+02	-3.167268e+01
4.740650e+02	-3.172438e+01
4.768032e+02	-3.177439e+01
4.795572e+02	-3.182854e+01
4.823271e+02	-3.187209e+01
4.851130e+02	-3.192670e+01
4.879150e+02	-3.197874e+01
4.907332e+02	-3.202684e+01
4.935676e+02	-3.207501e+01
4.964185e+02	-3.212977e+01
4.992858e+02	-3.218330e+01
5.021696e+02	-3.222790e+01
5.050701e+02	-3.228018e+01
5.079874e+02	-3.232965e+01
5.109215e+02	-3.238274e+01
5.138726e+02	-3.242907e+01
5.168407e+02	-3.248102e+01
5.198259e+02	-3.253026e+01
5.228284e+02	-3.257745e+01
5.258482e+02	-3.263164e+01
5.288855e+02	-3.268817e+01
5.319403e+02	-3.273318e+01
5.350128e+02	-3.277749e+01
5.381030e+02	-3.283302e+01
5.412111e+02	-3.288236e+01
5.443371e+02	-3.293230e+01
5.474812e+02	-3.298399e+01
5.506434e+02	-3.303708e+01
5.538239e+02	-3.308827e+01
5.570228e+02	-3.313243e+01
5.602401e+02	-3.318194e+01
5.634760e+02	-3.323305e+01
5.667306e+02	-3.328474e+01
5.700040e+02	-3.333510e+01
5.732964e+02	-3.338273e+01
5.766077e+02	-3.344096e+01
5.799382e+02	-3.347735e+01
5.832879e+02	-3.353396e+01
5.866569e+02	-3.359601e+01
5.900454e+02	-3.363519e+01
5.934535e+02	-3.369307e+01
5.968813e+02	-3.373690e+01
6.003288e+02	-3.378930e+01
6.037963e+02	-3.383480e+01
6.072838e+02	-3.388497e+01
6.107914e+02	-3.393935e+01
6.143194e+02	-3.398293e+01
6.178676e+02	-3.404420e+01
6.214364e+02	-3.408587e+01
6.250258e+02	-3.413804e+01
6.286359e+02	-3.419455e+01
6.322669e+02	-3.423610e+01
6.359189e+02	-3.429941e+01
6.395919e+02	-3.434487e+01
6.432862e+02	-3.439148e+01
6.470017e+02	-3.444398e+01
6.507388e+02	-3.449141e+01
6.544974e+02	-3.453880e+01
6.582778e+02	-3.458683e+01
6.620800e+02	-3.464326e+01
6.659041e+02	-3.469317e+01
6.697504e+02	-3.475035e+01
6.736188e+02	-3.479394e+01
6.775096e+02	-3.484515e+01
6.814229e+02	-3.489580e+01
6.853587e+02	-3.494691e+01
6.893173e+02	-3.499168e+01
6.932988e+02	-3.504873e+01
6.973033e+02	-3.510115e+01
7.013309e+02	-3.514399e+01
