Frequency(Hz)	Magnitude(dB)
1.000000e+01	-2.212725e+00
1.005776e+01	-2.232676e+00
1.011585e+01	-2.252675e+00
1.017428e+01	-2.273049e+00
1.023305e+01	-2.293592e+00
1.029215e+01	-2.314385e+00
1.035160e+01	-2.334919e+00
1.041139e+01	-2.356003e+00
1.047153e+01	-2.376905e+00
1.053201e+01	-2.397797e+00
1.059284e+01	-2.419352e+00
1.065403e+01	-2.440747e+00
1.071556e+01	-2.462326e+00
1.077746e+01	-2.483894e+00
1.083971e+01	-2.505931e+00
1.090232e+01	-2.528051e+00
1.096529e+01	-2.549933e+00
1.102862e+01	-2.572371e+00
1.109232e+01	-2.594572e+00
1.115639e+01	-2.617438e+00
1.122083e+01	-2.640087e+00
1.128564e+01	-2.662882e+00
1.135083e+01	-2.686109e+00
1.141639e+01	-2.709036e+00
1.148233e+01	-2.732371e+00
1.154865e+01	-2.755839e+00
1.161536e+01	-2.779187e+00
1.168245e+01	-2.802722e+00
1.174992e+01	-2.826939e+00
1.181779e+01	-2.850687e+00
1.188605e+01	-2.875189e+00
1.195470e+01	-2.899185e+00
1.202375e+01	-2.923848e+00
1.209320e+01	-2.948442e+00
1.216305e+01	-2.973006e+00
1.223330e+01	-2.997973e+00
1.230396e+01	-3.022953e+00
1.237503e+01	-3.048237e+00
1.244651e+01	-3.073530e+00
1.251840e+01	-3.099006e+00
1.259070e+01	-3.124519e+00
1.266343e+01	-3.150254e+00
1.273657e+01	-3.176118e+00
1.281014e+01	-3.202261e+00
1.288413e+01	-3.228319e+00
1.295855e+01	-3.254552e+00
1.303339e+01	-3.281024e+00
1.310867e+01	-3.307787e+00
1.318439e+01	-3.334251e+00
1.326054e+01	-3.361225e+00
1.333713e+01	-3.388257e+00
1.341417e+01	-3.415399e+00
1.349165e+01	-3.442537e+00
1.356958e+01	-3.470176e+00
1.364795e+01	-3.497635e+00
1.372678e+01	-3.525564e+00
1.380607e+01	-3.553167e+00
1.388581e+01	-3.581112e+00
1.396602e+01	-3.609453e+00
1.404668e+01	-3.637701e+00
1.412782e+01	-3.666467e+00
1.420942e+01	-3.694834e+00
1.429149e+01	-3.723400e+00
1.437404e+01	-3.752335e+00
1.445706e+01	-3.781566e+00
1.454057e+01	-3.810732e+00
1.462455e+01	-3.839865e+00
1.470902e+01	-3.869535e+00
1.479398e+01	-3.898900e+00
1.487943e+01	-3.928847e+00
1.496537e+01	-3.958500e+00
1.505181e+01	-3.988439e+00
1.513875e+01	-4.018674e+00
1.522619e+01	-4.048868e+00
1.531414e+01	-4.079504e+00
1.540259e+01	-4.109873e+00
1.549156e+01	-4.140336e+00
1.558103e+01	-4.171638e+00
1.567103e+01	-4.202303e+00
1.576155e+01	-4.233334e+00
1.585258e+01	-4.264650e+00
1.594415e+01	-4.295870e+00
1.603624e+01	-4.327560e+00
1.612886e+01	-4.358834e+00
1.622202e+01	-4.390731e+00
1.631572e+01	-4.422508e+00
1.640996e+01	-4.454766e+00
1.650474e+01	-4.487048e+00
1.660008e+01	-4.519211e+00
1.669596e+01	-4.551640e+00
1.679239e+01	-4.584242e+00
1.688938e+01	-4.616929e+00
1.698694e+01	-4.649520e+00
1.708505e+01	-4.682360e+00
1.718373e+01	-4.715684e+00
1.728299e+01	-4.749036e+00
1.738281e+01	-4.782527e+00
1.748322e+01	-4.815544e+00
1.758420e+01	-4.849283e+00
1.768576e+01	-4.882893e+00
1.778792e+01	-4.916907e+00
1.789066e+01	-4.950683e+00
1.799399e+01	-4.984672e+00
1.809793e+01	-5.019170e+00
1.820246e+01	-5.053468e+00
1.830760e+01	-5.087933e+00
1.841334e+01	-5.122577e+00
1.851969e+01	-5.157120e+00
1.862666e+01	-5.191762e+00
1.873425e+01	-5.226769e+00
1.884246e+01	-5.262155e+00
1.895129e+01	-5.297049e+00
1.906075e+01	-5.332538e+00
1.917085e+01	-5.367686e+00
1.928158e+01	-5.403604e+00
1.939295e+01	-5.439018e+00
1.950496e+01	-5.475147e+00
1.961762e+01	-5.510484e+00
1.973093e+01	-5.547006e+00
1.984490e+01	-5.582945e+00
1.995952e+01	-5.619454e+00
2.007480e+01	-5.655724e+00
2.019076e+01	-5.691900e+00
2.030738e+01	-5.728555e+00
2.042467e+01	-5.765251e+00
2.054264e+01	-5.802272e+00
2.066130e+01	-5.839315e+00
2.078064e+01	-5.876310e+00
2.090066e+01	-5.913549e+00
2.102139e+01	-5.950593e+00
2.114280e+01	-5.987738e+00
2.126492e+01	-6.025312e+00
2.138775e+01	-6.062885e+00
2.151128e+01	-6.100624e+00
2.163553e+01	-6.138513e+00
2.176050e+01	-6.176435e+00
2.188619e+01	-6.214677e+00
2.201260e+01	-6.252704e+00
2.213974e+01	-6.290820e+00
2.226762e+01	-6.329262e+00
2.239624e+01	-6.367424e+00
2.252560e+01	-6.406018e+00
2.265571e+01	-6.444531e+00
2.278656e+01	-6.483171e+00
2.291818e+01	-6.522138e+00
2.305055e+01	-6.561175e+00
2.318369e+01	-6.600283e+00
2.331760e+01	-6.639335e+00
2.345228e+01	-6.678542e+00
2.358774e+01	-6.718022e+00
2.372398e+01	-6.757009e+00
2.386101e+01	-6.797009e+00
2.399883e+01	-6.836427e+00
2.413745e+01	-6.876194e+00
2.427686e+01	-6.915756e+00
2.441709e+01	-6.955687e+00
2.455812e+01	-6.995907e+00
2.469997e+01	-7.036177e+00
2.484263e+01	-7.075866e+00
2.498612e+01	-7.115987e+00
2.513044e+01	-7.156798e+00
2.527559e+01	-7.197111e+00
2.542158e+01	-7.237604e+00
2.556842e+01	-7.278032e+00
2.571610e+01	-7.318875e+00
2.586463e+01	-7.359809e+00
2.601403e+01	-7.400621e+00
2.616428e+01	-7.442058e+00
2.631541e+01	-7.483001e+00
2.646740e+01	-7.523757e+00
2.662028e+01	-7.565059e+00
2.677404e+01	-7.606165e+00
2.692868e+01	-7.647900e+00
2.708422e+01	-7.689424e+00
2.724066e+01	-7.730723e+00
2.739800e+01	-7.772618e+00
2.755625e+01	-7.814083e+00
2.771541e+01	-7.855779e+00
2.787550e+01	-7.897877e+00
2.803650e+01	-7.939578e+00
2.819844e+01	-7.982170e+00
2.836131e+01	-8.023680e+00
2.852513e+01	-8.066107e+00
2.868989e+01	-8.108706e+00
2.885560e+01	-8.150514e+00
2.902227e+01	-8.192874e+00
2.918990e+01	-8.235583e+00
2.935850e+01	-8.277979e+00
2.952807e+01	-8.321021e+00
2.969863e+01	-8.363326e+00
2.987016e+01	-8.405846e+00
3.004269e+01	-8.448687e+00
3.021622e+01	-8.491819e+00
3.039075e+01	-8.534720e+00
3.056628e+01	-8.577589e+00
3.074283e+01	-8.621065e+00
3.092040e+01	-8.664020e+00
3.109900e+01	-8.706961e+00
3.127862e+01	-8.751235e+00
3.145929e+01	-8.794251e+00
3.164099e+01	-8.837647e+00
3.182375e+01	-8.881115e+00
3.200756e+01	-8.924508e+00
3.219244e+01	-8.968254e+00
3.237838e+01	-9.012216e+00
3.256540e+01	-9.055921e+00
3.275349e+01	-9.100120e+00
3.294268e+01	-9.143625e+00
3.313295e+01	-9.187892e+00
3.332433e+01	-9.232144e+00
3.351681e+01	-9.275831e+00
3.371040e+01	-9.319880e+00
3.390511e+01	-9.364192e+00
3.410094e+01	-9.408264e+00
3.429791e+01	-9.453374e+00
3.449601e+01	-9.496868e+00
3.469526e+01	-9.541218e+00
3.489566e+01	-9.586041e+00
3.509721e+01	-9.630254e+00
3.529993e+01	-9.674709e+00
3.550382e+01	-9.720182e+00
3.570889e+01	-9.764336e+00
3.591515e+01	-9.809042e+00
3.612259e+01	-9.853811e+00
3.633123e+01	-9.899122e+00
3.654108e+01	-9.943960e+00
3.675214e+01	-9.988856e+00
3.696442e+01	-1.003412e+01
3.717792e+01	-1.007846e+01
3.739266e+01	-1.012421e+01
3.760864e+01	-1.016949e+01
3.782587e+01	-1.021468e+01
3.804435e+01	-1.025952e+01
3.826409e+01	-1.030505e+01
3.848510e+01	-1.035036e+01
3.870739e+01	-1.039592e+01
3.893096e+01	-1.044180e+01
3.915583e+01	-1.048701e+01
3.938199e+01	-1.053281e+01
3.960946e+01	-1.057818e+01
3.983824e+01	-1.062403e+01
4.006834e+01	-1.066972e+01
4.029978e+01	-1.071566e+01
4.053255e+01	-1.076146e+01
4.076666e+01	-1.080737e+01
4.100213e+01	-1.085323e+01
4.123896e+01	-1.089912e+01
4.147715e+01	-1.094520e+01
4.171672e+01	-1.099109e+01
4.195767e+01	-1.103682e+01
4.220002e+01	-1.108308e+01
4.244377e+01	-1.112917e+01
4.268892e+01	-1.117544e+01
4.293549e+01	-1.122164e+01
4.318348e+01	-1.126775e+01
4.343291e+01	-1.131462e+01
4.368377e+01	-1.136070e+01
4.393609e+01	-1.140711e+01
4.418986e+01	-1.145333e+01
4.444510e+01	-1.149984e+01
4.470182e+01	-1.154621e+01
4.496001e+01	-1.159302e+01
4.521970e+01	-1.164004e+01
4.548089e+01	-1.168656e+01
4.574358e+01	-1.173290e+01
4.600779e+01	-1.177965e+01
4.627353e+01	-1.182635e+01
4.654081e+01	-1.187323e+01
4.680963e+01	-1.192027e+01
4.708000e+01	-1.196617e+01
4.735193e+01	-1.201349e+01
4.762543e+01	-1.205982e+01
4.790051e+01	-1.210706e+01
4.817719e+01	-1.215406e+01
4.845545e+01	-1.220079e+01
4.873533e+01	-1.224813e+01
4.901682e+01	-1.229566e+01
4.929994e+01	-1.234215e+01
4.958470e+01	-1.238968e+01
4.987110e+01	-1.243635e+01
5.015915e+01	-1.248396e+01
5.044887e+01	-1.253022e+01
5.074026e+01	-1.257771e+01
5.103333e+01	-1.262536e+01
5.132810e+01	-1.267270e+01
5.162457e+01	-1.272003e+01
5.192275e+01	-1.276717e+01
5.222265e+01	-1.281477e+01
5.252429e+01	-1.286266e+01
5.282767e+01	-1.290977e+01
5.313280e+01	-1.295771e+01
5.343969e+01	-1.300496e+01
5.374836e+01	-1.305275e+01
5.405880e+01	-1.310027e+01
5.437105e+01	-1.314784e+01
5.468509e+01	-1.319425e+01
5.500095e+01	-1.324275e+01
5.531863e+01	-1.329061e+01
5.563815e+01	-1.333810e+01
5.595951e+01	-1.338645e+01
5.628273e+01	-1.343363e+01
5.660782e+01	-1.348209e+01
5.693479e+01	-1.353020e+01
5.726364e+01	-1.357787e+01
5.759439e+01	-1.362439e+01
5.792705e+01	-1.367267e+01
5.826164e+01	-1.372116e+01
5.859815e+01	-1.376876e+01
5.893662e+01	-1.381648e+01
5.927703e+01	-1.386407e+01
5.961941e+01	-1.391270e+01
5.996377e+01	-1.396061e+01
6.031012e+01	-1.400866e+01
6.065847e+01	-1.405681e+01
6.100883e+01	-1.410475e+01
6.136121e+01	-1.415287e+01
6.171563e+01	-1.420051e+01
6.207210e+01	-1.424940e+01
6.243063e+01	-1.429706e+01
6.279122e+01	-1.434428e+01
6.315390e+01	-1.439348e+01
6.351868e+01	-1.444192e+01
6.388556e+01	-1.448958e+01
6.425456e+01	-1.453863e+01
6.462569e+01	-1.458709e+01
6.499897e+01	-1.463528e+01
6.537440e+01	-1.468374e+01
6.575200e+01	-1.473129e+01
6.613178e+01	-1.477960e+01
6.651375e+01	-1.482871e+01
6.689793e+01	-1.487662e+01
6.728433e+01	-1.492493e+01
6.767297e+01	-1.497382e+01
6.806384e+01	-1.502174e+01
6.845698e+01	-1.507006e+01
6.885238e+01	-1.511862e+01
6.925007e+01	-1.516790e+01
6.965005e+01	-1.521554e+01
7.005235e+01	-1.526533e+01
7.045697e+01	-1.531294e+01
7.086393e+01	-1.536148e+01
7.127323e+01	-1.541052e+01
7.168490e+01	-1.545837e+01
7.209895e+01	-1.550745e+01
7.251539e+01	-1.555593e+01
7.293424e+01	-1.560426e+01
7.335551e+01	-1.565256e+01
7.377920e+01	-1.570249e+01
7.420535e+01	-1.574924e+01
7.463396e+01	-1.579916e+01
7.506504e+01	-1.584888e+01
7.549861e+01	-1.589571e+01
7.593469e+01	-1.594539e+01
7.637328e+01	-1.599260e+01
7.681441e+01	-1.604338e+01
7.725809e+01	-1.609169e+01
7.770433e+01	-1.614088e+01
7.815315e+01	-1.618939e+01
7.860456e+01	-1.623839e+01
7.905857e+01	-1.628645e+01
7.951521e+01	-1.633586e+01
7.997449e+01	-1.638475e+01
8.043642e+01	-1.643363e+01
8.090102e+01	-1.648176e+01
8.136830e+01	-1.653105e+01
8.183828e+01	-1.658058e+01
8.231097e+01	-1.662863e+01
8.278640e+01	-1.667741e+01
8.326457e+01	-1.672776e+01
8.374550e+01	-1.677619e+01
8.422921e+01	-1.682521e+01
8.471572e+01	-1.687546e+01
8.520503e+01	-1.692367e+01
8.569717e+01	-1.697129e+01
8.619215e+01	-1.701976e+01
8.669000e+01	-1.707031e+01
8.719071e+01	-1.712030e+01
8.769432e+01	-1.716794e+01
8.820084e+01	-1.721847e+01
8.871029e+01	-1.726638e+01
8.922267e+01	-1.731510e+01
8.973802e+01	-1.736428e+01
9.025634e+01	-1.741414e+01
9.077766e+01	-1.746350e+01
9.130199e+01	-1.751167e+01
9.182935e+01	-1.756196e+01
9.235975e+01	-1.761024e+01
9.289321e+01	-1.765945e+01
9.342976e+01	-1.770814e+01
9.396941e+01	-1.775791e+01
9.451217e+01	-1.780758e+01
9.505807e+01	-1.785709e+01
9.560712e+01	-1.790594e+01
9.615934e+01	-1.795485e+01
9.671476e+01	-1.800496e+01
9.727338e+01	-1.805313e+01
9.783522e+01	-1.810213e+01
9.840032e+01	-1.815124e+01
9.896867e+01	-1.820122e+01
9.954031e+01	-1.824965e+01
1.001153e+02	-1.830131e+01
1.006935e+02	-1.834876e+01
1.012751e+02	-1.839871e+01
1.018601e+02	-1.844712e+01
1.024484e+02	-1.849811e+01
1.030402e+02	-1.854528e+01
1.036353e+02	-1.859535e+01
1.042339e+02	-1.864432e+01
1.048360e+02	-1.869486e+01
1.054415e+02	-1.874229e+01
1.060505e+02	-1.879317e+01
1.066631e+02	-1.884404e+01
1.072791e+02	-1.889131e+01
1.078988e+02	-1.894152e+01
1.085220e+02	-1.899102e+01
1.091488e+02	-1.903909e+01
1.097793e+02	-1.908941e+01
1.104133e+02	-1.913867e+01
1.110511e+02	-1.918889e+01
1.116925e+02	-1.923838e+01
1.123376e+02	-1.928727e+01
1.129865e+02	-1.933714e+01
1.136391e+02	-1.938616e+01
1.142955e+02	-1.943598e+01
1.149556e+02	-1.948628e+01
1.156196e+02	-1.953445e+01
1.162874e+02	-1.958505e+01
1.169591e+02	-1.963199e+01
1.176347e+02	-1.968248e+01
1.183141e+02	-1.973238e+01
1.189975e+02	-1.978161e+01
1.196848e+02	-1.983181e+01
1.203761e+02	-1.988016e+01
1.210714e+02	-1.993129e+01
1.217707e+02	-1.997835e+01
1.224740e+02	-2.003011e+01
1.231814e+02	-2.007937e+01
1.238929e+02	-2.012761e+01
1.246085e+02	-2.017826e+01
1.253283e+02	-2.022810e+01
1.260522e+02	-2.027794e+01
1.267802e+02	-2.032705e+01
1.275125e+02	-2.037632e+01
1.282490e+02	-2.042664e+01
1.289898e+02	-2.047557e+01
1.297348e+02	-2.052373e+01
1.304842e+02	-2.057454e+01
1.312378e+02	-2.062546e+01
1.319959e+02	-2.067309e+01
1.327583e+02	-2.072370e+01
1.335251e+02	-2.077395e+01
1.342963e+02	-2.082354e+01
1.350720e+02	-2.087254e+01
1.358522e+02	-2.092428e+01
1.366368e+02	-2.097207e+01
1.374260e+02	-2.102324e+01
1.382198e+02	-2.107028e+01
1.390182e+02	-2.112213e+01
1.398211e+02	-2.117036e+01
1.406287e+02	-2.121953e+01
1.414410e+02	-2.126833e+01
1.422579e+02	-2.131784e+01
1.430796e+02	-2.136884e+01
1.439060e+02	-2.141845e+01
1.447372e+02	-2.146771e+01
1.455732e+02	-2.151761e+01
1.464141e+02	-2.156767e+01
1.472597e+02	-2.161791e+01
1.481103e+02	-2.166717e+01
1.489658e+02	-2.171696e+01
1.498262e+02	-2.176669e+01
1.506916e+02	-2.181861e+01
1.515620e+02	-2.186378e+01
1.524374e+02	-2.191663e+01
1.533179e+02	-2.196696e+01
1.542034e+02	-2.201588e+01
1.550941e+02	-2.206532e+01
1.559899e+02	-2.211484e+01
1.568909e+02	-2.216593e+01
1.577971e+02	-2.221346e+01
1.587085e+02	-2.226286e+01
1.596252e+02	-2.231336e+01
1.605472e+02	-2.236386e+01
1.614745e+02	-2.241226e+01
1.624072e+02	-2.246381e+01
1.633453e+02	-2.251316e+01
1.642887e+02	-2.256210e+01
1.652377e+02	-2.261088e+01
1.661921e+02	-2.266234e+01
1.671520e+02	-2.271467e+01
1.681175e+02	-2.276039e+01
1.690885e+02	-2.281152e+01
1.700651e+02	-2.286153e+01
1.710474e+02	-2.291198e+01
1.720354e+02	-2.295918e+01
1.730291e+02	-2.300924e+01
1.740285e+02	-2.306020e+01
1.750337e+02	-2.311063e+01
1.760446e+02	-2.315952e+01
1.770615e+02	-2.320904e+01
1.780842e+02	-2.325937e+01
1.791128e+02	-2.330740e+01
1.801473e+02	-2.335928e+01
1.811878e+02	-2.340819e+01
1.822344e+02	-2.345791e+01
1.832870e+02	-2.350683e+01
1.843456e+02	-2.355903e+01
1.854104e+02	-2.360598e+01
1.864813e+02	-2.365636e+01
1.875584e+02	-2.371045e+01
1.886418e+02	-2.376002e+01
1.897313e+02	-2.380786e+01
1.908272e+02	-2.385587e+01
1.919294e+02	-2.390742e+01
1.930380e+02	-2.395723e+01
1.941530e+02	-2.400686e+01
1.952744e+02	-2.405887e+01
1.964023e+02	-2.410760e+01
1.975367e+02	-2.415831e+01
1.986777e+02	-2.420664e+01
1.998252e+02	-2.425861e+01
2.009794e+02	-2.430684e+01
2.021403e+02	-2.435893e+01
2.033078e+02	-2.440514e+01
2.044821e+02	-2.445574e+01
2.056632e+02	-2.450698e+01
2.068511e+02	-2.455721e+01
2.080459e+02	-2.460751e+01
2.092475e+02	-2.465698e+01
2.104561e+02	-2.470520e+01
2.116717e+02	-2.475350e+01
2.128943e+02	-2.480441e+01
2.141240e+02	-2.485309e+01
2.153608e+02	-2.490564e+01
2.166047e+02	-2.495597e+01
2.178558e+02	-2.500596e+01
2.191141e+02	-2.504962e+01
2.203797e+02	-2.510419e+01
2.216526e+02	-2.515540e+01
2.229329e+02	-2.520424e+01
2.242205e+02	-2.525697e+01
2.255156e+02	-2.530301e+01
2.268182e+02	-2.535069e+01
2.281283e+02	-2.540345e+01
2.294459e+02	-2.545220e+01
2.307712e+02	-2.550362e+01
2.321041e+02	-2.555440e+01
2.334447e+02	-2.560502e+01
2.347931e+02	-2.565288e+01
2.361493e+02	-2.570537e+01
2.375133e+02	-2.575356e+01
2.388851e+02	-2.580280e+01
2.402649e+02	-2.585473e+01
2.416527e+02	-2.589915e+01
2.430484e+02	-2.595118e+01
2.444523e+02	-2.600144e+01
2.458642e+02	-2.605161e+01
2.472843e+02	-2.610251e+01
2.487126e+02	-2.615267e+01
2.501492e+02	-2.620276e+01
2.515940e+02	-2.625501e+01
2.530472e+02	-2.630143e+01
2.545088e+02	-2.635500e+01
2.559789e+02	-2.640416e+01
2.574574e+02	-2.645070e+01
2.589444e+02	-2.649849e+01
2.604401e+02	-2.655309e+01
2.619444e+02	-2.660582e+01
2.634574e+02	-2.665618e+01
2.649791e+02	-2.670296e+01
2.665096e+02	-2.675454e+01
2.680489e+02	-2.680198e+01
2.695972e+02	-2.684858e+01
2.711544e+02	-2.690490e+01
2.727205e+02	-2.695331e+01
2.742958e+02	-2.699732e+01
2.758801e+02	-2.705185e+01
2.774736e+02	-2.709989e+01
2.790762e+02	-2.715612e+01
2.806882e+02	-2.720593e+01
2.823094e+02	-2.725247e+01
2.839400e+02	-2.730115e+01
2.855800e+02	-2.735225e+01
2.872295e+02	-2.740058e+01
2.888886e+02	-2.745247e+01
2.905572e+02	-2.749950e+01
2.922354e+02	-2.754909e+01
2.939234e+02	-2.760604e+01
2.956211e+02	-2.765015e+01
2.973286e+02	-2.769990e+01
2.990459e+02	-2.775082e+01
3.007732e+02	-2.780375e+01
3.025104e+02	-2.785317e+01
3.042577e+02	-2.790210e+01
3.060151e+02	-2.795165e+01
3.077826e+02	-2.800381e+01
3.095604e+02	-2.805236e+01
3.113484e+02	-2.809901e+01
3.131467e+02	-2.815208e+01
3.149554e+02	-2.820367e+01
3.167746e+02	-2.824888e+01
3.186043e+02	-2.830392e+01
3.204445e+02	-2.835160e+01
3.222954e+02	-2.840475e+01
3.241570e+02	-2.845394e+01
3.260293e+02	-2.849774e+01
3.279124e+02	-2.855140e+01
3.298064e+02	-2.860541e+01
3.317114e+02	-2.864986e+01
3.336273e+02	-2.869977e+01
3.355544e+02	-2.875072e+01
3.374925e+02	-2.880491e+01
3.394418e+02	-2.885412e+01
3.414024e+02	-2.890717e+01
3.433744e+02	-2.895409e+01
3.453577e+02	-2.900133e+01
3.473525e+02	-2.905208e+01
3.493588e+02	-2.910531e+01
3.513766e+02	-2.915410e+01
3.534062e+02	-2.920714e+01
3.554474e+02	-2.925485e+01
3.575005e+02	-2.930024e+01
3.595654e+02	-2.935416e+01
3.616422e+02	-2.940338e+01
3.637311e+02	-2.945136e+01
3.658320e+02	-2.950620e+01
3.679450e+02	-2.955839e+01
3.700702e+02	-2.960421e+01
3.722077e+02	-2.965705e+01
3.743576e+02	-2.970234e+01
3.765199e+02	-2.975317e+01
3.786946e+02	-2.980690e+01
3.808820e+02	-2.985492e+01
3.830819e+02	-2.990527e+01
3.852946e+02	-2.995245e+01
3.875200e+02	-3.000675e+01
3.897583e+02	-3.005847e+01
3.920096e+02	-3.010830e+01
3.942738e+02	-3.015963e+01
3.965511e+02	-3.020344e+01
3.988416e+02	-3.025439e+01
4.011452e+02	-3.030386e+01
4.034622e+02	-3.035354e+01
4.057926e+02	-3.040749e+01
4.081365e+02	-3.045524e+01
4.104938e+02	-3.050641e+01
4.128648e+02	-3.055427e+01
4.152495e+02	-3.060382e+01
4.176480e+02	-3.065497e+01
4.200603e+02	-3.070558e+01
4.224866e+02	-3.075724e+01
4.249268e+02	-3.080429e+01
4.273812e+02	-3.085732e+01
4.298497e+02	-3.090830e+01
4.323325e+02	-3.095479e+01
4.348297e+02	-3.100956e+01
4.373412e+02	-3.105542e+01
4.398673e+02	-3.111001e+01
4.424079e+02	-3.116421e+01
4.449633e+02	-3.120590e+01
4.475334e+02	-3.125412e+01
4.501183e+02	-3.130394e+01
4.527182e+02	-3.136051e+01
4.553330e+02	-3.140799e+01
4.579630e+02	-3.145280e+01
4.606082e+02	-3.151535e+01
4.632687e+02	-3.155569e+01
4.659445e+02	-3.160465e+01
4.686358e+02	-3.166332e+01
4.713426e+02	-3.170908e+01
4.740650e+02	-3.175917e+01
4.768032e+02	-3.181153e+01
4.795572e+02	-3.185828e+01
4.823271e+02	-3.191237e+01
4.851130e+02	-3.195987e+01
4.879150e+02	-3.200899e+01
4.907332e+02	-3.206301e+01
4.935676e+02	-3.210698e+01
4.964185e+02	-3.215708e+01
4.992858e+02	-3.221609e+01
5.021696e+02	-3.226645e+01
5.050701e+02	-3.231135e+01
5.079874e+02	-3.235821e+01
5.109215e+02	-3.241731e+01
5.138726e+02	-3.246214e+01
5.168407e+02	-3.250812e+01
5.198259e+02	-3.256280e+01
5.228284e+02	-3.261387e+01
5.258482e+02	-3.265993e+01
5.288855e+02	-3.271818e+01
5.319403e+02	-3.276912e+01
5.350128e+02	-3.281625e+01
5.381030e+02	-3.286364e+01
5.412111e+02	-3.291515e+01
5.443371e+02	-3.296985e+01
5.474812e+02	-3.301163e+01
5.506434e+02	-3.306726e+01
5.538239e+02	-3.311431e+01
5.570228e+02	-3.316576e+01
5.602401e+02	-3.322240e+01
5.634760e+02	-3.326205e+01
5.667306e+02	-3.331692e+01
5.700040e+02	-3.335750e+01
5.732964e+02	-3.341983e+01
5.766077e+02	-3.346683e+01
5.799382e+02	-3.351861e+01
5.832879e+02	-3.357284e+01
5.866569e+02	-3.361306e+01
5.900454e+02	-3.366727e+01
5.934535e+02	-3.371889e+01
5.968813e+02	-3.376382e+01
6.003288e+02	-3.381680e+01
6.037963e+02	-3.386500e+01
6.072838e+02	-3.392375e+01
6.107914e+02	-3.396950e+01
6.143194e+02	-3.402102e+01
6.178676e+02	-3.407026e+01
6.214364e+02	-3.412076e+01
6.250258e+02	-3.417019e+01
6.286359e+02	-3.422209e+01
6.322669e+02	-3.428072e+01
6.359189e+02	-3.431753e+01
6.395919e+02	-3.437464e+01
6.432862e+02	-3.442887e+01
6.470017e+02	-3.447440e+01
6.507388e+02	-3.453101e+01
6.544974e+02	-3.457685e+01
6.582778e+02	-3.462617e+01
6.620800e+02	-3.467592e+01
6.659041e+02	-3.473167e+01
6.697504e+02	-3.477630e+01
6.736188e+02	-3.481933e+01
6.775096e+02	-3.486971e+01
6.814229e+02	-3.492604e+01
6.853587e+02	-3.497667e+01
6.893173e+02	-3.502623e+01
6.932988e+02	-3.508119e+01
6.973033e+02	-3.512801e+01
7.013309e+02	-3.518520e+01
