Frequency(Hz)	Magnitude(dB)
1.000000e+01	-1.838817e+00
1.005776e+01	-1.855929e+00
1.011585e+01	-1.873692e+00
1.017428e+01	-1.891281e+00
1.023305e+01	-1.909200e+00
1.029215e+01	-1.926775e+00
1.035160e+01	-1.944843e+00
1.041139e+01	-1.963089e+00
1.047153e+01	-1.981208e+00
1.053201e+01	-1.999596e+00
1.059284e+01	-2.018160e+00
1.065403e+01	-2.037023e+00
1.071556e+01	-2.055607e+00
1.077746e+01	-2.074399e+00
1.083971e+01	-2.093748e+00
1.090232e+01	-2.112897e+00
1.096529e+01	-2.132208e+00
1.102862e+01	-2.151842e+00
1.109232e+01	-2.171257e+00
1.115639e+01	-2.191043e+00
1.122083e+01	-2.210925e+00
1.128564e+01	-2.231054e+00
1.135083e+01	-2.251101e+00
1.141639e+01	-2.271246e+00
1.148233e+01	-2.291795e+00
1.154865e+01	-2.312340e+00
1.161536e+01	-2.333219e+00
1.168245e+01	-2.353950e+00
1.174992e+01	-2.374922e+00
1.181779e+01	-2.396198e+00
1.188605e+01	-2.417280e+00
1.195470e+01	-2.439048e+00
1.202375e+01	-2.460419e+00
1.209320e+01	-2.482150e+00
1.216305e+01	-2.503996e+00
1.223330e+01	-2.526005e+00
1.230396e+01	-2.548062e+00
1.237503e+01	-2.570399e+00
1.244651e+01	-2.592730e+00
1.251840e+01	-2.615345e+00
1.259070e+01	-2.638080e+00
1.266343e+01	-2.661011e+00
1.273657e+01	-2.683834e+00
1.281014e+01	-2.706838e+00
1.288413e+01	-2.730358e+00
1.295855e+01	-2.753811e+00
1.303339e+01	-2.777392e+00
1.310867e+01	-2.800918e+00
1.318439e+01	-2.824900e+00
1.326054e+01	-2.849057e+00
1.333713e+01	-2.872995e+00
1.341417e+01	-2.897129e+00
1.349165e+01	-2.921713e+00
1.356958e+01	-2.946270e+00
1.364795e+01	-2.970956e+00
1.372678e+01	-2.995841e+00
1.380607e+01	-3.020597e+00
1.388581e+01	-3.046117e+00
1.396602e+01	-3.071567e+00
1.404668e+01	-3.096669e+00
1.412782e+01	-3.122143e+00
1.420942e+01	-3.148154e+00
1.429149e+01	-3.173731e+00
1.437404e+01	-3.199899e+00
1.445706e+01	-3.225929e+00
1.454057e+01	-3.252383e+00
1.462455e+01	-3.278759e+00
1.470902e+01	-3.305130e+00
1.479398e+01	-3.332144e+00
1.487943e+01	-3.358843e+00
1.496537e+01	-3.385893e+00
1.505181e+01	-3.413090e+00
1.513875e+01	-3.440634e+00
1.522619e+01	-3.467961e+00
1.531414e+01	-3.495223e+00
1.540259e+01	-3.523076e+00
1.549156e+01	-3.550946e+00
1.558103e+01	-3.579198e+00
1.567103e+01	-3.607219e+00
1.576155e+01	-3.635541e+00
1.585258e+01	-3.663774e+00
1.594415e+01	-3.692324e+00
1.603624e+01	-3.721085e+00
1.612886e+01	-3.750029e+00
1.622202e+01	-3.778993e+00
1.631572e+01	-3.808122e+00
1.640996e+01	-3.837269e+00
1.650474e+01	-3.866973e+00
1.660008e+01	-3.896645e+00
1.669596e+01	-3.926361e+00
1.679239e+01	-3.956111e+00
1.688938e+01	-3.986128e+00
1.698694e+01	-4.015916e+00
1.708505e+01	-4.046398e+00
1.718373e+01	-4.076676e+00
1.728299e+01	-4.107188e+00
1.738281e+01	-4.138075e+00
1.748322e+01	-4.168905e+00
1.758420e+01	-4.199766e+00
1.768576e+01	-4.230835e+00
1.778792e+01	-4.262120e+00
1.789066e+01	-4.293426e+00
1.799399e+01	-4.324834e+00
1.809793e+01	-4.356302e+00
1.820246e+01	-4.387845e+00
1.830760e+01	-4.419987e+00
1.841334e+01	-4.451930e+00
1.851969e+01	-4.484082e+00
1.862666e+01	-4.516290e+00
1.873425e+01	-4.548874e+00
1.884246e+01	-4.581652e+00
1.895129e+01	-4.614047e+00
1.906075e+01	-4.646877e+00
1.917085e+01	-4.679818e+00
1.928158e+01	-4.712905e+00
1.939295e+01	-4.746040e+00
1.950496e+01	-4.779372e+00
1.961762e+01	-4.812789e+00
1.973093e+01	-4.846228e+00
1.984490e+01	-4.879857e+00
1.995952e+01	-4.913940e+00
2.007480e+01	-4.947743e+00
2.019076e+01	-4.982223e+00
2.030738e+01	-5.016203e+00
2.042467e+01	-5.050504e+00
2.054264e+01	-5.085137e+00
2.066130e+01	-5.119711e+00
2.078064e+01	-5.154072e+00
2.090066e+01	-5.188782e+00
2.102139e+01	-5.223829e+00
2.114280e+01	-5.259144e+00
2.126492e+01	-5.293917e+00
2.138775e+01	-5.329170e+00
2.151128e+01	-5.365204e+00
2.163553e+01	-5.400462e+00
2.176050e+01	-5.436169e+00
2.188619e+01	-5.471994e+00
2.201260e+01	-5.507874e+00
2.213974e+01	-5.543830e+00
2.226762e+01	-5.580040e+00
2.239624e+01	-5.615845e+00
2.252560e+01	-5.651944e+00
2.265571e+01	-5.688765e+00
2.278656e+01	-5.725400e+00
2.291818e+01	-5.762415e+00
2.305055e+01	-5.798815e+00
2.318369e+01	-5.835900e+00
2.331760e+01	-5.872860e+00
2.345228e+01	-5.910104e+00
2.358774e+01	-5.947429e+00
2.372398e+01	-5.984667e+00
2.386101e+01	-6.022434e+00
2.399883e+01	-6.060174e+00
2.413745e+01	-6.097875e+00
2.427686e+01	-6.135445e+00
2.441709e+01	-6.173128e+00
2.455812e+01	-6.211264e+00
2.469997e+01	-6.249255e+00
2.484263e+01	-6.287482e+00
2.498612e+01	-6.326183e+00
2.513044e+01	-6.364121e+00
2.527559e+01	-6.402656e+00
2.542158e+01	-6.441299e+00
2.556842e+01	-6.480034e+00
2.571610e+01	-6.518933e+00
2.586463e+01	-6.557699e+00
2.601403e+01	-6.596518e+00
2.616428e+01	-6.635698e+00
2.631541e+01	-6.675061e+00
2.646740e+01	-6.714439e+00
2.662028e+01	-6.753984e+00
2.677404e+01	-6.793691e+00
2.692868e+01	-6.833235e+00
2.708422e+01	-6.873061e+00
2.724066e+01	-6.912632e+00
2.739800e+01	-6.952590e+00
2.755625e+01	-6.992803e+00
2.771541e+01	-7.032368e+00
2.787550e+01	-7.072502e+00
2.803650e+01	-7.112877e+00
2.819844e+01	-7.153492e+00
2.836131e+01	-7.193863e+00
2.852513e+01	-7.234170e+00
2.868989e+01	-7.274855e+00
2.885560e+01	-7.315308e+00
2.902227e+01	-7.356499e+00
2.918990e+01	-7.397151e+00
2.935850e+01	-7.438167e+00
2.952807e+01	-7.479221e+00
2.969863e+01	-7.520542e+00
2.987016e+01	-7.561430e+00
3.004269e+01	-7.602944e+00
3.021622e+01	-7.644400e+00
3.039075e+01	-7.685703e+00
3.056628e+01	-7.726945e+00
3.074283e+01	-7.768873e+00
3.092040e+01	-7.810785e+00
3.109900e+01	-7.852112e+00
3.127862e+01	-7.894067e+00
3.145929e+01	-7.935975e+00
3.164099e+01	-7.977880e+00
3.182375e+01	-8.020440e+00
3.200756e+01	-8.062287e+00
3.219244e+01	-8.104669e+00
3.237838e+01	-8.147369e+00
3.256540e+01	-8.188914e+00
3.275349e+01	-8.232348e+00
3.294268e+01	-8.274258e+00
3.313295e+01	-8.317168e+00
3.332433e+01	-8.359712e+00
3.351681e+01	-8.402970e+00
3.371040e+01	-8.445576e+00
3.390511e+01	-8.488348e+00
3.410094e+01	-8.531502e+00
3.429791e+01	-8.573931e+00
3.449601e+01	-8.616976e+00
3.469526e+01	-8.661013e+00
3.489566e+01	-8.703985e+00
3.509721e+01	-8.747247e+00
3.529993e+01	-8.790378e+00
3.550382e+01	-8.834265e+00
3.570889e+01	-8.877702e+00
3.591515e+01	-8.921012e+00
3.612259e+01	-8.964481e+00
3.633123e+01	-9.008720e+00
3.654108e+01	-9.052018e+00
3.675214e+01	-9.096284e+00
3.696442e+01	-9.140033e+00
3.717792e+01	-9.183440e+00
3.739266e+01	-9.227934e+00
3.760864e+01	-9.271684e+00
3.782587e+01	-9.315982e+00
3.804435e+01	-9.360235e+00
3.826409e+01	-9.404697e+00
3.848510e+01	-9.449047e+00
3.870739e+01	-9.493269e+00
3.893096e+01	-9.537921e+00
3.915583e+01	-9.582328e+00
3.938199e+01	-9.626700e+00
3.960946e+01	-9.671255e+00
3.983824e+01	-9.715554e+00
4.006834e+01	-9.760621e+00
4.029978e+01	-9.805643e+00
4.053255e+01	-9.850916e+00
4.076666e+01	-9.894556e+00
4.100213e+01	-9.940149e+00
4.123896e+01	-9.985191e+00
4.147715e+01	-1.003012e+01
4.171672e+01	-1.007487e+01
4.195767e+01	-1.012037e+01
4.220002e+01	-1.016553e+01
4.244377e+01	-1.021139e+01
4.268892e+01	-1.025574e+01
4.293549e+01	-1.030124e+01
4.318348e+01	-1.034688e+01
4.343291e+01	-1.039239e+01
4.368377e+01	-1.043773e+01
4.393609e+01	-1.048359e+01
4.418986e+01	-1.052870e+01
4.444510e+01	-1.057471e+01
4.470182e+01	-1.062070e+01
4.496001e+01	-1.066585e+01
4.521970e+01	-1.071114e+01
4.548089e+01	-1.075725e+01
4.574358e+01	-1.080301e+01
4.600779e+01	-1.084960e+01
4.627353e+01	-1.089497e+01
4.654081e+01	-1.094064e+01
4.680963e+01	-1.098643e+01
4.708000e+01	-1.103296e+01
4.735193e+01	-1.107897e+01
4.762543e+01	-1.112513e+01
4.790051e+01	-1.117217e+01
4.817719e+01	-1.121784e+01
4.845545e+01	-1.126330e+01
4.873533e+01	-1.131009e+01
4.901682e+01	-1.135691e+01
4.929994e+01	-1.140346e+01
4.958470e+01	-1.144919e+01
4.987110e+01	-1.149566e+01
5.015915e+01	-1.154219e+01
5.044887e+01	-1.158909e+01
5.074026e+01	-1.163618e+01
5.103333e+01	-1.168245e+01
5.132810e+01	-1.172880e+01
5.162457e+01	-1.177544e+01
5.192275e+01	-1.182220e+01
5.222265e+01	-1.186903e+01
5.252429e+01	-1.191563e+01
5.282767e+01	-1.196222e+01
5.313280e+01	-1.200963e+01
5.343969e+01	-1.205673e+01
5.374836e+01	-1.210285e+01
5.405880e+01	-1.214983e+01
5.437105e+01	-1.219705e+01
5.468509e+01	-1.224447e+01
5.500095e+01	-1.229196e+01
5.531863e+01	-1.233766e+01
5.563815e+01	-1.238571e+01
5.595951e+01	-1.243312e+01
5.628273e+01	-1.247996e+01
5.660782e+01	-1.252739e+01
5.693479e+01	-1.257416e+01
5.726364e+01	-1.262116e+01
5.759439e+01	-1.266878e+01
5.792705e+01	-1.271669e+01
5.826164e+01	-1.276405e+01
5.859815e+01	-1.281101e+01
5.893662e+01	-1.285822e+01
5.927703e+01	-1.290587e+01
5.961941e+01	-1.295394e+01
5.996377e+01	-1.300121e+01
6.031012e+01	-1.304851e+01
6.065847e+01	-1.309577e+01
6.100883e+01	-1.314360e+01
6.136121e+01	-1.319197e+01
6.171563e+01	-1.323869e+01
6.207210e+01	-1.328671e+01
6.243063e+01	-1.333446e+01
6.279122e+01	-1.338218e+01
6.315390e+01	-1.342977e+01
6.351868e+01	-1.347698e+01
6.388556e+01	-1.352569e+01
6.425456e+01	-1.357265e+01
6.462569e+01	-1.362058e+01
6.499897e+01	-1.366833e+01
6.537440e+01	-1.371676e+01
6.575200e+01	-1.376432e+01
6.613178e+01	-1.381266e+01
6.651375e+01	-1.385969e+01
6.689793e+01	-1.390877e+01
6.728433e+01	-1.395593e+01
6.767297e+01	-1.400429e+01
6.806384e+01	-1.405242e+01
6.845698e+01	-1.410088e+01
6.885238e+01	-1.414856e+01
6.925007e+01	-1.419714e+01
6.965005e+01	-1.424456e+01
7.005235e+01	-1.429278e+01
7.045697e+01	-1.434210e+01
7.086393e+01	-1.438889e+01
7.127323e+01	-1.443754e+01
7.168490e+01	-1.448663e+01
7.209895e+01	-1.453424e+01
7.251539e+01	-1.458158e+01
7.293424e+01	-1.463063e+01
7.335551e+01	-1.467966e+01
7.377920e+01	-1.472776e+01
7.420535e+01	-1.477567e+01
7.463396e+01	-1.482490e+01
7.506504e+01	-1.487234e+01
7.549861e+01	-1.492074e+01
7.593469e+01	-1.496954e+01
7.637328e+01	-1.501764e+01
7.681441e+01	-1.506561e+01
7.725809e+01	-1.511492e+01
7.770433e+01	-1.516286e+01
7.815315e+01	-1.521153e+01
7.860456e+01	-1.525928e+01
7.905857e+01	-1.530861e+01
7.951521e+01	-1.535723e+01
7.997449e+01	-1.540534e+01
8.043642e+01	-1.545389e+01
8.090102e+01	-1.550304e+01
8.136830e+01	-1.555110e+01
8.183828e+01	-1.559999e+01
8.231097e+01	-1.564932e+01
8.278640e+01	-1.569746e+01
8.326457e+01	-1.574589e+01
8.374550e+01	-1.579534e+01
8.422921e+01	-1.584430e+01
8.471572e+01	-1.589281e+01
8.520503e+01	-1.594080e+01
8.569717e+01	-1.599044e+01
8.619215e+01	-1.603938e+01
8.669000e+01	-1.608655e+01
8.719071e+01	-1.613618e+01
8.769432e+01	-1.618502e+01
8.820084e+01	-1.623523e+01
8.871029e+01	-1.628348e+01
8.922267e+01	-1.633223e+01
8.973802e+01	-1.638133e+01
9.025634e+01	-1.642924e+01
9.077766e+01	-1.647777e+01
9.130199e+01	-1.652677e+01
9.182935e+01	-1.657711e+01
9.235975e+01	-1.662528e+01
9.289321e+01	-1.667395e+01
9.342976e+01	-1.672216e+01
9.396941e+01	-1.677272e+01
9.451217e+01	-1.682164e+01
9.505807e+01	-1.687044e+01
9.560712e+01	-1.691962e+01
9.615934e+01	-1.696770e+01
9.671476e+01	-1.701766e+01
9.727338e+01	-1.706622e+01
9.783522e+01	-1.711412e+01
9.840032e+01	-1.716436e+01
9.896867e+01	-1.721435e+01
9.954031e+01	-1.726239e+01
1.001153e+02	-1.731128e+01
1.006935e+02	-1.736190e+01
1.012751e+02	-1.740869e+01
1.018601e+02	-1.745868e+01
1.024484e+02	-1.750784e+01
1.030402e+02	-1.755734e+01
1.036353e+02	-1.760686e+01
1.042339e+02	-1.765420e+01
1.048360e+02	-1.770366e+01
1.054415e+02	-1.775251e+01
1.060505e+02	-1.780381e+01
1.066631e+02	-1.785322e+01
1.072791e+02	-1.790170e+01
1.078988e+02	-1.795047e+01
1.085220e+02	-1.800037e+01
1.091488e+02	-1.804917e+01
1.097793e+02	-1.809729e+01
1.104133e+02	-1.814667e+01
1.110511e+02	-1.819585e+01
1.116925e+02	-1.824669e+01
1.123376e+02	-1.829475e+01
1.129865e+02	-1.834667e+01
1.136391e+02	-1.839418e+01
1.142955e+02	-1.844383e+01
1.149556e+02	-1.849291e+01
1.156196e+02	-1.854224e+01
1.162874e+02	-1.859202e+01
1.169591e+02	-1.864217e+01
1.176347e+02	-1.868989e+01
1.183141e+02	-1.874035e+01
1.189975e+02	-1.878854e+01
1.196848e+02	-1.883793e+01
1.203761e+02	-1.888754e+01
1.210714e+02	-1.893685e+01
1.217707e+02	-1.898713e+01
1.224740e+02	-1.903584e+01
1.231814e+02	-1.908599e+01
1.238929e+02	-1.913504e+01
1.246085e+02	-1.918331e+01
1.253283e+02	-1.923430e+01
1.260522e+02	-1.928255e+01
1.267802e+02	-1.933086e+01
1.275125e+02	-1.938250e+01
1.282490e+02	-1.943242e+01
1.289898e+02	-1.948116e+01
1.297348e+02	-1.952902e+01
1.304842e+02	-1.957929e+01
1.312378e+02	-1.963010e+01
1.319959e+02	-1.967763e+01
1.327583e+02	-1.972954e+01
1.335251e+02	-1.977953e+01
1.342963e+02	-1.982857e+01
1.350720e+02	-1.987864e+01
1.358522e+02	-1.992704e+01
1.366368e+02	-1.997591e+01
1.374260e+02	-2.002600e+01
1.382198e+02	-2.007439e+01
1.390182e+02	-2.012533e+01
1.398211e+02	-2.017312e+01
1.406287e+02	-2.022314e+01
1.414410e+02	-2.027273e+01
1.422579e+02	-2.032153e+01
1.430796e+02	-2.037485e+01
1.439060e+02	-2.042271e+01
1.447372e+02	-2.047120e+01
1.455732e+02	-2.052124e+01
1.464141e+02	-2.057218e+01
1.472597e+02	-2.062198e+01
1.481103e+02	-2.067044e+01
1.489658e+02	-2.071980e+01
1.498262e+02	-2.077037e+01
1.506916e+02	-2.081803e+01
1.515620e+02	-2.087025e+01
1.524374e+02	-2.091986e+01
1.533179e+02	-2.096853e+01
1.542034e+02	-2.101807e+01
1.550941e+02	-2.106580e+01
1.559899e+02	-2.111792e+01
1.568909e+02	-2.116660e+01
1.577971e+02	-2.121660e+01
1.587085e+02	-2.126562e+01
1.596252e+02	-2.131570e+01
1.605472e+02	-2.136504e+01
1.614745e+02	-2.141310e+01
1.624072e+02	-2.146492e+01
1.633453e+02	-2.151213e+01
1.642887e+02	-2.156371e+01
1.652377e+02	-2.161278e+01
1.661921e+02	-2.166347e+01
1.671520e+02	-2.171247e+01
1.681175e+02	-2.176194e+01
1.690885e+02	-2.181495e+01
1.700651e+02	-2.186332e+01
1.710474e+02	-2.191277e+01
1.720354e+02	-2.196268e+01
1.730291e+02	-2.200951e+01
1.740285e+02	-2.206264e+01
1.750337e+02	-2.211070e+01
1.760446e+02	-2.216047e+01
1.770615e+02	-2.220943e+01
1.780842e+02	-2.225960e+01
1.791128e+02	-2.231100e+01
1.801473e+02	-2.235751e+01
1.811878e+02	-2.240993e+01
1.822344e+02	-2.245989e+01
1.832870e+02	-2.251002e+01
1.843456e+02	-2.255662e+01
1.854104e+02	-2.260992e+01
1.864813e+02	-2.265862e+01
1.875584e+02	-2.270778e+01
1.886418e+02	-2.275683e+01
1.897313e+02	-2.280833e+01
1.908272e+02	-2.285765e+01
1.919294e+02	-2.290742e+01
1.930380e+02	-2.295760e+01
1.941530e+02	-2.300895e+01
1.952744e+02	-2.305376e+01
1.964023e+02	-2.310628e+01
1.975367e+02	-2.315573e+01
1.986777e+02	-2.320837e+01
1.998252e+02	-2.325567e+01
2.009794e+02	-2.330416e+01
2.021403e+02	-2.335369e+01
2.033078e+02	-2.340657e+01
2.044821e+02	-2.345642e+01
2.056632e+02	-2.350494e+01
2.068511e+02	-2.355381e+01
2.080459e+02	-2.360396e+01
2.092475e+02	-2.365460e+01
2.104561e+02	-2.370429e+01
2.116717e+02	-2.375556e+01
2.128943e+02	-2.380499e+01
2.141240e+02	-2.385603e+01
2.153608e+02	-2.390391e+01
2.166047e+02	-2.395402e+01
2.178558e+02	-2.400349e+01
2.191141e+02	-2.405289e+01
2.203797e+02	-2.410478e+01
2.216526e+02	-2.415501e+01
2.229329e+02	-2.420194e+01
2.242205e+02	-2.424959e+01
2.255156e+02	-2.430348e+01
2.268182e+02	-2.434813e+01
2.281283e+02	-2.440311e+01
2.294459e+02	-2.445154e+01
2.307712e+02	-2.450335e+01
2.321041e+02	-2.455256e+01
2.334447e+02	-2.460040e+01
2.347931e+02	-2.465320e+01
2.361493e+02	-2.470036e+01
2.375133e+02	-2.475303e+01
2.388851e+02	-2.480418e+01
2.402649e+02	-2.485356e+01
2.416527e+02	-2.489964e+01
2.430484e+02	-2.494942e+01
2.444523e+02	-2.500178e+01
2.458642e+02	-2.504875e+01
2.472843e+02	-2.510068e+01
2.487126e+02	-2.515025e+01
2.501492e+02	-2.520063e+01
2.515940e+02	-2.524889e+01
2.530472e+02	-2.530035e+01
2.545088e+02	-2.535208e+01
2.559789e+02	-2.540107e+01
2.574574e+02	-2.544999e+01
2.589444e+02	-2.549894e+01
2.604401e+02	-2.555165e+01
2.619444e+02	-2.560042e+01
2.634574e+02	-2.565086e+01
2.649791e+02	-2.570306e+01
2.665096e+02	-2.574972e+01
2.680489e+02	-2.579990e+01
2.695972e+02	-2.584907e+01
2.711544e+02	-2.589626e+01
2.727205e+02	-2.594935e+01
2.742958e+02	-2.599991e+01
2.758801e+02	-2.604704e+01
2.774736e+02	-2.609729e+01
2.790762e+02	-2.615148e+01
2.806882e+02	-2.619724e+01
2.823094e+02	-2.624397e+01
2.839400e+02	-2.629872e+01
2.855800e+02	-2.635123e+01
2.872295e+02	-2.639570e+01
2.888886e+02	-2.645038e+01
2.905572e+02	-2.650128e+01
2.922354e+02	-2.654948e+01
2.939234e+02	-2.659997e+01
2.956211e+02	-2.664881e+01
2.973286e+02	-2.670073e+01
2.990459e+02	-2.675161e+01
3.007732e+02	-2.680149e+01
3.025104e+02	-2.684648e+01
3.042577e+02	-2.690026e+01
3.060151e+02	-2.694631e+01
3.077826e+02	-2.699794e+01
3.095604e+02	-2.704994e+01
3.113484e+02	-2.709703e+01
3.131467e+02	-2.714909e+01
3.149554e+02	-2.719816e+01
3.167746e+02	-2.724802e+01
3.186043e+02	-2.729931e+01
3.204445e+02	-2.734619e+01
3.222954e+02	-2.740010e+01
3.241570e+02	-2.745208e+01
3.260293e+02	-2.749876e+01
3.279124e+02	-2.754762e+01
3.298064e+02	-2.759669e+01
3.317114e+02	-2.765265e+01
3.336273e+02	-2.769985e+01
3.355544e+02	-2.774964e+01
3.374925e+02	-2.779589e+01
3.394418e+02	-2.784742e+01
3.414024e+02	-2.789859e+01
3.433744e+02	-2.795093e+01
3.453577e+02	-2.800176e+01
3.473525e+02	-2.804983e+01
3.493588e+02	-2.810145e+01
3.513766e+02	-2.815052e+01
3.534062e+02	-2.820378e+01
3.554474e+02	-2.824908e+01
3.575005e+02	-2.829737e+01
3.595654e+02	-2.835056e+01
3.616422e+02	-2.839618e+01
3.637311e+02	-2.845062e+01
3.658320e+02	-2.850086e+01
3.679450e+02	-2.854929e+01
3.700702e+02	-2.859975e+01
3.722077e+02	-2.864579e+01
3.743576e+02	-2.869980e+01
3.765199e+02	-2.875077e+01
3.786946e+02	-2.880123e+01
3.808820e+02	-2.884797e+01
3.830819e+02	-2.889915e+01
3.852946e+02	-2.894933e+01
3.875200e+02	-2.899939e+01
3.897583e+02	-2.905050e+01
3.920096e+02	-2.909826e+01
3.942738e+02	-2.915076e+01
3.965511e+02	-2.920087e+01
3.988416e+02	-2.924551e+01
4.011452e+02	-2.930402e+01
4.034622e+02	-2.934813e+01
4.057926e+02	-2.939456e+01
4.081365e+02	-2.945696e+01
4.104938e+02	-2.950216e+01
4.128648e+02	-2.954426e+01
4.152495e+02	-2.960266e+01
4.176480e+02	-2.965108e+01
4.200603e+02	-2.970375e+01
4.224866e+02	-2.975085e+01
4.249268e+02	-2.979922e+01
4.273812e+02	-2.985429e+01
4.298497e+02	-2.990288e+01
4.323325e+02	-2.995295e+01
4.348297e+02	-3.000233e+01
4.373412e+02	-3.004842e+01
4.398673e+02	-3.010766e+01
4.424079e+02	-3.015171e+01
4.449633e+02	-3.020034e+01
4.475334e+02	-3.025566e+01
4.501183e+02	-3.030041e+01
4.527182e+02	-3.035168e+01
4.553330e+02	-3.040282e+01
4.579630e+02	-3.045051e+01
4.606082e+02	-3.050625e+01
4.632687e+02	-3.055622e+01
4.659445e+02	-3.059973e+01
4.686358e+02	-3.065451e+01
4.713426e+02	-3.070775e+01
4.740650e+02	-3.075384e+01
4.768032e+02	-3.080714e+01
4.795572e+02	-3.084917e+01
4.823271e+02	-3.090705e+01
4.851130e+02	-3.095432e+01
4.879150e+02	-3.100326e+01
4.907332e+02	-3.105776e+01
4.935676e+02	-3.110306e+01
4.964185e+02	-3.115603e+01
4.992858e+02	-3.120363e+01
5.021696e+02	-3.125540e+01
5.050701e+02	-3.130929e+01
5.079874e+02	-3.135847e+01
5.109215e+02	-3.140607e+01
5.138726e+02	-3.145107e+01
5.168407e+02	-3.150690e+01
5.198259e+02	-3.155565e+01
5.228284e+02	-3.160775e+01
5.258482e+02	-3.165373e+01
5.288855e+02	-3.170192e+01
5.319403e+02	-3.175958e+01
5.350128e+02	-3.180449e+01
5.381030e+02	-3.184828e+01
5.412111e+02	-3.190856e+01
5.443371e+02	-3.195791e+01
5.474812e+02	-3.200803e+01
5.506434e+02	-3.206179e+01
5.538239e+02	-3.211173e+01
5.570228e+02	-3.216073e+01
5.602401e+02	-3.220824e+01
5.634760e+02	-3.225528e+01
5.667306e+02	-3.231032e+01
5.700040e+02	-3.235502e+01
5.732964e+02	-3.240650e+01
5.766077e+02	-3.246685e+01
5.799382e+02	-3.251152e+01
5.832879e+02	-3.255915e+01
5.866569e+02	-3.261604e+01
5.900454e+02	-3.265664e+01
5.934535e+02	-3.271754e+01
5.968813e+02	-3.277158e+01
6.003288e+02	-3.280985e+01
6.037963e+02	-3.286439e+01
6.072838e+02	-3.291497e+01
6.107914e+02	-3.295934e+01
6.143194e+02	-3.301329e+01
6.178676e+02	-3.306208e+01
6.214364e+02	-3.311818e+01
6.250258e+02	-3.316517e+01
6.286359e+02	-3.321634e+01
6.322669e+02	-3.326182e+01
6.359189e+02	-3.332015e+01
6.395919e+02	-3.336403e+01
6.432862e+02	-3.342472e+01
6.470017e+02	-3.347189e+01
6.507388e+02	-3.351876e+01
6.544974e+02	-3.357001e+01
6.582778e+02	-3.362399e+01
6.620800e+02	-3.366436e+01
6.659041e+02	-3.371356e+01
6.697504e+02	-3.376376e+01
6.736188e+02	-3.381912e+01
6.775096e+02	-3.386833e+01
6.814229e+02	-3.391899e+01
6.853587e+02	-3.396579e+01
6.893173e+02	-3.401396e+01
6.932988e+02	-3.407225e+01
6.973033e+02	-3.411379e+01
7.013309e+02	-3.416324e+01
