Frequency(Hz)	Magnitude(dB)
1.000000e+01	-1.713042e-05
1.005776e+01	-1.732888e-05
1.011585e+01	-1.752964e-05
1.017428e+01	-1.773272e-05
1.023305e+01	-1.793816e-05
1.029215e+01	-1.814598e-05
1.035160e+01	-1.835620e-05
1.041139e+01	-1.856886e-05
1.047153e+01	-1.878399e-05
1.053201e+01	-1.900161e-05
1.059284e+01	-1.922174e-05
1.065403e+01	-1.944443e-05
1.071556e+01	-1.966970e-05
1.077746e+01	-1.989758e-05
1.083971e+01	-2.012810e-05
1.090232e+01	-2.036129e-05
1.096529e+01	-2.059718e-05
1.102862e+01	-2.083580e-05
1.109232e+01	-2.107719e-05
1.115639e+01	-2.132138e-05
1.122083e+01	-2.156839e-05
1.128564e+01	-2.181826e-05
1.135083e+01	-2.207103e-05
1.141639e+01	-2.232673e-05
1.148233e+01	-2.258539e-05
1.154865e+01	-2.284705e-05
1.161536e+01	-2.311174e-05
1.168245e+01	-2.337949e-05
1.174992e+01	-2.365035e-05
1.181779e+01	-2.392435e-05
1.188605e+01	-2.420152e-05
1.195470e+01	-2.448190e-05
1.202375e+01	-2.476553e-05
1.209320e+01	-2.505244e-05
1.216305e+01	-2.534268e-05
1.223330e+01	-2.563628e-05
1.230396e+01	-2.593328e-05
1.237503e+01	-2.623373e-05
1.244651e+01	-2.653765e-05
1.251840e+01	-2.684510e-05
1.259070e+01	-2.715610e-05
1.266343e+01	-2.747071e-05
1.273657e+01	-2.778897e-05
1.281014e+01	-2.811091e-05
1.288413e+01	-2.843658e-05
1.295855e+01	-2.876603e-05
1.303339e+01	-2.909929e-05
1.310867e+01	-2.943641e-05
1.318439e+01	-2.977744e-05
1.326054e+01	-3.012242e-05
1.333713e+01	-3.047139e-05
1.341417e+01	-3.082441e-05
1.349165e+01	-3.118152e-05
1.356958e+01	-3.154276e-05
1.364795e+01	-3.190819e-05
1.372678e+01	-3.227786e-05
1.380607e+01	-3.265180e-05
1.388581e+01	-3.303008e-05
1.396602e+01	-3.341275e-05
1.404668e+01	-3.379984e-05
1.412782e+01	-3.419142e-05
1.420942e+01	-3.458753e-05
1.429149e+01	-3.498824e-05
1.437404e+01	-3.539359e-05
1.445706e+01	-3.580363e-05
1.454057e+01	-3.621842e-05
1.462455e+01	-3.663802e-05
1.470902e+01	-3.706248e-05
1.479398e+01	-3.749186e-05
1.487943e+01	-3.792621e-05
1.496537e+01	-3.836559e-05
1.505181e+01	-3.881007e-05
1.513875e+01	-3.925969e-05
1.522619e+01	-3.971452e-05
1.531414e+01	-4.017463e-05
1.540259e+01	-4.064006e-05
1.549156e+01	-4.111088e-05
1.558103e+01	-4.158716e-05
1.567103e+01	-4.206896e-05
1.576155e+01	-4.255634e-05
1.585258e+01	-4.304936e-05
1.594415e+01	-4.354810e-05
1.603624e+01	-4.405261e-05
1.612886e+01	-4.456297e-05
1.622202e+01	-4.507924e-05
1.631572e+01	-4.560149e-05
1.640996e+01	-4.612980e-05
1.650474e+01	-4.666422e-05
1.660008e+01	-4.720484e-05
1.669596e+01	-4.775172e-05
1.679239e+01	-4.830493e-05
1.688938e+01	-4.886455e-05
1.698694e+01	-4.943066e-05
1.708505e+01	-5.000332e-05
1.718373e+01	-5.058262e-05
1.728299e+01	-5.116863e-05
1.738281e+01	-5.176143e-05
1.748322e+01	-5.236110e-05
1.758420e+01	-5.296771e-05
1.768576e+01	-5.358136e-05
1.778792e+01	-5.420211e-05
1.789066e+01	-5.483005e-05
1.799399e+01	-5.546527e-05
1.809793e+01	-5.610784e-05
1.820246e+01	-5.675786e-05
1.830760e+01	-5.741542e-05
1.841334e+01	-5.808058e-05
1.851969e+01	-5.875346e-05
1.862666e+01	-5.943413e-05
1.873425e+01	-6.012269e-05
1.884246e+01	-6.081922e-05
1.895129e+01	-6.152382e-05
1.906075e+01	-6.223659e-05
1.917085e+01	-6.295761e-05
1.928158e+01	-6.368699e-05
1.939295e+01	-6.442481e-05
1.950496e+01	-6.517119e-05
1.961762e+01	-6.592621e-05
1.973093e+01	-6.668998e-05
1.984490e+01	-6.746259e-05
1.995952e+01	-6.824416e-05
2.007480e+01	-6.903478e-05
2.019076e+01	-6.983456e-05
2.030738e+01	-7.064361e-05
2.042467e+01	-7.146203e-05
2.054264e+01	-7.228993e-05
2.066130e+01	-7.312742e-05
2.078064e+01	-7.397461e-05
2.090066e+01	-7.483162e-05
2.102139e+01	-7.569856e-05
2.114280e+01	-7.657554e-05
2.126492e+01	-7.746268e-05
2.138775e+01	-7.836010e-05
2.151128e+01	-7.926792e-05
2.163553e+01	-8.018625e-05
2.176050e+01	-8.111522e-05
2.188619e+01	-8.205495e-05
2.201260e+01	-8.300558e-05
2.213974e+01	-8.396721e-05
2.226762e+01	-8.493998e-05
2.239624e+01	-8.592403e-05
2.252560e+01	-8.691947e-05
2.265571e+01	-8.792645e-05
2.278656e+01	-8.894509e-05
2.291818e+01	-8.997553e-05
2.305055e+01	-9.101791e-05
2.318369e+01	-9.207237e-05
2.331760e+01	-9.313904e-05
2.345228e+01	-9.421807e-05
2.358774e+01	-9.530960e-05
2.372398e+01	-9.641378e-05
2.386101e+01	-9.753075e-05
2.399883e+01	-9.866066e-05
2.413745e+01	-9.980365e-05
2.427686e+01	-1.009599e-04
2.441709e+01	-1.021295e-04
2.455812e+01	-1.033127e-04
2.469997e+01	-1.045096e-04
2.484263e+01	-1.057204e-04
2.498612e+01	-1.069451e-04
2.513044e+01	-1.081841e-04
2.527559e+01	-1.094374e-04
2.542158e+01	-1.107053e-04
2.556842e+01	-1.119878e-04
2.571610e+01	-1.132852e-04
2.586463e+01	-1.145976e-04
2.601403e+01	-1.159253e-04
2.616428e+01	-1.172683e-04
2.631541e+01	-1.186269e-04
2.646740e+01	-1.200012e-04
2.662028e+01	-1.213914e-04
2.677404e+01	-1.227977e-04
2.692868e+01	-1.242203e-04
2.708422e+01	-1.256595e-04
2.724066e+01	-1.271152e-04
2.739800e+01	-1.285879e-04
2.755625e+01	-1.300776e-04
2.771541e+01	-1.315845e-04
2.787550e+01	-1.331090e-04
2.803650e+01	-1.346510e-04
2.819844e+01	-1.362110e-04
2.836131e+01	-1.377890e-04
2.852513e+01	-1.393853e-04
2.868989e+01	-1.410001e-04
2.885560e+01	-1.426336e-04
2.902227e+01	-1.442860e-04
2.918990e+01	-1.459576e-04
2.935850e+01	-1.476485e-04
2.952807e+01	-1.493590e-04
2.969863e+01	-1.510894e-04
2.987016e+01	-1.528397e-04
3.004269e+01	-1.546104e-04
3.021622e+01	-1.564016e-04
3.039075e+01	-1.582135e-04
3.056628e+01	-1.600464e-04
3.074283e+01	-1.619006e-04
3.092040e+01	-1.637762e-04
3.109900e+01	-1.656736e-04
3.127862e+01	-1.675929e-04
3.145929e+01	-1.695345e-04
3.164099e+01	-1.714985e-04
3.182375e+01	-1.734853e-04
3.200756e+01	-1.754952e-04
3.219244e+01	-1.775283e-04
3.237838e+01	-1.795850e-04
3.256540e+01	-1.816655e-04
3.275349e+01	-1.837701e-04
3.294268e+01	-1.858991e-04
3.313295e+01	-1.880527e-04
3.332433e+01	-1.902313e-04
3.351681e+01	-1.924351e-04
3.371040e+01	-1.946645e-04
3.390511e+01	-1.969197e-04
3.410094e+01	-1.992010e-04
3.429791e+01	-2.015087e-04
3.449601e+01	-2.038432e-04
3.469526e+01	-2.062048e-04
3.489566e+01	-2.085936e-04
3.509721e+01	-2.110102e-04
3.529993e+01	-2.134547e-04
3.550382e+01	-2.159276e-04
3.570889e+01	-2.184291e-04
3.591515e+01	-2.209596e-04
3.612259e+01	-2.235194e-04
3.633123e+01	-2.261089e-04
3.654108e+01	-2.287284e-04
3.675214e+01	-2.313782e-04
3.696442e+01	-2.340587e-04
3.717792e+01	-2.367703e-04
3.739266e+01	-2.395132e-04
3.760864e+01	-2.422880e-04
3.782587e+01	-2.450949e-04
3.804435e+01	-2.479343e-04
3.826409e+01	-2.508066e-04
3.848510e+01	-2.537122e-04
3.870739e+01	-2.566514e-04
3.893096e+01	-2.596247e-04
3.915583e+01	-2.626324e-04
3.938199e+01	-2.656750e-04
3.960946e+01	-2.687528e-04
3.983824e+01	-2.718663e-04
4.006834e+01	-2.750159e-04
4.029978e+01	-2.782019e-04
4.053255e+01	-2.814248e-04
4.076666e+01	-2.846851e-04
4.100213e+01	-2.879832e-04
4.123896e+01	-2.913194e-04
4.147715e+01	-2.946943e-04
4.171672e+01	-2.981083e-04
4.195767e+01	-3.015619e-04
4.220002e+01	-3.050554e-04
4.244377e+01	-3.085894e-04
4.268892e+01	-3.121644e-04
4.293549e+01	-3.157808e-04
4.318348e+01	-3.194391e-04
4.343291e+01	-3.231397e-04
4.368377e+01	-3.268832e-04
4.393609e+01	-3.306701e-04
4.418986e+01	-3.345009e-04
4.444510e+01	-3.383760e-04
4.470182e+01	-3.422960e-04
4.496001e+01	-3.462615e-04
4.521970e+01	-3.502729e-04
4.548089e+01	-3.543307e-04
4.574358e+01	-3.584356e-04
4.600779e+01	-3.625880e-04
4.627353e+01	-3.667885e-04
4.654081e+01	-3.710376e-04
4.680963e+01	-3.753360e-04
4.708000e+01	-3.796842e-04
4.735193e+01	-3.840827e-04
4.762543e+01	-3.885323e-04
4.790051e+01	-3.930333e-04
4.817719e+01	-3.975865e-04
4.845545e+01	-4.021924e-04
4.873533e+01	-4.068517e-04
4.901682e+01	-4.115650e-04
4.929994e+01	-4.163329e-04
4.958470e+01	-4.211560e-04
4.987110e+01	-4.260349e-04
5.015915e+01	-4.309704e-04
5.044887e+01	-4.359631e-04
5.074026e+01	-4.410136e-04
5.103333e+01	-4.461226e-04
5.132810e+01	-4.512908e-04
5.162457e+01	-4.565188e-04
5.192275e+01	-4.618074e-04
5.222265e+01	-4.671573e-04
5.252429e+01	-4.725692e-04
5.282767e+01	-4.780437e-04
5.313280e+01	-4.835817e-04
5.343969e+01	-4.891838e-04
5.374836e+01	-4.948508e-04
5.405880e+01	-5.005834e-04
5.437105e+01	-5.063825e-04
5.468509e+01	-5.122487e-04
5.500095e+01	-5.181829e-04
5.531863e+01	-5.241858e-04
5.563815e+01	-5.302583e-04
5.595951e+01	-5.364011e-04
5.628273e+01	-5.426151e-04
5.660782e+01	-5.489010e-04
5.693479e+01	-5.552598e-04
5.726364e+01	-5.616922e-04
5.759439e+01	-5.681992e-04
5.792705e+01	-5.747815e-04
5.826164e+01	-5.814400e-04
5.859815e+01	-5.881757e-04
5.893662e+01	-5.949894e-04
5.927703e+01	-6.018821e-04
5.961941e+01	-6.088545e-04
5.996377e+01	-6.159078e-04
6.031012e+01	-6.230427e-04
6.065847e+01	-6.302603e-04
6.100883e+01	-6.375615e-04
6.136121e+01	-6.449473e-04
6.171563e+01	-6.524186e-04
6.207210e+01	-6.599765e-04
6.243063e+01	-6.676219e-04
6.279122e+01	-6.753559e-04
6.315390e+01	-6.831795e-04
6.351868e+01	-6.910937e-04
6.388556e+01	-6.990996e-04
6.425456e+01	-7.071982e-04
6.462569e+01	-7.153906e-04
6.499897e+01	-7.236779e-04
6.537440e+01	-7.320612e-04
6.575200e+01	-7.405416e-04
6.613178e+01	-7.491202e-04
6.651375e+01	-7.577982e-04
6.689793e+01	-7.665768e-04
6.728433e+01	-7.754570e-04
6.767297e+01	-7.844400e-04
6.806384e+01	-7.935272e-04
6.845698e+01	-8.027195e-04
6.885238e+01	-8.120184e-04
6.925007e+01	-8.214250e-04
6.965005e+01	-8.309405e-04
7.005235e+01	-8.405662e-04
7.045697e+01	-8.503035e-04
7.086393e+01	-8.601535e-04
7.127323e+01	-8.701176e-04
7.168490e+01	-8.801971e-04
7.209895e+01	-8.903934e-04
7.251539e+01	-9.007078e-04
7.293424e+01	-9.111416e-04
7.335551e+01	-9.216964e-04
7.377920e+01	-9.323733e-04
7.420535e+01	-9.431739e-04
7.463396e+01	-9.540997e-04
7.506504e+01	-9.651519e-04
7.549861e+01	-9.763322e-04
7.593469e+01	-9.876420e-04
7.637328e+01	-9.990828e-04
7.681441e+01	-1.010656e-03
7.725809e+01	-1.022363e-03
7.770433e+01	-1.034206e-03
7.815315e+01	-1.046187e-03
7.860456e+01	-1.058305e-03
7.905857e+01	-1.070565e-03
7.951521e+01	-1.082966e-03
7.997449e+01	-1.095511e-03
8.043642e+01	-1.108201e-03
8.090102e+01	-1.121038e-03
8.136830e+01	-1.134024e-03
8.183828e+01	-1.147160e-03
8.231097e+01	-1.160449e-03
8.278640e+01	-1.173891e-03
8.326457e+01	-1.187489e-03
8.374550e+01	-1.201244e-03
8.422921e+01	-1.215159e-03
8.471572e+01	-1.229235e-03
8.520503e+01	-1.243474e-03
8.569717e+01	-1.257878e-03
8.619215e+01	-1.272449e-03
8.669000e+01	-1.287188e-03
8.719071e+01	-1.302098e-03
8.769432e+01	-1.317181e-03
8.820084e+01	-1.332439e-03
8.871029e+01	-1.347873e-03
8.922267e+01	-1.363486e-03
8.973802e+01	-1.379280e-03
9.025634e+01	-1.395257e-03
9.077766e+01	-1.411418e-03
9.130199e+01	-1.427767e-03
9.182935e+01	-1.444306e-03
9.235975e+01	-1.461036e-03
9.289321e+01	-1.477959e-03
9.342976e+01	-1.495079e-03
9.396941e+01	-1.512397e-03
9.451217e+01	-1.529915e-03
9.505807e+01	-1.547636e-03
9.560712e+01	-1.565563e-03
9.615934e+01	-1.583697e-03
9.671476e+01	-1.602041e-03
9.727338e+01	-1.620598e-03
9.783522e+01	-1.639370e-03
9.840032e+01	-1.658358e-03
9.896867e+01	-1.677567e-03
9.954031e+01	-1.696999e-03
1.001153e+02	-1.716655e-03
1.006935e+02	-1.736539e-03
1.012751e+02	-1.756653e-03
1.018601e+02	-1.777000e-03
1.024484e+02	-1.797583e-03
1.030402e+02	-1.818404e-03
1.036353e+02	-1.839466e-03
1.042339e+02	-1.860772e-03
1.048360e+02	-1.882325e-03
1.054415e+02	-1.904128e-03
1.060505e+02	-1.926183e-03
1.066631e+02	-1.948493e-03
1.072791e+02	-1.971062e-03
1.078988e+02	-1.993892e-03
1.085220e+02	-2.016986e-03
1.091488e+02	-2.040348e-03
1.097793e+02	-2.063980e-03
1.104133e+02	-2.087886e-03
1.110511e+02	-2.112069e-03
1.116925e+02	-2.136532e-03
1.123376e+02	-2.161278e-03
1.129865e+02	-2.186311e-03
1.136391e+02	-2.211633e-03
1.142955e+02	-2.237249e-03
1.149556e+02	-2.263161e-03
1.156196e+02	-2.289374e-03
1.162874e+02	-2.315890e-03
1.169591e+02	-2.342713e-03
1.176347e+02	-2.369846e-03
1.183141e+02	-2.397294e-03
1.189975e+02	-2.425060e-03
1.196848e+02	-2.453147e-03
1.203761e+02	-2.481559e-03
1.210714e+02	-2.510300e-03
1.217707e+02	-2.539374e-03
1.224740e+02	-2.568785e-03
1.231814e+02	-2.598536e-03
1.238929e+02	-2.628631e-03
1.246085e+02	-2.659075e-03
1.253283e+02	-2.689872e-03
1.260522e+02	-2.721025e-03
1.267802e+02	-2.752539e-03
1.275125e+02	-2.784418e-03
1.282490e+02	-2.816665e-03
1.289898e+02	-2.849286e-03
1.297348e+02	-2.882285e-03
1.304842e+02	-2.915666e-03
1.312378e+02	-2.949433e-03
1.319959e+02	-2.983591e-03
1.327583e+02	-3.018145e-03
1.335251e+02	-3.053099e-03
1.342963e+02	-3.088457e-03
1.350720e+02	-3.124225e-03
1.358522e+02	-3.160407e-03
1.366368e+02	-3.197007e-03
1.374260e+02	-3.234032e-03
1.382198e+02	-3.271485e-03
1.390182e+02	-3.309371e-03
1.398211e+02	-3.347696e-03
1.406287e+02	-3.386465e-03
1.414410e+02	-3.425683e-03
1.422579e+02	-3.465354e-03
1.430796e+02	-3.505485e-03
1.439060e+02	-3.546081e-03
1.447372e+02	-3.587146e-03
1.455732e+02	-3.628686e-03
1.464141e+02	-3.670708e-03
1.472597e+02	-3.713216e-03
1.481103e+02	-3.756216e-03
1.489658e+02	-3.799713e-03
1.498262e+02	-3.843715e-03
1.506916e+02	-3.888225e-03
1.515620e+02	-3.933251e-03
1.524374e+02	-3.978798e-03
1.533179e+02	-4.024872e-03
1.542034e+02	-4.071479e-03
1.550941e+02	-4.118626e-03
1.559899e+02	-4.166318e-03
1.568909e+02	-4.214563e-03
1.577971e+02	-4.263365e-03
1.587085e+02	-4.312733e-03
1.596252e+02	-4.362672e-03
1.605472e+02	-4.413189e-03
1.614745e+02	-4.464291e-03
1.624072e+02	-4.515984e-03
1.633453e+02	-4.568275e-03
1.642887e+02	-4.621171e-03
1.652377e+02	-4.674680e-03
1.661921e+02	-4.728808e-03
1.671520e+02	-4.783562e-03
1.681175e+02	-4.838950e-03
1.690885e+02	-4.894979e-03
1.700651e+02	-4.951656e-03
1.710474e+02	-5.008989e-03
1.720354e+02	-5.066986e-03
1.730291e+02	-5.125653e-03
1.740285e+02	-5.185000e-03
1.750337e+02	-5.245033e-03
1.760446e+02	-5.305761e-03
1.770615e+02	-5.367191e-03
1.780842e+02	-5.429333e-03
1.791128e+02	-5.492193e-03
1.801473e+02	-5.555781e-03
1.811878e+02	-5.620104e-03
1.822344e+02	-5.685172e-03
1.832870e+02	-5.750992e-03
1.843456e+02	-5.817574e-03
1.854104e+02	-5.884927e-03
1.864813e+02	-5.953058e-03
1.875584e+02	-6.021978e-03
1.886418e+02	-6.091695e-03
1.897313e+02	-6.162219e-03
1.908272e+02	-6.233559e-03
1.919294e+02	-6.305723e-03
1.930380e+02	-6.378723e-03
1.941530e+02	-6.452567e-03
1.952744e+02	-6.527266e-03
1.964023e+02	-6.602828e-03
1.975367e+02	-6.679265e-03
1.986777e+02	-6.756585e-03
1.998252e+02	-6.834800e-03
2.009794e+02	-6.913920e-03
2.021403e+02	-6.993955e-03
2.033078e+02	-7.074916e-03
2.044821e+02	-7.156813e-03
2.056632e+02	-7.239657e-03
2.068511e+02	-7.323459e-03
2.080459e+02	-7.408231e-03
2.092475e+02	-7.493983e-03
2.104561e+02	-7.580727e-03
2.116717e+02	-7.668474e-03
2.128943e+02	-7.757235e-03
2.141240e+02	-7.847023e-03
2.153608e+02	-7.937850e-03
2.166047e+02	-8.029727e-03
2.178558e+02	-8.122666e-03
2.191141e+02	-8.216680e-03
2.203797e+02	-8.311781e-03
2.216526e+02	-8.407982e-03
2.229329e+02	-8.505295e-03
2.242205e+02	-8.603733e-03
2.255156e+02	-8.703309e-03
2.268182e+02	-8.804037e-03
2.281283e+02	-8.905929e-03
2.294459e+02	-9.008999e-03
2.307712e+02	-9.113261e-03
2.321041e+02	-9.218728e-03
2.334447e+02	-9.325414e-03
2.347931e+02	-9.433334e-03
2.361493e+02	-9.542501e-03
2.375133e+02	-9.652930e-03
2.388851e+02	-9.764636e-03
2.402649e+02	-9.877633e-03
2.416527e+02	-9.991936e-03
2.430484e+02	-1.010756e-02
2.444523e+02	-1.022452e-02
2.458642e+02	-1.034283e-02
2.472843e+02	-1.046251e-02
2.487126e+02	-1.058357e-02
2.501492e+02	-1.070604e-02
2.515940e+02	-1.082991e-02
2.530472e+02	-1.095522e-02
2.545088e+02	-1.108198e-02
2.559789e+02	-1.121020e-02
2.574574e+02	-1.133990e-02
2.589444e+02	-1.147111e-02
2.604401e+02	-1.160382e-02
2.619444e+02	-1.173807e-02
2.634574e+02	-1.187388e-02
2.649791e+02	-1.201125e-02
2.665096e+02	-1.215021e-02
2.680489e+02	-1.229077e-02
2.695972e+02	-1.243296e-02
2.711544e+02	-1.257679e-02
2.727205e+02	-1.272228e-02
2.742958e+02	-1.286945e-02
2.758801e+02	-1.301832e-02
2.774736e+02	-1.316891e-02
2.790762e+02	-1.332124e-02
2.806882e+02	-1.347533e-02
2.823094e+02	-1.363120e-02
2.839400e+02	-1.378887e-02
2.855800e+02	-1.394836e-02
2.872295e+02	-1.410969e-02
2.888886e+02	-1.427289e-02
2.905572e+02	-1.443797e-02
2.922354e+02	-1.460495e-02
2.939234e+02	-1.477387e-02
2.956211e+02	-1.494473e-02
2.973286e+02	-1.511757e-02
2.990459e+02	-1.529240e-02
3.007732e+02	-1.546925e-02
3.025104e+02	-1.564814e-02
3.042577e+02	-1.582910e-02
3.060151e+02	-1.601214e-02
3.077826e+02	-1.619730e-02
3.095604e+02	-1.638459e-02
3.113484e+02	-1.657405e-02
3.131467e+02	-1.676569e-02
3.149554e+02	-1.695955e-02
3.167746e+02	-1.715564e-02
3.186043e+02	-1.735399e-02
3.204445e+02	-1.755464e-02
3.222954e+02	-1.775760e-02
3.241570e+02	-1.796289e-02
3.260293e+02	-1.817056e-02
3.279124e+02	-1.838063e-02
3.298064e+02	-1.859311e-02
3.317114e+02	-1.880805e-02
3.336273e+02	-1.902547e-02
3.355544e+02	-1.924539e-02
3.374925e+02	-1.946786e-02
3.394418e+02	-1.969288e-02
3.414024e+02	-1.992051e-02
3.433744e+02	-2.015075e-02
3.453577e+02	-2.038366e-02
3.473525e+02	-2.061924e-02
3.493588e+02	-2.085755e-02
3.513766e+02	-2.109860e-02
3.534062e+02	-2.134243e-02
3.554474e+02	-2.158907e-02
3.575005e+02	-2.183855e-02
3.595654e+02	-2.209091e-02
3.616422e+02	-2.234618e-02
3.637311e+02	-2.260439e-02
3.658320e+02	-2.286558e-02
3.679450e+02	-2.312978e-02
3.700702e+02	-2.339702e-02
3.722077e+02	-2.366734e-02
3.743576e+02	-2.394077e-02
3.765199e+02	-2.421736e-02
3.786946e+02	-2.449713e-02
3.808820e+02	-2.478012e-02
3.830819e+02	-2.506637e-02
3.852946e+02	-2.535592e-02
3.875200e+02	-2.564881e-02
3.897583e+02	-2.594507e-02
3.920096e+02	-2.624474e-02
3.942738e+02	-2.654786e-02
3.965511e+02	-2.685447e-02
3.988416e+02	-2.716461e-02
4.011452e+02	-2.747832e-02
4.034622e+02	-2.779564e-02
4.057926e+02	-2.811662e-02
4.081365e+02	-2.844129e-02
4.104938e+02	-2.876969e-02
4.128648e+02	-2.910188e-02
4.152495e+02	-2.943788e-02
4.176480e+02	-2.977776e-02
4.200603e+02	-3.012154e-02
4.224866e+02	-3.046928e-02
4.249268e+02	-3.082102e-02
4.273812e+02	-3.117680e-02
4.298497e+02	-3.153668e-02
4.323325e+02	-3.190070e-02
4.348297e+02	-3.226890e-02
4.373412e+02	-3.264133e-02
4.398673e+02	-3.301805e-02
4.424079e+02	-3.339910e-02
4.449633e+02	-3.378453e-02
4.475334e+02	-3.417439e-02
4.501183e+02	-3.456873e-02
4.527182e+02	-3.496760e-02
4.553330e+02	-3.537105e-02
4.579630e+02	-3.577914e-02
4.606082e+02	-3.619192e-02
4.632687e+02	-3.660945e-02
4.659445e+02	-3.703176e-02
4.686358e+02	-3.745893e-02
4.713426e+02	-3.789101e-02
4.740650e+02	-3.832804e-02
4.768032e+02	-3.877010e-02
4.795572e+02	-3.921723e-02
4.823271e+02	-3.966949e-02
4.851130e+02	-4.012695e-02
4.879150e+02	-4.058965e-02
4.907332e+02	-4.105767e-02
4.935676e+02	-4.153105e-02
4.964185e+02	-4.200987e-02
4.992858e+02	-4.249418e-02
5.021696e+02	-4.298404e-02
5.050701e+02	-4.347953e-02
5.079874e+02	-4.398070e-02
5.109215e+02	-4.448761e-02
5.138726e+02	-4.500034e-02
5.168407e+02	-4.551894e-02
5.198259e+02	-4.604349e-02
5.228284e+02	-4.657405e-02
5.258482e+02	-4.711069e-02
5.288855e+02	-4.765348e-02
5.319403e+02	-4.820250e-02
5.350128e+02	-4.875779e-02
5.381030e+02	-4.931946e-02
5.412111e+02	-4.988755e-02
5.443371e+02	-5.046215e-02
5.474812e+02	-5.104333e-02
5.506434e+02	-5.163116e-02
5.538239e+02	-5.222572e-02
5.570228e+02	-5.282708e-02
5.602401e+02	-5.343533e-02
5.634760e+02	-5.405054e-02
5.667306e+02	-5.467278e-02
5.700040e+02	-5.530214e-02
5.732964e+02	-5.593870e-02
5.766077e+02	-5.658254e-02
5.799382e+02	-5.723374e-02
5.832879e+02	-5.789239e-02
5.866569e+02	-5.855856e-02
5.900454e+02	-5.923235e-02
5.934535e+02	-5.991384e-02
5.968813e+02	-6.060311e-02
6.003288e+02	-6.130026e-02
6.037963e+02	-6.200536e-02
6.072838e+02	-6.271852e-02
6.107914e+02	-6.343983e-02
6.143194e+02	-6.416936e-02
6.178676e+02	-6.490723e-02
6.214364e+02	-6.565351e-02
6.250258e+02	-6.640831e-02
6.286359e+02	-6.717172e-02
6.322669e+02	-6.794383e-02
6.359189e+02	-6.872475e-02
6.395919e+02	-6.951457e-02
6.432862e+02	-7.031340e-02
6.470017e+02	-7.112133e-02
6.507388e+02	-7.193847e-02
6.544974e+02	-7.276492e-02
6.582778e+02	-7.360078e-02
6.620800e+02	-7.444616e-02
6.659041e+02	-7.530116e-02
6.697504e+02	-7.616590e-02
6.736188e+02	-7.704049e-02
6.775096e+02	-7.792502e-02
6.814229e+02	-7.881962e-02
6.853587e+02	-7.972439e-02
6.893173e+02	-8.063945e-02
6.932988e+02	-8.156492e-02
6.973033e+02	-8.250090e-02
7.013309e+02	-8.344753e-02
