Frequency(Hz)	Magnitude(dB)
1.000000e+01	-2.179621e+00
1.005776e+01	-2.199580e+00
1.011585e+01	-2.219641e+00
1.017428e+01	-2.239638e+00
1.023305e+01	-2.259791e+00
1.029215e+01	-2.279936e+00
1.035160e+01	-2.300668e+00
1.041139e+01	-2.321523e+00
1.047153e+01	-2.342123e+00
1.053201e+01	-2.363030e+00
1.059284e+01	-2.384064e+00
1.065403e+01	-2.405175e+00
1.071556e+01	-2.426484e+00
1.077746e+01	-2.448006e+00
1.083971e+01	-2.469743e+00
1.090232e+01	-2.491470e+00
1.096529e+01	-2.513283e+00
1.102862e+01	-2.535596e+00
1.109232e+01	-2.557678e+00
1.115639e+01	-2.580235e+00
1.122083e+01	-2.602264e+00
1.128564e+01	-2.625024e+00
1.135083e+01	-2.647928e+00
1.141639e+01	-2.670693e+00
1.148233e+01	-2.693713e+00
1.154865e+01	-2.716999e+00
1.161536e+01	-2.740491e+00
1.168245e+01	-2.763873e+00
1.174992e+01	-2.787328e+00
1.181779e+01	-2.811128e+00
1.188605e+01	-2.835016e+00
1.195470e+01	-2.859105e+00
1.202375e+01	-2.883257e+00
1.209320e+01	-2.907644e+00
1.216305e+01	-2.932212e+00
1.223330e+01	-2.956821e+00
1.230396e+01	-2.981727e+00
1.237503e+01	-3.006555e+00
1.244651e+01	-3.031625e+00
1.251840e+01	-3.056662e+00
1.259070e+01	-3.081968e+00
1.266343e+01	-3.107772e+00
1.273657e+01	-3.133099e+00
1.281014e+01	-3.158981e+00
1.288413e+01	-3.184985e+00
1.295855e+01	-3.211430e+00
1.303339e+01	-3.237217e+00
1.310867e+01	-3.263746e+00
1.318439e+01	-3.290181e+00
1.326054e+01	-3.316949e+00
1.333713e+01	-3.343688e+00
1.341417e+01	-3.370710e+00
1.349165e+01	-3.397540e+00
1.356958e+01	-3.424762e+00
1.364795e+01	-3.452245e+00
1.372678e+01	-3.479931e+00
1.380607e+01	-3.507440e+00
1.388581e+01	-3.535192e+00
1.396602e+01	-3.563096e+00
1.404668e+01	-3.591001e+00
1.412782e+01	-3.619543e+00
1.420942e+01	-3.647601e+00
1.429149e+01	-3.676100e+00
1.437404e+01	-3.704819e+00
1.445706e+01	-3.733552e+00
1.454057e+01	-3.762345e+00
1.462455e+01	-3.791501e+00
1.470902e+01	-3.820763e+00
1.479398e+01	-3.849948e+00
1.487943e+01	-3.879829e+00
1.496537e+01	-3.909169e+00
1.505181e+01	-3.938772e+00
1.513875e+01	-3.968843e+00
1.522619e+01	-3.998898e+00
1.531414e+01	-4.029240e+00
1.540259e+01	-4.059432e+00
1.549156e+01	-4.089995e+00
1.558103e+01	-4.120342e+00
1.567103e+01	-4.151258e+00
1.576155e+01	-4.182012e+00
1.585258e+01	-4.213007e+00
1.594415e+01	-4.243986e+00
1.603624e+01	-4.275415e+00
1.612886e+01	-4.306655e+00
1.622202e+01	-4.338414e+00
1.631572e+01	-4.369904e+00
1.640996e+01	-4.401759e+00
1.650474e+01	-4.433833e+00
1.660008e+01	-4.466071e+00
1.669596e+01	-4.497759e+00
1.679239e+01	-4.530358e+00
1.688938e+01	-4.562774e+00
1.698694e+01	-4.595716e+00
1.708505e+01	-4.628168e+00
1.718373e+01	-4.661388e+00
1.728299e+01	-4.693521e+00
1.738281e+01	-4.726966e+00
1.748322e+01	-4.760534e+00
1.758420e+01	-4.793606e+00
1.768576e+01	-4.827160e+00
1.778792e+01	-4.860799e+00
1.789066e+01	-4.894347e+00
1.799399e+01	-4.928434e+00
1.809793e+01	-4.962414e+00
1.820246e+01	-4.996555e+00
1.830760e+01	-5.030702e+00
1.841334e+01	-5.065386e+00
1.851969e+01	-5.099678e+00
1.862666e+01	-5.134575e+00
1.873425e+01	-5.168938e+00
1.884246e+01	-5.203907e+00
1.895129e+01	-5.238972e+00
1.906075e+01	-5.274166e+00
1.917085e+01	-5.309513e+00
1.928158e+01	-5.345004e+00
1.939295e+01	-5.380211e+00
1.950496e+01	-5.415942e+00
1.961762e+01	-5.451231e+00
1.973093e+01	-5.487690e+00
1.984490e+01	-5.522925e+00
1.995952e+01	-5.559255e+00
2.007480e+01	-5.595355e+00
2.019076e+01	-5.631894e+00
2.030738e+01	-5.668446e+00
2.042467e+01	-5.704711e+00
2.054264e+01	-5.741230e+00
2.066130e+01	-5.778079e+00
2.078064e+01	-5.815020e+00
2.090066e+01	-5.852063e+00
2.102139e+01	-5.889275e+00
2.114280e+01	-5.926224e+00
2.126492e+01	-5.963598e+00
2.138775e+01	-6.000868e+00
2.151128e+01	-6.038857e+00
2.163553e+01	-6.076060e+00
2.176050e+01	-6.113690e+00
2.188619e+01	-6.151345e+00
2.201260e+01	-6.189644e+00
2.213974e+01	-6.227653e+00
2.226762e+01	-6.265678e+00
2.239624e+01	-6.303804e+00
2.252560e+01	-6.342147e+00
2.265571e+01	-6.381154e+00
2.278656e+01	-6.419339e+00
2.291818e+01	-6.458217e+00
2.305055e+01	-6.496892e+00
2.318369e+01	-6.535881e+00
2.331760e+01	-6.574818e+00
2.345228e+01	-6.613332e+00
2.358774e+01	-6.652654e+00
2.372398e+01	-6.692413e+00
2.386101e+01	-6.731377e+00
2.399883e+01	-6.771128e+00
2.413745e+01	-6.810361e+00
2.427686e+01	-6.850133e+00
2.441709e+01	-6.890155e+00
2.455812e+01	-6.929902e+00
2.469997e+01	-6.969709e+00
2.484263e+01	-7.009460e+00
2.498612e+01	-7.049720e+00
2.513044e+01	-7.090189e+00
2.527559e+01	-7.130188e+00
2.542158e+01	-7.170154e+00
2.556842e+01	-7.211323e+00
2.571610e+01	-7.252120e+00
2.586463e+01	-7.292482e+00
2.601403e+01	-7.333118e+00
2.616428e+01	-7.374210e+00
2.631541e+01	-7.415052e+00
2.646740e+01	-7.455630e+00
2.662028e+01	-7.496918e+00
2.677404e+01	-7.538242e+00
2.692868e+01	-7.579410e+00
2.708422e+01	-7.620520e+00
2.724066e+01	-7.661962e+00
2.739800e+01	-7.703582e+00
2.755625e+01	-7.744936e+00
2.771541e+01	-7.786920e+00
2.787550e+01	-7.828746e+00
2.803650e+01	-7.870175e+00
2.819844e+01	-7.911953e+00
2.836131e+01	-7.954382e+00
2.852513e+01	-7.996398e+00
2.868989e+01	-8.038379e+00
2.885560e+01	-8.080910e+00
2.902227e+01	-8.122715e+00
2.918990e+01	-8.165062e+00
2.935850e+01	-8.207709e+00
2.952807e+01	-8.250032e+00
2.969863e+01	-8.292340e+00
2.987016e+01	-8.335562e+00
3.004269e+01	-8.377959e+00
3.021622e+01	-8.420861e+00
3.039075e+01	-8.463895e+00
3.056628e+01	-8.506541e+00
3.074283e+01	-8.549368e+00
3.092040e+01	-8.592664e+00
3.109900e+01	-8.635956e+00
3.127862e+01	-8.679324e+00
3.145929e+01	-8.722534e+00
3.164099e+01	-8.765846e+00
3.182375e+01	-8.809180e+00
3.200756e+01	-8.852502e+00
3.219244e+01	-8.896393e+00
3.237838e+01	-8.939797e+00
3.256540e+01	-8.983528e+00
3.275349e+01	-9.027091e+00
3.294268e+01	-9.070929e+00
3.313295e+01	-9.114826e+00
3.332433e+01	-9.158870e+00
3.351681e+01	-9.202483e+00
3.371040e+01	-9.246640e+00
3.390511e+01	-9.290936e+00
3.410094e+01	-9.334834e+00
3.429791e+01	-9.379497e+00
3.449601e+01	-9.423561e+00
3.469526e+01	-9.468057e+00
3.489566e+01	-9.512517e+00
3.509721e+01	-9.556655e+00
3.529993e+01	-9.601506e+00
3.550382e+01	-9.645980e+00
3.570889e+01	-9.690544e+00
3.591515e+01	-9.734901e+00
3.612259e+01	-9.779551e+00
3.633123e+01	-9.824730e+00
3.654108e+01	-9.869235e+00
3.675214e+01	-9.914466e+00
3.696442e+01	-9.959167e+00
3.717792e+01	-1.000433e+01
3.739266e+01	-1.004944e+01
3.760864e+01	-1.009436e+01
3.782587e+01	-1.013977e+01
3.804435e+01	-1.018535e+01
3.826409e+01	-1.023052e+01
3.848510e+01	-1.027617e+01
3.870739e+01	-1.032103e+01
3.893096e+01	-1.036630e+01
3.915583e+01	-1.041139e+01
3.938199e+01	-1.045725e+01
3.960946e+01	-1.050299e+01
3.983824e+01	-1.054883e+01
4.006834e+01	-1.059388e+01
4.029978e+01	-1.063969e+01
4.053255e+01	-1.068584e+01
4.076666e+01	-1.073085e+01
4.100213e+01	-1.077740e+01
4.123896e+01	-1.082305e+01
4.147715e+01	-1.086869e+01
4.171672e+01	-1.091505e+01
4.195767e+01	-1.096051e+01
4.220002e+01	-1.100667e+01
4.244377e+01	-1.105275e+01
4.268892e+01	-1.109885e+01
4.293549e+01	-1.114486e+01
4.318348e+01	-1.119039e+01
4.343291e+01	-1.123770e+01
4.368377e+01	-1.128457e+01
4.393609e+01	-1.133020e+01
4.418986e+01	-1.137680e+01
4.444510e+01	-1.142247e+01
4.470182e+01	-1.146929e+01
4.496001e+01	-1.151596e+01
4.521970e+01	-1.156244e+01
4.548089e+01	-1.160916e+01
4.574358e+01	-1.165524e+01
4.600779e+01	-1.170159e+01
4.627353e+01	-1.174887e+01
4.654081e+01	-1.179540e+01
4.680963e+01	-1.184251e+01
4.708000e+01	-1.189020e+01
4.735193e+01	-1.193561e+01
4.762543e+01	-1.198222e+01
4.790051e+01	-1.203000e+01
4.817719e+01	-1.207600e+01
4.845545e+01	-1.212363e+01
4.873533e+01	-1.217016e+01
4.901682e+01	-1.221737e+01
4.929994e+01	-1.226452e+01
4.958470e+01	-1.231149e+01
4.987110e+01	-1.235850e+01
5.015915e+01	-1.240542e+01
5.044887e+01	-1.245317e+01
5.074026e+01	-1.250033e+01
5.103333e+01	-1.254758e+01
5.132810e+01	-1.259459e+01
5.162457e+01	-1.264209e+01
5.192275e+01	-1.268989e+01
5.222265e+01	-1.273673e+01
5.252429e+01	-1.278402e+01
5.282767e+01	-1.283137e+01
5.313280e+01	-1.287923e+01
5.343969e+01	-1.292652e+01
5.374836e+01	-1.297328e+01
5.405880e+01	-1.302166e+01
5.437105e+01	-1.306911e+01
5.468509e+01	-1.311611e+01
5.500095e+01	-1.316402e+01
5.531863e+01	-1.321195e+01
5.563815e+01	-1.325882e+01
5.595951e+01	-1.330698e+01
5.628273e+01	-1.335450e+01
5.660782e+01	-1.340253e+01
5.693479e+01	-1.345064e+01
5.726364e+01	-1.349888e+01
5.759439e+01	-1.354580e+01
5.792705e+01	-1.359413e+01
5.826164e+01	-1.364170e+01
5.859815e+01	-1.368892e+01
5.893662e+01	-1.373721e+01
5.927703e+01	-1.378511e+01
5.961941e+01	-1.383316e+01
5.996377e+01	-1.388097e+01
6.031012e+01	-1.392932e+01
6.065847e+01	-1.397733e+01
6.100883e+01	-1.402546e+01
6.136121e+01	-1.407383e+01
6.171563e+01	-1.412122e+01
6.207210e+01	-1.416940e+01
6.243063e+01	-1.421661e+01
6.279122e+01	-1.426583e+01
6.315390e+01	-1.431427e+01
6.351868e+01	-1.436210e+01
6.388556e+01	-1.441045e+01
6.425456e+01	-1.445871e+01
6.462569e+01	-1.450685e+01
6.499897e+01	-1.455513e+01
6.537440e+01	-1.460262e+01
6.575200e+01	-1.465126e+01
6.613178e+01	-1.469981e+01
6.651375e+01	-1.474824e+01
6.689793e+01	-1.479608e+01
6.728433e+01	-1.484511e+01
6.767297e+01	-1.489313e+01
6.806384e+01	-1.494212e+01
6.845698e+01	-1.499026e+01
6.885238e+01	-1.503882e+01
6.925007e+01	-1.508767e+01
6.965005e+01	-1.513575e+01
7.005235e+01	-1.518441e+01
7.045697e+01	-1.523256e+01
7.086393e+01	-1.528078e+01
7.127323e+01	-1.532938e+01
7.168490e+01	-1.537827e+01
7.209895e+01	-1.542703e+01
7.251539e+01	-1.547471e+01
7.293424e+01	-1.552442e+01
7.335551e+01	-1.557215e+01
7.377920e+01	-1.562124e+01
7.420535e+01	-1.566991e+01
7.463396e+01	-1.571815e+01
7.506504e+01	-1.576673e+01
7.549861e+01	-1.581603e+01
7.593469e+01	-1.586462e+01
7.637328e+01	-1.591395e+01
7.681441e+01	-1.596241e+01
7.725809e+01	-1.601076e+01
7.770433e+01	-1.605969e+01
7.815315e+01	-1.610919e+01
7.860456e+01	-1.615731e+01
7.905857e+01	-1.620651e+01
7.951521e+01	-1.625522e+01
7.997449e+01	-1.630350e+01
8.043642e+01	-1.635340e+01
8.090102e+01	-1.640206e+01
8.136830e+01	-1.644957e+01
8.183828e+01	-1.650050e+01
8.231097e+01	-1.654829e+01
8.278640e+01	-1.659689e+01
8.326457e+01	-1.664667e+01
8.374550e+01	-1.669559e+01
8.422921e+01	-1.674407e+01
8.471572e+01	-1.679317e+01
8.520503e+01	-1.684286e+01
8.569717e+01	-1.689120e+01
8.619215e+01	-1.693995e+01
8.669000e+01	-1.698870e+01
8.719071e+01	-1.703847e+01
8.769432e+01	-1.708715e+01
8.820084e+01	-1.713535e+01
8.871029e+01	-1.718549e+01
8.922267e+01	-1.723401e+01
8.973802e+01	-1.728354e+01
9.025634e+01	-1.733343e+01
9.077766e+01	-1.738121e+01
9.130199e+01	-1.743032e+01
9.182935e+01	-1.747979e+01
9.235975e+01	-1.752895e+01
9.289321e+01	-1.757818e+01
9.342976e+01	-1.762650e+01
9.396941e+01	-1.767678e+01
9.451217e+01	-1.772642e+01
9.505807e+01	-1.777576e+01
9.560712e+01	-1.782392e+01
9.615934e+01	-1.787270e+01
9.671476e+01	-1.792324e+01
9.727338e+01	-1.797340e+01
9.783522e+01	-1.802154e+01
9.840032e+01	-1.806985e+01
9.896867e+01	-1.811884e+01
9.954031e+01	-1.816944e+01
1.001153e+02	-1.821848e+01
1.006935e+02	-1.826823e+01
1.012751e+02	-1.831703e+01
1.018601e+02	-1.836518e+01
1.024484e+02	-1.841518e+01
1.030402e+02	-1.846415e+01
1.036353e+02	-1.851321e+01
1.042339e+02	-1.856391e+01
1.048360e+02	-1.861374e+01
1.054415e+02	-1.866229e+01
1.060505e+02	-1.871077e+01
1.066631e+02	-1.876035e+01
1.072791e+02	-1.881038e+01
1.078988e+02	-1.885847e+01
1.085220e+02	-1.890859e+01
1.091488e+02	-1.895859e+01
1.097793e+02	-1.900773e+01
1.104133e+02	-1.905789e+01
1.110511e+02	-1.910574e+01
1.116925e+02	-1.915423e+01
1.123376e+02	-1.920567e+01
1.129865e+02	-1.925448e+01
1.136391e+02	-1.930526e+01
1.142955e+02	-1.935351e+01
1.149556e+02	-1.940286e+01
1.156196e+02	-1.945203e+01
1.162874e+02	-1.950254e+01
1.169591e+02	-1.955058e+01
1.176347e+02	-1.960187e+01
1.183141e+02	-1.965044e+01
1.189975e+02	-1.970042e+01
1.196848e+02	-1.974889e+01
1.203761e+02	-1.979912e+01
1.210714e+02	-1.984713e+01
1.217707e+02	-1.989917e+01
1.224740e+02	-1.994710e+01
1.231814e+02	-1.999570e+01
1.238929e+02	-2.004668e+01
1.246085e+02	-2.009620e+01
1.253283e+02	-2.014690e+01
1.260522e+02	-2.019546e+01
1.267802e+02	-2.024553e+01
1.275125e+02	-2.029495e+01
1.282490e+02	-2.034485e+01
1.289898e+02	-2.039420e+01
1.297348e+02	-2.044369e+01
1.304842e+02	-2.049263e+01
1.312378e+02	-2.054180e+01
1.319959e+02	-2.059258e+01
1.327583e+02	-2.064137e+01
1.335251e+02	-2.069184e+01
1.342963e+02	-2.074120e+01
1.350720e+02	-2.079062e+01
1.358522e+02	-2.084043e+01
1.366368e+02	-2.088884e+01
1.374260e+02	-2.093863e+01
1.382198e+02	-2.098771e+01
1.390182e+02	-2.103915e+01
1.398211e+02	-2.108991e+01
1.406287e+02	-2.113771e+01
1.414410e+02	-2.118720e+01
1.422579e+02	-2.123806e+01
1.430796e+02	-2.128813e+01
1.439060e+02	-2.133748e+01
1.447372e+02	-2.138747e+01
1.455732e+02	-2.143571e+01
1.464141e+02	-2.148380e+01
1.472597e+02	-2.153701e+01
1.481103e+02	-2.158536e+01
1.489658e+02	-2.163579e+01
1.498262e+02	-2.168309e+01
1.506916e+02	-2.173283e+01
1.515620e+02	-2.178437e+01
1.524374e+02	-2.183206e+01
1.533179e+02	-2.188352e+01
1.542034e+02	-2.193370e+01
1.550941e+02	-2.198147e+01
1.559899e+02	-2.203317e+01
1.568909e+02	-2.208207e+01
1.577971e+02	-2.213017e+01
1.587085e+02	-2.218194e+01
1.596252e+02	-2.223035e+01
1.605472e+02	-2.228192e+01
1.614745e+02	-2.233136e+01
1.624072e+02	-2.237929e+01
1.633453e+02	-2.242987e+01
1.642887e+02	-2.248085e+01
1.652377e+02	-2.253160e+01
1.661921e+02	-2.257954e+01
1.671520e+02	-2.262961e+01
1.681175e+02	-2.267884e+01
1.690885e+02	-2.272940e+01
1.700651e+02	-2.277986e+01
1.710474e+02	-2.282778e+01
1.720354e+02	-2.287717e+01
1.730291e+02	-2.292540e+01
1.740285e+02	-2.297921e+01
1.750337e+02	-2.302921e+01
1.760446e+02	-2.307814e+01
1.770615e+02	-2.312800e+01
1.780842e+02	-2.317892e+01
1.791128e+02	-2.322908e+01
1.801473e+02	-2.327443e+01
1.811878e+02	-2.332720e+01
1.822344e+02	-2.337916e+01
1.832870e+02	-2.342626e+01
1.843456e+02	-2.347512e+01
1.854104e+02	-2.353047e+01
1.864813e+02	-2.357548e+01
1.875584e+02	-2.362628e+01
1.886418e+02	-2.367624e+01
1.897313e+02	-2.372493e+01
1.908272e+02	-2.377481e+01
1.919294e+02	-2.382504e+01
1.930380e+02	-2.387415e+01
1.941530e+02	-2.392452e+01
1.952744e+02	-2.397364e+01
1.964023e+02	-2.402300e+01
1.975367e+02	-2.407381e+01
1.986777e+02	-2.412610e+01
1.998252e+02	-2.417378e+01
2.009794e+02	-2.422389e+01
2.021403e+02	-2.427448e+01
2.033078e+02	-2.432262e+01
2.044821e+02	-2.437331e+01
2.056632e+02	-2.442534e+01
2.068511e+02	-2.447442e+01
2.080459e+02	-2.452256e+01
2.092475e+02	-2.457366e+01
2.104561e+02	-2.462454e+01
2.116717e+02	-2.467140e+01
2.128943e+02	-2.472389e+01
2.141240e+02	-2.477437e+01
2.153608e+02	-2.482072e+01
2.166047e+02	-2.487276e+01
2.178558e+02	-2.492331e+01
2.191141e+02	-2.497127e+01
2.203797e+02	-2.502176e+01
2.216526e+02	-2.507202e+01
2.229329e+02	-2.512411e+01
2.242205e+02	-2.517068e+01
2.255156e+02	-2.522073e+01
2.268182e+02	-2.527059e+01
2.281283e+02	-2.532110e+01
2.294459e+02	-2.536999e+01
2.307712e+02	-2.542491e+01
2.321041e+02	-2.547476e+01
2.334447e+02	-2.552190e+01
2.347931e+02	-2.557099e+01
2.361493e+02	-2.562233e+01
2.375133e+02	-2.566834e+01
2.388851e+02	-2.572261e+01
2.402649e+02	-2.576882e+01
2.416527e+02	-2.581930e+01
2.430484e+02	-2.586964e+01
2.444523e+02	-2.591818e+01
2.458642e+02	-2.597184e+01
2.472843e+02	-2.602037e+01
2.487126e+02	-2.606869e+01
2.501492e+02	-2.611786e+01
2.515940e+02	-2.617183e+01
2.530472e+02	-2.622137e+01
2.545088e+02	-2.627299e+01
2.559789e+02	-2.631971e+01
2.574574e+02	-2.637084e+01
2.589444e+02	-2.641883e+01
2.604401e+02	-2.646874e+01
2.619444e+02	-2.651841e+01
2.634574e+02	-2.656809e+01
2.649791e+02	-2.661811e+01
2.665096e+02	-2.666857e+01
2.680489e+02	-2.671951e+01
2.695972e+02	-2.676778e+01
2.711544e+02	-2.681828e+01
2.727205e+02	-2.686882e+01
2.742958e+02	-2.692226e+01
2.758801e+02	-2.696809e+01
2.774736e+02	-2.702092e+01
2.790762e+02	-2.707179e+01
2.806882e+02	-2.711896e+01
2.823094e+02	-2.717076e+01
2.839400e+02	-2.721931e+01
2.855800e+02	-2.726931e+01
2.872295e+02	-2.731991e+01
2.888886e+02	-2.737341e+01
2.905572e+02	-2.741583e+01
2.922354e+02	-2.746996e+01
2.939234e+02	-2.751871e+01
2.956211e+02	-2.756926e+01
2.973286e+02	-2.762052e+01
2.990459e+02	-2.766785e+01
3.007732e+02	-2.771878e+01
3.025104e+02	-2.777257e+01
3.042577e+02	-2.782098e+01
3.060151e+02	-2.787183e+01
3.077826e+02	-2.792131e+01
3.095604e+02	-2.796860e+01
3.113484e+02	-2.801972e+01
3.131467e+02	-2.806647e+01
3.149554e+02	-2.811954e+01
3.167746e+02	-2.816523e+01
3.186043e+02	-2.822189e+01
3.204445e+02	-2.827217e+01
3.222954e+02	-2.832061e+01
3.241570e+02	-2.837069e+01
3.260293e+02	-2.841446e+01
3.279124e+02	-2.847074e+01
3.298064e+02	-2.852247e+01
3.317114e+02	-2.856992e+01
3.336273e+02	-2.862118e+01
3.355544e+02	-2.867105e+01
3.374925e+02	-2.872230e+01
3.394418e+02	-2.876781e+01
3.414024e+02	-2.882012e+01
3.433744e+02	-2.886915e+01
3.453577e+02	-2.892183e+01
3.473525e+02	-2.896765e+01
3.493588e+02	-2.902435e+01
3.513766e+02	-2.906735e+01
3.534062e+02	-2.911826e+01
3.554474e+02	-2.917083e+01
3.575005e+02	-2.922040e+01
3.595654e+02	-2.926852e+01
3.616422e+02	-2.932102e+01
3.637311e+02	-2.936981e+01
3.658320e+02	-2.942125e+01
3.679450e+02	-2.947143e+01
3.700702e+02	-2.952114e+01
3.722077e+02	-2.956638e+01
3.743576e+02	-2.962240e+01
3.765199e+02	-2.967002e+01
3.786946e+02	-2.972089e+01
3.808820e+02	-2.977095e+01
3.830819e+02	-2.982336e+01
3.852946e+02	-2.987236e+01
3.875200e+02	-2.992062e+01
3.897583e+02	-2.997625e+01
3.920096e+02	-3.001923e+01
3.942738e+02	-3.006964e+01
3.965511e+02	-3.012179e+01
3.988416e+02	-3.017101e+01
4.011452e+02	-3.022813e+01
4.034622e+02	-3.027422e+01
4.057926e+02	-3.032677e+01
4.081365e+02	-3.037455e+01
4.104938e+02	-3.042620e+01
4.128648e+02	-3.047187e+01
4.152495e+02	-3.052176e+01
4.176480e+02	-3.057410e+01
4.200603e+02	-3.062163e+01
4.224866e+02	-3.067465e+01
4.249268e+02	-3.072273e+01
4.273812e+02	-3.076538e+01
4.298497e+02	-3.082467e+01
4.323325e+02	-3.087557e+01
4.348297e+02	-3.093487e+01
4.373412e+02	-3.097983e+01
4.398673e+02	-3.102163e+01
4.424079e+02	-3.107559e+01
4.449633e+02	-3.111829e+01
4.475334e+02	-3.117619e+01
4.501183e+02	-3.122750e+01
4.527182e+02	-3.127928e+01
4.553330e+02	-3.133372e+01
4.579630e+02	-3.137567e+01
4.606082e+02	-3.142363e+01
4.632687e+02	-3.147715e+01
4.659445e+02	-3.152588e+01
4.686358e+02	-3.157647e+01
4.713426e+02	-3.162336e+01
4.740650e+02	-3.168151e+01
4.768032e+02	-3.173548e+01
4.795572e+02	-3.178002e+01
4.823271e+02	-3.183151e+01
4.851130e+02	-3.187875e+01
4.879150e+02	-3.192678e+01
4.907332e+02	-3.196786e+01
4.935676e+02	-3.202027e+01
4.964185e+02	-3.208374e+01
4.992858e+02	-3.212391e+01
5.021696e+02	-3.218119e+01
5.050701e+02	-3.223066e+01
5.079874e+02	-3.227429e+01
5.109215e+02	-3.232864e+01
5.138726e+02	-3.238383e+01
5.168407e+02	-3.242204e+01
5.198259e+02	-3.248255e+01
5.228284e+02	-3.253284e+01
5.258482e+02	-3.257769e+01
5.288855e+02	-3.263196e+01
5.319403e+02	-3.268237e+01
5.350128e+02	-3.272555e+01
5.381030e+02	-3.278539e+01
5.412111e+02	-3.282582e+01
5.443371e+02	-3.288130e+01
5.474812e+02	-3.292652e+01
5.506434e+02	-3.297591e+01
5.538239e+02	-3.302494e+01
5.570228e+02	-3.308156e+01
5.602401e+02	-3.313277e+01
5.634760e+02	-3.318282e+01
5.667306e+02	-3.323608e+01
5.700040e+02	-3.328399e+01
5.732964e+02	-3.333363e+01
5.766077e+02	-3.338443e+01
5.799382e+02	-3.342796e+01
5.832879e+02	-3.348630e+01
5.866569e+02	-3.353823e+01
5.900454e+02	-3.358039e+01
5.934535e+02	-3.363648e+01
5.968813e+02	-3.368369e+01
6.003288e+02	-3.373758e+01
6.037963e+02	-3.378693e+01
6.072838e+02	-3.383668e+01
6.107914e+02	-3.388610e+01
6.143194e+02	-3.393238e+01
6.178676e+02	-3.398330e+01
6.214364e+02	-3.403299e+01
6.250258e+02	-3.408226e+01
6.286359e+02	-3.413577e+01
6.322669e+02	-3.419150e+01
6.359189e+02	-3.424240e+01
6.395919e+02	-3.428914e+01
6.432862e+02	-3.433096e+01
6.470017e+02	-3.438906e+01
6.507388e+02	-3.444585e+01
6.544974e+02	-3.449218e+01
6.582778e+02	-3.453678e+01
6.620800e+02	-3.459623e+01
6.659041e+02	-3.464126e+01
6.697504e+02	-3.467877e+01
6.736188e+02	-3.473844e+01
6.775096e+02	-3.479767e+01
6.814229e+02	-3.484708e+01
6.853587e+02	-3.488626e+01
6.893173e+02	-3.494393e+01
6.932988e+02	-3.498893e+01
6.973033e+02	-3.504235e+01
7.013309e+02	-3.510357e+01
