Frequency(Hz)	Magnitude(dB)
1.000000e+01	-1.769740e-05
1.005776e+01	-1.790243e-05
1.011585e+01	-1.810983e-05
1.017428e+01	-1.831964e-05
1.023305e+01	-1.853187e-05
1.029215e+01	-1.874657e-05
1.035160e+01	-1.896375e-05
1.041139e+01	-1.918345e-05
1.047153e+01	-1.940570e-05
1.053201e+01	-1.963052e-05
1.059284e+01	-1.985794e-05
1.065403e+01	-2.008800e-05
1.071556e+01	-2.032073e-05
1.077746e+01	-2.055615e-05
1.083971e+01	-2.079430e-05
1.090232e+01	-2.103520e-05
1.096529e+01	-2.127890e-05
1.102862e+01	-2.152542e-05
1.109232e+01	-2.177480e-05
1.115639e+01	-2.202707e-05
1.122083e+01	-2.228226e-05
1.128564e+01	-2.254040e-05
1.135083e+01	-2.280154e-05
1.141639e+01	-2.306570e-05
1.148233e+01	-2.333292e-05
1.154865e+01	-2.360324e-05
1.161536e+01	-2.387669e-05
1.168245e+01	-2.415331e-05
1.174992e+01	-2.443313e-05
1.181779e+01	-2.471619e-05
1.188605e+01	-2.500254e-05
1.195470e+01	-2.529220e-05
1.202375e+01	-2.558521e-05
1.209320e+01	-2.588162e-05
1.216305e+01	-2.618147e-05
1.223330e+01	-2.648479e-05
1.230396e+01	-2.679162e-05
1.237503e+01	-2.710201e-05
1.244651e+01	-2.741599e-05
1.251840e+01	-2.773361e-05
1.259070e+01	-2.805491e-05
1.266343e+01	-2.837993e-05
1.273657e+01	-2.870872e-05
1.281014e+01	-2.904132e-05
1.288413e+01	-2.937777e-05
1.295855e+01	-2.971812e-05
1.303339e+01	-3.006241e-05
1.310867e+01	-3.041069e-05
1.318439e+01	-3.076301e-05
1.326054e+01	-3.111940e-05
1.333713e+01	-3.147993e-05
1.341417e+01	-3.184463e-05
1.349165e+01	-3.221356e-05
1.356958e+01	-3.258676e-05
1.364795e+01	-3.296429e-05
1.372678e+01	-3.334618e-05
1.380607e+01	-3.373251e-05
1.388581e+01	-3.412331e-05
1.396602e+01	-3.451863e-05
1.404668e+01	-3.491854e-05
1.412782e+01	-3.532308e-05
1.420942e+01	-3.573231e-05
1.429149e+01	-3.614627e-05
1.437404e+01	-3.656504e-05
1.445706e+01	-3.698865e-05
1.454057e+01	-3.741717e-05
1.462455e+01	-3.785066e-05
1.470902e+01	-3.828917e-05
1.479398e+01	-3.873276e-05
1.487943e+01	-3.918148e-05
1.496537e+01	-3.963541e-05
1.505181e+01	-4.009460e-05
1.513875e+01	-4.055910e-05
1.522619e+01	-4.102899e-05
1.531414e+01	-4.150432e-05
1.540259e+01	-4.198515e-05
1.549156e+01	-4.247156e-05
1.558103e+01	-4.296360e-05
1.567103e+01	-4.346135e-05
1.576155e+01	-4.396486e-05
1.585258e+01	-4.447420e-05
1.594415e+01	-4.498944e-05
1.603624e+01	-4.551065e-05
1.612886e+01	-4.603791e-05
1.622202e+01	-4.657126e-05
1.631572e+01	-4.711080e-05
1.640996e+01	-4.765659e-05
1.650474e+01	-4.820870e-05
1.660008e+01	-4.876721e-05
1.669596e+01	-4.933219e-05
1.679239e+01	-4.990371e-05
1.688938e+01	-5.048186e-05
1.698694e+01	-5.106670e-05
1.708505e+01	-5.165832e-05
1.718373e+01	-5.225679e-05
1.728299e+01	-5.286220e-05
1.738281e+01	-5.347462e-05
1.748322e+01	-5.409413e-05
1.758420e+01	-5.472083e-05
1.768576e+01	-5.535478e-05
1.778792e+01	-5.599607e-05
1.789066e+01	-5.664480e-05
1.799399e+01	-5.730104e-05
1.809793e+01	-5.796489e-05
1.820246e+01	-5.863642e-05
1.830760e+01	-5.931573e-05
1.841334e+01	-6.000292e-05
1.851969e+01	-6.069807e-05
1.862666e+01	-6.140126e-05
1.873425e+01	-6.211261e-05
1.884246e+01	-6.283220e-05
1.895129e+01	-6.356012e-05
1.906075e+01	-6.429648e-05
1.917085e+01	-6.504136e-05
1.928158e+01	-6.579488e-05
1.939295e+01	-6.655713e-05
1.950496e+01	-6.732820e-05
1.961762e+01	-6.810821e-05
1.973093e+01	-6.889726e-05
1.984490e+01	-6.969545e-05
1.995952e+01	-7.050288e-05
2.007480e+01	-7.131967e-05
2.019076e+01	-7.214592e-05
2.030738e+01	-7.298175e-05
2.042467e+01	-7.382725e-05
2.054264e+01	-7.468255e-05
2.066130e+01	-7.554777e-05
2.078064e+01	-7.642300e-05
2.090066e+01	-7.730837e-05
2.102139e+01	-7.820400e-05
2.114280e+01	-7.911001e-05
2.126492e+01	-8.002651e-05
2.138775e+01	-8.095364e-05
2.151128e+01	-8.189150e-05
2.163553e+01	-8.284022e-05
2.176050e+01	-8.379994e-05
2.188619e+01	-8.477078e-05
2.201260e+01	-8.575286e-05
2.213974e+01	-8.674632e-05
2.226762e+01	-8.775129e-05
2.239624e+01	-8.876791e-05
2.252560e+01	-8.979630e-05
2.265571e+01	-9.083660e-05
2.278656e+01	-9.188896e-05
2.291818e+01	-9.295351e-05
2.305055e+01	-9.403039e-05
2.318369e+01	-9.511974e-05
2.331760e+01	-9.622172e-05
2.345228e+01	-9.733646e-05
2.358774e+01	-9.846412e-05
2.372398e+01	-9.960484e-05
2.386101e+01	-1.007588e-04
2.399883e+01	-1.019261e-04
2.413745e+01	-1.031069e-04
2.427686e+01	-1.043014e-04
2.441709e+01	-1.055098e-04
2.455812e+01	-1.067321e-04
2.469997e+01	-1.079686e-04
2.484263e+01	-1.092194e-04
2.498612e+01	-1.104848e-04
2.513044e+01	-1.117647e-04
2.527559e+01	-1.130596e-04
2.542158e+01	-1.143694e-04
2.556842e+01	-1.156944e-04
2.571610e+01	-1.170347e-04
2.586463e+01	-1.183905e-04
2.601403e+01	-1.197621e-04
2.616428e+01	-1.211496e-04
2.631541e+01	-1.225531e-04
2.646740e+01	-1.239729e-04
2.662028e+01	-1.254091e-04
2.677404e+01	-1.268620e-04
2.692868e+01	-1.283317e-04
2.708422e+01	-1.298185e-04
2.724066e+01	-1.313224e-04
2.739800e+01	-1.328438e-04
2.755625e+01	-1.343828e-04
2.771541e+01	-1.359397e-04
2.787550e+01	-1.375145e-04
2.803650e+01	-1.391076e-04
2.819844e+01	-1.407192e-04
2.836131e+01	-1.423495e-04
2.852513e+01	-1.439986e-04
2.868989e+01	-1.456668e-04
2.885560e+01	-1.473544e-04
2.902227e+01	-1.490615e-04
2.918990e+01	-1.507884e-04
2.935850e+01	-1.525353e-04
2.952807e+01	-1.543024e-04
2.969863e+01	-1.560900e-04
2.987016e+01	-1.578983e-04
3.004269e+01	-1.597276e-04
3.021622e+01	-1.615781e-04
3.039075e+01	-1.634499e-04
3.056628e+01	-1.653435e-04
3.074283e+01	-1.672590e-04
3.092040e+01	-1.691967e-04
3.109900e+01	-1.711569e-04
3.127862e+01	-1.731398e-04
3.145929e+01	-1.751456e-04
3.164099e+01	-1.771747e-04
3.182375e+01	-1.792272e-04
3.200756e+01	-1.813036e-04
3.219244e+01	-1.834040e-04
3.237838e+01	-1.855287e-04
3.256540e+01	-1.876781e-04
3.275349e+01	-1.898523e-04
3.294268e+01	-1.920518e-04
3.313295e+01	-1.942767e-04
3.332433e+01	-1.965274e-04
3.351681e+01	-1.988042e-04
3.371040e+01	-2.011073e-04
3.390511e+01	-2.034372e-04
3.410094e+01	-2.057940e-04
3.429791e+01	-2.081781e-04
3.449601e+01	-2.105899e-04
3.469526e+01	-2.130295e-04
3.489566e+01	-2.154975e-04
3.509721e+01	-2.179940e-04
3.529993e+01	-2.205195e-04
3.550382e+01	-2.230742e-04
3.570889e+01	-2.256585e-04
3.591515e+01	-2.282727e-04
3.612259e+01	-2.309173e-04
3.633123e+01	-2.335924e-04
3.654108e+01	-2.362986e-04
3.675214e+01	-2.390361e-04
3.696442e+01	-2.418053e-04
3.717792e+01	-2.446066e-04
3.739266e+01	-2.474404e-04
3.760864e+01	-2.503070e-04
3.782587e+01	-2.532068e-04
3.804435e+01	-2.561402e-04
3.826409e+01	-2.591075e-04
3.848510e+01	-2.621093e-04
3.870739e+01	-2.651458e-04
3.893096e+01	-2.682175e-04
3.915583e+01	-2.713248e-04
3.938199e+01	-2.744680e-04
3.960946e+01	-2.776477e-04
3.983824e+01	-2.808642e-04
4.006834e+01	-2.841180e-04
4.029978e+01	-2.874095e-04
4.053255e+01	-2.907391e-04
4.076666e+01	-2.941073e-04
4.100213e+01	-2.975145e-04
4.123896e+01	-3.009612e-04
4.147715e+01	-3.044477e-04
4.171672e+01	-3.079747e-04
4.195767e+01	-3.115426e-04
4.220002e+01	-3.151518e-04
4.244377e+01	-3.188027e-04
4.268892e+01	-3.224960e-04
4.293549e+01	-3.262321e-04
4.318348e+01	-3.300114e-04
4.343291e+01	-3.338346e-04
4.368377e+01	-3.377020e-04
4.393609e+01	-3.416142e-04
4.418986e+01	-3.455717e-04
4.444510e+01	-3.495751e-04
4.470182e+01	-3.536249e-04
4.496001e+01	-3.577216e-04
4.521970e+01	-3.618657e-04
4.548089e+01	-3.660578e-04
4.574358e+01	-3.702985e-04
4.600779e+01	-3.745883e-04
4.627353e+01	-3.789279e-04
4.654081e+01	-3.833177e-04
4.680963e+01	-3.877583e-04
4.708000e+01	-3.922504e-04
4.735193e+01	-3.967945e-04
4.762543e+01	-4.013913e-04
4.790051e+01	-4.060413e-04
4.817719e+01	-4.107452e-04
4.845545e+01	-4.155035e-04
4.873533e+01	-4.203170e-04
4.901682e+01	-4.251863e-04
4.929994e+01	-4.301119e-04
4.958470e+01	-4.350946e-04
4.987110e+01	-4.401351e-04
5.015915e+01	-4.452339e-04
5.044887e+01	-4.503918e-04
5.074026e+01	-4.556094e-04
5.103333e+01	-4.608875e-04
5.132810e+01	-4.662267e-04
5.162457e+01	-4.716278e-04
5.192275e+01	-4.770915e-04
5.222265e+01	-4.826184e-04
5.252429e+01	-4.882093e-04
5.282767e+01	-4.938651e-04
5.313280e+01	-4.995863e-04
5.343969e+01	-5.053738e-04
5.374836e+01	-5.112283e-04
5.405880e+01	-5.171507e-04
5.437105e+01	-5.231417e-04
5.468509e+01	-5.292021e-04
5.500095e+01	-5.353326e-04
5.531863e+01	-5.415342e-04
5.563815e+01	-5.478077e-04
5.595951e+01	-5.541538e-04
5.628273e+01	-5.605734e-04
5.660782e+01	-5.670673e-04
5.693479e+01	-5.736365e-04
5.726364e+01	-5.802818e-04
5.759439e+01	-5.870041e-04
5.792705e+01	-5.938042e-04
5.826164e+01	-6.006831e-04
5.859815e+01	-6.076417e-04
5.893662e+01	-6.146809e-04
5.927703e+01	-6.218017e-04
5.961941e+01	-6.290049e-04
5.996377e+01	-6.362916e-04
6.031012e+01	-6.436626e-04
6.065847e+01	-6.511191e-04
6.100883e+01	-6.586619e-04
6.136121e+01	-6.662921e-04
6.171563e+01	-6.740107e-04
6.207210e+01	-6.818187e-04
6.243063e+01	-6.897171e-04
6.279122e+01	-6.977070e-04
6.315390e+01	-7.057895e-04
6.351868e+01	-7.139656e-04
6.388556e+01	-7.222364e-04
6.425456e+01	-7.306030e-04
6.462569e+01	-7.390665e-04
6.499897e+01	-7.476280e-04
6.537440e+01	-7.562888e-04
6.575200e+01	-7.650498e-04
6.613178e+01	-7.739123e-04
6.651375e+01	-7.828775e-04
6.689793e+01	-7.919465e-04
6.728433e+01	-8.011206e-04
6.767297e+01	-8.104009e-04
6.806384e+01	-8.197888e-04
6.845698e+01	-8.292853e-04
6.885238e+01	-8.388919e-04
6.925007e+01	-8.486098e-04
6.965005e+01	-8.584402e-04
7.005235e+01	-8.683844e-04
7.045697e+01	-8.784439e-04
7.086393e+01	-8.886199e-04
7.127323e+01	-8.989137e-04
7.168490e+01	-9.093268e-04
7.209895e+01	-9.198604e-04
7.251539e+01	-9.305161e-04
7.293424e+01	-9.412953e-04
7.335551e+01	-9.521992e-04
7.377920e+01	-9.632295e-04
7.420535e+01	-9.743875e-04
7.463396e+01	-9.856748e-04
7.506504e+01	-9.970928e-04
7.549861e+01	-1.008643e-03
7.593469e+01	-1.020327e-03
7.637328e+01	-1.032146e-03
7.681441e+01	-1.044103e-03
7.725809e+01	-1.056197e-03
7.770433e+01	-1.068432e-03
7.815315e+01	-1.080809e-03
7.860456e+01	-1.093329e-03
7.905857e+01	-1.105994e-03
7.951521e+01	-1.118805e-03
7.997449e+01	-1.131765e-03
8.043642e+01	-1.144875e-03
8.090102e+01	-1.158137e-03
8.136830e+01	-1.171553e-03
8.183828e+01	-1.185124e-03
8.231097e+01	-1.198852e-03
8.278640e+01	-1.212739e-03
8.326457e+01	-1.226787e-03
8.374550e+01	-1.240997e-03
8.422921e+01	-1.255373e-03
8.471572e+01	-1.269914e-03
8.520503e+01	-1.284624e-03
8.569717e+01	-1.299505e-03
8.619215e+01	-1.314558e-03
8.669000e+01	-1.329785e-03
8.719071e+01	-1.345188e-03
8.769432e+01	-1.360770e-03
8.820084e+01	-1.376533e-03
8.871029e+01	-1.392478e-03
8.922267e+01	-1.408607e-03
8.973802e+01	-1.424924e-03
9.025634e+01	-1.441429e-03
9.077766e+01	-1.458126e-03
9.130199e+01	-1.475016e-03
9.182935e+01	-1.492101e-03
9.235975e+01	-1.509384e-03
9.289321e+01	-1.526868e-03
9.342976e+01	-1.544554e-03
9.396941e+01	-1.562445e-03
9.451217e+01	-1.580543e-03
9.505807e+01	-1.598851e-03
9.560712e+01	-1.617370e-03
9.615934e+01	-1.636104e-03
9.671476e+01	-1.655055e-03
9.727338e+01	-1.674226e-03
9.783522e+01	-1.693619e-03
9.840032e+01	-1.713236e-03
9.896867e+01	-1.733080e-03
9.954031e+01	-1.753154e-03
1.001153e+02	-1.773461e-03
1.006935e+02	-1.794003e-03
1.012751e+02	-1.814782e-03
1.018601e+02	-1.835803e-03
1.024484e+02	-1.857066e-03
1.030402e+02	-1.878576e-03
1.036353e+02	-1.900335e-03
1.042339e+02	-1.922346e-03
1.048360e+02	-1.944612e-03
1.054415e+02	-1.967136e-03
1.060505e+02	-1.989921e-03
1.066631e+02	-2.012969e-03
1.072791e+02	-2.036284e-03
1.078988e+02	-2.059870e-03
1.085220e+02	-2.083728e-03
1.091488e+02	-2.107863e-03
1.097793e+02	-2.132277e-03
1.104133e+02	-2.156974e-03
1.110511e+02	-2.181956e-03
1.116925e+02	-2.207229e-03
1.123376e+02	-2.232793e-03
1.129865e+02	-2.258654e-03
1.136391e+02	-2.284814e-03
1.142955e+02	-2.311277e-03
1.149556e+02	-2.338047e-03
1.156196e+02	-2.365127e-03
1.162874e+02	-2.392520e-03
1.169591e+02	-2.420230e-03
1.176347e+02	-2.448261e-03
1.183141e+02	-2.476617e-03
1.189975e+02	-2.505301e-03
1.196848e+02	-2.534317e-03
1.203761e+02	-2.563669e-03
1.210714e+02	-2.593361e-03
1.217707e+02	-2.623396e-03
1.224740e+02	-2.653780e-03
1.231814e+02	-2.684515e-03
1.238929e+02	-2.715606e-03
1.246085e+02	-2.747057e-03
1.253283e+02	-2.778872e-03
1.260522e+02	-2.811056e-03
1.267802e+02	-2.843612e-03
1.275125e+02	-2.876545e-03
1.282490e+02	-2.909859e-03
1.289898e+02	-2.943560e-03
1.297348e+02	-2.977650e-03
1.304842e+02	-3.012135e-03
1.312378e+02	-3.047019e-03
1.319959e+02	-3.082307e-03
1.327583e+02	-3.118003e-03
1.335251e+02	-3.154113e-03
1.342963e+02	-3.190641e-03
1.350720e+02	-3.227591e-03
1.358522e+02	-3.264970e-03
1.366368e+02	-3.302781e-03
1.374260e+02	-3.341030e-03
1.382198e+02	-3.379721e-03
1.390182e+02	-3.418861e-03
1.398211e+02	-3.458454e-03
1.406287e+02	-3.498505e-03
1.414410e+02	-3.539019e-03
1.422579e+02	-3.580003e-03
1.430796e+02	-3.621461e-03
1.439060e+02	-3.663398e-03
1.447372e+02	-3.705822e-03
1.455732e+02	-3.748736e-03
1.464141e+02	-3.792147e-03
1.472597e+02	-3.836061e-03
1.481103e+02	-3.880483e-03
1.489658e+02	-3.925419e-03
1.498262e+02	-3.970875e-03
1.506916e+02	-4.016857e-03
1.515620e+02	-4.063372e-03
1.524374e+02	-4.110425e-03
1.533179e+02	-4.158022e-03
1.542034e+02	-4.206171e-03
1.550941e+02	-4.254876e-03
1.559899e+02	-4.304146e-03
1.568909e+02	-4.353985e-03
1.577971e+02	-4.404402e-03
1.587085e+02	-4.455402e-03
1.596252e+02	-4.506992e-03
1.605472e+02	-4.559179e-03
1.614745e+02	-4.611970e-03
1.624072e+02	-4.665372e-03
1.633453e+02	-4.719392e-03
1.642887e+02	-4.774038e-03
1.652377e+02	-4.829315e-03
1.661921e+02	-4.885233e-03
1.671520e+02	-4.941797e-03
1.681175e+02	-4.999016e-03
1.690885e+02	-5.056897e-03
1.700651e+02	-5.115448e-03
1.710474e+02	-5.174676e-03
1.720354e+02	-5.234590e-03
1.730291e+02	-5.295197e-03
1.740285e+02	-5.356506e-03
1.750337e+02	-5.418523e-03
1.760446e+02	-5.481259e-03
1.770615e+02	-5.544720e-03
1.780842e+02	-5.608915e-03
1.791128e+02	-5.673853e-03
1.801473e+02	-5.739543e-03
1.811878e+02	-5.805992e-03
1.822344e+02	-5.873211e-03
1.832870e+02	-5.941207e-03
1.843456e+02	-6.009989e-03
1.854104e+02	-6.079568e-03
1.864813e+02	-6.149951e-03
1.875584e+02	-6.221149e-03
1.886418e+02	-6.293170e-03
1.897313e+02	-6.366025e-03
1.908272e+02	-6.439722e-03
1.919294e+02	-6.514272e-03
1.930380e+02	-6.589684e-03
1.941530e+02	-6.665968e-03
1.952744e+02	-6.743135e-03
1.964023e+02	-6.821194e-03
1.975367e+02	-6.900157e-03
1.986777e+02	-6.980032e-03
1.998252e+02	-7.060832e-03
2.009794e+02	-7.142566e-03
2.021403e+02	-7.225246e-03
2.033078e+02	-7.308881e-03
2.044821e+02	-7.393484e-03
2.056632e+02	-7.479066e-03
2.068511e+02	-7.565637e-03
2.080459e+02	-7.653209e-03
2.092475e+02	-7.741795e-03
2.104561e+02	-7.831404e-03
2.116717e+02	-7.922050e-03
2.128943e+02	-8.013744e-03
2.141240e+02	-8.106499e-03
2.153608e+02	-8.200325e-03
2.166047e+02	-8.295237e-03
2.178558e+02	-8.391247e-03
2.191141e+02	-8.488366e-03
2.203797e+02	-8.586609e-03
2.216526e+02	-8.685987e-03
2.229329e+02	-8.786514e-03
2.242205e+02	-8.888204e-03
2.255156e+02	-8.991069e-03
2.268182e+02	-9.095123e-03
2.281283e+02	-9.200381e-03
2.294459e+02	-9.306855e-03
2.307712e+02	-9.414560e-03
2.321041e+02	-9.523510e-03
2.334447e+02	-9.633720e-03
2.347931e+02	-9.745203e-03
2.361493e+02	-9.857976e-03
2.375133e+02	-9.972051e-03
2.388851e+02	-1.008745e-02
2.402649e+02	-1.020417e-02
2.416527e+02	-1.032225e-02
2.430484e+02	-1.044169e-02
2.444523e+02	-1.056251e-02
2.458642e+02	-1.068473e-02
2.472843e+02	-1.080836e-02
2.487126e+02	-1.093342e-02
2.501492e+02	-1.105993e-02
2.515940e+02	-1.118789e-02
2.530472e+02	-1.131734e-02
2.545088e+02	-1.144828e-02
2.559789e+02	-1.158073e-02
2.574574e+02	-1.171472e-02
2.589444e+02	-1.185025e-02
2.604401e+02	-1.198735e-02
2.619444e+02	-1.212603e-02
2.634574e+02	-1.226632e-02
2.649791e+02	-1.240822e-02
2.665096e+02	-1.255176e-02
2.680489e+02	-1.269697e-02
2.695972e+02	-1.284385e-02
2.711544e+02	-1.299242e-02
2.727205e+02	-1.314271e-02
2.742958e+02	-1.329474e-02
2.758801e+02	-1.344853e-02
2.774736e+02	-1.360409e-02
2.790762e+02	-1.376144e-02
2.806882e+02	-1.392062e-02
2.823094e+02	-1.408163e-02
2.839400e+02	-1.424450e-02
2.855800e+02	-1.440925e-02
2.872295e+02	-1.457590e-02
2.888886e+02	-1.474448e-02
2.905572e+02	-1.491501e-02
2.922354e+02	-1.508750e-02
2.939234e+02	-1.526198e-02
2.956211e+02	-1.543848e-02
2.973286e+02	-1.561702e-02
2.990459e+02	-1.579761e-02
3.007732e+02	-1.598030e-02
3.025104e+02	-1.616509e-02
3.042577e+02	-1.635201e-02
3.060151e+02	-1.654109e-02
3.077826e+02	-1.673235e-02
3.095604e+02	-1.692582e-02
3.113484e+02	-1.712152e-02
3.131467e+02	-1.731948e-02
3.149554e+02	-1.751973e-02
3.167746e+02	-1.772228e-02
3.186043e+02	-1.792718e-02
3.204445e+02	-1.813443e-02
3.222954e+02	-1.834408e-02
3.241570e+02	-1.855615e-02
3.260293e+02	-1.877066e-02
3.279124e+02	-1.898764e-02
3.298064e+02	-1.920713e-02
3.317114e+02	-1.942915e-02
3.336273e+02	-1.965373e-02
3.355544e+02	-1.988090e-02
3.374925e+02	-2.011069e-02
3.394418e+02	-2.034313e-02
3.414024e+02	-2.057825e-02
3.433744e+02	-2.081609e-02
3.453577e+02	-2.105666e-02
3.473525e+02	-2.130001e-02
3.493588e+02	-2.154616e-02
3.513766e+02	-2.179515e-02
3.534062e+02	-2.204701e-02
3.554474e+02	-2.230177e-02
3.575005e+02	-2.255947e-02
3.595654e+02	-2.282014e-02
3.616422e+02	-2.308381e-02
3.637311e+02	-2.335052e-02
3.658320e+02	-2.362030e-02
3.679450e+02	-2.389320e-02
3.700702e+02	-2.416923e-02
3.722077e+02	-2.444845e-02
3.743576e+02	-2.473088e-02
3.765199e+02	-2.501657e-02
3.786946e+02	-2.530554e-02
3.808820e+02	-2.559785e-02
3.830819e+02	-2.589352e-02
3.852946e+02	-2.619260e-02
3.875200e+02	-2.649512e-02
3.897583e+02	-2.680112e-02
3.920096e+02	-2.711064e-02
3.942738e+02	-2.742373e-02
3.965511e+02	-2.774043e-02
3.988416e+02	-2.806077e-02
4.011452e+02	-2.838479e-02
4.034622e+02	-2.871255e-02
4.057926e+02	-2.904407e-02
4.081365e+02	-2.937942e-02
4.104938e+02	-2.971862e-02
4.128648e+02	-3.006172e-02
4.152495e+02	-3.040877e-02
4.176480e+02	-3.075981e-02
4.200603e+02	-3.111489e-02
4.224866e+02	-3.147406e-02
4.249268e+02	-3.183735e-02
4.273812e+02	-3.220482e-02
4.298497e+02	-3.257652e-02
4.323325e+02	-3.295250e-02
4.348297e+02	-3.333279e-02
4.373412e+02	-3.371746e-02
4.398673e+02	-3.410654e-02
4.424079e+02	-3.450010e-02
4.449633e+02	-3.489819e-02
4.475334e+02	-3.530084e-02
4.501183e+02	-3.570813e-02
4.527182e+02	-3.612009e-02
4.553330e+02	-3.653679e-02
4.579630e+02	-3.695827e-02
4.606082e+02	-3.738460e-02
4.632687e+02	-3.781582e-02
4.659445e+02	-3.825199e-02
4.686358e+02	-3.869317e-02
4.713426e+02	-3.913942e-02
4.740650e+02	-3.959078e-02
4.768032e+02	-4.004733e-02
4.795572e+02	-4.050913e-02
4.823271e+02	-4.097622e-02
4.851130e+02	-4.144867e-02
4.879150e+02	-4.192654e-02
4.907332e+02	-4.240989e-02
4.935676e+02	-4.289879e-02
4.964185e+02	-4.339330e-02
4.992858e+02	-4.389347e-02
5.021696e+02	-4.439939e-02
5.050701e+02	-4.491110e-02
5.079874e+02	-4.542868e-02
5.109215e+02	-4.595220e-02
5.138726e+02	-4.648171e-02
5.168407e+02	-4.701729e-02
5.198259e+02	-4.755901e-02
5.228284e+02	-4.810694e-02
5.258482e+02	-4.866114e-02
5.288855e+02	-4.922170e-02
5.319403e+02	-4.978867e-02
5.350128e+02	-5.036214e-02
5.381030e+02	-5.094217e-02
5.412111e+02	-5.152884e-02
5.443371e+02	-5.212223e-02
5.474812e+02	-5.272241e-02
5.506434e+02	-5.332946e-02
5.538239e+02	-5.394345e-02
5.570228e+02	-5.456447e-02
5.602401e+02	-5.519259e-02
5.634760e+02	-5.582790e-02
5.667306e+02	-5.647047e-02
5.700040e+02	-5.712039e-02
5.732964e+02	-5.777774e-02
5.766077e+02	-5.844260e-02
5.799382e+02	-5.911506e-02
5.832879e+02	-5.979521e-02
5.866569e+02	-6.048312e-02
5.900454e+02	-6.117890e-02
5.934535e+02	-6.188262e-02
5.968813e+02	-6.259438e-02
6.003288e+02	-6.331426e-02
6.037963e+02	-6.404236e-02
6.072838e+02	-6.477877e-02
6.107914e+02	-6.552359e-02
6.143194e+02	-6.627690e-02
6.178676e+02	-6.703881e-02
6.214364e+02	-6.780941e-02
6.250258e+02	-6.858879e-02
6.286359e+02	-6.937707e-02
6.322669e+02	-7.017432e-02
6.359189e+02	-7.098067e-02
6.395919e+02	-7.179620e-02
6.432862e+02	-7.262103e-02
6.470017e+02	-7.345525e-02
6.507388e+02	-7.429897e-02
6.544974e+02	-7.515230e-02
6.582778e+02	-7.601534e-02
6.620800e+02	-7.688821e-02
6.659041e+02	-7.777101e-02
6.697504e+02	-7.866385e-02
6.736188e+02	-7.956685e-02
6.775096e+02	-8.048012e-02
6.814229e+02	-8.140377e-02
6.853587e+02	-8.233792e-02
6.893173e+02	-8.328269e-02
6.932988e+02	-8.423819e-02
6.973033e+02	-8.520455e-02
7.013309e+02	-8.618189e-02
