Frequency(Hz)	Magnitude(dB)
1.000000e+01	-1.451749e-05
1.005776e+01	-1.468568e-05
1.011585e+01	-1.485581e-05
1.017428e+01	-1.502792e-05
1.023305e+01	-1.520202e-05
1.029215e+01	-1.537814e-05
1.035160e+01	-1.555630e-05
1.041139e+01	-1.573653e-05
1.047153e+01	-1.591884e-05
1.053201e+01	-1.610326e-05
1.059284e+01	-1.628982e-05
1.065403e+01	-1.647854e-05
1.071556e+01	-1.666945e-05
1.077746e+01	-1.686257e-05
1.083971e+01	-1.705793e-05
1.090232e+01	-1.725555e-05
1.096529e+01	-1.745546e-05
1.102862e+01	-1.765769e-05
1.109232e+01	-1.786225e-05
1.115639e+01	-1.806919e-05
1.122083e+01	-1.827853e-05
1.128564e+01	-1.849029e-05
1.135083e+01	-1.870451e-05
1.141639e+01	-1.892120e-05
1.148233e+01	-1.914041e-05
1.154865e+01	-1.936216e-05
1.161536e+01	-1.958647e-05
1.168245e+01	-1.981339e-05
1.174992e+01	-2.004293e-05
1.181779e+01	-2.027513e-05
1.188605e+01	-2.051002e-05
1.195470e+01	-2.074764e-05
1.202375e+01	-2.098800e-05
1.209320e+01	-2.123116e-05
1.216305e+01	-2.147712e-05
1.223330e+01	-2.172594e-05
1.230396e+01	-2.197764e-05
1.237503e+01	-2.223226e-05
1.244651e+01	-2.248982e-05
1.251840e+01	-2.275038e-05
1.259070e+01	-2.301394e-05
1.266343e+01	-2.328057e-05
1.273657e+01	-2.355028e-05
1.281014e+01	-2.382311e-05
1.288413e+01	-2.409911e-05
1.295855e+01	-2.437830e-05
1.303339e+01	-2.466073e-05
1.310867e+01	-2.494643e-05
1.318439e+01	-2.523544e-05
1.326054e+01	-2.552780e-05
1.333713e+01	-2.582355e-05
1.341417e+01	-2.612272e-05
1.349165e+01	-2.642536e-05
1.356958e+01	-2.673150e-05
1.364795e+01	-2.704119e-05
1.372678e+01	-2.735447e-05
1.380607e+01	-2.767138e-05
1.388581e+01	-2.799196e-05
1.396602e+01	-2.831625e-05
1.404668e+01	-2.864430e-05
1.412782e+01	-2.897616e-05
1.420942e+01	-2.931185e-05
1.429149e+01	-2.965144e-05
1.437404e+01	-2.999496e-05
1.445706e+01	-3.034245e-05
1.454057e+01	-3.069398e-05
1.462455e+01	-3.104958e-05
1.470902e+01	-3.140929e-05
1.479398e+01	-3.177318e-05
1.487943e+01	-3.214128e-05
1.496537e+01	-3.251364e-05
1.505181e+01	-3.289032e-05
1.513875e+01	-3.327136e-05
1.522619e+01	-3.365682e-05
1.531414e+01	-3.404674e-05
1.540259e+01	-3.444118e-05
1.549156e+01	-3.484019e-05
1.558103e+01	-3.524382e-05
1.567103e+01	-3.565213e-05
1.576155e+01	-3.606517e-05
1.585258e+01	-3.648299e-05
1.594415e+01	-3.690565e-05
1.603624e+01	-3.733321e-05
1.612886e+01	-3.776573e-05
1.622202e+01	-3.820325e-05
1.631572e+01	-3.864585e-05
1.640996e+01	-3.909357e-05
1.650474e+01	-3.954647e-05
1.660008e+01	-4.000463e-05
1.669596e+01	-4.046809e-05
1.679239e+01	-4.093692e-05
1.688938e+01	-4.141119e-05
1.698694e+01	-4.189095e-05
1.708505e+01	-4.237626e-05
1.718373e+01	-4.286720e-05
1.728299e+01	-4.336383e-05
1.738281e+01	-4.386621e-05
1.748322e+01	-4.437441e-05
1.758420e+01	-4.488849e-05
1.768576e+01	-4.540854e-05
1.778792e+01	-4.593460e-05
1.789066e+01	-4.646677e-05
1.799399e+01	-4.700509e-05
1.809793e+01	-4.754966e-05
1.820246e+01	-4.810053e-05
1.830760e+01	-4.865779e-05
1.841334e+01	-4.922150e-05
1.851969e+01	-4.979174e-05
1.862666e+01	-5.036859e-05
1.873425e+01	-5.095212e-05
1.884246e+01	-5.154241e-05
1.895129e+01	-5.213954e-05
1.906075e+01	-5.274358e-05
1.917085e+01	-5.335463e-05
1.928158e+01	-5.397275e-05
1.939295e+01	-5.459804e-05
1.950496e+01	-5.523057e-05
1.961762e+01	-5.587043e-05
1.973093e+01	-5.651770e-05
1.984490e+01	-5.717247e-05
1.995952e+01	-5.783482e-05
2.007480e+01	-5.850485e-05
2.019076e+01	-5.918264e-05
2.030738e+01	-5.986828e-05
2.042467e+01	-6.056187e-05
2.054264e+01	-6.126349e-05
2.066130e+01	-6.197324e-05
2.078064e+01	-6.269121e-05
2.090066e+01	-6.341750e-05
2.102139e+01	-6.415221e-05
2.114280e+01	-6.489542e-05
2.126492e+01	-6.564725e-05
2.138775e+01	-6.640778e-05
2.151128e+01	-6.717713e-05
2.163553e+01	-6.795539e-05
2.176050e+01	-6.874267e-05
2.188619e+01	-6.953906e-05
2.201260e+01	-7.034468e-05
2.213974e+01	-7.115964e-05
2.226762e+01	-7.198404e-05
2.239624e+01	-7.281799e-05
2.252560e+01	-7.366160e-05
2.265571e+01	-7.451498e-05
2.278656e+01	-7.537825e-05
2.291818e+01	-7.625152e-05
2.305055e+01	-7.713491e-05
2.318369e+01	-7.802853e-05
2.331760e+01	-7.893250e-05
2.345228e+01	-7.984695e-05
2.358774e+01	-8.077199e-05
2.372398e+01	-8.170775e-05
2.386101e+01	-8.265434e-05
2.399883e+01	-8.361191e-05
2.413745e+01	-8.458057e-05
2.427686e+01	-8.556045e-05
2.441709e+01	-8.655168e-05
2.455812e+01	-8.755439e-05
2.469997e+01	-8.856873e-05
2.484263e+01	-8.959481e-05
2.498612e+01	-9.063278e-05
2.513044e+01	-9.168277e-05
2.527559e+01	-9.274493e-05
2.542158e+01	-9.381940e-05
2.556842e+01	-9.490631e-05
2.571610e+01	-9.600581e-05
2.586463e+01	-9.711805e-05
2.601403e+01	-9.824318e-05
2.616428e+01	-9.938134e-05
2.631541e+01	-1.005327e-04
2.646740e+01	-1.016974e-04
2.662028e+01	-1.028756e-04
2.677404e+01	-1.040674e-04
2.692868e+01	-1.052730e-04
2.708422e+01	-1.064926e-04
2.724066e+01	-1.077264e-04
2.739800e+01	-1.089744e-04
2.755625e+01	-1.102369e-04
2.771541e+01	-1.115140e-04
2.787550e+01	-1.128059e-04
2.803650e+01	-1.141127e-04
2.819844e+01	-1.154348e-04
2.836131e+01	-1.167721e-04
2.852513e+01	-1.181249e-04
2.868989e+01	-1.194934e-04
2.885560e+01	-1.208777e-04
2.902227e+01	-1.222781e-04
2.918990e+01	-1.236947e-04
2.935850e+01	-1.251277e-04
2.952807e+01	-1.265774e-04
2.969863e+01	-1.280438e-04
2.987016e+01	-1.295272e-04
3.004269e+01	-1.310278e-04
3.021622e+01	-1.325457e-04
3.039075e+01	-1.340813e-04
3.056628e+01	-1.356346e-04
3.074283e+01	-1.372060e-04
3.092040e+01	-1.387955e-04
3.109900e+01	-1.404035e-04
3.127862e+01	-1.420301e-04
3.145929e+01	-1.436755e-04
3.164099e+01	-1.453400e-04
3.182375e+01	-1.470238e-04
3.200756e+01	-1.487270e-04
3.219244e+01	-1.504501e-04
3.237838e+01	-1.521930e-04
3.256540e+01	-1.539562e-04
3.275349e+01	-1.557398e-04
3.294268e+01	-1.575440e-04
3.313295e+01	-1.593692e-04
3.332433e+01	-1.612155e-04
3.351681e+01	-1.630832e-04
3.371040e+01	-1.649725e-04
3.390511e+01	-1.668837e-04
3.410094e+01	-1.688171e-04
3.429791e+01	-1.707729e-04
3.449601e+01	-1.727513e-04
3.469526e+01	-1.747526e-04
3.489566e+01	-1.767771e-04
3.509721e+01	-1.788251e-04
3.529993e+01	-1.808968e-04
3.550382e+01	-1.829925e-04
3.570889e+01	-1.851124e-04
3.591515e+01	-1.872570e-04
3.612259e+01	-1.894264e-04
3.633123e+01	-1.916209e-04
3.654108e+01	-1.938408e-04
3.675214e+01	-1.960864e-04
3.696442e+01	-1.983581e-04
3.717792e+01	-2.006561e-04
3.739266e+01	-2.029807e-04
3.760864e+01	-2.053322e-04
3.782587e+01	-2.077110e-04
3.804435e+01	-2.101173e-04
3.826409e+01	-2.125515e-04
3.848510e+01	-2.150139e-04
3.870739e+01	-2.175049e-04
3.893096e+01	-2.200247e-04
3.915583e+01	-2.225737e-04
3.938199e+01	-2.251522e-04
3.960946e+01	-2.277605e-04
3.983824e+01	-2.303991e-04
4.006834e+01	-2.330683e-04
4.029978e+01	-2.357684e-04
4.053255e+01	-2.384998e-04
4.076666e+01	-2.412628e-04
4.100213e+01	-2.440578e-04
4.123896e+01	-2.468852e-04
4.147715e+01	-2.497453e-04
4.171672e+01	-2.526386e-04
4.195767e+01	-2.555654e-04
4.220002e+01	-2.585261e-04
4.244377e+01	-2.615211e-04
4.268892e+01	-2.645508e-04
4.293549e+01	-2.676156e-04
4.318348e+01	-2.707160e-04
4.343291e+01	-2.738522e-04
4.368377e+01	-2.770247e-04
4.393609e+01	-2.802340e-04
4.418986e+01	-2.834805e-04
4.444510e+01	-2.867646e-04
4.470182e+01	-2.900867e-04
4.496001e+01	-2.934474e-04
4.521970e+01	-2.968469e-04
4.548089e+01	-3.002859e-04
4.574358e+01	-3.037646e-04
4.600779e+01	-3.072837e-04
4.627353e+01	-3.108435e-04
4.654081e+01	-3.144446e-04
4.680963e+01	-3.180874e-04
4.708000e+01	-3.217724e-04
4.735193e+01	-3.255001e-04
4.762543e+01	-3.292710e-04
4.790051e+01	-3.330855e-04
4.817719e+01	-3.369442e-04
4.845545e+01	-3.408477e-04
4.873533e+01	-3.447963e-04
4.901682e+01	-3.487907e-04
4.929994e+01	-3.528314e-04
4.958470e+01	-3.569189e-04
4.987110e+01	-3.610537e-04
5.015915e+01	-3.652365e-04
5.044887e+01	-3.694676e-04
5.074026e+01	-3.737478e-04
5.103333e+01	-3.780776e-04
5.132810e+01	-3.824576e-04
5.162457e+01	-3.868883e-04
5.192275e+01	-3.913703e-04
5.222265e+01	-3.959042e-04
5.252429e+01	-4.004906e-04
5.282767e+01	-4.051302e-04
5.313280e+01	-4.098235e-04
5.343969e+01	-4.145712e-04
5.374836e+01	-4.193739e-04
5.405880e+01	-4.242322e-04
5.437105e+01	-4.291469e-04
5.468509e+01	-4.341184e-04
5.500095e+01	-4.391475e-04
5.531863e+01	-4.442349e-04
5.563815e+01	-4.493812e-04
5.595951e+01	-4.545872e-04
5.628273e+01	-4.598534e-04
5.660782e+01	-4.651806e-04
5.693479e+01	-4.705696e-04
5.726364e+01	-4.760210e-04
5.759439e+01	-4.815355e-04
5.792705e+01	-4.871139e-04
5.826164e+01	-4.927569e-04
5.859815e+01	-4.984653e-04
5.893662e+01	-5.042399e-04
5.927703e+01	-5.100813e-04
5.961941e+01	-5.159903e-04
5.996377e+01	-5.219679e-04
6.031012e+01	-5.280147e-04
6.065847e+01	-5.341315e-04
6.100883e+01	-5.403191e-04
6.136121e+01	-5.465785e-04
6.171563e+01	-5.529104e-04
6.207210e+01	-5.593156e-04
6.243063e+01	-5.657950e-04
6.279122e+01	-5.723494e-04
6.315390e+01	-5.789798e-04
6.351868e+01	-5.856870e-04
6.388556e+01	-5.924719e-04
6.425456e+01	-5.993354e-04
6.462569e+01	-6.062783e-04
6.499897e+01	-6.133017e-04
6.537440e+01	-6.204065e-04
6.575200e+01	-6.275936e-04
6.613178e+01	-6.348639e-04
6.651375e+01	-6.422184e-04
6.689793e+01	-6.496581e-04
6.728433e+01	-6.571840e-04
6.767297e+01	-6.647971e-04
6.806384e+01	-6.724984e-04
6.845698e+01	-6.802888e-04
6.885238e+01	-6.881695e-04
6.925007e+01	-6.961415e-04
6.965005e+01	-7.042059e-04
7.005235e+01	-7.123636e-04
7.045697e+01	-7.206159e-04
7.086393e+01	-7.289637e-04
7.127323e+01	-7.374082e-04
7.168490e+01	-7.459506e-04
7.209895e+01	-7.545919e-04
7.251539e+01	-7.633332e-04
7.293424e+01	-7.721759e-04
7.335551e+01	-7.811209e-04
7.377920e+01	-7.901696e-04
7.420535e+01	-7.993231e-04
7.463396e+01	-8.085826e-04
7.506504e+01	-8.179494e-04
7.549861e+01	-8.274247e-04
7.593469e+01	-8.370097e-04
7.637328e+01	-8.467057e-04
7.681441e+01	-8.565141e-04
7.725809e+01	-8.664360e-04
7.770433e+01	-8.764729e-04
7.815315e+01	-8.866261e-04
7.860456e+01	-8.968968e-04
7.905857e+01	-9.072865e-04
7.951521e+01	-9.177966e-04
7.997449e+01	-9.284283e-04
8.043642e+01	-9.391833e-04
8.090102e+01	-9.500628e-04
8.136830e+01	-9.610683e-04
8.183828e+01	-9.722013e-04
8.231097e+01	-9.834632e-04
8.278640e+01	-9.948556e-04
8.326457e+01	-1.006380e-03
8.374550e+01	-1.018038e-03
8.422921e+01	-1.029831e-03
8.471572e+01	-1.041760e-03
8.520503e+01	-1.053828e-03
8.569717e+01	-1.066035e-03
8.619215e+01	-1.078384e-03
8.669000e+01	-1.090876e-03
8.719071e+01	-1.103512e-03
8.769432e+01	-1.116295e-03
8.820084e+01	-1.129226e-03
8.871029e+01	-1.142307e-03
8.922267e+01	-1.155539e-03
8.973802e+01	-1.168924e-03
9.025634e+01	-1.182465e-03
9.077766e+01	-1.196162e-03
9.130199e+01	-1.210018e-03
9.182935e+01	-1.224034e-03
9.235975e+01	-1.238213e-03
9.289321e+01	-1.252556e-03
9.342976e+01	-1.267065e-03
9.396941e+01	-1.281742e-03
9.451217e+01	-1.296589e-03
9.505807e+01	-1.311608e-03
9.560712e+01	-1.326801e-03
9.615934e+01	-1.342170e-03
9.671476e+01	-1.357717e-03
9.727338e+01	-1.373444e-03
9.783522e+01	-1.389353e-03
9.840032e+01	-1.405447e-03
9.896867e+01	-1.421727e-03
9.954031e+01	-1.438195e-03
1.001153e+02	-1.454854e-03
1.006935e+02	-1.471706e-03
1.012751e+02	-1.488753e-03
1.018601e+02	-1.505998e-03
1.024484e+02	-1.523442e-03
1.030402e+02	-1.541089e-03
1.036353e+02	-1.558939e-03
1.042339e+02	-1.576997e-03
1.048360e+02	-1.595263e-03
1.054415e+02	-1.613741e-03
1.060505e+02	-1.632434e-03
1.066631e+02	-1.651342e-03
1.072791e+02	-1.670470e-03
1.078988e+02	-1.689819e-03
1.085220e+02	-1.709392e-03
1.091488e+02	-1.729192e-03
1.097793e+02	-1.749221e-03
1.104133e+02	-1.769482e-03
1.110511e+02	-1.789978e-03
1.116925e+02	-1.810711e-03
1.123376e+02	-1.831684e-03
1.129865e+02	-1.852900e-03
1.136391e+02	-1.874362e-03
1.142955e+02	-1.896072e-03
1.149556e+02	-1.918033e-03
1.156196e+02	-1.940249e-03
1.162874e+02	-1.962723e-03
1.169591e+02	-1.985456e-03
1.176347e+02	-2.008453e-03
1.183141e+02	-2.031716e-03
1.189975e+02	-2.055248e-03
1.196848e+02	-2.079053e-03
1.203761e+02	-2.103134e-03
1.210714e+02	-2.127493e-03
1.217707e+02	-2.152134e-03
1.224740e+02	-2.177061e-03
1.231814e+02	-2.202277e-03
1.238929e+02	-2.227784e-03
1.246085e+02	-2.253587e-03
1.253283e+02	-2.279688e-03
1.260522e+02	-2.306092e-03
1.267802e+02	-2.332802e-03
1.275125e+02	-2.359820e-03
1.282490e+02	-2.387152e-03
1.289898e+02	-2.414800e-03
1.297348e+02	-2.442768e-03
1.304842e+02	-2.471060e-03
1.312378e+02	-2.499680e-03
1.319959e+02	-2.528631e-03
1.327583e+02	-2.557917e-03
1.335251e+02	-2.587543e-03
1.342963e+02	-2.617511e-03
1.350720e+02	-2.647826e-03
1.358522e+02	-2.678493e-03
1.366368e+02	-2.709514e-03
1.374260e+02	-2.740894e-03
1.382198e+02	-2.772638e-03
1.390182e+02	-2.804750e-03
1.398211e+02	-2.837233e-03
1.406287e+02	-2.870092e-03
1.414410e+02	-2.903332e-03
1.422579e+02	-2.936956e-03
1.430796e+02	-2.970970e-03
1.439060e+02	-3.005377e-03
1.447372e+02	-3.040183e-03
1.455732e+02	-3.075392e-03
1.464141e+02	-3.111008e-03
1.472597e+02	-3.147037e-03
1.481103e+02	-3.183483e-03
1.489658e+02	-3.220351e-03
1.498262e+02	-3.257645e-03
1.506916e+02	-3.295372e-03
1.515620e+02	-3.333535e-03
1.524374e+02	-3.372140e-03
1.533179e+02	-3.411191e-03
1.542034e+02	-3.450695e-03
1.550941e+02	-3.490656e-03
1.559899e+02	-3.531080e-03
1.568909e+02	-3.571972e-03
1.577971e+02	-3.613337e-03
1.587085e+02	-3.655180e-03
1.596252e+02	-3.697509e-03
1.605472e+02	-3.740327e-03
1.614745e+02	-3.783640e-03
1.624072e+02	-3.827456e-03
1.633453e+02	-3.871778e-03
1.642887e+02	-3.916613e-03
1.652377e+02	-3.961967e-03
1.661921e+02	-4.007847e-03
1.671520e+02	-4.054257e-03
1.681175e+02	-4.101204e-03
1.690885e+02	-4.148695e-03
1.700651e+02	-4.196735e-03
1.710474e+02	-4.245332e-03
1.720354e+02	-4.294491e-03
1.730291e+02	-4.344219e-03
1.740285e+02	-4.394522e-03
1.750337e+02	-4.445407e-03
1.760446e+02	-4.496882e-03
1.770615e+02	-4.548952e-03
1.780842e+02	-4.601625e-03
1.791128e+02	-4.654907e-03
1.801473e+02	-4.708806e-03
1.811878e+02	-4.763329e-03
1.822344e+02	-4.818483e-03
1.832870e+02	-4.874275e-03
1.843456e+02	-4.930712e-03
1.854104e+02	-4.987803e-03
1.864813e+02	-5.045554e-03
1.875584e+02	-5.103974e-03
1.886418e+02	-5.163069e-03
1.897313e+02	-5.222849e-03
1.908272e+02	-5.283320e-03
1.919294e+02	-5.344491e-03
1.930380e+02	-5.406370e-03
1.941530e+02	-5.468964e-03
1.952744e+02	-5.532283e-03
1.964023e+02	-5.596335e-03
1.975367e+02	-5.661127e-03
1.986777e+02	-5.726669e-03
1.998252e+02	-5.792970e-03
2.009794e+02	-5.860038e-03
2.021403e+02	-5.927881e-03
2.033078e+02	-5.996510e-03
2.044821e+02	-6.065932e-03
2.056632e+02	-6.136158e-03
2.068511e+02	-6.207196e-03
2.080459e+02	-6.279056e-03
2.092475e+02	-6.351747e-03
2.104561e+02	-6.425279e-03
2.116717e+02	-6.499661e-03
2.128943e+02	-6.574904e-03
2.141240e+02	-6.651018e-03
2.153608e+02	-6.728012e-03
2.166047e+02	-6.805896e-03
2.178558e+02	-6.884681e-03
2.191141e+02	-6.964378e-03
2.203797e+02	-7.044997e-03
2.216526e+02	-7.126547e-03
2.229329e+02	-7.209042e-03
2.242205e+02	-7.292490e-03
2.255156e+02	-7.376903e-03
2.268182e+02	-7.462293e-03
2.281283e+02	-7.548670e-03
2.294459e+02	-7.636046e-03
2.307712e+02	-7.724433e-03
2.321041e+02	-7.813842e-03
2.334447e+02	-7.904284e-03
2.347931e+02	-7.995773e-03
2.361493e+02	-8.088319e-03
2.375133e+02	-8.181936e-03
2.388851e+02	-8.276635e-03
2.402649e+02	-8.372429e-03
2.416527e+02	-8.469331e-03
2.430484e+02	-8.567353e-03
2.444523e+02	-8.666509e-03
2.458642e+02	-8.766811e-03
2.472843e+02	-8.868273e-03
2.487126e+02	-8.970907e-03
2.501492e+02	-9.074729e-03
2.515940e+02	-9.179750e-03
2.530472e+02	-9.285986e-03
2.545088e+02	-9.393450e-03
2.559789e+02	-9.502156e-03
2.574574e+02	-9.612118e-03
2.589444e+02	-9.723352e-03
2.604401e+02	-9.835871e-03
2.619444e+02	-9.949691e-03
2.634574e+02	-1.006483e-02
2.649791e+02	-1.018129e-02
2.665096e+02	-1.029911e-02
2.680489e+02	-1.041828e-02
2.695972e+02	-1.053883e-02
2.711544e+02	-1.066078e-02
2.727205e+02	-1.078413e-02
2.742958e+02	-1.090891e-02
2.758801e+02	-1.103513e-02
2.774736e+02	-1.116281e-02
2.790762e+02	-1.129197e-02
2.806882e+02	-1.142261e-02
2.823094e+02	-1.155477e-02
2.839400e+02	-1.168845e-02
2.855800e+02	-1.182368e-02
2.872295e+02	-1.196047e-02
2.888886e+02	-1.209885e-02
2.905572e+02	-1.223882e-02
2.922354e+02	-1.238040e-02
2.939234e+02	-1.252363e-02
2.956211e+02	-1.266850e-02
2.973286e+02	-1.281505e-02
2.990459e+02	-1.296330e-02
3.007732e+02	-1.311325e-02
3.025104e+02	-1.326494e-02
3.042577e+02	-1.341838e-02
3.060151e+02	-1.357359e-02
3.077826e+02	-1.373059e-02
3.095604e+02	-1.388941e-02
3.113484e+02	-1.405006e-02
3.131467e+02	-1.421257e-02
3.149554e+02	-1.437695e-02
3.167746e+02	-1.454323e-02
3.186043e+02	-1.471143e-02
3.204445e+02	-1.488157e-02
3.222954e+02	-1.505368e-02
3.241570e+02	-1.522777e-02
3.260293e+02	-1.540388e-02
3.279124e+02	-1.558201e-02
3.298064e+02	-1.576221e-02
3.317114e+02	-1.594448e-02
3.336273e+02	-1.612886e-02
3.355544e+02	-1.631536e-02
3.374925e+02	-1.650402e-02
3.394418e+02	-1.669485e-02
3.414024e+02	-1.688789e-02
3.433744e+02	-1.708315e-02
3.453577e+02	-1.728067e-02
3.473525e+02	-1.748047e-02
3.493588e+02	-1.768257e-02
3.513766e+02	-1.788700e-02
3.534062e+02	-1.809379e-02
3.554474e+02	-1.830297e-02
3.575005e+02	-1.851456e-02
3.595654e+02	-1.872859e-02
3.616422e+02	-1.894510e-02
3.637311e+02	-1.916409e-02
3.658320e+02	-1.938562e-02
3.679450e+02	-1.960969e-02
3.700702e+02	-1.983636e-02
3.722077e+02	-2.006563e-02
3.743576e+02	-2.029755e-02
3.765199e+02	-2.053215e-02
3.786946e+02	-2.076945e-02
3.808820e+02	-2.100948e-02
3.830819e+02	-2.125228e-02
3.852946e+02	-2.149789e-02
3.875200e+02	-2.174632e-02
3.897583e+02	-2.199761e-02
3.920096e+02	-2.225181e-02
3.942738e+02	-2.250893e-02
3.965511e+02	-2.276901e-02
3.988416e+02	-2.303210e-02
4.011452e+02	-2.329821e-02
4.034622e+02	-2.356739e-02
4.057926e+02	-2.383967e-02
4.081365e+02	-2.411509e-02
4.104938e+02	-2.439369e-02
4.128648e+02	-2.467549e-02
4.152495e+02	-2.496053e-02
4.176480e+02	-2.524886e-02
4.200603e+02	-2.554052e-02
4.224866e+02	-2.583553e-02
4.249268e+02	-2.613393e-02
4.273812e+02	-2.643578e-02
4.298497e+02	-2.674110e-02
4.323325e+02	-2.704993e-02
4.348297e+02	-2.736232e-02
4.373412e+02	-2.767830e-02
4.398673e+02	-2.799793e-02
4.424079e+02	-2.832123e-02
4.449633e+02	-2.864825e-02
4.475334e+02	-2.897904e-02
4.501183e+02	-2.931363e-02
4.527182e+02	-2.965207e-02
4.553330e+02	-2.999441e-02
4.579630e+02	-3.034068e-02
4.606082e+02	-3.069094e-02
4.632687e+02	-3.104523e-02
4.659445e+02	-3.140359e-02
4.686358e+02	-3.176608e-02
4.713426e+02	-3.213273e-02
4.740650e+02	-3.250360e-02
4.768032e+02	-3.287873e-02
4.795572e+02	-3.325817e-02
4.823271e+02	-3.364198e-02
4.851130e+02	-3.403020e-02
4.879150e+02	-3.442288e-02
4.907332e+02	-3.482008e-02
4.935676e+02	-3.522183e-02
4.964185e+02	-3.562821e-02
4.992858e+02	-3.603925e-02
5.021696e+02	-3.645502e-02
5.050701e+02	-3.687556e-02
5.079874e+02	-3.730093e-02
5.109215e+02	-3.773119e-02
5.138726e+02	-3.816639e-02
5.168407e+02	-3.860659e-02
5.198259e+02	-3.905184e-02
5.228284e+02	-3.950220e-02
5.258482e+02	-3.995773e-02
5.288855e+02	-4.041849e-02
5.319403e+02	-4.088454e-02
5.350128e+02	-4.135594e-02
5.381030e+02	-4.183274e-02
5.412111e+02	-4.231502e-02
5.443371e+02	-4.280283e-02
5.474812e+02	-4.329623e-02
5.506434e+02	-4.379529e-02
5.538239e+02	-4.430008e-02
5.570228e+02	-4.481065e-02
5.602401e+02	-4.532708e-02
5.634760e+02	-4.584942e-02
5.667306e+02	-4.637776e-02
5.700040e+02	-4.691215e-02
5.732964e+02	-4.745266e-02
5.766077e+02	-4.799937e-02
5.799382e+02	-4.855233e-02
5.832879e+02	-4.911164e-02
5.866569e+02	-4.967735e-02
5.900454e+02	-5.024954e-02
5.934535e+02	-5.082828e-02
5.968813e+02	-5.141364e-02
6.003288e+02	-5.200571e-02
6.037963e+02	-5.260455e-02
6.072838e+02	-5.321025e-02
6.107914e+02	-5.382287e-02
6.143194e+02	-5.444251e-02
6.178676e+02	-5.506923e-02
6.214364e+02	-5.570313e-02
6.250258e+02	-5.634427e-02
6.286359e+02	-5.699274e-02
6.322669e+02	-5.764863e-02
6.359189e+02	-5.831201e-02
6.395919e+02	-5.898297e-02
6.432862e+02	-5.966161e-02
6.470017e+02	-6.034799e-02
6.507388e+02	-6.104222e-02
6.544974e+02	-6.174437e-02
6.582778e+02	-6.245455e-02
6.620800e+02	-6.317283e-02
6.659041e+02	-6.389931e-02
6.697504e+02	-6.463409e-02
6.736188e+02	-6.537725e-02
6.775096e+02	-6.612889e-02
6.814229e+02	-6.688910e-02
6.853587e+02	-6.765799e-02
6.893173e+02	-6.843564e-02
6.932988e+02	-6.922216e-02
6.973033e+02	-7.001765e-02
7.013309e+02	-7.082220e-02
