Frequency(Hz)	Magnitude(dB)
1.000000e+01	-2.305693e+00
1.005776e+01	-2.326166e+00
1.011585e+01	-2.347169e+00
1.017428e+01	-2.368121e+00
1.023305e+01	-2.389238e+00
1.029215e+01	-2.410397e+00
1.035160e+01	-2.432004e+00
1.041139e+01	-2.453222e+00
1.047153e+01	-2.475079e+00
1.053201e+01	-2.496840e+00
1.059284e+01	-2.518878e+00
1.065403e+01	-2.540927e+00
1.071556e+01	-2.562881e+00
1.077746e+01	-2.585450e+00
1.083971e+01	-2.607873e+00
1.090232e+01	-2.630727e+00
1.096529e+01	-2.653395e+00
1.102862e+01	-2.676208e+00
1.109232e+01	-2.699488e+00
1.115639e+01	-2.722633e+00
1.122083e+01	-2.746188e+00
1.128564e+01	-2.769504e+00
1.135083e+01	-2.793315e+00
1.141639e+01	-2.817153e+00
1.148233e+01	-2.840853e+00
1.154865e+01	-2.865272e+00
1.161536e+01	-2.889482e+00
1.168245e+01	-2.913920e+00
1.174992e+01	-2.938127e+00
1.181779e+01	-2.962804e+00
1.188605e+01	-2.987762e+00
1.195470e+01	-3.012748e+00
1.202375e+01	-3.037721e+00
1.209320e+01	-3.062938e+00
1.216305e+01	-3.088247e+00
1.223330e+01	-3.113714e+00
1.230396e+01	-3.139397e+00
1.237503e+01	-3.165383e+00
1.244651e+01	-3.191243e+00
1.251840e+01	-3.217420e+00
1.259070e+01	-3.243729e+00
1.266343e+01	-3.270194e+00
1.273657e+01	-3.296481e+00
1.281014e+01	-3.323255e+00
1.288413e+01	-3.349971e+00
1.295855e+01	-3.377099e+00
1.303339e+01	-3.404222e+00
1.310867e+01	-3.431337e+00
1.318439e+01	-3.458766e+00
1.326054e+01	-3.486510e+00
1.333713e+01	-3.514022e+00
1.341417e+01	-3.541899e+00
1.349165e+01	-3.569906e+00
1.356958e+01	-3.598056e+00
1.364795e+01	-3.625958e+00
1.372678e+01	-3.654571e+00
1.380607e+01	-3.683256e+00
1.388581e+01	-3.712040e+00
1.396602e+01	-3.740738e+00
1.404668e+01	-3.769490e+00
1.412782e+01	-3.798526e+00
1.420942e+01	-3.827803e+00
1.429149e+01	-3.857213e+00
1.437404e+01	-3.886784e+00
1.445706e+01	-3.916463e+00
1.454057e+01	-3.946315e+00
1.462455e+01	-3.976135e+00
1.470902e+01	-4.006419e+00
1.479398e+01	-4.036225e+00
1.487943e+01	-4.066566e+00
1.496537e+01	-4.097260e+00
1.505181e+01	-4.127739e+00
1.513875e+01	-4.158615e+00
1.522619e+01	-4.189918e+00
1.531414e+01	-4.220476e+00
1.540259e+01	-4.251786e+00
1.549156e+01	-4.283273e+00
1.558103e+01	-4.314446e+00
1.567103e+01	-4.346088e+00
1.576155e+01	-4.377667e+00
1.585258e+01	-4.409573e+00
1.594415e+01	-4.441619e+00
1.603624e+01	-4.473597e+00
1.612886e+01	-4.506090e+00
1.622202e+01	-4.538190e+00
1.631572e+01	-4.570644e+00
1.640996e+01	-4.603391e+00
1.650474e+01	-4.636055e+00
1.660008e+01	-4.668999e+00
1.669596e+01	-4.701777e+00
1.679239e+01	-4.735102e+00
1.688938e+01	-4.768423e+00
1.698694e+01	-4.801861e+00
1.708505e+01	-4.835314e+00
1.718373e+01	-4.869043e+00
1.728299e+01	-4.902514e+00
1.738281e+01	-4.936780e+00
1.748322e+01	-4.970861e+00
1.758420e+01	-5.005211e+00
1.768576e+01	-5.039065e+00
1.778792e+01	-5.073552e+00
1.789066e+01	-5.108378e+00
1.799399e+01	-5.142871e+00
1.809793e+01	-5.177672e+00
1.820246e+01	-5.212258e+00
1.830760e+01	-5.247673e+00
1.841334e+01	-5.282661e+00
1.851969e+01	-5.317716e+00
1.862666e+01	-5.353133e+00
1.873425e+01	-5.389023e+00
1.884246e+01	-5.424295e+00
1.895129e+01	-5.460385e+00
1.906075e+01	-5.496274e+00
1.917085e+01	-5.532197e+00
1.928158e+01	-5.568104e+00
1.939295e+01	-5.604202e+00
1.950496e+01	-5.640423e+00
1.961762e+01	-5.677274e+00
1.973093e+01	-5.713380e+00
1.984490e+01	-5.750211e+00
1.995952e+01	-5.787090e+00
2.007480e+01	-5.823728e+00
2.019076e+01	-5.860951e+00
2.030738e+01	-5.897974e+00
2.042467e+01	-5.935329e+00
2.054264e+01	-5.972518e+00
2.066130e+01	-6.009979e+00
2.078064e+01	-6.047634e+00
2.090066e+01	-6.085258e+00
2.102139e+01	-6.122615e+00
2.114280e+01	-6.160461e+00
2.126492e+01	-6.198605e+00
2.138775e+01	-6.236765e+00
2.151128e+01	-6.274804e+00
2.163553e+01	-6.313083e+00
2.176050e+01	-6.351575e+00
2.188619e+01	-6.390293e+00
2.201260e+01	-6.428839e+00
2.213974e+01	-6.468078e+00
2.226762e+01	-6.505978e+00
2.239624e+01	-6.545132e+00
2.252560e+01	-6.584236e+00
2.265571e+01	-6.622993e+00
2.278656e+01	-6.662201e+00
2.291818e+01	-6.701594e+00
2.305055e+01	-6.740909e+00
2.318369e+01	-6.780552e+00
2.331760e+01	-6.820299e+00
2.345228e+01	-6.859692e+00
2.358774e+01	-6.899706e+00
2.372398e+01	-6.939962e+00
2.386101e+01	-6.979338e+00
2.399883e+01	-7.019815e+00
2.413745e+01	-7.059370e+00
2.427686e+01	-7.099954e+00
2.441709e+01	-7.140262e+00
2.455812e+01	-7.180407e+00
2.469997e+01	-7.221223e+00
2.484263e+01	-7.261439e+00
2.498612e+01	-7.302304e+00
2.513044e+01	-7.342715e+00
2.527559e+01	-7.384036e+00
2.542158e+01	-7.424832e+00
2.556842e+01	-7.466018e+00
2.571610e+01	-7.507021e+00
2.586463e+01	-7.547742e+00
2.601403e+01	-7.589661e+00
2.616428e+01	-7.630294e+00
2.631541e+01	-7.672306e+00
2.646740e+01	-7.713670e+00
2.662028e+01	-7.755117e+00
2.677404e+01	-7.796992e+00
2.692868e+01	-7.838645e+00
2.708422e+01	-7.880584e+00
2.724066e+01	-7.922387e+00
2.739800e+01	-7.964682e+00
2.755625e+01	-8.006364e+00
2.771541e+01	-8.048726e+00
2.787550e+01	-8.091113e+00
2.803650e+01	-8.133334e+00
2.819844e+01	-8.175616e+00
2.836131e+01	-8.217869e+00
2.852513e+01	-8.260023e+00
2.868989e+01	-8.303036e+00
2.885560e+01	-8.345908e+00
2.902227e+01	-8.388358e+00
2.918990e+01	-8.431291e+00
2.935850e+01	-8.474249e+00
2.952807e+01	-8.517077e+00
2.969863e+01	-8.560415e+00
2.987016e+01	-8.603358e+00
3.004269e+01	-8.646662e+00
3.021622e+01	-8.689635e+00
3.039075e+01	-8.733275e+00
3.056628e+01	-8.776253e+00
3.074283e+01	-8.819863e+00
3.092040e+01	-8.863330e+00
3.109900e+01	-8.907043e+00
3.127862e+01	-8.949959e+00
3.145929e+01	-8.994099e+00
3.164099e+01	-9.037896e+00
3.182375e+01	-9.081466e+00
3.200756e+01	-9.125760e+00
3.219244e+01	-9.169816e+00
3.237838e+01	-9.213613e+00
3.256540e+01	-9.257167e+00
3.275349e+01	-9.301527e+00
3.294268e+01	-9.346113e+00
3.313295e+01	-9.390207e+00
3.332433e+01	-9.434323e+00
3.351681e+01	-9.478625e+00
3.371040e+01	-9.522938e+00
3.390511e+01	-9.567361e+00
3.410094e+01	-9.612279e+00
3.429791e+01	-9.656933e+00
3.449601e+01	-9.701056e+00
3.469526e+01	-9.746248e+00
3.489566e+01	-9.790789e+00
3.509721e+01	-9.835787e+00
3.529993e+01	-9.880964e+00
3.550382e+01	-9.925824e+00
3.570889e+01	-9.970370e+00
3.591515e+01	-1.001545e+01
3.612259e+01	-1.006053e+01
3.633123e+01	-1.010625e+01
3.654108e+01	-1.015049e+01
3.675214e+01	-1.019639e+01
3.696442e+01	-1.024092e+01
3.717792e+01	-1.028685e+01
3.739266e+01	-1.033151e+01
3.760864e+01	-1.037751e+01
3.782587e+01	-1.042321e+01
3.804435e+01	-1.046840e+01
3.826409e+01	-1.051362e+01
3.848510e+01	-1.055994e+01
3.870739e+01	-1.060508e+01
3.893096e+01	-1.065106e+01
3.915583e+01	-1.069678e+01
3.938199e+01	-1.074220e+01
3.960946e+01	-1.078814e+01
3.983824e+01	-1.083390e+01
4.006834e+01	-1.088000e+01
4.029978e+01	-1.092574e+01
4.053255e+01	-1.097164e+01
4.076666e+01	-1.101802e+01
4.100213e+01	-1.106413e+01
4.123896e+01	-1.111025e+01
4.147715e+01	-1.115676e+01
4.171672e+01	-1.120231e+01
4.195767e+01	-1.124871e+01
4.220002e+01	-1.129459e+01
4.244377e+01	-1.134126e+01
4.268892e+01	-1.138796e+01
4.293549e+01	-1.143420e+01
4.318348e+01	-1.148036e+01
4.343291e+01	-1.152791e+01
4.368377e+01	-1.157358e+01
4.393609e+01	-1.162065e+01
4.418986e+01	-1.166676e+01
4.444510e+01	-1.171330e+01
4.470182e+01	-1.176033e+01
4.496001e+01	-1.180665e+01
4.521970e+01	-1.185347e+01
4.548089e+01	-1.190053e+01
4.574358e+01	-1.194782e+01
4.600779e+01	-1.199407e+01
4.627353e+01	-1.204118e+01
4.654081e+01	-1.208787e+01
4.680963e+01	-1.213410e+01
4.708000e+01	-1.218149e+01
4.735193e+01	-1.222894e+01
4.762543e+01	-1.227523e+01
4.790051e+01	-1.232231e+01
4.817719e+01	-1.236961e+01
4.845545e+01	-1.241726e+01
4.873533e+01	-1.246380e+01
4.901682e+01	-1.251163e+01
4.929994e+01	-1.255912e+01
4.958470e+01	-1.260595e+01
4.987110e+01	-1.265322e+01
5.015915e+01	-1.270156e+01
5.044887e+01	-1.274810e+01
5.074026e+01	-1.279527e+01
5.103333e+01	-1.284286e+01
5.132810e+01	-1.289061e+01
5.162457e+01	-1.293788e+01
5.192275e+01	-1.298398e+01
5.222265e+01	-1.303230e+01
5.252429e+01	-1.308110e+01
5.282767e+01	-1.312816e+01
5.313280e+01	-1.317519e+01
5.343969e+01	-1.322290e+01
5.374836e+01	-1.327060e+01
5.405880e+01	-1.331941e+01
5.437105e+01	-1.336654e+01
5.468509e+01	-1.341333e+01
5.500095e+01	-1.346211e+01
5.531863e+01	-1.350995e+01
5.563815e+01	-1.355778e+01
5.595951e+01	-1.360474e+01
5.628273e+01	-1.365285e+01
5.660782e+01	-1.370051e+01
5.693479e+01	-1.374974e+01
5.726364e+01	-1.379674e+01
5.759439e+01	-1.384512e+01
5.792705e+01	-1.389298e+01
5.826164e+01	-1.394121e+01
5.859815e+01	-1.398860e+01
5.893662e+01	-1.403654e+01
5.927703e+01	-1.408378e+01
5.961941e+01	-1.413426e+01
5.996377e+01	-1.418102e+01
6.031012e+01	-1.422955e+01
6.065847e+01	-1.427681e+01
6.100883e+01	-1.432526e+01
6.136121e+01	-1.437349e+01
6.171563e+01	-1.442152e+01
6.207210e+01	-1.447009e+01
6.243063e+01	-1.451841e+01
6.279122e+01	-1.456630e+01
6.315390e+01	-1.461566e+01
6.351868e+01	-1.466368e+01
6.388556e+01	-1.471189e+01
6.425456e+01	-1.476024e+01
6.462569e+01	-1.480774e+01
6.499897e+01	-1.485716e+01
6.537440e+01	-1.490514e+01
6.575200e+01	-1.495345e+01
6.613178e+01	-1.500177e+01
6.651375e+01	-1.505025e+01
6.689793e+01	-1.509884e+01
6.728433e+01	-1.514699e+01
6.767297e+01	-1.519579e+01
6.806384e+01	-1.524391e+01
6.845698e+01	-1.529223e+01
6.885238e+01	-1.534124e+01
6.925007e+01	-1.539015e+01
6.965005e+01	-1.543872e+01
7.005235e+01	-1.548750e+01
7.045697e+01	-1.553600e+01
7.086393e+01	-1.558445e+01
7.127323e+01	-1.563345e+01
7.168490e+01	-1.568230e+01
7.209895e+01	-1.573041e+01
7.251539e+01	-1.577824e+01
7.293424e+01	-1.582839e+01
7.335551e+01	-1.587752e+01
7.377920e+01	-1.592523e+01
7.420535e+01	-1.597426e+01
7.463396e+01	-1.602172e+01
7.506504e+01	-1.607228e+01
7.549861e+01	-1.612084e+01
7.593469e+01	-1.616910e+01
7.637328e+01	-1.621810e+01
7.681441e+01	-1.626748e+01
7.725809e+01	-1.631655e+01
7.770433e+01	-1.636462e+01
7.815315e+01	-1.641293e+01
7.860456e+01	-1.646138e+01
7.905857e+01	-1.651043e+01
7.951521e+01	-1.656026e+01
7.997449e+01	-1.660856e+01
8.043642e+01	-1.665788e+01
8.090102e+01	-1.670730e+01
8.136830e+01	-1.675746e+01
8.183828e+01	-1.680395e+01
8.231097e+01	-1.685381e+01
8.278640e+01	-1.690339e+01
8.326457e+01	-1.695373e+01
8.374550e+01	-1.700085e+01
8.422921e+01	-1.704992e+01
8.471572e+01	-1.709839e+01
8.520503e+01	-1.714873e+01
8.569717e+01	-1.719906e+01
8.619215e+01	-1.724653e+01
8.669000e+01	-1.729548e+01
8.719071e+01	-1.734505e+01
8.769432e+01	-1.739358e+01
8.820084e+01	-1.744251e+01
8.871029e+01	-1.749156e+01
8.922267e+01	-1.754026e+01
8.973802e+01	-1.759072e+01
9.025634e+01	-1.763999e+01
9.077766e+01	-1.768964e+01
9.130199e+01	-1.773800e+01
9.182935e+01	-1.778726e+01
9.235975e+01	-1.783527e+01
9.289321e+01	-1.788700e+01
9.342976e+01	-1.793555e+01
9.396941e+01	-1.798494e+01
9.451217e+01	-1.803365e+01
9.505807e+01	-1.808337e+01
9.560712e+01	-1.813060e+01
9.615934e+01	-1.818082e+01
9.671476e+01	-1.823062e+01
9.727338e+01	-1.827932e+01
9.783522e+01	-1.832880e+01
9.840032e+01	-1.837844e+01
9.896867e+01	-1.842645e+01
9.954031e+01	-1.847643e+01
1.001153e+02	-1.852726e+01
1.006935e+02	-1.857516e+01
1.012751e+02	-1.862555e+01
1.018601e+02	-1.867397e+01
1.024484e+02	-1.872356e+01
1.030402e+02	-1.877331e+01
1.036353e+02	-1.882266e+01
1.042339e+02	-1.887174e+01
1.048360e+02	-1.892058e+01
1.054415e+02	-1.896970e+01
1.060505e+02	-1.901897e+01
1.066631e+02	-1.906955e+01
1.072791e+02	-1.911830e+01
1.078988e+02	-1.916865e+01
1.085220e+02	-1.921825e+01
1.091488e+02	-1.926616e+01
1.097793e+02	-1.931743e+01
1.104133e+02	-1.936539e+01
1.110511e+02	-1.941670e+01
1.116925e+02	-1.946494e+01
1.123376e+02	-1.951370e+01
1.129865e+02	-1.956474e+01
1.136391e+02	-1.961221e+01
1.142955e+02	-1.966263e+01
1.149556e+02	-1.971159e+01
1.156196e+02	-1.976312e+01
1.162874e+02	-1.981114e+01
1.169591e+02	-1.986086e+01
1.176347e+02	-1.991005e+01
1.183141e+02	-1.995845e+01
1.189975e+02	-2.000883e+01
1.196848e+02	-2.005799e+01
1.203761e+02	-2.010719e+01
1.210714e+02	-2.015637e+01
1.217707e+02	-2.020699e+01
1.224740e+02	-2.025837e+01
1.231814e+02	-2.030630e+01
1.238929e+02	-2.035636e+01
1.246085e+02	-2.040603e+01
1.253283e+02	-2.045522e+01
1.260522e+02	-2.050534e+01
1.267802e+02	-2.055536e+01
1.275125e+02	-2.060292e+01
1.282490e+02	-2.065255e+01
1.289898e+02	-2.070410e+01
1.297348e+02	-2.075267e+01
1.304842e+02	-2.080157e+01
1.312378e+02	-2.085133e+01
1.319959e+02	-2.090348e+01
1.327583e+02	-2.095114e+01
1.335251e+02	-2.100115e+01
1.342963e+02	-2.105186e+01
1.350720e+02	-2.110091e+01
1.358522e+02	-2.115114e+01
1.366368e+02	-2.119807e+01
1.374260e+02	-2.124823e+01
1.382198e+02	-2.129972e+01
1.390182e+02	-2.134907e+01
1.398211e+02	-2.139794e+01
1.406287e+02	-2.144715e+01
1.414410e+02	-2.149841e+01
1.422579e+02	-2.154709e+01
1.430796e+02	-2.159752e+01
1.439060e+02	-2.164487e+01
1.447372e+02	-2.169548e+01
1.455732e+02	-2.174666e+01
1.464141e+02	-2.179691e+01
1.472597e+02	-2.184819e+01
1.481103e+02	-2.189632e+01
1.489658e+02	-2.194496e+01
1.498262e+02	-2.199494e+01
1.506916e+02	-2.204366e+01
1.515620e+02	-2.209638e+01
1.524374e+02	-2.214301e+01
1.533179e+02	-2.219207e+01
1.542034e+02	-2.224548e+01
1.550941e+02	-2.229221e+01
1.559899e+02	-2.234230e+01
1.568909e+02	-2.239226e+01
1.577971e+02	-2.244247e+01
1.587085e+02	-2.249157e+01
1.596252e+02	-2.254246e+01
1.605472e+02	-2.258816e+01
1.614745e+02	-2.264299e+01
1.624072e+02	-2.269070e+01
1.633453e+02	-2.274123e+01
1.642887e+02	-2.279035e+01
1.652377e+02	-2.284067e+01
1.661921e+02	-2.288977e+01
1.671520e+02	-2.293936e+01
1.681175e+02	-2.298999e+01
1.690885e+02	-2.303817e+01
1.700651e+02	-2.309063e+01
1.710474e+02	-2.313913e+01
1.720354e+02	-2.318886e+01
1.730291e+02	-2.324021e+01
1.740285e+02	-2.328842e+01
1.750337e+02	-2.333823e+01
1.760446e+02	-2.338942e+01
1.770615e+02	-2.343799e+01
1.780842e+02	-2.348933e+01
1.791128e+02	-2.353818e+01
1.801473e+02	-2.358530e+01
1.811878e+02	-2.363791e+01
1.822344e+02	-2.368855e+01
1.832870e+02	-2.373777e+01
1.843456e+02	-2.378911e+01
1.854104e+02	-2.383737e+01
1.864813e+02	-2.388529e+01
1.875584e+02	-2.393621e+01
1.886418e+02	-2.398672e+01
1.897313e+02	-2.403876e+01
1.908272e+02	-2.408642e+01
1.919294e+02	-2.413516e+01
1.930380e+02	-2.418705e+01
1.941530e+02	-2.423714e+01
1.952744e+02	-2.428764e+01
1.964023e+02	-2.433376e+01
1.975367e+02	-2.438584e+01
1.986777e+02	-2.443401e+01
1.998252e+02	-2.448536e+01
2.009794e+02	-2.453683e+01
2.021403e+02	-2.458588e+01
2.033078e+02	-2.463305e+01
2.044821e+02	-2.468423e+01
2.056632e+02	-2.473727e+01
2.068511e+02	-2.478471e+01
2.080459e+02	-2.483456e+01
2.092475e+02	-2.488507e+01
2.104561e+02	-2.493162e+01
2.116717e+02	-2.498353e+01
2.128943e+02	-2.503099e+01
2.141240e+02	-2.508406e+01
2.153608e+02	-2.513453e+01
2.166047e+02	-2.518037e+01
2.178558e+02	-2.523348e+01
2.191141e+02	-2.528564e+01
2.203797e+02	-2.533623e+01
2.216526e+02	-2.538523e+01
2.229329e+02	-2.543369e+01
2.242205e+02	-2.548282e+01
2.255156e+02	-2.553297e+01
2.268182e+02	-2.558019e+01
2.281283e+02	-2.563408e+01
2.294459e+02	-2.568128e+01
2.307712e+02	-2.573315e+01
2.321041e+02	-2.578438e+01
2.334447e+02	-2.583254e+01
2.347931e+02	-2.588056e+01
2.361493e+02	-2.593290e+01
2.375133e+02	-2.598230e+01
2.388851e+02	-2.603063e+01
2.402649e+02	-2.608140e+01
2.416527e+02	-2.613264e+01
2.430484e+02	-2.618242e+01
2.444523e+02	-2.623143e+01
2.458642e+02	-2.628353e+01
2.472843e+02	-2.633096e+01
2.487126e+02	-2.638564e+01
2.501492e+02	-2.643197e+01
2.515940e+02	-2.648387e+01
2.530472e+02	-2.653533e+01
2.545088e+02	-2.658296e+01
2.559789e+02	-2.663103e+01
2.574574e+02	-2.668012e+01
2.589444e+02	-2.673197e+01
2.604401e+02	-2.678360e+01
2.619444e+02	-2.683175e+01
2.634574e+02	-2.688118e+01
2.649791e+02	-2.693567e+01
2.665096e+02	-2.698572e+01
2.680489e+02	-2.703235e+01
2.695972e+02	-2.708417e+01
2.711544e+02	-2.713391e+01
2.727205e+02	-2.718035e+01
2.742958e+02	-2.723230e+01
2.758801e+02	-2.727839e+01
2.774736e+02	-2.733175e+01
2.790762e+02	-2.738490e+01
2.806882e+02	-2.743136e+01
2.823094e+02	-2.748017e+01
2.839400e+02	-2.753734e+01
2.855800e+02	-2.758162e+01
2.872295e+02	-2.762991e+01
2.888886e+02	-2.768260e+01
2.905572e+02	-2.773427e+01
2.922354e+02	-2.778137e+01
2.939234e+02	-2.783100e+01
2.956211e+02	-2.788133e+01
2.973286e+02	-2.793346e+01
2.990459e+02	-2.798175e+01
3.007732e+02	-2.803118e+01
3.025104e+02	-2.807854e+01
3.042577e+02	-2.813207e+01
3.060151e+02	-2.818473e+01
3.077826e+02	-2.823618e+01
3.095604e+02	-2.828720e+01
3.113484e+02	-2.833188e+01
3.131467e+02	-2.838226e+01
3.149554e+02	-2.843227e+01
3.167746e+02	-2.848109e+01
3.186043e+02	-2.853250e+01
3.204445e+02	-2.858063e+01
3.222954e+02	-2.863309e+01
3.241570e+02	-2.867959e+01
3.260293e+02	-2.873356e+01
3.279124e+02	-2.877895e+01
3.298064e+02	-2.883320e+01
3.317114e+02	-2.888258e+01
3.336273e+02	-2.893234e+01
3.355544e+02	-2.898499e+01
3.374925e+02	-2.903174e+01
3.394418e+02	-2.907947e+01
3.414024e+02	-2.913469e+01
3.433744e+02	-2.918455e+01
3.453577e+02	-2.923274e+01
3.473525e+02	-2.928730e+01
3.493588e+02	-2.933376e+01
3.513766e+02	-2.938326e+01
3.534062e+02	-2.943986e+01
3.554474e+02	-2.948486e+01
3.575005e+02	-2.953359e+01
3.595654e+02	-2.958659e+01
3.616422e+02	-2.963527e+01
3.637311e+02	-2.968166e+01
3.658320e+02	-2.973992e+01
3.679450e+02	-2.978431e+01
3.700702e+02	-2.983400e+01
3.722077e+02	-2.988439e+01
3.743576e+02	-2.993590e+01
3.765199e+02	-2.998727e+01
3.786946e+02	-3.003646e+01
3.808820e+02	-3.008619e+01
3.830819e+02	-3.013187e+01
3.852946e+02	-3.018683e+01
3.875200e+02	-3.023300e+01
3.897583e+02	-3.028359e+01
3.920096e+02	-3.033312e+01
3.942738e+02	-3.039261e+01
3.965511e+02	-3.043763e+01
3.988416e+02	-3.049029e+01
4.011452e+02	-3.053295e+01
4.034622e+02	-3.058345e+01
4.057926e+02	-3.063577e+01
4.081365e+02	-3.068766e+01
4.104938e+02	-3.073580e+01
4.128648e+02	-3.078697e+01
4.152495e+02	-3.083519e+01
4.176480e+02	-3.089069e+01
4.200603e+02	-3.093425e+01
4.224866e+02	-3.098554e+01
4.249268e+02	-3.103315e+01
4.273812e+02	-3.108879e+01
4.298497e+02	-3.114472e+01
4.323325e+02	-3.118541e+01
4.348297e+02	-3.123620e+01
4.373412e+02	-3.128419e+01
4.398673e+02	-3.134244e+01
4.424079e+02	-3.139470e+01
4.449633e+02	-3.144012e+01
4.475334e+02	-3.148812e+01
4.501183e+02	-3.154039e+01
4.527182e+02	-3.158617e+01
4.553330e+02	-3.164191e+01
4.579630e+02	-3.168494e+01
4.606082e+02	-3.173616e+01
4.632687e+02	-3.179645e+01
4.659445e+02	-3.184072e+01
4.686358e+02	-3.189160e+01
4.713426e+02	-3.193692e+01
4.740650e+02	-3.199460e+01
4.768032e+02	-3.204822e+01
4.795572e+02	-3.208823e+01
4.823271e+02	-3.213729e+01
4.851130e+02	-3.219377e+01
4.879150e+02	-3.224444e+01
4.907332e+02	-3.229418e+01
4.935676e+02	-3.234524e+01
4.964185e+02	-3.239564e+01
4.992858e+02	-3.244554e+01
5.021696e+02	-3.248607e+01
5.050701e+02	-3.254556e+01
5.079874e+02	-3.258727e+01
5.109215e+02	-3.265072e+01
5.138726e+02	-3.269354e+01
5.168407e+02	-3.274534e+01
5.198259e+02	-3.278754e+01
5.228284e+02	-3.284291e+01
5.258482e+02	-3.288906e+01
5.288855e+02	-3.294416e+01
5.319403e+02	-3.300160e+01
5.350128e+02	-3.303907e+01
5.381030e+02	-3.309655e+01
5.412111e+02	-3.314254e+01
5.443371e+02	-3.319740e+01
5.474812e+02	-3.325305e+01
5.506434e+02	-3.328987e+01
5.538239e+02	-3.335061e+01
5.570228e+02	-3.339122e+01
5.602401e+02	-3.345100e+01
5.634760e+02	-3.349505e+01
5.667306e+02	-3.354843e+01
5.700040e+02	-3.360240e+01
5.732964e+02	-3.364469e+01
5.766077e+02	-3.369743e+01
5.799382e+02	-3.374712e+01
5.832879e+02	-3.379405e+01
5.866569e+02	-3.385709e+01
5.900454e+02	-3.390484e+01
5.934535e+02	-3.394640e+01
5.968813e+02	-3.399733e+01
6.003288e+02	-3.404658e+01
6.037963e+02	-3.410302e+01
6.072838e+02	-3.414667e+01
6.107914e+02	-3.420530e+01
6.143194e+02	-3.424496e+01
6.178676e+02	-3.429798e+01
6.214364e+02	-3.434940e+01
6.250258e+02	-3.441315e+01
6.286359e+02	-3.444463e+01
6.322669e+02	-3.449830e+01
6.359189e+02	-3.454562e+01
6.395919e+02	-3.460425e+01
6.432862e+02	-3.465371e+01
6.470017e+02	-3.469872e+01
6.507388e+02	-3.475368e+01
6.544974e+02	-3.480935e+01
6.582778e+02	-3.485940e+01
6.620800e+02	-3.490564e+01
6.659041e+02	-3.496175e+01
6.697504e+02	-3.501346e+01
6.736188e+02	-3.505524e+01
6.775096e+02	-3.511332e+01
6.814229e+02	-3.516828e+01
6.853587e+02	-3.520396e+01
6.893173e+02	-3.526989e+01
6.932988e+02	-3.532173e+01
6.973033e+02	-3.536558e+01
7.013309e+02	-3.540708e+01
