Frequency(Hz)	Magnitude(dB)
1.000000e+01	-2.272176e+00
1.005776e+01	-2.292847e+00
1.011585e+01	-2.313254e+00
1.017428e+01	-2.334209e+00
1.023305e+01	-2.354899e+00
1.029215e+01	-2.376026e+00
1.035160e+01	-2.396993e+00
1.041139e+01	-2.418387e+00
1.047153e+01	-2.440058e+00
1.053201e+01	-2.461357e+00
1.059284e+01	-2.483019e+00
1.065403e+01	-2.504863e+00
1.071556e+01	-2.527101e+00
1.077746e+01	-2.548915e+00
1.083971e+01	-2.571224e+00
1.090232e+01	-2.593997e+00
1.096529e+01	-2.616178e+00
1.102862e+01	-2.639275e+00
1.109232e+01	-2.661991e+00
1.115639e+01	-2.684950e+00
1.122083e+01	-2.708272e+00
1.128564e+01	-2.731244e+00
1.135083e+01	-2.754838e+00
1.141639e+01	-2.778232e+00
1.148233e+01	-2.802037e+00
1.154865e+01	-2.825649e+00
1.161536e+01	-2.849739e+00
1.168245e+01	-2.874040e+00
1.174992e+01	-2.898313e+00
1.181779e+01	-2.922550e+00
1.188605e+01	-2.947338e+00
1.195470e+01	-2.972183e+00
1.202375e+01	-2.996922e+00
1.209320e+01	-3.021932e+00
1.216305e+01	-3.047021e+00
1.223330e+01	-3.072531e+00
1.230396e+01	-3.097865e+00
1.237503e+01	-3.123470e+00
1.244651e+01	-3.149070e+00
1.251840e+01	-3.174892e+00
1.259070e+01	-3.201132e+00
1.266343e+01	-3.227168e+00
1.273657e+01	-3.253291e+00
1.281014e+01	-3.280027e+00
1.288413e+01	-3.306270e+00
1.295855e+01	-3.333099e+00
1.303339e+01	-3.360065e+00
1.310867e+01	-3.387231e+00
1.318439e+01	-3.414087e+00
1.326054e+01	-3.441584e+00
1.333713e+01	-3.468927e+00
1.341417e+01	-3.496645e+00
1.349165e+01	-3.524255e+00
1.356958e+01	-3.552389e+00
1.364795e+01	-3.580349e+00
1.372678e+01	-3.608139e+00
1.380607e+01	-3.636744e+00
1.388581e+01	-3.664992e+00
1.396602e+01	-3.693847e+00
1.404668e+01	-3.722267e+00
1.412782e+01	-3.751345e+00
1.420942e+01	-3.780348e+00
1.429149e+01	-3.809517e+00
1.437404e+01	-3.838830e+00
1.445706e+01	-3.868033e+00
1.454057e+01	-3.898141e+00
1.462455e+01	-3.927553e+00
1.470902e+01	-3.957385e+00
1.479398e+01	-3.987362e+00
1.487943e+01	-4.017408e+00
1.496537e+01	-4.047617e+00
1.505181e+01	-4.078018e+00
1.513875e+01	-4.108681e+00
1.522619e+01	-4.139448e+00
1.531414e+01	-4.170065e+00
1.540259e+01	-4.201102e+00
1.549156e+01	-4.232185e+00
1.558103e+01	-4.263269e+00
1.567103e+01	-4.294915e+00
1.576155e+01	-4.326094e+00
1.585258e+01	-4.357859e+00
1.594415e+01	-4.389137e+00
1.603624e+01	-4.421408e+00
1.612886e+01	-4.453230e+00
1.622202e+01	-4.485781e+00
1.631572e+01	-4.518049e+00
1.640996e+01	-4.550248e+00
1.650474e+01	-4.582913e+00
1.660008e+01	-4.615528e+00
1.669596e+01	-4.648149e+00
1.679239e+01	-4.681371e+00
1.688938e+01	-4.714094e+00
1.698694e+01	-4.747514e+00
1.708505e+01	-4.780746e+00
1.718373e+01	-4.814195e+00
1.728299e+01	-4.847607e+00
1.738281e+01	-4.881566e+00
1.748322e+01	-4.915254e+00
1.758420e+01	-4.949543e+00
1.768576e+01	-4.983817e+00
1.778792e+01	-5.017701e+00
1.789066e+01	-5.051961e+00
1.799399e+01	-5.086657e+00
1.809793e+01	-5.121026e+00
1.820246e+01	-5.155702e+00
1.830760e+01	-5.190473e+00
1.841334e+01	-5.225590e+00
1.851969e+01	-5.260437e+00
1.862666e+01	-5.295598e+00
1.873425e+01	-5.330658e+00
1.884246e+01	-5.366510e+00
1.895129e+01	-5.402187e+00
1.906075e+01	-5.437378e+00
1.917085e+01	-5.473623e+00
1.928158e+01	-5.509475e+00
1.939295e+01	-5.545521e+00
1.950496e+01	-5.581432e+00
1.961762e+01	-5.617593e+00
1.973093e+01	-5.654059e+00
1.984490e+01	-5.690641e+00
1.995952e+01	-5.727274e+00
2.007480e+01	-5.763976e+00
2.019076e+01	-5.800442e+00
2.030738e+01	-5.837706e+00
2.042467e+01	-5.874787e+00
2.054264e+01	-5.911958e+00
2.066130e+01	-5.949071e+00
2.078064e+01	-5.986357e+00
2.090066e+01	-6.023990e+00
2.102139e+01	-6.061386e+00
2.114280e+01	-6.099164e+00
2.126492e+01	-6.136966e+00
2.138775e+01	-6.174750e+00
2.151128e+01	-6.212505e+00
2.163553e+01	-6.250885e+00
2.176050e+01	-6.289277e+00
2.188619e+01	-6.327551e+00
2.201260e+01	-6.365697e+00
2.213974e+01	-6.404643e+00
2.226762e+01	-6.443269e+00
2.239624e+01	-6.481983e+00
2.252560e+01	-6.520595e+00
2.265571e+01	-6.559685e+00
2.278656e+01	-6.598699e+00
2.291818e+01	-6.637902e+00
2.305055e+01	-6.677159e+00
2.318369e+01	-6.716088e+00
2.331760e+01	-6.755523e+00
2.345228e+01	-6.795203e+00
2.358774e+01	-6.834764e+00
2.372398e+01	-6.874581e+00
2.386101e+01	-6.914408e+00
2.399883e+01	-6.953932e+00
2.413745e+01	-6.994158e+00
2.427686e+01	-7.034199e+00
2.441709e+01	-7.074377e+00
2.455812e+01	-7.114774e+00
2.469997e+01	-7.155218e+00
2.484263e+01	-7.195638e+00
2.498612e+01	-7.235924e+00
2.513044e+01	-7.276578e+00
2.527559e+01	-7.317474e+00
2.542158e+01	-7.357948e+00
2.556842e+01	-7.399191e+00
2.571610e+01	-7.439976e+00
2.586463e+01	-7.481209e+00
2.601403e+01	-7.522238e+00
2.616428e+01	-7.563473e+00
2.631541e+01	-7.604695e+00
2.646740e+01	-7.646170e+00
2.662028e+01	-7.687952e+00
2.677404e+01	-7.729297e+00
2.692868e+01	-7.770354e+00
2.708422e+01	-7.812125e+00
2.724066e+01	-7.854650e+00
2.739800e+01	-7.895930e+00
2.755625e+01	-7.938056e+00
2.771541e+01	-7.980078e+00
2.787550e+01	-8.021612e+00
2.803650e+01	-8.064460e+00
2.819844e+01	-8.106319e+00
2.836131e+01	-8.148819e+00
2.852513e+01	-8.191250e+00
2.868989e+01	-8.233461e+00
2.885560e+01	-8.276576e+00
2.902227e+01	-8.318825e+00
2.918990e+01	-8.361975e+00
2.935850e+01	-8.404779e+00
2.952807e+01	-8.447317e+00
2.969863e+01	-8.490273e+00
2.987016e+01	-8.533133e+00
3.004269e+01	-8.576420e+00
3.021622e+01	-8.618914e+00
3.039075e+01	-8.662743e+00
3.056628e+01	-8.705548e+00
3.074283e+01	-8.748994e+00
3.092040e+01	-8.792433e+00
3.109900e+01	-8.835714e+00
3.127862e+01	-8.879976e+00
3.145929e+01	-8.923128e+00
3.164099e+01	-8.966429e+00
3.182375e+01	-9.010446e+00
3.200756e+01	-9.054387e+00
3.219244e+01	-9.097706e+00
3.237838e+01	-9.141707e+00
3.256540e+01	-9.185904e+00
3.275349e+01	-9.229365e+00
3.294268e+01	-9.273985e+00
3.313295e+01	-9.317823e+00
3.332433e+01	-9.362141e+00
3.351681e+01	-9.406512e+00
3.371040e+01	-9.451137e+00
3.390511e+01	-9.495326e+00
3.410094e+01	-9.539677e+00
3.429791e+01	-9.584183e+00
3.449601e+01	-9.628456e+00
3.469526e+01	-9.673310e+00
3.489566e+01	-9.718413e+00
3.509721e+01	-9.762674e+00
3.529993e+01	-9.807136e+00
3.550382e+01	-9.852395e+00
3.570889e+01	-9.897096e+00
3.591515e+01	-9.942247e+00
3.612259e+01	-9.987049e+00
3.633123e+01	-1.003181e+01
3.654108e+01	-1.007726e+01
3.675214e+01	-1.012236e+01
3.696442e+01	-1.016775e+01
3.717792e+01	-1.021318e+01
3.739266e+01	-1.025793e+01
3.760864e+01	-1.030388e+01
3.782587e+01	-1.034890e+01
3.804435e+01	-1.039408e+01
3.826409e+01	-1.043976e+01
3.848510e+01	-1.048539e+01
3.870739e+01	-1.053126e+01
3.893096e+01	-1.057660e+01
3.915583e+01	-1.062258e+01
3.938199e+01	-1.066758e+01
3.960946e+01	-1.071334e+01
3.983824e+01	-1.075934e+01
4.006834e+01	-1.080482e+01
4.029978e+01	-1.085144e+01
4.053255e+01	-1.089676e+01
4.076666e+01	-1.094307e+01
4.100213e+01	-1.098950e+01
4.123896e+01	-1.103489e+01
4.147715e+01	-1.108155e+01
4.171672e+01	-1.112735e+01
4.195767e+01	-1.117306e+01
4.220002e+01	-1.122015e+01
4.244377e+01	-1.126666e+01
4.268892e+01	-1.131200e+01
4.293549e+01	-1.135913e+01
4.318348e+01	-1.140515e+01
4.343291e+01	-1.145135e+01
4.368377e+01	-1.149759e+01
4.393609e+01	-1.154437e+01
4.418986e+01	-1.159091e+01
4.444510e+01	-1.163754e+01
4.470182e+01	-1.168431e+01
4.496001e+01	-1.173069e+01
4.521970e+01	-1.177714e+01
4.548089e+01	-1.182439e+01
4.574358e+01	-1.187117e+01
4.600779e+01	-1.191826e+01
4.627353e+01	-1.196453e+01
4.654081e+01	-1.201186e+01
4.680963e+01	-1.205861e+01
4.708000e+01	-1.210491e+01
4.735193e+01	-1.215259e+01
4.762543e+01	-1.219904e+01
4.790051e+01	-1.224679e+01
4.817719e+01	-1.229277e+01
4.845545e+01	-1.234016e+01
4.873533e+01	-1.238747e+01
4.901682e+01	-1.243489e+01
4.929994e+01	-1.248180e+01
4.958470e+01	-1.252868e+01
4.987110e+01	-1.257613e+01
5.015915e+01	-1.262322e+01
5.044887e+01	-1.267035e+01
5.074026e+01	-1.271819e+01
5.103333e+01	-1.276588e+01
5.132810e+01	-1.281305e+01
5.162457e+01	-1.286017e+01
5.192275e+01	-1.290779e+01
5.222265e+01	-1.295573e+01
5.252429e+01	-1.300311e+01
5.282767e+01	-1.305048e+01
5.313280e+01	-1.309792e+01
5.343969e+01	-1.314579e+01
5.374836e+01	-1.319270e+01
5.405880e+01	-1.324027e+01
5.437105e+01	-1.328843e+01
5.468509e+01	-1.333630e+01
5.500095e+01	-1.338396e+01
5.531863e+01	-1.343199e+01
5.563815e+01	-1.347946e+01
5.595951e+01	-1.352714e+01
5.628273e+01	-1.357525e+01
5.660782e+01	-1.362291e+01
5.693479e+01	-1.367057e+01
5.726364e+01	-1.371893e+01
5.759439e+01	-1.376641e+01
5.792705e+01	-1.381412e+01
5.826164e+01	-1.386191e+01
5.859815e+01	-1.391038e+01
5.893662e+01	-1.395832e+01
5.927703e+01	-1.400698e+01
5.961941e+01	-1.405477e+01
5.996377e+01	-1.410254e+01
6.031012e+01	-1.415134e+01
6.065847e+01	-1.419865e+01
6.100883e+01	-1.424707e+01
6.136121e+01	-1.429553e+01
6.171563e+01	-1.434327e+01
6.207210e+01	-1.439039e+01
6.243063e+01	-1.443900e+01
6.279122e+01	-1.448791e+01
6.315390e+01	-1.453619e+01
6.351868e+01	-1.458446e+01
6.388556e+01	-1.463313e+01
6.425456e+01	-1.468067e+01
6.462569e+01	-1.472965e+01
6.499897e+01	-1.477836e+01
6.537440e+01	-1.482611e+01
6.575200e+01	-1.487494e+01
6.613178e+01	-1.492308e+01
6.651375e+01	-1.497171e+01
6.689793e+01	-1.501937e+01
6.728433e+01	-1.506873e+01
6.767297e+01	-1.511615e+01
6.806384e+01	-1.516490e+01
6.845698e+01	-1.521405e+01
6.885238e+01	-1.526214e+01
6.925007e+01	-1.531075e+01
6.965005e+01	-1.535911e+01
7.005235e+01	-1.540911e+01
7.045697e+01	-1.545699e+01
7.086393e+01	-1.550570e+01
7.127323e+01	-1.555373e+01
7.168490e+01	-1.560223e+01
7.209895e+01	-1.565213e+01
7.251539e+01	-1.569971e+01
7.293424e+01	-1.574812e+01
7.335551e+01	-1.579682e+01
7.377920e+01	-1.584515e+01
7.420535e+01	-1.589464e+01
7.463396e+01	-1.594340e+01
7.506504e+01	-1.599195e+01
7.549861e+01	-1.603982e+01
7.593469e+01	-1.608938e+01
7.637328e+01	-1.613772e+01
7.681441e+01	-1.618708e+01
7.725809e+01	-1.623520e+01
7.770433e+01	-1.628665e+01
7.815315e+01	-1.633500e+01
7.860456e+01	-1.638204e+01
7.905857e+01	-1.643088e+01
7.951521e+01	-1.648135e+01
7.997449e+01	-1.652910e+01
8.043642e+01	-1.657853e+01
8.090102e+01	-1.662715e+01
8.136830e+01	-1.667570e+01
8.183828e+01	-1.672487e+01
8.231097e+01	-1.677365e+01
8.278640e+01	-1.682337e+01
8.326457e+01	-1.687134e+01
8.374550e+01	-1.692074e+01
8.422921e+01	-1.696955e+01
8.471572e+01	-1.701920e+01
8.520503e+01	-1.706867e+01
8.569717e+01	-1.711628e+01
8.619215e+01	-1.716647e+01
8.669000e+01	-1.721491e+01
8.719071e+01	-1.726388e+01
8.769432e+01	-1.731376e+01
8.820084e+01	-1.736300e+01
8.871029e+01	-1.741143e+01
8.922267e+01	-1.746087e+01
8.973802e+01	-1.751024e+01
9.025634e+01	-1.755979e+01
9.077766e+01	-1.760923e+01
9.130199e+01	-1.765691e+01
9.182935e+01	-1.770737e+01
9.235975e+01	-1.775583e+01
9.289321e+01	-1.780458e+01
9.342976e+01	-1.785427e+01
9.396941e+01	-1.790444e+01
9.451217e+01	-1.795386e+01
9.505807e+01	-1.800280e+01
9.560712e+01	-1.805013e+01
9.615934e+01	-1.810176e+01
9.671476e+01	-1.815006e+01
9.727338e+01	-1.820008e+01
9.783522e+01	-1.824878e+01
9.840032e+01	-1.829877e+01
9.896867e+01	-1.834606e+01
9.954031e+01	-1.839498e+01
1.001153e+02	-1.844569e+01
1.006935e+02	-1.849547e+01
1.012751e+02	-1.854346e+01
1.018601e+02	-1.859326e+01
1.024484e+02	-1.864428e+01
1.030402e+02	-1.869229e+01
1.036353e+02	-1.874151e+01
1.042339e+02	-1.879147e+01
1.048360e+02	-1.884006e+01
1.054415e+02	-1.889047e+01
1.060505e+02	-1.894049e+01
1.066631e+02	-1.898909e+01
1.072791e+02	-1.903726e+01
1.078988e+02	-1.908743e+01
1.085220e+02	-1.913677e+01
1.091488e+02	-1.918375e+01
1.097793e+02	-1.923691e+01
1.104133e+02	-1.928467e+01
1.110511e+02	-1.933478e+01
1.116925e+02	-1.938266e+01
1.123376e+02	-1.943440e+01
1.129865e+02	-1.948318e+01
1.136391e+02	-1.953288e+01
1.142955e+02	-1.958314e+01
1.149556e+02	-1.963097e+01
1.156196e+02	-1.968061e+01
1.162874e+02	-1.973110e+01
1.169591e+02	-1.978004e+01
1.176347e+02	-1.983194e+01
1.183141e+02	-1.987975e+01
1.189975e+02	-1.992895e+01
1.196848e+02	-1.997829e+01
1.203761e+02	-2.002673e+01
1.210714e+02	-2.007648e+01
1.217707e+02	-2.012624e+01
1.224740e+02	-2.017728e+01
1.231814e+02	-2.022583e+01
1.238929e+02	-2.027641e+01
1.246085e+02	-2.032419e+01
1.253283e+02	-2.037401e+01
1.260522e+02	-2.042447e+01
1.267802e+02	-2.047351e+01
1.275125e+02	-2.052419e+01
1.282490e+02	-2.057240e+01
1.289898e+02	-2.062197e+01
1.297348e+02	-2.067180e+01
1.304842e+02	-2.072167e+01
1.312378e+02	-2.077044e+01
1.319959e+02	-2.081987e+01
1.327583e+02	-2.087059e+01
1.335251e+02	-2.091992e+01
1.342963e+02	-2.097006e+01
1.350720e+02	-2.101964e+01
1.358522e+02	-2.106809e+01
1.366368e+02	-2.111761e+01
1.374260e+02	-2.116911e+01
1.382198e+02	-2.121671e+01
1.390182e+02	-2.126715e+01
1.398211e+02	-2.131903e+01
1.406287e+02	-2.136797e+01
1.414410e+02	-2.141738e+01
1.422579e+02	-2.146827e+01
1.430796e+02	-2.151482e+01
1.439060e+02	-2.156753e+01
1.447372e+02	-2.161541e+01
1.455732e+02	-2.166699e+01
1.464141e+02	-2.171555e+01
1.472597e+02	-2.176388e+01
1.481103e+02	-2.181282e+01
1.489658e+02	-2.186515e+01
1.498262e+02	-2.191502e+01
1.506916e+02	-2.196431e+01
1.515620e+02	-2.201381e+01
1.524374e+02	-2.206429e+01
1.533179e+02	-2.211273e+01
1.542034e+02	-2.216112e+01
1.550941e+02	-2.221207e+01
1.559899e+02	-2.226161e+01
1.568909e+02	-2.231270e+01
1.577971e+02	-2.235921e+01
1.587085e+02	-2.240996e+01
1.596252e+02	-2.246074e+01
1.605472e+02	-2.251199e+01
1.614745e+02	-2.256105e+01
1.624072e+02	-2.261088e+01
1.633453e+02	-2.266077e+01
1.642887e+02	-2.271159e+01
1.652377e+02	-2.275780e+01
1.661921e+02	-2.280967e+01
1.671520e+02	-2.285886e+01
1.681175e+02	-2.291135e+01
1.690885e+02	-2.295890e+01
1.700651e+02	-2.300980e+01
1.710474e+02	-2.305678e+01
1.720354e+02	-2.310740e+01
1.730291e+02	-2.315754e+01
1.740285e+02	-2.320711e+01
1.750337e+02	-2.325763e+01
1.760446e+02	-2.330578e+01
1.770615e+02	-2.335780e+01
1.780842e+02	-2.340565e+01
1.791128e+02	-2.345560e+01
1.801473e+02	-2.350638e+01
1.811878e+02	-2.355706e+01
1.822344e+02	-2.360843e+01
1.832870e+02	-2.365409e+01
1.843456e+02	-2.370436e+01
1.854104e+02	-2.375555e+01
1.864813e+02	-2.380577e+01
1.875584e+02	-2.385386e+01
1.886418e+02	-2.390573e+01
1.897313e+02	-2.395471e+01
1.908272e+02	-2.400527e+01
1.919294e+02	-2.405305e+01
1.930380e+02	-2.410353e+01
1.941530e+02	-2.415611e+01
1.952744e+02	-2.420115e+01
1.964023e+02	-2.425423e+01
1.975367e+02	-2.430303e+01
1.986777e+02	-2.435599e+01
1.998252e+02	-2.440343e+01
2.009794e+02	-2.445262e+01
2.021403e+02	-2.450172e+01
2.033078e+02	-2.455392e+01
2.044821e+02	-2.459998e+01
2.056632e+02	-2.465281e+01
2.068511e+02	-2.470256e+01
2.080459e+02	-2.475311e+01
2.092475e+02	-2.480402e+01
2.104561e+02	-2.485399e+01
2.116717e+02	-2.490295e+01
2.128943e+02	-2.495423e+01
2.141240e+02	-2.500176e+01
2.153608e+02	-2.505173e+01
2.166047e+02	-2.509981e+01
2.178558e+02	-2.515069e+01
2.191141e+02	-2.520490e+01
2.203797e+02	-2.525465e+01
2.216526e+02	-2.530287e+01
2.229329e+02	-2.535117e+01
2.242205e+02	-2.540193e+01
2.255156e+02	-2.545186e+01
2.268182e+02	-2.550170e+01
2.281283e+02	-2.555218e+01
2.294459e+02	-2.560128e+01
2.307712e+02	-2.565098e+01
2.321041e+02	-2.570110e+01
2.334447e+02	-2.575203e+01
2.347931e+02	-2.580174e+01
2.361493e+02	-2.585047e+01
2.375133e+02	-2.589825e+01
2.388851e+02	-2.595070e+01
2.402649e+02	-2.600002e+01
2.416527e+02	-2.605162e+01
2.430484e+02	-2.609709e+01
2.444523e+02	-2.614999e+01
2.458642e+02	-2.620465e+01
2.472843e+02	-2.625252e+01
2.487126e+02	-2.629808e+01
2.501492e+02	-2.635160e+01
2.515940e+02	-2.639778e+01
2.530472e+02	-2.645238e+01
2.545088e+02	-2.649999e+01
2.559789e+02	-2.654727e+01
2.574574e+02	-2.660174e+01
2.589444e+02	-2.665093e+01
2.604401e+02	-2.670058e+01
2.619444e+02	-2.674927e+01
2.634574e+02	-2.680083e+01
2.649791e+02	-2.685001e+01
2.665096e+02	-2.690125e+01
2.680489e+02	-2.694942e+01
2.695972e+02	-2.700017e+01
2.711544e+02	-2.704927e+01
2.727205e+02	-2.709939e+01
2.742958e+02	-2.714812e+01
2.758801e+02	-2.719736e+01
2.774736e+02	-2.725260e+01
2.790762e+02	-2.729989e+01
2.806882e+02	-2.735005e+01
2.823094e+02	-2.740129e+01
2.839400e+02	-2.745363e+01
2.855800e+02	-2.749809e+01
2.872295e+02	-2.755053e+01
2.888886e+02	-2.760347e+01
2.905572e+02	-2.765389e+01
2.922354e+02	-2.769661e+01
2.939234e+02	-2.774782e+01
2.956211e+02	-2.779758e+01
2.973286e+02	-2.784986e+01
2.990459e+02	-2.790041e+01
3.007732e+02	-2.794962e+01
3.025104e+02	-2.799960e+01
3.042577e+02	-2.804992e+01
3.060151e+02	-2.810593e+01
3.077826e+02	-2.814936e+01
3.095604e+02	-2.819980e+01
3.113484e+02	-2.824894e+01
3.131467e+02	-2.829902e+01
3.149554e+02	-2.835031e+01
3.167746e+02	-2.840143e+01
3.186043e+02	-2.845389e+01
3.204445e+02	-2.850098e+01
3.222954e+02	-2.855172e+01
3.241570e+02	-2.860124e+01
3.260293e+02	-2.864916e+01
3.279124e+02	-2.869690e+01
3.298064e+02	-2.875120e+01
3.317114e+02	-2.879770e+01
3.336273e+02	-2.885132e+01
3.355544e+02	-2.890019e+01
3.374925e+02	-2.895123e+01
3.394418e+02	-2.900226e+01
3.414024e+02	-2.904944e+01
3.433744e+02	-2.910015e+01
3.453577e+02	-2.914902e+01
3.473525e+02	-2.920194e+01
3.493588e+02	-2.925334e+01
3.513766e+02	-2.930383e+01
3.534062e+02	-2.935290e+01
3.554474e+02	-2.940504e+01
3.575005e+02	-2.945031e+01
3.595654e+02	-2.950233e+01
3.616422e+02	-2.955253e+01
3.637311e+02	-2.960549e+01
3.658320e+02	-2.964705e+01
3.679450e+02	-2.970446e+01
3.700702e+02	-2.975105e+01
3.722077e+02	-2.980557e+01
3.743576e+02	-2.985046e+01
3.765199e+02	-2.989924e+01
3.786946e+02	-2.995073e+01
3.808820e+02	-3.000435e+01
3.830819e+02	-3.004903e+01
3.852946e+02	-3.010574e+01
3.875200e+02	-3.015308e+01
3.897583e+02	-3.020474e+01
3.920096e+02	-3.025721e+01
3.942738e+02	-3.030363e+01
3.965511e+02	-3.035799e+01
3.988416e+02	-3.040390e+01
4.011452e+02	-3.045634e+01
4.034622e+02	-3.049796e+01
4.057926e+02	-3.055662e+01
4.081365e+02	-3.059734e+01
4.104938e+02	-3.065341e+01
4.128648e+02	-3.070318e+01
4.152495e+02	-3.075261e+01
4.176480e+02	-3.079802e+01
4.200603e+02	-3.085515e+01
4.224866e+02	-3.090007e+01
4.249268e+02	-3.094819e+01
4.273812e+02	-3.100108e+01
4.298497e+02	-3.105678e+01
4.323325e+02	-3.110579e+01
4.348297e+02	-3.115452e+01
4.373412e+02	-3.120890e+01
4.398673e+02	-3.125987e+01
4.424079e+02	-3.130792e+01
4.449633e+02	-3.136041e+01
4.475334e+02	-3.141226e+01
4.501183e+02	-3.146134e+01
4.527182e+02	-3.151198e+01
4.553330e+02	-3.155280e+01
4.579630e+02	-3.160732e+01
4.606082e+02	-3.165711e+01
4.632687e+02	-3.171284e+01
4.659445e+02	-3.175719e+01
4.686358e+02	-3.180625e+01
4.713426e+02	-3.186357e+01
4.740650e+02	-3.190752e+01
4.768032e+02	-3.195786e+01
4.795572e+02	-3.200835e+01
4.823271e+02	-3.205520e+01
4.851130e+02	-3.210709e+01
4.879150e+02	-3.215904e+01
4.907332e+02	-3.221322e+01
4.935676e+02	-3.226178e+01
4.964185e+02	-3.230785e+01
4.992858e+02	-3.236411e+01
5.021696e+02	-3.241567e+01
5.050701e+02	-3.245688e+01
5.079874e+02	-3.251226e+01
5.109215e+02	-3.256367e+01
5.138726e+02	-3.261045e+01
5.168407e+02	-3.266525e+01
5.198259e+02	-3.270772e+01
5.228284e+02	-3.275656e+01
5.258482e+02	-3.280869e+01
5.288855e+02	-3.286538e+01
5.319403e+02	-3.291128e+01
5.350128e+02	-3.296536e+01
5.381030e+02	-3.301248e+01
5.412111e+02	-3.306203e+01
5.443371e+02	-3.310924e+01
5.474812e+02	-3.316972e+01
5.506434e+02	-3.321047e+01
5.538239e+02	-3.325701e+01
5.570228e+02	-3.331699e+01
5.602401e+02	-3.336134e+01
5.634760e+02	-3.341220e+01
5.667306e+02	-3.346444e+01
5.700040e+02	-3.351865e+01
5.732964e+02	-3.356513e+01
5.766077e+02	-3.361065e+01
5.799382e+02	-3.365786e+01
5.832879e+02	-3.371764e+01
5.866569e+02	-3.375992e+01
5.900454e+02	-3.381791e+01
5.934535e+02	-3.386491e+01
5.968813e+02	-3.391194e+01
6.003288e+02	-3.396923e+01
6.037963e+02	-3.402204e+01
6.072838e+02	-3.407261e+01
6.107914e+02	-3.411533e+01
6.143194e+02	-3.416537e+01
6.178676e+02	-3.422161e+01
6.214364e+02	-3.427418e+01
6.250258e+02	-3.432408e+01
6.286359e+02	-3.436629e+01
6.322669e+02	-3.441777e+01
6.359189e+02	-3.446701e+01
6.395919e+02	-3.452073e+01
6.432862e+02	-3.457447e+01
6.470017e+02	-3.462596e+01
6.507388e+02	-3.467206e+01
6.544974e+02	-3.472714e+01
6.582778e+02	-3.475906e+01
6.620800e+02	-3.481790e+01
6.659041e+02	-3.488191e+01
6.697504e+02	-3.492684e+01
6.736188e+02	-3.497536e+01
6.775096e+02	-3.502438e+01
6.814229e+02	-3.508158e+01
6.853587e+02	-3.512822e+01
6.893173e+02	-3.518404e+01
6.932988e+02	-3.521769e+01
6.973033e+02	-3.527392e+01
7.013309e+02	-3.532473e+01
