Frequency(Hz)	Magnitude(dB)
1.000000e+01	-2.263960e+00
1.005776e+01	-2.284407e+00
1.011585e+01	-2.304873e+00
1.017428e+01	-2.325844e+00
1.023305e+01	-2.346523e+00
1.029215e+01	-2.367111e+00
1.035160e+01	-2.388465e+00
1.041139e+01	-2.409655e+00
1.047153e+01	-2.431223e+00
1.053201e+01	-2.452601e+00
1.059284e+01	-2.474264e+00
1.065403e+01	-2.496187e+00
1.071556e+01	-2.518131e+00
1.077746e+01	-2.539879e+00
1.083971e+01	-2.562316e+00
1.090232e+01	-2.584769e+00
1.096529e+01	-2.607305e+00
1.102862e+01	-2.629859e+00
1.109232e+01	-2.652716e+00
1.115639e+01	-2.675579e+00
1.122083e+01	-2.698797e+00
1.128564e+01	-2.721900e+00
1.135083e+01	-2.745207e+00
1.141639e+01	-2.768896e+00
1.148233e+01	-2.792461e+00
1.154865e+01	-2.816178e+00
1.161536e+01	-2.840438e+00
1.168245e+01	-2.864428e+00
1.174992e+01	-2.888362e+00
1.181779e+01	-2.913002e+00
1.188605e+01	-2.937534e+00
1.195470e+01	-2.961920e+00
1.202375e+01	-2.987027e+00
1.209320e+01	-3.011772e+00
1.216305e+01	-3.036800e+00
1.223330e+01	-3.062383e+00
1.230396e+01	-3.087527e+00
1.237503e+01	-3.113098e+00
1.244651e+01	-3.138873e+00
1.251840e+01	-3.164468e+00
1.259070e+01	-3.190751e+00
1.266343e+01	-3.216493e+00
1.273657e+01	-3.243115e+00
1.281014e+01	-3.269173e+00
1.288413e+01	-3.295475e+00
1.295855e+01	-3.322463e+00
1.303339e+01	-3.349307e+00
1.310867e+01	-3.376381e+00
1.318439e+01	-3.403433e+00
1.326054e+01	-3.430349e+00
1.333713e+01	-3.457750e+00
1.341417e+01	-3.485631e+00
1.349165e+01	-3.513121e+00
1.356958e+01	-3.541034e+00
1.364795e+01	-3.569081e+00
1.372678e+01	-3.597228e+00
1.380607e+01	-3.625216e+00
1.388581e+01	-3.653427e+00
1.396602e+01	-3.682244e+00
1.404668e+01	-3.710917e+00
1.412782e+01	-3.739687e+00
1.420942e+01	-3.768620e+00
1.429149e+01	-3.797755e+00
1.437404e+01	-3.827022e+00
1.445706e+01	-3.856150e+00
1.454057e+01	-3.885766e+00
1.462455e+01	-3.915480e+00
1.470902e+01	-3.945404e+00
1.479398e+01	-3.975313e+00
1.487943e+01	-4.005103e+00
1.496537e+01	-4.035709e+00
1.505181e+01	-4.065872e+00
1.513875e+01	-4.096191e+00
1.522619e+01	-4.126936e+00
1.531414e+01	-4.157587e+00
1.540259e+01	-4.188863e+00
1.549156e+01	-4.219544e+00
1.558103e+01	-4.250667e+00
1.567103e+01	-4.282024e+00
1.576155e+01	-4.313450e+00
1.585258e+01	-4.345189e+00
1.594415e+01	-4.376638e+00
1.603624e+01	-4.408582e+00
1.612886e+01	-4.440471e+00
1.622202e+01	-4.472888e+00
1.631572e+01	-4.504880e+00
1.640996e+01	-4.537301e+00
1.650474e+01	-4.570028e+00
1.660008e+01	-4.602319e+00
1.669596e+01	-4.635178e+00
1.679239e+01	-4.668054e+00
1.688938e+01	-4.701118e+00
1.698694e+01	-4.734108e+00
1.708505e+01	-4.767671e+00
1.718373e+01	-4.800669e+00
1.728299e+01	-4.834469e+00
1.738281e+01	-4.867784e+00
1.748322e+01	-4.901689e+00
1.758420e+01	-4.935621e+00
1.768576e+01	-4.969708e+00
1.778792e+01	-5.003872e+00
1.789066e+01	-5.038178e+00
1.799399e+01	-5.072555e+00
1.809793e+01	-5.107107e+00
1.820246e+01	-5.141679e+00
1.830760e+01	-5.176187e+00
1.841334e+01	-5.211274e+00
1.851969e+01	-5.246193e+00
1.862666e+01	-5.281587e+00
1.873425e+01	-5.316880e+00
1.884246e+01	-5.352193e+00
1.895129e+01	-5.387738e+00
1.906075e+01	-5.423304e+00
1.917085e+01	-5.458944e+00
1.928158e+01	-5.494971e+00
1.939295e+01	-5.530754e+00
1.950496e+01	-5.566516e+00
1.961762e+01	-5.602853e+00
1.973093e+01	-5.639662e+00
1.984490e+01	-5.675868e+00
1.995952e+01	-5.712461e+00
2.007480e+01	-5.749036e+00
2.019076e+01	-5.785884e+00
2.030738e+01	-5.822786e+00
2.042467e+01	-5.859791e+00
2.054264e+01	-5.897052e+00
2.066130e+01	-5.934224e+00
2.078064e+01	-5.971309e+00
2.090066e+01	-6.008806e+00
2.102139e+01	-6.046477e+00
2.114280e+01	-6.083997e+00
2.126492e+01	-6.121750e+00
2.138775e+01	-6.159418e+00
2.151128e+01	-6.197464e+00
2.163553e+01	-6.235555e+00
2.176050e+01	-6.274014e+00
2.188619e+01	-6.312063e+00
2.201260e+01	-6.350656e+00
2.213974e+01	-6.388948e+00
2.226762e+01	-6.427330e+00
2.239624e+01	-6.466293e+00
2.252560e+01	-6.505113e+00
2.265571e+01	-6.544060e+00
2.278656e+01	-6.582844e+00
2.291818e+01	-6.621848e+00
2.305055e+01	-6.661131e+00
2.318369e+01	-6.700557e+00
2.331760e+01	-6.739886e+00
2.345228e+01	-6.778842e+00
2.358774e+01	-6.819069e+00
2.372398e+01	-6.858687e+00
2.386101e+01	-6.898234e+00
2.399883e+01	-6.938139e+00
2.413745e+01	-6.977918e+00
2.427686e+01	-7.018523e+00
2.441709e+01	-7.058262e+00
2.455812e+01	-7.098604e+00
2.469997e+01	-7.138910e+00
2.484263e+01	-7.179259e+00
2.498612e+01	-7.219530e+00
2.513044e+01	-7.260340e+00
2.527559e+01	-7.301029e+00
2.542158e+01	-7.341761e+00
2.556842e+01	-7.382558e+00
2.571610e+01	-7.423657e+00
2.586463e+01	-7.464766e+00
2.601403e+01	-7.505697e+00
2.616428e+01	-7.546648e+00
2.631541e+01	-7.587960e+00
2.646740e+01	-7.629229e+00
2.662028e+01	-7.670697e+00
2.677404e+01	-7.712665e+00
2.692868e+01	-7.753738e+00
2.708422e+01	-7.796034e+00
2.724066e+01	-7.837630e+00
2.739800e+01	-7.879221e+00
2.755625e+01	-7.921437e+00
2.771541e+01	-7.962731e+00
2.787550e+01	-8.004946e+00
2.803650e+01	-8.047184e+00
2.819844e+01	-8.089418e+00
2.836131e+01	-8.131904e+00
2.852513e+01	-8.174541e+00
2.868989e+01	-8.216765e+00
2.885560e+01	-8.259428e+00
2.902227e+01	-8.301849e+00
2.918990e+01	-8.344577e+00
2.935850e+01	-8.387003e+00
2.952807e+01	-8.430200e+00
2.969863e+01	-8.473078e+00
2.987016e+01	-8.515963e+00
3.004269e+01	-8.558683e+00
3.021622e+01	-8.601982e+00
3.039075e+01	-8.645544e+00
3.056628e+01	-8.688001e+00
3.074283e+01	-8.731723e+00
3.092040e+01	-8.774852e+00
3.109900e+01	-8.818749e+00
3.127862e+01	-8.862305e+00
3.145929e+01	-8.905429e+00
3.164099e+01	-8.948707e+00
3.182375e+01	-8.992424e+00
3.200756e+01	-9.036543e+00
3.219244e+01	-9.080384e+00
3.237838e+01	-9.124127e+00
3.256540e+01	-9.168448e+00
3.275349e+01	-9.212135e+00
3.294268e+01	-9.256107e+00
3.313295e+01	-9.299968e+00
3.332433e+01	-9.344347e+00
3.351681e+01	-9.388767e+00
3.371040e+01	-9.433133e+00
3.390511e+01	-9.477657e+00
3.410094e+01	-9.521745e+00
3.429791e+01	-9.566501e+00
3.449601e+01	-9.610257e+00
3.469526e+01	-9.655899e+00
3.489566e+01	-9.699525e+00
3.509721e+01	-9.744323e+00
3.529993e+01	-9.789649e+00
3.550382e+01	-9.834010e+00
3.570889e+01	-9.879450e+00
3.591515e+01	-9.923962e+00
3.612259e+01	-9.968970e+00
3.633123e+01	-1.001377e+01
3.654108e+01	-1.005918e+01
3.675214e+01	-1.010385e+01
3.696442e+01	-1.014907e+01
3.717792e+01	-1.019418e+01
3.739266e+01	-1.023951e+01
3.760864e+01	-1.028512e+01
3.782587e+01	-1.033020e+01
3.804435e+01	-1.037606e+01
3.826409e+01	-1.042164e+01
3.848510e+01	-1.046701e+01
3.870739e+01	-1.051305e+01
3.893096e+01	-1.055806e+01
3.915583e+01	-1.060385e+01
3.938199e+01	-1.064945e+01
3.960946e+01	-1.069534e+01
3.983824e+01	-1.074147e+01
4.006834e+01	-1.078670e+01
4.029978e+01	-1.083304e+01
4.053255e+01	-1.087855e+01
4.076666e+01	-1.092465e+01
4.100213e+01	-1.097050e+01
4.123896e+01	-1.101713e+01
4.147715e+01	-1.106268e+01
4.171672e+01	-1.110817e+01
4.195767e+01	-1.115492e+01
4.220002e+01	-1.120101e+01
4.244377e+01	-1.124723e+01
4.268892e+01	-1.129337e+01
4.293549e+01	-1.133987e+01
4.318348e+01	-1.138640e+01
4.343291e+01	-1.143310e+01
4.368377e+01	-1.147895e+01
4.393609e+01	-1.152557e+01
4.418986e+01	-1.157206e+01
4.444510e+01	-1.161869e+01
4.470182e+01	-1.166562e+01
4.496001e+01	-1.171168e+01
4.521970e+01	-1.175965e+01
4.548089e+01	-1.180525e+01
4.574358e+01	-1.185178e+01
4.600779e+01	-1.189881e+01
4.627353e+01	-1.194545e+01
4.654081e+01	-1.199212e+01
4.680963e+01	-1.203918e+01
4.708000e+01	-1.208703e+01
4.735193e+01	-1.213348e+01
4.762543e+01	-1.218039e+01
4.790051e+01	-1.222734e+01
4.817719e+01	-1.227411e+01
4.845545e+01	-1.232147e+01
4.873533e+01	-1.236855e+01
4.901682e+01	-1.241515e+01
4.929994e+01	-1.246329e+01
4.958470e+01	-1.251088e+01
4.987110e+01	-1.255749e+01
5.015915e+01	-1.260504e+01
5.044887e+01	-1.265189e+01
5.074026e+01	-1.269899e+01
5.103333e+01	-1.274628e+01
5.132810e+01	-1.279359e+01
5.162457e+01	-1.284151e+01
5.192275e+01	-1.288837e+01
5.222265e+01	-1.293625e+01
5.252429e+01	-1.298396e+01
5.282767e+01	-1.303132e+01
5.313280e+01	-1.307865e+01
5.343969e+01	-1.312636e+01
5.374836e+01	-1.317454e+01
5.405880e+01	-1.322160e+01
5.437105e+01	-1.326887e+01
5.468509e+01	-1.331622e+01
5.500095e+01	-1.336466e+01
5.531863e+01	-1.341269e+01
5.563815e+01	-1.346047e+01
5.595951e+01	-1.350859e+01
5.628273e+01	-1.355556e+01
5.660782e+01	-1.360310e+01
5.693479e+01	-1.365182e+01
5.726364e+01	-1.369932e+01
5.759439e+01	-1.374782e+01
5.792705e+01	-1.379537e+01
5.826164e+01	-1.384337e+01
5.859815e+01	-1.389166e+01
5.893662e+01	-1.393887e+01
5.927703e+01	-1.398604e+01
5.961941e+01	-1.403542e+01
5.996377e+01	-1.408344e+01
6.031012e+01	-1.413050e+01
6.065847e+01	-1.417971e+01
6.100883e+01	-1.422785e+01
6.136121e+01	-1.427596e+01
6.171563e+01	-1.432403e+01
6.207210e+01	-1.437258e+01
6.243063e+01	-1.442051e+01
6.279122e+01	-1.446849e+01
6.315390e+01	-1.451713e+01
6.351868e+01	-1.456581e+01
6.388556e+01	-1.461360e+01
6.425456e+01	-1.466236e+01
6.462569e+01	-1.470965e+01
6.499897e+01	-1.475823e+01
6.537440e+01	-1.480703e+01
6.575200e+01	-1.485401e+01
6.613178e+01	-1.490372e+01
6.651375e+01	-1.495186e+01
6.689793e+01	-1.500171e+01
6.728433e+01	-1.504782e+01
6.767297e+01	-1.509627e+01
6.806384e+01	-1.514539e+01
6.845698e+01	-1.519419e+01
6.885238e+01	-1.524241e+01
6.925007e+01	-1.529137e+01
6.965005e+01	-1.533963e+01
7.005235e+01	-1.538830e+01
7.045697e+01	-1.543755e+01
7.086393e+01	-1.548551e+01
7.127323e+01	-1.553432e+01
7.168490e+01	-1.558278e+01
7.209895e+01	-1.563128e+01
7.251539e+01	-1.567975e+01
7.293424e+01	-1.572991e+01
7.335551e+01	-1.577748e+01
7.377920e+01	-1.582534e+01
7.420535e+01	-1.587565e+01
7.463396e+01	-1.592471e+01
7.506504e+01	-1.597246e+01
7.549861e+01	-1.602126e+01
7.593469e+01	-1.607033e+01
7.637328e+01	-1.611783e+01
7.681441e+01	-1.616750e+01
7.725809e+01	-1.621703e+01
7.770433e+01	-1.626445e+01
7.815315e+01	-1.631427e+01
7.860456e+01	-1.636417e+01
7.905857e+01	-1.641170e+01
7.951521e+01	-1.646175e+01
7.997449e+01	-1.651037e+01
8.043642e+01	-1.655793e+01
8.090102e+01	-1.660684e+01
8.136830e+01	-1.665585e+01
8.183828e+01	-1.670578e+01
8.231097e+01	-1.675375e+01
8.278640e+01	-1.680391e+01
8.326457e+01	-1.685210e+01
8.374550e+01	-1.690161e+01
8.422921e+01	-1.695001e+01
8.471572e+01	-1.699839e+01
8.520503e+01	-1.704871e+01
8.569717e+01	-1.709770e+01
8.619215e+01	-1.714623e+01
8.669000e+01	-1.719602e+01
8.719071e+01	-1.724438e+01
8.769432e+01	-1.729466e+01
8.820084e+01	-1.734305e+01
8.871029e+01	-1.739191e+01
8.922267e+01	-1.744181e+01
8.973802e+01	-1.749096e+01
9.025634e+01	-1.754010e+01
9.077766e+01	-1.758865e+01
9.130199e+01	-1.763736e+01
9.182935e+01	-1.768704e+01
9.235975e+01	-1.773690e+01
9.289321e+01	-1.778462e+01
9.342976e+01	-1.783538e+01
9.396941e+01	-1.788318e+01
9.451217e+01	-1.793467e+01
9.505807e+01	-1.798048e+01
9.560712e+01	-1.803262e+01
9.615934e+01	-1.807945e+01
9.671476e+01	-1.812988e+01
9.727338e+01	-1.817763e+01
9.783522e+01	-1.822724e+01
9.840032e+01	-1.827725e+01
9.896867e+01	-1.832592e+01
9.954031e+01	-1.837678e+01
1.001153e+02	-1.842552e+01
1.006935e+02	-1.847586e+01
1.012751e+02	-1.852424e+01
1.018601e+02	-1.857372e+01
1.024484e+02	-1.862378e+01
1.030402e+02	-1.867241e+01
1.036353e+02	-1.872245e+01
1.042339e+02	-1.877054e+01
1.048360e+02	-1.882150e+01
1.054415e+02	-1.886998e+01
1.060505e+02	-1.891883e+01
1.066631e+02	-1.896943e+01
1.072791e+02	-1.901788e+01
1.078988e+02	-1.906766e+01
1.085220e+02	-1.911722e+01
1.091488e+02	-1.916605e+01
1.097793e+02	-1.921467e+01
1.104133e+02	-1.926421e+01
1.110511e+02	-1.931349e+01
1.116925e+02	-1.936421e+01
1.123376e+02	-1.941313e+01
1.129865e+02	-1.946294e+01
1.136391e+02	-1.951259e+01
1.142955e+02	-1.956222e+01
1.149556e+02	-1.961314e+01
1.156196e+02	-1.966171e+01
1.162874e+02	-1.971116e+01
1.169591e+02	-1.975921e+01
1.176347e+02	-1.980934e+01
1.183141e+02	-1.985847e+01
1.189975e+02	-1.990800e+01
1.196848e+02	-1.995742e+01
1.203761e+02	-2.000781e+01
1.210714e+02	-2.005879e+01
1.217707e+02	-2.010622e+01
1.224740e+02	-2.015633e+01
1.231814e+02	-2.020716e+01
1.238929e+02	-2.025603e+01
1.246085e+02	-2.030357e+01
1.253283e+02	-2.035412e+01
1.260522e+02	-2.040484e+01
1.267802e+02	-2.045390e+01
1.275125e+02	-2.050194e+01
1.282490e+02	-2.055199e+01
1.289898e+02	-2.060305e+01
1.297348e+02	-2.065311e+01
1.304842e+02	-2.070273e+01
1.312378e+02	-2.075091e+01
1.319959e+02	-2.080163e+01
1.327583e+02	-2.085109e+01
1.335251e+02	-2.089993e+01
1.342963e+02	-2.094918e+01
1.350720e+02	-2.099870e+01
1.358522e+02	-2.104794e+01
1.366368e+02	-2.109892e+01
1.374260e+02	-2.114802e+01
1.382198e+02	-2.119737e+01
1.390182e+02	-2.124856e+01
1.398211e+02	-2.129792e+01
1.406287e+02	-2.134811e+01
1.414410e+02	-2.140006e+01
1.422579e+02	-2.144588e+01
1.430796e+02	-2.149683e+01
1.439060e+02	-2.154640e+01
1.447372e+02	-2.159519e+01
1.455732e+02	-2.164669e+01
1.464141e+02	-2.169520e+01
1.472597e+02	-2.174601e+01
1.481103e+02	-2.179314e+01
1.489658e+02	-2.184567e+01
1.498262e+02	-2.189479e+01
1.506916e+02	-2.194377e+01
1.515620e+02	-2.199426e+01
1.524374e+02	-2.204298e+01
1.533179e+02	-2.209287e+01
1.542034e+02	-2.214360e+01
1.550941e+02	-2.219101e+01
1.559899e+02	-2.224180e+01
1.568909e+02	-2.229405e+01
1.577971e+02	-2.234096e+01
1.587085e+02	-2.239196e+01
1.596252e+02	-2.243972e+01
1.605472e+02	-2.248723e+01
1.614745e+02	-2.253996e+01
1.624072e+02	-2.259185e+01
1.633453e+02	-2.263845e+01
1.642887e+02	-2.268946e+01
1.652377e+02	-2.273945e+01
1.661921e+02	-2.279108e+01
1.671520e+02	-2.283908e+01
1.681175e+02	-2.288872e+01
1.690885e+02	-2.293950e+01
1.700651e+02	-2.298702e+01
1.710474e+02	-2.303826e+01
1.720354e+02	-2.308849e+01
1.730291e+02	-2.313815e+01
1.740285e+02	-2.318909e+01
1.750337e+02	-2.323753e+01
1.760446e+02	-2.328817e+01
1.770615e+02	-2.333593e+01
1.780842e+02	-2.338823e+01
1.791128e+02	-2.343486e+01
1.801473e+02	-2.348504e+01
1.811878e+02	-2.353529e+01
1.822344e+02	-2.358696e+01
1.832870e+02	-2.363447e+01
1.843456e+02	-2.368375e+01
1.854104e+02	-2.373474e+01
1.864813e+02	-2.378387e+01
1.875584e+02	-2.383569e+01
1.886418e+02	-2.388585e+01
1.897313e+02	-2.393406e+01
1.908272e+02	-2.398405e+01
1.919294e+02	-2.403261e+01
1.930380e+02	-2.408577e+01
1.941530e+02	-2.413320e+01
1.952744e+02	-2.418346e+01
1.964023e+02	-2.423622e+01
1.975367e+02	-2.428432e+01
1.986777e+02	-2.433414e+01
1.998252e+02	-2.438619e+01
2.009794e+02	-2.443320e+01
2.021403e+02	-2.448389e+01
2.033078e+02	-2.453346e+01
2.044821e+02	-2.458160e+01
2.056632e+02	-2.463057e+01
2.068511e+02	-2.468579e+01
2.080459e+02	-2.473425e+01
2.092475e+02	-2.478473e+01
2.104561e+02	-2.483314e+01
2.116717e+02	-2.488123e+01
2.128943e+02	-2.493224e+01
2.141240e+02	-2.498325e+01
2.153608e+02	-2.502852e+01
2.166047e+02	-2.508266e+01
2.178558e+02	-2.513283e+01
2.191141e+02	-2.518053e+01
2.203797e+02	-2.522877e+01
2.216526e+02	-2.527957e+01
2.229329e+02	-2.533140e+01
2.242205e+02	-2.537883e+01
2.255156e+02	-2.543078e+01
2.268182e+02	-2.548182e+01
2.281283e+02	-2.552970e+01
2.294459e+02	-2.557971e+01
2.307712e+02	-2.563208e+01
2.321041e+02	-2.568032e+01
2.334447e+02	-2.573271e+01
2.347931e+02	-2.578119e+01
2.361493e+02	-2.583064e+01
2.375133e+02	-2.588395e+01
2.388851e+02	-2.592907e+01
2.402649e+02	-2.598128e+01
2.416527e+02	-2.603382e+01
2.430484e+02	-2.607897e+01
2.444523e+02	-2.613197e+01
2.458642e+02	-2.618187e+01
2.472843e+02	-2.622938e+01
2.487126e+02	-2.628100e+01
2.501492e+02	-2.633158e+01
2.515940e+02	-2.637913e+01
2.530472e+02	-2.642820e+01
2.545088e+02	-2.647987e+01
2.559789e+02	-2.653049e+01
2.574574e+02	-2.658483e+01
2.589444e+02	-2.662903e+01
2.604401e+02	-2.668053e+01
2.619444e+02	-2.673245e+01
2.634574e+02	-2.677972e+01
2.649791e+02	-2.682847e+01
2.665096e+02	-2.688001e+01
2.680489e+02	-2.692707e+01
2.695972e+02	-2.698240e+01
2.711544e+02	-2.702978e+01
2.727205e+02	-2.707847e+01
2.742958e+02	-2.713261e+01
2.758801e+02	-2.718099e+01
2.774736e+02	-2.722812e+01
2.790762e+02	-2.728139e+01
2.806882e+02	-2.732796e+01
2.823094e+02	-2.737802e+01
2.839400e+02	-2.743002e+01
2.855800e+02	-2.748067e+01
2.872295e+02	-2.752655e+01
2.888886e+02	-2.757875e+01
2.905572e+02	-2.763082e+01
2.922354e+02	-2.768303e+01
2.939234e+02	-2.773290e+01
2.956211e+02	-2.778256e+01
2.973286e+02	-2.783093e+01
2.990459e+02	-2.787694e+01
3.007732e+02	-2.793227e+01
3.025104e+02	-2.798228e+01
3.042577e+02	-2.802814e+01
3.060151e+02	-2.808270e+01
3.077826e+02	-2.812991e+01
3.095604e+02	-2.818283e+01
3.113484e+02	-2.823011e+01
3.131467e+02	-2.828039e+01
3.149554e+02	-2.833041e+01
3.167746e+02	-2.838143e+01
3.186043e+02	-2.842660e+01
3.204445e+02	-2.848374e+01
3.222954e+02	-2.853066e+01
3.241570e+02	-2.858259e+01
3.260293e+02	-2.863300e+01
3.279124e+02	-2.868500e+01
3.298064e+02	-2.873056e+01
3.317114e+02	-2.878194e+01
3.336273e+02	-2.883271e+01
3.355544e+02	-2.888184e+01
3.374925e+02	-2.892762e+01
3.394418e+02	-2.898188e+01
3.414024e+02	-2.903301e+01
3.433744e+02	-2.908683e+01
3.453577e+02	-2.913221e+01
3.473525e+02	-2.918214e+01
3.493588e+02	-2.922934e+01
3.513766e+02	-2.928386e+01
3.534062e+02	-2.932730e+01
3.554474e+02	-2.938008e+01
3.575005e+02	-2.943342e+01
3.595654e+02	-2.947830e+01
3.616422e+02	-2.953538e+01
3.637311e+02	-2.957920e+01
3.658320e+02	-2.963106e+01
3.679450e+02	-2.967972e+01
3.700702e+02	-2.973282e+01
3.722077e+02	-2.978695e+01
3.743576e+02	-2.982936e+01
3.765199e+02	-2.988300e+01
3.786946e+02	-2.993630e+01
3.808820e+02	-2.998465e+01
3.830819e+02	-3.003131e+01
3.852946e+02	-3.008318e+01
3.875200e+02	-3.013267e+01
3.897583e+02	-3.018303e+01
3.920096e+02	-3.023092e+01
3.942738e+02	-3.028308e+01
3.965511e+02	-3.033800e+01
3.988416e+02	-3.038430e+01
4.011452e+02	-3.043555e+01
4.034622e+02	-3.048461e+01
4.057926e+02	-3.053272e+01
4.081365e+02	-3.058276e+01
4.104938e+02	-3.063468e+01
4.128648e+02	-3.068099e+01
4.152495e+02	-3.073303e+01
4.176480e+02	-3.078469e+01
4.200603e+02	-3.083391e+01
4.224866e+02	-3.088551e+01
4.249268e+02	-3.094024e+01
4.273812e+02	-3.098888e+01
4.298497e+02	-3.103516e+01
4.323325e+02	-3.108355e+01
4.348297e+02	-3.113294e+01
4.373412e+02	-3.119181e+01
4.398673e+02	-3.123339e+01
4.424079e+02	-3.128241e+01
4.449633e+02	-3.133485e+01
4.475334e+02	-3.138768e+01
4.501183e+02	-3.143255e+01
4.527182e+02	-3.148352e+01
4.553330e+02	-3.153239e+01
4.579630e+02	-3.158527e+01
4.606082e+02	-3.163251e+01
4.632687e+02	-3.168486e+01
4.659445e+02	-3.173565e+01
4.686358e+02	-3.179123e+01
4.713426e+02	-3.183397e+01
4.740650e+02	-3.188802e+01
4.768032e+02	-3.193592e+01
4.795572e+02	-3.198860e+01
4.823271e+02	-3.203927e+01
4.851130e+02	-3.209154e+01
4.879150e+02	-3.213693e+01
4.907332e+02	-3.218894e+01
4.935676e+02	-3.224280e+01
4.964185e+02	-3.229185e+01
4.992858e+02	-3.233963e+01
5.021696e+02	-3.238669e+01
5.050701e+02	-3.244422e+01
5.079874e+02	-3.249295e+01
5.109215e+02	-3.253845e+01
5.138726e+02	-3.259194e+01
5.168407e+02	-3.263908e+01
5.198259e+02	-3.268930e+01
5.228284e+02	-3.274481e+01
5.258482e+02	-3.278429e+01
5.288855e+02	-3.284745e+01
5.319403e+02	-3.288931e+01
5.350128e+02	-3.294493e+01
5.381030e+02	-3.298883e+01
5.412111e+02	-3.303862e+01
5.443371e+02	-3.309396e+01
5.474812e+02	-3.314328e+01
5.506434e+02	-3.319171e+01
5.538239e+02	-3.324613e+01
5.570228e+02	-3.329698e+01
5.602401e+02	-3.334712e+01
5.634760e+02	-3.339760e+01
5.667306e+02	-3.344529e+01
5.700040e+02	-3.349173e+01
5.732964e+02	-3.354315e+01
5.766077e+02	-3.359027e+01
5.799382e+02	-3.365046e+01
5.832879e+02	-3.369649e+01
5.866569e+02	-3.374326e+01
5.900454e+02	-3.379534e+01
5.934535e+02	-3.385213e+01
5.968813e+02	-3.390208e+01
6.003288e+02	-3.395643e+01
6.037963e+02	-3.399717e+01
6.072838e+02	-3.405349e+01
6.107914e+02	-3.409924e+01
6.143194e+02	-3.414818e+01
6.178676e+02	-3.420127e+01
6.214364e+02	-3.425126e+01
6.250258e+02	-3.430000e+01
6.286359e+02	-3.434907e+01
6.322669e+02	-3.440118e+01
6.359189e+02	-3.444386e+01
6.395919e+02	-3.450204e+01
6.432862e+02	-3.454980e+01
6.470017e+02	-3.459830e+01
6.507388e+02	-3.465417e+01
6.544974e+02	-3.469492e+01
6.582778e+02	-3.475829e+01
6.620800e+02	-3.481067e+01
6.659041e+02	-3.484795e+01
6.697504e+02	-3.490586e+01
6.736188e+02	-3.495724e+01
6.775096e+02	-3.501094e+01
6.814229e+02	-3.505515e+01
6.853587e+02	-3.510284e+01
6.893173e+02	-3.515477e+01
6.932988e+02	-3.520280e+01
6.973033e+02	-3.526104e+01
7.013309e+02	-3.530265e+01
