Frequency(Hz)	Magnitude(dB)
1.000000e+01	-1.979997e+00
1.005776e+01	-1.998243e+00
1.011585e+01	-2.016736e+00
1.017428e+01	-2.035266e+00
1.023305e+01	-2.054318e+00
1.029215e+01	-2.073137e+00
1.035160e+01	-2.092235e+00
1.041139e+01	-2.111148e+00
1.047153e+01	-2.130582e+00
1.053201e+01	-2.149972e+00
1.059284e+01	-2.169842e+00
1.065403e+01	-2.189455e+00
1.071556e+01	-2.209510e+00
1.077746e+01	-2.229409e+00
1.083971e+01	-2.249718e+00
1.090232e+01	-2.269779e+00
1.096529e+01	-2.290449e+00
1.102862e+01	-2.310909e+00
1.109232e+01	-2.331529e+00
1.115639e+01	-2.352414e+00
1.122083e+01	-2.373222e+00
1.128564e+01	-2.394616e+00
1.135083e+01	-2.415719e+00
1.141639e+01	-2.437066e+00
1.148233e+01	-2.458781e+00
1.154865e+01	-2.480435e+00
1.161536e+01	-2.502296e+00
1.168245e+01	-2.524399e+00
1.174992e+01	-2.546505e+00
1.181779e+01	-2.568756e+00
1.188605e+01	-2.590924e+00
1.195470e+01	-2.613702e+00
1.202375e+01	-2.636362e+00
1.209320e+01	-2.659068e+00
1.216305e+01	-2.682199e+00
1.223330e+01	-2.705137e+00
1.230396e+01	-2.728346e+00
1.237503e+01	-2.752014e+00
1.244651e+01	-2.775394e+00
1.251840e+01	-2.799170e+00
1.259070e+01	-2.822843e+00
1.266343e+01	-2.847091e+00
1.273657e+01	-2.871008e+00
1.281014e+01	-2.895454e+00
1.288413e+01	-2.919738e+00
1.295855e+01	-2.944285e+00
1.303339e+01	-2.968986e+00
1.310867e+01	-2.993929e+00
1.318439e+01	-3.019025e+00
1.326054e+01	-3.043812e+00
1.333713e+01	-3.069471e+00
1.341417e+01	-3.094840e+00
1.349165e+01	-3.120438e+00
1.356958e+01	-3.146089e+00
1.364795e+01	-3.171956e+00
1.372678e+01	-3.197627e+00
1.380607e+01	-3.223945e+00
1.388581e+01	-3.250397e+00
1.396602e+01	-3.276735e+00
1.404668e+01	-3.303282e+00
1.412782e+01	-3.329785e+00
1.420942e+01	-3.356761e+00
1.429149e+01	-3.383940e+00
1.437404e+01	-3.410830e+00
1.445706e+01	-3.438418e+00
1.454057e+01	-3.465707e+00
1.462455e+01	-3.493278e+00
1.470902e+01	-3.521065e+00
1.479398e+01	-3.548561e+00
1.487943e+01	-3.576897e+00
1.496537e+01	-3.604991e+00
1.505181e+01	-3.633266e+00
1.513875e+01	-3.661579e+00
1.522619e+01	-3.690333e+00
1.531414e+01	-3.718837e+00
1.540259e+01	-3.747797e+00
1.549156e+01	-3.776865e+00
1.558103e+01	-3.805843e+00
1.567103e+01	-3.835114e+00
1.576155e+01	-3.864751e+00
1.585258e+01	-3.894265e+00
1.594415e+01	-3.923846e+00
1.603624e+01	-3.953455e+00
1.612886e+01	-3.983795e+00
1.622202e+01	-4.013661e+00
1.631572e+01	-4.044076e+00
1.640996e+01	-4.074270e+00
1.650474e+01	-4.105000e+00
1.660008e+01	-4.135583e+00
1.669596e+01	-4.166227e+00
1.679239e+01	-4.197259e+00
1.688938e+01	-4.228426e+00
1.698694e+01	-4.259308e+00
1.708505e+01	-4.290712e+00
1.718373e+01	-4.322103e+00
1.728299e+01	-4.353857e+00
1.738281e+01	-4.385461e+00
1.748322e+01	-4.417598e+00
1.758420e+01	-4.449314e+00
1.768576e+01	-4.481805e+00
1.778792e+01	-4.514126e+00
1.789066e+01	-4.546225e+00
1.799399e+01	-4.578630e+00
1.809793e+01	-4.611432e+00
1.820246e+01	-4.644440e+00
1.830760e+01	-4.677305e+00
1.841334e+01	-4.710040e+00
1.851969e+01	-4.743599e+00
1.862666e+01	-4.776865e+00
1.873425e+01	-4.810306e+00
1.884246e+01	-4.843578e+00
1.895129e+01	-4.877363e+00
1.906075e+01	-4.910930e+00
1.917085e+01	-4.945205e+00
1.928158e+01	-4.979118e+00
1.939295e+01	-5.013555e+00
1.950496e+01	-5.047984e+00
1.961762e+01	-5.082243e+00
1.973093e+01	-5.116806e+00
1.984490e+01	-5.151428e+00
1.995952e+01	-5.186187e+00
2.007480e+01	-5.221323e+00
2.019076e+01	-5.256446e+00
2.030738e+01	-5.291366e+00
2.042467e+01	-5.326452e+00
2.054264e+01	-5.362137e+00
2.066130e+01	-5.397634e+00
2.078064e+01	-5.433535e+00
2.090066e+01	-5.469203e+00
2.102139e+01	-5.504845e+00
2.114280e+01	-5.541004e+00
2.126492e+01	-5.577174e+00
2.138775e+01	-5.613412e+00
2.151128e+01	-5.649753e+00
2.163553e+01	-5.686142e+00
2.176050e+01	-5.722587e+00
2.188619e+01	-5.759659e+00
2.201260e+01	-5.796265e+00
2.213974e+01	-5.833341e+00
2.226762e+01	-5.870595e+00
2.239624e+01	-5.907173e+00
2.252560e+01	-5.944342e+00
2.265571e+01	-5.981787e+00
2.278656e+01	-6.019153e+00
2.291818e+01	-6.056765e+00
2.305055e+01	-6.094844e+00
2.318369e+01	-6.132303e+00
2.331760e+01	-6.170274e+00
2.345228e+01	-6.208050e+00
2.358774e+01	-6.246279e+00
2.372398e+01	-6.284248e+00
2.386101e+01	-6.322556e+00
2.399883e+01	-6.361383e+00
2.413745e+01	-6.399601e+00
2.427686e+01	-6.438318e+00
2.441709e+01	-6.477283e+00
2.455812e+01	-6.515882e+00
2.469997e+01	-6.554809e+00
2.484263e+01	-6.594047e+00
2.498612e+01	-6.632897e+00
2.513044e+01	-6.672111e+00
2.527559e+01	-6.711466e+00
2.542158e+01	-6.750815e+00
2.556842e+01	-6.790529e+00
2.571610e+01	-6.830086e+00
2.586463e+01	-6.869492e+00
2.601403e+01	-6.909550e+00
2.616428e+01	-6.949618e+00
2.631541e+01	-6.989344e+00
2.646740e+01	-7.029636e+00
2.662028e+01	-7.069683e+00
2.677404e+01	-7.109637e+00
2.692868e+01	-7.150493e+00
2.708422e+01	-7.190557e+00
2.724066e+01	-7.231053e+00
2.739800e+01	-7.271332e+00
2.755625e+01	-7.312531e+00
2.771541e+01	-7.353034e+00
2.787550e+01	-7.394136e+00
2.803650e+01	-7.434870e+00
2.819844e+01	-7.476323e+00
2.836131e+01	-7.516968e+00
2.852513e+01	-7.557979e+00
2.868989e+01	-7.599593e+00
2.885560e+01	-7.640825e+00
2.902227e+01	-7.682329e+00
2.918990e+01	-7.723945e+00
2.935850e+01	-7.765905e+00
2.952807e+01	-7.807045e+00
2.969863e+01	-7.848934e+00
2.987016e+01	-7.890907e+00
3.004269e+01	-7.932702e+00
3.021622e+01	-7.974693e+00
3.039075e+01	-8.017268e+00
3.056628e+01	-8.058733e+00
3.074283e+01	-8.101378e+00
3.092040e+01	-8.143788e+00
3.109900e+01	-8.186189e+00
3.127862e+01	-8.228554e+00
3.145929e+01	-8.271190e+00
3.164099e+01	-8.313802e+00
3.182375e+01	-8.356464e+00
3.200756e+01	-8.399435e+00
3.219244e+01	-8.441893e+00
3.237838e+01	-8.484777e+00
3.256540e+01	-8.527736e+00
3.275349e+01	-8.570898e+00
3.294268e+01	-8.613913e+00
3.313295e+01	-8.656865e+00
3.332433e+01	-8.700222e+00
3.351681e+01	-8.743690e+00
3.371040e+01	-8.786996e+00
3.390511e+01	-8.830517e+00
3.410094e+01	-8.874067e+00
3.429791e+01	-8.917700e+00
3.449601e+01	-8.960997e+00
3.469526e+01	-9.005091e+00
3.489566e+01	-9.048772e+00
3.509721e+01	-9.092706e+00
3.529993e+01	-9.136228e+00
3.550382e+01	-9.180232e+00
3.570889e+01	-9.224313e+00
3.591515e+01	-9.268457e+00
3.612259e+01	-9.312963e+00
3.633123e+01	-9.357210e+00
3.654108e+01	-9.401129e+00
3.675214e+01	-9.445277e+00
3.696442e+01	-9.490178e+00
3.717792e+01	-9.534157e+00
3.739266e+01	-9.578244e+00
3.760864e+01	-9.622916e+00
3.782587e+01	-9.667286e+00
3.804435e+01	-9.712611e+00
3.826409e+01	-9.757102e+00
3.848510e+01	-9.802056e+00
3.870739e+01	-9.846675e+00
3.893096e+01	-9.891434e+00
3.915583e+01	-9.936720e+00
3.938199e+01	-9.981645e+00
3.960946e+01	-1.002632e+01
3.983824e+01	-1.007173e+01
4.006834e+01	-1.011700e+01
4.029978e+01	-1.016205e+01
4.053255e+01	-1.020753e+01
4.076666e+01	-1.025222e+01
4.100213e+01	-1.029735e+01
4.123896e+01	-1.034299e+01
4.147715e+01	-1.038824e+01
4.171672e+01	-1.043400e+01
4.195767e+01	-1.047944e+01
4.220002e+01	-1.052531e+01
4.244377e+01	-1.057076e+01
4.268892e+01	-1.061645e+01
4.293549e+01	-1.066234e+01
4.318348e+01	-1.070783e+01
4.343291e+01	-1.075415e+01
4.368377e+01	-1.079942e+01
4.393609e+01	-1.084501e+01
4.418986e+01	-1.089175e+01
4.444510e+01	-1.093724e+01
4.470182e+01	-1.098309e+01
4.496001e+01	-1.102970e+01
4.521970e+01	-1.107556e+01
4.548089e+01	-1.112197e+01
4.574358e+01	-1.116796e+01
4.600779e+01	-1.121391e+01
4.627353e+01	-1.126083e+01
4.654081e+01	-1.130669e+01
4.680963e+01	-1.135328e+01
4.708000e+01	-1.139981e+01
4.735193e+01	-1.144606e+01
4.762543e+01	-1.149211e+01
4.790051e+01	-1.153855e+01
4.817719e+01	-1.158512e+01
4.845545e+01	-1.163147e+01
4.873533e+01	-1.167901e+01
4.901682e+01	-1.172465e+01
4.929994e+01	-1.177201e+01
4.958470e+01	-1.181859e+01
4.987110e+01	-1.186487e+01
5.015915e+01	-1.191236e+01
5.044887e+01	-1.195907e+01
5.074026e+01	-1.200563e+01
5.103333e+01	-1.205263e+01
5.132810e+01	-1.209995e+01
5.162457e+01	-1.214698e+01
5.192275e+01	-1.219312e+01
5.222265e+01	-1.224109e+01
5.252429e+01	-1.228847e+01
5.282767e+01	-1.233502e+01
5.313280e+01	-1.238151e+01
5.343969e+01	-1.242914e+01
5.374836e+01	-1.247642e+01
5.405880e+01	-1.252233e+01
5.437105e+01	-1.257130e+01
5.468509e+01	-1.261820e+01
5.500095e+01	-1.266531e+01
5.531863e+01	-1.271257e+01
5.563815e+01	-1.276048e+01
5.595951e+01	-1.280678e+01
5.628273e+01	-1.285510e+01
5.660782e+01	-1.290182e+01
5.693479e+01	-1.294934e+01
5.726364e+01	-1.299752e+01
5.759439e+01	-1.304520e+01
5.792705e+01	-1.309215e+01
5.826164e+01	-1.313959e+01
5.859815e+01	-1.318811e+01
5.893662e+01	-1.323571e+01
5.927703e+01	-1.328231e+01
5.961941e+01	-1.333039e+01
5.996377e+01	-1.337780e+01
6.031012e+01	-1.342619e+01
6.065847e+01	-1.347350e+01
6.100883e+01	-1.352141e+01
6.136121e+01	-1.356948e+01
6.171563e+01	-1.361712e+01
6.207210e+01	-1.366484e+01
6.243063e+01	-1.371269e+01
6.279122e+01	-1.376050e+01
6.315390e+01	-1.380841e+01
6.351868e+01	-1.385705e+01
6.388556e+01	-1.390473e+01
6.425456e+01	-1.395310e+01
6.462569e+01	-1.400049e+01
6.499897e+01	-1.404799e+01
6.537440e+01	-1.409749e+01
6.575200e+01	-1.414498e+01
6.613178e+01	-1.419391e+01
6.651375e+01	-1.424108e+01
6.689793e+01	-1.428937e+01
6.728433e+01	-1.433758e+01
6.767297e+01	-1.438582e+01
6.806384e+01	-1.443352e+01
6.845698e+01	-1.448204e+01
6.885238e+01	-1.453078e+01
6.925007e+01	-1.457977e+01
6.965005e+01	-1.462696e+01
7.005235e+01	-1.467536e+01
7.045697e+01	-1.472398e+01
7.086393e+01	-1.477198e+01
7.127323e+01	-1.481993e+01
7.168490e+01	-1.486957e+01
7.209895e+01	-1.491733e+01
7.251539e+01	-1.496536e+01
7.293424e+01	-1.501292e+01
7.335551e+01	-1.506283e+01
7.377920e+01	-1.511110e+01
7.420535e+01	-1.515959e+01
7.463396e+01	-1.520820e+01
7.506504e+01	-1.525626e+01
7.549861e+01	-1.530487e+01
7.593469e+01	-1.535416e+01
7.637328e+01	-1.540258e+01
7.681441e+01	-1.545132e+01
7.725809e+01	-1.550004e+01
7.770433e+01	-1.554719e+01
7.815315e+01	-1.559632e+01
7.860456e+01	-1.564545e+01
7.905857e+01	-1.569342e+01
7.951521e+01	-1.574194e+01
7.997449e+01	-1.579095e+01
8.043642e+01	-1.584000e+01
8.090102e+01	-1.588814e+01
8.136830e+01	-1.593764e+01
8.183828e+01	-1.598636e+01
8.231097e+01	-1.603550e+01
8.278640e+01	-1.608373e+01
8.326457e+01	-1.613156e+01
8.374550e+01	-1.618121e+01
8.422921e+01	-1.623005e+01
8.471572e+01	-1.627810e+01
8.520503e+01	-1.632819e+01
8.569717e+01	-1.637721e+01
8.619215e+01	-1.642597e+01
8.669000e+01	-1.647448e+01
8.719071e+01	-1.652333e+01
8.769432e+01	-1.657285e+01
8.820084e+01	-1.662096e+01
8.871029e+01	-1.666980e+01
8.922267e+01	-1.671940e+01
8.973802e+01	-1.676813e+01
9.025634e+01	-1.681736e+01
9.077766e+01	-1.686675e+01
9.130199e+01	-1.691464e+01
9.182935e+01	-1.696518e+01
9.235975e+01	-1.701443e+01
9.289321e+01	-1.706284e+01
9.342976e+01	-1.711156e+01
9.396941e+01	-1.716030e+01
9.451217e+01	-1.720919e+01
9.505807e+01	-1.725898e+01
9.560712e+01	-1.730828e+01
9.615934e+01	-1.735704e+01
9.671476e+01	-1.740500e+01
9.727338e+01	-1.745516e+01
9.783522e+01	-1.750327e+01
9.840032e+01	-1.755396e+01
9.896867e+01	-1.760345e+01
9.954031e+01	-1.765272e+01
1.001153e+02	-1.770044e+01
1.006935e+02	-1.774994e+01
1.012751e+02	-1.779993e+01
1.018601e+02	-1.784921e+01
1.024484e+02	-1.789777e+01
1.030402e+02	-1.794743e+01
1.036353e+02	-1.799695e+01
1.042339e+02	-1.804585e+01
1.048360e+02	-1.809468e+01
1.054415e+02	-1.814438e+01
1.060505e+02	-1.819297e+01
1.066631e+02	-1.824042e+01
1.072791e+02	-1.829228e+01
1.078988e+02	-1.834239e+01
1.085220e+02	-1.838959e+01
1.091488e+02	-1.844076e+01
1.097793e+02	-1.848940e+01
1.104133e+02	-1.853917e+01
1.110511e+02	-1.858861e+01
1.116925e+02	-1.863782e+01
1.123376e+02	-1.868744e+01
1.129865e+02	-1.873579e+01
1.136391e+02	-1.878485e+01
1.142955e+02	-1.883503e+01
1.149556e+02	-1.888296e+01
1.156196e+02	-1.893401e+01
1.162874e+02	-1.898239e+01
1.169591e+02	-1.903241e+01
1.176347e+02	-1.908149e+01
1.183141e+02	-1.913057e+01
1.189975e+02	-1.918039e+01
1.196848e+02	-1.922972e+01
1.203761e+02	-1.927972e+01
1.210714e+02	-1.932995e+01
1.217707e+02	-1.937879e+01
1.224740e+02	-1.942964e+01
1.231814e+02	-1.947612e+01
1.238929e+02	-1.952594e+01
1.246085e+02	-1.957644e+01
1.253283e+02	-1.962501e+01
1.260522e+02	-1.967463e+01
1.267802e+02	-1.972546e+01
1.275125e+02	-1.977337e+01
1.282490e+02	-1.982428e+01
1.289898e+02	-1.987362e+01
1.297348e+02	-1.992514e+01
1.304842e+02	-1.997037e+01
1.312378e+02	-2.002185e+01
1.319959e+02	-2.007162e+01
1.327583e+02	-2.012045e+01
1.335251e+02	-2.017056e+01
1.342963e+02	-2.021879e+01
1.350720e+02	-2.026922e+01
1.358522e+02	-2.031845e+01
1.366368e+02	-2.036665e+01
1.374260e+02	-2.041539e+01
1.382198e+02	-2.046731e+01
1.390182e+02	-2.051667e+01
1.398211e+02	-2.056811e+01
1.406287e+02	-2.061761e+01
1.414410e+02	-2.066582e+01
1.422579e+02	-2.071552e+01
1.430796e+02	-2.076624e+01
1.439060e+02	-2.081489e+01
1.447372e+02	-2.086533e+01
1.455732e+02	-2.091580e+01
1.464141e+02	-2.096503e+01
1.472597e+02	-2.101406e+01
1.481103e+02	-2.106271e+01
1.489658e+02	-2.111428e+01
1.498262e+02	-2.116105e+01
1.506916e+02	-2.121328e+01
1.515620e+02	-2.126135e+01
1.524374e+02	-2.131056e+01
1.533179e+02	-2.136114e+01
1.542034e+02	-2.141086e+01
1.550941e+02	-2.146114e+01
1.559899e+02	-2.150942e+01
1.568909e+02	-2.155856e+01
1.577971e+02	-2.160925e+01
1.587085e+02	-2.166149e+01
1.596252e+02	-2.170968e+01
1.605472e+02	-2.175876e+01
1.614745e+02	-2.180819e+01
1.624072e+02	-2.185857e+01
1.633453e+02	-2.190774e+01
1.642887e+02	-2.195896e+01
1.652377e+02	-2.200680e+01
1.661921e+02	-2.205649e+01
1.671520e+02	-2.210711e+01
1.681175e+02	-2.215649e+01
1.690885e+02	-2.220808e+01
1.700651e+02	-2.225611e+01
1.710474e+02	-2.230691e+01
1.720354e+02	-2.235603e+01
1.730291e+02	-2.240619e+01
1.740285e+02	-2.245421e+01
1.750337e+02	-2.250706e+01
1.760446e+02	-2.255384e+01
1.770615e+02	-2.260449e+01
1.780842e+02	-2.265397e+01
1.791128e+02	-2.270127e+01
1.801473e+02	-2.275623e+01
1.811878e+02	-2.280211e+01
1.822344e+02	-2.285368e+01
1.832870e+02	-2.290289e+01
1.843456e+02	-2.295477e+01
1.854104e+02	-2.300345e+01
1.864813e+02	-2.305240e+01
1.875584e+02	-2.310091e+01
1.886418e+02	-2.315340e+01
1.897313e+02	-2.319994e+01
1.908272e+02	-2.325154e+01
1.919294e+02	-2.330192e+01
1.930380e+02	-2.335512e+01
1.941530e+02	-2.340336e+01
1.952744e+02	-2.345061e+01
1.964023e+02	-2.350437e+01
1.975367e+02	-2.355087e+01
1.986777e+02	-2.360128e+01
1.998252e+02	-2.365011e+01
2.009794e+02	-2.370258e+01
2.021403e+02	-2.375162e+01
2.033078e+02	-2.380031e+01
2.044821e+02	-2.385128e+01
2.056632e+02	-2.389827e+01
2.068511e+02	-2.394945e+01
2.080459e+02	-2.399866e+01
2.092475e+02	-2.405001e+01
2.104561e+02	-2.409733e+01
2.116717e+02	-2.414632e+01
2.128943e+02	-2.419967e+01
2.141240e+02	-2.424744e+01
2.153608e+02	-2.429810e+01
2.166047e+02	-2.434747e+01
2.178558e+02	-2.439680e+01
2.191141e+02	-2.444804e+01
2.203797e+02	-2.449894e+01
2.216526e+02	-2.454594e+01
2.229329e+02	-2.460048e+01
2.242205e+02	-2.464370e+01
2.255156e+02	-2.469901e+01
2.268182e+02	-2.475060e+01
2.281283e+02	-2.480054e+01
2.294459e+02	-2.484828e+01
2.307712e+02	-2.489836e+01
2.321041e+02	-2.494599e+01
2.334447e+02	-2.499611e+01
2.347931e+02	-2.504714e+01
2.361493e+02	-2.509662e+01
2.375133e+02	-2.514872e+01
2.388851e+02	-2.519532e+01
2.402649e+02	-2.524820e+01
2.416527e+02	-2.529856e+01
2.430484e+02	-2.534603e+01
2.444523e+02	-2.539389e+01
2.458642e+02	-2.544609e+01
2.472843e+02	-2.549573e+01
2.487126e+02	-2.554774e+01
2.501492e+02	-2.559487e+01
2.515940e+02	-2.564826e+01
2.530472e+02	-2.569766e+01
2.545088e+02	-2.574522e+01
2.559789e+02	-2.579549e+01
2.574574e+02	-2.584476e+01
2.589444e+02	-2.589258e+01
2.604401e+02	-2.594390e+01
2.619444e+02	-2.599547e+01
2.634574e+02	-2.604602e+01
2.649791e+02	-2.609869e+01
2.665096e+02	-2.614285e+01
2.680489e+02	-2.619406e+01
2.695972e+02	-2.624534e+01
2.711544e+02	-2.629715e+01
2.727205e+02	-2.634566e+01
2.742958e+02	-2.639929e+01
2.758801e+02	-2.644802e+01
2.774736e+02	-2.649400e+01
2.790762e+02	-2.654608e+01
2.806882e+02	-2.659665e+01
2.823094e+02	-2.664432e+01
2.839400e+02	-2.669463e+01
2.855800e+02	-2.674801e+01
2.872295e+02	-2.679515e+01
2.888886e+02	-2.684708e+01
2.905572e+02	-2.689543e+01
2.922354e+02	-2.694205e+01
2.939234e+02	-2.699463e+01
2.956211e+02	-2.704735e+01
2.973286e+02	-2.709778e+01
2.990459e+02	-2.714488e+01
3.007732e+02	-2.719403e+01
3.025104e+02	-2.724425e+01
3.042577e+02	-2.729358e+01
3.060151e+02	-2.734407e+01
3.077826e+02	-2.739718e+01
3.095604e+02	-2.744495e+01
3.113484e+02	-2.749996e+01
3.131467e+02	-2.754421e+01
3.149554e+02	-2.759315e+01
3.167746e+02	-2.764733e+01
3.186043e+02	-2.769687e+01
3.204445e+02	-2.774323e+01
3.222954e+02	-2.779597e+01
3.241570e+02	-2.784835e+01
3.260293e+02	-2.789657e+01
3.279124e+02	-2.794710e+01
3.298064e+02	-2.799650e+01
3.317114e+02	-2.804574e+01
3.336273e+02	-2.809343e+01
3.355544e+02	-2.814771e+01
3.374925e+02	-2.819558e+01
3.394418e+02	-2.824491e+01
3.414024e+02	-2.829465e+01
3.433744e+02	-2.834304e+01
3.453577e+02	-2.839788e+01
3.473525e+02	-2.844850e+01
3.493588e+02	-2.849435e+01
3.513766e+02	-2.854843e+01
3.534062e+02	-2.859857e+01
3.554474e+02	-2.864561e+01
3.575005e+02	-2.869739e+01
3.595654e+02	-2.873939e+01
3.616422e+02	-2.879583e+01
3.637311e+02	-2.885034e+01
3.658320e+02	-2.890050e+01
3.679450e+02	-2.894344e+01
3.700702e+02	-2.899924e+01
3.722077e+02	-2.904438e+01
3.743576e+02	-2.909444e+01
3.765199e+02	-2.914567e+01
3.786946e+02	-2.919754e+01
3.808820e+02	-2.925090e+01
3.830819e+02	-2.929755e+01
3.852946e+02	-2.934596e+01
3.875200e+02	-2.939905e+01
3.897583e+02	-2.944777e+01
3.920096e+02	-2.949800e+01
3.942738e+02	-2.954617e+01
3.965511e+02	-2.959421e+01
3.988416e+02	-2.965167e+01
4.011452e+02	-2.969907e+01
4.034622e+02	-2.975049e+01
4.057926e+02	-2.979901e+01
4.081365e+02	-2.984421e+01
4.104938e+02	-2.990143e+01
4.128648e+02	-2.994381e+01
4.152495e+02	-2.999803e+01
4.176480e+02	-3.005001e+01
4.200603e+02	-3.009683e+01
4.224866e+02	-3.015260e+01
4.249268e+02	-3.019803e+01
4.273812e+02	-3.024601e+01
4.298497e+02	-3.030317e+01
4.323325e+02	-3.035065e+01
4.348297e+02	-3.040244e+01
4.373412e+02	-3.044663e+01
4.398673e+02	-3.049598e+01
4.424079e+02	-3.054646e+01
4.449633e+02	-3.059691e+01
4.475334e+02	-3.064565e+01
4.501183e+02	-3.070188e+01
4.527182e+02	-3.075079e+01
4.553330e+02	-3.079723e+01
4.579630e+02	-3.085457e+01
4.606082e+02	-3.090000e+01
4.632687e+02	-3.094665e+01
4.659445e+02	-3.099952e+01
4.686358e+02	-3.105700e+01
4.713426e+02	-3.109694e+01
4.740650e+02	-3.115213e+01
4.768032e+02	-3.119763e+01
4.795572e+02	-3.125517e+01
4.823271e+02	-3.129875e+01
4.851130e+02	-3.135296e+01
4.879150e+02	-3.140400e+01
4.907332e+02	-3.145738e+01
4.935676e+02	-3.150368e+01
4.964185e+02	-3.155196e+01
4.992858e+02	-3.160467e+01
5.021696e+02	-3.164699e+01
5.050701e+02	-3.170905e+01
5.079874e+02	-3.175711e+01
5.109215e+02	-3.180732e+01
5.138726e+02	-3.185762e+01
5.168407e+02	-3.190575e+01
5.198259e+02	-3.195302e+01
5.228284e+02	-3.200796e+01
5.258482e+02	-3.205683e+01
5.288855e+02	-3.210863e+01
5.319403e+02	-3.215916e+01
5.350128e+02	-3.220221e+01
5.381030e+02	-3.225694e+01
5.412111e+02	-3.231306e+01
5.443371e+02	-3.235831e+01
5.474812e+02	-3.241397e+01
5.506434e+02	-3.245633e+01
5.538239e+02	-3.250917e+01
5.570228e+02	-3.255268e+01
5.602401e+02	-3.260239e+01
5.634760e+02	-3.265191e+01
5.667306e+02	-3.270934e+01
5.700040e+02	-3.276218e+01
5.732964e+02	-3.280618e+01
5.766077e+02	-3.285734e+01
5.799382e+02	-3.291067e+01
5.832879e+02	-3.295907e+01
5.866569e+02	-3.301196e+01
5.900454e+02	-3.306238e+01
5.934535e+02	-3.310486e+01
5.968813e+02	-3.315980e+01
6.003288e+02	-3.320282e+01
6.037963e+02	-3.325859e+01
6.072838e+02	-3.331297e+01
6.107914e+02	-3.335992e+01
6.143194e+02	-3.340959e+01
6.178676e+02	-3.346081e+01
6.214364e+02	-3.351858e+01
6.250258e+02	-3.355885e+01
6.286359e+02	-3.361947e+01
6.322669e+02	-3.367158e+01
6.359189e+02	-3.372103e+01
6.395919e+02	-3.375808e+01
6.432862e+02	-3.381931e+01
6.470017e+02	-3.386926e+01
6.507388e+02	-3.391428e+01
6.544974e+02	-3.396227e+01
6.582778e+02	-3.401524e+01
6.620800e+02	-3.406910e+01
6.659041e+02	-3.412062e+01
6.697504e+02	-3.416290e+01
6.736188e+02	-3.421896e+01
6.775096e+02	-3.427221e+01
6.814229e+02	-3.432237e+01
6.853587e+02	-3.436502e+01
6.893173e+02	-3.441505e+01
6.932988e+02	-3.447099e+01
6.973033e+02	-3.451225e+01
7.013309e+02	-3.457159e+01
