Frequency(Hz)	Magnitude(dB)
1.000000e+01	-1.954776e+00
1.005776e+01	-1.972911e+00
1.011585e+01	-1.991347e+00
1.017428e+01	-2.009696e+00
1.023305e+01	-2.028271e+00
1.029215e+01	-2.046980e+00
1.035160e+01	-2.065921e+00
1.041139e+01	-2.085177e+00
1.047153e+01	-2.104051e+00
1.053201e+01	-2.123263e+00
1.059284e+01	-2.142766e+00
1.065403e+01	-2.162382e+00
1.071556e+01	-2.182096e+00
1.077746e+01	-2.201981e+00
1.083971e+01	-2.221898e+00
1.090232e+01	-2.241979e+00
1.096529e+01	-2.262167e+00
1.102862e+01	-2.282546e+00
1.109232e+01	-2.302903e+00
1.115639e+01	-2.323846e+00
1.122083e+01	-2.344246e+00
1.128564e+01	-2.365591e+00
1.135083e+01	-2.386726e+00
1.141639e+01	-2.407878e+00
1.148233e+01	-2.429307e+00
1.154865e+01	-2.450471e+00
1.161536e+01	-2.472225e+00
1.168245e+01	-2.494100e+00
1.174992e+01	-2.516168e+00
1.181779e+01	-2.538037e+00
1.188605e+01	-2.560355e+00
1.195470e+01	-2.582695e+00
1.202375e+01	-2.605253e+00
1.209320e+01	-2.627740e+00
1.216305e+01	-2.650306e+00
1.223330e+01	-2.673427e+00
1.230396e+01	-2.696451e+00
1.237503e+01	-2.719726e+00
1.244651e+01	-2.742939e+00
1.251840e+01	-2.766582e+00
1.259070e+01	-2.790105e+00
1.266343e+01	-2.814138e+00
1.273657e+01	-2.837786e+00
1.281014e+01	-2.861897e+00
1.288413e+01	-2.886265e+00
1.295855e+01	-2.910458e+00
1.303339e+01	-2.935134e+00
1.310867e+01	-2.959919e+00
1.318439e+01	-2.984415e+00
1.326054e+01	-3.009315e+00
1.333713e+01	-3.034433e+00
1.341417e+01	-3.059710e+00
1.349165e+01	-3.085164e+00
1.356958e+01	-3.110671e+00
1.364795e+01	-3.136186e+00
1.372678e+01	-3.162171e+00
1.380607e+01	-3.187983e+00
1.388581e+01	-3.214075e+00
1.396602e+01	-3.240349e+00
1.404668e+01	-3.266825e+00
1.412782e+01	-3.293100e+00
1.420942e+01	-3.319789e+00
1.429149e+01	-3.346477e+00
1.437404e+01	-3.373652e+00
1.445706e+01	-3.400646e+00
1.454057e+01	-3.427963e+00
1.462455e+01	-3.455160e+00
1.470902e+01	-3.483228e+00
1.479398e+01	-3.510742e+00
1.487943e+01	-3.538272e+00
1.496537e+01	-3.566352e+00
1.505181e+01	-3.594605e+00
1.513875e+01	-3.622674e+00
1.522619e+01	-3.651170e+00
1.531414e+01	-3.679525e+00
1.540259e+01	-3.707965e+00
1.549156e+01	-3.736770e+00
1.558103e+01	-3.765879e+00
1.567103e+01	-3.794883e+00
1.576155e+01	-3.824180e+00
1.585258e+01	-3.853483e+00
1.594415e+01	-3.882950e+00
1.603624e+01	-3.912662e+00
1.612886e+01	-3.942311e+00
1.622202e+01	-3.972396e+00
1.631572e+01	-4.002130e+00
1.640996e+01	-4.032807e+00
1.650474e+01	-4.062999e+00
1.660008e+01	-4.093502e+00
1.669596e+01	-4.124134e+00
1.679239e+01	-4.154691e+00
1.688938e+01	-4.185814e+00
1.698694e+01	-4.216627e+00
1.708505e+01	-4.247883e+00
1.718373e+01	-4.279087e+00
1.728299e+01	-4.310588e+00
1.738281e+01	-4.342074e+00
1.748322e+01	-4.373598e+00
1.758420e+01	-4.405613e+00
1.768576e+01	-4.437365e+00
1.778792e+01	-4.469605e+00
1.789066e+01	-4.501910e+00
1.799399e+01	-4.534112e+00
1.809793e+01	-4.566724e+00
1.820246e+01	-4.599283e+00
1.830760e+01	-4.631900e+00
1.841334e+01	-4.664665e+00
1.851969e+01	-4.697806e+00
1.862666e+01	-4.730984e+00
1.873425e+01	-4.763844e+00
1.884246e+01	-4.797753e+00
1.895129e+01	-4.831029e+00
1.906075e+01	-4.864635e+00
1.917085e+01	-4.898435e+00
1.928158e+01	-4.932064e+00
1.939295e+01	-4.966620e+00
1.950496e+01	-5.000563e+00
1.961762e+01	-5.034991e+00
1.973093e+01	-5.069259e+00
1.984490e+01	-5.103729e+00
1.995952e+01	-5.138660e+00
2.007480e+01	-5.173231e+00
2.019076e+01	-5.208088e+00
2.030738e+01	-5.243260e+00
2.042467e+01	-5.278201e+00
2.054264e+01	-5.313688e+00
2.066130e+01	-5.349215e+00
2.078064e+01	-5.384069e+00
2.090066e+01	-5.419927e+00
2.102139e+01	-5.455628e+00
2.114280e+01	-5.491444e+00
2.126492e+01	-5.527331e+00
2.138775e+01	-5.563678e+00
2.151128e+01	-5.599512e+00
2.163553e+01	-5.635829e+00
2.176050e+01	-5.672426e+00
2.188619e+01	-5.709159e+00
2.201260e+01	-5.745481e+00
2.213974e+01	-5.782097e+00
2.226762e+01	-5.819270e+00
2.239624e+01	-5.856414e+00
2.252560e+01	-5.893449e+00
2.265571e+01	-5.930383e+00
2.278656e+01	-5.968114e+00
2.291818e+01	-6.005287e+00
2.305055e+01	-6.042734e+00
2.318369e+01	-6.080522e+00
2.331760e+01	-6.118182e+00
2.345228e+01	-6.155974e+00
2.358774e+01	-6.194069e+00
2.372398e+01	-6.232011e+00
2.386101e+01	-6.270181e+00
2.399883e+01	-6.308676e+00
2.413745e+01	-6.346730e+00
2.427686e+01	-6.385239e+00
2.441709e+01	-6.423805e+00
2.455812e+01	-6.462588e+00
2.469997e+01	-6.501254e+00
2.484263e+01	-6.539946e+00
2.498612e+01	-6.579127e+00
2.513044e+01	-6.618272e+00
2.527559e+01	-6.657231e+00
2.542158e+01	-6.696921e+00
2.556842e+01	-6.736105e+00
2.571610e+01	-6.775802e+00
2.586463e+01	-6.815284e+00
2.601403e+01	-6.854935e+00
2.616428e+01	-6.894420e+00
2.631541e+01	-6.934478e+00
2.646740e+01	-6.974033e+00
2.662028e+01	-7.014440e+00
2.677404e+01	-7.054528e+00
2.692868e+01	-7.094710e+00
2.708422e+01	-7.134730e+00
2.724066e+01	-7.175296e+00
2.739800e+01	-7.215618e+00
2.755625e+01	-7.256459e+00
2.771541e+01	-7.296746e+00
2.787550e+01	-7.337826e+00
2.803650e+01	-7.378932e+00
2.819844e+01	-7.419132e+00
2.836131e+01	-7.460384e+00
2.852513e+01	-7.501704e+00
2.868989e+01	-7.542953e+00
2.885560e+01	-7.583991e+00
2.902227e+01	-7.625857e+00
2.918990e+01	-7.666822e+00
2.935850e+01	-7.708318e+00
2.952807e+01	-7.750112e+00
2.969863e+01	-7.791408e+00
2.987016e+01	-7.833661e+00
3.004269e+01	-7.875058e+00
3.021622e+01	-7.916737e+00
3.039075e+01	-7.959029e+00
3.056628e+01	-8.001217e+00
3.074283e+01	-8.043486e+00
3.092040e+01	-8.085370e+00
3.109900e+01	-8.127958e+00
3.127862e+01	-8.169862e+00
3.145929e+01	-8.212728e+00
3.164099e+01	-8.255256e+00
3.182375e+01	-8.297689e+00
3.200756e+01	-8.340277e+00
3.219244e+01	-8.383129e+00
3.237838e+01	-8.426293e+00
3.256540e+01	-8.468863e+00
3.275349e+01	-8.511340e+00
3.294268e+01	-8.554688e+00
3.313295e+01	-8.598054e+00
3.332433e+01	-8.640972e+00
3.351681e+01	-8.684015e+00
3.371040e+01	-8.727232e+00
3.390511e+01	-8.771224e+00
3.410094e+01	-8.814367e+00
3.429791e+01	-8.857740e+00
3.449601e+01	-8.901596e+00
3.469526e+01	-8.944816e+00
3.489566e+01	-8.988418e+00
3.509721e+01	-9.032668e+00
3.529993e+01	-9.076246e+00
3.550382e+01	-9.120157e+00
3.570889e+01	-9.164138e+00
3.591515e+01	-9.207353e+00
3.612259e+01	-9.251774e+00
3.633123e+01	-9.296458e+00
3.654108e+01	-9.340349e+00
3.675214e+01	-9.384365e+00
3.696442e+01	-9.428839e+00
3.717792e+01	-9.473181e+00
3.739266e+01	-9.517513e+00
3.760864e+01	-9.561952e+00
3.782587e+01	-9.606634e+00
3.804435e+01	-9.651023e+00
3.826409e+01	-9.695781e+00
3.848510e+01	-9.740407e+00
3.870739e+01	-9.784977e+00
3.893096e+01	-9.829760e+00
3.915583e+01	-9.874660e+00
3.938199e+01	-9.919598e+00
3.960946e+01	-9.964774e+00
3.983824e+01	-1.000960e+01
4.006834e+01	-1.005485e+01
4.029978e+01	-1.009962e+01
4.053255e+01	-1.014516e+01
4.076666e+01	-1.018997e+01
4.100213e+01	-1.023521e+01
4.123896e+01	-1.028106e+01
4.147715e+01	-1.032639e+01
4.171672e+01	-1.037151e+01
4.195767e+01	-1.041762e+01
4.220002e+01	-1.046280e+01
4.244377e+01	-1.050817e+01
4.268892e+01	-1.055328e+01
4.293549e+01	-1.059992e+01
4.318348e+01	-1.064491e+01
4.343291e+01	-1.069065e+01
4.368377e+01	-1.073664e+01
4.393609e+01	-1.078204e+01
4.418986e+01	-1.082804e+01
4.444510e+01	-1.087463e+01
4.470182e+01	-1.092021e+01
4.496001e+01	-1.096602e+01
4.521970e+01	-1.101181e+01
4.548089e+01	-1.105810e+01
4.574358e+01	-1.110456e+01
4.600779e+01	-1.115074e+01
4.627353e+01	-1.119660e+01
4.654081e+01	-1.124318e+01
4.680963e+01	-1.128880e+01
4.708000e+01	-1.133488e+01
4.735193e+01	-1.138140e+01
4.762543e+01	-1.142844e+01
4.790051e+01	-1.147488e+01
4.817719e+01	-1.152129e+01
4.845545e+01	-1.156764e+01
4.873533e+01	-1.161472e+01
4.901682e+01	-1.166089e+01
4.929994e+01	-1.170775e+01
4.958470e+01	-1.175423e+01
4.987110e+01	-1.180146e+01
5.015915e+01	-1.184790e+01
5.044887e+01	-1.189457e+01
5.074026e+01	-1.194145e+01
5.103333e+01	-1.198766e+01
5.132810e+01	-1.203569e+01
5.162457e+01	-1.208165e+01
5.192275e+01	-1.212904e+01
5.222265e+01	-1.217605e+01
5.252429e+01	-1.222285e+01
5.282767e+01	-1.227008e+01
5.313280e+01	-1.231707e+01
5.343969e+01	-1.236399e+01
5.374836e+01	-1.241077e+01
5.405880e+01	-1.245957e+01
5.437105e+01	-1.250620e+01
5.468509e+01	-1.255355e+01
5.500095e+01	-1.260065e+01
5.531863e+01	-1.264728e+01
5.563815e+01	-1.269458e+01
5.595951e+01	-1.274221e+01
5.628273e+01	-1.278972e+01
5.660782e+01	-1.283648e+01
5.693479e+01	-1.288422e+01
5.726364e+01	-1.293148e+01
5.759439e+01	-1.297971e+01
5.792705e+01	-1.302660e+01
5.826164e+01	-1.307388e+01
5.859815e+01	-1.312235e+01
5.893662e+01	-1.316931e+01
5.927703e+01	-1.321691e+01
5.961941e+01	-1.326449e+01
5.996377e+01	-1.331198e+01
6.031012e+01	-1.336022e+01
6.065847e+01	-1.340871e+01
6.100883e+01	-1.345560e+01
6.136121e+01	-1.350306e+01
6.171563e+01	-1.355075e+01
6.207210e+01	-1.359870e+01
6.243063e+01	-1.364743e+01
6.279122e+01	-1.369534e+01
6.315390e+01	-1.374301e+01
6.351868e+01	-1.379010e+01
6.388556e+01	-1.383857e+01
6.425456e+01	-1.388671e+01
6.462569e+01	-1.393413e+01
6.499897e+01	-1.398298e+01
6.537440e+01	-1.403115e+01
6.575200e+01	-1.407838e+01
6.613178e+01	-1.412720e+01
6.651375e+01	-1.417513e+01
6.689793e+01	-1.422316e+01
6.728433e+01	-1.427119e+01
6.767297e+01	-1.432075e+01
6.806384e+01	-1.436769e+01
6.845698e+01	-1.441559e+01
6.885238e+01	-1.446428e+01
6.925007e+01	-1.451241e+01
6.965005e+01	-1.456011e+01
7.005235e+01	-1.460868e+01
7.045697e+01	-1.465706e+01
7.086393e+01	-1.470511e+01
7.127323e+01	-1.475330e+01
7.168490e+01	-1.480292e+01
7.209895e+01	-1.485036e+01
7.251539e+01	-1.489894e+01
7.293424e+01	-1.494731e+01
7.335551e+01	-1.499608e+01
7.377920e+01	-1.504553e+01
7.420535e+01	-1.509339e+01
7.463396e+01	-1.514130e+01
7.506504e+01	-1.519024e+01
7.549861e+01	-1.523818e+01
7.593469e+01	-1.528615e+01
7.637328e+01	-1.533564e+01
7.681441e+01	-1.538341e+01
7.725809e+01	-1.543212e+01
7.770433e+01	-1.548110e+01
7.815315e+01	-1.553034e+01
7.860456e+01	-1.557871e+01
7.905857e+01	-1.562676e+01
7.951521e+01	-1.567660e+01
7.997449e+01	-1.572453e+01
8.043642e+01	-1.577263e+01
8.090102e+01	-1.582290e+01
8.136830e+01	-1.587001e+01
8.183828e+01	-1.591845e+01
8.231097e+01	-1.596775e+01
8.278640e+01	-1.601631e+01
8.326457e+01	-1.606517e+01
8.374550e+01	-1.611459e+01
8.422921e+01	-1.616318e+01
8.471572e+01	-1.621222e+01
8.520503e+01	-1.626009e+01
8.569717e+01	-1.631058e+01
8.619215e+01	-1.635924e+01
8.669000e+01	-1.640760e+01
8.719071e+01	-1.645637e+01
8.769432e+01	-1.650474e+01
8.820084e+01	-1.655484e+01
8.871029e+01	-1.660306e+01
8.922267e+01	-1.665080e+01
8.973802e+01	-1.670134e+01
9.025634e+01	-1.674907e+01
9.077766e+01	-1.679790e+01
9.130199e+01	-1.684831e+01
9.182935e+01	-1.689682e+01
9.235975e+01	-1.694636e+01
9.289321e+01	-1.699525e+01
9.342976e+01	-1.704361e+01
9.396941e+01	-1.709323e+01
9.451217e+01	-1.714163e+01
9.505807e+01	-1.719132e+01
9.560712e+01	-1.724119e+01
9.615934e+01	-1.729029e+01
9.671476e+01	-1.733849e+01
9.727338e+01	-1.738706e+01
9.783522e+01	-1.743671e+01
9.840032e+01	-1.748521e+01
9.896867e+01	-1.753551e+01
9.954031e+01	-1.758446e+01
1.001153e+02	-1.763315e+01
1.006935e+02	-1.768353e+01
1.012751e+02	-1.773106e+01
1.018601e+02	-1.778091e+01
1.024484e+02	-1.783057e+01
1.030402e+02	-1.787939e+01
1.036353e+02	-1.792798e+01
1.042339e+02	-1.797747e+01
1.048360e+02	-1.802737e+01
1.054415e+02	-1.807649e+01
1.060505e+02	-1.812489e+01
1.066631e+02	-1.817499e+01
1.072791e+02	-1.822411e+01
1.078988e+02	-1.827351e+01
1.085220e+02	-1.832088e+01
1.091488e+02	-1.837207e+01
1.097793e+02	-1.842141e+01
1.104133e+02	-1.846985e+01
1.110511e+02	-1.852138e+01
1.116925e+02	-1.856776e+01
1.123376e+02	-1.861830e+01
1.129865e+02	-1.866810e+01
1.136391e+02	-1.871647e+01
1.142955e+02	-1.876589e+01
1.149556e+02	-1.881620e+01
1.156196e+02	-1.886529e+01
1.162874e+02	-1.891611e+01
1.169591e+02	-1.896289e+01
1.176347e+02	-1.901366e+01
1.183141e+02	-1.906224e+01
1.189975e+02	-1.911264e+01
1.196848e+02	-1.916140e+01
1.203761e+02	-1.921219e+01
1.210714e+02	-1.926154e+01
1.217707e+02	-1.930994e+01
1.224740e+02	-1.936031e+01
1.231814e+02	-1.940675e+01
1.238929e+02	-1.945760e+01
1.246085e+02	-1.950731e+01
1.253283e+02	-1.955740e+01
1.260522e+02	-1.960697e+01
1.267802e+02	-1.965462e+01
1.275125e+02	-1.970475e+01
1.282490e+02	-1.975535e+01
1.289898e+02	-1.980465e+01
1.297348e+02	-1.985564e+01
1.304842e+02	-1.990362e+01
1.312378e+02	-1.995295e+01
1.319959e+02	-2.000362e+01
1.327583e+02	-2.005326e+01
1.335251e+02	-2.010304e+01
1.342963e+02	-2.015137e+01
1.350720e+02	-2.020245e+01
1.358522e+02	-2.025236e+01
1.366368e+02	-2.030100e+01
1.374260e+02	-2.035072e+01
1.382198e+02	-2.039952e+01
1.390182e+02	-2.044985e+01
1.398211e+02	-2.049812e+01
1.406287e+02	-2.054797e+01
1.414410e+02	-2.059732e+01
1.422579e+02	-2.064755e+01
1.430796e+02	-2.069735e+01
1.439060e+02	-2.074778e+01
1.447372e+02	-2.079841e+01
1.455732e+02	-2.084593e+01
1.464141e+02	-2.089445e+01
1.472597e+02	-2.094582e+01
1.481103e+02	-2.099393e+01
1.489658e+02	-2.104519e+01
1.498262e+02	-2.109492e+01
1.506916e+02	-2.114339e+01
1.515620e+02	-2.119360e+01
1.524374e+02	-2.124201e+01
1.533179e+02	-2.129266e+01
1.542034e+02	-2.134328e+01
1.550941e+02	-2.139244e+01
1.559899e+02	-2.144138e+01
1.568909e+02	-2.148798e+01
1.577971e+02	-2.154097e+01
1.587085e+02	-2.159178e+01
1.596252e+02	-2.164046e+01
1.605472e+02	-2.168889e+01
1.614745e+02	-2.174019e+01
1.624072e+02	-2.179063e+01
1.633453e+02	-2.183864e+01
1.642887e+02	-2.189062e+01
1.652377e+02	-2.193936e+01
1.661921e+02	-2.198730e+01
1.671520e+02	-2.203678e+01
1.681175e+02	-2.208708e+01
1.690885e+02	-2.213699e+01
1.700651e+02	-2.218832e+01
1.710474e+02	-2.223611e+01
1.720354e+02	-2.228984e+01
1.730291e+02	-2.233605e+01
1.740285e+02	-2.238438e+01
1.750337e+02	-2.243493e+01
1.760446e+02	-2.248745e+01
1.770615e+02	-2.253775e+01
1.780842e+02	-2.258467e+01
1.791128e+02	-2.263498e+01
1.801473e+02	-2.268281e+01
1.811878e+02	-2.273471e+01
1.822344e+02	-2.278574e+01
1.832870e+02	-2.283458e+01
1.843456e+02	-2.288433e+01
1.854104e+02	-2.293612e+01
1.864813e+02	-2.298216e+01
1.875584e+02	-2.303314e+01
1.886418e+02	-2.308411e+01
1.897313e+02	-2.313476e+01
1.908272e+02	-2.318104e+01
1.919294e+02	-2.323336e+01
1.930380e+02	-2.328298e+01
1.941530e+02	-2.333445e+01
1.952744e+02	-2.338417e+01
1.964023e+02	-2.343382e+01
1.975367e+02	-2.348351e+01
1.986777e+02	-2.353288e+01
1.998252e+02	-2.358084e+01
2.009794e+02	-2.363260e+01
2.021403e+02	-2.368273e+01
2.033078e+02	-2.373283e+01
2.044821e+02	-2.378121e+01
2.056632e+02	-2.383259e+01
2.068511e+02	-2.388224e+01
2.080459e+02	-2.393075e+01
2.092475e+02	-2.397875e+01
2.104561e+02	-2.403195e+01
2.116717e+02	-2.408131e+01
2.128943e+02	-2.412772e+01
2.141240e+02	-2.418066e+01
2.153608e+02	-2.422790e+01
2.166047e+02	-2.428130e+01
2.178558e+02	-2.433105e+01
2.191141e+02	-2.438282e+01
2.203797e+02	-2.443136e+01
2.216526e+02	-2.448166e+01
2.229329e+02	-2.453179e+01
2.242205e+02	-2.457806e+01
2.255156e+02	-2.462843e+01
2.268182e+02	-2.467589e+01
2.281283e+02	-2.473024e+01
2.294459e+02	-2.477950e+01
2.307712e+02	-2.482838e+01
2.321041e+02	-2.488237e+01
2.334447e+02	-2.492855e+01
2.347931e+02	-2.497550e+01
2.361493e+02	-2.502753e+01
2.375133e+02	-2.507867e+01
2.388851e+02	-2.512618e+01
2.402649e+02	-2.517987e+01
2.416527e+02	-2.522862e+01
2.430484e+02	-2.527581e+01
2.444523e+02	-2.532565e+01
2.458642e+02	-2.537613e+01
2.472843e+02	-2.542645e+01
2.487126e+02	-2.547901e+01
2.501492e+02	-2.552804e+01
2.515940e+02	-2.557653e+01
2.530472e+02	-2.563004e+01
2.545088e+02	-2.567714e+01
2.559789e+02	-2.572787e+01
2.574574e+02	-2.577986e+01
2.589444e+02	-2.582826e+01
2.604401e+02	-2.587909e+01
2.619444e+02	-2.592763e+01
2.634574e+02	-2.597664e+01
2.649791e+02	-2.602915e+01
2.665096e+02	-2.607426e+01
2.680489e+02	-2.612551e+01
2.695972e+02	-2.617740e+01
2.711544e+02	-2.622455e+01
2.727205e+02	-2.627955e+01
2.742958e+02	-2.632317e+01
2.758801e+02	-2.637554e+01
2.774736e+02	-2.642826e+01
2.790762e+02	-2.647386e+01
2.806882e+02	-2.652982e+01
2.823094e+02	-2.657603e+01
2.839400e+02	-2.662466e+01
2.855800e+02	-2.667895e+01
2.872295e+02	-2.672658e+01
2.888886e+02	-2.677555e+01
2.905572e+02	-2.682670e+01
2.922354e+02	-2.687656e+01
2.939234e+02	-2.692544e+01
2.956211e+02	-2.697638e+01
2.973286e+02	-2.702351e+01
2.990459e+02	-2.707118e+01
3.007732e+02	-2.712804e+01
3.025104e+02	-2.717831e+01
3.042577e+02	-2.722618e+01
3.060151e+02	-2.727879e+01
3.077826e+02	-2.732460e+01
3.095604e+02	-2.737935e+01
3.113484e+02	-2.742992e+01
3.131467e+02	-2.747346e+01
3.149554e+02	-2.752539e+01
3.167746e+02	-2.757701e+01
3.186043e+02	-2.762488e+01
3.204445e+02	-2.767583e+01
3.222954e+02	-2.772387e+01
3.241570e+02	-2.777951e+01
3.260293e+02	-2.782539e+01
3.279124e+02	-2.787753e+01
3.298064e+02	-2.793150e+01
3.317114e+02	-2.797025e+01
3.336273e+02	-2.802839e+01
3.355544e+02	-2.808027e+01
3.374925e+02	-2.812876e+01
3.394418e+02	-2.817404e+01
3.414024e+02	-2.822751e+01
3.433744e+02	-2.827493e+01
3.453577e+02	-2.832572e+01
3.473525e+02	-2.837960e+01
3.493588e+02	-2.842592e+01
3.513766e+02	-2.847964e+01
3.534062e+02	-2.852614e+01
3.554474e+02	-2.857897e+01
3.575005e+02	-2.862472e+01
3.595654e+02	-2.867826e+01
3.616422e+02	-2.872651e+01
3.637311e+02	-2.877595e+01
3.658320e+02	-2.882836e+01
3.679450e+02	-2.887905e+01
3.700702e+02	-2.892725e+01
3.722077e+02	-2.898257e+01
3.743576e+02	-2.902512e+01
3.765199e+02	-2.907519e+01
3.786946e+02	-2.912326e+01
3.808820e+02	-2.918020e+01
3.830819e+02	-2.922815e+01
3.852946e+02	-2.927919e+01
3.875200e+02	-2.932860e+01
3.897583e+02	-2.937968e+01
3.920096e+02	-2.943057e+01
3.942738e+02	-2.947980e+01
3.965511e+02	-2.952653e+01
3.988416e+02	-2.957622e+01
4.011452e+02	-2.962736e+01
4.034622e+02	-2.967690e+01
4.057926e+02	-2.972498e+01
4.081365e+02	-2.977906e+01
4.104938e+02	-2.983537e+01
4.128648e+02	-2.987647e+01
4.152495e+02	-2.992826e+01
4.176480e+02	-2.998000e+01
4.200603e+02	-3.003000e+01
4.224866e+02	-3.007796e+01
4.249268e+02	-3.013108e+01
4.273812e+02	-3.018228e+01
4.298497e+02	-3.022905e+01
4.323325e+02	-3.027828e+01
4.348297e+02	-3.033372e+01
4.373412e+02	-3.038065e+01
4.398673e+02	-3.042903e+01
4.424079e+02	-3.048380e+01
4.449633e+02	-3.052631e+01
4.475334e+02	-3.058686e+01
4.501183e+02	-3.063331e+01
4.527182e+02	-3.068104e+01
4.553330e+02	-3.074242e+01
4.579630e+02	-3.078354e+01
4.606082e+02	-3.083068e+01
4.632687e+02	-3.088503e+01
4.659445e+02	-3.092940e+01
4.686358e+02	-3.098166e+01
4.713426e+02	-3.102775e+01
4.740650e+02	-3.107843e+01
4.768032e+02	-3.112938e+01
4.795572e+02	-3.118229e+01
4.823271e+02	-3.123233e+01
4.851130e+02	-3.127865e+01
4.879150e+02	-3.133286e+01
4.907332e+02	-3.137956e+01
4.935676e+02	-3.143438e+01
4.964185e+02	-3.148386e+01
4.992858e+02	-3.153433e+01
5.021696e+02	-3.158428e+01
5.050701e+02	-3.163635e+01
5.079874e+02	-3.168302e+01
5.109215e+02	-3.173869e+01
5.138726e+02	-3.178567e+01
5.168407e+02	-3.183334e+01
5.198259e+02	-3.189164e+01
5.228284e+02	-3.193154e+01
5.258482e+02	-3.198911e+01
5.288855e+02	-3.203797e+01
5.319403e+02	-3.208908e+01
5.350128e+02	-3.213448e+01
5.381030e+02	-3.218775e+01
5.412111e+02	-3.223812e+01
5.443371e+02	-3.229034e+01
5.474812e+02	-3.233381e+01
5.506434e+02	-3.238293e+01
5.538239e+02	-3.244714e+01
5.570228e+02	-3.248347e+01
5.602401e+02	-3.253708e+01
5.634760e+02	-3.258235e+01
5.667306e+02	-3.264006e+01
5.700040e+02	-3.268885e+01
5.732964e+02	-3.273855e+01
5.766077e+02	-3.278503e+01
5.799382e+02	-3.284072e+01
5.832879e+02	-3.288949e+01
5.866569e+02	-3.293527e+01
5.900454e+02	-3.298903e+01
5.934535e+02	-3.304126e+01
5.968813e+02	-3.309103e+01
6.003288e+02	-3.313939e+01
6.037963e+02	-3.320508e+01
6.072838e+02	-3.324458e+01
6.107914e+02	-3.329498e+01
6.143194e+02	-3.334038e+01
6.178676e+02	-3.339209e+01
6.214364e+02	-3.343810e+01
6.250258e+02	-3.349438e+01
6.286359e+02	-3.354257e+01
6.322669e+02	-3.359475e+01
6.359189e+02	-3.364534e+01
6.395919e+02	-3.369361e+01
6.432862e+02	-3.374659e+01
6.470017e+02	-3.379815e+01
6.507388e+02	-3.384026e+01
6.544974e+02	-3.389309e+01
6.582778e+02	-3.394380e+01
6.620800e+02	-3.400128e+01
6.659041e+02	-3.404119e+01
6.697504e+02	-3.409975e+01
6.736188e+02	-3.415342e+01
6.775096e+02	-3.419781e+01
6.814229e+02	-3.425331e+01
6.853587e+02	-3.429848e+01
6.893173e+02	-3.435285e+01
6.932988e+02	-3.439488e+01
6.973033e+02	-3.444135e+01
7.013309e+02	-3.450094e+01
