Frequency(Hz)	Magnitude(dB)
1.000000e+01	-2.274858e+00
1.005776e+01	-2.295191e+00
1.011585e+01	-2.315775e+00
1.017428e+01	-2.336432e+00
1.023305e+01	-2.357518e+00
1.029215e+01	-2.378589e+00
1.035160e+01	-2.399703e+00
1.041139e+01	-2.421035e+00
1.047153e+01	-2.442507e+00
1.053201e+01	-2.463951e+00
1.059284e+01	-2.485835e+00
1.065403e+01	-2.507491e+00
1.071556e+01	-2.529529e+00
1.077746e+01	-2.551858e+00
1.083971e+01	-2.574072e+00
1.090232e+01	-2.596512e+00
1.096529e+01	-2.619228e+00
1.102862e+01	-2.641714e+00
1.109232e+01	-2.664898e+00
1.115639e+01	-2.687882e+00
1.122083e+01	-2.710808e+00
1.128564e+01	-2.734264e+00
1.135083e+01	-2.757662e+00
1.141639e+01	-2.781087e+00
1.148233e+01	-2.804965e+00
1.154865e+01	-2.828943e+00
1.161536e+01	-2.852891e+00
1.168245e+01	-2.877076e+00
1.174992e+01	-2.901357e+00
1.181779e+01	-2.925599e+00
1.188605e+01	-2.950325e+00
1.195470e+01	-2.975047e+00
1.202375e+01	-3.000131e+00
1.209320e+01	-3.025031e+00
1.216305e+01	-3.050163e+00
1.223330e+01	-3.075438e+00
1.230396e+01	-3.100685e+00
1.237503e+01	-3.126235e+00
1.244651e+01	-3.152046e+00
1.251840e+01	-3.178063e+00
1.259070e+01	-3.204192e+00
1.266343e+01	-3.230341e+00
1.273657e+01	-3.256732e+00
1.281014e+01	-3.283263e+00
1.288413e+01	-3.309628e+00
1.295855e+01	-3.336466e+00
1.303339e+01	-3.363513e+00
1.310867e+01	-3.390555e+00
1.318439e+01	-3.417819e+00
1.326054e+01	-3.444906e+00
1.333713e+01	-3.472490e+00
1.341417e+01	-3.500187e+00
1.349165e+01	-3.527932e+00
1.356958e+01	-3.555670e+00
1.364795e+01	-3.583764e+00
1.372678e+01	-3.611866e+00
1.380607e+01	-3.640145e+00
1.388581e+01	-3.668705e+00
1.396602e+01	-3.697076e+00
1.404668e+01	-3.725969e+00
1.412782e+01	-3.754739e+00
1.420942e+01	-3.783704e+00
1.429149e+01	-3.813122e+00
1.437404e+01	-3.842275e+00
1.445706e+01	-3.871953e+00
1.454057e+01	-3.901366e+00
1.462455e+01	-3.930918e+00
1.470902e+01	-3.961116e+00
1.479398e+01	-3.990812e+00
1.487943e+01	-4.021146e+00
1.496537e+01	-4.051351e+00
1.505181e+01	-4.081776e+00
1.513875e+01	-4.112432e+00
1.522619e+01	-4.142963e+00
1.531414e+01	-4.173921e+00
1.540259e+01	-4.204687e+00
1.549156e+01	-4.235521e+00
1.558103e+01	-4.267274e+00
1.567103e+01	-4.298431e+00
1.576155e+01	-4.329759e+00
1.585258e+01	-4.361567e+00
1.594415e+01	-4.393309e+00
1.603624e+01	-4.425296e+00
1.612886e+01	-4.457478e+00
1.622202e+01	-4.489499e+00
1.631572e+01	-4.521656e+00
1.640996e+01	-4.554298e+00
1.650474e+01	-4.586760e+00
1.660008e+01	-4.619548e+00
1.669596e+01	-4.652143e+00
1.679239e+01	-4.685067e+00
1.688938e+01	-4.718487e+00
1.698694e+01	-4.751412e+00
1.708505e+01	-4.785307e+00
1.718373e+01	-4.818249e+00
1.728299e+01	-4.851925e+00
1.738281e+01	-4.885882e+00
1.748322e+01	-4.919363e+00
1.758420e+01	-4.953881e+00
1.768576e+01	-4.987731e+00
1.778792e+01	-5.022128e+00
1.789066e+01	-5.056359e+00
1.799399e+01	-5.090603e+00
1.809793e+01	-5.125066e+00
1.820246e+01	-5.160117e+00
1.830760e+01	-5.194453e+00
1.841334e+01	-5.229656e+00
1.851969e+01	-5.264654e+00
1.862666e+01	-5.299992e+00
1.873425e+01	-5.335290e+00
1.884246e+01	-5.370738e+00
1.895129e+01	-5.406156e+00
1.906075e+01	-5.442326e+00
1.917085e+01	-5.477875e+00
1.928158e+01	-5.513730e+00
1.939295e+01	-5.549614e+00
1.950496e+01	-5.586150e+00
1.961762e+01	-5.622286e+00
1.973093e+01	-5.658499e+00
1.984490e+01	-5.694978e+00
1.995952e+01	-5.731626e+00
2.007480e+01	-5.768448e+00
2.019076e+01	-5.804772e+00
2.030738e+01	-5.842243e+00
2.042467e+01	-5.879244e+00
2.054264e+01	-5.916245e+00
2.066130e+01	-5.953502e+00
2.078064e+01	-5.990855e+00
2.090066e+01	-6.028802e+00
2.102139e+01	-6.066276e+00
2.114280e+01	-6.103620e+00
2.126492e+01	-6.141324e+00
2.138775e+01	-6.179644e+00
2.151128e+01	-6.217439e+00
2.163553e+01	-6.255657e+00
2.176050e+01	-6.293964e+00
2.188619e+01	-6.332152e+00
2.201260e+01	-6.370604e+00
2.213974e+01	-6.408986e+00
2.226762e+01	-6.447836e+00
2.239624e+01	-6.486366e+00
2.252560e+01	-6.525366e+00
2.265571e+01	-6.564071e+00
2.278656e+01	-6.603087e+00
2.291818e+01	-6.642756e+00
2.305055e+01	-6.681754e+00
2.318369e+01	-6.721022e+00
2.331760e+01	-6.760346e+00
2.345228e+01	-6.800063e+00
2.358774e+01	-6.839620e+00
2.372398e+01	-6.879535e+00
2.386101e+01	-6.919081e+00
2.399883e+01	-6.958881e+00
2.413745e+01	-6.999194e+00
2.427686e+01	-7.039241e+00
2.441709e+01	-7.079495e+00
2.455812e+01	-7.119652e+00
2.469997e+01	-7.160128e+00
2.484263e+01	-7.200098e+00
2.498612e+01	-7.240796e+00
2.513044e+01	-7.281821e+00
2.527559e+01	-7.322345e+00
2.542158e+01	-7.362836e+00
2.556842e+01	-7.403979e+00
2.571610e+01	-7.445129e+00
2.586463e+01	-7.486146e+00
2.601403e+01	-7.526922e+00
2.616428e+01	-7.568215e+00
2.631541e+01	-7.610105e+00
2.646740e+01	-7.651229e+00
2.662028e+01	-7.692853e+00
2.677404e+01	-7.733987e+00
2.692868e+01	-7.775263e+00
2.708422e+01	-7.817462e+00
2.724066e+01	-7.859344e+00
2.739800e+01	-7.901342e+00
2.755625e+01	-7.942981e+00
2.771541e+01	-7.985053e+00
2.787550e+01	-8.027159e+00
2.803650e+01	-8.069672e+00
2.819844e+01	-8.111333e+00
2.836131e+01	-8.154371e+00
2.852513e+01	-8.196576e+00
2.868989e+01	-8.238985e+00
2.885560e+01	-8.281059e+00
2.902227e+01	-8.323714e+00
2.918990e+01	-8.366928e+00
2.935850e+01	-8.410017e+00
2.952807e+01	-8.452601e+00
2.969863e+01	-8.495786e+00
2.987016e+01	-8.538522e+00
3.004269e+01	-8.581316e+00
3.021622e+01	-8.624595e+00
3.039075e+01	-8.668032e+00
3.056628e+01	-8.710901e+00
3.074283e+01	-8.754569e+00
3.092040e+01	-8.797878e+00
3.109900e+01	-8.841164e+00
3.127862e+01	-8.884545e+00
3.145929e+01	-8.928441e+00
3.164099e+01	-8.972004e+00
3.182375e+01	-9.015389e+00
3.200756e+01	-9.059458e+00
3.219244e+01	-9.103444e+00
3.237838e+01	-9.147116e+00
3.256540e+01	-9.190672e+00
3.275349e+01	-9.235571e+00
3.294268e+01	-9.279437e+00
3.313295e+01	-9.323752e+00
3.332433e+01	-9.367418e+00
3.351681e+01	-9.411799e+00
3.371040e+01	-9.456465e+00
3.390511e+01	-9.500491e+00
3.410094e+01	-9.544937e+00
3.429791e+01	-9.589336e+00
3.449601e+01	-9.634108e+00
3.469526e+01	-9.678379e+00
3.489566e+01	-9.723038e+00
3.509721e+01	-9.767738e+00
3.529993e+01	-9.812667e+00
3.550382e+01	-9.857796e+00
3.570889e+01	-9.902622e+00
3.591515e+01	-9.947314e+00
3.612259e+01	-9.992591e+00
3.633123e+01	-1.003677e+01
3.654108e+01	-1.008287e+01
3.675214e+01	-1.012778e+01
3.696442e+01	-1.017276e+01
3.717792e+01	-1.021812e+01
3.739266e+01	-1.026311e+01
3.760864e+01	-1.030908e+01
3.782587e+01	-1.035407e+01
3.804435e+01	-1.039963e+01
3.826409e+01	-1.044537e+01
3.848510e+01	-1.049119e+01
3.870739e+01	-1.053667e+01
3.893096e+01	-1.058155e+01
3.915583e+01	-1.062730e+01
3.938199e+01	-1.067304e+01
3.960946e+01	-1.071860e+01
3.983824e+01	-1.076460e+01
4.006834e+01	-1.081111e+01
4.029978e+01	-1.085672e+01
4.053255e+01	-1.090187e+01
4.076666e+01	-1.094823e+01
4.100213e+01	-1.099464e+01
4.123896e+01	-1.104061e+01
4.147715e+01	-1.108641e+01
4.171672e+01	-1.113242e+01
4.195767e+01	-1.117900e+01
4.220002e+01	-1.122558e+01
4.244377e+01	-1.127185e+01
4.268892e+01	-1.131799e+01
4.293549e+01	-1.136406e+01
4.318348e+01	-1.141022e+01
4.343291e+01	-1.145764e+01
4.368377e+01	-1.150324e+01
4.393609e+01	-1.155037e+01
4.418986e+01	-1.159673e+01
4.444510e+01	-1.164348e+01
4.470182e+01	-1.168993e+01
4.496001e+01	-1.173689e+01
4.521970e+01	-1.178321e+01
4.548089e+01	-1.182993e+01
4.574358e+01	-1.187677e+01
4.600779e+01	-1.192358e+01
4.627353e+01	-1.197046e+01
4.654081e+01	-1.201664e+01
4.680963e+01	-1.206468e+01
4.708000e+01	-1.211143e+01
4.735193e+01	-1.215764e+01
4.762543e+01	-1.220506e+01
4.790051e+01	-1.225172e+01
4.817719e+01	-1.229925e+01
4.845545e+01	-1.234627e+01
4.873533e+01	-1.239340e+01
4.901682e+01	-1.244090e+01
4.929994e+01	-1.248765e+01
4.958470e+01	-1.253478e+01
4.987110e+01	-1.258241e+01
5.015915e+01	-1.262924e+01
5.044887e+01	-1.267669e+01
5.074026e+01	-1.272398e+01
5.103333e+01	-1.277247e+01
5.132810e+01	-1.281879e+01
5.162457e+01	-1.286640e+01
5.192275e+01	-1.291401e+01
5.222265e+01	-1.296042e+01
5.252429e+01	-1.300819e+01
5.282767e+01	-1.305716e+01
5.313280e+01	-1.310401e+01
5.343969e+01	-1.315143e+01
5.374836e+01	-1.319967e+01
5.405880e+01	-1.324692e+01
5.437105e+01	-1.329387e+01
5.468509e+01	-1.334195e+01
5.500095e+01	-1.339020e+01
5.531863e+01	-1.343727e+01
5.563815e+01	-1.348533e+01
5.595951e+01	-1.353355e+01
5.628273e+01	-1.358080e+01
5.660782e+01	-1.362908e+01
5.693479e+01	-1.367705e+01
5.726364e+01	-1.372414e+01
5.759439e+01	-1.377219e+01
5.792705e+01	-1.382041e+01
5.826164e+01	-1.386780e+01
5.859815e+01	-1.391633e+01
5.893662e+01	-1.396485e+01
5.927703e+01	-1.401213e+01
5.961941e+01	-1.406092e+01
5.996377e+01	-1.410865e+01
6.031012e+01	-1.415722e+01
6.065847e+01	-1.420387e+01
6.100883e+01	-1.425307e+01
6.136121e+01	-1.430080e+01
6.171563e+01	-1.434877e+01
6.207210e+01	-1.439743e+01
6.243063e+01	-1.444536e+01
6.279122e+01	-1.449420e+01
6.315390e+01	-1.454247e+01
6.351868e+01	-1.458979e+01
6.388556e+01	-1.463932e+01
6.425456e+01	-1.468680e+01
6.462569e+01	-1.473588e+01
6.499897e+01	-1.478320e+01
6.537440e+01	-1.483247e+01
6.575200e+01	-1.488034e+01
6.613178e+01	-1.492911e+01
6.651375e+01	-1.497756e+01
6.689793e+01	-1.502506e+01
6.728433e+01	-1.507407e+01
6.767297e+01	-1.512231e+01
6.806384e+01	-1.517135e+01
6.845698e+01	-1.521985e+01
6.885238e+01	-1.526759e+01
6.925007e+01	-1.531633e+01
6.965005e+01	-1.536621e+01
7.005235e+01	-1.541387e+01
7.045697e+01	-1.546244e+01
7.086393e+01	-1.551111e+01
7.127323e+01	-1.555988e+01
7.168490e+01	-1.560846e+01
7.209895e+01	-1.565744e+01
7.251539e+01	-1.570525e+01
7.293424e+01	-1.575395e+01
7.335551e+01	-1.580363e+01
7.377920e+01	-1.585215e+01
7.420535e+01	-1.590038e+01
7.463396e+01	-1.594890e+01
7.506504e+01	-1.599842e+01
7.549861e+01	-1.604642e+01
7.593469e+01	-1.609583e+01
7.637328e+01	-1.614395e+01
7.681441e+01	-1.619438e+01
7.725809e+01	-1.624165e+01
7.770433e+01	-1.629063e+01
7.815315e+01	-1.634018e+01
7.860456e+01	-1.638880e+01
7.905857e+01	-1.643854e+01
7.951521e+01	-1.648611e+01
7.997449e+01	-1.653516e+01
8.043642e+01	-1.658378e+01
8.090102e+01	-1.663322e+01
8.136830e+01	-1.668245e+01
8.183828e+01	-1.673151e+01
8.231097e+01	-1.678022e+01
8.278640e+01	-1.682907e+01
8.326457e+01	-1.687843e+01
8.374550e+01	-1.692708e+01
8.422921e+01	-1.697499e+01
8.471572e+01	-1.702487e+01
8.520503e+01	-1.707437e+01
8.569717e+01	-1.712332e+01
8.619215e+01	-1.717259e+01
8.669000e+01	-1.722069e+01
8.719071e+01	-1.727076e+01
8.769432e+01	-1.731943e+01
8.820084e+01	-1.736803e+01
8.871029e+01	-1.741842e+01
8.922267e+01	-1.746796e+01
8.973802e+01	-1.751607e+01
9.025634e+01	-1.756419e+01
9.077766e+01	-1.761427e+01
9.130199e+01	-1.766380e+01
9.182935e+01	-1.771390e+01
9.235975e+01	-1.776152e+01
9.289321e+01	-1.780968e+01
9.342976e+01	-1.786054e+01
9.396941e+01	-1.790842e+01
9.451217e+01	-1.795975e+01
9.505807e+01	-1.800857e+01
9.560712e+01	-1.805712e+01
9.615934e+01	-1.810561e+01
9.671476e+01	-1.815534e+01
9.727338e+01	-1.820547e+01
9.783522e+01	-1.825424e+01
9.840032e+01	-1.830507e+01
9.896867e+01	-1.835447e+01
9.954031e+01	-1.840248e+01
1.001153e+02	-1.845259e+01
1.006935e+02	-1.850185e+01
1.012751e+02	-1.855059e+01
1.018601e+02	-1.859943e+01
1.024484e+02	-1.864898e+01
1.030402e+02	-1.869746e+01
1.036353e+02	-1.874985e+01
1.042339e+02	-1.879770e+01
1.048360e+02	-1.884676e+01
1.054415e+02	-1.889519e+01
1.060505e+02	-1.894505e+01
1.066631e+02	-1.899378e+01
1.072791e+02	-1.904374e+01
1.078988e+02	-1.909371e+01
1.085220e+02	-1.914189e+01
1.091488e+02	-1.919272e+01
1.097793e+02	-1.924126e+01
1.104133e+02	-1.929166e+01
1.110511e+02	-1.934100e+01
1.116925e+02	-1.938962e+01
1.123376e+02	-1.943966e+01
1.129865e+02	-1.948937e+01
1.136391e+02	-1.953763e+01
1.142955e+02	-1.958806e+01
1.149556e+02	-1.963729e+01
1.156196e+02	-1.968673e+01
1.162874e+02	-1.973487e+01
1.169591e+02	-1.978532e+01
1.176347e+02	-1.983547e+01
1.183141e+02	-1.988636e+01
1.189975e+02	-1.993366e+01
1.196848e+02	-1.998379e+01
1.203761e+02	-2.003302e+01
1.210714e+02	-2.008265e+01
1.217707e+02	-2.013171e+01
1.224740e+02	-2.018265e+01
1.231814e+02	-2.023133e+01
1.238929e+02	-2.028193e+01
1.246085e+02	-2.032999e+01
1.253283e+02	-2.038146e+01
1.260522e+02	-2.042911e+01
1.267802e+02	-2.047909e+01
1.275125e+02	-2.052889e+01
1.282490e+02	-2.057902e+01
1.289898e+02	-2.062826e+01
1.297348e+02	-2.067673e+01
1.304842e+02	-2.072832e+01
1.312378e+02	-2.077813e+01
1.319959e+02	-2.082559e+01
1.327583e+02	-2.087576e+01
1.335251e+02	-2.092697e+01
1.342963e+02	-2.097580e+01
1.350720e+02	-2.102597e+01
1.358522e+02	-2.107586e+01
1.366368e+02	-2.112488e+01
1.374260e+02	-2.117457e+01
1.382198e+02	-2.122449e+01
1.390182e+02	-2.127532e+01
1.398211e+02	-2.132256e+01
1.406287e+02	-2.137352e+01
1.414410e+02	-2.142211e+01
1.422579e+02	-2.147214e+01
1.430796e+02	-2.152268e+01
1.439060e+02	-2.157174e+01
1.447372e+02	-2.162099e+01
1.455732e+02	-2.167009e+01
1.464141e+02	-2.172031e+01
1.472597e+02	-2.176957e+01
1.481103e+02	-2.182052e+01
1.489658e+02	-2.187101e+01
1.498262e+02	-2.191955e+01
1.506916e+02	-2.196964e+01
1.515620e+02	-2.201928e+01
1.524374e+02	-2.206749e+01
1.533179e+02	-2.212045e+01
1.542034e+02	-2.216849e+01
1.550941e+02	-2.221875e+01
1.559899e+02	-2.226709e+01
1.568909e+02	-2.231902e+01
1.577971e+02	-2.236698e+01
1.587085e+02	-2.241828e+01
1.596252e+02	-2.246637e+01
1.605472e+02	-2.251720e+01
1.614745e+02	-2.256784e+01
1.624072e+02	-2.261621e+01
1.633453e+02	-2.266505e+01
1.642887e+02	-2.271594e+01
1.652377e+02	-2.276491e+01
1.661921e+02	-2.281545e+01
1.671520e+02	-2.286604e+01
1.681175e+02	-2.291513e+01
1.690885e+02	-2.296416e+01
1.700651e+02	-2.301543e+01
1.710474e+02	-2.306455e+01
1.720354e+02	-2.311159e+01
1.730291e+02	-2.316566e+01
1.740285e+02	-2.321261e+01
1.750337e+02	-2.326443e+01
1.760446e+02	-2.331197e+01
1.770615e+02	-2.336311e+01
1.780842e+02	-2.341207e+01
1.791128e+02	-2.346478e+01
1.801473e+02	-2.351158e+01
1.811878e+02	-2.356275e+01
1.822344e+02	-2.361346e+01
1.832870e+02	-2.366148e+01
1.843456e+02	-2.371076e+01
1.854104e+02	-2.376257e+01
1.864813e+02	-2.381134e+01
1.875584e+02	-2.386120e+01
1.886418e+02	-2.391101e+01
1.897313e+02	-2.396218e+01
1.908272e+02	-2.401153e+01
1.919294e+02	-2.406019e+01
1.930380e+02	-2.410899e+01
1.941530e+02	-2.416087e+01
1.952744e+02	-2.420888e+01
1.964023e+02	-2.426010e+01
1.975367e+02	-2.430957e+01
1.986777e+02	-2.435823e+01
1.998252e+02	-2.440892e+01
2.009794e+02	-2.446009e+01
2.021403e+02	-2.450950e+01
2.033078e+02	-2.455797e+01
2.044821e+02	-2.460803e+01
2.056632e+02	-2.465847e+01
2.068511e+02	-2.470901e+01
2.080459e+02	-2.475918e+01
2.092475e+02	-2.480785e+01
2.104561e+02	-2.485996e+01
2.116717e+02	-2.490894e+01
2.128943e+02	-2.495693e+01
2.141240e+02	-2.500863e+01
2.153608e+02	-2.505717e+01
2.166047e+02	-2.510995e+01
2.178558e+02	-2.515640e+01
2.191141e+02	-2.520804e+01
2.203797e+02	-2.525749e+01
2.216526e+02	-2.530751e+01
2.229329e+02	-2.535675e+01
2.242205e+02	-2.540871e+01
2.255156e+02	-2.545774e+01
2.268182e+02	-2.550704e+01
2.281283e+02	-2.555515e+01
2.294459e+02	-2.560667e+01
2.307712e+02	-2.565552e+01
2.321041e+02	-2.571042e+01
2.334447e+02	-2.575701e+01
2.347931e+02	-2.580630e+01
2.361493e+02	-2.585720e+01
2.375133e+02	-2.590738e+01
2.388851e+02	-2.595843e+01
2.402649e+02	-2.600773e+01
2.416527e+02	-2.605729e+01
2.430484e+02	-2.610696e+01
2.444523e+02	-2.616001e+01
2.458642e+02	-2.620534e+01
2.472843e+02	-2.626038e+01
2.487126e+02	-2.630606e+01
2.501492e+02	-2.635584e+01
2.515940e+02	-2.640656e+01
2.530472e+02	-2.645454e+01
2.545088e+02	-2.650471e+01
2.559789e+02	-2.655306e+01
2.574574e+02	-2.660448e+01
2.589444e+02	-2.665723e+01
2.604401e+02	-2.670789e+01
2.619444e+02	-2.675415e+01
2.634574e+02	-2.680466e+01
2.649791e+02	-2.685728e+01
2.665096e+02	-2.690479e+01
2.680489e+02	-2.695656e+01
2.695972e+02	-2.700352e+01
2.711544e+02	-2.705611e+01
2.727205e+02	-2.710424e+01
2.742958e+02	-2.715566e+01
2.758801e+02	-2.720638e+01
2.774736e+02	-2.725621e+01
2.790762e+02	-2.730676e+01
2.806882e+02	-2.735740e+01
2.823094e+02	-2.740653e+01
2.839400e+02	-2.745512e+01
2.855800e+02	-2.750428e+01
2.872295e+02	-2.755490e+01
2.888886e+02	-2.760659e+01
2.905572e+02	-2.765511e+01
2.922354e+02	-2.770458e+01
2.939234e+02	-2.775649e+01
2.956211e+02	-2.780726e+01
2.973286e+02	-2.785359e+01
2.990459e+02	-2.790763e+01
3.007732e+02	-2.795756e+01
3.025104e+02	-2.800394e+01
3.042577e+02	-2.805398e+01
3.060151e+02	-2.810383e+01
3.077826e+02	-2.815493e+01
3.095604e+02	-2.820690e+01
3.113484e+02	-2.825827e+01
3.131467e+02	-2.830628e+01
3.149554e+02	-2.835677e+01
3.167746e+02	-2.840218e+01
3.186043e+02	-2.845153e+01
3.204445e+02	-2.850510e+01
3.222954e+02	-2.855205e+01
3.241570e+02	-2.860455e+01
3.260293e+02	-2.865700e+01
3.279124e+02	-2.870449e+01
3.298064e+02	-2.875432e+01
3.317114e+02	-2.880589e+01
3.336273e+02	-2.885748e+01
3.355544e+02	-2.890888e+01
3.374925e+02	-2.895374e+01
3.394418e+02	-2.900739e+01
3.414024e+02	-2.905985e+01
3.433744e+02	-2.910592e+01
3.453577e+02	-2.915537e+01
3.473525e+02	-2.920682e+01
3.493588e+02	-2.925667e+01
3.513766e+02	-2.930604e+01
3.534062e+02	-2.935662e+01
3.554474e+02	-2.940833e+01
3.575005e+02	-2.945650e+01
3.595654e+02	-2.950626e+01
3.616422e+02	-2.955633e+01
3.637311e+02	-2.960842e+01
3.658320e+02	-2.965756e+01
3.679450e+02	-2.971379e+01
3.700702e+02	-2.975656e+01
3.722077e+02	-2.980661e+01
3.743576e+02	-2.985936e+01
3.765199e+02	-2.990182e+01
3.786946e+02	-2.996211e+01
3.808820e+02	-3.000811e+01
3.830819e+02	-3.005973e+01
3.852946e+02	-3.010484e+01
3.875200e+02	-3.015940e+01
3.897583e+02	-3.020882e+01
3.920096e+02	-3.025616e+01
3.942738e+02	-3.030531e+01
3.965511e+02	-3.036193e+01
3.988416e+02	-3.040671e+01
4.011452e+02	-3.045268e+01
4.034622e+02	-3.050433e+01
4.057926e+02	-3.055367e+01
4.081365e+02	-3.060494e+01
4.104938e+02	-3.066249e+01
4.128648e+02	-3.071467e+01
4.152495e+02	-3.075817e+01
4.176480e+02	-3.081011e+01
4.200603e+02	-3.085702e+01
4.224866e+02	-3.090739e+01
4.249268e+02	-3.096160e+01
4.273812e+02	-3.100790e+01
4.298497e+02	-3.105757e+01
4.323325e+02	-3.111383e+01
4.348297e+02	-3.115914e+01
4.373412e+02	-3.121251e+01
4.398673e+02	-3.125951e+01
4.424079e+02	-3.131395e+01
4.449633e+02	-3.136208e+01
4.475334e+02	-3.141174e+01
4.501183e+02	-3.146084e+01
4.527182e+02	-3.151347e+01
4.553330e+02	-3.156287e+01
4.579630e+02	-3.161361e+01
4.606082e+02	-3.166036e+01
4.632687e+02	-3.170988e+01
4.659445e+02	-3.176771e+01
4.686358e+02	-3.180976e+01
4.713426e+02	-3.186870e+01
4.740650e+02	-3.191448e+01
4.768032e+02	-3.195418e+01
4.795572e+02	-3.201838e+01
4.823271e+02	-3.206399e+01
4.851130e+02	-3.211325e+01
4.879150e+02	-3.216372e+01
4.907332e+02	-3.220815e+01
4.935676e+02	-3.225748e+01
4.964185e+02	-3.231996e+01
4.992858e+02	-3.236581e+01
5.021696e+02	-3.241062e+01
5.050701e+02	-3.245824e+01
5.079874e+02	-3.251075e+01
5.109215e+02	-3.257091e+01
5.138726e+02	-3.261089e+01
5.168407e+02	-3.266738e+01
5.198259e+02	-3.271291e+01
5.228284e+02	-3.276573e+01
5.258482e+02	-3.281534e+01
5.288855e+02	-3.286102e+01
5.319403e+02	-3.291444e+01
5.350128e+02	-3.296345e+01
5.381030e+02	-3.301369e+01
5.412111e+02	-3.306236e+01
5.443371e+02	-3.311545e+01
5.474812e+02	-3.316720e+01
5.506434e+02	-3.321264e+01
5.538239e+02	-3.327014e+01
5.570228e+02	-3.331765e+01
5.602401e+02	-3.336843e+01
5.634760e+02	-3.341943e+01
5.667306e+02	-3.346974e+01
5.700040e+02	-3.352125e+01
5.732964e+02	-3.356178e+01
5.766077e+02	-3.361864e+01
5.799382e+02	-3.366583e+01
5.832879e+02	-3.371953e+01
5.866569e+02	-3.377304e+01
5.900454e+02	-3.382118e+01
5.934535e+02	-3.386551e+01
5.968813e+02	-3.392174e+01
6.003288e+02	-3.396627e+01
6.037963e+02	-3.401779e+01
6.072838e+02	-3.406647e+01
6.107914e+02	-3.411612e+01
6.143194e+02	-3.416951e+01
6.178676e+02	-3.422433e+01
6.214364e+02	-3.427069e+01
6.250258e+02	-3.431822e+01
6.286359e+02	-3.437313e+01
6.322669e+02	-3.442969e+01
6.359189e+02	-3.447381e+01
6.395919e+02	-3.452347e+01
6.432862e+02	-3.456977e+01
6.470017e+02	-3.462013e+01
6.507388e+02	-3.467781e+01
6.544974e+02	-3.472478e+01
6.582778e+02	-3.476857e+01
6.620800e+02	-3.481521e+01
6.659041e+02	-3.487692e+01
6.697504e+02	-3.492378e+01
6.736188e+02	-3.497642e+01
6.775096e+02	-3.503040e+01
6.814229e+02	-3.507792e+01
6.853587e+02	-3.512315e+01
6.893173e+02	-3.516950e+01
6.932988e+02	-3.522158e+01
6.973033e+02	-3.528232e+01
7.013309e+02	-3.533231e+01
