Frequency(Hz)	Magnitude(dB)
1.000000e+01	-2.269319e+00
1.005776e+01	-2.289948e+00
1.011585e+01	-2.310524e+00
1.017428e+01	-2.331118e+00
1.023305e+01	-2.352061e+00
1.029215e+01	-2.373066e+00
1.035160e+01	-2.394127e+00
1.041139e+01	-2.415443e+00
1.047153e+01	-2.436797e+00
1.053201e+01	-2.458477e+00
1.059284e+01	-2.480138e+00
1.065403e+01	-2.501927e+00
1.071556e+01	-2.523758e+00
1.077746e+01	-2.545948e+00
1.083971e+01	-2.568107e+00
1.090232e+01	-2.590736e+00
1.096529e+01	-2.613227e+00
1.102862e+01	-2.636041e+00
1.109232e+01	-2.658382e+00
1.115639e+01	-2.681682e+00
1.122083e+01	-2.704888e+00
1.128564e+01	-2.728201e+00
1.135083e+01	-2.751699e+00
1.141639e+01	-2.775053e+00
1.148233e+01	-2.799012e+00
1.154865e+01	-2.822669e+00
1.161536e+01	-2.846623e+00
1.168245e+01	-2.870576e+00
1.174992e+01	-2.894886e+00
1.181779e+01	-2.919488e+00
1.188605e+01	-2.944200e+00
1.195470e+01	-2.968650e+00
1.202375e+01	-2.993538e+00
1.209320e+01	-3.018440e+00
1.216305e+01	-3.043717e+00
1.223330e+01	-3.068755e+00
1.230396e+01	-3.094190e+00
1.237503e+01	-3.119832e+00
1.244651e+01	-3.145533e+00
1.251840e+01	-3.171276e+00
1.259070e+01	-3.197320e+00
1.266343e+01	-3.223686e+00
1.273657e+01	-3.249670e+00
1.281014e+01	-3.276265e+00
1.288413e+01	-3.302785e+00
1.295855e+01	-3.329432e+00
1.303339e+01	-3.356390e+00
1.310867e+01	-3.383267e+00
1.318439e+01	-3.410532e+00
1.326054e+01	-3.437601e+00
1.333713e+01	-3.465300e+00
1.341417e+01	-3.492867e+00
1.349165e+01	-3.520747e+00
1.356958e+01	-3.548361e+00
1.364795e+01	-3.576572e+00
1.372678e+01	-3.604560e+00
1.380607e+01	-3.632744e+00
1.388581e+01	-3.661268e+00
1.396602e+01	-3.689861e+00
1.404668e+01	-3.718736e+00
1.412782e+01	-3.747295e+00
1.420942e+01	-3.776245e+00
1.429149e+01	-3.805397e+00
1.437404e+01	-3.834872e+00
1.445706e+01	-3.864264e+00
1.454057e+01	-3.893711e+00
1.462455e+01	-3.923445e+00
1.470902e+01	-3.953275e+00
1.479398e+01	-3.983317e+00
1.487943e+01	-4.013321e+00
1.496537e+01	-4.043478e+00
1.505181e+01	-4.073947e+00
1.513875e+01	-4.104463e+00
1.522619e+01	-4.135105e+00
1.531414e+01	-4.165878e+00
1.540259e+01	-4.196833e+00
1.549156e+01	-4.228031e+00
1.558103e+01	-4.259185e+00
1.567103e+01	-4.289967e+00
1.576155e+01	-4.321750e+00
1.585258e+01	-4.353485e+00
1.594415e+01	-4.385071e+00
1.603624e+01	-4.416836e+00
1.612886e+01	-4.449042e+00
1.622202e+01	-4.481048e+00
1.631572e+01	-4.513482e+00
1.640996e+01	-4.545858e+00
1.650474e+01	-4.578156e+00
1.660008e+01	-4.611068e+00
1.669596e+01	-4.643742e+00
1.679239e+01	-4.676478e+00
1.688938e+01	-4.709479e+00
1.698694e+01	-4.743007e+00
1.708505e+01	-4.776049e+00
1.718373e+01	-4.809612e+00
1.728299e+01	-4.843224e+00
1.738281e+01	-4.876911e+00
1.748322e+01	-4.910922e+00
1.758420e+01	-4.944615e+00
1.768576e+01	-4.978788e+00
1.778792e+01	-5.012994e+00
1.789066e+01	-5.047139e+00
1.799399e+01	-5.081624e+00
1.809793e+01	-5.116291e+00
1.820246e+01	-5.150974e+00
1.830760e+01	-5.185756e+00
1.841334e+01	-5.220521e+00
1.851969e+01	-5.255641e+00
1.862666e+01	-5.291029e+00
1.873425e+01	-5.326336e+00
1.884246e+01	-5.361671e+00
1.895129e+01	-5.397213e+00
1.906075e+01	-5.432971e+00
1.917085e+01	-5.468785e+00
1.928158e+01	-5.504304e+00
1.939295e+01	-5.540266e+00
1.950496e+01	-5.576266e+00
1.961762e+01	-5.612611e+00
1.973093e+01	-5.648941e+00
1.984490e+01	-5.685501e+00
1.995952e+01	-5.722065e+00
2.007480e+01	-5.758941e+00
2.019076e+01	-5.795763e+00
2.030738e+01	-5.832512e+00
2.042467e+01	-5.869679e+00
2.054264e+01	-5.906944e+00
2.066130e+01	-5.943869e+00
2.078064e+01	-5.981340e+00
2.090066e+01	-6.018502e+00
2.102139e+01	-6.056363e+00
2.114280e+01	-6.094156e+00
2.126492e+01	-6.132060e+00
2.138775e+01	-6.169856e+00
2.151128e+01	-6.207658e+00
2.163553e+01	-6.245599e+00
2.176050e+01	-6.283624e+00
2.188619e+01	-6.322194e+00
2.201260e+01	-6.360801e+00
2.213974e+01	-6.398919e+00
2.226762e+01	-6.438052e+00
2.239624e+01	-6.476416e+00
2.252560e+01	-6.515354e+00
2.265571e+01	-6.554269e+00
2.278656e+01	-6.593059e+00
2.291818e+01	-6.632052e+00
2.305055e+01	-6.671457e+00
2.318369e+01	-6.711200e+00
2.331760e+01	-6.750497e+00
2.345228e+01	-6.789836e+00
2.358774e+01	-6.829302e+00
2.372398e+01	-6.868865e+00
2.386101e+01	-6.909168e+00
2.399883e+01	-6.948919e+00
2.413745e+01	-6.988694e+00
2.427686e+01	-7.028952e+00
2.441709e+01	-7.068993e+00
2.455812e+01	-7.109134e+00
2.469997e+01	-7.149613e+00
2.484263e+01	-7.189878e+00
2.498612e+01	-7.230326e+00
2.513044e+01	-7.271036e+00
2.527559e+01	-7.311572e+00
2.542158e+01	-7.352487e+00
2.556842e+01	-7.393486e+00
2.571610e+01	-7.434406e+00
2.586463e+01	-7.475403e+00
2.601403e+01	-7.516322e+00
2.616428e+01	-7.558077e+00
2.631541e+01	-7.598846e+00
2.646740e+01	-7.640601e+00
2.662028e+01	-7.681612e+00
2.677404e+01	-7.723379e+00
2.692868e+01	-7.764530e+00
2.708422e+01	-7.806843e+00
2.724066e+01	-7.848483e+00
2.739800e+01	-7.889877e+00
2.755625e+01	-7.932067e+00
2.771541e+01	-7.974218e+00
2.787550e+01	-8.016211e+00
2.803650e+01	-8.058406e+00
2.819844e+01	-8.100857e+00
2.836131e+01	-8.142854e+00
2.852513e+01	-8.185426e+00
2.868989e+01	-8.228055e+00
2.885560e+01	-8.270175e+00
2.902227e+01	-8.313201e+00
2.918990e+01	-8.355909e+00
2.935850e+01	-8.398582e+00
2.952807e+01	-8.440928e+00
2.969863e+01	-8.484602e+00
2.987016e+01	-8.526754e+00
3.004269e+01	-8.569845e+00
3.021622e+01	-8.613471e+00
3.039075e+01	-8.656660e+00
3.056628e+01	-8.699821e+00
3.074283e+01	-8.742667e+00
3.092040e+01	-8.786797e+00
3.109900e+01	-8.829894e+00
3.127862e+01	-8.873153e+00
3.145929e+01	-8.917261e+00
3.164099e+01	-8.960822e+00
3.182375e+01	-9.004270e+00
3.200756e+01	-9.048286e+00
3.219244e+01	-9.091892e+00
3.237838e+01	-9.135643e+00
3.256540e+01	-9.179576e+00
3.275349e+01	-9.223774e+00
3.294268e+01	-9.267935e+00
3.313295e+01	-9.311760e+00
3.332433e+01	-9.355783e+00
3.351681e+01	-9.400505e+00
3.371040e+01	-9.444231e+00
3.390511e+01	-9.489236e+00
3.410094e+01	-9.533474e+00
3.429791e+01	-9.577717e+00
3.449601e+01	-9.622455e+00
3.469526e+01	-9.667361e+00
3.489566e+01	-9.711874e+00
3.509721e+01	-9.756240e+00
3.529993e+01	-9.801525e+00
3.550382e+01	-9.846316e+00
3.570889e+01	-9.891134e+00
3.591515e+01	-9.935865e+00
3.612259e+01	-9.981211e+00
3.633123e+01	-1.002563e+01
3.654108e+01	-1.007052e+01
3.675214e+01	-1.011653e+01
3.696442e+01	-1.016072e+01
3.717792e+01	-1.020677e+01
3.739266e+01	-1.025141e+01
3.760864e+01	-1.029680e+01
3.782587e+01	-1.034224e+01
3.804435e+01	-1.038812e+01
3.826409e+01	-1.043382e+01
3.848510e+01	-1.047873e+01
3.870739e+01	-1.052450e+01
3.893096e+01	-1.056940e+01
3.915583e+01	-1.061584e+01
3.938199e+01	-1.066133e+01
3.960946e+01	-1.070786e+01
3.983824e+01	-1.075318e+01
4.006834e+01	-1.079811e+01
4.029978e+01	-1.084535e+01
4.053255e+01	-1.089015e+01
4.076666e+01	-1.093676e+01
4.100213e+01	-1.098310e+01
4.123896e+01	-1.102924e+01
4.147715e+01	-1.107472e+01
4.171672e+01	-1.112109e+01
4.195767e+01	-1.116760e+01
4.220002e+01	-1.121356e+01
4.244377e+01	-1.125976e+01
4.268892e+01	-1.130587e+01
4.293549e+01	-1.135229e+01
4.318348e+01	-1.139886e+01
4.343291e+01	-1.144447e+01
4.368377e+01	-1.149130e+01
4.393609e+01	-1.153785e+01
4.418986e+01	-1.158387e+01
4.444510e+01	-1.163180e+01
4.470182e+01	-1.167719e+01
4.496001e+01	-1.172372e+01
4.521970e+01	-1.177143e+01
4.548089e+01	-1.181790e+01
4.574358e+01	-1.186489e+01
4.600779e+01	-1.191145e+01
4.627353e+01	-1.195884e+01
4.654081e+01	-1.200475e+01
4.680963e+01	-1.205178e+01
4.708000e+01	-1.209887e+01
4.735193e+01	-1.214580e+01
4.762543e+01	-1.219355e+01
4.790051e+01	-1.223974e+01
4.817719e+01	-1.228674e+01
4.845545e+01	-1.233373e+01
4.873533e+01	-1.238072e+01
4.901682e+01	-1.242848e+01
4.929994e+01	-1.247543e+01
4.958470e+01	-1.252272e+01
4.987110e+01	-1.256979e+01
5.015915e+01	-1.261746e+01
5.044887e+01	-1.266480e+01
5.074026e+01	-1.271130e+01
5.103333e+01	-1.275871e+01
5.132810e+01	-1.280579e+01
5.162457e+01	-1.285335e+01
5.192275e+01	-1.290115e+01
5.222265e+01	-1.294876e+01
5.252429e+01	-1.299593e+01
5.282767e+01	-1.304409e+01
5.313280e+01	-1.309130e+01
5.343969e+01	-1.313857e+01
5.374836e+01	-1.318607e+01
5.405880e+01	-1.323470e+01
5.437105e+01	-1.328270e+01
5.468509e+01	-1.333061e+01
5.500095e+01	-1.337750e+01
5.531863e+01	-1.342452e+01
5.563815e+01	-1.347247e+01
5.595951e+01	-1.352037e+01
5.628273e+01	-1.356843e+01
5.660782e+01	-1.361635e+01
5.693479e+01	-1.366442e+01
5.726364e+01	-1.371243e+01
5.759439e+01	-1.376016e+01
5.792705e+01	-1.380838e+01
5.826164e+01	-1.385586e+01
5.859815e+01	-1.390384e+01
5.893662e+01	-1.395127e+01
5.927703e+01	-1.399940e+01
5.961941e+01	-1.404802e+01
5.996377e+01	-1.409633e+01
6.031012e+01	-1.414437e+01
6.065847e+01	-1.419210e+01
6.100883e+01	-1.423934e+01
6.136121e+01	-1.428891e+01
6.171563e+01	-1.433683e+01
6.207210e+01	-1.438441e+01
6.243063e+01	-1.443272e+01
6.279122e+01	-1.448099e+01
6.315390e+01	-1.453003e+01
6.351868e+01	-1.457786e+01
6.388556e+01	-1.462608e+01
6.425456e+01	-1.467485e+01
6.462569e+01	-1.472268e+01
6.499897e+01	-1.477035e+01
6.537440e+01	-1.481959e+01
6.575200e+01	-1.486772e+01
6.613178e+01	-1.491683e+01
6.651375e+01	-1.496374e+01
6.689793e+01	-1.501396e+01
6.728433e+01	-1.506186e+01
6.767297e+01	-1.510976e+01
6.806384e+01	-1.515779e+01
6.845698e+01	-1.520685e+01
6.885238e+01	-1.525524e+01
6.925007e+01	-1.530405e+01
6.965005e+01	-1.535347e+01
7.005235e+01	-1.540078e+01
7.045697e+01	-1.545023e+01
7.086393e+01	-1.549829e+01
7.127323e+01	-1.554685e+01
7.168490e+01	-1.559567e+01
7.209895e+01	-1.564482e+01
7.251539e+01	-1.569344e+01
7.293424e+01	-1.574204e+01
7.335551e+01	-1.579090e+01
7.377920e+01	-1.583956e+01
7.420535e+01	-1.588743e+01
7.463396e+01	-1.593750e+01
7.506504e+01	-1.598486e+01
7.549861e+01	-1.603468e+01
7.593469e+01	-1.608337e+01
7.637328e+01	-1.613286e+01
7.681441e+01	-1.618032e+01
7.725809e+01	-1.622879e+01
7.770433e+01	-1.627797e+01
7.815315e+01	-1.632800e+01
7.860456e+01	-1.637573e+01
7.905857e+01	-1.642470e+01
7.951521e+01	-1.647392e+01
7.997449e+01	-1.652226e+01
8.043642e+01	-1.657097e+01
8.090102e+01	-1.662105e+01
8.136830e+01	-1.666951e+01
8.183828e+01	-1.671840e+01
8.231097e+01	-1.676767e+01
8.278640e+01	-1.681615e+01
8.326457e+01	-1.686491e+01
8.374550e+01	-1.691451e+01
8.422921e+01	-1.696345e+01
8.471572e+01	-1.701233e+01
8.520503e+01	-1.706114e+01
8.569717e+01	-1.710927e+01
8.619215e+01	-1.715856e+01
8.669000e+01	-1.720771e+01
8.719071e+01	-1.725921e+01
8.769432e+01	-1.730543e+01
8.820084e+01	-1.735584e+01
8.871029e+01	-1.740490e+01
8.922267e+01	-1.745410e+01
8.973802e+01	-1.750343e+01
9.025634e+01	-1.755194e+01
9.077766e+01	-1.760189e+01
9.130199e+01	-1.765017e+01
9.182935e+01	-1.770101e+01
9.235975e+01	-1.775042e+01
9.289321e+01	-1.779843e+01
9.342976e+01	-1.784772e+01
9.396941e+01	-1.789632e+01
9.451217e+01	-1.794622e+01
9.505807e+01	-1.799555e+01
9.560712e+01	-1.804399e+01
9.615934e+01	-1.809405e+01
9.671476e+01	-1.814314e+01
9.727338e+01	-1.819193e+01
9.783522e+01	-1.824169e+01
9.840032e+01	-1.829141e+01
9.896867e+01	-1.833994e+01
9.954031e+01	-1.839092e+01
1.001153e+02	-1.843834e+01
1.006935e+02	-1.848933e+01
1.012751e+02	-1.853657e+01
1.018601e+02	-1.858707e+01
1.024484e+02	-1.863565e+01
1.030402e+02	-1.868596e+01
1.036353e+02	-1.873448e+01
1.042339e+02	-1.878526e+01
1.048360e+02	-1.883306e+01
1.054415e+02	-1.888223e+01
1.060505e+02	-1.893254e+01
1.066631e+02	-1.898251e+01
1.072791e+02	-1.903174e+01
1.078988e+02	-1.908247e+01
1.085220e+02	-1.913039e+01
1.091488e+02	-1.917916e+01
1.097793e+02	-1.923017e+01
1.104133e+02	-1.927852e+01
1.110511e+02	-1.932841e+01
1.116925e+02	-1.937792e+01
1.123376e+02	-1.942623e+01
1.129865e+02	-1.947684e+01
1.136391e+02	-1.952525e+01
1.142955e+02	-1.957560e+01
1.149556e+02	-1.962471e+01
1.156196e+02	-1.967363e+01
1.162874e+02	-1.972463e+01
1.169591e+02	-1.977185e+01
1.176347e+02	-1.982189e+01
1.183141e+02	-1.987157e+01
1.189975e+02	-1.992185e+01
1.196848e+02	-1.997089e+01
1.203761e+02	-2.002019e+01
1.210714e+02	-2.007003e+01
1.217707e+02	-2.012079e+01
1.224740e+02	-2.016824e+01
1.231814e+02	-2.021891e+01
1.238929e+02	-2.026721e+01
1.246085e+02	-2.031743e+01
1.253283e+02	-2.036860e+01
1.260522e+02	-2.041630e+01
1.267802e+02	-2.046596e+01
1.275125e+02	-2.051579e+01
1.282490e+02	-2.056585e+01
1.289898e+02	-2.061554e+01
1.297348e+02	-2.066456e+01
1.304842e+02	-2.071387e+01
1.312378e+02	-2.076526e+01
1.319959e+02	-2.081378e+01
1.327583e+02	-2.086419e+01
1.335251e+02	-2.091181e+01
1.342963e+02	-2.096282e+01
1.350720e+02	-2.101118e+01
1.358522e+02	-2.106174e+01
1.366368e+02	-2.111064e+01
1.374260e+02	-2.116096e+01
1.382198e+02	-2.121101e+01
1.390182e+02	-2.125898e+01
1.398211e+02	-2.131105e+01
1.406287e+02	-2.135978e+01
1.414410e+02	-2.140771e+01
1.422579e+02	-2.145710e+01
1.430796e+02	-2.151049e+01
1.439060e+02	-2.156047e+01
1.447372e+02	-2.160950e+01
1.455732e+02	-2.165959e+01
1.464141e+02	-2.170787e+01
1.472597e+02	-2.175600e+01
1.481103e+02	-2.180532e+01
1.489658e+02	-2.185687e+01
1.498262e+02	-2.191052e+01
1.506916e+02	-2.195863e+01
1.515620e+02	-2.200777e+01
1.524374e+02	-2.205462e+01
1.533179e+02	-2.210514e+01
1.542034e+02	-2.215568e+01
1.550941e+02	-2.220361e+01
1.559899e+02	-2.225499e+01
1.568909e+02	-2.230431e+01
1.577971e+02	-2.235309e+01
1.587085e+02	-2.240515e+01
1.596252e+02	-2.245511e+01
1.605472e+02	-2.250591e+01
1.614745e+02	-2.255273e+01
1.624072e+02	-2.260171e+01
1.633453e+02	-2.265459e+01
1.642887e+02	-2.270140e+01
1.652377e+02	-2.275206e+01
1.661921e+02	-2.280266e+01
1.671520e+02	-2.285106e+01
1.681175e+02	-2.290168e+01
1.690885e+02	-2.294896e+01
1.700651e+02	-2.299976e+01
1.710474e+02	-2.305219e+01
1.720354e+02	-2.310072e+01
1.730291e+02	-2.314958e+01
1.740285e+02	-2.319918e+01
1.750337e+02	-2.325094e+01
1.760446e+02	-2.330111e+01
1.770615e+02	-2.335286e+01
1.780842e+02	-2.339995e+01
1.791128e+02	-2.345091e+01
1.801473e+02	-2.349914e+01
1.811878e+02	-2.354884e+01
1.822344e+02	-2.359944e+01
1.832870e+02	-2.364768e+01
1.843456e+02	-2.369864e+01
1.854104e+02	-2.374808e+01
1.864813e+02	-2.379816e+01
1.875584e+02	-2.384859e+01
1.886418e+02	-2.389944e+01
1.897313e+02	-2.394895e+01
1.908272e+02	-2.399876e+01
1.919294e+02	-2.404672e+01
1.930380e+02	-2.409883e+01
1.941530e+02	-2.414811e+01
1.952744e+02	-2.419651e+01
1.964023e+02	-2.424712e+01
1.975367e+02	-2.429353e+01
1.986777e+02	-2.434574e+01
1.998252e+02	-2.439590e+01
2.009794e+02	-2.444458e+01
2.021403e+02	-2.449849e+01
2.033078e+02	-2.454495e+01
2.044821e+02	-2.459905e+01
2.056632e+02	-2.464502e+01
2.068511e+02	-2.469855e+01
2.080459e+02	-2.474689e+01
2.092475e+02	-2.479321e+01
2.104561e+02	-2.484581e+01
2.116717e+02	-2.489646e+01
2.128943e+02	-2.494614e+01
2.141240e+02	-2.499719e+01
2.153608e+02	-2.504618e+01
2.166047e+02	-2.509658e+01
2.178558e+02	-2.514738e+01
2.191141e+02	-2.519471e+01
2.203797e+02	-2.524347e+01
2.216526e+02	-2.529389e+01
2.229329e+02	-2.534258e+01
2.242205e+02	-2.539919e+01
2.255156e+02	-2.544644e+01
2.268182e+02	-2.549422e+01
2.281283e+02	-2.554549e+01
2.294459e+02	-2.559518e+01
2.307712e+02	-2.564642e+01
2.321041e+02	-2.569524e+01
2.334447e+02	-2.574171e+01
2.347931e+02	-2.579477e+01
2.361493e+02	-2.584344e+01
2.375133e+02	-2.589112e+01
2.388851e+02	-2.594126e+01
2.402649e+02	-2.599215e+01
2.416527e+02	-2.604346e+01
2.430484e+02	-2.609224e+01
2.444523e+02	-2.614145e+01
2.458642e+02	-2.619649e+01
2.472843e+02	-2.624349e+01
2.487126e+02	-2.629469e+01
2.501492e+02	-2.634317e+01
2.515940e+02	-2.639013e+01
2.530472e+02	-2.644578e+01
2.545088e+02	-2.649304e+01
2.559789e+02	-2.654180e+01
2.574574e+02	-2.659258e+01
2.589444e+02	-2.664451e+01
2.604401e+02	-2.669127e+01
2.619444e+02	-2.674718e+01
2.634574e+02	-2.679350e+01
2.649791e+02	-2.684243e+01
2.665096e+02	-2.689366e+01
2.680489e+02	-2.694314e+01
2.695972e+02	-2.699641e+01
2.711544e+02	-2.704393e+01
2.727205e+02	-2.709160e+01
2.742958e+02	-2.714457e+01
2.758801e+02	-2.719380e+01
2.774736e+02	-2.724249e+01
2.790762e+02	-2.729190e+01
2.806882e+02	-2.734077e+01
2.823094e+02	-2.739119e+01
2.839400e+02	-2.744151e+01
2.855800e+02	-2.749185e+01
2.872295e+02	-2.754323e+01
2.888886e+02	-2.759080e+01
2.905572e+02	-2.764038e+01
2.922354e+02	-2.769214e+01
2.939234e+02	-2.774450e+01
2.956211e+02	-2.778693e+01
2.973286e+02	-2.784356e+01
2.990459e+02	-2.789228e+01
3.007732e+02	-2.794615e+01
3.025104e+02	-2.798900e+01
3.042577e+02	-2.803818e+01
3.060151e+02	-2.809023e+01
3.077826e+02	-2.814413e+01
3.095604e+02	-2.818762e+01
3.113484e+02	-2.823950e+01
3.131467e+02	-2.829323e+01
3.149554e+02	-2.834357e+01
3.167746e+02	-2.839032e+01
3.186043e+02	-2.844036e+01
3.204445e+02	-2.849708e+01
3.222954e+02	-2.854109e+01
3.241570e+02	-2.858983e+01
3.260293e+02	-2.864003e+01
3.279124e+02	-2.869060e+01
3.298064e+02	-2.874085e+01
3.317114e+02	-2.879008e+01
3.336273e+02	-2.884261e+01
3.355544e+02	-2.889621e+01
3.374925e+02	-2.894787e+01
3.394418e+02	-2.899664e+01
3.414024e+02	-2.904432e+01
3.433744e+02	-2.909469e+01
3.453577e+02	-2.914538e+01
3.473525e+02	-2.919319e+01
3.493588e+02	-2.924050e+01
3.513766e+02	-2.929486e+01
3.534062e+02	-2.934191e+01
3.554474e+02	-2.939388e+01
3.575005e+02	-2.944570e+01
3.595654e+02	-2.949363e+01
3.616422e+02	-2.954018e+01
3.637311e+02	-2.959759e+01
3.658320e+02	-2.964614e+01
3.679450e+02	-2.968912e+01
3.700702e+02	-2.974165e+01
3.722077e+02	-2.979877e+01
3.743576e+02	-2.984426e+01
3.765199e+02	-2.989246e+01
3.786946e+02	-2.994454e+01
3.808820e+02	-2.999624e+01
3.830819e+02	-3.004430e+01
3.852946e+02	-3.009632e+01
3.875200e+02	-3.014846e+01
3.897583e+02	-3.019580e+01
3.920096e+02	-3.024492e+01
3.942738e+02	-3.029972e+01
3.965511e+02	-3.034025e+01
3.988416e+02	-3.039792e+01
4.011452e+02	-3.044467e+01
4.034622e+02	-3.049335e+01
4.057926e+02	-3.054178e+01
4.081365e+02	-3.059582e+01
4.104938e+02	-3.064585e+01
4.128648e+02	-3.069188e+01
4.152495e+02	-3.074311e+01
4.176480e+02	-3.079128e+01
4.200603e+02	-3.085194e+01
4.224866e+02	-3.089677e+01
4.249268e+02	-3.094465e+01
4.273812e+02	-3.099692e+01
4.298497e+02	-3.103688e+01
4.323325e+02	-3.109695e+01
4.348297e+02	-3.114537e+01
4.373412e+02	-3.119433e+01
4.398673e+02	-3.124606e+01
4.424079e+02	-3.130042e+01
4.449633e+02	-3.134755e+01
4.475334e+02	-3.139245e+01
4.501183e+02	-3.145108e+01
4.527182e+02	-3.149841e+01
4.553330e+02	-3.154640e+01
4.579630e+02	-3.159834e+01
4.606082e+02	-3.164395e+01
4.632687e+02	-3.169773e+01
4.659445e+02	-3.175281e+01
4.686358e+02	-3.180047e+01
4.713426e+02	-3.184342e+01
4.740650e+02	-3.190101e+01
4.768032e+02	-3.194948e+01
4.795572e+02	-3.200205e+01
4.823271e+02	-3.204938e+01
4.851130e+02	-3.210016e+01
4.879150e+02	-3.215312e+01
4.907332e+02	-3.220429e+01
4.935676e+02	-3.224620e+01
4.964185e+02	-3.230175e+01
4.992858e+02	-3.234880e+01
5.021696e+02	-3.240195e+01
5.050701e+02	-3.245105e+01
5.079874e+02	-3.250494e+01
5.109215e+02	-3.255072e+01
5.138726e+02	-3.260999e+01
5.168407e+02	-3.264768e+01
5.198259e+02	-3.270447e+01
5.228284e+02	-3.275423e+01
5.258482e+02	-3.279756e+01
5.288855e+02	-3.285049e+01
5.319403e+02	-3.290918e+01
5.350128e+02	-3.295694e+01
5.381030e+02	-3.299872e+01
5.412111e+02	-3.305278e+01
5.443371e+02	-3.309544e+01
5.474812e+02	-3.315736e+01
5.506434e+02	-3.320495e+01
5.538239e+02	-3.325119e+01
5.570228e+02	-3.330636e+01
5.602401e+02	-3.335489e+01
5.634760e+02	-3.339881e+01
5.667306e+02	-3.344805e+01
5.700040e+02	-3.351100e+01
5.732964e+02	-3.355424e+01
5.766077e+02	-3.360149e+01
5.799382e+02	-3.365693e+01
5.832879e+02	-3.370826e+01
5.866569e+02	-3.375655e+01
5.900454e+02	-3.380645e+01
5.934535e+02	-3.385781e+01
5.968813e+02	-3.390031e+01
6.003288e+02	-3.395239e+01
6.037963e+02	-3.400228e+01
6.072838e+02	-3.405285e+01
6.107914e+02	-3.410298e+01
6.143194e+02	-3.415872e+01
6.178676e+02	-3.421202e+01
6.214364e+02	-3.425435e+01
6.250258e+02	-3.431217e+01
6.286359e+02	-3.435706e+01
6.322669e+02	-3.440429e+01
6.359189e+02	-3.445875e+01
6.395919e+02	-3.450864e+01
6.432862e+02	-3.455901e+01
6.470017e+02	-3.460839e+01
6.507388e+02	-3.465655e+01
6.544974e+02	-3.470955e+01
6.582778e+02	-3.475977e+01
6.620800e+02	-3.480752e+01
6.659041e+02	-3.485887e+01
6.697504e+02	-3.490730e+01
6.736188e+02	-3.495238e+01
6.775096e+02	-3.501728e+01
6.814229e+02	-3.506530e+01
6.853587e+02	-3.511122e+01
6.893173e+02	-3.515888e+01
6.932988e+02	-3.521328e+01
6.973033e+02	-3.526486e+01
7.013309e+02	-3.531611e+01
