Frequency(Hz)	Magnitude(dB)
1.000000e+01	-1.660296e-05
1.005776e+01	-1.679531e-05
1.011585e+01	-1.698989e-05
1.017428e+01	-1.718672e-05
1.023305e+01	-1.738583e-05
1.029215e+01	-1.758725e-05
1.035160e+01	-1.779101e-05
1.041139e+01	-1.799712e-05
1.047153e+01	-1.820562e-05
1.053201e+01	-1.841654e-05
1.059284e+01	-1.862990e-05
1.065403e+01	-1.884573e-05
1.071556e+01	-1.906406e-05
1.077746e+01	-1.928493e-05
1.083971e+01	-1.950835e-05
1.090232e+01	-1.973435e-05
1.096529e+01	-1.996298e-05
1.102862e+01	-2.019426e-05
1.109232e+01	-2.042821e-05
1.115639e+01	-2.066488e-05
1.122083e+01	-2.090429e-05
1.128564e+01	-2.114647e-05
1.135083e+01	-2.139146e-05
1.141639e+01	-2.163928e-05
1.148233e+01	-2.188998e-05
1.154865e+01	-2.214358e-05
1.161536e+01	-2.240012e-05
1.168245e+01	-2.265963e-05
1.174992e+01	-2.292215e-05
1.181779e+01	-2.318771e-05
1.188605e+01	-2.345634e-05
1.195470e+01	-2.372809e-05
1.202375e+01	-2.400298e-05
1.209320e+01	-2.428106e-05
1.216305e+01	-2.456237e-05
1.223330e+01	-2.484693e-05
1.230396e+01	-2.513479e-05
1.237503e+01	-2.542598e-05
1.244651e+01	-2.572055e-05
1.251840e+01	-2.601852e-05
1.259070e+01	-2.631995e-05
1.266343e+01	-2.662488e-05
1.273657e+01	-2.693333e-05
1.281014e+01	-2.724536e-05
1.288413e+01	-2.756101e-05
1.295855e+01	-2.788031e-05
1.303339e+01	-2.820331e-05
1.310867e+01	-2.853005e-05
1.318439e+01	-2.886058e-05
1.326054e+01	-2.919493e-05
1.333713e+01	-2.953316e-05
1.341417e+01	-2.987531e-05
1.349165e+01	-3.022143e-05
1.356958e+01	-3.057155e-05
1.364795e+01	-3.092573e-05
1.372678e+01	-3.128401e-05
1.380607e+01	-3.164644e-05
1.388581e+01	-3.201307e-05
1.396602e+01	-3.238395e-05
1.404668e+01	-3.275913e-05
1.412782e+01	-3.313865e-05
1.420942e+01	-3.352257e-05
1.429149e+01	-3.391094e-05
1.437404e+01	-3.430380e-05
1.445706e+01	-3.470122e-05
1.454057e+01	-3.510324e-05
1.462455e+01	-3.550992e-05
1.470902e+01	-3.592131e-05
1.479398e+01	-3.633747e-05
1.487943e+01	-3.675845e-05
1.496537e+01	-3.718430e-05
1.505181e+01	-3.761509e-05
1.513875e+01	-3.805087e-05
1.522619e+01	-3.849170e-05
1.531414e+01	-3.893763e-05
1.540259e+01	-3.938873e-05
1.549156e+01	-3.984506e-05
1.558103e+01	-4.030668e-05
1.567103e+01	-4.077364e-05
1.576155e+01	-4.124601e-05
1.585258e+01	-4.172385e-05
1.594415e+01	-4.220723e-05
1.603624e+01	-4.269621e-05
1.612886e+01	-4.319086e-05
1.622202e+01	-4.369123e-05
1.631572e+01	-4.419741e-05
1.640996e+01	-4.470944e-05
1.650474e+01	-4.522741e-05
1.660008e+01	-4.575138e-05
1.669596e+01	-4.628142e-05
1.679239e+01	-4.681760e-05
1.688938e+01	-4.735999e-05
1.698694e+01	-4.790867e-05
1.708505e+01	-4.846370e-05
1.718373e+01	-4.902516e-05
1.728299e+01	-4.959313e-05
1.738281e+01	-5.016768e-05
1.748322e+01	-5.074888e-05
1.758420e+01	-5.133682e-05
1.768576e+01	-5.193157e-05
1.778792e+01	-5.253320e-05
1.789066e+01	-5.314181e-05
1.799399e+01	-5.375747e-05
1.809793e+01	-5.438026e-05
1.820246e+01	-5.501027e-05
1.830760e+01	-5.564757e-05
1.841334e+01	-5.629226e-05
1.851969e+01	-5.694442e-05
1.862666e+01	-5.760413e-05
1.873425e+01	-5.827149e-05
1.884246e+01	-5.894658e-05
1.895129e+01	-5.962948e-05
1.906075e+01	-6.032030e-05
1.917085e+01	-6.101913e-05
1.928158e+01	-6.172604e-05
1.939295e+01	-6.244115e-05
1.950496e+01	-6.316455e-05
1.961762e+01	-6.389632e-05
1.973093e+01	-6.463657e-05
1.984490e+01	-6.538540e-05
1.995952e+01	-6.614290e-05
2.007480e+01	-6.690918e-05
2.019076e+01	-6.768433e-05
2.030738e+01	-6.846847e-05
2.042467e+01	-6.926169e-05
2.054264e+01	-7.006410e-05
2.066130e+01	-7.087580e-05
2.078064e+01	-7.169691e-05
2.090066e+01	-7.252754e-05
2.102139e+01	-7.336778e-05
2.114280e+01	-7.421776e-05
2.126492e+01	-7.507759e-05
2.138775e+01	-7.594737e-05
2.151128e+01	-7.682724e-05
2.163553e+01	-7.771729e-05
2.176050e+01	-7.861766e-05
2.188619e+01	-7.952846e-05
2.201260e+01	-8.044981e-05
2.213974e+01	-8.138184e-05
2.226762e+01	-8.232466e-05
2.239624e+01	-8.327840e-05
2.252560e+01	-8.424320e-05
2.265571e+01	-8.521917e-05
2.278656e+01	-8.620645e-05
2.291818e+01	-8.720516e-05
2.305055e+01	-8.821545e-05
2.318369e+01	-8.923744e-05
2.331760e+01	-9.027127e-05
2.345228e+01	-9.131708e-05
2.358774e+01	-9.237500e-05
2.372398e+01	-9.344518e-05
2.386101e+01	-9.452776e-05
2.399883e+01	-9.562287e-05
2.413745e+01	-9.673068e-05
2.427686e+01	-9.785132e-05
2.441709e+01	-9.898494e-05
2.455812e+01	-1.001317e-04
2.469997e+01	-1.012917e-04
2.484263e+01	-1.024652e-04
2.498612e+01	-1.036523e-04
2.513044e+01	-1.048531e-04
2.527559e+01	-1.060679e-04
2.542158e+01	-1.072967e-04
2.556842e+01	-1.085397e-04
2.571610e+01	-1.097972e-04
2.586463e+01	-1.110692e-04
2.601403e+01	-1.123559e-04
2.616428e+01	-1.136576e-04
2.631541e+01	-1.149743e-04
2.646740e+01	-1.163063e-04
2.662028e+01	-1.176537e-04
2.677404e+01	-1.190168e-04
2.692868e+01	-1.203956e-04
2.708422e+01	-1.217904e-04
2.724066e+01	-1.232013e-04
2.739800e+01	-1.246286e-04
2.755625e+01	-1.260725e-04
2.771541e+01	-1.275330e-04
2.787550e+01	-1.290105e-04
2.803650e+01	-1.305051e-04
2.819844e+01	-1.320170e-04
2.836131e+01	-1.335465e-04
2.852513e+01	-1.350936e-04
2.868989e+01	-1.366587e-04
2.885560e+01	-1.382419e-04
2.902227e+01	-1.398434e-04
2.918990e+01	-1.414635e-04
2.935850e+01	-1.431024e-04
2.952807e+01	-1.447603e-04
2.969863e+01	-1.464373e-04
2.987016e+01	-1.481338e-04
3.004269e+01	-1.498500e-04
3.021622e+01	-1.515860e-04
3.039075e+01	-1.533421e-04
3.056628e+01	-1.551186e-04
3.074283e+01	-1.569157e-04
3.092040e+01	-1.587335e-04
3.109900e+01	-1.605725e-04
3.127862e+01	-1.624327e-04
3.145929e+01	-1.643145e-04
3.164099e+01	-1.662181e-04
3.182375e+01	-1.681437e-04
3.200756e+01	-1.700917e-04
3.219244e+01	-1.720622e-04
3.237838e+01	-1.740556e-04
3.256540e+01	-1.760720e-04
3.275349e+01	-1.781118e-04
3.294268e+01	-1.801752e-04
3.313295e+01	-1.822626e-04
3.332433e+01	-1.843741e-04
3.351681e+01	-1.865101e-04
3.371040e+01	-1.886708e-04
3.390511e+01	-1.908566e-04
3.410094e+01	-1.930676e-04
3.429791e+01	-1.953043e-04
3.449601e+01	-1.975669e-04
3.469526e+01	-1.998557e-04
3.489566e+01	-2.021711e-04
3.509721e+01	-2.045132e-04
3.529993e+01	-2.068825e-04
3.550382e+01	-2.092792e-04
3.570889e+01	-2.117037e-04
3.591515e+01	-2.141563e-04
3.612259e+01	-2.166373e-04
3.633123e+01	-2.191471e-04
3.654108e+01	-2.216859e-04
3.675214e+01	-2.242541e-04
3.696442e+01	-2.268521e-04
3.717792e+01	-2.294802e-04
3.739266e+01	-2.321387e-04
3.760864e+01	-2.348280e-04
3.782587e+01	-2.375485e-04
3.804435e+01	-2.403005e-04
3.826409e+01	-2.430843e-04
3.848510e+01	-2.459005e-04
3.870739e+01	-2.487492e-04
3.893096e+01	-2.516309e-04
3.915583e+01	-2.545461e-04
3.938199e+01	-2.574950e-04
3.960946e+01	-2.604780e-04
3.983824e+01	-2.634957e-04
4.006834e+01	-2.665482e-04
4.029978e+01	-2.696362e-04
4.053255e+01	-2.727599e-04
4.076666e+01	-2.759198e-04
4.100213e+01	-2.791163e-04
4.123896e+01	-2.823498e-04
4.147715e+01	-2.856208e-04
4.171672e+01	-2.889297e-04
4.195767e+01	-2.922769e-04
4.220002e+01	-2.956629e-04
4.244377e+01	-2.990881e-04
4.268892e+01	-3.025530e-04
4.293549e+01	-3.060581e-04
4.318348e+01	-3.096037e-04
4.343291e+01	-3.131904e-04
4.368377e+01	-3.168187e-04
4.393609e+01	-3.204890e-04
4.418986e+01	-3.242018e-04
4.444510e+01	-3.279576e-04
4.470182e+01	-3.317570e-04
4.496001e+01	-3.356003e-04
4.521970e+01	-3.394882e-04
4.548089e+01	-3.434211e-04
4.574358e+01	-3.473996e-04
4.600779e+01	-3.514241e-04
4.627353e+01	-3.554953e-04
4.654081e+01	-3.596136e-04
4.680963e+01	-3.637797e-04
4.708000e+01	-3.679940e-04
4.735193e+01	-3.722571e-04
4.762543e+01	-3.765696e-04
4.790051e+01	-3.809321e-04
4.817719e+01	-3.853451e-04
4.845545e+01	-3.898093e-04
4.873533e+01	-3.943251e-04
4.901682e+01	-3.988933e-04
4.929994e+01	-4.035143e-04
4.958470e+01	-4.081889e-04
4.987110e+01	-4.129177e-04
5.015915e+01	-4.177012e-04
5.044887e+01	-4.225402e-04
5.074026e+01	-4.274352e-04
5.103333e+01	-4.323869e-04
5.132810e+01	-4.373960e-04
5.162457e+01	-4.424631e-04
5.192275e+01	-4.475888e-04
5.222265e+01	-4.527740e-04
5.252429e+01	-4.580193e-04
5.282767e+01	-4.633252e-04
5.313280e+01	-4.686927e-04
5.343969e+01	-4.741223e-04
5.374836e+01	-4.796149e-04
5.405880e+01	-4.851710e-04
5.437105e+01	-4.907916e-04
5.468509e+01	-4.964772e-04
5.500095e+01	-5.022287e-04
5.531863e+01	-5.080468e-04
5.563815e+01	-5.139323e-04
5.595951e+01	-5.198860e-04
5.628273e+01	-5.259087e-04
5.660782e+01	-5.320011e-04
5.693479e+01	-5.381641e-04
5.726364e+01	-5.443985e-04
5.759439e+01	-5.507051e-04
5.792705e+01	-5.570847e-04
5.826164e+01	-5.635383e-04
5.859815e+01	-5.700666e-04
5.893662e+01	-5.766706e-04
5.927703e+01	-5.833510e-04
5.961941e+01	-5.901088e-04
5.996377e+01	-5.969449e-04
6.031012e+01	-6.038602e-04
6.065847e+01	-6.108556e-04
6.100883e+01	-6.179320e-04
6.136121e+01	-6.250904e-04
6.171563e+01	-6.323318e-04
6.207210e+01	-6.396570e-04
6.243063e+01	-6.470670e-04
6.279122e+01	-6.545629e-04
6.315390e+01	-6.621456e-04
6.351868e+01	-6.698162e-04
6.388556e+01	-6.775756e-04
6.425456e+01	-6.854248e-04
6.462569e+01	-6.933650e-04
6.499897e+01	-7.013972e-04
6.537440e+01	-7.095224e-04
6.575200e+01	-7.177418e-04
6.613178e+01	-7.260563e-04
6.651375e+01	-7.344672e-04
6.689793e+01	-7.429754e-04
6.728433e+01	-7.515823e-04
6.767297e+01	-7.602888e-04
6.806384e+01	-7.690962e-04
6.845698e+01	-7.780055e-04
6.885238e+01	-7.870181e-04
6.925007e+01	-7.961351e-04
6.965005e+01	-8.053577e-04
7.005235e+01	-8.146871e-04
7.045697e+01	-8.241246e-04
7.086393e+01	-8.336714e-04
7.127323e+01	-8.433288e-04
7.168490e+01	-8.530980e-04
7.209895e+01	-8.629804e-04
7.251539e+01	-8.729773e-04
7.293424e+01	-8.830899e-04
7.335551e+01	-8.933197e-04
7.377920e+01	-9.036680e-04
7.420535e+01	-9.141361e-04
7.463396e+01	-9.247255e-04
7.506504e+01	-9.354375e-04
7.549861e+01	-9.462737e-04
7.593469e+01	-9.572353e-04
7.637328e+01	-9.683239e-04
7.681441e+01	-9.795409e-04
7.725809e+01	-9.908879e-04
7.770433e+01	-1.002366e-03
7.815315e+01	-1.013978e-03
7.860456e+01	-1.025723e-03
7.905857e+01	-1.037605e-03
7.951521e+01	-1.049625e-03
7.997449e+01	-1.061783e-03
8.043642e+01	-1.074083e-03
8.090102e+01	-1.086525e-03
8.136830e+01	-1.099111e-03
8.183828e+01	-1.111843e-03
8.231097e+01	-1.124722e-03
8.278640e+01	-1.137751e-03
8.326457e+01	-1.150930e-03
8.374550e+01	-1.164262e-03
8.422921e+01	-1.177749e-03
8.471572e+01	-1.191391e-03
8.520503e+01	-1.205192e-03
8.569717e+01	-1.219153e-03
8.619215e+01	-1.233275e-03
8.669000e+01	-1.247561e-03
8.719071e+01	-1.262012e-03
8.769432e+01	-1.276630e-03
8.820084e+01	-1.291418e-03
8.871029e+01	-1.306377e-03
8.922267e+01	-1.321510e-03
8.973802e+01	-1.336818e-03
9.025634e+01	-1.352303e-03
9.077766e+01	-1.367967e-03
9.130199e+01	-1.383813e-03
9.182935e+01	-1.399842e-03
9.235975e+01	-1.416057e-03
9.289321e+01	-1.432459e-03
9.342976e+01	-1.449052e-03
9.396941e+01	-1.465837e-03
9.451217e+01	-1.482816e-03
9.505807e+01	-1.499992e-03
9.560712e+01	-1.517367e-03
9.615934e+01	-1.534943e-03
9.671476e+01	-1.552722e-03
9.727338e+01	-1.570708e-03
9.783522e+01	-1.588902e-03
9.840032e+01	-1.607306e-03
9.896867e+01	-1.625924e-03
9.954031e+01	-1.644757e-03
1.001153e+02	-1.663808e-03
1.006935e+02	-1.683080e-03
1.012751e+02	-1.702575e-03
1.018601e+02	-1.722296e-03
1.024484e+02	-1.742245e-03
1.030402e+02	-1.762425e-03
1.036353e+02	-1.782839e-03
1.042339e+02	-1.803490e-03
1.048360e+02	-1.824379e-03
1.054415e+02	-1.845511e-03
1.060505e+02	-1.866887e-03
1.066631e+02	-1.888511e-03
1.072791e+02	-1.910385e-03
1.078988e+02	-1.932512e-03
1.085220e+02	-1.954896e-03
1.091488e+02	-1.977539e-03
1.097793e+02	-2.000444e-03
1.104133e+02	-2.023614e-03
1.110511e+02	-2.047052e-03
1.116925e+02	-2.070762e-03
1.123376e+02	-2.094747e-03
1.129865e+02	-2.119009e-03
1.136391e+02	-2.143552e-03
1.142955e+02	-2.168380e-03
1.149556e+02	-2.193495e-03
1.156196e+02	-2.218900e-03
1.162874e+02	-2.244600e-03
1.169591e+02	-2.270598e-03
1.176347e+02	-2.296896e-03
1.183141e+02	-2.323499e-03
1.189975e+02	-2.350410e-03
1.196848e+02	-2.377633e-03
1.203761e+02	-2.405171e-03
1.210714e+02	-2.433028e-03
1.217707e+02	-2.461207e-03
1.224740e+02	-2.489713e-03
1.231814e+02	-2.518548e-03
1.238929e+02	-2.547718e-03
1.246085e+02	-2.577225e-03
1.253283e+02	-2.607074e-03
1.260522e+02	-2.637268e-03
1.267802e+02	-2.667812e-03
1.275125e+02	-2.698710e-03
1.282490e+02	-2.729965e-03
1.289898e+02	-2.761583e-03
1.297348e+02	-2.793566e-03
1.304842e+02	-2.825920e-03
1.312378e+02	-2.858648e-03
1.319959e+02	-2.891755e-03
1.327583e+02	-2.925245e-03
1.335251e+02	-2.959124e-03
1.342963e+02	-2.993394e-03
1.350720e+02	-3.028061e-03
1.358522e+02	-3.063130e-03
1.366368e+02	-3.098604e-03
1.374260e+02	-3.134489e-03
1.382198e+02	-3.170790e-03
1.390182e+02	-3.207511e-03
1.398211e+02	-3.244657e-03
1.406287e+02	-3.282233e-03
1.414410e+02	-3.320244e-03
1.422579e+02	-3.358695e-03
1.430796e+02	-3.397591e-03
1.439060e+02	-3.436937e-03
1.447372e+02	-3.476739e-03
1.455732e+02	-3.517002e-03
1.464141e+02	-3.557730e-03
1.472597e+02	-3.598930e-03
1.481103e+02	-3.640607e-03
1.489658e+02	-3.682767e-03
1.498262e+02	-3.725414e-03
1.506916e+02	-3.768556e-03
1.515620e+02	-3.812196e-03
1.524374e+02	-3.856342e-03
1.533179e+02	-3.900998e-03
1.542034e+02	-3.946172e-03
1.550941e+02	-3.991868e-03
1.559899e+02	-4.038093e-03
1.568909e+02	-4.084854e-03
1.577971e+02	-4.132155e-03
1.587085e+02	-4.180004e-03
1.596252e+02	-4.228407e-03
1.605472e+02	-4.277370e-03
1.614745e+02	-4.326900e-03
1.624072e+02	-4.377003e-03
1.633453e+02	-4.427686e-03
1.642887e+02	-4.478955e-03
1.652377e+02	-4.530818e-03
1.661921e+02	-4.583281e-03
1.671520e+02	-4.636351e-03
1.681175e+02	-4.690035e-03
1.690885e+02	-4.744341e-03
1.700651e+02	-4.799275e-03
1.710474e+02	-4.854844e-03
1.720354e+02	-4.911057e-03
1.730291e+02	-4.967920e-03
1.740285e+02	-5.025441e-03
1.750337e+02	-5.083628e-03
1.760446e+02	-5.142489e-03
1.770615e+02	-5.202030e-03
1.780842e+02	-5.262260e-03
1.791128e+02	-5.323187e-03
1.801473e+02	-5.384819e-03
1.811878e+02	-5.447165e-03
1.822344e+02	-5.510231e-03
1.832870e+02	-5.574028e-03
1.843456e+02	-5.638562e-03
1.854104e+02	-5.703843e-03
1.864813e+02	-5.769880e-03
1.875584e+02	-5.836680e-03
1.886418e+02	-5.904254e-03
1.897313e+02	-5.972609e-03
1.908272e+02	-6.041755e-03
1.919294e+02	-6.111701e-03
1.930380e+02	-6.182456e-03
1.941530e+02	-6.254030e-03
1.952744e+02	-6.326431e-03
1.964023e+02	-6.399670e-03
1.975367e+02	-6.473757e-03
1.986777e+02	-6.548700e-03
1.998252e+02	-6.624511e-03
2.009794e+02	-6.701198e-03
2.021403e+02	-6.778772e-03
2.033078e+02	-6.857244e-03
2.044821e+02	-6.936623e-03
2.056632e+02	-7.016920e-03
2.068511e+02	-7.098147e-03
2.080459e+02	-7.180312e-03
2.092475e+02	-7.263428e-03
2.104561e+02	-7.347506e-03
2.116717e+02	-7.432555e-03
2.128943e+02	-7.518589e-03
2.141240e+02	-7.605617e-03
2.153608e+02	-7.693652e-03
2.166047e+02	-7.782704e-03
2.178558e+02	-7.872787e-03
2.191141e+02	-7.963911e-03
2.203797e+02	-8.056089e-03
2.216526e+02	-8.149334e-03
2.229329e+02	-8.243656e-03
2.242205e+02	-8.339069e-03
2.255156e+02	-8.435585e-03
2.268182e+02	-8.533217e-03
2.281283e+02	-8.631978e-03
2.294459e+02	-8.731881e-03
2.307712e+02	-8.832938e-03
2.321041e+02	-8.935165e-03
2.334447e+02	-9.038573e-03
2.347931e+02	-9.143176e-03
2.361493e+02	-9.248989e-03
2.375133e+02	-9.356025e-03
2.388851e+02	-9.464299e-03
2.402649e+02	-9.573824e-03
2.416527e+02	-9.684615e-03
2.430484e+02	-9.796687e-03
2.444523e+02	-9.910054e-03
2.458642e+02	-1.002473e-02
2.472843e+02	-1.014073e-02
2.487126e+02	-1.025808e-02
2.501492e+02	-1.037678e-02
2.515940e+02	-1.049685e-02
2.530472e+02	-1.061831e-02
2.545088e+02	-1.074117e-02
2.559789e+02	-1.086546e-02
2.574574e+02	-1.099117e-02
2.589444e+02	-1.111835e-02
2.604401e+02	-1.124699e-02
2.619444e+02	-1.137712e-02
2.634574e+02	-1.150875e-02
2.649791e+02	-1.164190e-02
2.665096e+02	-1.177659e-02
2.680489e+02	-1.191284e-02
2.695972e+02	-1.205066e-02
2.711544e+02	-1.219007e-02
2.727205e+02	-1.233110e-02
2.742958e+02	-1.247375e-02
2.758801e+02	-1.261805e-02
2.774736e+02	-1.276402e-02
2.790762e+02	-1.291167e-02
2.806882e+02	-1.306103e-02
2.823094e+02	-1.321212e-02
2.839400e+02	-1.336495e-02
2.855800e+02	-1.351954e-02
2.872295e+02	-1.367592e-02
2.888886e+02	-1.383411e-02
2.905572e+02	-1.399412e-02
2.922354e+02	-1.415598e-02
2.939234e+02	-1.431971e-02
2.956211e+02	-1.448533e-02
2.973286e+02	-1.465286e-02
2.990459e+02	-1.482233e-02
3.007732e+02	-1.499375e-02
3.025104e+02	-1.516715e-02
3.042577e+02	-1.534255e-02
3.060151e+02	-1.551998e-02
3.077826e+02	-1.569946e-02
3.095604e+02	-1.588101e-02
3.113484e+02	-1.606465e-02
3.131467e+02	-1.625042e-02
3.149554e+02	-1.643832e-02
3.167746e+02	-1.662840e-02
3.186043e+02	-1.682067e-02
3.204445e+02	-1.701516e-02
3.222954e+02	-1.721189e-02
3.241570e+02	-1.741089e-02
3.260293e+02	-1.761219e-02
3.279124e+02	-1.781581e-02
3.298064e+02	-1.802179e-02
3.317114e+02	-1.823013e-02
3.336273e+02	-1.844088e-02
3.355544e+02	-1.865407e-02
3.374925e+02	-1.886971e-02
3.394418e+02	-1.908783e-02
3.414024e+02	-1.930848e-02
3.433744e+02	-1.953167e-02
3.453577e+02	-1.975743e-02
3.473525e+02	-1.998580e-02
3.493588e+02	-2.021680e-02
3.513766e+02	-2.045046e-02
3.534062e+02	-2.068682e-02
3.554474e+02	-2.092590e-02
3.575005e+02	-2.116774e-02
3.595654e+02	-2.141237e-02
3.616422e+02	-2.165981e-02
3.637311e+02	-2.191011e-02
3.658320e+02	-2.216330e-02
3.679450e+02	-2.241940e-02
3.700702e+02	-2.267845e-02
3.722077e+02	-2.294049e-02
3.743576e+02	-2.320555e-02
3.765199e+02	-2.347366e-02
3.786946e+02	-2.374487e-02
3.808820e+02	-2.401919e-02
3.830819e+02	-2.429668e-02
3.852946e+02	-2.457736e-02
3.875200e+02	-2.486128e-02
3.897583e+02	-2.514847e-02
3.920096e+02	-2.543897e-02
3.942738e+02	-2.573281e-02
3.965511e+02	-2.603003e-02
3.988416e+02	-2.633068e-02
4.011452e+02	-2.663479e-02
4.034622e+02	-2.694240e-02
4.057926e+02	-2.725355e-02
4.081365e+02	-2.756828e-02
4.104938e+02	-2.788664e-02
4.128648e+02	-2.820866e-02
4.152495e+02	-2.853439e-02
4.176480e+02	-2.886387e-02
4.200603e+02	-2.919713e-02
4.224866e+02	-2.953424e-02
4.249268e+02	-2.987522e-02
4.273812e+02	-3.022012e-02
4.298497e+02	-3.056899e-02
4.323325e+02	-3.092188e-02
4.348297e+02	-3.127882e-02
4.373412e+02	-3.163987e-02
4.398673e+02	-3.200507e-02
4.424079e+02	-3.237447e-02
4.449633e+02	-3.274812e-02
4.475334e+02	-3.312606e-02
4.501183e+02	-3.350835e-02
4.527182e+02	-3.389504e-02
4.553330e+02	-3.428617e-02
4.579630e+02	-3.468179e-02
4.606082e+02	-3.508196e-02
4.632687e+02	-3.548673e-02
4.659445e+02	-3.589615e-02
4.686358e+02	-3.631027e-02
4.713426e+02	-3.672915e-02
4.740650e+02	-3.715284e-02
4.768032e+02	-3.758140e-02
4.795572e+02	-3.801488e-02
4.823271e+02	-3.845333e-02
4.851130e+02	-3.889683e-02
4.879150e+02	-3.934541e-02
4.907332e+02	-3.979914e-02
4.935676e+02	-4.025808e-02
4.964185e+02	-4.072229e-02
4.992858e+02	-4.119183e-02
5.021696e+02	-4.166675e-02
5.050701e+02	-4.214712e-02
5.079874e+02	-4.263300e-02
5.109215e+02	-4.312446e-02
5.138726e+02	-4.362155e-02
5.168407e+02	-4.412435e-02
5.198259e+02	-4.463291e-02
5.228284e+02	-4.514730e-02
5.258482e+02	-4.566758e-02
5.288855e+02	-4.619383e-02
5.319403e+02	-4.672612e-02
5.350128e+02	-4.726450e-02
5.381030e+02	-4.780905e-02
5.412111e+02	-4.835984e-02
5.443371e+02	-4.891694e-02
5.474812e+02	-4.948042e-02
5.506434e+02	-5.005036e-02
5.538239e+02	-5.062682e-02
5.570228e+02	-5.120988e-02
5.602401e+02	-5.179961e-02
5.634760e+02	-5.239610e-02
5.667306e+02	-5.299941e-02
5.700040e+02	-5.360963e-02
5.732964e+02	-5.422682e-02
5.766077e+02	-5.485108e-02
5.799382e+02	-5.548248e-02
5.832879e+02	-5.612110e-02
5.866569e+02	-5.676702e-02
5.900454e+02	-5.742033e-02
5.934535e+02	-5.808110e-02
5.968813e+02	-5.874943e-02
6.003288e+02	-5.942540e-02
6.037963e+02	-6.010908e-02
6.072838e+02	-6.080058e-02
6.107914e+02	-6.149998e-02
6.143194e+02	-6.220737e-02
6.178676e+02	-6.292283e-02
6.214364e+02	-6.364646e-02
6.250258e+02	-6.437835e-02
6.286359e+02	-6.511859e-02
6.322669e+02	-6.586728e-02
6.359189e+02	-6.662452e-02
6.395919e+02	-6.739039e-02
6.432862e+02	-6.816499e-02
6.470017e+02	-6.894843e-02
6.507388e+02	-6.974079e-02
6.544974e+02	-7.054220e-02
6.582778e+02	-7.135273e-02
6.620800e+02	-7.217250e-02
6.659041e+02	-7.300161e-02
6.697504e+02	-7.384016e-02
6.736188e+02	-7.468826e-02
6.775096e+02	-7.554601e-02
6.814229e+02	-7.641353e-02
6.853587e+02	-7.729093e-02
6.893173e+02	-7.817830e-02
6.932988e+02	-7.907578e-02
6.973033e+02	-7.998345e-02
7.013309e+02	-8.090146e-02
