Frequency(Hz)	Magnitude(dB)
1.000000e+01	-2.003795e+00
1.005776e+01	-2.022197e+00
1.011585e+01	-2.040609e+00
1.017428e+01	-2.059673e+00
1.023305e+01	-2.078711e+00
1.029215e+01	-2.097744e+00
1.035160e+01	-2.117112e+00
1.041139e+01	-2.136307e+00
1.047153e+01	-2.155765e+00
1.053201e+01	-2.175553e+00
1.059284e+01	-2.195331e+00
1.065403e+01	-2.215244e+00
1.071556e+01	-2.235281e+00
1.077746e+01	-2.255518e+00
1.083971e+01	-2.275574e+00
1.090232e+01	-2.296339e+00
1.096529e+01	-2.316673e+00
1.102862e+01	-2.337755e+00
1.109232e+01	-2.358447e+00
1.115639e+01	-2.379388e+00
1.122083e+01	-2.400646e+00
1.128564e+01	-2.421997e+00
1.135083e+01	-2.443582e+00
1.141639e+01	-2.464976e+00
1.148233e+01	-2.486961e+00
1.154865e+01	-2.508633e+00
1.161536e+01	-2.530742e+00
1.168245e+01	-2.552961e+00
1.174992e+01	-2.575267e+00
1.181779e+01	-2.597701e+00
1.188605e+01	-2.620301e+00
1.195470e+01	-2.642962e+00
1.202375e+01	-2.665846e+00
1.209320e+01	-2.688731e+00
1.216305e+01	-2.711816e+00
1.223330e+01	-2.735302e+00
1.230396e+01	-2.758726e+00
1.237503e+01	-2.782238e+00
1.244651e+01	-2.806189e+00
1.251840e+01	-2.829964e+00
1.259070e+01	-2.853849e+00
1.266343e+01	-2.878298e+00
1.273657e+01	-2.902335e+00
1.281014e+01	-2.927088e+00
1.288413e+01	-2.951357e+00
1.295855e+01	-2.976348e+00
1.303339e+01	-3.001486e+00
1.310867e+01	-3.026310e+00
1.318439e+01	-3.051568e+00
1.326054e+01	-3.076724e+00
1.333713e+01	-3.102083e+00
1.341417e+01	-3.127975e+00
1.349165e+01	-3.153459e+00
1.356958e+01	-3.179662e+00
1.364795e+01	-3.205624e+00
1.372678e+01	-3.231715e+00
1.380607e+01	-3.257951e+00
1.388581e+01	-3.284621e+00
1.396602e+01	-3.310907e+00
1.404668e+01	-3.337808e+00
1.412782e+01	-3.364539e+00
1.420942e+01	-3.391519e+00
1.429149e+01	-3.419213e+00
1.437404e+01	-3.446206e+00
1.445706e+01	-3.473977e+00
1.454057e+01	-3.501475e+00
1.462455e+01	-3.528925e+00
1.470902e+01	-3.557097e+00
1.479398e+01	-3.585078e+00
1.487943e+01	-3.613117e+00
1.496537e+01	-3.641650e+00
1.505181e+01	-3.670093e+00
1.513875e+01	-3.698589e+00
1.522619e+01	-3.727320e+00
1.531414e+01	-3.756478e+00
1.540259e+01	-3.785489e+00
1.549156e+01	-3.814536e+00
1.558103e+01	-3.843613e+00
1.567103e+01	-3.873203e+00
1.576155e+01	-3.902802e+00
1.585258e+01	-3.932191e+00
1.594415e+01	-3.962003e+00
1.603624e+01	-3.992473e+00
1.612886e+01	-4.022466e+00
1.622202e+01	-4.052979e+00
1.631572e+01	-4.083459e+00
1.640996e+01	-4.113887e+00
1.650474e+01	-4.144390e+00
1.660008e+01	-4.175279e+00
1.669596e+01	-4.206391e+00
1.679239e+01	-4.237365e+00
1.688938e+01	-4.268588e+00
1.698694e+01	-4.300055e+00
1.708505e+01	-4.331649e+00
1.718373e+01	-4.363133e+00
1.728299e+01	-4.395006e+00
1.738281e+01	-4.426793e+00
1.748322e+01	-4.458962e+00
1.758420e+01	-4.490876e+00
1.768576e+01	-4.523597e+00
1.778792e+01	-4.555862e+00
1.789066e+01	-4.588114e+00
1.799399e+01	-4.621185e+00
1.809793e+01	-4.654053e+00
1.820246e+01	-4.686703e+00
1.830760e+01	-4.720170e+00
1.841334e+01	-4.753080e+00
1.851969e+01	-4.786406e+00
1.862666e+01	-4.820117e+00
1.873425e+01	-4.853750e+00
1.884246e+01	-4.887162e+00
1.895129e+01	-4.921162e+00
1.906075e+01	-4.954976e+00
1.917085e+01	-4.989150e+00
1.928158e+01	-5.023022e+00
1.939295e+01	-5.057675e+00
1.950496e+01	-5.092117e+00
1.961762e+01	-5.127158e+00
1.973093e+01	-5.161834e+00
1.984490e+01	-5.196611e+00
1.995952e+01	-5.231656e+00
2.007480e+01	-5.266619e+00
2.019076e+01	-5.301856e+00
2.030738e+01	-5.337134e+00
2.042467e+01	-5.372100e+00
2.054264e+01	-5.408023e+00
2.066130e+01	-5.443570e+00
2.078064e+01	-5.479606e+00
2.090066e+01	-5.515633e+00
2.102139e+01	-5.551574e+00
2.114280e+01	-5.587945e+00
2.126492e+01	-5.624332e+00
2.138775e+01	-5.660697e+00
2.151128e+01	-5.696796e+00
2.163553e+01	-5.733174e+00
2.176050e+01	-5.769943e+00
2.188619e+01	-5.806899e+00
2.201260e+01	-5.844004e+00
2.213974e+01	-5.881093e+00
2.226762e+01	-5.917907e+00
2.239624e+01	-5.955157e+00
2.252560e+01	-5.992536e+00
2.265571e+01	-6.030444e+00
2.278656e+01	-6.068058e+00
2.291818e+01	-6.105367e+00
2.305055e+01	-6.143355e+00
2.318369e+01	-6.181077e+00
2.331760e+01	-6.219265e+00
2.345228e+01	-6.257500e+00
2.358774e+01	-6.295605e+00
2.372398e+01	-6.333988e+00
2.386101e+01	-6.372720e+00
2.399883e+01	-6.410899e+00
2.413745e+01	-6.449725e+00
2.427686e+01	-6.488364e+00
2.441709e+01	-6.527155e+00
2.455812e+01	-6.566291e+00
2.469997e+01	-6.605189e+00
2.484263e+01	-6.644176e+00
2.498612e+01	-6.683717e+00
2.513044e+01	-6.722945e+00
2.527559e+01	-6.761962e+00
2.542158e+01	-6.801885e+00
2.556842e+01	-6.841593e+00
2.571610e+01	-6.881494e+00
2.586463e+01	-6.921251e+00
2.601403e+01	-6.961214e+00
2.616428e+01	-7.000804e+00
2.631541e+01	-7.041318e+00
2.646740e+01	-7.081751e+00
2.662028e+01	-7.121430e+00
2.677404e+01	-7.162324e+00
2.692868e+01	-7.202511e+00
2.708422e+01	-7.243172e+00
2.724066e+01	-7.283246e+00
2.739800e+01	-7.324373e+00
2.755625e+01	-7.364877e+00
2.771541e+01	-7.406129e+00
2.787550e+01	-7.446691e+00
2.803650e+01	-7.488237e+00
2.819844e+01	-7.529793e+00
2.836131e+01	-7.570182e+00
2.852513e+01	-7.611489e+00
2.868989e+01	-7.653317e+00
2.885560e+01	-7.694829e+00
2.902227e+01	-7.736114e+00
2.918990e+01	-7.778064e+00
2.935850e+01	-7.819520e+00
2.952807e+01	-7.861285e+00
2.969863e+01	-7.903015e+00
2.987016e+01	-7.945412e+00
3.004269e+01	-7.987230e+00
3.021622e+01	-8.029397e+00
3.039075e+01	-8.071577e+00
3.056628e+01	-8.113524e+00
3.074283e+01	-8.155703e+00
3.092040e+01	-8.198708e+00
3.109900e+01	-8.240842e+00
3.127862e+01	-8.283237e+00
3.145929e+01	-8.326127e+00
3.164099e+01	-8.368991e+00
3.182375e+01	-8.411303e+00
3.200756e+01	-8.454625e+00
3.219244e+01	-8.497666e+00
3.237838e+01	-8.540883e+00
3.256540e+01	-8.583227e+00
3.275349e+01	-8.626556e+00
3.294268e+01	-8.669800e+00
3.313295e+01	-8.713262e+00
3.332433e+01	-8.756274e+00
3.351681e+01	-8.799625e+00
3.371040e+01	-8.843715e+00
3.390511e+01	-8.887093e+00
3.410094e+01	-8.930770e+00
3.429791e+01	-8.973975e+00
3.449601e+01	-9.017881e+00
3.469526e+01	-9.061574e+00
3.489566e+01	-9.105902e+00
3.509721e+01	-9.149659e+00
3.529993e+01	-9.193372e+00
3.550382e+01	-9.237315e+00
3.570889e+01	-9.281251e+00
3.591515e+01	-9.325482e+00
3.612259e+01	-9.369681e+00
3.633123e+01	-9.414162e+00
3.654108e+01	-9.457993e+00
3.675214e+01	-9.502891e+00
3.696442e+01	-9.547790e+00
3.717792e+01	-9.592183e+00
3.739266e+01	-9.636383e+00
3.760864e+01	-9.680782e+00
3.782587e+01	-9.724986e+00
3.804435e+01	-9.770263e+00
3.826409e+01	-9.815306e+00
3.848510e+01	-9.859910e+00
3.870739e+01	-9.904617e+00
3.893096e+01	-9.949733e+00
3.915583e+01	-9.994824e+00
3.938199e+01	-1.003974e+01
3.960946e+01	-1.008484e+01
3.983824e+01	-1.012969e+01
4.006834e+01	-1.017581e+01
4.029978e+01	-1.022088e+01
4.053255e+01	-1.026635e+01
4.076666e+01	-1.031096e+01
4.100213e+01	-1.035660e+01
4.123896e+01	-1.040172e+01
4.147715e+01	-1.044689e+01
4.171672e+01	-1.049315e+01
4.195767e+01	-1.053808e+01
4.220002e+01	-1.058419e+01
4.244377e+01	-1.063004e+01
4.268892e+01	-1.067568e+01
4.293549e+01	-1.072104e+01
4.318348e+01	-1.076699e+01
4.343291e+01	-1.081344e+01
4.368377e+01	-1.085873e+01
4.393609e+01	-1.090479e+01
4.418986e+01	-1.095036e+01
4.444510e+01	-1.099649e+01
4.470182e+01	-1.104367e+01
4.496001e+01	-1.108932e+01
4.521970e+01	-1.113502e+01
4.548089e+01	-1.118170e+01
4.574358e+01	-1.122770e+01
4.600779e+01	-1.127349e+01
4.627353e+01	-1.132054e+01
4.654081e+01	-1.136643e+01
4.680963e+01	-1.141249e+01
4.708000e+01	-1.145920e+01
4.735193e+01	-1.150575e+01
4.762543e+01	-1.155228e+01
4.790051e+01	-1.159867e+01
4.817719e+01	-1.164608e+01
4.845545e+01	-1.169199e+01
4.873533e+01	-1.173885e+01
4.901682e+01	-1.178542e+01
4.929994e+01	-1.183230e+01
4.958470e+01	-1.187876e+01
4.987110e+01	-1.192486e+01
5.015915e+01	-1.197292e+01
5.044887e+01	-1.201953e+01
5.074026e+01	-1.206686e+01
5.103333e+01	-1.211445e+01
5.132810e+01	-1.216006e+01
5.162457e+01	-1.220732e+01
5.192275e+01	-1.225488e+01
5.222265e+01	-1.230082e+01
5.252429e+01	-1.234915e+01
5.282767e+01	-1.239603e+01
5.313280e+01	-1.244350e+01
5.343969e+01	-1.248934e+01
5.374836e+01	-1.253698e+01
5.405880e+01	-1.258408e+01
5.437105e+01	-1.263170e+01
5.468509e+01	-1.267865e+01
5.500095e+01	-1.272630e+01
5.531863e+01	-1.277356e+01
5.563815e+01	-1.282118e+01
5.595951e+01	-1.286875e+01
5.628273e+01	-1.291631e+01
5.660782e+01	-1.296435e+01
5.693479e+01	-1.301079e+01
5.726364e+01	-1.305782e+01
5.759439e+01	-1.310626e+01
5.792705e+01	-1.315345e+01
5.826164e+01	-1.320095e+01
5.859815e+01	-1.324929e+01
5.893662e+01	-1.329703e+01
5.927703e+01	-1.334448e+01
5.961941e+01	-1.339243e+01
5.996377e+01	-1.343986e+01
6.031012e+01	-1.348756e+01
6.065847e+01	-1.353530e+01
6.100883e+01	-1.358323e+01
6.136121e+01	-1.363102e+01
6.171563e+01	-1.367899e+01
6.207210e+01	-1.372654e+01
6.243063e+01	-1.377508e+01
6.279122e+01	-1.382328e+01
6.315390e+01	-1.386981e+01
6.351868e+01	-1.391870e+01
6.388556e+01	-1.396621e+01
6.425456e+01	-1.401531e+01
6.462569e+01	-1.406294e+01
6.499897e+01	-1.411090e+01
6.537440e+01	-1.415816e+01
6.575200e+01	-1.420717e+01
6.613178e+01	-1.425491e+01
6.651375e+01	-1.430323e+01
6.689793e+01	-1.435190e+01
6.728433e+01	-1.440019e+01
6.767297e+01	-1.444777e+01
6.806384e+01	-1.449651e+01
6.845698e+01	-1.454478e+01
6.885238e+01	-1.459191e+01
6.925007e+01	-1.464043e+01
6.965005e+01	-1.468978e+01
7.005235e+01	-1.473784e+01
7.045697e+01	-1.478677e+01
7.086393e+01	-1.483428e+01
7.127323e+01	-1.488336e+01
7.168490e+01	-1.493227e+01
7.209895e+01	-1.498016e+01
7.251539e+01	-1.502872e+01
7.293424e+01	-1.507682e+01
7.335551e+01	-1.512472e+01
7.377920e+01	-1.517371e+01
7.420535e+01	-1.522225e+01
7.463396e+01	-1.527129e+01
7.506504e+01	-1.531843e+01
7.549861e+01	-1.536858e+01
7.593469e+01	-1.541616e+01
7.637328e+01	-1.546439e+01
7.681441e+01	-1.551314e+01
7.725809e+01	-1.556179e+01
7.770433e+01	-1.561061e+01
7.815315e+01	-1.565935e+01
7.860456e+01	-1.570842e+01
7.905857e+01	-1.575615e+01
7.951521e+01	-1.580596e+01
7.997449e+01	-1.585552e+01
8.043642e+01	-1.590290e+01
8.090102e+01	-1.595169e+01
8.136830e+01	-1.600107e+01
8.183828e+01	-1.604885e+01
8.231097e+01	-1.609758e+01
8.278640e+01	-1.614715e+01
8.326457e+01	-1.619548e+01
8.374550e+01	-1.624401e+01
8.422921e+01	-1.629294e+01
8.471572e+01	-1.634211e+01
8.520503e+01	-1.639254e+01
8.569717e+01	-1.644034e+01
8.619215e+01	-1.649035e+01
8.669000e+01	-1.653844e+01
8.719071e+01	-1.658687e+01
8.769432e+01	-1.663602e+01
8.820084e+01	-1.668451e+01
8.871029e+01	-1.673337e+01
8.922267e+01	-1.678295e+01
8.973802e+01	-1.683237e+01
9.025634e+01	-1.688085e+01
9.077766e+01	-1.693001e+01
9.130199e+01	-1.697911e+01
9.182935e+01	-1.702747e+01
9.235975e+01	-1.707668e+01
9.289321e+01	-1.712532e+01
9.342976e+01	-1.717426e+01
9.396941e+01	-1.722444e+01
9.451217e+01	-1.727255e+01
9.505807e+01	-1.732144e+01
9.560712e+01	-1.737140e+01
9.615934e+01	-1.742018e+01
9.671476e+01	-1.746913e+01
9.727338e+01	-1.751721e+01
9.783522e+01	-1.756943e+01
9.840032e+01	-1.761694e+01
9.896867e+01	-1.766670e+01
9.954031e+01	-1.771476e+01
1.001153e+02	-1.776456e+01
1.006935e+02	-1.781402e+01
1.012751e+02	-1.786435e+01
1.018601e+02	-1.791244e+01
1.024484e+02	-1.796177e+01
1.030402e+02	-1.800978e+01
1.036353e+02	-1.806054e+01
1.042339e+02	-1.810849e+01
1.048360e+02	-1.815868e+01
1.054415e+02	-1.820676e+01
1.060505e+02	-1.825743e+01
1.066631e+02	-1.830467e+01
1.072791e+02	-1.835588e+01
1.078988e+02	-1.840479e+01
1.085220e+02	-1.845319e+01
1.091488e+02	-1.850391e+01
1.097793e+02	-1.855209e+01
1.104133e+02	-1.860176e+01
1.110511e+02	-1.865050e+01
1.116925e+02	-1.870113e+01
1.123376e+02	-1.875116e+01
1.129865e+02	-1.879922e+01
1.136391e+02	-1.884925e+01
1.142955e+02	-1.889964e+01
1.149556e+02	-1.894739e+01
1.156196e+02	-1.899752e+01
1.162874e+02	-1.904602e+01
1.169591e+02	-1.909462e+01
1.176347e+02	-1.914534e+01
1.183141e+02	-1.919450e+01
1.189975e+02	-1.924481e+01
1.196848e+02	-1.929364e+01
1.203761e+02	-1.934261e+01
1.210714e+02	-1.939259e+01
1.217707e+02	-1.944221e+01
1.224740e+02	-1.949195e+01
1.231814e+02	-1.954125e+01
1.238929e+02	-1.959067e+01
1.246085e+02	-1.963942e+01
1.253283e+02	-1.968998e+01
1.260522e+02	-1.973843e+01
1.267802e+02	-1.978829e+01
1.275125e+02	-1.983824e+01
1.282490e+02	-1.988895e+01
1.289898e+02	-1.993770e+01
1.297348e+02	-1.998750e+01
1.304842e+02	-2.003424e+01
1.312378e+02	-2.008374e+01
1.319959e+02	-2.013349e+01
1.327583e+02	-2.018464e+01
1.335251e+02	-2.023437e+01
1.342963e+02	-2.028267e+01
1.350720e+02	-2.033375e+01
1.358522e+02	-2.038341e+01
1.366368e+02	-2.043145e+01
1.374260e+02	-2.048382e+01
1.382198e+02	-2.053178e+01
1.390182e+02	-2.058096e+01
1.398211e+02	-2.063224e+01
1.406287e+02	-2.068026e+01
1.414410e+02	-2.073092e+01
1.422579e+02	-2.078208e+01
1.430796e+02	-2.082970e+01
1.439060e+02	-2.087831e+01
1.447372e+02	-2.092997e+01
1.455732e+02	-2.097938e+01
1.464141e+02	-2.102707e+01
1.472597e+02	-2.107617e+01
1.481103e+02	-2.112787e+01
1.489658e+02	-2.117703e+01
1.498262e+02	-2.122579e+01
1.506916e+02	-2.127854e+01
1.515620e+02	-2.132563e+01
1.524374e+02	-2.137464e+01
1.533179e+02	-2.142633e+01
1.542034e+02	-2.147515e+01
1.550941e+02	-2.152433e+01
1.559899e+02	-2.157436e+01
1.568909e+02	-2.162598e+01
1.577971e+02	-2.167363e+01
1.587085e+02	-2.172328e+01
1.596252e+02	-2.177240e+01
1.605472e+02	-2.182297e+01
1.614745e+02	-2.187391e+01
1.624072e+02	-2.192347e+01
1.633453e+02	-2.197487e+01
1.642887e+02	-2.202104e+01
1.652377e+02	-2.207108e+01
1.661921e+02	-2.212079e+01
1.671520e+02	-2.217024e+01
1.681175e+02	-2.221972e+01
1.690885e+02	-2.226991e+01
1.700651e+02	-2.231855e+01
1.710474e+02	-2.237104e+01
1.720354e+02	-2.241937e+01
1.730291e+02	-2.247009e+01
1.740285e+02	-2.252191e+01
1.750337e+02	-2.256871e+01
1.760446e+02	-2.262139e+01
1.770615e+02	-2.266901e+01
1.780842e+02	-2.271908e+01
1.791128e+02	-2.276904e+01
1.801473e+02	-2.281976e+01
1.811878e+02	-2.286864e+01
1.822344e+02	-2.291856e+01
1.832870e+02	-2.296721e+01
1.843456e+02	-2.301908e+01
1.854104e+02	-2.306600e+01
1.864813e+02	-2.311817e+01
1.875584e+02	-2.316681e+01
1.886418e+02	-2.321602e+01
1.897313e+02	-2.326599e+01
1.908272e+02	-2.331620e+01
1.919294e+02	-2.336518e+01
1.930380e+02	-2.341643e+01
1.941530e+02	-2.346377e+01
1.952744e+02	-2.351581e+01
1.964023e+02	-2.356545e+01
1.975367e+02	-2.361474e+01
1.986777e+02	-2.366184e+01
1.998252e+02	-2.371435e+01
2.009794e+02	-2.376554e+01
2.021403e+02	-2.381341e+01
2.033078e+02	-2.386356e+01
2.044821e+02	-2.391556e+01
2.056632e+02	-2.396213e+01
2.068511e+02	-2.401366e+01
2.080459e+02	-2.406272e+01
2.092475e+02	-2.411389e+01
2.104561e+02	-2.416256e+01
2.116717e+02	-2.421253e+01
2.128943e+02	-2.426170e+01
2.141240e+02	-2.431408e+01
2.153608e+02	-2.436314e+01
2.166047e+02	-2.440973e+01
2.178558e+02	-2.446684e+01
2.191141e+02	-2.451240e+01
2.203797e+02	-2.456053e+01
2.216526e+02	-2.460815e+01
2.229329e+02	-2.466214e+01
2.242205e+02	-2.471026e+01
2.255156e+02	-2.475851e+01
2.268182e+02	-2.481236e+01
2.281283e+02	-2.486169e+01
2.294459e+02	-2.491103e+01
2.307712e+02	-2.496305e+01
2.321041e+02	-2.500957e+01
2.334447e+02	-2.506362e+01
2.347931e+02	-2.511244e+01
2.361493e+02	-2.516052e+01
2.375133e+02	-2.521538e+01
2.388851e+02	-2.526322e+01
2.402649e+02	-2.531061e+01
2.416527e+02	-2.536053e+01
2.430484e+02	-2.540866e+01
2.444523e+02	-2.546208e+01
2.458642e+02	-2.550782e+01
2.472843e+02	-2.556227e+01
2.487126e+02	-2.561229e+01
2.501492e+02	-2.566028e+01
2.515940e+02	-2.570941e+01
2.530472e+02	-2.576173e+01
2.545088e+02	-2.580916e+01
2.559789e+02	-2.586186e+01
2.574574e+02	-2.591095e+01
2.589444e+02	-2.595965e+01
2.604401e+02	-2.600863e+01
2.619444e+02	-2.606118e+01
2.634574e+02	-2.611151e+01
2.649791e+02	-2.616139e+01
2.665096e+02	-2.620904e+01
2.680489e+02	-2.626118e+01
2.695972e+02	-2.631250e+01
2.711544e+02	-2.635880e+01
2.727205e+02	-2.640827e+01
2.742958e+02	-2.645992e+01
2.758801e+02	-2.650876e+01
2.774736e+02	-2.656032e+01
2.790762e+02	-2.661118e+01
2.806882e+02	-2.666143e+01
2.823094e+02	-2.670857e+01
2.839400e+02	-2.675866e+01
2.855800e+02	-2.681179e+01
2.872295e+02	-2.686026e+01
2.888886e+02	-2.690958e+01
2.905572e+02	-2.696121e+01
2.922354e+02	-2.700868e+01
2.939234e+02	-2.705946e+01
2.956211e+02	-2.711088e+01
2.973286e+02	-2.715903e+01
2.990459e+02	-2.720972e+01
3.007732e+02	-2.726043e+01
3.025104e+02	-2.731035e+01
3.042577e+02	-2.735845e+01
3.060151e+02	-2.741056e+01
3.077826e+02	-2.745965e+01
3.095604e+02	-2.751235e+01
3.113484e+02	-2.755727e+01
3.131467e+02	-2.761038e+01
3.149554e+02	-2.766049e+01
3.167746e+02	-2.771087e+01
3.186043e+02	-2.775807e+01
3.204445e+02	-2.780709e+01
3.222954e+02	-2.786086e+01
3.241570e+02	-2.790682e+01
3.260293e+02	-2.796570e+01
3.279124e+02	-2.800830e+01
3.298064e+02	-2.805908e+01
3.317114e+02	-2.811077e+01
3.336273e+02	-2.816049e+01
3.355544e+02	-2.821368e+01
3.374925e+02	-2.826338e+01
3.394418e+02	-2.831214e+01
3.414024e+02	-2.835903e+01
3.433744e+02	-2.841280e+01
3.453577e+02	-2.846152e+01
3.473525e+02	-2.850639e+01
3.493588e+02	-2.856383e+01
3.513766e+02	-2.860696e+01
3.534062e+02	-2.865748e+01
3.554474e+02	-2.870751e+01
3.575005e+02	-2.876017e+01
3.595654e+02	-2.880916e+01
3.616422e+02	-2.886143e+01
3.637311e+02	-2.890995e+01
3.658320e+02	-2.895962e+01
3.679450e+02	-2.900676e+01
3.700702e+02	-2.906353e+01
3.722077e+02	-2.911350e+01
3.743576e+02	-2.916333e+01
3.765199e+02	-2.921013e+01
3.786946e+02	-2.926505e+01
3.808820e+02	-2.931232e+01
3.830819e+02	-2.936040e+01
3.852946e+02	-2.940870e+01
3.875200e+02	-2.945701e+01
3.897583e+02	-2.951531e+01
3.920096e+02	-2.956160e+01
3.942738e+02	-2.961387e+01
3.965511e+02	-2.966263e+01
3.988416e+02	-2.971661e+01
4.011452e+02	-2.975811e+01
4.034622e+02	-2.981594e+01
4.057926e+02	-2.986137e+01
4.081365e+02	-2.991105e+01
4.104938e+02	-2.996201e+01
4.128648e+02	-3.000998e+01
4.152495e+02	-3.006205e+01
4.176480e+02	-3.011333e+01
4.200603e+02	-3.016656e+01
4.224866e+02	-3.021116e+01
4.249268e+02	-3.026529e+01
4.273812e+02	-3.031591e+01
4.298497e+02	-3.036549e+01
4.323325e+02	-3.041127e+01
4.348297e+02	-3.046222e+01
4.373412e+02	-3.051267e+01
4.398673e+02	-3.056260e+01
4.424079e+02	-3.061453e+01
4.449633e+02	-3.066956e+01
4.475334e+02	-3.071728e+01
4.501183e+02	-3.076849e+01
4.527182e+02	-3.081091e+01
4.553330e+02	-3.086813e+01
4.579630e+02	-3.091684e+01
4.606082e+02	-3.096194e+01
4.632687e+02	-3.101334e+01
4.659445e+02	-3.106734e+01
4.686358e+02	-3.111277e+01
4.713426e+02	-3.116634e+01
4.740650e+02	-3.121881e+01
4.768032e+02	-3.126236e+01
4.795572e+02	-3.132130e+01
4.823271e+02	-3.136769e+01
4.851130e+02	-3.141451e+01
4.879150e+02	-3.146502e+01
4.907332e+02	-3.150986e+01
4.935676e+02	-3.156676e+01
4.964185e+02	-3.161487e+01
4.992858e+02	-3.167002e+01
5.021696e+02	-3.171547e+01
5.050701e+02	-3.176702e+01
5.079874e+02	-3.181612e+01
5.109215e+02	-3.186784e+01
5.138726e+02	-3.191160e+01
5.168407e+02	-3.196900e+01
5.198259e+02	-3.201985e+01
5.228284e+02	-3.207623e+01
5.258482e+02	-3.211940e+01
5.288855e+02	-3.216414e+01
5.319403e+02	-3.222098e+01
5.350128e+02	-3.226734e+01
5.381030e+02	-3.232005e+01
5.412111e+02	-3.237092e+01
5.443371e+02	-3.241972e+01
5.474812e+02	-3.247967e+01
5.506434e+02	-3.252431e+01
5.538239e+02	-3.256634e+01
5.570228e+02	-3.261406e+01
5.602401e+02	-3.267330e+01
5.634760e+02	-3.271625e+01
5.667306e+02	-3.278004e+01
5.700040e+02	-3.282580e+01
5.732964e+02	-3.287286e+01
5.766077e+02	-3.292234e+01
5.799382e+02	-3.296768e+01
5.832879e+02	-3.301699e+01
5.866569e+02	-3.307025e+01
5.900454e+02	-3.311971e+01
5.934535e+02	-3.317932e+01
5.968813e+02	-3.322688e+01
6.003288e+02	-3.328018e+01
6.037963e+02	-3.332476e+01
6.072838e+02	-3.337476e+01
6.107914e+02	-3.342393e+01
6.143194e+02	-3.347798e+01
6.178676e+02	-3.352387e+01
6.214364e+02	-3.356990e+01
6.250258e+02	-3.363104e+01
6.286359e+02	-3.367289e+01
6.322669e+02	-3.372060e+01
6.359189e+02	-3.377194e+01
6.395919e+02	-3.382746e+01
6.432862e+02	-3.387718e+01
6.470017e+02	-3.393215e+01
6.507388e+02	-3.397123e+01
6.544974e+02	-3.402312e+01
6.582778e+02	-3.407519e+01
6.620800e+02	-3.412999e+01
6.659041e+02	-3.416625e+01
6.697504e+02	-3.422542e+01
6.736188e+02	-3.428048e+01
6.775096e+02	-3.432936e+01
6.814229e+02	-3.437781e+01
6.853587e+02	-3.442960e+01
6.893173e+02	-3.447943e+01
6.932988e+02	-3.453280e+01
6.973033e+02	-3.458780e+01
7.013309e+02	-3.463142e+01
