Frequency(Hz)	Magnitude(dB)
1.000000e+01	-2.179357e+00
1.005776e+01	-2.198986e+00
1.011585e+01	-2.219009e+00
1.017428e+01	-2.239356e+00
1.023305e+01	-2.259379e+00
1.029215e+01	-2.279910e+00
1.035160e+01	-2.300387e+00
1.041139e+01	-2.320780e+00
1.047153e+01	-2.341754e+00
1.053201e+01	-2.362792e+00
1.059284e+01	-2.383388e+00
1.065403e+01	-2.404856e+00
1.071556e+01	-2.425957e+00
1.077746e+01	-2.447526e+00
1.083971e+01	-2.469224e+00
1.090232e+01	-2.491158e+00
1.096529e+01	-2.512907e+00
1.102862e+01	-2.534875e+00
1.109232e+01	-2.557155e+00
1.115639e+01	-2.579441e+00
1.122083e+01	-2.602084e+00
1.128564e+01	-2.624530e+00
1.135083e+01	-2.647198e+00
1.141639e+01	-2.670294e+00
1.148233e+01	-2.693443e+00
1.154865e+01	-2.716381e+00
1.161536e+01	-2.739999e+00
1.168245e+01	-2.763215e+00
1.174992e+01	-2.787101e+00
1.181779e+01	-2.810589e+00
1.188605e+01	-2.834729e+00
1.195470e+01	-2.858904e+00
1.202375e+01	-2.882881e+00
1.209320e+01	-2.907230e+00
1.216305e+01	-2.931721e+00
1.223330e+01	-2.956181e+00
1.230396e+01	-2.981102e+00
1.237503e+01	-3.006041e+00
1.244651e+01	-3.030965e+00
1.251840e+01	-3.056257e+00
1.259070e+01	-3.081649e+00
1.266343e+01	-3.107294e+00
1.273657e+01	-3.132626e+00
1.281014e+01	-3.158737e+00
1.288413e+01	-3.184529e+00
1.295855e+01	-3.210468e+00
1.303339e+01	-3.236581e+00
1.310867e+01	-3.262915e+00
1.318439e+01	-3.289416e+00
1.326054e+01	-3.316100e+00
1.333713e+01	-3.343140e+00
1.341417e+01	-3.370067e+00
1.349165e+01	-3.397050e+00
1.356958e+01	-3.424160e+00
1.364795e+01	-3.451647e+00
1.372678e+01	-3.478957e+00
1.380607e+01	-3.506442e+00
1.388581e+01	-3.534429e+00
1.396602e+01	-3.562421e+00
1.404668e+01	-3.590226e+00
1.412782e+01	-3.618791e+00
1.420942e+01	-3.647198e+00
1.429149e+01	-3.675629e+00
1.437404e+01	-3.703983e+00
1.445706e+01	-3.733033e+00
1.454057e+01	-3.761684e+00
1.462455e+01	-3.791124e+00
1.470902e+01	-3.820202e+00
1.479398e+01	-3.849358e+00
1.487943e+01	-3.879275e+00
1.496537e+01	-3.908519e+00
1.505181e+01	-3.938294e+00
1.513875e+01	-3.968195e+00
1.522619e+01	-3.998197e+00
1.531414e+01	-4.028272e+00
1.540259e+01	-4.058914e+00
1.549156e+01	-4.088898e+00
1.558103e+01	-4.119831e+00
1.567103e+01	-4.150632e+00
1.576155e+01	-4.181434e+00
1.585258e+01	-4.212370e+00
1.594415e+01	-4.243378e+00
1.603624e+01	-4.274872e+00
1.612886e+01	-4.305994e+00
1.622202e+01	-4.337718e+00
1.631572e+01	-4.369110e+00
1.640996e+01	-4.401243e+00
1.650474e+01	-4.432920e+00
1.660008e+01	-4.465081e+00
1.669596e+01	-4.497317e+00
1.679239e+01	-4.529832e+00
1.688938e+01	-4.561961e+00
1.698694e+01	-4.594733e+00
1.708505e+01	-4.627468e+00
1.718373e+01	-4.660333e+00
1.728299e+01	-4.693329e+00
1.738281e+01	-4.726336e+00
1.748322e+01	-4.759545e+00
1.758420e+01	-4.792974e+00
1.768576e+01	-4.826524e+00
1.778792e+01	-4.860230e+00
1.789066e+01	-4.893636e+00
1.799399e+01	-4.927725e+00
1.809793e+01	-4.961854e+00
1.820246e+01	-4.995879e+00
1.830760e+01	-5.030376e+00
1.841334e+01	-5.064198e+00
1.851969e+01	-5.099012e+00
1.862666e+01	-5.133559e+00
1.873425e+01	-5.168269e+00
1.884246e+01	-5.203027e+00
1.895129e+01	-5.238294e+00
1.906075e+01	-5.273257e+00
1.917085e+01	-5.308548e+00
1.928158e+01	-5.344127e+00
1.939295e+01	-5.379213e+00
1.950496e+01	-5.414971e+00
1.961762e+01	-5.450697e+00
1.973093e+01	-5.486740e+00
1.984490e+01	-5.522313e+00
1.995952e+01	-5.558651e+00
2.007480e+01	-5.594730e+00
2.019076e+01	-5.630755e+00
2.030738e+01	-5.667518e+00
2.042467e+01	-5.703909e+00
2.054264e+01	-5.740439e+00
2.066130e+01	-5.777239e+00
2.078064e+01	-5.814158e+00
2.090066e+01	-5.851209e+00
2.102139e+01	-5.888419e+00
2.114280e+01	-5.925341e+00
2.126492e+01	-5.962578e+00
2.138775e+01	-5.999936e+00
2.151128e+01	-6.037686e+00
2.163553e+01	-6.075512e+00
2.176050e+01	-6.112662e+00
2.188619e+01	-6.150930e+00
2.201260e+01	-6.189094e+00
2.213974e+01	-6.226735e+00
2.226762e+01	-6.264938e+00
2.239624e+01	-6.303221e+00
2.252560e+01	-6.341623e+00
2.265571e+01	-6.380276e+00
2.278656e+01	-6.418592e+00
2.291818e+01	-6.457290e+00
2.305055e+01	-6.495904e+00
2.318369e+01	-6.534724e+00
2.331760e+01	-6.573758e+00
2.345228e+01	-6.613260e+00
2.358774e+01	-6.651926e+00
2.372398e+01	-6.691259e+00
2.386101e+01	-6.730724e+00
2.399883e+01	-6.770073e+00
2.413745e+01	-6.809763e+00
2.427686e+01	-6.849435e+00
2.441709e+01	-6.888922e+00
2.455812e+01	-6.929054e+00
2.469997e+01	-6.969021e+00
2.484263e+01	-7.008639e+00
2.498612e+01	-7.048883e+00
2.513044e+01	-7.088932e+00
2.527559e+01	-7.129542e+00
2.542158e+01	-7.170043e+00
2.556842e+01	-7.210014e+00
2.571610e+01	-7.250857e+00
2.586463e+01	-7.291575e+00
2.601403e+01	-7.332168e+00
2.616428e+01	-7.373018e+00
2.631541e+01	-7.414022e+00
2.646740e+01	-7.454676e+00
2.662028e+01	-7.496379e+00
2.677404e+01	-7.537197e+00
2.692868e+01	-7.578525e+00
2.708422e+01	-7.619624e+00
2.724066e+01	-7.660730e+00
2.739800e+01	-7.702922e+00
2.755625e+01	-7.744192e+00
2.771541e+01	-7.785795e+00
2.787550e+01	-7.827820e+00
2.803650e+01	-7.869068e+00
2.819844e+01	-7.911172e+00
2.836131e+01	-7.953244e+00
2.852513e+01	-7.995546e+00
2.868989e+01	-8.037674e+00
2.885560e+01	-8.079578e+00
2.902227e+01	-8.121911e+00
2.918990e+01	-8.164464e+00
2.935850e+01	-8.206798e+00
2.952807e+01	-8.249291e+00
2.969863e+01	-8.291366e+00
2.987016e+01	-8.334493e+00
3.004269e+01	-8.377552e+00
3.021622e+01	-8.419893e+00
3.039075e+01	-8.463247e+00
3.056628e+01	-8.505724e+00
3.074283e+01	-8.548630e+00
3.092040e+01	-8.591594e+00
3.109900e+01	-8.634752e+00
3.127862e+01	-8.678463e+00
3.145929e+01	-8.720994e+00
3.164099e+01	-8.764540e+00
3.182375e+01	-8.808163e+00
3.200756e+01	-8.851685e+00
3.219244e+01	-8.895320e+00
3.237838e+01	-8.938548e+00
3.256540e+01	-8.982909e+00
3.275349e+01	-9.026052e+00
3.294268e+01	-9.070121e+00
3.313295e+01	-9.113687e+00
3.332433e+01	-9.158178e+00
3.351681e+01	-9.201799e+00
3.371040e+01	-9.245775e+00
3.390511e+01	-9.290069e+00
3.410094e+01	-9.334048e+00
3.429791e+01	-9.378357e+00
3.449601e+01	-9.422767e+00
3.469526e+01	-9.466980e+00
3.489566e+01	-9.511423e+00
3.509721e+01	-9.556062e+00
3.529993e+01	-9.600616e+00
3.550382e+01	-9.645288e+00
3.570889e+01	-9.689427e+00
3.591515e+01	-9.733904e+00
3.612259e+01	-9.778690e+00
3.633123e+01	-9.824429e+00
3.654108e+01	-9.868887e+00
3.675214e+01	-9.913355e+00
3.696442e+01	-9.958442e+00
3.717792e+01	-1.000350e+01
3.739266e+01	-1.004876e+01
3.760864e+01	-1.009348e+01
3.782587e+01	-1.013939e+01
3.804435e+01	-1.018375e+01
3.826409e+01	-1.022935e+01
3.848510e+01	-1.027458e+01
3.870739e+01	-1.031978e+01
3.893096e+01	-1.036528e+01
3.915583e+01	-1.041083e+01
3.938199e+01	-1.045648e+01
3.960946e+01	-1.050195e+01
3.983824e+01	-1.054751e+01
4.006834e+01	-1.059290e+01
4.029978e+01	-1.063893e+01
4.053255e+01	-1.068491e+01
4.076666e+01	-1.072992e+01
4.100213e+01	-1.077624e+01
4.123896e+01	-1.082225e+01
4.147715e+01	-1.086788e+01
4.171672e+01	-1.091373e+01
4.195767e+01	-1.095930e+01
4.220002e+01	-1.100586e+01
4.244377e+01	-1.105195e+01
4.268892e+01	-1.109840e+01
4.293549e+01	-1.114401e+01
4.318348e+01	-1.119060e+01
4.343291e+01	-1.123680e+01
4.368377e+01	-1.128282e+01
4.393609e+01	-1.132913e+01
4.418986e+01	-1.137562e+01
4.444510e+01	-1.142223e+01
4.470182e+01	-1.146796e+01
4.496001e+01	-1.151518e+01
4.521970e+01	-1.156181e+01
4.548089e+01	-1.160841e+01
4.574358e+01	-1.165463e+01
4.600779e+01	-1.170146e+01
4.627353e+01	-1.174779e+01
4.654081e+01	-1.179481e+01
4.680963e+01	-1.184098e+01
4.708000e+01	-1.188786e+01
4.735193e+01	-1.193507e+01
4.762543e+01	-1.198185e+01
4.790051e+01	-1.202819e+01
4.817719e+01	-1.207481e+01
4.845545e+01	-1.212268e+01
4.873533e+01	-1.216928e+01
4.901682e+01	-1.221650e+01
4.929994e+01	-1.226421e+01
4.958470e+01	-1.231043e+01
4.987110e+01	-1.235734e+01
5.015915e+01	-1.240494e+01
5.044887e+01	-1.245294e+01
5.074026e+01	-1.249965e+01
5.103333e+01	-1.254646e+01
5.132810e+01	-1.259396e+01
5.162457e+01	-1.264147e+01
5.192275e+01	-1.268759e+01
5.222265e+01	-1.273544e+01
5.252429e+01	-1.278243e+01
5.282767e+01	-1.283024e+01
5.313280e+01	-1.287708e+01
5.343969e+01	-1.292571e+01
5.374836e+01	-1.297228e+01
5.405880e+01	-1.301993e+01
5.437105e+01	-1.306886e+01
5.468509e+01	-1.311516e+01
5.500095e+01	-1.316291e+01
5.531863e+01	-1.321118e+01
5.563815e+01	-1.325834e+01
5.595951e+01	-1.330573e+01
5.628273e+01	-1.335358e+01
5.660782e+01	-1.340062e+01
5.693479e+01	-1.344935e+01
5.726364e+01	-1.349689e+01
5.759439e+01	-1.354467e+01
5.792705e+01	-1.359310e+01
5.826164e+01	-1.364097e+01
5.859815e+01	-1.368788e+01
5.893662e+01	-1.373556e+01
5.927703e+01	-1.378407e+01
5.961941e+01	-1.383225e+01
5.996377e+01	-1.388027e+01
6.031012e+01	-1.392762e+01
6.065847e+01	-1.397605e+01
6.100883e+01	-1.402413e+01
6.136121e+01	-1.407189e+01
6.171563e+01	-1.412029e+01
6.207210e+01	-1.416882e+01
6.243063e+01	-1.421608e+01
6.279122e+01	-1.426385e+01
6.315390e+01	-1.431272e+01
6.351868e+01	-1.436126e+01
6.388556e+01	-1.440968e+01
6.425456e+01	-1.445729e+01
6.462569e+01	-1.450647e+01
6.499897e+01	-1.455385e+01
6.537440e+01	-1.460240e+01
6.575200e+01	-1.465063e+01
6.613178e+01	-1.469847e+01
6.651375e+01	-1.474640e+01
6.689793e+01	-1.479626e+01
6.728433e+01	-1.484421e+01
6.767297e+01	-1.489140e+01
6.806384e+01	-1.494173e+01
6.845698e+01	-1.498874e+01
6.885238e+01	-1.503717e+01
6.925007e+01	-1.508632e+01
6.965005e+01	-1.513479e+01
7.005235e+01	-1.518335e+01
7.045697e+01	-1.523178e+01
7.086393e+01	-1.528026e+01
7.127323e+01	-1.532804e+01
7.168490e+01	-1.537674e+01
7.209895e+01	-1.542542e+01
7.251539e+01	-1.547442e+01
7.293424e+01	-1.552294e+01
7.335551e+01	-1.557168e+01
7.377920e+01	-1.562030e+01
7.420535e+01	-1.566815e+01
7.463396e+01	-1.571759e+01
7.506504e+01	-1.576652e+01
7.549861e+01	-1.581542e+01
7.593469e+01	-1.586349e+01
7.637328e+01	-1.591158e+01
7.681441e+01	-1.596142e+01
7.725809e+01	-1.601045e+01
7.770433e+01	-1.605891e+01
7.815315e+01	-1.610744e+01
7.860456e+01	-1.615700e+01
7.905857e+01	-1.620673e+01
7.951521e+01	-1.625299e+01
7.997449e+01	-1.630308e+01
8.043642e+01	-1.635245e+01
8.090102e+01	-1.640098e+01
8.136830e+01	-1.644898e+01
8.183828e+01	-1.649845e+01
8.231097e+01	-1.654766e+01
8.278640e+01	-1.659605e+01
8.326457e+01	-1.664606e+01
8.374550e+01	-1.669366e+01
8.422921e+01	-1.674354e+01
8.471572e+01	-1.679099e+01
8.520503e+01	-1.684034e+01
8.569717e+01	-1.688996e+01
8.619215e+01	-1.693917e+01
8.669000e+01	-1.698814e+01
8.719071e+01	-1.703785e+01
8.769432e+01	-1.708657e+01
8.820084e+01	-1.713534e+01
8.871029e+01	-1.718418e+01
8.922267e+01	-1.723398e+01
8.973802e+01	-1.728254e+01
9.025634e+01	-1.733182e+01
9.077766e+01	-1.737984e+01
9.130199e+01	-1.743039e+01
9.182935e+01	-1.747866e+01
9.235975e+01	-1.752917e+01
9.289321e+01	-1.757808e+01
9.342976e+01	-1.762711e+01
9.396941e+01	-1.767562e+01
9.451217e+01	-1.772471e+01
9.505807e+01	-1.777391e+01
9.560712e+01	-1.782376e+01
9.615934e+01	-1.787223e+01
9.671476e+01	-1.792224e+01
9.727338e+01	-1.797106e+01
9.783522e+01	-1.801992e+01
9.840032e+01	-1.806917e+01
9.896867e+01	-1.811950e+01
9.954031e+01	-1.816658e+01
1.001153e+02	-1.821628e+01
1.006935e+02	-1.826624e+01
1.012751e+02	-1.831550e+01
1.018601e+02	-1.836392e+01
1.024484e+02	-1.841491e+01
1.030402e+02	-1.846350e+01
1.036353e+02	-1.851291e+01
1.042339e+02	-1.856122e+01
1.048360e+02	-1.861243e+01
1.054415e+02	-1.866123e+01
1.060505e+02	-1.871063e+01
1.066631e+02	-1.875989e+01
1.072791e+02	-1.881007e+01
1.078988e+02	-1.885731e+01
1.085220e+02	-1.890697e+01
1.091488e+02	-1.895824e+01
1.097793e+02	-1.900785e+01
1.104133e+02	-1.905552e+01
1.110511e+02	-1.910518e+01
1.116925e+02	-1.915560e+01
1.123376e+02	-1.920365e+01
1.129865e+02	-1.925501e+01
1.136391e+02	-1.930416e+01
1.142955e+02	-1.935328e+01
1.149556e+02	-1.940091e+01
1.156196e+02	-1.945008e+01
1.162874e+02	-1.950058e+01
1.169591e+02	-1.955201e+01
1.176347e+02	-1.959850e+01
1.183141e+02	-1.964961e+01
1.189975e+02	-1.969959e+01
1.196848e+02	-1.974865e+01
1.203761e+02	-1.979874e+01
1.210714e+02	-1.984822e+01
1.217707e+02	-1.989798e+01
1.224740e+02	-1.994700e+01
1.231814e+02	-1.999709e+01
1.238929e+02	-2.004534e+01
1.246085e+02	-2.009468e+01
1.253283e+02	-2.014519e+01
1.260522e+02	-2.019376e+01
1.267802e+02	-2.024510e+01
1.275125e+02	-2.029269e+01
1.282490e+02	-2.034217e+01
1.289898e+02	-2.039189e+01
1.297348e+02	-2.044164e+01
1.304842e+02	-2.049142e+01
1.312378e+02	-2.054051e+01
1.319959e+02	-2.059167e+01
1.327583e+02	-2.064152e+01
1.335251e+02	-2.069023e+01
1.342963e+02	-2.073968e+01
1.350720e+02	-2.078899e+01
1.358522e+02	-2.083929e+01
1.366368e+02	-2.088835e+01
1.374260e+02	-2.093784e+01
1.382198e+02	-2.098767e+01
1.390182e+02	-2.103746e+01
1.398211e+02	-2.108632e+01
1.406287e+02	-2.113769e+01
1.414410e+02	-2.118689e+01
1.422579e+02	-2.123868e+01
1.430796e+02	-2.128473e+01
1.439060e+02	-2.133704e+01
1.447372e+02	-2.138533e+01
1.455732e+02	-2.143593e+01
1.464141e+02	-2.148493e+01
1.472597e+02	-2.153407e+01
1.481103e+02	-2.158468e+01
1.489658e+02	-2.163366e+01
1.498262e+02	-2.168397e+01
1.506916e+02	-2.173403e+01
1.515620e+02	-2.178262e+01
1.524374e+02	-2.183289e+01
1.533179e+02	-2.188089e+01
1.542034e+02	-2.193435e+01
1.550941e+02	-2.198096e+01
1.559899e+02	-2.202948e+01
1.568909e+02	-2.208111e+01
1.577971e+02	-2.213250e+01
1.587085e+02	-2.218093e+01
1.596252e+02	-2.223124e+01
1.605472e+02	-2.227970e+01
1.614745e+02	-2.233115e+01
1.624072e+02	-2.237805e+01
1.633453e+02	-2.243096e+01
1.642887e+02	-2.247898e+01
1.652377e+02	-2.252689e+01
1.661921e+02	-2.257894e+01
1.671520e+02	-2.262934e+01
1.681175e+02	-2.267820e+01
1.690885e+02	-2.272585e+01
1.700651e+02	-2.277680e+01
1.710474e+02	-2.282916e+01
1.720354e+02	-2.287549e+01
1.730291e+02	-2.292821e+01
1.740285e+02	-2.297637e+01
1.750337e+02	-2.302902e+01
1.760446e+02	-2.307700e+01
1.770615e+02	-2.312518e+01
1.780842e+02	-2.317749e+01
1.791128e+02	-2.322601e+01
1.801473e+02	-2.327645e+01
1.811878e+02	-2.332606e+01
1.822344e+02	-2.337563e+01
1.832870e+02	-2.342375e+01
1.843456e+02	-2.347552e+01
1.854104e+02	-2.352403e+01
1.864813e+02	-2.357609e+01
1.875584e+02	-2.362298e+01
1.886418e+02	-2.367440e+01
1.897313e+02	-2.372245e+01
1.908272e+02	-2.377405e+01
1.919294e+02	-2.382228e+01
1.930380e+02	-2.387507e+01
1.941530e+02	-2.392474e+01
1.952744e+02	-2.397049e+01
1.964023e+02	-2.402492e+01
1.975367e+02	-2.407278e+01
1.986777e+02	-2.412131e+01
1.998252e+02	-2.417286e+01
2.009794e+02	-2.422496e+01
2.021403e+02	-2.427573e+01
2.033078e+02	-2.432218e+01
2.044821e+02	-2.437070e+01
2.056632e+02	-2.442123e+01
2.068511e+02	-2.447548e+01
2.080459e+02	-2.452377e+01
2.092475e+02	-2.457206e+01
2.104561e+02	-2.462135e+01
2.116717e+02	-2.466979e+01
2.128943e+02	-2.472380e+01
2.141240e+02	-2.477070e+01
2.153608e+02	-2.482267e+01
2.166047e+02	-2.487136e+01
2.178558e+02	-2.492379e+01
2.191141e+02	-2.496994e+01
2.203797e+02	-2.502116e+01
2.216526e+02	-2.507069e+01
2.229329e+02	-2.512073e+01
2.242205e+02	-2.517383e+01
2.255156e+02	-2.522050e+01
2.268182e+02	-2.526780e+01
2.281283e+02	-2.532000e+01
2.294459e+02	-2.537031e+01
2.307712e+02	-2.542011e+01
2.321041e+02	-2.547252e+01
2.334447e+02	-2.552157e+01
2.347931e+02	-2.557148e+01
2.361493e+02	-2.561901e+01
2.375133e+02	-2.567021e+01
2.388851e+02	-2.572163e+01
2.402649e+02	-2.576802e+01
2.416527e+02	-2.581958e+01
2.430484e+02	-2.587261e+01
2.444523e+02	-2.591970e+01
2.458642e+02	-2.596662e+01
2.472843e+02	-2.602062e+01
2.487126e+02	-2.606901e+01
2.501492e+02	-2.612135e+01
2.515940e+02	-2.616866e+01
2.530472e+02	-2.622081e+01
2.545088e+02	-2.626892e+01
2.559789e+02	-2.631816e+01
2.574574e+02	-2.637273e+01
2.589444e+02	-2.642060e+01
2.604401e+02	-2.647041e+01
2.619444e+02	-2.651695e+01
2.634574e+02	-2.656841e+01
2.649791e+02	-2.661715e+01
2.665096e+02	-2.666706e+01
2.680489e+02	-2.672128e+01
2.695972e+02	-2.676950e+01
2.711544e+02	-2.682024e+01
2.727205e+02	-2.686866e+01
2.742958e+02	-2.691834e+01
2.758801e+02	-2.696752e+01
2.774736e+02	-2.701672e+01
2.790762e+02	-2.706921e+01
2.806882e+02	-2.711512e+01
2.823094e+02	-2.716820e+01
2.839400e+02	-2.721629e+01
2.855800e+02	-2.727135e+01
2.872295e+02	-2.731689e+01
2.888886e+02	-2.736684e+01
2.905572e+02	-2.741813e+01
2.922354e+02	-2.746587e+01
2.939234e+02	-2.752006e+01
2.956211e+02	-2.756692e+01
2.973286e+02	-2.761890e+01
2.990459e+02	-2.766851e+01
3.007732e+02	-2.772039e+01
3.025104e+02	-2.776854e+01
3.042577e+02	-2.782246e+01
3.060151e+02	-2.786766e+01
3.077826e+02	-2.792126e+01
3.095604e+02	-2.797310e+01
3.113484e+02	-2.801849e+01
3.131467e+02	-2.807081e+01
3.149554e+02	-2.811529e+01
3.167746e+02	-2.816980e+01
3.186043e+02	-2.821595e+01
3.204445e+02	-2.826897e+01
3.222954e+02	-2.832167e+01
3.241570e+02	-2.837184e+01
3.260293e+02	-2.842269e+01
3.279124e+02	-2.846603e+01
3.298064e+02	-2.852280e+01
3.317114e+02	-2.856880e+01
3.336273e+02	-2.862253e+01
3.355544e+02	-2.867034e+01
3.374925e+02	-2.871598e+01
3.394418e+02	-2.877118e+01
3.414024e+02	-2.882265e+01
3.433744e+02	-2.887083e+01
3.453577e+02	-2.891973e+01
3.473525e+02	-2.897412e+01
3.493588e+02	-2.902247e+01
3.513766e+02	-2.907135e+01
3.534062e+02	-2.911995e+01
3.554474e+02	-2.916756e+01
3.575005e+02	-2.921615e+01
3.595654e+02	-2.926813e+01
3.616422e+02	-2.931376e+01
3.637311e+02	-2.937295e+01
3.658320e+02	-2.942542e+01
3.679450e+02	-2.946379e+01
3.700702e+02	-2.951733e+01
3.722077e+02	-2.957011e+01
3.743576e+02	-2.962104e+01
3.765199e+02	-2.966653e+01
3.786946e+02	-2.972155e+01
3.808820e+02	-2.977260e+01
3.830819e+02	-2.981700e+01
3.852946e+02	-2.987330e+01
3.875200e+02	-2.991806e+01
3.897583e+02	-2.997338e+01
3.920096e+02	-3.002204e+01
3.942738e+02	-3.007275e+01
3.965511e+02	-3.012581e+01
3.988416e+02	-3.017492e+01
4.011452e+02	-3.022031e+01
4.034622e+02	-3.027432e+01
4.057926e+02	-3.032261e+01
4.081365e+02	-3.037323e+01
4.104938e+02	-3.042006e+01
4.128648e+02	-3.047310e+01
4.152495e+02	-3.052297e+01
4.176480e+02	-3.057012e+01
4.200603e+02	-3.062652e+01
4.224866e+02	-3.067512e+01
4.249268e+02	-3.072089e+01
4.273812e+02	-3.077735e+01
4.298497e+02	-3.082442e+01
4.323325e+02	-3.087556e+01
4.348297e+02	-3.091998e+01
4.373412e+02	-3.097110e+01
4.398673e+02	-3.102633e+01
4.424079e+02	-3.107472e+01
4.449633e+02	-3.112430e+01
4.475334e+02	-3.117539e+01
4.501183e+02	-3.122388e+01
4.527182e+02	-3.127967e+01
4.553330e+02	-3.131870e+01
4.579630e+02	-3.137331e+01
4.606082e+02	-3.142743e+01
4.632687e+02	-3.147526e+01
4.659445e+02	-3.152313e+01
4.686358e+02	-3.158053e+01
4.713426e+02	-3.162696e+01
4.740650e+02	-3.167458e+01
4.768032e+02	-3.172893e+01
4.795572e+02	-3.177833e+01
4.823271e+02	-3.183585e+01
4.851130e+02	-3.187859e+01
4.879150e+02	-3.193048e+01
4.907332e+02	-3.198312e+01
4.935676e+02	-3.202931e+01
4.964185e+02	-3.207642e+01
4.992858e+02	-3.212980e+01
5.021696e+02	-3.217536e+01
5.050701e+02	-3.222324e+01
5.079874e+02	-3.228061e+01
5.109215e+02	-3.233753e+01
5.138726e+02	-3.238021e+01
5.168407e+02	-3.242526e+01
5.198259e+02	-3.247607e+01
5.228284e+02	-3.252816e+01
5.258482e+02	-3.258004e+01
5.288855e+02	-3.262931e+01
5.319403e+02	-3.267865e+01
5.350128e+02	-3.273623e+01
5.381030e+02	-3.277635e+01
5.412111e+02	-3.283012e+01
5.443371e+02	-3.288630e+01
5.474812e+02	-3.293179e+01
5.506434e+02	-3.297783e+01
5.538239e+02	-3.302346e+01
5.570228e+02	-3.307617e+01
5.602401e+02	-3.313094e+01
5.634760e+02	-3.318667e+01
5.667306e+02	-3.322609e+01
5.700040e+02	-3.328799e+01
5.732964e+02	-3.332744e+01
5.766077e+02	-3.338448e+01
5.799382e+02	-3.343735e+01
5.832879e+02	-3.348289e+01
5.866569e+02	-3.353290e+01
5.900454e+02	-3.359246e+01
5.934535e+02	-3.363488e+01
5.968813e+02	-3.368205e+01
6.003288e+02	-3.373604e+01
6.037963e+02	-3.378839e+01
6.072838e+02	-3.383881e+01
6.107914e+02	-3.388900e+01
6.143194e+02	-3.394035e+01
6.178676e+02	-3.398877e+01
6.214364e+02	-3.404281e+01
6.250258e+02	-3.408865e+01
6.286359e+02	-3.413752e+01
6.322669e+02	-3.418993e+01
6.359189e+02	-3.423826e+01
6.395919e+02	-3.428962e+01
6.432862e+02	-3.433929e+01
6.470017e+02	-3.438893e+01
6.507388e+02	-3.444090e+01
6.544974e+02	-3.449204e+01
6.582778e+02	-3.453040e+01
6.620800e+02	-3.459603e+01
6.659041e+02	-3.464302e+01
6.697504e+02	-3.469711e+01
6.736188e+02	-3.474366e+01
6.775096e+02	-3.478882e+01
6.814229e+02	-3.484528e+01
6.853587e+02	-3.489410e+01
6.893173e+02	-3.494546e+01
6.932988e+02	-3.499239e+01
6.973033e+02	-3.504344e+01
7.013309e+02	-3.509548e+01
