Frequency(Hz)	Magnitude(dB)
1.000000e+01	-1.814375e-05
1.005776e+01	-1.835395e-05
1.011585e+01	-1.856659e-05
1.017428e+01	-1.878169e-05
1.023305e+01	-1.899928e-05
1.029215e+01	-1.921939e-05
1.035160e+01	-1.944205e-05
1.041139e+01	-1.966729e-05
1.047153e+01	-1.989514e-05
1.053201e+01	-2.012563e-05
1.059284e+01	-2.035879e-05
1.065403e+01	-2.059465e-05
1.071556e+01	-2.083325e-05
1.077746e+01	-2.107461e-05
1.083971e+01	-2.131876e-05
1.090232e+01	-2.156575e-05
1.096529e+01	-2.181559e-05
1.102862e+01	-2.206833e-05
1.109232e+01	-2.232400e-05
1.115639e+01	-2.258263e-05
1.122083e+01	-2.284425e-05
1.128564e+01	-2.310891e-05
1.135083e+01	-2.337663e-05
1.141639e+01	-2.364745e-05
1.148233e+01	-2.392142e-05
1.154865e+01	-2.419855e-05
1.161536e+01	-2.447890e-05
1.168245e+01	-2.476249e-05
1.174992e+01	-2.504937e-05
1.181779e+01	-2.533957e-05
1.188605e+01	-2.563314e-05
1.195470e+01	-2.593011e-05
1.202375e+01	-2.623051e-05
1.209320e+01	-2.653440e-05
1.216305e+01	-2.684181e-05
1.223330e+01	-2.715278e-05
1.230396e+01	-2.746735e-05
1.237503e+01	-2.778556e-05
1.244651e+01	-2.810746e-05
1.251840e+01	-2.843310e-05
1.259070e+01	-2.876250e-05
1.266343e+01	-2.909572e-05
1.273657e+01	-2.943280e-05
1.281014e+01	-2.977379e-05
1.288413e+01	-3.011873e-05
1.295855e+01	-3.046766e-05
1.303339e+01	-3.082063e-05
1.310867e+01	-3.117770e-05
1.318439e+01	-3.153890e-05
1.326054e+01	-3.190428e-05
1.333713e+01	-3.227390e-05
1.341417e+01	-3.264780e-05
1.349165e+01	-3.302604e-05
1.356958e+01	-3.340865e-05
1.364795e+01	-3.379570e-05
1.372678e+01	-3.418723e-05
1.380607e+01	-3.458330e-05
1.388581e+01	-3.498395e-05
1.396602e+01	-3.538925e-05
1.404668e+01	-3.579924e-05
1.412782e+01	-3.621398e-05
1.420942e+01	-3.663353e-05
1.429149e+01	-3.705794e-05
1.437404e+01	-3.748726e-05
1.445706e+01	-3.792156e-05
1.454057e+01	-3.836089e-05
1.462455e+01	-3.880531e-05
1.470902e+01	-3.925488e-05
1.479398e+01	-3.970966e-05
1.487943e+01	-4.016970e-05
1.496537e+01	-4.063508e-05
1.505181e+01	-4.110584e-05
1.513875e+01	-4.158206e-05
1.522619e+01	-4.206380e-05
1.531414e+01	-4.255112e-05
1.540259e+01	-4.304408e-05
1.549156e+01	-4.354276e-05
1.558103e+01	-4.404721e-05
1.567103e+01	-4.455751e-05
1.576155e+01	-4.507372e-05
1.585258e+01	-4.559591e-05
1.594415e+01	-4.612414e-05
1.603624e+01	-4.665850e-05
1.612886e+01	-4.719905e-05
1.622202e+01	-4.774586e-05
1.631572e+01	-4.829901e-05
1.640996e+01	-4.885856e-05
1.650474e+01	-4.942460e-05
1.660008e+01	-4.999719e-05
1.669596e+01	-5.057642e-05
1.679239e+01	-5.116236e-05
1.688938e+01	-5.175509e-05
1.698694e+01	-5.235468e-05
1.708505e+01	-5.296122e-05
1.718373e+01	-5.357479e-05
1.728299e+01	-5.419546e-05
1.738281e+01	-5.482333e-05
1.748322e+01	-5.545847e-05
1.758420e+01	-5.610097e-05
1.768576e+01	-5.675091e-05
1.778792e+01	-5.740838e-05
1.789066e+01	-5.807347e-05
1.799399e+01	-5.874626e-05
1.809793e+01	-5.942685e-05
1.820246e+01	-6.011532e-05
1.830760e+01	-6.081177e-05
1.841334e+01	-6.151628e-05
1.851969e+01	-6.222896e-05
1.862666e+01	-6.294990e-05
1.873425e+01	-6.367918e-05
1.884246e+01	-6.441692e-05
1.895129e+01	-6.516320e-05
1.906075e+01	-6.591813e-05
1.917085e+01	-6.668180e-05
1.928158e+01	-6.745432e-05
1.939295e+01	-6.823579e-05
1.950496e+01	-6.902632e-05
1.961762e+01	-6.982600e-05
1.973093e+01	-7.063495e-05
1.984490e+01	-7.145327e-05
1.995952e+01	-7.228107e-05
2.007480e+01	-7.311846e-05
2.019076e+01	-7.396555e-05
2.030738e+01	-7.482245e-05
2.042467e+01	-7.568928e-05
2.054264e+01	-7.656616e-05
2.066130e+01	-7.745319e-05
2.078064e+01	-7.835050e-05
2.090066e+01	-7.925820e-05
2.102139e+01	-8.017642e-05
2.114280e+01	-8.110528e-05
2.126492e+01	-8.204490e-05
2.138775e+01	-8.299540e-05
2.151128e+01	-8.395692e-05
2.163553e+01	-8.492957e-05
2.176050e+01	-8.591350e-05
2.188619e+01	-8.690882e-05
2.201260e+01	-8.791567e-05
2.213974e+01	-8.893419e-05
2.226762e+01	-8.996450e-05
2.239624e+01	-9.100676e-05
2.252560e+01	-9.206109e-05
2.265571e+01	-9.312763e-05
2.278656e+01	-9.420652e-05
2.291818e+01	-9.529792e-05
2.305055e+01	-9.640196e-05
2.318369e+01	-9.751879e-05
2.331760e+01	-9.864856e-05
2.345228e+01	-9.979142e-05
2.358774e+01	-1.009475e-04
2.372398e+01	-1.021170e-04
2.386101e+01	-1.033001e-04
2.399883e+01	-1.044968e-04
2.413745e+01	-1.057074e-04
2.427686e+01	-1.069320e-04
2.441709e+01	-1.081709e-04
2.455812e+01	-1.094240e-04
2.469997e+01	-1.106917e-04
2.484263e+01	-1.119741e-04
2.498612e+01	-1.132713e-04
2.513044e+01	-1.145836e-04
2.527559e+01	-1.159111e-04
2.542158e+01	-1.172539e-04
2.556842e+01	-1.186123e-04
2.571610e+01	-1.199865e-04
2.586463e+01	-1.213765e-04
2.601403e+01	-1.227827e-04
2.616428e+01	-1.242051e-04
2.631541e+01	-1.256441e-04
2.646740e+01	-1.270997e-04
2.662028e+01	-1.285721e-04
2.677404e+01	-1.300616e-04
2.692868e+01	-1.315684e-04
2.708422e+01	-1.330926e-04
2.724066e+01	-1.346345e-04
2.739800e+01	-1.361943e-04
2.755625e+01	-1.377721e-04
2.771541e+01	-1.393682e-04
2.787550e+01	-1.409828e-04
2.803650e+01	-1.426161e-04
2.819844e+01	-1.442683e-04
2.836131e+01	-1.459397e-04
2.852513e+01	-1.476304e-04
2.868989e+01	-1.493407e-04
2.885560e+01	-1.510709e-04
2.902227e+01	-1.528210e-04
2.918990e+01	-1.545915e-04
2.935850e+01	-1.563824e-04
2.952807e+01	-1.581941e-04
2.969863e+01	-1.600268e-04
2.987016e+01	-1.618807e-04
3.004269e+01	-1.637561e-04
3.021622e+01	-1.656532e-04
3.039075e+01	-1.675723e-04
3.056628e+01	-1.695137e-04
3.074283e+01	-1.714775e-04
3.092040e+01	-1.734641e-04
3.109900e+01	-1.754737e-04
3.127862e+01	-1.775065e-04
3.145929e+01	-1.795630e-04
3.164099e+01	-1.816432e-04
3.182375e+01	-1.837475e-04
3.200756e+01	-1.858763e-04
3.219244e+01	-1.880297e-04
3.237838e+01	-1.902080e-04
3.256540e+01	-1.924115e-04
3.275349e+01	-1.946406e-04
3.294268e+01	-1.968955e-04
3.313295e+01	-1.991766e-04
3.332433e+01	-2.014840e-04
3.351681e+01	-2.038182e-04
3.371040e+01	-2.061795e-04
3.390511e+01	-2.085681e-04
3.410094e+01	-2.109843e-04
3.429791e+01	-2.134286e-04
3.449601e+01	-2.159011e-04
3.469526e+01	-2.184024e-04
3.489566e+01	-2.209325e-04
3.509721e+01	-2.234920e-04
3.529993e+01	-2.260812e-04
3.550382e+01	-2.287003e-04
3.570889e+01	-2.313498e-04
3.591515e+01	-2.340300e-04
3.612259e+01	-2.367412e-04
3.633123e+01	-2.394839e-04
3.654108e+01	-2.422583e-04
3.675214e+01	-2.450648e-04
3.696442e+01	-2.479039e-04
3.717792e+01	-2.507759e-04
3.739266e+01	-2.536811e-04
3.760864e+01	-2.566200e-04
3.782587e+01	-2.595929e-04
3.804435e+01	-2.626002e-04
3.826409e+01	-2.656424e-04
3.848510e+01	-2.687199e-04
3.870739e+01	-2.718330e-04
3.893096e+01	-2.749822e-04
3.915583e+01	-2.781678e-04
3.938199e+01	-2.813903e-04
3.960946e+01	-2.846502e-04
3.983824e+01	-2.879479e-04
4.006834e+01	-2.912837e-04
4.029978e+01	-2.946582e-04
4.053255e+01	-2.980718e-04
4.076666e+01	-3.015249e-04
4.100213e+01	-3.050180e-04
4.123896e+01	-3.085516e-04
4.147715e+01	-3.121261e-04
4.171672e+01	-3.157421e-04
4.195767e+01	-3.193999e-04
4.220002e+01	-3.231001e-04
4.244377e+01	-3.268432e-04
4.268892e+01	-3.306296e-04
4.293549e+01	-3.344599e-04
4.318348e+01	-3.383345e-04
4.343291e+01	-3.422541e-04
4.368377e+01	-3.462190e-04
4.393609e+01	-3.502299e-04
4.418986e+01	-3.542873e-04
4.444510e+01	-3.583916e-04
4.470182e+01	-3.625435e-04
4.496001e+01	-3.667435e-04
4.521970e+01	-3.709921e-04
4.548089e+01	-3.752900e-04
4.574358e+01	-3.796377e-04
4.600779e+01	-3.840357e-04
4.627353e+01	-3.884846e-04
4.654081e+01	-3.929851e-04
4.680963e+01	-3.975378e-04
4.708000e+01	-4.021431e-04
4.735193e+01	-4.068019e-04
4.762543e+01	-4.115145e-04
4.790051e+01	-4.162818e-04
4.817719e+01	-4.211043e-04
4.845545e+01	-4.259827e-04
4.873533e+01	-4.309176e-04
4.901682e+01	-4.359096e-04
4.929994e+01	-4.409595e-04
4.958470e+01	-4.460679e-04
4.987110e+01	-4.512354e-04
5.015915e+01	-4.564628e-04
5.044887e+01	-4.617508e-04
5.074026e+01	-4.671000e-04
5.103333e+01	-4.725112e-04
5.132810e+01	-4.779851e-04
5.162457e+01	-4.835224e-04
5.192275e+01	-4.891238e-04
5.222265e+01	-4.947901e-04
5.252429e+01	-5.005221e-04
5.282767e+01	-5.063204e-04
5.313280e+01	-5.121859e-04
5.343969e+01	-5.181194e-04
5.374836e+01	-5.241216e-04
5.405880e+01	-5.301933e-04
5.437105e+01	-5.363354e-04
5.468509e+01	-5.425486e-04
5.500095e+01	-5.488338e-04
5.531863e+01	-5.551917e-04
5.563815e+01	-5.616234e-04
5.595951e+01	-5.681295e-04
5.628273e+01	-5.747110e-04
5.660782e+01	-5.813687e-04
5.693479e+01	-5.881036e-04
5.726364e+01	-5.949165e-04
5.759439e+01	-6.018083e-04
5.792705e+01	-6.087799e-04
5.826164e+01	-6.158323e-04
5.859815e+01	-6.229664e-04
5.893662e+01	-6.301831e-04
5.927703e+01	-6.374834e-04
5.961941e+01	-6.448683e-04
5.996377e+01	-6.523387e-04
6.031012e+01	-6.598956e-04
6.065847e+01	-6.675401e-04
6.100883e+01	-6.752731e-04
6.136121e+01	-6.830957e-04
6.171563e+01	-6.910090e-04
6.207210e+01	-6.990139e-04
6.243063e+01	-7.071115e-04
6.279122e+01	-7.153029e-04
6.315390e+01	-7.235892e-04
6.351868e+01	-7.319714e-04
6.388556e+01	-7.404508e-04
6.425456e+01	-7.490284e-04
6.462569e+01	-7.577053e-04
6.499897e+01	-7.664828e-04
6.537440e+01	-7.753619e-04
6.575200e+01	-7.843439e-04
6.613178e+01	-7.934299e-04
6.651375e+01	-8.026211e-04
6.689793e+01	-8.119188e-04
6.728433e+01	-8.213243e-04
6.767297e+01	-8.308386e-04
6.806384e+01	-8.404632e-04
6.845698e+01	-8.501992e-04
6.885238e+01	-8.600480e-04
6.925007e+01	-8.700109e-04
6.965005e+01	-8.800892e-04
7.005235e+01	-8.902842e-04
7.045697e+01	-9.005974e-04
7.086393e+01	-9.110299e-04
7.127323e+01	-9.215833e-04
7.168490e+01	-9.322590e-04
7.209895e+01	-9.430583e-04
7.251539e+01	-9.539827e-04
7.293424e+01	-9.650336e-04
7.335551e+01	-9.762125e-04
7.377920e+01	-9.875209e-04
7.420535e+01	-9.989603e-04
7.463396e+01	-1.010532e-03
7.506504e+01	-1.022238e-03
7.549861e+01	-1.034080e-03
7.593469e+01	-1.046058e-03
7.637328e+01	-1.058176e-03
7.681441e+01	-1.070433e-03
7.725809e+01	-1.082833e-03
7.770433e+01	-1.095376e-03
7.815315e+01	-1.108065e-03
7.860456e+01	-1.120901e-03
7.905857e+01	-1.133885e-03
7.951521e+01	-1.147020e-03
7.997449e+01	-1.160306e-03
8.043642e+01	-1.173747e-03
8.090102e+01	-1.187343e-03
8.136830e+01	-1.201097e-03
8.183828e+01	-1.215010e-03
8.231097e+01	-1.229084e-03
8.278640e+01	-1.243322e-03
8.326457e+01	-1.257724e-03
8.374550e+01	-1.272293e-03
8.422921e+01	-1.287030e-03
8.471572e+01	-1.301939e-03
8.520503e+01	-1.317020e-03
8.569717e+01	-1.332275e-03
8.619215e+01	-1.347708e-03
8.669000e+01	-1.363319e-03
8.719071e+01	-1.379111e-03
8.769432e+01	-1.395086e-03
8.820084e+01	-1.411245e-03
8.871029e+01	-1.427592e-03
8.922267e+01	-1.444129e-03
8.973802e+01	-1.460856e-03
9.025634e+01	-1.477778e-03
9.077766e+01	-1.494896e-03
9.130199e+01	-1.512211e-03
9.182935e+01	-1.529728e-03
9.235975e+01	-1.547447e-03
9.289321e+01	-1.565371e-03
9.342976e+01	-1.583503e-03
9.396941e+01	-1.601845e-03
9.451217e+01	-1.620399e-03
9.505807e+01	-1.639168e-03
9.560712e+01	-1.658155e-03
9.615934e+01	-1.677362e-03
9.671476e+01	-1.696790e-03
9.727338e+01	-1.716444e-03
9.783522e+01	-1.736326e-03
9.840032e+01	-1.756437e-03
9.896867e+01	-1.776782e-03
9.954031e+01	-1.797362e-03
1.001153e+02	-1.818181e-03
1.006935e+02	-1.839241e-03
1.012751e+02	-1.860544e-03
1.018601e+02	-1.882094e-03
1.024484e+02	-1.903894e-03
1.030402e+02	-1.925946e-03
1.036353e+02	-1.948254e-03
1.042339e+02	-1.970820e-03
1.048360e+02	-1.993647e-03
1.054415e+02	-2.016739e-03
1.060505e+02	-2.040098e-03
1.066631e+02	-2.063727e-03
1.072791e+02	-2.087630e-03
1.078988e+02	-2.111810e-03
1.085220e+02	-2.136270e-03
1.091488e+02	-2.161013e-03
1.097793e+02	-2.186043e-03
1.104133e+02	-2.211362e-03
1.110511e+02	-2.236975e-03
1.116925e+02	-2.262884e-03
1.123376e+02	-2.289093e-03
1.129865e+02	-2.315606e-03
1.136391e+02	-2.342425e-03
1.142955e+02	-2.369556e-03
1.149556e+02	-2.397000e-03
1.156196e+02	-2.424762e-03
1.162874e+02	-2.452846e-03
1.169591e+02	-2.481254e-03
1.176347e+02	-2.509992e-03
1.183141e+02	-2.539062e-03
1.189975e+02	-2.568469e-03
1.196848e+02	-2.598217e-03
1.203761e+02	-2.628309e-03
1.210714e+02	-2.658749e-03
1.217707e+02	-2.689542e-03
1.224740e+02	-2.720691e-03
1.231814e+02	-2.752201e-03
1.238929e+02	-2.784076e-03
1.246085e+02	-2.816320e-03
1.253283e+02	-2.848937e-03
1.260522e+02	-2.881931e-03
1.267802e+02	-2.915308e-03
1.275125e+02	-2.949071e-03
1.282490e+02	-2.983225e-03
1.289898e+02	-3.017775e-03
1.297348e+02	-3.052724e-03
1.304842e+02	-3.088078e-03
1.312378e+02	-3.123841e-03
1.319959e+02	-3.160019e-03
1.327583e+02	-3.196615e-03
1.335251e+02	-3.233635e-03
1.342963e+02	-3.271083e-03
1.350720e+02	-3.308965e-03
1.358522e+02	-3.347285e-03
1.366368e+02	-3.386050e-03
1.374260e+02	-3.425262e-03
1.382198e+02	-3.464929e-03
1.390182e+02	-3.505055e-03
1.398211e+02	-3.545645e-03
1.406287e+02	-3.586705e-03
1.414410e+02	-3.628241e-03
1.422579e+02	-3.670257e-03
1.430796e+02	-3.712760e-03
1.439060e+02	-3.755755e-03
1.447372e+02	-3.799247e-03
1.455732e+02	-3.843243e-03
1.464141e+02	-3.887748e-03
1.472597e+02	-3.932768e-03
1.481103e+02	-3.978309e-03
1.489658e+02	-4.024378e-03
1.498262e+02	-4.070979e-03
1.506916e+02	-4.118120e-03
1.515620e+02	-4.165807e-03
1.524374e+02	-4.214045e-03
1.533179e+02	-4.262842e-03
1.542034e+02	-4.312203e-03
1.550941e+02	-4.362136e-03
1.559899e+02	-4.412647e-03
1.568909e+02	-4.463742e-03
1.577971e+02	-4.515429e-03
1.587085e+02	-4.567714e-03
1.596252e+02	-4.620604e-03
1.605472e+02	-4.674106e-03
1.614745e+02	-4.728227e-03
1.624072e+02	-4.782975e-03
1.633453e+02	-4.838356e-03
1.642887e+02	-4.894378e-03
1.652377e+02	-4.951048e-03
1.661921e+02	-5.008374e-03
1.671520e+02	-5.066363e-03
1.681175e+02	-5.125024e-03
1.690885e+02	-5.184363e-03
1.700651e+02	-5.244389e-03
1.710474e+02	-5.305109e-03
1.720354e+02	-5.366532e-03
1.730291e+02	-5.428666e-03
1.740285e+02	-5.491518e-03
1.750337e+02	-5.555098e-03
1.760446e+02	-5.619414e-03
1.770615e+02	-5.684473e-03
1.780842e+02	-5.750286e-03
1.791128e+02	-5.816860e-03
1.801473e+02	-5.884204e-03
1.811878e+02	-5.952327e-03
1.822344e+02	-6.021238e-03
1.832870e+02	-6.090947e-03
1.843456e+02	-6.161462e-03
1.854104e+02	-6.232793e-03
1.864813e+02	-6.304948e-03
1.875584e+02	-6.377939e-03
1.886418e+02	-6.451774e-03
1.897313e+02	-6.526463e-03
1.908272e+02	-6.602016e-03
1.919294e+02	-6.678444e-03
1.930380e+02	-6.755755e-03
1.941530e+02	-6.833960e-03
1.952744e+02	-6.913070e-03
1.964023e+02	-6.993095e-03
1.975367e+02	-7.074046e-03
1.986777e+02	-7.155933e-03
1.998252e+02	-7.238767e-03
2.009794e+02	-7.322559e-03
2.021403e+02	-7.407320e-03
2.033078e+02	-7.493061e-03
2.044821e+02	-7.579794e-03
2.056632e+02	-7.667531e-03
2.068511e+02	-7.756281e-03
2.080459e+02	-7.846058e-03
2.092475e+02	-7.936874e-03
2.104561e+02	-8.028739e-03
2.116717e+02	-8.121667e-03
2.128943e+02	-8.215669e-03
2.141240e+02	-8.310758e-03
2.153608e+02	-8.406947e-03
2.166047e+02	-8.504248e-03
2.178558e+02	-8.602674e-03
2.191141e+02	-8.702238e-03
2.203797e+02	-8.802953e-03
2.216526e+02	-8.904833e-03
2.229329e+02	-9.007890e-03
2.242205e+02	-9.112139e-03
2.255156e+02	-9.217593e-03
2.268182e+02	-9.324267e-03
2.281283e+02	-9.432173e-03
2.294459e+02	-9.541327e-03
2.307712e+02	-9.651742e-03
2.321041e+02	-9.763434e-03
2.334447e+02	-9.876417e-03
2.347931e+02	-9.990706e-03
2.361493e+02	-1.010632e-02
2.375133e+02	-1.022326e-02
2.388851e+02	-1.034156e-02
2.402649e+02	-1.046122e-02
2.416527e+02	-1.058227e-02
2.430484e+02	-1.070472e-02
2.444523e+02	-1.082858e-02
2.458642e+02	-1.095387e-02
2.472843e+02	-1.108061e-02
2.487126e+02	-1.120882e-02
2.501492e+02	-1.133851e-02
2.515940e+02	-1.146969e-02
2.530472e+02	-1.160239e-02
2.545088e+02	-1.173663e-02
2.559789e+02	-1.187241e-02
2.574574e+02	-1.200977e-02
2.589444e+02	-1.214871e-02
2.604401e+02	-1.228925e-02
2.619444e+02	-1.243142e-02
2.634574e+02	-1.257524e-02
2.649791e+02	-1.272071e-02
2.665096e+02	-1.286786e-02
2.680489e+02	-1.301672e-02
2.695972e+02	-1.316729e-02
2.711544e+02	-1.331960e-02
2.727205e+02	-1.347367e-02
2.742958e+02	-1.362952e-02
2.758801e+02	-1.378717e-02
2.774736e+02	-1.394664e-02
2.790762e+02	-1.410795e-02
2.806882e+02	-1.427113e-02
2.823094e+02	-1.443619e-02
2.839400e+02	-1.460315e-02
2.855800e+02	-1.477204e-02
2.872295e+02	-1.494289e-02
2.888886e+02	-1.511570e-02
2.905572e+02	-1.529051e-02
2.922354e+02	-1.546734e-02
2.939234e+02	-1.564621e-02
2.956211e+02	-1.582714e-02
2.973286e+02	-1.601017e-02
2.990459e+02	-1.619530e-02
3.007732e+02	-1.638257e-02
3.025104e+02	-1.657200e-02
3.042577e+02	-1.676362e-02
3.060151e+02	-1.695745e-02
3.077826e+02	-1.715352e-02
3.095604e+02	-1.735185e-02
3.113484e+02	-1.755247e-02
3.131467e+02	-1.775540e-02
3.149554e+02	-1.796068e-02
3.167746e+02	-1.816832e-02
3.186043e+02	-1.837836e-02
3.204445e+02	-1.859082e-02
3.222954e+02	-1.880573e-02
3.241570e+02	-1.902312e-02
3.260293e+02	-1.924302e-02
3.279124e+02	-1.946545e-02
3.298064e+02	-1.969045e-02
3.317114e+02	-1.991804e-02
3.336273e+02	-2.014826e-02
3.355544e+02	-2.038113e-02
3.374925e+02	-2.061669e-02
3.394418e+02	-2.085497e-02
3.414024e+02	-2.109599e-02
3.433744e+02	-2.133979e-02
3.453577e+02	-2.158640e-02
3.473525e+02	-2.183585e-02
3.493588e+02	-2.208818e-02
3.513766e+02	-2.234342e-02
3.534062e+02	-2.260160e-02
3.554474e+02	-2.286275e-02
3.575005e+02	-2.312691e-02
3.595654e+02	-2.339412e-02
3.616422e+02	-2.366441e-02
3.637311e+02	-2.393781e-02
3.658320e+02	-2.421436e-02
3.679450e+02	-2.449409e-02
3.700702e+02	-2.477705e-02
3.722077e+02	-2.506327e-02
3.743576e+02	-2.535278e-02
3.765199e+02	-2.564563e-02
3.786946e+02	-2.594185e-02
3.808820e+02	-2.624148e-02
3.830819e+02	-2.654456e-02
3.852946e+02	-2.685114e-02
3.875200e+02	-2.716124e-02
3.897583e+02	-2.747491e-02
3.920096e+02	-2.779219e-02
3.942738e+02	-2.811313e-02
3.965511e+02	-2.843775e-02
3.988416e+02	-2.876612e-02
4.011452e+02	-2.909826e-02
4.034622e+02	-2.943423e-02
4.057926e+02	-2.977406e-02
4.081365e+02	-3.011780e-02
4.104938e+02	-3.046549e-02
4.128648e+02	-3.081719e-02
4.152495e+02	-3.117293e-02
4.176480e+02	-3.153276e-02
4.200603e+02	-3.189673e-02
4.224866e+02	-3.226488e-02
4.249268e+02	-3.263727e-02
4.273812e+02	-3.301394e-02
4.298497e+02	-3.339494e-02
4.323325e+02	-3.378032e-02
4.348297e+02	-3.417013e-02
4.373412e+02	-3.456442e-02
4.398673e+02	-3.496324e-02
4.424079e+02	-3.536665e-02
4.449633e+02	-3.577469e-02
4.475334e+02	-3.618742e-02
4.501183e+02	-3.660488e-02
4.527182e+02	-3.702715e-02
4.553330e+02	-3.745426e-02
4.579630e+02	-3.788628e-02
4.606082e+02	-3.832326e-02
4.632687e+02	-3.876526e-02
4.659445e+02	-3.921234e-02
4.686358e+02	-3.966454e-02
4.713426e+02	-4.012194e-02
4.740650e+02	-4.058458e-02
4.768032e+02	-4.105254e-02
4.795572e+02	-4.152586e-02
4.823271e+02	-4.200462e-02
4.851130e+02	-4.248887e-02
4.879150e+02	-4.297867e-02
4.907332e+02	-4.347409e-02
4.935676e+02	-4.397520e-02
4.964185e+02	-4.448205e-02
4.992858e+02	-4.499471e-02
5.021696e+02	-4.551325e-02
5.050701e+02	-4.603773e-02
5.079874e+02	-4.656822e-02
5.109215e+02	-4.710480e-02
5.138726e+02	-4.764752e-02
5.168407e+02	-4.819646e-02
5.198259e+02	-4.875169e-02
5.228284e+02	-4.931327e-02
5.258482e+02	-4.988130e-02
5.288855e+02	-5.045582e-02
5.319403e+02	-5.103692e-02
5.350128e+02	-5.162468e-02
5.381030e+02	-5.221916e-02
5.412111e+02	-5.282045e-02
5.443371e+02	-5.342862e-02
5.474812e+02	-5.404375e-02
5.506434e+02	-5.466591e-02
5.538239e+02	-5.529519e-02
5.570228e+02	-5.593167e-02
5.602401e+02	-5.657543e-02
5.634760e+02	-5.722655e-02
5.667306e+02	-5.788511e-02
5.700040e+02	-5.855120e-02
5.732964e+02	-5.922490e-02
5.766077e+02	-5.990629e-02
5.799382e+02	-6.059548e-02
5.832879e+02	-6.129253e-02
5.866569e+02	-6.199755e-02
5.900454e+02	-6.271062e-02
5.934535e+02	-6.343183e-02
5.968813e+02	-6.416127e-02
6.003288e+02	-6.489904e-02
6.037963e+02	-6.564522e-02
6.072838e+02	-6.639992e-02
6.107914e+02	-6.716323e-02
6.143194e+02	-6.793524e-02
6.178676e+02	-6.871606e-02
6.214364e+02	-6.950578e-02
6.250258e+02	-7.030451e-02
6.286359e+02	-7.111233e-02
6.322669e+02	-7.192936e-02
6.359189e+02	-7.275570e-02
6.395919e+02	-7.359145e-02
6.432862e+02	-7.443672e-02
6.470017e+02	-7.529162e-02
6.507388e+02	-7.615624e-02
6.544974e+02	-7.703071e-02
6.582778e+02	-7.791513e-02
6.620800e+02	-7.880961e-02
6.659041e+02	-7.971426e-02
6.697504e+02	-8.062920e-02
6.736188e+02	-8.155455e-02
6.775096e+02	-8.249041e-02
6.814229e+02	-8.343691e-02
6.853587e+02	-8.439416e-02
6.893173e+02	-8.536229e-02
6.932988e+02	-8.634141e-02
6.973033e+02	-8.733165e-02
7.013309e+02	-8.833313e-02
