Frequency(Hz)	Magnitude(dB)
1.000000e+01	-1.475360e-05
1.005776e+01	-1.492452e-05
1.011585e+01	-1.509743e-05
1.017428e+01	-1.527233e-05
1.023305e+01	-1.544927e-05
1.029215e+01	-1.562825e-05
1.035160e+01	-1.580931e-05
1.041139e+01	-1.599246e-05
1.047153e+01	-1.617774e-05
1.053201e+01	-1.636516e-05
1.059284e+01	-1.655476e-05
1.065403e+01	-1.674655e-05
1.071556e+01	-1.694056e-05
1.077746e+01	-1.713682e-05
1.083971e+01	-1.733536e-05
1.090232e+01	-1.753619e-05
1.096529e+01	-1.773935e-05
1.102862e+01	-1.794487e-05
1.109232e+01	-1.815276e-05
1.115639e+01	-1.836307e-05
1.122083e+01	-1.857581e-05
1.128564e+01	-1.879102e-05
1.135083e+01	-1.900871e-05
1.141639e+01	-1.922893e-05
1.148233e+01	-1.945171e-05
1.154865e+01	-1.967706e-05
1.161536e+01	-1.990502e-05
1.168245e+01	-2.013563e-05
1.174992e+01	-2.036890e-05
1.181779e+01	-2.060488e-05
1.188605e+01	-2.084360e-05
1.195470e+01	-2.108507e-05
1.202375e+01	-2.132935e-05
1.209320e+01	-2.157646e-05
1.216305e+01	-2.182642e-05
1.223330e+01	-2.207929e-05
1.230396e+01	-2.233508e-05
1.237503e+01	-2.259384e-05
1.244651e+01	-2.285560e-05
1.251840e+01	-2.312038e-05
1.259070e+01	-2.338824e-05
1.266343e+01	-2.365920e-05
1.273657e+01	-2.393330e-05
1.281014e+01	-2.421057e-05
1.288413e+01	-2.449105e-05
1.295855e+01	-2.477479e-05
1.303339e+01	-2.506181e-05
1.310867e+01	-2.535216e-05
1.318439e+01	-2.564587e-05
1.326054e+01	-2.594298e-05
1.333713e+01	-2.624354e-05
1.341417e+01	-2.654758e-05
1.349165e+01	-2.685514e-05
1.356958e+01	-2.716626e-05
1.364795e+01	-2.748099e-05
1.372678e+01	-2.779936e-05
1.380607e+01	-2.812142e-05
1.388581e+01	-2.844722e-05
1.396602e+01	-2.877679e-05
1.404668e+01	-2.911017e-05
1.412782e+01	-2.944742e-05
1.420942e+01	-2.978858e-05
1.429149e+01	-3.013368e-05
1.437404e+01	-3.048279e-05
1.445706e+01	-3.083594e-05
1.454057e+01	-3.119318e-05
1.462455e+01	-3.155456e-05
1.470902e+01	-3.192013e-05
1.479398e+01	-3.228993e-05
1.487943e+01	-3.266402e-05
1.496537e+01	-3.304244e-05
1.505181e+01	-3.342524e-05
1.513875e+01	-3.381248e-05
1.522619e+01	-3.420421e-05
1.531414e+01	-3.460047e-05
1.540259e+01	-3.500133e-05
1.549156e+01	-3.540682e-05
1.558103e+01	-3.581702e-05
1.567103e+01	-3.623197e-05
1.576155e+01	-3.665173e-05
1.585258e+01	-3.707634e-05
1.594415e+01	-3.750588e-05
1.603624e+01	-3.794040e-05
1.612886e+01	-3.837994e-05
1.622202e+01	-3.882458e-05
1.631572e+01	-3.927438e-05
1.640996e+01	-3.972938e-05
1.650474e+01	-4.018965e-05
1.660008e+01	-4.065526e-05
1.669596e+01	-4.112626e-05
1.679239e+01	-4.160272e-05
1.688938e+01	-4.208469e-05
1.698694e+01	-4.257225e-05
1.708505e+01	-4.306546e-05
1.718373e+01	-4.356439e-05
1.728299e+01	-4.406909e-05
1.738281e+01	-4.457964e-05
1.748322e+01	-4.509610e-05
1.758420e+01	-4.561855e-05
1.768576e+01	-4.614705e-05
1.778792e+01	-4.668168e-05
1.789066e+01	-4.722249e-05
1.799399e+01	-4.776958e-05
1.809793e+01	-4.832300e-05
1.820246e+01	-4.888283e-05
1.830760e+01	-4.944915e-05
1.841334e+01	-5.002203e-05
1.851969e+01	-5.060154e-05
1.862666e+01	-5.118777e-05
1.873425e+01	-5.178079e-05
1.884246e+01	-5.238068e-05
1.895129e+01	-5.298753e-05
1.906075e+01	-5.360140e-05
1.917085e+01	-5.422238e-05
1.928158e+01	-5.485056e-05
1.939295e+01	-5.548601e-05
1.950496e+01	-5.612883e-05
1.961762e+01	-5.677909e-05
1.973093e+01	-5.743689e-05
1.984490e+01	-5.810231e-05
1.995952e+01	-5.877544e-05
2.007480e+01	-5.945636e-05
2.019076e+01	-6.014517e-05
2.030738e+01	-6.084197e-05
2.042467e+01	-6.154683e-05
2.054264e+01	-6.225987e-05
2.066130e+01	-6.298116e-05
2.078064e+01	-6.371081e-05
2.090066e+01	-6.444891e-05
2.102139e+01	-6.519556e-05
2.114280e+01	-6.595087e-05
2.126492e+01	-6.671492e-05
2.138775e+01	-6.748783e-05
2.151128e+01	-6.826968e-05
2.163553e+01	-6.906060e-05
2.176050e+01	-6.986068e-05
2.188619e+01	-7.067003e-05
2.201260e+01	-7.148876e-05
2.213974e+01	-7.231697e-05
2.226762e+01	-7.315477e-05
2.239624e+01	-7.400228e-05
2.252560e+01	-7.485961e-05
2.265571e+01	-7.572687e-05
2.278656e+01	-7.660418e-05
2.291818e+01	-7.749166e-05
2.305055e+01	-7.838941e-05
2.318369e+01	-7.929757e-05
2.331760e+01	-8.021624e-05
2.345228e+01	-8.114556e-05
2.358774e+01	-8.208565e-05
2.372398e+01	-8.303662e-05
2.386101e+01	-8.399861e-05
2.399883e+01	-8.497175e-05
2.413745e+01	-8.595616e-05
2.427686e+01	-8.695198e-05
2.441709e+01	-8.795933e-05
2.455812e+01	-8.897836e-05
2.469997e+01	-9.000919e-05
2.484263e+01	-9.105196e-05
2.498612e+01	-9.210681e-05
2.513044e+01	-9.317388e-05
2.527559e+01	-9.425331e-05
2.542158e+01	-9.534525e-05
2.556842e+01	-9.644984e-05
2.571610e+01	-9.756723e-05
2.586463e+01	-9.869756e-05
2.601403e+01	-9.984098e-05
2.616428e+01	-1.009977e-04
2.631541e+01	-1.021677e-04
2.646740e+01	-1.033514e-04
2.662028e+01	-1.045487e-04
2.677404e+01	-1.057599e-04
2.692868e+01	-1.069851e-04
2.708422e+01	-1.082246e-04
2.724066e+01	-1.094784e-04
2.739800e+01	-1.107467e-04
2.755625e+01	-1.120297e-04
2.771541e+01	-1.133276e-04
2.787550e+01	-1.146405e-04
2.803650e+01	-1.159686e-04
2.819844e+01	-1.173121e-04
2.836131e+01	-1.186712e-04
2.852513e+01	-1.200460e-04
2.868989e+01	-1.214368e-04
2.885560e+01	-1.228436e-04
2.902227e+01	-1.242668e-04
2.918990e+01	-1.257065e-04
2.935850e+01	-1.271628e-04
2.952807e+01	-1.286360e-04
2.969863e+01	-1.301262e-04
2.987016e+01	-1.316338e-04
3.004269e+01	-1.331587e-04
3.021622e+01	-1.347014e-04
3.039075e+01	-1.362619e-04
3.056628e+01	-1.378405e-04
3.074283e+01	-1.394374e-04
3.092040e+01	-1.410528e-04
3.109900e+01	-1.426869e-04
3.127862e+01	-1.443400e-04
3.145929e+01	-1.460122e-04
3.164099e+01	-1.477037e-04
3.182375e+01	-1.494149e-04
3.200756e+01	-1.511459e-04
3.219244e+01	-1.528969e-04
3.237838e+01	-1.546682e-04
3.256540e+01	-1.564601e-04
3.275349e+01	-1.582727e-04
3.294268e+01	-1.601063e-04
3.313295e+01	-1.619611e-04
3.332433e+01	-1.638374e-04
3.351681e+01	-1.657355e-04
3.371040e+01	-1.676556e-04
3.390511e+01	-1.695979e-04
3.410094e+01	-1.715627e-04
3.429791e+01	-1.735502e-04
3.449601e+01	-1.755608e-04
3.469526e+01	-1.775947e-04
3.489566e+01	-1.796521e-04
3.509721e+01	-1.817334e-04
3.529993e+01	-1.838388e-04
3.550382e+01	-1.859686e-04
3.570889e+01	-1.881230e-04
3.591515e+01	-1.903024e-04
3.612259e+01	-1.925071e-04
3.633123e+01	-1.947373e-04
3.654108e+01	-1.969933e-04
3.675214e+01	-1.992755e-04
3.696442e+01	-2.015841e-04
3.717792e+01	-2.039195e-04
3.739266e+01	-2.062819e-04
3.760864e+01	-2.086716e-04
3.782587e+01	-2.110891e-04
3.804435e+01	-2.135346e-04
3.826409e+01	-2.160084e-04
3.848510e+01	-2.185108e-04
3.870739e+01	-2.210423e-04
3.893096e+01	-2.236030e-04
3.915583e+01	-2.261935e-04
3.938199e+01	-2.288139e-04
3.960946e+01	-2.314647e-04
3.983824e+01	-2.341462e-04
4.006834e+01	-2.368588e-04
4.029978e+01	-2.396028e-04
4.053255e+01	-2.423786e-04
4.076666e+01	-2.451865e-04
4.100213e+01	-2.480270e-04
4.123896e+01	-2.509004e-04
4.147715e+01	-2.538071e-04
4.171672e+01	-2.567474e-04
4.195767e+01	-2.597218e-04
4.220002e+01	-2.627307e-04
4.244377e+01	-2.657744e-04
4.268892e+01	-2.688533e-04
4.293549e+01	-2.719680e-04
4.318348e+01	-2.751187e-04
4.343291e+01	-2.783059e-04
4.368377e+01	-2.815301e-04
4.393609e+01	-2.847916e-04
4.418986e+01	-2.880909e-04
4.444510e+01	-2.914284e-04
4.470182e+01	-2.948045e-04
4.496001e+01	-2.982198e-04
4.521970e+01	-3.016746e-04
4.548089e+01	-3.051695e-04
4.574358e+01	-3.087049e-04
4.600779e+01	-3.122812e-04
4.627353e+01	-3.158989e-04
4.654081e+01	-3.195585e-04
4.680963e+01	-3.232606e-04
4.708000e+01	-3.270055e-04
4.735193e+01	-3.307938e-04
4.762543e+01	-3.346260e-04
4.790051e+01	-3.385026e-04
4.817719e+01	-3.424241e-04
4.845545e+01	-3.463910e-04
4.873533e+01	-3.504039e-04
4.901682e+01	-3.544632e-04
4.929994e+01	-3.585696e-04
4.958470e+01	-3.627236e-04
4.987110e+01	-3.669256e-04
5.015915e+01	-3.711764e-04
5.044887e+01	-3.754764e-04
5.074026e+01	-3.798262e-04
5.103333e+01	-3.842264e-04
5.132810e+01	-3.886775e-04
5.162457e+01	-3.931803e-04
5.192275e+01	-3.977352e-04
5.222265e+01	-4.023428e-04
5.252429e+01	-4.070039e-04
5.282767e+01	-4.117189e-04
5.313280e+01	-4.164885e-04
5.343969e+01	-4.213134e-04
5.374836e+01	-4.261942e-04
5.405880e+01	-4.311316e-04
5.437105e+01	-4.361261e-04
5.468509e+01	-4.411785e-04
5.500095e+01	-4.462894e-04
5.531863e+01	-4.514595e-04
5.563815e+01	-4.566895e-04
5.595951e+01	-4.619801e-04
5.628273e+01	-4.673320e-04
5.660782e+01	-4.727459e-04
5.693479e+01	-4.782225e-04
5.726364e+01	-4.837625e-04
5.759439e+01	-4.893667e-04
5.792705e+01	-4.950358e-04
5.826164e+01	-5.007706e-04
5.859815e+01	-5.065718e-04
5.893662e+01	-5.124403e-04
5.927703e+01	-5.183767e-04
5.961941e+01	-5.243819e-04
5.996377e+01	-5.304566e-04
6.031012e+01	-5.366017e-04
6.065847e+01	-5.428180e-04
6.100883e+01	-5.491063e-04
6.136121e+01	-5.554674e-04
6.171563e+01	-5.619023e-04
6.207210e+01	-5.684116e-04
6.243063e+01	-5.749964e-04
6.279122e+01	-5.816574e-04
6.315390e+01	-5.883956e-04
6.351868e+01	-5.952119e-04
6.388556e+01	-6.021071e-04
6.425456e+01	-6.090822e-04
6.462569e+01	-6.161381e-04
6.499897e+01	-6.232757e-04
6.537440e+01	-6.304960e-04
6.575200e+01	-6.377999e-04
6.613178e+01	-6.451885e-04
6.651375e+01	-6.526626e-04
6.689793e+01	-6.602233e-04
6.728433e+01	-6.678716e-04
6.767297e+01	-6.756084e-04
6.806384e+01	-6.834349e-04
6.845698e+01	-6.913521e-04
6.885238e+01	-6.993610e-04
6.925007e+01	-7.074626e-04
6.965005e+01	-7.156581e-04
7.005235e+01	-7.239485e-04
7.045697e+01	-7.323349e-04
7.086393e+01	-7.408185e-04
7.127323e+01	-7.494003e-04
7.168490e+01	-7.580816e-04
7.209895e+01	-7.668634e-04
7.251539e+01	-7.757469e-04
7.293424e+01	-7.847333e-04
7.335551e+01	-7.938238e-04
7.377920e+01	-8.030197e-04
7.420535e+01	-8.123220e-04
7.463396e+01	-8.217321e-04
7.506504e+01	-8.312512e-04
7.549861e+01	-8.408805e-04
7.593469e+01	-8.506214e-04
7.637328e+01	-8.604751e-04
7.681441e+01	-8.704429e-04
7.725809e+01	-8.805262e-04
7.770433e+01	-8.907263e-04
7.815315e+01	-9.010445e-04
7.860456e+01	-9.114823e-04
7.905857e+01	-9.220409e-04
7.951521e+01	-9.327219e-04
7.997449e+01	-9.435265e-04
8.043642e+01	-9.544564e-04
8.090102e+01	-9.655128e-04
8.136830e+01	-9.766972e-04
8.183828e+01	-9.880112e-04
8.231097e+01	-9.994563e-04
8.278640e+01	-1.011034e-03
8.326457e+01	-1.022746e-03
8.374550e+01	-1.034593e-03
8.422921e+01	-1.046578e-03
8.471572e+01	-1.058701e-03
8.520503e+01	-1.070965e-03
8.569717e+01	-1.083371e-03
8.619215e+01	-1.095920e-03
8.669000e+01	-1.108615e-03
8.719071e+01	-1.121457e-03
8.769432e+01	-1.134448e-03
8.820084e+01	-1.147589e-03
8.871029e+01	-1.160882e-03
8.922267e+01	-1.174330e-03
8.973802e+01	-1.187933e-03
9.025634e+01	-1.201693e-03
9.077766e+01	-1.215613e-03
9.130199e+01	-1.229695e-03
9.182935e+01	-1.243939e-03
9.235975e+01	-1.258348e-03
9.289321e+01	-1.272924e-03
9.342976e+01	-1.287669e-03
9.396941e+01	-1.302585e-03
9.451217e+01	-1.317674e-03
9.505807e+01	-1.332937e-03
9.560712e+01	-1.348377e-03
9.615934e+01	-1.363996e-03
9.671476e+01	-1.379795e-03
9.727338e+01	-1.395778e-03
9.783522e+01	-1.411946e-03
9.840032e+01	-1.428301e-03
9.896867e+01	-1.444846e-03
9.954031e+01	-1.461582e-03
1.001153e+02	-1.478512e-03
1.006935e+02	-1.495638e-03
1.012751e+02	-1.512962e-03
1.018601e+02	-1.530487e-03
1.024484e+02	-1.548215e-03
1.030402e+02	-1.566148e-03
1.036353e+02	-1.584289e-03
1.042339e+02	-1.602640e-03
1.048360e+02	-1.621204e-03
1.054415e+02	-1.639982e-03
1.060505e+02	-1.658978e-03
1.066631e+02	-1.678194e-03
1.072791e+02	-1.697633e-03
1.078988e+02	-1.717296e-03
1.085220e+02	-1.737188e-03
1.091488e+02	-1.757309e-03
1.097793e+02	-1.777664e-03
1.104133e+02	-1.798255e-03
1.110511e+02	-1.819083e-03
1.116925e+02	-1.840154e-03
1.123376e+02	-1.861468e-03
1.129865e+02	-1.883029e-03
1.136391e+02	-1.904839e-03
1.142955e+02	-1.926902e-03
1.149556e+02	-1.949221e-03
1.156196e+02	-1.971798e-03
1.162874e+02	-1.994637e-03
1.169591e+02	-2.017740e-03
1.176347e+02	-2.041110e-03
1.183141e+02	-2.064751e-03
1.189975e+02	-2.088666e-03
1.196848e+02	-2.112858e-03
1.203761e+02	-2.137330e-03
1.210714e+02	-2.162086e-03
1.217707e+02	-2.187128e-03
1.224740e+02	-2.212460e-03
1.231814e+02	-2.238085e-03
1.238929e+02	-2.264007e-03
1.246085e+02	-2.290229e-03
1.253283e+02	-2.316755e-03
1.260522e+02	-2.343588e-03
1.267802e+02	-2.370732e-03
1.275125e+02	-2.398190e-03
1.282490e+02	-2.425965e-03
1.289898e+02	-2.454063e-03
1.297348e+02	-2.482486e-03
1.304842e+02	-2.511238e-03
1.312378e+02	-2.540322e-03
1.319959e+02	-2.569744e-03
1.327583e+02	-2.599506e-03
1.335251e+02	-2.629613e-03
1.342963e+02	-2.660069e-03
1.350720e+02	-2.690877e-03
1.358522e+02	-2.722041e-03
1.366368e+02	-2.753567e-03
1.374260e+02	-2.785457e-03
1.382198e+02	-2.817717e-03
1.390182e+02	-2.850350e-03
1.398211e+02	-2.883361e-03
1.406287e+02	-2.916755e-03
1.414410e+02	-2.950535e-03
1.422579e+02	-2.984706e-03
1.430796e+02	-3.019272e-03
1.439060e+02	-3.054239e-03
1.447372e+02	-3.089610e-03
1.455732e+02	-3.125391e-03
1.464141e+02	-3.161587e-03
1.472597e+02	-3.198201e-03
1.481103e+02	-3.235239e-03
1.489658e+02	-3.272706e-03
1.498262e+02	-3.310607e-03
1.506916e+02	-3.348946e-03
1.515620e+02	-3.387729e-03
1.524374e+02	-3.426962e-03
1.533179e+02	-3.466648e-03
1.542034e+02	-3.506794e-03
1.550941e+02	-3.547404e-03
1.559899e+02	-3.588485e-03
1.568909e+02	-3.630041e-03
1.577971e+02	-3.672078e-03
1.587085e+02	-3.714602e-03
1.596252e+02	-3.757618e-03
1.605472e+02	-3.801132e-03
1.614745e+02	-3.845149e-03
1.624072e+02	-3.889676e-03
1.633453e+02	-3.934719e-03
1.642887e+02	-3.980283e-03
1.652377e+02	-4.026374e-03
1.661921e+02	-4.072998e-03
1.671520e+02	-4.120163e-03
1.681175e+02	-4.167873e-03
1.690885e+02	-4.216135e-03
1.700651e+02	-4.264956e-03
1.710474e+02	-4.314342e-03
1.720354e+02	-4.364300e-03
1.730291e+02	-4.414836e-03
1.740285e+02	-4.465956e-03
1.750337e+02	-4.517669e-03
1.760446e+02	-4.569979e-03
1.770615e+02	-4.622895e-03
1.780842e+02	-4.676424e-03
1.791128e+02	-4.730572e-03
1.801473e+02	-4.785347e-03
1.811878e+02	-4.840755e-03
1.822344e+02	-4.896805e-03
1.832870e+02	-4.953503e-03
1.843456e+02	-5.010857e-03
1.854104e+02	-5.068876e-03
1.864813e+02	-5.127565e-03
1.875584e+02	-5.186934e-03
1.886418e+02	-5.246989e-03
1.897313e+02	-5.307740e-03
1.908272e+02	-5.369193e-03
1.919294e+02	-5.431357e-03
1.930380e+02	-5.494241e-03
1.941530e+02	-5.557853e-03
1.952744e+02	-5.622200e-03
1.964023e+02	-5.687292e-03
1.975367e+02	-5.753137e-03
1.986777e+02	-5.819743e-03
1.998252e+02	-5.887121e-03
2.009794e+02	-5.955278e-03
2.021403e+02	-6.024223e-03
2.033078e+02	-6.093966e-03
2.044821e+02	-6.164516e-03
2.056632e+02	-6.235882e-03
2.068511e+02	-6.308074e-03
2.080459e+02	-6.381101e-03
2.092475e+02	-6.454972e-03
2.104561e+02	-6.529698e-03
2.116717e+02	-6.605289e-03
2.128943e+02	-6.681754e-03
2.141240e+02	-6.759103e-03
2.153608e+02	-6.837347e-03
2.166047e+02	-6.916496e-03
2.178558e+02	-6.996561e-03
2.191141e+02	-7.077551e-03
2.203797e+02	-7.159479e-03
2.216526e+02	-7.242354e-03
2.229329e+02	-7.326187e-03
2.242205e+02	-7.410990e-03
2.255156e+02	-7.496774e-03
2.268182e+02	-7.583550e-03
2.281283e+02	-7.671330e-03
2.294459e+02	-7.760124e-03
2.307712e+02	-7.849946e-03
2.321041e+02	-7.940806e-03
2.334447e+02	-8.032717e-03
2.347931e+02	-8.125690e-03
2.361493e+02	-8.219739e-03
2.375133e+02	-8.314876e-03
2.388851e+02	-8.411112e-03
2.402649e+02	-8.508461e-03
2.416527e+02	-8.606936e-03
2.430484e+02	-8.706549e-03
2.444523e+02	-8.807314e-03
2.458642e+02	-8.909244e-03
2.472843e+02	-9.012352e-03
2.487126e+02	-9.116652e-03
2.501492e+02	-9.222158e-03
2.515940e+02	-9.328884e-03
2.530472e+02	-9.436844e-03
2.545088e+02	-9.546051e-03
2.559789e+02	-9.656521e-03
2.574574e+02	-9.768268e-03
2.589444e+02	-9.881307e-03
2.604401e+02	-9.995652e-03
2.619444e+02	-1.011132e-02
2.634574e+02	-1.022832e-02
2.649791e+02	-1.034668e-02
2.665096e+02	-1.046640e-02
2.680489e+02	-1.058751e-02
2.695972e+02	-1.071002e-02
2.711544e+02	-1.083394e-02
2.727205e+02	-1.095930e-02
2.742958e+02	-1.108610e-02
2.758801e+02	-1.121437e-02
2.774736e+02	-1.134412e-02
2.790762e+02	-1.147537e-02
2.806882e+02	-1.160814e-02
2.823094e+02	-1.174244e-02
2.839400e+02	-1.187829e-02
2.855800e+02	-1.201571e-02
2.872295e+02	-1.215472e-02
2.888886e+02	-1.229533e-02
2.905572e+02	-1.243757e-02
2.922354e+02	-1.258146e-02
2.939234e+02	-1.272700e-02
2.956211e+02	-1.287423e-02
2.973286e+02	-1.302315e-02
2.990459e+02	-1.317380e-02
3.007732e+02	-1.332619e-02
3.025104e+02	-1.348034e-02
3.042577e+02	-1.363626e-02
3.060151e+02	-1.379399e-02
3.077826e+02	-1.395354e-02
3.095604e+02	-1.411493e-02
3.113484e+02	-1.427819e-02
3.131467e+02	-1.444333e-02
3.149554e+02	-1.461037e-02
3.167746e+02	-1.477935e-02
3.186043e+02	-1.495027e-02
3.204445e+02	-1.512317e-02
3.222954e+02	-1.529807e-02
3.241570e+02	-1.547499e-02
3.260293e+02	-1.565394e-02
3.279124e+02	-1.583497e-02
3.298064e+02	-1.601808e-02
3.317114e+02	-1.620330e-02
3.336273e+02	-1.639067e-02
3.355544e+02	-1.658019e-02
3.374925e+02	-1.677191e-02
3.394418e+02	-1.696583e-02
3.414024e+02	-1.716200e-02
3.433744e+02	-1.736042e-02
3.453577e+02	-1.756114e-02
3.473525e+02	-1.776417e-02
3.493588e+02	-1.796955e-02
3.513766e+02	-1.817729e-02
3.534062e+02	-1.838743e-02
3.554474e+02	-1.860000e-02
3.575005e+02	-1.881501e-02
3.595654e+02	-1.903251e-02
3.616422e+02	-1.925252e-02
3.637311e+02	-1.947506e-02
3.658320e+02	-1.970017e-02
3.679450e+02	-1.992787e-02
3.700702e+02	-2.015821e-02
3.722077e+02	-2.039119e-02
3.743576e+02	-2.062687e-02
3.765199e+02	-2.086526e-02
3.786946e+02	-2.110640e-02
3.808820e+02	-2.135032e-02
3.830819e+02	-2.159705e-02
3.852946e+02	-2.184662e-02
3.875200e+02	-2.209908e-02
3.897583e+02	-2.235444e-02
3.920096e+02	-2.261274e-02
3.942738e+02	-2.287402e-02
3.965511e+02	-2.313832e-02
3.988416e+02	-2.340565e-02
4.011452e+02	-2.367607e-02
4.034622e+02	-2.394961e-02
4.057926e+02	-2.422629e-02
4.081365e+02	-2.450616e-02
4.104938e+02	-2.478926e-02
4.128648e+02	-2.507562e-02
4.152495e+02	-2.536527e-02
4.176480e+02	-2.565827e-02
4.200603e+02	-2.595463e-02
4.224866e+02	-2.625441e-02
4.249268e+02	-2.655764e-02
4.273812e+02	-2.686436e-02
4.298497e+02	-2.717462e-02
4.323325e+02	-2.748844e-02
4.348297e+02	-2.780588e-02
4.373412e+02	-2.812697e-02
4.398673e+02	-2.845175e-02
4.424079e+02	-2.878028e-02
4.449633e+02	-2.911258e-02
4.475334e+02	-2.944871e-02
4.501183e+02	-2.978871e-02
4.527182e+02	-3.013262e-02
4.553330e+02	-3.048048e-02
4.579630e+02	-3.083235e-02
4.606082e+02	-3.118826e-02
4.632687e+02	-3.154827e-02
4.659445e+02	-3.191241e-02
4.686358e+02	-3.228075e-02
4.713426e+02	-3.265332e-02
4.740650e+02	-3.303017e-02
4.768032e+02	-3.341136e-02
4.795572e+02	-3.379692e-02
4.823271e+02	-3.418692e-02
4.851130e+02	-3.458141e-02
4.879150e+02	-3.498042e-02
4.907332e+02	-3.538402e-02
4.935676e+02	-3.579226e-02
4.964185e+02	-3.620519e-02
4.992858e+02	-3.662286e-02
5.021696e+02	-3.704533e-02
5.050701e+02	-3.747265e-02
5.079874e+02	-3.790488e-02
5.109215e+02	-3.834207e-02
5.138726e+02	-3.878429e-02
5.168407e+02	-3.923158e-02
5.198259e+02	-3.968400e-02
5.228284e+02	-4.014162e-02
5.258482e+02	-4.060449e-02
5.288855e+02	-4.107267e-02
5.319403e+02	-4.154622e-02
5.350128e+02	-4.202521e-02
5.381030e+02	-4.250969e-02
5.412111e+02	-4.299974e-02
5.443371e+02	-4.349540e-02
5.474812e+02	-4.399674e-02
5.506434e+02	-4.450384e-02
5.538239e+02	-4.501674e-02
5.570228e+02	-4.553553e-02
5.602401e+02	-4.606027e-02
5.634760e+02	-4.659102e-02
5.667306e+02	-4.712785e-02
5.700040e+02	-4.767083e-02
5.732964e+02	-4.822004e-02
5.766077e+02	-4.877553e-02
5.799382e+02	-4.933739e-02
5.832879e+02	-4.990569e-02
5.866569e+02	-5.048049e-02
5.900454e+02	-5.106187e-02
5.934535e+02	-5.164991e-02
5.968813e+02	-5.224468e-02
6.003288e+02	-5.284626e-02
6.037963e+02	-5.345472e-02
6.072838e+02	-5.407014e-02
6.107914e+02	-5.469260e-02
6.143194e+02	-5.532219e-02
6.178676e+02	-5.595897e-02
6.214364e+02	-5.660304e-02
6.250258e+02	-5.725447e-02
6.286359e+02	-5.791334e-02
6.322669e+02	-5.857975e-02
6.359189e+02	-5.925377e-02
6.395919e+02	-5.993550e-02
6.432862e+02	-6.062501e-02
6.470017e+02	-6.132240e-02
6.507388e+02	-6.202775e-02
6.544974e+02	-6.274116e-02
6.582778e+02	-6.346271e-02
6.620800e+02	-6.419250e-02
6.659041e+02	-6.493062e-02
6.697504e+02	-6.567716e-02
6.736188e+02	-6.643222e-02
6.775096e+02	-6.719590e-02
6.814229e+02	-6.796828e-02
6.853587e+02	-6.874947e-02
6.893173e+02	-6.953956e-02
6.932988e+02	-7.033867e-02
6.973033e+02	-7.114688e-02
7.013309e+02	-7.196429e-02
