Frequency(Hz)	Magnitude(dB)
1.000000e+01	-2.247064e+00
1.005776e+01	-2.267293e+00
1.011585e+01	-2.287505e+00
1.017428e+01	-2.308054e+00
1.023305e+01	-2.328983e+00
1.029215e+01	-2.349877e+00
1.035160e+01	-2.370886e+00
1.041139e+01	-2.391843e+00
1.047153e+01	-2.413036e+00
1.053201e+01	-2.434414e+00
1.059284e+01	-2.456073e+00
1.065403e+01	-2.477564e+00
1.071556e+01	-2.499743e+00
1.077746e+01	-2.521407e+00
1.083971e+01	-2.543746e+00
1.090232e+01	-2.565661e+00
1.096529e+01	-2.588232e+00
1.102862e+01	-2.610557e+00
1.109232e+01	-2.633295e+00
1.115639e+01	-2.656513e+00
1.122083e+01	-2.679352e+00
1.128564e+01	-2.702075e+00
1.135083e+01	-2.725363e+00
1.141639e+01	-2.748800e+00
1.148233e+01	-2.772360e+00
1.154865e+01	-2.796192e+00
1.161536e+01	-2.820094e+00
1.168245e+01	-2.843736e+00
1.174992e+01	-2.867811e+00
1.181779e+01	-2.892321e+00
1.188605e+01	-2.916835e+00
1.195470e+01	-2.941351e+00
1.202375e+01	-2.966231e+00
1.209320e+01	-2.990810e+00
1.216305e+01	-3.015609e+00
1.223330e+01	-3.040923e+00
1.230396e+01	-3.065922e+00
1.237503e+01	-3.091487e+00
1.244651e+01	-3.117282e+00
1.251840e+01	-3.142766e+00
1.259070e+01	-3.168436e+00
1.266343e+01	-3.194636e+00
1.273657e+01	-3.220622e+00
1.281014e+01	-3.246695e+00
1.288413e+01	-3.273269e+00
1.295855e+01	-3.299678e+00
1.303339e+01	-3.326611e+00
1.310867e+01	-3.353397e+00
1.318439e+01	-3.380288e+00
1.326054e+01	-3.407648e+00
1.333713e+01	-3.434807e+00
1.341417e+01	-3.462299e+00
1.349165e+01	-3.489857e+00
1.356958e+01	-3.517398e+00
1.364795e+01	-3.545204e+00
1.372678e+01	-3.573297e+00
1.380607e+01	-3.601475e+00
1.388581e+01	-3.629644e+00
1.396602e+01	-3.658119e+00
1.404668e+01	-3.686459e+00
1.412782e+01	-3.715501e+00
1.420942e+01	-3.744256e+00
1.429149e+01	-3.772913e+00
1.437404e+01	-3.802194e+00
1.445706e+01	-3.831474e+00
1.454057e+01	-3.860601e+00
1.462455e+01	-3.890254e+00
1.470902e+01	-3.920047e+00
1.479398e+01	-3.949902e+00
1.487943e+01	-3.979623e+00
1.496537e+01	-4.010065e+00
1.505181e+01	-4.040166e+00
1.513875e+01	-4.070471e+00
1.522619e+01	-4.100933e+00
1.531414e+01	-4.131944e+00
1.540259e+01	-4.162551e+00
1.549156e+01	-4.193484e+00
1.558103e+01	-4.224285e+00
1.567103e+01	-4.255800e+00
1.576155e+01	-4.286761e+00
1.585258e+01	-4.318255e+00
1.594415e+01	-4.350102e+00
1.603624e+01	-4.381930e+00
1.612886e+01	-4.413235e+00
1.622202e+01	-4.445545e+00
1.631572e+01	-4.477802e+00
1.640996e+01	-4.509832e+00
1.650474e+01	-4.542247e+00
1.660008e+01	-4.574556e+00
1.669596e+01	-4.607135e+00
1.679239e+01	-4.639903e+00
1.688938e+01	-4.673060e+00
1.698694e+01	-4.705919e+00
1.708505e+01	-4.739238e+00
1.718373e+01	-4.772591e+00
1.728299e+01	-4.806162e+00
1.738281e+01	-4.839441e+00
1.748322e+01	-4.873074e+00
1.758420e+01	-4.907158e+00
1.768576e+01	-4.940940e+00
1.778792e+01	-4.974757e+00
1.789066e+01	-5.009266e+00
1.799399e+01	-5.043260e+00
1.809793e+01	-5.077719e+00
1.820246e+01	-5.112364e+00
1.830760e+01	-5.147110e+00
1.841334e+01	-5.181979e+00
1.851969e+01	-5.216695e+00
1.862666e+01	-5.252046e+00
1.873425e+01	-5.286964e+00
1.884246e+01	-5.322134e+00
1.895129e+01	-5.357498e+00
1.906075e+01	-5.392876e+00
1.917085e+01	-5.428843e+00
1.928158e+01	-5.464694e+00
1.939295e+01	-5.500354e+00
1.950496e+01	-5.536445e+00
1.961762e+01	-5.572831e+00
1.973093e+01	-5.608690e+00
1.984490e+01	-5.644933e+00
1.995952e+01	-5.681351e+00
2.007480e+01	-5.718218e+00
2.019076e+01	-5.754835e+00
2.030738e+01	-5.791461e+00
2.042467e+01	-5.828722e+00
2.054264e+01	-5.865244e+00
2.066130e+01	-5.902719e+00
2.078064e+01	-5.939515e+00
2.090066e+01	-5.977149e+00
2.102139e+01	-6.014400e+00
2.114280e+01	-6.051963e+00
2.126492e+01	-6.090120e+00
2.138775e+01	-6.127563e+00
2.151128e+01	-6.165316e+00
2.163553e+01	-6.203357e+00
2.176050e+01	-6.241559e+00
2.188619e+01	-6.279739e+00
2.201260e+01	-6.317736e+00
2.213974e+01	-6.356432e+00
2.226762e+01	-6.394629e+00
2.239624e+01	-6.434048e+00
2.252560e+01	-6.472143e+00
2.265571e+01	-6.511079e+00
2.278656e+01	-6.549966e+00
2.291818e+01	-6.588729e+00
2.305055e+01	-6.627780e+00
2.318369e+01	-6.667272e+00
2.331760e+01	-6.706327e+00
2.345228e+01	-6.745647e+00
2.358774e+01	-6.785501e+00
2.372398e+01	-6.824957e+00
2.386101e+01	-6.864503e+00
2.399883e+01	-6.904409e+00
2.413745e+01	-6.944485e+00
2.427686e+01	-6.984266e+00
2.441709e+01	-7.024151e+00
2.455812e+01	-7.064547e+00
2.469997e+01	-7.104858e+00
2.484263e+01	-7.145090e+00
2.498612e+01	-7.185514e+00
2.513044e+01	-7.226195e+00
2.527559e+01	-7.266531e+00
2.542158e+01	-7.307241e+00
2.556842e+01	-7.348156e+00
2.571610e+01	-7.389047e+00
2.586463e+01	-7.429605e+00
2.601403e+01	-7.470651e+00
2.616428e+01	-7.511421e+00
2.631541e+01	-7.552739e+00
2.646740e+01	-7.594281e+00
2.662028e+01	-7.635718e+00
2.677404e+01	-7.677509e+00
2.692868e+01	-7.718462e+00
2.708422e+01	-7.759932e+00
2.724066e+01	-7.801884e+00
2.739800e+01	-7.843914e+00
2.755625e+01	-7.885585e+00
2.771541e+01	-7.927709e+00
2.787550e+01	-7.969590e+00
2.803650e+01	-8.011820e+00
2.819844e+01	-8.054154e+00
2.836131e+01	-8.096144e+00
2.852513e+01	-8.138256e+00
2.868989e+01	-8.180918e+00
2.885560e+01	-8.223346e+00
2.902227e+01	-8.265356e+00
2.918990e+01	-8.308605e+00
2.935850e+01	-8.351386e+00
2.952807e+01	-8.393567e+00
2.969863e+01	-8.436332e+00
2.987016e+01	-8.478977e+00
3.004269e+01	-8.522430e+00
3.021622e+01	-8.565664e+00
3.039075e+01	-8.608935e+00
3.056628e+01	-8.652135e+00
3.074283e+01	-8.694761e+00
3.092040e+01	-8.738397e+00
3.109900e+01	-8.781519e+00
3.127862e+01	-8.824999e+00
3.145929e+01	-8.868352e+00
3.164099e+01	-8.912334e+00
3.182375e+01	-8.955400e+00
3.200756e+01	-8.999608e+00
3.219244e+01	-9.042765e+00
3.237838e+01	-9.086984e+00
3.256540e+01	-9.130951e+00
3.275349e+01	-9.174968e+00
3.294268e+01	-9.218630e+00
3.313295e+01	-9.263276e+00
3.332433e+01	-9.306818e+00
3.351681e+01	-9.351075e+00
3.371040e+01	-9.396014e+00
3.390511e+01	-9.440034e+00
3.410094e+01	-9.484294e+00
3.429791e+01	-9.528741e+00
3.449601e+01	-9.573540e+00
3.469526e+01	-9.617788e+00
3.489566e+01	-9.662335e+00
3.509721e+01	-9.706633e+00
3.529993e+01	-9.751728e+00
3.550382e+01	-9.796286e+00
3.570889e+01	-9.841310e+00
3.591515e+01	-9.886328e+00
3.612259e+01	-9.931332e+00
3.633123e+01	-9.975918e+00
3.654108e+01	-1.002122e+01
3.675214e+01	-1.006645e+01
3.696442e+01	-1.011136e+01
3.717792e+01	-1.015610e+01
3.739266e+01	-1.020106e+01
3.760864e+01	-1.024640e+01
3.782587e+01	-1.029194e+01
3.804435e+01	-1.033736e+01
3.826409e+01	-1.038306e+01
3.848510e+01	-1.042844e+01
3.870739e+01	-1.047404e+01
3.893096e+01	-1.051976e+01
3.915583e+01	-1.056508e+01
3.938199e+01	-1.060993e+01
3.960946e+01	-1.065631e+01
3.983824e+01	-1.070195e+01
4.006834e+01	-1.074781e+01
4.029978e+01	-1.079409e+01
4.053255e+01	-1.083970e+01
4.076666e+01	-1.088594e+01
4.100213e+01	-1.093135e+01
4.123896e+01	-1.097775e+01
4.147715e+01	-1.102322e+01
4.171672e+01	-1.106996e+01
4.195767e+01	-1.111569e+01
4.220002e+01	-1.116187e+01
4.244377e+01	-1.120845e+01
4.268892e+01	-1.125451e+01
4.293549e+01	-1.130091e+01
4.318348e+01	-1.134693e+01
4.343291e+01	-1.139387e+01
4.368377e+01	-1.143968e+01
4.393609e+01	-1.148642e+01
4.418986e+01	-1.153281e+01
4.444510e+01	-1.157931e+01
4.470182e+01	-1.162655e+01
4.496001e+01	-1.167321e+01
4.521970e+01	-1.171915e+01
4.548089e+01	-1.176567e+01
4.574358e+01	-1.181279e+01
4.600779e+01	-1.185970e+01
4.627353e+01	-1.190659e+01
4.654081e+01	-1.195305e+01
4.680963e+01	-1.199989e+01
4.708000e+01	-1.204676e+01
4.735193e+01	-1.209357e+01
4.762543e+01	-1.214055e+01
4.790051e+01	-1.218771e+01
4.817719e+01	-1.223443e+01
4.845545e+01	-1.228117e+01
4.873533e+01	-1.232918e+01
4.901682e+01	-1.237574e+01
4.929994e+01	-1.242267e+01
4.958470e+01	-1.246988e+01
4.987110e+01	-1.251739e+01
5.015915e+01	-1.256513e+01
5.044887e+01	-1.261192e+01
5.074026e+01	-1.265947e+01
5.103333e+01	-1.270632e+01
5.132810e+01	-1.275457e+01
5.162457e+01	-1.280113e+01
5.192275e+01	-1.284897e+01
5.222265e+01	-1.289622e+01
5.252429e+01	-1.294332e+01
5.282767e+01	-1.299127e+01
5.313280e+01	-1.303832e+01
5.343969e+01	-1.308629e+01
5.374836e+01	-1.313405e+01
5.405880e+01	-1.318069e+01
5.437105e+01	-1.322821e+01
5.468509e+01	-1.327645e+01
5.500095e+01	-1.332469e+01
5.531863e+01	-1.337248e+01
5.563815e+01	-1.341951e+01
5.595951e+01	-1.346827e+01
5.628273e+01	-1.351498e+01
5.660782e+01	-1.356300e+01
5.693479e+01	-1.361084e+01
5.726364e+01	-1.365945e+01
5.759439e+01	-1.370658e+01
5.792705e+01	-1.375492e+01
5.826164e+01	-1.380259e+01
5.859815e+01	-1.385010e+01
5.893662e+01	-1.389917e+01
5.927703e+01	-1.394609e+01
5.961941e+01	-1.399463e+01
5.996377e+01	-1.404253e+01
6.031012e+01	-1.409124e+01
6.065847e+01	-1.413844e+01
6.100883e+01	-1.418633e+01
6.136121e+01	-1.423462e+01
6.171563e+01	-1.428331e+01
6.207210e+01	-1.433182e+01
6.243063e+01	-1.437951e+01
6.279122e+01	-1.442742e+01
6.315390e+01	-1.447581e+01
6.351868e+01	-1.452440e+01
6.388556e+01	-1.457243e+01
6.425456e+01	-1.462119e+01
6.462569e+01	-1.466845e+01
6.499897e+01	-1.471695e+01
6.537440e+01	-1.476559e+01
6.575200e+01	-1.481405e+01
6.613178e+01	-1.486395e+01
6.651375e+01	-1.491096e+01
6.689793e+01	-1.495965e+01
6.728433e+01	-1.500867e+01
6.767297e+01	-1.505654e+01
6.806384e+01	-1.510534e+01
6.845698e+01	-1.515277e+01
6.885238e+01	-1.520183e+01
6.925007e+01	-1.525017e+01
6.965005e+01	-1.529879e+01
7.005235e+01	-1.534759e+01
7.045697e+01	-1.539578e+01
7.086393e+01	-1.544472e+01
7.127323e+01	-1.549425e+01
7.168490e+01	-1.554274e+01
7.209895e+01	-1.559039e+01
7.251539e+01	-1.563938e+01
7.293424e+01	-1.568829e+01
7.335551e+01	-1.573581e+01
7.377920e+01	-1.578463e+01
7.420535e+01	-1.583408e+01
7.463396e+01	-1.588313e+01
7.506504e+01	-1.593057e+01
7.549861e+01	-1.597926e+01
7.593469e+01	-1.602941e+01
7.637328e+01	-1.607747e+01
7.681441e+01	-1.612553e+01
7.725809e+01	-1.617541e+01
7.770433e+01	-1.622381e+01
7.815315e+01	-1.627337e+01
7.860456e+01	-1.632134e+01
7.905857e+01	-1.637025e+01
7.951521e+01	-1.641979e+01
7.997449e+01	-1.646776e+01
8.043642e+01	-1.651739e+01
8.090102e+01	-1.656478e+01
8.136830e+01	-1.661621e+01
8.183828e+01	-1.666417e+01
8.231097e+01	-1.671292e+01
8.278640e+01	-1.676284e+01
8.326457e+01	-1.681145e+01
8.374550e+01	-1.686037e+01
8.422921e+01	-1.690940e+01
8.471572e+01	-1.695795e+01
8.520503e+01	-1.700728e+01
8.569717e+01	-1.705716e+01
8.619215e+01	-1.710540e+01
8.669000e+01	-1.715417e+01
8.719071e+01	-1.720346e+01
8.769432e+01	-1.725344e+01
8.820084e+01	-1.730127e+01
8.871029e+01	-1.734927e+01
8.922267e+01	-1.739921e+01
8.973802e+01	-1.744913e+01
9.025634e+01	-1.749781e+01
9.077766e+01	-1.754741e+01
9.130199e+01	-1.759681e+01
9.182935e+01	-1.764497e+01
9.235975e+01	-1.769508e+01
9.289321e+01	-1.774360e+01
9.342976e+01	-1.779290e+01
9.396941e+01	-1.784287e+01
9.451217e+01	-1.789113e+01
9.505807e+01	-1.794249e+01
9.560712e+01	-1.799051e+01
9.615934e+01	-1.803999e+01
9.671476e+01	-1.808891e+01
9.727338e+01	-1.813774e+01
9.783522e+01	-1.818843e+01
9.840032e+01	-1.823614e+01
9.896867e+01	-1.828485e+01
9.954031e+01	-1.833552e+01
1.001153e+02	-1.838343e+01
1.006935e+02	-1.843335e+01
1.012751e+02	-1.848209e+01
1.018601e+02	-1.853095e+01
1.024484e+02	-1.858050e+01
1.030402e+02	-1.863071e+01
1.036353e+02	-1.868063e+01
1.042339e+02	-1.873070e+01
1.048360e+02	-1.878035e+01
1.054415e+02	-1.882914e+01
1.060505e+02	-1.887839e+01
1.066631e+02	-1.892481e+01
1.072791e+02	-1.897617e+01
1.078988e+02	-1.902510e+01
1.085220e+02	-1.907371e+01
1.091488e+02	-1.912383e+01
1.097793e+02	-1.917401e+01
1.104133e+02	-1.922341e+01
1.110511e+02	-1.927174e+01
1.116925e+02	-1.932253e+01
1.123376e+02	-1.937097e+01
1.129865e+02	-1.942137e+01
1.136391e+02	-1.947086e+01
1.142955e+02	-1.952141e+01
1.149556e+02	-1.957011e+01
1.156196e+02	-1.962018e+01
1.162874e+02	-1.966867e+01
1.169591e+02	-1.971832e+01
1.176347e+02	-1.976913e+01
1.183141e+02	-1.981884e+01
1.189975e+02	-1.986625e+01
1.196848e+02	-1.991554e+01
1.203761e+02	-1.996528e+01
1.210714e+02	-2.001541e+01
1.217707e+02	-2.006398e+01
1.224740e+02	-2.011381e+01
1.231814e+02	-2.016349e+01
1.238929e+02	-2.021448e+01
1.246085e+02	-2.026271e+01
1.253283e+02	-2.031182e+01
1.260522e+02	-2.036035e+01
1.267802e+02	-2.041174e+01
1.275125e+02	-2.046095e+01
1.282490e+02	-2.051084e+01
1.289898e+02	-2.056126e+01
1.297348e+02	-2.061101e+01
1.304842e+02	-2.066033e+01
1.312378e+02	-2.070926e+01
1.319959e+02	-2.075901e+01
1.327583e+02	-2.080853e+01
1.335251e+02	-2.085819e+01
1.342963e+02	-2.090630e+01
1.350720e+02	-2.095821e+01
1.358522e+02	-2.100652e+01
1.366368e+02	-2.105688e+01
1.374260e+02	-2.110758e+01
1.382198e+02	-2.115514e+01
1.390182e+02	-2.120307e+01
1.398211e+02	-2.125377e+01
1.406287e+02	-2.130472e+01
1.414410e+02	-2.135469e+01
1.422579e+02	-2.140393e+01
1.430796e+02	-2.145287e+01
1.439060e+02	-2.150360e+01
1.447372e+02	-2.155346e+01
1.455732e+02	-2.160388e+01
1.464141e+02	-2.165329e+01
1.472597e+02	-2.170325e+01
1.481103e+02	-2.175293e+01
1.489658e+02	-2.179974e+01
1.498262e+02	-2.185089e+01
1.506916e+02	-2.189904e+01
1.515620e+02	-2.195190e+01
1.524374e+02	-2.200168e+01
1.533179e+02	-2.204809e+01
1.542034e+02	-2.210032e+01
1.550941e+02	-2.214994e+01
1.559899e+02	-2.219909e+01
1.568909e+02	-2.224973e+01
1.577971e+02	-2.229858e+01
1.587085e+02	-2.234790e+01
1.596252e+02	-2.239750e+01
1.605472e+02	-2.244847e+01
1.614745e+02	-2.249800e+01
1.624072e+02	-2.254610e+01
1.633453e+02	-2.259559e+01
1.642887e+02	-2.264614e+01
1.652377e+02	-2.269757e+01
1.661921e+02	-2.274651e+01
1.671520e+02	-2.279650e+01
1.681175e+02	-2.284589e+01
1.690885e+02	-2.289480e+01
1.700651e+02	-2.294550e+01
1.710474e+02	-2.299541e+01
1.720354e+02	-2.304720e+01
1.730291e+02	-2.309621e+01
1.740285e+02	-2.314542e+01
1.750337e+02	-2.319335e+01
1.760446e+02	-2.324450e+01
1.770615e+02	-2.329396e+01
1.780842e+02	-2.334385e+01
1.791128e+02	-2.339299e+01
1.801473e+02	-2.344345e+01
1.811878e+02	-2.349214e+01
1.822344e+02	-2.354610e+01
1.832870e+02	-2.359470e+01
1.843456e+02	-2.364546e+01
1.854104e+02	-2.369332e+01
1.864813e+02	-2.374347e+01
1.875584e+02	-2.379440e+01
1.886418e+02	-2.384333e+01
1.897313e+02	-2.389262e+01
1.908272e+02	-2.394336e+01
1.919294e+02	-2.399327e+01
1.930380e+02	-2.404383e+01
1.941530e+02	-2.409355e+01
1.952744e+02	-2.414316e+01
1.964023e+02	-2.419193e+01
1.975367e+02	-2.423974e+01
1.986777e+02	-2.429079e+01
1.998252e+02	-2.434144e+01
2.009794e+02	-2.438830e+01
2.021403e+02	-2.444253e+01
2.033078e+02	-2.449045e+01
2.044821e+02	-2.454041e+01
2.056632e+02	-2.459122e+01
2.068511e+02	-2.464170e+01
2.080459e+02	-2.468995e+01
2.092475e+02	-2.473952e+01
2.104561e+02	-2.479097e+01
2.116717e+02	-2.483882e+01
2.128943e+02	-2.488788e+01
2.141240e+02	-2.494070e+01
2.153608e+02	-2.498787e+01
2.166047e+02	-2.503875e+01
2.178558e+02	-2.509155e+01
2.191141e+02	-2.513891e+01
2.203797e+02	-2.518890e+01
2.216526e+02	-2.524176e+01
2.229329e+02	-2.528669e+01
2.242205e+02	-2.534106e+01
2.255156e+02	-2.538772e+01
2.268182e+02	-2.544115e+01
2.281283e+02	-2.548973e+01
2.294459e+02	-2.553540e+01
2.307712e+02	-2.558753e+01
2.321041e+02	-2.564003e+01
2.334447e+02	-2.568829e+01
2.347931e+02	-2.573960e+01
2.361493e+02	-2.578870e+01
2.375133e+02	-2.584002e+01
2.388851e+02	-2.588713e+01
2.402649e+02	-2.593947e+01
2.416527e+02	-2.598950e+01
2.430484e+02	-2.603732e+01
2.444523e+02	-2.608988e+01
2.458642e+02	-2.613536e+01
2.472843e+02	-2.618958e+01
2.487126e+02	-2.623876e+01
2.501492e+02	-2.628775e+01
2.515940e+02	-2.633554e+01
2.530472e+02	-2.638542e+01
2.545088e+02	-2.643734e+01
2.559789e+02	-2.648416e+01
2.574574e+02	-2.653637e+01
2.589444e+02	-2.658741e+01
2.604401e+02	-2.663555e+01
2.619444e+02	-2.668909e+01
2.634574e+02	-2.673744e+01
2.649791e+02	-2.678844e+01
2.665096e+02	-2.683690e+01
2.680489e+02	-2.688915e+01
2.695972e+02	-2.693434e+01
2.711544e+02	-2.698770e+01
2.727205e+02	-2.704068e+01
2.742958e+02	-2.708932e+01
2.758801e+02	-2.713355e+01
2.774736e+02	-2.718713e+01
2.790762e+02	-2.723809e+01
2.806882e+02	-2.729007e+01
2.823094e+02	-2.734123e+01
2.839400e+02	-2.738627e+01
2.855800e+02	-2.744209e+01
2.872295e+02	-2.748964e+01
2.888886e+02	-2.753747e+01
2.905572e+02	-2.758808e+01
2.922354e+02	-2.763934e+01
2.939234e+02	-2.768658e+01
2.956211e+02	-2.773616e+01
2.973286e+02	-2.778871e+01
2.990459e+02	-2.784083e+01
3.007732e+02	-2.788820e+01
3.025104e+02	-2.793652e+01
3.042577e+02	-2.798432e+01
3.060151e+02	-2.803653e+01
3.077826e+02	-2.808686e+01
3.095604e+02	-2.813917e+01
3.113484e+02	-2.818702e+01
3.131467e+02	-2.823647e+01
3.149554e+02	-2.828591e+01
3.167746e+02	-2.833935e+01
3.186043e+02	-2.839181e+01
3.204445e+02	-2.843270e+01
3.222954e+02	-2.849306e+01
3.241570e+02	-2.853800e+01
3.260293e+02	-2.859120e+01
3.279124e+02	-2.863792e+01
3.298064e+02	-2.869204e+01
3.317114e+02	-2.873789e+01
3.336273e+02	-2.878738e+01
3.355544e+02	-2.884129e+01
3.374925e+02	-2.889025e+01
3.394418e+02	-2.893181e+01
3.414024e+02	-2.898596e+01
3.433744e+02	-2.903861e+01
3.453577e+02	-2.908750e+01
3.473525e+02	-2.913694e+01
3.493588e+02	-2.918629e+01
3.513766e+02	-2.923405e+01
3.534062e+02	-2.928973e+01
3.554474e+02	-2.933608e+01
3.575005e+02	-2.938799e+01
3.595654e+02	-2.943788e+01
3.616422e+02	-2.948787e+01
3.637311e+02	-2.953833e+01
3.658320e+02	-2.958858e+01
3.679450e+02	-2.964002e+01
3.700702e+02	-2.968886e+01
3.722077e+02	-2.973749e+01
3.743576e+02	-2.979132e+01
3.765199e+02	-2.984277e+01
3.786946e+02	-2.989074e+01
3.808820e+02	-2.993620e+01
3.830819e+02	-2.998788e+01
3.852946e+02	-3.003739e+01
3.875200e+02	-3.008614e+01
3.897583e+02	-3.013665e+01
3.920096e+02	-3.018818e+01
3.942738e+02	-3.023862e+01
3.965511e+02	-3.029283e+01
3.988416e+02	-3.034181e+01
4.011452e+02	-3.038834e+01
4.034622e+02	-3.043696e+01
4.057926e+02	-3.048901e+01
4.081365e+02	-3.053836e+01
4.104938e+02	-3.059201e+01
4.128648e+02	-3.064484e+01
4.152495e+02	-3.068933e+01
4.176480e+02	-3.074115e+01
4.200603e+02	-3.078953e+01
4.224866e+02	-3.084149e+01
4.249268e+02	-3.088669e+01
4.273812e+02	-3.093643e+01
4.298497e+02	-3.099556e+01
4.323325e+02	-3.103852e+01
4.348297e+02	-3.109296e+01
4.373412e+02	-3.114124e+01
4.398673e+02	-3.118960e+01
4.424079e+02	-3.124185e+01
4.449633e+02	-3.129299e+01
4.475334e+02	-3.133811e+01
4.501183e+02	-3.139472e+01
4.527182e+02	-3.144282e+01
4.553330e+02	-3.149302e+01
4.579630e+02	-3.154322e+01
4.606082e+02	-3.159567e+01
4.632687e+02	-3.164229e+01
4.659445e+02	-3.169260e+01
4.686358e+02	-3.174509e+01
4.713426e+02	-3.179081e+01
4.740650e+02	-3.184689e+01
4.768032e+02	-3.189174e+01
4.795572e+02	-3.194196e+01
4.823271e+02	-3.199836e+01
4.851130e+02	-3.204293e+01
4.879150e+02	-3.209362e+01
4.907332e+02	-3.214223e+01
4.935676e+02	-3.219558e+01
4.964185e+02	-3.224754e+01
4.992858e+02	-3.229714e+01
5.021696e+02	-3.234295e+01
5.050701e+02	-3.239985e+01
5.079874e+02	-3.244398e+01
5.109215e+02	-3.249318e+01
5.138726e+02	-3.254376e+01
5.168407e+02	-3.259392e+01
5.198259e+02	-3.265045e+01
5.228284e+02	-3.269477e+01
5.258482e+02	-3.274849e+01
5.288855e+02	-3.279759e+01
5.319403e+02	-3.284594e+01
5.350128e+02	-3.289345e+01
5.381030e+02	-3.294350e+01
5.412111e+02	-3.299722e+01
5.443371e+02	-3.304575e+01
5.474812e+02	-3.310003e+01
5.506434e+02	-3.314271e+01
5.538239e+02	-3.320315e+01
5.570228e+02	-3.324684e+01
5.602401e+02	-3.329586e+01
5.634760e+02	-3.334951e+01
5.667306e+02	-3.338900e+01
5.700040e+02	-3.344610e+01
5.732964e+02	-3.350382e+01
5.766077e+02	-3.355284e+01
5.799382e+02	-3.359909e+01
5.832879e+02	-3.365041e+01
5.866569e+02	-3.370349e+01
5.900454e+02	-3.375117e+01
5.934535e+02	-3.380332e+01
5.968813e+02	-3.385949e+01
6.003288e+02	-3.390505e+01
6.037963e+02	-3.395765e+01
6.072838e+02	-3.400407e+01
6.107914e+02	-3.404991e+01
6.143194e+02	-3.410601e+01
6.178676e+02	-3.415745e+01
6.214364e+02	-3.420293e+01
6.250258e+02	-3.425331e+01
6.286359e+02	-3.430581e+01
6.322669e+02	-3.434646e+01
6.359189e+02	-3.440976e+01
6.395919e+02	-3.444495e+01
6.432862e+02	-3.451313e+01
6.470017e+02	-3.455337e+01
6.507388e+02	-3.460418e+01
6.544974e+02	-3.466031e+01
6.582778e+02	-3.470289e+01
6.620800e+02	-3.476065e+01
6.659041e+02	-3.480385e+01
6.697504e+02	-3.486004e+01
6.736188e+02	-3.490786e+01
6.775096e+02	-3.496506e+01
6.814229e+02	-3.499883e+01
6.853587e+02	-3.505408e+01
6.893173e+02	-3.510758e+01
6.932988e+02	-3.515920e+01
6.973033e+02	-3.520995e+01
7.013309e+02	-3.525318e+01
