Frequency(Hz)	Magnitude(dB)
1.000000e+01	-2.074505e+00
1.005776e+01	-2.093816e+00
1.011585e+01	-2.112705e+00
1.017428e+01	-2.131978e+00
1.023305e+01	-2.151585e+00
1.029215e+01	-2.171236e+00
1.035160e+01	-2.191024e+00
1.041139e+01	-2.210756e+00
1.047153e+01	-2.230920e+00
1.053201e+01	-2.250862e+00
1.059284e+01	-2.271329e+00
1.065403e+01	-2.291870e+00
1.071556e+01	-2.312429e+00
1.077746e+01	-2.333010e+00
1.083971e+01	-2.354002e+00
1.090232e+01	-2.374678e+00
1.096529e+01	-2.396112e+00
1.102862e+01	-2.417481e+00
1.109232e+01	-2.438685e+00
1.115639e+01	-2.460321e+00
1.122083e+01	-2.481854e+00
1.128564e+01	-2.503998e+00
1.135083e+01	-2.525967e+00
1.141639e+01	-2.548101e+00
1.148233e+01	-2.570467e+00
1.154865e+01	-2.592578e+00
1.161536e+01	-2.615263e+00
1.168245e+01	-2.638189e+00
1.174992e+01	-2.660854e+00
1.181779e+01	-2.683880e+00
1.188605e+01	-2.706942e+00
1.195470e+01	-2.729976e+00
1.202375e+01	-2.753648e+00
1.209320e+01	-2.777348e+00
1.216305e+01	-2.801217e+00
1.223330e+01	-2.824890e+00
1.230396e+01	-2.848614e+00
1.237503e+01	-2.872881e+00
1.244651e+01	-2.897344e+00
1.251840e+01	-2.921596e+00
1.259070e+01	-2.945937e+00
1.266343e+01	-2.970998e+00
1.273657e+01	-2.995707e+00
1.281014e+01	-3.020543e+00
1.288413e+01	-3.045861e+00
1.295855e+01	-3.071097e+00
1.303339e+01	-3.096625e+00
1.310867e+01	-3.122326e+00
1.318439e+01	-3.147647e+00
1.326054e+01	-3.173560e+00
1.333713e+01	-3.199753e+00
1.341417e+01	-3.225921e+00
1.349165e+01	-3.252274e+00
1.356958e+01	-3.278920e+00
1.364795e+01	-3.305106e+00
1.372678e+01	-3.331736e+00
1.380607e+01	-3.358631e+00
1.388581e+01	-3.385795e+00
1.396602e+01	-3.413005e+00
1.404668e+01	-3.440269e+00
1.412782e+01	-3.467498e+00
1.420942e+01	-3.495253e+00
1.429149e+01	-3.522964e+00
1.437404e+01	-3.550914e+00
1.445706e+01	-3.579004e+00
1.454057e+01	-3.606942e+00
1.462455e+01	-3.635392e+00
1.470902e+01	-3.663909e+00
1.479398e+01	-3.692373e+00
1.487943e+01	-3.721181e+00
1.496537e+01	-3.749669e+00
1.505181e+01	-3.778839e+00
1.513875e+01	-3.808308e+00
1.522619e+01	-3.837561e+00
1.531414e+01	-3.866818e+00
1.540259e+01	-3.896376e+00
1.549156e+01	-3.926194e+00
1.558103e+01	-3.955924e+00
1.567103e+01	-3.985843e+00
1.576155e+01	-4.015981e+00
1.585258e+01	-4.046324e+00
1.594415e+01	-4.076572e+00
1.603624e+01	-4.107079e+00
1.612886e+01	-4.137813e+00
1.622202e+01	-4.168618e+00
1.631572e+01	-4.199497e+00
1.640996e+01	-4.230883e+00
1.650474e+01	-4.261581e+00
1.660008e+01	-4.293057e+00
1.669596e+01	-4.324706e+00
1.679239e+01	-4.356306e+00
1.688938e+01	-4.387936e+00
1.698694e+01	-4.419808e+00
1.708505e+01	-4.451714e+00
1.718373e+01	-4.484089e+00
1.728299e+01	-4.516355e+00
1.738281e+01	-4.548583e+00
1.748322e+01	-4.581276e+00
1.758420e+01	-4.613692e+00
1.768576e+01	-4.646891e+00
1.778792e+01	-4.679589e+00
1.789066e+01	-4.712736e+00
1.799399e+01	-4.745859e+00
1.809793e+01	-4.779222e+00
1.820246e+01	-4.812872e+00
1.830760e+01	-4.846154e+00
1.841334e+01	-4.880149e+00
1.851969e+01	-4.914044e+00
1.862666e+01	-4.947533e+00
1.873425e+01	-4.981616e+00
1.884246e+01	-5.015994e+00
1.895129e+01	-5.050180e+00
1.906075e+01	-5.084505e+00
1.917085e+01	-5.119597e+00
1.928158e+01	-5.154219e+00
1.939295e+01	-5.188612e+00
1.950496e+01	-5.223762e+00
1.961762e+01	-5.258783e+00
1.973093e+01	-5.294148e+00
1.984490e+01	-5.329248e+00
1.995952e+01	-5.365005e+00
2.007480e+01	-5.400502e+00
2.019076e+01	-5.436386e+00
2.030738e+01	-5.471483e+00
2.042467e+01	-5.507762e+00
2.054264e+01	-5.543761e+00
2.066130e+01	-5.579817e+00
2.078064e+01	-5.615869e+00
2.090066e+01	-5.652435e+00
2.102139e+01	-5.688645e+00
2.114280e+01	-5.725325e+00
2.126492e+01	-5.761894e+00
2.138775e+01	-5.799080e+00
2.151128e+01	-5.835898e+00
2.163553e+01	-5.872645e+00
2.176050e+01	-5.910206e+00
2.188619e+01	-5.947040e+00
2.201260e+01	-5.984676e+00
2.213974e+01	-6.021962e+00
2.226762e+01	-6.059816e+00
2.239624e+01	-6.097536e+00
2.252560e+01	-6.135152e+00
2.265571e+01	-6.172953e+00
2.278656e+01	-6.211176e+00
2.291818e+01	-6.249103e+00
2.305055e+01	-6.287514e+00
2.318369e+01	-6.325607e+00
2.331760e+01	-6.364180e+00
2.345228e+01	-6.402559e+00
2.358774e+01	-6.441576e+00
2.372398e+01	-6.480472e+00
2.386101e+01	-6.518604e+00
2.399883e+01	-6.557694e+00
2.413745e+01	-6.596830e+00
2.427686e+01	-6.635620e+00
2.441709e+01	-6.674976e+00
2.455812e+01	-6.714518e+00
2.469997e+01	-6.753949e+00
2.484263e+01	-6.793599e+00
2.498612e+01	-6.832920e+00
2.513044e+01	-6.872546e+00
2.527559e+01	-6.912496e+00
2.542158e+01	-6.952449e+00
2.556842e+01	-6.992088e+00
2.571610e+01	-7.032730e+00
2.586463e+01	-7.072439e+00
2.601403e+01	-7.112828e+00
2.616428e+01	-7.153248e+00
2.631541e+01	-7.193655e+00
2.646740e+01	-7.234318e+00
2.662028e+01	-7.274847e+00
2.677404e+01	-7.315899e+00
2.692868e+01	-7.356105e+00
2.708422e+01	-7.396836e+00
2.724066e+01	-7.437808e+00
2.739800e+01	-7.478913e+00
2.755625e+01	-7.520328e+00
2.771541e+01	-7.561896e+00
2.787550e+01	-7.603055e+00
2.803650e+01	-7.644100e+00
2.819844e+01	-7.685704e+00
2.836131e+01	-7.727459e+00
2.852513e+01	-7.768476e+00
2.868989e+01	-7.810582e+00
2.885560e+01	-7.851984e+00
2.902227e+01	-7.894042e+00
2.918990e+01	-7.936177e+00
2.935850e+01	-7.978274e+00
2.952807e+01	-8.020199e+00
2.969863e+01	-8.062197e+00
2.987016e+01	-8.104750e+00
3.004269e+01	-8.146553e+00
3.021622e+01	-8.188972e+00
3.039075e+01	-8.231799e+00
3.056628e+01	-8.274214e+00
3.074283e+01	-8.316747e+00
3.092040e+01	-8.360012e+00
3.109900e+01	-8.402212e+00
3.127862e+01	-8.445381e+00
3.145929e+01	-8.487852e+00
3.164099e+01	-8.531439e+00
3.182375e+01	-8.574856e+00
3.200756e+01	-8.617202e+00
3.219244e+01	-8.660252e+00
3.237838e+01	-8.703523e+00
3.256540e+01	-8.747140e+00
3.275349e+01	-8.790300e+00
3.294268e+01	-8.833897e+00
3.313295e+01	-8.877234e+00
3.332433e+01	-8.920961e+00
3.351681e+01	-8.964838e+00
3.371040e+01	-9.008071e+00
3.390511e+01	-9.052292e+00
3.410094e+01	-9.096234e+00
3.429791e+01	-9.139581e+00
3.449601e+01	-9.183635e+00
3.469526e+01	-9.227581e+00
3.489566e+01	-9.271266e+00
3.509721e+01	-9.316171e+00
3.529993e+01	-9.359568e+00
3.550382e+01	-9.404596e+00
3.570889e+01	-9.449090e+00
3.591515e+01	-9.492934e+00
3.612259e+01	-9.538067e+00
3.633123e+01	-9.581973e+00
3.654108e+01	-9.626798e+00
3.675214e+01	-9.671035e+00
3.696442e+01	-9.716386e+00
3.717792e+01	-9.760917e+00
3.739266e+01	-9.805382e+00
3.760864e+01	-9.850126e+00
3.782587e+01	-9.894925e+00
3.804435e+01	-9.939866e+00
3.826409e+01	-9.985089e+00
3.848510e+01	-1.003004e+01
3.870739e+01	-1.007517e+01
3.893096e+01	-1.012080e+01
3.915583e+01	-1.016584e+01
3.938199e+01	-1.021100e+01
3.960946e+01	-1.025579e+01
3.983824e+01	-1.030109e+01
4.006834e+01	-1.034652e+01
4.029978e+01	-1.039172e+01
4.053255e+01	-1.043741e+01
4.076666e+01	-1.048315e+01
4.100213e+01	-1.052884e+01
4.123896e+01	-1.057387e+01
4.147715e+01	-1.061992e+01
4.171672e+01	-1.066531e+01
4.195767e+01	-1.071135e+01
4.220002e+01	-1.075714e+01
4.244377e+01	-1.080326e+01
4.268892e+01	-1.084842e+01
4.293549e+01	-1.089456e+01
4.318348e+01	-1.094049e+01
4.343291e+01	-1.098702e+01
4.368377e+01	-1.103336e+01
4.393609e+01	-1.107939e+01
4.418986e+01	-1.112525e+01
4.444510e+01	-1.117123e+01
4.470182e+01	-1.121769e+01
4.496001e+01	-1.126334e+01
4.521970e+01	-1.131017e+01
4.548089e+01	-1.135646e+01
4.574358e+01	-1.140267e+01
4.600779e+01	-1.144905e+01
4.627353e+01	-1.149585e+01
4.654081e+01	-1.154223e+01
4.680963e+01	-1.158922e+01
4.708000e+01	-1.163619e+01
4.735193e+01	-1.168228e+01
4.762543e+01	-1.172862e+01
4.790051e+01	-1.177563e+01
4.817719e+01	-1.182242e+01
4.845545e+01	-1.186826e+01
4.873533e+01	-1.191556e+01
4.901682e+01	-1.196260e+01
4.929994e+01	-1.200967e+01
4.958470e+01	-1.205624e+01
4.987110e+01	-1.210322e+01
5.015915e+01	-1.214964e+01
5.044887e+01	-1.219714e+01
5.074026e+01	-1.224382e+01
5.103333e+01	-1.229126e+01
5.132810e+01	-1.233858e+01
5.162457e+01	-1.238531e+01
5.192275e+01	-1.243307e+01
5.222265e+01	-1.247977e+01
5.252429e+01	-1.252677e+01
5.282767e+01	-1.257462e+01
5.313280e+01	-1.262118e+01
5.343969e+01	-1.266899e+01
5.374836e+01	-1.271599e+01
5.405880e+01	-1.276346e+01
5.437105e+01	-1.281073e+01
5.468509e+01	-1.285823e+01
5.500095e+01	-1.290596e+01
5.531863e+01	-1.295355e+01
5.563815e+01	-1.300078e+01
5.595951e+01	-1.304794e+01
5.628273e+01	-1.309571e+01
5.660782e+01	-1.314352e+01
5.693479e+01	-1.319086e+01
5.726364e+01	-1.323868e+01
5.759439e+01	-1.328677e+01
5.792705e+01	-1.333362e+01
5.826164e+01	-1.338158e+01
5.859815e+01	-1.343026e+01
5.893662e+01	-1.347631e+01
5.927703e+01	-1.352484e+01
5.961941e+01	-1.357324e+01
5.996377e+01	-1.362112e+01
6.031012e+01	-1.366850e+01
6.065847e+01	-1.371754e+01
6.100883e+01	-1.376437e+01
6.136121e+01	-1.381227e+01
6.171563e+01	-1.386037e+01
6.207210e+01	-1.390797e+01
6.243063e+01	-1.395622e+01
6.279122e+01	-1.400442e+01
6.315390e+01	-1.405220e+01
6.351868e+01	-1.410043e+01
6.388556e+01	-1.414719e+01
6.425456e+01	-1.419713e+01
6.462569e+01	-1.424456e+01
6.499897e+01	-1.429273e+01
6.537440e+01	-1.434134e+01
6.575200e+01	-1.438943e+01
6.613178e+01	-1.443748e+01
6.651375e+01	-1.448536e+01
6.689793e+01	-1.453287e+01
6.728433e+01	-1.458256e+01
6.767297e+01	-1.463079e+01
6.806384e+01	-1.467871e+01
6.845698e+01	-1.472706e+01
6.885238e+01	-1.477505e+01
6.925007e+01	-1.482420e+01
6.965005e+01	-1.487209e+01
7.005235e+01	-1.492120e+01
7.045697e+01	-1.496956e+01
7.086393e+01	-1.501746e+01
7.127323e+01	-1.506562e+01
7.168490e+01	-1.511503e+01
7.209895e+01	-1.516293e+01
7.251539e+01	-1.521135e+01
7.293424e+01	-1.526060e+01
7.335551e+01	-1.530760e+01
7.377920e+01	-1.535726e+01
7.420535e+01	-1.540624e+01
7.463396e+01	-1.545441e+01
7.506504e+01	-1.550305e+01
7.549861e+01	-1.555202e+01
7.593469e+01	-1.560069e+01
7.637328e+01	-1.564807e+01
7.681441e+01	-1.569755e+01
7.725809e+01	-1.574654e+01
7.770433e+01	-1.579451e+01
7.815315e+01	-1.584424e+01
7.860456e+01	-1.589274e+01
7.905857e+01	-1.594097e+01
7.951521e+01	-1.599070e+01
7.997449e+01	-1.603913e+01
8.043642e+01	-1.608770e+01
8.090102e+01	-1.613601e+01
8.136830e+01	-1.618550e+01
8.183828e+01	-1.623414e+01
8.231097e+01	-1.628369e+01
8.278640e+01	-1.633097e+01
8.326457e+01	-1.638054e+01
8.374550e+01	-1.643054e+01
8.422921e+01	-1.647812e+01
8.471572e+01	-1.652813e+01
8.520503e+01	-1.657631e+01
8.569717e+01	-1.662501e+01
8.619215e+01	-1.667459e+01
8.669000e+01	-1.672264e+01
8.719071e+01	-1.677182e+01
8.769432e+01	-1.682019e+01
8.820084e+01	-1.686957e+01
8.871029e+01	-1.691901e+01
8.922267e+01	-1.696848e+01
8.973802e+01	-1.701737e+01
9.025634e+01	-1.706643e+01
9.077766e+01	-1.711538e+01
9.130199e+01	-1.716522e+01
9.182935e+01	-1.721339e+01
9.235975e+01	-1.726132e+01
9.289321e+01	-1.731139e+01
9.342976e+01	-1.736038e+01
9.396941e+01	-1.741001e+01
9.451217e+01	-1.745909e+01
9.505807e+01	-1.750750e+01
9.560712e+01	-1.755719e+01
9.615934e+01	-1.760746e+01
9.671476e+01	-1.765590e+01
9.727338e+01	-1.770427e+01
9.783522e+01	-1.775354e+01
9.840032e+01	-1.780221e+01
9.896867e+01	-1.785245e+01
9.954031e+01	-1.790079e+01
1.001153e+02	-1.795006e+01
1.006935e+02	-1.800030e+01
1.012751e+02	-1.804882e+01
1.018601e+02	-1.809865e+01
1.024484e+02	-1.814795e+01
1.030402e+02	-1.819625e+01
1.036353e+02	-1.824498e+01
1.042339e+02	-1.829575e+01
1.048360e+02	-1.834444e+01
1.054415e+02	-1.839317e+01
1.060505e+02	-1.844251e+01
1.066631e+02	-1.849284e+01
1.072791e+02	-1.854238e+01
1.078988e+02	-1.859103e+01
1.085220e+02	-1.864127e+01
1.091488e+02	-1.869021e+01
1.097793e+02	-1.873901e+01
1.104133e+02	-1.878801e+01
1.110511e+02	-1.883917e+01
1.116925e+02	-1.888665e+01
1.123376e+02	-1.893753e+01
1.129865e+02	-1.898680e+01
1.136391e+02	-1.903477e+01
1.142955e+02	-1.908584e+01
1.149556e+02	-1.913475e+01
1.156196e+02	-1.918409e+01
1.162874e+02	-1.923408e+01
1.169591e+02	-1.928310e+01
1.176347e+02	-1.933228e+01
1.183141e+02	-1.938252e+01
1.189975e+02	-1.943107e+01
1.196848e+02	-1.948138e+01
1.203761e+02	-1.952878e+01
1.210714e+02	-1.958190e+01
1.217707e+02	-1.963038e+01
1.224740e+02	-1.967943e+01
1.231814e+02	-1.972885e+01
1.238929e+02	-1.977746e+01
1.246085e+02	-1.982763e+01
1.253283e+02	-1.987852e+01
1.260522e+02	-1.992723e+01
1.267802e+02	-1.997543e+01
1.275125e+02	-2.002465e+01
1.282490e+02	-2.007532e+01
1.289898e+02	-2.012475e+01
1.297348e+02	-2.017353e+01
1.304842e+02	-2.022395e+01
1.312378e+02	-2.027359e+01
1.319959e+02	-2.032367e+01
1.327583e+02	-2.037234e+01
1.335251e+02	-2.042210e+01
1.342963e+02	-2.047277e+01
1.350720e+02	-2.052219e+01
1.358522e+02	-2.057097e+01
1.366368e+02	-2.061970e+01
1.374260e+02	-2.066969e+01
1.382198e+02	-2.071847e+01
1.390182e+02	-2.076868e+01
1.398211e+02	-2.081884e+01
1.406287e+02	-2.086789e+01
1.414410e+02	-2.091530e+01
1.422579e+02	-2.096858e+01
1.430796e+02	-2.101656e+01
1.439060e+02	-2.106653e+01
1.447372e+02	-2.111729e+01
1.455732e+02	-2.116515e+01
1.464141e+02	-2.121583e+01
1.472597e+02	-2.126551e+01
1.481103e+02	-2.131657e+01
1.489658e+02	-2.136307e+01
1.498262e+02	-2.141589e+01
1.506916e+02	-2.146562e+01
1.515620e+02	-2.151319e+01
1.524374e+02	-2.156120e+01
1.533179e+02	-2.161291e+01
1.542034e+02	-2.166248e+01
1.550941e+02	-2.171227e+01
1.559899e+02	-2.176267e+01
1.568909e+02	-2.181158e+01
1.577971e+02	-2.186035e+01
1.587085e+02	-2.191245e+01
1.596252e+02	-2.196016e+01
1.605472e+02	-2.201044e+01
1.614745e+02	-2.205972e+01
1.624072e+02	-2.211081e+01
1.633453e+02	-2.216014e+01
1.642887e+02	-2.221172e+01
1.652377e+02	-2.225999e+01
1.661921e+02	-2.231228e+01
1.671520e+02	-2.235742e+01
1.681175e+02	-2.240887e+01
1.690885e+02	-2.245778e+01
1.700651e+02	-2.250828e+01
1.710474e+02	-2.255750e+01
1.720354e+02	-2.261175e+01
1.730291e+02	-2.265801e+01
1.740285e+02	-2.270731e+01
1.750337e+02	-2.275495e+01
1.760446e+02	-2.280872e+01
1.770615e+02	-2.285790e+01
1.780842e+02	-2.290734e+01
1.791128e+02	-2.295553e+01
1.801473e+02	-2.300571e+01
1.811878e+02	-2.305605e+01
1.822344e+02	-2.310496e+01
1.832870e+02	-2.315548e+01
1.843456e+02	-2.320635e+01
1.854104e+02	-2.325580e+01
1.864813e+02	-2.330611e+01
1.875584e+02	-2.335627e+01
1.886418e+02	-2.340538e+01
1.897313e+02	-2.345363e+01
1.908272e+02	-2.350582e+01
1.919294e+02	-2.355500e+01
1.930380e+02	-2.360402e+01
1.941530e+02	-2.365470e+01
1.952744e+02	-2.370536e+01
1.964023e+02	-2.375407e+01
1.975367e+02	-2.380242e+01
1.986777e+02	-2.385263e+01
1.998252e+02	-2.390659e+01
2.009794e+02	-2.395540e+01
2.021403e+02	-2.400652e+01
2.033078e+02	-2.405258e+01
2.044821e+02	-2.410331e+01
2.056632e+02	-2.415225e+01
2.068511e+02	-2.420264e+01
2.080459e+02	-2.425405e+01
2.092475e+02	-2.430337e+01
2.104561e+02	-2.435146e+01
2.116717e+02	-2.439942e+01
2.128943e+02	-2.444982e+01
2.141240e+02	-2.450425e+01
2.153608e+02	-2.455172e+01
2.166047e+02	-2.460138e+01
2.178558e+02	-2.465304e+01
2.191141e+02	-2.470258e+01
2.203797e+02	-2.475297e+01
2.216526e+02	-2.480060e+01
2.229329e+02	-2.485300e+01
2.242205e+02	-2.490342e+01
2.255156e+02	-2.495068e+01
2.268182e+02	-2.500256e+01
2.281283e+02	-2.505014e+01
2.294459e+02	-2.510128e+01
2.307712e+02	-2.514586e+01
2.321041e+02	-2.520156e+01
2.334447e+02	-2.524974e+01
2.347931e+02	-2.529912e+01
2.361493e+02	-2.534960e+01
2.375133e+02	-2.540103e+01
2.388851e+02	-2.544976e+01
2.402649e+02	-2.549908e+01
2.416527e+02	-2.554842e+01
2.430484e+02	-2.559961e+01
2.444523e+02	-2.564966e+01
2.458642e+02	-2.569858e+01
2.472843e+02	-2.575193e+01
2.487126e+02	-2.579859e+01
2.501492e+02	-2.585096e+01
2.515940e+02	-2.589843e+01
2.530472e+02	-2.594994e+01
2.545088e+02	-2.600147e+01
2.559789e+02	-2.605107e+01
2.574574e+02	-2.610072e+01
2.589444e+02	-2.614954e+01
2.604401e+02	-2.619703e+01
2.619444e+02	-2.624835e+01
2.634574e+02	-2.630211e+01
2.649791e+02	-2.635292e+01
2.665096e+02	-2.639696e+01
2.680489e+02	-2.644723e+01
2.695972e+02	-2.650118e+01
2.711544e+02	-2.654893e+01
2.727205e+02	-2.660011e+01
2.742958e+02	-2.664848e+01
2.758801e+02	-2.669952e+01
2.774736e+02	-2.674775e+01
2.790762e+02	-2.679730e+01
2.806882e+02	-2.684954e+01
2.823094e+02	-2.689781e+01
2.839400e+02	-2.695110e+01
2.855800e+02	-2.699767e+01
2.872295e+02	-2.704506e+01
2.888886e+02	-2.709876e+01
2.905572e+02	-2.714707e+01
2.922354e+02	-2.719933e+01
2.939234e+02	-2.725118e+01
2.956211e+02	-2.730031e+01
2.973286e+02	-2.734903e+01
2.990459e+02	-2.739721e+01
3.007732e+02	-2.745138e+01
3.025104e+02	-2.750104e+01
3.042577e+02	-2.754699e+01
3.060151e+02	-2.760031e+01
3.077826e+02	-2.764902e+01
3.095604e+02	-2.769534e+01
3.113484e+02	-2.775029e+01
3.131467e+02	-2.780029e+01
3.149554e+02	-2.784946e+01
3.167746e+02	-2.789676e+01
3.186043e+02	-2.794866e+01
3.204445e+02	-2.799669e+01
3.222954e+02	-2.804803e+01
3.241570e+02	-2.809842e+01
3.260293e+02	-2.814962e+01
3.279124e+02	-2.819665e+01
3.298064e+02	-2.824856e+01
3.317114e+02	-2.829705e+01
3.336273e+02	-2.834750e+01
3.355544e+02	-2.839522e+01
3.374925e+02	-2.844931e+01
3.394418e+02	-2.849718e+01
3.414024e+02	-2.854950e+01
3.433744e+02	-2.860188e+01
3.453577e+02	-2.864644e+01
3.473525e+02	-2.869681e+01
3.493588e+02	-2.875462e+01
3.513766e+02	-2.880311e+01
3.534062e+02	-2.885248e+01
3.554474e+02	-2.889743e+01
3.575005e+02	-2.894468e+01
3.595654e+02	-2.899968e+01
3.616422e+02	-2.905088e+01
3.637311e+02	-2.909935e+01
3.658320e+02	-2.915284e+01
3.679450e+02	-2.920259e+01
3.700702e+02	-2.924882e+01
3.722077e+02	-2.930381e+01
3.743576e+02	-2.935604e+01
3.765199e+02	-2.940103e+01
3.786946e+02	-2.945110e+01
3.808820e+02	-2.949696e+01
3.830819e+02	-2.955243e+01
3.852946e+02	-2.959860e+01
3.875200e+02	-2.965104e+01
3.897583e+02	-2.969564e+01
3.920096e+02	-2.975284e+01
3.942738e+02	-2.980218e+01
3.965511e+02	-2.985431e+01
3.988416e+02	-2.990139e+01
4.011452e+02	-2.994906e+01
4.034622e+02	-3.000229e+01
4.057926e+02	-3.005402e+01
4.081365e+02	-3.010649e+01
4.104938e+02	-3.015200e+01
4.128648e+02	-3.020002e+01
4.152495e+02	-3.025640e+01
4.176480e+02	-3.030995e+01
4.200603e+02	-3.035705e+01
4.224866e+02	-3.040003e+01
4.249268e+02	-3.045315e+01
4.273812e+02	-3.050194e+01
4.298497e+02	-3.055723e+01
4.323325e+02	-3.060079e+01
4.348297e+02	-3.065138e+01
4.373412e+02	-3.070447e+01
4.398673e+02	-3.075544e+01
4.424079e+02	-3.080041e+01
4.449633e+02	-3.085309e+01
4.475334e+02	-3.090231e+01
4.501183e+02	-3.095233e+01
4.527182e+02	-3.101019e+01
4.553330e+02	-3.105886e+01
4.579630e+02	-3.110636e+01
4.606082e+02	-3.115225e+01
4.632687e+02	-3.120797e+01
4.659445e+02	-3.125856e+01
4.686358e+02	-3.130562e+01
4.713426e+02	-3.135649e+01
4.740650e+02	-3.140480e+01
4.768032e+02	-3.145384e+01
4.795572e+02	-3.150746e+01
4.823271e+02	-3.155355e+01
4.851130e+02	-3.160787e+01
4.879150e+02	-3.165639e+01
4.907332e+02	-3.171032e+01
4.935676e+02	-3.175721e+01
4.964185e+02	-3.180599e+01
4.992858e+02	-3.186006e+01
5.021696e+02	-3.191023e+01
5.050701e+02	-3.195719e+01
5.079874e+02	-3.201098e+01
5.109215e+02	-3.205681e+01
5.138726e+02	-3.210539e+01
5.168407e+02	-3.216125e+01
5.198259e+02	-3.221058e+01
5.228284e+02	-3.226171e+01
5.258482e+02	-3.230675e+01
5.288855e+02	-3.236183e+01
5.319403e+02	-3.241510e+01
5.350128e+02	-3.245634e+01
5.381030e+02	-3.250849e+01
5.412111e+02	-3.256356e+01
5.443371e+02	-3.261021e+01
5.474812e+02	-3.265761e+01
5.506434e+02	-3.270507e+01
5.538239e+02	-3.276827e+01
5.570228e+02	-3.281281e+01
5.602401e+02	-3.286194e+01
5.634760e+02	-3.291559e+01
5.667306e+02	-3.296426e+01
5.700040e+02	-3.300964e+01
5.732964e+02	-3.307701e+01
5.766077e+02	-3.311358e+01
5.799382e+02	-3.316083e+01
5.832879e+02	-3.321793e+01
5.866569e+02	-3.325905e+01
5.900454e+02	-3.332183e+01
5.934535e+02	-3.336549e+01
5.968813e+02	-3.341599e+01
6.003288e+02	-3.346667e+01
6.037963e+02	-3.351544e+01
6.072838e+02	-3.356490e+01
6.107914e+02	-3.361214e+01
6.143194e+02	-3.366493e+01
6.178676e+02	-3.371725e+01
6.214364e+02	-3.377189e+01
6.250258e+02	-3.382088e+01
6.286359e+02	-3.387033e+01
6.322669e+02	-3.391674e+01
6.359189e+02	-3.396978e+01
6.395919e+02	-3.402300e+01
6.432862e+02	-3.406440e+01
6.470017e+02	-3.411371e+01
6.507388e+02	-3.417619e+01
6.544974e+02	-3.422309e+01
6.582778e+02	-3.427077e+01
6.620800e+02	-3.432559e+01
6.659041e+02	-3.436744e+01
6.697504e+02	-3.442036e+01
6.736188e+02	-3.447308e+01
6.775096e+02	-3.451929e+01
6.814229e+02	-3.457747e+01
6.853587e+02	-3.462230e+01
6.893173e+02	-3.466691e+01
6.932988e+02	-3.472745e+01
6.973033e+02	-3.477327e+01
7.013309e+02	-3.482210e+01
