Frequency(Hz)	Magnitude(dB)
1.000000e+01	-2.058192e+00
1.005776e+01	-2.077119e+00
1.011585e+01	-2.096118e+00
1.017428e+01	-2.115199e+00
1.023305e+01	-2.134622e+00
1.029215e+01	-2.154173e+00
1.035160e+01	-2.173814e+00
1.041139e+01	-2.193521e+00
1.047153e+01	-2.213736e+00
1.053201e+01	-2.233461e+00
1.059284e+01	-2.253875e+00
1.065403e+01	-2.274227e+00
1.071556e+01	-2.294507e+00
1.077746e+01	-2.315020e+00
1.083971e+01	-2.335873e+00
1.090232e+01	-2.356824e+00
1.096529e+01	-2.377667e+00
1.102862e+01	-2.398930e+00
1.109232e+01	-2.420237e+00
1.115639e+01	-2.441496e+00
1.122083e+01	-2.463218e+00
1.128564e+01	-2.485185e+00
1.135083e+01	-2.506993e+00
1.141639e+01	-2.528821e+00
1.148233e+01	-2.551131e+00
1.154865e+01	-2.573166e+00
1.161536e+01	-2.595617e+00
1.168245e+01	-2.618221e+00
1.174992e+01	-2.641038e+00
1.181779e+01	-2.663848e+00
1.188605e+01	-2.686837e+00
1.195470e+01	-2.710054e+00
1.202375e+01	-2.733440e+00
1.209320e+01	-2.756867e+00
1.216305e+01	-2.780276e+00
1.223330e+01	-2.804102e+00
1.230396e+01	-2.828013e+00
1.237503e+01	-2.851728e+00
1.244651e+01	-2.876188e+00
1.251840e+01	-2.900425e+00
1.259070e+01	-2.924785e+00
1.266343e+01	-2.949814e+00
1.273657e+01	-2.974179e+00
1.281014e+01	-2.999021e+00
1.288413e+01	-3.024110e+00
1.295855e+01	-3.049053e+00
1.303339e+01	-3.074718e+00
1.310867e+01	-3.100082e+00
1.318439e+01	-3.125898e+00
1.326054e+01	-3.151104e+00
1.333713e+01	-3.177079e+00
1.341417e+01	-3.203026e+00
1.349165e+01	-3.229403e+00
1.356958e+01	-3.255893e+00
1.364795e+01	-3.282216e+00
1.372678e+01	-3.308772e+00
1.380607e+01	-3.335403e+00
1.388581e+01	-3.362716e+00
1.396602e+01	-3.389733e+00
1.404668e+01	-3.416574e+00
1.412782e+01	-3.444002e+00
1.420942e+01	-3.471281e+00
1.429149e+01	-3.498994e+00
1.437404e+01	-3.526786e+00
1.445706e+01	-3.554847e+00
1.454057e+01	-3.582742e+00
1.462455e+01	-3.610972e+00
1.470902e+01	-3.639608e+00
1.479398e+01	-3.667652e+00
1.487943e+01	-3.696558e+00
1.496537e+01	-3.725082e+00
1.505181e+01	-3.753707e+00
1.513875e+01	-3.782761e+00
1.522619e+01	-3.812287e+00
1.531414e+01	-3.841341e+00
1.540259e+01	-3.870698e+00
1.549156e+01	-3.900279e+00
1.558103e+01	-3.929880e+00
1.567103e+01	-3.960012e+00
1.576155e+01	-3.989888e+00
1.585258e+01	-4.020124e+00
1.594415e+01	-4.050706e+00
1.603624e+01	-4.080760e+00
1.612886e+01	-4.110895e+00
1.622202e+01	-4.141827e+00
1.631572e+01	-4.172791e+00
1.640996e+01	-4.203868e+00
1.650474e+01	-4.234872e+00
1.660008e+01	-4.265912e+00
1.669596e+01	-4.297583e+00
1.679239e+01	-4.328916e+00
1.688938e+01	-4.360391e+00
1.698694e+01	-4.392435e+00
1.708505e+01	-4.424151e+00
1.718373e+01	-4.456355e+00
1.728299e+01	-4.488036e+00
1.738281e+01	-4.520538e+00
1.748322e+01	-4.553238e+00
1.758420e+01	-4.585581e+00
1.768576e+01	-4.618140e+00
1.778792e+01	-4.651354e+00
1.789066e+01	-4.683908e+00
1.799399e+01	-4.717245e+00
1.809793e+01	-4.750439e+00
1.820246e+01	-4.783855e+00
1.830760e+01	-4.817164e+00
1.841334e+01	-4.850805e+00
1.851969e+01	-4.884407e+00
1.862666e+01	-4.918291e+00
1.873425e+01	-4.952211e+00
1.884246e+01	-4.986198e+00
1.895129e+01	-5.020519e+00
1.906075e+01	-5.055273e+00
1.917085e+01	-5.089162e+00
1.928158e+01	-5.124110e+00
1.939295e+01	-5.158713e+00
1.950496e+01	-5.193528e+00
1.961762e+01	-5.229033e+00
1.973093e+01	-5.263637e+00
1.984490e+01	-5.298784e+00
1.995952e+01	-5.334157e+00
2.007480e+01	-5.369626e+00
2.019076e+01	-5.405064e+00
2.030738e+01	-5.440633e+00
2.042467e+01	-5.476835e+00
2.054264e+01	-5.512830e+00
2.066130e+01	-5.548337e+00
2.078064e+01	-5.584814e+00
2.090066e+01	-5.621157e+00
2.102139e+01	-5.657209e+00
2.114280e+01	-5.693937e+00
2.126492e+01	-5.730143e+00
2.138775e+01	-5.766953e+00
2.151128e+01	-5.803988e+00
2.163553e+01	-5.841100e+00
2.176050e+01	-5.877892e+00
2.188619e+01	-5.915294e+00
2.201260e+01	-5.952197e+00
2.213974e+01	-5.989652e+00
2.226762e+01	-6.027181e+00
2.239624e+01	-6.064690e+00
2.252560e+01	-6.102131e+00
2.265571e+01	-6.140285e+00
2.278656e+01	-6.178363e+00
2.291818e+01	-6.216016e+00
2.305055e+01	-6.254008e+00
2.318369e+01	-6.292743e+00
2.331760e+01	-6.330910e+00
2.345228e+01	-6.369118e+00
2.358774e+01	-6.407997e+00
2.372398e+01	-6.446374e+00
2.386101e+01	-6.485340e+00
2.399883e+01	-6.524120e+00
2.413745e+01	-6.563207e+00
2.427686e+01	-6.602017e+00
2.441709e+01	-6.641138e+00
2.455812e+01	-6.680083e+00
2.469997e+01	-6.719617e+00
2.484263e+01	-6.759375e+00
2.498612e+01	-6.798563e+00
2.513044e+01	-6.838578e+00
2.527559e+01	-6.877816e+00
2.542158e+01	-6.917669e+00
2.556842e+01	-6.957790e+00
2.571610e+01	-6.997395e+00
2.586463e+01	-7.037913e+00
2.601403e+01	-7.077974e+00
2.616428e+01	-7.118444e+00
2.631541e+01	-7.158312e+00
2.646740e+01	-7.198781e+00
2.662028e+01	-7.239821e+00
2.677404e+01	-7.280283e+00
2.692868e+01	-7.321005e+00
2.708422e+01	-7.361763e+00
2.724066e+01	-7.402428e+00
2.739800e+01	-7.443693e+00
2.755625e+01	-7.484556e+00
2.771541e+01	-7.525794e+00
2.787550e+01	-7.566962e+00
2.803650e+01	-7.608297e+00
2.819844e+01	-7.649544e+00
2.836131e+01	-7.690969e+00
2.852513e+01	-7.732671e+00
2.868989e+01	-7.774127e+00
2.885560e+01	-7.816003e+00
2.902227e+01	-7.858086e+00
2.918990e+01	-7.899313e+00
2.935850e+01	-7.941662e+00
2.952807e+01	-7.983898e+00
2.969863e+01	-8.025552e+00
2.987016e+01	-8.068128e+00
3.004269e+01	-8.110405e+00
3.021622e+01	-8.152756e+00
3.039075e+01	-8.195101e+00
3.056628e+01	-8.237533e+00
3.074283e+01	-8.280085e+00
3.092040e+01	-8.322964e+00
3.109900e+01	-8.365165e+00
3.127862e+01	-8.407687e+00
3.145929e+01	-8.451112e+00
3.164099e+01	-8.493646e+00
3.182375e+01	-8.537230e+00
3.200756e+01	-8.580024e+00
3.219244e+01	-8.623194e+00
3.237838e+01	-8.666361e+00
3.256540e+01	-8.709475e+00
3.275349e+01	-8.752307e+00
3.294268e+01	-8.796410e+00
3.313295e+01	-8.839529e+00
3.332433e+01	-8.883226e+00
3.351681e+01	-8.926722e+00
3.371040e+01	-8.970957e+00
3.390511e+01	-9.013978e+00
3.410094e+01	-9.058211e+00
3.429791e+01	-9.101628e+00
3.449601e+01	-9.145551e+00
3.469526e+01	-9.189618e+00
3.489566e+01	-9.233238e+00
3.509721e+01	-9.277364e+00
3.529993e+01	-9.321434e+00
3.550382e+01	-9.366142e+00
3.570889e+01	-9.410346e+00
3.591515e+01	-9.454185e+00
3.612259e+01	-9.499431e+00
3.633123e+01	-9.543172e+00
3.654108e+01	-9.588001e+00
3.675214e+01	-9.632568e+00
3.696442e+01	-9.677282e+00
3.717792e+01	-9.721944e+00
3.739266e+01	-9.766558e+00
3.760864e+01	-9.811203e+00
3.782587e+01	-9.855876e+00
3.804435e+01	-9.901071e+00
3.826409e+01	-9.945481e+00
3.848510e+01	-9.991331e+00
3.870739e+01	-1.003597e+01
3.893096e+01	-1.008128e+01
3.915583e+01	-1.012648e+01
3.938199e+01	-1.017167e+01
3.960946e+01	-1.021682e+01
3.983824e+01	-1.026198e+01
4.006834e+01	-1.030700e+01
4.029978e+01	-1.035259e+01
4.053255e+01	-1.039851e+01
4.076666e+01	-1.044385e+01
4.100213e+01	-1.048898e+01
4.123896e+01	-1.053489e+01
4.147715e+01	-1.058025e+01
4.171672e+01	-1.062621e+01
4.195767e+01	-1.067208e+01
4.220002e+01	-1.071787e+01
4.244377e+01	-1.076330e+01
4.268892e+01	-1.080894e+01
4.293549e+01	-1.085502e+01
4.318348e+01	-1.090091e+01
4.343291e+01	-1.094694e+01
4.368377e+01	-1.099277e+01
4.393609e+01	-1.103858e+01
4.418986e+01	-1.108522e+01
4.444510e+01	-1.113121e+01
4.470182e+01	-1.117733e+01
4.496001e+01	-1.122351e+01
4.521970e+01	-1.127071e+01
4.548089e+01	-1.131626e+01
4.574358e+01	-1.136297e+01
4.600779e+01	-1.140899e+01
4.627353e+01	-1.145493e+01
4.654081e+01	-1.150183e+01
4.680963e+01	-1.154817e+01
4.708000e+01	-1.159533e+01
4.735193e+01	-1.164148e+01
4.762543e+01	-1.168810e+01
4.790051e+01	-1.173548e+01
4.817719e+01	-1.178147e+01
4.845545e+01	-1.182846e+01
4.873533e+01	-1.187529e+01
4.901682e+01	-1.192206e+01
4.929994e+01	-1.196849e+01
4.958470e+01	-1.201561e+01
4.987110e+01	-1.206220e+01
5.015915e+01	-1.210907e+01
5.044887e+01	-1.215593e+01
5.074026e+01	-1.220249e+01
5.103333e+01	-1.224952e+01
5.132810e+01	-1.229695e+01
5.162457e+01	-1.234400e+01
5.192275e+01	-1.239160e+01
5.222265e+01	-1.243844e+01
5.252429e+01	-1.248571e+01
5.282767e+01	-1.253406e+01
5.313280e+01	-1.258070e+01
5.343969e+01	-1.262815e+01
5.374836e+01	-1.267547e+01
5.405880e+01	-1.272273e+01
5.437105e+01	-1.276974e+01
5.468509e+01	-1.281695e+01
5.500095e+01	-1.286422e+01
5.531863e+01	-1.291171e+01
5.563815e+01	-1.295949e+01
5.595951e+01	-1.300733e+01
5.628273e+01	-1.305507e+01
5.660782e+01	-1.310217e+01
5.693479e+01	-1.315041e+01
5.726364e+01	-1.319682e+01
5.759439e+01	-1.324496e+01
5.792705e+01	-1.329193e+01
5.826164e+01	-1.334031e+01
5.859815e+01	-1.338858e+01
5.893662e+01	-1.343633e+01
5.927703e+01	-1.348326e+01
5.961941e+01	-1.353207e+01
5.996377e+01	-1.357982e+01
6.031012e+01	-1.362673e+01
6.065847e+01	-1.367488e+01
6.100883e+01	-1.372313e+01
6.136121e+01	-1.377081e+01
6.171563e+01	-1.381930e+01
6.207210e+01	-1.386773e+01
6.243063e+01	-1.391445e+01
6.279122e+01	-1.396266e+01
6.315390e+01	-1.401057e+01
6.351868e+01	-1.405873e+01
6.388556e+01	-1.410683e+01
6.425456e+01	-1.415463e+01
6.462569e+01	-1.420367e+01
6.499897e+01	-1.425103e+01
6.537440e+01	-1.429955e+01
6.575200e+01	-1.434731e+01
6.613178e+01	-1.439592e+01
6.651375e+01	-1.444463e+01
6.689793e+01	-1.449256e+01
6.728433e+01	-1.454043e+01
6.767297e+01	-1.458943e+01
6.806384e+01	-1.463756e+01
6.845698e+01	-1.468454e+01
6.885238e+01	-1.473416e+01
6.925007e+01	-1.478250e+01
6.965005e+01	-1.483065e+01
7.005235e+01	-1.487961e+01
7.045697e+01	-1.492690e+01
7.086393e+01	-1.497467e+01
7.127323e+01	-1.502391e+01
7.168490e+01	-1.507343e+01
7.209895e+01	-1.512149e+01
7.251539e+01	-1.516932e+01
7.293424e+01	-1.521877e+01
7.335551e+01	-1.526606e+01
7.377920e+01	-1.531522e+01
7.420535e+01	-1.536294e+01
7.463396e+01	-1.541205e+01
7.506504e+01	-1.546060e+01
7.549861e+01	-1.550950e+01
7.593469e+01	-1.555842e+01
7.637328e+01	-1.560717e+01
7.681441e+01	-1.565585e+01
7.725809e+01	-1.570413e+01
7.770433e+01	-1.575293e+01
7.815315e+01	-1.580124e+01
7.860456e+01	-1.585037e+01
7.905857e+01	-1.589869e+01
7.951521e+01	-1.594815e+01
7.997449e+01	-1.599606e+01
8.043642e+01	-1.604444e+01
8.090102e+01	-1.609405e+01
8.136830e+01	-1.614266e+01
8.183828e+01	-1.619160e+01
8.231097e+01	-1.623997e+01
8.278640e+01	-1.628992e+01
8.326457e+01	-1.633788e+01
8.374550e+01	-1.638714e+01
8.422921e+01	-1.643606e+01
8.471572e+01	-1.648515e+01
8.520503e+01	-1.653367e+01
8.569717e+01	-1.658276e+01
8.619215e+01	-1.663044e+01
8.669000e+01	-1.668066e+01
8.719071e+01	-1.673077e+01
8.769432e+01	-1.677942e+01
8.820084e+01	-1.682770e+01
8.871029e+01	-1.687611e+01
8.922267e+01	-1.692625e+01
8.973802e+01	-1.697386e+01
9.025634e+01	-1.702369e+01
9.077766e+01	-1.707157e+01
9.130199e+01	-1.712180e+01
9.182935e+01	-1.717196e+01
9.235975e+01	-1.721968e+01
9.289321e+01	-1.726894e+01
9.342976e+01	-1.731845e+01
9.396941e+01	-1.736874e+01
9.451217e+01	-1.741609e+01
9.505807e+01	-1.746515e+01
9.560712e+01	-1.751389e+01
9.615934e+01	-1.756257e+01
9.671476e+01	-1.761175e+01
9.727338e+01	-1.766135e+01
9.783522e+01	-1.771100e+01
9.840032e+01	-1.776023e+01
9.896867e+01	-1.780886e+01
9.954031e+01	-1.785820e+01
1.001153e+02	-1.790699e+01
1.006935e+02	-1.795642e+01
1.012751e+02	-1.800631e+01
1.018601e+02	-1.805505e+01
1.024484e+02	-1.810475e+01
1.030402e+02	-1.815384e+01
1.036353e+02	-1.820333e+01
1.042339e+02	-1.825268e+01
1.048360e+02	-1.830170e+01
1.054415e+02	-1.835040e+01
1.060505e+02	-1.840145e+01
1.066631e+02	-1.844898e+01
1.072791e+02	-1.849933e+01
1.078988e+02	-1.854796e+01
1.085220e+02	-1.859927e+01
1.091488e+02	-1.864883e+01
1.097793e+02	-1.869583e+01
1.104133e+02	-1.874622e+01
1.110511e+02	-1.879474e+01
1.116925e+02	-1.884361e+01
1.123376e+02	-1.889501e+01
1.129865e+02	-1.894387e+01
1.136391e+02	-1.899278e+01
1.142955e+02	-1.903996e+01
1.149556e+02	-1.909182e+01
1.156196e+02	-1.914148e+01
1.162874e+02	-1.919009e+01
1.169591e+02	-1.924088e+01
1.176347e+02	-1.928954e+01
1.183141e+02	-1.933872e+01
1.189975e+02	-1.938808e+01
1.196848e+02	-1.943774e+01
1.203761e+02	-1.948826e+01
1.210714e+02	-1.953583e+01
1.217707e+02	-1.958639e+01
1.224740e+02	-1.963646e+01
1.231814e+02	-1.968526e+01
1.238929e+02	-1.973290e+01
1.246085e+02	-1.978468e+01
1.253283e+02	-1.983339e+01
1.260522e+02	-1.988327e+01
1.267802e+02	-1.993233e+01
1.275125e+02	-1.998244e+01
1.282490e+02	-2.003162e+01
1.289898e+02	-2.008163e+01
1.297348e+02	-2.013141e+01
1.304842e+02	-2.017943e+01
1.312378e+02	-2.022891e+01
1.319959e+02	-2.028077e+01
1.327583e+02	-2.033074e+01
1.335251e+02	-2.037753e+01
1.342963e+02	-2.042990e+01
1.350720e+02	-2.047802e+01
1.358522e+02	-2.052779e+01
1.366368e+02	-2.057741e+01
1.374260e+02	-2.062739e+01
1.382198e+02	-2.067604e+01
1.390182e+02	-2.072609e+01
1.398211e+02	-2.077593e+01
1.406287e+02	-2.082631e+01
1.414410e+02	-2.087600e+01
1.422579e+02	-2.092533e+01
1.430796e+02	-2.097451e+01
1.439060e+02	-2.102380e+01
1.447372e+02	-2.107496e+01
1.455732e+02	-2.112256e+01
1.464141e+02	-2.117344e+01
1.472597e+02	-2.122129e+01
1.481103e+02	-2.127184e+01
1.489658e+02	-2.132164e+01
1.498262e+02	-2.137254e+01
1.506916e+02	-2.142226e+01
1.515620e+02	-2.147156e+01
1.524374e+02	-2.152245e+01
1.533179e+02	-2.157025e+01
1.542034e+02	-2.161833e+01
1.550941e+02	-2.166848e+01
1.559899e+02	-2.171933e+01
1.568909e+02	-2.177019e+01
1.577971e+02	-2.181859e+01
1.587085e+02	-2.186962e+01
1.596252e+02	-2.191977e+01
1.605472e+02	-2.196899e+01
1.614745e+02	-2.201777e+01
1.624072e+02	-2.206773e+01
1.633453e+02	-2.211624e+01
1.642887e+02	-2.216851e+01
1.652377e+02	-2.221645e+01
1.661921e+02	-2.226705e+01
1.671520e+02	-2.231685e+01
1.681175e+02	-2.236726e+01
1.690885e+02	-2.241758e+01
1.700651e+02	-2.246475e+01
1.710474e+02	-2.251382e+01
1.720354e+02	-2.256634e+01
1.730291e+02	-2.261573e+01
1.740285e+02	-2.266246e+01
1.750337e+02	-2.271633e+01
1.760446e+02	-2.276496e+01
1.770615e+02	-2.281493e+01
1.780842e+02	-2.286471e+01
1.791128e+02	-2.291333e+01
1.801473e+02	-2.296491e+01
1.811878e+02	-2.301350e+01
1.822344e+02	-2.306372e+01
1.832870e+02	-2.311432e+01
1.843456e+02	-2.316093e+01
1.854104e+02	-2.321503e+01
1.864813e+02	-2.326297e+01
1.875584e+02	-2.331064e+01
1.886418e+02	-2.336100e+01
1.897313e+02	-2.340969e+01
1.908272e+02	-2.346196e+01
1.919294e+02	-2.351217e+01
1.930380e+02	-2.356020e+01
1.941530e+02	-2.361303e+01
1.952744e+02	-2.366152e+01
1.964023e+02	-2.371043e+01
1.975367e+02	-2.376185e+01
1.986777e+02	-2.381000e+01
1.998252e+02	-2.386009e+01
2.009794e+02	-2.391172e+01
2.021403e+02	-2.395846e+01
2.033078e+02	-2.401012e+01
2.044821e+02	-2.405870e+01
2.056632e+02	-2.410885e+01
2.068511e+02	-2.416016e+01
2.080459e+02	-2.420737e+01
2.092475e+02	-2.425937e+01
2.104561e+02	-2.430877e+01
2.116717e+02	-2.435763e+01
2.128943e+02	-2.440852e+01
2.141240e+02	-2.445744e+01
2.153608e+02	-2.450974e+01
2.166047e+02	-2.455814e+01
2.178558e+02	-2.460660e+01
2.191141e+02	-2.465771e+01
2.203797e+02	-2.470949e+01
2.216526e+02	-2.475984e+01
2.229329e+02	-2.480739e+01
2.242205e+02	-2.485724e+01
2.255156e+02	-2.490692e+01
2.268182e+02	-2.495831e+01
2.281283e+02	-2.500690e+01
2.294459e+02	-2.505847e+01
2.307712e+02	-2.510816e+01
2.321041e+02	-2.515730e+01
2.334447e+02	-2.520530e+01
2.347931e+02	-2.525511e+01
2.361493e+02	-2.530522e+01
2.375133e+02	-2.535569e+01
2.388851e+02	-2.540573e+01
2.402649e+02	-2.545336e+01
2.416527e+02	-2.550510e+01
2.430484e+02	-2.555377e+01
2.444523e+02	-2.560529e+01
2.458642e+02	-2.565467e+01
2.472843e+02	-2.570792e+01
2.487126e+02	-2.575321e+01
2.501492e+02	-2.580624e+01
2.515940e+02	-2.585841e+01
2.530472e+02	-2.590480e+01
2.545088e+02	-2.595450e+01
2.559789e+02	-2.600538e+01
2.574574e+02	-2.605751e+01
2.589444e+02	-2.610478e+01
2.604401e+02	-2.615323e+01
2.619444e+02	-2.620439e+01
2.634574e+02	-2.625661e+01
2.649791e+02	-2.630825e+01
2.665096e+02	-2.635850e+01
2.680489e+02	-2.640696e+01
2.695972e+02	-2.645267e+01
2.711544e+02	-2.650837e+01
2.727205e+02	-2.655886e+01
2.742958e+02	-2.660623e+01
2.758801e+02	-2.665766e+01
2.774736e+02	-2.670354e+01
2.790762e+02	-2.675464e+01
2.806882e+02	-2.680635e+01
2.823094e+02	-2.685809e+01
2.839400e+02	-2.690629e+01
2.855800e+02	-2.695486e+01
2.872295e+02	-2.700526e+01
2.888886e+02	-2.705363e+01
2.905572e+02	-2.710432e+01
2.922354e+02	-2.715511e+01
2.939234e+02	-2.720758e+01
2.956211e+02	-2.725734e+01
2.973286e+02	-2.730551e+01
2.990459e+02	-2.735442e+01
3.007732e+02	-2.740485e+01
3.025104e+02	-2.745438e+01
3.042577e+02	-2.750509e+01
3.060151e+02	-2.755698e+01
3.077826e+02	-2.760450e+01
3.095604e+02	-2.765154e+01
3.113484e+02	-2.770323e+01
3.131467e+02	-2.775299e+01
3.149554e+02	-2.780582e+01
3.167746e+02	-2.785530e+01
3.186043e+02	-2.790202e+01
3.204445e+02	-2.795659e+01
3.222954e+02	-2.800417e+01
3.241570e+02	-2.805642e+01
3.260293e+02	-2.810658e+01
3.279124e+02	-2.815256e+01
3.298064e+02	-2.820348e+01
3.317114e+02	-2.825512e+01
3.336273e+02	-2.830403e+01
3.355544e+02	-2.835579e+01
3.374925e+02	-2.840568e+01
3.394418e+02	-2.845811e+01
3.414024e+02	-2.850713e+01
3.433744e+02	-2.855464e+01
3.453577e+02	-2.860441e+01
3.473525e+02	-2.865521e+01
3.493588e+02	-2.870733e+01
3.513766e+02	-2.875226e+01
3.534062e+02	-2.880615e+01
3.554474e+02	-2.885721e+01
3.575005e+02	-2.890727e+01
3.595654e+02	-2.895544e+01
3.616422e+02	-2.900656e+01
3.637311e+02	-2.906273e+01
3.658320e+02	-2.910725e+01
3.679450e+02	-2.915568e+01
3.700702e+02	-2.920682e+01
3.722077e+02	-2.925563e+01
3.743576e+02	-2.930546e+01
3.765199e+02	-2.935973e+01
3.786946e+02	-2.940834e+01
3.808820e+02	-2.945657e+01
3.830819e+02	-2.950625e+01
3.852946e+02	-2.955977e+01
3.875200e+02	-2.960224e+01
3.897583e+02	-2.965375e+01
3.920096e+02	-2.971085e+01
3.942738e+02	-2.975535e+01
3.965511e+02	-2.980925e+01
3.988416e+02	-2.986313e+01
4.011452e+02	-2.990704e+01
4.034622e+02	-2.995916e+01
4.057926e+02	-3.000818e+01
4.081365e+02	-3.005786e+01
4.104938e+02	-3.011459e+01
4.128648e+02	-3.016374e+01
4.152495e+02	-3.021069e+01
4.176480e+02	-3.026116e+01
4.200603e+02	-3.030973e+01
4.224866e+02	-3.035721e+01
4.249268e+02	-3.041458e+01
4.273812e+02	-3.045617e+01
4.298497e+02	-3.050960e+01
4.323325e+02	-3.055437e+01
4.348297e+02	-3.060725e+01
4.373412e+02	-3.066174e+01
4.398673e+02	-3.071059e+01
4.424079e+02	-3.076226e+01
4.449633e+02	-3.081124e+01
4.475334e+02	-3.085495e+01
4.501183e+02	-3.090582e+01
4.527182e+02	-3.096534e+01
4.553330e+02	-3.100767e+01
4.579630e+02	-3.106042e+01
4.606082e+02	-3.110432e+01
4.632687e+02	-3.116028e+01
4.659445e+02	-3.120992e+01
4.686358e+02	-3.125789e+01
4.713426e+02	-3.131335e+01
4.740650e+02	-3.136130e+01
4.768032e+02	-3.140890e+01
4.795572e+02	-3.145806e+01
4.823271e+02	-3.151134e+01
4.851130e+02	-3.155927e+01
4.879150e+02	-3.161424e+01
4.907332e+02	-3.166677e+01
4.935676e+02	-3.171484e+01
4.964185e+02	-3.176217e+01
4.992858e+02	-3.181187e+01
5.021696e+02	-3.186391e+01
5.050701e+02	-3.191001e+01
5.079874e+02	-3.196914e+01
5.109215e+02	-3.201770e+01
5.138726e+02	-3.206543e+01
5.168407e+02	-3.211784e+01
5.198259e+02	-3.216476e+01
5.228284e+02	-3.222023e+01
5.258482e+02	-3.225925e+01
5.288855e+02	-3.231181e+01
5.319403e+02	-3.236668e+01
5.350128e+02	-3.241438e+01
5.381030e+02	-3.246286e+01
5.412111e+02	-3.251276e+01
5.443371e+02	-3.256968e+01
5.474812e+02	-3.261756e+01
5.506434e+02	-3.266094e+01
5.538239e+02	-3.271944e+01
5.570228e+02	-3.276782e+01
5.602401e+02	-3.281639e+01
5.634760e+02	-3.287153e+01
5.667306e+02	-3.291536e+01
5.700040e+02	-3.297111e+01
5.732964e+02	-3.301632e+01
5.766077e+02	-3.307038e+01
5.799382e+02	-3.312555e+01
5.832879e+02	-3.316586e+01
5.866569e+02	-3.322065e+01
5.900454e+02	-3.327631e+01
5.934535e+02	-3.332254e+01
5.968813e+02	-3.336673e+01
6.003288e+02	-3.342027e+01
6.037963e+02	-3.347082e+01
6.072838e+02	-3.352350e+01
6.107914e+02	-3.357597e+01
6.143194e+02	-3.361723e+01
6.178676e+02	-3.367240e+01
6.214364e+02	-3.372023e+01
6.250258e+02	-3.377326e+01
6.286359e+02	-3.382856e+01
6.322669e+02	-3.386930e+01
6.359189e+02	-3.392201e+01
6.395919e+02	-3.397563e+01
6.432862e+02	-3.402141e+01
6.470017e+02	-3.406777e+01
6.507388e+02	-3.412815e+01
6.544974e+02	-3.417378e+01
6.582778e+02	-3.422171e+01
6.620800e+02	-3.427460e+01
6.659041e+02	-3.432330e+01
6.697504e+02	-3.438001e+01
6.736188e+02	-3.442311e+01
6.775096e+02	-3.447907e+01
6.814229e+02	-3.452955e+01
6.853587e+02	-3.458401e+01
6.893173e+02	-3.463627e+01
6.932988e+02	-3.467258e+01
6.973033e+02	-3.472523e+01
7.013309e+02	-3.478076e+01
