Frequency(Hz)	Magnitude(dB)
1.000000e+01	-2.154305e+00
1.005776e+01	-2.173850e+00
1.011585e+01	-2.193621e+00
1.017428e+01	-2.213577e+00
1.023305e+01	-2.233561e+00
1.029215e+01	-2.254024e+00
1.035160e+01	-2.274025e+00
1.041139e+01	-2.294543e+00
1.047153e+01	-2.315251e+00
1.053201e+01	-2.335739e+00
1.059284e+01	-2.356716e+00
1.065403e+01	-2.377649e+00
1.071556e+01	-2.398814e+00
1.077746e+01	-2.420267e+00
1.083971e+01	-2.441596e+00
1.090232e+01	-2.463188e+00
1.096529e+01	-2.484938e+00
1.102862e+01	-2.506797e+00
1.109232e+01	-2.528813e+00
1.115639e+01	-2.550984e+00
1.122083e+01	-2.573285e+00
1.128564e+01	-2.595735e+00
1.135083e+01	-2.618352e+00
1.141639e+01	-2.640805e+00
1.148233e+01	-2.664012e+00
1.154865e+01	-2.686975e+00
1.161536e+01	-2.709947e+00
1.168245e+01	-2.733497e+00
1.174992e+01	-2.756895e+00
1.181779e+01	-2.780283e+00
1.188605e+01	-2.804142e+00
1.195470e+01	-2.827828e+00
1.202375e+01	-2.852037e+00
1.209320e+01	-2.875947e+00
1.216305e+01	-2.900457e+00
1.223330e+01	-2.924821e+00
1.230396e+01	-2.949140e+00
1.237503e+01	-2.974076e+00
1.244651e+01	-2.999090e+00
1.251840e+01	-3.024054e+00
1.259070e+01	-3.049062e+00
1.266343e+01	-3.074449e+00
1.273657e+01	-3.099848e+00
1.281014e+01	-3.125548e+00
1.288413e+01	-3.151037e+00
1.295855e+01	-3.177055e+00
1.303339e+01	-3.203182e+00
1.310867e+01	-3.229369e+00
1.318439e+01	-3.255653e+00
1.326054e+01	-3.282174e+00
1.333713e+01	-3.308986e+00
1.341417e+01	-3.335522e+00
1.349165e+01	-3.362186e+00
1.356958e+01	-3.389554e+00
1.364795e+01	-3.416575e+00
1.372678e+01	-3.443834e+00
1.380607e+01	-3.471556e+00
1.388581e+01	-3.498935e+00
1.396602e+01	-3.526594e+00
1.404668e+01	-3.554611e+00
1.412782e+01	-3.582548e+00
1.420942e+01	-3.610857e+00
1.429149e+01	-3.639465e+00
1.437404e+01	-3.667732e+00
1.445706e+01	-3.696183e+00
1.454057e+01	-3.724779e+00
1.462455e+01	-3.753777e+00
1.470902e+01	-3.782803e+00
1.479398e+01	-3.811912e+00
1.487943e+01	-3.841282e+00
1.496537e+01	-3.870788e+00
1.505181e+01	-3.900361e+00
1.513875e+01	-3.929683e+00
1.522619e+01	-3.959892e+00
1.531414e+01	-3.989945e+00
1.540259e+01	-4.019826e+00
1.549156e+01	-4.050171e+00
1.558103e+01	-4.080749e+00
1.567103e+01	-4.111164e+00
1.576155e+01	-4.141860e+00
1.585258e+01	-4.172817e+00
1.594415e+01	-4.203595e+00
1.603624e+01	-4.234680e+00
1.612886e+01	-4.266205e+00
1.622202e+01	-4.297344e+00
1.631572e+01	-4.329166e+00
1.640996e+01	-4.360793e+00
1.650474e+01	-4.392393e+00
1.660008e+01	-4.424230e+00
1.669596e+01	-4.456087e+00
1.679239e+01	-4.488444e+00
1.688938e+01	-4.520415e+00
1.698694e+01	-4.553259e+00
1.708505e+01	-4.585548e+00
1.718373e+01	-4.618364e+00
1.728299e+01	-4.651195e+00
1.738281e+01	-4.684022e+00
1.748322e+01	-4.717129e+00
1.758420e+01	-4.750496e+00
1.768576e+01	-4.783886e+00
1.778792e+01	-4.817146e+00
1.789066e+01	-4.850793e+00
1.799399e+01	-4.884434e+00
1.809793e+01	-4.918010e+00
1.820246e+01	-4.952279e+00
1.830760e+01	-4.986653e+00
1.841334e+01	-5.020405e+00
1.851969e+01	-5.054955e+00
1.862666e+01	-5.089421e+00
1.873425e+01	-5.123978e+00
1.884246e+01	-5.158466e+00
1.895129e+01	-5.193586e+00
1.906075e+01	-5.228567e+00
1.917085e+01	-5.263509e+00
1.928158e+01	-5.298745e+00
1.939295e+01	-5.333950e+00
1.950496e+01	-5.369269e+00
1.961762e+01	-5.405022e+00
1.973093e+01	-5.440879e+00
1.984490e+01	-5.476745e+00
1.995952e+01	-5.512424e+00
2.007480e+01	-5.548437e+00
2.019076e+01	-5.584720e+00
2.030738e+01	-5.620473e+00
2.042467e+01	-5.657427e+00
2.054264e+01	-5.693508e+00
2.066130e+01	-5.730294e+00
2.078064e+01	-5.766880e+00
2.090066e+01	-5.803791e+00
2.102139e+01	-5.840859e+00
2.114280e+01	-5.877751e+00
2.126492e+01	-5.915007e+00
2.138775e+01	-5.952221e+00
2.151128e+01	-5.989479e+00
2.163553e+01	-6.027062e+00
2.176050e+01	-6.064526e+00
2.188619e+01	-6.102348e+00
2.201260e+01	-6.139996e+00
2.213974e+01	-6.177771e+00
2.226762e+01	-6.216156e+00
2.239624e+01	-6.254517e+00
2.252560e+01	-6.292411e+00
2.265571e+01	-6.330592e+00
2.278656e+01	-6.369628e+00
2.291818e+01	-6.408103e+00
2.305055e+01	-6.446282e+00
2.318369e+01	-6.485360e+00
2.331760e+01	-6.523646e+00
2.345228e+01	-6.563254e+00
2.358774e+01	-6.602113e+00
2.372398e+01	-6.641201e+00
2.386101e+01	-6.680450e+00
2.399883e+01	-6.719485e+00
2.413745e+01	-6.758968e+00
2.427686e+01	-6.798717e+00
2.441709e+01	-6.838420e+00
2.455812e+01	-6.878259e+00
2.469997e+01	-6.918199e+00
2.484263e+01	-6.957758e+00
2.498612e+01	-6.997816e+00
2.513044e+01	-7.037711e+00
2.527559e+01	-7.078030e+00
2.542158e+01	-7.118360e+00
2.556842e+01	-7.158693e+00
2.571610e+01	-7.198965e+00
2.586463e+01	-7.239366e+00
2.601403e+01	-7.280127e+00
2.616428e+01	-7.321006e+00
2.631541e+01	-7.361543e+00
2.646740e+01	-7.402170e+00
2.662028e+01	-7.443449e+00
2.677404e+01	-7.484776e+00
2.692868e+01	-7.525764e+00
2.708422e+01	-7.566789e+00
2.724066e+01	-7.608283e+00
2.739800e+01	-7.649084e+00
2.755625e+01	-7.691229e+00
2.771541e+01	-7.732540e+00
2.787550e+01	-7.774159e+00
2.803650e+01	-7.815956e+00
2.819844e+01	-7.857860e+00
2.836131e+01	-7.899587e+00
2.852513e+01	-7.941523e+00
2.868989e+01	-7.983620e+00
2.885560e+01	-8.025956e+00
2.902227e+01	-8.068407e+00
2.918990e+01	-8.109741e+00
2.935850e+01	-8.152382e+00
2.952807e+01	-8.195100e+00
2.969863e+01	-8.237663e+00
2.987016e+01	-8.279802e+00
3.004269e+01	-8.322697e+00
3.021622e+01	-8.365439e+00
3.039075e+01	-8.408105e+00
3.056628e+01	-8.450681e+00
3.074283e+01	-8.493862e+00
3.092040e+01	-8.536714e+00
3.109900e+01	-8.580041e+00
3.127862e+01	-8.622612e+00
3.145929e+01	-8.666205e+00
3.164099e+01	-8.709363e+00
3.182375e+01	-8.752685e+00
3.200756e+01	-8.796364e+00
3.219244e+01	-8.839664e+00
3.237838e+01	-8.883279e+00
3.256540e+01	-8.926608e+00
3.275349e+01	-8.970613e+00
3.294268e+01	-9.014055e+00
3.313295e+01	-9.057551e+00
3.332433e+01	-9.101759e+00
3.351681e+01	-9.145428e+00
3.371040e+01	-9.189533e+00
3.390511e+01	-9.233784e+00
3.410094e+01	-9.277740e+00
3.429791e+01	-9.321329e+00
3.449601e+01	-9.366572e+00
3.469526e+01	-9.410460e+00
3.489566e+01	-9.454238e+00
3.509721e+01	-9.498999e+00
3.529993e+01	-9.543715e+00
3.550382e+01	-9.588368e+00
3.570889e+01	-9.632275e+00
3.591515e+01	-9.676754e+00
3.612259e+01	-9.721215e+00
3.633123e+01	-9.766516e+00
3.654108e+01	-9.811109e+00
3.675214e+01	-9.856415e+00
3.696442e+01	-9.900664e+00
3.717792e+01	-9.946221e+00
3.739266e+01	-9.990769e+00
3.760864e+01	-1.003550e+01
3.782587e+01	-1.008132e+01
3.804435e+01	-1.012625e+01
3.826409e+01	-1.017092e+01
3.848510e+01	-1.021630e+01
3.870739e+01	-1.026202e+01
3.893096e+01	-1.030713e+01
3.915583e+01	-1.035231e+01
3.938199e+01	-1.039829e+01
3.960946e+01	-1.044334e+01
3.983824e+01	-1.048880e+01
4.006834e+01	-1.053425e+01
4.029978e+01	-1.057996e+01
4.053255e+01	-1.062555e+01
4.076666e+01	-1.067128e+01
4.100213e+01	-1.071752e+01
4.123896e+01	-1.076294e+01
4.147715e+01	-1.080911e+01
4.171672e+01	-1.085506e+01
4.195767e+01	-1.090089e+01
4.220002e+01	-1.094748e+01
4.244377e+01	-1.099239e+01
4.268892e+01	-1.103888e+01
4.293549e+01	-1.108557e+01
4.318348e+01	-1.113179e+01
4.343291e+01	-1.117792e+01
4.368377e+01	-1.122429e+01
4.393609e+01	-1.127056e+01
4.418986e+01	-1.131690e+01
4.444510e+01	-1.136300e+01
4.470182e+01	-1.140927e+01
4.496001e+01	-1.145538e+01
4.521970e+01	-1.150214e+01
4.548089e+01	-1.154823e+01
4.574358e+01	-1.159511e+01
4.600779e+01	-1.164189e+01
4.627353e+01	-1.168764e+01
4.654081e+01	-1.173485e+01
4.680963e+01	-1.178073e+01
4.708000e+01	-1.182842e+01
4.735193e+01	-1.187464e+01
4.762543e+01	-1.192225e+01
4.790051e+01	-1.196831e+01
4.817719e+01	-1.201614e+01
4.845545e+01	-1.206208e+01
4.873533e+01	-1.210910e+01
4.901682e+01	-1.215614e+01
4.929994e+01	-1.220217e+01
4.958470e+01	-1.224985e+01
4.987110e+01	-1.229770e+01
5.015915e+01	-1.234416e+01
5.044887e+01	-1.239114e+01
5.074026e+01	-1.243877e+01
5.103333e+01	-1.248575e+01
5.132810e+01	-1.253288e+01
5.162457e+01	-1.258021e+01
5.192275e+01	-1.262825e+01
5.222265e+01	-1.267519e+01
5.252429e+01	-1.272191e+01
5.282767e+01	-1.276953e+01
5.313280e+01	-1.281747e+01
5.343969e+01	-1.286369e+01
5.374836e+01	-1.291131e+01
5.405880e+01	-1.296022e+01
5.437105e+01	-1.300640e+01
5.468509e+01	-1.305484e+01
5.500095e+01	-1.310162e+01
5.531863e+01	-1.314923e+01
5.563815e+01	-1.319697e+01
5.595951e+01	-1.324547e+01
5.628273e+01	-1.329335e+01
5.660782e+01	-1.334094e+01
5.693479e+01	-1.338829e+01
5.726364e+01	-1.343595e+01
5.759439e+01	-1.348323e+01
5.792705e+01	-1.353085e+01
5.826164e+01	-1.357954e+01
5.859815e+01	-1.362707e+01
5.893662e+01	-1.367512e+01
5.927703e+01	-1.372302e+01
5.961941e+01	-1.377114e+01
5.996377e+01	-1.381858e+01
6.031012e+01	-1.386609e+01
6.065847e+01	-1.391434e+01
6.100883e+01	-1.396224e+01
6.136121e+01	-1.400983e+01
6.171563e+01	-1.405925e+01
6.207210e+01	-1.410659e+01
6.243063e+01	-1.415439e+01
6.279122e+01	-1.420296e+01
6.315390e+01	-1.425041e+01
6.351868e+01	-1.430016e+01
6.388556e+01	-1.434735e+01
6.425456e+01	-1.439534e+01
6.462569e+01	-1.444459e+01
6.499897e+01	-1.449161e+01
6.537440e+01	-1.454050e+01
6.575200e+01	-1.458770e+01
6.613178e+01	-1.463638e+01
6.651375e+01	-1.468561e+01
6.689793e+01	-1.473320e+01
6.728433e+01	-1.478149e+01
6.767297e+01	-1.483131e+01
6.806384e+01	-1.487857e+01
6.845698e+01	-1.492696e+01
6.885238e+01	-1.497527e+01
6.925007e+01	-1.502447e+01
6.965005e+01	-1.507220e+01
7.005235e+01	-1.512060e+01
7.045697e+01	-1.516990e+01
7.086393e+01	-1.521847e+01
7.127323e+01	-1.526714e+01
7.168490e+01	-1.531527e+01
7.209895e+01	-1.536393e+01
7.251539e+01	-1.541078e+01
7.293424e+01	-1.546199e+01
7.335551e+01	-1.550918e+01
7.377920e+01	-1.555804e+01
7.420535e+01	-1.560750e+01
7.463396e+01	-1.565483e+01
7.506504e+01	-1.570474e+01
7.549861e+01	-1.575281e+01
7.593469e+01	-1.580176e+01
7.637328e+01	-1.584939e+01
7.681441e+01	-1.589894e+01
7.725809e+01	-1.594745e+01
7.770433e+01	-1.599579e+01
7.815315e+01	-1.604436e+01
7.860456e+01	-1.609375e+01
7.905857e+01	-1.614324e+01
7.951521e+01	-1.619111e+01
7.997449e+01	-1.624061e+01
8.043642e+01	-1.628933e+01
8.090102e+01	-1.633876e+01
8.136830e+01	-1.638683e+01
8.183828e+01	-1.643523e+01
8.231097e+01	-1.648432e+01
8.278640e+01	-1.653263e+01
8.326457e+01	-1.658297e+01
8.374550e+01	-1.663138e+01
8.422921e+01	-1.668100e+01
8.471572e+01	-1.672960e+01
8.520503e+01	-1.677826e+01
8.569717e+01	-1.682697e+01
8.619215e+01	-1.687603e+01
8.669000e+01	-1.692509e+01
8.719071e+01	-1.697360e+01
8.769432e+01	-1.702298e+01
8.820084e+01	-1.707346e+01
8.871029e+01	-1.712059e+01
8.922267e+01	-1.716948e+01
8.973802e+01	-1.721887e+01
9.025634e+01	-1.726880e+01
9.077766e+01	-1.731700e+01
9.130199e+01	-1.736695e+01
9.182935e+01	-1.741645e+01
9.235975e+01	-1.746499e+01
9.289321e+01	-1.751531e+01
9.342976e+01	-1.756371e+01
9.396941e+01	-1.761229e+01
9.451217e+01	-1.766211e+01
9.505807e+01	-1.771071e+01
9.560712e+01	-1.776000e+01
9.615934e+01	-1.780890e+01
9.671476e+01	-1.785867e+01
9.727338e+01	-1.790786e+01
9.783522e+01	-1.795717e+01
9.840032e+01	-1.800655e+01
9.896867e+01	-1.805639e+01
9.954031e+01	-1.810428e+01
1.001153e+02	-1.815406e+01
1.006935e+02	-1.820292e+01
1.012751e+02	-1.825242e+01
1.018601e+02	-1.830271e+01
1.024484e+02	-1.835058e+01
1.030402e+02	-1.840088e+01
1.036353e+02	-1.844981e+01
1.042339e+02	-1.850011e+01
1.048360e+02	-1.854913e+01
1.054415e+02	-1.859753e+01
1.060505e+02	-1.864817e+01
1.066631e+02	-1.869691e+01
1.072791e+02	-1.874438e+01
1.078988e+02	-1.879567e+01
1.085220e+02	-1.884480e+01
1.091488e+02	-1.889332e+01
1.097793e+02	-1.894335e+01
1.104133e+02	-1.899240e+01
1.110511e+02	-1.904272e+01
1.116925e+02	-1.909059e+01
1.123376e+02	-1.914155e+01
1.129865e+02	-1.918986e+01
1.136391e+02	-1.924177e+01
1.142955e+02	-1.928982e+01
1.149556e+02	-1.933756e+01
1.156196e+02	-1.938827e+01
1.162874e+02	-1.943720e+01
1.169591e+02	-1.948652e+01
1.176347e+02	-1.953886e+01
1.183141e+02	-1.958580e+01
1.189975e+02	-1.963576e+01
1.196848e+02	-1.968344e+01
1.203761e+02	-1.973401e+01
1.210714e+02	-1.978255e+01
1.217707e+02	-1.983377e+01
1.224740e+02	-1.988543e+01
1.231814e+02	-1.993226e+01
1.238929e+02	-1.998323e+01
1.246085e+02	-2.003059e+01
1.253283e+02	-2.008186e+01
1.260522e+02	-2.013191e+01
1.267802e+02	-2.018083e+01
1.275125e+02	-2.022799e+01
1.282490e+02	-2.028080e+01
1.289898e+02	-2.032955e+01
1.297348e+02	-2.037950e+01
1.304842e+02	-2.043030e+01
1.312378e+02	-2.047747e+01
1.319959e+02	-2.052705e+01
1.327583e+02	-2.057646e+01
1.335251e+02	-2.062634e+01
1.342963e+02	-2.067575e+01
1.350720e+02	-2.072514e+01
1.358522e+02	-2.077464e+01
1.366368e+02	-2.082732e+01
1.374260e+02	-2.087486e+01
1.382198e+02	-2.092509e+01
1.390182e+02	-2.097614e+01
1.398211e+02	-2.102421e+01
1.406287e+02	-2.107527e+01
1.414410e+02	-2.112219e+01
1.422579e+02	-2.117289e+01
1.430796e+02	-2.122394e+01
1.439060e+02	-2.127312e+01
1.447372e+02	-2.132218e+01
1.455732e+02	-2.137121e+01
1.464141e+02	-2.142189e+01
1.472597e+02	-2.147294e+01
1.481103e+02	-2.152023e+01
1.489658e+02	-2.157027e+01
1.498262e+02	-2.161979e+01
1.506916e+02	-2.166925e+01
1.515620e+02	-2.171894e+01
1.524374e+02	-2.177009e+01
1.533179e+02	-2.181957e+01
1.542034e+02	-2.186859e+01
1.550941e+02	-2.191745e+01
1.559899e+02	-2.196925e+01
1.568909e+02	-2.201697e+01
1.577971e+02	-2.206913e+01
1.587085e+02	-2.211546e+01
1.596252e+02	-2.216697e+01
1.605472e+02	-2.221582e+01
1.614745e+02	-2.226638e+01
1.624072e+02	-2.231612e+01
1.633453e+02	-2.236376e+01
1.642887e+02	-2.241614e+01
1.652377e+02	-2.246382e+01
1.661921e+02	-2.251598e+01
1.671520e+02	-2.256629e+01
1.681175e+02	-2.261436e+01
1.690885e+02	-2.266585e+01
1.700651e+02	-2.271529e+01
1.710474e+02	-2.276337e+01
1.720354e+02	-2.281308e+01
1.730291e+02	-2.286474e+01
1.740285e+02	-2.291333e+01
1.750337e+02	-2.296181e+01
1.760446e+02	-2.301241e+01
1.770615e+02	-2.306247e+01
1.780842e+02	-2.311324e+01
1.791128e+02	-2.316452e+01
1.801473e+02	-2.321170e+01
1.811878e+02	-2.326184e+01
1.822344e+02	-2.331375e+01
1.832870e+02	-2.336171e+01
1.843456e+02	-2.340957e+01
1.854104e+02	-2.346058e+01
1.864813e+02	-2.351014e+01
1.875584e+02	-2.355831e+01
1.886418e+02	-2.361087e+01
1.897313e+02	-2.365999e+01
1.908272e+02	-2.371071e+01
1.919294e+02	-2.376272e+01
1.930380e+02	-2.380977e+01
1.941530e+02	-2.385870e+01
1.952744e+02	-2.391014e+01
1.964023e+02	-2.395759e+01
1.975367e+02	-2.401041e+01
1.986777e+02	-2.405862e+01
1.998252e+02	-2.410872e+01
2.009794e+02	-2.415718e+01
2.021403e+02	-2.420963e+01
2.033078e+02	-2.425800e+01
2.044821e+02	-2.430936e+01
2.056632e+02	-2.435821e+01
2.068511e+02	-2.441128e+01
2.080459e+02	-2.445651e+01
2.092475e+02	-2.451094e+01
2.104561e+02	-2.455666e+01
2.116717e+02	-2.460519e+01
2.128943e+02	-2.465624e+01
2.141240e+02	-2.470758e+01
2.153608e+02	-2.475561e+01
2.166047e+02	-2.480825e+01
2.178558e+02	-2.485739e+01
2.191141e+02	-2.490735e+01
2.203797e+02	-2.495768e+01
2.216526e+02	-2.500796e+01
2.229329e+02	-2.505828e+01
2.242205e+02	-2.510926e+01
2.255156e+02	-2.515637e+01
2.268182e+02	-2.520398e+01
2.281283e+02	-2.525614e+01
2.294459e+02	-2.530625e+01
2.307712e+02	-2.535655e+01
2.321041e+02	-2.540753e+01
2.334447e+02	-2.545563e+01
2.347931e+02	-2.550738e+01
2.361493e+02	-2.555745e+01
2.375133e+02	-2.560465e+01
2.388851e+02	-2.565869e+01
2.402649e+02	-2.570470e+01
2.416527e+02	-2.575753e+01
2.430484e+02	-2.580685e+01
2.444523e+02	-2.585530e+01
2.458642e+02	-2.590290e+01
2.472843e+02	-2.595454e+01
2.487126e+02	-2.600153e+01
2.501492e+02	-2.605265e+01
2.515940e+02	-2.610578e+01
2.530472e+02	-2.615685e+01
2.545088e+02	-2.620447e+01
2.559789e+02	-2.625455e+01
2.574574e+02	-2.630731e+01
2.589444e+02	-2.635603e+01
2.604401e+02	-2.640488e+01
2.619444e+02	-2.645419e+01
2.634574e+02	-2.650439e+01
2.649791e+02	-2.655761e+01
2.665096e+02	-2.660527e+01
2.680489e+02	-2.665378e+01
2.695972e+02	-2.670901e+01
2.711544e+02	-2.675577e+01
2.727205e+02	-2.680594e+01
2.742958e+02	-2.685310e+01
2.758801e+02	-2.690833e+01
2.774736e+02	-2.695542e+01
2.790762e+02	-2.700617e+01
2.806882e+02	-2.705379e+01
2.823094e+02	-2.710401e+01
2.839400e+02	-2.715469e+01
2.855800e+02	-2.720208e+01
2.872295e+02	-2.725915e+01
2.888886e+02	-2.730738e+01
2.905572e+02	-2.735009e+01
2.922354e+02	-2.740353e+01
2.939234e+02	-2.745593e+01
2.956211e+02	-2.750589e+01
2.973286e+02	-2.755508e+01
2.990459e+02	-2.760908e+01
3.007732e+02	-2.765602e+01
3.025104e+02	-2.770369e+01
3.042577e+02	-2.775668e+01
3.060151e+02	-2.780600e+01
3.077826e+02	-2.785541e+01
3.095604e+02	-2.790647e+01
3.113484e+02	-2.795684e+01
3.131467e+02	-2.800709e+01
3.149554e+02	-2.805795e+01
3.167746e+02	-2.810939e+01
3.186043e+02	-2.815268e+01
3.204445e+02	-2.820378e+01
3.222954e+02	-2.825795e+01
3.241570e+02	-2.830554e+01
3.260293e+02	-2.835318e+01
3.279124e+02	-2.840183e+01
3.298064e+02	-2.845644e+01
3.317114e+02	-2.850505e+01
3.336273e+02	-2.855577e+01
3.355544e+02	-2.860649e+01
3.374925e+02	-2.865271e+01
3.394418e+02	-2.870841e+01
3.414024e+02	-2.875510e+01
3.433744e+02	-2.880151e+01
3.453577e+02	-2.885748e+01
3.473525e+02	-2.890571e+01
3.493588e+02	-2.895430e+01
3.513766e+02	-2.900321e+01
3.534062e+02	-2.905329e+01
3.554474e+02	-2.910757e+01
3.575005e+02	-2.915827e+01
3.595654e+02	-2.920534e+01
3.616422e+02	-2.925622e+01
3.637311e+02	-2.930985e+01
3.658320e+02	-2.935566e+01
3.679450e+02	-2.940876e+01
3.700702e+02	-2.945712e+01
3.722077e+02	-2.950482e+01
3.743576e+02	-2.955433e+01
3.765199e+02	-2.960401e+01
3.786946e+02	-2.965683e+01
3.808820e+02	-2.971026e+01
3.830819e+02	-2.975291e+01
3.852946e+02	-2.980537e+01
3.875200e+02	-2.985295e+01
3.897583e+02	-2.990492e+01
3.920096e+02	-2.995703e+01
3.942738e+02	-3.001024e+01
3.965511e+02	-3.005439e+01
3.988416e+02	-3.010261e+01
4.011452e+02	-3.016015e+01
4.034622e+02	-3.020718e+01
4.057926e+02	-3.026160e+01
4.081365e+02	-3.030649e+01
4.104938e+02	-3.035947e+01
4.128648e+02	-3.040779e+01
4.152495e+02	-3.045964e+01
4.176480e+02	-3.050498e+01
4.200603e+02	-3.056110e+01
4.224866e+02	-3.060892e+01
4.249268e+02	-3.066673e+01
4.273812e+02	-3.070907e+01
4.298497e+02	-3.075486e+01
4.323325e+02	-3.080672e+01
4.348297e+02	-3.086030e+01
4.373412e+02	-3.091597e+01
4.398673e+02	-3.096154e+01
4.424079e+02	-3.100864e+01
4.449633e+02	-3.105882e+01
4.475334e+02	-3.110789e+01
4.501183e+02	-3.115423e+01
4.527182e+02	-3.120951e+01
4.553330e+02	-3.125720e+01
4.579630e+02	-3.131003e+01
4.606082e+02	-3.136344e+01
4.632687e+02	-3.141029e+01
4.659445e+02	-3.146312e+01
4.686358e+02	-3.151476e+01
4.713426e+02	-3.156008e+01
4.740650e+02	-3.161286e+01
4.768032e+02	-3.165893e+01
4.795572e+02	-3.171607e+01
4.823271e+02	-3.176592e+01
4.851130e+02	-3.180589e+01
4.879150e+02	-3.186005e+01
4.907332e+02	-3.191844e+01
4.935676e+02	-3.196301e+01
4.964185e+02	-3.200551e+01
4.992858e+02	-3.206256e+01
5.021696e+02	-3.211614e+01
5.050701e+02	-3.216661e+01
5.079874e+02	-3.220921e+01
5.109215e+02	-3.226649e+01
5.138726e+02	-3.231936e+01
5.168407e+02	-3.236498e+01
5.198259e+02	-3.241338e+01
5.228284e+02	-3.246463e+01
5.258482e+02	-3.251375e+01
5.288855e+02	-3.256581e+01
5.319403e+02	-3.261783e+01
5.350128e+02	-3.266997e+01
5.381030e+02	-3.271743e+01
5.412111e+02	-3.276755e+01
5.443371e+02	-3.281661e+01
5.474812e+02	-3.287061e+01
5.506434e+02	-3.291526e+01
5.538239e+02	-3.297348e+01
5.570228e+02	-3.301658e+01
5.602401e+02	-3.306787e+01
5.634760e+02	-3.311207e+01
5.667306e+02	-3.316515e+01
5.700040e+02	-3.322100e+01
5.732964e+02	-3.326807e+01
5.766077e+02	-3.332064e+01
5.799382e+02	-3.336115e+01
5.832879e+02	-3.342297e+01
5.866569e+02	-3.346826e+01
5.900454e+02	-3.352659e+01
5.934535e+02	-3.358010e+01
5.968813e+02	-3.362247e+01
6.003288e+02	-3.367253e+01
6.037963e+02	-3.371447e+01
6.072838e+02	-3.377595e+01
6.107914e+02	-3.382179e+01
6.143194e+02	-3.386785e+01
6.178676e+02	-3.392649e+01
6.214364e+02	-3.397747e+01
6.250258e+02	-3.402029e+01
6.286359e+02	-3.408059e+01
6.322669e+02	-3.411976e+01
6.359189e+02	-3.417408e+01
6.395919e+02	-3.422092e+01
6.432862e+02	-3.427855e+01
6.470017e+02	-3.432094e+01
6.507388e+02	-3.437856e+01
6.544974e+02	-3.443419e+01
6.582778e+02	-3.447445e+01
6.620800e+02	-3.452324e+01
6.659041e+02	-3.457602e+01
6.697504e+02	-3.462501e+01
6.736188e+02	-3.467968e+01
6.775096e+02	-3.474016e+01
6.814229e+02	-3.477688e+01
6.853587e+02	-3.482492e+01
6.893173e+02	-3.487543e+01
6.932988e+02	-3.493679e+01
6.973033e+02	-3.498036e+01
7.013309e+02	-3.503160e+01
