Frequency(Hz)	Magnitude(dB)
1.000000e+01	-2.622082e+00
1.005776e+01	-2.644817e+00
1.011585e+01	-2.667745e+00
1.017428e+01	-2.690765e+00
1.023305e+01	-2.713928e+00
1.029215e+01	-2.737173e+00
1.035160e+01	-2.760769e+00
1.041139e+01	-2.784152e+00
1.047153e+01	-2.808186e+00
1.053201e+01	-2.831978e+00
1.059284e+01	-2.855975e+00
1.065403e+01	-2.880065e+00
1.071556e+01	-2.904568e+00
1.077746e+01	-2.928807e+00
1.083971e+01	-2.953612e+00
1.090232e+01	-2.978294e+00
1.096529e+01	-3.003389e+00
1.102862e+01	-3.028207e+00
1.109232e+01	-3.053529e+00
1.115639e+01	-3.078539e+00
1.122083e+01	-3.104335e+00
1.128564e+01	-3.129806e+00
1.135083e+01	-3.155665e+00
1.141639e+01	-3.181462e+00
1.148233e+01	-3.207666e+00
1.154865e+01	-3.233857e+00
1.161536e+01	-3.260169e+00
1.168245e+01	-3.286616e+00
1.174992e+01	-3.313445e+00
1.181779e+01	-3.339990e+00
1.188605e+01	-3.366957e+00
1.195470e+01	-3.394018e+00
1.202375e+01	-3.421193e+00
1.209320e+01	-3.448625e+00
1.216305e+01	-3.476060e+00
1.223330e+01	-3.503372e+00
1.230396e+01	-3.531375e+00
1.237503e+01	-3.559530e+00
1.244651e+01	-3.587375e+00
1.251840e+01	-3.615459e+00
1.259070e+01	-3.643980e+00
1.266343e+01	-3.672764e+00
1.273657e+01	-3.701122e+00
1.281014e+01	-3.729950e+00
1.288413e+01	-3.758574e+00
1.295855e+01	-3.787774e+00
1.303339e+01	-3.816914e+00
1.310867e+01	-3.846369e+00
1.318439e+01	-3.875955e+00
1.326054e+01	-3.905236e+00
1.333713e+01	-3.934854e+00
1.341417e+01	-3.964843e+00
1.349165e+01	-3.994802e+00
1.356958e+01	-4.025136e+00
1.364795e+01	-4.055461e+00
1.372678e+01	-4.085883e+00
1.380607e+01	-4.116335e+00
1.388581e+01	-4.147232e+00
1.396602e+01	-4.178079e+00
1.404668e+01	-4.208869e+00
1.412782e+01	-4.240122e+00
1.420942e+01	-4.271206e+00
1.429149e+01	-4.302691e+00
1.437404e+01	-4.334491e+00
1.445706e+01	-4.365573e+00
1.454057e+01	-4.397556e+00
1.462455e+01	-4.429447e+00
1.470902e+01	-4.461515e+00
1.479398e+01	-4.493807e+00
1.487943e+01	-4.526208e+00
1.496537e+01	-4.558511e+00
1.505181e+01	-4.590940e+00
1.513875e+01	-4.623609e+00
1.522619e+01	-4.656716e+00
1.531414e+01	-4.689743e+00
1.540259e+01	-4.722818e+00
1.549156e+01	-4.756108e+00
1.558103e+01	-4.789308e+00
1.567103e+01	-4.822595e+00
1.576155e+01	-4.856111e+00
1.585258e+01	-4.890571e+00
1.594415e+01	-4.923887e+00
1.603624e+01	-4.958188e+00
1.612886e+01	-4.992125e+00
1.622202e+01	-5.026918e+00
1.631572e+01	-5.060705e+00
1.640996e+01	-5.095205e+00
1.650474e+01	-5.129936e+00
1.660008e+01	-5.164677e+00
1.669596e+01	-5.199410e+00
1.679239e+01	-5.234606e+00
1.688938e+01	-5.269322e+00
1.698694e+01	-5.304573e+00
1.708505e+01	-5.340053e+00
1.718373e+01	-5.375654e+00
1.728299e+01	-5.410851e+00
1.738281e+01	-5.446620e+00
1.748322e+01	-5.482285e+00
1.758420e+01	-5.518523e+00
1.768576e+01	-5.554590e+00
1.778792e+01	-5.591078e+00
1.789066e+01	-5.627016e+00
1.799399e+01	-5.663392e+00
1.809793e+01	-5.700112e+00
1.820246e+01	-5.736738e+00
1.830760e+01	-5.773421e+00
1.841334e+01	-5.809911e+00
1.851969e+01	-5.846963e+00
1.862666e+01	-5.884066e+00
1.873425e+01	-5.921323e+00
1.884246e+01	-5.958703e+00
1.895129e+01	-5.995713e+00
1.906075e+01	-6.033342e+00
1.917085e+01	-6.070928e+00
1.928158e+01	-6.108863e+00
1.939295e+01	-6.146586e+00
1.950496e+01	-6.184634e+00
1.961762e+01	-6.222645e+00
1.973093e+01	-6.260748e+00
1.984490e+01	-6.298602e+00
1.995952e+01	-6.337697e+00
2.007480e+01	-6.375750e+00
2.019076e+01	-6.414413e+00
2.030738e+01	-6.453371e+00
2.042467e+01	-6.491640e+00
2.054264e+01	-6.530599e+00
2.066130e+01	-6.569757e+00
2.078064e+01	-6.608807e+00
2.090066e+01	-6.647665e+00
2.102139e+01	-6.686555e+00
2.114280e+01	-6.726674e+00
2.126492e+01	-6.765685e+00
2.138775e+01	-6.805427e+00
2.151128e+01	-6.845266e+00
2.163553e+01	-6.884293e+00
2.176050e+01	-6.924209e+00
2.188619e+01	-6.964431e+00
2.201260e+01	-7.004268e+00
2.213974e+01	-7.044587e+00
2.226762e+01	-7.084665e+00
2.239624e+01	-7.125075e+00
2.252560e+01	-7.165346e+00
2.265571e+01	-7.205734e+00
2.278656e+01	-7.246500e+00
2.291818e+01	-7.286713e+00
2.305055e+01	-7.327632e+00
2.318369e+01	-7.368827e+00
2.331760e+01	-7.409555e+00
2.345228e+01	-7.450404e+00
2.358774e+01	-7.491379e+00
2.372398e+01	-7.532664e+00
2.386101e+01	-7.573971e+00
2.399883e+01	-7.615441e+00
2.413745e+01	-7.656573e+00
2.427686e+01	-7.698021e+00
2.441709e+01	-7.739343e+00
2.455812e+01	-7.780957e+00
2.469997e+01	-7.823099e+00
2.484263e+01	-7.864838e+00
2.498612e+01	-7.906816e+00
2.513044e+01	-7.948412e+00
2.527559e+01	-7.990652e+00
2.542158e+01	-8.032654e+00
2.556842e+01	-8.075433e+00
2.571610e+01	-8.117643e+00
2.586463e+01	-8.159532e+00
2.601403e+01	-8.202251e+00
2.616428e+01	-8.244823e+00
2.631541e+01	-8.287108e+00
2.646740e+01	-8.329525e+00
2.662028e+01	-8.372711e+00
2.677404e+01	-8.414993e+00
2.692868e+01	-8.458631e+00
2.708422e+01	-8.500787e+00
2.724066e+01	-8.543498e+00
2.739800e+01	-8.587261e+00
2.755625e+01	-8.630350e+00
2.771541e+01	-8.673348e+00
2.787550e+01	-8.716404e+00
2.803650e+01	-8.759853e+00
2.819844e+01	-8.803363e+00
2.836131e+01	-8.847193e+00
2.852513e+01	-8.890235e+00
2.868989e+01	-8.934149e+00
2.885560e+01	-8.977757e+00
2.902227e+01	-9.021348e+00
2.918990e+01	-9.065279e+00
2.935850e+01	-9.108822e+00
2.952807e+01	-9.152993e+00
2.969863e+01	-9.196793e+00
2.987016e+01	-9.241282e+00
3.004269e+01	-9.285391e+00
3.021622e+01	-9.329479e+00
3.039075e+01	-9.373569e+00
3.056628e+01	-9.417535e+00
3.074283e+01	-9.462186e+00
3.092040e+01	-9.506193e+00
3.109900e+01	-9.551248e+00
3.127862e+01	-9.595613e+00
3.145929e+01	-9.639995e+00
3.164099e+01	-9.684817e+00
3.182375e+01	-9.729228e+00
3.200756e+01	-9.773994e+00
3.219244e+01	-9.818931e+00
3.237838e+01	-9.863970e+00
3.256540e+01	-9.909112e+00
3.275349e+01	-9.953435e+00
3.294268e+01	-9.999124e+00
3.313295e+01	-1.004340e+01
3.332433e+01	-1.008880e+01
3.351681e+01	-1.013363e+01
3.371040e+01	-1.017874e+01
3.390511e+01	-1.022408e+01
3.410094e+01	-1.027003e+01
3.429791e+01	-1.031490e+01
3.449601e+01	-1.036055e+01
3.469526e+01	-1.040545e+01
3.489566e+01	-1.045142e+01
3.509721e+01	-1.049683e+01
3.529993e+01	-1.054270e+01
3.550382e+01	-1.058817e+01
3.570889e+01	-1.063383e+01
3.591515e+01	-1.067891e+01
3.612259e+01	-1.072542e+01
3.633123e+01	-1.077067e+01
3.654108e+01	-1.081652e+01
3.675214e+01	-1.086308e+01
3.696442e+01	-1.090908e+01
3.717792e+01	-1.095485e+01
3.739266e+01	-1.100108e+01
3.760864e+01	-1.104654e+01
3.782587e+01	-1.109289e+01
3.804435e+01	-1.113900e+01
3.826409e+01	-1.118501e+01
3.848510e+01	-1.123182e+01
3.870739e+01	-1.127756e+01
3.893096e+01	-1.132393e+01
3.915583e+01	-1.136979e+01
3.938199e+01	-1.141739e+01
3.960946e+01	-1.146308e+01
3.983824e+01	-1.150991e+01
4.006834e+01	-1.155629e+01
4.029978e+01	-1.160308e+01
4.053255e+01	-1.165002e+01
4.076666e+01	-1.169661e+01
4.100213e+01	-1.174269e+01
4.123896e+01	-1.178933e+01
4.147715e+01	-1.183605e+01
4.171672e+01	-1.188266e+01
4.195767e+01	-1.192927e+01
4.220002e+01	-1.197639e+01
4.244377e+01	-1.202388e+01
4.268892e+01	-1.206996e+01
4.293549e+01	-1.211760e+01
4.318348e+01	-1.216516e+01
4.343291e+01	-1.221191e+01
4.368377e+01	-1.225742e+01
4.393609e+01	-1.230539e+01
4.418986e+01	-1.235269e+01
4.444510e+01	-1.239870e+01
4.470182e+01	-1.244685e+01
4.496001e+01	-1.249355e+01
4.521970e+01	-1.254143e+01
4.548089e+01	-1.258808e+01
4.574358e+01	-1.263567e+01
4.600779e+01	-1.268306e+01
4.627353e+01	-1.273063e+01
4.654081e+01	-1.277769e+01
4.680963e+01	-1.282484e+01
4.708000e+01	-1.287260e+01
4.735193e+01	-1.292024e+01
4.762543e+01	-1.296742e+01
4.790051e+01	-1.301541e+01
4.817719e+01	-1.306279e+01
4.845545e+01	-1.311025e+01
4.873533e+01	-1.315764e+01
4.901682e+01	-1.320539e+01
4.929994e+01	-1.325298e+01
4.958470e+01	-1.329994e+01
4.987110e+01	-1.334817e+01
5.015915e+01	-1.339570e+01
5.044887e+01	-1.344329e+01
5.074026e+01	-1.349111e+01
5.103333e+01	-1.353894e+01
5.132810e+01	-1.358730e+01
5.162457e+01	-1.363538e+01
5.192275e+01	-1.368337e+01
5.222265e+01	-1.373078e+01
5.252429e+01	-1.377893e+01
5.282767e+01	-1.382622e+01
5.313280e+01	-1.387476e+01
5.343969e+01	-1.392262e+01
5.374836e+01	-1.397059e+01
5.405880e+01	-1.401921e+01
5.437105e+01	-1.406674e+01
5.468509e+01	-1.411586e+01
5.500095e+01	-1.416280e+01
5.531863e+01	-1.421113e+01
5.563815e+01	-1.425917e+01
5.595951e+01	-1.430821e+01
5.628273e+01	-1.435554e+01
5.660782e+01	-1.440452e+01
5.693479e+01	-1.445159e+01
5.726364e+01	-1.450069e+01
5.759439e+01	-1.454922e+01
5.792705e+01	-1.459662e+01
5.826164e+01	-1.464501e+01
5.859815e+01	-1.469252e+01
5.893662e+01	-1.474167e+01
5.927703e+01	-1.478974e+01
5.961941e+01	-1.483801e+01
5.996377e+01	-1.488659e+01
6.031012e+01	-1.493530e+01
6.065847e+01	-1.498368e+01
6.100883e+01	-1.503199e+01
6.136121e+01	-1.508169e+01
6.171563e+01	-1.512810e+01
6.207210e+01	-1.517813e+01
6.243063e+01	-1.522529e+01
6.279122e+01	-1.527396e+01
6.315390e+01	-1.532270e+01
6.351868e+01	-1.537188e+01
6.388556e+01	-1.542013e+01
6.425456e+01	-1.546916e+01
6.462569e+01	-1.551869e+01
6.499897e+01	-1.556674e+01
6.537440e+01	-1.561472e+01
6.575200e+01	-1.566279e+01
6.613178e+01	-1.571221e+01
6.651375e+01	-1.576066e+01
6.689793e+01	-1.581042e+01
6.728433e+01	-1.585878e+01
6.767297e+01	-1.590686e+01
6.806384e+01	-1.595608e+01
6.845698e+01	-1.600445e+01
6.885238e+01	-1.605333e+01
6.925007e+01	-1.610260e+01
6.965005e+01	-1.614974e+01
7.005235e+01	-1.620033e+01
7.045697e+01	-1.624891e+01
7.086393e+01	-1.629772e+01
7.127323e+01	-1.634612e+01
7.168490e+01	-1.639611e+01
7.209895e+01	-1.644333e+01
7.251539e+01	-1.649211e+01
7.293424e+01	-1.654198e+01
7.335551e+01	-1.659116e+01
7.377920e+01	-1.663940e+01
7.420535e+01	-1.668845e+01
7.463396e+01	-1.673815e+01
7.506504e+01	-1.678635e+01
7.549861e+01	-1.683533e+01
7.593469e+01	-1.688565e+01
7.637328e+01	-1.693444e+01
7.681441e+01	-1.698373e+01
7.725809e+01	-1.703156e+01
7.770433e+01	-1.708109e+01
7.815315e+01	-1.713078e+01
7.860456e+01	-1.717902e+01
7.905857e+01	-1.722803e+01
7.951521e+01	-1.727610e+01
7.997449e+01	-1.732627e+01
8.043642e+01	-1.737559e+01
8.090102e+01	-1.742422e+01
8.136830e+01	-1.747512e+01
8.183828e+01	-1.752232e+01
8.231097e+01	-1.757153e+01
8.278640e+01	-1.762077e+01
8.326457e+01	-1.767080e+01
8.374550e+01	-1.771926e+01
8.422921e+01	-1.776955e+01
8.471572e+01	-1.781686e+01
8.520503e+01	-1.786639e+01
8.569717e+01	-1.791615e+01
8.619215e+01	-1.796528e+01
8.669000e+01	-1.801425e+01
8.719071e+01	-1.806422e+01
8.769432e+01	-1.811269e+01
8.820084e+01	-1.816177e+01
8.871029e+01	-1.821281e+01
8.922267e+01	-1.826081e+01
8.973802e+01	-1.830993e+01
9.025634e+01	-1.835965e+01
9.077766e+01	-1.840937e+01
9.130199e+01	-1.845823e+01
9.182935e+01	-1.850764e+01
9.235975e+01	-1.855584e+01
9.289321e+01	-1.860700e+01
9.342976e+01	-1.865519e+01
9.396941e+01	-1.870519e+01
9.451217e+01	-1.875566e+01
9.505807e+01	-1.880436e+01
9.560712e+01	-1.885392e+01
9.615934e+01	-1.890372e+01
9.671476e+01	-1.895177e+01
9.727338e+01	-1.900081e+01
9.783522e+01	-1.905004e+01
9.840032e+01	-1.910045e+01
9.896867e+01	-1.914902e+01
9.954031e+01	-1.919994e+01
1.001153e+02	-1.924878e+01
1.006935e+02	-1.929789e+01
1.012751e+02	-1.934619e+01
1.018601e+02	-1.939467e+01
1.024484e+02	-1.944529e+01
1.030402e+02	-1.949608e+01
1.036353e+02	-1.954587e+01
1.042339e+02	-1.959480e+01
1.048360e+02	-1.964398e+01
1.054415e+02	-1.969244e+01
1.060505e+02	-1.974213e+01
1.066631e+02	-1.979181e+01
1.072791e+02	-1.984266e+01
1.078988e+02	-1.989300e+01
1.085220e+02	-1.994054e+01
1.091488e+02	-1.999091e+01
1.097793e+02	-2.004020e+01
1.104133e+02	-2.009004e+01
1.110511e+02	-2.013874e+01
1.116925e+02	-2.018937e+01
1.123376e+02	-2.023919e+01
1.129865e+02	-2.028714e+01
1.136391e+02	-2.033731e+01
1.142955e+02	-2.038449e+01
1.149556e+02	-2.043590e+01
1.156196e+02	-2.048554e+01
1.162874e+02	-2.053681e+01
1.169591e+02	-2.058542e+01
1.176347e+02	-2.063472e+01
1.183141e+02	-2.068572e+01
1.189975e+02	-2.073372e+01
1.196848e+02	-2.078209e+01
1.203761e+02	-2.083296e+01
1.210714e+02	-2.088300e+01
1.217707e+02	-2.093303e+01
1.224740e+02	-2.098353e+01
1.231814e+02	-2.103255e+01
1.238929e+02	-2.108099e+01
1.246085e+02	-2.113141e+01
1.253283e+02	-2.118205e+01
1.260522e+02	-2.123179e+01
1.267802e+02	-2.127847e+01
1.275125e+02	-2.132899e+01
1.282490e+02	-2.138064e+01
1.289898e+02	-2.142930e+01
1.297348e+02	-2.147679e+01
1.304842e+02	-2.152804e+01
1.312378e+02	-2.157975e+01
1.319959e+02	-2.162774e+01
1.327583e+02	-2.167824e+01
1.335251e+02	-2.172600e+01
1.342963e+02	-2.177750e+01
1.350720e+02	-2.182656e+01
1.358522e+02	-2.187650e+01
1.366368e+02	-2.192716e+01
1.374260e+02	-2.197749e+01
1.382198e+02	-2.202722e+01
1.390182e+02	-2.207507e+01
1.398211e+02	-2.212332e+01
1.406287e+02	-2.217455e+01
1.414410e+02	-2.222286e+01
1.422579e+02	-2.227447e+01
1.430796e+02	-2.232501e+01
1.439060e+02	-2.237517e+01
1.447372e+02	-2.242499e+01
1.455732e+02	-2.247406e+01
1.464141e+02	-2.252220e+01
1.472597e+02	-2.257313e+01
1.481103e+02	-2.262073e+01
1.489658e+02	-2.267373e+01
1.498262e+02	-2.272207e+01
1.506916e+02	-2.277325e+01
1.515620e+02	-2.282118e+01
1.524374e+02	-2.287195e+01
1.533179e+02	-2.291983e+01
1.542034e+02	-2.297112e+01
1.550941e+02	-2.302023e+01
1.559899e+02	-2.307176e+01
1.568909e+02	-2.311940e+01
1.577971e+02	-2.317009e+01
1.587085e+02	-2.322055e+01
1.596252e+02	-2.326988e+01
1.605472e+02	-2.331947e+01
1.614745e+02	-2.336932e+01
1.624072e+02	-2.341803e+01
1.633453e+02	-2.347086e+01
1.642887e+02	-2.351934e+01
1.652377e+02	-2.356760e+01
1.661921e+02	-2.361832e+01
1.671520e+02	-2.366898e+01
1.681175e+02	-2.371853e+01
1.690885e+02	-2.376924e+01
1.700651e+02	-2.381850e+01
1.710474e+02	-2.386966e+01
1.720354e+02	-2.391797e+01
1.730291e+02	-2.396700e+01
1.740285e+02	-2.401633e+01
1.750337e+02	-2.406674e+01
1.760446e+02	-2.411681e+01
1.770615e+02	-2.416808e+01
1.780842e+02	-2.421764e+01
1.791128e+02	-2.426573e+01
1.801473e+02	-2.431444e+01
1.811878e+02	-2.436852e+01
1.822344e+02	-2.441476e+01
1.832870e+02	-2.446444e+01
1.843456e+02	-2.451543e+01
1.854104e+02	-2.456511e+01
1.864813e+02	-2.461581e+01
1.875584e+02	-2.466503e+01
1.886418e+02	-2.471728e+01
1.897313e+02	-2.476621e+01
1.908272e+02	-2.481649e+01
1.919294e+02	-2.486665e+01
1.930380e+02	-2.491167e+01
1.941530e+02	-2.496280e+01
1.952744e+02	-2.501873e+01
1.964023e+02	-2.506548e+01
1.975367e+02	-2.511505e+01
1.986777e+02	-2.516351e+01
1.998252e+02	-2.521213e+01
2.009794e+02	-2.526310e+01
2.021403e+02	-2.531303e+01
2.033078e+02	-2.536496e+01
2.044821e+02	-2.541502e+01
2.056632e+02	-2.546483e+01
2.068511e+02	-2.551441e+01
2.080459e+02	-2.556321e+01
2.092475e+02	-2.561478e+01
2.104561e+02	-2.566369e+01
2.116717e+02	-2.571363e+01
2.128943e+02	-2.576448e+01
2.141240e+02	-2.581255e+01
2.153608e+02	-2.586251e+01
2.166047e+02	-2.591393e+01
2.178558e+02	-2.596438e+01
2.191141e+02	-2.601551e+01
2.203797e+02	-2.606326e+01
2.216526e+02	-2.611263e+01
2.229329e+02	-2.616294e+01
2.242205e+02	-2.621477e+01
2.255156e+02	-2.626388e+01
2.268182e+02	-2.631515e+01
2.281283e+02	-2.636395e+01
2.294459e+02	-2.641595e+01
2.307712e+02	-2.646023e+01
2.321041e+02	-2.651303e+01
2.334447e+02	-2.656302e+01
2.347931e+02	-2.660803e+01
2.361493e+02	-2.666335e+01
2.375133e+02	-2.671133e+01
2.388851e+02	-2.676298e+01
2.402649e+02	-2.681520e+01
2.416527e+02	-2.686260e+01
2.430484e+02	-2.691430e+01
2.444523e+02	-2.696525e+01
2.458642e+02	-2.701480e+01
2.472843e+02	-2.706445e+01
2.487126e+02	-2.711139e+01
2.501492e+02	-2.716463e+01
2.515940e+02	-2.721157e+01
2.530472e+02	-2.726255e+01
2.545088e+02	-2.731356e+01
2.559789e+02	-2.736448e+01
2.574574e+02	-2.741224e+01
2.589444e+02	-2.746429e+01
2.604401e+02	-2.751254e+01
2.619444e+02	-2.755786e+01
2.634574e+02	-2.761277e+01
2.649791e+02	-2.766139e+01
2.665096e+02	-2.771274e+01
2.680489e+02	-2.776251e+01
2.695972e+02	-2.781219e+01
2.711544e+02	-2.786250e+01
2.727205e+02	-2.791237e+01
2.742958e+02	-2.796559e+01
2.758801e+02	-2.801038e+01
2.774736e+02	-2.806326e+01
2.790762e+02	-2.811137e+01
2.806882e+02	-2.816460e+01
2.823094e+02	-2.821168e+01
2.839400e+02	-2.826413e+01
2.855800e+02	-2.831292e+01
2.872295e+02	-2.836364e+01
2.888886e+02	-2.841057e+01
2.905572e+02	-2.846171e+01
2.922354e+02	-2.851390e+01
2.939234e+02	-2.856335e+01
2.956211e+02	-2.861130e+01
2.973286e+02	-2.866356e+01
2.990459e+02	-2.871027e+01
3.007732e+02	-2.876264e+01
3.025104e+02	-2.881276e+01
3.042577e+02	-2.886513e+01
3.060151e+02	-2.891049e+01
3.077826e+02	-2.896362e+01
3.095604e+02	-2.900624e+01
3.113484e+02	-2.906504e+01
3.131467e+02	-2.911009e+01
3.149554e+02	-2.916561e+01
3.167746e+02	-2.921511e+01
3.186043e+02	-2.926191e+01
3.204445e+02	-2.931623e+01
3.222954e+02	-2.937148e+01
3.241570e+02	-2.941332e+01
3.260293e+02	-2.946740e+01
3.279124e+02	-2.951302e+01
3.298064e+02	-2.956246e+01
3.317114e+02	-2.961833e+01
3.336273e+02	-2.966892e+01
3.355544e+02	-2.971156e+01
3.374925e+02	-2.976812e+01
3.394418e+02	-2.981309e+01
3.414024e+02	-2.986396e+01
3.433744e+02	-2.991572e+01
3.453577e+02	-2.996191e+01
3.473525e+02	-3.001369e+01
3.493588e+02	-3.006552e+01
3.513766e+02	-3.011377e+01
3.534062e+02	-3.016547e+01
3.554474e+02	-3.022119e+01
3.575005e+02	-3.026485e+01
3.595654e+02	-3.031314e+01
3.616422e+02	-3.036872e+01
3.637311e+02	-3.041791e+01
3.658320e+02	-3.046723e+01
3.679450e+02	-3.051933e+01
3.700702e+02	-3.056613e+01
3.722077e+02	-3.061259e+01
3.743576e+02	-3.066435e+01
3.765199e+02	-3.071329e+01
3.786946e+02	-3.076720e+01
3.808820e+02	-3.081788e+01
3.830819e+02	-3.086771e+01
3.852946e+02	-3.091827e+01
3.875200e+02	-3.096930e+01
3.897583e+02	-3.102180e+01
3.920096e+02	-3.106946e+01
3.942738e+02	-3.111928e+01
3.965511e+02	-3.117243e+01
3.988416e+02	-3.121953e+01
4.011452e+02	-3.126889e+01
4.034622e+02	-3.132145e+01
4.057926e+02	-3.136892e+01
4.081365e+02	-3.142019e+01
4.104938e+02	-3.146473e+01
4.128648e+02	-3.151924e+01
4.152495e+02	-3.156198e+01
4.176480e+02	-3.161476e+01
4.200603e+02	-3.167287e+01
4.224866e+02	-3.172427e+01
4.249268e+02	-3.177070e+01
4.273812e+02	-3.182361e+01
4.298497e+02	-3.187293e+01
4.323325e+02	-3.192000e+01
4.348297e+02	-3.196328e+01
4.373412e+02	-3.202551e+01
4.398673e+02	-3.207565e+01
4.424079e+02	-3.212083e+01
4.449633e+02	-3.217039e+01
4.475334e+02	-3.221938e+01
4.501183e+02	-3.226851e+01
4.527182e+02	-3.232278e+01
4.553330e+02	-3.237474e+01
4.579630e+02	-3.242073e+01
4.606082e+02	-3.247093e+01
4.632687e+02	-3.252277e+01
4.659445e+02	-3.258004e+01
4.686358e+02	-3.262214e+01
4.713426e+02	-3.266971e+01
4.740650e+02	-3.272434e+01
4.768032e+02	-3.277107e+01
4.795572e+02	-3.281924e+01
4.823271e+02	-3.287366e+01
4.851130e+02	-3.292816e+01
4.879150e+02	-3.297025e+01
4.907332e+02	-3.302512e+01
4.935676e+02	-3.307371e+01
4.964185e+02	-3.312814e+01
4.992858e+02	-3.317081e+01
5.021696e+02	-3.322477e+01
5.050701e+02	-3.327959e+01
5.079874e+02	-3.332135e+01
5.109215e+02	-3.337259e+01
5.138726e+02	-3.341900e+01
5.168407e+02	-3.347237e+01
5.198259e+02	-3.352597e+01
5.228284e+02	-3.357376e+01
5.258482e+02	-3.361723e+01
5.288855e+02	-3.367508e+01
5.319403e+02	-3.373067e+01
5.350128e+02	-3.377842e+01
5.381030e+02	-3.381792e+01
5.412111e+02	-3.387816e+01
5.443371e+02	-3.393493e+01
5.474812e+02	-3.398330e+01
5.506434e+02	-3.403399e+01
5.538239e+02	-3.407575e+01
5.570228e+02	-3.412464e+01
5.602401e+02	-3.418428e+01
5.634760e+02	-3.423259e+01
5.667306e+02	-3.428124e+01
5.700040e+02	-3.433236e+01
5.732964e+02	-3.437264e+01
5.766077e+02	-3.443332e+01
5.799382e+02	-3.447547e+01
5.832879e+02	-3.453140e+01
5.866569e+02	-3.458209e+01
5.900454e+02	-3.463685e+01
5.934535e+02	-3.468458e+01
5.968813e+02	-3.474207e+01
6.003288e+02	-3.478175e+01
6.037963e+02	-3.483012e+01
6.072838e+02	-3.488522e+01
6.107914e+02	-3.493743e+01
6.143194e+02	-3.498506e+01
6.178676e+02	-3.502574e+01
6.214364e+02	-3.508699e+01
6.250258e+02	-3.514743e+01
6.286359e+02	-3.517996e+01
6.322669e+02	-3.523756e+01
6.359189e+02	-3.528846e+01
6.395919e+02	-3.534114e+01
6.432862e+02	-3.539329e+01
6.470017e+02	-3.543773e+01
6.507388e+02	-3.548292e+01
6.544974e+02	-3.554561e+01
6.582778e+02	-3.558121e+01
6.620800e+02	-3.564409e+01
6.659041e+02	-3.569032e+01
6.697504e+02	-3.573871e+01
6.736188e+02	-3.579118e+01
6.775096e+02	-3.583807e+01
6.814229e+02	-3.589214e+01
6.853587e+02	-3.594034e+01
6.893173e+02	-3.599128e+01
6.932988e+02	-3.604480e+01
6.973033e+02	-3.610109e+01
7.013309e+02	-3.614438e+01
