Frequency(Hz)	Magnitude(dB)
1.000000e+01	-2.235630e+00
1.005776e+01	-2.256099e+00
1.011585e+01	-2.276082e+00
1.017428e+01	-2.296764e+00
1.023305e+01	-2.317435e+00
1.029215e+01	-2.338178e+00
1.035160e+01	-2.359224e+00
1.041139e+01	-2.379785e+00
1.047153e+01	-2.401129e+00
1.053201e+01	-2.422374e+00
1.059284e+01	-2.444001e+00
1.065403e+01	-2.465566e+00
1.071556e+01	-2.487426e+00
1.077746e+01	-2.509278e+00
1.083971e+01	-2.531189e+00
1.090232e+01	-2.553412e+00
1.096529e+01	-2.575469e+00
1.102862e+01	-2.598149e+00
1.109232e+01	-2.620667e+00
1.115639e+01	-2.643277e+00
1.122083e+01	-2.666426e+00
1.128564e+01	-2.689540e+00
1.135083e+01	-2.712398e+00
1.141639e+01	-2.735903e+00
1.148233e+01	-2.759557e+00
1.154865e+01	-2.782912e+00
1.161536e+01	-2.806644e+00
1.168245e+01	-2.830594e+00
1.174992e+01	-2.854485e+00
1.181779e+01	-2.878883e+00
1.188605e+01	-2.903027e+00
1.195470e+01	-2.927391e+00
1.202375e+01	-2.952060e+00
1.209320e+01	-2.976848e+00
1.216305e+01	-3.001799e+00
1.223330e+01	-3.026756e+00
1.230396e+01	-3.052054e+00
1.237503e+01	-3.077300e+00
1.244651e+01	-3.102952e+00
1.251840e+01	-3.128463e+00
1.259070e+01	-3.153998e+00
1.266343e+01	-3.180202e+00
1.273657e+01	-3.206232e+00
1.281014e+01	-3.232368e+00
1.288413e+01	-3.258307e+00
1.295855e+01	-3.285086e+00
1.303339e+01	-3.311696e+00
1.310867e+01	-3.338557e+00
1.318439e+01	-3.365542e+00
1.326054e+01	-3.392463e+00
1.333713e+01	-3.419571e+00
1.341417e+01	-3.446654e+00
1.349165e+01	-3.474306e+00
1.356958e+01	-3.502146e+00
1.364795e+01	-3.529711e+00
1.372678e+01	-3.557881e+00
1.380607e+01	-3.585763e+00
1.388581e+01	-3.613860e+00
1.396602e+01	-3.642213e+00
1.404668e+01	-3.670722e+00
1.412782e+01	-3.699553e+00
1.420942e+01	-3.728038e+00
1.429149e+01	-3.756767e+00
1.437404e+01	-3.785849e+00
1.445706e+01	-3.815188e+00
1.454057e+01	-3.844511e+00
1.462455e+01	-3.874098e+00
1.470902e+01	-3.903457e+00
1.479398e+01	-3.933137e+00
1.487943e+01	-3.963296e+00
1.496537e+01	-3.993034e+00
1.505181e+01	-4.023300e+00
1.513875e+01	-4.053598e+00
1.522619e+01	-4.084006e+00
1.531414e+01	-4.114354e+00
1.540259e+01	-4.145128e+00
1.549156e+01	-4.176134e+00
1.558103e+01	-4.207220e+00
1.567103e+01	-4.238352e+00
1.576155e+01	-4.269337e+00
1.585258e+01	-4.300868e+00
1.594415e+01	-4.332230e+00
1.603624e+01	-4.363970e+00
1.612886e+01	-4.395657e+00
1.622202e+01	-4.427444e+00
1.631572e+01	-4.459951e+00
1.640996e+01	-4.491986e+00
1.650474e+01	-4.524189e+00
1.660008e+01	-4.556586e+00
1.669596e+01	-4.589222e+00
1.679239e+01	-4.622031e+00
1.688938e+01	-4.654707e+00
1.698694e+01	-4.687534e+00
1.708505e+01	-4.720873e+00
1.718373e+01	-4.754240e+00
1.728299e+01	-4.787250e+00
1.738281e+01	-4.820804e+00
1.748322e+01	-4.854353e+00
1.758420e+01	-4.888256e+00
1.768576e+01	-4.921839e+00
1.778792e+01	-4.955874e+00
1.789066e+01	-4.990171e+00
1.799399e+01	-5.024393e+00
1.809793e+01	-5.058820e+00
1.820246e+01	-5.093236e+00
1.830760e+01	-5.127926e+00
1.841334e+01	-5.162652e+00
1.851969e+01	-5.197632e+00
1.862666e+01	-5.232488e+00
1.873425e+01	-5.267332e+00
1.884246e+01	-5.302412e+00
1.895129e+01	-5.338172e+00
1.906075e+01	-5.373269e+00
1.917085e+01	-5.409250e+00
1.928158e+01	-5.444751e+00
1.939295e+01	-5.480494e+00
1.950496e+01	-5.516469e+00
1.961762e+01	-5.552280e+00
1.973093e+01	-5.588462e+00
1.984490e+01	-5.625079e+00
1.995952e+01	-5.661254e+00
2.007480e+01	-5.697602e+00
2.019076e+01	-5.734606e+00
2.030738e+01	-5.771017e+00
2.042467e+01	-5.807871e+00
2.054264e+01	-5.845148e+00
2.066130e+01	-5.882006e+00
2.078064e+01	-5.919070e+00
2.090066e+01	-5.956237e+00
2.102139e+01	-5.993363e+00
2.114280e+01	-6.030978e+00
2.126492e+01	-6.068733e+00
2.138775e+01	-6.106744e+00
2.151128e+01	-6.144410e+00
2.163553e+01	-6.182259e+00
2.176050e+01	-6.220513e+00
2.188619e+01	-6.258316e+00
2.201260e+01	-6.296779e+00
2.213974e+01	-6.335229e+00
2.226762e+01	-6.373009e+00
2.239624e+01	-6.411921e+00
2.252560e+01	-6.450497e+00
2.265571e+01	-6.489035e+00
2.278656e+01	-6.528302e+00
2.291818e+01	-6.567456e+00
2.305055e+01	-6.606169e+00
2.318369e+01	-6.644804e+00
2.331760e+01	-6.684746e+00
2.345228e+01	-6.724048e+00
2.358774e+01	-6.763241e+00
2.372398e+01	-6.802963e+00
2.386101e+01	-6.842736e+00
2.399883e+01	-6.882394e+00
2.413745e+01	-6.922331e+00
2.427686e+01	-6.962055e+00
2.441709e+01	-7.001953e+00
2.455812e+01	-7.042126e+00
2.469997e+01	-7.082238e+00
2.484263e+01	-7.122307e+00
2.498612e+01	-7.163042e+00
2.513044e+01	-7.203540e+00
2.527559e+01	-7.243752e+00
2.542158e+01	-7.284824e+00
2.556842e+01	-7.325524e+00
2.571610e+01	-7.365954e+00
2.586463e+01	-7.407081e+00
2.601403e+01	-7.447827e+00
2.616428e+01	-7.488974e+00
2.631541e+01	-7.530181e+00
2.646740e+01	-7.571387e+00
2.662028e+01	-7.612895e+00
2.677404e+01	-7.653774e+00
2.692868e+01	-7.695564e+00
2.708422e+01	-7.737233e+00
2.724066e+01	-7.779039e+00
2.739800e+01	-7.820624e+00
2.755625e+01	-7.862294e+00
2.771541e+01	-7.904356e+00
2.787550e+01	-7.945953e+00
2.803650e+01	-7.988067e+00
2.819844e+01	-8.030176e+00
2.836131e+01	-8.072776e+00
2.852513e+01	-8.114937e+00
2.868989e+01	-8.157039e+00
2.885560e+01	-8.199483e+00
2.902227e+01	-8.241857e+00
2.918990e+01	-8.284793e+00
2.935850e+01	-8.327193e+00
2.952807e+01	-8.369731e+00
2.969863e+01	-8.413300e+00
2.987016e+01	-8.455667e+00
3.004269e+01	-8.498636e+00
3.021622e+01	-8.541932e+00
3.039075e+01	-8.584852e+00
3.056628e+01	-8.627735e+00
3.074283e+01	-8.671063e+00
3.092040e+01	-8.713890e+00
3.109900e+01	-8.757267e+00
3.127862e+01	-8.800730e+00
3.145929e+01	-8.843866e+00
3.164099e+01	-8.887764e+00
3.182375e+01	-8.931076e+00
3.200756e+01	-8.975238e+00
3.219244e+01	-9.018694e+00
3.237838e+01	-9.062520e+00
3.256540e+01	-9.106861e+00
3.275349e+01	-9.150231e+00
3.294268e+01	-9.194448e+00
3.313295e+01	-9.238542e+00
3.332433e+01	-9.282485e+00
3.351681e+01	-9.326496e+00
3.371040e+01	-9.370588e+00
3.390511e+01	-9.415680e+00
3.410094e+01	-9.459629e+00
3.429791e+01	-9.503855e+00
3.449601e+01	-9.548157e+00
3.469526e+01	-9.592896e+00
3.489566e+01	-9.637319e+00
3.509721e+01	-9.682248e+00
3.529993e+01	-9.726293e+00
3.550382e+01	-9.770626e+00
3.570889e+01	-9.816453e+00
3.591515e+01	-9.861207e+00
3.612259e+01	-9.905556e+00
3.633123e+01	-9.951252e+00
3.654108e+01	-9.995934e+00
3.675214e+01	-1.004097e+01
3.696442e+01	-1.008611e+01
3.717792e+01	-1.013094e+01
3.739266e+01	-1.017603e+01
3.760864e+01	-1.022163e+01
3.782587e+01	-1.026704e+01
3.804435e+01	-1.031294e+01
3.826409e+01	-1.035783e+01
3.848510e+01	-1.040286e+01
3.870739e+01	-1.044864e+01
3.893096e+01	-1.049397e+01
3.915583e+01	-1.053958e+01
3.938199e+01	-1.058535e+01
3.960946e+01	-1.063122e+01
3.983824e+01	-1.067660e+01
4.006834e+01	-1.072227e+01
4.029978e+01	-1.076853e+01
4.053255e+01	-1.081378e+01
4.076666e+01	-1.085989e+01
4.100213e+01	-1.090629e+01
4.123896e+01	-1.095237e+01
4.147715e+01	-1.099787e+01
4.171672e+01	-1.104307e+01
4.195767e+01	-1.108992e+01
4.220002e+01	-1.113654e+01
4.244377e+01	-1.118266e+01
4.268892e+01	-1.122923e+01
4.293549e+01	-1.127490e+01
4.318348e+01	-1.132078e+01
4.343291e+01	-1.136820e+01
4.368377e+01	-1.141383e+01
4.393609e+01	-1.146103e+01
4.418986e+01	-1.150747e+01
4.444510e+01	-1.155322e+01
4.470182e+01	-1.159952e+01
4.496001e+01	-1.164643e+01
4.521970e+01	-1.169304e+01
4.548089e+01	-1.174011e+01
4.574358e+01	-1.178694e+01
4.600779e+01	-1.183278e+01
4.627353e+01	-1.188051e+01
4.654081e+01	-1.192774e+01
4.680963e+01	-1.197425e+01
4.708000e+01	-1.202089e+01
4.735193e+01	-1.206794e+01
4.762543e+01	-1.211420e+01
4.790051e+01	-1.216120e+01
4.817719e+01	-1.220822e+01
4.845545e+01	-1.225577e+01
4.873533e+01	-1.230238e+01
4.901682e+01	-1.234972e+01
4.929994e+01	-1.239768e+01
4.958470e+01	-1.244434e+01
4.987110e+01	-1.249075e+01
5.015915e+01	-1.253845e+01
5.044887e+01	-1.258603e+01
5.074026e+01	-1.263287e+01
5.103333e+01	-1.268043e+01
5.132810e+01	-1.272823e+01
5.162457e+01	-1.277478e+01
5.192275e+01	-1.282233e+01
5.222265e+01	-1.286990e+01
5.252429e+01	-1.291710e+01
5.282767e+01	-1.296503e+01
5.313280e+01	-1.301207e+01
5.343969e+01	-1.305976e+01
5.374836e+01	-1.310708e+01
5.405880e+01	-1.315450e+01
5.437105e+01	-1.320244e+01
5.468509e+01	-1.325027e+01
5.500095e+01	-1.329818e+01
5.531863e+01	-1.334516e+01
5.563815e+01	-1.339322e+01
5.595951e+01	-1.344175e+01
5.628273e+01	-1.348855e+01
5.660782e+01	-1.353692e+01
5.693479e+01	-1.358455e+01
5.726364e+01	-1.363289e+01
5.759439e+01	-1.367976e+01
5.792705e+01	-1.372820e+01
5.826164e+01	-1.377606e+01
5.859815e+01	-1.382409e+01
5.893662e+01	-1.387207e+01
5.927703e+01	-1.392031e+01
5.961941e+01	-1.396777e+01
5.996377e+01	-1.401550e+01
6.031012e+01	-1.406566e+01
6.065847e+01	-1.411219e+01
6.100883e+01	-1.416035e+01
6.136121e+01	-1.420827e+01
6.171563e+01	-1.425693e+01
6.207210e+01	-1.430386e+01
6.243063e+01	-1.435233e+01
6.279122e+01	-1.440082e+01
6.315390e+01	-1.444860e+01
6.351868e+01	-1.449659e+01
6.388556e+01	-1.454541e+01
6.425456e+01	-1.459329e+01
6.462569e+01	-1.464324e+01
6.499897e+01	-1.469020e+01
6.537440e+01	-1.473970e+01
6.575200e+01	-1.478727e+01
6.613178e+01	-1.483550e+01
6.651375e+01	-1.488345e+01
6.689793e+01	-1.493257e+01
6.728433e+01	-1.498076e+01
6.767297e+01	-1.502920e+01
6.806384e+01	-1.507801e+01
6.845698e+01	-1.512700e+01
6.885238e+01	-1.517543e+01
6.925007e+01	-1.522343e+01
6.965005e+01	-1.527251e+01
7.005235e+01	-1.532032e+01
7.045697e+01	-1.536891e+01
7.086393e+01	-1.541719e+01
7.127323e+01	-1.546653e+01
7.168490e+01	-1.551421e+01
7.209895e+01	-1.556398e+01
7.251539e+01	-1.561230e+01
7.293424e+01	-1.566047e+01
7.335551e+01	-1.570928e+01
7.377920e+01	-1.575780e+01
7.420535e+01	-1.580679e+01
7.463396e+01	-1.585589e+01
7.506504e+01	-1.590399e+01
7.549861e+01	-1.595317e+01
7.593469e+01	-1.600188e+01
7.637328e+01	-1.605062e+01
7.681441e+01	-1.609889e+01
7.725809e+01	-1.614760e+01
7.770433e+01	-1.619645e+01
7.815315e+01	-1.624479e+01
7.860456e+01	-1.629548e+01
7.905857e+01	-1.634434e+01
7.951521e+01	-1.639190e+01
7.997449e+01	-1.644188e+01
8.043642e+01	-1.649039e+01
8.090102e+01	-1.653866e+01
8.136830e+01	-1.658690e+01
8.183828e+01	-1.663596e+01
8.231097e+01	-1.668514e+01
8.278640e+01	-1.673548e+01
8.326457e+01	-1.678417e+01
8.374550e+01	-1.683206e+01
8.422921e+01	-1.688156e+01
8.471572e+01	-1.693067e+01
8.520503e+01	-1.697886e+01
8.569717e+01	-1.702970e+01
8.619215e+01	-1.707801e+01
8.669000e+01	-1.712657e+01
8.719071e+01	-1.717608e+01
8.769432e+01	-1.722491e+01
8.820084e+01	-1.727466e+01
8.871029e+01	-1.732389e+01
8.922267e+01	-1.737372e+01
8.973802e+01	-1.742145e+01
9.025634e+01	-1.746996e+01
9.077766e+01	-1.752002e+01
9.130199e+01	-1.756993e+01
9.182935e+01	-1.761707e+01
9.235975e+01	-1.766764e+01
9.289321e+01	-1.771708e+01
9.342976e+01	-1.776642e+01
9.396941e+01	-1.781592e+01
9.451217e+01	-1.786271e+01
9.505807e+01	-1.791401e+01
9.560712e+01	-1.796260e+01
9.615934e+01	-1.801123e+01
9.671476e+01	-1.806182e+01
9.727338e+01	-1.811005e+01
9.783522e+01	-1.815967e+01
9.840032e+01	-1.820991e+01
9.896867e+01	-1.825854e+01
9.954031e+01	-1.830795e+01
1.001153e+02	-1.835658e+01
1.006935e+02	-1.840675e+01
1.012751e+02	-1.845555e+01
1.018601e+02	-1.850645e+01
1.024484e+02	-1.855474e+01
1.030402e+02	-1.860312e+01
1.036353e+02	-1.865309e+01
1.042339e+02	-1.870277e+01
1.048360e+02	-1.875105e+01
1.054415e+02	-1.880071e+01
1.060505e+02	-1.884913e+01
1.066631e+02	-1.889820e+01
1.072791e+02	-1.894947e+01
1.078988e+02	-1.899891e+01
1.085220e+02	-1.904789e+01
1.091488e+02	-1.909840e+01
1.097793e+02	-1.914659e+01
1.104133e+02	-1.919586e+01
1.110511e+02	-1.924461e+01
1.116925e+02	-1.929503e+01
1.123376e+02	-1.934424e+01
1.129865e+02	-1.939458e+01
1.136391e+02	-1.944269e+01
1.142955e+02	-1.949394e+01
1.149556e+02	-1.954365e+01
1.156196e+02	-1.959213e+01
1.162874e+02	-1.964159e+01
1.169591e+02	-1.968975e+01
1.176347e+02	-1.973894e+01
1.183141e+02	-1.978937e+01
1.189975e+02	-1.983877e+01
1.196848e+02	-1.988907e+01
1.203761e+02	-1.993914e+01
1.210714e+02	-1.998644e+01
1.217707e+02	-2.003755e+01
1.224740e+02	-2.008775e+01
1.231814e+02	-2.013717e+01
1.238929e+02	-2.018539e+01
1.246085e+02	-2.023646e+01
1.253283e+02	-2.028275e+01
1.260522e+02	-2.033421e+01
1.267802e+02	-2.038522e+01
1.275125e+02	-2.043306e+01
1.282490e+02	-2.048389e+01
1.289898e+02	-2.053357e+01
1.297348e+02	-2.058343e+01
1.304842e+02	-2.063271e+01
1.312378e+02	-2.068238e+01
1.319959e+02	-2.073072e+01
1.327583e+02	-2.078061e+01
1.335251e+02	-2.083197e+01
1.342963e+02	-2.088217e+01
1.350720e+02	-2.092922e+01
1.358522e+02	-2.097979e+01
1.366368e+02	-2.103005e+01
1.374260e+02	-2.107866e+01
1.382198e+02	-2.112934e+01
1.390182e+02	-2.117947e+01
1.398211e+02	-2.122737e+01
1.406287e+02	-2.127691e+01
1.414410e+02	-2.132594e+01
1.422579e+02	-2.137606e+01
1.430796e+02	-2.142681e+01
1.439060e+02	-2.147605e+01
1.447372e+02	-2.152671e+01
1.455732e+02	-2.157583e+01
1.464141e+02	-2.162415e+01
1.472597e+02	-2.167458e+01
1.481103e+02	-2.172490e+01
1.489658e+02	-2.177485e+01
1.498262e+02	-2.182334e+01
1.506916e+02	-2.187284e+01
1.515620e+02	-2.192407e+01
1.524374e+02	-2.197342e+01
1.533179e+02	-2.202370e+01
1.542034e+02	-2.207203e+01
1.550941e+02	-2.212322e+01
1.559899e+02	-2.217114e+01
1.568909e+02	-2.222346e+01
1.577971e+02	-2.227123e+01
1.587085e+02	-2.231983e+01
1.596252e+02	-2.237110e+01
1.605472e+02	-2.242114e+01
1.614745e+02	-2.247058e+01
1.624072e+02	-2.252185e+01
1.633453e+02	-2.256914e+01
1.642887e+02	-2.261971e+01
1.652377e+02	-2.267082e+01
1.661921e+02	-2.272088e+01
1.671520e+02	-2.276947e+01
1.681175e+02	-2.281981e+01
1.690885e+02	-2.287025e+01
1.700651e+02	-2.291981e+01
1.710474e+02	-2.296952e+01
1.720354e+02	-2.301730e+01
1.730291e+02	-2.306760e+01
1.740285e+02	-2.311599e+01
1.750337e+02	-2.316717e+01
1.760446e+02	-2.321820e+01
1.770615e+02	-2.326845e+01
1.780842e+02	-2.331847e+01
1.791128e+02	-2.336509e+01
1.801473e+02	-2.341652e+01
1.811878e+02	-2.346546e+01
1.822344e+02	-2.351604e+01
1.832870e+02	-2.356596e+01
1.843456e+02	-2.361747e+01
1.854104e+02	-2.366490e+01
1.864813e+02	-2.371679e+01
1.875584e+02	-2.376275e+01
1.886418e+02	-2.381681e+01
1.897313e+02	-2.386295e+01
1.908272e+02	-2.391550e+01
1.919294e+02	-2.396476e+01
1.930380e+02	-2.401585e+01
1.941530e+02	-2.406418e+01
1.952744e+02	-2.411239e+01
1.964023e+02	-2.416465e+01
1.975367e+02	-2.421550e+01
1.986777e+02	-2.426343e+01
1.998252e+02	-2.431381e+01
2.009794e+02	-2.436605e+01
2.021403e+02	-2.441417e+01
2.033078e+02	-2.446170e+01
2.044821e+02	-2.451380e+01
2.056632e+02	-2.456254e+01
2.068511e+02	-2.461053e+01
2.080459e+02	-2.466365e+01
2.092475e+02	-2.471316e+01
2.104561e+02	-2.476003e+01
2.116717e+02	-2.481307e+01
2.128943e+02	-2.485990e+01
2.141240e+02	-2.491225e+01
2.153608e+02	-2.496365e+01
2.166047e+02	-2.501213e+01
2.178558e+02	-2.506178e+01
2.191141e+02	-2.511263e+01
2.203797e+02	-2.515924e+01
2.216526e+02	-2.521141e+01
2.229329e+02	-2.526368e+01
2.242205e+02	-2.531114e+01
2.255156e+02	-2.536086e+01
2.268182e+02	-2.541149e+01
2.281283e+02	-2.546302e+01
2.294459e+02	-2.551187e+01
2.307712e+02	-2.556510e+01
2.321041e+02	-2.560969e+01
2.334447e+02	-2.566144e+01
2.347931e+02	-2.571151e+01
2.361493e+02	-2.576003e+01
2.375133e+02	-2.580962e+01
2.388851e+02	-2.585793e+01
2.402649e+02	-2.591153e+01
2.416527e+02	-2.595778e+01
2.430484e+02	-2.601294e+01
2.444523e+02	-2.605950e+01
2.458642e+02	-2.611017e+01
2.472843e+02	-2.616001e+01
2.487126e+02	-2.621347e+01
2.501492e+02	-2.626235e+01
2.515940e+02	-2.630950e+01
2.530472e+02	-2.636452e+01
2.545088e+02	-2.641083e+01
2.559789e+02	-2.645887e+01
2.574574e+02	-2.651145e+01
2.589444e+02	-2.656105e+01
2.604401e+02	-2.660894e+01
2.619444e+02	-2.666109e+01
2.634574e+02	-2.671192e+01
2.649791e+02	-2.676155e+01
2.665096e+02	-2.681222e+01
2.680489e+02	-2.686102e+01
2.695972e+02	-2.690631e+01
2.711544e+02	-2.696294e+01
2.727205e+02	-2.701106e+01
2.742958e+02	-2.706070e+01
2.758801e+02	-2.710841e+01
2.774736e+02	-2.716180e+01
2.790762e+02	-2.720995e+01
2.806882e+02	-2.726011e+01
2.823094e+02	-2.731286e+01
2.839400e+02	-2.736331e+01
2.855800e+02	-2.740993e+01
2.872295e+02	-2.746116e+01
2.888886e+02	-2.750795e+01
2.905572e+02	-2.755830e+01
2.922354e+02	-2.761325e+01
2.939234e+02	-2.765638e+01
2.956211e+02	-2.770825e+01
2.973286e+02	-2.776143e+01
2.990459e+02	-2.781048e+01
3.007732e+02	-2.785970e+01
3.025104e+02	-2.791218e+01
3.042577e+02	-2.796125e+01
3.060151e+02	-2.801176e+01
3.077826e+02	-2.806149e+01
3.095604e+02	-2.810820e+01
3.113484e+02	-2.815939e+01
3.131467e+02	-2.820859e+01
3.149554e+02	-2.825845e+01
3.167746e+02	-2.830956e+01
3.186043e+02	-2.836052e+01
3.204445e+02	-2.840955e+01
3.222954e+02	-2.845812e+01
3.241570e+02	-2.851154e+01
3.260293e+02	-2.856125e+01
3.279124e+02	-2.861078e+01
3.298064e+02	-2.866029e+01
3.317114e+02	-2.871286e+01
3.336273e+02	-2.876035e+01
3.355544e+02	-2.881365e+01
3.374925e+02	-2.886299e+01
3.394418e+02	-2.891036e+01
3.414024e+02	-2.895806e+01
3.433744e+02	-2.901403e+01
3.453577e+02	-2.906399e+01
3.473525e+02	-2.911508e+01
3.493588e+02	-2.915821e+01
3.513766e+02	-2.921036e+01
3.534062e+02	-2.926149e+01
3.554474e+02	-2.931288e+01
3.575005e+02	-2.936256e+01
3.595654e+02	-2.941172e+01
3.616422e+02	-2.946395e+01
3.637311e+02	-2.951351e+01
3.658320e+02	-2.956056e+01
3.679450e+02	-2.960728e+01
3.700702e+02	-2.966546e+01
3.722077e+02	-2.971242e+01
3.743576e+02	-2.976180e+01
3.765199e+02	-2.980928e+01
3.786946e+02	-2.986443e+01
3.808820e+02	-2.991293e+01
3.830819e+02	-2.997004e+01
3.852946e+02	-3.000512e+01
3.875200e+02	-3.006819e+01
3.897583e+02	-3.011741e+01
3.920096e+02	-3.016788e+01
3.942738e+02	-3.021416e+01
3.965511e+02	-3.026133e+01
3.988416e+02	-3.031091e+01
4.011452e+02	-3.036543e+01
4.034622e+02	-3.041580e+01
4.057926e+02	-3.046100e+01
4.081365e+02	-3.050850e+01
4.104938e+02	-3.056435e+01
4.128648e+02	-3.061671e+01
4.152495e+02	-3.066596e+01
4.176480e+02	-3.071464e+01
4.200603e+02	-3.076432e+01
4.224866e+02	-3.081743e+01
4.249268e+02	-3.086538e+01
4.273812e+02	-3.091348e+01
4.298497e+02	-3.096298e+01
4.323325e+02	-3.101871e+01
4.348297e+02	-3.106233e+01
4.373412e+02	-3.110900e+01
4.398673e+02	-3.116463e+01
4.424079e+02	-3.121981e+01
4.449633e+02	-3.126285e+01
4.475334e+02	-3.131623e+01
4.501183e+02	-3.136271e+01
4.527182e+02	-3.141791e+01
4.553330e+02	-3.146639e+01
4.579630e+02	-3.151707e+01
4.606082e+02	-3.156779e+01
4.632687e+02	-3.161464e+01
4.659445e+02	-3.166638e+01
4.686358e+02	-3.171803e+01
4.713426e+02	-3.176515e+01
4.740650e+02	-3.181713e+01
4.768032e+02	-3.187200e+01
4.795572e+02	-3.192281e+01
4.823271e+02	-3.196864e+01
4.851130e+02	-3.201540e+01
4.879150e+02	-3.206930e+01
4.907332e+02	-3.211849e+01
4.935676e+02	-3.217439e+01
4.964185e+02	-3.221786e+01
4.992858e+02	-3.227263e+01
5.021696e+02	-3.232165e+01
5.050701e+02	-3.237505e+01
5.079874e+02	-3.242135e+01
5.109215e+02	-3.247229e+01
5.138726e+02	-3.252399e+01
5.168407e+02	-3.257251e+01
5.198259e+02	-3.262273e+01
5.228284e+02	-3.266344e+01
5.258482e+02	-3.272527e+01
5.288855e+02	-3.276812e+01
5.319403e+02	-3.282337e+01
5.350128e+02	-3.286301e+01
5.381030e+02	-3.292324e+01
5.412111e+02	-3.296850e+01
5.443371e+02	-3.301379e+01
5.474812e+02	-3.307473e+01
5.506434e+02	-3.312121e+01
5.538239e+02	-3.317209e+01
5.570228e+02	-3.321371e+01
5.602401e+02	-3.327401e+01
5.634760e+02	-3.332522e+01
5.667306e+02	-3.337925e+01
5.700040e+02	-3.342699e+01
5.732964e+02	-3.347344e+01
5.766077e+02	-3.352038e+01
5.799382e+02	-3.357437e+01
5.832879e+02	-3.362661e+01
5.866569e+02	-3.367573e+01
5.900454e+02	-3.372237e+01
5.934535e+02	-3.377728e+01
5.968813e+02	-3.382670e+01
6.003288e+02	-3.388413e+01
6.037963e+02	-3.393082e+01
6.072838e+02	-3.397767e+01
6.107914e+02	-3.403459e+01
6.143194e+02	-3.408204e+01
6.178676e+02	-3.412914e+01
6.214364e+02	-3.417369e+01
6.250258e+02	-3.422800e+01
6.286359e+02	-3.427988e+01
6.322669e+02	-3.432669e+01
6.359189e+02	-3.438619e+01
6.395919e+02	-3.442643e+01
6.432862e+02	-3.447820e+01
6.470017e+02	-3.452683e+01
6.507388e+02	-3.458006e+01
6.544974e+02	-3.463181e+01
6.582778e+02	-3.468430e+01
6.620800e+02	-3.473540e+01
6.659041e+02	-3.478367e+01
6.697504e+02	-3.483506e+01
6.736188e+02	-3.488236e+01
6.775096e+02	-3.493279e+01
6.814229e+02	-3.498356e+01
6.853587e+02	-3.503612e+01
6.893173e+02	-3.508431e+01
6.932988e+02	-3.513741e+01
6.973033e+02	-3.518137e+01
7.013309e+02	-3.523780e+01
