Frequency(Hz)	Magnitude(dB)
1.000000e+01	-1.800852e-05
1.005776e+01	-1.821716e-05
1.011585e+01	-1.842821e-05
1.017428e+01	-1.864170e-05
1.023305e+01	-1.885767e-05
1.029215e+01	-1.907614e-05
1.035160e+01	-1.929714e-05
1.041139e+01	-1.952071e-05
1.047153e+01	-1.974686e-05
1.053201e+01	-1.997563e-05
1.059284e+01	-2.020705e-05
1.065403e+01	-2.044116e-05
1.071556e+01	-2.067797e-05
1.077746e+01	-2.091753e-05
1.083971e+01	-2.115987e-05
1.090232e+01	-2.140501e-05
1.096529e+01	-2.165299e-05
1.102862e+01	-2.190385e-05
1.109232e+01	-2.215761e-05
1.115639e+01	-2.241431e-05
1.122083e+01	-2.267399e-05
1.128564e+01	-2.293667e-05
1.135083e+01	-2.320240e-05
1.141639e+01	-2.347120e-05
1.148233e+01	-2.374312e-05
1.154865e+01	-2.401819e-05
1.161536e+01	-2.429645e-05
1.168245e+01	-2.457793e-05
1.174992e+01	-2.486267e-05
1.181779e+01	-2.515071e-05
1.188605e+01	-2.544209e-05
1.195470e+01	-2.573684e-05
1.202375e+01	-2.603501e-05
1.209320e+01	-2.633663e-05
1.216305e+01	-2.664175e-05
1.223330e+01	-2.695040e-05
1.230396e+01	-2.726263e-05
1.237503e+01	-2.757847e-05
1.244651e+01	-2.789797e-05
1.251840e+01	-2.822118e-05
1.259070e+01	-2.854813e-05
1.266343e+01	-2.887886e-05
1.273657e+01	-2.921343e-05
1.281014e+01	-2.955188e-05
1.288413e+01	-2.989424e-05
1.295855e+01	-3.024058e-05
1.303339e+01	-3.059092e-05
1.310867e+01	-3.094532e-05
1.318439e+01	-3.130383e-05
1.326054e+01	-3.166649e-05
1.333713e+01	-3.203336e-05
1.341417e+01	-3.240447e-05
1.349165e+01	-3.277989e-05
1.356958e+01	-3.315965e-05
1.364795e+01	-3.354381e-05
1.372678e+01	-3.393242e-05
1.380607e+01	-3.432554e-05
1.388581e+01	-3.472321e-05
1.396602e+01	-3.512548e-05
1.404668e+01	-3.553242e-05
1.412782e+01	-3.594407e-05
1.420942e+01	-3.636049e-05
1.429149e+01	-3.678174e-05
1.437404e+01	-3.720786e-05
1.445706e+01	-3.763892e-05
1.454057e+01	-3.807498e-05
1.462455e+01	-3.851609e-05
1.470902e+01	-3.896230e-05
1.479398e+01	-3.941369e-05
1.487943e+01	-3.987031e-05
1.496537e+01	-4.033222e-05
1.505181e+01	-4.079947e-05
1.513875e+01	-4.127214e-05
1.522619e+01	-4.175029e-05
1.531414e+01	-4.223398e-05
1.540259e+01	-4.272327e-05
1.549156e+01	-4.321823e-05
1.558103e+01	-4.371892e-05
1.567103e+01	-4.422541e-05
1.576155e+01	-4.473777e-05
1.585258e+01	-4.525607e-05
1.594415e+01	-4.578037e-05
1.603624e+01	-4.631075e-05
1.612886e+01	-4.684727e-05
1.622202e+01	-4.739000e-05
1.631572e+01	-4.793903e-05
1.640996e+01	-4.849441e-05
1.650474e+01	-4.905623e-05
1.660008e+01	-4.962456e-05
1.669596e+01	-5.019947e-05
1.679239e+01	-5.078104e-05
1.688938e+01	-5.136935e-05
1.698694e+01	-5.196447e-05
1.708505e+01	-5.256649e-05
1.718373e+01	-5.317549e-05
1.728299e+01	-5.379153e-05
1.738281e+01	-5.441472e-05
1.748322e+01	-5.504513e-05
1.758420e+01	-5.568284e-05
1.768576e+01	-5.632793e-05
1.778792e+01	-5.698050e-05
1.789066e+01	-5.764063e-05
1.799399e+01	-5.830841e-05
1.809793e+01	-5.898393e-05
1.820246e+01	-5.966727e-05
1.830760e+01	-6.035852e-05
1.841334e+01	-6.105779e-05
1.851969e+01	-6.176516e-05
1.862666e+01	-6.248072e-05
1.873425e+01	-6.320457e-05
1.884246e+01	-6.393681e-05
1.895129e+01	-6.467753e-05
1.906075e+01	-6.542683e-05
1.917085e+01	-6.618481e-05
1.928158e+01	-6.695157e-05
1.939295e+01	-6.772722e-05
1.950496e+01	-6.851185e-05
1.961762e+01	-6.930558e-05
1.973093e+01	-7.010849e-05
1.984490e+01	-7.092071e-05
1.995952e+01	-7.174234e-05
2.007480e+01	-7.257349e-05
2.019076e+01	-7.341427e-05
2.030738e+01	-7.426479e-05
2.042467e+01	-7.512516e-05
2.054264e+01	-7.599550e-05
2.066130e+01	-7.687592e-05
2.078064e+01	-7.776654e-05
2.090066e+01	-7.866748e-05
2.102139e+01	-7.957885e-05
2.114280e+01	-8.050079e-05
2.126492e+01	-8.143340e-05
2.138775e+01	-8.237682e-05
2.151128e+01	-8.333117e-05
2.163553e+01	-8.429658e-05
2.176050e+01	-8.527317e-05
2.188619e+01	-8.626107e-05
2.201260e+01	-8.726042e-05
2.213974e+01	-8.827135e-05
2.226762e+01	-8.929398e-05
2.239624e+01	-9.032847e-05
2.252560e+01	-9.137494e-05
2.265571e+01	-9.243353e-05
2.278656e+01	-9.350439e-05
2.291818e+01	-9.458765e-05
2.305055e+01	-9.568346e-05
2.318369e+01	-9.679197e-05
2.331760e+01	-9.791332e-05
2.345228e+01	-9.904766e-05
2.358774e+01	-1.001951e-04
2.372398e+01	-1.013559e-04
2.386101e+01	-1.025301e-04
2.399883e+01	-1.037180e-04
2.413745e+01	-1.049196e-04
2.427686e+01	-1.061351e-04
2.441709e+01	-1.073647e-04
2.455812e+01	-1.086085e-04
2.469997e+01	-1.098667e-04
2.484263e+01	-1.111395e-04
2.498612e+01	-1.124271e-04
2.513044e+01	-1.137296e-04
2.527559e+01	-1.150472e-04
2.542158e+01	-1.163800e-04
2.556842e+01	-1.177283e-04
2.571610e+01	-1.190922e-04
2.586463e+01	-1.204719e-04
2.601403e+01	-1.218676e-04
2.616428e+01	-1.232794e-04
2.631541e+01	-1.247076e-04
2.646740e+01	-1.261524e-04
2.662028e+01	-1.276139e-04
2.677404e+01	-1.290923e-04
2.692868e+01	-1.305878e-04
2.708422e+01	-1.321007e-04
2.724066e+01	-1.336311e-04
2.739800e+01	-1.351792e-04
2.755625e+01	-1.367453e-04
2.771541e+01	-1.383295e-04
2.787550e+01	-1.399321e-04
2.803650e+01	-1.415532e-04
2.819844e+01	-1.431931e-04
2.836131e+01	-1.448520e-04
2.852513e+01	-1.465301e-04
2.868989e+01	-1.482277e-04
2.885560e+01	-1.499449e-04
2.902227e+01	-1.516820e-04
2.918990e+01	-1.534393e-04
2.935850e+01	-1.552169e-04
2.952807e+01	-1.570151e-04
2.969863e+01	-1.588341e-04
2.987016e+01	-1.606742e-04
3.004269e+01	-1.625356e-04
3.021622e+01	-1.644186e-04
3.039075e+01	-1.663234e-04
3.056628e+01	-1.682503e-04
3.074283e+01	-1.701995e-04
3.092040e+01	-1.721712e-04
3.109900e+01	-1.741659e-04
3.127862e+01	-1.761836e-04
3.145929e+01	-1.782247e-04
3.164099e+01	-1.802894e-04
3.182375e+01	-1.823781e-04
3.200756e+01	-1.844909e-04
3.219244e+01	-1.866283e-04
3.237838e+01	-1.887903e-04
3.256540e+01	-1.909775e-04
3.275349e+01	-1.931900e-04
3.294268e+01	-1.954281e-04
3.313295e+01	-1.976921e-04
3.332433e+01	-1.999824e-04
3.351681e+01	-2.022992e-04
3.371040e+01	-2.046428e-04
3.390511e+01	-2.070136e-04
3.410094e+01	-2.094118e-04
3.429791e+01	-2.118379e-04
3.449601e+01	-2.142920e-04
3.469526e+01	-2.167746e-04
3.489566e+01	-2.192859e-04
3.509721e+01	-2.218264e-04
3.529993e+01	-2.243962e-04
3.550382e+01	-2.269958e-04
3.570889e+01	-2.296256e-04
3.591515e+01	-2.322858e-04
3.612259e+01	-2.349768e-04
3.633123e+01	-2.376990e-04
3.654108e+01	-2.404527e-04
3.675214e+01	-2.432384e-04
3.696442e+01	-2.460563e-04
3.717792e+01	-2.489068e-04
3.739266e+01	-2.517904e-04
3.760864e+01	-2.547074e-04
3.782587e+01	-2.576581e-04
3.804435e+01	-2.606431e-04
3.826409e+01	-2.636626e-04
3.848510e+01	-2.667171e-04
3.870739e+01	-2.698070e-04
3.893096e+01	-2.729327e-04
3.915583e+01	-2.760946e-04
3.938199e+01	-2.792931e-04
3.960946e+01	-2.825287e-04
3.983824e+01	-2.858018e-04
4.006834e+01	-2.891128e-04
4.029978e+01	-2.924621e-04
4.053255e+01	-2.958503e-04
4.076666e+01	-2.992776e-04
4.100213e+01	-3.027447e-04
4.123896e+01	-3.062520e-04
4.147715e+01	-3.097999e-04
4.171672e+01	-3.133889e-04
4.195767e+01	-3.170194e-04
4.220002e+01	-3.206921e-04
4.244377e+01	-3.244072e-04
4.268892e+01	-3.281654e-04
4.293549e+01	-3.319672e-04
4.318348e+01	-3.358130e-04
4.343291e+01	-3.397033e-04
4.368377e+01	-3.436387e-04
4.393609e+01	-3.476197e-04
4.418986e+01	-3.516468e-04
4.444510e+01	-3.557205e-04
4.470182e+01	-3.598415e-04
4.496001e+01	-3.640102e-04
4.521970e+01	-3.682272e-04
4.548089e+01	-3.724930e-04
4.574358e+01	-3.768082e-04
4.600779e+01	-3.811735e-04
4.627353e+01	-3.855893e-04
4.654081e+01	-3.900562e-04
4.680963e+01	-3.945749e-04
4.708000e+01	-3.991460e-04
4.735193e+01	-4.037700e-04
4.762543e+01	-4.084476e-04
4.790051e+01	-4.131793e-04
4.817719e+01	-4.179659e-04
4.845545e+01	-4.228079e-04
4.873533e+01	-4.277060e-04
4.901682e+01	-4.326609e-04
4.929994e+01	-4.376731e-04
4.958470e+01	-4.427434e-04
4.987110e+01	-4.478724e-04
5.015915e+01	-4.530609e-04
5.044887e+01	-4.583095e-04
5.074026e+01	-4.636188e-04
5.103333e+01	-4.689897e-04
5.132810e+01	-4.744228e-04
5.162457e+01	-4.799188e-04
5.192275e+01	-4.854784e-04
5.222265e+01	-4.911025e-04
5.252429e+01	-4.967918e-04
5.282767e+01	-5.025469e-04
5.313280e+01	-5.083687e-04
5.343969e+01	-5.142580e-04
5.374836e+01	-5.202154e-04
5.405880e+01	-5.262419e-04
5.437105e+01	-5.323382e-04
5.468509e+01	-5.385051e-04
5.500095e+01	-5.447434e-04
5.531863e+01	-5.510540e-04
5.563815e+01	-5.574377e-04
5.595951e+01	-5.638954e-04
5.628273e+01	-5.704278e-04
5.660782e+01	-5.770359e-04
5.693479e+01	-5.837206e-04
5.726364e+01	-5.904827e-04
5.759439e+01	-5.973232e-04
5.792705e+01	-6.042428e-04
5.826164e+01	-6.112427e-04
5.859815e+01	-6.183236e-04
5.893662e+01	-6.254865e-04
5.927703e+01	-6.327324e-04
5.961941e+01	-6.400622e-04
5.996377e+01	-6.474770e-04
6.031012e+01	-6.549776e-04
6.065847e+01	-6.625651e-04
6.100883e+01	-6.702405e-04
6.136121e+01	-6.780049e-04
6.171563e+01	-6.858591e-04
6.207210e+01	-6.938043e-04
6.243063e+01	-7.018416e-04
6.279122e+01	-7.099720e-04
6.315390e+01	-7.181965e-04
6.351868e+01	-7.265163e-04
6.388556e+01	-7.349325e-04
6.425456e+01	-7.434462e-04
6.462569e+01	-7.520584e-04
6.499897e+01	-7.607705e-04
6.537440e+01	-7.695834e-04
6.575200e+01	-7.784985e-04
6.613178e+01	-7.875168e-04
6.651375e+01	-7.966395e-04
6.689793e+01	-8.058680e-04
6.728433e+01	-8.152033e-04
6.767297e+01	-8.246468e-04
6.806384e+01	-8.341996e-04
6.845698e+01	-8.438631e-04
6.885238e+01	-8.536385e-04
6.925007e+01	-8.635272e-04
6.965005e+01	-8.735304e-04
7.005235e+01	-8.836494e-04
7.045697e+01	-8.938857e-04
7.086393e+01	-9.042405e-04
7.127323e+01	-9.147153e-04
7.168490e+01	-9.253114e-04
7.209895e+01	-9.360302e-04
7.251539e+01	-9.468732e-04
7.293424e+01	-9.578418e-04
7.335551e+01	-9.689374e-04
7.377920e+01	-9.801615e-04
7.420535e+01	-9.915157e-04
7.463396e+01	-1.003001e-03
7.506504e+01	-1.014620e-03
7.549861e+01	-1.026373e-03
7.593469e+01	-1.038263e-03
7.637328e+01	-1.050290e-03
7.681441e+01	-1.062456e-03
7.725809e+01	-1.074763e-03
7.770433e+01	-1.087213e-03
7.815315e+01	-1.099807e-03
7.860456e+01	-1.112547e-03
7.905857e+01	-1.125435e-03
7.951521e+01	-1.138472e-03
7.997449e+01	-1.151659e-03
8.043642e+01	-1.165000e-03
8.090102e+01	-1.178495e-03
8.136830e+01	-1.192146e-03
8.183828e+01	-1.205956e-03
8.231097e+01	-1.219925e-03
8.278640e+01	-1.234056e-03
8.326457e+01	-1.248351e-03
8.374550e+01	-1.262811e-03
8.422921e+01	-1.277439e-03
8.471572e+01	-1.292236e-03
8.520503e+01	-1.307205e-03
8.569717e+01	-1.322347e-03
8.619215e+01	-1.337664e-03
8.669000e+01	-1.353159e-03
8.719071e+01	-1.368834e-03
8.769432e+01	-1.384689e-03
8.820084e+01	-1.400729e-03
8.871029e+01	-1.416954e-03
8.922267e+01	-1.433367e-03
8.973802e+01	-1.449970e-03
9.025634e+01	-1.466766e-03
9.077766e+01	-1.483756e-03
9.130199e+01	-1.500942e-03
9.182935e+01	-1.518328e-03
9.235975e+01	-1.535915e-03
9.289321e+01	-1.553706e-03
9.342976e+01	-1.571703e-03
9.396941e+01	-1.589908e-03
9.451217e+01	-1.608324e-03
9.505807e+01	-1.626954e-03
9.560712e+01	-1.645799e-03
9.615934e+01	-1.664862e-03
9.671476e+01	-1.684146e-03
9.727338e+01	-1.703654e-03
9.783522e+01	-1.723387e-03
9.840032e+01	-1.743349e-03
9.896867e+01	-1.763542e-03
9.954031e+01	-1.783969e-03
1.001153e+02	-1.804632e-03
1.006935e+02	-1.825535e-03
1.012751e+02	-1.846680e-03
1.018601e+02	-1.868070e-03
1.024484e+02	-1.889707e-03
1.030402e+02	-1.911595e-03
1.036353e+02	-1.933736e-03
1.042339e+02	-1.956134e-03
1.048360e+02	-1.978791e-03
1.054415e+02	-2.001711e-03
1.060505e+02	-2.024896e-03
1.066631e+02	-2.048349e-03
1.072791e+02	-2.072074e-03
1.078988e+02	-2.096074e-03
1.085220e+02	-2.120352e-03
1.091488e+02	-2.144910e-03
1.097793e+02	-2.169753e-03
1.104133e+02	-2.194884e-03
1.110511e+02	-2.220306e-03
1.116925e+02	-2.246022e-03
1.123376e+02	-2.272036e-03
1.129865e+02	-2.298351e-03
1.136391e+02	-2.324971e-03
1.142955e+02	-2.351899e-03
1.149556e+02	-2.379139e-03
1.156196e+02	-2.406695e-03
1.162874e+02	-2.434569e-03
1.169591e+02	-2.462766e-03
1.176347e+02	-2.491290e-03
1.183141e+02	-2.520144e-03
1.189975e+02	-2.549331e-03
1.196848e+02	-2.578857e-03
1.203761e+02	-2.608725e-03
1.210714e+02	-2.638939e-03
1.217707e+02	-2.669502e-03
1.224740e+02	-2.700419e-03
1.231814e+02	-2.731695e-03
1.238929e+02	-2.763332e-03
1.246085e+02	-2.795336e-03
1.253283e+02	-2.827710e-03
1.260522e+02	-2.860459e-03
1.267802e+02	-2.893587e-03
1.275125e+02	-2.927098e-03
1.282490e+02	-2.960998e-03
1.289898e+02	-2.995290e-03
1.297348e+02	-3.029979e-03
1.304842e+02	-3.065070e-03
1.312378e+02	-3.100567e-03
1.319959e+02	-3.136475e-03
1.327583e+02	-3.172798e-03
1.335251e+02	-3.209542e-03
1.342963e+02	-3.246712e-03
1.350720e+02	-3.284312e-03
1.358522e+02	-3.322347e-03
1.366368e+02	-3.360822e-03
1.374260e+02	-3.399743e-03
1.382198e+02	-3.439114e-03
1.390182e+02	-3.478941e-03
1.398211e+02	-3.519229e-03
1.406287e+02	-3.559984e-03
1.414410e+02	-3.601210e-03
1.422579e+02	-3.642913e-03
1.430796e+02	-3.685099e-03
1.439060e+02	-3.727774e-03
1.447372e+02	-3.770942e-03
1.455732e+02	-3.814610e-03
1.464141e+02	-3.858784e-03
1.472597e+02	-3.903469e-03
1.481103e+02	-3.948671e-03
1.489658e+02	-3.994396e-03
1.498262e+02	-4.040651e-03
1.506916e+02	-4.087441e-03
1.515620e+02	-4.134772e-03
1.524374e+02	-4.182652e-03
1.533179e+02	-4.231085e-03
1.542034e+02	-4.280079e-03
1.550941e+02	-4.329640e-03
1.559899e+02	-4.379775e-03
1.568909e+02	-4.430490e-03
1.577971e+02	-4.481792e-03
1.587085e+02	-4.533687e-03
1.596252e+02	-4.586183e-03
1.605472e+02	-4.639287e-03
1.614745e+02	-4.693005e-03
1.624072e+02	-4.747345e-03
1.633453e+02	-4.802314e-03
1.642887e+02	-4.857919e-03
1.652377e+02	-4.914167e-03
1.661921e+02	-4.971066e-03
1.671520e+02	-5.028624e-03
1.681175e+02	-5.086848e-03
1.690885e+02	-5.145745e-03
1.700651e+02	-5.205324e-03
1.710474e+02	-5.265592e-03
1.720354e+02	-5.326558e-03
1.730291e+02	-5.388229e-03
1.740285e+02	-5.450614e-03
1.750337e+02	-5.513721e-03
1.760446e+02	-5.577557e-03
1.770615e+02	-5.642133e-03
1.780842e+02	-5.707455e-03
1.791128e+02	-5.773533e-03
1.801473e+02	-5.840376e-03
1.811878e+02	-5.907992e-03
1.822344e+02	-5.976391e-03
1.832870e+02	-6.045580e-03
1.843456e+02	-6.115571e-03
1.854104e+02	-6.186370e-03
1.864813e+02	-6.257989e-03
1.875584e+02	-6.330437e-03
1.886418e+02	-6.403722e-03
1.897313e+02	-6.477856e-03
1.908272e+02	-6.552846e-03
1.919294e+02	-6.628705e-03
1.930380e+02	-6.705440e-03
1.941530e+02	-6.783064e-03
1.952744e+02	-6.861585e-03
1.964023e+02	-6.941015e-03
1.975367e+02	-7.021363e-03
1.986777e+02	-7.102640e-03
1.998252e+02	-7.184858e-03
2.009794e+02	-7.268027e-03
2.021403e+02	-7.352157e-03
2.033078e+02	-7.437261e-03
2.044821e+02	-7.523348e-03
2.056632e+02	-7.610432e-03
2.068511e+02	-7.698522e-03
2.080459e+02	-7.787631e-03
2.092475e+02	-7.877771e-03
2.104561e+02	-7.968953e-03
2.116717e+02	-8.061189e-03
2.128943e+02	-8.154492e-03
2.141240e+02	-8.248874e-03
2.153608e+02	-8.344347e-03
2.166047e+02	-8.440924e-03
2.178558e+02	-8.538618e-03
2.191141e+02	-8.637442e-03
2.203797e+02	-8.737408e-03
2.216526e+02	-8.838529e-03
2.229329e+02	-8.940820e-03
2.242205e+02	-9.044294e-03
2.255156e+02	-9.148963e-03
2.268182e+02	-9.254843e-03
2.281283e+02	-9.361947e-03
2.294459e+02	-9.470289e-03
2.307712e+02	-9.579883e-03
2.321041e+02	-9.690744e-03
2.334447e+02	-9.802887e-03
2.347931e+02	-9.916326e-03
2.361493e+02	-1.003108e-02
2.375133e+02	-1.014715e-02
2.388851e+02	-1.026457e-02
2.402649e+02	-1.038334e-02
2.416527e+02	-1.050349e-02
2.430484e+02	-1.062503e-02
2.444523e+02	-1.074797e-02
2.458642e+02	-1.087233e-02
2.472843e+02	-1.099813e-02
2.487126e+02	-1.112538e-02
2.501492e+02	-1.125411e-02
2.515940e+02	-1.138432e-02
2.530472e+02	-1.151603e-02
2.545088e+02	-1.164927e-02
2.559789e+02	-1.178404e-02
2.574574e+02	-1.192038e-02
2.589444e+02	-1.205828e-02
2.604401e+02	-1.219779e-02
2.619444e+02	-1.233890e-02
2.634574e+02	-1.248164e-02
2.649791e+02	-1.262603e-02
2.665096e+02	-1.277209e-02
2.680489e+02	-1.291984e-02
2.695972e+02	-1.306929e-02
2.711544e+02	-1.322047e-02
2.727205e+02	-1.337340e-02
2.742958e+02	-1.352809e-02
2.758801e+02	-1.368457e-02
2.774736e+02	-1.384286e-02
2.790762e+02	-1.400297e-02
2.806882e+02	-1.416493e-02
2.823094e+02	-1.432876e-02
2.839400e+02	-1.449449e-02
2.855800e+02	-1.466213e-02
2.872295e+02	-1.483170e-02
2.888886e+02	-1.500323e-02
2.905572e+02	-1.517674e-02
2.922354e+02	-1.535226e-02
2.939234e+02	-1.552980e-02
2.956211e+02	-1.570939e-02
2.973286e+02	-1.589105e-02
2.990459e+02	-1.607481e-02
3.007732e+02	-1.626069e-02
3.025104e+02	-1.644872e-02
3.042577e+02	-1.663891e-02
3.060151e+02	-1.683131e-02
3.077826e+02	-1.702592e-02
3.095604e+02	-1.722277e-02
3.113484e+02	-1.742190e-02
3.131467e+02	-1.762333e-02
3.149554e+02	-1.782708e-02
3.167746e+02	-1.803318e-02
3.186043e+02	-1.824166e-02
3.204445e+02	-1.845254e-02
3.222954e+02	-1.866586e-02
3.241570e+02	-1.888164e-02
3.260293e+02	-1.909990e-02
3.279124e+02	-1.932068e-02
3.298064e+02	-1.954401e-02
3.317114e+02	-1.976992e-02
3.336273e+02	-1.999843e-02
3.355544e+02	-2.022957e-02
3.374925e+02	-2.046339e-02
3.394418e+02	-2.069989e-02
3.414024e+02	-2.093913e-02
3.433744e+02	-2.118112e-02
3.453577e+02	-2.142590e-02
3.473525e+02	-2.167350e-02
3.493588e+02	-2.192396e-02
3.513766e+02	-2.217730e-02
3.534062e+02	-2.243357e-02
3.554474e+02	-2.269278e-02
3.575005e+02	-2.295499e-02
3.595654e+02	-2.322021e-02
3.616422e+02	-2.348850e-02
3.637311e+02	-2.375987e-02
3.658320e+02	-2.403437e-02
3.679450e+02	-2.431203e-02
3.700702e+02	-2.459289e-02
3.722077e+02	-2.487699e-02
3.743576e+02	-2.516436e-02
3.765199e+02	-2.545503e-02
3.786946e+02	-2.574906e-02
3.808820e+02	-2.604647e-02
3.830819e+02	-2.634731e-02
3.852946e+02	-2.665161e-02
3.875200e+02	-2.695941e-02
3.897583e+02	-2.727076e-02
3.920096e+02	-2.758569e-02
3.942738e+02	-2.790425e-02
3.965511e+02	-2.822647e-02
3.988416e+02	-2.855241e-02
4.011452e+02	-2.888209e-02
4.034622e+02	-2.921557e-02
4.057926e+02	-2.955288e-02
4.081365e+02	-2.989408e-02
4.104938e+02	-3.023920e-02
4.128648e+02	-3.058829e-02
4.152495e+02	-3.094140e-02
4.176480e+02	-3.129856e-02
4.200603e+02	-3.165984e-02
4.224866e+02	-3.202527e-02
4.249268e+02	-3.239490e-02
4.273812e+02	-3.276879e-02
4.298497e+02	-3.314697e-02
4.323325e+02	-3.352950e-02
4.348297e+02	-3.391643e-02
4.373412e+02	-3.430780e-02
4.398673e+02	-3.470367e-02
4.424079e+02	-3.510409e-02
4.449633e+02	-3.550912e-02
4.475334e+02	-3.591879e-02
4.501183e+02	-3.633317e-02
4.527182e+02	-3.675232e-02
4.553330e+02	-3.717628e-02
4.579630e+02	-3.760510e-02
4.606082e+02	-3.803885e-02
4.632687e+02	-3.847759e-02
4.659445e+02	-3.892136e-02
4.686358e+02	-3.937022e-02
4.713426e+02	-3.982424e-02
4.740650e+02	-4.028347e-02
4.768032e+02	-4.074797e-02
4.795572e+02	-4.121780e-02
4.823271e+02	-4.169302e-02
4.851130e+02	-4.217369e-02
4.879150e+02	-4.265988e-02
4.907332e+02	-4.315164e-02
4.935676e+02	-4.364905e-02
4.964185e+02	-4.415216e-02
4.992858e+02	-4.466103e-02
5.021696e+02	-4.517575e-02
5.050701e+02	-4.569636e-02
5.079874e+02	-4.622294e-02
5.109215e+02	-4.675556e-02
5.138726e+02	-4.729428e-02
5.168407e+02	-4.783917e-02
5.198259e+02	-4.839030e-02
5.228284e+02	-4.894775e-02
5.258482e+02	-4.951159e-02
5.288855e+02	-5.008188e-02
5.319403e+02	-5.065870e-02
5.350128e+02	-5.124212e-02
5.381030e+02	-5.183223e-02
5.412111e+02	-5.242909e-02
5.443371e+02	-5.303277e-02
5.474812e+02	-5.364337e-02
5.506434e+02	-5.426096e-02
5.538239e+02	-5.488560e-02
5.570228e+02	-5.551740e-02
5.602401e+02	-5.615642e-02
5.634760e+02	-5.680274e-02
5.667306e+02	-5.745646e-02
5.700040e+02	-5.811765e-02
5.732964e+02	-5.878639e-02
5.766077e+02	-5.946278e-02
5.799382e+02	-6.014689e-02
5.832879e+02	-6.083882e-02
5.866569e+02	-6.153866e-02
5.900454e+02	-6.224648e-02
5.934535e+02	-6.296239e-02
5.968813e+02	-6.368648e-02
6.003288e+02	-6.441882e-02
6.037963e+02	-6.515953e-02
6.072838e+02	-6.590869e-02
6.107914e+02	-6.666639e-02
6.143194e+02	-6.743274e-02
6.178676e+02	-6.820782e-02
6.214364e+02	-6.899175e-02
6.250258e+02	-6.978461e-02
6.286359e+02	-7.058651e-02
6.322669e+02	-7.139755e-02
6.359189e+02	-7.221783e-02
6.395919e+02	-7.304745e-02
6.432862e+02	-7.388652e-02
6.470017e+02	-7.473515e-02
6.507388e+02	-7.559344e-02
6.544974e+02	-7.646150e-02
6.582778e+02	-7.733944e-02
6.620800e+02	-7.822737e-02
6.659041e+02	-7.912540e-02
6.697504e+02	-8.003364e-02
6.736188e+02	-8.095221e-02
6.775096e+02	-8.188123e-02
6.814229e+02	-8.282080e-02
6.853587e+02	-8.377105e-02
6.893173e+02	-8.473210e-02
6.932988e+02	-8.570406e-02
6.973033e+02	-8.668706e-02
7.013309e+02	-8.768123e-02
