Frequency(Hz)	Magnitude(dB)
1.000000e+01	-1.902498e-05
1.005776e+01	-1.924539e-05
1.011585e+01	-1.946836e-05
1.017428e+01	-1.969390e-05
1.023305e+01	-1.992206e-05
1.029215e+01	-2.015286e-05
1.035160e+01	-2.038634e-05
1.041139e+01	-2.062252e-05
1.047153e+01	-2.086144e-05
1.053201e+01	-2.110312e-05
1.059284e+01	-2.134761e-05
1.065403e+01	-2.159492e-05
1.071556e+01	-2.184511e-05
1.077746e+01	-2.209819e-05
1.083971e+01	-2.235420e-05
1.090232e+01	-2.261318e-05
1.096529e+01	-2.287516e-05
1.102862e+01	-2.314017e-05
1.109232e+01	-2.340826e-05
1.115639e+01	-2.367945e-05
1.122083e+01	-2.395378e-05
1.128564e+01	-2.423129e-05
1.135083e+01	-2.451202e-05
1.141639e+01	-2.479600e-05
1.148233e+01	-2.508326e-05
1.154865e+01	-2.537386e-05
1.161536e+01	-2.566782e-05
1.168245e+01	-2.596519e-05
1.174992e+01	-2.626600e-05
1.181779e+01	-2.657030e-05
1.188605e+01	-2.687812e-05
1.195470e+01	-2.718951e-05
1.202375e+01	-2.750451e-05
1.209320e+01	-2.782316e-05
1.216305e+01	-2.814550e-05
1.223330e+01	-2.847157e-05
1.230396e+01	-2.880142e-05
1.237503e+01	-2.913509e-05
1.244651e+01	-2.947263e-05
1.251840e+01	-2.981407e-05
1.259070e+01	-3.015948e-05
1.266343e+01	-3.050888e-05
1.273657e+01	-3.086233e-05
1.281014e+01	-3.121988e-05
1.288413e+01	-3.158157e-05
1.295855e+01	-3.194745e-05
1.303339e+01	-3.231757e-05
1.310867e+01	-3.269198e-05
1.318439e+01	-3.307072e-05
1.326054e+01	-3.345385e-05
1.333713e+01	-3.384142e-05
1.341417e+01	-3.423348e-05
1.349165e+01	-3.463009e-05
1.356958e+01	-3.503129e-05
1.364795e+01	-3.543713e-05
1.372678e+01	-3.584768e-05
1.380607e+01	-3.626298e-05
1.388581e+01	-3.668310e-05
1.396602e+01	-3.710808e-05
1.404668e+01	-3.753798e-05
1.412782e+01	-3.797287e-05
1.420942e+01	-3.841280e-05
1.429149e+01	-3.885782e-05
1.437404e+01	-3.930799e-05
1.445706e+01	-3.976339e-05
1.454057e+01	-4.022405e-05
1.462455e+01	-4.069006e-05
1.470902e+01	-4.116146e-05
1.479398e+01	-4.163833e-05
1.487943e+01	-4.212072e-05
1.496537e+01	-4.260869e-05
1.505181e+01	-4.310232e-05
1.513875e+01	-4.360167e-05
1.522619e+01	-4.410681e-05
1.531414e+01	-4.461780e-05
1.540259e+01	-4.513470e-05
1.549156e+01	-4.565760e-05
1.558103e+01	-4.618655e-05
1.567103e+01	-4.672163e-05
1.576155e+01	-4.726291e-05
1.585258e+01	-4.781046e-05
1.594415e+01	-4.836436e-05
1.603624e+01	-4.892467e-05
1.612886e+01	-4.949147e-05
1.622202e+01	-5.006484e-05
1.631572e+01	-5.064485e-05
1.640996e+01	-5.123159e-05
1.650474e+01	-5.182511e-05
1.660008e+01	-5.242552e-05
1.669596e+01	-5.303288e-05
1.679239e+01	-5.364728e-05
1.688938e+01	-5.426879e-05
1.698694e+01	-5.489751e-05
1.708505e+01	-5.553351e-05
1.718373e+01	-5.617687e-05
1.728299e+01	-5.682769e-05
1.738281e+01	-5.748605e-05
1.748322e+01	-5.815204e-05
1.758420e+01	-5.882574e-05
1.768576e+01	-5.950725e-05
1.778792e+01	-6.019666e-05
1.789066e+01	-6.089405e-05
1.799399e+01	-6.159952e-05
1.809793e+01	-6.231316e-05
1.820246e+01	-6.303507e-05
1.830760e+01	-6.376534e-05
1.841334e+01	-6.450408e-05
1.851969e+01	-6.525137e-05
1.862666e+01	-6.600732e-05
1.873425e+01	-6.677203e-05
1.884246e+01	-6.754559e-05
1.895129e+01	-6.832812e-05
1.906075e+01	-6.911971e-05
1.917085e+01	-6.992048e-05
1.928158e+01	-7.073052e-05
1.939295e+01	-7.154995e-05
1.950496e+01	-7.237887e-05
1.961762e+01	-7.321739e-05
1.973093e+01	-7.406562e-05
1.984490e+01	-7.492369e-05
1.995952e+01	-7.579169e-05
2.007480e+01	-7.666975e-05
2.019076e+01	-7.755799e-05
2.030738e+01	-7.845651e-05
2.042467e+01	-7.936544e-05
2.054264e+01	-8.028490e-05
2.066130e+01	-8.121502e-05
2.078064e+01	-8.215591e-05
2.090066e+01	-8.310770e-05
2.102139e+01	-8.407051e-05
2.114280e+01	-8.504448e-05
2.126492e+01	-8.602974e-05
2.138775e+01	-8.702641e-05
2.151128e+01	-8.803462e-05
2.163553e+01	-8.905452e-05
2.176050e+01	-9.008623e-05
2.188619e+01	-9.112989e-05
2.201260e+01	-9.218565e-05
2.213974e+01	-9.325363e-05
2.226762e+01	-9.433399e-05
2.239624e+01	-9.542686e-05
2.252560e+01	-9.653240e-05
2.265571e+01	-9.765074e-05
2.278656e+01	-9.878204e-05
2.291818e+01	-9.992644e-05
2.305055e+01	-1.010841e-04
2.318369e+01	-1.022552e-04
2.331760e+01	-1.034398e-04
2.345228e+01	-1.046382e-04
2.358774e+01	-1.058504e-04
2.372398e+01	-1.070767e-04
2.386101e+01	-1.083172e-04
2.399883e+01	-1.095721e-04
2.413745e+01	-1.108415e-04
2.427686e+01	-1.121256e-04
2.441709e+01	-1.134246e-04
2.455812e+01	-1.147386e-04
2.469997e+01	-1.160679e-04
2.484263e+01	-1.174126e-04
2.498612e+01	-1.187728e-04
2.513044e+01	-1.201488e-04
2.527559e+01	-1.215407e-04
2.542158e+01	-1.229488e-04
2.556842e+01	-1.243732e-04
2.571610e+01	-1.258141e-04
2.586463e+01	-1.272716e-04
2.601403e+01	-1.287461e-04
2.616428e+01	-1.302376e-04
2.631541e+01	-1.317464e-04
2.646740e+01	-1.332727e-04
2.662028e+01	-1.348167e-04
2.677404e+01	-1.363786e-04
2.692868e+01	-1.379585e-04
2.708422e+01	-1.395568e-04
2.724066e+01	-1.411736e-04
2.739800e+01	-1.428091e-04
2.755625e+01	-1.444635e-04
2.771541e+01	-1.461372e-04
2.787550e+01	-1.478302e-04
2.803650e+01	-1.495428e-04
2.819844e+01	-1.512753e-04
2.836131e+01	-1.530278e-04
2.852513e+01	-1.548006e-04
2.868989e+01	-1.565940e-04
2.885560e+01	-1.584082e-04
2.902227e+01	-1.602433e-04
2.918990e+01	-1.620998e-04
2.935850e+01	-1.639777e-04
2.952807e+01	-1.658774e-04
2.969863e+01	-1.677991e-04
2.987016e+01	-1.697430e-04
3.004269e+01	-1.717095e-04
3.021622e+01	-1.736988e-04
3.039075e+01	-1.757111e-04
3.056628e+01	-1.777467e-04
3.074283e+01	-1.798059e-04
3.092040e+01	-1.818890e-04
3.109900e+01	-1.839962e-04
3.127862e+01	-1.861278e-04
3.145929e+01	-1.882841e-04
3.164099e+01	-1.904653e-04
3.182375e+01	-1.926719e-04
3.200756e+01	-1.949040e-04
3.219244e+01	-1.971620e-04
3.237838e+01	-1.994461e-04
3.256540e+01	-2.017567e-04
3.275349e+01	-2.040940e-04
3.294268e+01	-2.064584e-04
3.313295e+01	-2.088503e-04
3.332433e+01	-2.112698e-04
3.351681e+01	-2.137174e-04
3.371040e+01	-2.161933e-04
3.390511e+01	-2.186979e-04
3.410094e+01	-2.212315e-04
3.429791e+01	-2.237944e-04
3.449601e+01	-2.263871e-04
3.469526e+01	-2.290098e-04
3.489566e+01	-2.316628e-04
3.509721e+01	-2.343467e-04
3.529993e+01	-2.370616e-04
3.550382e+01	-2.398079e-04
3.570889e+01	-2.425861e-04
3.591515e+01	-2.453964e-04
3.612259e+01	-2.482393e-04
3.633123e+01	-2.511152e-04
3.654108e+01	-2.540243e-04
3.675214e+01	-2.569672e-04
3.696442e+01	-2.599441e-04
3.717792e+01	-2.629555e-04
3.739266e+01	-2.660019e-04
3.760864e+01	-2.690835e-04
3.782587e+01	-2.722008e-04
3.804435e+01	-2.753542e-04
3.826409e+01	-2.785442e-04
3.848510e+01	-2.817711e-04
3.870739e+01	-2.850354e-04
3.893096e+01	-2.883375e-04
3.915583e+01	-2.916778e-04
3.938199e+01	-2.950569e-04
3.960946e+01	-2.984751e-04
3.983824e+01	-3.019329e-04
4.006834e+01	-3.054307e-04
4.029978e+01	-3.089691e-04
4.053255e+01	-3.125485e-04
4.076666e+01	-3.161693e-04
4.100213e+01	-3.198321e-04
4.123896e+01	-3.235373e-04
4.147715e+01	-3.272854e-04
4.171672e+01	-3.310769e-04
4.195767e+01	-3.349124e-04
4.220002e+01	-3.387923e-04
4.244377e+01	-3.427172e-04
4.268892e+01	-3.466875e-04
4.293549e+01	-3.507038e-04
4.318348e+01	-3.547666e-04
4.343291e+01	-3.588765e-04
4.368377e+01	-3.630340e-04
4.393609e+01	-3.672397e-04
4.418986e+01	-3.714941e-04
4.444510e+01	-3.757978e-04
4.470182e+01	-3.801513e-04
4.496001e+01	-3.845553e-04
4.521970e+01	-3.890102e-04
4.548089e+01	-3.935168e-04
4.574358e+01	-3.980756e-04
4.600779e+01	-4.026872e-04
4.627353e+01	-4.073522e-04
4.654081e+01	-4.120713e-04
4.680963e+01	-4.168450e-04
4.708000e+01	-4.216741e-04
4.735193e+01	-4.265590e-04
4.762543e+01	-4.315006e-04
4.790051e+01	-4.364994e-04
4.817719e+01	-4.415561e-04
4.845545e+01	-4.466714e-04
4.873533e+01	-4.518459e-04
4.901682e+01	-4.570804e-04
4.929994e+01	-4.623756e-04
4.958470e+01	-4.677320e-04
4.987110e+01	-4.731505e-04
5.015915e+01	-4.786318e-04
5.044887e+01	-4.841766e-04
5.074026e+01	-4.897856e-04
5.103333e+01	-4.954596e-04
5.132810e+01	-5.011993e-04
5.162457e+01	-5.070055e-04
5.192275e+01	-5.128789e-04
5.222265e+01	-5.188204e-04
5.252429e+01	-5.248307e-04
5.282767e+01	-5.309106e-04
5.313280e+01	-5.370610e-04
5.343969e+01	-5.432826e-04
5.374836e+01	-5.495763e-04
5.405880e+01	-5.559429e-04
5.437105e+01	-5.623832e-04
5.468509e+01	-5.688982e-04
5.500095e+01	-5.754886e-04
5.531863e+01	-5.821553e-04
5.563815e+01	-5.888993e-04
5.595951e+01	-5.957214e-04
5.628273e+01	-6.026225e-04
5.660782e+01	-6.096036e-04
5.693479e+01	-6.166655e-04
5.726364e+01	-6.238092e-04
5.759439e+01	-6.310357e-04
5.792705e+01	-6.383459e-04
5.826164e+01	-6.457407e-04
5.859815e+01	-6.532212e-04
5.893662e+01	-6.607884e-04
5.927703e+01	-6.684432e-04
5.961941e+01	-6.761867e-04
5.996377e+01	-6.840199e-04
6.031012e+01	-6.919439e-04
6.065847e+01	-6.999596e-04
6.100883e+01	-7.080681e-04
6.136121e+01	-7.162706e-04
6.171563e+01	-7.245681e-04
6.207210e+01	-7.329617e-04
6.243063e+01	-7.414526e-04
6.279122e+01	-7.500418e-04
6.315390e+01	-7.587304e-04
6.351868e+01	-7.675198e-04
6.388556e+01	-7.764109e-04
6.425456e+01	-7.854050e-04
6.462569e+01	-7.945033e-04
6.499897e+01	-8.037070e-04
6.537440e+01	-8.130173e-04
6.575200e+01	-8.224354e-04
6.613178e+01	-8.319627e-04
6.651375e+01	-8.416003e-04
6.689793e+01	-8.513495e-04
6.728433e+01	-8.612116e-04
6.767297e+01	-8.711880e-04
6.806384e+01	-8.812799e-04
6.845698e+01	-8.914887e-04
6.885238e+01	-9.018158e-04
6.925007e+01	-9.122625e-04
6.965005e+01	-9.228302e-04
7.005235e+01	-9.335203e-04
7.045697e+01	-9.443342e-04
7.086393e+01	-9.552733e-04
7.127323e+01	-9.663392e-04
7.168490e+01	-9.775332e-04
7.209895e+01	-9.888569e-04
7.251539e+01	-1.000312e-03
7.293424e+01	-1.011899e-03
7.335551e+01	-1.023621e-03
7.377920e+01	-1.035479e-03
7.420535e+01	-1.047473e-03
7.463396e+01	-1.059607e-03
7.506504e+01	-1.071882e-03
7.549861e+01	-1.084298e-03
7.593469e+01	-1.096858e-03
7.637328e+01	-1.109564e-03
7.681441e+01	-1.122417e-03
7.725809e+01	-1.135419e-03
7.770433e+01	-1.148571e-03
7.815315e+01	-1.161876e-03
7.860456e+01	-1.175335e-03
7.905857e+01	-1.188950e-03
7.951521e+01	-1.202722e-03
7.997449e+01	-1.216654e-03
8.043642e+01	-1.230747e-03
8.090102e+01	-1.245004e-03
8.136830e+01	-1.259425e-03
8.183828e+01	-1.274014e-03
8.231097e+01	-1.288771e-03
8.278640e+01	-1.303700e-03
8.326457e+01	-1.318801e-03
8.374550e+01	-1.334078e-03
8.422921e+01	-1.349531e-03
8.471572e+01	-1.365163e-03
8.520503e+01	-1.380976e-03
8.569717e+01	-1.396973e-03
8.619215e+01	-1.413155e-03
8.669000e+01	-1.429524e-03
8.719071e+01	-1.446082e-03
8.769432e+01	-1.462833e-03
8.820084e+01	-1.479777e-03
8.871029e+01	-1.496918e-03
8.922267e+01	-1.514257e-03
8.973802e+01	-1.531797e-03
9.025634e+01	-1.549540e-03
9.077766e+01	-1.567489e-03
9.130199e+01	-1.585645e-03
9.182935e+01	-1.604012e-03
9.235975e+01	-1.622591e-03
9.289321e+01	-1.641386e-03
9.342976e+01	-1.660398e-03
9.396941e+01	-1.679631e-03
9.451217e+01	-1.699086e-03
9.505807e+01	-1.718766e-03
9.560712e+01	-1.738675e-03
9.615934e+01	-1.758814e-03
9.671476e+01	-1.779186e-03
9.727338e+01	-1.799794e-03
9.783522e+01	-1.820641e-03
9.840032e+01	-1.841729e-03
9.896867e+01	-1.863061e-03
9.954031e+01	-1.884640e-03
1.001153e+02	-1.906470e-03
1.006935e+02	-1.928552e-03
1.012751e+02	-1.950889e-03
1.018601e+02	-1.973486e-03
1.024484e+02	-1.996344e-03
1.030402e+02	-2.019467e-03
1.036353e+02	-2.042857e-03
1.042339e+02	-2.066519e-03
1.048360e+02	-2.090454e-03
1.054415e+02	-2.114667e-03
1.060505e+02	-2.139160e-03
1.066631e+02	-2.163936e-03
1.072791e+02	-2.189000e-03
1.078988e+02	-2.214353e-03
1.085220e+02	-2.240001e-03
1.091488e+02	-2.265945e-03
1.097793e+02	-2.292189e-03
1.104133e+02	-2.318738e-03
1.110511e+02	-2.345594e-03
1.116925e+02	-2.372761e-03
1.123376e+02	-2.400242e-03
1.129865e+02	-2.428042e-03
1.136391e+02	-2.456163e-03
1.142955e+02	-2.484611e-03
1.149556e+02	-2.513387e-03
1.156196e+02	-2.542497e-03
1.162874e+02	-2.571944e-03
1.169591e+02	-2.601731e-03
1.176347e+02	-2.631864e-03
1.183141e+02	-2.662345e-03
1.189975e+02	-2.693180e-03
1.196848e+02	-2.724371e-03
1.203761e+02	-2.755924e-03
1.210714e+02	-2.787842e-03
1.217707e+02	-2.820129e-03
1.224740e+02	-2.852790e-03
1.231814e+02	-2.885830e-03
1.238929e+02	-2.919251e-03
1.246085e+02	-2.953060e-03
1.253283e+02	-2.987260e-03
1.260522e+02	-3.021857e-03
1.267802e+02	-3.056853e-03
1.275125e+02	-3.092255e-03
1.282490e+02	-3.128067e-03
1.289898e+02	-3.164293e-03
1.297348e+02	-3.200939e-03
1.304842e+02	-3.238008e-03
1.312378e+02	-3.275507e-03
1.319959e+02	-3.313441e-03
1.327583e+02	-3.351813e-03
1.335251e+02	-3.390629e-03
1.342963e+02	-3.429895e-03
1.350720e+02	-3.469615e-03
1.358522e+02	-3.509796e-03
1.366368e+02	-3.550441e-03
1.374260e+02	-3.591557e-03
1.382198e+02	-3.633148e-03
1.390182e+02	-3.675221e-03
1.398211e+02	-3.717782e-03
1.406287e+02	-3.760834e-03
1.414410e+02	-3.804385e-03
1.422579e+02	-3.848441e-03
1.430796e+02	-3.893006e-03
1.439060e+02	-3.938087e-03
1.447372e+02	-3.983690e-03
1.455732e+02	-4.029820e-03
1.464141e+02	-4.076485e-03
1.472597e+02	-4.123690e-03
1.481103e+02	-4.171441e-03
1.489658e+02	-4.219744e-03
1.498262e+02	-4.268607e-03
1.506916e+02	-4.318035e-03
1.515620e+02	-4.368036e-03
1.524374e+02	-4.418615e-03
1.533179e+02	-4.469779e-03
1.542034e+02	-4.521536e-03
1.550941e+02	-4.573891e-03
1.559899e+02	-4.626853e-03
1.568909e+02	-4.680427e-03
1.577971e+02	-4.734621e-03
1.587085e+02	-4.789443e-03
1.596252e+02	-4.844899e-03
1.605472e+02	-4.900996e-03
1.614745e+02	-4.957743e-03
1.624072e+02	-5.015147e-03
1.633453e+02	-5.073214e-03
1.642887e+02	-5.131954e-03
1.652377e+02	-5.191374e-03
1.661921e+02	-5.251481e-03
1.671520e+02	-5.312283e-03
1.681175e+02	-5.373789e-03
1.690885e+02	-5.436007e-03
1.700651e+02	-5.498944e-03
1.710474e+02	-5.562610e-03
1.720354e+02	-5.627012e-03
1.730291e+02	-5.692160e-03
1.740285e+02	-5.758061e-03
1.750337e+02	-5.824725e-03
1.760446e+02	-5.892160e-03
1.770615e+02	-5.960375e-03
1.780842e+02	-6.029380e-03
1.791128e+02	-6.099183e-03
1.801473e+02	-6.169793e-03
1.811878e+02	-6.241220e-03
1.822344e+02	-6.313473e-03
1.832870e+02	-6.386563e-03
1.843456e+02	-6.460498e-03
1.854104e+02	-6.535288e-03
1.864813e+02	-6.610943e-03
1.875584e+02	-6.687473e-03
1.886418e+02	-6.764889e-03
1.897313e+02	-6.843200e-03
1.908272e+02	-6.922417e-03
1.919294e+02	-7.002550e-03
1.930380e+02	-7.083610e-03
1.941530e+02	-7.165607e-03
1.952744e+02	-7.248553e-03
1.964023e+02	-7.332459e-03
1.975367e+02	-7.417334e-03
1.986777e+02	-7.503192e-03
1.998252e+02	-7.590042e-03
2.009794e+02	-7.677896e-03
2.021403e+02	-7.766767e-03
2.033078e+02	-7.856665e-03
2.044821e+02	-7.947603e-03
2.056632e+02	-8.039593e-03
2.068511e+02	-8.132646e-03
2.080459e+02	-8.226775e-03
2.092475e+02	-8.321993e-03
2.104561e+02	-8.418312e-03
2.116717e+02	-8.515744e-03
2.128943e+02	-8.614303e-03
2.141240e+02	-8.714002e-03
2.153608e+02	-8.814853e-03
2.166047e+02	-8.916870e-03
2.178558e+02	-9.020067e-03
2.191141e+02	-9.124456e-03
2.203797e+02	-9.230053e-03
2.216526e+02	-9.336870e-03
2.229329e+02	-9.444922e-03
2.242205e+02	-9.554223e-03
2.255156e+02	-9.664788e-03
2.268182e+02	-9.776630e-03
2.281283e+02	-9.889766e-03
2.294459e+02	-1.000421e-02
2.307712e+02	-1.011997e-02
2.321041e+02	-1.023708e-02
2.334447e+02	-1.035554e-02
2.347931e+02	-1.047536e-02
2.361493e+02	-1.059657e-02
2.375133e+02	-1.071919e-02
2.388851e+02	-1.084321e-02
2.402649e+02	-1.096868e-02
2.416527e+02	-1.109559e-02
2.430484e+02	-1.122397e-02
2.444523e+02	-1.135383e-02
2.458642e+02	-1.148519e-02
2.472843e+02	-1.161807e-02
2.487126e+02	-1.175249e-02
2.501492e+02	-1.188846e-02
2.515940e+02	-1.202600e-02
2.530472e+02	-1.216512e-02
2.545088e+02	-1.230586e-02
2.559789e+02	-1.244822e-02
2.574574e+02	-1.259223e-02
2.589444e+02	-1.273790e-02
2.604401e+02	-1.288525e-02
2.619444e+02	-1.303430e-02
2.634574e+02	-1.318508e-02
2.649791e+02	-1.333760e-02
2.665096e+02	-1.349188e-02
2.680489e+02	-1.364794e-02
2.695972e+02	-1.380580e-02
2.711544e+02	-1.396548e-02
2.727205e+02	-1.412701e-02
2.742958e+02	-1.429041e-02
2.758801e+02	-1.445569e-02
2.774736e+02	-1.462288e-02
2.790762e+02	-1.479200e-02
2.806882e+02	-1.496307e-02
2.823094e+02	-1.513612e-02
2.839400e+02	-1.531117e-02
2.855800e+02	-1.548823e-02
2.872295e+02	-1.566734e-02
2.888886e+02	-1.584852e-02
2.905572e+02	-1.603179e-02
2.922354e+02	-1.621717e-02
2.939234e+02	-1.640470e-02
2.956211e+02	-1.659439e-02
2.973286e+02	-1.678626e-02
2.990459e+02	-1.698036e-02
3.007732e+02	-1.717669e-02
3.025104e+02	-1.737528e-02
3.042577e+02	-1.757617e-02
3.060151e+02	-1.777938e-02
3.077826e+02	-1.798493e-02
3.095604e+02	-1.819285e-02
3.113484e+02	-1.840317e-02
3.131467e+02	-1.861592e-02
3.149554e+02	-1.883112e-02
3.167746e+02	-1.904880e-02
3.186043e+02	-1.926900e-02
3.204445e+02	-1.949173e-02
3.222954e+02	-1.971703e-02
3.241570e+02	-1.994493e-02
3.260293e+02	-2.017546e-02
3.279124e+02	-2.040865e-02
3.298064e+02	-2.064453e-02
3.317114e+02	-2.088312e-02
3.336273e+02	-2.112447e-02
3.355544e+02	-2.136860e-02
3.374925e+02	-2.161554e-02
3.394418e+02	-2.186533e-02
3.414024e+02	-2.211800e-02
3.433744e+02	-2.237358e-02
3.453577e+02	-2.263210e-02
3.473525e+02	-2.289361e-02
3.493588e+02	-2.315813e-02
3.513766e+02	-2.342569e-02
3.534062e+02	-2.369634e-02
3.554474e+02	-2.397011e-02
3.575005e+02	-2.424703e-02
3.595654e+02	-2.452715e-02
3.616422e+02	-2.481048e-02
3.637311e+02	-2.509709e-02
3.658320e+02	-2.538699e-02
3.679450e+02	-2.568023e-02
3.700702e+02	-2.597685e-02
3.722077e+02	-2.627689e-02
3.743576e+02	-2.658038e-02
3.765199e+02	-2.688736e-02
3.786946e+02	-2.719788e-02
3.808820e+02	-2.751197e-02
3.830819e+02	-2.782968e-02
3.852946e+02	-2.815105e-02
3.875200e+02	-2.847611e-02
3.897583e+02	-2.880492e-02
3.920096e+02	-2.913751e-02
3.942738e+02	-2.947393e-02
3.965511e+02	-2.981421e-02
3.988416e+02	-3.015842e-02
4.011452e+02	-3.050658e-02
4.034622e+02	-3.085875e-02
4.057926e+02	-3.121496e-02
4.081365e+02	-3.157528e-02
4.104938e+02	-3.193974e-02
4.128648e+02	-3.230839e-02
4.152495e+02	-3.268128e-02
4.176480e+02	-3.305845e-02
4.200603e+02	-3.343996e-02
4.224866e+02	-3.382586e-02
4.249268e+02	-3.421620e-02
4.273812e+02	-3.461102e-02
4.298497e+02	-3.501037e-02
4.323325e+02	-3.541432e-02
4.348297e+02	-3.582291e-02
4.373412e+02	-3.623619e-02
4.398673e+02	-3.665422e-02
4.424079e+02	-3.707705e-02
4.449633e+02	-3.750474e-02
4.475334e+02	-3.793734e-02
4.501183e+02	-3.837490e-02
4.527182e+02	-3.881750e-02
4.553330e+02	-3.926517e-02
4.579630e+02	-3.971798e-02
4.606082e+02	-4.017599e-02
4.632687e+02	-4.063926e-02
4.659445e+02	-4.110784e-02
4.686358e+02	-4.158180e-02
4.713426e+02	-4.206120e-02
4.740650e+02	-4.254610e-02
4.768032e+02	-4.303656e-02
4.795572e+02	-4.353264e-02
4.823271e+02	-4.403442e-02
4.851130e+02	-4.454194e-02
4.879150e+02	-4.505529e-02
4.907332e+02	-4.557453e-02
4.935676e+02	-4.609971e-02
4.964185e+02	-4.663092e-02
4.992858e+02	-4.716821e-02
5.021696e+02	-4.771166e-02
5.050701e+02	-4.826133e-02
5.079874e+02	-4.881730e-02
5.109215e+02	-4.937964e-02
5.138726e+02	-4.994842e-02
5.168407e+02	-5.052372e-02
5.198259e+02	-5.110560e-02
5.228284e+02	-5.169414e-02
5.258482e+02	-5.228942e-02
5.288855e+02	-5.289151e-02
5.319403e+02	-5.350050e-02
5.350128e+02	-5.411645e-02
5.381030e+02	-5.473944e-02
5.412111e+02	-5.536957e-02
5.443371e+02	-5.600689e-02
5.474812e+02	-5.665151e-02
5.506434e+02	-5.730350e-02
5.538239e+02	-5.796294e-02
5.570228e+02	-5.862992e-02
5.602401e+02	-5.930452e-02
5.634760e+02	-5.998683e-02
5.667306e+02	-6.067693e-02
5.700040e+02	-6.137492e-02
5.732964e+02	-6.208088e-02
5.766077e+02	-6.279490e-02
5.799382e+02	-6.351707e-02
5.832879e+02	-6.424748e-02
5.866569e+02	-6.498623e-02
5.900454e+02	-6.573342e-02
5.934535e+02	-6.648912e-02
5.968813e+02	-6.725345e-02
6.003288e+02	-6.802649e-02
6.037963e+02	-6.880835e-02
6.072838e+02	-6.959913e-02
6.107914e+02	-7.039891e-02
6.143194e+02	-7.120782e-02
6.178676e+02	-7.202594e-02
6.214364e+02	-7.285338e-02
6.250258e+02	-7.369024e-02
6.286359e+02	-7.453664e-02
6.322669e+02	-7.539267e-02
6.359189e+02	-7.625844e-02
6.395919e+02	-7.713407e-02
6.432862e+02	-7.801967e-02
6.470017e+02	-7.891534e-02
6.507388e+02	-7.982120e-02
6.544974e+02	-8.073735e-02
6.582778e+02	-8.166393e-02
6.620800e+02	-8.260103e-02
6.659041e+02	-8.354879e-02
6.697504e+02	-8.450732e-02
6.736188e+02	-8.547673e-02
6.775096e+02	-8.645715e-02
6.814229e+02	-8.744871e-02
6.853587e+02	-8.845152e-02
6.893173e+02	-8.946571e-02
6.932988e+02	-9.049141e-02
6.973033e+02	-9.152874e-02
7.013309e+02	-9.257784e-02
