Frequency(Hz)	Magnitude(dB)
1.000000e+01	-2.215193e+00
1.005776e+01	-2.235461e+00
1.011585e+01	-2.255453e+00
1.017428e+01	-2.275845e+00
1.023305e+01	-2.296191e+00
1.029215e+01	-2.316851e+00
1.035160e+01	-2.337845e+00
1.041139e+01	-2.358613e+00
1.047153e+01	-2.379508e+00
1.053201e+01	-2.400883e+00
1.059284e+01	-2.422093e+00
1.065403e+01	-2.443790e+00
1.071556e+01	-2.465277e+00
1.077746e+01	-2.487031e+00
1.083971e+01	-2.508730e+00
1.090232e+01	-2.531002e+00
1.096529e+01	-2.553019e+00
1.102862e+01	-2.575405e+00
1.109232e+01	-2.597716e+00
1.115639e+01	-2.620277e+00
1.122083e+01	-2.643031e+00
1.128564e+01	-2.665916e+00
1.135083e+01	-2.688826e+00
1.141639e+01	-2.712041e+00
1.148233e+01	-2.735349e+00
1.154865e+01	-2.758704e+00
1.161536e+01	-2.782440e+00
1.168245e+01	-2.806200e+00
1.174992e+01	-2.829947e+00
1.181779e+01	-2.854026e+00
1.188605e+01	-2.878031e+00
1.195470e+01	-2.902582e+00
1.202375e+01	-2.927131e+00
1.209320e+01	-2.951602e+00
1.216305e+01	-2.976454e+00
1.223330e+01	-3.001476e+00
1.230396e+01	-3.026170e+00
1.237503e+01	-3.051436e+00
1.244651e+01	-3.076659e+00
1.251840e+01	-3.102237e+00
1.259070e+01	-3.127859e+00
1.266343e+01	-3.153812e+00
1.273657e+01	-3.179574e+00
1.281014e+01	-3.205599e+00
1.288413e+01	-3.231842e+00
1.295855e+01	-3.258060e+00
1.303339e+01	-3.284571e+00
1.310867e+01	-3.311183e+00
1.318439e+01	-3.338025e+00
1.326054e+01	-3.364893e+00
1.333713e+01	-3.391921e+00
1.341417e+01	-3.418825e+00
1.349165e+01	-3.446287e+00
1.356958e+01	-3.473618e+00
1.364795e+01	-3.501672e+00
1.372678e+01	-3.529159e+00
1.380607e+01	-3.556933e+00
1.388581e+01	-3.585224e+00
1.396602e+01	-3.613127e+00
1.404668e+01	-3.641429e+00
1.412782e+01	-3.670080e+00
1.420942e+01	-3.698698e+00
1.429149e+01	-3.727468e+00
1.437404e+01	-3.756213e+00
1.445706e+01	-3.785177e+00
1.454057e+01	-3.814561e+00
1.462455e+01	-3.843750e+00
1.470902e+01	-3.873430e+00
1.479398e+01	-3.902914e+00
1.487943e+01	-3.932497e+00
1.496537e+01	-3.962607e+00
1.505181e+01	-3.992349e+00
1.513875e+01	-4.022752e+00
1.522619e+01	-4.052978e+00
1.531414e+01	-4.083188e+00
1.540259e+01	-4.114041e+00
1.549156e+01	-4.144442e+00
1.558103e+01	-4.175384e+00
1.567103e+01	-4.206546e+00
1.576155e+01	-4.237504e+00
1.585258e+01	-4.268942e+00
1.594415e+01	-4.300178e+00
1.603624e+01	-4.331536e+00
1.612886e+01	-4.363360e+00
1.622202e+01	-4.395144e+00
1.631572e+01	-4.426826e+00
1.640996e+01	-4.458984e+00
1.650474e+01	-4.491272e+00
1.660008e+01	-4.523740e+00
1.669596e+01	-4.555899e+00
1.679239e+01	-4.589001e+00
1.688938e+01	-4.621199e+00
1.698694e+01	-4.653859e+00
1.708505e+01	-4.687261e+00
1.718373e+01	-4.720055e+00
1.728299e+01	-4.752944e+00
1.738281e+01	-4.786342e+00
1.748322e+01	-4.820534e+00
1.758420e+01	-4.853705e+00
1.768576e+01	-4.887640e+00
1.778792e+01	-4.921269e+00
1.789066e+01	-4.955413e+00
1.799399e+01	-4.989604e+00
1.809793e+01	-5.023469e+00
1.820246e+01	-5.057870e+00
1.830760e+01	-5.092254e+00
1.841334e+01	-5.127151e+00
1.851969e+01	-5.161665e+00
1.862666e+01	-5.196840e+00
1.873425e+01	-5.231560e+00
1.884246e+01	-5.266420e+00
1.895129e+01	-5.301685e+00
1.906075e+01	-5.337042e+00
1.917085e+01	-5.372470e+00
1.928158e+01	-5.408105e+00
1.939295e+01	-5.443802e+00
1.950496e+01	-5.479756e+00
1.961762e+01	-5.515805e+00
1.973093e+01	-5.551441e+00
1.984490e+01	-5.588034e+00
1.995952e+01	-5.623911e+00
2.007480e+01	-5.660626e+00
2.019076e+01	-5.697159e+00
2.030738e+01	-5.733516e+00
2.042467e+01	-5.769930e+00
2.054264e+01	-5.807358e+00
2.066130e+01	-5.844061e+00
2.078064e+01	-5.881295e+00
2.090066e+01	-5.918052e+00
2.102139e+01	-5.955607e+00
2.114280e+01	-5.992933e+00
2.126492e+01	-6.030068e+00
2.138775e+01	-6.068077e+00
2.151128e+01	-6.105796e+00
2.163553e+01	-6.143561e+00
2.176050e+01	-6.181664e+00
2.188619e+01	-6.219549e+00
2.201260e+01	-6.257436e+00
2.213974e+01	-6.295994e+00
2.226762e+01	-6.334036e+00
2.239624e+01	-6.373048e+00
2.252560e+01	-6.411182e+00
2.265571e+01	-6.449996e+00
2.278656e+01	-6.488618e+00
2.291818e+01	-6.527385e+00
2.305055e+01	-6.566395e+00
2.318369e+01	-6.605648e+00
2.331760e+01	-6.643994e+00
2.345228e+01	-6.684019e+00
2.358774e+01	-6.722789e+00
2.372398e+01	-6.762404e+00
2.386101e+01	-6.802081e+00
2.399883e+01	-6.841853e+00
2.413745e+01	-6.881509e+00
2.427686e+01	-6.921498e+00
2.441709e+01	-6.961307e+00
2.455812e+01	-7.001521e+00
2.469997e+01	-7.040838e+00
2.484263e+01	-7.081202e+00
2.498612e+01	-7.121633e+00
2.513044e+01	-7.162388e+00
2.527559e+01	-7.202394e+00
2.542158e+01	-7.242960e+00
2.556842e+01	-7.283977e+00
2.571610e+01	-7.324695e+00
2.586463e+01	-7.365551e+00
2.601403e+01	-7.406145e+00
2.616428e+01	-7.447073e+00
2.631541e+01	-7.488470e+00
2.646740e+01	-7.529379e+00
2.662028e+01	-7.570747e+00
2.677404e+01	-7.611926e+00
2.692868e+01	-7.653244e+00
2.708422e+01	-7.694938e+00
2.724066e+01	-7.736513e+00
2.739800e+01	-7.778299e+00
2.755625e+01	-7.819406e+00
2.771541e+01	-7.861230e+00
2.787550e+01	-7.903534e+00
2.803650e+01	-7.945577e+00
2.819844e+01	-7.987211e+00
2.836131e+01	-8.029561e+00
2.852513e+01	-8.072053e+00
2.868989e+01	-8.113446e+00
2.885560e+01	-8.156130e+00
2.902227e+01	-8.198777e+00
2.918990e+01	-8.241176e+00
2.935850e+01	-8.284062e+00
2.952807e+01	-8.326600e+00
2.969863e+01	-8.368994e+00
2.987016e+01	-8.411426e+00
3.004269e+01	-8.454683e+00
3.021622e+01	-8.497324e+00
3.039075e+01	-8.539965e+00
3.056628e+01	-8.583988e+00
3.074283e+01	-8.627049e+00
3.092040e+01	-8.670091e+00
3.109900e+01	-8.712980e+00
3.127862e+01	-8.756780e+00
3.145929e+01	-8.800081e+00
3.164099e+01	-8.843089e+00
3.182375e+01	-8.886979e+00
3.200756e+01	-8.930646e+00
3.219244e+01	-8.974201e+00
3.237838e+01	-9.018020e+00
3.256540e+01	-9.061651e+00
3.275349e+01	-9.105668e+00
3.294268e+01	-9.149483e+00
3.313295e+01	-9.193459e+00
3.332433e+01	-9.237671e+00
3.351681e+01	-9.281263e+00
3.371040e+01	-9.325714e+00
3.390511e+01	-9.370020e+00
3.410094e+01	-9.413991e+00
3.429791e+01	-9.458540e+00
3.449601e+01	-9.503124e+00
3.469526e+01	-9.546915e+00
3.489566e+01	-9.592028e+00
3.509721e+01	-9.636518e+00
3.529993e+01	-9.680824e+00
3.550382e+01	-9.725408e+00
3.570889e+01	-9.770018e+00
3.591515e+01	-9.815290e+00
3.612259e+01	-9.859892e+00
3.633123e+01	-9.904840e+00
3.654108e+01	-9.949875e+00
3.675214e+01	-9.995346e+00
3.696442e+01	-1.003969e+01
3.717792e+01	-1.008491e+01
3.739266e+01	-1.012968e+01
3.760864e+01	-1.017543e+01
3.782587e+01	-1.022032e+01
3.804435e+01	-1.026580e+01
3.826409e+01	-1.031096e+01
3.848510e+01	-1.035671e+01
3.870739e+01	-1.040204e+01
3.893096e+01	-1.044724e+01
3.915583e+01	-1.049299e+01
3.938199e+01	-1.053892e+01
3.960946e+01	-1.058443e+01
3.983824e+01	-1.063030e+01
4.006834e+01	-1.067504e+01
4.029978e+01	-1.072141e+01
4.053255e+01	-1.076715e+01
4.076666e+01	-1.081334e+01
4.100213e+01	-1.085891e+01
4.123896e+01	-1.090537e+01
4.147715e+01	-1.095133e+01
4.171672e+01	-1.099708e+01
4.195767e+01	-1.104299e+01
4.220002e+01	-1.108898e+01
4.244377e+01	-1.113561e+01
4.268892e+01	-1.118179e+01
4.293549e+01	-1.122823e+01
4.318348e+01	-1.127415e+01
4.343291e+01	-1.132049e+01
4.368377e+01	-1.136625e+01
4.393609e+01	-1.141297e+01
4.418986e+01	-1.145962e+01
4.444510e+01	-1.150561e+01
4.470182e+01	-1.155233e+01
4.496001e+01	-1.159960e+01
4.521970e+01	-1.164560e+01
4.548089e+01	-1.169294e+01
4.574358e+01	-1.173928e+01
4.600779e+01	-1.178564e+01
4.627353e+01	-1.183249e+01
4.654081e+01	-1.187869e+01
4.680963e+01	-1.192558e+01
4.708000e+01	-1.197291e+01
4.735193e+01	-1.201972e+01
4.762543e+01	-1.206576e+01
4.790051e+01	-1.211354e+01
4.817719e+01	-1.216046e+01
4.845545e+01	-1.220794e+01
4.873533e+01	-1.225452e+01
4.901682e+01	-1.230148e+01
4.929994e+01	-1.234827e+01
4.958470e+01	-1.239573e+01
4.987110e+01	-1.244278e+01
5.015915e+01	-1.249037e+01
5.044887e+01	-1.253759e+01
5.074026e+01	-1.258465e+01
5.103333e+01	-1.263154e+01
5.132810e+01	-1.267927e+01
5.162457e+01	-1.272670e+01
5.192275e+01	-1.277427e+01
5.222265e+01	-1.282114e+01
5.252429e+01	-1.286882e+01
5.282767e+01	-1.291551e+01
5.313280e+01	-1.296402e+01
5.343969e+01	-1.301072e+01
5.374836e+01	-1.305820e+01
5.405880e+01	-1.310646e+01
5.437105e+01	-1.315442e+01
5.468509e+01	-1.320111e+01
5.500095e+01	-1.324986e+01
5.531863e+01	-1.329697e+01
5.563815e+01	-1.334502e+01
5.595951e+01	-1.339199e+01
5.628273e+01	-1.344031e+01
5.660782e+01	-1.348755e+01
5.693479e+01	-1.353515e+01
5.726364e+01	-1.358281e+01
5.759439e+01	-1.363088e+01
5.792705e+01	-1.367943e+01
5.826164e+01	-1.372727e+01
5.859815e+01	-1.377565e+01
5.893662e+01	-1.382275e+01
5.927703e+01	-1.387151e+01
5.961941e+01	-1.391889e+01
5.996377e+01	-1.396654e+01
6.031012e+01	-1.401541e+01
6.065847e+01	-1.406281e+01
6.100883e+01	-1.411127e+01
6.136121e+01	-1.415958e+01
6.171563e+01	-1.420682e+01
6.207210e+01	-1.425572e+01
6.243063e+01	-1.430383e+01
6.279122e+01	-1.435220e+01
6.315390e+01	-1.439989e+01
6.351868e+01	-1.444900e+01
6.388556e+01	-1.449718e+01
6.425456e+01	-1.454514e+01
6.462569e+01	-1.459347e+01
6.499897e+01	-1.464124e+01
6.537440e+01	-1.468903e+01
6.575200e+01	-1.473749e+01
6.613178e+01	-1.478717e+01
6.651375e+01	-1.483359e+01
6.689793e+01	-1.488284e+01
6.728433e+01	-1.493195e+01
6.767297e+01	-1.497965e+01
6.806384e+01	-1.502788e+01
6.845698e+01	-1.507743e+01
6.885238e+01	-1.512485e+01
6.925007e+01	-1.517390e+01
6.965005e+01	-1.522241e+01
7.005235e+01	-1.527038e+01
7.045697e+01	-1.531921e+01
7.086393e+01	-1.536794e+01
7.127323e+01	-1.541739e+01
7.168490e+01	-1.546505e+01
7.209895e+01	-1.551425e+01
7.251539e+01	-1.556167e+01
7.293424e+01	-1.561147e+01
7.335551e+01	-1.565919e+01
7.377920e+01	-1.570885e+01
7.420535e+01	-1.575659e+01
7.463396e+01	-1.580585e+01
7.506504e+01	-1.585545e+01
7.549861e+01	-1.590300e+01
7.593469e+01	-1.595275e+01
7.637328e+01	-1.600047e+01
7.681441e+01	-1.604934e+01
7.725809e+01	-1.609716e+01
7.770433e+01	-1.614689e+01
7.815315e+01	-1.619681e+01
7.860456e+01	-1.624429e+01
7.905857e+01	-1.629372e+01
7.951521e+01	-1.634262e+01
7.997449e+01	-1.639156e+01
8.043642e+01	-1.644007e+01
8.090102e+01	-1.648889e+01
8.136830e+01	-1.653735e+01
8.183828e+01	-1.658737e+01
8.231097e+01	-1.663598e+01
8.278640e+01	-1.668394e+01
8.326457e+01	-1.673453e+01
8.374550e+01	-1.678317e+01
8.422921e+01	-1.683209e+01
8.471572e+01	-1.688064e+01
8.520503e+01	-1.693014e+01
8.569717e+01	-1.697900e+01
8.619215e+01	-1.702756e+01
8.669000e+01	-1.707735e+01
8.719071e+01	-1.712600e+01
8.769432e+01	-1.717454e+01
8.820084e+01	-1.722392e+01
8.871029e+01	-1.727268e+01
8.922267e+01	-1.732355e+01
8.973802e+01	-1.737191e+01
9.025634e+01	-1.742151e+01
9.077766e+01	-1.747082e+01
9.130199e+01	-1.751902e+01
9.182935e+01	-1.756898e+01
9.235975e+01	-1.761806e+01
9.289321e+01	-1.766498e+01
9.342976e+01	-1.771634e+01
9.396941e+01	-1.776403e+01
9.451217e+01	-1.781290e+01
9.505807e+01	-1.786306e+01
9.560712e+01	-1.791190e+01
9.615934e+01	-1.796087e+01
9.671476e+01	-1.801189e+01
9.727338e+01	-1.806127e+01
9.783522e+01	-1.810947e+01
9.840032e+01	-1.815900e+01
9.896867e+01	-1.820692e+01
9.954031e+01	-1.825610e+01
1.001153e+02	-1.830691e+01
1.006935e+02	-1.835499e+01
1.012751e+02	-1.840574e+01
1.018601e+02	-1.845397e+01
1.024484e+02	-1.850468e+01
1.030402e+02	-1.855362e+01
1.036353e+02	-1.860238e+01
1.042339e+02	-1.865328e+01
1.048360e+02	-1.870027e+01
1.054415e+02	-1.875120e+01
1.060505e+02	-1.879991e+01
1.066631e+02	-1.885012e+01
1.072791e+02	-1.889845e+01
1.078988e+02	-1.894786e+01
1.085220e+02	-1.899688e+01
1.091488e+02	-1.904662e+01
1.097793e+02	-1.909697e+01
1.104133e+02	-1.914478e+01
1.110511e+02	-1.919450e+01
1.116925e+02	-1.924405e+01
1.123376e+02	-1.929435e+01
1.129865e+02	-1.934150e+01
1.136391e+02	-1.939236e+01
1.142955e+02	-1.944314e+01
1.149556e+02	-1.949235e+01
1.156196e+02	-1.954286e+01
1.162874e+02	-1.959226e+01
1.169591e+02	-1.964080e+01
1.176347e+02	-1.968938e+01
1.183141e+02	-1.974140e+01
1.189975e+02	-1.978951e+01
1.196848e+02	-1.983842e+01
1.203761e+02	-1.988753e+01
1.210714e+02	-1.993879e+01
1.217707e+02	-1.998765e+01
1.224740e+02	-2.003455e+01
1.231814e+02	-2.008472e+01
1.238929e+02	-2.013478e+01
1.246085e+02	-2.018391e+01
1.253283e+02	-2.023370e+01
1.260522e+02	-2.028252e+01
1.267802e+02	-2.033317e+01
1.275125e+02	-2.038273e+01
1.282490e+02	-2.043432e+01
1.289898e+02	-2.048221e+01
1.297348e+02	-2.053151e+01
1.304842e+02	-2.057985e+01
1.312378e+02	-2.063109e+01
1.319959e+02	-2.068071e+01
1.327583e+02	-2.073158e+01
1.335251e+02	-2.077974e+01
1.342963e+02	-2.082855e+01
1.350720e+02	-2.088058e+01
1.358522e+02	-2.092828e+01
1.366368e+02	-2.097805e+01
1.374260e+02	-2.102808e+01
1.382198e+02	-2.107528e+01
1.390182e+02	-2.112793e+01
1.398211e+02	-2.117819e+01
1.406287e+02	-2.122719e+01
1.414410e+02	-2.127664e+01
1.422579e+02	-2.132527e+01
1.430796e+02	-2.137658e+01
1.439060e+02	-2.142615e+01
1.447372e+02	-2.147501e+01
1.455732e+02	-2.152533e+01
1.464141e+02	-2.157232e+01
1.472597e+02	-2.162352e+01
1.481103e+02	-2.167265e+01
1.489658e+02	-2.172139e+01
1.498262e+02	-2.177441e+01
1.506916e+02	-2.182401e+01
1.515620e+02	-2.187511e+01
1.524374e+02	-2.192195e+01
1.533179e+02	-2.197403e+01
1.542034e+02	-2.202194e+01
1.550941e+02	-2.207245e+01
1.559899e+02	-2.212143e+01
1.568909e+02	-2.216988e+01
1.577971e+02	-2.221820e+01
1.587085e+02	-2.227055e+01
1.596252e+02	-2.232004e+01
1.605472e+02	-2.237208e+01
1.614745e+02	-2.241988e+01
1.624072e+02	-2.247167e+01
1.633453e+02	-2.252113e+01
1.642887e+02	-2.256931e+01
1.652377e+02	-2.261875e+01
1.661921e+02	-2.266890e+01
1.671520e+02	-2.271833e+01
1.681175e+02	-2.276719e+01
1.690885e+02	-2.281775e+01
1.700651e+02	-2.286736e+01
1.710474e+02	-2.291808e+01
1.720354e+02	-2.296701e+01
1.730291e+02	-2.301971e+01
1.740285e+02	-2.306861e+01
1.750337e+02	-2.311568e+01
1.760446e+02	-2.316778e+01
1.770615e+02	-2.321678e+01
1.780842e+02	-2.326725e+01
1.791128e+02	-2.331693e+01
1.801473e+02	-2.336471e+01
1.811878e+02	-2.341476e+01
1.822344e+02	-2.346485e+01
1.832870e+02	-2.351556e+01
1.843456e+02	-2.356428e+01
1.854104e+02	-2.361431e+01
1.864813e+02	-2.366383e+01
1.875584e+02	-2.371491e+01
1.886418e+02	-2.376392e+01
1.897313e+02	-2.381449e+01
1.908272e+02	-2.386468e+01
1.919294e+02	-2.391457e+01
1.930380e+02	-2.396277e+01
1.941530e+02	-2.401274e+01
1.952744e+02	-2.406310e+01
1.964023e+02	-2.411402e+01
1.975367e+02	-2.416606e+01
1.986777e+02	-2.421520e+01
1.998252e+02	-2.426497e+01
2.009794e+02	-2.431098e+01
2.021403e+02	-2.436140e+01
2.033078e+02	-2.441365e+01
2.044821e+02	-2.445872e+01
2.056632e+02	-2.451245e+01
2.068511e+02	-2.456328e+01
2.080459e+02	-2.461439e+01
2.092475e+02	-2.466318e+01
2.104561e+02	-2.471325e+01
2.116717e+02	-2.476375e+01
2.128943e+02	-2.481052e+01
2.141240e+02	-2.486132e+01
2.153608e+02	-2.491254e+01
2.166047e+02	-2.496058e+01
2.178558e+02	-2.501122e+01
2.191141e+02	-2.506098e+01
2.203797e+02	-2.511122e+01
2.216526e+02	-2.515911e+01
2.229329e+02	-2.521102e+01
2.242205e+02	-2.526106e+01
2.255156e+02	-2.531010e+01
2.268182e+02	-2.535998e+01
2.281283e+02	-2.541090e+01
2.294459e+02	-2.546154e+01
2.307712e+02	-2.551340e+01
2.321041e+02	-2.556015e+01
2.334447e+02	-2.561079e+01
2.347931e+02	-2.566023e+01
2.361493e+02	-2.571263e+01
2.375133e+02	-2.575884e+01
2.388851e+02	-2.581115e+01
2.402649e+02	-2.585759e+01
2.416527e+02	-2.591152e+01
2.430484e+02	-2.595851e+01
2.444523e+02	-2.601009e+01
2.458642e+02	-2.605858e+01
2.472843e+02	-2.610958e+01
2.487126e+02	-2.615933e+01
2.501492e+02	-2.620928e+01
2.515940e+02	-2.626090e+01
2.530472e+02	-2.630623e+01
2.545088e+02	-2.635694e+01
2.559789e+02	-2.641105e+01
2.574574e+02	-2.646051e+01
2.589444e+02	-2.651076e+01
2.604401e+02	-2.656048e+01
2.619444e+02	-2.660911e+01
2.634574e+02	-2.666031e+01
2.649791e+02	-2.670765e+01
2.665096e+02	-2.675804e+01
2.680489e+02	-2.680819e+01
2.695972e+02	-2.686189e+01
2.711544e+02	-2.690955e+01
2.727205e+02	-2.696138e+01
2.742958e+02	-2.700826e+01
2.758801e+02	-2.705772e+01
2.774736e+02	-2.710696e+01
2.790762e+02	-2.715900e+01
2.806882e+02	-2.721010e+01
2.823094e+02	-2.725775e+01
2.839400e+02	-2.731119e+01
2.855800e+02	-2.736078e+01
2.872295e+02	-2.740967e+01
2.888886e+02	-2.746136e+01
2.905572e+02	-2.750957e+01
2.922354e+02	-2.755980e+01
2.939234e+02	-2.760713e+01
2.956211e+02	-2.765932e+01
2.973286e+02	-2.770653e+01
2.990459e+02	-2.775878e+01
3.007732e+02	-2.780890e+01
3.025104e+02	-2.785846e+01
3.042577e+02	-2.791188e+01
3.060151e+02	-2.796423e+01
3.077826e+02	-2.801035e+01
3.095604e+02	-2.805913e+01
3.113484e+02	-2.811110e+01
3.131467e+02	-2.816466e+01
3.149554e+02	-2.821098e+01
3.167746e+02	-2.826061e+01
3.186043e+02	-2.830971e+01
3.204445e+02	-2.836093e+01
3.222954e+02	-2.841028e+01
3.241570e+02	-2.846113e+01
3.260293e+02	-2.850898e+01
3.279124e+02	-2.855984e+01
3.298064e+02	-2.861280e+01
3.317114e+02	-2.865894e+01
3.336273e+02	-2.870678e+01
3.355544e+02	-2.875828e+01
3.374925e+02	-2.880953e+01
3.394418e+02	-2.886066e+01
3.414024e+02	-2.890961e+01
3.433744e+02	-2.896244e+01
3.453577e+02	-2.901016e+01
3.473525e+02	-2.906182e+01
3.493588e+02	-2.910747e+01
3.513766e+02	-2.915874e+01
3.534062e+02	-2.920749e+01
3.554474e+02	-2.926190e+01
3.575005e+02	-2.931081e+01
3.595654e+02	-2.936169e+01
3.616422e+02	-2.941356e+01
3.637311e+02	-2.945957e+01
3.658320e+02	-2.951337e+01
3.679450e+02	-2.955911e+01
3.700702e+02	-2.960872e+01
3.722077e+02	-2.965949e+01
3.743576e+02	-2.970913e+01
3.765199e+02	-2.976230e+01
3.786946e+02	-2.981153e+01
3.808820e+02	-2.986573e+01
3.830819e+02	-2.990986e+01
3.852946e+02	-2.996009e+01
3.875200e+02	-3.000708e+01
3.897583e+02	-3.006150e+01
3.920096e+02	-3.011279e+01
3.942738e+02	-3.016140e+01
3.965511e+02	-3.021215e+01
3.988416e+02	-3.026376e+01
4.011452e+02	-3.031109e+01
4.034622e+02	-3.036180e+01
4.057926e+02	-3.040993e+01
4.081365e+02	-3.046459e+01
4.104938e+02	-3.051333e+01
4.128648e+02	-3.056271e+01
4.152495e+02	-3.060845e+01
4.176480e+02	-3.066261e+01
4.200603e+02	-3.071507e+01
4.224866e+02	-3.076275e+01
4.249268e+02	-3.081492e+01
4.273812e+02	-3.086398e+01
4.298497e+02	-3.091305e+01
4.323325e+02	-3.096467e+01
4.348297e+02	-3.101014e+01
4.373412e+02	-3.106785e+01
4.398673e+02	-3.111454e+01
4.424079e+02	-3.116642e+01
4.449633e+02	-3.121431e+01
4.475334e+02	-3.126864e+01
4.501183e+02	-3.131143e+01
4.527182e+02	-3.136666e+01
4.553330e+02	-3.141820e+01
4.579630e+02	-3.146513e+01
4.606082e+02	-3.151161e+01
4.632687e+02	-3.156666e+01
4.659445e+02	-3.161860e+01
4.686358e+02	-3.166761e+01
4.713426e+02	-3.171744e+01
4.740650e+02	-3.176891e+01
4.768032e+02	-3.181775e+01
4.795572e+02	-3.186357e+01
4.823271e+02	-3.191595e+01
4.851130e+02	-3.197254e+01
4.879150e+02	-3.201756e+01
4.907332e+02	-3.206735e+01
4.935676e+02	-3.210988e+01
4.964185e+02	-3.216587e+01
4.992858e+02	-3.221817e+01
5.021696e+02	-3.227091e+01
5.050701e+02	-3.231160e+01
5.079874e+02	-3.236943e+01
5.109215e+02	-3.242237e+01
5.138726e+02	-3.247093e+01
5.168407e+02	-3.252534e+01
5.198259e+02	-3.256892e+01
5.228284e+02	-3.261144e+01
5.258482e+02	-3.267040e+01
5.288855e+02	-3.271750e+01
5.319403e+02	-3.277012e+01
5.350128e+02	-3.281330e+01
5.381030e+02	-3.287742e+01
5.412111e+02	-3.292227e+01
5.443371e+02	-3.297019e+01
5.474812e+02	-3.302010e+01
5.506434e+02	-3.307607e+01
5.538239e+02	-3.312228e+01
5.570228e+02	-3.317479e+01
5.602401e+02	-3.321929e+01
5.634760e+02	-3.327073e+01
5.667306e+02	-3.331926e+01
5.700040e+02	-3.336998e+01
5.732964e+02	-3.342266e+01
5.766077e+02	-3.347062e+01
5.799382e+02	-3.352450e+01
5.832879e+02	-3.357084e+01
5.866569e+02	-3.362031e+01
5.900454e+02	-3.367974e+01
5.934535e+02	-3.372143e+01
5.968813e+02	-3.377444e+01
6.003288e+02	-3.383013e+01
6.037963e+02	-3.387758e+01
6.072838e+02	-3.392634e+01
6.107914e+02	-3.397172e+01
6.143194e+02	-3.402924e+01
6.178676e+02	-3.407668e+01
6.214364e+02	-3.412508e+01
6.250258e+02	-3.418317e+01
6.286359e+02	-3.423445e+01
6.322669e+02	-3.428265e+01
6.359189e+02	-3.433057e+01
6.395919e+02	-3.437138e+01
6.432862e+02	-3.443504e+01
6.470017e+02	-3.447874e+01
6.507388e+02	-3.452616e+01
6.544974e+02	-3.457725e+01
6.582778e+02	-3.463049e+01
6.620800e+02	-3.468437e+01
6.659041e+02	-3.472784e+01
6.697504e+02	-3.478561e+01
6.736188e+02	-3.483711e+01
6.775096e+02	-3.487894e+01
6.814229e+02	-3.492573e+01
6.853587e+02	-3.498101e+01
6.893173e+02	-3.502918e+01
6.932988e+02	-3.509087e+01
6.973033e+02	-3.513986e+01
7.013309e+02	-3.518789e+01
