Frequency(Hz)	Magnitude(dB)
1.000000e+01	-2.220329e+00
1.005776e+01	-2.240221e+00
1.011585e+01	-2.260396e+00
1.017428e+01	-2.281026e+00
1.023305e+01	-2.301458e+00
1.029215e+01	-2.322046e+00
1.035160e+01	-2.342582e+00
1.041139e+01	-2.363644e+00
1.047153e+01	-2.384704e+00
1.053201e+01	-2.405996e+00
1.059284e+01	-2.427282e+00
1.065403e+01	-2.448691e+00
1.071556e+01	-2.470685e+00
1.077746e+01	-2.492056e+00
1.083971e+01	-2.513923e+00
1.090232e+01	-2.536155e+00
1.096529e+01	-2.558218e+00
1.102862e+01	-2.580599e+00
1.109232e+01	-2.603223e+00
1.115639e+01	-2.625918e+00
1.122083e+01	-2.648570e+00
1.128564e+01	-2.671613e+00
1.135083e+01	-2.694472e+00
1.141639e+01	-2.717622e+00
1.148233e+01	-2.741090e+00
1.154865e+01	-2.764443e+00
1.161536e+01	-2.788291e+00
1.168245e+01	-2.812024e+00
1.174992e+01	-2.836076e+00
1.181779e+01	-2.859698e+00
1.188605e+01	-2.884231e+00
1.195470e+01	-2.908377e+00
1.202375e+01	-2.932692e+00
1.209320e+01	-2.957647e+00
1.216305e+01	-2.982316e+00
1.223330e+01	-3.007411e+00
1.230396e+01	-3.032346e+00
1.237503e+01	-3.057713e+00
1.244651e+01	-3.083191e+00
1.251840e+01	-3.108466e+00
1.259070e+01	-3.133977e+00
1.266343e+01	-3.159827e+00
1.273657e+01	-3.185726e+00
1.281014e+01	-3.211933e+00
1.288413e+01	-3.238088e+00
1.295855e+01	-3.264464e+00
1.303339e+01	-3.290959e+00
1.310867e+01	-3.317628e+00
1.318439e+01	-3.344124e+00
1.326054e+01	-3.371584e+00
1.333713e+01	-3.398556e+00
1.341417e+01	-3.425763e+00
1.349165e+01	-3.452965e+00
1.356958e+01	-3.480638e+00
1.364795e+01	-3.508285e+00
1.372678e+01	-3.535881e+00
1.380607e+01	-3.563979e+00
1.388581e+01	-3.591811e+00
1.396602e+01	-3.620436e+00
1.404668e+01	-3.648835e+00
1.412782e+01	-3.677021e+00
1.420942e+01	-3.705601e+00
1.429149e+01	-3.734290e+00
1.437404e+01	-3.763307e+00
1.445706e+01	-3.792553e+00
1.454057e+01	-3.821528e+00
1.462455e+01	-3.850953e+00
1.470902e+01	-3.880555e+00
1.479398e+01	-3.910091e+00
1.487943e+01	-3.939716e+00
1.496537e+01	-3.969798e+00
1.505181e+01	-3.999844e+00
1.513875e+01	-4.030064e+00
1.522619e+01	-4.060233e+00
1.531414e+01	-4.090852e+00
1.540259e+01	-4.121342e+00
1.549156e+01	-4.152233e+00
1.558103e+01	-4.183140e+00
1.567103e+01	-4.214073e+00
1.576155e+01	-4.245225e+00
1.585258e+01	-4.276698e+00
1.594415e+01	-4.307941e+00
1.603624e+01	-4.339530e+00
1.612886e+01	-4.370876e+00
1.622202e+01	-4.402651e+00
1.631572e+01	-4.434668e+00
1.640996e+01	-4.467046e+00
1.650474e+01	-4.498698e+00
1.660008e+01	-4.531297e+00
1.669596e+01	-4.563765e+00
1.679239e+01	-4.596409e+00
1.688938e+01	-4.629329e+00
1.698694e+01	-4.662240e+00
1.708505e+01	-4.694925e+00
1.718373e+01	-4.727913e+00
1.728299e+01	-4.761464e+00
1.738281e+01	-4.794550e+00
1.748322e+01	-4.828134e+00
1.758420e+01	-4.862050e+00
1.768576e+01	-4.895526e+00
1.778792e+01	-4.929747e+00
1.789066e+01	-4.963395e+00
1.799399e+01	-4.997570e+00
1.809793e+01	-5.031997e+00
1.820246e+01	-5.066282e+00
1.830760e+01	-5.100831e+00
1.841334e+01	-5.135455e+00
1.851969e+01	-5.170295e+00
1.862666e+01	-5.205026e+00
1.873425e+01	-5.240236e+00
1.884246e+01	-5.274893e+00
1.895129e+01	-5.310753e+00
1.906075e+01	-5.345774e+00
1.917085e+01	-5.381274e+00
1.928158e+01	-5.416703e+00
1.939295e+01	-5.452767e+00
1.950496e+01	-5.488797e+00
1.961762e+01	-5.524871e+00
1.973093e+01	-5.560484e+00
1.984490e+01	-5.596694e+00
1.995952e+01	-5.632767e+00
2.007480e+01	-5.669266e+00
2.019076e+01	-5.705830e+00
2.030738e+01	-5.742488e+00
2.042467e+01	-5.779239e+00
2.054264e+01	-5.815865e+00
2.066130e+01	-5.853073e+00
2.078064e+01	-5.890006e+00
2.090066e+01	-5.926989e+00
2.102139e+01	-5.964323e+00
2.114280e+01	-6.002065e+00
2.126492e+01	-6.039746e+00
2.138775e+01	-6.077272e+00
2.151128e+01	-6.115026e+00
2.163553e+01	-6.152643e+00
2.176050e+01	-6.190667e+00
2.188619e+01	-6.228700e+00
2.201260e+01	-6.266831e+00
2.213974e+01	-6.305178e+00
2.226762e+01	-6.343631e+00
2.239624e+01	-6.382397e+00
2.252560e+01	-6.420849e+00
2.265571e+01	-6.459220e+00
2.278656e+01	-6.498113e+00
2.291818e+01	-6.536974e+00
2.305055e+01	-6.575816e+00
2.318369e+01	-6.614934e+00
2.331760e+01	-6.653772e+00
2.345228e+01	-6.692993e+00
2.358774e+01	-6.732810e+00
2.372398e+01	-6.772130e+00
2.386101e+01	-6.811624e+00
2.399883e+01	-6.851357e+00
2.413745e+01	-6.890700e+00
2.427686e+01	-6.931133e+00
2.441709e+01	-6.970893e+00
2.455812e+01	-7.011296e+00
2.469997e+01	-7.050586e+00
2.484263e+01	-7.091340e+00
2.498612e+01	-7.131291e+00
2.513044e+01	-7.171610e+00
2.527559e+01	-7.212279e+00
2.542158e+01	-7.252932e+00
2.556842e+01	-7.293288e+00
2.571610e+01	-7.334260e+00
2.586463e+01	-7.375170e+00
2.601403e+01	-7.415603e+00
2.616428e+01	-7.456834e+00
2.631541e+01	-7.498296e+00
2.646740e+01	-7.539631e+00
2.662028e+01	-7.580563e+00
2.677404e+01	-7.621604e+00
2.692868e+01	-7.663309e+00
2.708422e+01	-7.704889e+00
2.724066e+01	-7.746746e+00
2.739800e+01	-7.787832e+00
2.755625e+01	-7.829705e+00
2.771541e+01	-7.871569e+00
2.787550e+01	-7.913573e+00
2.803650e+01	-7.955386e+00
2.819844e+01	-7.997533e+00
2.836131e+01	-8.039461e+00
2.852513e+01	-8.081790e+00
2.868989e+01	-8.124108e+00
2.885560e+01	-8.166212e+00
2.902227e+01	-8.209057e+00
2.918990e+01	-8.251370e+00
2.935850e+01	-8.294455e+00
2.952807e+01	-8.336925e+00
2.969863e+01	-8.379339e+00
2.987016e+01	-8.421981e+00
3.004269e+01	-8.465092e+00
3.021622e+01	-8.508072e+00
3.039075e+01	-8.550765e+00
3.056628e+01	-8.593972e+00
3.074283e+01	-8.637358e+00
3.092040e+01	-8.680152e+00
3.109900e+01	-8.724181e+00
3.127862e+01	-8.766837e+00
3.145929e+01	-8.810069e+00
3.164099e+01	-8.854070e+00
3.182375e+01	-8.898157e+00
3.200756e+01	-8.941404e+00
3.219244e+01	-8.984910e+00
3.237838e+01	-9.028669e+00
3.256540e+01	-9.072518e+00
3.275349e+01	-9.116272e+00
3.294268e+01	-9.160023e+00
3.313295e+01	-9.204478e+00
3.332433e+01	-9.248049e+00
3.351681e+01	-9.291885e+00
3.371040e+01	-9.336559e+00
3.390511e+01	-9.381078e+00
3.410094e+01	-9.425455e+00
3.429791e+01	-9.469293e+00
3.449601e+01	-9.513122e+00
3.469526e+01	-9.557941e+00
3.489566e+01	-9.602209e+00
3.509721e+01	-9.647325e+00
3.529993e+01	-9.692075e+00
3.550382e+01	-9.736524e+00
3.570889e+01	-9.781038e+00
3.591515e+01	-9.825629e+00
3.612259e+01	-9.871517e+00
3.633123e+01	-9.915862e+00
3.654108e+01	-9.960701e+00
3.675214e+01	-1.000587e+01
3.696442e+01	-1.005108e+01
3.717792e+01	-1.009562e+01
3.739266e+01	-1.014099e+01
3.760864e+01	-1.018642e+01
3.782587e+01	-1.023110e+01
3.804435e+01	-1.027698e+01
3.826409e+01	-1.032213e+01
3.848510e+01	-1.036788e+01
3.870739e+01	-1.041275e+01
3.893096e+01	-1.045869e+01
3.915583e+01	-1.050463e+01
3.938199e+01	-1.054946e+01
3.960946e+01	-1.059509e+01
3.983824e+01	-1.064131e+01
4.006834e+01	-1.068701e+01
4.029978e+01	-1.073249e+01
4.053255e+01	-1.077869e+01
4.076666e+01	-1.082417e+01
4.100213e+01	-1.086997e+01
4.123896e+01	-1.091561e+01
4.147715e+01	-1.096256e+01
4.171672e+01	-1.100816e+01
4.195767e+01	-1.105385e+01
4.220002e+01	-1.110015e+01
4.244377e+01	-1.114613e+01
4.268892e+01	-1.119331e+01
4.293549e+01	-1.123867e+01
4.318348e+01	-1.128578e+01
4.343291e+01	-1.133161e+01
4.368377e+01	-1.137846e+01
4.393609e+01	-1.142365e+01
4.418986e+01	-1.147022e+01
4.444510e+01	-1.151754e+01
4.470182e+01	-1.156348e+01
4.496001e+01	-1.161021e+01
4.521970e+01	-1.165708e+01
4.548089e+01	-1.170319e+01
4.574358e+01	-1.175076e+01
4.600779e+01	-1.179719e+01
4.627353e+01	-1.184361e+01
4.654081e+01	-1.189033e+01
4.680963e+01	-1.193736e+01
4.708000e+01	-1.198443e+01
4.735193e+01	-1.203098e+01
4.762543e+01	-1.207782e+01
4.790051e+01	-1.212544e+01
4.817719e+01	-1.217207e+01
4.845545e+01	-1.221902e+01
4.873533e+01	-1.226595e+01
4.901682e+01	-1.231278e+01
4.929994e+01	-1.235993e+01
4.958470e+01	-1.240690e+01
4.987110e+01	-1.245392e+01
5.015915e+01	-1.250168e+01
5.044887e+01	-1.254850e+01
5.074026e+01	-1.259645e+01
5.103333e+01	-1.264404e+01
5.132810e+01	-1.269103e+01
5.162457e+01	-1.273833e+01
5.192275e+01	-1.278577e+01
5.222265e+01	-1.283354e+01
5.252429e+01	-1.288025e+01
5.282767e+01	-1.292809e+01
5.313280e+01	-1.297474e+01
5.343969e+01	-1.302270e+01
5.374836e+01	-1.307014e+01
5.405880e+01	-1.311758e+01
5.437105e+01	-1.316569e+01
5.468509e+01	-1.321323e+01
5.500095e+01	-1.326091e+01
5.531863e+01	-1.330783e+01
5.563815e+01	-1.335661e+01
5.595951e+01	-1.340321e+01
5.628273e+01	-1.345222e+01
5.660782e+01	-1.349897e+01
5.693479e+01	-1.354676e+01
5.726364e+01	-1.359531e+01
5.759439e+01	-1.364202e+01
5.792705e+01	-1.369134e+01
5.826164e+01	-1.373862e+01
5.859815e+01	-1.378634e+01
5.893662e+01	-1.383353e+01
5.927703e+01	-1.388281e+01
5.961941e+01	-1.393031e+01
5.996377e+01	-1.397717e+01
6.031012e+01	-1.402615e+01
6.065847e+01	-1.407403e+01
6.100883e+01	-1.412272e+01
6.136121e+01	-1.417038e+01
6.171563e+01	-1.421995e+01
6.207210e+01	-1.426746e+01
6.243063e+01	-1.431571e+01
6.279122e+01	-1.436348e+01
6.315390e+01	-1.441134e+01
6.351868e+01	-1.445981e+01
6.388556e+01	-1.450805e+01
6.425456e+01	-1.455654e+01
6.462569e+01	-1.460483e+01
6.499897e+01	-1.465217e+01
6.537440e+01	-1.470165e+01
6.575200e+01	-1.474960e+01
6.613178e+01	-1.479863e+01
6.651375e+01	-1.484594e+01
6.689793e+01	-1.489437e+01
6.728433e+01	-1.494252e+01
6.767297e+01	-1.499117e+01
6.806384e+01	-1.503963e+01
6.845698e+01	-1.508897e+01
6.885238e+01	-1.513692e+01
6.925007e+01	-1.518547e+01
6.965005e+01	-1.523433e+01
7.005235e+01	-1.528277e+01
7.045697e+01	-1.533080e+01
7.086393e+01	-1.538009e+01
7.127323e+01	-1.542854e+01
7.168490e+01	-1.547740e+01
7.209895e+01	-1.552582e+01
7.251539e+01	-1.557410e+01
7.293424e+01	-1.562309e+01
7.335551e+01	-1.567156e+01
7.377920e+01	-1.572042e+01
7.420535e+01	-1.576934e+01
7.463396e+01	-1.581766e+01
7.506504e+01	-1.586640e+01
7.549861e+01	-1.591502e+01
7.593469e+01	-1.596381e+01
7.637328e+01	-1.601130e+01
7.681441e+01	-1.606092e+01
7.725809e+01	-1.610930e+01
7.770433e+01	-1.615880e+01
7.815315e+01	-1.620861e+01
7.860456e+01	-1.625662e+01
7.905857e+01	-1.630525e+01
7.951521e+01	-1.635464e+01
7.997449e+01	-1.640294e+01
8.043642e+01	-1.645228e+01
8.090102e+01	-1.650120e+01
8.136830e+01	-1.655002e+01
8.183828e+01	-1.659838e+01
8.231097e+01	-1.664753e+01
8.278640e+01	-1.669635e+01
8.326457e+01	-1.674607e+01
8.374550e+01	-1.679428e+01
8.422921e+01	-1.684331e+01
8.471572e+01	-1.689213e+01
8.520503e+01	-1.694240e+01
8.569717e+01	-1.699072e+01
8.619215e+01	-1.703967e+01
8.669000e+01	-1.708934e+01
8.719071e+01	-1.713768e+01
8.769432e+01	-1.718763e+01
8.820084e+01	-1.723551e+01
8.871029e+01	-1.728428e+01
8.922267e+01	-1.733510e+01
8.973802e+01	-1.738301e+01
9.025634e+01	-1.743283e+01
9.077766e+01	-1.748255e+01
9.130199e+01	-1.752921e+01
9.182935e+01	-1.757876e+01
9.235975e+01	-1.762872e+01
9.289321e+01	-1.767691e+01
9.342976e+01	-1.772812e+01
9.396941e+01	-1.777543e+01
9.451217e+01	-1.782616e+01
9.505807e+01	-1.787502e+01
9.560712e+01	-1.792349e+01
9.615934e+01	-1.797336e+01
9.671476e+01	-1.802188e+01
9.727338e+01	-1.807262e+01
9.783522e+01	-1.812109e+01
9.840032e+01	-1.817051e+01
9.896867e+01	-1.822038e+01
9.954031e+01	-1.826916e+01
1.001153e+02	-1.831810e+01
1.006935e+02	-1.836807e+01
1.012751e+02	-1.841638e+01
1.018601e+02	-1.846508e+01
1.024484e+02	-1.851667e+01
1.030402e+02	-1.856485e+01
1.036353e+02	-1.861401e+01
1.042339e+02	-1.866368e+01
1.048360e+02	-1.871305e+01
1.054415e+02	-1.876154e+01
1.060505e+02	-1.881207e+01
1.066631e+02	-1.886010e+01
1.072791e+02	-1.891150e+01
1.078988e+02	-1.896057e+01
1.085220e+02	-1.900885e+01
1.091488e+02	-1.905920e+01
1.097793e+02	-1.910794e+01
1.104133e+02	-1.915774e+01
1.110511e+02	-1.920762e+01
1.116925e+02	-1.925501e+01
1.123376e+02	-1.930569e+01
1.129865e+02	-1.935646e+01
1.136391e+02	-1.940531e+01
1.142955e+02	-1.945395e+01
1.149556e+02	-1.950345e+01
1.156196e+02	-1.955227e+01
1.162874e+02	-1.960224e+01
1.169591e+02	-1.965283e+01
1.176347e+02	-1.970177e+01
1.183141e+02	-1.975040e+01
1.189975e+02	-1.980067e+01
1.196848e+02	-1.985067e+01
1.203761e+02	-1.989915e+01
1.210714e+02	-1.994852e+01
1.217707e+02	-1.999830e+01
1.224740e+02	-2.004760e+01
1.231814e+02	-2.009837e+01
1.238929e+02	-2.014751e+01
1.246085e+02	-2.019725e+01
1.253283e+02	-2.024694e+01
1.260522e+02	-2.029696e+01
1.267802e+02	-2.034555e+01
1.275125e+02	-2.039415e+01
1.282490e+02	-2.044479e+01
1.289898e+02	-2.049513e+01
1.297348e+02	-2.054504e+01
1.304842e+02	-2.059168e+01
1.312378e+02	-2.064312e+01
1.319959e+02	-2.069231e+01
1.327583e+02	-2.074189e+01
1.335251e+02	-2.079074e+01
1.342963e+02	-2.084351e+01
1.350720e+02	-2.089091e+01
1.358522e+02	-2.094079e+01
1.366368e+02	-2.099122e+01
1.374260e+02	-2.104131e+01
1.382198e+02	-2.109046e+01
1.390182e+02	-2.114157e+01
1.398211e+02	-2.118798e+01
1.406287e+02	-2.124115e+01
1.414410e+02	-2.128831e+01
1.422579e+02	-2.133571e+01
1.430796e+02	-2.138879e+01
1.439060e+02	-2.143863e+01
1.447372e+02	-2.148695e+01
1.455732e+02	-2.153694e+01
1.464141e+02	-2.158695e+01
1.472597e+02	-2.163445e+01
1.481103e+02	-2.168524e+01
1.489658e+02	-2.173595e+01
1.498262e+02	-2.178477e+01
1.506916e+02	-2.183523e+01
1.515620e+02	-2.188251e+01
1.524374e+02	-2.193565e+01
1.533179e+02	-2.198430e+01
1.542034e+02	-2.203246e+01
1.550941e+02	-2.208518e+01
1.559899e+02	-2.213399e+01
1.568909e+02	-2.218287e+01
1.577971e+02	-2.223420e+01
1.587085e+02	-2.228347e+01
1.596252e+02	-2.233106e+01
1.605472e+02	-2.238256e+01
1.614745e+02	-2.243106e+01
1.624072e+02	-2.248354e+01
1.633453e+02	-2.253175e+01
1.642887e+02	-2.258137e+01
1.652377e+02	-2.263319e+01
1.661921e+02	-2.268098e+01
1.671520e+02	-2.272968e+01
1.681175e+02	-2.278006e+01
1.690885e+02	-2.283136e+01
1.700651e+02	-2.288036e+01
1.710474e+02	-2.293055e+01
1.720354e+02	-2.298041e+01
1.730291e+02	-2.303031e+01
1.740285e+02	-2.307975e+01
1.750337e+02	-2.312697e+01
1.760446e+02	-2.317919e+01
1.770615e+02	-2.322874e+01
1.780842e+02	-2.327740e+01
1.791128e+02	-2.332896e+01
1.801473e+02	-2.337949e+01
1.811878e+02	-2.342649e+01
1.822344e+02	-2.347864e+01
1.832870e+02	-2.352896e+01
1.843456e+02	-2.357835e+01
1.854104e+02	-2.362513e+01
1.864813e+02	-2.367680e+01
1.875584e+02	-2.372734e+01
1.886418e+02	-2.377721e+01
1.897313e+02	-2.382500e+01
1.908272e+02	-2.387569e+01
1.919294e+02	-2.392774e+01
1.930380e+02	-2.397706e+01
1.941530e+02	-2.402653e+01
1.952744e+02	-2.407458e+01
1.964023e+02	-2.412451e+01
1.975367e+02	-2.417508e+01
1.986777e+02	-2.422542e+01
1.998252e+02	-2.427384e+01
2.009794e+02	-2.432675e+01
2.021403e+02	-2.437189e+01
2.033078e+02	-2.442430e+01
2.044821e+02	-2.447457e+01
2.056632e+02	-2.452810e+01
2.068511e+02	-2.457525e+01
2.080459e+02	-2.462205e+01
2.092475e+02	-2.467464e+01
2.104561e+02	-2.472518e+01
2.116717e+02	-2.477277e+01
2.128943e+02	-2.482408e+01
2.141240e+02	-2.487315e+01
2.153608e+02	-2.492467e+01
2.166047e+02	-2.497105e+01
2.178558e+02	-2.502234e+01
2.191141e+02	-2.507382e+01
2.203797e+02	-2.512370e+01
2.216526e+02	-2.517121e+01
2.229329e+02	-2.522326e+01
2.242205e+02	-2.527404e+01
2.255156e+02	-2.532455e+01
2.268182e+02	-2.537305e+01
2.281283e+02	-2.542396e+01
2.294459e+02	-2.547310e+01
2.307712e+02	-2.552304e+01
2.321041e+02	-2.557043e+01
2.334447e+02	-2.562260e+01
2.347931e+02	-2.567176e+01
2.361493e+02	-2.571820e+01
2.375133e+02	-2.577237e+01
2.388851e+02	-2.582190e+01
2.402649e+02	-2.587033e+01
2.416527e+02	-2.592175e+01
2.430484e+02	-2.597229e+01
2.444523e+02	-2.602075e+01
2.458642e+02	-2.607389e+01
2.472843e+02	-2.612360e+01
2.487126e+02	-2.617211e+01
2.501492e+02	-2.622631e+01
2.515940e+02	-2.627227e+01
2.530472e+02	-2.632145e+01
2.545088e+02	-2.637085e+01
2.559789e+02	-2.642201e+01
2.574574e+02	-2.646915e+01
2.589444e+02	-2.652049e+01
2.604401e+02	-2.657380e+01
2.619444e+02	-2.662335e+01
2.634574e+02	-2.667394e+01
2.649791e+02	-2.672199e+01
2.665096e+02	-2.677487e+01
2.680489e+02	-2.682293e+01
2.695972e+02	-2.687089e+01
2.711544e+02	-2.692179e+01
2.727205e+02	-2.697102e+01
2.742958e+02	-2.702021e+01
2.758801e+02	-2.707256e+01
2.774736e+02	-2.712415e+01
2.790762e+02	-2.717496e+01
2.806882e+02	-2.722532e+01
2.823094e+02	-2.726930e+01
2.839400e+02	-2.731964e+01
2.855800e+02	-2.737079e+01
2.872295e+02	-2.742156e+01
2.888886e+02	-2.747023e+01
2.905572e+02	-2.752142e+01
2.922354e+02	-2.756943e+01
2.939234e+02	-2.762118e+01
2.956211e+02	-2.767045e+01
2.973286e+02	-2.772133e+01
2.990459e+02	-2.777144e+01
3.007732e+02	-2.781921e+01
3.025104e+02	-2.787027e+01
3.042577e+02	-2.792267e+01
3.060151e+02	-2.797458e+01
3.077826e+02	-2.801868e+01
3.095604e+02	-2.806902e+01
3.113484e+02	-2.811851e+01
3.131467e+02	-2.817144e+01
3.149554e+02	-2.822351e+01
3.167746e+02	-2.826832e+01
3.186043e+02	-2.832083e+01
3.204445e+02	-2.837067e+01
3.222954e+02	-2.842088e+01
3.241570e+02	-2.847479e+01
3.260293e+02	-2.852114e+01
3.279124e+02	-2.857599e+01
3.298064e+02	-2.862424e+01
3.317114e+02	-2.867326e+01
3.336273e+02	-2.872523e+01
3.355544e+02	-2.877052e+01
3.374925e+02	-2.882336e+01
3.394418e+02	-2.887031e+01
3.414024e+02	-2.892769e+01
3.433744e+02	-2.896904e+01
3.453577e+02	-2.902194e+01
3.473525e+02	-2.906960e+01
3.493588e+02	-2.912516e+01
3.513766e+02	-2.916735e+01
3.534062e+02	-2.922376e+01
3.554474e+02	-2.927080e+01
3.575005e+02	-2.931939e+01
3.595654e+02	-2.937559e+01
3.616422e+02	-2.941960e+01
3.637311e+02	-2.947766e+01
3.658320e+02	-2.952232e+01
3.679450e+02	-2.957272e+01
3.700702e+02	-2.962536e+01
3.722077e+02	-2.967338e+01
3.743576e+02	-2.971975e+01
3.765199e+02	-2.977723e+01
3.786946e+02	-2.982438e+01
3.808820e+02	-2.987272e+01
3.830819e+02	-2.992595e+01
3.852946e+02	-2.997415e+01
3.875200e+02	-3.002403e+01
3.897583e+02	-3.007665e+01
3.920096e+02	-3.012317e+01
3.942738e+02	-3.017529e+01
3.965511e+02	-3.022803e+01
3.988416e+02	-3.028013e+01
4.011452e+02	-3.032587e+01
4.034622e+02	-3.037540e+01
4.057926e+02	-3.042434e+01
4.081365e+02	-3.047522e+01
4.104938e+02	-3.052417e+01
4.128648e+02	-3.057198e+01
4.152495e+02	-3.063072e+01
4.176480e+02	-3.067574e+01
4.200603e+02	-3.072213e+01
4.224866e+02	-3.077528e+01
4.249268e+02	-3.082799e+01
4.273812e+02	-3.087745e+01
4.298497e+02	-3.092609e+01
4.323325e+02	-3.097783e+01
4.348297e+02	-3.102116e+01
4.373412e+02	-3.107536e+01
4.398673e+02	-3.112902e+01
4.424079e+02	-3.117688e+01
4.449633e+02	-3.122560e+01
4.475334e+02	-3.127170e+01
4.501183e+02	-3.132604e+01
4.527182e+02	-3.137589e+01
4.553330e+02	-3.142633e+01
4.579630e+02	-3.147645e+01
4.606082e+02	-3.153007e+01
4.632687e+02	-3.158130e+01
4.659445e+02	-3.163096e+01
4.686358e+02	-3.167896e+01
4.713426e+02	-3.172509e+01
4.740650e+02	-3.178207e+01
4.768032e+02	-3.183158e+01
4.795572e+02	-3.187202e+01
4.823271e+02	-3.192691e+01
4.851130e+02	-3.198443e+01
4.879150e+02	-3.203294e+01
4.907332e+02	-3.208655e+01
4.935676e+02	-3.212805e+01
4.964185e+02	-3.218102e+01
4.992858e+02	-3.222997e+01
5.021696e+02	-3.228312e+01
5.050701e+02	-3.233203e+01
5.079874e+02	-3.237536e+01
5.109215e+02	-3.242931e+01
5.138726e+02	-3.248011e+01
5.168407e+02	-3.253020e+01
5.198259e+02	-3.258026e+01
5.228284e+02	-3.263161e+01
5.258482e+02	-3.268236e+01
5.288855e+02	-3.273108e+01
5.319403e+02	-3.278071e+01
5.350128e+02	-3.283017e+01
5.381030e+02	-3.288346e+01
5.412111e+02	-3.292819e+01
5.443371e+02	-3.297664e+01
5.474812e+02	-3.303181e+01
5.506434e+02	-3.308607e+01
5.538239e+02	-3.312649e+01
5.570228e+02	-3.318010e+01
5.602401e+02	-3.323283e+01
5.634760e+02	-3.328353e+01
5.667306e+02	-3.332879e+01
5.700040e+02	-3.338306e+01
5.732964e+02	-3.343352e+01
5.766077e+02	-3.347874e+01
5.799382e+02	-3.352838e+01
5.832879e+02	-3.358254e+01
5.866569e+02	-3.363470e+01
5.900454e+02	-3.368601e+01
5.934535e+02	-3.374140e+01
5.968813e+02	-3.379710e+01
6.003288e+02	-3.383884e+01
6.037963e+02	-3.388964e+01
6.072838e+02	-3.394462e+01
6.107914e+02	-3.398699e+01
6.143194e+02	-3.404461e+01
6.178676e+02	-3.408833e+01
6.214364e+02	-3.414333e+01
6.250258e+02	-3.418265e+01
6.286359e+02	-3.424990e+01
6.322669e+02	-3.429545e+01
6.359189e+02	-3.434013e+01
6.395919e+02	-3.438822e+01
6.432862e+02	-3.443729e+01
6.470017e+02	-3.449176e+01
6.507388e+02	-3.454201e+01
6.544974e+02	-3.459318e+01
6.582778e+02	-3.463723e+01
6.620800e+02	-3.469268e+01
6.659041e+02	-3.473918e+01
6.697504e+02	-3.478615e+01
6.736188e+02	-3.484763e+01
6.775096e+02	-3.489931e+01
6.814229e+02	-3.494661e+01
6.853587e+02	-3.499743e+01
6.893173e+02	-3.504471e+01
6.932988e+02	-3.509582e+01
6.973033e+02	-3.514728e+01
7.013309e+02	-3.519951e+01
