Frequency(Hz)	Magnitude(dB)
1.000000e+01	-2.271244e+00
1.005776e+01	-2.291350e+00
1.011585e+01	-2.312055e+00
1.017428e+01	-2.332892e+00
1.023305e+01	-2.353798e+00
1.029215e+01	-2.374718e+00
1.035160e+01	-2.395739e+00
1.041139e+01	-2.417009e+00
1.047153e+01	-2.438412e+00
1.053201e+01	-2.459948e+00
1.059284e+01	-2.481642e+00
1.065403e+01	-2.503757e+00
1.071556e+01	-2.525517e+00
1.077746e+01	-2.547699e+00
1.083971e+01	-2.569975e+00
1.090232e+01	-2.592430e+00
1.096529e+01	-2.614899e+00
1.102862e+01	-2.637600e+00
1.109232e+01	-2.660495e+00
1.115639e+01	-2.683391e+00
1.122083e+01	-2.706360e+00
1.128564e+01	-2.729920e+00
1.135083e+01	-2.753259e+00
1.141639e+01	-2.776931e+00
1.148233e+01	-2.800495e+00
1.154865e+01	-2.824146e+00
1.161536e+01	-2.848301e+00
1.168245e+01	-2.872460e+00
1.174992e+01	-2.896506e+00
1.181779e+01	-2.921160e+00
1.188605e+01	-2.945724e+00
1.195470e+01	-2.970390e+00
1.202375e+01	-2.995218e+00
1.209320e+01	-3.020244e+00
1.216305e+01	-3.045615e+00
1.223330e+01	-3.070721e+00
1.230396e+01	-3.096141e+00
1.237503e+01	-3.121743e+00
1.244651e+01	-3.147403e+00
1.251840e+01	-3.173318e+00
1.259070e+01	-3.199145e+00
1.266343e+01	-3.225536e+00
1.273657e+01	-3.251753e+00
1.281014e+01	-3.278196e+00
1.288413e+01	-3.304644e+00
1.295855e+01	-3.331560e+00
1.303339e+01	-3.358210e+00
1.310867e+01	-3.385502e+00
1.318439e+01	-3.412430e+00
1.326054e+01	-3.439788e+00
1.333713e+01	-3.467531e+00
1.341417e+01	-3.494877e+00
1.349165e+01	-3.522536e+00
1.356958e+01	-3.550466e+00
1.364795e+01	-3.578494e+00
1.372678e+01	-3.606652e+00
1.380607e+01	-3.634963e+00
1.388581e+01	-3.663369e+00
1.396602e+01	-3.691933e+00
1.404668e+01	-3.720525e+00
1.412782e+01	-3.749251e+00
1.420942e+01	-3.778437e+00
1.429149e+01	-3.807612e+00
1.437404e+01	-3.837060e+00
1.445706e+01	-3.866187e+00
1.454057e+01	-3.895960e+00
1.462455e+01	-3.925578e+00
1.470902e+01	-3.955343e+00
1.479398e+01	-3.985346e+00
1.487943e+01	-4.015434e+00
1.496537e+01	-4.045783e+00
1.505181e+01	-4.075901e+00
1.513875e+01	-4.106616e+00
1.522619e+01	-4.137258e+00
1.531414e+01	-4.167997e+00
1.540259e+01	-4.199140e+00
1.549156e+01	-4.229978e+00
1.558103e+01	-4.261218e+00
1.567103e+01	-4.292813e+00
1.576155e+01	-4.323986e+00
1.585258e+01	-4.355554e+00
1.594415e+01	-4.387459e+00
1.603624e+01	-4.419282e+00
1.612886e+01	-4.451405e+00
1.622202e+01	-4.483398e+00
1.631572e+01	-4.515652e+00
1.640996e+01	-4.548357e+00
1.650474e+01	-4.580661e+00
1.660008e+01	-4.613453e+00
1.669596e+01	-4.646091e+00
1.679239e+01	-4.679154e+00
1.688938e+01	-4.712193e+00
1.698694e+01	-4.745234e+00
1.708505e+01	-4.778503e+00
1.718373e+01	-4.811950e+00
1.728299e+01	-4.845508e+00
1.738281e+01	-4.879471e+00
1.748322e+01	-4.913136e+00
1.758420e+01	-4.946775e+00
1.768576e+01	-4.980753e+00
1.778792e+01	-5.015478e+00
1.789066e+01	-5.049739e+00
1.799399e+01	-5.084474e+00
1.809793e+01	-5.118669e+00
1.820246e+01	-5.153418e+00
1.830760e+01	-5.188241e+00
1.841334e+01	-5.223467e+00
1.851969e+01	-5.258435e+00
1.862666e+01	-5.293486e+00
1.873425e+01	-5.328775e+00
1.884246e+01	-5.364211e+00
1.895129e+01	-5.399619e+00
1.906075e+01	-5.435099e+00
1.917085e+01	-5.471303e+00
1.928158e+01	-5.506934e+00
1.939295e+01	-5.543222e+00
1.950496e+01	-5.579096e+00
1.961762e+01	-5.615543e+00
1.973093e+01	-5.651521e+00
1.984490e+01	-5.688100e+00
1.995952e+01	-5.724771e+00
2.007480e+01	-5.761344e+00
2.019076e+01	-5.798230e+00
2.030738e+01	-5.835233e+00
2.042467e+01	-5.872073e+00
2.054264e+01	-5.909159e+00
2.066130e+01	-5.946744e+00
2.078064e+01	-5.983822e+00
2.090066e+01	-6.021352e+00
2.102139e+01	-6.058870e+00
2.114280e+01	-6.096595e+00
2.126492e+01	-6.134423e+00
2.138775e+01	-6.172380e+00
2.151128e+01	-6.210295e+00
2.163553e+01	-6.248402e+00
2.176050e+01	-6.286879e+00
2.188619e+01	-6.325076e+00
2.201260e+01	-6.363310e+00
2.213974e+01	-6.402098e+00
2.226762e+01	-6.440697e+00
2.239624e+01	-6.479382e+00
2.252560e+01	-6.518337e+00
2.265571e+01	-6.557366e+00
2.278656e+01	-6.595825e+00
2.291818e+01	-6.635383e+00
2.305055e+01	-6.674748e+00
2.318369e+01	-6.713404e+00
2.331760e+01	-6.753098e+00
2.345228e+01	-6.792404e+00
2.358774e+01	-6.832436e+00
2.372398e+01	-6.871960e+00
2.386101e+01	-6.911616e+00
2.399883e+01	-6.951450e+00
2.413745e+01	-6.991333e+00
2.427686e+01	-7.031630e+00
2.441709e+01	-7.072135e+00
2.455812e+01	-7.112211e+00
2.469997e+01	-7.152938e+00
2.484263e+01	-7.193280e+00
2.498612e+01	-7.233132e+00
2.513044e+01	-7.274277e+00
2.527559e+01	-7.314823e+00
2.542158e+01	-7.355580e+00
2.556842e+01	-7.396490e+00
2.571610e+01	-7.437338e+00
2.586463e+01	-7.478573e+00
2.601403e+01	-7.519485e+00
2.616428e+01	-7.560659e+00
2.631541e+01	-7.601608e+00
2.646740e+01	-7.643475e+00
2.662028e+01	-7.684549e+00
2.677404e+01	-7.726291e+00
2.692868e+01	-7.767731e+00
2.708422e+01	-7.809473e+00
2.724066e+01	-7.851668e+00
2.739800e+01	-7.893576e+00
2.755625e+01	-7.935263e+00
2.771541e+01	-7.977297e+00
2.787550e+01	-8.019588e+00
2.803650e+01	-8.061361e+00
2.819844e+01	-8.103936e+00
2.836131e+01	-8.146689e+00
2.852513e+01	-8.188833e+00
2.868989e+01	-8.230708e+00
2.885560e+01	-8.273717e+00
2.902227e+01	-8.316311e+00
2.918990e+01	-8.359157e+00
2.935850e+01	-8.401505e+00
2.952807e+01	-8.444445e+00
2.969863e+01	-8.487441e+00
2.987016e+01	-8.530297e+00
3.004269e+01	-8.573175e+00
3.021622e+01	-8.616852e+00
3.039075e+01	-8.659527e+00
3.056628e+01	-8.703040e+00
3.074283e+01	-8.746286e+00
3.092040e+01	-8.788863e+00
3.109900e+01	-8.832576e+00
3.127862e+01	-8.876052e+00
3.145929e+01	-8.920078e+00
3.164099e+01	-8.963601e+00
3.182375e+01	-9.007302e+00
3.200756e+01	-9.050751e+00
3.219244e+01	-9.094897e+00
3.237838e+01	-9.139145e+00
3.256540e+01	-9.183219e+00
3.275349e+01	-9.227387e+00
3.294268e+01	-9.270984e+00
3.313295e+01	-9.315182e+00
3.332433e+01	-9.359699e+00
3.351681e+01	-9.403872e+00
3.371040e+01	-9.448195e+00
3.390511e+01	-9.492143e+00
3.410094e+01	-9.536630e+00
3.429791e+01	-9.581213e+00
3.449601e+01	-9.625973e+00
3.469526e+01	-9.670592e+00
3.489566e+01	-9.715114e+00
3.509721e+01	-9.760197e+00
3.529993e+01	-9.804461e+00
3.550382e+01	-9.849424e+00
3.570889e+01	-9.894805e+00
3.591515e+01	-9.939019e+00
3.612259e+01	-9.983776e+00
3.633123e+01	-1.002973e+01
3.654108e+01	-1.007406e+01
3.675214e+01	-1.011951e+01
3.696442e+01	-1.016464e+01
3.717792e+01	-1.020936e+01
3.739266e+01	-1.025481e+01
3.760864e+01	-1.030065e+01
3.782587e+01	-1.034615e+01
3.804435e+01	-1.039151e+01
3.826409e+01	-1.043658e+01
3.848510e+01	-1.048228e+01
3.870739e+01	-1.052822e+01
3.893096e+01	-1.057338e+01
3.915583e+01	-1.061938e+01
3.938199e+01	-1.066480e+01
3.960946e+01	-1.071032e+01
3.983824e+01	-1.075628e+01
4.006834e+01	-1.080223e+01
4.029978e+01	-1.084806e+01
4.053255e+01	-1.089426e+01
4.076666e+01	-1.093985e+01
4.100213e+01	-1.098542e+01
4.123896e+01	-1.103159e+01
4.147715e+01	-1.107807e+01
4.171672e+01	-1.112474e+01
4.195767e+01	-1.117070e+01
4.220002e+01	-1.121671e+01
4.244377e+01	-1.126322e+01
4.268892e+01	-1.130927e+01
4.293549e+01	-1.135610e+01
4.318348e+01	-1.140268e+01
4.343291e+01	-1.144813e+01
4.368377e+01	-1.149438e+01
4.393609e+01	-1.154083e+01
4.418986e+01	-1.158819e+01
4.444510e+01	-1.163483e+01
4.470182e+01	-1.168140e+01
4.496001e+01	-1.172868e+01
4.521970e+01	-1.177505e+01
4.548089e+01	-1.182064e+01
4.574358e+01	-1.186767e+01
4.600779e+01	-1.191536e+01
4.627353e+01	-1.196160e+01
4.654081e+01	-1.200810e+01
4.680963e+01	-1.205584e+01
4.708000e+01	-1.210189e+01
4.735193e+01	-1.214959e+01
4.762543e+01	-1.219632e+01
4.790051e+01	-1.224284e+01
4.817719e+01	-1.229061e+01
4.845545e+01	-1.233742e+01
4.873533e+01	-1.238496e+01
4.901682e+01	-1.243129e+01
4.929994e+01	-1.247924e+01
4.958470e+01	-1.252574e+01
4.987110e+01	-1.257298e+01
5.015915e+01	-1.262066e+01
5.044887e+01	-1.266797e+01
5.074026e+01	-1.271490e+01
5.103333e+01	-1.276318e+01
5.132810e+01	-1.280919e+01
5.162457e+01	-1.285726e+01
5.192275e+01	-1.290464e+01
5.222265e+01	-1.295271e+01
5.252429e+01	-1.299993e+01
5.282767e+01	-1.304727e+01
5.313280e+01	-1.309450e+01
5.343969e+01	-1.314170e+01
5.374836e+01	-1.318991e+01
5.405880e+01	-1.323819e+01
5.437105e+01	-1.328548e+01
5.468509e+01	-1.333283e+01
5.500095e+01	-1.338112e+01
5.531863e+01	-1.342848e+01
5.563815e+01	-1.347602e+01
5.595951e+01	-1.352389e+01
5.628273e+01	-1.357153e+01
5.660782e+01	-1.361915e+01
5.693479e+01	-1.366785e+01
5.726364e+01	-1.371544e+01
5.759439e+01	-1.376275e+01
5.792705e+01	-1.381096e+01
5.826164e+01	-1.386005e+01
5.859815e+01	-1.390728e+01
5.893662e+01	-1.395525e+01
5.927703e+01	-1.400331e+01
5.961941e+01	-1.405073e+01
5.996377e+01	-1.409953e+01
6.031012e+01	-1.414650e+01
6.065847e+01	-1.419531e+01
6.100883e+01	-1.424321e+01
6.136121e+01	-1.429122e+01
6.171563e+01	-1.434009e+01
6.207210e+01	-1.438805e+01
6.243063e+01	-1.443637e+01
6.279122e+01	-1.448583e+01
6.315390e+01	-1.453326e+01
6.351868e+01	-1.458193e+01
6.388556e+01	-1.462980e+01
6.425456e+01	-1.467745e+01
6.462569e+01	-1.472563e+01
6.499897e+01	-1.477500e+01
6.537440e+01	-1.482334e+01
6.575200e+01	-1.487097e+01
6.613178e+01	-1.491932e+01
6.651375e+01	-1.496781e+01
6.689793e+01	-1.501635e+01
6.728433e+01	-1.506630e+01
6.767297e+01	-1.511371e+01
6.806384e+01	-1.516152e+01
6.845698e+01	-1.521083e+01
6.885238e+01	-1.525900e+01
6.925007e+01	-1.530754e+01
6.965005e+01	-1.535660e+01
7.005235e+01	-1.540422e+01
7.045697e+01	-1.545329e+01
7.086393e+01	-1.550273e+01
7.127323e+01	-1.555119e+01
7.168490e+01	-1.559963e+01
7.209895e+01	-1.564801e+01
7.251539e+01	-1.569717e+01
7.293424e+01	-1.574591e+01
7.335551e+01	-1.579505e+01
7.377920e+01	-1.584387e+01
7.420535e+01	-1.589156e+01
7.463396e+01	-1.594031e+01
7.506504e+01	-1.598861e+01
7.549861e+01	-1.603782e+01
7.593469e+01	-1.608606e+01
7.637328e+01	-1.613489e+01
7.681441e+01	-1.618450e+01
7.725809e+01	-1.623176e+01
7.770433e+01	-1.628136e+01
7.815315e+01	-1.633165e+01
7.860456e+01	-1.637845e+01
7.905857e+01	-1.642921e+01
7.951521e+01	-1.647789e+01
7.997449e+01	-1.652682e+01
8.043642e+01	-1.657515e+01
8.090102e+01	-1.662433e+01
8.136830e+01	-1.667238e+01
8.183828e+01	-1.672099e+01
8.231097e+01	-1.677145e+01
8.278640e+01	-1.681999e+01
8.326457e+01	-1.686892e+01
8.374550e+01	-1.691859e+01
8.422921e+01	-1.696650e+01
8.471572e+01	-1.701574e+01
8.520503e+01	-1.706583e+01
8.569717e+01	-1.711509e+01
8.619215e+01	-1.716437e+01
8.669000e+01	-1.721303e+01
8.719071e+01	-1.726167e+01
8.769432e+01	-1.731010e+01
8.820084e+01	-1.735978e+01
8.871029e+01	-1.740962e+01
8.922267e+01	-1.745770e+01
8.973802e+01	-1.750777e+01
9.025634e+01	-1.755699e+01
9.077766e+01	-1.760573e+01
9.130199e+01	-1.765433e+01
9.182935e+01	-1.770437e+01
9.235975e+01	-1.775339e+01
9.289321e+01	-1.780177e+01
9.342976e+01	-1.785117e+01
9.396941e+01	-1.790081e+01
9.451217e+01	-1.795001e+01
9.505807e+01	-1.799934e+01
9.560712e+01	-1.804809e+01
9.615934e+01	-1.809715e+01
9.671476e+01	-1.814590e+01
9.727338e+01	-1.819665e+01
9.783522e+01	-1.824485e+01
9.840032e+01	-1.829571e+01
9.896867e+01	-1.834401e+01
9.954031e+01	-1.839408e+01
1.001153e+02	-1.844210e+01
1.006935e+02	-1.849048e+01
1.012751e+02	-1.854210e+01
1.018601e+02	-1.858984e+01
1.024484e+02	-1.864039e+01
1.030402e+02	-1.868847e+01
1.036353e+02	-1.873856e+01
1.042339e+02	-1.878659e+01
1.048360e+02	-1.883796e+01
1.054415e+02	-1.888817e+01
1.060505e+02	-1.893567e+01
1.066631e+02	-1.898438e+01
1.072791e+02	-1.903422e+01
1.078988e+02	-1.908381e+01
1.085220e+02	-1.913375e+01
1.091488e+02	-1.918299e+01
1.097793e+02	-1.923168e+01
1.104133e+02	-1.928178e+01
1.110511e+02	-1.933110e+01
1.116925e+02	-1.938092e+01
1.123376e+02	-1.942897e+01
1.129865e+02	-1.947946e+01
1.136391e+02	-1.952776e+01
1.142955e+02	-1.957951e+01
1.149556e+02	-1.962947e+01
1.156196e+02	-1.967802e+01
1.162874e+02	-1.972695e+01
1.169591e+02	-1.977583e+01
1.176347e+02	-1.982581e+01
1.183141e+02	-1.987599e+01
1.189975e+02	-1.992579e+01
1.196848e+02	-1.997488e+01
1.203761e+02	-2.002368e+01
1.210714e+02	-2.007407e+01
1.217707e+02	-2.012270e+01
1.224740e+02	-2.017482e+01
1.231814e+02	-2.022154e+01
1.238929e+02	-2.027194e+01
1.246085e+02	-2.032094e+01
1.253283e+02	-2.037129e+01
1.260522e+02	-2.041998e+01
1.267802e+02	-2.047099e+01
1.275125e+02	-2.052054e+01
1.282490e+02	-2.057019e+01
1.289898e+02	-2.062024e+01
1.297348e+02	-2.067018e+01
1.304842e+02	-2.071807e+01
1.312378e+02	-2.076800e+01
1.319959e+02	-2.081616e+01
1.327583e+02	-2.086838e+01
1.335251e+02	-2.091560e+01
1.342963e+02	-2.096697e+01
1.350720e+02	-2.101518e+01
1.358522e+02	-2.106643e+01
1.366368e+02	-2.111592e+01
1.374260e+02	-2.116491e+01
1.382198e+02	-2.121550e+01
1.390182e+02	-2.126375e+01
1.398211e+02	-2.131564e+01
1.406287e+02	-2.136505e+01
1.414410e+02	-2.141220e+01
1.422579e+02	-2.146270e+01
1.430796e+02	-2.151264e+01
1.439060e+02	-2.156116e+01
1.447372e+02	-2.161283e+01
1.455732e+02	-2.166302e+01
1.464141e+02	-2.171113e+01
1.472597e+02	-2.176139e+01
1.481103e+02	-2.181064e+01
1.489658e+02	-2.186236e+01
1.498262e+02	-2.191044e+01
1.506916e+02	-2.196156e+01
1.515620e+02	-2.201012e+01
1.524374e+02	-2.205952e+01
1.533179e+02	-2.210982e+01
1.542034e+02	-2.215817e+01
1.550941e+02	-2.220964e+01
1.559899e+02	-2.225900e+01
1.568909e+02	-2.231037e+01
1.577971e+02	-2.235866e+01
1.587085e+02	-2.240776e+01
1.596252e+02	-2.245755e+01
1.605472e+02	-2.251043e+01
1.614745e+02	-2.255355e+01
1.624072e+02	-2.260680e+01
1.633453e+02	-2.265821e+01
1.642887e+02	-2.270502e+01
1.652377e+02	-2.275547e+01
1.661921e+02	-2.280489e+01
1.671520e+02	-2.285489e+01
1.681175e+02	-2.290575e+01
1.690885e+02	-2.295586e+01
1.700651e+02	-2.300426e+01
1.710474e+02	-2.305565e+01
1.720354e+02	-2.310528e+01
1.730291e+02	-2.315571e+01
1.740285e+02	-2.320627e+01
1.750337e+02	-2.325597e+01
1.760446e+02	-2.330437e+01
1.770615e+02	-2.335151e+01
1.780842e+02	-2.340120e+01
1.791128e+02	-2.345491e+01
1.801473e+02	-2.350298e+01
1.811878e+02	-2.355311e+01
1.822344e+02	-2.360254e+01
1.832870e+02	-2.365106e+01
1.843456e+02	-2.370159e+01
1.854104e+02	-2.375320e+01
1.864813e+02	-2.380439e+01
1.875584e+02	-2.385410e+01
1.886418e+02	-2.390196e+01
1.897313e+02	-2.395205e+01
1.908272e+02	-2.400164e+01
1.919294e+02	-2.405093e+01
1.930380e+02	-2.410017e+01
1.941530e+02	-2.415067e+01
1.952744e+02	-2.420174e+01
1.964023e+02	-2.425118e+01
1.975367e+02	-2.429969e+01
1.986777e+02	-2.435123e+01
1.998252e+02	-2.440010e+01
2.009794e+02	-2.445096e+01
2.021403e+02	-2.450180e+01
2.033078e+02	-2.454914e+01
2.044821e+02	-2.460147e+01
2.056632e+02	-2.464885e+01
2.068511e+02	-2.470127e+01
2.080459e+02	-2.474949e+01
2.092475e+02	-2.479892e+01
2.104561e+02	-2.485195e+01
2.116717e+02	-2.489962e+01
2.128943e+02	-2.494923e+01
2.141240e+02	-2.499788e+01
2.153608e+02	-2.504996e+01
2.166047e+02	-2.510120e+01
2.178558e+02	-2.514820e+01
2.191141e+02	-2.520212e+01
2.203797e+02	-2.524924e+01
2.216526e+02	-2.529965e+01
2.229329e+02	-2.534671e+01
2.242205e+02	-2.540056e+01
2.255156e+02	-2.545147e+01
2.268182e+02	-2.549530e+01
2.281283e+02	-2.554724e+01
2.294459e+02	-2.559603e+01
2.307712e+02	-2.564847e+01
2.321041e+02	-2.570032e+01
2.334447e+02	-2.574838e+01
2.347931e+02	-2.579992e+01
2.361493e+02	-2.585076e+01
2.375133e+02	-2.589753e+01
2.388851e+02	-2.594948e+01
2.402649e+02	-2.599948e+01
2.416527e+02	-2.604795e+01
2.430484e+02	-2.609950e+01
2.444523e+02	-2.614957e+01
2.458642e+02	-2.619769e+01
2.472843e+02	-2.624413e+01
2.487126e+02	-2.629471e+01
2.501492e+02	-2.634540e+01
2.515940e+02	-2.639436e+01
2.530472e+02	-2.644907e+01
2.545088e+02	-2.649812e+01
2.559789e+02	-2.654464e+01
2.574574e+02	-2.659895e+01
2.589444e+02	-2.664789e+01
2.604401e+02	-2.669611e+01
2.619444e+02	-2.674919e+01
2.634574e+02	-2.679703e+01
2.649791e+02	-2.684318e+01
2.665096e+02	-2.689781e+01
2.680489e+02	-2.694825e+01
2.695972e+02	-2.699746e+01
2.711544e+02	-2.704753e+01
2.727205e+02	-2.709841e+01
2.742958e+02	-2.714609e+01
2.758801e+02	-2.719340e+01
2.774736e+02	-2.724846e+01
2.790762e+02	-2.730124e+01
2.806882e+02	-2.734726e+01
2.823094e+02	-2.739595e+01
2.839400e+02	-2.744686e+01
2.855800e+02	-2.749740e+01
2.872295e+02	-2.754599e+01
2.888886e+02	-2.760040e+01
2.905572e+02	-2.764202e+01
2.922354e+02	-2.769789e+01
2.939234e+02	-2.774586e+01
2.956211e+02	-2.779248e+01
2.973286e+02	-2.784792e+01
2.990459e+02	-2.789494e+01
3.007732e+02	-2.794868e+01
3.025104e+02	-2.799838e+01
3.042577e+02	-2.804620e+01
3.060151e+02	-2.809847e+01
3.077826e+02	-2.814710e+01
3.095604e+02	-2.819656e+01
3.113484e+02	-2.824414e+01
3.131467e+02	-2.829492e+01
3.149554e+02	-2.834741e+01
3.167746e+02	-2.839543e+01
3.186043e+02	-2.844664e+01
3.204445e+02	-2.849752e+01
3.222954e+02	-2.854604e+01
3.241570e+02	-2.859538e+01
3.260293e+02	-2.864421e+01
3.279124e+02	-2.869748e+01
3.298064e+02	-2.874903e+01
3.317114e+02	-2.879877e+01
3.336273e+02	-2.884811e+01
3.355544e+02	-2.889861e+01
3.374925e+02	-2.894773e+01
3.394418e+02	-2.899530e+01
3.414024e+02	-2.904459e+01
3.433744e+02	-2.909926e+01
3.453577e+02	-2.914971e+01
3.473525e+02	-2.920123e+01
3.493588e+02	-2.924569e+01
3.513766e+02	-2.929715e+01
3.534062e+02	-2.935184e+01
3.554474e+02	-2.939874e+01
3.575005e+02	-2.944596e+01
3.595654e+02	-2.949741e+01
3.616422e+02	-2.954990e+01
3.637311e+02	-2.960395e+01
3.658320e+02	-2.964910e+01
3.679450e+02	-2.970080e+01
3.700702e+02	-2.974773e+01
3.722077e+02	-2.979860e+01
3.743576e+02	-2.984585e+01
3.765199e+02	-2.990061e+01
3.786946e+02	-2.994991e+01
3.808820e+02	-2.999975e+01
3.830819e+02	-3.004624e+01
3.852946e+02	-3.009738e+01
3.875200e+02	-3.015259e+01
3.897583e+02	-3.019844e+01
3.920096e+02	-3.024517e+01
3.942738e+02	-3.030121e+01
3.965511e+02	-3.035332e+01
3.988416e+02	-3.039825e+01
4.011452e+02	-3.045519e+01
4.034622e+02	-3.050331e+01
4.057926e+02	-3.054933e+01
4.081365e+02	-3.060411e+01
4.104938e+02	-3.065146e+01
4.128648e+02	-3.069646e+01
4.152495e+02	-3.075363e+01
4.176480e+02	-3.079781e+01
4.200603e+02	-3.084970e+01
4.224866e+02	-3.090022e+01
4.249268e+02	-3.095418e+01
4.273812e+02	-3.099863e+01
4.298497e+02	-3.105539e+01
4.323325e+02	-3.110064e+01
4.348297e+02	-3.115404e+01
4.373412e+02	-3.120551e+01
4.398673e+02	-3.124745e+01
4.424079e+02	-3.129978e+01
4.449633e+02	-3.135007e+01
4.475334e+02	-3.140287e+01
4.501183e+02	-3.145001e+01
4.527182e+02	-3.150754e+01
4.553330e+02	-3.155227e+01
4.579630e+02	-3.160694e+01
4.606082e+02	-3.165232e+01
4.632687e+02	-3.170662e+01
4.659445e+02	-3.175053e+01
4.686358e+02	-3.180025e+01
4.713426e+02	-3.185321e+01
4.740650e+02	-3.190005e+01
4.768032e+02	-3.195198e+01
4.795572e+02	-3.200263e+01
4.823271e+02	-3.206423e+01
4.851130e+02	-3.210172e+01
4.879150e+02	-3.215593e+01
4.907332e+02	-3.220822e+01
4.935676e+02	-3.226071e+01
4.964185e+02	-3.230760e+01
4.992858e+02	-3.235397e+01
5.021696e+02	-3.240906e+01
5.050701e+02	-3.245857e+01
5.079874e+02	-3.251884e+01
5.109215e+02	-3.255541e+01
5.138726e+02	-3.260470e+01
5.168407e+02	-3.265089e+01
5.198259e+02	-3.269902e+01
5.228284e+02	-3.275503e+01
5.258482e+02	-3.281024e+01
5.288855e+02	-3.285731e+01
5.319403e+02	-3.291203e+01
5.350128e+02	-3.296134e+01
5.381030e+02	-3.300919e+01
5.412111e+02	-3.305378e+01
5.443371e+02	-3.310898e+01
5.474812e+02	-3.316539e+01
5.506434e+02	-3.320390e+01
5.538239e+02	-3.326003e+01
5.570228e+02	-3.330936e+01
5.602401e+02	-3.335781e+01
5.634760e+02	-3.340827e+01
5.667306e+02	-3.345711e+01
5.700040e+02	-3.351103e+01
5.732964e+02	-3.355591e+01
5.766077e+02	-3.361401e+01
5.799382e+02	-3.366707e+01
5.832879e+02	-3.371344e+01
5.866569e+02	-3.375474e+01
5.900454e+02	-3.381121e+01
5.934535e+02	-3.385856e+01
5.968813e+02	-3.391463e+01
6.003288e+02	-3.395945e+01
6.037963e+02	-3.400962e+01
6.072838e+02	-3.407079e+01
6.107914e+02	-3.411277e+01
6.143194e+02	-3.416533e+01
6.178676e+02	-3.422019e+01
6.214364e+02	-3.427150e+01
6.250258e+02	-3.432106e+01
6.286359e+02	-3.436910e+01
6.322669e+02	-3.442054e+01
6.359189e+02	-3.446289e+01
6.395919e+02	-3.452240e+01
6.432862e+02	-3.456305e+01
6.470017e+02	-3.462835e+01
6.507388e+02	-3.467572e+01
6.544974e+02	-3.470959e+01
6.582778e+02	-3.476931e+01
6.620800e+02	-3.482999e+01
6.659041e+02	-3.486602e+01
6.697504e+02	-3.492532e+01
6.736188e+02	-3.497437e+01
6.775096e+02	-3.502573e+01
6.814229e+02	-3.506558e+01
6.853587e+02	-3.511760e+01
6.893173e+02	-3.517959e+01
6.932988e+02	-3.522688e+01
6.973033e+02	-3.527324e+01
7.013309e+02	-3.532832e+01
