Frequency(Hz)	Magnitude(dB)
1.000000e+01	-1.988304e+00
1.005776e+01	-2.006900e+00
1.011585e+01	-2.025493e+00
1.017428e+01	-2.043907e+00
1.023305e+01	-2.062872e+00
1.029215e+01	-2.082070e+00
1.035160e+01	-2.101049e+00
1.041139e+01	-2.120252e+00
1.047153e+01	-2.139790e+00
1.053201e+01	-2.159284e+00
1.059284e+01	-2.178881e+00
1.065403e+01	-2.198730e+00
1.071556e+01	-2.218562e+00
1.077746e+01	-2.238752e+00
1.083971e+01	-2.259058e+00
1.090232e+01	-2.279137e+00
1.096529e+01	-2.299727e+00
1.102862e+01	-2.320500e+00
1.109232e+01	-2.341162e+00
1.115639e+01	-2.362015e+00
1.122083e+01	-2.383262e+00
1.128564e+01	-2.404428e+00
1.135083e+01	-2.425672e+00
1.141639e+01	-2.447225e+00
1.148233e+01	-2.468834e+00
1.154865e+01	-2.490505e+00
1.161536e+01	-2.512672e+00
1.168245e+01	-2.534424e+00
1.174992e+01	-2.556717e+00
1.181779e+01	-2.579090e+00
1.188605e+01	-2.601525e+00
1.195470e+01	-2.624058e+00
1.202375e+01	-2.646974e+00
1.209320e+01	-2.669840e+00
1.216305e+01	-2.693046e+00
1.223330e+01	-2.715935e+00
1.230396e+01	-2.739243e+00
1.237503e+01	-2.762951e+00
1.244651e+01	-2.786429e+00
1.251840e+01	-2.810226e+00
1.259070e+01	-2.834057e+00
1.266343e+01	-2.858218e+00
1.273657e+01	-2.882287e+00
1.281014e+01	-2.906610e+00
1.288413e+01	-2.931322e+00
1.295855e+01	-2.956033e+00
1.303339e+01	-2.980598e+00
1.310867e+01	-3.005479e+00
1.318439e+01	-3.030457e+00
1.326054e+01	-3.055812e+00
1.333713e+01	-3.081128e+00
1.341417e+01	-3.106717e+00
1.349165e+01	-3.131956e+00
1.356958e+01	-3.157906e+00
1.364795e+01	-3.183937e+00
1.372678e+01	-3.210026e+00
1.380607e+01	-3.236253e+00
1.388581e+01	-3.262608e+00
1.396602e+01	-3.289041e+00
1.404668e+01	-3.315581e+00
1.412782e+01	-3.342239e+00
1.420942e+01	-3.369392e+00
1.429149e+01	-3.396383e+00
1.437404e+01	-3.423644e+00
1.445706e+01	-3.450849e+00
1.454057e+01	-3.478453e+00
1.462455e+01	-3.505921e+00
1.470902e+01	-3.533907e+00
1.479398e+01	-3.561897e+00
1.487943e+01	-3.589970e+00
1.496537e+01	-3.618151e+00
1.505181e+01	-3.646769e+00
1.513875e+01	-3.675037e+00
1.522619e+01	-3.703387e+00
1.531414e+01	-3.732486e+00
1.540259e+01	-3.761357e+00
1.549156e+01	-3.790296e+00
1.558103e+01	-3.819433e+00
1.567103e+01	-3.848942e+00
1.576155e+01	-3.878551e+00
1.585258e+01	-3.907834e+00
1.594415e+01	-3.937883e+00
1.603624e+01	-3.967748e+00
1.612886e+01	-3.997412e+00
1.622202e+01	-4.027799e+00
1.631572e+01	-4.058042e+00
1.640996e+01	-4.088542e+00
1.650474e+01	-4.119086e+00
1.660008e+01	-4.150006e+00
1.669596e+01	-4.180738e+00
1.679239e+01	-4.211786e+00
1.688938e+01	-4.242796e+00
1.698694e+01	-4.274436e+00
1.708505e+01	-4.305498e+00
1.718373e+01	-4.337219e+00
1.728299e+01	-4.368826e+00
1.738281e+01	-4.400509e+00
1.748322e+01	-4.432578e+00
1.758420e+01	-4.464747e+00
1.768576e+01	-4.496760e+00
1.778792e+01	-4.529255e+00
1.789066e+01	-4.561719e+00
1.799399e+01	-4.594182e+00
1.809793e+01	-4.626681e+00
1.820246e+01	-4.659600e+00
1.830760e+01	-4.692639e+00
1.841334e+01	-4.725500e+00
1.851969e+01	-4.759092e+00
1.862666e+01	-4.792227e+00
1.873425e+01	-4.825783e+00
1.884246e+01	-4.859395e+00
1.895129e+01	-4.893052e+00
1.906075e+01	-4.927023e+00
1.917085e+01	-4.961299e+00
1.928158e+01	-4.995121e+00
1.939295e+01	-5.029573e+00
1.950496e+01	-5.063939e+00
1.961762e+01	-5.098124e+00
1.973093e+01	-5.132907e+00
1.984490e+01	-5.167796e+00
1.995952e+01	-5.202484e+00
2.007480e+01	-5.237469e+00
2.019076e+01	-5.272532e+00
2.030738e+01	-5.307746e+00
2.042467e+01	-5.343224e+00
2.054264e+01	-5.378840e+00
2.066130e+01	-5.414433e+00
2.078064e+01	-5.450063e+00
2.090066e+01	-5.485659e+00
2.102139e+01	-5.521774e+00
2.114280e+01	-5.557575e+00
2.126492e+01	-5.594032e+00
2.138775e+01	-5.630272e+00
2.151128e+01	-5.666821e+00
2.163553e+01	-5.703512e+00
2.176050e+01	-5.740012e+00
2.188619e+01	-5.776383e+00
2.201260e+01	-5.813130e+00
2.213974e+01	-5.850488e+00
2.226762e+01	-5.887227e+00
2.239624e+01	-5.924922e+00
2.252560e+01	-5.961754e+00
2.265571e+01	-5.999057e+00
2.278656e+01	-6.036687e+00
2.291818e+01	-6.074303e+00
2.305055e+01	-6.112164e+00
2.318369e+01	-6.150128e+00
2.331760e+01	-6.187909e+00
2.345228e+01	-6.226016e+00
2.358774e+01	-6.264129e+00
2.372398e+01	-6.302294e+00
2.386101e+01	-6.340714e+00
2.399883e+01	-6.379359e+00
2.413745e+01	-6.417580e+00
2.427686e+01	-6.456424e+00
2.441709e+01	-6.495599e+00
2.455812e+01	-6.533892e+00
2.469997e+01	-6.573370e+00
2.484263e+01	-6.612025e+00
2.498612e+01	-6.651318e+00
2.513044e+01	-6.690648e+00
2.527559e+01	-6.729916e+00
2.542158e+01	-6.769349e+00
2.556842e+01	-6.808850e+00
2.571610e+01	-6.848539e+00
2.586463e+01	-6.888118e+00
2.601403e+01	-6.927637e+00
2.616428e+01	-6.967733e+00
2.631541e+01	-7.008018e+00
2.646740e+01	-7.048362e+00
2.662028e+01	-7.088209e+00
2.677404e+01	-7.128805e+00
2.692868e+01	-7.168794e+00
2.708422e+01	-7.209374e+00
2.724066e+01	-7.249895e+00
2.739800e+01	-7.290984e+00
2.755625e+01	-7.331449e+00
2.771541e+01	-7.372387e+00
2.787550e+01	-7.413439e+00
2.803650e+01	-7.453792e+00
2.819844e+01	-7.495456e+00
2.836131e+01	-7.536777e+00
2.852513e+01	-7.577386e+00
2.868989e+01	-7.619130e+00
2.885560e+01	-7.660391e+00
2.902227e+01	-7.701793e+00
2.918990e+01	-7.743354e+00
2.935850e+01	-7.785104e+00
2.952807e+01	-7.827059e+00
2.969863e+01	-7.868807e+00
2.987016e+01	-7.910582e+00
3.004269e+01	-7.952764e+00
3.021622e+01	-7.994254e+00
3.039075e+01	-8.036954e+00
3.056628e+01	-8.078875e+00
3.074283e+01	-8.120494e+00
3.092040e+01	-8.163832e+00
3.109900e+01	-8.205597e+00
3.127862e+01	-8.248141e+00
3.145929e+01	-8.291206e+00
3.164099e+01	-8.333976e+00
3.182375e+01	-8.376570e+00
3.200756e+01	-8.418837e+00
3.219244e+01	-8.461862e+00
3.237838e+01	-8.504951e+00
3.256540e+01	-8.547969e+00
3.275349e+01	-8.591216e+00
3.294268e+01	-8.633991e+00
3.313295e+01	-8.677630e+00
3.332433e+01	-8.720660e+00
3.351681e+01	-8.764333e+00
3.371040e+01	-8.807022e+00
3.390511e+01	-8.851107e+00
3.410094e+01	-8.894272e+00
3.429791e+01	-8.937867e+00
3.449601e+01	-8.980993e+00
3.469526e+01	-9.025727e+00
3.489566e+01	-9.069427e+00
3.509721e+01	-9.112943e+00
3.529993e+01	-9.157094e+00
3.550382e+01	-9.200874e+00
3.570889e+01	-9.244589e+00
3.591515e+01	-9.289228e+00
3.612259e+01	-9.333352e+00
3.633123e+01	-9.377400e+00
3.654108e+01	-9.421682e+00
3.675214e+01	-9.466377e+00
3.696442e+01	-9.510645e+00
3.717792e+01	-9.555183e+00
3.739266e+01	-9.599322e+00
3.760864e+01	-9.643826e+00
3.782587e+01	-9.688779e+00
3.804435e+01	-9.733220e+00
3.826409e+01	-9.777933e+00
3.848510e+01	-9.823060e+00
3.870739e+01	-9.867593e+00
3.893096e+01	-9.912494e+00
3.915583e+01	-9.957003e+00
3.938199e+01	-1.000292e+01
3.960946e+01	-1.004722e+01
3.983824e+01	-1.009256e+01
4.006834e+01	-1.013813e+01
4.029978e+01	-1.018293e+01
4.053255e+01	-1.022857e+01
4.076666e+01	-1.027343e+01
4.100213e+01	-1.031906e+01
4.123896e+01	-1.036412e+01
4.147715e+01	-1.040953e+01
4.171672e+01	-1.045531e+01
4.195767e+01	-1.050088e+01
4.220002e+01	-1.054627e+01
4.244377e+01	-1.059257e+01
4.268892e+01	-1.063792e+01
4.293549e+01	-1.068409e+01
4.318348e+01	-1.072975e+01
4.343291e+01	-1.077511e+01
4.368377e+01	-1.082103e+01
4.393609e+01	-1.086662e+01
4.418986e+01	-1.091330e+01
4.444510e+01	-1.095872e+01
4.470182e+01	-1.100465e+01
4.496001e+01	-1.105072e+01
4.521970e+01	-1.109748e+01
4.548089e+01	-1.114327e+01
4.574358e+01	-1.118882e+01
4.600779e+01	-1.123546e+01
4.627353e+01	-1.128149e+01
4.654081e+01	-1.132830e+01
4.680963e+01	-1.137480e+01
4.708000e+01	-1.142118e+01
4.735193e+01	-1.146775e+01
4.762543e+01	-1.151396e+01
4.790051e+01	-1.156062e+01
4.817719e+01	-1.160701e+01
4.845545e+01	-1.165427e+01
4.873533e+01	-1.169987e+01
4.901682e+01	-1.174662e+01
4.929994e+01	-1.179301e+01
4.958470e+01	-1.184053e+01
4.987110e+01	-1.188744e+01
5.015915e+01	-1.193329e+01
5.044887e+01	-1.198086e+01
5.074026e+01	-1.202752e+01
5.103333e+01	-1.207438e+01
5.132810e+01	-1.212181e+01
5.162457e+01	-1.216865e+01
5.192275e+01	-1.221510e+01
5.222265e+01	-1.226211e+01
5.252429e+01	-1.230923e+01
5.282767e+01	-1.235629e+01
5.313280e+01	-1.240396e+01
5.343969e+01	-1.245148e+01
5.374836e+01	-1.249821e+01
5.405880e+01	-1.254555e+01
5.437105e+01	-1.259195e+01
5.468509e+01	-1.263990e+01
5.500095e+01	-1.268736e+01
5.531863e+01	-1.273364e+01
5.563815e+01	-1.278195e+01
5.595951e+01	-1.282928e+01
5.628273e+01	-1.287653e+01
5.660782e+01	-1.292383e+01
5.693479e+01	-1.297237e+01
5.726364e+01	-1.302000e+01
5.759439e+01	-1.306636e+01
5.792705e+01	-1.311459e+01
5.826164e+01	-1.316236e+01
5.859815e+01	-1.320973e+01
5.893662e+01	-1.325765e+01
5.927703e+01	-1.330459e+01
5.961941e+01	-1.335274e+01
5.996377e+01	-1.340072e+01
6.031012e+01	-1.344858e+01
6.065847e+01	-1.349622e+01
6.100883e+01	-1.354308e+01
6.136121e+01	-1.359122e+01
6.171563e+01	-1.363990e+01
6.207210e+01	-1.368715e+01
6.243063e+01	-1.373488e+01
6.279122e+01	-1.378337e+01
6.315390e+01	-1.383100e+01
6.351868e+01	-1.387929e+01
6.388556e+01	-1.392674e+01
6.425456e+01	-1.397554e+01
6.462569e+01	-1.402263e+01
6.499897e+01	-1.407153e+01
6.537440e+01	-1.411963e+01
6.575200e+01	-1.416703e+01
6.613178e+01	-1.421634e+01
6.651375e+01	-1.426348e+01
6.689793e+01	-1.431149e+01
6.728433e+01	-1.435933e+01
6.767297e+01	-1.440824e+01
6.806384e+01	-1.445661e+01
6.845698e+01	-1.450393e+01
6.885238e+01	-1.455270e+01
6.925007e+01	-1.460188e+01
6.965005e+01	-1.464923e+01
7.005235e+01	-1.469791e+01
7.045697e+01	-1.474613e+01
7.086393e+01	-1.479398e+01
7.127323e+01	-1.484298e+01
7.168490e+01	-1.489108e+01
7.209895e+01	-1.493948e+01
7.251539e+01	-1.498807e+01
7.293424e+01	-1.503762e+01
7.335551e+01	-1.508486e+01
7.377920e+01	-1.513265e+01
7.420535e+01	-1.518093e+01
7.463396e+01	-1.523134e+01
7.506504e+01	-1.527996e+01
7.549861e+01	-1.532869e+01
7.593469e+01	-1.537506e+01
7.637328e+01	-1.542468e+01
7.681441e+01	-1.547344e+01
7.725809e+01	-1.552232e+01
7.770433e+01	-1.556982e+01
7.815315e+01	-1.562005e+01
7.860456e+01	-1.566805e+01
7.905857e+01	-1.571648e+01
7.951521e+01	-1.576543e+01
7.997449e+01	-1.581401e+01
8.043642e+01	-1.586299e+01
8.090102e+01	-1.591219e+01
8.136830e+01	-1.596035e+01
8.183828e+01	-1.600905e+01
8.231097e+01	-1.605756e+01
8.278640e+01	-1.610732e+01
8.326457e+01	-1.615513e+01
8.374550e+01	-1.620376e+01
8.422921e+01	-1.625241e+01
8.471572e+01	-1.630147e+01
8.520503e+01	-1.635014e+01
8.569717e+01	-1.639973e+01
8.619215e+01	-1.644757e+01
8.669000e+01	-1.649725e+01
8.719071e+01	-1.654585e+01
8.769432e+01	-1.659570e+01
8.820084e+01	-1.664542e+01
8.871029e+01	-1.669406e+01
8.922267e+01	-1.674234e+01
8.973802e+01	-1.679099e+01
9.025634e+01	-1.683998e+01
9.077766e+01	-1.688814e+01
9.130199e+01	-1.693877e+01
9.182935e+01	-1.698733e+01
9.235975e+01	-1.703572e+01
9.289321e+01	-1.708573e+01
9.342976e+01	-1.713397e+01
9.396941e+01	-1.718247e+01
9.451217e+01	-1.723276e+01
9.505807e+01	-1.728170e+01
9.560712e+01	-1.733126e+01
9.615934e+01	-1.738062e+01
9.671476e+01	-1.743005e+01
9.727338e+01	-1.747854e+01
9.783522e+01	-1.752765e+01
9.840032e+01	-1.757705e+01
9.896867e+01	-1.762577e+01
9.954031e+01	-1.767394e+01
1.001153e+02	-1.772450e+01
1.006935e+02	-1.777342e+01
1.012751e+02	-1.782330e+01
1.018601e+02	-1.787079e+01
1.024484e+02	-1.792033e+01
1.030402e+02	-1.796893e+01
1.036353e+02	-1.801827e+01
1.042339e+02	-1.806858e+01
1.048360e+02	-1.811795e+01
1.054415e+02	-1.816701e+01
1.060505e+02	-1.821726e+01
1.066631e+02	-1.826561e+01
1.072791e+02	-1.831607e+01
1.078988e+02	-1.836478e+01
1.085220e+02	-1.841406e+01
1.091488e+02	-1.846320e+01
1.097793e+02	-1.851138e+01
1.104133e+02	-1.856222e+01
1.110511e+02	-1.860967e+01
1.116925e+02	-1.865887e+01
1.123376e+02	-1.870961e+01
1.129865e+02	-1.875932e+01
1.136391e+02	-1.880822e+01
1.142955e+02	-1.885691e+01
1.149556e+02	-1.890614e+01
1.156196e+02	-1.895654e+01
1.162874e+02	-1.900408e+01
1.169591e+02	-1.905431e+01
1.176347e+02	-1.910226e+01
1.183141e+02	-1.915546e+01
1.189975e+02	-1.920290e+01
1.196848e+02	-1.925180e+01
1.203761e+02	-1.930202e+01
1.210714e+02	-1.935119e+01
1.217707e+02	-1.940094e+01
1.224740e+02	-1.945178e+01
1.231814e+02	-1.949937e+01
1.238929e+02	-1.954917e+01
1.246085e+02	-1.959841e+01
1.253283e+02	-1.964713e+01
1.260522e+02	-1.969888e+01
1.267802e+02	-1.974758e+01
1.275125e+02	-1.979734e+01
1.282490e+02	-1.984612e+01
1.289898e+02	-1.989684e+01
1.297348e+02	-1.994570e+01
1.304842e+02	-1.999526e+01
1.312378e+02	-2.004452e+01
1.319959e+02	-2.009391e+01
1.327583e+02	-2.014462e+01
1.335251e+02	-2.019453e+01
1.342963e+02	-2.024510e+01
1.350720e+02	-2.029285e+01
1.358522e+02	-2.034248e+01
1.366368e+02	-2.039178e+01
1.374260e+02	-2.044020e+01
1.382198e+02	-2.049164e+01
1.390182e+02	-2.054050e+01
1.398211e+02	-2.058959e+01
1.406287e+02	-2.063860e+01
1.414410e+02	-2.069054e+01
1.422579e+02	-2.074089e+01
1.430796e+02	-2.078766e+01
1.439060e+02	-2.083733e+01
1.447372e+02	-2.088826e+01
1.455732e+02	-2.093676e+01
1.464141e+02	-2.098664e+01
1.472597e+02	-2.103721e+01
1.481103e+02	-2.108654e+01
1.489658e+02	-2.113527e+01
1.498262e+02	-2.118633e+01
1.506916e+02	-2.123424e+01
1.515620e+02	-2.128525e+01
1.524374e+02	-2.133351e+01
1.533179e+02	-2.138505e+01
1.542034e+02	-2.143351e+01
1.550941e+02	-2.148399e+01
1.559899e+02	-2.153234e+01
1.568909e+02	-2.158272e+01
1.577971e+02	-2.163499e+01
1.587085e+02	-2.168233e+01
1.596252e+02	-2.173427e+01
1.605472e+02	-2.178258e+01
1.614745e+02	-2.183128e+01
1.624072e+02	-2.188079e+01
1.633453e+02	-2.193016e+01
1.642887e+02	-2.198134e+01
1.652377e+02	-2.203257e+01
1.661921e+02	-2.208203e+01
1.671520e+02	-2.213041e+01
1.681175e+02	-2.218143e+01
1.690885e+02	-2.222859e+01
1.700651e+02	-2.227915e+01
1.710474e+02	-2.232892e+01
1.720354e+02	-2.237960e+01
1.730291e+02	-2.242878e+01
1.740285e+02	-2.247934e+01
1.750337e+02	-2.253089e+01
1.760446e+02	-2.257665e+01
1.770615e+02	-2.262715e+01
1.780842e+02	-2.267834e+01
1.791128e+02	-2.272711e+01
1.801473e+02	-2.277912e+01
1.811878e+02	-2.282569e+01
1.822344e+02	-2.287616e+01
1.832870e+02	-2.292776e+01
1.843456e+02	-2.297637e+01
1.854104e+02	-2.302553e+01
1.864813e+02	-2.307737e+01
1.875584e+02	-2.312413e+01
1.886418e+02	-2.317536e+01
1.897313e+02	-2.322390e+01
1.908272e+02	-2.327404e+01
1.919294e+02	-2.332587e+01
1.930380e+02	-2.337568e+01
1.941530e+02	-2.342210e+01
1.952744e+02	-2.347362e+01
1.964023e+02	-2.352480e+01
1.975367e+02	-2.357249e+01
1.986777e+02	-2.362062e+01
1.998252e+02	-2.367525e+01
2.009794e+02	-2.372125e+01
2.021403e+02	-2.377189e+01
2.033078e+02	-2.382232e+01
2.044821e+02	-2.387416e+01
2.056632e+02	-2.392300e+01
2.068511e+02	-2.397414e+01
2.080459e+02	-2.401980e+01
2.092475e+02	-2.407163e+01
2.104561e+02	-2.412157e+01
2.116717e+02	-2.417317e+01
2.128943e+02	-2.422345e+01
2.141240e+02	-2.427146e+01
2.153608e+02	-2.432113e+01
2.166047e+02	-2.437213e+01
2.178558e+02	-2.442390e+01
2.191141e+02	-2.447163e+01
2.203797e+02	-2.452401e+01
2.216526e+02	-2.457108e+01
2.229329e+02	-2.462097e+01
2.242205e+02	-2.467067e+01
2.255156e+02	-2.472103e+01
2.268182e+02	-2.477162e+01
2.281283e+02	-2.482110e+01
2.294459e+02	-2.486967e+01
2.307712e+02	-2.492076e+01
2.321041e+02	-2.496857e+01
2.334447e+02	-2.501897e+01
2.347931e+02	-2.506994e+01
2.361493e+02	-2.511990e+01
2.375133e+02	-2.516963e+01
2.388851e+02	-2.521876e+01
2.402649e+02	-2.527097e+01
2.416527e+02	-2.532162e+01
2.430484e+02	-2.537033e+01
2.444523e+02	-2.542060e+01
2.458642e+02	-2.547064e+01
2.472843e+02	-2.552268e+01
2.487126e+02	-2.557025e+01
2.501492e+02	-2.562310e+01
2.515940e+02	-2.566835e+01
2.530472e+02	-2.571890e+01
2.545088e+02	-2.576859e+01
2.559789e+02	-2.581585e+01
2.574574e+02	-2.586852e+01
2.589444e+02	-2.591678e+01
2.604401e+02	-2.596956e+01
2.619444e+02	-2.601896e+01
2.634574e+02	-2.606867e+01
2.649791e+02	-2.611836e+01
2.665096e+02	-2.617120e+01
2.680489e+02	-2.621941e+01
2.695972e+02	-2.627038e+01
2.711544e+02	-2.631948e+01
2.727205e+02	-2.636542e+01
2.742958e+02	-2.642165e+01
2.758801e+02	-2.646929e+01
2.774736e+02	-2.651659e+01
2.790762e+02	-2.656269e+01
2.806882e+02	-2.661778e+01
2.823094e+02	-2.667033e+01
2.839400e+02	-2.671877e+01
2.855800e+02	-2.676940e+01
2.872295e+02	-2.682191e+01
2.888886e+02	-2.687035e+01
2.905572e+02	-2.692059e+01
2.922354e+02	-2.697114e+01
2.939234e+02	-2.701786e+01
2.956211e+02	-2.706705e+01
2.973286e+02	-2.711986e+01
2.990459e+02	-2.716659e+01
3.007732e+02	-2.722065e+01
3.025104e+02	-2.726802e+01
3.042577e+02	-2.732272e+01
3.060151e+02	-2.736902e+01
3.077826e+02	-2.742018e+01
3.095604e+02	-2.746730e+01
3.113484e+02	-2.751653e+01
3.131467e+02	-2.756936e+01
3.149554e+02	-2.761979e+01
3.167746e+02	-2.766756e+01
3.186043e+02	-2.771725e+01
3.204445e+02	-2.776663e+01
3.222954e+02	-2.781972e+01
3.241570e+02	-2.787053e+01
3.260293e+02	-2.792086e+01
3.279124e+02	-2.796914e+01
3.298064e+02	-2.801956e+01
3.317114e+02	-2.806980e+01
3.336273e+02	-2.812174e+01
3.355544e+02	-2.816924e+01
3.374925e+02	-2.821738e+01
3.394418e+02	-2.827011e+01
3.414024e+02	-2.832359e+01
3.433744e+02	-2.836966e+01
3.453577e+02	-2.841849e+01
3.473525e+02	-2.847469e+01
3.493588e+02	-2.851855e+01
3.513766e+02	-2.856722e+01
3.534062e+02	-2.861702e+01
3.554474e+02	-2.866617e+01
3.575005e+02	-2.871712e+01
3.595654e+02	-2.876961e+01
3.616422e+02	-2.881700e+01
3.637311e+02	-2.886983e+01
3.658320e+02	-2.892127e+01
3.679450e+02	-2.896733e+01
3.700702e+02	-2.902020e+01
3.722077e+02	-2.906650e+01
3.743576e+02	-2.911907e+01
3.765199e+02	-2.916710e+01
3.786946e+02	-2.921456e+01
3.808820e+02	-2.927064e+01
3.830819e+02	-2.931560e+01
3.852946e+02	-2.937541e+01
3.875200e+02	-2.941684e+01
3.897583e+02	-2.946550e+01
3.920096e+02	-2.951836e+01
3.942738e+02	-2.957534e+01
3.965511e+02	-2.962338e+01
3.988416e+02	-2.967091e+01
4.011452e+02	-2.971948e+01
4.034622e+02	-2.976749e+01
4.057926e+02	-2.981895e+01
4.081365e+02	-2.987066e+01
4.104938e+02	-2.992513e+01
4.128648e+02	-2.997010e+01
4.152495e+02	-3.001828e+01
4.176480e+02	-3.006896e+01
4.200603e+02	-3.012355e+01
4.224866e+02	-3.016837e+01
4.249268e+02	-3.022287e+01
4.273812e+02	-3.027223e+01
4.298497e+02	-3.032654e+01
4.323325e+02	-3.036842e+01
4.348297e+02	-3.042092e+01
4.373412e+02	-3.047246e+01
4.398673e+02	-3.052123e+01
4.424079e+02	-3.057475e+01
4.449633e+02	-3.062181e+01
4.475334e+02	-3.067341e+01
4.501183e+02	-3.072485e+01
4.527182e+02	-3.077264e+01
4.553330e+02	-3.082146e+01
4.579630e+02	-3.087474e+01
4.606082e+02	-3.092183e+01
4.632687e+02	-3.097382e+01
4.659445e+02	-3.101944e+01
4.686358e+02	-3.107312e+01
4.713426e+02	-3.112640e+01
4.740650e+02	-3.117346e+01
4.768032e+02	-3.122756e+01
4.795572e+02	-3.127625e+01
4.823271e+02	-3.132315e+01
4.851130e+02	-3.137549e+01
4.879150e+02	-3.141828e+01
4.907332e+02	-3.147915e+01
4.935676e+02	-3.152618e+01
4.964185e+02	-3.157427e+01
4.992858e+02	-3.162849e+01
5.021696e+02	-3.167396e+01
5.050701e+02	-3.173254e+01
5.079874e+02	-3.177233e+01
5.109215e+02	-3.182494e+01
5.138726e+02	-3.187773e+01
5.168407e+02	-3.191981e+01
5.198259e+02	-3.197125e+01
5.228284e+02	-3.203325e+01
5.258482e+02	-3.207964e+01
5.288855e+02	-3.212945e+01
5.319403e+02	-3.217947e+01
5.350128e+02	-3.223945e+01
5.381030e+02	-3.227240e+01
5.412111e+02	-3.233214e+01
5.443371e+02	-3.237277e+01
5.474812e+02	-3.242336e+01
5.506434e+02	-3.247750e+01
5.538239e+02	-3.253245e+01
5.570228e+02	-3.257530e+01
5.602401e+02	-3.263034e+01
5.634760e+02	-3.268054e+01
5.667306e+02	-3.273110e+01
5.700040e+02	-3.277480e+01
5.732964e+02	-3.282910e+01
5.766077e+02	-3.288757e+01
5.799382e+02	-3.293842e+01
5.832879e+02	-3.298168e+01
5.866569e+02	-3.302977e+01
5.900454e+02	-3.308621e+01
5.934535e+02	-3.314607e+01
5.968813e+02	-3.319052e+01
6.003288e+02	-3.323277e+01
6.037963e+02	-3.328299e+01
6.072838e+02	-3.333580e+01
6.107914e+02	-3.338034e+01
6.143194e+02	-3.344069e+01
6.178676e+02	-3.348300e+01
6.214364e+02	-3.353333e+01
6.250258e+02	-3.358872e+01
6.286359e+02	-3.363951e+01
6.322669e+02	-3.368300e+01
6.359189e+02	-3.373305e+01
6.395919e+02	-3.377506e+01
6.432862e+02	-3.383099e+01
6.470017e+02	-3.388713e+01
6.507388e+02	-3.393440e+01
6.544974e+02	-3.399264e+01
6.582778e+02	-3.404668e+01
6.620800e+02	-3.407838e+01
6.659041e+02	-3.414196e+01
6.697504e+02	-3.418693e+01
6.736188e+02	-3.424179e+01
6.775096e+02	-3.429454e+01
6.814229e+02	-3.433865e+01
6.853587e+02	-3.438729e+01
6.893173e+02	-3.444176e+01
6.932988e+02	-3.449840e+01
6.973033e+02	-3.453748e+01
7.013309e+02	-3.460039e+01
