Frequency(Hz)	Magnitude(dB)
1.000000e+01	-2.252454e+00
1.005776e+01	-2.272394e+00
1.011585e+01	-2.293108e+00
1.017428e+01	-2.313551e+00
1.023305e+01	-2.334518e+00
1.029215e+01	-2.355228e+00
1.035160e+01	-2.376268e+00
1.041139e+01	-2.397461e+00
1.047153e+01	-2.418522e+00
1.053201e+01	-2.439973e+00
1.059284e+01	-2.461709e+00
1.065403e+01	-2.483115e+00
1.071556e+01	-2.505240e+00
1.077746e+01	-2.527134e+00
1.083971e+01	-2.549438e+00
1.090232e+01	-2.571610e+00
1.096529e+01	-2.594297e+00
1.102862e+01	-2.616618e+00
1.109232e+01	-2.639199e+00
1.115639e+01	-2.662183e+00
1.122083e+01	-2.685184e+00
1.128564e+01	-2.708487e+00
1.135083e+01	-2.731689e+00
1.141639e+01	-2.755147e+00
1.148233e+01	-2.778645e+00
1.154865e+01	-2.802311e+00
1.161536e+01	-2.826171e+00
1.168245e+01	-2.850473e+00
1.174992e+01	-2.874355e+00
1.181779e+01	-2.898717e+00
1.188605e+01	-2.923023e+00
1.195470e+01	-2.947526e+00
1.202375e+01	-2.972165e+00
1.209320e+01	-2.997052e+00
1.216305e+01	-3.022138e+00
1.223330e+01	-3.047336e+00
1.230396e+01	-3.072479e+00
1.237503e+01	-3.097922e+00
1.244651e+01	-3.123658e+00
1.251840e+01	-3.149313e+00
1.259070e+01	-3.175381e+00
1.266343e+01	-3.201364e+00
1.273657e+01	-3.227559e+00
1.281014e+01	-3.253927e+00
1.288413e+01	-3.280220e+00
1.295855e+01	-3.306688e+00
1.303339e+01	-3.333428e+00
1.310867e+01	-3.360317e+00
1.318439e+01	-3.387680e+00
1.326054e+01	-3.414513e+00
1.333713e+01	-3.441920e+00
1.341417e+01	-3.469367e+00
1.349165e+01	-3.496984e+00
1.356958e+01	-3.524540e+00
1.364795e+01	-3.552688e+00
1.372678e+01	-3.580586e+00
1.380607e+01	-3.608846e+00
1.388581e+01	-3.637169e+00
1.396602e+01	-3.665432e+00
1.404668e+01	-3.694048e+00
1.412782e+01	-3.722817e+00
1.420942e+01	-3.751958e+00
1.429149e+01	-3.780918e+00
1.437404e+01	-3.810077e+00
1.445706e+01	-3.839082e+00
1.454057e+01	-3.868516e+00
1.462455e+01	-3.898141e+00
1.470902e+01	-3.927817e+00
1.479398e+01	-3.957847e+00
1.487943e+01	-3.987818e+00
1.496537e+01	-4.017711e+00
1.505181e+01	-4.047840e+00
1.513875e+01	-4.078499e+00
1.522619e+01	-4.109201e+00
1.531414e+01	-4.139612e+00
1.540259e+01	-4.170659e+00
1.549156e+01	-4.201309e+00
1.558103e+01	-4.232354e+00
1.567103e+01	-4.263617e+00
1.576155e+01	-4.295231e+00
1.585258e+01	-4.326644e+00
1.594415e+01	-4.358093e+00
1.603624e+01	-4.389917e+00
1.612886e+01	-4.421843e+00
1.622202e+01	-4.453874e+00
1.631572e+01	-4.486168e+00
1.640996e+01	-4.518251e+00
1.650474e+01	-4.550679e+00
1.660008e+01	-4.583121e+00
1.669596e+01	-4.616067e+00
1.679239e+01	-4.648865e+00
1.688938e+01	-4.681511e+00
1.698694e+01	-4.714777e+00
1.708505e+01	-4.747994e+00
1.718373e+01	-4.781194e+00
1.728299e+01	-4.814298e+00
1.738281e+01	-4.848425e+00
1.748322e+01	-4.881854e+00
1.758420e+01	-4.915787e+00
1.768576e+01	-4.949784e+00
1.778792e+01	-4.984174e+00
1.789066e+01	-5.018236e+00
1.799399e+01	-5.052678e+00
1.809793e+01	-5.086811e+00
1.820246e+01	-5.121508e+00
1.830760e+01	-5.156591e+00
1.841334e+01	-5.191338e+00
1.851969e+01	-5.226066e+00
1.862666e+01	-5.260977e+00
1.873425e+01	-5.296533e+00
1.884246e+01	-5.331259e+00
1.895129e+01	-5.366644e+00
1.906075e+01	-5.402666e+00
1.917085e+01	-5.438372e+00
1.928158e+01	-5.473746e+00
1.939295e+01	-5.509950e+00
1.950496e+01	-5.545714e+00
1.961762e+01	-5.581904e+00
1.973093e+01	-5.618171e+00
1.984490e+01	-5.654433e+00
1.995952e+01	-5.691274e+00
2.007480e+01	-5.727515e+00
2.019076e+01	-5.764307e+00
2.030738e+01	-5.800861e+00
2.042467e+01	-5.837910e+00
2.054264e+01	-5.875143e+00
2.066130e+01	-5.912284e+00
2.078064e+01	-5.949711e+00
2.090066e+01	-5.986947e+00
2.102139e+01	-6.024441e+00
2.114280e+01	-6.061882e+00
2.126492e+01	-6.099511e+00
2.138775e+01	-6.137536e+00
2.151128e+01	-6.175442e+00
2.163553e+01	-6.213130e+00
2.176050e+01	-6.251184e+00
2.188619e+01	-6.289372e+00
2.201260e+01	-6.327970e+00
2.213974e+01	-6.366309e+00
2.226762e+01	-6.404981e+00
2.239624e+01	-6.443884e+00
2.252560e+01	-6.482118e+00
2.265571e+01	-6.521295e+00
2.278656e+01	-6.560216e+00
2.291818e+01	-6.599147e+00
2.305055e+01	-6.638106e+00
2.318369e+01	-6.677368e+00
2.331760e+01	-6.716998e+00
2.345228e+01	-6.756209e+00
2.358774e+01	-6.795692e+00
2.372398e+01	-6.835683e+00
2.386101e+01	-6.875114e+00
2.399883e+01	-6.915020e+00
2.413745e+01	-6.954844e+00
2.427686e+01	-6.994754e+00
2.441709e+01	-7.034818e+00
2.455812e+01	-7.075057e+00
2.469997e+01	-7.115582e+00
2.484263e+01	-7.155471e+00
2.498612e+01	-7.196021e+00
2.513044e+01	-7.236256e+00
2.527559e+01	-7.277019e+00
2.542158e+01	-7.317892e+00
2.556842e+01	-7.358852e+00
2.571610e+01	-7.399235e+00
2.586463e+01	-7.440685e+00
2.601403e+01	-7.481429e+00
2.616428e+01	-7.522398e+00
2.631541e+01	-7.563477e+00
2.646740e+01	-7.605234e+00
2.662028e+01	-7.646738e+00
2.677404e+01	-7.688271e+00
2.692868e+01	-7.729575e+00
2.708422e+01	-7.771165e+00
2.724066e+01	-7.813130e+00
2.739800e+01	-7.854894e+00
2.755625e+01	-7.896524e+00
2.771541e+01	-7.938666e+00
2.787550e+01	-7.980873e+00
2.803650e+01	-8.022819e+00
2.819844e+01	-8.064733e+00
2.836131e+01	-8.107418e+00
2.852513e+01	-8.149613e+00
2.868989e+01	-8.191606e+00
2.885560e+01	-8.234314e+00
2.902227e+01	-8.276991e+00
2.918990e+01	-8.319824e+00
2.935850e+01	-8.361872e+00
2.952807e+01	-8.404984e+00
2.969863e+01	-8.447772e+00
2.987016e+01	-8.490122e+00
3.004269e+01	-8.533648e+00
3.021622e+01	-8.576657e+00
3.039075e+01	-8.620031e+00
3.056628e+01	-8.663066e+00
3.074283e+01	-8.706688e+00
3.092040e+01	-8.749627e+00
3.109900e+01	-8.792905e+00
3.127862e+01	-8.836638e+00
3.145929e+01	-8.880098e+00
3.164099e+01	-8.923337e+00
3.182375e+01	-8.966955e+00
3.200756e+01	-9.011131e+00
3.219244e+01	-9.054541e+00
3.237838e+01	-9.098824e+00
3.256540e+01	-9.142173e+00
3.275349e+01	-9.186483e+00
3.294268e+01	-9.230500e+00
3.313295e+01	-9.274403e+00
3.332433e+01	-9.318501e+00
3.351681e+01	-9.362490e+00
3.371040e+01	-9.407383e+00
3.390511e+01	-9.451104e+00
3.410094e+01	-9.495526e+00
3.429791e+01	-9.540255e+00
3.449601e+01	-9.584947e+00
3.469526e+01	-9.629024e+00
3.489566e+01	-9.673964e+00
3.509721e+01	-9.718407e+00
3.529993e+01	-9.763612e+00
3.550382e+01	-9.808192e+00
3.570889e+01	-9.852656e+00
3.591515e+01	-9.897205e+00
3.612259e+01	-9.942055e+00
3.633123e+01	-9.987834e+00
3.654108e+01	-1.003282e+01
3.675214e+01	-1.007804e+01
3.696442e+01	-1.012300e+01
3.717792e+01	-1.016804e+01
3.739266e+01	-1.021302e+01
3.760864e+01	-1.025826e+01
3.782587e+01	-1.030384e+01
3.804435e+01	-1.034926e+01
3.826409e+01	-1.039472e+01
3.848510e+01	-1.044071e+01
3.870739e+01	-1.048557e+01
3.893096e+01	-1.053169e+01
3.915583e+01	-1.057660e+01
3.938199e+01	-1.062220e+01
3.960946e+01	-1.066866e+01
3.983824e+01	-1.071408e+01
4.006834e+01	-1.075971e+01
4.029978e+01	-1.080621e+01
4.053255e+01	-1.085201e+01
4.076666e+01	-1.089742e+01
4.100213e+01	-1.094354e+01
4.123896e+01	-1.098986e+01
4.147715e+01	-1.103554e+01
4.171672e+01	-1.108146e+01
4.195767e+01	-1.112753e+01
4.220002e+01	-1.117440e+01
4.244377e+01	-1.122004e+01
4.268892e+01	-1.126652e+01
4.293549e+01	-1.131288e+01
4.318348e+01	-1.135899e+01
4.343291e+01	-1.140570e+01
4.368377e+01	-1.145165e+01
4.393609e+01	-1.149881e+01
4.418986e+01	-1.154588e+01
4.444510e+01	-1.159166e+01
4.470182e+01	-1.163833e+01
4.496001e+01	-1.168464e+01
4.521970e+01	-1.173145e+01
4.548089e+01	-1.177783e+01
4.574358e+01	-1.182447e+01
4.600779e+01	-1.187231e+01
4.627353e+01	-1.191884e+01
4.654081e+01	-1.196508e+01
4.680963e+01	-1.201154e+01
4.708000e+01	-1.205894e+01
4.735193e+01	-1.210630e+01
4.762543e+01	-1.215278e+01
4.790051e+01	-1.219995e+01
4.817719e+01	-1.224672e+01
4.845545e+01	-1.229461e+01
4.873533e+01	-1.234147e+01
4.901682e+01	-1.238796e+01
4.929994e+01	-1.243447e+01
4.958470e+01	-1.248207e+01
4.987110e+01	-1.253033e+01
5.015915e+01	-1.257740e+01
5.044887e+01	-1.262419e+01
5.074026e+01	-1.267189e+01
5.103333e+01	-1.271939e+01
5.132810e+01	-1.276581e+01
5.162457e+01	-1.281323e+01
5.192275e+01	-1.286127e+01
5.222265e+01	-1.290846e+01
5.252429e+01	-1.295619e+01
5.282767e+01	-1.300322e+01
5.313280e+01	-1.305081e+01
5.343969e+01	-1.309908e+01
5.374836e+01	-1.314689e+01
5.405880e+01	-1.319376e+01
5.437105e+01	-1.324125e+01
5.468509e+01	-1.328881e+01
5.500095e+01	-1.333637e+01
5.531863e+01	-1.338411e+01
5.563815e+01	-1.343255e+01
5.595951e+01	-1.348052e+01
5.628273e+01	-1.352755e+01
5.660782e+01	-1.357584e+01
5.693479e+01	-1.362368e+01
5.726364e+01	-1.367087e+01
5.759439e+01	-1.371908e+01
5.792705e+01	-1.376694e+01
5.826164e+01	-1.381580e+01
5.859815e+01	-1.386332e+01
5.893662e+01	-1.391104e+01
5.927703e+01	-1.395927e+01
5.961941e+01	-1.400733e+01
5.996377e+01	-1.405520e+01
6.031012e+01	-1.410312e+01
6.065847e+01	-1.415076e+01
6.100883e+01	-1.420011e+01
6.136121e+01	-1.424736e+01
6.171563e+01	-1.429563e+01
6.207210e+01	-1.434322e+01
6.243063e+01	-1.439274e+01
6.279122e+01	-1.444102e+01
6.315390e+01	-1.448848e+01
6.351868e+01	-1.453633e+01
6.388556e+01	-1.458535e+01
6.425456e+01	-1.463315e+01
6.462569e+01	-1.468149e+01
6.499897e+01	-1.473045e+01
6.537440e+01	-1.477787e+01
6.575200e+01	-1.482677e+01
6.613178e+01	-1.487467e+01
6.651375e+01	-1.492319e+01
6.689793e+01	-1.497248e+01
6.728433e+01	-1.502089e+01
6.767297e+01	-1.506865e+01
6.806384e+01	-1.511778e+01
6.845698e+01	-1.516632e+01
6.885238e+01	-1.521384e+01
6.925007e+01	-1.526193e+01
6.965005e+01	-1.531100e+01
7.005235e+01	-1.535941e+01
7.045697e+01	-1.540930e+01
7.086393e+01	-1.545776e+01
7.127323e+01	-1.550667e+01
7.168490e+01	-1.555410e+01
7.209895e+01	-1.560427e+01
7.251539e+01	-1.565312e+01
7.293424e+01	-1.570075e+01
7.335551e+01	-1.574895e+01
7.377920e+01	-1.579745e+01
7.420535e+01	-1.584615e+01
7.463396e+01	-1.589469e+01
7.506504e+01	-1.594394e+01
7.549861e+01	-1.599189e+01
7.593469e+01	-1.604056e+01
7.637328e+01	-1.609068e+01
7.681441e+01	-1.613935e+01
7.725809e+01	-1.618719e+01
7.770433e+01	-1.623734e+01
7.815315e+01	-1.628561e+01
7.860456e+01	-1.633492e+01
7.905857e+01	-1.638322e+01
7.951521e+01	-1.643262e+01
7.997449e+01	-1.648086e+01
8.043642e+01	-1.653066e+01
8.090102e+01	-1.657970e+01
8.136830e+01	-1.662851e+01
8.183828e+01	-1.667676e+01
8.231097e+01	-1.672644e+01
8.278640e+01	-1.677569e+01
8.326457e+01	-1.682350e+01
8.374550e+01	-1.687299e+01
8.422921e+01	-1.692267e+01
8.471572e+01	-1.697058e+01
8.520503e+01	-1.701977e+01
8.569717e+01	-1.706797e+01
8.619215e+01	-1.711742e+01
8.669000e+01	-1.716786e+01
8.719071e+01	-1.721597e+01
8.769432e+01	-1.726493e+01
8.820084e+01	-1.731439e+01
8.871029e+01	-1.736491e+01
8.922267e+01	-1.741245e+01
8.973802e+01	-1.746159e+01
9.025634e+01	-1.751189e+01
9.077766e+01	-1.756040e+01
9.130199e+01	-1.760918e+01
9.182935e+01	-1.765911e+01
9.235975e+01	-1.770627e+01
9.289321e+01	-1.775709e+01
9.342976e+01	-1.780574e+01
9.396941e+01	-1.785451e+01
9.451217e+01	-1.790312e+01
9.505807e+01	-1.795448e+01
9.560712e+01	-1.800346e+01
9.615934e+01	-1.805253e+01
9.671476e+01	-1.810170e+01
9.727338e+01	-1.815019e+01
9.783522e+01	-1.820003e+01
9.840032e+01	-1.824952e+01
9.896867e+01	-1.829999e+01
9.954031e+01	-1.834813e+01
1.001153e+02	-1.839620e+01
1.006935e+02	-1.844716e+01
1.012751e+02	-1.849528e+01
1.018601e+02	-1.854438e+01
1.024484e+02	-1.859472e+01
1.030402e+02	-1.864488e+01
1.036353e+02	-1.869307e+01
1.042339e+02	-1.874196e+01
1.048360e+02	-1.879189e+01
1.054415e+02	-1.884056e+01
1.060505e+02	-1.889074e+01
1.066631e+02	-1.893993e+01
1.072791e+02	-1.898998e+01
1.078988e+02	-1.903776e+01
1.085220e+02	-1.908779e+01
1.091488e+02	-1.913707e+01
1.097793e+02	-1.918626e+01
1.104133e+02	-1.923706e+01
1.110511e+02	-1.928689e+01
1.116925e+02	-1.933597e+01
1.123376e+02	-1.938610e+01
1.129865e+02	-1.943317e+01
1.136391e+02	-1.948296e+01
1.142955e+02	-1.953391e+01
1.149556e+02	-1.958262e+01
1.156196e+02	-1.963224e+01
1.162874e+02	-1.968084e+01
1.169591e+02	-1.973089e+01
1.176347e+02	-1.978009e+01
1.183141e+02	-1.983012e+01
1.189975e+02	-1.987965e+01
1.196848e+02	-1.992892e+01
1.203761e+02	-1.997732e+01
1.210714e+02	-2.002790e+01
1.217707e+02	-2.007714e+01
1.224740e+02	-2.012856e+01
1.231814e+02	-2.017699e+01
1.238929e+02	-2.022714e+01
1.246085e+02	-2.027567e+01
1.253283e+02	-2.032510e+01
1.260522e+02	-2.037469e+01
1.267802e+02	-2.042527e+01
1.275125e+02	-2.047539e+01
1.282490e+02	-2.052434e+01
1.289898e+02	-2.057340e+01
1.297348e+02	-2.062247e+01
1.304842e+02	-2.067269e+01
1.312378e+02	-2.072170e+01
1.319959e+02	-2.077269e+01
1.327583e+02	-2.082059e+01
1.335251e+02	-2.087132e+01
1.342963e+02	-2.091894e+01
1.350720e+02	-2.096918e+01
1.358522e+02	-2.102014e+01
1.366368e+02	-2.106878e+01
1.374260e+02	-2.111840e+01
1.382198e+02	-2.117000e+01
1.390182e+02	-2.121728e+01
1.398211e+02	-2.126731e+01
1.406287e+02	-2.131839e+01
1.414410e+02	-2.136867e+01
1.422579e+02	-2.141720e+01
1.430796e+02	-2.146636e+01
1.439060e+02	-2.151704e+01
1.447372e+02	-2.156553e+01
1.455732e+02	-2.161740e+01
1.464141e+02	-2.166552e+01
1.472597e+02	-2.171431e+01
1.481103e+02	-2.176492e+01
1.489658e+02	-2.181561e+01
1.498262e+02	-2.186553e+01
1.506916e+02	-2.191578e+01
1.515620e+02	-2.196272e+01
1.524374e+02	-2.201284e+01
1.533179e+02	-2.206437e+01
1.542034e+02	-2.211301e+01
1.550941e+02	-2.216096e+01
1.559899e+02	-2.221369e+01
1.568909e+02	-2.226345e+01
1.577971e+02	-2.231169e+01
1.587085e+02	-2.236186e+01
1.596252e+02	-2.241281e+01
1.605472e+02	-2.246028e+01
1.614745e+02	-2.251149e+01
1.624072e+02	-2.256167e+01
1.633453e+02	-2.261082e+01
1.642887e+02	-2.266056e+01
1.652377e+02	-2.271034e+01
1.661921e+02	-2.275981e+01
1.671520e+02	-2.280856e+01
1.681175e+02	-2.286233e+01
1.690885e+02	-2.290916e+01
1.700651e+02	-2.296091e+01
1.710474e+02	-2.301106e+01
1.720354e+02	-2.305810e+01
1.730291e+02	-2.310911e+01
1.740285e+02	-2.316008e+01
1.750337e+02	-2.320832e+01
1.760446e+02	-2.325939e+01
1.770615e+02	-2.330865e+01
1.780842e+02	-2.335918e+01
1.791128e+02	-2.340787e+01
1.801473e+02	-2.345731e+01
1.811878e+02	-2.350785e+01
1.822344e+02	-2.355849e+01
1.832870e+02	-2.360702e+01
1.843456e+02	-2.365720e+01
1.854104e+02	-2.370469e+01
1.864813e+02	-2.375642e+01
1.875584e+02	-2.380562e+01
1.886418e+02	-2.385747e+01
1.897313e+02	-2.390592e+01
1.908272e+02	-2.395875e+01
1.919294e+02	-2.400572e+01
1.930380e+02	-2.405619e+01
1.941530e+02	-2.410668e+01
1.952744e+02	-2.415720e+01
1.964023e+02	-2.420629e+01
1.975367e+02	-2.425495e+01
1.986777e+02	-2.430507e+01
1.998252e+02	-2.435574e+01
2.009794e+02	-2.440407e+01
2.021403e+02	-2.445253e+01
2.033078e+02	-2.450326e+01
2.044821e+02	-2.455449e+01
2.056632e+02	-2.460460e+01
2.068511e+02	-2.465668e+01
2.080459e+02	-2.470561e+01
2.092475e+02	-2.475293e+01
2.104561e+02	-2.480413e+01
2.116717e+02	-2.485245e+01
2.128943e+02	-2.490262e+01
2.141240e+02	-2.495385e+01
2.153608e+02	-2.500268e+01
2.166047e+02	-2.505284e+01
2.178558e+02	-2.510427e+01
2.191141e+02	-2.515432e+01
2.203797e+02	-2.520358e+01
2.216526e+02	-2.525268e+01
2.229329e+02	-2.530433e+01
2.242205e+02	-2.535090e+01
2.255156e+02	-2.540177e+01
2.268182e+02	-2.545319e+01
2.281283e+02	-2.550288e+01
2.294459e+02	-2.555249e+01
2.307712e+02	-2.560272e+01
2.321041e+02	-2.565178e+01
2.334447e+02	-2.570384e+01
2.347931e+02	-2.575323e+01
2.361493e+02	-2.580708e+01
2.375133e+02	-2.585195e+01
2.388851e+02	-2.590261e+01
2.402649e+02	-2.595393e+01
2.416527e+02	-2.600193e+01
2.430484e+02	-2.605156e+01
2.444523e+02	-2.610400e+01
2.458642e+02	-2.615243e+01
2.472843e+02	-2.620219e+01
2.487126e+02	-2.625551e+01
2.501492e+02	-2.630305e+01
2.515940e+02	-2.635000e+01
2.530472e+02	-2.640221e+01
2.545088e+02	-2.645276e+01
2.559789e+02	-2.650426e+01
2.574574e+02	-2.655258e+01
2.589444e+02	-2.660606e+01
2.604401e+02	-2.665224e+01
2.619444e+02	-2.670379e+01
2.634574e+02	-2.675223e+01
2.649791e+02	-2.679889e+01
2.665096e+02	-2.685029e+01
2.680489e+02	-2.689829e+01
2.695972e+02	-2.694875e+01
2.711544e+02	-2.699873e+01
2.727205e+02	-2.704688e+01
2.742958e+02	-2.710065e+01
2.758801e+02	-2.715121e+01
2.774736e+02	-2.720498e+01
2.790762e+02	-2.725224e+01
2.806882e+02	-2.729981e+01
2.823094e+02	-2.735186e+01
2.839400e+02	-2.740258e+01
2.855800e+02	-2.744827e+01
2.872295e+02	-2.750217e+01
2.888886e+02	-2.755136e+01
2.905572e+02	-2.760255e+01
2.922354e+02	-2.765321e+01
2.939234e+02	-2.770395e+01
2.956211e+02	-2.775504e+01
2.973286e+02	-2.779508e+01
2.990459e+02	-2.785356e+01
3.007732e+02	-2.790228e+01
3.025104e+02	-2.795556e+01
3.042577e+02	-2.800415e+01
3.060151e+02	-2.805093e+01
3.077826e+02	-2.809929e+01
3.095604e+02	-2.814884e+01
3.113484e+02	-2.820203e+01
3.131467e+02	-2.825408e+01
3.149554e+02	-2.830033e+01
3.167746e+02	-2.834984e+01
3.186043e+02	-2.840031e+01
3.204445e+02	-2.845140e+01
3.222954e+02	-2.850273e+01
3.241570e+02	-2.854742e+01
3.260293e+02	-2.860056e+01
3.279124e+02	-2.865571e+01
3.298064e+02	-2.870286e+01
3.317114e+02	-2.875648e+01
3.336273e+02	-2.880290e+01
3.355544e+02	-2.885540e+01
3.374925e+02	-2.890222e+01
3.394418e+02	-2.895275e+01
3.414024e+02	-2.899903e+01
3.433744e+02	-2.905013e+01
3.453577e+02	-2.910281e+01
3.473525e+02	-2.915285e+01
3.493588e+02	-2.920318e+01
3.513766e+02	-2.925343e+01
3.534062e+02	-2.930186e+01
3.554474e+02	-2.935395e+01
3.575005e+02	-2.940176e+01
3.595654e+02	-2.945652e+01
3.616422e+02	-2.949891e+01
3.637311e+02	-2.955359e+01
3.658320e+02	-2.960106e+01
3.679450e+02	-2.965198e+01
3.700702e+02	-2.970425e+01
3.722077e+02	-2.975369e+01
3.743576e+02	-2.980371e+01
3.765199e+02	-2.985122e+01
3.786946e+02	-2.989945e+01
3.808820e+02	-2.995434e+01
3.830819e+02	-3.000038e+01
3.852946e+02	-3.005521e+01
3.875200e+02	-3.010257e+01
3.897583e+02	-3.015898e+01
3.920096e+02	-3.020378e+01
3.942738e+02	-3.024520e+01
3.965511e+02	-3.030307e+01
3.988416e+02	-3.035880e+01
4.011452e+02	-3.040581e+01
4.034622e+02	-3.045576e+01
4.057926e+02	-3.050792e+01
4.081365e+02	-3.055596e+01
4.104938e+02	-3.060423e+01
4.128648e+02	-3.065461e+01
4.152495e+02	-3.070337e+01
4.176480e+02	-3.075966e+01
4.200603e+02	-3.080616e+01
4.224866e+02	-3.085510e+01
4.249268e+02	-3.090296e+01
4.273812e+02	-3.095728e+01
4.298497e+02	-3.099937e+01
4.323325e+02	-3.105313e+01
4.348297e+02	-3.111167e+01
4.373412e+02	-3.115408e+01
4.398673e+02	-3.120594e+01
4.424079e+02	-3.125674e+01
4.449633e+02	-3.130178e+01
4.475334e+02	-3.136117e+01
4.501183e+02	-3.140723e+01
4.527182e+02	-3.146191e+01
4.553330e+02	-3.150728e+01
4.579630e+02	-3.155797e+01
4.606082e+02	-3.160559e+01
4.632687e+02	-3.165470e+01
4.659445e+02	-3.170606e+01
4.686358e+02	-3.175535e+01
4.713426e+02	-3.180406e+01
4.740650e+02	-3.186259e+01
4.768032e+02	-3.191179e+01
4.795572e+02	-3.195901e+01
4.823271e+02	-3.201663e+01
4.851130e+02	-3.205458e+01
4.879150e+02	-3.210581e+01
4.907332e+02	-3.216527e+01
4.935676e+02	-3.221007e+01
4.964185e+02	-3.227163e+01
4.992858e+02	-3.231748e+01
5.021696e+02	-3.236077e+01
5.050701e+02	-3.239976e+01
5.079874e+02	-3.245450e+01
5.109215e+02	-3.251341e+01
5.138726e+02	-3.255627e+01
5.168407e+02	-3.261247e+01
5.198259e+02	-3.266057e+01
5.228284e+02	-3.270645e+01
5.258482e+02	-3.276291e+01
5.288855e+02	-3.281421e+01
5.319403e+02	-3.286594e+01
5.350128e+02	-3.291665e+01
5.381030e+02	-3.295870e+01
5.412111e+02	-3.301153e+01
5.443371e+02	-3.306496e+01
5.474812e+02	-3.311556e+01
5.506434e+02	-3.316838e+01
5.538239e+02	-3.321509e+01
5.570228e+02	-3.326686e+01
5.602401e+02	-3.330937e+01
5.634760e+02	-3.337086e+01
5.667306e+02	-3.341834e+01
5.700040e+02	-3.346202e+01
5.732964e+02	-3.351583e+01
5.766077e+02	-3.357172e+01
5.799382e+02	-3.362361e+01
5.832879e+02	-3.366309e+01
5.866569e+02	-3.371791e+01
5.900454e+02	-3.376642e+01
5.934535e+02	-3.381403e+01
5.968813e+02	-3.385894e+01
6.003288e+02	-3.391927e+01
6.037963e+02	-3.396675e+01
6.072838e+02	-3.401972e+01
6.107914e+02	-3.406861e+01
6.143194e+02	-3.411620e+01
6.178676e+02	-3.417767e+01
6.214364e+02	-3.422032e+01
6.250258e+02	-3.426373e+01
6.286359e+02	-3.430955e+01
6.322669e+02	-3.437164e+01
6.359189e+02	-3.442286e+01
6.395919e+02	-3.447126e+01
6.432862e+02	-3.453033e+01
6.470017e+02	-3.457155e+01
6.507388e+02	-3.462413e+01
6.544974e+02	-3.467664e+01
6.582778e+02	-3.472088e+01
6.620800e+02	-3.477330e+01
6.659041e+02	-3.481850e+01
6.697504e+02	-3.487548e+01
6.736188e+02	-3.493096e+01
6.775096e+02	-3.498233e+01
6.814229e+02	-3.502719e+01
6.853587e+02	-3.508019e+01
6.893173e+02	-3.512501e+01
6.932988e+02	-3.518302e+01
6.973033e+02	-3.523191e+01
7.013309e+02	-3.527155e+01
