Frequency(Hz)	Magnitude(dB)
1.000000e+01	-1.683008e-05
1.005776e+01	-1.702506e-05
1.011585e+01	-1.722230e-05
1.017428e+01	-1.742183e-05
1.023305e+01	-1.762367e-05
1.029215e+01	-1.782784e-05
1.035160e+01	-1.803438e-05
1.041139e+01	-1.824331e-05
1.047153e+01	-1.845467e-05
1.053201e+01	-1.866847e-05
1.059284e+01	-1.888475e-05
1.065403e+01	-1.910353e-05
1.071556e+01	-1.932485e-05
1.077746e+01	-1.954873e-05
1.083971e+01	-1.977521e-05
1.090232e+01	-2.000431e-05
1.096529e+01	-2.023607e-05
1.102862e+01	-2.047051e-05
1.109232e+01	-2.070766e-05
1.115639e+01	-2.094757e-05
1.122083e+01	-2.119025e-05
1.128564e+01	-2.143574e-05
1.135083e+01	-2.168408e-05
1.141639e+01	-2.193530e-05
1.148233e+01	-2.218942e-05
1.154865e+01	-2.244649e-05
1.161536e+01	-2.270654e-05
1.168245e+01	-2.296960e-05
1.174992e+01	-2.323571e-05
1.181779e+01	-2.350490e-05
1.188605e+01	-2.377721e-05
1.195470e+01	-2.405268e-05
1.202375e+01	-2.433133e-05
1.209320e+01	-2.461322e-05
1.216305e+01	-2.489837e-05
1.223330e+01	-2.518682e-05
1.230396e+01	-2.547862e-05
1.237503e+01	-2.577380e-05
1.244651e+01	-2.607239e-05
1.251840e+01	-2.637445e-05
1.259070e+01	-2.668000e-05
1.266343e+01	-2.698909e-05
1.273657e+01	-2.730177e-05
1.281014e+01	-2.761807e-05
1.288413e+01	-2.793803e-05
1.295855e+01	-2.826170e-05
1.303339e+01	-2.858912e-05
1.310867e+01	-2.892033e-05
1.318439e+01	-2.925538e-05
1.326054e+01	-2.959431e-05
1.333713e+01	-2.993717e-05
1.341417e+01	-3.028399e-05
1.349165e+01	-3.063484e-05
1.356958e+01	-3.098975e-05
1.364795e+01	-3.134878e-05
1.372678e+01	-3.171196e-05
1.380607e+01	-3.207935e-05
1.388581e+01	-3.245100e-05
1.396602e+01	-3.282695e-05
1.404668e+01	-3.320726e-05
1.412782e+01	-3.359197e-05
1.420942e+01	-3.398114e-05
1.429149e+01	-3.437482e-05
1.437404e+01	-3.477306e-05
1.445706e+01	-3.517592e-05
1.454057e+01	-3.558344e-05
1.462455e+01	-3.599568e-05
1.470902e+01	-3.641270e-05
1.479398e+01	-3.683455e-05
1.487943e+01	-3.726129e-05
1.496537e+01	-3.769297e-05
1.505181e+01	-3.812965e-05
1.513875e+01	-3.857139e-05
1.522619e+01	-3.901825e-05
1.531414e+01	-3.947028e-05
1.540259e+01	-3.992755e-05
1.549156e+01	-4.039012e-05
1.558103e+01	-4.085805e-05
1.567103e+01	-4.133140e-05
1.576155e+01	-4.181024e-05
1.585258e+01	-4.229462e-05
1.594415e+01	-4.278461e-05
1.603624e+01	-4.328028e-05
1.612886e+01	-4.378169e-05
1.622202e+01	-4.428891e-05
1.631572e+01	-4.480201e-05
1.640996e+01	-4.532105e-05
1.650474e+01	-4.584610e-05
1.660008e+01	-4.637724e-05
1.669596e+01	-4.691453e-05
1.679239e+01	-4.745805e-05
1.688938e+01	-4.800786e-05
1.698694e+01	-4.856404e-05
1.708505e+01	-4.912666e-05
1.718373e+01	-4.969581e-05
1.728299e+01	-5.027154e-05
1.738281e+01	-5.085395e-05
1.748322e+01	-5.144310e-05
1.758420e+01	-5.203908e-05
1.768576e+01	-5.264197e-05
1.778792e+01	-5.325183e-05
1.789066e+01	-5.386877e-05
1.799399e+01	-5.449285e-05
1.809793e+01	-5.512416e-05
1.820246e+01	-5.576278e-05
1.830760e+01	-5.640881e-05
1.841334e+01	-5.706231e-05
1.851969e+01	-5.772339e-05
1.862666e+01	-5.839213e-05
1.873425e+01	-5.906862e-05
1.884246e+01	-5.975294e-05
1.895129e+01	-6.044519e-05
1.906075e+01	-6.114546e-05
1.917085e+01	-6.185384e-05
1.928158e+01	-6.257043e-05
1.939295e+01	-6.329532e-05
1.950496e+01	-6.402861e-05
1.961762e+01	-6.477039e-05
1.973093e+01	-6.552077e-05
1.984490e+01	-6.627984e-05
1.995952e+01	-6.704770e-05
2.007480e+01	-6.782446e-05
2.019076e+01	-6.861022e-05
2.030738e+01	-6.940508e-05
2.042467e+01	-7.020915e-05
2.054264e+01	-7.102254e-05
2.066130e+01	-7.184535e-05
2.078064e+01	-7.267769e-05
2.090066e+01	-7.351968e-05
2.102139e+01	-7.437141e-05
2.114280e+01	-7.523302e-05
2.126492e+01	-7.610461e-05
2.138775e+01	-7.698629e-05
2.151128e+01	-7.787819e-05
2.163553e+01	-7.878043e-05
2.176050e+01	-7.969311e-05
2.188619e+01	-8.061637e-05
2.201260e+01	-8.155032e-05
2.213974e+01	-8.249510e-05
2.226762e+01	-8.345082e-05
2.239624e+01	-8.441761e-05
2.252560e+01	-8.539560e-05
2.265571e+01	-8.638492e-05
2.278656e+01	-8.738571e-05
2.291818e+01	-8.839808e-05
2.305055e+01	-8.942219e-05
2.318369e+01	-9.045816e-05
2.331760e+01	-9.150613e-05
2.345228e+01	-9.256625e-05
2.358774e+01	-9.363864e-05
2.372398e+01	-9.472346e-05
2.386101e+01	-9.582084e-05
2.399883e+01	-9.693094e-05
2.413745e+01	-9.805390e-05
2.427686e+01	-9.918987e-05
2.441709e+01	-1.003390e-04
2.455812e+01	-1.015014e-04
2.469997e+01	-1.026774e-04
2.484263e+01	-1.038669e-04
2.498612e+01	-1.050702e-04
2.513044e+01	-1.062874e-04
2.527559e+01	-1.075188e-04
2.542158e+01	-1.087644e-04
2.556842e+01	-1.100245e-04
2.571610e+01	-1.112991e-04
2.586463e+01	-1.125885e-04
2.601403e+01	-1.138929e-04
2.616428e+01	-1.152124e-04
2.631541e+01	-1.165471e-04
2.646740e+01	-1.178973e-04
2.662028e+01	-1.192632e-04
2.677404e+01	-1.206448e-04
2.692868e+01	-1.220425e-04
2.708422e+01	-1.234564e-04
2.724066e+01	-1.248867e-04
2.739800e+01	-1.263335e-04
2.755625e+01	-1.277971e-04
2.771541e+01	-1.292776e-04
2.787550e+01	-1.307753e-04
2.803650e+01	-1.322904e-04
2.819844e+01	-1.338230e-04
2.836131e+01	-1.353733e-04
2.852513e+01	-1.369416e-04
2.868989e+01	-1.385281e-04
2.885560e+01	-1.401330e-04
2.902227e+01	-1.417564e-04
2.918990e+01	-1.433987e-04
2.935850e+01	-1.450600e-04
2.952807e+01	-1.467405e-04
2.969863e+01	-1.484405e-04
2.987016e+01	-1.501602e-04
3.004269e+01	-1.518998e-04
3.021622e+01	-1.536596e-04
3.039075e+01	-1.554397e-04
3.056628e+01	-1.572405e-04
3.074283e+01	-1.590622e-04
3.092040e+01	-1.609049e-04
3.109900e+01	-1.627690e-04
3.127862e+01	-1.646547e-04
3.145929e+01	-1.665622e-04
3.164099e+01	-1.684918e-04
3.182375e+01	-1.704438e-04
3.200756e+01	-1.724184e-04
3.219244e+01	-1.744159e-04
3.237838e+01	-1.764365e-04
3.256540e+01	-1.784806e-04
3.275349e+01	-1.805483e-04
3.294268e+01	-1.826399e-04
3.313295e+01	-1.847558e-04
3.332433e+01	-1.868962e-04
3.351681e+01	-1.890614e-04
3.371040e+01	-1.912517e-04
3.390511e+01	-1.934673e-04
3.410094e+01	-1.957087e-04
3.429791e+01	-1.979759e-04
3.449601e+01	-2.002695e-04
3.469526e+01	-2.025896e-04
3.489566e+01	-2.049366e-04
3.509721e+01	-2.073108e-04
3.529993e+01	-2.097125e-04
3.550382e+01	-2.121420e-04
3.570889e+01	-2.145997e-04
3.591515e+01	-2.170858e-04
3.612259e+01	-2.196008e-04
3.633123e+01	-2.221448e-04
3.654108e+01	-2.247184e-04
3.675214e+01	-2.273217e-04
3.696442e+01	-2.299553e-04
3.717792e+01	-2.326193e-04
3.739266e+01	-2.353142e-04
3.760864e+01	-2.380403e-04
3.782587e+01	-2.407980e-04
3.804435e+01	-2.435876e-04
3.826409e+01	-2.464095e-04
3.848510e+01	-2.492642e-04
3.870739e+01	-2.521519e-04
3.893096e+01	-2.550731e-04
3.915583e+01	-2.580281e-04
3.938199e+01	-2.610173e-04
3.960946e+01	-2.640412e-04
3.983824e+01	-2.671001e-04
4.006834e+01	-2.701944e-04
4.029978e+01	-2.733246e-04
4.053255e+01	-2.764910e-04
4.076666e+01	-2.796941e-04
4.100213e+01	-2.829344e-04
4.123896e+01	-2.862121e-04
4.147715e+01	-2.895279e-04
4.171672e+01	-2.928820e-04
4.195767e+01	-2.962750e-04
4.220002e+01	-2.997073e-04
4.244377e+01	-3.031794e-04
4.268892e+01	-3.066917e-04
4.293549e+01	-3.102447e-04
4.318348e+01	-3.138388e-04
4.343291e+01	-3.174746e-04
4.368377e+01	-3.211525e-04
4.393609e+01	-3.248730e-04
4.418986e+01	-3.286366e-04
4.444510e+01	-3.324438e-04
4.470182e+01	-3.362951e-04
4.496001e+01	-3.401910e-04
4.521970e+01	-3.441321e-04
4.548089e+01	-3.481188e-04
4.574358e+01	-3.521517e-04
4.600779e+01	-3.562313e-04
4.627353e+01	-3.603581e-04
4.654081e+01	-3.645328e-04
4.680963e+01	-3.687558e-04
4.708000e+01	-3.730278e-04
4.735193e+01	-3.773492e-04
4.762543e+01	-3.817207e-04
4.790051e+01	-3.861429e-04
4.817719e+01	-3.906163e-04
4.845545e+01	-3.951414e-04
4.873533e+01	-3.997191e-04
4.901682e+01	-4.043497e-04
4.929994e+01	-4.090340e-04
4.958470e+01	-4.137725e-04
4.987110e+01	-4.185660e-04
5.015915e+01	-4.234149e-04
5.044887e+01	-4.283201e-04
5.074026e+01	-4.332820e-04
5.103333e+01	-4.383015e-04
5.132810e+01	-4.433791e-04
5.162457e+01	-4.485155e-04
5.192275e+01	-4.537114e-04
5.222265e+01	-4.589675e-04
5.252429e+01	-4.642844e-04
5.282767e+01	-4.696630e-04
5.313280e+01	-4.751039e-04
5.343969e+01	-4.806078e-04
5.374836e+01	-4.861755e-04
5.405880e+01	-4.918076e-04
5.437105e+01	-4.975050e-04
5.468509e+01	-5.032684e-04
5.500095e+01	-5.090986e-04
5.531863e+01	-5.149963e-04
5.563815e+01	-5.209623e-04
5.595951e+01	-5.269974e-04
5.628273e+01	-5.331025e-04
5.660782e+01	-5.392782e-04
5.693479e+01	-5.455255e-04
5.726364e+01	-5.518452e-04
5.759439e+01	-5.582380e-04
5.792705e+01	-5.647050e-04
5.826164e+01	-5.712468e-04
5.859815e+01	-5.778644e-04
5.893662e+01	-5.845587e-04
5.927703e+01	-5.913305e-04
5.961941e+01	-5.981807e-04
5.996377e+01	-6.051103e-04
6.031012e+01	-6.121202e-04
6.065847e+01	-6.192113e-04
6.100883e+01	-6.263845e-04
6.136121e+01	-6.336408e-04
6.171563e+01	-6.409812e-04
6.207210e+01	-6.484066e-04
6.243063e+01	-6.559180e-04
6.279122e+01	-6.635164e-04
6.315390e+01	-6.712028e-04
6.351868e+01	-6.789783e-04
6.388556e+01	-6.868438e-04
6.425456e+01	-6.948004e-04
6.462569e+01	-7.028492e-04
6.499897e+01	-7.109913e-04
6.537440e+01	-7.192276e-04
6.575200e+01	-7.275594e-04
6.613178e+01	-7.359876e-04
6.651375e+01	-7.445135e-04
6.689793e+01	-7.531382e-04
6.728433e+01	-7.618627e-04
6.767297e+01	-7.706883e-04
6.806384e+01	-7.796161e-04
6.845698e+01	-7.886474e-04
6.885238e+01	-7.977832e-04
6.925007e+01	-8.070249e-04
6.965005e+01	-8.163736e-04
7.005235e+01	-8.258307e-04
7.045697e+01	-8.353972e-04
7.086393e+01	-8.450746e-04
7.127323e+01	-8.548640e-04
7.168490e+01	-8.647669e-04
7.209895e+01	-8.747844e-04
7.251539e+01	-8.849180e-04
7.293424e+01	-8.951690e-04
7.335551e+01	-9.055387e-04
7.377920e+01	-9.160285e-04
7.420535e+01	-9.266398e-04
7.463396e+01	-9.373740e-04
7.506504e+01	-9.482326e-04
7.549861e+01	-9.592169e-04
7.593469e+01	-9.703284e-04
7.637328e+01	-9.815687e-04
7.681441e+01	-9.929391e-04
7.725809e+01	-1.004441e-03
7.770433e+01	-1.016077e-03
7.815315e+01	-1.027847e-03
7.860456e+01	-1.039753e-03
7.905857e+01	-1.051798e-03
7.951521e+01	-1.063981e-03
7.997449e+01	-1.076306e-03
8.043642e+01	-1.088774e-03
8.090102e+01	-1.101386e-03
8.136830e+01	-1.114145e-03
8.183828e+01	-1.127051e-03
8.231097e+01	-1.140106e-03
8.278640e+01	-1.153313e-03
8.326457e+01	-1.166672e-03
8.374550e+01	-1.180187e-03
8.422921e+01	-1.193858e-03
8.471572e+01	-1.207687e-03
8.520503e+01	-1.221676e-03
8.569717e+01	-1.235828e-03
8.619215e+01	-1.250143e-03
8.669000e+01	-1.264624e-03
8.719071e+01	-1.279273e-03
8.769432e+01	-1.294092e-03
8.820084e+01	-1.309082e-03
8.871029e+01	-1.324245e-03
8.922267e+01	-1.339585e-03
8.973802e+01	-1.355102e-03
9.025634e+01	-1.370799e-03
9.077766e+01	-1.386677e-03
9.130199e+01	-1.402740e-03
9.182935e+01	-1.418988e-03
9.235975e+01	-1.435425e-03
9.289321e+01	-1.452052e-03
9.342976e+01	-1.468871e-03
9.396941e+01	-1.485886e-03
9.451217e+01	-1.503097e-03
9.505807e+01	-1.520508e-03
9.560712e+01	-1.538120e-03
9.615934e+01	-1.555936e-03
9.671476e+01	-1.573959e-03
9.727338e+01	-1.592190e-03
9.783522e+01	-1.610633e-03
9.840032e+01	-1.629289e-03
9.896867e+01	-1.648161e-03
9.954031e+01	-1.667252e-03
1.001153e+02	-1.686564e-03
1.006935e+02	-1.706099e-03
1.012751e+02	-1.725861e-03
1.018601e+02	-1.745851e-03
1.024484e+02	-1.766074e-03
1.030402e+02	-1.786530e-03
1.036353e+02	-1.807223e-03
1.042339e+02	-1.828156e-03
1.048360e+02	-1.849331e-03
1.054415e+02	-1.870751e-03
1.060505e+02	-1.892420e-03
1.066631e+02	-1.914339e-03
1.072791e+02	-1.936512e-03
1.078988e+02	-1.958942e-03
1.085220e+02	-1.981632e-03
1.091488e+02	-2.004584e-03
1.097793e+02	-2.027802e-03
1.104133e+02	-2.051289e-03
1.110511e+02	-2.075049e-03
1.116925e+02	-2.099083e-03
1.123376e+02	-2.123395e-03
1.129865e+02	-2.147989e-03
1.136391e+02	-2.172868e-03
1.142955e+02	-2.198035e-03
1.149556e+02	-2.223493e-03
1.156196e+02	-2.249246e-03
1.162874e+02	-2.275298e-03
1.169591e+02	-2.301650e-03
1.176347e+02	-2.328309e-03
1.183141e+02	-2.355275e-03
1.189975e+02	-2.382554e-03
1.196848e+02	-2.410149e-03
1.203761e+02	-2.438063e-03
1.210714e+02	-2.466301e-03
1.217707e+02	-2.494866e-03
1.224740e+02	-2.523761e-03
1.231814e+02	-2.552991e-03
1.238929e+02	-2.582559e-03
1.246085e+02	-2.612470e-03
1.253283e+02	-2.642727e-03
1.260522e+02	-2.673334e-03
1.267802e+02	-2.704295e-03
1.275125e+02	-2.735615e-03
1.282490e+02	-2.767298e-03
1.289898e+02	-2.799348e-03
1.297348e+02	-2.831768e-03
1.304842e+02	-2.864564e-03
1.312378e+02	-2.897740e-03
1.319959e+02	-2.931300e-03
1.327583e+02	-2.965248e-03
1.335251e+02	-2.999589e-03
1.342963e+02	-3.034328e-03
1.350720e+02	-3.069469e-03
1.358522e+02	-3.105017e-03
1.366368e+02	-3.140976e-03
1.374260e+02	-3.177352e-03
1.382198e+02	-3.214149e-03
1.390182e+02	-3.251372e-03
1.398211e+02	-3.289025e-03
1.406287e+02	-3.327115e-03
1.414410e+02	-3.365646e-03
1.422579e+02	-3.404622e-03
1.430796e+02	-3.444050e-03
1.439060e+02	-3.483934e-03
1.447372e+02	-3.524280e-03
1.455732e+02	-3.565093e-03
1.464141e+02	-3.606378e-03
1.472597e+02	-3.648142e-03
1.481103e+02	-3.690388e-03
1.489658e+02	-3.733124e-03
1.498262e+02	-3.776354e-03
1.506916e+02	-3.820085e-03
1.515620e+02	-3.864322e-03
1.524374e+02	-3.909071e-03
1.533179e+02	-3.954338e-03
1.542034e+02	-4.000129e-03
1.550941e+02	-4.046450e-03
1.559899e+02	-4.093307e-03
1.568909e+02	-4.140706e-03
1.577971e+02	-4.188654e-03
1.587085e+02	-4.237157e-03
1.596252e+02	-4.286221e-03
1.605472e+02	-4.335853e-03
1.614745e+02	-4.386060e-03
1.624072e+02	-4.436848e-03
1.633453e+02	-4.488223e-03
1.642887e+02	-4.540193e-03
1.652377e+02	-4.592764e-03
1.661921e+02	-4.645944e-03
1.671520e+02	-4.699740e-03
1.681175e+02	-4.754157e-03
1.690885e+02	-4.809205e-03
1.700651e+02	-4.864890e-03
1.710474e+02	-4.921219e-03
1.720354e+02	-4.978199e-03
1.730291e+02	-5.035840e-03
1.740285e+02	-5.094147e-03
1.750337e+02	-5.153129e-03
1.760446e+02	-5.212793e-03
1.770615e+02	-5.273148e-03
1.780842e+02	-5.334201e-03
1.791128e+02	-5.395961e-03
1.801473e+02	-5.458435e-03
1.811878e+02	-5.521632e-03
1.822344e+02	-5.585560e-03
1.832870e+02	-5.650228e-03
1.843456e+02	-5.715644e-03
1.854104e+02	-5.781817e-03
1.864813e+02	-5.848756e-03
1.875584e+02	-5.916469e-03
1.886418e+02	-5.984966e-03
1.897313e+02	-6.054254e-03
1.908272e+02	-6.124345e-03
1.919294e+02	-6.195246e-03
1.930380e+02	-6.266968e-03
1.941530e+02	-6.339519e-03
1.952744e+02	-6.412910e-03
1.964023e+02	-6.487149e-03
1.975367e+02	-6.562248e-03
1.986777e+02	-6.638215e-03
1.998252e+02	-6.715060e-03
2.009794e+02	-6.792795e-03
2.021403e+02	-6.871429e-03
2.033078e+02	-6.950972e-03
2.044821e+02	-7.031436e-03
2.056632e+02	-7.112830e-03
2.068511e+02	-7.195165e-03
2.080459e+02	-7.278453e-03
2.092475e+02	-7.362704e-03
2.104561e+02	-7.447930e-03
2.116717e+02	-7.534141e-03
2.128943e+02	-7.621349e-03
2.141240e+02	-7.709565e-03
2.153608e+02	-7.798802e-03
2.166047e+02	-7.889071e-03
2.178558e+02	-7.980384e-03
2.191141e+02	-8.072752e-03
2.203797e+02	-8.166189e-03
2.216526e+02	-8.260706e-03
2.229329e+02	-8.356316e-03
2.242205e+02	-8.453032e-03
2.255156e+02	-8.550866e-03
2.268182e+02	-8.649831e-03
2.281283e+02	-8.749940e-03
2.294459e+02	-8.851206e-03
2.307712e+02	-8.953644e-03
2.321041e+02	-9.057266e-03
2.334447e+02	-9.162085e-03
2.347931e+02	-9.268117e-03
2.361493e+02	-9.375374e-03
2.375133e+02	-9.483871e-03
2.388851e+02	-9.593622e-03
2.402649e+02	-9.704642e-03
2.416527e+02	-9.816945e-03
2.430484e+02	-9.930547e-03
2.444523e+02	-1.004546e-02
2.458642e+02	-1.016170e-02
2.472843e+02	-1.027929e-02
2.487126e+02	-1.039824e-02
2.501492e+02	-1.051855e-02
2.515940e+02	-1.064027e-02
2.530472e+02	-1.076338e-02
2.545088e+02	-1.088792e-02
2.559789e+02	-1.101390e-02
2.574574e+02	-1.114134e-02
2.589444e+02	-1.127024e-02
2.604401e+02	-1.140064e-02
2.619444e+02	-1.153254e-02
2.634574e+02	-1.166597e-02
2.649791e+02	-1.180094e-02
2.665096e+02	-1.193747e-02
2.680489e+02	-1.207557e-02
2.695972e+02	-1.221527e-02
2.711544e+02	-1.235659e-02
2.727205e+02	-1.249954e-02
2.742958e+02	-1.264413e-02
2.758801e+02	-1.279040e-02
2.774736e+02	-1.293836e-02
2.790762e+02	-1.308803e-02
2.806882e+02	-1.323943e-02
2.823094e+02	-1.339257e-02
2.839400e+02	-1.354748e-02
2.855800e+02	-1.370419e-02
2.872295e+02	-1.386270e-02
2.888886e+02	-1.402304e-02
2.905572e+02	-1.418524e-02
2.922354e+02	-1.434930e-02
2.939234e+02	-1.451526e-02
2.956211e+02	-1.468314e-02
2.973286e+02	-1.485296e-02
2.990459e+02	-1.502473e-02
3.007732e+02	-1.519849e-02
3.025104e+02	-1.537426e-02
3.042577e+02	-1.555205e-02
3.060151e+02	-1.573190e-02
3.077826e+02	-1.591382e-02
3.095604e+02	-1.609785e-02
3.113484e+02	-1.628399e-02
3.131467e+02	-1.647229e-02
3.149554e+02	-1.666276e-02
3.167746e+02	-1.685542e-02
3.186043e+02	-1.705031e-02
3.204445e+02	-1.724745e-02
3.222954e+02	-1.744687e-02
3.241570e+02	-1.764858e-02
3.260293e+02	-1.785262e-02
3.279124e+02	-1.805902e-02
3.298064e+02	-1.826779e-02
3.317114e+02	-1.847898e-02
3.336273e+02	-1.869260e-02
3.355544e+02	-1.890869e-02
3.374925e+02	-1.912726e-02
3.394418e+02	-1.934836e-02
3.414024e+02	-1.957201e-02
3.433744e+02	-1.979824e-02
3.453577e+02	-2.002708e-02
3.473525e+02	-2.025855e-02
3.493588e+02	-2.049270e-02
3.513766e+02	-2.072954e-02
3.534062e+02	-2.096912e-02
3.554474e+02	-2.121145e-02
3.575005e+02	-2.145658e-02
3.595654e+02	-2.170454e-02
3.616422e+02	-2.195535e-02
3.637311e+02	-2.220906e-02
3.658320e+02	-2.246569e-02
3.679450e+02	-2.272528e-02
3.700702e+02	-2.298786e-02
3.722077e+02	-2.325346e-02
3.743576e+02	-2.352213e-02
3.765199e+02	-2.379389e-02
3.786946e+02	-2.406878e-02
3.808820e+02	-2.434684e-02
3.830819e+02	-2.462810e-02
3.852946e+02	-2.491260e-02
3.875200e+02	-2.520038e-02
3.897583e+02	-2.549147e-02
3.920096e+02	-2.578592e-02
3.942738e+02	-2.608375e-02
3.965511e+02	-2.638502e-02
3.988416e+02	-2.668976e-02
4.011452e+02	-2.699800e-02
4.034622e+02	-2.730979e-02
4.057926e+02	-2.762517e-02
4.081365e+02	-2.794418e-02
4.104938e+02	-2.826687e-02
4.128648e+02	-2.859326e-02
4.152495e+02	-2.892342e-02
4.176480e+02	-2.925737e-02
4.200603e+02	-2.959517e-02
4.224866e+02	-2.993685e-02
4.249268e+02	-3.028246e-02
4.273812e+02	-3.063205e-02
4.298497e+02	-3.098566e-02
4.323325e+02	-3.134334e-02
4.348297e+02	-3.170513e-02
4.373412e+02	-3.207108e-02
4.398673e+02	-3.244124e-02
4.424079e+02	-3.281566e-02
4.449633e+02	-3.319438e-02
4.475334e+02	-3.357745e-02
4.501183e+02	-3.396493e-02
4.527182e+02	-3.435686e-02
4.553330e+02	-3.475330e-02
4.579630e+02	-3.515429e-02
4.606082e+02	-3.555989e-02
4.632687e+02	-3.597015e-02
4.659445e+02	-3.638512e-02
4.686358e+02	-3.680486e-02
4.713426e+02	-3.722942e-02
4.740650e+02	-3.765886e-02
4.768032e+02	-3.809323e-02
4.795572e+02	-3.853258e-02
4.823271e+02	-3.897698e-02
4.851130e+02	-3.942649e-02
4.879150e+02	-3.988115e-02
4.907332e+02	-4.034103e-02
4.935676e+02	-4.080619e-02
4.964185e+02	-4.127669e-02
4.992858e+02	-4.175259e-02
5.021696e+02	-4.223394e-02
5.050701e+02	-4.272082e-02
5.079874e+02	-4.321329e-02
5.109215e+02	-4.371140e-02
5.138726e+02	-4.421522e-02
5.168407e+02	-4.472482e-02
5.198259e+02	-4.524027e-02
5.228284e+02	-4.576162e-02
5.258482e+02	-4.628895e-02
5.288855e+02	-4.682232e-02
5.319403e+02	-4.736180e-02
5.350128e+02	-4.790747e-02
5.381030e+02	-4.845939e-02
5.412111e+02	-4.901763e-02
5.443371e+02	-4.958226e-02
5.474812e+02	-5.015336e-02
5.506434e+02	-5.073100e-02
5.538239e+02	-5.131525e-02
5.570228e+02	-5.190619e-02
5.602401e+02	-5.250390e-02
5.634760e+02	-5.310844e-02
5.667306e+02	-5.371991e-02
5.700040e+02	-5.433837e-02
5.732964e+02	-5.496390e-02
5.766077e+02	-5.559659e-02
5.799382e+02	-5.623651e-02
5.832879e+02	-5.688376e-02
5.866569e+02	-5.753840e-02
5.900454e+02	-5.820052e-02
5.934535e+02	-5.887021e-02
5.968813e+02	-5.954756e-02
6.003288e+02	-6.023264e-02
6.037963e+02	-6.092555e-02
6.072838e+02	-6.162638e-02
6.107914e+02	-6.233520e-02
6.143194e+02	-6.305213e-02
6.178676e+02	-6.377723e-02
6.214364e+02	-6.451062e-02
6.250258e+02	-6.525237e-02
6.286359e+02	-6.600258e-02
6.322669e+02	-6.676136e-02
6.359189e+02	-6.752879e-02
6.395919e+02	-6.830497e-02
6.432862e+02	-6.909000e-02
6.470017e+02	-6.988399e-02
6.507388e+02	-7.068702e-02
6.544974e+02	-7.149920e-02
6.582778e+02	-7.232064e-02
6.620800e+02	-7.315143e-02
6.659041e+02	-7.399169e-02
6.697504e+02	-7.484152e-02
6.736188e+02	-7.570102e-02
6.775096e+02	-7.657030e-02
6.814229e+02	-7.744948e-02
6.853587e+02	-7.833866e-02
6.893173e+02	-7.923795e-02
6.932988e+02	-8.014748e-02
6.973033e+02	-8.106734e-02
7.013309e+02	-8.199766e-02
