Frequency(Hz)	Magnitude(dB)
1.000000e+01	-1.845934e-05
1.005776e+01	-1.867319e-05
1.011585e+01	-1.888953e-05
1.017428e+01	-1.910837e-05
1.023305e+01	-1.932974e-05
1.029215e+01	-1.955368e-05
1.035160e+01	-1.978022e-05
1.041139e+01	-2.000938e-05
1.047153e+01	-2.024119e-05
1.053201e+01	-2.047569e-05
1.059284e+01	-2.071291e-05
1.065403e+01	-2.095287e-05
1.071556e+01	-2.119561e-05
1.077746e+01	-2.144117e-05
1.083971e+01	-2.168957e-05
1.090232e+01	-2.194085e-05
1.096529e+01	-2.219504e-05
1.102862e+01	-2.245218e-05
1.109232e+01	-2.271229e-05
1.115639e+01	-2.297542e-05
1.122083e+01	-2.324159e-05
1.128564e+01	-2.351085e-05
1.135083e+01	-2.378323e-05
1.141639e+01	-2.405877e-05
1.148233e+01	-2.433749e-05
1.154865e+01	-2.461945e-05
1.161536e+01	-2.490467e-05
1.168245e+01	-2.519320e-05
1.174992e+01	-2.548507e-05
1.181779e+01	-2.578032e-05
1.188605e+01	-2.607899e-05
1.195470e+01	-2.638112e-05
1.202375e+01	-2.668675e-05
1.209320e+01	-2.699593e-05
1.216305e+01	-2.730868e-05
1.223330e+01	-2.762506e-05
1.230396e+01	-2.794510e-05
1.237503e+01	-2.826885e-05
1.244651e+01	-2.859635e-05
1.251840e+01	-2.892765e-05
1.259070e+01	-2.926278e-05
1.266343e+01	-2.960180e-05
1.273657e+01	-2.994474e-05
1.281014e+01	-3.029166e-05
1.288413e+01	-3.064260e-05
1.295855e+01	-3.099760e-05
1.303339e+01	-3.135671e-05
1.310867e+01	-3.171999e-05
1.318439e+01	-3.208747e-05
1.326054e+01	-3.245921e-05
1.333713e+01	-3.283526e-05
1.341417e+01	-3.321566e-05
1.349165e+01	-3.360048e-05
1.356958e+01	-3.398975e-05
1.364795e+01	-3.438352e-05
1.372678e+01	-3.478187e-05
1.380607e+01	-3.518482e-05
1.388581e+01	-3.559245e-05
1.396602e+01	-3.600479e-05
1.404668e+01	-3.642192e-05
1.412782e+01	-3.684387e-05
1.420942e+01	-3.727072e-05
1.429149e+01	-3.770251e-05
1.437404e+01	-3.813930e-05
1.445706e+01	-3.858115e-05
1.454057e+01	-3.902812e-05
1.462455e+01	-3.948027e-05
1.470902e+01	-3.993766e-05
1.479398e+01	-4.040035e-05
1.487943e+01	-4.086840e-05
1.496537e+01	-4.134187e-05
1.505181e+01	-4.182082e-05
1.513875e+01	-4.230532e-05
1.522619e+01	-4.279544e-05
1.531414e+01	-4.329123e-05
1.540259e+01	-4.379277e-05
1.549156e+01	-4.430012e-05
1.558103e+01	-4.481335e-05
1.567103e+01	-4.533252e-05
1.576155e+01	-4.585771e-05
1.585258e+01	-4.638898e-05
1.594415e+01	-4.692641e-05
1.603624e+01	-4.747006e-05
1.612886e+01	-4.802001e-05
1.622202e+01	-4.857633e-05
1.631572e+01	-4.913910e-05
1.640996e+01	-4.970839e-05
1.650474e+01	-5.028427e-05
1.660008e+01	-5.086682e-05
1.669596e+01	-5.145613e-05
1.679239e+01	-5.205226e-05
1.688938e+01	-5.265529e-05
1.698694e+01	-5.326531e-05
1.708505e+01	-5.388240e-05
1.718373e+01	-5.450664e-05
1.728299e+01	-5.513811e-05
1.738281e+01	-5.577690e-05
1.748322e+01	-5.642309e-05
1.758420e+01	-5.707676e-05
1.768576e+01	-5.773801e-05
1.778792e+01	-5.840691e-05
1.789066e+01	-5.908357e-05
1.799399e+01	-5.976806e-05
1.809793e+01	-6.046049e-05
1.820246e+01	-6.116093e-05
1.830760e+01	-6.186950e-05
1.841334e+01	-6.258627e-05
1.851969e+01	-6.331134e-05
1.862666e+01	-6.404481e-05
1.873425e+01	-6.478679e-05
1.884246e+01	-6.553735e-05
1.895129e+01	-6.629662e-05
1.906075e+01	-6.706467e-05
1.917085e+01	-6.784163e-05
1.928158e+01	-6.862759e-05
1.939295e+01	-6.942265e-05
1.950496e+01	-7.022693e-05
1.961762e+01	-7.104052e-05
1.973093e+01	-7.186354e-05
1.984490e+01	-7.269609e-05
1.995952e+01	-7.353829e-05
2.007480e+01	-7.439024e-05
2.019076e+01	-7.525207e-05
2.030738e+01	-7.612387e-05
2.042467e+01	-7.700578e-05
2.054264e+01	-7.789791e-05
2.066130e+01	-7.880037e-05
2.078064e+01	-7.971328e-05
2.090066e+01	-8.063678e-05
2.102139e+01	-8.157097e-05
2.114280e+01	-8.251598e-05
2.126492e+01	-8.347194e-05
2.138775e+01	-8.443898e-05
2.151128e+01	-8.541722e-05
2.163553e+01	-8.640679e-05
2.176050e+01	-8.740783e-05
2.188619e+01	-8.842046e-05
2.201260e+01	-8.944483e-05
2.213974e+01	-9.048106e-05
2.226762e+01	-9.152930e-05
2.239624e+01	-9.258968e-05
2.252560e+01	-9.366234e-05
2.265571e+01	-9.474744e-05
2.278656e+01	-9.584510e-05
2.291818e+01	-9.695548e-05
2.305055e+01	-9.807872e-05
2.318369e+01	-9.921498e-05
2.331760e+01	-1.003644e-04
2.345228e+01	-1.015271e-04
2.358774e+01	-1.027033e-04
2.372398e+01	-1.038932e-04
2.386101e+01	-1.050968e-04
2.399883e+01	-1.063144e-04
2.413745e+01	-1.075460e-04
2.427686e+01	-1.087920e-04
2.441709e+01	-1.100523e-04
2.455812e+01	-1.113273e-04
2.469997e+01	-1.126170e-04
2.484263e+01	-1.139217e-04
2.498612e+01	-1.152415e-04
2.513044e+01	-1.165766e-04
2.527559e+01	-1.179272e-04
2.542158e+01	-1.192934e-04
2.556842e+01	-1.206754e-04
2.571610e+01	-1.220734e-04
2.586463e+01	-1.234877e-04
2.601403e+01	-1.249183e-04
2.616428e+01	-1.263655e-04
2.631541e+01	-1.278294e-04
2.646740e+01	-1.293103e-04
2.662028e+01	-1.308084e-04
2.677404e+01	-1.323238e-04
2.692868e+01	-1.338568e-04
2.708422e+01	-1.354076e-04
2.724066e+01	-1.369763e-04
2.739800e+01	-1.385632e-04
2.755625e+01	-1.401684e-04
2.771541e+01	-1.417923e-04
2.787550e+01	-1.434350e-04
2.803650e+01	-1.450967e-04
2.819844e+01	-1.467776e-04
2.836131e+01	-1.484781e-04
2.852513e+01	-1.501982e-04
2.868989e+01	-1.519383e-04
2.885560e+01	-1.536985e-04
2.902227e+01	-1.554791e-04
2.918990e+01	-1.572803e-04
2.935850e+01	-1.591024e-04
2.952807e+01	-1.609456e-04
2.969863e+01	-1.628102e-04
2.987016e+01	-1.646964e-04
3.004269e+01	-1.666044e-04
3.021622e+01	-1.685345e-04
3.039075e+01	-1.704870e-04
3.056628e+01	-1.724621e-04
3.074283e+01	-1.744601e-04
3.092040e+01	-1.764812e-04
3.109900e+01	-1.785257e-04
3.127862e+01	-1.805940e-04
3.145929e+01	-1.826861e-04
3.164099e+01	-1.848026e-04
3.182375e+01	-1.869435e-04
3.200756e+01	-1.891093e-04
3.219244e+01	-1.913001e-04
3.237838e+01	-1.935163e-04
3.256540e+01	-1.957582e-04
3.275349e+01	-1.980261e-04
3.294268e+01	-2.003202e-04
3.313295e+01	-2.026409e-04
3.332433e+01	-2.049885e-04
3.351681e+01	-2.073633e-04
3.371040e+01	-2.097656e-04
3.390511e+01	-2.121957e-04
3.410094e+01	-2.146540e-04
3.429791e+01	-2.171408e-04
3.449601e+01	-2.196564e-04
3.469526e+01	-2.222011e-04
3.489566e+01	-2.247753e-04
3.509721e+01	-2.273793e-04
3.529993e+01	-2.300135e-04
3.550382e+01	-2.326782e-04
3.570889e+01	-2.353737e-04
3.591515e+01	-2.381005e-04
3.612259e+01	-2.408589e-04
3.633123e+01	-2.436493e-04
3.654108e+01	-2.464719e-04
3.675214e+01	-2.493273e-04
3.696442e+01	-2.522157e-04
3.717792e+01	-2.551376e-04
3.739266e+01	-2.580934e-04
3.760864e+01	-2.610834e-04
3.782587e+01	-2.641080e-04
3.804435e+01	-2.671677e-04
3.826409e+01	-2.702628e-04
3.848510e+01	-2.733938e-04
3.870739e+01	-2.765610e-04
3.893096e+01	-2.797649e-04
3.915583e+01	-2.830060e-04
3.938199e+01	-2.862846e-04
3.960946e+01	-2.896012e-04
3.983824e+01	-2.929562e-04
4.006834e+01	-2.963500e-04
4.029978e+01	-2.997832e-04
4.053255e+01	-3.032561e-04
4.076666e+01	-3.067693e-04
4.100213e+01	-3.103232e-04
4.123896e+01	-3.139183e-04
4.147715e+01	-3.175550e-04
4.171672e+01	-3.212338e-04
4.195767e+01	-3.249552e-04
4.220002e+01	-3.287198e-04
4.244377e+01	-3.325279e-04
4.268892e+01	-3.363802e-04
4.293549e+01	-3.402771e-04
4.318348e+01	-3.442192e-04
4.343291e+01	-3.482069e-04
4.368377e+01	-3.522408e-04
4.393609e+01	-3.563214e-04
4.418986e+01	-3.604494e-04
4.444510e+01	-3.646251e-04
4.470182e+01	-3.688492e-04
4.496001e+01	-3.731222e-04
4.521970e+01	-3.774448e-04
4.548089e+01	-3.818174e-04
4.574358e+01	-3.862406e-04
4.600779e+01	-3.907151e-04
4.627353e+01	-3.952415e-04
4.654081e+01	-3.998203e-04
4.680963e+01	-4.044521e-04
4.708000e+01	-4.091375e-04
4.735193e+01	-4.138773e-04
4.762543e+01	-4.186719e-04
4.790051e+01	-4.235221e-04
4.817719e+01	-4.284285e-04
4.845545e+01	-4.333917e-04
4.873533e+01	-4.384124e-04
4.901682e+01	-4.434913e-04
4.929994e+01	-4.486290e-04
4.958470e+01	-4.538262e-04
4.987110e+01	-4.590836e-04
5.015915e+01	-4.644020e-04
5.044887e+01	-4.697819e-04
5.074026e+01	-4.752242e-04
5.103333e+01	-4.807295e-04
5.132810e+01	-4.862985e-04
5.162457e+01	-4.919321e-04
5.192275e+01	-4.976310e-04
5.222265e+01	-5.033958e-04
5.252429e+01	-5.092275e-04
5.282767e+01	-5.151266e-04
5.313280e+01	-5.210942e-04
5.343969e+01	-5.271308e-04
5.374836e+01	-5.332374e-04
5.405880e+01	-5.394147e-04
5.437105e+01	-5.456636e-04
5.468509e+01	-5.519849e-04
5.500095e+01	-5.583794e-04
5.531863e+01	-5.648479e-04
5.563815e+01	-5.713914e-04
5.595951e+01	-5.780107e-04
5.628273e+01	-5.847066e-04
5.660782e+01	-5.914802e-04
5.693479e+01	-5.983322e-04
5.726364e+01	-6.052635e-04
5.759439e+01	-6.122752e-04
5.792705e+01	-6.193680e-04
5.826164e+01	-6.265431e-04
5.859815e+01	-6.338012e-04
5.893662e+01	-6.411434e-04
5.927703e+01	-6.485707e-04
5.961941e+01	-6.560840e-04
5.996377e+01	-6.636843e-04
6.031012e+01	-6.713727e-04
6.065847e+01	-6.791501e-04
6.100883e+01	-6.870177e-04
6.136121e+01	-6.949763e-04
6.171563e+01	-7.030272e-04
6.207210e+01	-7.111713e-04
6.243063e+01	-7.194097e-04
6.279122e+01	-7.277435e-04
6.315390e+01	-7.361739e-04
6.351868e+01	-7.447020e-04
6.388556e+01	-7.533288e-04
6.425456e+01	-7.620556e-04
6.462569e+01	-7.708834e-04
6.499897e+01	-7.798135e-04
6.537440e+01	-7.888470e-04
6.575200e+01	-7.979852e-04
6.613178e+01	-8.072292e-04
6.651375e+01	-8.165803e-04
6.689793e+01	-8.260397e-04
6.728433e+01	-8.356087e-04
6.767297e+01	-8.452885e-04
6.806384e+01	-8.550805e-04
6.845698e+01	-8.649858e-04
6.885238e+01	-8.750059e-04
6.925007e+01	-8.851420e-04
6.965005e+01	-8.953956e-04
7.005235e+01	-9.057679e-04
7.045697e+01	-9.162604e-04
7.086393e+01	-9.268744e-04
7.127323e+01	-9.376113e-04
7.168490e+01	-9.484726e-04
7.209895e+01	-9.594597e-04
7.251539e+01	-9.705741e-04
7.293424e+01	-9.818172e-04
7.335551e+01	-9.931905e-04
7.377920e+01	-1.004696e-03
7.420535e+01	-1.016334e-03
7.463396e+01	-1.028107e-03
7.506504e+01	-1.040016e-03
7.549861e+01	-1.052064e-03
7.593469e+01	-1.064251e-03
7.637328e+01	-1.076579e-03
7.681441e+01	-1.089050e-03
7.725809e+01	-1.101665e-03
7.770433e+01	-1.114427e-03
7.815315e+01	-1.127336e-03
7.860456e+01	-1.140395e-03
7.905857e+01	-1.153605e-03
7.951521e+01	-1.166968e-03
7.997449e+01	-1.180485e-03
8.043642e+01	-1.194160e-03
8.090102e+01	-1.207993e-03
8.136830e+01	-1.221986e-03
8.183828e+01	-1.236141e-03
8.231097e+01	-1.250460e-03
8.278640e+01	-1.264944e-03
8.326457e+01	-1.279597e-03
8.374550e+01	-1.294419e-03
8.422921e+01	-1.309413e-03
8.471572e+01	-1.324581e-03
8.520503e+01	-1.339924e-03
8.569717e+01	-1.355445e-03
8.619215e+01	-1.371146e-03
8.669000e+01	-1.387028e-03
8.719071e+01	-1.403095e-03
8.769432e+01	-1.419347e-03
8.820084e+01	-1.435788e-03
8.871029e+01	-1.452419e-03
8.922267e+01	-1.469243e-03
8.973802e+01	-1.486262e-03
9.025634e+01	-1.503478e-03
9.077766e+01	-1.520893e-03
9.130199e+01	-1.538509e-03
9.182935e+01	-1.556330e-03
9.235975e+01	-1.574358e-03
9.289321e+01	-1.592594e-03
9.342976e+01	-1.611041e-03
9.396941e+01	-1.629702e-03
9.451217e+01	-1.648579e-03
9.505807e+01	-1.667674e-03
9.560712e+01	-1.686991e-03
9.615934e+01	-1.706531e-03
9.671476e+01	-1.726298e-03
9.727338e+01	-1.746294e-03
9.783522e+01	-1.766521e-03
9.840032e+01	-1.786982e-03
9.896867e+01	-1.807680e-03
9.954031e+01	-1.828619e-03
1.001153e+02	-1.849799e-03
1.006935e+02	-1.871225e-03
1.012751e+02	-1.892899e-03
1.018601e+02	-1.914824e-03
1.024484e+02	-1.937002e-03
1.030402e+02	-1.959438e-03
1.036353e+02	-1.982133e-03
1.042339e+02	-2.005092e-03
1.048360e+02	-2.028316e-03
1.054415e+02	-2.051809e-03
1.060505e+02	-2.075574e-03
1.066631e+02	-2.099614e-03
1.072791e+02	-2.123933e-03
1.078988e+02	-2.148533e-03
1.085220e+02	-2.173418e-03
1.091488e+02	-2.198591e-03
1.097793e+02	-2.224056e-03
1.104133e+02	-2.249816e-03
1.110511e+02	-2.275874e-03
1.116925e+02	-2.302233e-03
1.123376e+02	-2.328898e-03
1.129865e+02	-2.355872e-03
1.136391e+02	-2.383158e-03
1.142955e+02	-2.410759e-03
1.149556e+02	-2.438681e-03
1.156196e+02	-2.466926e-03
1.162874e+02	-2.495497e-03
1.169591e+02	-2.524400e-03
1.176347e+02	-2.553637e-03
1.183141e+02	-2.583213e-03
1.189975e+02	-2.613131e-03
1.196848e+02	-2.643396e-03
1.203761e+02	-2.674011e-03
1.210714e+02	-2.704980e-03
1.217707e+02	-2.736308e-03
1.224740e+02	-2.767999e-03
1.231814e+02	-2.800057e-03
1.238929e+02	-2.832485e-03
1.246085e+02	-2.865290e-03
1.253283e+02	-2.898474e-03
1.260522e+02	-2.932042e-03
1.267802e+02	-2.965999e-03
1.275125e+02	-3.000349e-03
1.282490e+02	-3.035096e-03
1.289898e+02	-3.070246e-03
1.297348e+02	-3.105803e-03
1.304842e+02	-3.141772e-03
1.312378e+02	-3.178157e-03
1.319959e+02	-3.214963e-03
1.327583e+02	-3.252195e-03
1.335251e+02	-3.289858e-03
1.342963e+02	-3.327958e-03
1.350720e+02	-3.366498e-03
1.358522e+02	-3.405484e-03
1.366368e+02	-3.444922e-03
1.374260e+02	-3.484816e-03
1.382198e+02	-3.525172e-03
1.390182e+02	-3.565996e-03
1.398211e+02	-3.607292e-03
1.406287e+02	-3.649065e-03
1.414410e+02	-3.691323e-03
1.422579e+02	-3.734069e-03
1.430796e+02	-3.777311e-03
1.439060e+02	-3.821052e-03
1.447372e+02	-3.865301e-03
1.455732e+02	-3.910061e-03
1.464141e+02	-3.955339e-03
1.472597e+02	-4.001142e-03
1.481103e+02	-4.047474e-03
1.489658e+02	-4.094343e-03
1.498262e+02	-4.141755e-03
1.506916e+02	-4.189715e-03
1.515620e+02	-4.238230e-03
1.524374e+02	-4.287307e-03
1.533179e+02	-4.336952e-03
1.542034e+02	-4.387171e-03
1.550941e+02	-4.437971e-03
1.559899e+02	-4.489360e-03
1.568909e+02	-4.541343e-03
1.577971e+02	-4.593928e-03
1.587085e+02	-4.647121e-03
1.596252e+02	-4.700930e-03
1.605472e+02	-4.755362e-03
1.614745e+02	-4.810423e-03
1.624072e+02	-4.866122e-03
1.633453e+02	-4.922465e-03
1.642887e+02	-4.979460e-03
1.652377e+02	-5.037115e-03
1.661921e+02	-5.095437e-03
1.671520e+02	-5.154434e-03
1.681175e+02	-5.214113e-03
1.690885e+02	-5.274484e-03
1.700651e+02	-5.335552e-03
1.710474e+02	-5.397327e-03
1.720354e+02	-5.459818e-03
1.730291e+02	-5.523031e-03
1.740285e+02	-5.586975e-03
1.750337e+02	-5.651659e-03
1.760446e+02	-5.717092e-03
1.770615e+02	-5.783282e-03
1.780842e+02	-5.850238e-03
1.791128e+02	-5.917968e-03
1.801473e+02	-5.986482e-03
1.811878e+02	-6.055788e-03
1.822344e+02	-6.125896e-03
1.832870e+02	-6.196816e-03
1.843456e+02	-6.268555e-03
1.854104e+02	-6.341125e-03
1.864813e+02	-6.414534e-03
1.875584e+02	-6.488793e-03
1.886418e+02	-6.563910e-03
1.897313e+02	-6.639896e-03
1.908272e+02	-6.716762e-03
1.919294e+02	-6.794516e-03
1.930380e+02	-6.873170e-03
1.941530e+02	-6.952733e-03
1.952744e+02	-7.033217e-03
1.964023e+02	-7.114632e-03
1.975367e+02	-7.196988e-03
1.986777e+02	-7.280297e-03
1.998252e+02	-7.364570e-03
2.009794e+02	-7.449817e-03
2.021403e+02	-7.536050e-03
2.033078e+02	-7.623280e-03
2.044821e+02	-7.711519e-03
2.056632e+02	-7.800778e-03
2.068511e+02	-7.891070e-03
2.080459e+02	-7.982406e-03
2.092475e+02	-8.074798e-03
2.104561e+02	-8.168258e-03
2.116717e+02	-8.262799e-03
2.128943e+02	-8.358434e-03
2.141240e+02	-8.455174e-03
2.153608e+02	-8.553032e-03
2.166047e+02	-8.652022e-03
2.178558e+02	-8.752157e-03
2.191141e+02	-8.853449e-03
2.203797e+02	-8.955913e-03
2.216526e+02	-9.059561e-03
2.229329e+02	-9.164407e-03
2.242205e+02	-9.270465e-03
2.255156e+02	-9.377750e-03
2.268182e+02	-9.486274e-03
2.281283e+02	-9.596053e-03
2.294459e+02	-9.707102e-03
2.307712e+02	-9.819433e-03
2.321041e+02	-9.933064e-03
2.334447e+02	-1.004801e-02
2.347931e+02	-1.016428e-02
2.361493e+02	-1.028190e-02
2.375133e+02	-1.040087e-02
2.388851e+02	-1.052122e-02
2.402649e+02	-1.064296e-02
2.416527e+02	-1.076611e-02
2.430484e+02	-1.089068e-02
2.444523e+02	-1.101669e-02
2.458642e+02	-1.114416e-02
2.472843e+02	-1.127310e-02
2.487126e+02	-1.140353e-02
2.501492e+02	-1.153547e-02
2.515940e+02	-1.166893e-02
2.530472e+02	-1.180393e-02
2.545088e+02	-1.194049e-02
2.559789e+02	-1.207863e-02
2.574574e+02	-1.221837e-02
2.589444e+02	-1.235972e-02
2.604401e+02	-1.250270e-02
2.619444e+02	-1.264734e-02
2.634574e+02	-1.279365e-02
2.649791e+02	-1.294164e-02
2.665096e+02	-1.309135e-02
2.680489e+02	-1.324278e-02
2.695972e+02	-1.339597e-02
2.711544e+02	-1.355092e-02
2.727205e+02	-1.370766e-02
2.742958e+02	-1.386621e-02
2.758801e+02	-1.402660e-02
2.774736e+02	-1.418883e-02
2.790762e+02	-1.435294e-02
2.806882e+02	-1.451895e-02
2.823094e+02	-1.468687e-02
2.839400e+02	-1.485672e-02
2.855800e+02	-1.502854e-02
2.872295e+02	-1.520235e-02
2.888886e+02	-1.537816e-02
2.905572e+02	-1.555600e-02
2.922354e+02	-1.573589e-02
2.939234e+02	-1.591786e-02
2.956211e+02	-1.610193e-02
2.973286e+02	-1.628812e-02
2.990459e+02	-1.647647e-02
3.007732e+02	-1.666698e-02
3.025104e+02	-1.685970e-02
3.042577e+02	-1.705464e-02
3.060151e+02	-1.725183e-02
3.077826e+02	-1.745129e-02
3.095604e+02	-1.765306e-02
3.113484e+02	-1.785715e-02
3.131467e+02	-1.806360e-02
3.149554e+02	-1.827243e-02
3.167746e+02	-1.848367e-02
3.186043e+02	-1.869734e-02
3.204445e+02	-1.891348e-02
3.222954e+02	-1.913212e-02
3.241570e+02	-1.935327e-02
3.260293e+02	-1.957698e-02
3.279124e+02	-1.980326e-02
3.298064e+02	-2.003216e-02
3.317114e+02	-2.026369e-02
3.336273e+02	-2.049790e-02
3.355544e+02	-2.073480e-02
3.374925e+02	-2.097444e-02
3.394418e+02	-2.121684e-02
3.414024e+02	-2.146203e-02
3.433744e+02	-2.171005e-02
3.453577e+02	-2.196093e-02
3.473525e+02	-2.221470e-02
3.493588e+02	-2.247139e-02
3.513766e+02	-2.273105e-02
3.534062e+02	-2.299369e-02
3.554474e+02	-2.325936e-02
3.575005e+02	-2.352810e-02
3.595654e+02	-2.379993e-02
3.616422e+02	-2.407489e-02
3.637311e+02	-2.435302e-02
3.658320e+02	-2.463435e-02
3.679450e+02	-2.491893e-02
3.700702e+02	-2.520678e-02
3.722077e+02	-2.549794e-02
3.743576e+02	-2.579247e-02
3.765199e+02	-2.609038e-02
3.786946e+02	-2.639172e-02
3.808820e+02	-2.669653e-02
3.830819e+02	-2.700485e-02
3.852946e+02	-2.731673e-02
3.875200e+02	-2.763219e-02
3.897583e+02	-2.795128e-02
3.920096e+02	-2.827405e-02
3.942738e+02	-2.860053e-02
3.965511e+02	-2.893076e-02
3.988416e+02	-2.926480e-02
4.011452e+02	-2.960268e-02
4.034622e+02	-2.994445e-02
4.057926e+02	-3.029015e-02
4.081365e+02	-3.063983e-02
4.104938e+02	-3.099353e-02
4.128648e+02	-3.135130e-02
4.152495e+02	-3.171318e-02
4.176480e+02	-3.207923e-02
4.200603e+02	-3.244948e-02
4.224866e+02	-3.282399e-02
4.249268e+02	-3.320281e-02
4.273812e+02	-3.358598e-02
4.298497e+02	-3.397356e-02
4.323325e+02	-3.436559e-02
4.348297e+02	-3.476213e-02
4.373412e+02	-3.516322e-02
4.398673e+02	-3.556893e-02
4.424079e+02	-3.597929e-02
4.449633e+02	-3.639437e-02
4.475334e+02	-3.681421e-02
4.501183e+02	-3.723888e-02
4.527182e+02	-3.766843e-02
4.553330e+02	-3.810291e-02
4.579630e+02	-3.854238e-02
4.606082e+02	-3.898689e-02
4.632687e+02	-3.943651e-02
4.659445e+02	-3.989129e-02
4.686358e+02	-4.035129e-02
4.713426e+02	-4.081657e-02
4.740650e+02	-4.128719e-02
4.768032e+02	-4.176321e-02
4.795572e+02	-4.224469e-02
4.823271e+02	-4.273169e-02
4.851130e+02	-4.322428e-02
4.879150e+02	-4.372252e-02
4.907332e+02	-4.422647e-02
4.935676e+02	-4.473620e-02
4.964185e+02	-4.525178e-02
4.992858e+02	-4.577326e-02
5.021696e+02	-4.630073e-02
5.050701e+02	-4.683424e-02
5.079874e+02	-4.737386e-02
5.109215e+02	-4.791966e-02
5.138726e+02	-4.847172e-02
5.168407e+02	-4.903011e-02
5.198259e+02	-4.959488e-02
5.228284e+02	-5.016613e-02
5.258482e+02	-5.074392e-02
5.288855e+02	-5.132832e-02
5.319403e+02	-5.191941e-02
5.350128e+02	-5.251727e-02
5.381030e+02	-5.312197e-02
5.412111e+02	-5.373359e-02
5.443371e+02	-5.435221e-02
5.474812e+02	-5.497790e-02
5.506434e+02	-5.561075e-02
5.538239e+02	-5.625084e-02
5.570228e+02	-5.689825e-02
5.602401e+02	-5.755306e-02
5.634760e+02	-5.821535e-02
5.667306e+02	-5.888522e-02
5.700040e+02	-5.956274e-02
5.732964e+02	-6.024800e-02
5.766077e+02	-6.094108e-02
5.799382e+02	-6.164209e-02
5.832879e+02	-6.235110e-02
5.866569e+02	-6.306820e-02
5.900454e+02	-6.379350e-02
5.934535e+02	-6.452707e-02
5.968813e+02	-6.526901e-02
6.003288e+02	-6.601942e-02
6.037963e+02	-6.677839e-02
6.072838e+02	-6.754602e-02
6.107914e+02	-6.832240e-02
6.143194e+02	-6.910763e-02
6.178676e+02	-6.990182e-02
6.214364e+02	-7.070506e-02
6.250258e+02	-7.151745e-02
6.286359e+02	-7.233910e-02
6.322669e+02	-7.317011e-02
6.359189e+02	-7.401058e-02
6.395919e+02	-7.486063e-02
6.432862e+02	-7.572035e-02
6.470017e+02	-7.658986e-02
6.507388e+02	-7.746926e-02
6.544974e+02	-7.835867e-02
6.582778e+02	-7.925820e-02
6.620800e+02	-8.016795e-02
6.659041e+02	-8.108806e-02
6.697504e+02	-8.201862e-02
6.736188e+02	-8.295976e-02
6.775096e+02	-8.391159e-02
6.814229e+02	-8.487424e-02
6.853587e+02	-8.584782e-02
6.893173e+02	-8.683246e-02
6.932988e+02	-8.782828e-02
6.973033e+02	-8.883540e-02
7.013309e+02	-8.985395e-02
