Frequency(Hz)	Magnitude(dB)
1.000000e+01	-2.115424e+00
1.005776e+01	-2.134574e+00
1.011585e+01	-2.154102e+00
1.017428e+01	-2.173857e+00
1.023305e+01	-2.193404e+00
1.029215e+01	-2.213239e+00
1.035160e+01	-2.233454e+00
1.041139e+01	-2.253747e+00
1.047153e+01	-2.273943e+00
1.053201e+01	-2.294352e+00
1.059284e+01	-2.314962e+00
1.065403e+01	-2.335867e+00
1.071556e+01	-2.356654e+00
1.077746e+01	-2.377487e+00
1.083971e+01	-2.398827e+00
1.090232e+01	-2.419864e+00
1.096529e+01	-2.441661e+00
1.102862e+01	-2.463147e+00
1.109232e+01	-2.484959e+00
1.115639e+01	-2.506721e+00
1.122083e+01	-2.528735e+00
1.128564e+01	-2.550997e+00
1.135083e+01	-2.573269e+00
1.141639e+01	-2.595533e+00
1.148233e+01	-2.618173e+00
1.154865e+01	-2.641021e+00
1.161536e+01	-2.663824e+00
1.168245e+01	-2.686647e+00
1.174992e+01	-2.709965e+00
1.181779e+01	-2.733159e+00
1.188605e+01	-2.756579e+00
1.195470e+01	-2.780351e+00
1.202375e+01	-2.804281e+00
1.209320e+01	-2.827837e+00
1.216305e+01	-2.851757e+00
1.223330e+01	-2.876017e+00
1.230396e+01	-2.900280e+00
1.237503e+01	-2.924835e+00
1.244651e+01	-2.949419e+00
1.251840e+01	-2.974302e+00
1.259070e+01	-2.999015e+00
1.266343e+01	-3.023804e+00
1.273657e+01	-3.049230e+00
1.281014e+01	-3.074239e+00
1.288413e+01	-3.100068e+00
1.295855e+01	-3.125563e+00
1.303339e+01	-3.151326e+00
1.310867e+01	-3.177136e+00
1.318439e+01	-3.203289e+00
1.326054e+01	-3.229494e+00
1.333713e+01	-3.255838e+00
1.341417e+01	-3.282025e+00
1.349165e+01	-3.308572e+00
1.356958e+01	-3.335355e+00
1.364795e+01	-3.362357e+00
1.372678e+01	-3.389212e+00
1.380607e+01	-3.416333e+00
1.388581e+01	-3.443834e+00
1.396602e+01	-3.471367e+00
1.404668e+01	-3.498877e+00
1.412782e+01	-3.526735e+00
1.420942e+01	-3.554554e+00
1.429149e+01	-3.582402e+00
1.437404e+01	-3.610586e+00
1.445706e+01	-3.638797e+00
1.454057e+01	-3.667374e+00
1.462455e+01	-3.696289e+00
1.470902e+01	-3.724875e+00
1.479398e+01	-3.753785e+00
1.487943e+01	-3.782477e+00
1.496537e+01	-3.811950e+00
1.505181e+01	-3.841372e+00
1.513875e+01	-3.870586e+00
1.522619e+01	-3.900040e+00
1.531414e+01	-3.930050e+00
1.540259e+01	-3.959919e+00
1.549156e+01	-3.989873e+00
1.558103e+01	-4.020030e+00
1.567103e+01	-4.050242e+00
1.576155e+01	-4.080548e+00
1.585258e+01	-4.111050e+00
1.594415e+01	-4.142117e+00
1.603624e+01	-4.172781e+00
1.612886e+01	-4.203699e+00
1.622202e+01	-4.234573e+00
1.631572e+01	-4.265726e+00
1.640996e+01	-4.297448e+00
1.650474e+01	-4.328730e+00
1.660008e+01	-4.360234e+00
1.669596e+01	-4.392130e+00
1.679239e+01	-4.424180e+00
1.688938e+01	-4.456229e+00
1.698694e+01	-4.488026e+00
1.708505e+01	-4.520292e+00
1.718373e+01	-4.553081e+00
1.728299e+01	-4.585453e+00
1.738281e+01	-4.618128e+00
1.748322e+01	-4.651182e+00
1.758420e+01	-4.683958e+00
1.768576e+01	-4.717152e+00
1.778792e+01	-4.749987e+00
1.789066e+01	-4.784025e+00
1.799399e+01	-4.817234e+00
1.809793e+01	-4.850585e+00
1.820246e+01	-4.884734e+00
1.830760e+01	-4.918174e+00
1.841334e+01	-4.952074e+00
1.851969e+01	-4.986285e+00
1.862666e+01	-5.020309e+00
1.873425e+01	-5.054942e+00
1.884246e+01	-5.089236e+00
1.895129e+01	-5.123852e+00
1.906075e+01	-5.158649e+00
1.917085e+01	-5.193188e+00
1.928158e+01	-5.228476e+00
1.939295e+01	-5.263615e+00
1.950496e+01	-5.298965e+00
1.961762e+01	-5.333857e+00
1.973093e+01	-5.369432e+00
1.984490e+01	-5.404687e+00
1.995952e+01	-5.440646e+00
2.007480e+01	-5.476541e+00
2.019076e+01	-5.512069e+00
2.030738e+01	-5.547971e+00
2.042467e+01	-5.584516e+00
2.054264e+01	-5.620538e+00
2.066130e+01	-5.657459e+00
2.078064e+01	-5.693376e+00
2.090066e+01	-5.730134e+00
2.102139e+01	-5.766934e+00
2.114280e+01	-5.803606e+00
2.126492e+01	-5.840788e+00
2.138775e+01	-5.878111e+00
2.151128e+01	-5.915013e+00
2.163553e+01	-5.952558e+00
2.176050e+01	-5.989535e+00
2.188619e+01	-6.026937e+00
2.201260e+01	-6.064933e+00
2.213974e+01	-6.102083e+00
2.226762e+01	-6.140047e+00
2.239624e+01	-6.178003e+00
2.252560e+01	-6.215854e+00
2.265571e+01	-6.254118e+00
2.278656e+01	-6.292529e+00
2.291818e+01	-6.330718e+00
2.305055e+01	-6.368953e+00
2.318369e+01	-6.407553e+00
2.331760e+01	-6.446141e+00
2.345228e+01	-6.485286e+00
2.358774e+01	-6.523562e+00
2.372398e+01	-6.562721e+00
2.386101e+01	-6.602205e+00
2.399883e+01	-6.640799e+00
2.413745e+01	-6.680629e+00
2.427686e+01	-6.719560e+00
2.441709e+01	-6.758637e+00
2.455812e+01	-6.798874e+00
2.469997e+01	-6.837927e+00
2.484263e+01	-6.877929e+00
2.498612e+01	-6.917488e+00
2.513044e+01	-6.957378e+00
2.527559e+01	-6.997853e+00
2.542158e+01	-7.037588e+00
2.556842e+01	-7.077395e+00
2.571610e+01	-7.118035e+00
2.586463e+01	-7.158489e+00
2.601403e+01	-7.198784e+00
2.616428e+01	-7.239486e+00
2.631541e+01	-7.279774e+00
2.646740e+01	-7.320754e+00
2.662028e+01	-7.361431e+00
2.677404e+01	-7.402317e+00
2.692868e+01	-7.443378e+00
2.708422e+01	-7.484344e+00
2.724066e+01	-7.525506e+00
2.739800e+01	-7.567077e+00
2.755625e+01	-7.608028e+00
2.771541e+01	-7.649625e+00
2.787550e+01	-7.690753e+00
2.803650e+01	-7.732362e+00
2.819844e+01	-7.774064e+00
2.836131e+01	-7.815647e+00
2.852513e+01	-7.857775e+00
2.868989e+01	-7.899648e+00
2.885560e+01	-7.941503e+00
2.902227e+01	-7.983734e+00
2.918990e+01	-8.025300e+00
2.935850e+01	-8.067922e+00
2.952807e+01	-8.110080e+00
2.969863e+01	-8.152253e+00
2.987016e+01	-8.194716e+00
3.004269e+01	-8.237262e+00
3.021622e+01	-8.280192e+00
3.039075e+01	-8.322556e+00
3.056628e+01	-8.364973e+00
3.074283e+01	-8.407787e+00
3.092040e+01	-8.450771e+00
3.109900e+01	-8.493490e+00
3.127862e+01	-8.536604e+00
3.145929e+01	-8.579419e+00
3.164099e+01	-8.623339e+00
3.182375e+01	-8.666071e+00
3.200756e+01	-8.709269e+00
3.219244e+01	-8.752227e+00
3.237838e+01	-8.795995e+00
3.256540e+01	-8.839318e+00
3.275349e+01	-8.883367e+00
3.294268e+01	-8.926695e+00
3.313295e+01	-8.969819e+00
3.332433e+01	-9.014121e+00
3.351681e+01	-9.057678e+00
3.371040e+01	-9.101244e+00
3.390511e+01	-9.145899e+00
3.410094e+01	-9.189507e+00
3.429791e+01	-9.233783e+00
3.449601e+01	-9.277436e+00
3.469526e+01	-9.321426e+00
3.489566e+01	-9.366128e+00
3.509721e+01	-9.409825e+00
3.529993e+01	-9.454031e+00
3.550382e+01	-9.498853e+00
3.570889e+01	-9.543127e+00
3.591515e+01	-9.587797e+00
3.612259e+01	-9.632544e+00
3.633123e+01	-9.677416e+00
3.654108e+01	-9.721101e+00
3.675214e+01	-9.766094e+00
3.696442e+01	-9.810778e+00
3.717792e+01	-9.855732e+00
3.739266e+01	-9.900559e+00
3.760864e+01	-9.945963e+00
3.782587e+01	-9.990545e+00
3.804435e+01	-1.003572e+01
3.826409e+01	-1.008088e+01
3.848510e+01	-1.012585e+01
3.870739e+01	-1.017088e+01
3.893096e+01	-1.021651e+01
3.915583e+01	-1.026162e+01
3.938199e+01	-1.030723e+01
3.960946e+01	-1.035216e+01
3.983824e+01	-1.039770e+01
4.006834e+01	-1.044382e+01
4.029978e+01	-1.048917e+01
4.053255e+01	-1.053429e+01
4.076666e+01	-1.058038e+01
4.100213e+01	-1.062589e+01
4.123896e+01	-1.067172e+01
4.147715e+01	-1.071645e+01
4.171672e+01	-1.076300e+01
4.195767e+01	-1.080919e+01
4.220002e+01	-1.085436e+01
4.244377e+01	-1.090102e+01
4.268892e+01	-1.094673e+01
4.293549e+01	-1.099297e+01
4.318348e+01	-1.103921e+01
4.343291e+01	-1.108499e+01
4.368377e+01	-1.113124e+01
4.393609e+01	-1.117707e+01
4.418986e+01	-1.122338e+01
4.444510e+01	-1.127035e+01
4.470182e+01	-1.131580e+01
4.496001e+01	-1.136246e+01
4.521970e+01	-1.140914e+01
4.548089e+01	-1.145541e+01
4.574358e+01	-1.150195e+01
4.600779e+01	-1.154841e+01
4.627353e+01	-1.159465e+01
4.654081e+01	-1.164175e+01
4.680963e+01	-1.168748e+01
4.708000e+01	-1.173435e+01
4.735193e+01	-1.178086e+01
4.762543e+01	-1.182772e+01
4.790051e+01	-1.187474e+01
4.817719e+01	-1.192167e+01
4.845545e+01	-1.196842e+01
4.873533e+01	-1.201491e+01
4.901682e+01	-1.206212e+01
4.929994e+01	-1.210940e+01
4.958470e+01	-1.215633e+01
4.987110e+01	-1.220343e+01
5.015915e+01	-1.225041e+01
5.044887e+01	-1.229775e+01
5.074026e+01	-1.234464e+01
5.103333e+01	-1.239212e+01
5.132810e+01	-1.243842e+01
5.162457e+01	-1.248590e+01
5.192275e+01	-1.253256e+01
5.222265e+01	-1.257981e+01
5.252429e+01	-1.262799e+01
5.282767e+01	-1.267432e+01
5.313280e+01	-1.272227e+01
5.343969e+01	-1.276962e+01
5.374836e+01	-1.281664e+01
5.405880e+01	-1.286480e+01
5.437105e+01	-1.291193e+01
5.468509e+01	-1.295972e+01
5.500095e+01	-1.300751e+01
5.531863e+01	-1.305443e+01
5.563815e+01	-1.310154e+01
5.595951e+01	-1.314970e+01
5.628273e+01	-1.319685e+01
5.660782e+01	-1.324449e+01
5.693479e+01	-1.329215e+01
5.726364e+01	-1.334063e+01
5.759439e+01	-1.338821e+01
5.792705e+01	-1.343658e+01
5.826164e+01	-1.348347e+01
5.859815e+01	-1.353093e+01
5.893662e+01	-1.357945e+01
5.927703e+01	-1.362676e+01
5.961941e+01	-1.367416e+01
5.996377e+01	-1.372297e+01
6.031012e+01	-1.377096e+01
6.065847e+01	-1.381812e+01
6.100883e+01	-1.386737e+01
6.136121e+01	-1.391348e+01
6.171563e+01	-1.396260e+01
6.207210e+01	-1.401091e+01
6.243063e+01	-1.405894e+01
6.279122e+01	-1.410694e+01
6.315390e+01	-1.415496e+01
6.351868e+01	-1.420277e+01
6.388556e+01	-1.425113e+01
6.425456e+01	-1.429996e+01
6.462569e+01	-1.434732e+01
6.499897e+01	-1.439568e+01
6.537440e+01	-1.444334e+01
6.575200e+01	-1.449250e+01
6.613178e+01	-1.453994e+01
6.651375e+01	-1.458874e+01
6.689793e+01	-1.463720e+01
6.728433e+01	-1.468502e+01
6.767297e+01	-1.473295e+01
6.806384e+01	-1.478158e+01
6.845698e+01	-1.483007e+01
6.885238e+01	-1.487861e+01
6.925007e+01	-1.492647e+01
6.965005e+01	-1.497556e+01
7.005235e+01	-1.502302e+01
7.045697e+01	-1.507273e+01
7.086393e+01	-1.512161e+01
7.127323e+01	-1.516807e+01
7.168490e+01	-1.521743e+01
7.209895e+01	-1.526602e+01
7.251539e+01	-1.531541e+01
7.293424e+01	-1.536344e+01
7.335551e+01	-1.541238e+01
7.377920e+01	-1.546065e+01
7.420535e+01	-1.550920e+01
7.463396e+01	-1.555852e+01
7.506504e+01	-1.560653e+01
7.549861e+01	-1.565524e+01
7.593469e+01	-1.570332e+01
7.637328e+01	-1.575361e+01
7.681441e+01	-1.580090e+01
7.725809e+01	-1.585038e+01
7.770433e+01	-1.589856e+01
7.815315e+01	-1.594758e+01
7.860456e+01	-1.599755e+01
7.905857e+01	-1.604460e+01
7.951521e+01	-1.609386e+01
7.997449e+01	-1.614311e+01
8.043642e+01	-1.619139e+01
8.090102e+01	-1.624037e+01
8.136830e+01	-1.628955e+01
8.183828e+01	-1.633900e+01
8.231097e+01	-1.638709e+01
8.278640e+01	-1.643595e+01
8.326457e+01	-1.648441e+01
8.374550e+01	-1.653263e+01
8.422921e+01	-1.658274e+01
8.471572e+01	-1.663126e+01
8.520503e+01	-1.667983e+01
8.569717e+01	-1.672928e+01
8.619215e+01	-1.677751e+01
8.669000e+01	-1.682815e+01
8.719071e+01	-1.687667e+01
8.769432e+01	-1.692546e+01
8.820084e+01	-1.697314e+01
8.871029e+01	-1.702313e+01
8.922267e+01	-1.707021e+01
8.973802e+01	-1.711990e+01
9.025634e+01	-1.717029e+01
9.077766e+01	-1.721907e+01
9.130199e+01	-1.726909e+01
9.182935e+01	-1.731764e+01
9.235975e+01	-1.736718e+01
9.289321e+01	-1.741755e+01
9.342976e+01	-1.746476e+01
9.396941e+01	-1.751405e+01
9.451217e+01	-1.756401e+01
9.505807e+01	-1.761211e+01
9.560712e+01	-1.766113e+01
9.615934e+01	-1.770897e+01
9.671476e+01	-1.775972e+01
9.727338e+01	-1.780988e+01
9.783522e+01	-1.785723e+01
9.840032e+01	-1.790743e+01
9.896867e+01	-1.795696e+01
9.954031e+01	-1.800600e+01
1.001153e+02	-1.805511e+01
1.006935e+02	-1.810437e+01
1.012751e+02	-1.815453e+01
1.018601e+02	-1.820256e+01
1.024484e+02	-1.825270e+01
1.030402e+02	-1.830263e+01
1.036353e+02	-1.835125e+01
1.042339e+02	-1.839974e+01
1.048360e+02	-1.844959e+01
1.054415e+02	-1.849836e+01
1.060505e+02	-1.854764e+01
1.066631e+02	-1.859915e+01
1.072791e+02	-1.864560e+01
1.078988e+02	-1.869623e+01
1.085220e+02	-1.874498e+01
1.091488e+02	-1.879601e+01
1.097793e+02	-1.884503e+01
1.104133e+02	-1.889347e+01
1.110511e+02	-1.894393e+01
1.116925e+02	-1.899421e+01
1.123376e+02	-1.904278e+01
1.129865e+02	-1.909173e+01
1.136391e+02	-1.913985e+01
1.142955e+02	-1.918964e+01
1.149556e+02	-1.924024e+01
1.156196e+02	-1.928959e+01
1.162874e+02	-1.933788e+01
1.169591e+02	-1.938860e+01
1.176347e+02	-1.943898e+01
1.183141e+02	-1.948792e+01
1.189975e+02	-1.953679e+01
1.196848e+02	-1.958554e+01
1.203761e+02	-1.963530e+01
1.210714e+02	-1.968384e+01
1.217707e+02	-1.973376e+01
1.224740e+02	-1.978343e+01
1.231814e+02	-1.983466e+01
1.238929e+02	-1.988415e+01
1.246085e+02	-1.993227e+01
1.253283e+02	-1.998186e+01
1.260522e+02	-2.003265e+01
1.267802e+02	-2.008004e+01
1.275125e+02	-2.012922e+01
1.282490e+02	-2.018091e+01
1.289898e+02	-2.023046e+01
1.297348e+02	-2.027930e+01
1.304842e+02	-2.032881e+01
1.312378e+02	-2.037905e+01
1.319959e+02	-2.043015e+01
1.327583e+02	-2.047943e+01
1.335251e+02	-2.052902e+01
1.342963e+02	-2.057838e+01
1.350720e+02	-2.062621e+01
1.358522e+02	-2.067585e+01
1.366368e+02	-2.072614e+01
1.374260e+02	-2.077562e+01
1.382198e+02	-2.082635e+01
1.390182e+02	-2.087503e+01
1.398211e+02	-2.092464e+01
1.406287e+02	-2.097426e+01
1.414410e+02	-2.102288e+01
1.422579e+02	-2.107317e+01
1.430796e+02	-2.112427e+01
1.439060e+02	-2.117151e+01
1.447372e+02	-2.122254e+01
1.455732e+02	-2.127160e+01
1.464141e+02	-2.132165e+01
1.472597e+02	-2.136961e+01
1.481103e+02	-2.142175e+01
1.489658e+02	-2.147211e+01
1.498262e+02	-2.151996e+01
1.506916e+02	-2.157072e+01
1.515620e+02	-2.161880e+01
1.524374e+02	-2.167091e+01
1.533179e+02	-2.172022e+01
1.542034e+02	-2.176789e+01
1.550941e+02	-2.181812e+01
1.559899e+02	-2.186538e+01
1.568909e+02	-2.191804e+01
1.577971e+02	-2.196653e+01
1.587085e+02	-2.201860e+01
1.596252e+02	-2.206568e+01
1.605472e+02	-2.211655e+01
1.614745e+02	-2.216640e+01
1.624072e+02	-2.221637e+01
1.633453e+02	-2.226572e+01
1.642887e+02	-2.231615e+01
1.652377e+02	-2.236502e+01
1.661921e+02	-2.241509e+01
1.671520e+02	-2.246476e+01
1.681175e+02	-2.251688e+01
1.690885e+02	-2.256616e+01
1.700651e+02	-2.261458e+01
1.710474e+02	-2.266452e+01
1.720354e+02	-2.271445e+01
1.730291e+02	-2.276711e+01
1.740285e+02	-2.281392e+01
1.750337e+02	-2.286187e+01
1.760446e+02	-2.291530e+01
1.770615e+02	-2.296208e+01
1.780842e+02	-2.301287e+01
1.791128e+02	-2.306239e+01
1.801473e+02	-2.311385e+01
1.811878e+02	-2.316193e+01
1.822344e+02	-2.320965e+01
1.832870e+02	-2.326228e+01
1.843456e+02	-2.331159e+01
1.854104e+02	-2.336047e+01
1.864813e+02	-2.341190e+01
1.875584e+02	-2.346169e+01
1.886418e+02	-2.351095e+01
1.897313e+02	-2.356129e+01
1.908272e+02	-2.360876e+01
1.919294e+02	-2.366240e+01
1.930380e+02	-2.371158e+01
1.941530e+02	-2.375744e+01
1.952744e+02	-2.380904e+01
1.964023e+02	-2.385770e+01
1.975367e+02	-2.391035e+01
1.986777e+02	-2.395948e+01
1.998252e+02	-2.400840e+01
2.009794e+02	-2.405701e+01
2.021403e+02	-2.410772e+01
2.033078e+02	-2.415913e+01
2.044821e+02	-2.421064e+01
2.056632e+02	-2.425998e+01
2.068511e+02	-2.430752e+01
2.080459e+02	-2.435990e+01
2.092475e+02	-2.440452e+01
2.104561e+02	-2.445672e+01
2.116717e+02	-2.450986e+01
2.128943e+02	-2.455712e+01
2.141240e+02	-2.460749e+01
2.153608e+02	-2.465864e+01
2.166047e+02	-2.470879e+01
2.178558e+02	-2.475869e+01
2.191141e+02	-2.480530e+01
2.203797e+02	-2.485662e+01
2.216526e+02	-2.490729e+01
2.229329e+02	-2.495635e+01
2.242205e+02	-2.500753e+01
2.255156e+02	-2.505822e+01
2.268182e+02	-2.510595e+01
2.281283e+02	-2.515572e+01
2.294459e+02	-2.520655e+01
2.307712e+02	-2.525696e+01
2.321041e+02	-2.530650e+01
2.334447e+02	-2.535526e+01
2.347931e+02	-2.540679e+01
2.361493e+02	-2.545262e+01
2.375133e+02	-2.550373e+01
2.388851e+02	-2.555462e+01
2.402649e+02	-2.560467e+01
2.416527e+02	-2.565224e+01
2.430484e+02	-2.570845e+01
2.444523e+02	-2.575683e+01
2.458642e+02	-2.580371e+01
2.472843e+02	-2.585371e+01
2.487126e+02	-2.590269e+01
2.501492e+02	-2.595656e+01
2.515940e+02	-2.600095e+01
2.530472e+02	-2.605444e+01
2.545088e+02	-2.610825e+01
2.559789e+02	-2.615744e+01
2.574574e+02	-2.620599e+01
2.589444e+02	-2.625615e+01
2.604401e+02	-2.630476e+01
2.619444e+02	-2.635456e+01
2.634574e+02	-2.640200e+01
2.649791e+02	-2.645487e+01
2.665096e+02	-2.650442e+01
2.680489e+02	-2.655408e+01
2.695972e+02	-2.660963e+01
2.711544e+02	-2.665326e+01
2.727205e+02	-2.670568e+01
2.742958e+02	-2.675313e+01
2.758801e+02	-2.680320e+01
2.774736e+02	-2.685256e+01
2.790762e+02	-2.690271e+01
2.806882e+02	-2.695709e+01
2.823094e+02	-2.700565e+01
2.839400e+02	-2.705341e+01
2.855800e+02	-2.710566e+01
2.872295e+02	-2.715147e+01
2.888886e+02	-2.720313e+01
2.905572e+02	-2.725381e+01
2.922354e+02	-2.730076e+01
2.939234e+02	-2.735798e+01
2.956211e+02	-2.740688e+01
2.973286e+02	-2.745180e+01
2.990459e+02	-2.750104e+01
3.007732e+02	-2.755578e+01
3.025104e+02	-2.760418e+01
3.042577e+02	-2.765461e+01
3.060151e+02	-2.770235e+01
3.077826e+02	-2.775293e+01
3.095604e+02	-2.780525e+01
3.113484e+02	-2.785387e+01
3.131467e+02	-2.790595e+01
3.149554e+02	-2.795794e+01
3.167746e+02	-2.800858e+01
3.186043e+02	-2.805412e+01
3.204445e+02	-2.810629e+01
3.222954e+02	-2.815667e+01
3.241570e+02	-2.820500e+01
3.260293e+02	-2.825348e+01
3.279124e+02	-2.830627e+01
3.298064e+02	-2.835654e+01
3.317114e+02	-2.840241e+01
3.336273e+02	-2.845168e+01
3.355544e+02	-2.850393e+01
3.374925e+02	-2.855751e+01
3.394418e+02	-2.860717e+01
3.414024e+02	-2.865686e+01
3.433744e+02	-2.870600e+01
3.453577e+02	-2.875935e+01
3.473525e+02	-2.880272e+01
3.493588e+02	-2.885488e+01
3.513766e+02	-2.890582e+01
3.534062e+02	-2.895605e+01
3.554474e+02	-2.900336e+01
3.575005e+02	-2.905293e+01
3.595654e+02	-2.910577e+01
3.616422e+02	-2.915302e+01
3.637311e+02	-2.920505e+01
3.658320e+02	-2.925605e+01
3.679450e+02	-2.930815e+01
3.700702e+02	-2.935197e+01
3.722077e+02	-2.940620e+01
3.743576e+02	-2.945351e+01
3.765199e+02	-2.950521e+01
3.786946e+02	-2.955520e+01
3.808820e+02	-2.960516e+01
3.830819e+02	-2.965611e+01
3.852946e+02	-2.970517e+01
3.875200e+02	-2.975827e+01
3.897583e+02	-2.981324e+01
3.920096e+02	-2.985305e+01
3.942738e+02	-2.990735e+01
3.965511e+02	-2.995970e+01
3.988416e+02	-3.000885e+01
4.011452e+02	-3.005337e+01
4.034622e+02	-3.010596e+01
4.057926e+02	-3.015678e+01
4.081365e+02	-3.020773e+01
4.104938e+02	-3.026048e+01
4.128648e+02	-3.030713e+01
4.152495e+02	-3.035896e+01
4.176480e+02	-3.040705e+01
4.200603e+02	-3.045727e+01
4.224866e+02	-3.050925e+01
4.249268e+02	-3.055777e+01
4.273812e+02	-3.061085e+01
4.298497e+02	-3.065552e+01
4.323325e+02	-3.070767e+01
4.348297e+02	-3.076034e+01
4.373412e+02	-3.080506e+01
4.398673e+02	-3.086049e+01
4.424079e+02	-3.090911e+01
4.449633e+02	-3.095450e+01
4.475334e+02	-3.100846e+01
4.501183e+02	-3.105630e+01
4.527182e+02	-3.110546e+01
4.553330e+02	-3.116681e+01
4.579630e+02	-3.120742e+01
4.606082e+02	-3.125951e+01
4.632687e+02	-3.131749e+01
4.659445e+02	-3.135974e+01
4.686358e+02	-3.140828e+01
4.713426e+02	-3.145641e+01
4.740650e+02	-3.151619e+01
4.768032e+02	-3.156069e+01
4.795572e+02	-3.160946e+01
4.823271e+02	-3.165707e+01
4.851130e+02	-3.170434e+01
4.879150e+02	-3.175905e+01
4.907332e+02	-3.181428e+01
4.935676e+02	-3.185846e+01
4.964185e+02	-3.191066e+01
4.992858e+02	-3.196518e+01
5.021696e+02	-3.201668e+01
5.050701e+02	-3.206863e+01
5.079874e+02	-3.211231e+01
5.109215e+02	-3.215962e+01
5.138726e+02	-3.221413e+01
5.168407e+02	-3.226288e+01
5.198259e+02	-3.231104e+01
5.228284e+02	-3.236569e+01
5.258482e+02	-3.241101e+01
5.288855e+02	-3.246234e+01
5.319403e+02	-3.251072e+01
5.350128e+02	-3.256722e+01
5.381030e+02	-3.260863e+01
5.412111e+02	-3.267001e+01
5.443371e+02	-3.271073e+01
5.474812e+02	-3.276734e+01
5.506434e+02	-3.281340e+01
5.538239e+02	-3.286604e+01
5.570228e+02	-3.292287e+01
5.602401e+02	-3.296146e+01
5.634760e+02	-3.301988e+01
5.667306e+02	-3.306812e+01
5.700040e+02	-3.312032e+01
5.732964e+02	-3.317693e+01
5.766077e+02	-3.321411e+01
5.799382e+02	-3.326785e+01
5.832879e+02	-3.332430e+01
5.866569e+02	-3.336100e+01
5.900454e+02	-3.342754e+01
5.934535e+02	-3.347088e+01
5.968813e+02	-3.352286e+01
6.003288e+02	-3.356941e+01
6.037963e+02	-3.361826e+01
6.072838e+02	-3.366259e+01
6.107914e+02	-3.371529e+01
6.143194e+02	-3.376504e+01
6.178676e+02	-3.381931e+01
6.214364e+02	-3.387353e+01
6.250258e+02	-3.392191e+01
6.286359e+02	-3.397204e+01
6.322669e+02	-3.402253e+01
6.359189e+02	-3.407333e+01
6.395919e+02	-3.412530e+01
6.432862e+02	-3.416734e+01
6.470017e+02	-3.422958e+01
6.507388e+02	-3.426625e+01
6.544974e+02	-3.432434e+01
6.582778e+02	-3.438093e+01
6.620800e+02	-3.441593e+01
6.659041e+02	-3.447224e+01
6.697504e+02	-3.451990e+01
6.736188e+02	-3.457592e+01
6.775096e+02	-3.462524e+01
6.814229e+02	-3.467903e+01
6.853587e+02	-3.471979e+01
6.893173e+02	-3.477937e+01
6.932988e+02	-3.483511e+01
6.973033e+02	-3.487509e+01
7.013309e+02	-3.492162e+01
