Frequency(Hz)	Magnitude(dB)
1.000000e+01	-2.212825e+00
1.005776e+01	-2.232659e+00
1.011585e+01	-2.252807e+00
1.017428e+01	-2.273376e+00
1.023305e+01	-2.293424e+00
1.029215e+01	-2.314290e+00
1.035160e+01	-2.334887e+00
1.041139e+01	-2.356058e+00
1.047153e+01	-2.376908e+00
1.053201e+01	-2.397979e+00
1.059284e+01	-2.419512e+00
1.065403e+01	-2.440800e+00
1.071556e+01	-2.462434e+00
1.077746e+01	-2.484229e+00
1.083971e+01	-2.505813e+00
1.090232e+01	-2.528148e+00
1.096529e+01	-2.550183e+00
1.102862e+01	-2.572426e+00
1.109232e+01	-2.594933e+00
1.115639e+01	-2.617556e+00
1.122083e+01	-2.640336e+00
1.128564e+01	-2.663028e+00
1.135083e+01	-2.685933e+00
1.141639e+01	-2.709285e+00
1.148233e+01	-2.732330e+00
1.154865e+01	-2.756003e+00
1.161536e+01	-2.779449e+00
1.168245e+01	-2.802999e+00
1.174992e+01	-2.827129e+00
1.181779e+01	-2.850973e+00
1.188605e+01	-2.875066e+00
1.195470e+01	-2.899534e+00
1.202375e+01	-2.923760e+00
1.209320e+01	-2.948571e+00
1.216305e+01	-2.973325e+00
1.223330e+01	-2.998021e+00
1.230396e+01	-3.022961e+00
1.237503e+01	-3.048152e+00
1.244651e+01	-3.073464e+00
1.251840e+01	-3.098977e+00
1.259070e+01	-3.124657e+00
1.266343e+01	-3.150493e+00
1.273657e+01	-3.176102e+00
1.281014e+01	-3.202142e+00
1.288413e+01	-3.228203e+00
1.295855e+01	-3.254597e+00
1.303339e+01	-3.281092e+00
1.310867e+01	-3.307888e+00
1.318439e+01	-3.334465e+00
1.326054e+01	-3.361316e+00
1.333713e+01	-3.388494e+00
1.341417e+01	-3.415734e+00
1.349165e+01	-3.442841e+00
1.356958e+01	-3.470365e+00
1.364795e+01	-3.497920e+00
1.372678e+01	-3.525764e+00
1.380607e+01	-3.553706e+00
1.388581e+01	-3.581456e+00
1.396602e+01	-3.609837e+00
1.404668e+01	-3.637853e+00
1.412782e+01	-3.666612e+00
1.420942e+01	-3.694884e+00
1.429149e+01	-3.723655e+00
1.437404e+01	-3.752768e+00
1.445706e+01	-3.781764e+00
1.454057e+01	-3.810892e+00
1.462455e+01	-3.840035e+00
1.470902e+01	-3.869456e+00
1.479398e+01	-3.899379e+00
1.487943e+01	-3.928934e+00
1.496537e+01	-3.958604e+00
1.505181e+01	-3.988887e+00
1.513875e+01	-4.018809e+00
1.522619e+01	-4.049070e+00
1.531414e+01	-4.079399e+00
1.540259e+01	-4.109829e+00
1.549156e+01	-4.140799e+00
1.558103e+01	-4.172001e+00
1.567103e+01	-4.202434e+00
1.576155e+01	-4.233715e+00
1.585258e+01	-4.264740e+00
1.594415e+01	-4.296146e+00
1.603624e+01	-4.327333e+00
1.612886e+01	-4.359221e+00
1.622202e+01	-4.391077e+00
1.631572e+01	-4.422790e+00
1.640996e+01	-4.455146e+00
1.650474e+01	-4.487154e+00
1.660008e+01	-4.519516e+00
1.669596e+01	-4.551954e+00
1.679239e+01	-4.584315e+00
1.688938e+01	-4.616998e+00
1.698694e+01	-4.649865e+00
1.708505e+01	-4.682824e+00
1.718373e+01	-4.716127e+00
1.728299e+01	-4.748953e+00
1.738281e+01	-4.782447e+00
1.748322e+01	-4.816207e+00
1.758420e+01	-4.849429e+00
1.768576e+01	-4.883222e+00
1.778792e+01	-4.917087e+00
1.789066e+01	-4.950901e+00
1.799399e+01	-4.984914e+00
1.809793e+01	-5.019414e+00
1.820246e+01	-5.053707e+00
1.830760e+01	-5.088133e+00
1.841334e+01	-5.122733e+00
1.851969e+01	-5.157182e+00
1.862666e+01	-5.191854e+00
1.873425e+01	-5.227108e+00
1.884246e+01	-5.262361e+00
1.895129e+01	-5.297258e+00
1.906075e+01	-5.332987e+00
1.917085e+01	-5.368320e+00
1.928158e+01	-5.403504e+00
1.939295e+01	-5.439294e+00
1.950496e+01	-5.475102e+00
1.961762e+01	-5.511144e+00
1.973093e+01	-5.547079e+00
1.984490e+01	-5.583272e+00
1.995952e+01	-5.619399e+00
2.007480e+01	-5.655740e+00
2.019076e+01	-5.692222e+00
2.030738e+01	-5.729090e+00
2.042467e+01	-5.765608e+00
2.054264e+01	-5.802415e+00
2.066130e+01	-5.839341e+00
2.078064e+01	-5.876413e+00
2.090066e+01	-5.913512e+00
2.102139e+01	-5.950729e+00
2.114280e+01	-5.988320e+00
2.126492e+01	-6.025515e+00
2.138775e+01	-6.063142e+00
2.151128e+01	-6.100995e+00
2.163553e+01	-6.138917e+00
2.176050e+01	-6.176698e+00
2.188619e+01	-6.214817e+00
2.201260e+01	-6.252849e+00
2.213974e+01	-6.290792e+00
2.226762e+01	-6.329585e+00
2.239624e+01	-6.367815e+00
2.252560e+01	-6.406346e+00
2.265571e+01	-6.444969e+00
2.278656e+01	-6.483666e+00
2.291818e+01	-6.522494e+00
2.305055e+01	-6.561703e+00
2.318369e+01	-6.600737e+00
2.331760e+01	-6.639385e+00
2.345228e+01	-6.678277e+00
2.358774e+01	-6.717857e+00
2.372398e+01	-6.757697e+00
2.386101e+01	-6.797173e+00
2.399883e+01	-6.836941e+00
2.413745e+01	-6.876159e+00
2.427686e+01	-6.916212e+00
2.441709e+01	-6.956270e+00
2.455812e+01	-6.995810e+00
2.469997e+01	-7.036399e+00
2.484263e+01	-7.076670e+00
2.498612e+01	-7.116578e+00
2.513044e+01	-7.157212e+00
2.527559e+01	-7.197511e+00
2.542158e+01	-7.237653e+00
2.556842e+01	-7.278697e+00
2.571610e+01	-7.319035e+00
2.586463e+01	-7.360153e+00
2.601403e+01	-7.401189e+00
2.616428e+01	-7.442068e+00
2.631541e+01	-7.482934e+00
2.646740e+01	-7.524089e+00
2.662028e+01	-7.565362e+00
2.677404e+01	-7.606627e+00
2.692868e+01	-7.647922e+00
2.708422e+01	-7.689522e+00
2.724066e+01	-7.730606e+00
2.739800e+01	-7.772787e+00
2.755625e+01	-7.814443e+00
2.771541e+01	-7.856602e+00
2.787550e+01	-7.897722e+00
2.803650e+01	-7.940130e+00
2.819844e+01	-7.981861e+00
2.836131e+01	-8.024091e+00
2.852513e+01	-8.066577e+00
2.868989e+01	-8.108553e+00
2.885560e+01	-8.150682e+00
2.902227e+01	-8.193269e+00
2.918990e+01	-8.235914e+00
2.935850e+01	-8.278134e+00
2.952807e+01	-8.321142e+00
2.969863e+01	-8.363514e+00
2.987016e+01	-8.406145e+00
3.004269e+01	-8.449471e+00
3.021622e+01	-8.492454e+00
3.039075e+01	-8.535147e+00
3.056628e+01	-8.578290e+00
3.074283e+01	-8.621187e+00
3.092040e+01	-8.664416e+00
3.109900e+01	-8.708029e+00
3.127862e+01	-8.750991e+00
3.145929e+01	-8.794410e+00
3.164099e+01	-8.837968e+00
3.182375e+01	-8.881427e+00
3.200756e+01	-8.925087e+00
3.219244e+01	-8.968335e+00
3.237838e+01	-9.012107e+00
3.256540e+01	-9.056233e+00
3.275349e+01	-9.100057e+00
3.294268e+01	-9.144112e+00
3.313295e+01	-9.187687e+00
3.332433e+01	-9.231967e+00
3.351681e+01	-9.276087e+00
3.371040e+01	-9.320384e+00
3.390511e+01	-9.363906e+00
3.410094e+01	-9.408159e+00
3.429791e+01	-9.452685e+00
3.449601e+01	-9.497147e+00
3.469526e+01	-9.541903e+00
3.489566e+01	-9.585991e+00
3.509721e+01	-9.630866e+00
3.529993e+01	-9.675051e+00
3.550382e+01	-9.720192e+00
3.570889e+01	-9.764664e+00
3.591515e+01	-9.809098e+00
3.612259e+01	-9.854239e+00
3.633123e+01	-9.899223e+00
3.654108e+01	-9.944323e+00
3.675214e+01	-9.989563e+00
3.696442e+01	-1.003376e+01
3.717792e+01	-1.007939e+01
3.739266e+01	-1.012394e+01
3.760864e+01	-1.016946e+01
3.782587e+01	-1.021494e+01
3.804435e+01	-1.026046e+01
3.826409e+01	-1.030556e+01
3.848510e+01	-1.035013e+01
3.870739e+01	-1.039652e+01
3.893096e+01	-1.044166e+01
3.915583e+01	-1.048728e+01
3.938199e+01	-1.053281e+01
3.960946e+01	-1.057869e+01
3.983824e+01	-1.062432e+01
4.006834e+01	-1.067026e+01
4.029978e+01	-1.071589e+01
4.053255e+01	-1.076133e+01
4.076666e+01	-1.080757e+01
4.100213e+01	-1.085308e+01
4.123896e+01	-1.089902e+01
4.147715e+01	-1.094574e+01
4.171672e+01	-1.099085e+01
4.195767e+01	-1.103739e+01
4.220002e+01	-1.108354e+01
4.244377e+01	-1.112933e+01
4.268892e+01	-1.117560e+01
4.293549e+01	-1.122251e+01
4.318348e+01	-1.126843e+01
4.343291e+01	-1.131455e+01
4.368377e+01	-1.136081e+01
4.393609e+01	-1.140691e+01
4.418986e+01	-1.145408e+01
4.444510e+01	-1.150033e+01
4.470182e+01	-1.154665e+01
4.496001e+01	-1.159289e+01
4.521970e+01	-1.164009e+01
4.548089e+01	-1.168673e+01
4.574358e+01	-1.173288e+01
4.600779e+01	-1.177993e+01
4.627353e+01	-1.182639e+01
4.654081e+01	-1.187319e+01
4.680963e+01	-1.191993e+01
4.708000e+01	-1.196644e+01
4.735193e+01	-1.201340e+01
4.762543e+01	-1.206052e+01
4.790051e+01	-1.210711e+01
4.817719e+01	-1.215479e+01
4.845545e+01	-1.220163e+01
4.873533e+01	-1.224791e+01
4.901682e+01	-1.229561e+01
4.929994e+01	-1.234269e+01
4.958470e+01	-1.238922e+01
4.987110e+01	-1.243673e+01
5.015915e+01	-1.248342e+01
5.044887e+01	-1.253113e+01
5.074026e+01	-1.257869e+01
5.103333e+01	-1.262616e+01
5.132810e+01	-1.267376e+01
5.162457e+01	-1.271927e+01
5.192275e+01	-1.276804e+01
5.222265e+01	-1.281495e+01
5.252429e+01	-1.286312e+01
5.282767e+01	-1.291031e+01
5.313280e+01	-1.295661e+01
5.343969e+01	-1.300484e+01
5.374836e+01	-1.305242e+01
5.405880e+01	-1.310063e+01
5.437105e+01	-1.314823e+01
5.468509e+01	-1.319585e+01
5.500095e+01	-1.324273e+01
5.531863e+01	-1.329003e+01
5.563815e+01	-1.333876e+01
5.595951e+01	-1.338673e+01
5.628273e+01	-1.343306e+01
5.660782e+01	-1.348179e+01
5.693479e+01	-1.352870e+01
5.726364e+01	-1.357704e+01
5.759439e+01	-1.362547e+01
5.792705e+01	-1.367308e+01
5.826164e+01	-1.372148e+01
5.859815e+01	-1.376886e+01
5.893662e+01	-1.381749e+01
5.927703e+01	-1.386557e+01
5.961941e+01	-1.391341e+01
5.996377e+01	-1.396066e+01
6.031012e+01	-1.400924e+01
6.065847e+01	-1.405634e+01
6.100883e+01	-1.410559e+01
6.136121e+01	-1.415298e+01
6.171563e+01	-1.420059e+01
6.207210e+01	-1.424929e+01
6.243063e+01	-1.429673e+01
6.279122e+01	-1.434561e+01
6.315390e+01	-1.439419e+01
6.351868e+01	-1.444188e+01
6.388556e+01	-1.448982e+01
6.425456e+01	-1.453914e+01
6.462569e+01	-1.458702e+01
6.499897e+01	-1.463516e+01
6.537440e+01	-1.468398e+01
6.575200e+01	-1.473228e+01
6.613178e+01	-1.478074e+01
6.651375e+01	-1.482905e+01
6.689793e+01	-1.487704e+01
6.728433e+01	-1.492618e+01
6.767297e+01	-1.497344e+01
6.806384e+01	-1.502314e+01
6.845698e+01	-1.506964e+01
6.885238e+01	-1.511952e+01
6.925007e+01	-1.516800e+01
6.965005e+01	-1.521569e+01
7.005235e+01	-1.526372e+01
7.045697e+01	-1.531435e+01
7.086393e+01	-1.536155e+01
7.127323e+01	-1.540994e+01
7.168490e+01	-1.545803e+01
7.209895e+01	-1.550715e+01
7.251539e+01	-1.555585e+01
7.293424e+01	-1.560462e+01
7.335551e+01	-1.565310e+01
7.377920e+01	-1.570156e+01
7.420535e+01	-1.575030e+01
7.463396e+01	-1.579950e+01
7.506504e+01	-1.584990e+01
7.549861e+01	-1.589715e+01
7.593469e+01	-1.594595e+01
7.637328e+01	-1.599411e+01
7.681441e+01	-1.604273e+01
7.725809e+01	-1.609282e+01
7.770433e+01	-1.614170e+01
7.815315e+01	-1.619029e+01
7.860456e+01	-1.623770e+01
7.905857e+01	-1.628739e+01
7.951521e+01	-1.633706e+01
7.997449e+01	-1.638527e+01
8.043642e+01	-1.643461e+01
8.090102e+01	-1.648288e+01
8.136830e+01	-1.653032e+01
8.183828e+01	-1.658100e+01
8.231097e+01	-1.662977e+01
8.278640e+01	-1.667892e+01
8.326457e+01	-1.672803e+01
8.374550e+01	-1.677693e+01
8.422921e+01	-1.682569e+01
8.471572e+01	-1.687425e+01
8.520503e+01	-1.692263e+01
8.569717e+01	-1.697276e+01
8.619215e+01	-1.702235e+01
8.669000e+01	-1.706928e+01
8.719071e+01	-1.712095e+01
8.769432e+01	-1.716855e+01
8.820084e+01	-1.721835e+01
8.871029e+01	-1.726691e+01
8.922267e+01	-1.731572e+01
8.973802e+01	-1.736586e+01
9.025634e+01	-1.741487e+01
9.077766e+01	-1.746402e+01
9.130199e+01	-1.751237e+01
9.182935e+01	-1.756290e+01
9.235975e+01	-1.761151e+01
9.289321e+01	-1.765903e+01
9.342976e+01	-1.770892e+01
9.396941e+01	-1.775891e+01
9.451217e+01	-1.780873e+01
9.505807e+01	-1.785770e+01
9.560712e+01	-1.790590e+01
9.615934e+01	-1.795502e+01
9.671476e+01	-1.800459e+01
9.727338e+01	-1.805472e+01
9.783522e+01	-1.810238e+01
9.840032e+01	-1.815279e+01
9.896867e+01	-1.820196e+01
9.954031e+01	-1.825185e+01
1.001153e+02	-1.830084e+01
1.006935e+02	-1.834972e+01
1.012751e+02	-1.839828e+01
1.018601e+02	-1.844825e+01
1.024484e+02	-1.849605e+01
1.030402e+02	-1.854794e+01
1.036353e+02	-1.859511e+01
1.042339e+02	-1.864465e+01
1.048360e+02	-1.869498e+01
1.054415e+02	-1.874384e+01
1.060505e+02	-1.879366e+01
1.066631e+02	-1.884284e+01
1.072791e+02	-1.889266e+01
1.078988e+02	-1.894036e+01
1.085220e+02	-1.899055e+01
1.091488e+02	-1.904163e+01
1.097793e+02	-1.908865e+01
1.104133e+02	-1.913888e+01
1.110511e+02	-1.918909e+01
1.116925e+02	-1.923685e+01
1.123376e+02	-1.928715e+01
1.129865e+02	-1.933731e+01
1.136391e+02	-1.938705e+01
1.142955e+02	-1.943607e+01
1.149556e+02	-1.948533e+01
1.156196e+02	-1.953616e+01
1.162874e+02	-1.958496e+01
1.169591e+02	-1.963429e+01
1.176347e+02	-1.968265e+01
1.183141e+02	-1.973366e+01
1.189975e+02	-1.978152e+01
1.196848e+02	-1.983263e+01
1.203761e+02	-1.988242e+01
1.210714e+02	-1.993135e+01
1.217707e+02	-1.997983e+01
1.224740e+02	-2.002968e+01
1.231814e+02	-2.007894e+01
1.238929e+02	-2.012902e+01
1.246085e+02	-2.017801e+01
1.253283e+02	-2.022930e+01
1.260522e+02	-2.027827e+01
1.267802e+02	-2.032653e+01
1.275125e+02	-2.037743e+01
1.282490e+02	-2.042687e+01
1.289898e+02	-2.047715e+01
1.297348e+02	-2.052571e+01
1.304842e+02	-2.057661e+01
1.312378e+02	-2.062292e+01
1.319959e+02	-2.067514e+01
1.327583e+02	-2.072319e+01
1.335251e+02	-2.077442e+01
1.342963e+02	-2.082213e+01
1.350720e+02	-2.087277e+01
1.358522e+02	-2.092213e+01
1.366368e+02	-2.097190e+01
1.374260e+02	-2.102208e+01
1.382198e+02	-2.107348e+01
1.390182e+02	-2.111977e+01
1.398211e+02	-2.117068e+01
1.406287e+02	-2.122059e+01
1.414410e+02	-2.127031e+01
1.422579e+02	-2.131973e+01
1.430796e+02	-2.136896e+01
1.439060e+02	-2.141880e+01
1.447372e+02	-2.146856e+01
1.455732e+02	-2.151776e+01
1.464141e+02	-2.156915e+01
1.472597e+02	-2.161909e+01
1.481103e+02	-2.166742e+01
1.489658e+02	-2.171784e+01
1.498262e+02	-2.176881e+01
1.506916e+02	-2.181762e+01
1.515620e+02	-2.186494e+01
1.524374e+02	-2.191686e+01
1.533179e+02	-2.196773e+01
1.542034e+02	-2.201660e+01
1.550941e+02	-2.206263e+01
1.559899e+02	-2.211464e+01
1.568909e+02	-2.216551e+01
1.577971e+02	-2.221416e+01
1.587085e+02	-2.226662e+01
1.596252e+02	-2.231450e+01
1.605472e+02	-2.236440e+01
1.614745e+02	-2.241270e+01
1.624072e+02	-2.246183e+01
1.633453e+02	-2.251102e+01
1.642887e+02	-2.256393e+01
1.652377e+02	-2.261155e+01
1.661921e+02	-2.266097e+01
1.671520e+02	-2.271153e+01
1.681175e+02	-2.276225e+01
1.690885e+02	-2.280911e+01
1.700651e+02	-2.286137e+01
1.710474e+02	-2.291205e+01
1.720354e+02	-2.296365e+01
1.730291e+02	-2.301000e+01
1.740285e+02	-2.305823e+01
1.750337e+02	-2.311140e+01
1.760446e+02	-2.315998e+01
1.770615e+02	-2.321089e+01
1.780842e+02	-2.325859e+01
1.791128e+02	-2.330958e+01
1.801473e+02	-2.336003e+01
1.811878e+02	-2.340815e+01
1.822344e+02	-2.345775e+01
1.832870e+02	-2.350816e+01
1.843456e+02	-2.355860e+01
1.854104e+02	-2.361121e+01
1.864813e+02	-2.365718e+01
1.875584e+02	-2.370653e+01
1.886418e+02	-2.375866e+01
1.897313e+02	-2.380629e+01
1.908272e+02	-2.385812e+01
1.919294e+02	-2.390771e+01
1.930380e+02	-2.395757e+01
1.941530e+02	-2.401006e+01
1.952744e+02	-2.405846e+01
1.964023e+02	-2.410876e+01
1.975367e+02	-2.415565e+01
1.986777e+02	-2.420708e+01
1.998252e+02	-2.425773e+01
2.009794e+02	-2.430779e+01
2.021403e+02	-2.435705e+01
2.033078e+02	-2.440742e+01
2.044821e+02	-2.445563e+01
2.056632e+02	-2.450704e+01
2.068511e+02	-2.455633e+01
2.080459e+02	-2.460743e+01
2.092475e+02	-2.465642e+01
2.104561e+02	-2.470630e+01
2.116717e+02	-2.475844e+01
2.128943e+02	-2.480550e+01
2.141240e+02	-2.485751e+01
2.153608e+02	-2.490448e+01
2.166047e+02	-2.495686e+01
2.178558e+02	-2.500577e+01
2.191141e+02	-2.505488e+01
2.203797e+02	-2.510798e+01
2.216526e+02	-2.515340e+01
2.229329e+02	-2.520490e+01
2.242205e+02	-2.525565e+01
2.255156e+02	-2.530543e+01
2.268182e+02	-2.535758e+01
2.281283e+02	-2.540184e+01
2.294459e+02	-2.545356e+01
2.307712e+02	-2.550386e+01
2.321041e+02	-2.555315e+01
2.334447e+02	-2.560641e+01
2.347931e+02	-2.565292e+01
2.361493e+02	-2.570323e+01
2.375133e+02	-2.575122e+01
2.388851e+02	-2.580290e+01
2.402649e+02	-2.585259e+01
2.416527e+02	-2.590462e+01
2.430484e+02	-2.595298e+01
2.444523e+02	-2.600465e+01
2.458642e+02	-2.605325e+01
2.472843e+02	-2.610288e+01
2.487126e+02	-2.615554e+01
2.501492e+02	-2.620549e+01
2.515940e+02	-2.625186e+01
2.530472e+02	-2.630542e+01
2.545088e+02	-2.635358e+01
2.559789e+02	-2.640434e+01
2.574574e+02	-2.645510e+01
2.589444e+02	-2.650510e+01
2.604401e+02	-2.655478e+01
2.619444e+02	-2.660487e+01
2.634574e+02	-2.665733e+01
2.649791e+02	-2.670126e+01
2.665096e+02	-2.675225e+01
2.680489e+02	-2.680655e+01
2.695972e+02	-2.685716e+01
2.711544e+02	-2.690502e+01
2.727205e+02	-2.695166e+01
2.742958e+02	-2.700887e+01
2.758801e+02	-2.705564e+01
2.774736e+02	-2.710125e+01
2.790762e+02	-2.715673e+01
2.806882e+02	-2.720395e+01
2.823094e+02	-2.725313e+01
2.839400e+02	-2.730017e+01
2.855800e+02	-2.735202e+01
2.872295e+02	-2.740031e+01
2.888886e+02	-2.745381e+01
2.905572e+02	-2.750720e+01
2.922354e+02	-2.755494e+01
2.939234e+02	-2.760178e+01
2.956211e+02	-2.765606e+01
2.973286e+02	-2.770318e+01
2.990459e+02	-2.775304e+01
3.007732e+02	-2.780492e+01
3.025104e+02	-2.785163e+01
3.042577e+02	-2.790510e+01
3.060151e+02	-2.795380e+01
3.077826e+02	-2.800373e+01
3.095604e+02	-2.805510e+01
3.113484e+02	-2.810239e+01
3.131467e+02	-2.815219e+01
3.149554e+02	-2.820203e+01
3.167746e+02	-2.825727e+01
3.186043e+02	-2.830498e+01
3.204445e+02	-2.835347e+01
3.222954e+02	-2.840058e+01
3.241570e+02	-2.845383e+01
3.260293e+02	-2.850301e+01
3.279124e+02	-2.855477e+01
3.298064e+02	-2.860351e+01
3.317114e+02	-2.865462e+01
3.336273e+02	-2.870367e+01
3.355544e+02	-2.875673e+01
3.374925e+02	-2.880443e+01
3.394418e+02	-2.885767e+01
3.414024e+02	-2.890591e+01
3.433744e+02	-2.895536e+01
3.453577e+02	-2.900778e+01
3.473525e+02	-2.905548e+01
3.493588e+02	-2.910411e+01
3.513766e+02	-2.915549e+01
3.534062e+02	-2.920431e+01
3.554474e+02	-2.925298e+01
3.575005e+02	-2.930620e+01
3.595654e+02	-2.935865e+01
3.616422e+02	-2.939856e+01
3.637311e+02	-2.945595e+01
3.658320e+02	-2.950685e+01
3.679450e+02	-2.955294e+01
3.700702e+02	-2.960742e+01
3.722077e+02	-2.965551e+01
3.743576e+02	-2.970798e+01
3.765199e+02	-2.975670e+01
3.786946e+02	-2.980696e+01
3.808820e+02	-2.985474e+01
3.830819e+02	-2.990834e+01
3.852946e+02	-2.995656e+01
3.875200e+02	-3.000608e+01
3.897583e+02	-3.005913e+01
3.920096e+02	-3.010824e+01
3.942738e+02	-3.015799e+01
3.965511e+02	-3.020488e+01
3.988416e+02	-3.025668e+01
4.011452e+02	-3.031041e+01
4.034622e+02	-3.036355e+01
4.057926e+02	-3.040836e+01
4.081365e+02	-3.046348e+01
4.104938e+02	-3.050474e+01
4.128648e+02	-3.055736e+01
4.152495e+02	-3.060753e+01
4.176480e+02	-3.065632e+01
4.200603e+02	-3.071089e+01
4.224866e+02	-3.075785e+01
4.249268e+02	-3.081172e+01
4.273812e+02	-3.085872e+01
4.298497e+02	-3.091090e+01
4.323325e+02	-3.095454e+01
4.348297e+02	-3.100775e+01
4.373412e+02	-3.105762e+01
4.398673e+02	-3.110660e+01
4.424079e+02	-3.115892e+01
4.449633e+02	-3.120402e+01
4.475334e+02	-3.126199e+01
4.501183e+02	-3.131384e+01
4.527182e+02	-3.136197e+01
4.553330e+02	-3.140965e+01
4.579630e+02	-3.146552e+01
4.606082e+02	-3.150564e+01
4.632687e+02	-3.156190e+01
4.659445e+02	-3.161045e+01
4.686358e+02	-3.166739e+01
4.713426e+02	-3.171081e+01
4.740650e+02	-3.175763e+01
4.768032e+02	-3.181047e+01
4.795572e+02	-3.185833e+01
4.823271e+02	-3.191417e+01
4.851130e+02	-3.196138e+01
4.879150e+02	-3.201386e+01
4.907332e+02	-3.206686e+01
4.935676e+02	-3.211397e+01
4.964185e+02	-3.217058e+01
4.992858e+02	-3.221587e+01
5.021696e+02	-3.226689e+01
5.050701e+02	-3.231969e+01
5.079874e+02	-3.236222e+01
5.109215e+02	-3.241456e+01
5.138726e+02	-3.246437e+01
5.168407e+02	-3.251828e+01
5.198259e+02	-3.255879e+01
5.228284e+02	-3.261439e+01
5.258482e+02	-3.266941e+01
5.288855e+02	-3.271426e+01
5.319403e+02	-3.276504e+01
5.350128e+02	-3.281863e+01
5.381030e+02	-3.286662e+01
5.412111e+02	-3.291740e+01
5.443371e+02	-3.297298e+01
5.474812e+02	-3.301311e+01
5.506434e+02	-3.307744e+01
5.538239e+02	-3.311967e+01
5.570228e+02	-3.316798e+01
5.602401e+02	-3.321744e+01
5.634760e+02	-3.326972e+01
5.667306e+02	-3.331625e+01
5.700040e+02	-3.336484e+01
5.732964e+02	-3.342170e+01
5.766077e+02	-3.347329e+01
5.799382e+02	-3.351422e+01
5.832879e+02	-3.357671e+01
5.866569e+02	-3.362031e+01
5.900454e+02	-3.366741e+01
5.934535e+02	-3.371792e+01
5.968813e+02	-3.377284e+01
6.003288e+02	-3.382019e+01
6.037963e+02	-3.386954e+01
6.072838e+02	-3.391263e+01
6.107914e+02	-3.397623e+01
6.143194e+02	-3.401807e+01
6.178676e+02	-3.407407e+01
6.214364e+02	-3.412529e+01
6.250258e+02	-3.417869e+01
6.286359e+02	-3.421967e+01
6.322669e+02	-3.427328e+01
6.359189e+02	-3.432585e+01
6.395919e+02	-3.437888e+01
6.432862e+02	-3.442644e+01
6.470017e+02	-3.447467e+01
6.507388e+02	-3.452758e+01
6.544974e+02	-3.457851e+01
6.582778e+02	-3.462345e+01
6.620800e+02	-3.467496e+01
6.659041e+02	-3.472350e+01
6.697504e+02	-3.478104e+01
6.736188e+02	-3.482892e+01
6.775096e+02	-3.487769e+01
6.814229e+02	-3.492878e+01
6.853587e+02	-3.498583e+01
6.893173e+02	-3.502076e+01
6.932988e+02	-3.508199e+01
6.973033e+02	-3.513465e+01
7.013309e+02	-3.518126e+01
