Frequency(Hz)	Magnitude(dB)
1.000000e+01	-1.736270e-05
1.005776e+01	-1.756386e-05
1.011585e+01	-1.776734e-05
1.017428e+01	-1.797318e-05
1.023305e+01	-1.818140e-05
1.029215e+01	-1.839204e-05
1.035160e+01	-1.860511e-05
1.041139e+01	-1.882066e-05
1.047153e+01	-1.903870e-05
1.053201e+01	-1.925927e-05
1.059284e+01	-1.948239e-05
1.065403e+01	-1.970810e-05
1.071556e+01	-1.993642e-05
1.077746e+01	-2.016739e-05
1.083971e+01	-2.040104e-05
1.090232e+01	-2.063739e-05
1.096529e+01	-2.087648e-05
1.102862e+01	-2.111834e-05
1.109232e+01	-2.136300e-05
1.115639e+01	-2.161049e-05
1.122083e+01	-2.186086e-05
1.128564e+01	-2.211412e-05
1.135083e+01	-2.237032e-05
1.141639e+01	-2.262948e-05
1.148233e+01	-2.289165e-05
1.154865e+01	-2.315686e-05
1.161536e+01	-2.342513e-05
1.168245e+01	-2.369652e-05
1.174992e+01	-2.397105e-05
1.181779e+01	-2.424876e-05
1.188605e+01	-2.452969e-05
1.195470e+01	-2.481387e-05
1.202375e+01	-2.510135e-05
1.209320e+01	-2.539215e-05
1.216305e+01	-2.568633e-05
1.223330e+01	-2.598391e-05
1.230396e+01	-2.628494e-05
1.237503e+01	-2.658946e-05
1.244651e+01	-2.689750e-05
1.251840e+01	-2.720912e-05
1.259070e+01	-2.752434e-05
1.266343e+01	-2.784322e-05
1.273657e+01	-2.816579e-05
1.281014e+01	-2.849209e-05
1.288413e+01	-2.882218e-05
1.295855e+01	-2.915609e-05
1.303339e+01	-2.949387e-05
1.310867e+01	-2.983557e-05
1.318439e+01	-3.018122e-05
1.326054e+01	-3.053088e-05
1.333713e+01	-3.088458e-05
1.341417e+01	-3.124239e-05
1.349165e+01	-3.160434e-05
1.356958e+01	-3.197048e-05
1.364795e+01	-3.234087e-05
1.372678e+01	-3.271555e-05
1.380607e+01	-3.309456e-05
1.388581e+01	-3.347797e-05
1.396602e+01	-3.386582e-05
1.404668e+01	-3.425816e-05
1.412782e+01	-3.465505e-05
1.420942e+01	-3.505654e-05
1.429149e+01	-3.546268e-05
1.437404e+01	-3.587352e-05
1.445706e+01	-3.628912e-05
1.454057e+01	-3.670954e-05
1.462455e+01	-3.713483e-05
1.470902e+01	-3.756505e-05
1.479398e+01	-3.800025e-05
1.487943e+01	-3.844049e-05
1.496537e+01	-3.888583e-05
1.505181e+01	-3.933633e-05
1.513875e+01	-3.979205e-05
1.522619e+01	-4.025305e-05
1.531414e+01	-4.071939e-05
1.540259e+01	-4.119113e-05
1.549156e+01	-4.166834e-05
1.558103e+01	-4.215108e-05
1.567103e+01	-4.263941e-05
1.576155e+01	-4.313340e-05
1.585258e+01	-4.363311e-05
1.594415e+01	-4.413861e-05
1.603624e+01	-4.464996e-05
1.612886e+01	-4.516724e-05
1.622202e+01	-4.569051e-05
1.631572e+01	-4.621985e-05
1.640996e+01	-4.675532e-05
1.650474e+01	-4.729699e-05
1.660008e+01	-4.784493e-05
1.669596e+01	-4.839923e-05
1.679239e+01	-4.895994e-05
1.688938e+01	-4.952715e-05
1.698694e+01	-5.010094e-05
1.708505e+01	-5.068137e-05
1.718373e+01	-5.126852e-05
1.728299e+01	-5.186248e-05
1.738281e+01	-5.246331e-05
1.748322e+01	-5.307111e-05
1.758420e+01	-5.368595e-05
1.768576e+01	-5.430792e-05
1.778792e+01	-5.493708e-05
1.789066e+01	-5.557354e-05
1.799399e+01	-5.621737e-05
1.809793e+01	-5.686866e-05
1.820246e+01	-5.752750e-05
1.830760e+01	-5.819396e-05
1.841334e+01	-5.886815e-05
1.851969e+01	-5.955015e-05
1.862666e+01	-6.024005e-05
1.873425e+01	-6.093795e-05
1.884246e+01	-6.164392e-05
1.895129e+01	-6.235808e-05
1.906075e+01	-6.308051e-05
1.917085e+01	-6.381131e-05
1.928158e+01	-6.455058e-05
1.939295e+01	-6.529841e-05
1.950496e+01	-6.605490e-05
1.961762e+01	-6.682016e-05
1.973093e+01	-6.759429e-05
1.984490e+01	-6.837738e-05
1.995952e+01	-6.916954e-05
2.007480e+01	-6.997089e-05
2.019076e+01	-7.078151e-05
2.030738e+01	-7.160153e-05
2.042467e+01	-7.243104e-05
2.054264e+01	-7.327017e-05
2.066130e+01	-7.411902e-05
2.078064e+01	-7.497770e-05
2.090066e+01	-7.584633e-05
2.102139e+01	-7.672503e-05
2.114280e+01	-7.761390e-05
2.126492e+01	-7.851307e-05
2.138775e+01	-7.942266e-05
2.151128e+01	-8.034278e-05
2.163553e+01	-8.127357e-05
2.176050e+01	-8.221513e-05
2.188619e+01	-8.316761e-05
2.201260e+01	-8.413112e-05
2.213974e+01	-8.510579e-05
2.226762e+01	-8.609176e-05
2.239624e+01	-8.708915e-05
2.252560e+01	-8.809809e-05
2.265571e+01	-8.911872e-05
2.278656e+01	-9.015117e-05
2.291818e+01	-9.119559e-05
2.305055e+01	-9.225210e-05
2.318369e+01	-9.332086e-05
2.331760e+01	-9.440200e-05
2.345228e+01	-9.549566e-05
2.358774e+01	-9.660199e-05
2.372398e+01	-9.772114e-05
2.386101e+01	-9.885325e-05
2.399883e+01	-9.999848e-05
2.413745e+01	-1.011570e-04
2.427686e+01	-1.023289e-04
2.441709e+01	-1.035144e-04
2.455812e+01	-1.047136e-04
2.469997e+01	-1.059267e-04
2.484263e+01	-1.071539e-04
2.498612e+01	-1.083953e-04
2.513044e+01	-1.096511e-04
2.527559e+01	-1.109214e-04
2.542158e+01	-1.122064e-04
2.556842e+01	-1.135064e-04
2.571610e+01	-1.148214e-04
2.586463e+01	-1.161516e-04
2.601403e+01	-1.174972e-04
2.616428e+01	-1.188584e-04
2.631541e+01	-1.202354e-04
2.646740e+01	-1.216284e-04
2.662028e+01	-1.230374e-04
2.677404e+01	-1.244628e-04
2.692868e+01	-1.259048e-04
2.708422e+01	-1.273634e-04
2.724066e+01	-1.288389e-04
2.739800e+01	-1.303315e-04
2.755625e+01	-1.318414e-04
2.771541e+01	-1.333688e-04
2.787550e+01	-1.349139e-04
2.803650e+01	-1.364769e-04
2.819844e+01	-1.380580e-04
2.836131e+01	-1.396574e-04
2.852513e+01	-1.412753e-04
2.868989e+01	-1.429120e-04
2.885560e+01	-1.445677e-04
2.902227e+01	-1.462425e-04
2.918990e+01	-1.479367e-04
2.935850e+01	-1.496506e-04
2.952807e+01	-1.513843e-04
2.969863e+01	-1.531381e-04
2.987016e+01	-1.549122e-04
3.004269e+01	-1.567069e-04
3.021622e+01	-1.585224e-04
3.039075e+01	-1.603588e-04
3.056628e+01	-1.622166e-04
3.074283e+01	-1.640959e-04
3.092040e+01	-1.659970e-04
3.109900e+01	-1.679200e-04
3.127862e+01	-1.698654e-04
3.145929e+01	-1.718333e-04
3.164099e+01	-1.738240e-04
3.182375e+01	-1.758378e-04
3.200756e+01	-1.778748e-04
3.219244e+01	-1.799355e-04
3.237838e+01	-1.820201e-04
3.256540e+01	-1.841288e-04
3.275349e+01	-1.862619e-04
3.294268e+01	-1.884198e-04
3.313295e+01	-1.906026e-04
3.332433e+01	-1.928108e-04
3.351681e+01	-1.950445e-04
3.371040e+01	-1.973041e-04
3.390511e+01	-1.995899e-04
3.410094e+01	-2.019021e-04
3.429791e+01	-2.042411e-04
3.449601e+01	-2.066073e-04
3.469526e+01	-2.090008e-04
3.489566e+01	-2.114221e-04
3.509721e+01	-2.138714e-04
3.529993e+01	-2.163491e-04
3.550382e+01	-2.188555e-04
3.570889e+01	-2.213910e-04
3.591515e+01	-2.239558e-04
3.612259e+01	-2.265503e-04
3.633123e+01	-2.291749e-04
3.654108e+01	-2.318299e-04
3.675214e+01	-2.345156e-04
3.696442e+01	-2.372324e-04
3.717792e+01	-2.399808e-04
3.739266e+01	-2.427609e-04
3.760864e+01	-2.455733e-04
3.782587e+01	-2.484183e-04
3.804435e+01	-2.512962e-04
3.826409e+01	-2.542074e-04
3.848510e+01	-2.571524e-04
3.870739e+01	-2.601315e-04
3.893096e+01	-2.631451e-04
3.915583e+01	-2.661936e-04
3.938199e+01	-2.692775e-04
3.960946e+01	-2.723970e-04
3.983824e+01	-2.755527e-04
4.006834e+01	-2.787450e-04
4.029978e+01	-2.819742e-04
4.053255e+01	-2.852408e-04
4.076666e+01	-2.885453e-04
4.100213e+01	-2.918881e-04
4.123896e+01	-2.952696e-04
4.147715e+01	-2.986902e-04
4.171672e+01	-3.021505e-04
4.195767e+01	-3.056509e-04
4.220002e+01	-3.091918e-04
4.244377e+01	-3.127738e-04
4.268892e+01	-3.163972e-04
4.293549e+01	-3.200626e-04
4.318348e+01	-3.237705e-04
4.343291e+01	-3.275213e-04
4.368377e+01	-3.313156e-04
4.393609e+01	-3.351538e-04
4.418986e+01	-3.390365e-04
4.444510e+01	-3.429642e-04
4.470182e+01	-3.469374e-04
4.496001e+01	-3.509566e-04
4.521970e+01	-3.550224e-04
4.548089e+01	-3.591352e-04
4.574358e+01	-3.632957e-04
4.600779e+01	-3.675044e-04
4.627353e+01	-3.717619e-04
4.654081e+01	-3.760687e-04
4.680963e+01	-3.804253e-04
4.708000e+01	-3.848325e-04
4.735193e+01	-3.892907e-04
4.762543e+01	-3.938005e-04
4.790051e+01	-3.983626e-04
4.817719e+01	-4.029775e-04
4.845545e+01	-4.076459e-04
4.873533e+01	-4.123684e-04
4.901682e+01	-4.171455e-04
4.929994e+01	-4.219781e-04
4.958470e+01	-4.268665e-04
4.987110e+01	-4.318117e-04
5.015915e+01	-4.368141e-04
5.044887e+01	-4.418744e-04
5.074026e+01	-4.469934e-04
5.103333e+01	-4.521717e-04
5.132810e+01	-4.574099e-04
5.162457e+01	-4.627089e-04
5.192275e+01	-4.680692e-04
5.222265e+01	-4.734916e-04
5.252429e+01	-4.789768e-04
5.282767e+01	-4.845256e-04
5.313280e+01	-4.901387e-04
5.343969e+01	-4.958167e-04
5.374836e+01	-5.015606e-04
5.405880e+01	-5.073709e-04
5.437105e+01	-5.132486e-04
5.468509e+01	-5.191944e-04
5.500095e+01	-5.252090e-04
5.531863e+01	-5.312934e-04
5.563815e+01	-5.374482e-04
5.595951e+01	-5.436743e-04
5.628273e+01	-5.499725e-04
5.660782e+01	-5.563437e-04
5.693479e+01	-5.627886e-04
5.726364e+01	-5.693083e-04
5.759439e+01	-5.759034e-04
5.792705e+01	-5.825750e-04
5.826164e+01	-5.893238e-04
5.859815e+01	-5.961508e-04
5.893662e+01	-6.030569e-04
5.927703e+01	-6.100430e-04
5.961941e+01	-6.171100e-04
5.996377e+01	-6.242589e-04
6.031012e+01	-6.314906e-04
6.065847e+01	-6.388060e-04
6.100883e+01	-6.462062e-04
6.136121e+01	-6.536921e-04
6.171563e+01	-6.612648e-04
6.207210e+01	-6.689251e-04
6.243063e+01	-6.766742e-04
6.279122e+01	-6.845130e-04
6.315390e+01	-6.924427e-04
6.351868e+01	-7.004642e-04
6.388556e+01	-7.085786e-04
6.425456e+01	-7.167870e-04
6.462569e+01	-7.250904e-04
6.499897e+01	-7.334901e-04
6.537440e+01	-7.419871e-04
6.575200e+01	-7.505824e-04
6.613178e+01	-7.592774e-04
6.651375e+01	-7.680731e-04
6.689793e+01	-7.769706e-04
6.728433e+01	-7.859712e-04
6.767297e+01	-7.950761e-04
6.806384e+01	-8.042864e-04
6.845698e+01	-8.136034e-04
6.885238e+01	-8.230283e-04
6.925007e+01	-8.325624e-04
6.965005e+01	-8.422069e-04
7.005235e+01	-8.519632e-04
7.045697e+01	-8.618324e-04
7.086393e+01	-8.718160e-04
7.127323e+01	-8.819152e-04
7.168490e+01	-8.921314e-04
7.209895e+01	-9.024659e-04
7.251539e+01	-9.129201e-04
7.293424e+01	-9.234954e-04
7.335551e+01	-9.341932e-04
7.377920e+01	-9.450149e-04
7.420535e+01	-9.559619e-04
7.463396e+01	-9.670358e-04
7.506504e+01	-9.782379e-04
7.549861e+01	-9.895698e-04
7.593469e+01	-1.001033e-03
7.637328e+01	-1.012629e-03
7.681441e+01	-1.024359e-03
7.725809e+01	-1.036225e-03
7.770433e+01	-1.048229e-03
7.815315e+01	-1.060371e-03
7.860456e+01	-1.072654e-03
7.905857e+01	-1.085080e-03
7.951521e+01	-1.097649e-03
7.997449e+01	-1.110364e-03
8.043642e+01	-1.123226e-03
8.090102e+01	-1.136237e-03
8.136830e+01	-1.149399e-03
8.183828e+01	-1.162714e-03
8.231097e+01	-1.176182e-03
8.278640e+01	-1.189807e-03
8.326457e+01	-1.203589e-03
8.374550e+01	-1.217531e-03
8.422921e+01	-1.231634e-03
8.471572e+01	-1.245901e-03
8.520503e+01	-1.260333e-03
8.569717e+01	-1.274932e-03
8.619215e+01	-1.289700e-03
8.669000e+01	-1.304640e-03
8.719071e+01	-1.319752e-03
8.769432e+01	-1.335039e-03
8.820084e+01	-1.350504e-03
8.871029e+01	-1.366147e-03
8.922267e+01	-1.381972e-03
8.973802e+01	-1.397980e-03
9.025634e+01	-1.414173e-03
9.077766e+01	-1.430554e-03
9.130199e+01	-1.447125e-03
9.182935e+01	-1.463887e-03
9.235975e+01	-1.480844e-03
9.289321e+01	-1.497997e-03
9.342976e+01	-1.515349e-03
9.396941e+01	-1.532901e-03
9.451217e+01	-1.550657e-03
9.505807e+01	-1.568619e-03
9.560712e+01	-1.586788e-03
9.615934e+01	-1.605168e-03
9.671476e+01	-1.623761e-03
9.727338e+01	-1.642569e-03
9.783522e+01	-1.661595e-03
9.840032e+01	-1.680841e-03
9.896867e+01	-1.700311e-03
9.954031e+01	-1.720005e-03
1.001153e+02	-1.739928e-03
1.006935e+02	-1.760081e-03
1.012751e+02	-1.780468e-03
1.018601e+02	-1.801091e-03
1.024484e+02	-1.821953e-03
1.030402e+02	-1.843056e-03
1.036353e+02	-1.864404e-03
1.042339e+02	-1.885999e-03
1.048360e+02	-1.907844e-03
1.054415e+02	-1.929942e-03
1.060505e+02	-1.952296e-03
1.066631e+02	-1.974908e-03
1.072791e+02	-1.997783e-03
1.078988e+02	-2.020922e-03
1.085220e+02	-2.044330e-03
1.091488e+02	-2.068008e-03
1.097793e+02	-2.091961e-03
1.104133e+02	-2.116191e-03
1.110511e+02	-2.140702e-03
1.116925e+02	-2.165496e-03
1.123376e+02	-2.190577e-03
1.129865e+02	-2.215949e-03
1.136391e+02	-2.241615e-03
1.142955e+02	-2.267578e-03
1.149556e+02	-2.293842e-03
1.156196e+02	-2.320409e-03
1.162874e+02	-2.347285e-03
1.169591e+02	-2.374471e-03
1.176347e+02	-2.401972e-03
1.183141e+02	-2.429792e-03
1.189975e+02	-2.457934e-03
1.196848e+02	-2.486401e-03
1.203761e+02	-2.515199e-03
1.210714e+02	-2.544329e-03
1.217707e+02	-2.573797e-03
1.224740e+02	-2.603607e-03
1.231814e+02	-2.633761e-03
1.238929e+02	-2.664264e-03
1.246085e+02	-2.695121e-03
1.253283e+02	-2.726335e-03
1.260522e+02	-2.757910e-03
1.267802e+02	-2.789851e-03
1.275125e+02	-2.822162e-03
1.282490e+02	-2.854846e-03
1.289898e+02	-2.887909e-03
1.297348e+02	-2.921355e-03
1.304842e+02	-2.955189e-03
1.312378e+02	-2.989413e-03
1.319959e+02	-3.024034e-03
1.327583e+02	-3.059056e-03
1.335251e+02	-3.094484e-03
1.342963e+02	-3.130321e-03
1.350720e+02	-3.166573e-03
1.358522e+02	-3.203246e-03
1.366368e+02	-3.240342e-03
1.374260e+02	-3.277868e-03
1.382198e+02	-3.315829e-03
1.390182e+02	-3.354228e-03
1.398211e+02	-3.393073e-03
1.406287e+02	-3.432367e-03
1.414410e+02	-3.472116e-03
1.422579e+02	-3.512325e-03
1.430796e+02	-3.553000e-03
1.439060e+02	-3.594145e-03
1.447372e+02	-3.635767e-03
1.455732e+02	-3.677870e-03
1.464141e+02	-3.720461e-03
1.472597e+02	-3.763545e-03
1.481103e+02	-3.807127e-03
1.489658e+02	-3.851214e-03
1.498262e+02	-3.895811e-03
1.506916e+02	-3.940925e-03
1.515620e+02	-3.986561e-03
1.524374e+02	-4.032724e-03
1.533179e+02	-4.079423e-03
1.542034e+02	-4.126661e-03
1.550941e+02	-4.174447e-03
1.559899e+02	-4.222785e-03
1.568909e+02	-4.271683e-03
1.577971e+02	-4.321147e-03
1.587085e+02	-4.371183e-03
1.596252e+02	-4.421799e-03
1.605472e+02	-4.473000e-03
1.614745e+02	-4.524794e-03
1.624072e+02	-4.577187e-03
1.633453e+02	-4.630187e-03
1.642887e+02	-4.683800e-03
1.652377e+02	-4.738033e-03
1.661921e+02	-4.792894e-03
1.671520e+02	-4.848390e-03
1.681175e+02	-4.904528e-03
1.690885e+02	-4.961316e-03
1.700651e+02	-5.018761e-03
1.710474e+02	-5.076870e-03
1.720354e+02	-5.135652e-03
1.730291e+02	-5.195114e-03
1.740285e+02	-5.255265e-03
1.750337e+02	-5.316111e-03
1.760446e+02	-5.377661e-03
1.770615e+02	-5.439924e-03
1.780842e+02	-5.502907e-03
1.791128e+02	-5.566618e-03
1.801473e+02	-5.631067e-03
1.811878e+02	-5.696261e-03
1.822344e+02	-5.762210e-03
1.832870e+02	-5.828922e-03
1.843456e+02	-5.896406e-03
1.854104e+02	-5.964670e-03
1.864813e+02	-6.033724e-03
1.875584e+02	-6.103577e-03
1.886418e+02	-6.174238e-03
1.897313e+02	-6.245717e-03
1.908272e+02	-6.318022e-03
1.919294e+02	-6.391164e-03
1.930380e+02	-6.465152e-03
1.941530e+02	-6.539996e-03
1.952744e+02	-6.615706e-03
1.964023e+02	-6.692291e-03
1.975367e+02	-6.769763e-03
1.986777e+02	-6.848130e-03
1.998252e+02	-6.927404e-03
2.009794e+02	-7.007595e-03
2.021403e+02	-7.088713e-03
2.033078e+02	-7.170770e-03
2.044821e+02	-7.253775e-03
2.056632e+02	-7.337741e-03
2.068511e+02	-7.422678e-03
2.080459e+02	-7.508597e-03
2.092475e+02	-7.595510e-03
2.104561e+02	-7.683428e-03
2.116717e+02	-7.772362e-03
2.128943e+02	-7.862325e-03
2.141240e+02	-7.953329e-03
2.153608e+02	-8.045385e-03
2.166047e+02	-8.138505e-03
2.178558e+02	-8.232702e-03
2.191141e+02	-8.327988e-03
2.203797e+02	-8.424376e-03
2.216526e+02	-8.521879e-03
2.229329e+02	-8.620509e-03
2.242205e+02	-8.720279e-03
2.255156e+02	-8.821203e-03
2.268182e+02	-8.923293e-03
2.281283e+02	-9.026564e-03
2.294459e+02	-9.131029e-03
2.307712e+02	-9.236701e-03
2.321041e+02	-9.343595e-03
2.334447e+02	-9.451725e-03
2.347931e+02	-9.561105e-03
2.361493e+02	-9.671749e-03
2.375133e+02	-9.783672e-03
2.388851e+02	-9.896889e-03
2.402649e+02	-1.001141e-02
2.416527e+02	-1.012726e-02
2.430484e+02	-1.024445e-02
2.444523e+02	-1.036299e-02
2.458642e+02	-1.048291e-02
2.472843e+02	-1.060421e-02
2.487126e+02	-1.072691e-02
2.501492e+02	-1.085102e-02
2.515940e+02	-1.097658e-02
2.530472e+02	-1.110358e-02
2.545088e+02	-1.123205e-02
2.559789e+02	-1.136201e-02
2.574574e+02	-1.149346e-02
2.589444e+02	-1.162644e-02
2.604401e+02	-1.176095e-02
2.619444e+02	-1.189702e-02
2.634574e+02	-1.203466e-02
2.649791e+02	-1.217388e-02
2.665096e+02	-1.231472e-02
2.680489e+02	-1.245719e-02
2.695972e+02	-1.260130e-02
2.711544e+02	-1.274707e-02
2.727205e+02	-1.289453e-02
2.742958e+02	-1.304369e-02
2.758801e+02	-1.319457e-02
2.774736e+02	-1.334720e-02
2.790762e+02	-1.350159e-02
2.806882e+02	-1.365776e-02
2.823094e+02	-1.381574e-02
2.839400e+02	-1.397554e-02
2.855800e+02	-1.413718e-02
2.872295e+02	-1.430070e-02
2.888886e+02	-1.446610e-02
2.905572e+02	-1.463341e-02
2.922354e+02	-1.480265e-02
2.939234e+02	-1.497385e-02
2.956211e+02	-1.514702e-02
2.973286e+02	-1.532219e-02
2.990459e+02	-1.549938e-02
3.007732e+02	-1.567862e-02
3.025104e+02	-1.585993e-02
3.042577e+02	-1.604333e-02
3.060151e+02	-1.622885e-02
3.077826e+02	-1.641651e-02
3.095604e+02	-1.660633e-02
3.113484e+02	-1.679835e-02
3.131467e+02	-1.699258e-02
3.149554e+02	-1.718905e-02
3.167746e+02	-1.738779e-02
3.186043e+02	-1.758882e-02
3.204445e+02	-1.779218e-02
3.222954e+02	-1.799787e-02
3.241570e+02	-1.820595e-02
3.260293e+02	-1.841642e-02
3.279124e+02	-1.862932e-02
3.298064e+02	-1.884467e-02
3.317114e+02	-1.906251e-02
3.336273e+02	-1.928286e-02
3.355544e+02	-1.950576e-02
3.374925e+02	-1.973122e-02
3.394418e+02	-1.995929e-02
3.414024e+02	-2.018998e-02
3.433744e+02	-2.042334e-02
3.453577e+02	-2.065938e-02
3.473525e+02	-2.089815e-02
3.493588e+02	-2.113967e-02
3.513766e+02	-2.138397e-02
3.534062e+02	-2.163109e-02
3.554474e+02	-2.188106e-02
3.575005e+02	-2.213391e-02
3.595654e+02	-2.238967e-02
3.616422e+02	-2.264838e-02
3.637311e+02	-2.291008e-02
3.658320e+02	-2.317479e-02
3.679450e+02	-2.344254e-02
3.700702e+02	-2.371339e-02
3.722077e+02	-2.398735e-02
3.743576e+02	-2.426447e-02
3.765199e+02	-2.454479e-02
3.786946e+02	-2.482833e-02
3.808820e+02	-2.511514e-02
3.830819e+02	-2.540525e-02
3.852946e+02	-2.569870e-02
3.875200e+02	-2.599554e-02
3.897583e+02	-2.629579e-02
3.920096e+02	-2.659949e-02
3.942738e+02	-2.690670e-02
3.965511e+02	-2.721744e-02
3.988416e+02	-2.753176e-02
4.011452e+02	-2.784970e-02
4.034622e+02	-2.817129e-02
4.057926e+02	-2.849659e-02
4.081365e+02	-2.882563e-02
4.104938e+02	-2.915846e-02
4.128648e+02	-2.949512e-02
4.152495e+02	-2.983565e-02
4.176480e+02	-3.018010e-02
4.200603e+02	-3.052851e-02
4.224866e+02	-3.088093e-02
4.249268e+02	-3.123740e-02
4.273812e+02	-3.159798e-02
4.298497e+02	-3.196270e-02
4.323325e+02	-3.233161e-02
4.348297e+02	-3.270477e-02
4.373412e+02	-3.308221e-02
4.398673e+02	-3.346400e-02
4.424079e+02	-3.385017e-02
4.449633e+02	-3.424079e-02
4.475334e+02	-3.463589e-02
4.501183e+02	-3.503553e-02
4.527182e+02	-3.543977e-02
4.553330e+02	-3.584865e-02
4.579630e+02	-3.626222e-02
4.606082e+02	-3.668055e-02
4.632687e+02	-3.710369e-02
4.659445e+02	-3.753168e-02
4.686358e+02	-3.796459e-02
4.713426e+02	-3.840247e-02
4.740650e+02	-3.884538e-02
4.768032e+02	-3.929337e-02
4.795572e+02	-3.974651e-02
4.823271e+02	-4.020485e-02
4.851130e+02	-4.066845e-02
4.879150e+02	-4.113736e-02
4.907332e+02	-4.161166e-02
4.935676e+02	-4.209140e-02
4.964185e+02	-4.257665e-02
4.992858e+02	-4.306746e-02
5.021696e+02	-4.356390e-02
5.050701e+02	-4.406603e-02
5.079874e+02	-4.457393e-02
5.109215e+02	-4.508764e-02
5.138726e+02	-4.560724e-02
5.168407e+02	-4.613280e-02
5.198259e+02	-4.666439e-02
5.228284e+02	-4.720207e-02
5.258482e+02	-4.774590e-02
5.288855e+02	-4.829597e-02
5.319403e+02	-4.885234e-02
5.350128e+02	-4.941508e-02
5.381030e+02	-4.998427e-02
5.412111e+02	-5.055997e-02
5.443371e+02	-5.114227e-02
5.474812e+02	-5.173123e-02
5.506434e+02	-5.232694e-02
5.538239e+02	-5.292946e-02
5.570228e+02	-5.353888e-02
5.602401e+02	-5.415527e-02
5.634760e+02	-5.477871e-02
5.667306e+02	-5.540928e-02
5.700040e+02	-5.604706e-02
5.732964e+02	-5.669214e-02
5.766077e+02	-5.734460e-02
5.799382e+02	-5.800451e-02
5.832879e+02	-5.867196e-02
5.866569e+02	-5.934704e-02
5.900454e+02	-6.002984e-02
5.934535e+02	-6.072043e-02
5.968813e+02	-6.141892e-02
6.003288e+02	-6.212538e-02
6.037963e+02	-6.283991e-02
6.072838e+02	-6.356259e-02
6.107914e+02	-6.429353e-02
6.143194e+02	-6.503281e-02
6.178676e+02	-6.578052e-02
6.214364e+02	-6.653676e-02
6.250258e+02	-6.730164e-02
6.286359e+02	-6.807523e-02
6.322669e+02	-6.885765e-02
6.359189e+02	-6.964898e-02
6.395919e+02	-7.044934e-02
6.432862e+02	-7.125882e-02
6.470017e+02	-7.207752e-02
6.507388e+02	-7.290555e-02
6.544974e+02	-7.374301e-02
6.582778e+02	-7.459001e-02
6.620800e+02	-7.544665e-02
6.659041e+02	-7.631304e-02
6.697504e+02	-7.718929e-02
6.736188e+02	-7.807552e-02
6.775096e+02	-7.897182e-02
6.814229e+02	-7.987832e-02
6.853587e+02	-8.079513e-02
6.893173e+02	-8.172236e-02
6.932988e+02	-8.266014e-02
6.973033e+02	-8.360856e-02
7.013309e+02	-8.456777e-02
