Frequency(Hz)	Magnitude(dB)
1.000000e+01	-2.137236e+00
1.005776e+01	-2.156936e+00
1.011585e+01	-2.176878e+00
1.017428e+01	-2.196340e+00
1.023305e+01	-2.216485e+00
1.029215e+01	-2.236412e+00
1.035160e+01	-2.256838e+00
1.041139e+01	-2.277246e+00
1.047153e+01	-2.297506e+00
1.053201e+01	-2.318055e+00
1.059284e+01	-2.338809e+00
1.065403e+01	-2.359819e+00
1.071556e+01	-2.380757e+00
1.077746e+01	-2.401882e+00
1.083971e+01	-2.423263e+00
1.090232e+01	-2.444923e+00
1.096529e+01	-2.466498e+00
1.102862e+01	-2.488319e+00
1.109232e+01	-2.509988e+00
1.115639e+01	-2.532169e+00
1.122083e+01	-2.554302e+00
1.128564e+01	-2.576630e+00
1.135083e+01	-2.599152e+00
1.141639e+01	-2.621547e+00
1.148233e+01	-2.644293e+00
1.154865e+01	-2.667336e+00
1.161536e+01	-2.690259e+00
1.168245e+01	-2.713468e+00
1.174992e+01	-2.736752e+00
1.181779e+01	-2.760256e+00
1.188605e+01	-2.783724e+00
1.195470e+01	-2.807797e+00
1.202375e+01	-2.831472e+00
1.209320e+01	-2.855400e+00
1.216305e+01	-2.879647e+00
1.223330e+01	-2.903858e+00
1.230396e+01	-2.928590e+00
1.237503e+01	-2.952991e+00
1.244651e+01	-2.978028e+00
1.251840e+01	-3.002772e+00
1.259070e+01	-3.027828e+00
1.266343e+01	-3.052986e+00
1.273657e+01	-3.078209e+00
1.281014e+01	-3.103782e+00
1.288413e+01	-3.129287e+00
1.295855e+01	-3.155241e+00
1.303339e+01	-3.180782e+00
1.310867e+01	-3.207101e+00
1.318439e+01	-3.233221e+00
1.326054e+01	-3.259620e+00
1.333713e+01	-3.285992e+00
1.341417e+01	-3.312890e+00
1.349165e+01	-3.339537e+00
1.356958e+01	-3.366442e+00
1.364795e+01	-3.393529e+00
1.372678e+01	-3.420779e+00
1.380607e+01	-3.447818e+00
1.388581e+01	-3.475299e+00
1.396602e+01	-3.503313e+00
1.404668e+01	-3.530861e+00
1.412782e+01	-3.558559e+00
1.420942e+01	-3.586851e+00
1.429149e+01	-3.615149e+00
1.437404e+01	-3.643346e+00
1.445706e+01	-3.671668e+00
1.454057e+01	-3.700577e+00
1.462455e+01	-3.729284e+00
1.470902e+01	-3.757881e+00
1.479398e+01	-3.787080e+00
1.487943e+01	-3.816359e+00
1.496537e+01	-3.845737e+00
1.505181e+01	-3.875047e+00
1.513875e+01	-3.904509e+00
1.522619e+01	-3.934583e+00
1.531414e+01	-3.964463e+00
1.540259e+01	-3.994439e+00
1.549156e+01	-4.024531e+00
1.558103e+01	-4.054644e+00
1.567103e+01	-4.085263e+00
1.576155e+01	-4.115660e+00
1.585258e+01	-4.146489e+00
1.594415e+01	-4.177244e+00
1.603624e+01	-4.208297e+00
1.612886e+01	-4.239488e+00
1.622202e+01	-4.270545e+00
1.631572e+01	-4.302060e+00
1.640996e+01	-4.333602e+00
1.650474e+01	-4.365203e+00
1.660008e+01	-4.396974e+00
1.669596e+01	-4.428802e+00
1.679239e+01	-4.460882e+00
1.688938e+01	-4.493049e+00
1.698694e+01	-4.525616e+00
1.708505e+01	-4.558104e+00
1.718373e+01	-4.590664e+00
1.728299e+01	-4.623343e+00
1.738281e+01	-4.656086e+00
1.748322e+01	-4.689178e+00
1.758420e+01	-4.721693e+00
1.768576e+01	-4.755636e+00
1.778792e+01	-4.788826e+00
1.789066e+01	-4.822127e+00
1.799399e+01	-4.855637e+00
1.809793e+01	-4.889226e+00
1.820246e+01	-4.923415e+00
1.830760e+01	-4.957210e+00
1.841334e+01	-4.991564e+00
1.851969e+01	-5.025750e+00
1.862666e+01	-5.060147e+00
1.873425e+01	-5.094496e+00
1.884246e+01	-5.129037e+00
1.895129e+01	-5.163850e+00
1.906075e+01	-5.198505e+00
1.917085e+01	-5.233585e+00
1.928158e+01	-5.268893e+00
1.939295e+01	-5.303977e+00
1.950496e+01	-5.339348e+00
1.961762e+01	-5.374849e+00
1.973093e+01	-5.410607e+00
1.984490e+01	-5.446256e+00
1.995952e+01	-5.482021e+00
2.007480e+01	-5.517799e+00
2.019076e+01	-5.553744e+00
2.030738e+01	-5.589867e+00
2.042467e+01	-5.626668e+00
2.054264e+01	-5.662622e+00
2.066130e+01	-5.699277e+00
2.078064e+01	-5.735698e+00
2.090066e+01	-5.772262e+00
2.102139e+01	-5.809175e+00
2.114280e+01	-5.846236e+00
2.126492e+01	-5.883045e+00
2.138775e+01	-5.920365e+00
2.151128e+01	-5.957875e+00
2.163553e+01	-5.994902e+00
2.176050e+01	-6.033265e+00
2.188619e+01	-6.070175e+00
2.201260e+01	-6.108027e+00
2.213974e+01	-6.146011e+00
2.226762e+01	-6.183661e+00
2.239624e+01	-6.221939e+00
2.252560e+01	-6.259862e+00
2.265571e+01	-6.298385e+00
2.278656e+01	-6.336228e+00
2.291818e+01	-6.374624e+00
2.305055e+01	-6.413588e+00
2.318369e+01	-6.452083e+00
2.331760e+01	-6.490983e+00
2.345228e+01	-6.529653e+00
2.358774e+01	-6.568469e+00
2.372398e+01	-6.607666e+00
2.386101e+01	-6.647206e+00
2.399883e+01	-6.686378e+00
2.413745e+01	-6.724993e+00
2.427686e+01	-6.764823e+00
2.441709e+01	-6.804206e+00
2.455812e+01	-6.844031e+00
2.469997e+01	-6.883755e+00
2.484263e+01	-6.923751e+00
2.498612e+01	-6.963508e+00
2.513044e+01	-7.003570e+00
2.527559e+01	-7.043344e+00
2.542158e+01	-7.083723e+00
2.556842e+01	-7.124127e+00
2.571610e+01	-7.164327e+00
2.586463e+01	-7.205084e+00
2.601403e+01	-7.245314e+00
2.616428e+01	-7.286357e+00
2.631541e+01	-7.327249e+00
2.646740e+01	-7.368010e+00
2.662028e+01	-7.408710e+00
2.677404e+01	-7.449236e+00
2.692868e+01	-7.490528e+00
2.708422e+01	-7.531810e+00
2.724066e+01	-7.573141e+00
2.739800e+01	-7.614205e+00
2.755625e+01	-7.656039e+00
2.771541e+01	-7.697225e+00
2.787550e+01	-7.738588e+00
2.803650e+01	-7.780089e+00
2.819844e+01	-7.822208e+00
2.836131e+01	-7.863693e+00
2.852513e+01	-7.905656e+00
2.868989e+01	-7.947945e+00
2.885560e+01	-7.989727e+00
2.902227e+01	-8.032208e+00
2.918990e+01	-8.074025e+00
2.935850e+01	-8.116730e+00
2.952807e+01	-8.159077e+00
2.969863e+01	-8.201652e+00
2.987016e+01	-8.243637e+00
3.004269e+01	-8.286444e+00
3.021622e+01	-8.328807e+00
3.039075e+01	-8.371516e+00
3.056628e+01	-8.414369e+00
3.074283e+01	-8.457450e+00
3.092040e+01	-8.500344e+00
3.109900e+01	-8.542981e+00
3.127862e+01	-8.586260e+00
3.145929e+01	-8.629281e+00
3.164099e+01	-8.672682e+00
3.182375e+01	-8.716008e+00
3.200756e+01	-8.758989e+00
3.219244e+01	-8.802619e+00
3.237838e+01	-8.845674e+00
3.256540e+01	-8.889840e+00
3.275349e+01	-8.933242e+00
3.294268e+01	-8.976565e+00
3.313295e+01	-9.020702e+00
3.332433e+01	-9.064498e+00
3.351681e+01	-9.107937e+00
3.371040e+01	-9.151962e+00
3.390511e+01	-9.196361e+00
3.410094e+01	-9.240665e+00
3.429791e+01	-9.284045e+00
3.449601e+01	-9.328430e+00
3.469526e+01	-9.373063e+00
3.489566e+01	-9.416834e+00
3.509721e+01	-9.461224e+00
3.529993e+01	-9.505428e+00
3.550382e+01	-9.550039e+00
3.570889e+01	-9.594393e+00
3.591515e+01	-9.639241e+00
3.612259e+01	-9.683659e+00
3.633123e+01	-9.728517e+00
3.654108e+01	-9.773314e+00
3.675214e+01	-9.817904e+00
3.696442e+01	-9.862834e+00
3.717792e+01	-9.907422e+00
3.739266e+01	-9.952160e+00
3.760864e+01	-9.998248e+00
3.782587e+01	-1.004210e+01
3.804435e+01	-1.008794e+01
3.826409e+01	-1.013256e+01
3.848510e+01	-1.017789e+01
3.870739e+01	-1.022311e+01
3.893096e+01	-1.026873e+01
3.915583e+01	-1.031421e+01
3.938199e+01	-1.035884e+01
3.960946e+01	-1.040473e+01
3.983824e+01	-1.045029e+01
4.006834e+01	-1.049514e+01
4.029978e+01	-1.054173e+01
4.053255e+01	-1.058702e+01
4.076666e+01	-1.063242e+01
4.100213e+01	-1.067824e+01
4.123896e+01	-1.072479e+01
4.147715e+01	-1.077033e+01
4.171672e+01	-1.081534e+01
4.195767e+01	-1.086176e+01
4.220002e+01	-1.090834e+01
4.244377e+01	-1.095389e+01
4.268892e+01	-1.100029e+01
4.293549e+01	-1.104624e+01
4.318348e+01	-1.109173e+01
4.343291e+01	-1.113800e+01
4.368377e+01	-1.118393e+01
4.393609e+01	-1.123081e+01
4.418986e+01	-1.127743e+01
4.444510e+01	-1.132322e+01
4.470182e+01	-1.136994e+01
4.496001e+01	-1.141537e+01
4.521970e+01	-1.146221e+01
4.548089e+01	-1.150928e+01
4.574358e+01	-1.155504e+01
4.600779e+01	-1.160115e+01
4.627353e+01	-1.164820e+01
4.654081e+01	-1.169454e+01
4.680963e+01	-1.174179e+01
4.708000e+01	-1.178855e+01
4.735193e+01	-1.183495e+01
4.762543e+01	-1.188190e+01
4.790051e+01	-1.192873e+01
4.817719e+01	-1.197555e+01
4.845545e+01	-1.202226e+01
4.873533e+01	-1.206935e+01
4.901682e+01	-1.211587e+01
4.929994e+01	-1.216415e+01
4.958470e+01	-1.220978e+01
4.987110e+01	-1.225739e+01
5.015915e+01	-1.230414e+01
5.044887e+01	-1.235189e+01
5.074026e+01	-1.239836e+01
5.103333e+01	-1.244562e+01
5.132810e+01	-1.249290e+01
5.162457e+01	-1.254027e+01
5.192275e+01	-1.258743e+01
5.222265e+01	-1.263476e+01
5.252429e+01	-1.268251e+01
5.282767e+01	-1.272932e+01
5.313280e+01	-1.277678e+01
5.343969e+01	-1.282403e+01
5.374836e+01	-1.287194e+01
5.405880e+01	-1.291897e+01
5.437105e+01	-1.296689e+01
5.468509e+01	-1.301382e+01
5.500095e+01	-1.306157e+01
5.531863e+01	-1.310879e+01
5.563815e+01	-1.315705e+01
5.595951e+01	-1.320425e+01
5.628273e+01	-1.325214e+01
5.660782e+01	-1.329997e+01
5.693479e+01	-1.334722e+01
5.726364e+01	-1.339538e+01
5.759439e+01	-1.344260e+01
5.792705e+01	-1.349049e+01
5.826164e+01	-1.353799e+01
5.859815e+01	-1.358694e+01
5.893662e+01	-1.363479e+01
5.927703e+01	-1.368213e+01
5.961941e+01	-1.373011e+01
5.996377e+01	-1.377790e+01
6.031012e+01	-1.382611e+01
6.065847e+01	-1.387404e+01
6.100883e+01	-1.392149e+01
6.136121e+01	-1.396942e+01
6.171563e+01	-1.401689e+01
6.207210e+01	-1.406615e+01
6.243063e+01	-1.411391e+01
6.279122e+01	-1.416143e+01
6.315390e+01	-1.421063e+01
6.351868e+01	-1.425804e+01
6.388556e+01	-1.430703e+01
6.425456e+01	-1.435515e+01
6.462569e+01	-1.440267e+01
6.499897e+01	-1.445199e+01
6.537440e+01	-1.449873e+01
6.575200e+01	-1.454754e+01
6.613178e+01	-1.459563e+01
6.651375e+01	-1.464455e+01
6.689793e+01	-1.469220e+01
6.728433e+01	-1.474011e+01
6.767297e+01	-1.478906e+01
6.806384e+01	-1.483771e+01
6.845698e+01	-1.488620e+01
6.885238e+01	-1.493407e+01
6.925007e+01	-1.498159e+01
6.965005e+01	-1.503067e+01
7.005235e+01	-1.507994e+01
7.045697e+01	-1.512717e+01
7.086393e+01	-1.517698e+01
7.127323e+01	-1.522514e+01
7.168490e+01	-1.527329e+01
7.209895e+01	-1.532021e+01
7.251539e+01	-1.537153e+01
7.293424e+01	-1.541935e+01
7.335551e+01	-1.546681e+01
7.377920e+01	-1.551618e+01
7.420535e+01	-1.556448e+01
7.463396e+01	-1.561430e+01
7.506504e+01	-1.566285e+01
7.549861e+01	-1.571101e+01
7.593469e+01	-1.575936e+01
7.637328e+01	-1.580835e+01
7.681441e+01	-1.585741e+01
7.725809e+01	-1.590686e+01
7.770433e+01	-1.595502e+01
7.815315e+01	-1.600327e+01
7.860456e+01	-1.605250e+01
7.905857e+01	-1.610172e+01
7.951521e+01	-1.614979e+01
7.997449e+01	-1.619892e+01
8.043642e+01	-1.624751e+01
8.090102e+01	-1.629736e+01
8.136830e+01	-1.634591e+01
8.183828e+01	-1.639439e+01
8.231097e+01	-1.644372e+01
8.278640e+01	-1.649220e+01
8.326457e+01	-1.654060e+01
8.374550e+01	-1.658993e+01
8.422921e+01	-1.663813e+01
8.471572e+01	-1.668760e+01
8.520503e+01	-1.673697e+01
8.569717e+01	-1.678614e+01
8.619215e+01	-1.683493e+01
8.669000e+01	-1.688345e+01
8.719071e+01	-1.693219e+01
8.769432e+01	-1.698219e+01
8.820084e+01	-1.703125e+01
8.871029e+01	-1.707966e+01
8.922267e+01	-1.712843e+01
8.973802e+01	-1.717781e+01
9.025634e+01	-1.722621e+01
9.077766e+01	-1.727642e+01
9.130199e+01	-1.732514e+01
9.182935e+01	-1.737397e+01
9.235975e+01	-1.742329e+01
9.289321e+01	-1.747203e+01
9.342976e+01	-1.752191e+01
9.396941e+01	-1.757045e+01
9.451217e+01	-1.762060e+01
9.505807e+01	-1.766880e+01
9.560712e+01	-1.771820e+01
9.615934e+01	-1.776765e+01
9.671476e+01	-1.781692e+01
9.727338e+01	-1.786488e+01
9.783522e+01	-1.791596e+01
9.840032e+01	-1.796447e+01
9.896867e+01	-1.801352e+01
9.954031e+01	-1.806299e+01
1.001153e+02	-1.811154e+01
1.006935e+02	-1.816220e+01
1.012751e+02	-1.821220e+01
1.018601e+02	-1.825950e+01
1.024484e+02	-1.830877e+01
1.030402e+02	-1.835833e+01
1.036353e+02	-1.840860e+01
1.042339e+02	-1.845805e+01
1.048360e+02	-1.850591e+01
1.054415e+02	-1.855502e+01
1.060505e+02	-1.860563e+01
1.066631e+02	-1.865563e+01
1.072791e+02	-1.870329e+01
1.078988e+02	-1.875403e+01
1.085220e+02	-1.880208e+01
1.091488e+02	-1.885092e+01
1.097793e+02	-1.890092e+01
1.104133e+02	-1.895041e+01
1.110511e+02	-1.900000e+01
1.116925e+02	-1.905131e+01
1.123376e+02	-1.910072e+01
1.129865e+02	-1.914858e+01
1.136391e+02	-1.919760e+01
1.142955e+02	-1.924668e+01
1.149556e+02	-1.929681e+01
1.156196e+02	-1.934461e+01
1.162874e+02	-1.939616e+01
1.169591e+02	-1.944487e+01
1.176347e+02	-1.949381e+01
1.183141e+02	-1.954648e+01
1.189975e+02	-1.959352e+01
1.196848e+02	-1.964386e+01
1.203761e+02	-1.969303e+01
1.210714e+02	-1.974215e+01
1.217707e+02	-1.979110e+01
1.224740e+02	-1.984076e+01
1.231814e+02	-1.989077e+01
1.238929e+02	-1.994075e+01
1.246085e+02	-1.999014e+01
1.253283e+02	-2.003950e+01
1.260522e+02	-2.008694e+01
1.267802e+02	-2.013804e+01
1.275125e+02	-2.018672e+01
1.282490e+02	-2.023725e+01
1.289898e+02	-2.028575e+01
1.297348e+02	-2.033647e+01
1.304842e+02	-2.038692e+01
1.312378e+02	-2.043572e+01
1.319959e+02	-2.048548e+01
1.327583e+02	-2.053440e+01
1.335251e+02	-2.058556e+01
1.342963e+02	-2.063444e+01
1.350720e+02	-2.068446e+01
1.358522e+02	-2.073370e+01
1.366368e+02	-2.078355e+01
1.374260e+02	-2.083358e+01
1.382198e+02	-2.088293e+01
1.390182e+02	-2.093225e+01
1.398211e+02	-2.098288e+01
1.406287e+02	-2.103077e+01
1.414410e+02	-2.108044e+01
1.422579e+02	-2.113031e+01
1.430796e+02	-2.118054e+01
1.439060e+02	-2.123094e+01
1.447372e+02	-2.128091e+01
1.455732e+02	-2.133135e+01
1.464141e+02	-2.137905e+01
1.472597e+02	-2.142867e+01
1.481103e+02	-2.147887e+01
1.489658e+02	-2.152750e+01
1.498262e+02	-2.157718e+01
1.506916e+02	-2.162797e+01
1.515620e+02	-2.167612e+01
1.524374e+02	-2.172508e+01
1.533179e+02	-2.177561e+01
1.542034e+02	-2.182533e+01
1.550941e+02	-2.187595e+01
1.559899e+02	-2.192543e+01
1.568909e+02	-2.197644e+01
1.577971e+02	-2.202601e+01
1.587085e+02	-2.207683e+01
1.596252e+02	-2.212376e+01
1.605472e+02	-2.217584e+01
1.614745e+02	-2.222449e+01
1.624072e+02	-2.227512e+01
1.633453e+02	-2.232364e+01
1.642887e+02	-2.237292e+01
1.652377e+02	-2.242440e+01
1.661921e+02	-2.247214e+01
1.671520e+02	-2.252320e+01
1.681175e+02	-2.257152e+01
1.690885e+02	-2.262115e+01
1.700651e+02	-2.266828e+01
1.710474e+02	-2.272353e+01
1.720354e+02	-2.277320e+01
1.730291e+02	-2.282359e+01
1.740285e+02	-2.287090e+01
1.750337e+02	-2.292150e+01
1.760446e+02	-2.297186e+01
1.770615e+02	-2.301945e+01
1.780842e+02	-2.307002e+01
1.791128e+02	-2.311855e+01
1.801473e+02	-2.316947e+01
1.811878e+02	-2.322036e+01
1.822344e+02	-2.327023e+01
1.832870e+02	-2.331899e+01
1.843456e+02	-2.336857e+01
1.854104e+02	-2.341832e+01
1.864813e+02	-2.347056e+01
1.875584e+02	-2.351929e+01
1.886418e+02	-2.357050e+01
1.897313e+02	-2.361807e+01
1.908272e+02	-2.367004e+01
1.919294e+02	-2.371841e+01
1.930380e+02	-2.376750e+01
1.941530e+02	-2.381705e+01
1.952744e+02	-2.386919e+01
1.964023e+02	-2.391800e+01
1.975367e+02	-2.396756e+01
1.986777e+02	-2.401706e+01
1.998252e+02	-2.406666e+01
2.009794e+02	-2.411800e+01
2.021403e+02	-2.416677e+01
2.033078e+02	-2.421522e+01
2.044821e+02	-2.426626e+01
2.056632e+02	-2.431653e+01
2.068511e+02	-2.436716e+01
2.080459e+02	-2.441486e+01
2.092475e+02	-2.446715e+01
2.104561e+02	-2.451498e+01
2.116717e+02	-2.456664e+01
2.128943e+02	-2.461478e+01
2.141240e+02	-2.466692e+01
2.153608e+02	-2.471635e+01
2.166047e+02	-2.476241e+01
2.178558e+02	-2.481347e+01
2.191141e+02	-2.486519e+01
2.203797e+02	-2.491461e+01
2.216526e+02	-2.496359e+01
2.229329e+02	-2.501367e+01
2.242205e+02	-2.506261e+01
2.255156e+02	-2.511509e+01
2.268182e+02	-2.516401e+01
2.281283e+02	-2.521121e+01
2.294459e+02	-2.526552e+01
2.307712e+02	-2.531271e+01
2.321041e+02	-2.536587e+01
2.334447e+02	-2.541569e+01
2.347931e+02	-2.546188e+01
2.361493e+02	-2.551562e+01
2.375133e+02	-2.556221e+01
2.388851e+02	-2.561425e+01
2.402649e+02	-2.566383e+01
2.416527e+02	-2.571619e+01
2.430484e+02	-2.576191e+01
2.444523e+02	-2.581462e+01
2.458642e+02	-2.586485e+01
2.472843e+02	-2.591517e+01
2.487126e+02	-2.596353e+01
2.501492e+02	-2.601000e+01
2.515940e+02	-2.606310e+01
2.530472e+02	-2.611012e+01
2.545088e+02	-2.616858e+01
2.559789e+02	-2.621123e+01
2.574574e+02	-2.626072e+01
2.589444e+02	-2.631602e+01
2.604401e+02	-2.636310e+01
2.619444e+02	-2.641505e+01
2.634574e+02	-2.646237e+01
2.649791e+02	-2.651297e+01
2.665096e+02	-2.656350e+01
2.680489e+02	-2.661277e+01
2.695972e+02	-2.666273e+01
2.711544e+02	-2.671127e+01
2.727205e+02	-2.676099e+01
2.742958e+02	-2.681265e+01
2.758801e+02	-2.686326e+01
2.774736e+02	-2.691343e+01
2.790762e+02	-2.696225e+01
2.806882e+02	-2.701434e+01
2.823094e+02	-2.705918e+01
2.839400e+02	-2.711477e+01
2.855800e+02	-2.715972e+01
2.872295e+02	-2.721284e+01
2.888886e+02	-2.725918e+01
2.905572e+02	-2.731134e+01
2.922354e+02	-2.736553e+01
2.939234e+02	-2.741226e+01
2.956211e+02	-2.746560e+01
2.973286e+02	-2.751306e+01
2.990459e+02	-2.756179e+01
3.007732e+02	-2.761258e+01
3.025104e+02	-2.766471e+01
3.042577e+02	-2.771213e+01
3.060151e+02	-2.776149e+01
3.077826e+02	-2.781231e+01
3.095604e+02	-2.786351e+01
3.113484e+02	-2.791217e+01
3.131467e+02	-2.796303e+01
3.149554e+02	-2.801637e+01
3.167746e+02	-2.806225e+01
3.186043e+02	-2.811482e+01
3.204445e+02	-2.816427e+01
3.222954e+02	-2.821782e+01
3.241570e+02	-2.826125e+01
3.260293e+02	-2.831129e+01
3.279124e+02	-2.836123e+01
3.298064e+02	-2.841561e+01
3.317114e+02	-2.846285e+01
3.336273e+02	-2.851360e+01
3.355544e+02	-2.856548e+01
3.374925e+02	-2.861343e+01
3.394418e+02	-2.866262e+01
3.414024e+02	-2.871695e+01
3.433744e+02	-2.876323e+01
3.453577e+02	-2.881546e+01
3.473525e+02	-2.886471e+01
3.493588e+02	-2.891695e+01
3.513766e+02	-2.896758e+01
3.534062e+02	-2.901420e+01
3.554474e+02	-2.906192e+01
3.575005e+02	-2.911646e+01
3.595654e+02	-2.916738e+01
3.616422e+02	-2.921481e+01
3.637311e+02	-2.926873e+01
3.658320e+02	-2.931270e+01
3.679450e+02	-2.936309e+01
3.700702e+02	-2.941955e+01
3.722077e+02	-2.946924e+01
3.743576e+02	-2.951630e+01
3.765199e+02	-2.956626e+01
3.786946e+02	-2.961549e+01
3.808820e+02	-2.966760e+01
3.830819e+02	-2.971228e+01
3.852946e+02	-2.976531e+01
3.875200e+02	-2.981633e+01
3.897583e+02	-2.986647e+01
3.920096e+02	-2.991254e+01
3.942738e+02	-2.997151e+01
3.965511e+02	-3.001689e+01
3.988416e+02	-3.006497e+01
4.011452e+02	-3.012123e+01
4.034622e+02	-3.016331e+01
4.057926e+02	-3.021724e+01
4.081365e+02	-3.026502e+01
4.104938e+02	-3.031655e+01
4.128648e+02	-3.037061e+01
4.152495e+02	-3.042183e+01
4.176480e+02	-3.046501e+01
4.200603e+02	-3.051672e+01
4.224866e+02	-3.056449e+01
4.249268e+02	-3.061739e+01
4.273812e+02	-3.066510e+01
4.298497e+02	-3.071842e+01
4.323325e+02	-3.076830e+01
4.348297e+02	-3.081846e+01
4.373412e+02	-3.086571e+01
4.398673e+02	-3.092162e+01
4.424079e+02	-3.096885e+01
4.449633e+02	-3.101981e+01
4.475334e+02	-3.106895e+01
4.501183e+02	-3.112177e+01
4.527182e+02	-3.116779e+01
4.553330e+02	-3.122344e+01
4.579630e+02	-3.127445e+01
4.606082e+02	-3.132011e+01
4.632687e+02	-3.136343e+01
4.659445e+02	-3.142417e+01
4.686358e+02	-3.146753e+01
4.713426e+02	-3.152145e+01
4.740650e+02	-3.157081e+01
4.768032e+02	-3.162060e+01
4.795572e+02	-3.167579e+01
4.823271e+02	-3.172305e+01
4.851130e+02	-3.177174e+01
4.879150e+02	-3.182679e+01
4.907332e+02	-3.186976e+01
4.935676e+02	-3.191890e+01
4.964185e+02	-3.196802e+01
4.992858e+02	-3.202062e+01
5.021696e+02	-3.207519e+01
5.050701e+02	-3.212425e+01
5.079874e+02	-3.217100e+01
5.109215e+02	-3.223032e+01
5.138726e+02	-3.227280e+01
5.168407e+02	-3.231906e+01
5.198259e+02	-3.236975e+01
5.228284e+02	-3.242320e+01
5.258482e+02	-3.247765e+01
5.288855e+02	-3.252259e+01
5.319403e+02	-3.257290e+01
5.350128e+02	-3.262431e+01
5.381030e+02	-3.268031e+01
5.412111e+02	-3.272536e+01
5.443371e+02	-3.277305e+01
5.474812e+02	-3.282456e+01
5.506434e+02	-3.288047e+01
5.538239e+02	-3.293036e+01
5.570228e+02	-3.297109e+01
5.602401e+02	-3.303307e+01
5.634760e+02	-3.307036e+01
5.667306e+02	-3.312745e+01
5.700040e+02	-3.318058e+01
5.732964e+02	-3.322873e+01
5.766077e+02	-3.327812e+01
5.799382e+02	-3.332267e+01
5.832879e+02	-3.337807e+01
5.866569e+02	-3.343236e+01
5.900454e+02	-3.347592e+01
5.934535e+02	-3.353273e+01
5.968813e+02	-3.358563e+01
6.003288e+02	-3.363046e+01
6.037963e+02	-3.367881e+01
6.072838e+02	-3.373692e+01
6.107914e+02	-3.378536e+01
6.143194e+02	-3.383090e+01
6.178676e+02	-3.388292e+01
6.214364e+02	-3.393015e+01
6.250258e+02	-3.398860e+01
6.286359e+02	-3.403048e+01
6.322669e+02	-3.408776e+01
6.359189e+02	-3.414301e+01
6.395919e+02	-3.418387e+01
6.432862e+02	-3.423412e+01
6.470017e+02	-3.428606e+01
6.507388e+02	-3.433290e+01
6.544974e+02	-3.437779e+01
6.582778e+02	-3.443300e+01
6.620800e+02	-3.448861e+01
6.659041e+02	-3.453524e+01
6.697504e+02	-3.458915e+01
6.736188e+02	-3.464444e+01
6.775096e+02	-3.468951e+01
6.814229e+02	-3.473700e+01
6.853587e+02	-3.479077e+01
6.893173e+02	-3.484116e+01
6.932988e+02	-3.488936e+01
6.973033e+02	-3.493854e+01
7.013309e+02	-3.499244e+01
