Frequency(Hz)	Magnitude(dB)
1.000000e+01	-1.675265e-05
1.005776e+01	-1.694673e-05
1.011585e+01	-1.714306e-05
1.017428e+01	-1.734167e-05
1.023305e+01	-1.754258e-05
1.029215e+01	-1.774581e-05
1.035160e+01	-1.795140e-05
1.041139e+01	-1.815937e-05
1.047153e+01	-1.836976e-05
1.053201e+01	-1.858257e-05
1.059284e+01	-1.879786e-05
1.065403e+01	-1.901564e-05
1.071556e+01	-1.923594e-05
1.077746e+01	-1.945879e-05
1.083971e+01	-1.968422e-05
1.090232e+01	-1.991227e-05
1.096529e+01	-2.014296e-05
1.102862e+01	-2.037632e-05
1.109232e+01	-2.061239e-05
1.115639e+01	-2.085119e-05
1.122083e+01	-2.109275e-05
1.128564e+01	-2.133712e-05
1.135083e+01	-2.158431e-05
1.141639e+01	-2.183437e-05
1.148233e+01	-2.208733e-05
1.154865e+01	-2.234322e-05
1.161536e+01	-2.260207e-05
1.168245e+01	-2.286392e-05
1.174992e+01	-2.312880e-05
1.181779e+01	-2.339676e-05
1.188605e+01	-2.366781e-05
1.195470e+01	-2.394201e-05
1.202375e+01	-2.421938e-05
1.209320e+01	-2.449997e-05
1.216305e+01	-2.478381e-05
1.223330e+01	-2.507094e-05
1.230396e+01	-2.536139e-05
1.237503e+01	-2.565521e-05
1.244651e+01	-2.595243e-05
1.251840e+01	-2.625310e-05
1.259070e+01	-2.655724e-05
1.266343e+01	-2.686492e-05
1.273657e+01	-2.717615e-05
1.281014e+01	-2.749099e-05
1.288413e+01	-2.780948e-05
1.295855e+01	-2.813166e-05
1.303339e+01	-2.845758e-05
1.310867e+01	-2.878726e-05
1.318439e+01	-2.912077e-05
1.326054e+01	-2.945814e-05
1.333713e+01	-2.979942e-05
1.341417e+01	-3.014466e-05
1.349165e+01	-3.049389e-05
1.356958e+01	-3.084717e-05
1.364795e+01	-3.120454e-05
1.372678e+01	-3.156605e-05
1.380607e+01	-3.193175e-05
1.388581e+01	-3.230169e-05
1.396602e+01	-3.267591e-05
1.404668e+01	-3.305447e-05
1.412782e+01	-3.343741e-05
1.420942e+01	-3.382479e-05
1.429149e+01	-3.421666e-05
1.437404e+01	-3.461307e-05
1.445706e+01	-3.501407e-05
1.454057e+01	-3.541972e-05
1.462455e+01	-3.583006e-05
1.470902e+01	-3.624516e-05
1.479398e+01	-3.666507e-05
1.487943e+01	-3.708984e-05
1.496537e+01	-3.751954e-05
1.505181e+01	-3.795421e-05
1.513875e+01	-3.839392e-05
1.522619e+01	-3.883872e-05
1.531414e+01	-3.928868e-05
1.540259e+01	-3.974384e-05
1.549156e+01	-4.020429e-05
1.558103e+01	-4.067006e-05
1.567103e+01	-4.114123e-05
1.576155e+01	-4.161786e-05
1.585258e+01	-4.210002e-05
1.594415e+01	-4.258775e-05
1.603624e+01	-4.308114e-05
1.612886e+01	-4.358025e-05
1.622202e+01	-4.408513e-05
1.631572e+01	-4.459587e-05
1.640996e+01	-4.511252e-05
1.650474e+01	-4.563516e-05
1.660008e+01	-4.616386e-05
1.669596e+01	-4.669867e-05
1.679239e+01	-4.723969e-05
1.688938e+01	-4.778697e-05
1.698694e+01	-4.834059e-05
1.708505e+01	-4.890063e-05
1.718373e+01	-4.946715e-05
1.728299e+01	-5.004024e-05
1.738281e+01	-5.061997e-05
1.748322e+01	-5.120641e-05
1.758420e+01	-5.179965e-05
1.768576e+01	-5.239976e-05
1.778792e+01	-5.300682e-05
1.789066e+01	-5.362091e-05
1.799399e+01	-5.424212e-05
1.809793e+01	-5.487053e-05
1.820246e+01	-5.550622e-05
1.830760e+01	-5.614927e-05
1.841334e+01	-5.679977e-05
1.851969e+01	-5.745780e-05
1.862666e+01	-5.812346e-05
1.873425e+01	-5.879684e-05
1.884246e+01	-5.947801e-05
1.895129e+01	-6.016707e-05
1.906075e+01	-6.086412e-05
1.917085e+01	-6.156924e-05
1.928158e+01	-6.228254e-05
1.939295e+01	-6.300409e-05
1.950496e+01	-6.373401e-05
1.961762e+01	-6.447238e-05
1.973093e+01	-6.521930e-05
1.984490e+01	-6.597488e-05
1.995952e+01	-6.673921e-05
2.007480e+01	-6.751240e-05
2.019076e+01	-6.829454e-05
2.030738e+01	-6.908575e-05
2.042467e+01	-6.988612e-05
2.054264e+01	-7.069576e-05
2.066130e+01	-7.151479e-05
2.078064e+01	-7.234330e-05
2.090066e+01	-7.318141e-05
2.102139e+01	-7.402923e-05
2.114280e+01	-7.488687e-05
2.126492e+01	-7.575445e-05
2.138775e+01	-7.663208e-05
2.151128e+01	-7.751987e-05
2.163553e+01	-7.841795e-05
2.176050e+01	-7.932644e-05
2.188619e+01	-8.024545e-05
2.201260e+01	-8.117511e-05
2.213974e+01	-8.211553e-05
2.226762e+01	-8.306686e-05
2.239624e+01	-8.402920e-05
2.252560e+01	-8.500269e-05
2.265571e+01	-8.598746e-05
2.278656e+01	-8.698364e-05
2.291818e+01	-8.799136e-05
2.305055e+01	-8.901076e-05
2.318369e+01	-9.004196e-05
2.331760e+01	-9.108511e-05
2.345228e+01	-9.214034e-05
2.358774e+01	-9.320781e-05
2.372398e+01	-9.428763e-05
2.386101e+01	-9.537997e-05
2.399883e+01	-9.648496e-05
2.413745e+01	-9.760275e-05
2.427686e+01	-9.873349e-05
2.441709e+01	-9.987734e-05
2.455812e+01	-1.010344e-04
2.469997e+01	-1.022049e-04
2.484263e+01	-1.033890e-04
2.498612e+01	-1.045868e-04
2.513044e+01	-1.057984e-04
2.527559e+01	-1.070241e-04
2.542158e+01	-1.082640e-04
2.556842e+01	-1.095182e-04
2.571610e+01	-1.107870e-04
2.586463e+01	-1.120705e-04
2.601403e+01	-1.133689e-04
2.616428e+01	-1.146823e-04
2.631541e+01	-1.160109e-04
2.646740e+01	-1.173549e-04
2.662028e+01	-1.187144e-04
2.677404e+01	-1.200898e-04
2.692868e+01	-1.214810e-04
2.708422e+01	-1.228884e-04
2.724066e+01	-1.243121e-04
2.739800e+01	-1.257522e-04
2.755625e+01	-1.272091e-04
2.771541e+01	-1.286828e-04
2.787550e+01	-1.301736e-04
2.803650e+01	-1.316817e-04
2.819844e+01	-1.332072e-04
2.836131e+01	-1.347505e-04
2.852513e+01	-1.363115e-04
2.868989e+01	-1.378907e-04
2.885560e+01	-1.394882e-04
2.902227e+01	-1.411042e-04
2.918990e+01	-1.427389e-04
2.935850e+01	-1.443925e-04
2.952807e+01	-1.460653e-04
2.969863e+01	-1.477575e-04
2.987016e+01	-1.494693e-04
3.004269e+01	-1.512009e-04
3.021622e+01	-1.529526e-04
3.039075e+01	-1.547246e-04
3.056628e+01	-1.565170e-04
3.074283e+01	-1.583303e-04
3.092040e+01	-1.601646e-04
3.109900e+01	-1.620201e-04
3.127862e+01	-1.638971e-04
3.145929e+01	-1.657959e-04
3.164099e+01	-1.677166e-04
3.182375e+01	-1.696596e-04
3.200756e+01	-1.716251e-04
3.219244e+01	-1.736134e-04
3.237838e+01	-1.756247e-04
3.256540e+01	-1.776594e-04
3.275349e+01	-1.797176e-04
3.294268e+01	-1.817996e-04
3.313295e+01	-1.839057e-04
3.332433e+01	-1.860363e-04
3.351681e+01	-1.881915e-04
3.371040e+01	-1.903717e-04
3.390511e+01	-1.925772e-04
3.410094e+01	-1.948082e-04
3.429791e+01	-1.970651e-04
3.449601e+01	-1.993481e-04
3.469526e+01	-2.016575e-04
3.489566e+01	-2.039937e-04
3.509721e+01	-2.063570e-04
3.529993e+01	-2.087476e-04
3.550382e+01	-2.111660e-04
3.570889e+01	-2.136123e-04
3.591515e+01	-2.160870e-04
3.612259e+01	-2.185904e-04
3.633123e+01	-2.211228e-04
3.654108e+01	-2.236845e-04
3.675214e+01	-2.262758e-04
3.696442e+01	-2.288972e-04
3.717792e+01	-2.315490e-04
3.739266e+01	-2.342315e-04
3.760864e+01	-2.369451e-04
3.782587e+01	-2.396901e-04
3.804435e+01	-2.424669e-04
3.826409e+01	-2.452758e-04
3.848510e+01	-2.481173e-04
3.870739e+01	-2.509918e-04
3.893096e+01	-2.538995e-04
3.915583e+01	-2.568409e-04
3.938199e+01	-2.598164e-04
3.960946e+01	-2.628263e-04
3.983824e+01	-2.658711e-04
4.006834e+01	-2.689512e-04
4.029978e+01	-2.720670e-04
4.053255e+01	-2.752189e-04
4.076666e+01	-2.784073e-04
4.100213e+01	-2.816326e-04
4.123896e+01	-2.848953e-04
4.147715e+01	-2.881958e-04
4.171672e+01	-2.915345e-04
4.195767e+01	-2.949119e-04
4.220002e+01	-2.983284e-04
4.244377e+01	-3.017845e-04
4.268892e+01	-3.052806e-04
4.293549e+01	-3.088173e-04
4.318348e+01	-3.123949e-04
4.343291e+01	-3.160139e-04
4.368377e+01	-3.196749e-04
4.393609e+01	-3.233783e-04
4.418986e+01	-3.271246e-04
4.444510e+01	-3.309142e-04
4.470182e+01	-3.347478e-04
4.496001e+01	-3.386258e-04
4.521970e+01	-3.425487e-04
4.548089e+01	-3.465171e-04
4.574358e+01	-3.505314e-04
4.600779e+01	-3.545923e-04
4.627353e+01	-3.587002e-04
4.654081e+01	-3.628556e-04
4.680963e+01	-3.670592e-04
4.708000e+01	-3.713115e-04
4.735193e+01	-3.756131e-04
4.762543e+01	-3.799645e-04
4.790051e+01	-3.843663e-04
4.817719e+01	-3.888191e-04
4.845545e+01	-3.933235e-04
4.873533e+01	-3.978800e-04
4.901682e+01	-4.024893e-04
4.929994e+01	-4.071521e-04
4.958470e+01	-4.118688e-04
4.987110e+01	-4.166402e-04
5.015915e+01	-4.214669e-04
5.044887e+01	-4.263494e-04
5.074026e+01	-4.312886e-04
5.103333e+01	-4.362849e-04
5.132810e+01	-4.413391e-04
5.162457e+01	-4.464519e-04
5.192275e+01	-4.516239e-04
5.222265e+01	-4.568558e-04
5.252429e+01	-4.621483e-04
5.282767e+01	-4.675022e-04
5.313280e+01	-4.729180e-04
5.343969e+01	-4.783966e-04
5.374836e+01	-4.839386e-04
5.405880e+01	-4.895449e-04
5.437105e+01	-4.952161e-04
5.468509e+01	-5.009530e-04
5.500095e+01	-5.067563e-04
5.531863e+01	-5.126269e-04
5.563815e+01	-5.185654e-04
5.595951e+01	-5.245728e-04
5.628273e+01	-5.306498e-04
5.660782e+01	-5.367971e-04
5.693479e+01	-5.430156e-04
5.726364e+01	-5.493062e-04
5.759439e+01	-5.556697e-04
5.792705e+01	-5.621069e-04
5.826164e+01	-5.686186e-04
5.859815e+01	-5.752058e-04
5.893662e+01	-5.818692e-04
5.927703e+01	-5.886099e-04
5.961941e+01	-5.954286e-04
5.996377e+01	-6.023264e-04
6.031012e+01	-6.093040e-04
6.065847e+01	-6.163624e-04
6.100883e+01	-6.235027e-04
6.136121e+01	-6.307256e-04
6.171563e+01	-6.380322e-04
6.207210e+01	-6.454234e-04
6.243063e+01	-6.529003e-04
6.279122e+01	-6.604637e-04
6.315390e+01	-6.681148e-04
6.351868e+01	-6.758545e-04
6.388556e+01	-6.836838e-04
6.425456e+01	-6.916038e-04
6.462569e+01	-6.996156e-04
6.499897e+01	-7.077202e-04
6.537440e+01	-7.159187e-04
6.575200e+01	-7.242121e-04
6.613178e+01	-7.326016e-04
6.651375e+01	-7.410882e-04
6.689793e+01	-7.496732e-04
6.728433e+01	-7.583576e-04
6.767297e+01	-7.671426e-04
6.806384e+01	-7.760294e-04
6.845698e+01	-7.850191e-04
6.885238e+01	-7.941129e-04
6.925007e+01	-8.033121e-04
6.965005e+01	-8.126178e-04
7.005235e+01	-8.220313e-04
7.045697e+01	-8.315538e-04
7.086393e+01	-8.411867e-04
7.127323e+01	-8.509311e-04
7.168490e+01	-8.607884e-04
7.209895e+01	-8.707599e-04
7.251539e+01	-8.808468e-04
7.293424e+01	-8.910507e-04
7.335551e+01	-9.013726e-04
7.377920e+01	-9.118142e-04
7.420535e+01	-9.223767e-04
7.463396e+01	-9.330615e-04
7.506504e+01	-9.438701e-04
7.549861e+01	-9.548039e-04
7.593469e+01	-9.658644e-04
7.637328e+01	-9.770529e-04
7.681441e+01	-9.883710e-04
7.725809e+01	-9.998203e-04
7.770433e+01	-1.011402e-03
7.815315e+01	-1.023118e-03
7.860456e+01	-1.034970e-03
7.905857e+01	-1.046959e-03
7.951521e+01	-1.059087e-03
7.997449e+01	-1.071355e-03
8.043642e+01	-1.083765e-03
8.090102e+01	-1.096319e-03
8.136830e+01	-1.109019e-03
8.183828e+01	-1.121866e-03
8.231097e+01	-1.134861e-03
8.278640e+01	-1.148007e-03
8.326457e+01	-1.161305e-03
8.374550e+01	-1.174757e-03
8.422921e+01	-1.188365e-03
8.471572e+01	-1.202131e-03
8.520503e+01	-1.216056e-03
8.569717e+01	-1.230142e-03
8.619215e+01	-1.244392e-03
8.669000e+01	-1.258806e-03
8.719071e+01	-1.273388e-03
8.769432e+01	-1.288138e-03
8.820084e+01	-1.303059e-03
8.871029e+01	-1.318153e-03
8.922267e+01	-1.333422e-03
8.973802e+01	-1.348868e-03
9.025634e+01	-1.364492e-03
9.077766e+01	-1.380298e-03
9.130199e+01	-1.396286e-03
9.182935e+01	-1.412460e-03
9.235975e+01	-1.428821e-03
9.289321e+01	-1.445372e-03
9.342976e+01	-1.462114e-03
9.396941e+01	-1.479050e-03
9.451217e+01	-1.496182e-03
9.505807e+01	-1.513513e-03
9.560712e+01	-1.531044e-03
9.615934e+01	-1.548779e-03
9.671476e+01	-1.566718e-03
9.727338e+01	-1.584866e-03
9.783522e+01	-1.603224e-03
9.840032e+01	-1.621794e-03
9.896867e+01	-1.640579e-03
9.954031e+01	-1.659582e-03
1.001153e+02	-1.678805e-03
1.006935e+02	-1.698251e-03
1.012751e+02	-1.717922e-03
1.018601e+02	-1.737820e-03
1.024484e+02	-1.757949e-03
1.030402e+02	-1.778311e-03
1.036353e+02	-1.798909e-03
1.042339e+02	-1.819746e-03
1.048360e+02	-1.840824e-03
1.054415e+02	-1.862146e-03
1.060505e+02	-1.883714e-03
1.066631e+02	-1.905533e-03
1.072791e+02	-1.927604e-03
1.078988e+02	-1.949931e-03
1.085220e+02	-1.972516e-03
1.091488e+02	-1.995363e-03
1.097793e+02	-2.018474e-03
1.104133e+02	-2.041854e-03
1.110511e+02	-2.065503e-03
1.116925e+02	-2.089427e-03
1.123376e+02	-2.113628e-03
1.129865e+02	-2.138109e-03
1.136391e+02	-2.162873e-03
1.142955e+02	-2.187924e-03
1.149556e+02	-2.213265e-03
1.156196e+02	-2.238900e-03
1.162874e+02	-2.264831e-03
1.169591e+02	-2.291063e-03
1.176347e+02	-2.317599e-03
1.183141e+02	-2.344441e-03
1.189975e+02	-2.371595e-03
1.196848e+02	-2.399063e-03
1.203761e+02	-2.426849e-03
1.210714e+02	-2.454957e-03
1.217707e+02	-2.483390e-03
1.224740e+02	-2.512152e-03
1.231814e+02	-2.541248e-03
1.238929e+02	-2.570680e-03
1.246085e+02	-2.600453e-03
1.253283e+02	-2.630571e-03
1.260522e+02	-2.661037e-03
1.267802e+02	-2.691857e-03
1.275125e+02	-2.723033e-03
1.282490e+02	-2.754570e-03
1.289898e+02	-2.786472e-03
1.297348e+02	-2.818743e-03
1.304842e+02	-2.851389e-03
1.312378e+02	-2.884412e-03
1.319959e+02	-2.917817e-03
1.327583e+02	-2.951609e-03
1.335251e+02	-2.985793e-03
1.342963e+02	-3.020372e-03
1.350720e+02	-3.055351e-03
1.358522e+02	-3.090736e-03
1.366368e+02	-3.126530e-03
1.374260e+02	-3.162738e-03
1.382198e+02	-3.199366e-03
1.390182e+02	-3.236418e-03
1.398211e+02	-3.273898e-03
1.406287e+02	-3.311813e-03
1.414410e+02	-3.350166e-03
1.422579e+02	-3.388963e-03
1.430796e+02	-3.428210e-03
1.439060e+02	-3.467911e-03
1.447372e+02	-3.508071e-03
1.455732e+02	-3.548696e-03
1.464141e+02	-3.589792e-03
1.472597e+02	-3.631363e-03
1.481103e+02	-3.673416e-03
1.489658e+02	-3.715955e-03
1.498262e+02	-3.758987e-03
1.506916e+02	-3.802516e-03
1.515620e+02	-3.846550e-03
1.524374e+02	-3.891093e-03
1.533179e+02	-3.936152e-03
1.542034e+02	-3.981732e-03
1.550941e+02	-4.027840e-03
1.559899e+02	-4.074482e-03
1.568909e+02	-4.121664e-03
1.577971e+02	-4.169391e-03
1.587085e+02	-4.217671e-03
1.596252e+02	-4.266510e-03
1.605472e+02	-4.315914e-03
1.614745e+02	-4.365890e-03
1.624072e+02	-4.416444e-03
1.633453e+02	-4.467583e-03
1.642887e+02	-4.519314e-03
1.652377e+02	-4.571644e-03
1.661921e+02	-4.624579e-03
1.671520e+02	-4.678127e-03
1.681175e+02	-4.732295e-03
1.690885e+02	-4.787090e-03
1.700651e+02	-4.842518e-03
1.710474e+02	-4.898589e-03
1.720354e+02	-4.955308e-03
1.730291e+02	-5.012683e-03
1.740285e+02	-5.070722e-03
1.750337e+02	-5.129433e-03
1.760446e+02	-5.188823e-03
1.770615e+02	-5.248901e-03
1.780842e+02	-5.309673e-03
1.791128e+02	-5.371149e-03
1.801473e+02	-5.433336e-03
1.811878e+02	-5.496243e-03
1.822344e+02	-5.559877e-03
1.832870e+02	-5.624248e-03
1.843456e+02	-5.689364e-03
1.854104e+02	-5.755233e-03
1.864813e+02	-5.821864e-03
1.875584e+02	-5.889266e-03
1.886418e+02	-5.957447e-03
1.897313e+02	-6.026418e-03
1.908272e+02	-6.096186e-03
1.919294e+02	-6.166762e-03
1.930380e+02	-6.238154e-03
1.941530e+02	-6.310372e-03
1.952744e+02	-6.383425e-03
1.964023e+02	-6.457324e-03
1.975367e+02	-6.532077e-03
1.986777e+02	-6.607695e-03
1.998252e+02	-6.684188e-03
2.009794e+02	-6.761566e-03
2.021403e+02	-6.839838e-03
2.033078e+02	-6.919016e-03
2.044821e+02	-6.999110e-03
2.056632e+02	-7.080130e-03
2.068511e+02	-7.162087e-03
2.080459e+02	-7.244993e-03
2.092475e+02	-7.328857e-03
2.104561e+02	-7.413691e-03
2.116717e+02	-7.499506e-03
2.128943e+02	-7.586313e-03
2.141240e+02	-7.674125e-03
2.153608e+02	-7.762952e-03
2.166047e+02	-7.852806e-03
2.178558e+02	-7.943699e-03
2.191141e+02	-8.035644e-03
2.203797e+02	-8.128651e-03
2.216526e+02	-8.222734e-03
2.229329e+02	-8.317905e-03
2.242205e+02	-8.414177e-03
2.255156e+02	-8.511561e-03
2.268182e+02	-8.610072e-03
2.281283e+02	-8.709721e-03
2.294459e+02	-8.810523e-03
2.307712e+02	-8.912490e-03
2.321041e+02	-9.015636e-03
2.334447e+02	-9.119975e-03
2.347931e+02	-9.225519e-03
2.361493e+02	-9.332284e-03
2.375133e+02	-9.440283e-03
2.388851e+02	-9.549530e-03
2.402649e+02	-9.660041e-03
2.416527e+02	-9.771828e-03
2.430484e+02	-9.884908e-03
2.444523e+02	-9.999295e-03
2.458642e+02	-1.011500e-02
2.472843e+02	-1.023205e-02
2.487126e+02	-1.035045e-02
2.501492e+02	-1.047022e-02
2.515940e+02	-1.059137e-02
2.530472e+02	-1.071392e-02
2.545088e+02	-1.083789e-02
2.559789e+02	-1.096329e-02
2.574574e+02	-1.109014e-02
2.589444e+02	-1.121845e-02
2.604401e+02	-1.134825e-02
2.619444e+02	-1.147955e-02
2.634574e+02	-1.161237e-02
2.649791e+02	-1.174672e-02
2.665096e+02	-1.188262e-02
2.680489e+02	-1.202009e-02
2.695972e+02	-1.215915e-02
2.711544e+02	-1.229982e-02
2.727205e+02	-1.244211e-02
2.742958e+02	-1.258604e-02
2.758801e+02	-1.273164e-02
2.774736e+02	-1.287892e-02
2.790762e+02	-1.302790e-02
2.806882e+02	-1.317860e-02
2.823094e+02	-1.333105e-02
2.839400e+02	-1.348525e-02
2.855800e+02	-1.364123e-02
2.872295e+02	-1.379902e-02
2.888886e+02	-1.395863e-02
2.905572e+02	-1.412008e-02
2.922354e+02	-1.428339e-02
2.939234e+02	-1.444859e-02
2.956211e+02	-1.461570e-02
2.973286e+02	-1.478474e-02
2.990459e+02	-1.495573e-02
3.007732e+02	-1.512869e-02
3.025104e+02	-1.530365e-02
3.042577e+02	-1.548063e-02
3.060151e+02	-1.565965e-02
3.077826e+02	-1.584074e-02
3.095604e+02	-1.602392e-02
3.113484e+02	-1.620921e-02
3.131467e+02	-1.639664e-02
3.149554e+02	-1.658624e-02
3.167746e+02	-1.677802e-02
3.186043e+02	-1.697202e-02
3.204445e+02	-1.716825e-02
3.222954e+02	-1.736675e-02
3.241570e+02	-1.756754e-02
3.260293e+02	-1.777065e-02
3.279124e+02	-1.797610e-02
3.298064e+02	-1.818392e-02
3.317114e+02	-1.839414e-02
3.336273e+02	-1.860678e-02
3.355544e+02	-1.882188e-02
3.374925e+02	-1.903945e-02
3.394418e+02	-1.925954e-02
3.414024e+02	-1.948216e-02
3.433744e+02	-1.970735e-02
3.453577e+02	-1.993514e-02
3.473525e+02	-2.016556e-02
3.493588e+02	-2.039863e-02
3.513766e+02	-2.063439e-02
3.534062e+02	-2.087287e-02
3.554474e+02	-2.111410e-02
3.575005e+02	-2.135811e-02
3.595654e+02	-2.160493e-02
3.616422e+02	-2.185459e-02
3.637311e+02	-2.210714e-02
3.658320e+02	-2.236259e-02
3.679450e+02	-2.262099e-02
3.700702e+02	-2.288237e-02
3.722077e+02	-2.314676e-02
3.743576e+02	-2.341420e-02
3.765199e+02	-2.368471e-02
3.786946e+02	-2.395835e-02
3.808820e+02	-2.423513e-02
3.830819e+02	-2.451511e-02
3.852946e+02	-2.479831e-02
3.875200e+02	-2.508477e-02
3.897583e+02	-2.537453e-02
3.920096e+02	-2.566763e-02
3.942738e+02	-2.596410e-02
3.965511e+02	-2.626399e-02
3.988416e+02	-2.656733e-02
4.011452e+02	-2.687417e-02
4.034622e+02	-2.718453e-02
4.057926e+02	-2.749847e-02
4.081365e+02	-2.781603e-02
4.104938e+02	-2.813724e-02
4.128648e+02	-2.846214e-02
4.152495e+02	-2.879079e-02
4.176480e+02	-2.912321e-02
4.200603e+02	-2.945946e-02
4.224866e+02	-2.979959e-02
4.249268e+02	-3.014362e-02
4.273812e+02	-3.049161e-02
4.298497e+02	-3.084361e-02
4.323325e+02	-3.119965e-02
4.348297e+02	-3.155979e-02
4.373412e+02	-3.192407e-02
4.398673e+02	-3.229254e-02
4.424079e+02	-3.266524e-02
4.449633e+02	-3.304223e-02
4.475334e+02	-3.342356e-02
4.501183e+02	-3.380927e-02
4.527182e+02	-3.419941e-02
4.553330e+02	-3.459404e-02
4.579630e+02	-3.499320e-02
4.606082e+02	-3.539695e-02
4.632687e+02	-3.580534e-02
4.659445e+02	-3.621841e-02
4.686358e+02	-3.663624e-02
4.713426e+02	-3.705886e-02
4.740650e+02	-3.748634e-02
4.768032e+02	-3.791873e-02
4.795572e+02	-3.835608e-02
4.823271e+02	-3.879846e-02
4.851130e+02	-3.924591e-02
4.879150e+02	-3.969850e-02
4.907332e+02	-4.015629e-02
4.935676e+02	-4.061933e-02
4.964185e+02	-4.108768e-02
4.992858e+02	-4.156141e-02
5.021696e+02	-4.204057e-02
5.050701e+02	-4.252523e-02
5.079874e+02	-4.301545e-02
5.109215e+02	-4.351130e-02
5.138726e+02	-4.401283e-02
5.168407e+02	-4.452011e-02
5.198259e+02	-4.503320e-02
5.228284e+02	-4.555218e-02
5.258482e+02	-4.607711e-02
5.288855e+02	-4.660806e-02
5.319403e+02	-4.714508e-02
5.350128e+02	-4.768827e-02
5.381030e+02	-4.823767e-02
5.412111e+02	-4.879337e-02
5.443371e+02	-4.935544e-02
5.474812e+02	-4.992394e-02
5.506434e+02	-5.049896e-02
5.538239e+02	-5.108055e-02
5.570228e+02	-5.166881e-02
5.602401e+02	-5.226379e-02
5.634760e+02	-5.286559e-02
5.667306e+02	-5.347428e-02
5.700040e+02	-5.408993e-02
5.732964e+02	-5.471262e-02
5.766077e+02	-5.534243e-02
5.799382e+02	-5.597945e-02
5.832879e+02	-5.662375e-02
5.866569e+02	-5.727542e-02
5.900454e+02	-5.793454e-02
5.934535e+02	-5.860119e-02
5.968813e+02	-5.927547e-02
6.003288e+02	-5.995744e-02
6.037963e+02	-6.064721e-02
6.072838e+02	-6.134485e-02
6.107914e+02	-6.205047e-02
6.143194e+02	-6.276414e-02
6.178676e+02	-6.348596e-02
6.214364e+02	-6.421601e-02
6.250258e+02	-6.495441e-02
6.286359e+02	-6.570122e-02
6.322669e+02	-6.645656e-02
6.359189e+02	-6.722051e-02
6.395919e+02	-6.799318e-02
6.432862e+02	-6.877466e-02
6.470017e+02	-6.956505e-02
6.507388e+02	-7.036444e-02
6.544974e+02	-7.117295e-02
6.582778e+02	-7.199067e-02
6.620800e+02	-7.281771e-02
6.659041e+02	-7.365416e-02
6.697504e+02	-7.450015e-02
6.736188e+02	-7.535576e-02
6.775096e+02	-7.622112e-02
6.814229e+02	-7.709632e-02
6.853587e+02	-7.798148e-02
6.893173e+02	-7.887672e-02
6.932988e+02	-7.978213e-02
6.973033e+02	-8.069784e-02
7.013309e+02	-8.162396e-02
