Frequency(Hz)	Magnitude(dB)
1.000000e+01	-1.651400e-05
1.005776e+01	-1.670531e-05
1.011585e+01	-1.689885e-05
1.017428e+01	-1.709463e-05
1.023305e+01	-1.729267e-05
1.029215e+01	-1.749301e-05
1.035160e+01	-1.769567e-05
1.041139e+01	-1.790068e-05
1.047153e+01	-1.810807e-05
1.053201e+01	-1.831785e-05
1.059284e+01	-1.853007e-05
1.065403e+01	-1.874475e-05
1.071556e+01	-1.896191e-05
1.077746e+01	-1.918159e-05
1.083971e+01	-1.940381e-05
1.090232e+01	-1.962861e-05
1.096529e+01	-1.985601e-05
1.102862e+01	-2.008605e-05
1.109232e+01	-2.031875e-05
1.115639e+01	-2.055415e-05
1.122083e+01	-2.079227e-05
1.128564e+01	-2.103316e-05
1.135083e+01	-2.127683e-05
1.141639e+01	-2.152333e-05
1.148233e+01	-2.177268e-05
1.154865e+01	-2.202492e-05
1.161536e+01	-2.228009e-05
1.168245e+01	-2.253821e-05
1.174992e+01	-2.279932e-05
1.181779e+01	-2.306345e-05
1.188605e+01	-2.333065e-05
1.195470e+01	-2.360094e-05
1.202375e+01	-2.387437e-05
1.209320e+01	-2.415096e-05
1.216305e+01	-2.443075e-05
1.223330e+01	-2.471379e-05
1.230396e+01	-2.500010e-05
1.237503e+01	-2.528973e-05
1.244651e+01	-2.558272e-05
1.251840e+01	-2.587910e-05
1.259070e+01	-2.617892e-05
1.266343e+01	-2.648221e-05
1.273657e+01	-2.678901e-05
1.281014e+01	-2.709937e-05
1.288413e+01	-2.741332e-05
1.295855e+01	-2.773091e-05
1.303339e+01	-2.805218e-05
1.310867e+01	-2.837717e-05
1.318439e+01	-2.870593e-05
1.326054e+01	-2.903849e-05
1.333713e+01	-2.937491e-05
1.341417e+01	-2.971523e-05
1.349165e+01	-3.005949e-05
1.356958e+01	-3.040773e-05
1.364795e+01	-3.076001e-05
1.372678e+01	-3.111637e-05
1.380607e+01	-3.147687e-05
1.388581e+01	-3.184153e-05
1.396602e+01	-3.221042e-05
1.404668e+01	-3.258359e-05
1.412782e+01	-3.296108e-05
1.420942e+01	-3.334294e-05
1.429149e+01	-3.372923e-05
1.437404e+01	-3.411999e-05
1.445706e+01	-3.451527e-05
1.454057e+01	-3.491514e-05
1.462455e+01	-3.531964e-05
1.470902e+01	-3.572883e-05
1.479398e+01	-3.614276e-05
1.487943e+01	-3.656148e-05
1.496537e+01	-3.698505e-05
1.505181e+01	-3.741353e-05
1.513875e+01	-3.784698e-05
1.522619e+01	-3.828544e-05
1.531414e+01	-3.872899e-05
1.540259e+01	-3.917767e-05
1.549156e+01	-3.963155e-05
1.558103e+01	-4.009069e-05
1.567103e+01	-4.055515e-05
1.576155e+01	-4.102499e-05
1.585258e+01	-4.150028e-05
1.594415e+01	-4.198107e-05
1.603624e+01	-4.246743e-05
1.612886e+01	-4.295942e-05
1.622202e+01	-4.345712e-05
1.631572e+01	-4.396058e-05
1.640996e+01	-4.446987e-05
1.650474e+01	-4.498506e-05
1.660008e+01	-4.550623e-05
1.669596e+01	-4.603342e-05
1.679239e+01	-4.656673e-05
1.688938e+01	-4.710622e-05
1.698694e+01	-4.765195e-05
1.708505e+01	-4.820401e-05
1.718373e+01	-4.876247e-05
1.728299e+01	-4.932739e-05
1.738281e+01	-4.989886e-05
1.748322e+01	-5.047695e-05
1.758420e+01	-5.106173e-05
1.768576e+01	-5.165329e-05
1.778792e+01	-5.225171e-05
1.789066e+01	-5.285705e-05
1.799399e+01	-5.346941e-05
1.809793e+01	-5.408887e-05
1.820246e+01	-5.471550e-05
1.830760e+01	-5.534939e-05
1.841334e+01	-5.599062e-05
1.851969e+01	-5.663929e-05
1.862666e+01	-5.729546e-05
1.873425e+01	-5.795924e-05
1.884246e+01	-5.863071e-05
1.895129e+01	-5.930996e-05
1.906075e+01	-5.999708e-05
1.917085e+01	-6.069216e-05
1.928158e+01	-6.139529e-05
1.939295e+01	-6.210657e-05
1.950496e+01	-6.282608e-05
1.961762e+01	-6.355393e-05
1.973093e+01	-6.429022e-05
1.984490e+01	-6.503503e-05
1.995952e+01	-6.578848e-05
2.007480e+01	-6.655065e-05
2.019076e+01	-6.732165e-05
2.030738e+01	-6.810158e-05
2.042467e+01	-6.889055e-05
2.054264e+01	-6.968866e-05
2.066130e+01	-7.049602e-05
2.078064e+01	-7.131273e-05
2.090066e+01	-7.213890e-05
2.102139e+01	-7.297464e-05
2.114280e+01	-7.382007e-05
2.126492e+01	-7.467529e-05
2.138775e+01	-7.554041e-05
2.151128e+01	-7.641556e-05
2.163553e+01	-7.730085e-05
2.176050e+01	-7.819639e-05
2.188619e+01	-7.910231e-05
2.201260e+01	-8.001873e-05
2.213974e+01	-8.094576e-05
2.226762e+01	-8.188353e-05
2.239624e+01	-8.283216e-05
2.252560e+01	-8.379179e-05
2.265571e+01	-8.476253e-05
2.278656e+01	-8.574452e-05
2.291818e+01	-8.673788e-05
2.305055e+01	-8.774275e-05
2.318369e+01	-8.875927e-05
2.331760e+01	-8.978756e-05
2.345228e+01	-9.082776e-05
2.358774e+01	-9.188001e-05
2.372398e+01	-9.294446e-05
2.386101e+01	-9.402123e-05
2.399883e+01	-9.511049e-05
2.413745e+01	-9.621235e-05
2.427686e+01	-9.732699e-05
2.441709e+01	-9.845454e-05
2.455812e+01	-9.959515e-05
2.469997e+01	-1.007490e-04
2.484263e+01	-1.019162e-04
2.498612e+01	-1.030969e-04
2.513044e+01	-1.042913e-04
2.527559e+01	-1.054995e-04
2.542158e+01	-1.067217e-04
2.556842e+01	-1.079581e-04
2.571610e+01	-1.092088e-04
2.586463e+01	-1.104740e-04
2.601403e+01	-1.117539e-04
2.616428e+01	-1.130486e-04
2.631541e+01	-1.143582e-04
2.646740e+01	-1.156831e-04
2.662028e+01	-1.170233e-04
2.677404e+01	-1.183790e-04
2.692868e+01	-1.197505e-04
2.708422e+01	-1.211378e-04
2.724066e+01	-1.225412e-04
2.739800e+01	-1.239608e-04
2.755625e+01	-1.253969e-04
2.771541e+01	-1.268497e-04
2.787550e+01	-1.283192e-04
2.803650e+01	-1.298058e-04
2.819844e+01	-1.313096e-04
2.836131e+01	-1.328309e-04
2.852513e+01	-1.343697e-04
2.868989e+01	-1.359264e-04
2.885560e+01	-1.375011e-04
2.902227e+01	-1.390941e-04
2.918990e+01	-1.407055e-04
2.935850e+01	-1.423356e-04
2.952807e+01	-1.439846e-04
2.969863e+01	-1.456527e-04
2.987016e+01	-1.473401e-04
3.004269e+01	-1.490470e-04
3.021622e+01	-1.507737e-04
3.039075e+01	-1.525204e-04
3.056628e+01	-1.542874e-04
3.074283e+01	-1.560748e-04
3.092040e+01	-1.578830e-04
3.109900e+01	-1.597121e-04
3.127862e+01	-1.615623e-04
3.145929e+01	-1.634340e-04
3.164099e+01	-1.653274e-04
3.182375e+01	-1.672428e-04
3.200756e+01	-1.691803e-04
3.219244e+01	-1.711402e-04
3.237838e+01	-1.731229e-04
3.256540e+01	-1.751285e-04
3.275349e+01	-1.771574e-04
3.294268e+01	-1.792098e-04
3.313295e+01	-1.812859e-04
3.332433e+01	-1.833861e-04
3.351681e+01	-1.855107e-04
3.371040e+01	-1.876598e-04
3.390511e+01	-1.898339e-04
3.410094e+01	-1.920331e-04
3.429791e+01	-1.942578e-04
3.449601e+01	-1.965083e-04
3.469526e+01	-1.987848e-04
3.489566e+01	-2.010878e-04
3.509721e+01	-2.034174e-04
3.529993e+01	-2.057740e-04
3.550382e+01	-2.081579e-04
3.570889e+01	-2.105694e-04
3.591515e+01	-2.130088e-04
3.612259e+01	-2.154765e-04
3.633123e+01	-2.179728e-04
3.654108e+01	-2.204980e-04
3.675214e+01	-2.230525e-04
3.696442e+01	-2.256365e-04
3.717792e+01	-2.282505e-04
3.739266e+01	-2.308948e-04
3.760864e+01	-2.335697e-04
3.782587e+01	-2.362756e-04
3.804435e+01	-2.390129e-04
3.826409e+01	-2.417818e-04
3.848510e+01	-2.445828e-04
3.870739e+01	-2.474163e-04
3.893096e+01	-2.502826e-04
3.915583e+01	-2.531821e-04
3.938199e+01	-2.561152e-04
3.960946e+01	-2.590823e-04
3.983824e+01	-2.620838e-04
4.006834e+01	-2.651200e-04
4.029978e+01	-2.681914e-04
4.053255e+01	-2.712983e-04
4.076666e+01	-2.744413e-04
4.100213e+01	-2.776207e-04
4.123896e+01	-2.808369e-04
4.147715e+01	-2.840904e-04
4.171672e+01	-2.873815e-04
4.195767e+01	-2.907108e-04
4.220002e+01	-2.940787e-04
4.244377e+01	-2.974855e-04
4.268892e+01	-3.009319e-04
4.293549e+01	-3.044181e-04
4.318348e+01	-3.079448e-04
4.343291e+01	-3.115123e-04
4.368377e+01	-3.151211e-04
4.393609e+01	-3.187717e-04
4.418986e+01	-3.224646e-04
4.444510e+01	-3.262003e-04
4.470182e+01	-3.299793e-04
4.496001e+01	-3.338021e-04
4.521970e+01	-3.376691e-04
4.548089e+01	-3.415809e-04
4.574358e+01	-3.455381e-04
4.600779e+01	-3.495411e-04
4.627353e+01	-3.535905e-04
4.654081e+01	-3.576867e-04
4.680963e+01	-3.618305e-04
4.708000e+01	-3.660222e-04
4.735193e+01	-3.702625e-04
4.762543e+01	-3.745519e-04
4.790051e+01	-3.788910e-04
4.817719e+01	-3.832804e-04
4.845545e+01	-3.877206e-04
4.873533e+01	-3.922122e-04
4.901682e+01	-3.967559e-04
4.929994e+01	-4.013522e-04
4.958470e+01	-4.060018e-04
4.987110e+01	-4.107052e-04
5.015915e+01	-4.154631e-04
5.044887e+01	-4.202761e-04
5.074026e+01	-4.251449e-04
5.103333e+01	-4.300701e-04
5.132810e+01	-4.350523e-04
5.162457e+01	-4.400922e-04
5.192275e+01	-4.451906e-04
5.222265e+01	-4.503480e-04
5.252429e+01	-4.555651e-04
5.282767e+01	-4.608427e-04
5.313280e+01	-4.661814e-04
5.343969e+01	-4.715819e-04
5.374836e+01	-4.770450e-04
5.405880e+01	-4.825714e-04
5.437105e+01	-4.881618e-04
5.468509e+01	-4.938170e-04
5.500095e+01	-4.995377e-04
5.531863e+01	-5.053246e-04
5.563815e+01	-5.111786e-04
5.595951e+01	-5.171004e-04
5.628273e+01	-5.230908e-04
5.660782e+01	-5.291506e-04
5.693479e+01	-5.352805e-04
5.726364e+01	-5.414815e-04
5.759439e+01	-5.477543e-04
5.792705e+01	-5.540998e-04
5.826164e+01	-5.605188e-04
5.859815e+01	-5.670121e-04
5.893662e+01	-5.735807e-04
5.927703e+01	-5.802253e-04
5.961941e+01	-5.869470e-04
5.996377e+01	-5.937464e-04
6.031012e+01	-6.006247e-04
6.065847e+01	-6.075826e-04
6.100883e+01	-6.146211e-04
6.136121e+01	-6.217412e-04
6.171563e+01	-6.289437e-04
6.207210e+01	-6.362296e-04
6.243063e+01	-6.436000e-04
6.279122e+01	-6.510557e-04
6.315390e+01	-6.585978e-04
6.351868e+01	-6.662272e-04
6.388556e+01	-6.739451e-04
6.425456e+01	-6.817523e-04
6.462569e+01	-6.896500e-04
6.499897e+01	-6.976391e-04
6.537440e+01	-7.057208e-04
6.575200e+01	-7.138961e-04
6.613178e+01	-7.221661e-04
6.651375e+01	-7.305319e-04
6.689793e+01	-7.389946e-04
6.728433e+01	-7.475553e-04
6.767297e+01	-7.562152e-04
6.806384e+01	-7.649753e-04
6.845698e+01	-7.738370e-04
6.885238e+01	-7.828013e-04
6.925007e+01	-7.918694e-04
6.965005e+01	-8.010426e-04
7.005235e+01	-8.103221e-04
7.045697e+01	-8.197090e-04
7.086393e+01	-8.292046e-04
7.127323e+01	-8.388103e-04
7.168490e+01	-8.485272e-04
7.209895e+01	-8.583566e-04
7.251539e+01	-8.682999e-04
7.293424e+01	-8.783584e-04
7.335551e+01	-8.885334e-04
7.377920e+01	-8.988262e-04
7.420535e+01	-9.092383e-04
7.463396e+01	-9.197709e-04
7.506504e+01	-9.304256e-04
7.549861e+01	-9.412036e-04
7.593469e+01	-9.521065e-04
7.637328e+01	-9.631357e-04
7.681441e+01	-9.742927e-04
7.725809e+01	-9.855788e-04
7.770433e+01	-9.969957e-04
7.815315e+01	-1.008545e-03
7.860456e+01	-1.020228e-03
7.905857e+01	-1.032046e-03
7.951521e+01	-1.044001e-03
7.997449e+01	-1.056095e-03
8.043642e+01	-1.068328e-03
8.090102e+01	-1.080704e-03
8.136830e+01	-1.093222e-03
8.183828e+01	-1.105886e-03
8.231097e+01	-1.118696e-03
8.278640e+01	-1.131655e-03
8.326457e+01	-1.144764e-03
8.374550e+01	-1.158024e-03
8.422921e+01	-1.171439e-03
8.471572e+01	-1.185008e-03
8.520503e+01	-1.198735e-03
8.569717e+01	-1.212621e-03
8.619215e+01	-1.226667e-03
8.669000e+01	-1.240876e-03
8.719071e+01	-1.255250e-03
8.769432e+01	-1.269791e-03
8.820084e+01	-1.284499e-03
8.871029e+01	-1.299378e-03
8.922267e+01	-1.314430e-03
8.973802e+01	-1.329655e-03
9.025634e+01	-1.345057e-03
9.077766e+01	-1.360638e-03
9.130199e+01	-1.376399e-03
9.182935e+01	-1.392342e-03
9.235975e+01	-1.408470e-03
9.289321e+01	-1.424785e-03
9.342976e+01	-1.441289e-03
9.396941e+01	-1.457984e-03
9.451217e+01	-1.474872e-03
9.505807e+01	-1.491956e-03
9.560712e+01	-1.509237e-03
9.615934e+01	-1.526719e-03
9.671476e+01	-1.544404e-03
9.727338e+01	-1.562293e-03
9.783522e+01	-1.580389e-03
9.840032e+01	-1.598695e-03
9.896867e+01	-1.617213e-03
9.954031e+01	-1.635945e-03
1.001153e+02	-1.654894e-03
1.006935e+02	-1.674063e-03
1.012751e+02	-1.693454e-03
1.018601e+02	-1.713069e-03
1.024484e+02	-1.732911e-03
1.030402e+02	-1.752984e-03
1.036353e+02	-1.773288e-03
1.042339e+02	-1.793828e-03
1.048360e+02	-1.814606e-03
1.054415e+02	-1.835624e-03
1.060505e+02	-1.856885e-03
1.066631e+02	-1.878393e-03
1.072791e+02	-1.900150e-03
1.078988e+02	-1.922159e-03
1.085220e+02	-1.944423e-03
1.091488e+02	-1.966944e-03
1.097793e+02	-1.989727e-03
1.104133e+02	-2.012773e-03
1.110511e+02	-2.036086e-03
1.116925e+02	-2.059669e-03
1.123376e+02	-2.083525e-03
1.129865e+02	-2.107657e-03
1.136391e+02	-2.132069e-03
1.142955e+02	-2.156764e-03
1.149556e+02	-2.181744e-03
1.156196e+02	-2.207014e-03
1.162874e+02	-2.232576e-03
1.169591e+02	-2.258434e-03
1.176347e+02	-2.284592e-03
1.183141e+02	-2.311052e-03
1.189975e+02	-2.337819e-03
1.196848e+02	-2.364896e-03
1.203761e+02	-2.392287e-03
1.210714e+02	-2.419994e-03
1.217707e+02	-2.448023e-03
1.224740e+02	-2.476375e-03
1.231814e+02	-2.505057e-03
1.238929e+02	-2.534070e-03
1.246085e+02	-2.563419e-03
1.253283e+02	-2.593108e-03
1.260522e+02	-2.623141e-03
1.267802e+02	-2.653521e-03
1.275125e+02	-2.684254e-03
1.282490e+02	-2.715342e-03
1.289898e+02	-2.746790e-03
1.297348e+02	-2.778602e-03
1.304842e+02	-2.810782e-03
1.312378e+02	-2.843335e-03
1.319959e+02	-2.876265e-03
1.327583e+02	-2.909576e-03
1.335251e+02	-2.943273e-03
1.342963e+02	-2.977360e-03
1.350720e+02	-3.011841e-03
1.358522e+02	-3.046722e-03
1.366368e+02	-3.082007e-03
1.374260e+02	-3.117700e-03
1.382198e+02	-3.153806e-03
1.390182e+02	-3.190330e-03
1.398211e+02	-3.227277e-03
1.406287e+02	-3.264652e-03
1.414410e+02	-3.302459e-03
1.422579e+02	-3.340704e-03
1.430796e+02	-3.379392e-03
1.439060e+02	-3.418528e-03
1.447372e+02	-3.458117e-03
1.455732e+02	-3.498164e-03
1.464141e+02	-3.538674e-03
1.472597e+02	-3.579654e-03
1.481103e+02	-3.621108e-03
1.489658e+02	-3.663042e-03
1.498262e+02	-3.705461e-03
1.506916e+02	-3.748371e-03
1.515620e+02	-3.791778e-03
1.524374e+02	-3.835687e-03
1.533179e+02	-3.880105e-03
1.542034e+02	-3.925036e-03
1.550941e+02	-3.970488e-03
1.559899e+02	-4.016466e-03
1.568909e+02	-4.062976e-03
1.577971e+02	-4.110024e-03
1.587085e+02	-4.157617e-03
1.596252e+02	-4.205761e-03
1.605472e+02	-4.254462e-03
1.614745e+02	-4.303726e-03
1.624072e+02	-4.353561e-03
1.633453e+02	-4.403973e-03
1.642887e+02	-4.454968e-03
1.652377e+02	-4.506553e-03
1.661921e+02	-4.558735e-03
1.671520e+02	-4.611521e-03
1.681175e+02	-4.664918e-03
1.690885e+02	-4.718933e-03
1.700651e+02	-4.773573e-03
1.710474e+02	-4.828845e-03
1.720354e+02	-4.884757e-03
1.730291e+02	-4.941316e-03
1.740285e+02	-4.998529e-03
1.750337e+02	-5.056404e-03
1.760446e+02	-5.114950e-03
1.770615e+02	-5.174172e-03
1.780842e+02	-5.234080e-03
1.791128e+02	-5.294681e-03
1.801473e+02	-5.355984e-03
1.811878e+02	-5.417995e-03
1.822344e+02	-5.480724e-03
1.832870e+02	-5.544179e-03
1.843456e+02	-5.608369e-03
1.854104e+02	-5.673300e-03
1.864813e+02	-5.738984e-03
1.875584e+02	-5.805427e-03
1.886418e+02	-5.872638e-03
1.897313e+02	-5.940628e-03
1.908272e+02	-6.009404e-03
1.919294e+02	-6.078975e-03
1.930380e+02	-6.149352e-03
1.941530e+02	-6.220543e-03
1.952744e+02	-6.292557e-03
1.964023e+02	-6.365404e-03
1.975367e+02	-6.439094e-03
1.986777e+02	-6.513637e-03
1.998252e+02	-6.589041e-03
2.009794e+02	-6.665318e-03
2.021403e+02	-6.742478e-03
2.033078e+02	-6.820530e-03
2.044821e+02	-6.899484e-03
2.056632e+02	-6.979352e-03
2.068511e+02	-7.060144e-03
2.080459e+02	-7.141870e-03
2.092475e+02	-7.224541e-03
2.104561e+02	-7.308169e-03
2.116717e+02	-7.392764e-03
2.128943e+02	-7.478337e-03
2.141240e+02	-7.564900e-03
2.153608e+02	-7.652463e-03
2.166047e+02	-7.741040e-03
2.178558e+02	-7.830641e-03
2.191141e+02	-7.921278e-03
2.203797e+02	-8.012963e-03
2.216526e+02	-8.105708e-03
2.229329e+02	-8.199526e-03
2.242205e+02	-8.294429e-03
2.255156e+02	-8.390429e-03
2.268182e+02	-8.487539e-03
2.281283e+02	-8.585771e-03
2.294459e+02	-8.685140e-03
2.307712e+02	-8.785658e-03
2.321041e+02	-8.887337e-03
2.334447e+02	-8.990192e-03
2.347931e+02	-9.094237e-03
2.361493e+02	-9.199484e-03
2.375133e+02	-9.305948e-03
2.388851e+02	-9.413642e-03
2.402649e+02	-9.522582e-03
2.416527e+02	-9.632780e-03
2.430484e+02	-9.744253e-03
2.444523e+02	-9.857014e-03
2.458642e+02	-9.971079e-03
2.472843e+02	-1.008646e-02
2.487126e+02	-1.020318e-02
2.501492e+02	-1.032124e-02
2.515940e+02	-1.044067e-02
2.530472e+02	-1.056148e-02
2.545088e+02	-1.068369e-02
2.559789e+02	-1.080731e-02
2.574574e+02	-1.093236e-02
2.589444e+02	-1.105885e-02
2.604401e+02	-1.118680e-02
2.619444e+02	-1.131624e-02
2.634574e+02	-1.144716e-02
2.649791e+02	-1.157960e-02
2.665096e+02	-1.171358e-02
2.680489e+02	-1.184910e-02
2.695972e+02	-1.198618e-02
2.711544e+02	-1.212485e-02
2.727205e+02	-1.226512e-02
2.742958e+02	-1.240701e-02
2.758801e+02	-1.255054e-02
2.774736e+02	-1.269573e-02
2.790762e+02	-1.284259e-02
2.806882e+02	-1.299115e-02
2.823094e+02	-1.314143e-02
2.839400e+02	-1.329344e-02
2.855800e+02	-1.344721e-02
2.872295e+02	-1.360276e-02
2.888886e+02	-1.376010e-02
2.905572e+02	-1.391926e-02
2.922354e+02	-1.408025e-02
2.939234e+02	-1.424311e-02
2.956211e+02	-1.440784e-02
2.973286e+02	-1.457448e-02
2.990459e+02	-1.474304e-02
3.007732e+02	-1.491355e-02
3.025104e+02	-1.508603e-02
3.042577e+02	-1.526049e-02
3.060151e+02	-1.543697e-02
3.077826e+02	-1.561549e-02
3.095604e+02	-1.579607e-02
3.113484e+02	-1.597874e-02
3.131467e+02	-1.616351e-02
3.149554e+02	-1.635041e-02
3.167746e+02	-1.653947e-02
3.186043e+02	-1.673072e-02
3.204445e+02	-1.692417e-02
3.222954e+02	-1.711985e-02
3.241570e+02	-1.731779e-02
3.260293e+02	-1.751802e-02
3.279124e+02	-1.772055e-02
3.298064e+02	-1.792543e-02
3.317114e+02	-1.813266e-02
3.336273e+02	-1.834229e-02
3.355544e+02	-1.855433e-02
3.374925e+02	-1.876882e-02
3.394418e+02	-1.898579e-02
3.414024e+02	-1.920525e-02
3.433744e+02	-1.942725e-02
3.453577e+02	-1.965181e-02
3.473525e+02	-1.987896e-02
3.493588e+02	-2.010873e-02
3.513766e+02	-2.034115e-02
3.534062e+02	-2.057624e-02
3.554474e+02	-2.081405e-02
3.575005e+02	-2.105460e-02
3.595654e+02	-2.129792e-02
3.616422e+02	-2.154405e-02
3.637311e+02	-2.179302e-02
3.658320e+02	-2.204485e-02
3.679450e+02	-2.229959e-02
3.700702e+02	-2.255726e-02
3.722077e+02	-2.281790e-02
3.743576e+02	-2.308155e-02
3.765199e+02	-2.334824e-02
3.786946e+02	-2.361799e-02
3.808820e+02	-2.389086e-02
3.830819e+02	-2.416687e-02
3.852946e+02	-2.444606e-02
3.875200e+02	-2.472846e-02
3.897583e+02	-2.501412e-02
3.920096e+02	-2.530307e-02
3.942738e+02	-2.559534e-02
3.965511e+02	-2.589099e-02
3.988416e+02	-2.619003e-02
4.011452e+02	-2.649252e-02
4.034622e+02	-2.679849e-02
4.057926e+02	-2.710799e-02
4.081365e+02	-2.742105e-02
4.104938e+02	-2.773771e-02
4.128648e+02	-2.805802e-02
4.152495e+02	-2.838201e-02
4.176480e+02	-2.870974e-02
4.200603e+02	-2.904123e-02
4.224866e+02	-2.937654e-02
4.249268e+02	-2.971571e-02
4.273812e+02	-3.005877e-02
4.298497e+02	-3.040579e-02
4.323325e+02	-3.075680e-02
4.348297e+02	-3.111184e-02
4.373412e+02	-3.147097e-02
4.398673e+02	-3.183423e-02
4.424079e+02	-3.220167e-02
4.449633e+02	-3.257333e-02
4.475334e+02	-3.294927e-02
4.501183e+02	-3.332952e-02
4.527182e+02	-3.371415e-02
4.553330e+02	-3.410320e-02
4.579630e+02	-3.449672e-02
4.606082e+02	-3.489477e-02
4.632687e+02	-3.529738e-02
4.659445e+02	-3.570463e-02
4.686358e+02	-3.611655e-02
4.713426e+02	-3.653320e-02
4.740650e+02	-3.695465e-02
4.768032e+02	-3.738093e-02
4.795572e+02	-3.781211e-02
4.823271e+02	-3.824824e-02
4.851130e+02	-3.868937e-02
4.879150e+02	-3.913557e-02
4.907332e+02	-3.958690e-02
4.935676e+02	-4.004340e-02
4.964185e+02	-4.050515e-02
4.992858e+02	-4.097219e-02
5.021696e+02	-4.144460e-02
5.050701e+02	-4.192242e-02
5.079874e+02	-4.240573e-02
5.109215e+02	-4.289458e-02
5.138726e+02	-4.338903e-02
5.168407e+02	-4.388916e-02
5.198259e+02	-4.439502e-02
5.228284e+02	-4.490669e-02
5.258482e+02	-4.542422e-02
5.288855e+02	-4.594768e-02
5.319403e+02	-4.647714e-02
5.350128e+02	-4.701267e-02
5.381030e+02	-4.755434e-02
5.412111e+02	-4.810221e-02
5.443371e+02	-4.865636e-02
5.474812e+02	-4.921686e-02
5.506434e+02	-4.978377e-02
5.538239e+02	-5.035718e-02
5.570228e+02	-5.093716e-02
5.602401e+02	-5.152377e-02
5.634760e+02	-5.211710e-02
5.667306e+02	-5.271722e-02
5.700040e+02	-5.332421e-02
5.732964e+02	-5.393814e-02
5.766077e+02	-5.455910e-02
5.799382e+02	-5.518716e-02
5.832879e+02	-5.582240e-02
5.866569e+02	-5.646491e-02
5.900454e+02	-5.711476e-02
5.934535e+02	-5.777205e-02
5.968813e+02	-5.843684e-02
6.003288e+02	-5.910924e-02
6.037963e+02	-5.978931e-02
6.072838e+02	-6.047716e-02
6.107914e+02	-6.117287e-02
6.143194e+02	-6.187652e-02
6.178676e+02	-6.258820e-02
6.214364e+02	-6.330801e-02
6.250258e+02	-6.403604e-02
6.286359e+02	-6.477238e-02
6.322669e+02	-6.551712e-02
6.359189e+02	-6.627036e-02
6.395919e+02	-6.703219e-02
6.432862e+02	-6.780271e-02
6.470017e+02	-6.858202e-02
6.507388e+02	-6.937021e-02
6.544974e+02	-7.016739e-02
6.582778e+02	-7.097366e-02
6.620800e+02	-7.178911e-02
6.659041e+02	-7.261385e-02
6.697504e+02	-7.344799e-02
6.736188e+02	-7.429162e-02
6.775096e+02	-7.514487e-02
6.814229e+02	-7.600782e-02
6.853587e+02	-7.688060e-02
6.893173e+02	-7.776331e-02
6.932988e+02	-7.865606e-02
6.973033e+02	-7.955897e-02
7.013309e+02	-8.047215e-02
