Frequency(Hz)	Magnitude(dB)
1.000000e+01	-1.786099e-05
1.005776e+01	-1.806791e-05
1.011585e+01	-1.827723e-05
1.017428e+01	-1.848898e-05
1.023305e+01	-1.870318e-05
1.029215e+01	-1.891986e-05
1.035160e+01	-1.913905e-05
1.041139e+01	-1.936078e-05
1.047153e+01	-1.958508e-05
1.053201e+01	-1.981198e-05
1.059284e+01	-2.004151e-05
1.065403e+01	-2.027369e-05
1.071556e+01	-2.050857e-05
1.077746e+01	-2.074617e-05
1.083971e+01	-2.098651e-05
1.090232e+01	-2.122965e-05
1.096529e+01	-2.147560e-05
1.102862e+01	-2.172440e-05
1.109232e+01	-2.197608e-05
1.115639e+01	-2.223068e-05
1.122083e+01	-2.248823e-05
1.128564e+01	-2.274876e-05
1.135083e+01	-2.301231e-05
1.141639e+01	-2.327891e-05
1.148233e+01	-2.354861e-05
1.154865e+01	-2.382142e-05
1.161536e+01	-2.409740e-05
1.168245e+01	-2.437657e-05
1.174992e+01	-2.465898e-05
1.181779e+01	-2.494466e-05
1.188605e+01	-2.523365e-05
1.195470e+01	-2.552599e-05
1.202375e+01	-2.582172e-05
1.209320e+01	-2.612087e-05
1.216305e+01	-2.642348e-05
1.223330e+01	-2.672961e-05
1.230396e+01	-2.703928e-05
1.237503e+01	-2.735253e-05
1.244651e+01	-2.766942e-05
1.251840e+01	-2.798997e-05
1.259070e+01	-2.831425e-05
1.266343e+01	-2.864227e-05
1.273657e+01	-2.897410e-05
1.281014e+01	-2.930977e-05
1.288413e+01	-2.964933e-05
1.295855e+01	-2.999283e-05
1.303339e+01	-3.034030e-05
1.310867e+01	-3.069180e-05
1.318439e+01	-3.104737e-05
1.326054e+01	-3.140706e-05
1.333713e+01	-3.177092e-05
1.341417e+01	-3.213900e-05
1.349165e+01	-3.251133e-05
1.356958e+01	-3.288799e-05
1.364795e+01	-3.326900e-05
1.372678e+01	-3.365443e-05
1.380607e+01	-3.404432e-05
1.388581e+01	-3.443874e-05
1.396602e+01	-3.483772e-05
1.404668e+01	-3.524132e-05
1.412782e+01	-3.564960e-05
1.420942e+01	-3.606261e-05
1.429149e+01	-3.648040e-05
1.437404e+01	-3.690304e-05
1.445706e+01	-3.733057e-05
1.454057e+01	-3.776305e-05
1.462455e+01	-3.820054e-05
1.470902e+01	-3.864310e-05
1.479398e+01	-3.909079e-05
1.487943e+01	-3.954367e-05
1.496537e+01	-4.000179e-05
1.505181e+01	-4.046522e-05
1.513875e+01	-4.093402e-05
1.522619e+01	-4.140825e-05
1.531414e+01	-4.188797e-05
1.540259e+01	-4.237325e-05
1.549156e+01	-4.286416e-05
1.558103e+01	-4.336075e-05
1.567103e+01	-4.386309e-05
1.576155e+01	-4.437126e-05
1.585258e+01	-4.488531e-05
1.594415e+01	-4.540531e-05
1.603624e+01	-4.593134e-05
1.612886e+01	-4.646347e-05
1.622202e+01	-4.700176e-05
1.631572e+01	-4.754628e-05
1.640996e+01	-4.809712e-05
1.650474e+01	-4.865433e-05
1.660008e+01	-4.921800e-05
1.669596e+01	-4.978821e-05
1.679239e+01	-5.036501e-05
1.688938e+01	-5.094850e-05
1.698694e+01	-5.153875e-05
1.708505e+01	-5.213584e-05
1.718373e+01	-5.273984e-05
1.728299e+01	-5.335084e-05
1.738281e+01	-5.396893e-05
1.748322e+01	-5.459417e-05
1.758420e+01	-5.522665e-05
1.768576e+01	-5.586646e-05
1.778792e+01	-5.651369e-05
1.789066e+01	-5.716841e-05
1.799399e+01	-5.783072e-05
1.809793e+01	-5.850070e-05
1.820246e+01	-5.917844e-05
1.830760e+01	-5.986404e-05
1.841334e+01	-6.055757e-05
1.851969e+01	-6.125914e-05
1.862666e+01	-6.196884e-05
1.873425e+01	-6.268676e-05
1.884246e+01	-6.341300e-05
1.895129e+01	-6.414765e-05
1.906075e+01	-6.489082e-05
1.917085e+01	-6.564259e-05
1.928158e+01	-6.640307e-05
1.939295e+01	-6.717236e-05
1.950496e+01	-6.795057e-05
1.961762e+01	-6.873779e-05
1.973093e+01	-6.953413e-05
1.984490e+01	-7.033969e-05
1.995952e+01	-7.115459e-05
2.007480e+01	-7.197893e-05
2.019076e+01	-7.281282e-05
2.030738e+01	-7.365637e-05
2.042467e+01	-7.450969e-05
2.054264e+01	-7.537290e-05
2.066130e+01	-7.624611e-05
2.078064e+01	-7.712943e-05
2.090066e+01	-7.802299e-05
2.102139e+01	-7.892690e-05
2.114280e+01	-7.984128e-05
2.126492e+01	-8.076626e-05
2.138775e+01	-8.170195e-05
2.151128e+01	-8.264848e-05
2.163553e+01	-8.360598e-05
2.176050e+01	-8.457457e-05
2.188619e+01	-8.555438e-05
2.201260e+01	-8.654554e-05
2.213974e+01	-8.754818e-05
2.226762e+01	-8.856244e-05
2.239624e+01	-8.958845e-05
2.252560e+01	-9.062635e-05
2.265571e+01	-9.167627e-05
2.278656e+01	-9.273835e-05
2.291818e+01	-9.381274e-05
2.305055e+01	-9.489958e-05
2.318369e+01	-9.599900e-05
2.331760e+01	-9.711116e-05
2.345228e+01	-9.823621e-05
2.358774e+01	-9.937429e-05
2.372398e+01	-1.005256e-04
2.386101e+01	-1.016902e-04
2.399883e+01	-1.028683e-04
2.413745e+01	-1.040600e-04
2.427686e+01	-1.052655e-04
2.441709e+01	-1.064851e-04
2.455812e+01	-1.077187e-04
2.469997e+01	-1.089666e-04
2.484263e+01	-1.102290e-04
2.498612e+01	-1.115061e-04
2.513044e+01	-1.127979e-04
2.527559e+01	-1.141046e-04
2.542158e+01	-1.154266e-04
2.556842e+01	-1.167638e-04
2.571610e+01	-1.181165e-04
2.586463e+01	-1.194849e-04
2.601403e+01	-1.208692e-04
2.616428e+01	-1.222694e-04
2.631541e+01	-1.236859e-04
2.646740e+01	-1.251189e-04
2.662028e+01	-1.265684e-04
2.677404e+01	-1.280347e-04
2.692868e+01	-1.295180e-04
2.708422e+01	-1.310185e-04
2.724066e+01	-1.325363e-04
2.739800e+01	-1.340718e-04
2.755625e+01	-1.356250e-04
2.771541e+01	-1.371962e-04
2.787550e+01	-1.387857e-04
2.803650e+01	-1.403935e-04
2.819844e+01	-1.420200e-04
2.836131e+01	-1.436653e-04
2.852513e+01	-1.453297e-04
2.868989e+01	-1.470133e-04
2.885560e+01	-1.487165e-04
2.902227e+01	-1.504394e-04
2.918990e+01	-1.521822e-04
2.935850e+01	-1.539453e-04
2.952807e+01	-1.557287e-04
2.969863e+01	-1.575329e-04
2.987016e+01	-1.593579e-04
3.004269e+01	-1.612041e-04
3.021622e+01	-1.630716e-04
3.039075e+01	-1.649608e-04
3.056628e+01	-1.668719e-04
3.074283e+01	-1.688051e-04
3.092040e+01	-1.707607e-04
3.109900e+01	-1.727390e-04
3.127862e+01	-1.747402e-04
3.145929e+01	-1.767646e-04
3.164099e+01	-1.788124e-04
3.182375e+01	-1.808839e-04
3.200756e+01	-1.829795e-04
3.219244e+01	-1.850993e-04
3.237838e+01	-1.872437e-04
3.256540e+01	-1.894129e-04
3.275349e+01	-1.916073e-04
3.294268e+01	-1.938270e-04
3.313295e+01	-1.960725e-04
3.332433e+01	-1.983440e-04
3.351681e+01	-2.006419e-04
3.371040e+01	-2.029663e-04
3.390511e+01	-2.053177e-04
3.410094e+01	-2.076963e-04
3.429791e+01	-2.101024e-04
3.449601e+01	-2.125365e-04
3.469526e+01	-2.149987e-04
3.489566e+01	-2.174895e-04
3.509721e+01	-2.200091e-04
3.529993e+01	-2.225579e-04
3.550382e+01	-2.251362e-04
3.570889e+01	-2.277444e-04
3.591515e+01	-2.303828e-04
3.612259e+01	-2.330518e-04
3.633123e+01	-2.357517e-04
3.654108e+01	-2.384828e-04
3.675214e+01	-2.412457e-04
3.696442e+01	-2.440405e-04
3.717792e+01	-2.468677e-04
3.739266e+01	-2.497276e-04
3.760864e+01	-2.526207e-04
3.782587e+01	-2.555473e-04
3.804435e+01	-2.585078e-04
3.826409e+01	-2.615026e-04
3.848510e+01	-2.645321e-04
3.870739e+01	-2.675967e-04
3.893096e+01	-2.706968e-04
3.915583e+01	-2.738328e-04
3.938199e+01	-2.770051e-04
3.960946e+01	-2.802142e-04
3.983824e+01	-2.834604e-04
4.006834e+01	-2.867443e-04
4.029978e+01	-2.900662e-04
4.053255e+01	-2.934266e-04
4.076666e+01	-2.968259e-04
4.100213e+01	-3.002646e-04
4.123896e+01	-3.037431e-04
4.147715e+01	-3.072619e-04
4.171672e+01	-3.108215e-04
4.195767e+01	-3.144223e-04
4.220002e+01	-3.180649e-04
4.244377e+01	-3.217496e-04
4.268892e+01	-3.254770e-04
4.293549e+01	-3.292476e-04
4.318348e+01	-3.330619e-04
4.343291e+01	-3.369203e-04
4.368377e+01	-3.408235e-04
4.393609e+01	-3.447719e-04
4.418986e+01	-3.487660e-04
4.444510e+01	-3.528064e-04
4.470182e+01	-3.568936e-04
4.496001e+01	-3.610281e-04
4.521970e+01	-3.652106e-04
4.548089e+01	-3.694414e-04
4.574358e+01	-3.737213e-04
4.600779e+01	-3.780508e-04
4.627353e+01	-3.824304e-04
4.654081e+01	-3.868608e-04
4.680963e+01	-3.913425e-04
4.708000e+01	-3.958761e-04
4.735193e+01	-4.004622e-04
4.762543e+01	-4.051015e-04
4.790051e+01	-4.097945e-04
4.817719e+01	-4.145418e-04
4.845545e+01	-4.193442e-04
4.873533e+01	-4.242022e-04
4.901682e+01	-4.291164e-04
4.929994e+01	-4.340876e-04
4.958470e+01	-4.391164e-04
4.987110e+01	-4.442034e-04
5.015915e+01	-4.493493e-04
5.044887e+01	-4.545549e-04
5.074026e+01	-4.598208e-04
5.103333e+01	-4.651476e-04
5.132810e+01	-4.705362e-04
5.162457e+01	-4.759872e-04
5.192275e+01	-4.815013e-04
5.222265e+01	-4.870794e-04
5.252429e+01	-4.927220e-04
5.282767e+01	-4.984300e-04
5.313280e+01	-5.042041e-04
5.343969e+01	-5.100451e-04
5.374836e+01	-5.159538e-04
5.405880e+01	-5.219309e-04
5.437105e+01	-5.279772e-04
5.468509e+01	-5.340936e-04
5.500095e+01	-5.402808e-04
5.531863e+01	-5.465397e-04
5.563815e+01	-5.528712e-04
5.595951e+01	-5.592759e-04
5.628273e+01	-5.657548e-04
5.660782e+01	-5.723088e-04
5.693479e+01	-5.789388e-04
5.726364e+01	-5.856455e-04
5.759439e+01	-5.924299e-04
5.792705e+01	-5.992929e-04
5.826164e+01	-6.062353e-04
5.859815e+01	-6.132583e-04
5.893662e+01	-6.203625e-04
5.927703e+01	-6.275491e-04
5.961941e+01	-6.348189e-04
5.996377e+01	-6.421729e-04
6.031012e+01	-6.496121e-04
6.065847e+01	-6.571374e-04
6.100883e+01	-6.647500e-04
6.136121e+01	-6.724507e-04
6.171563e+01	-6.802406e-04
6.207210e+01	-6.881207e-04
6.243063e+01	-6.960922e-04
6.279122e+01	-7.041559e-04
6.315390e+01	-7.123131e-04
6.351868e+01	-7.205648e-04
6.388556e+01	-7.289120e-04
6.425456e+01	-7.373559e-04
6.462569e+01	-7.458977e-04
6.499897e+01	-7.545384e-04
6.537440e+01	-7.632791e-04
6.575200e+01	-7.721211e-04
6.613178e+01	-7.810656e-04
6.651375e+01	-7.901136e-04
6.689793e+01	-7.992664e-04
6.728433e+01	-8.085253e-04
6.767297e+01	-8.178914e-04
6.806384e+01	-8.273660e-04
6.845698e+01	-8.369503e-04
6.885238e+01	-8.466457e-04
6.925007e+01	-8.564533e-04
6.965005e+01	-8.663746e-04
7.005235e+01	-8.764108e-04
7.045697e+01	-8.865632e-04
7.086393e+01	-8.968332e-04
7.127323e+01	-9.072222e-04
7.168490e+01	-9.177315e-04
7.209895e+01	-9.283625e-04
7.251539e+01	-9.391167e-04
7.293424e+01	-9.499954e-04
7.335551e+01	-9.610002e-04
7.377920e+01	-9.721324e-04
7.420535e+01	-9.833935e-04
7.463396e+01	-9.947851e-04
7.506504e+01	-1.006309e-03
7.549861e+01	-1.017966e-03
7.593469e+01	-1.029758e-03
7.637328e+01	-1.041686e-03
7.681441e+01	-1.053753e-03
7.725809e+01	-1.065959e-03
7.770433e+01	-1.078307e-03
7.815315e+01	-1.090798e-03
7.860456e+01	-1.103434e-03
7.905857e+01	-1.116216e-03
7.951521e+01	-1.129146e-03
7.997449e+01	-1.142226e-03
8.043642e+01	-1.155457e-03
8.090102e+01	-1.168841e-03
8.136830e+01	-1.182381e-03
8.183828e+01	-1.196077e-03
8.231097e+01	-1.209932e-03
8.278640e+01	-1.223947e-03
8.326457e+01	-1.238125e-03
8.374550e+01	-1.252467e-03
8.422921e+01	-1.266975e-03
8.471572e+01	-1.281651e-03
8.520503e+01	-1.296497e-03
8.569717e+01	-1.311515e-03
8.619215e+01	-1.326707e-03
8.669000e+01	-1.342075e-03
8.719071e+01	-1.357621e-03
8.769432e+01	-1.373347e-03
8.820084e+01	-1.389255e-03
8.871029e+01	-1.405347e-03
8.922267e+01	-1.421626e-03
8.973802e+01	-1.438093e-03
9.025634e+01	-1.454751e-03
9.077766e+01	-1.471602e-03
9.130199e+01	-1.488648e-03
9.182935e+01	-1.505891e-03
9.235975e+01	-1.523334e-03
9.289321e+01	-1.540979e-03
9.342976e+01	-1.558829e-03
9.396941e+01	-1.576885e-03
9.451217e+01	-1.595150e-03
9.505807e+01	-1.613627e-03
9.560712e+01	-1.632318e-03
9.615934e+01	-1.651225e-03
9.671476e+01	-1.670351e-03
9.727338e+01	-1.689699e-03
9.783522e+01	-1.709271e-03
9.840032e+01	-1.729069e-03
9.896867e+01	-1.749097e-03
9.954031e+01	-1.769357e-03
1.001153e+02	-1.789851e-03
1.006935e+02	-1.810582e-03
1.012751e+02	-1.831554e-03
1.018601e+02	-1.852769e-03
1.024484e+02	-1.874229e-03
1.030402e+02	-1.895937e-03
1.036353e+02	-1.917898e-03
1.042339e+02	-1.940112e-03
1.048360e+02	-1.962584e-03
1.054415e+02	-1.985315e-03
1.060505e+02	-2.008311e-03
1.066631e+02	-2.031572e-03
1.072791e+02	-2.055103e-03
1.078988e+02	-2.078906e-03
1.085220e+02	-2.102985e-03
1.091488e+02	-2.127342e-03
1.097793e+02	-2.151982e-03
1.104133e+02	-2.176907e-03
1.110511e+02	-2.202121e-03
1.116925e+02	-2.227626e-03
1.123376e+02	-2.253427e-03
1.129865e+02	-2.279527e-03
1.136391e+02	-2.305929e-03
1.142955e+02	-2.332637e-03
1.149556e+02	-2.359653e-03
1.156196e+02	-2.386983e-03
1.162874e+02	-2.414629e-03
1.169591e+02	-2.442595e-03
1.176347e+02	-2.470886e-03
1.183141e+02	-2.499503e-03
1.189975e+02	-2.528452e-03
1.196848e+02	-2.557736e-03
1.203761e+02	-2.587359e-03
1.210714e+02	-2.617326e-03
1.217707e+02	-2.647639e-03
1.224740e+02	-2.678303e-03
1.231814e+02	-2.709322e-03
1.238929e+02	-2.740700e-03
1.246085e+02	-2.772442e-03
1.253283e+02	-2.804551e-03
1.260522e+02	-2.837032e-03
1.267802e+02	-2.869889e-03
1.275125e+02	-2.903126e-03
1.282490e+02	-2.936748e-03
1.289898e+02	-2.970760e-03
1.297348e+02	-3.005165e-03
1.304842e+02	-3.039968e-03
1.312378e+02	-3.075174e-03
1.319959e+02	-3.110788e-03
1.327583e+02	-3.146815e-03
1.335251e+02	-3.183258e-03
1.342963e+02	-3.220123e-03
1.350720e+02	-3.257415e-03
1.358522e+02	-3.295139e-03
1.366368e+02	-3.333299e-03
1.374260e+02	-3.371901e-03
1.382198e+02	-3.410950e-03
1.390182e+02	-3.450451e-03
1.398211e+02	-3.490409e-03
1.406287e+02	-3.530830e-03
1.414410e+02	-3.571719e-03
1.422579e+02	-3.613081e-03
1.430796e+02	-3.654922e-03
1.439060e+02	-3.697247e-03
1.447372e+02	-3.740062e-03
1.455732e+02	-3.783373e-03
1.464141e+02	-3.827185e-03
1.472597e+02	-3.871504e-03
1.481103e+02	-3.916336e-03
1.489658e+02	-3.961687e-03
1.498262e+02	-4.007563e-03
1.506916e+02	-4.053970e-03
1.515620e+02	-4.100914e-03
1.524374e+02	-4.148402e-03
1.533179e+02	-4.196439e-03
1.542034e+02	-4.245032e-03
1.550941e+02	-4.294187e-03
1.559899e+02	-4.343911e-03
1.568909e+02	-4.394211e-03
1.577971e+02	-4.445093e-03
1.587085e+02	-4.496564e-03
1.596252e+02	-4.548631e-03
1.605472e+02	-4.601300e-03
1.614745e+02	-4.654578e-03
1.624072e+02	-4.708474e-03
1.633453e+02	-4.762992e-03
1.642887e+02	-4.818142e-03
1.652377e+02	-4.873930e-03
1.661921e+02	-4.930364e-03
1.671520e+02	-4.987451e-03
1.681175e+02	-5.045198e-03
1.690885e+02	-5.103613e-03
1.700651e+02	-5.162705e-03
1.710474e+02	-5.222480e-03
1.720354e+02	-5.282947e-03
1.730291e+02	-5.344114e-03
1.740285e+02	-5.405988e-03
1.750337e+02	-5.468578e-03
1.760446e+02	-5.531892e-03
1.770615e+02	-5.595939e-03
1.780842e+02	-5.660728e-03
1.791128e+02	-5.726265e-03
1.801473e+02	-5.792561e-03
1.811878e+02	-5.859624e-03
1.822344e+02	-5.927463e-03
1.832870e+02	-5.996086e-03
1.843456e+02	-6.065504e-03
1.854104e+02	-6.135725e-03
1.864813e+02	-6.206758e-03
1.875584e+02	-6.278612e-03
1.886418e+02	-6.351299e-03
1.897313e+02	-6.424825e-03
1.908272e+02	-6.499203e-03
1.919294e+02	-6.574441e-03
1.930380e+02	-6.650549e-03
1.941530e+02	-6.727537e-03
1.952744e+02	-6.805416e-03
1.964023e+02	-6.884196e-03
1.975367e+02	-6.963887e-03
1.986777e+02	-7.044500e-03
1.998252e+02	-7.126045e-03
2.009794e+02	-7.208533e-03
2.021403e+02	-7.291976e-03
2.033078e+02	-7.376383e-03
2.044821e+02	-7.461767e-03
2.056632e+02	-7.548138e-03
2.068511e+02	-7.635508e-03
2.080459e+02	-7.723888e-03
2.092475e+02	-7.813291e-03
2.104561e+02	-7.903727e-03
2.116717e+02	-7.995209e-03
2.128943e+02	-8.087749e-03
2.141240e+02	-8.181360e-03
2.153608e+02	-8.276052e-03
2.166047e+02	-8.371840e-03
2.178558e+02	-8.468735e-03
2.191141e+02	-8.566750e-03
2.203797e+02	-8.665899e-03
2.216526e+02	-8.766194e-03
2.229329e+02	-8.867648e-03
2.242205e+02	-8.970276e-03
2.255156e+02	-9.074090e-03
2.268182e+02	-9.179104e-03
2.281283e+02	-9.285332e-03
2.294459e+02	-9.392789e-03
2.307712e+02	-9.501487e-03
2.321041e+02	-9.611442e-03
2.334447e+02	-9.722668e-03
2.347931e+02	-9.835180e-03
2.361493e+02	-9.948992e-03
2.375133e+02	-1.006412e-02
2.388851e+02	-1.018058e-02
2.402649e+02	-1.029838e-02
2.416527e+02	-1.041755e-02
2.430484e+02	-1.053809e-02
2.444523e+02	-1.066003e-02
2.458642e+02	-1.078337e-02
2.472843e+02	-1.090814e-02
2.487126e+02	-1.103436e-02
2.501492e+02	-1.116203e-02
2.515940e+02	-1.129117e-02
2.530472e+02	-1.142181e-02
2.545088e+02	-1.155396e-02
2.559789e+02	-1.168763e-02
2.574574e+02	-1.182285e-02
2.589444e+02	-1.195963e-02
2.604401e+02	-1.209800e-02
2.619444e+02	-1.223796e-02
2.634574e+02	-1.237953e-02
2.649791e+02	-1.252275e-02
2.665096e+02	-1.266761e-02
2.680489e+02	-1.281415e-02
2.695972e+02	-1.296239e-02
2.711544e+02	-1.311233e-02
2.727205e+02	-1.326401e-02
2.742958e+02	-1.341744e-02
2.758801e+02	-1.357264e-02
2.774736e+02	-1.372963e-02
2.790762e+02	-1.388844e-02
2.806882e+02	-1.404908e-02
2.823094e+02	-1.421157e-02
2.839400e+02	-1.437594e-02
2.855800e+02	-1.454221e-02
2.872295e+02	-1.471040e-02
2.888886e+02	-1.488053e-02
2.905572e+02	-1.505263e-02
2.922354e+02	-1.522671e-02
2.939234e+02	-1.540280e-02
2.956211e+02	-1.558092e-02
2.973286e+02	-1.576110e-02
2.990459e+02	-1.594336e-02
3.007732e+02	-1.612773e-02
3.025104e+02	-1.631422e-02
3.042577e+02	-1.650286e-02
3.060151e+02	-1.669369e-02
3.077826e+02	-1.688671e-02
3.095604e+02	-1.708196e-02
3.113484e+02	-1.727946e-02
3.131467e+02	-1.747925e-02
3.149554e+02	-1.768133e-02
3.167746e+02	-1.788575e-02
3.186043e+02	-1.809253e-02
3.204445e+02	-1.830169e-02
3.222954e+02	-1.851327e-02
3.241570e+02	-1.872729e-02
3.260293e+02	-1.894377e-02
3.279124e+02	-1.916276e-02
3.298064e+02	-1.938426e-02
3.317114e+02	-1.960833e-02
3.336273e+02	-1.983497e-02
3.355544e+02	-2.006423e-02
3.374925e+02	-2.029614e-02
3.394418e+02	-2.053072e-02
3.414024e+02	-2.076800e-02
3.433744e+02	-2.100802e-02
3.453577e+02	-2.125080e-02
3.473525e+02	-2.149639e-02
3.493588e+02	-2.174480e-02
3.513766e+02	-2.199608e-02
3.534062e+02	-2.225026e-02
3.554474e+02	-2.250736e-02
3.575005e+02	-2.276743e-02
3.595654e+02	-2.303050e-02
3.616422e+02	-2.329659e-02
3.637311e+02	-2.356575e-02
3.658320e+02	-2.383802e-02
3.679450e+02	-2.411342e-02
3.700702e+02	-2.439199e-02
3.722077e+02	-2.467377e-02
3.743576e+02	-2.495880e-02
3.765199e+02	-2.524711e-02
3.786946e+02	-2.553874e-02
3.808820e+02	-2.583373e-02
3.830819e+02	-2.613212e-02
3.852946e+02	-2.643394e-02
3.875200e+02	-2.673924e-02
3.897583e+02	-2.704806e-02
3.920096e+02	-2.736042e-02
3.942738e+02	-2.767639e-02
3.965511e+02	-2.799599e-02
3.988416e+02	-2.831927e-02
4.011452e+02	-2.864627e-02
4.034622e+02	-2.897703e-02
4.057926e+02	-2.931160e-02
4.081365e+02	-2.965002e-02
4.104938e+02	-2.999234e-02
4.128648e+02	-3.033859e-02
4.152495e+02	-3.068882e-02
4.176480e+02	-3.104309e-02
4.200603e+02	-3.140143e-02
4.224866e+02	-3.176388e-02
4.249268e+02	-3.213051e-02
4.273812e+02	-3.250136e-02
4.298497e+02	-3.287646e-02
4.323325e+02	-3.325588e-02
4.348297e+02	-3.363966e-02
4.373412e+02	-3.402786e-02
4.398673e+02	-3.442051e-02
4.424079e+02	-3.481768e-02
4.449633e+02	-3.521941e-02
4.475334e+02	-3.562576e-02
4.501183e+02	-3.603678e-02
4.527182e+02	-3.645251e-02
4.553330e+02	-3.687303e-02
4.579630e+02	-3.729837e-02
4.606082e+02	-3.772860e-02
4.632687e+02	-3.816377e-02
4.659445e+02	-3.860394e-02
4.686358e+02	-3.904916e-02
4.713426e+02	-3.949949e-02
4.740650e+02	-3.995500e-02
4.768032e+02	-4.041573e-02
4.795572e+02	-4.088174e-02
4.823271e+02	-4.135311e-02
4.851130e+02	-4.182988e-02
4.879150e+02	-4.231213e-02
4.907332e+02	-4.279990e-02
4.935676e+02	-4.329327e-02
4.964185e+02	-4.379230e-02
4.992858e+02	-4.429705e-02
5.021696e+02	-4.480759e-02
5.050701e+02	-4.532399e-02
5.079874e+02	-4.584630e-02
5.109215e+02	-4.637460e-02
5.138726e+02	-4.690895e-02
5.168407e+02	-4.744943e-02
5.198259e+02	-4.799610e-02
5.228284e+02	-4.854904e-02
5.258482e+02	-4.910830e-02
5.288855e+02	-4.967398e-02
5.319403e+02	-5.024613e-02
5.350128e+02	-5.082483e-02
5.381030e+02	-5.141016e-02
5.412111e+02	-5.200219e-02
5.443371e+02	-5.260099e-02
5.474812e+02	-5.320665e-02
5.506434e+02	-5.381924e-02
5.538239e+02	-5.443883e-02
5.570228e+02	-5.506552e-02
5.602401e+02	-5.569937e-02
5.634760e+02	-5.634047e-02
5.667306e+02	-5.698890e-02
5.700040e+02	-5.764474e-02
5.732964e+02	-5.830808e-02
5.766077e+02	-5.897901e-02
5.799382e+02	-5.965759e-02
5.832879e+02	-6.034394e-02
5.866569e+02	-6.103812e-02
5.900454e+02	-6.174023e-02
5.934535e+02	-6.245036e-02
5.968813e+02	-6.316860e-02
6.003288e+02	-6.389503e-02
6.037963e+02	-6.462976e-02
6.072838e+02	-6.537288e-02
6.107914e+02	-6.612447e-02
6.143194e+02	-6.688463e-02
6.178676e+02	-6.765347e-02
6.214364e+02	-6.843108e-02
6.250258e+02	-6.921755e-02
6.286359e+02	-7.001299e-02
6.322669e+02	-7.081749e-02
6.359189e+02	-7.163116e-02
6.395919e+02	-7.245410e-02
6.432862e+02	-7.328642e-02
6.470017e+02	-7.412821e-02
6.507388e+02	-7.497960e-02
6.544974e+02	-7.584067e-02
6.582778e+02	-7.671154e-02
6.620800e+02	-7.759233e-02
6.659041e+02	-7.848314e-02
6.697504e+02	-7.938408e-02
6.736188e+02	-8.029526e-02
6.775096e+02	-8.121681e-02
6.814229e+02	-8.214883e-02
6.853587e+02	-8.309145e-02
6.893173e+02	-8.404478e-02
6.932988e+02	-8.500894e-02
6.973033e+02	-8.598405e-02
7.013309e+02	-8.697023e-02
