Frequency(Hz)	Magnitude(dB)
1.000000e+01	-2.164271e+00
1.005776e+01	-2.183737e+00
1.011585e+01	-2.203651e+00
1.017428e+01	-2.223566e+00
1.023305e+01	-2.243700e+00
1.029215e+01	-2.263854e+00
1.035160e+01	-2.284424e+00
1.041139e+01	-2.304871e+00
1.047153e+01	-2.325502e+00
1.053201e+01	-2.346382e+00
1.059284e+01	-2.367511e+00
1.065403e+01	-2.388446e+00
1.071556e+01	-2.409573e+00
1.077746e+01	-2.430988e+00
1.083971e+01	-2.452497e+00
1.090232e+01	-2.474181e+00
1.096529e+01	-2.496232e+00
1.102862e+01	-2.517832e+00
1.109232e+01	-2.540016e+00
1.115639e+01	-2.562337e+00
1.122083e+01	-2.584913e+00
1.128564e+01	-2.606921e+00
1.135083e+01	-2.629806e+00
1.141639e+01	-2.652544e+00
1.148233e+01	-2.675406e+00
1.154865e+01	-2.698666e+00
1.161536e+01	-2.721871e+00
1.168245e+01	-2.745186e+00
1.174992e+01	-2.768739e+00
1.181779e+01	-2.792452e+00
1.188605e+01	-2.816150e+00
1.195470e+01	-2.839876e+00
1.202375e+01	-2.863944e+00
1.209320e+01	-2.888554e+00
1.216305e+01	-2.912839e+00
1.223330e+01	-2.937409e+00
1.230396e+01	-2.961901e+00
1.237503e+01	-2.986866e+00
1.244651e+01	-3.011572e+00
1.251840e+01	-3.036618e+00
1.259070e+01	-3.061949e+00
1.266343e+01	-3.087360e+00
1.273657e+01	-3.112916e+00
1.281014e+01	-3.138463e+00
1.288413e+01	-3.164356e+00
1.295855e+01	-3.190439e+00
1.303339e+01	-3.216428e+00
1.310867e+01	-3.242721e+00
1.318439e+01	-3.269061e+00
1.326054e+01	-3.295682e+00
1.333713e+01	-3.322477e+00
1.341417e+01	-3.349122e+00
1.349165e+01	-3.376436e+00
1.356958e+01	-3.403399e+00
1.364795e+01	-3.430451e+00
1.372678e+01	-3.457734e+00
1.380607e+01	-3.485452e+00
1.388581e+01	-3.512672e+00
1.396602e+01	-3.540938e+00
1.404668e+01	-3.568819e+00
1.412782e+01	-3.596935e+00
1.420942e+01	-3.625431e+00
1.429149e+01	-3.653499e+00
1.437404e+01	-3.682270e+00
1.445706e+01	-3.710533e+00
1.454057e+01	-3.739501e+00
1.462455e+01	-3.768510e+00
1.470902e+01	-3.797554e+00
1.479398e+01	-3.826566e+00
1.487943e+01	-3.856462e+00
1.496537e+01	-3.885585e+00
1.505181e+01	-3.915339e+00
1.513875e+01	-3.945238e+00
1.522619e+01	-3.974871e+00
1.531414e+01	-4.005102e+00
1.540259e+01	-4.035312e+00
1.549156e+01	-4.065797e+00
1.558103e+01	-4.096355e+00
1.567103e+01	-4.126836e+00
1.576155e+01	-4.157557e+00
1.585258e+01	-4.188510e+00
1.594415e+01	-4.219465e+00
1.603624e+01	-4.250619e+00
1.612886e+01	-4.281845e+00
1.622202e+01	-4.313431e+00
1.631572e+01	-4.345170e+00
1.640996e+01	-4.376622e+00
1.650474e+01	-4.408500e+00
1.660008e+01	-4.440537e+00
1.669596e+01	-4.472725e+00
1.679239e+01	-4.504633e+00
1.688938e+01	-4.537166e+00
1.698694e+01	-4.569478e+00
1.708505e+01	-4.602060e+00
1.718373e+01	-4.634756e+00
1.728299e+01	-4.667876e+00
1.738281e+01	-4.700839e+00
1.748322e+01	-4.733845e+00
1.758420e+01	-4.767373e+00
1.768576e+01	-4.800705e+00
1.778792e+01	-4.834479e+00
1.789066e+01	-4.867682e+00
1.799399e+01	-4.901448e+00
1.809793e+01	-4.935628e+00
1.820246e+01	-4.969422e+00
1.830760e+01	-5.003392e+00
1.841334e+01	-5.038023e+00
1.851969e+01	-5.072702e+00
1.862666e+01	-5.106991e+00
1.873425e+01	-5.141781e+00
1.884246e+01	-5.176640e+00
1.895129e+01	-5.211465e+00
1.906075e+01	-5.246418e+00
1.917085e+01	-5.281714e+00
1.928158e+01	-5.316753e+00
1.939295e+01	-5.352163e+00
1.950496e+01	-5.387463e+00
1.961762e+01	-5.423040e+00
1.973093e+01	-5.458876e+00
1.984490e+01	-5.494646e+00
1.995952e+01	-5.530813e+00
2.007480e+01	-5.566975e+00
2.019076e+01	-5.603071e+00
2.030738e+01	-5.639182e+00
2.042467e+01	-5.675540e+00
2.054264e+01	-5.712442e+00
2.066130e+01	-5.749002e+00
2.078064e+01	-5.785772e+00
2.090066e+01	-5.822420e+00
2.102139e+01	-5.859710e+00
2.114280e+01	-5.896565e+00
2.126492e+01	-5.933923e+00
2.138775e+01	-5.971220e+00
2.151128e+01	-6.008693e+00
2.163553e+01	-6.046374e+00
2.176050e+01	-6.083678e+00
2.188619e+01	-6.121789e+00
2.201260e+01	-6.159452e+00
2.213974e+01	-6.196975e+00
2.226762e+01	-6.235176e+00
2.239624e+01	-6.273266e+00
2.252560e+01	-6.311858e+00
2.265571e+01	-6.350089e+00
2.278656e+01	-6.388995e+00
2.291818e+01	-6.427335e+00
2.305055e+01	-6.466154e+00
2.318369e+01	-6.504873e+00
2.331760e+01	-6.543906e+00
2.345228e+01	-6.582702e+00
2.358774e+01	-6.622058e+00
2.372398e+01	-6.660606e+00
2.386101e+01	-6.700221e+00
2.399883e+01	-6.739787e+00
2.413745e+01	-6.779350e+00
2.427686e+01	-6.818699e+00
2.441709e+01	-6.858610e+00
2.455812e+01	-6.898242e+00
2.469997e+01	-6.937725e+00
2.484263e+01	-6.978005e+00
2.498612e+01	-7.017792e+00
2.513044e+01	-7.058270e+00
2.527559e+01	-7.098255e+00
2.542158e+01	-7.138610e+00
2.556842e+01	-7.179155e+00
2.571610e+01	-7.219519e+00
2.586463e+01	-7.260129e+00
2.601403e+01	-7.300630e+00
2.616428e+01	-7.341482e+00
2.631541e+01	-7.381901e+00
2.646740e+01	-7.423308e+00
2.662028e+01	-7.464414e+00
2.677404e+01	-7.505619e+00
2.692868e+01	-7.546658e+00
2.708422e+01	-7.587555e+00
2.724066e+01	-7.629072e+00
2.739800e+01	-7.670707e+00
2.755625e+01	-7.711796e+00
2.771541e+01	-7.753508e+00
2.787550e+01	-7.795527e+00
2.803650e+01	-7.837094e+00
2.819844e+01	-7.879180e+00
2.836131e+01	-7.920881e+00
2.852513e+01	-7.962718e+00
2.868989e+01	-8.004892e+00
2.885560e+01	-8.047229e+00
2.902227e+01	-8.089297e+00
2.918990e+01	-8.131459e+00
2.935850e+01	-8.173977e+00
2.952807e+01	-8.216131e+00
2.969863e+01	-8.258563e+00
2.987016e+01	-8.301335e+00
3.004269e+01	-8.344331e+00
3.021622e+01	-8.386991e+00
3.039075e+01	-8.429469e+00
3.056628e+01	-8.472874e+00
3.074283e+01	-8.515884e+00
3.092040e+01	-8.558889e+00
3.109900e+01	-8.602001e+00
3.127862e+01	-8.644887e+00
3.145929e+01	-8.688220e+00
3.164099e+01	-8.731275e+00
3.182375e+01	-8.774618e+00
3.200756e+01	-8.818210e+00
3.219244e+01	-8.861628e+00
3.237838e+01	-8.905254e+00
3.256540e+01	-8.949160e+00
3.275349e+01	-8.992466e+00
3.294268e+01	-9.036177e+00
3.313295e+01	-9.080181e+00
3.332433e+01	-9.124619e+00
3.351681e+01	-9.168110e+00
3.371040e+01	-9.211903e+00
3.390511e+01	-9.255850e+00
3.410094e+01	-9.300330e+00
3.429791e+01	-9.343929e+00
3.449601e+01	-9.388601e+00
3.469526e+01	-9.433068e+00
3.489566e+01	-9.476998e+00
3.509721e+01	-9.521445e+00
3.529993e+01	-9.565655e+00
3.550382e+01	-9.610439e+00
3.570889e+01	-9.655333e+00
3.591515e+01	-9.699645e+00
3.612259e+01	-9.744472e+00
3.633123e+01	-9.789629e+00
3.654108e+01	-9.833956e+00
3.675214e+01	-9.878781e+00
3.696442e+01	-9.923350e+00
3.717792e+01	-9.968261e+00
3.739266e+01	-1.001374e+01
3.760864e+01	-1.005866e+01
3.782587e+01	-1.010387e+01
3.804435e+01	-1.014925e+01
3.826409e+01	-1.019445e+01
3.848510e+01	-1.023912e+01
3.870739e+01	-1.028502e+01
3.893096e+01	-1.033040e+01
3.915583e+01	-1.037503e+01
3.938199e+01	-1.042117e+01
3.960946e+01	-1.046662e+01
3.983824e+01	-1.051215e+01
4.006834e+01	-1.055779e+01
4.029978e+01	-1.060334e+01
4.053255e+01	-1.064969e+01
4.076666e+01	-1.069524e+01
4.100213e+01	-1.074061e+01
4.123896e+01	-1.078669e+01
4.147715e+01	-1.083227e+01
4.171672e+01	-1.087857e+01
4.195767e+01	-1.092420e+01
4.220002e+01	-1.097070e+01
4.244377e+01	-1.101614e+01
4.268892e+01	-1.106288e+01
4.293549e+01	-1.110891e+01
4.318348e+01	-1.115471e+01
4.343291e+01	-1.120071e+01
4.368377e+01	-1.124698e+01
4.393609e+01	-1.129326e+01
4.418986e+01	-1.134009e+01
4.444510e+01	-1.138617e+01
4.470182e+01	-1.143225e+01
4.496001e+01	-1.147891e+01
4.521970e+01	-1.152572e+01
4.548089e+01	-1.157127e+01
4.574358e+01	-1.161839e+01
4.600779e+01	-1.166548e+01
4.627353e+01	-1.171153e+01
4.654081e+01	-1.175892e+01
4.680963e+01	-1.180572e+01
4.708000e+01	-1.185130e+01
4.735193e+01	-1.189928e+01
4.762543e+01	-1.194514e+01
4.790051e+01	-1.199272e+01
4.817719e+01	-1.203926e+01
4.845545e+01	-1.208639e+01
4.873533e+01	-1.213316e+01
4.901682e+01	-1.217996e+01
4.929994e+01	-1.222754e+01
4.958470e+01	-1.227507e+01
4.987110e+01	-1.232139e+01
5.015915e+01	-1.236856e+01
5.044887e+01	-1.241570e+01
5.074026e+01	-1.246272e+01
5.103333e+01	-1.250982e+01
5.132810e+01	-1.255689e+01
5.162457e+01	-1.260397e+01
5.192275e+01	-1.265139e+01
5.222265e+01	-1.269884e+01
5.252429e+01	-1.274704e+01
5.282767e+01	-1.279410e+01
5.313280e+01	-1.284109e+01
5.343969e+01	-1.288791e+01
5.374836e+01	-1.293622e+01
5.405880e+01	-1.298355e+01
5.437105e+01	-1.303148e+01
5.468509e+01	-1.307818e+01
5.500095e+01	-1.312577e+01
5.531863e+01	-1.317340e+01
5.563815e+01	-1.322209e+01
5.595951e+01	-1.326993e+01
5.628273e+01	-1.331693e+01
5.660782e+01	-1.336430e+01
5.693479e+01	-1.341289e+01
5.726364e+01	-1.345956e+01
5.759439e+01	-1.350788e+01
5.792705e+01	-1.355520e+01
5.826164e+01	-1.360342e+01
5.859815e+01	-1.365125e+01
5.893662e+01	-1.369813e+01
5.927703e+01	-1.374765e+01
5.961941e+01	-1.379517e+01
5.996377e+01	-1.384264e+01
6.031012e+01	-1.389024e+01
6.065847e+01	-1.393875e+01
6.100883e+01	-1.398698e+01
6.136121e+01	-1.403528e+01
6.171563e+01	-1.408279e+01
6.207210e+01	-1.413126e+01
6.243063e+01	-1.417911e+01
6.279122e+01	-1.422689e+01
6.315390e+01	-1.427551e+01
6.351868e+01	-1.432414e+01
6.388556e+01	-1.437197e+01
6.425456e+01	-1.441986e+01
6.462569e+01	-1.446786e+01
6.499897e+01	-1.451603e+01
6.537440e+01	-1.456498e+01
6.575200e+01	-1.461364e+01
6.613178e+01	-1.466195e+01
6.651375e+01	-1.471030e+01
6.689793e+01	-1.475847e+01
6.728433e+01	-1.480517e+01
6.767297e+01	-1.485409e+01
6.806384e+01	-1.490280e+01
6.845698e+01	-1.495202e+01
6.885238e+01	-1.500028e+01
6.925007e+01	-1.504877e+01
6.965005e+01	-1.509680e+01
7.005235e+01	-1.514572e+01
7.045697e+01	-1.519376e+01
7.086393e+01	-1.524201e+01
7.127323e+01	-1.529143e+01
7.168490e+01	-1.533909e+01
7.209895e+01	-1.538845e+01
7.251539e+01	-1.543626e+01
7.293424e+01	-1.548538e+01
7.335551e+01	-1.553436e+01
7.377920e+01	-1.558293e+01
7.420535e+01	-1.563104e+01
7.463396e+01	-1.567954e+01
7.506504e+01	-1.572888e+01
7.549861e+01	-1.577765e+01
7.593469e+01	-1.582660e+01
7.637328e+01	-1.587439e+01
7.681441e+01	-1.592343e+01
7.725809e+01	-1.597260e+01
7.770433e+01	-1.602083e+01
7.815315e+01	-1.606964e+01
7.860456e+01	-1.611941e+01
7.905857e+01	-1.616766e+01
7.951521e+01	-1.621667e+01
7.997449e+01	-1.626584e+01
8.043642e+01	-1.631480e+01
8.090102e+01	-1.636282e+01
8.136830e+01	-1.641218e+01
8.183828e+01	-1.646028e+01
8.231097e+01	-1.650880e+01
8.278640e+01	-1.655889e+01
8.326457e+01	-1.660755e+01
8.374550e+01	-1.665591e+01
8.422921e+01	-1.670470e+01
8.471572e+01	-1.675529e+01
8.520503e+01	-1.680279e+01
8.569717e+01	-1.685145e+01
8.619215e+01	-1.690076e+01
8.669000e+01	-1.695114e+01
8.719071e+01	-1.699979e+01
8.769432e+01	-1.704824e+01
8.820084e+01	-1.709729e+01
8.871029e+01	-1.714688e+01
8.922267e+01	-1.719692e+01
8.973802e+01	-1.724463e+01
9.025634e+01	-1.729436e+01
9.077766e+01	-1.734230e+01
9.130199e+01	-1.739143e+01
9.182935e+01	-1.744161e+01
9.235975e+01	-1.748902e+01
9.289321e+01	-1.753886e+01
9.342976e+01	-1.758880e+01
9.396941e+01	-1.763697e+01
9.451217e+01	-1.768817e+01
9.505807e+01	-1.773581e+01
9.560712e+01	-1.778667e+01
9.615934e+01	-1.783519e+01
9.671476e+01	-1.788308e+01
9.727338e+01	-1.793334e+01
9.783522e+01	-1.798220e+01
9.840032e+01	-1.803135e+01
9.896867e+01	-1.808092e+01
9.954031e+01	-1.813014e+01
1.001153e+02	-1.817899e+01
1.006935e+02	-1.822693e+01
1.012751e+02	-1.827756e+01
1.018601e+02	-1.832667e+01
1.024484e+02	-1.837720e+01
1.030402e+02	-1.842539e+01
1.036353e+02	-1.847452e+01
1.042339e+02	-1.852389e+01
1.048360e+02	-1.857314e+01
1.054415e+02	-1.862111e+01
1.060505e+02	-1.867053e+01
1.066631e+02	-1.872104e+01
1.072791e+02	-1.877162e+01
1.078988e+02	-1.881995e+01
1.085220e+02	-1.887016e+01
1.091488e+02	-1.891894e+01
1.097793e+02	-1.896932e+01
1.104133e+02	-1.901780e+01
1.110511e+02	-1.906781e+01
1.116925e+02	-1.911756e+01
1.123376e+02	-1.916673e+01
1.129865e+02	-1.921744e+01
1.136391e+02	-1.926403e+01
1.142955e+02	-1.931602e+01
1.149556e+02	-1.936552e+01
1.156196e+02	-1.941371e+01
1.162874e+02	-1.946286e+01
1.169591e+02	-1.951266e+01
1.176347e+02	-1.956228e+01
1.183141e+02	-1.961133e+01
1.189975e+02	-1.966163e+01
1.196848e+02	-1.971227e+01
1.203761e+02	-1.975985e+01
1.210714e+02	-1.980794e+01
1.217707e+02	-1.985715e+01
1.224740e+02	-1.990969e+01
1.231814e+02	-1.995902e+01
1.238929e+02	-2.000771e+01
1.246085e+02	-2.005651e+01
1.253283e+02	-2.010647e+01
1.260522e+02	-2.015589e+01
1.267802e+02	-2.020407e+01
1.275125e+02	-2.025611e+01
1.282490e+02	-2.030401e+01
1.289898e+02	-2.035298e+01
1.297348e+02	-2.040447e+01
1.304842e+02	-2.045402e+01
1.312378e+02	-2.050294e+01
1.319959e+02	-2.055156e+01
1.327583e+02	-2.060326e+01
1.335251e+02	-2.065151e+01
1.342963e+02	-2.070080e+01
1.350720e+02	-2.074985e+01
1.358522e+02	-2.080183e+01
1.366368e+02	-2.084897e+01
1.374260e+02	-2.090047e+01
1.382198e+02	-2.094753e+01
1.390182e+02	-2.100056e+01
1.398211e+02	-2.104869e+01
1.406287e+02	-2.109765e+01
1.414410e+02	-2.114742e+01
1.422579e+02	-2.119719e+01
1.430796e+02	-2.124638e+01
1.439060e+02	-2.129697e+01
1.447372e+02	-2.134712e+01
1.455732e+02	-2.139666e+01
1.464141e+02	-2.144595e+01
1.472597e+02	-2.149587e+01
1.481103e+02	-2.154519e+01
1.489658e+02	-2.159540e+01
1.498262e+02	-2.164314e+01
1.506916e+02	-2.169456e+01
1.515620e+02	-2.174476e+01
1.524374e+02	-2.179349e+01
1.533179e+02	-2.184363e+01
1.542034e+02	-2.189513e+01
1.550941e+02	-2.194158e+01
1.559899e+02	-2.199324e+01
1.568909e+02	-2.204379e+01
1.577971e+02	-2.209176e+01
1.587085e+02	-2.214227e+01
1.596252e+02	-2.219260e+01
1.605472e+02	-2.224228e+01
1.614745e+02	-2.229065e+01
1.624072e+02	-2.234049e+01
1.633453e+02	-2.239048e+01
1.642887e+02	-2.243855e+01
1.652377e+02	-2.249134e+01
1.661921e+02	-2.254135e+01
1.671520e+02	-2.258886e+01
1.681175e+02	-2.264138e+01
1.690885e+02	-2.268807e+01
1.700651e+02	-2.273655e+01
1.710474e+02	-2.279085e+01
1.720354e+02	-2.283910e+01
1.730291e+02	-2.288977e+01
1.740285e+02	-2.293791e+01
1.750337e+02	-2.298763e+01
1.760446e+02	-2.304013e+01
1.770615e+02	-2.309017e+01
1.780842e+02	-2.313898e+01
1.791128e+02	-2.318794e+01
1.801473e+02	-2.323726e+01
1.811878e+02	-2.328540e+01
1.822344e+02	-2.333831e+01
1.832870e+02	-2.338553e+01
1.843456e+02	-2.343707e+01
1.854104e+02	-2.348668e+01
1.864813e+02	-2.353455e+01
1.875584e+02	-2.358736e+01
1.886418e+02	-2.363558e+01
1.897313e+02	-2.368850e+01
1.908272e+02	-2.373785e+01
1.919294e+02	-2.378586e+01
1.930380e+02	-2.383651e+01
1.941530e+02	-2.388713e+01
1.952744e+02	-2.393434e+01
1.964023e+02	-2.398526e+01
1.975367e+02	-2.403537e+01
1.986777e+02	-2.408406e+01
1.998252e+02	-2.413463e+01
2.009794e+02	-2.418630e+01
2.021403e+02	-2.423445e+01
2.033078e+02	-2.428327e+01
2.044821e+02	-2.433375e+01
2.056632e+02	-2.438575e+01
2.068511e+02	-2.443336e+01
2.080459e+02	-2.448174e+01
2.092475e+02	-2.453468e+01
2.104561e+02	-2.458303e+01
2.116717e+02	-2.463272e+01
2.128943e+02	-2.468335e+01
2.141240e+02	-2.473290e+01
2.153608e+02	-2.478281e+01
2.166047e+02	-2.483243e+01
2.178558e+02	-2.488211e+01
2.191141e+02	-2.493129e+01
2.203797e+02	-2.498522e+01
2.216526e+02	-2.503392e+01
2.229329e+02	-2.508198e+01
2.242205e+02	-2.513503e+01
2.255156e+02	-2.518475e+01
2.268182e+02	-2.523354e+01
2.281283e+02	-2.527993e+01
2.294459e+02	-2.533267e+01
2.307712e+02	-2.538250e+01
2.321041e+02	-2.543247e+01
2.334447e+02	-2.547790e+01
2.347931e+02	-2.553422e+01
2.361493e+02	-2.558175e+01
2.375133e+02	-2.563195e+01
2.388851e+02	-2.568236e+01
2.402649e+02	-2.573090e+01
2.416527e+02	-2.578000e+01
2.430484e+02	-2.583147e+01
2.444523e+02	-2.588149e+01
2.458642e+02	-2.593207e+01
2.472843e+02	-2.598021e+01
2.487126e+02	-2.602893e+01
2.501492e+02	-2.607979e+01
2.515940e+02	-2.613125e+01
2.530472e+02	-2.618425e+01
2.545088e+02	-2.622925e+01
2.559789e+02	-2.628310e+01
2.574574e+02	-2.632899e+01
2.589444e+02	-2.638121e+01
2.604401e+02	-2.642866e+01
2.619444e+02	-2.648204e+01
2.634574e+02	-2.652993e+01
2.649791e+02	-2.658020e+01
2.665096e+02	-2.663091e+01
2.680489e+02	-2.667957e+01
2.695972e+02	-2.672973e+01
2.711544e+02	-2.678123e+01
2.727205e+02	-2.683085e+01
2.742958e+02	-2.688016e+01
2.758801e+02	-2.693057e+01
2.774736e+02	-2.698044e+01
2.790762e+02	-2.703010e+01
2.806882e+02	-2.708284e+01
2.823094e+02	-2.712917e+01
2.839400e+02	-2.718123e+01
2.855800e+02	-2.723033e+01
2.872295e+02	-2.728192e+01
2.888886e+02	-2.733163e+01
2.905572e+02	-2.738211e+01
2.922354e+02	-2.742933e+01
2.939234e+02	-2.747956e+01
2.956211e+02	-2.753344e+01
2.973286e+02	-2.758105e+01
2.990459e+02	-2.763257e+01
3.007732e+02	-2.768412e+01
3.025104e+02	-2.773190e+01
3.042577e+02	-2.778172e+01
3.060151e+02	-2.783085e+01
3.077826e+02	-2.788460e+01
3.095604e+02	-2.793265e+01
3.113484e+02	-2.797999e+01
3.131467e+02	-2.803403e+01
3.149554e+02	-2.808147e+01
3.167746e+02	-2.813570e+01
3.186043e+02	-2.817932e+01
3.204445e+02	-2.823308e+01
3.222954e+02	-2.828111e+01
3.241570e+02	-2.832861e+01
3.260293e+02	-2.838341e+01
3.279124e+02	-2.843556e+01
3.298064e+02	-2.847839e+01
3.317114e+02	-2.853014e+01
3.336273e+02	-2.857814e+01
3.355544e+02	-2.863198e+01
3.374925e+02	-2.868440e+01
3.394418e+02	-2.873391e+01
3.414024e+02	-2.877936e+01
3.433744e+02	-2.883077e+01
3.453577e+02	-2.888231e+01
3.473525e+02	-2.892982e+01
3.493588e+02	-2.898005e+01
3.513766e+02	-2.903449e+01
3.534062e+02	-2.908244e+01
3.554474e+02	-2.913279e+01
3.575005e+02	-2.917852e+01
3.595654e+02	-2.922985e+01
3.616422e+02	-2.928277e+01
3.637311e+02	-2.933043e+01
3.658320e+02	-2.938079e+01
3.679450e+02	-2.943621e+01
3.700702e+02	-2.948607e+01
3.722077e+02	-2.953579e+01
3.743576e+02	-2.958992e+01
3.765199e+02	-2.963618e+01
3.786946e+02	-2.967831e+01
3.808820e+02	-2.973429e+01
3.830819e+02	-2.978480e+01
3.852946e+02	-2.983498e+01
3.875200e+02	-2.988516e+01
3.897583e+02	-2.993556e+01
3.920096e+02	-2.998693e+01
3.942738e+02	-3.003407e+01
3.965511e+02	-3.008272e+01
3.988416e+02	-3.013371e+01
4.011452e+02	-3.018413e+01
4.034622e+02	-3.023159e+01
4.057926e+02	-3.028627e+01
4.081365e+02	-3.033408e+01
4.104938e+02	-3.038699e+01
4.128648e+02	-3.042965e+01
4.152495e+02	-3.048194e+01
4.176480e+02	-3.053691e+01
4.200603e+02	-3.058313e+01
4.224866e+02	-3.063756e+01
4.249268e+02	-3.068764e+01
4.273812e+02	-3.073726e+01
4.298497e+02	-3.078737e+01
4.323325e+02	-3.083513e+01
4.348297e+02	-3.088474e+01
4.373412e+02	-3.093965e+01
4.398673e+02	-3.098433e+01
4.424079e+02	-3.103155e+01
4.449633e+02	-3.108588e+01
4.475334e+02	-3.113749e+01
4.501183e+02	-3.118641e+01
4.527182e+02	-3.123728e+01
4.553330e+02	-3.129143e+01
4.579630e+02	-3.133625e+01
4.606082e+02	-3.138684e+01
4.632687e+02	-3.143736e+01
4.659445e+02	-3.148878e+01
4.686358e+02	-3.153527e+01
4.713426e+02	-3.158689e+01
4.740650e+02	-3.164276e+01
4.768032e+02	-3.168726e+01
4.795572e+02	-3.173990e+01
4.823271e+02	-3.178914e+01
4.851130e+02	-3.183859e+01
4.879150e+02	-3.189547e+01
4.907332e+02	-3.193743e+01
4.935676e+02	-3.198826e+01
4.964185e+02	-3.203732e+01
4.992858e+02	-3.208866e+01
5.021696e+02	-3.213911e+01
5.050701e+02	-3.218719e+01
5.079874e+02	-3.224042e+01
5.109215e+02	-3.228984e+01
5.138726e+02	-3.233908e+01
5.168407e+02	-3.238452e+01
5.198259e+02	-3.244309e+01
5.228284e+02	-3.249165e+01
5.258482e+02	-3.253907e+01
5.288855e+02	-3.258897e+01
5.319403e+02	-3.264162e+01
5.350128e+02	-3.268974e+01
5.381030e+02	-3.274274e+01
5.412111e+02	-3.278898e+01
5.443371e+02	-3.284746e+01
5.474812e+02	-3.288473e+01
5.506434e+02	-3.294274e+01
5.538239e+02	-3.299464e+01
5.570228e+02	-3.304401e+01
5.602401e+02	-3.309912e+01
5.634760e+02	-3.313875e+01
5.667306e+02	-3.319806e+01
5.700040e+02	-3.324734e+01
5.732964e+02	-3.328981e+01
5.766077e+02	-3.333844e+01
5.799382e+02	-3.340282e+01
5.832879e+02	-3.344771e+01
5.866569e+02	-3.349414e+01
5.900454e+02	-3.354968e+01
5.934535e+02	-3.360014e+01
5.968813e+02	-3.364896e+01
6.003288e+02	-3.370370e+01
6.037963e+02	-3.375016e+01
6.072838e+02	-3.379760e+01
6.107914e+02	-3.385014e+01
6.143194e+02	-3.389890e+01
6.178676e+02	-3.394372e+01
6.214364e+02	-3.400967e+01
6.250258e+02	-3.405881e+01
6.286359e+02	-3.409775e+01
6.322669e+02	-3.414446e+01
6.359189e+02	-3.420609e+01
6.395919e+02	-3.424834e+01
6.432862e+02	-3.429713e+01
6.470017e+02	-3.436041e+01
6.507388e+02	-3.439807e+01
6.544974e+02	-3.445031e+01
6.582778e+02	-3.449641e+01
6.620800e+02	-3.455612e+01
6.659041e+02	-3.460054e+01
6.697504e+02	-3.465042e+01
6.736188e+02	-3.470508e+01
6.775096e+02	-3.476440e+01
6.814229e+02	-3.480630e+01
6.853587e+02	-3.485294e+01
6.893173e+02	-3.490670e+01
6.932988e+02	-3.494885e+01
6.973033e+02	-3.500196e+01
7.013309e+02	-3.506596e+01
