Frequency(Hz)	Magnitude(dB)
1.000000e+01	-1.875373e-05
1.005776e+01	-1.897100e-05
1.011585e+01	-1.919078e-05
1.017428e+01	-1.941312e-05
1.023305e+01	-1.963802e-05
1.029215e+01	-1.986553e-05
1.035160e+01	-2.009568e-05
1.041139e+01	-2.032849e-05
1.047153e+01	-2.056400e-05
1.053201e+01	-2.080224e-05
1.059284e+01	-2.104324e-05
1.065403e+01	-2.128703e-05
1.071556e+01	-2.153365e-05
1.077746e+01	-2.178312e-05
1.083971e+01	-2.203548e-05
1.090232e+01	-2.229077e-05
1.096529e+01	-2.254902e-05
1.102862e+01	-2.281025e-05
1.109232e+01	-2.307451e-05
1.115639e+01	-2.334184e-05
1.122083e+01	-2.361226e-05
1.128564e+01	-2.388581e-05
1.135083e+01	-2.416254e-05
1.141639e+01	-2.444246e-05
1.148233e+01	-2.472564e-05
1.154865e+01	-2.501209e-05
1.161536e+01	-2.530186e-05
1.168245e+01	-2.559499e-05
1.174992e+01	-2.589151e-05
1.181779e+01	-2.619147e-05
1.188605e+01	-2.649491e-05
1.195470e+01	-2.680186e-05
1.202375e+01	-2.711236e-05
1.209320e+01	-2.742647e-05
1.216305e+01	-2.774421e-05
1.223330e+01	-2.806563e-05
1.230396e+01	-2.839078e-05
1.237503e+01	-2.871969e-05
1.244651e+01	-2.905242e-05
1.251840e+01	-2.938900e-05
1.259070e+01	-2.972948e-05
1.266343e+01	-3.007390e-05
1.273657e+01	-3.042231e-05
1.281014e+01	-3.077476e-05
1.288413e+01	-3.113130e-05
1.295855e+01	-3.149196e-05
1.303339e+01	-3.185680e-05
1.310867e+01	-3.222587e-05
1.318439e+01	-3.259921e-05
1.326054e+01	-3.297688e-05
1.333713e+01	-3.335893e-05
1.341417e+01	-3.374540e-05
1.349165e+01	-3.413635e-05
1.356958e+01	-3.453182e-05
1.364795e+01	-3.493188e-05
1.372678e+01	-3.533658e-05
1.380607e+01	-3.574596e-05
1.388581e+01	-3.616009e-05
1.396602e+01	-3.657901e-05
1.404668e+01	-3.700279e-05
1.412782e+01	-3.743147e-05
1.420942e+01	-3.786512e-05
1.429149e+01	-3.830380e-05
1.437404e+01	-3.874756e-05
1.445706e+01	-3.919646e-05
1.454057e+01	-3.965056e-05
1.462455e+01	-4.010992e-05
1.470902e+01	-4.057460e-05
1.479398e+01	-4.104467e-05
1.487943e+01	-4.152018e-05
1.496537e+01	-4.200120e-05
1.505181e+01	-4.248779e-05
1.513875e+01	-4.298002e-05
1.522619e+01	-4.347795e-05
1.531414e+01	-4.398166e-05
1.540259e+01	-4.449119e-05
1.549156e+01	-4.500663e-05
1.558103e+01	-4.552805e-05
1.567103e+01	-4.605550e-05
1.576155e+01	-4.658906e-05
1.585258e+01	-4.712881e-05
1.594415e+01	-4.767480e-05
1.603624e+01	-4.822713e-05
1.612886e+01	-4.878585e-05
1.622202e+01	-4.935104e-05
1.631572e+01	-4.992278e-05
1.640996e+01	-5.050115e-05
1.650474e+01	-5.108622e-05
1.660008e+01	-5.167806e-05
1.669596e+01	-5.227676e-05
1.679239e+01	-5.288240e-05
1.688938e+01	-5.349505e-05
1.698694e+01	-5.411480e-05
1.708505e+01	-5.474174e-05
1.718373e+01	-5.537593e-05
1.728299e+01	-5.601747e-05
1.738281e+01	-5.666645e-05
1.748322e+01	-5.732294e-05
1.758420e+01	-5.798704e-05
1.768576e+01	-5.865883e-05
1.778792e+01	-5.933840e-05
1.789066e+01	-6.002585e-05
1.799399e+01	-6.072126e-05
1.809793e+01	-6.142473e-05
1.820246e+01	-6.213635e-05
1.830760e+01	-6.285621e-05
1.841334e+01	-6.358441e-05
1.851969e+01	-6.432105e-05
1.862666e+01	-6.506622e-05
1.873425e+01	-6.582002e-05
1.884246e+01	-6.658256e-05
1.895129e+01	-6.735393e-05
1.906075e+01	-6.813424e-05
1.917085e+01	-6.892359e-05
1.928158e+01	-6.972208e-05
1.939295e+01	-7.052982e-05
1.950496e+01	-7.134692e-05
1.961762e+01	-7.217349e-05
1.973093e+01	-7.300963e-05
1.984490e+01	-7.385546e-05
1.995952e+01	-7.471109e-05
2.007480e+01	-7.557664e-05
2.019076e+01	-7.645220e-05
2.030738e+01	-7.733792e-05
2.042467e+01	-7.823389e-05
2.054264e+01	-7.914024e-05
2.066130e+01	-8.005710e-05
2.078064e+01	-8.098457e-05
2.090066e+01	-8.192279e-05
2.102139e+01	-8.287188e-05
2.114280e+01	-8.383197e-05
2.126492e+01	-8.480317e-05
2.138775e+01	-8.578563e-05
2.151128e+01	-8.677947e-05
2.163553e+01	-8.778483e-05
2.176050e+01	-8.880183e-05
2.188619e+01	-8.983061e-05
2.201260e+01	-9.087131e-05
2.213974e+01	-9.192407e-05
2.226762e+01	-9.298903e-05
2.239624e+01	-9.406632e-05
2.252560e+01	-9.515609e-05
2.265571e+01	-9.625849e-05
2.278656e+01	-9.737366e-05
2.291818e+01	-9.850175e-05
2.305055e+01	-9.964290e-05
2.318369e+01	-1.007973e-04
2.331760e+01	-1.019650e-04
2.345228e+01	-1.031463e-04
2.358774e+01	-1.043413e-04
2.372398e+01	-1.055501e-04
2.386101e+01	-1.067729e-04
2.399883e+01	-1.080099e-04
2.413745e+01	-1.092612e-04
2.427686e+01	-1.105270e-04
2.441709e+01	-1.118075e-04
2.455812e+01	-1.131028e-04
2.469997e+01	-1.144131e-04
2.484263e+01	-1.157386e-04
2.498612e+01	-1.170794e-04
2.513044e+01	-1.184358e-04
2.527559e+01	-1.198079e-04
2.542158e+01	-1.211959e-04
2.556842e+01	-1.225999e-04
2.571610e+01	-1.240203e-04
2.586463e+01	-1.254571e-04
2.601403e+01	-1.269105e-04
2.616428e+01	-1.283808e-04
2.631541e+01	-1.298681e-04
2.646740e+01	-1.313726e-04
2.662028e+01	-1.328946e-04
2.677404e+01	-1.344342e-04
2.692868e+01	-1.359916e-04
2.708422e+01	-1.375671e-04
2.724066e+01	-1.391608e-04
2.739800e+01	-1.407730e-04
2.755625e+01	-1.424039e-04
2.771541e+01	-1.440536e-04
2.787550e+01	-1.457225e-04
2.803650e+01	-1.474107e-04
2.819844e+01	-1.491185e-04
2.836131e+01	-1.508460e-04
2.852513e+01	-1.525936e-04
2.868989e+01	-1.543614e-04
2.885560e+01	-1.561497e-04
2.902227e+01	-1.579587e-04
2.918990e+01	-1.597886e-04
2.935850e+01	-1.616398e-04
2.952807e+01	-1.635124e-04
2.969863e+01	-1.654067e-04
2.987016e+01	-1.673230e-04
3.004269e+01	-1.692614e-04
3.021622e+01	-1.712223e-04
3.039075e+01	-1.732059e-04
3.056628e+01	-1.752125e-04
3.074283e+01	-1.772424e-04
3.092040e+01	-1.792957e-04
3.109900e+01	-1.813729e-04
3.127862e+01	-1.834741e-04
3.145929e+01	-1.855996e-04
3.164099e+01	-1.877498e-04
3.182375e+01	-1.899249e-04
3.200756e+01	-1.921252e-04
3.219244e+01	-1.943510e-04
3.237838e+01	-1.966025e-04
3.256540e+01	-1.988802e-04
3.275349e+01	-2.011842e-04
3.294268e+01	-2.035149e-04
3.313295e+01	-2.058726e-04
3.332433e+01	-2.082577e-04
3.351681e+01	-2.106703e-04
3.371040e+01	-2.131109e-04
3.390511e+01	-2.155798e-04
3.410094e+01	-2.180773e-04
3.429791e+01	-2.206037e-04
3.449601e+01	-2.231594e-04
3.469526e+01	-2.257447e-04
3.489566e+01	-2.283600e-04
3.509721e+01	-2.310055e-04
3.529993e+01	-2.336817e-04
3.550382e+01	-2.363889e-04
3.570889e+01	-2.391275e-04
3.591515e+01	-2.418977e-04
3.612259e+01	-2.447001e-04
3.633123e+01	-2.475350e-04
3.654108e+01	-2.504026e-04
3.675214e+01	-2.533035e-04
3.696442e+01	-2.562380e-04
3.717792e+01	-2.592065e-04
3.739266e+01	-2.622094e-04
3.760864e+01	-2.652471e-04
3.782587e+01	-2.683200e-04
3.804435e+01	-2.714284e-04
3.826409e+01	-2.745729e-04
3.848510e+01	-2.777538e-04
3.870739e+01	-2.809716e-04
3.893096e+01	-2.842266e-04
3.915583e+01	-2.875193e-04
3.938199e+01	-2.908502e-04
3.960946e+01	-2.942197e-04
3.983824e+01	-2.976282e-04
4.006834e+01	-3.010762e-04
4.029978e+01	-3.045641e-04
4.053255e+01	-3.080924e-04
4.076666e+01	-3.116616e-04
4.100213e+01	-3.152722e-04
4.123896e+01	-3.189246e-04
4.147715e+01	-3.226193e-04
4.171672e+01	-3.263568e-04
4.195767e+01	-3.301375e-04
4.220002e+01	-3.339621e-04
4.244377e+01	-3.378310e-04
4.268892e+01	-3.417447e-04
4.293549e+01	-3.457038e-04
4.318348e+01	-3.497087e-04
4.343291e+01	-3.537600e-04
4.368377e+01	-3.578582e-04
4.393609e+01	-3.620040e-04
4.418986e+01	-3.661977e-04
4.444510e+01	-3.704400e-04
4.470182e+01	-3.747315e-04
4.496001e+01	-3.790727e-04
4.521970e+01	-3.834641e-04
4.548089e+01	-3.879065e-04
4.574358e+01	-3.924003e-04
4.600779e+01	-3.969461e-04
4.627353e+01	-4.015447e-04
4.654081e+01	-4.061964e-04
4.680963e+01	-4.109021e-04
4.708000e+01	-4.156623e-04
4.735193e+01	-4.204776e-04
4.762543e+01	-4.253487e-04
4.790051e+01	-4.302763e-04
4.817719e+01	-4.352609e-04
4.845545e+01	-4.403033e-04
4.873533e+01	-4.454040e-04
4.901682e+01	-4.505639e-04
4.929994e+01	-4.557835e-04
4.958470e+01	-4.610636e-04
4.987110e+01	-4.664049e-04
5.015915e+01	-4.718080e-04
5.044887e+01	-4.772738e-04
5.074026e+01	-4.828028e-04
5.103333e+01	-4.883959e-04
5.132810e+01	-4.940538e-04
5.162457e+01	-4.997772e-04
5.192275e+01	-5.055669e-04
5.222265e+01	-5.114237e-04
5.252429e+01	-5.173483e-04
5.282767e+01	-5.233416e-04
5.313280e+01	-5.294043e-04
5.343969e+01	-5.355372e-04
5.374836e+01	-5.417412e-04
5.405880e+01	-5.480170e-04
5.437105e+01	-5.543655e-04
5.468509e+01	-5.607876e-04
5.500095e+01	-5.672840e-04
5.531863e+01	-5.738557e-04
5.563815e+01	-5.805036e-04
5.595951e+01	-5.872284e-04
5.628273e+01	-5.940311e-04
5.660782e+01	-6.009127e-04
5.693479e+01	-6.078739e-04
5.726364e+01	-6.149158e-04
5.759439e+01	-6.220393e-04
5.792705e+01	-6.292453e-04
5.826164e+01	-6.365347e-04
5.859815e+01	-6.439086e-04
5.893662e+01	-6.513679e-04
5.927703e+01	-6.589136e-04
5.961941e+01	-6.665467e-04
5.996377e+01	-6.742682e-04
6.031012e+01	-6.820792e-04
6.065847e+01	-6.899806e-04
6.100883e+01	-6.979736e-04
6.136121e+01	-7.060592e-04
6.171563e+01	-7.142384e-04
6.207210e+01	-7.225123e-04
6.243063e+01	-7.308821e-04
6.279122e+01	-7.393489e-04
6.315390e+01	-7.479137e-04
6.351868e+01	-7.565778e-04
6.388556e+01	-7.653421e-04
6.425456e+01	-7.742080e-04
6.462569e+01	-7.831767e-04
6.499897e+01	-7.922491e-04
6.537440e+01	-8.014267e-04
6.575200e+01	-8.107106e-04
6.613178e+01	-8.201020e-04
6.651375e+01	-8.296022e-04
6.689793e+01	-8.392125e-04
6.728433e+01	-8.489340e-04
6.767297e+01	-8.587682e-04
6.806384e+01	-8.687162e-04
6.845698e+01	-8.787795e-04
6.885238e+01	-8.889594e-04
6.925007e+01	-8.992572e-04
6.965005e+01	-9.096742e-04
7.005235e+01	-9.202119e-04
7.045697e+01	-9.308717e-04
7.086393e+01	-9.416549e-04
7.127323e+01	-9.525631e-04
7.168490e+01	-9.635975e-04
7.209895e+01	-9.747598e-04
7.251539e+01	-9.860514e-04
7.293424e+01	-9.974738e-04
7.335551e+01	-1.009028e-03
7.377920e+01	-1.020717e-03
7.420535e+01	-1.032541e-03
7.463396e+01	-1.044502e-03
7.506504e+01	-1.056601e-03
7.549861e+01	-1.068841e-03
7.593469e+01	-1.081222e-03
7.637328e+01	-1.093746e-03
7.681441e+01	-1.106416e-03
7.725809e+01	-1.119233e-03
7.770433e+01	-1.132198e-03
7.815315e+01	-1.145313e-03
7.860456e+01	-1.158580e-03
7.905857e+01	-1.172000e-03
7.951521e+01	-1.185576e-03
7.997449e+01	-1.199310e-03
8.043642e+01	-1.213202e-03
8.090102e+01	-1.227255e-03
8.136830e+01	-1.241471e-03
8.183828e+01	-1.255852e-03
8.231097e+01	-1.270399e-03
8.278640e+01	-1.285115e-03
8.326457e+01	-1.300001e-03
8.374550e+01	-1.315060e-03
8.422921e+01	-1.330293e-03
8.471572e+01	-1.345702e-03
8.520503e+01	-1.361290e-03
8.569717e+01	-1.377059e-03
8.619215e+01	-1.393010e-03
8.669000e+01	-1.409145e-03
8.719071e+01	-1.425468e-03
8.769432e+01	-1.441980e-03
8.820084e+01	-1.458683e-03
8.871029e+01	-1.475579e-03
8.922267e+01	-1.492671e-03
8.973802e+01	-1.509961e-03
9.025634e+01	-1.527451e-03
9.077766e+01	-1.545144e-03
9.130199e+01	-1.563042e-03
9.182935e+01	-1.581147e-03
9.235975e+01	-1.599461e-03
9.289321e+01	-1.617988e-03
9.342976e+01	-1.636729e-03
9.396941e+01	-1.655688e-03
9.451217e+01	-1.674866e-03
9.505807e+01	-1.694266e-03
9.560712e+01	-1.713890e-03
9.615934e+01	-1.733742e-03
9.671476e+01	-1.753824e-03
9.727338e+01	-1.774138e-03
9.783522e+01	-1.794688e-03
9.840032e+01	-1.815476e-03
9.896867e+01	-1.836504e-03
9.954031e+01	-1.857776e-03
1.001153e+02	-1.879294e-03
1.006935e+02	-1.901061e-03
1.012751e+02	-1.923081e-03
1.018601e+02	-1.945355e-03
1.024484e+02	-1.967888e-03
1.030402e+02	-1.990681e-03
1.036353e+02	-2.013738e-03
1.042339e+02	-2.037062e-03
1.048360e+02	-2.060657e-03
1.054415e+02	-2.084524e-03
1.060505e+02	-2.108668e-03
1.066631e+02	-2.133091e-03
1.072791e+02	-2.157798e-03
1.078988e+02	-2.182790e-03
1.085220e+02	-2.208072e-03
1.091488e+02	-2.233646e-03
1.097793e+02	-2.259517e-03
1.104133e+02	-2.285687e-03
1.110511e+02	-2.312161e-03
1.116925e+02	-2.338940e-03
1.123376e+02	-2.366030e-03
1.129865e+02	-2.393434e-03
1.136391e+02	-2.421155e-03
1.142955e+02	-2.449196e-03
1.149556e+02	-2.477563e-03
1.156196e+02	-2.506258e-03
1.162874e+02	-2.535285e-03
1.169591e+02	-2.564648e-03
1.176347e+02	-2.594351e-03
1.183141e+02	-2.624399e-03
1.189975e+02	-2.654794e-03
1.196848e+02	-2.685541e-03
1.203761e+02	-2.716644e-03
1.210714e+02	-2.748107e-03
1.217707e+02	-2.779934e-03
1.224740e+02	-2.812130e-03
1.231814e+02	-2.844698e-03
1.238929e+02	-2.877644e-03
1.246085e+02	-2.910971e-03
1.253283e+02	-2.944684e-03
1.260522e+02	-2.978787e-03
1.267802e+02	-3.013285e-03
1.275125e+02	-3.048183e-03
1.282490e+02	-3.083484e-03
1.289898e+02	-3.119194e-03
1.297348e+02	-3.155318e-03
1.304842e+02	-3.191860e-03
1.312378e+02	-3.228824e-03
1.319959e+02	-3.266217e-03
1.327583e+02	-3.304043e-03
1.335251e+02	-3.342306e-03
1.342963e+02	-3.381013e-03
1.350720e+02	-3.420167e-03
1.358522e+02	-3.459775e-03
1.366368e+02	-3.499841e-03
1.374260e+02	-3.540371e-03
1.382198e+02	-3.581370e-03
1.390182e+02	-3.622844e-03
1.398211e+02	-3.664798e-03
1.406287e+02	-3.707237e-03
1.414410e+02	-3.750168e-03
1.422579e+02	-3.793596e-03
1.430796e+02	-3.837526e-03
1.439060e+02	-3.881965e-03
1.447372e+02	-3.926918e-03
1.455732e+02	-3.972392e-03
1.464141e+02	-4.018392e-03
1.472597e+02	-4.064924e-03
1.481103e+02	-4.111995e-03
1.489658e+02	-4.159610e-03
1.498262e+02	-4.207777e-03
1.506916e+02	-4.256501e-03
1.515620e+02	-4.305790e-03
1.524374e+02	-4.355648e-03
1.533179e+02	-4.406084e-03
1.542034e+02	-4.457103e-03
1.550941e+02	-4.508713e-03
1.559899e+02	-4.560920e-03
1.568909e+02	-4.613732e-03
1.577971e+02	-4.667154e-03
1.587085e+02	-4.721195e-03
1.596252e+02	-4.775861e-03
1.605472e+02	-4.831160e-03
1.614745e+02	-4.887099e-03
1.624072e+02	-4.943685e-03
1.633453e+02	-5.000925e-03
1.642887e+02	-5.058829e-03
1.652377e+02	-5.117402e-03
1.661921e+02	-5.176653e-03
1.671520e+02	-5.236589e-03
1.681175e+02	-5.297220e-03
1.690885e+02	-5.358551e-03
1.700651e+02	-5.420593e-03
1.710474e+02	-5.483352e-03
1.720354e+02	-5.546837e-03
1.730291e+02	-5.611057e-03
1.740285e+02	-5.676020e-03
1.750337e+02	-5.741735e-03
1.760446e+02	-5.808210e-03
1.770615e+02	-5.875454e-03
1.780842e+02	-5.943476e-03
1.791128e+02	-6.012285e-03
1.801473e+02	-6.081890e-03
1.811878e+02	-6.152300e-03
1.822344e+02	-6.223525e-03
1.832870e+02	-6.295573e-03
1.843456e+02	-6.368456e-03
1.854104e+02	-6.442181e-03
1.864813e+02	-6.516759e-03
1.875584e+02	-6.592200e-03
1.886418e+02	-6.668514e-03
1.897313e+02	-6.745710e-03
1.908272e+02	-6.823799e-03
1.919294e+02	-6.902792e-03
1.930380e+02	-6.982698e-03
1.941530e+02	-7.063528e-03
1.952744e+02	-7.145294e-03
1.964023e+02	-7.228005e-03
1.975367e+02	-7.311672e-03
1.986777e+02	-7.396308e-03
1.998252e+02	-7.481922e-03
2.009794e+02	-7.568526e-03
2.021403e+02	-7.656132e-03
2.033078e+02	-7.744751e-03
2.044821e+02	-7.834395e-03
2.056632e+02	-7.925075e-03
2.068511e+02	-8.016804e-03
2.080459e+02	-8.109594e-03
2.092475e+02	-8.203457e-03
2.104561e+02	-8.298405e-03
2.116717e+02	-8.394451e-03
2.128943e+02	-8.491607e-03
2.141240e+02	-8.589887e-03
2.153608e+02	-8.689303e-03
2.166047e+02	-8.789869e-03
2.178558e+02	-8.891597e-03
2.191141e+02	-8.994502e-03
2.203797e+02	-9.098596e-03
2.216526e+02	-9.203894e-03
2.229329e+02	-9.310408e-03
2.242205e+02	-9.418155e-03
2.255156e+02	-9.527146e-03
2.268182e+02	-9.637398e-03
2.281283e+02	-9.748924e-03
2.294459e+02	-9.861739e-03
2.307712e+02	-9.975858e-03
2.321041e+02	-1.009130e-02
2.334447e+02	-1.020807e-02
2.347931e+02	-1.032619e-02
2.361493e+02	-1.044568e-02
2.375133e+02	-1.056655e-02
2.388851e+02	-1.068881e-02
2.402649e+02	-1.081249e-02
2.416527e+02	-1.093760e-02
2.430484e+02	-1.106415e-02
2.444523e+02	-1.119217e-02
2.458642e+02	-1.132166e-02
2.472843e+02	-1.145265e-02
2.487126e+02	-1.158516e-02
2.501492e+02	-1.171919e-02
2.515940e+02	-1.185477e-02
2.530472e+02	-1.199192e-02
2.545088e+02	-1.213066e-02
2.559789e+02	-1.227100e-02
2.574574e+02	-1.241296e-02
2.589444e+02	-1.255655e-02
2.604401e+02	-1.270181e-02
2.619444e+02	-1.284875e-02
2.634574e+02	-1.299738e-02
2.649791e+02	-1.314773e-02
2.665096e+02	-1.329982e-02
2.680489e+02	-1.345366e-02
2.695972e+02	-1.360928e-02
2.711544e+02	-1.376669e-02
2.727205e+02	-1.392593e-02
2.742958e+02	-1.408700e-02
2.758801e+02	-1.424993e-02
2.774736e+02	-1.441475e-02
2.790762e+02	-1.458147e-02
2.806882e+02	-1.475011e-02
2.823094e+02	-1.492070e-02
2.839400e+02	-1.509326e-02
2.855800e+02	-1.526781e-02
2.872295e+02	-1.544437e-02
2.888886e+02	-1.562298e-02
2.905572e+02	-1.580364e-02
2.922354e+02	-1.598639e-02
2.939234e+02	-1.617125e-02
2.956211e+02	-1.635825e-02
2.973286e+02	-1.654740e-02
2.990459e+02	-1.673874e-02
3.007732e+02	-1.693228e-02
3.025104e+02	-1.712806e-02
3.042577e+02	-1.732609e-02
3.060151e+02	-1.752641e-02
3.077826e+02	-1.772905e-02
3.095604e+02	-1.793402e-02
3.113484e+02	-1.814135e-02
3.131467e+02	-1.835108e-02
3.149554e+02	-1.856322e-02
3.167746e+02	-1.877782e-02
3.186043e+02	-1.899489e-02
3.204445e+02	-1.921446e-02
3.222954e+02	-1.943656e-02
3.241570e+02	-1.966123e-02
3.260293e+02	-1.988849e-02
3.279124e+02	-2.011836e-02
3.298064e+02	-2.035089e-02
3.317114e+02	-2.058610e-02
3.336273e+02	-2.082402e-02
3.355544e+02	-2.106469e-02
3.374925e+02	-2.130813e-02
3.394418e+02	-2.155437e-02
3.414024e+02	-2.180346e-02
3.433744e+02	-2.205541e-02
3.453577e+02	-2.231027e-02
3.473525e+02	-2.256807e-02
3.493588e+02	-2.282884e-02
3.513766e+02	-2.309261e-02
3.534062e+02	-2.335942e-02
3.554474e+02	-2.362931e-02
3.575005e+02	-2.390230e-02
3.595654e+02	-2.417845e-02
3.616422e+02	-2.445777e-02
3.637311e+02	-2.474031e-02
3.658320e+02	-2.502610e-02
3.679450e+02	-2.531519e-02
3.700702e+02	-2.560761e-02
3.722077e+02	-2.590339e-02
3.743576e+02	-2.620258e-02
3.765199e+02	-2.650521e-02
3.786946e+02	-2.681133e-02
3.808820e+02	-2.712098e-02
3.830819e+02	-2.743418e-02
3.852946e+02	-2.775100e-02
3.875200e+02	-2.807146e-02
3.897583e+02	-2.839561e-02
3.920096e+02	-2.872349e-02
3.942738e+02	-2.905514e-02
3.965511e+02	-2.939061e-02
3.988416e+02	-2.972994e-02
4.011452e+02	-3.007317e-02
4.034622e+02	-3.042035e-02
4.057926e+02	-3.077153e-02
4.081365e+02	-3.112675e-02
4.104938e+02	-3.148605e-02
4.128648e+02	-3.184948e-02
4.152495e+02	-3.221709e-02
4.176480e+02	-3.258893e-02
4.200603e+02	-3.296505e-02
4.224866e+02	-3.334549e-02
4.249268e+02	-3.373030e-02
4.273812e+02	-3.411953e-02
4.298497e+02	-3.451324e-02
4.323325e+02	-3.491148e-02
4.348297e+02	-3.531429e-02
4.373412e+02	-3.572173e-02
4.398673e+02	-3.613385e-02
4.424079e+02	-3.655070e-02
4.449633e+02	-3.697234e-02
4.475334e+02	-3.739883e-02
4.501183e+02	-3.783021e-02
4.527182e+02	-3.826655e-02
4.553330e+02	-3.870790e-02
4.579630e+02	-3.915431e-02
4.606082e+02	-3.960585e-02
4.632687e+02	-4.006258e-02
4.659445e+02	-4.052454e-02
4.686358e+02	-4.099181e-02
4.713426e+02	-4.146444e-02
4.740650e+02	-4.194249e-02
4.768032e+02	-4.242603e-02
4.795572e+02	-4.291511e-02
4.823271e+02	-4.340981e-02
4.851130e+02	-4.391017e-02
4.879150e+02	-4.441628e-02
4.907332e+02	-4.492819e-02
4.935676e+02	-4.544596e-02
4.964185e+02	-4.596968e-02
4.992858e+02	-4.649939e-02
5.021696e+02	-4.703518e-02
5.050701e+02	-4.757710e-02
5.079874e+02	-4.812524e-02
5.109215e+02	-4.867965e-02
5.138726e+02	-4.924042e-02
5.168407e+02	-4.980760e-02
5.198259e+02	-5.038129e-02
5.228284e+02	-5.096154e-02
5.258482e+02	-5.154843e-02
5.288855e+02	-5.214204e-02
5.319403e+02	-5.274245e-02
5.350128e+02	-5.334973e-02
5.381030e+02	-5.396396e-02
5.412111e+02	-5.458521e-02
5.443371e+02	-5.521357e-02
5.474812e+02	-5.584912e-02
5.506434e+02	-5.649193e-02
5.538239e+02	-5.714209e-02
5.570228e+02	-5.779969e-02
5.602401e+02	-5.846481e-02
5.634760e+02	-5.913752e-02
5.667306e+02	-5.981792e-02
5.700040e+02	-6.050610e-02
5.732964e+02	-6.120214e-02
5.766077e+02	-6.190612e-02
5.799382e+02	-6.261815e-02
5.832879e+02	-6.333830e-02
5.866569e+02	-6.406668e-02
5.900454e+02	-6.480337e-02
5.934535e+02	-6.554847e-02
5.968813e+02	-6.630207e-02
6.003288e+02	-6.706426e-02
6.037963e+02	-6.783515e-02
6.072838e+02	-6.861483e-02
6.107914e+02	-6.940340e-02
6.143194e+02	-7.020096e-02
6.178676e+02	-7.100760e-02
6.214364e+02	-7.182345e-02
6.250258e+02	-7.264858e-02
6.286359e+02	-7.348312e-02
6.322669e+02	-7.432715e-02
6.359189e+02	-7.518080e-02
6.395919e+02	-7.604417e-02
6.432862e+02	-7.691737e-02
6.470017e+02	-7.780050e-02
6.507388e+02	-7.869368e-02
6.544974e+02	-7.959702e-02
6.582778e+02	-8.051063e-02
6.620800e+02	-8.143463e-02
6.659041e+02	-8.236913e-02
6.697504e+02	-8.331425e-02
6.736188e+02	-8.427012e-02
6.775096e+02	-8.523684e-02
6.814229e+02	-8.621454e-02
6.853587e+02	-8.720335e-02
6.893173e+02	-8.820337e-02
6.932988e+02	-8.921475e-02
6.973033e+02	-9.023761e-02
7.013309e+02	-9.127207e-02
