Frequency(Hz)	Magnitude(dB)
1.000000e+01	-2.146181e+00
1.005776e+01	-2.165766e+00
1.011585e+01	-2.185567e+00
1.017428e+01	-2.205404e+00
1.023305e+01	-2.225281e+00
1.029215e+01	-2.245485e+00
1.035160e+01	-2.265688e+00
1.041139e+01	-2.286219e+00
1.047153e+01	-2.306641e+00
1.053201e+01	-2.327600e+00
1.059284e+01	-2.348187e+00
1.065403e+01	-2.369192e+00
1.071556e+01	-2.390266e+00
1.077746e+01	-2.411467e+00
1.083971e+01	-2.432894e+00
1.090232e+01	-2.454460e+00
1.096529e+01	-2.476107e+00
1.102862e+01	-2.497825e+00
1.109232e+01	-2.519817e+00
1.115639e+01	-2.541808e+00
1.122083e+01	-2.564266e+00
1.128564e+01	-2.586423e+00
1.135083e+01	-2.609041e+00
1.141639e+01	-2.631812e+00
1.148233e+01	-2.654354e+00
1.154865e+01	-2.677287e+00
1.161536e+01	-2.700722e+00
1.168245e+01	-2.723816e+00
1.174992e+01	-2.747074e+00
1.181779e+01	-2.770764e+00
1.188605e+01	-2.794261e+00
1.195470e+01	-2.818339e+00
1.202375e+01	-2.842074e+00
1.209320e+01	-2.866183e+00
1.216305e+01	-2.890271e+00
1.223330e+01	-2.914886e+00
1.230396e+01	-2.939340e+00
1.237503e+01	-2.964374e+00
1.244651e+01	-2.988980e+00
1.251840e+01	-3.014108e+00
1.259070e+01	-3.038979e+00
1.266343e+01	-3.064091e+00
1.273657e+01	-3.089501e+00
1.281014e+01	-3.115110e+00
1.288413e+01	-3.140814e+00
1.295855e+01	-3.166470e+00
1.303339e+01	-3.192578e+00
1.310867e+01	-3.218786e+00
1.318439e+01	-3.244953e+00
1.326054e+01	-3.271286e+00
1.333713e+01	-3.297922e+00
1.341417e+01	-3.324554e+00
1.349165e+01	-3.351393e+00
1.356958e+01	-3.378323e+00
1.364795e+01	-3.405498e+00
1.372678e+01	-3.432680e+00
1.380607e+01	-3.460393e+00
1.388581e+01	-3.487484e+00
1.396602e+01	-3.515460e+00
1.404668e+01	-3.543235e+00
1.412782e+01	-3.571285e+00
1.420942e+01	-3.599271e+00
1.429149e+01	-3.627560e+00
1.437404e+01	-3.655917e+00
1.445706e+01	-3.684555e+00
1.454057e+01	-3.713405e+00
1.462455e+01	-3.741967e+00
1.470902e+01	-3.770953e+00
1.479398e+01	-3.799939e+00
1.487943e+01	-3.829230e+00
1.496537e+01	-3.858874e+00
1.505181e+01	-3.888371e+00
1.513875e+01	-3.918244e+00
1.522619e+01	-3.947635e+00
1.531414e+01	-3.977775e+00
1.540259e+01	-4.007611e+00
1.549156e+01	-4.037873e+00
1.558103e+01	-4.068372e+00
1.567103e+01	-4.098695e+00
1.576155e+01	-4.129206e+00
1.585258e+01	-4.160356e+00
1.594415e+01	-4.191013e+00
1.603624e+01	-4.222026e+00
1.612886e+01	-4.253083e+00
1.622202e+01	-4.284462e+00
1.631572e+01	-4.316154e+00
1.640996e+01	-4.347411e+00
1.650474e+01	-4.379105e+00
1.660008e+01	-4.410939e+00
1.669596e+01	-4.442985e+00
1.679239e+01	-4.475255e+00
1.688938e+01	-4.507207e+00
1.698694e+01	-4.540188e+00
1.708505e+01	-4.572168e+00
1.718373e+01	-4.605034e+00
1.728299e+01	-4.637655e+00
1.738281e+01	-4.670600e+00
1.748322e+01	-4.703420e+00
1.758420e+01	-4.736659e+00
1.768576e+01	-4.769998e+00
1.778792e+01	-4.803494e+00
1.789066e+01	-4.837204e+00
1.799399e+01	-4.870509e+00
1.809793e+01	-4.904345e+00
1.820246e+01	-4.938352e+00
1.830760e+01	-4.972358e+00
1.841334e+01	-5.006707e+00
1.851969e+01	-5.040727e+00
1.862666e+01	-5.074947e+00
1.873425e+01	-5.109910e+00
1.884246e+01	-5.144548e+00
1.895129e+01	-5.179388e+00
1.906075e+01	-5.213926e+00
1.917085e+01	-5.249074e+00
1.928158e+01	-5.284361e+00
1.939295e+01	-5.319587e+00
1.950496e+01	-5.354873e+00
1.961762e+01	-5.390576e+00
1.973093e+01	-5.426214e+00
1.984490e+01	-5.461587e+00
1.995952e+01	-5.497647e+00
2.007480e+01	-5.533862e+00
2.019076e+01	-5.569986e+00
2.030738e+01	-5.606170e+00
2.042467e+01	-5.642017e+00
2.054264e+01	-5.678470e+00
2.066130e+01	-5.715395e+00
2.078064e+01	-5.752110e+00
2.090066e+01	-5.789003e+00
2.102139e+01	-5.825712e+00
2.114280e+01	-5.862790e+00
2.126492e+01	-5.899650e+00
2.138775e+01	-5.937211e+00
2.151128e+01	-5.974171e+00
2.163553e+01	-6.011910e+00
2.176050e+01	-6.049200e+00
2.188619e+01	-6.087057e+00
2.201260e+01	-6.124819e+00
2.213974e+01	-6.162200e+00
2.226762e+01	-6.200359e+00
2.239624e+01	-6.238549e+00
2.252560e+01	-6.276765e+00
2.265571e+01	-6.315194e+00
2.278656e+01	-6.353603e+00
2.291818e+01	-6.392158e+00
2.305055e+01	-6.430616e+00
2.318369e+01	-6.469257e+00
2.331760e+01	-6.508344e+00
2.345228e+01	-6.546853e+00
2.358774e+01	-6.586101e+00
2.372398e+01	-6.625092e+00
2.386101e+01	-6.664153e+00
2.399883e+01	-6.703608e+00
2.413745e+01	-6.743148e+00
2.427686e+01	-6.782487e+00
2.441709e+01	-6.821972e+00
2.455812e+01	-6.861594e+00
2.469997e+01	-6.901583e+00
2.484263e+01	-6.940974e+00
2.498612e+01	-6.980825e+00
2.513044e+01	-7.021224e+00
2.527559e+01	-7.061578e+00
2.542158e+01	-7.102247e+00
2.556842e+01	-7.141715e+00
2.571610e+01	-7.182324e+00
2.586463e+01	-7.223312e+00
2.601403e+01	-7.263551e+00
2.616428e+01	-7.304473e+00
2.631541e+01	-7.345219e+00
2.646740e+01	-7.385609e+00
2.662028e+01	-7.426793e+00
2.677404e+01	-7.467776e+00
2.692868e+01	-7.509152e+00
2.708422e+01	-7.550267e+00
2.724066e+01	-7.591384e+00
2.739800e+01	-7.632854e+00
2.755625e+01	-7.673970e+00
2.771541e+01	-7.715830e+00
2.787550e+01	-7.757544e+00
2.803650e+01	-7.798963e+00
2.819844e+01	-7.840535e+00
2.836131e+01	-7.882526e+00
2.852513e+01	-7.924362e+00
2.868989e+01	-7.966084e+00
2.885560e+01	-8.008884e+00
2.902227e+01	-8.050724e+00
2.918990e+01	-8.093172e+00
2.935850e+01	-8.135544e+00
2.952807e+01	-8.177483e+00
2.969863e+01	-8.219989e+00
2.987016e+01	-8.262305e+00
3.004269e+01	-8.305176e+00
3.021622e+01	-8.347413e+00
3.039075e+01	-8.390757e+00
3.056628e+01	-8.433574e+00
3.074283e+01	-8.476379e+00
3.092040e+01	-8.519601e+00
3.109900e+01	-8.562231e+00
3.127862e+01	-8.605176e+00
3.145929e+01	-8.648510e+00
3.164099e+01	-8.691599e+00
3.182375e+01	-8.734743e+00
3.200756e+01	-8.778170e+00
3.219244e+01	-8.821136e+00
3.237838e+01	-8.865824e+00
3.256540e+01	-8.908593e+00
3.275349e+01	-8.952821e+00
3.294268e+01	-8.995880e+00
3.313295e+01	-9.039494e+00
3.332433e+01	-9.083333e+00
3.351681e+01	-9.127822e+00
3.371040e+01	-9.171356e+00
3.390511e+01	-9.215540e+00
3.410094e+01	-9.259564e+00
3.429791e+01	-9.303678e+00
3.449601e+01	-9.348020e+00
3.469526e+01	-9.392435e+00
3.489566e+01	-9.436968e+00
3.509721e+01	-9.481236e+00
3.529993e+01	-9.524921e+00
3.550382e+01	-9.570195e+00
3.570889e+01	-9.614601e+00
3.591515e+01	-9.658891e+00
3.612259e+01	-9.703731e+00
3.633123e+01	-9.748210e+00
3.654108e+01	-9.793134e+00
3.675214e+01	-9.837866e+00
3.696442e+01	-9.882812e+00
3.717792e+01	-9.927759e+00
3.739266e+01	-9.972264e+00
3.760864e+01	-1.001740e+01
3.782587e+01	-1.006306e+01
3.804435e+01	-1.010743e+01
3.826409e+01	-1.015307e+01
3.848510e+01	-1.019789e+01
3.870739e+01	-1.024330e+01
3.893096e+01	-1.028869e+01
3.915583e+01	-1.033423e+01
3.938199e+01	-1.037920e+01
3.960946e+01	-1.042480e+01
3.983824e+01	-1.047040e+01
4.006834e+01	-1.051577e+01
4.029978e+01	-1.056179e+01
4.053255e+01	-1.060731e+01
4.076666e+01	-1.065270e+01
4.100213e+01	-1.069880e+01
4.123896e+01	-1.074462e+01
4.147715e+01	-1.079014e+01
4.171672e+01	-1.083622e+01
4.195767e+01	-1.088190e+01
4.220002e+01	-1.092770e+01
4.244377e+01	-1.097445e+01
4.268892e+01	-1.102087e+01
4.293549e+01	-1.106642e+01
4.318348e+01	-1.111281e+01
4.343291e+01	-1.115865e+01
4.368377e+01	-1.120534e+01
4.393609e+01	-1.125103e+01
4.418986e+01	-1.129761e+01
4.444510e+01	-1.134371e+01
4.470182e+01	-1.139052e+01
4.496001e+01	-1.143689e+01
4.521970e+01	-1.148316e+01
4.548089e+01	-1.152916e+01
4.574358e+01	-1.157582e+01
4.600779e+01	-1.162287e+01
4.627353e+01	-1.166941e+01
4.654081e+01	-1.171607e+01
4.680963e+01	-1.176196e+01
4.708000e+01	-1.180922e+01
4.735193e+01	-1.185579e+01
4.762543e+01	-1.190192e+01
4.790051e+01	-1.194993e+01
4.817719e+01	-1.199604e+01
4.845545e+01	-1.204278e+01
4.873533e+01	-1.209054e+01
4.901682e+01	-1.213712e+01
4.929994e+01	-1.218440e+01
4.958470e+01	-1.223118e+01
4.987110e+01	-1.227829e+01
5.015915e+01	-1.232533e+01
5.044887e+01	-1.237232e+01
5.074026e+01	-1.241939e+01
5.103333e+01	-1.246668e+01
5.132810e+01	-1.251400e+01
5.162457e+01	-1.256131e+01
5.192275e+01	-1.260852e+01
5.222265e+01	-1.265603e+01
5.252429e+01	-1.270305e+01
5.282767e+01	-1.275070e+01
5.313280e+01	-1.279788e+01
5.343969e+01	-1.284498e+01
5.374836e+01	-1.289170e+01
5.405880e+01	-1.294016e+01
5.437105e+01	-1.298717e+01
5.468509e+01	-1.303480e+01
5.500095e+01	-1.308256e+01
5.531863e+01	-1.313029e+01
5.563815e+01	-1.317733e+01
5.595951e+01	-1.322593e+01
5.628273e+01	-1.327302e+01
5.660782e+01	-1.332075e+01
5.693479e+01	-1.336834e+01
5.726364e+01	-1.341597e+01
5.759439e+01	-1.346372e+01
5.792705e+01	-1.351168e+01
5.826164e+01	-1.355985e+01
5.859815e+01	-1.360795e+01
5.893662e+01	-1.365430e+01
5.927703e+01	-1.370302e+01
5.961941e+01	-1.375154e+01
5.996377e+01	-1.379890e+01
6.031012e+01	-1.384704e+01
6.065847e+01	-1.389523e+01
6.100883e+01	-1.394293e+01
6.136121e+01	-1.399091e+01
6.171563e+01	-1.403883e+01
6.207210e+01	-1.408702e+01
6.243063e+01	-1.413553e+01
6.279122e+01	-1.418354e+01
6.315390e+01	-1.423172e+01
6.351868e+01	-1.427955e+01
6.388556e+01	-1.432728e+01
6.425456e+01	-1.437632e+01
6.462569e+01	-1.442408e+01
6.499897e+01	-1.447339e+01
6.537440e+01	-1.452064e+01
6.575200e+01	-1.456920e+01
6.613178e+01	-1.461772e+01
6.651375e+01	-1.466643e+01
6.689793e+01	-1.471405e+01
6.728433e+01	-1.476231e+01
6.767297e+01	-1.481036e+01
6.806384e+01	-1.485853e+01
6.845698e+01	-1.490726e+01
6.885238e+01	-1.495644e+01
6.925007e+01	-1.500417e+01
6.965005e+01	-1.505299e+01
7.005235e+01	-1.510052e+01
7.045697e+01	-1.514979e+01
7.086393e+01	-1.519777e+01
7.127323e+01	-1.524641e+01
7.168490e+01	-1.529577e+01
7.209895e+01	-1.534414e+01
7.251539e+01	-1.539199e+01
7.293424e+01	-1.544065e+01
7.335551e+01	-1.548920e+01
7.377920e+01	-1.553817e+01
7.420535e+01	-1.558621e+01
7.463396e+01	-1.563519e+01
7.506504e+01	-1.568482e+01
7.549861e+01	-1.573222e+01
7.593469e+01	-1.578212e+01
7.637328e+01	-1.583002e+01
7.681441e+01	-1.587991e+01
7.725809e+01	-1.592775e+01
7.770433e+01	-1.597652e+01
7.815315e+01	-1.602486e+01
7.860456e+01	-1.607416e+01
7.905857e+01	-1.612226e+01
7.951521e+01	-1.617233e+01
7.997449e+01	-1.622005e+01
8.043642e+01	-1.626969e+01
8.090102e+01	-1.631747e+01
8.136830e+01	-1.636756e+01
8.183828e+01	-1.641643e+01
8.231097e+01	-1.646512e+01
8.278640e+01	-1.651400e+01
8.326457e+01	-1.656171e+01
8.374550e+01	-1.661213e+01
8.422921e+01	-1.666065e+01
8.471572e+01	-1.670964e+01
8.520503e+01	-1.675818e+01
8.569717e+01	-1.680837e+01
8.619215e+01	-1.685680e+01
8.669000e+01	-1.690665e+01
8.719071e+01	-1.695378e+01
8.769432e+01	-1.700358e+01
8.820084e+01	-1.705190e+01
8.871029e+01	-1.710069e+01
8.922267e+01	-1.715078e+01
8.973802e+01	-1.719932e+01
9.025634e+01	-1.724843e+01
9.077766e+01	-1.729896e+01
9.130199e+01	-1.734715e+01
9.182935e+01	-1.739669e+01
9.235975e+01	-1.744426e+01
9.289321e+01	-1.749408e+01
9.342976e+01	-1.754369e+01
9.396941e+01	-1.759256e+01
9.451217e+01	-1.764237e+01
9.505807e+01	-1.769207e+01
9.560712e+01	-1.774016e+01
9.615934e+01	-1.778861e+01
9.671476e+01	-1.783886e+01
9.727338e+01	-1.788897e+01
9.783522e+01	-1.793746e+01
9.840032e+01	-1.798526e+01
9.896867e+01	-1.803562e+01
9.954031e+01	-1.808524e+01
1.001153e+02	-1.813456e+01
1.006935e+02	-1.818357e+01
1.012751e+02	-1.823282e+01
1.018601e+02	-1.828204e+01
1.024484e+02	-1.833066e+01
1.030402e+02	-1.838184e+01
1.036353e+02	-1.843087e+01
1.042339e+02	-1.848005e+01
1.048360e+02	-1.852755e+01
1.054415e+02	-1.857830e+01
1.060505e+02	-1.862775e+01
1.066631e+02	-1.867662e+01
1.072791e+02	-1.872432e+01
1.078988e+02	-1.877608e+01
1.085220e+02	-1.882444e+01
1.091488e+02	-1.887515e+01
1.097793e+02	-1.892338e+01
1.104133e+02	-1.897214e+01
1.110511e+02	-1.902268e+01
1.116925e+02	-1.906975e+01
1.123376e+02	-1.912088e+01
1.129865e+02	-1.916953e+01
1.136391e+02	-1.922133e+01
1.142955e+02	-1.926988e+01
1.149556e+02	-1.931922e+01
1.156196e+02	-1.936793e+01
1.162874e+02	-1.941798e+01
1.169591e+02	-1.946746e+01
1.176347e+02	-1.951588e+01
1.183141e+02	-1.956450e+01
1.189975e+02	-1.961577e+01
1.196848e+02	-1.966433e+01
1.203761e+02	-1.971574e+01
1.210714e+02	-1.976436e+01
1.217707e+02	-1.981389e+01
1.224740e+02	-1.986414e+01
1.231814e+02	-1.991293e+01
1.238929e+02	-1.996049e+01
1.246085e+02	-2.001258e+01
1.253283e+02	-2.006122e+01
1.260522e+02	-2.011092e+01
1.267802e+02	-2.016116e+01
1.275125e+02	-2.020847e+01
1.282490e+02	-2.025945e+01
1.289898e+02	-2.030981e+01
1.297348e+02	-2.035894e+01
1.304842e+02	-2.040843e+01
1.312378e+02	-2.045953e+01
1.319959e+02	-2.050775e+01
1.327583e+02	-2.055704e+01
1.335251e+02	-2.060641e+01
1.342963e+02	-2.065671e+01
1.350720e+02	-2.070599e+01
1.358522e+02	-2.075665e+01
1.366368e+02	-2.080578e+01
1.374260e+02	-2.085392e+01
1.382198e+02	-2.090485e+01
1.390182e+02	-2.095318e+01
1.398211e+02	-2.100384e+01
1.406287e+02	-2.105403e+01
1.414410e+02	-2.110317e+01
1.422579e+02	-2.115301e+01
1.430796e+02	-2.120253e+01
1.439060e+02	-2.125252e+01
1.447372e+02	-2.130154e+01
1.455732e+02	-2.135150e+01
1.464141e+02	-2.140217e+01
1.472597e+02	-2.145241e+01
1.481103e+02	-2.150023e+01
1.489658e+02	-2.155117e+01
1.498262e+02	-2.159983e+01
1.506916e+02	-2.165254e+01
1.515620e+02	-2.169714e+01
1.524374e+02	-2.174860e+01
1.533179e+02	-2.179713e+01
1.542034e+02	-2.184830e+01
1.550941e+02	-2.189741e+01
1.559899e+02	-2.194560e+01
1.568909e+02	-2.199705e+01
1.577971e+02	-2.204654e+01
1.587085e+02	-2.209811e+01
1.596252e+02	-2.214739e+01
1.605472e+02	-2.219642e+01
1.614745e+02	-2.224546e+01
1.624072e+02	-2.229600e+01
1.633453e+02	-2.234507e+01
1.642887e+02	-2.239557e+01
1.652377e+02	-2.244391e+01
1.661921e+02	-2.249470e+01
1.671520e+02	-2.254337e+01
1.681175e+02	-2.259490e+01
1.690885e+02	-2.264559e+01
1.700651e+02	-2.269267e+01
1.710474e+02	-2.274309e+01
1.720354e+02	-2.279162e+01
1.730291e+02	-2.284113e+01
1.740285e+02	-2.289286e+01
1.750337e+02	-2.294150e+01
1.760446e+02	-2.299227e+01
1.770615e+02	-2.304275e+01
1.780842e+02	-2.309345e+01
1.791128e+02	-2.314071e+01
1.801473e+02	-2.318910e+01
1.811878e+02	-2.323982e+01
1.822344e+02	-2.328882e+01
1.832870e+02	-2.334213e+01
1.843456e+02	-2.339231e+01
1.854104e+02	-2.343950e+01
1.864813e+02	-2.349084e+01
1.875584e+02	-2.353972e+01
1.886418e+02	-2.359003e+01
1.897313e+02	-2.364357e+01
1.908272e+02	-2.368837e+01
1.919294e+02	-2.373948e+01
1.930380e+02	-2.378947e+01
1.941530e+02	-2.383849e+01
1.952744e+02	-2.388818e+01
1.964023e+02	-2.393886e+01
1.975367e+02	-2.399055e+01
1.986777e+02	-2.404027e+01
1.998252e+02	-2.409043e+01
2.009794e+02	-2.413886e+01
2.021403e+02	-2.418901e+01
2.033078e+02	-2.423929e+01
2.044821e+02	-2.428800e+01
2.056632e+02	-2.433706e+01
2.068511e+02	-2.438688e+01
2.080459e+02	-2.443693e+01
2.092475e+02	-2.448626e+01
2.104561e+02	-2.453791e+01
2.116717e+02	-2.459004e+01
2.128943e+02	-2.463627e+01
2.141240e+02	-2.468644e+01
2.153608e+02	-2.473707e+01
2.166047e+02	-2.478802e+01
2.178558e+02	-2.483501e+01
2.191141e+02	-2.488913e+01
2.203797e+02	-2.493704e+01
2.216526e+02	-2.498774e+01
2.229329e+02	-2.503792e+01
2.242205e+02	-2.508738e+01
2.255156e+02	-2.513563e+01
2.268182e+02	-2.518749e+01
2.281283e+02	-2.523610e+01
2.294459e+02	-2.528732e+01
2.307712e+02	-2.533748e+01
2.321041e+02	-2.538491e+01
2.334447e+02	-2.543621e+01
2.347931e+02	-2.548599e+01
2.361493e+02	-2.553621e+01
2.375133e+02	-2.558340e+01
2.388851e+02	-2.563589e+01
2.402649e+02	-2.568572e+01
2.416527e+02	-2.573191e+01
2.430484e+02	-2.578542e+01
2.444523e+02	-2.583475e+01
2.458642e+02	-2.588953e+01
2.472843e+02	-2.593277e+01
2.487126e+02	-2.598720e+01
2.501492e+02	-2.603986e+01
2.515940e+02	-2.608601e+01
2.530472e+02	-2.613836e+01
2.545088e+02	-2.618625e+01
2.559789e+02	-2.623593e+01
2.574574e+02	-2.628463e+01
2.589444e+02	-2.633347e+01
2.604401e+02	-2.638421e+01
2.619444e+02	-2.643441e+01
2.634574e+02	-2.648591e+01
2.649791e+02	-2.653340e+01
2.665096e+02	-2.658452e+01
2.680489e+02	-2.663623e+01
2.695972e+02	-2.668572e+01
2.711544e+02	-2.673402e+01
2.727205e+02	-2.678498e+01
2.742958e+02	-2.683409e+01
2.758801e+02	-2.688723e+01
2.774736e+02	-2.693679e+01
2.790762e+02	-2.698494e+01
2.806882e+02	-2.703376e+01
2.823094e+02	-2.708267e+01
2.839400e+02	-2.713161e+01
2.855800e+02	-2.718453e+01
2.872295e+02	-2.723424e+01
2.888886e+02	-2.728480e+01
2.905572e+02	-2.733486e+01
2.922354e+02	-2.738564e+01
2.939234e+02	-2.743608e+01
2.956211e+02	-2.748457e+01
2.973286e+02	-2.753469e+01
2.990459e+02	-2.758140e+01
3.007732e+02	-2.763582e+01
3.025104e+02	-2.768251e+01
3.042577e+02	-2.773611e+01
3.060151e+02	-2.778221e+01
3.077826e+02	-2.783631e+01
3.095604e+02	-2.788002e+01
3.113484e+02	-2.793423e+01
3.131467e+02	-2.798007e+01
3.149554e+02	-2.803208e+01
3.167746e+02	-2.809005e+01
3.186043e+02	-2.813393e+01
3.204445e+02	-2.818202e+01
3.222954e+02	-2.823635e+01
3.241570e+02	-2.828731e+01
3.260293e+02	-2.833202e+01
3.279124e+02	-2.838098e+01
3.298064e+02	-2.843805e+01
3.317114e+02	-2.848556e+01
3.336273e+02	-2.853326e+01
3.355544e+02	-2.858754e+01
3.374925e+02	-2.863832e+01
3.394418e+02	-2.868602e+01
3.414024e+02	-2.873576e+01
3.433744e+02	-2.878491e+01
3.453577e+02	-2.883318e+01
3.473525e+02	-2.888789e+01
3.493588e+02	-2.893855e+01
3.513766e+02	-2.898601e+01
3.534062e+02	-2.903778e+01
3.554474e+02	-2.908663e+01
3.575005e+02	-2.913740e+01
3.595654e+02	-2.918227e+01
3.616422e+02	-2.923496e+01
3.637311e+02	-2.928657e+01
3.658320e+02	-2.933641e+01
3.679450e+02	-2.938359e+01
3.700702e+02	-2.943548e+01
3.722077e+02	-2.948586e+01
3.743576e+02	-2.953358e+01
3.765199e+02	-2.958878e+01
3.786946e+02	-2.963744e+01
3.808820e+02	-2.968410e+01
3.830819e+02	-2.973565e+01
3.852946e+02	-2.978775e+01
3.875200e+02	-2.983642e+01
3.897583e+02	-2.988453e+01
3.920096e+02	-2.993890e+01
3.942738e+02	-2.998436e+01
3.965511e+02	-3.003658e+01
3.988416e+02	-3.008574e+01
4.011452e+02	-3.013562e+01
4.034622e+02	-3.018743e+01
4.057926e+02	-3.023759e+01
4.081365e+02	-3.028764e+01
4.104938e+02	-3.033499e+01
4.128648e+02	-3.038474e+01
4.152495e+02	-3.043804e+01
4.176480e+02	-3.049381e+01
4.200603e+02	-3.053757e+01
4.224866e+02	-3.058995e+01
4.249268e+02	-3.063316e+01
4.273812e+02	-3.068910e+01
4.298497e+02	-3.073439e+01
4.323325e+02	-3.078760e+01
4.348297e+02	-3.083719e+01
4.373412e+02	-3.088480e+01
4.398673e+02	-3.094042e+01
4.424079e+02	-3.098832e+01
4.449633e+02	-3.104263e+01
4.475334e+02	-3.109240e+01
4.501183e+02	-3.113783e+01
4.527182e+02	-3.119331e+01
4.553330e+02	-3.124713e+01
4.579630e+02	-3.128846e+01
4.606082e+02	-3.134100e+01
4.632687e+02	-3.139045e+01
4.659445e+02	-3.144133e+01
4.686358e+02	-3.148767e+01
4.713426e+02	-3.154218e+01
4.740650e+02	-3.159195e+01
4.768032e+02	-3.164130e+01
4.795572e+02	-3.169367e+01
4.823271e+02	-3.174460e+01
4.851130e+02	-3.179918e+01
4.879150e+02	-3.183992e+01
4.907332e+02	-3.189626e+01
4.935676e+02	-3.193864e+01
4.964185e+02	-3.199523e+01
4.992858e+02	-3.204445e+01
5.021696e+02	-3.208925e+01
5.050701e+02	-3.214276e+01
5.079874e+02	-3.219978e+01
5.109215e+02	-3.224193e+01
5.138726e+02	-3.228599e+01
5.168407e+02	-3.234820e+01
5.198259e+02	-3.240538e+01
5.228284e+02	-3.244199e+01
5.258482e+02	-3.249519e+01
5.288855e+02	-3.254273e+01
5.319403e+02	-3.259196e+01
5.350128e+02	-3.264583e+01
5.381030e+02	-3.269290e+01
5.412111e+02	-3.274518e+01
5.443371e+02	-3.279297e+01
5.474812e+02	-3.284749e+01
5.506434e+02	-3.289800e+01
5.538239e+02	-3.294999e+01
5.570228e+02	-3.299255e+01
5.602401e+02	-3.304994e+01
5.634760e+02	-3.309445e+01
5.667306e+02	-3.315745e+01
5.700040e+02	-3.319850e+01
5.732964e+02	-3.324416e+01
5.766077e+02	-3.330071e+01
5.799382e+02	-3.335120e+01
5.832879e+02	-3.339396e+01
5.866569e+02	-3.345074e+01
5.900454e+02	-3.350418e+01
5.934535e+02	-3.355141e+01
5.968813e+02	-3.359907e+01
6.003288e+02	-3.364223e+01
6.037963e+02	-3.369732e+01
6.072838e+02	-3.376007e+01
6.107914e+02	-3.380131e+01
6.143194e+02	-3.385266e+01
6.178676e+02	-3.390083e+01
6.214364e+02	-3.395344e+01
6.250258e+02	-3.400784e+01
6.286359e+02	-3.405846e+01
6.322669e+02	-3.410709e+01
6.359189e+02	-3.414644e+01
6.395919e+02	-3.420535e+01
6.432862e+02	-3.425490e+01
6.470017e+02	-3.430813e+01
6.507388e+02	-3.435192e+01
6.544974e+02	-3.440189e+01
6.582778e+02	-3.445576e+01
6.620800e+02	-3.450439e+01
6.659041e+02	-3.456164e+01
6.697504e+02	-3.460652e+01
6.736188e+02	-3.465785e+01
6.775096e+02	-3.470963e+01
6.814229e+02	-3.475646e+01
6.853587e+02	-3.480944e+01
6.893173e+02	-3.485555e+01
6.932988e+02	-3.490577e+01
6.973033e+02	-3.495347e+01
7.013309e+02	-3.501362e+01
