Frequency(Hz)	Magnitude(dB)
1.000000e+01	-1.788987e-05
1.005776e+01	-1.809713e-05
1.011585e+01	-1.830679e-05
1.017428e+01	-1.851888e-05
1.023305e+01	-1.873342e-05
1.029215e+01	-1.895045e-05
1.035160e+01	-1.917000e-05
1.041139e+01	-1.939209e-05
1.047153e+01	-1.961675e-05
1.053201e+01	-1.984402e-05
1.059284e+01	-2.007391e-05
1.065403e+01	-2.030648e-05
1.071556e+01	-2.054173e-05
1.077746e+01	-2.077971e-05
1.083971e+01	-2.102045e-05
1.090232e+01	-2.126398e-05
1.096529e+01	-2.151033e-05
1.102862e+01	-2.175953e-05
1.109232e+01	-2.201162e-05
1.115639e+01	-2.226663e-05
1.122083e+01	-2.252459e-05
1.128564e+01	-2.278555e-05
1.135083e+01	-2.304952e-05
1.141639e+01	-2.331656e-05
1.148233e+01	-2.358669e-05
1.154865e+01	-2.385994e-05
1.161536e+01	-2.413637e-05
1.168245e+01	-2.441599e-05
1.174992e+01	-2.469886e-05
1.181779e+01	-2.498500e-05
1.188605e+01	-2.527446e-05
1.195470e+01	-2.556727e-05
1.202375e+01	-2.586347e-05
1.209320e+01	-2.616311e-05
1.216305e+01	-2.646621e-05
1.223330e+01	-2.677283e-05
1.230396e+01	-2.708300e-05
1.237503e+01	-2.739676e-05
1.244651e+01	-2.771416e-05
1.251840e+01	-2.803524e-05
1.259070e+01	-2.836003e-05
1.266343e+01	-2.868859e-05
1.273657e+01	-2.902095e-05
1.281014e+01	-2.935717e-05
1.288413e+01	-2.969728e-05
1.295855e+01	-3.004133e-05
1.303339e+01	-3.038936e-05
1.310867e+01	-3.074143e-05
1.318439e+01	-3.109758e-05
1.326054e+01	-3.145785e-05
1.333713e+01	-3.182230e-05
1.341417e+01	-3.219097e-05
1.349165e+01	-3.256391e-05
1.356958e+01	-3.294117e-05
1.364795e+01	-3.332280e-05
1.372678e+01	-3.370885e-05
1.380607e+01	-3.409938e-05
1.388581e+01	-3.449442e-05
1.396602e+01	-3.489405e-05
1.404668e+01	-3.529831e-05
1.412782e+01	-3.570725e-05
1.420942e+01	-3.612092e-05
1.429149e+01	-3.653939e-05
1.437404e+01	-3.696271e-05
1.445706e+01	-3.739093e-05
1.454057e+01	-3.782411e-05
1.462455e+01	-3.826231e-05
1.470902e+01	-3.870559e-05
1.479398e+01	-3.915400e-05
1.487943e+01	-3.960761e-05
1.496537e+01	-4.006648e-05
1.505181e+01	-4.053065e-05
1.513875e+01	-4.100021e-05
1.522619e+01	-4.147521e-05
1.531414e+01	-4.195571e-05
1.540259e+01	-4.244177e-05
1.549156e+01	-4.293347e-05
1.558103e+01	-4.343087e-05
1.567103e+01	-4.393402e-05
1.576155e+01	-4.444301e-05
1.585258e+01	-4.495789e-05
1.594415e+01	-4.547874e-05
1.603624e+01	-4.600562e-05
1.612886e+01	-4.653860e-05
1.622202e+01	-4.707776e-05
1.631572e+01	-4.762317e-05
1.640996e+01	-4.817489e-05
1.650474e+01	-4.873301e-05
1.660008e+01	-4.929759e-05
1.669596e+01	-4.986871e-05
1.679239e+01	-5.044645e-05
1.688938e+01	-5.103089e-05
1.698694e+01	-5.162209e-05
1.708505e+01	-5.222014e-05
1.718373e+01	-5.282512e-05
1.728299e+01	-5.343711e-05
1.738281e+01	-5.405619e-05
1.748322e+01	-5.468245e-05
1.758420e+01	-5.531595e-05
1.768576e+01	-5.595680e-05
1.778792e+01	-5.660507e-05
1.789066e+01	-5.726085e-05
1.799399e+01	-5.792423e-05
1.809793e+01	-5.859530e-05
1.820246e+01	-5.927413e-05
1.830760e+01	-5.996084e-05
1.841334e+01	-6.065550e-05
1.851969e+01	-6.135820e-05
1.862666e+01	-6.206905e-05
1.873425e+01	-6.278813e-05
1.884246e+01	-6.351554e-05
1.895129e+01	-6.425138e-05
1.906075e+01	-6.499575e-05
1.917085e+01	-6.574874e-05
1.928158e+01	-6.651045e-05
1.939295e+01	-6.728098e-05
1.950496e+01	-6.806045e-05
1.961762e+01	-6.884894e-05
1.973093e+01	-6.964657e-05
1.984490e+01	-7.045344e-05
1.995952e+01	-7.126965e-05
2.007480e+01	-7.209532e-05
2.019076e+01	-7.293056e-05
2.030738e+01	-7.377547e-05
2.042467e+01	-7.463018e-05
2.054264e+01	-7.549478e-05
2.066130e+01	-7.636940e-05
2.078064e+01	-7.725415e-05
2.090066e+01	-7.814916e-05
2.102139e+01	-7.905453e-05
2.114280e+01	-7.997039e-05
2.126492e+01	-8.089686e-05
2.138775e+01	-8.183406e-05
2.151128e+01	-8.278213e-05
2.163553e+01	-8.374117e-05
2.176050e+01	-8.471133e-05
2.188619e+01	-8.569272e-05
2.201260e+01	-8.668548e-05
2.213974e+01	-8.768975e-05
2.226762e+01	-8.870565e-05
2.239624e+01	-8.973332e-05
2.252560e+01	-9.077289e-05
2.265571e+01	-9.182451e-05
2.278656e+01	-9.288831e-05
2.291818e+01	-9.396444e-05
2.305055e+01	-9.505303e-05
2.318369e+01	-9.615424e-05
2.331760e+01	-9.726820e-05
2.345228e+01	-9.839506e-05
2.358774e+01	-9.953498e-05
2.372398e+01	-1.006881e-04
2.386101e+01	-1.018546e-04
2.399883e+01	-1.030346e-04
2.413745e+01	-1.042283e-04
2.427686e+01	-1.054358e-04
2.441709e+01	-1.066573e-04
2.455812e+01	-1.078929e-04
2.469997e+01	-1.091428e-04
2.484263e+01	-1.104073e-04
2.498612e+01	-1.116864e-04
2.513044e+01	-1.129803e-04
2.527559e+01	-1.142892e-04
2.542158e+01	-1.156132e-04
2.556842e+01	-1.169526e-04
2.571610e+01	-1.183075e-04
2.586463e+01	-1.196781e-04
2.601403e+01	-1.210646e-04
2.616428e+01	-1.224672e-04
2.631541e+01	-1.238859e-04
2.646740e+01	-1.253212e-04
2.662028e+01	-1.267730e-04
2.677404e+01	-1.282417e-04
2.692868e+01	-1.297274e-04
2.708422e+01	-1.312303e-04
2.724066e+01	-1.327506e-04
2.739800e+01	-1.342886e-04
2.755625e+01	-1.358443e-04
2.771541e+01	-1.374181e-04
2.787550e+01	-1.390101e-04
2.803650e+01	-1.406205e-04
2.819844e+01	-1.422496e-04
2.836131e+01	-1.438976e-04
2.852513e+01	-1.455647e-04
2.868989e+01	-1.472510e-04
2.885560e+01	-1.489570e-04
2.902227e+01	-1.506826e-04
2.918990e+01	-1.524283e-04
2.935850e+01	-1.541942e-04
2.952807e+01	-1.559806e-04
2.969863e+01	-1.577876e-04
2.987016e+01	-1.596156e-04
3.004269e+01	-1.614647e-04
3.021622e+01	-1.633353e-04
3.039075e+01	-1.652276e-04
3.056628e+01	-1.671417e-04
3.074283e+01	-1.690781e-04
3.092040e+01	-1.710369e-04
3.109900e+01	-1.730183e-04
3.127862e+01	-1.750228e-04
3.145929e+01	-1.770504e-04
3.164099e+01	-1.791015e-04
3.182375e+01	-1.811764e-04
3.200756e+01	-1.832754e-04
3.219244e+01	-1.853986e-04
3.237838e+01	-1.875465e-04
3.256540e+01	-1.897192e-04
3.275349e+01	-1.919171e-04
3.294268e+01	-1.941405e-04
3.313295e+01	-1.963896e-04
3.332433e+01	-1.986648e-04
3.351681e+01	-2.009663e-04
3.371040e+01	-2.032945e-04
3.390511e+01	-2.056497e-04
3.410094e+01	-2.080321e-04
3.429791e+01	-2.104422e-04
3.449601e+01	-2.128801e-04
3.469526e+01	-2.153463e-04
3.489566e+01	-2.178411e-04
3.509721e+01	-2.203648e-04
3.529993e+01	-2.229177e-04
3.550382e+01	-2.255002e-04
3.570889e+01	-2.281127e-04
3.591515e+01	-2.307553e-04
3.612259e+01	-2.334286e-04
3.633123e+01	-2.361329e-04
3.654108e+01	-2.388685e-04
3.675214e+01	-2.416358e-04
3.696442e+01	-2.444351e-04
3.717792e+01	-2.472669e-04
3.739266e+01	-2.501314e-04
3.760864e+01	-2.530292e-04
3.782587e+01	-2.559605e-04
3.804435e+01	-2.589258e-04
3.826409e+01	-2.619254e-04
3.848510e+01	-2.649598e-04
3.870739e+01	-2.680294e-04
3.893096e+01	-2.711345e-04
3.915583e+01	-2.742755e-04
3.938199e+01	-2.774530e-04
3.960946e+01	-2.806673e-04
3.983824e+01	-2.839188e-04
4.006834e+01	-2.872079e-04
4.029978e+01	-2.905352e-04
4.053255e+01	-2.939010e-04
4.076666e+01	-2.973058e-04
4.100213e+01	-3.007501e-04
4.123896e+01	-3.042342e-04
4.147715e+01	-3.077587e-04
4.171672e+01	-3.113241e-04
4.195767e+01	-3.149307e-04
4.220002e+01	-3.185792e-04
4.244377e+01	-3.222699e-04
4.268892e+01	-3.260033e-04
4.293549e+01	-3.297800e-04
4.318348e+01	-3.336004e-04
4.343291e+01	-3.374651e-04
4.368377e+01	-3.413746e-04
4.393609e+01	-3.453294e-04
4.418986e+01	-3.493300e-04
4.444510e+01	-3.533769e-04
4.470182e+01	-3.574707e-04
4.496001e+01	-3.616119e-04
4.521970e+01	-3.658011e-04
4.548089e+01	-3.700388e-04
4.574358e+01	-3.743256e-04
4.600779e+01	-3.786621e-04
4.627353e+01	-3.830488e-04
4.654081e+01	-3.874864e-04
4.680963e+01	-3.919753e-04
4.708000e+01	-3.965162e-04
4.735193e+01	-4.011098e-04
4.762543e+01	-4.057565e-04
4.790051e+01	-4.104571e-04
4.817719e+01	-4.152121e-04
4.845545e+01	-4.200222e-04
4.873533e+01	-4.248881e-04
4.901682e+01	-4.298103e-04
4.929994e+01	-4.347895e-04
4.958470e+01	-4.398264e-04
4.987110e+01	-4.449217e-04
5.015915e+01	-4.500759e-04
5.044887e+01	-4.552899e-04
5.074026e+01	-4.605643e-04
5.103333e+01	-4.658998e-04
5.132810e+01	-4.712971e-04
5.162457e+01	-4.767569e-04
5.192275e+01	-4.822799e-04
5.222265e+01	-4.878669e-04
5.252429e+01	-4.935187e-04
5.282767e+01	-4.992359e-04
5.313280e+01	-5.050194e-04
5.343969e+01	-5.108698e-04
5.374836e+01	-5.167880e-04
5.405880e+01	-5.227748e-04
5.437105e+01	-5.288309e-04
5.468509e+01	-5.349572e-04
5.500095e+01	-5.411544e-04
5.531863e+01	-5.474235e-04
5.563815e+01	-5.537651e-04
5.595951e+01	-5.601802e-04
5.628273e+01	-5.666696e-04
5.660782e+01	-5.732342e-04
5.693479e+01	-5.798749e-04
5.726364e+01	-5.865924e-04
5.759439e+01	-5.933878e-04
5.792705e+01	-6.002619e-04
5.826164e+01	-6.072156e-04
5.859815e+01	-6.142499e-04
5.893662e+01	-6.213656e-04
5.927703e+01	-6.285638e-04
5.961941e+01	-6.358453e-04
5.996377e+01	-6.432112e-04
6.031012e+01	-6.506624e-04
6.065847e+01	-6.582000e-04
6.100883e+01	-6.658248e-04
6.136121e+01	-6.735380e-04
6.171563e+01	-6.813405e-04
6.207210e+01	-6.892334e-04
6.243063e+01	-6.972177e-04
6.279122e+01	-7.052945e-04
6.315390e+01	-7.134649e-04
6.351868e+01	-7.217299e-04
6.388556e+01	-7.300906e-04
6.425456e+01	-7.385482e-04
6.462569e+01	-7.471037e-04
6.499897e+01	-7.557584e-04
6.537440e+01	-7.645133e-04
6.575200e+01	-7.733696e-04
6.613178e+01	-7.823285e-04
6.651375e+01	-7.913911e-04
6.689793e+01	-8.005588e-04
6.728433e+01	-8.098326e-04
6.767297e+01	-8.192139e-04
6.806384e+01	-8.287038e-04
6.845698e+01	-8.383036e-04
6.885238e+01	-8.480146e-04
6.925007e+01	-8.578381e-04
6.965005e+01	-8.677754e-04
7.005235e+01	-8.778278e-04
7.045697e+01	-8.879967e-04
7.086393e+01	-8.982833e-04
7.127323e+01	-9.086891e-04
7.168490e+01	-9.192154e-04
7.209895e+01	-9.298636e-04
7.251539e+01	-9.406351e-04
7.293424e+01	-9.515315e-04
7.335551e+01	-9.625540e-04
7.377920e+01	-9.737042e-04
7.420535e+01	-9.849835e-04
7.463396e+01	-9.963935e-04
7.506504e+01	-1.007936e-03
7.549861e+01	-1.019612e-03
7.593469e+01	-1.031423e-03
7.637328e+01	-1.043370e-03
7.681441e+01	-1.055457e-03
7.725809e+01	-1.067683e-03
7.770433e+01	-1.080051e-03
7.815315e+01	-1.092562e-03
7.860456e+01	-1.105218e-03
7.905857e+01	-1.118021e-03
7.951521e+01	-1.130971e-03
7.997449e+01	-1.144072e-03
8.043642e+01	-1.157325e-03
8.090102e+01	-1.170731e-03
8.136830e+01	-1.184292e-03
8.183828e+01	-1.198011e-03
8.231097e+01	-1.211888e-03
8.278640e+01	-1.225926e-03
8.326457e+01	-1.240127e-03
8.374550e+01	-1.254492e-03
8.422921e+01	-1.269024e-03
8.471572e+01	-1.283723e-03
8.520503e+01	-1.298594e-03
8.569717e+01	-1.313636e-03
8.619215e+01	-1.328852e-03
8.669000e+01	-1.344245e-03
8.719071e+01	-1.359816e-03
8.769432e+01	-1.375567e-03
8.820084e+01	-1.391501e-03
8.871029e+01	-1.407619e-03
8.922267e+01	-1.423924e-03
8.973802e+01	-1.440418e-03
9.025634e+01	-1.457103e-03
9.077766e+01	-1.473981e-03
9.130199e+01	-1.491055e-03
9.182935e+01	-1.508326e-03
9.235975e+01	-1.525797e-03
9.289321e+01	-1.543471e-03
9.342976e+01	-1.561349e-03
9.396941e+01	-1.579435e-03
9.451217e+01	-1.597729e-03
9.505807e+01	-1.616236e-03
9.560712e+01	-1.634957e-03
9.615934e+01	-1.653895e-03
9.671476e+01	-1.673052e-03
9.727338e+01	-1.692431e-03
9.783522e+01	-1.712034e-03
9.840032e+01	-1.731865e-03
9.896867e+01	-1.751925e-03
9.954031e+01	-1.772217e-03
1.001153e+02	-1.792745e-03
1.006935e+02	-1.813510e-03
1.012751e+02	-1.834515e-03
1.018601e+02	-1.855764e-03
1.024484e+02	-1.877259e-03
1.030402e+02	-1.899003e-03
1.036353e+02	-1.920998e-03
1.042339e+02	-1.943249e-03
1.048360e+02	-1.965757e-03
1.054415e+02	-1.988525e-03
1.060505e+02	-2.011557e-03
1.066631e+02	-2.034856e-03
1.072791e+02	-2.058425e-03
1.078988e+02	-2.082267e-03
1.085220e+02	-2.106385e-03
1.091488e+02	-2.130782e-03
1.097793e+02	-2.155461e-03
1.104133e+02	-2.180426e-03
1.110511e+02	-2.205681e-03
1.116925e+02	-2.231228e-03
1.123376e+02	-2.257070e-03
1.129865e+02	-2.283212e-03
1.136391e+02	-2.309657e-03
1.142955e+02	-2.336408e-03
1.149556e+02	-2.363468e-03
1.156196e+02	-2.390842e-03
1.162874e+02	-2.418533e-03
1.169591e+02	-2.446544e-03
1.176347e+02	-2.474880e-03
1.183141e+02	-2.503544e-03
1.189975e+02	-2.532540e-03
1.196848e+02	-2.561871e-03
1.203761e+02	-2.591542e-03
1.210714e+02	-2.621557e-03
1.217707e+02	-2.651919e-03
1.224740e+02	-2.682633e-03
1.231814e+02	-2.713702e-03
1.238929e+02	-2.745131e-03
1.246085e+02	-2.776924e-03
1.253283e+02	-2.809085e-03
1.260522e+02	-2.841618e-03
1.267802e+02	-2.874528e-03
1.275125e+02	-2.907819e-03
1.282490e+02	-2.941496e-03
1.289898e+02	-2.975562e-03
1.297348e+02	-3.010023e-03
1.304842e+02	-3.044882e-03
1.312378e+02	-3.080146e-03
1.319959e+02	-3.115817e-03
1.327583e+02	-3.151901e-03
1.335251e+02	-3.188404e-03
1.342963e+02	-3.225328e-03
1.350720e+02	-3.262681e-03
1.358522e+02	-3.300465e-03
1.366368e+02	-3.338687e-03
1.374260e+02	-3.377352e-03
1.382198e+02	-3.416464e-03
1.390182e+02	-3.456029e-03
1.398211e+02	-3.496052e-03
1.406287e+02	-3.536538e-03
1.414410e+02	-3.577493e-03
1.422579e+02	-3.618921e-03
1.430796e+02	-3.660830e-03
1.439060e+02	-3.703223e-03
1.447372e+02	-3.746108e-03
1.455732e+02	-3.789488e-03
1.464141e+02	-3.833371e-03
1.472597e+02	-3.877762e-03
1.481103e+02	-3.922667e-03
1.489658e+02	-3.968091e-03
1.498262e+02	-4.014041e-03
1.506916e+02	-4.060523e-03
1.515620e+02	-4.107543e-03
1.524374e+02	-4.155107e-03
1.533179e+02	-4.203222e-03
1.542034e+02	-4.251893e-03
1.550941e+02	-4.301128e-03
1.559899e+02	-4.350933e-03
1.568909e+02	-4.401314e-03
1.577971e+02	-4.452278e-03
1.587085e+02	-4.503832e-03
1.596252e+02	-4.555983e-03
1.605472e+02	-4.608737e-03
1.614745e+02	-4.662101e-03
1.624072e+02	-4.716084e-03
1.633453e+02	-4.770691e-03
1.642887e+02	-4.825930e-03
1.652377e+02	-4.881808e-03
1.661921e+02	-4.938333e-03
1.671520e+02	-4.995511e-03
1.681175e+02	-5.053352e-03
1.690885e+02	-5.111862e-03
1.700651e+02	-5.171049e-03
1.710474e+02	-5.230921e-03
1.720354e+02	-5.291485e-03
1.730291e+02	-5.352750e-03
1.740285e+02	-5.414725e-03
1.750337e+02	-5.477416e-03
1.760446e+02	-5.540833e-03
1.770615e+02	-5.604983e-03
1.780842e+02	-5.669876e-03
1.791128e+02	-5.735519e-03
1.801473e+02	-5.801922e-03
1.811878e+02	-5.869094e-03
1.822344e+02	-5.937042e-03
1.832870e+02	-6.005776e-03
1.843456e+02	-6.075306e-03
1.854104e+02	-6.145640e-03
1.864813e+02	-6.216788e-03
1.875584e+02	-6.288759e-03
1.886418e+02	-6.361562e-03
1.897313e+02	-6.435208e-03
1.908272e+02	-6.509705e-03
1.919294e+02	-6.585065e-03
1.930380e+02	-6.661296e-03
1.941530e+02	-6.738408e-03
1.952744e+02	-6.816413e-03
1.964023e+02	-6.895320e-03
1.975367e+02	-6.975140e-03
1.986777e+02	-7.055883e-03
1.998252e+02	-7.137560e-03
2.009794e+02	-7.220181e-03
2.021403e+02	-7.303758e-03
2.033078e+02	-7.388302e-03
2.044821e+02	-7.473824e-03
2.056632e+02	-7.560334e-03
2.068511e+02	-7.647845e-03
2.080459e+02	-7.736368e-03
2.092475e+02	-7.825915e-03
2.104561e+02	-7.916498e-03
2.116717e+02	-8.008127e-03
2.128943e+02	-8.100817e-03
2.141240e+02	-8.194578e-03
2.153608e+02	-8.289424e-03
2.166047e+02	-8.385366e-03
2.178558e+02	-8.482417e-03
2.191141e+02	-8.580591e-03
2.203797e+02	-8.679899e-03
2.216526e+02	-8.780356e-03
2.229329e+02	-8.881975e-03
2.242205e+02	-8.984768e-03
2.255156e+02	-9.088749e-03
2.268182e+02	-9.193933e-03
2.281283e+02	-9.300333e-03
2.294459e+02	-9.407963e-03
2.307712e+02	-9.516836e-03
2.321041e+02	-9.626969e-03
2.334447e+02	-9.738374e-03
2.347931e+02	-9.851067e-03
2.361493e+02	-9.965063e-03
2.375133e+02	-1.008038e-02
2.388851e+02	-1.019702e-02
2.402649e+02	-1.031502e-02
2.416527e+02	-1.043438e-02
2.430484e+02	-1.055511e-02
2.444523e+02	-1.067725e-02
2.458642e+02	-1.080079e-02
2.472843e+02	-1.092576e-02
2.487126e+02	-1.105218e-02
2.501492e+02	-1.118006e-02
2.515940e+02	-1.130941e-02
2.530472e+02	-1.144026e-02
2.545088e+02	-1.157262e-02
2.559789e+02	-1.170651e-02
2.574574e+02	-1.184195e-02
2.589444e+02	-1.197895e-02
2.604401e+02	-1.211754e-02
2.619444e+02	-1.225772e-02
2.634574e+02	-1.239953e-02
2.649791e+02	-1.254297e-02
2.665096e+02	-1.268807e-02
2.680489e+02	-1.283485e-02
2.695972e+02	-1.298332e-02
2.711544e+02	-1.313351e-02
2.727205e+02	-1.328543e-02
2.742958e+02	-1.343910e-02
2.758801e+02	-1.359456e-02
2.774736e+02	-1.375180e-02
2.790762e+02	-1.391086e-02
2.806882e+02	-1.407176e-02
2.823094e+02	-1.423452e-02
2.839400e+02	-1.439916e-02
2.855800e+02	-1.456569e-02
2.872295e+02	-1.473415e-02
2.888886e+02	-1.490456e-02
2.905572e+02	-1.507693e-02
2.922354e+02	-1.525129e-02
2.939234e+02	-1.542767e-02
2.956211e+02	-1.560608e-02
2.973286e+02	-1.578655e-02
2.990459e+02	-1.596910e-02
3.007732e+02	-1.615376e-02
3.025104e+02	-1.634056e-02
3.042577e+02	-1.652950e-02
3.060151e+02	-1.672063e-02
3.077826e+02	-1.691397e-02
3.095604e+02	-1.710953e-02
3.113484e+02	-1.730736e-02
3.131467e+02	-1.750746e-02
3.149554e+02	-1.770987e-02
3.167746e+02	-1.791462e-02
3.186043e+02	-1.812173e-02
3.204445e+02	-1.833123e-02
3.222954e+02	-1.854315e-02
3.241570e+02	-1.875751e-02
3.260293e+02	-1.897435e-02
3.279124e+02	-1.919368e-02
3.298064e+02	-1.941555e-02
3.317114e+02	-1.963997e-02
3.336273e+02	-1.986698e-02
3.355544e+02	-2.009661e-02
3.374925e+02	-2.032889e-02
3.394418e+02	-2.056385e-02
3.414024e+02	-2.080151e-02
3.433744e+02	-2.104192e-02
3.453577e+02	-2.128509e-02
3.473525e+02	-2.153107e-02
3.493588e+02	-2.177989e-02
3.513766e+02	-2.203157e-02
3.534062e+02	-2.228616e-02
3.554474e+02	-2.254368e-02
3.575005e+02	-2.280416e-02
3.595654e+02	-2.306765e-02
3.616422e+02	-2.333417e-02
3.637311e+02	-2.360377e-02
3.658320e+02	-2.387647e-02
3.679450e+02	-2.415232e-02
3.700702e+02	-2.443134e-02
3.722077e+02	-2.471357e-02
3.743576e+02	-2.499906e-02
3.765199e+02	-2.528783e-02
3.786946e+02	-2.557993e-02
3.808820e+02	-2.587540e-02
3.830819e+02	-2.617427e-02
3.852946e+02	-2.647657e-02
3.875200e+02	-2.678236e-02
3.897583e+02	-2.709167e-02
3.920096e+02	-2.740454e-02
3.942738e+02	-2.772102e-02
3.965511e+02	-2.804113e-02
3.988416e+02	-2.836493e-02
4.011452e+02	-2.869246e-02
4.034622e+02	-2.902375e-02
4.057926e+02	-2.935886e-02
4.081365e+02	-2.969782e-02
4.104938e+02	-3.004069e-02
4.128648e+02	-3.038750e-02
4.152495e+02	-3.073829e-02
4.176480e+02	-3.109313e-02
4.200603e+02	-3.145204e-02
4.224866e+02	-3.181508e-02
4.249268e+02	-3.218230e-02
4.273812e+02	-3.255374e-02
4.298497e+02	-3.292945e-02
4.323325e+02	-3.330948e-02
4.348297e+02	-3.369387e-02
4.373412e+02	-3.408269e-02
4.398673e+02	-3.447598e-02
4.424079e+02	-3.487378e-02
4.449633e+02	-3.527616e-02
4.475334e+02	-3.568316e-02
4.501183e+02	-3.609484e-02
4.527182e+02	-3.651124e-02
4.553330e+02	-3.693243e-02
4.579630e+02	-3.735846e-02
4.606082e+02	-3.778938e-02
4.632687e+02	-3.822525e-02
4.659445e+02	-3.866612e-02
4.686358e+02	-3.911205e-02
4.713426e+02	-3.956311e-02
4.740650e+02	-4.001934e-02
4.768032e+02	-4.048081e-02
4.795572e+02	-4.094757e-02
4.823271e+02	-4.141970e-02
4.851130e+02	-4.189723e-02
4.879150e+02	-4.238025e-02
4.907332e+02	-4.286881e-02
4.935676e+02	-4.336297e-02
4.964185e+02	-4.386280e-02
4.992858e+02	-4.436836e-02
5.021696e+02	-4.487972e-02
5.050701e+02	-4.539694e-02
5.079874e+02	-4.592009e-02
5.109215e+02	-4.644923e-02
5.138726e+02	-4.698445e-02
5.168407e+02	-4.752579e-02
5.198259e+02	-4.807333e-02
5.228284e+02	-4.862715e-02
5.258482e+02	-4.918732e-02
5.288855e+02	-4.975389e-02
5.319403e+02	-5.032696e-02
5.350128e+02	-5.090659e-02
5.381030e+02	-5.149285e-02
5.412111e+02	-5.208583e-02
5.443371e+02	-5.268559e-02
5.474812e+02	-5.329222e-02
5.506434e+02	-5.390579e-02
5.538239e+02	-5.452637e-02
5.570228e+02	-5.515406e-02
5.602401e+02	-5.578892e-02
5.634760e+02	-5.643105e-02
5.667306e+02	-5.708052e-02
5.700040e+02	-5.773741e-02
5.732964e+02	-5.840181e-02
5.766077e+02	-5.907380e-02
5.799382e+02	-5.975348e-02
5.832879e+02	-6.044092e-02
5.866569e+02	-6.113621e-02
5.900454e+02	-6.183944e-02
5.934535e+02	-6.255070e-02
5.968813e+02	-6.327009e-02
6.003288e+02	-6.399768e-02
6.037963e+02	-6.473358e-02
6.072838e+02	-6.547788e-02
6.107914e+02	-6.623067e-02
6.143194e+02	-6.699205e-02
6.178676e+02	-6.776212e-02
6.214364e+02	-6.854096e-02
6.250258e+02	-6.932869e-02
6.286359e+02	-7.012539e-02
6.322669e+02	-7.093118e-02
6.359189e+02	-7.174615e-02
6.395919e+02	-7.257040e-02
6.432862e+02	-7.340404e-02
6.470017e+02	-7.424718e-02
6.507388e+02	-7.509992e-02
6.544974e+02	-7.596236e-02
6.582778e+02	-7.683462e-02
6.620800e+02	-7.771681e-02
6.659041e+02	-7.860903e-02
6.697504e+02	-7.951141e-02
6.736188e+02	-8.042404e-02
6.775096e+02	-8.134706e-02
6.814229e+02	-8.228056e-02
6.853587e+02	-8.322468e-02
6.893173e+02	-8.417952e-02
6.932988e+02	-8.514521e-02
6.973033e+02	-8.612187e-02
7.013309e+02	-8.710962e-02
