Frequency(Hz)	Magnitude(dB)
1.000000e+01	-2.038763e+00
1.005776e+01	-2.057682e+00
1.011585e+01	-2.076635e+00
1.017428e+01	-2.095721e+00
1.023305e+01	-2.114787e+00
1.029215e+01	-2.134317e+00
1.035160e+01	-2.153737e+00
1.041139e+01	-2.173452e+00
1.047153e+01	-2.193153e+00
1.053201e+01	-2.213205e+00
1.059284e+01	-2.233062e+00
1.065403e+01	-2.253382e+00
1.071556e+01	-2.273206e+00
1.077746e+01	-2.294082e+00
1.083971e+01	-2.314665e+00
1.090232e+01	-2.335541e+00
1.096529e+01	-2.356348e+00
1.102862e+01	-2.377290e+00
1.109232e+01	-2.398506e+00
1.115639e+01	-2.419673e+00
1.122083e+01	-2.440946e+00
1.128564e+01	-2.462706e+00
1.135083e+01	-2.484398e+00
1.141639e+01	-2.506172e+00
1.148233e+01	-2.528320e+00
1.154865e+01	-2.550350e+00
1.161536e+01	-2.572711e+00
1.168245e+01	-2.595236e+00
1.174992e+01	-2.617811e+00
1.181779e+01	-2.640384e+00
1.188605e+01	-2.663289e+00
1.195470e+01	-2.686390e+00
1.202375e+01	-2.709385e+00
1.209320e+01	-2.732711e+00
1.216305e+01	-2.756002e+00
1.223330e+01	-2.779770e+00
1.230396e+01	-2.803432e+00
1.237503e+01	-2.827144e+00
1.244651e+01	-2.851357e+00
1.251840e+01	-2.875516e+00
1.259070e+01	-2.900012e+00
1.266343e+01	-2.924313e+00
1.273657e+01	-2.948852e+00
1.281014e+01	-2.973586e+00
1.288413e+01	-2.998470e+00
1.295855e+01	-3.023729e+00
1.303339e+01	-3.048631e+00
1.310867e+01	-3.074037e+00
1.318439e+01	-3.099280e+00
1.326054e+01	-3.125023e+00
1.333713e+01	-3.150733e+00
1.341417e+01	-3.176667e+00
1.349165e+01	-3.202617e+00
1.356958e+01	-3.228755e+00
1.364795e+01	-3.255100e+00
1.372678e+01	-3.281682e+00
1.380607e+01	-3.308051e+00
1.388581e+01	-3.334989e+00
1.396602e+01	-3.361879e+00
1.404668e+01	-3.388730e+00
1.412782e+01	-3.416036e+00
1.420942e+01	-3.443158e+00
1.429149e+01	-3.470615e+00
1.437404e+01	-3.498481e+00
1.445706e+01	-3.526105e+00
1.454057e+01	-3.554113e+00
1.462455e+01	-3.582129e+00
1.470902e+01	-3.609927e+00
1.479398e+01	-3.638339e+00
1.487943e+01	-3.666972e+00
1.496537e+01	-3.695604e+00
1.505181e+01	-3.724316e+00
1.513875e+01	-3.753247e+00
1.522619e+01	-3.782129e+00
1.531414e+01	-3.811076e+00
1.540259e+01	-3.840453e+00
1.549156e+01	-3.870069e+00
1.558103e+01	-3.899568e+00
1.567103e+01	-3.929448e+00
1.576155e+01	-3.959118e+00
1.585258e+01	-3.989227e+00
1.594415e+01	-4.019372e+00
1.603624e+01	-4.049479e+00
1.612886e+01	-4.079963e+00
1.622202e+01	-4.110568e+00
1.631572e+01	-4.141330e+00
1.640996e+01	-4.172294e+00
1.650474e+01	-4.202892e+00
1.660008e+01	-4.234110e+00
1.669596e+01	-4.265286e+00
1.679239e+01	-4.296659e+00
1.688938e+01	-4.328243e+00
1.698694e+01	-4.359561e+00
1.708505e+01	-4.391345e+00
1.718373e+01	-4.423282e+00
1.728299e+01	-4.455387e+00
1.738281e+01	-4.487511e+00
1.748322e+01	-4.519985e+00
1.758420e+01	-4.552292e+00
1.768576e+01	-4.584655e+00
1.778792e+01	-4.617320e+00
1.789066e+01	-4.650318e+00
1.799399e+01	-4.683275e+00
1.809793e+01	-4.716374e+00
1.820246e+01	-4.749590e+00
1.830760e+01	-4.782691e+00
1.841334e+01	-4.816562e+00
1.851969e+01	-4.849988e+00
1.862666e+01	-4.883624e+00
1.873425e+01	-4.917329e+00
1.884246e+01	-4.951224e+00
1.895129e+01	-4.985521e+00
1.906075e+01	-5.019703e+00
1.917085e+01	-5.054068e+00
1.928158e+01	-5.088423e+00
1.939295e+01	-5.123207e+00
1.950496e+01	-5.157869e+00
1.961762e+01	-5.192476e+00
1.973093e+01	-5.227639e+00
1.984490e+01	-5.262668e+00
1.995952e+01	-5.297911e+00
2.007480e+01	-5.333142e+00
2.019076e+01	-5.368689e+00
2.030738e+01	-5.404161e+00
2.042467e+01	-5.440259e+00
2.054264e+01	-5.475638e+00
2.066130e+01	-5.511518e+00
2.078064e+01	-5.547589e+00
2.090066e+01	-5.583696e+00
2.102139e+01	-5.619899e+00
2.114280e+01	-5.656591e+00
2.126492e+01	-5.692707e+00
2.138775e+01	-5.729396e+00
2.151128e+01	-5.766196e+00
2.163553e+01	-5.802908e+00
2.176050e+01	-5.839435e+00
2.188619e+01	-5.876990e+00
2.201260e+01	-5.913892e+00
2.213974e+01	-5.951631e+00
2.226762e+01	-5.988798e+00
2.239624e+01	-6.026046e+00
2.252560e+01	-6.063737e+00
2.265571e+01	-6.101573e+00
2.278656e+01	-6.139533e+00
2.291818e+01	-6.177148e+00
2.305055e+01	-6.215250e+00
2.318369e+01	-6.253288e+00
2.331760e+01	-6.291305e+00
2.345228e+01	-6.329989e+00
2.358774e+01	-6.368009e+00
2.372398e+01	-6.407076e+00
2.386101e+01	-6.445187e+00
2.399883e+01	-6.484216e+00
2.413745e+01	-6.522988e+00
2.427686e+01	-6.561917e+00
2.441709e+01	-6.601116e+00
2.455812e+01	-6.640196e+00
2.469997e+01	-6.679498e+00
2.484263e+01	-6.718823e+00
2.498612e+01	-6.758276e+00
2.513044e+01	-6.797844e+00
2.527559e+01	-6.837088e+00
2.542158e+01	-6.877029e+00
2.556842e+01	-6.916739e+00
2.571610e+01	-6.956523e+00
2.586463e+01	-6.996632e+00
2.601403e+01	-7.036759e+00
2.616428e+01	-7.076415e+00
2.631541e+01	-7.117072e+00
2.646740e+01	-7.157689e+00
2.662028e+01	-7.198267e+00
2.677404e+01	-7.238336e+00
2.692868e+01	-7.279177e+00
2.708422e+01	-7.319758e+00
2.724066e+01	-7.360649e+00
2.739800e+01	-7.401586e+00
2.755625e+01	-7.442222e+00
2.771541e+01	-7.483853e+00
2.787550e+01	-7.524599e+00
2.803650e+01	-7.566042e+00
2.819844e+01	-7.607218e+00
2.836131e+01	-7.648765e+00
2.852513e+01	-7.689915e+00
2.868989e+01	-7.731616e+00
2.885560e+01	-7.773093e+00
2.902227e+01	-7.815182e+00
2.918990e+01	-7.856573e+00
2.935850e+01	-7.898682e+00
2.952807e+01	-7.940627e+00
2.969863e+01	-7.982323e+00
2.987016e+01	-8.024904e+00
3.004269e+01	-8.066836e+00
3.021622e+01	-8.109576e+00
3.039075e+01	-8.151640e+00
3.056628e+01	-8.193680e+00
3.074283e+01	-8.235649e+00
3.092040e+01	-8.278787e+00
3.109900e+01	-8.321392e+00
3.127862e+01	-8.363909e+00
3.145929e+01	-8.406736e+00
3.164099e+01	-8.449812e+00
3.182375e+01	-8.493135e+00
3.200756e+01	-8.536088e+00
3.219244e+01	-8.578882e+00
3.237838e+01	-8.622060e+00
3.256540e+01	-8.664647e+00
3.275349e+01	-8.708755e+00
3.294268e+01	-8.752020e+00
3.313295e+01	-8.795042e+00
3.332433e+01	-8.839129e+00
3.351681e+01	-8.881758e+00
3.371040e+01	-8.926183e+00
3.390511e+01	-8.969409e+00
3.410094e+01	-9.012952e+00
3.429791e+01	-9.056328e+00
3.449601e+01	-9.100288e+00
3.469526e+01	-9.144639e+00
3.489566e+01	-9.188828e+00
3.509721e+01	-9.232498e+00
3.529993e+01	-9.277093e+00
3.550382e+01	-9.320228e+00
3.570889e+01	-9.365019e+00
3.591515e+01	-9.409586e+00
3.612259e+01	-9.453626e+00
3.633123e+01	-9.498044e+00
3.654108e+01	-9.542424e+00
3.675214e+01	-9.587180e+00
3.696442e+01	-9.631470e+00
3.717792e+01	-9.676477e+00
3.739266e+01	-9.721007e+00
3.760864e+01	-9.765961e+00
3.782587e+01	-9.810279e+00
3.804435e+01	-9.855350e+00
3.826409e+01	-9.899854e+00
3.848510e+01	-9.945206e+00
3.870739e+01	-9.989954e+00
3.893096e+01	-1.003472e+01
3.915583e+01	-1.008022e+01
3.938199e+01	-1.012526e+01
3.960946e+01	-1.017023e+01
3.983824e+01	-1.021578e+01
4.006834e+01	-1.026079e+01
4.029978e+01	-1.030604e+01
4.053255e+01	-1.035153e+01
4.076666e+01	-1.039724e+01
4.100213e+01	-1.044269e+01
4.123896e+01	-1.048812e+01
4.147715e+01	-1.053347e+01
4.171672e+01	-1.057939e+01
4.195767e+01	-1.062489e+01
4.220002e+01	-1.067044e+01
4.244377e+01	-1.071594e+01
4.268892e+01	-1.076176e+01
4.293549e+01	-1.080795e+01
4.318348e+01	-1.085336e+01
4.343291e+01	-1.089956e+01
4.368377e+01	-1.094564e+01
4.393609e+01	-1.099255e+01
4.418986e+01	-1.103750e+01
4.444510e+01	-1.108399e+01
4.470182e+01	-1.112981e+01
4.496001e+01	-1.117641e+01
4.521970e+01	-1.122298e+01
4.548089e+01	-1.126898e+01
4.574358e+01	-1.131499e+01
4.600779e+01	-1.136142e+01
4.627353e+01	-1.140788e+01
4.654081e+01	-1.145451e+01
4.680963e+01	-1.150064e+01
4.708000e+01	-1.154684e+01
4.735193e+01	-1.159296e+01
4.762543e+01	-1.164040e+01
4.790051e+01	-1.168627e+01
4.817719e+01	-1.173376e+01
4.845545e+01	-1.178046e+01
4.873533e+01	-1.182733e+01
4.901682e+01	-1.187391e+01
4.929994e+01	-1.192024e+01
4.958470e+01	-1.196735e+01
4.987110e+01	-1.201485e+01
5.015915e+01	-1.206149e+01
5.044887e+01	-1.210811e+01
5.074026e+01	-1.215486e+01
5.103333e+01	-1.220189e+01
5.132810e+01	-1.224894e+01
5.162457e+01	-1.229630e+01
5.192275e+01	-1.234348e+01
5.222265e+01	-1.238977e+01
5.252429e+01	-1.243742e+01
5.282767e+01	-1.248475e+01
5.313280e+01	-1.253236e+01
5.343969e+01	-1.257896e+01
5.374836e+01	-1.262648e+01
5.405880e+01	-1.267347e+01
5.437105e+01	-1.272116e+01
5.468509e+01	-1.276863e+01
5.500095e+01	-1.281576e+01
5.531863e+01	-1.286377e+01
5.563815e+01	-1.291106e+01
5.595951e+01	-1.295846e+01
5.628273e+01	-1.300587e+01
5.660782e+01	-1.305299e+01
5.693479e+01	-1.310080e+01
5.726364e+01	-1.314880e+01
5.759439e+01	-1.319670e+01
5.792705e+01	-1.324426e+01
5.826164e+01	-1.329189e+01
5.859815e+01	-1.333915e+01
5.893662e+01	-1.338762e+01
5.927703e+01	-1.343558e+01
5.961941e+01	-1.348252e+01
5.996377e+01	-1.353004e+01
6.031012e+01	-1.357866e+01
6.065847e+01	-1.362579e+01
6.100883e+01	-1.367325e+01
6.136121e+01	-1.372120e+01
6.171563e+01	-1.376976e+01
6.207210e+01	-1.381775e+01
6.243063e+01	-1.386503e+01
6.279122e+01	-1.391358e+01
6.315390e+01	-1.396139e+01
6.351868e+01	-1.400916e+01
6.388556e+01	-1.405709e+01
6.425456e+01	-1.410590e+01
6.462569e+01	-1.415246e+01
6.499897e+01	-1.420240e+01
6.537440e+01	-1.425039e+01
6.575200e+01	-1.429782e+01
6.613178e+01	-1.434658e+01
6.651375e+01	-1.439453e+01
6.689793e+01	-1.444264e+01
6.728433e+01	-1.449152e+01
6.767297e+01	-1.453961e+01
6.806384e+01	-1.458774e+01
6.845698e+01	-1.463541e+01
6.885238e+01	-1.468410e+01
6.925007e+01	-1.473210e+01
6.965005e+01	-1.478034e+01
7.005235e+01	-1.482954e+01
7.045697e+01	-1.487762e+01
7.086393e+01	-1.492590e+01
7.127323e+01	-1.497465e+01
7.168490e+01	-1.502346e+01
7.209895e+01	-1.507121e+01
7.251539e+01	-1.511999e+01
7.293424e+01	-1.516793e+01
7.335551e+01	-1.521668e+01
7.377920e+01	-1.526540e+01
7.420535e+01	-1.531390e+01
7.463396e+01	-1.536168e+01
7.506504e+01	-1.541045e+01
7.549861e+01	-1.545900e+01
7.593469e+01	-1.550813e+01
7.637328e+01	-1.555721e+01
7.681441e+01	-1.560573e+01
7.725809e+01	-1.565478e+01
7.770433e+01	-1.570255e+01
7.815315e+01	-1.575161e+01
7.860456e+01	-1.579974e+01
7.905857e+01	-1.584819e+01
7.951521e+01	-1.589765e+01
7.997449e+01	-1.594713e+01
8.043642e+01	-1.599546e+01
8.090102e+01	-1.604299e+01
8.136830e+01	-1.609372e+01
8.183828e+01	-1.614112e+01
8.231097e+01	-1.619094e+01
8.278640e+01	-1.624025e+01
8.326457e+01	-1.628791e+01
8.374550e+01	-1.633621e+01
8.422921e+01	-1.638607e+01
8.471572e+01	-1.643458e+01
8.520503e+01	-1.648241e+01
8.569717e+01	-1.653168e+01
8.619215e+01	-1.658132e+01
8.669000e+01	-1.663039e+01
8.719071e+01	-1.667904e+01
8.769432e+01	-1.672875e+01
8.820084e+01	-1.677780e+01
8.871029e+01	-1.682619e+01
8.922267e+01	-1.687387e+01
8.973802e+01	-1.692463e+01
9.025634e+01	-1.697299e+01
9.077766e+01	-1.702229e+01
9.130199e+01	-1.707156e+01
9.182935e+01	-1.711952e+01
9.235975e+01	-1.717005e+01
9.289321e+01	-1.721778e+01
9.342976e+01	-1.726724e+01
9.396941e+01	-1.731717e+01
9.451217e+01	-1.736648e+01
9.505807e+01	-1.741487e+01
9.560712e+01	-1.746345e+01
9.615934e+01	-1.751292e+01
9.671476e+01	-1.756222e+01
9.727338e+01	-1.761085e+01
9.783522e+01	-1.766076e+01
9.840032e+01	-1.770993e+01
9.896867e+01	-1.775880e+01
9.954031e+01	-1.780872e+01
1.001153e+02	-1.785854e+01
1.006935e+02	-1.790825e+01
1.012751e+02	-1.795646e+01
1.018601e+02	-1.800591e+01
1.024484e+02	-1.805276e+01
1.030402e+02	-1.810464e+01
1.036353e+02	-1.815271e+01
1.042339e+02	-1.820264e+01
1.048360e+02	-1.825151e+01
1.054415e+02	-1.830015e+01
1.060505e+02	-1.835077e+01
1.066631e+02	-1.839864e+01
1.072791e+02	-1.844855e+01
1.078988e+02	-1.849789e+01
1.085220e+02	-1.854744e+01
1.091488e+02	-1.859552e+01
1.097793e+02	-1.864626e+01
1.104133e+02	-1.869504e+01
1.110511e+02	-1.874566e+01
1.116925e+02	-1.879325e+01
1.123376e+02	-1.884247e+01
1.129865e+02	-1.889396e+01
1.136391e+02	-1.894282e+01
1.142955e+02	-1.899237e+01
1.149556e+02	-1.904223e+01
1.156196e+02	-1.909002e+01
1.162874e+02	-1.913956e+01
1.169591e+02	-1.918928e+01
1.176347e+02	-1.923911e+01
1.183141e+02	-1.928957e+01
1.189975e+02	-1.933789e+01
1.196848e+02	-1.938691e+01
1.203761e+02	-1.943669e+01
1.210714e+02	-1.948519e+01
1.217707e+02	-1.953505e+01
1.224740e+02	-1.958590e+01
1.231814e+02	-1.963509e+01
1.238929e+02	-1.968470e+01
1.246085e+02	-1.973149e+01
1.253283e+02	-1.978242e+01
1.260522e+02	-1.983300e+01
1.267802e+02	-1.988240e+01
1.275125e+02	-1.993119e+01
1.282490e+02	-1.998069e+01
1.289898e+02	-2.003119e+01
1.297348e+02	-2.007942e+01
1.304842e+02	-2.012864e+01
1.312378e+02	-2.017975e+01
1.319959e+02	-2.022975e+01
1.327583e+02	-2.027810e+01
1.335251e+02	-2.032812e+01
1.342963e+02	-2.037800e+01
1.350720e+02	-2.042676e+01
1.358522e+02	-2.047762e+01
1.366368e+02	-2.052630e+01
1.374260e+02	-2.057491e+01
1.382198e+02	-2.062525e+01
1.390182e+02	-2.067398e+01
1.398211e+02	-2.072492e+01
1.406287e+02	-2.077438e+01
1.414410e+02	-2.082503e+01
1.422579e+02	-2.087364e+01
1.430796e+02	-2.092357e+01
1.439060e+02	-2.097363e+01
1.447372e+02	-2.102079e+01
1.455732e+02	-2.107058e+01
1.464141e+02	-2.112084e+01
1.472597e+02	-2.117139e+01
1.481103e+02	-2.122112e+01
1.489658e+02	-2.127108e+01
1.498262e+02	-2.132145e+01
1.506916e+02	-2.137051e+01
1.515620e+02	-2.142198e+01
1.524374e+02	-2.146943e+01
1.533179e+02	-2.151978e+01
1.542034e+02	-2.156843e+01
1.550941e+02	-2.161691e+01
1.559899e+02	-2.166761e+01
1.568909e+02	-2.171798e+01
1.577971e+02	-2.176794e+01
1.587085e+02	-2.181555e+01
1.596252e+02	-2.186630e+01
1.605472e+02	-2.191616e+01
1.614745e+02	-2.196673e+01
1.624072e+02	-2.201470e+01
1.633453e+02	-2.206643e+01
1.642887e+02	-2.211606e+01
1.652377e+02	-2.216629e+01
1.661921e+02	-2.221438e+01
1.671520e+02	-2.226453e+01
1.681175e+02	-2.231429e+01
1.690885e+02	-2.236270e+01
1.700651e+02	-2.241398e+01
1.710474e+02	-2.246518e+01
1.720354e+02	-2.251290e+01
1.730291e+02	-2.256324e+01
1.740285e+02	-2.261611e+01
1.750337e+02	-2.266268e+01
1.760446e+02	-2.271191e+01
1.770615e+02	-2.276428e+01
1.780842e+02	-2.281314e+01
1.791128e+02	-2.286137e+01
1.801473e+02	-2.291175e+01
1.811878e+02	-2.295984e+01
1.822344e+02	-2.301191e+01
1.832870e+02	-2.306171e+01
1.843456e+02	-2.311050e+01
1.854104e+02	-2.316033e+01
1.864813e+02	-2.321087e+01
1.875584e+02	-2.326063e+01
1.886418e+02	-2.330985e+01
1.897313e+02	-2.335855e+01
1.908272e+02	-2.341264e+01
1.919294e+02	-2.345911e+01
1.930380e+02	-2.351081e+01
1.941530e+02	-2.355965e+01
1.952744e+02	-2.360776e+01
1.964023e+02	-2.365964e+01
1.975367e+02	-2.371074e+01
1.986777e+02	-2.376007e+01
1.998252e+02	-2.380635e+01
2.009794e+02	-2.385776e+01
2.021403e+02	-2.390718e+01
2.033078e+02	-2.395644e+01
2.044821e+02	-2.400640e+01
2.056632e+02	-2.405946e+01
2.068511e+02	-2.410769e+01
2.080459e+02	-2.415805e+01
2.092475e+02	-2.420886e+01
2.104561e+02	-2.425698e+01
2.116717e+02	-2.430575e+01
2.128943e+02	-2.435821e+01
2.141240e+02	-2.440857e+01
2.153608e+02	-2.445605e+01
2.166047e+02	-2.450678e+01
2.178558e+02	-2.455927e+01
2.191141e+02	-2.460677e+01
2.203797e+02	-2.465618e+01
2.216526e+02	-2.470826e+01
2.229329e+02	-2.475538e+01
2.242205e+02	-2.480577e+01
2.255156e+02	-2.485821e+01
2.268182e+02	-2.490985e+01
2.281283e+02	-2.495346e+01
2.294459e+02	-2.500160e+01
2.307712e+02	-2.505453e+01
2.321041e+02	-2.510472e+01
2.334447e+02	-2.515694e+01
2.347931e+02	-2.520699e+01
2.361493e+02	-2.525682e+01
2.375133e+02	-2.530729e+01
2.388851e+02	-2.535386e+01
2.402649e+02	-2.540545e+01
2.416527e+02	-2.545450e+01
2.430484e+02	-2.550259e+01
2.444523e+02	-2.555303e+01
2.458642e+02	-2.560234e+01
2.472843e+02	-2.565950e+01
2.487126e+02	-2.570518e+01
2.501492e+02	-2.575396e+01
2.515940e+02	-2.580507e+01
2.530472e+02	-2.585812e+01
2.545088e+02	-2.590244e+01
2.559789e+02	-2.595571e+01
2.574574e+02	-2.600352e+01
2.589444e+02	-2.605244e+01
2.604401e+02	-2.610383e+01
2.619444e+02	-2.615234e+01
2.634574e+02	-2.620070e+01
2.649791e+02	-2.624946e+01
2.665096e+02	-2.630560e+01
2.680489e+02	-2.635273e+01
2.695972e+02	-2.640563e+01
2.711544e+02	-2.644982e+01
2.727205e+02	-2.650563e+01
2.742958e+02	-2.655043e+01
2.758801e+02	-2.660152e+01
2.774736e+02	-2.665661e+01
2.790762e+02	-2.670428e+01
2.806882e+02	-2.675438e+01
2.823094e+02	-2.680447e+01
2.839400e+02	-2.685571e+01
2.855800e+02	-2.690401e+01
2.872295e+02	-2.695335e+01
2.888886e+02	-2.700167e+01
2.905572e+02	-2.705662e+01
2.922354e+02	-2.710329e+01
2.939234e+02	-2.715057e+01
2.956211e+02	-2.720621e+01
2.973286e+02	-2.725466e+01
2.990459e+02	-2.730381e+01
3.007732e+02	-2.735403e+01
3.025104e+02	-2.740699e+01
3.042577e+02	-2.745037e+01
3.060151e+02	-2.750488e+01
3.077826e+02	-2.755228e+01
3.095604e+02	-2.760209e+01
3.113484e+02	-2.765528e+01
3.131467e+02	-2.770426e+01
3.149554e+02	-2.775117e+01
3.167746e+02	-2.780093e+01
3.186043e+02	-2.785408e+01
3.204445e+02	-2.790293e+01
3.222954e+02	-2.794958e+01
3.241570e+02	-2.800098e+01
3.260293e+02	-2.805507e+01
3.279124e+02	-2.810218e+01
3.298064e+02	-2.815570e+01
3.317114e+02	-2.820490e+01
3.336273e+02	-2.825274e+01
3.355544e+02	-2.830454e+01
3.374925e+02	-2.835652e+01
3.394418e+02	-2.840253e+01
3.414024e+02	-2.844981e+01
3.433744e+02	-2.850422e+01
3.453577e+02	-2.855441e+01
3.473525e+02	-2.860272e+01
3.493588e+02	-2.865520e+01
3.513766e+02	-2.870540e+01
3.534062e+02	-2.875835e+01
3.554474e+02	-2.880436e+01
3.575005e+02	-2.885403e+01
3.595654e+02	-2.890750e+01
3.616422e+02	-2.895762e+01
3.637311e+02	-2.900566e+01
3.658320e+02	-2.905527e+01
3.679450e+02	-2.910218e+01
3.700702e+02	-2.915413e+01
3.722077e+02	-2.919900e+01
3.743576e+02	-2.925441e+01
3.765199e+02	-2.930918e+01
3.786946e+02	-2.936223e+01
3.808820e+02	-2.940758e+01
3.830819e+02	-2.945584e+01
3.852946e+02	-2.950570e+01
3.875200e+02	-2.955652e+01
3.897583e+02	-2.960764e+01
3.920096e+02	-2.965901e+01
3.942738e+02	-2.970251e+01
3.965511e+02	-2.975573e+01
3.988416e+02	-2.980718e+01
4.011452e+02	-2.985481e+01
4.034622e+02	-2.990717e+01
4.057926e+02	-2.995884e+01
4.081365e+02	-3.000606e+01
4.104938e+02	-3.005537e+01
4.128648e+02	-3.010139e+01
4.152495e+02	-3.015576e+01
4.176480e+02	-3.020612e+01
4.200603e+02	-3.025428e+01
4.224866e+02	-3.030580e+01
4.249268e+02	-3.036040e+01
4.273812e+02	-3.040861e+01
4.298497e+02	-3.045830e+01
4.323325e+02	-3.050799e+01
4.348297e+02	-3.056021e+01
4.373412e+02	-3.061049e+01
4.398673e+02	-3.065449e+01
4.424079e+02	-3.071075e+01
4.449633e+02	-3.075154e+01
4.475334e+02	-3.080947e+01
4.501183e+02	-3.086019e+01
4.527182e+02	-3.090748e+01
4.553330e+02	-3.095899e+01
4.579630e+02	-3.100703e+01
4.606082e+02	-3.105954e+01
4.632687e+02	-3.110767e+01
4.659445e+02	-3.115573e+01
4.686358e+02	-3.120998e+01
4.713426e+02	-3.126442e+01
4.740650e+02	-3.130769e+01
4.768032e+02	-3.136181e+01
4.795572e+02	-3.140813e+01
4.823271e+02	-3.145753e+01
4.851130e+02	-3.150995e+01
4.879150e+02	-3.156301e+01
4.907332e+02	-3.160888e+01
4.935676e+02	-3.166093e+01
4.964185e+02	-3.171798e+01
4.992858e+02	-3.175852e+01
5.021696e+02	-3.181223e+01
5.050701e+02	-3.186203e+01
5.079874e+02	-3.191195e+01
5.109215e+02	-3.195767e+01
5.138726e+02	-3.201258e+01
5.168407e+02	-3.206303e+01
5.198259e+02	-3.211573e+01
5.228284e+02	-3.215812e+01
5.258482e+02	-3.221165e+01
5.288855e+02	-3.225614e+01
5.319403e+02	-3.231446e+01
5.350128e+02	-3.236097e+01
5.381030e+02	-3.241510e+01
5.412111e+02	-3.246595e+01
5.443371e+02	-3.251366e+01
5.474812e+02	-3.256807e+01
5.506434e+02	-3.261752e+01
5.538239e+02	-3.266241e+01
5.570228e+02	-3.271183e+01
5.602401e+02	-3.276442e+01
5.634760e+02	-3.280670e+01
5.667306e+02	-3.286993e+01
5.700040e+02	-3.291812e+01
5.732964e+02	-3.296778e+01
5.766077e+02	-3.302489e+01
5.799382e+02	-3.306321e+01
5.832879e+02	-3.311224e+01
5.866569e+02	-3.317369e+01
5.900454e+02	-3.321575e+01
5.934535e+02	-3.326530e+01
5.968813e+02	-3.331032e+01
6.003288e+02	-3.337365e+01
6.037963e+02	-3.341042e+01
6.072838e+02	-3.347015e+01
6.107914e+02	-3.351482e+01
6.143194e+02	-3.356569e+01
6.178676e+02	-3.362030e+01
6.214364e+02	-3.366888e+01
6.250258e+02	-3.372353e+01
6.286359e+02	-3.376879e+01
6.322669e+02	-3.382330e+01
6.359189e+02	-3.386536e+01
6.395919e+02	-3.392217e+01
6.432862e+02	-3.397130e+01
6.470017e+02	-3.403157e+01
6.507388e+02	-3.407375e+01
6.544974e+02	-3.412278e+01
6.582778e+02	-3.417620e+01
6.620800e+02	-3.421906e+01
6.659041e+02	-3.428175e+01
6.697504e+02	-3.432911e+01
6.736188e+02	-3.437510e+01
6.775096e+02	-3.442172e+01
6.814229e+02	-3.447862e+01
6.853587e+02	-3.452385e+01
6.893173e+02	-3.458228e+01
6.932988e+02	-3.462750e+01
6.973033e+02	-3.467381e+01
7.013309e+02	-3.472513e+01
