Frequency(Hz)	Magnitude(dB)
1.000000e+01	-2.039520e+00
1.005776e+01	-2.058583e+00
1.011585e+01	-2.077685e+00
1.017428e+01	-2.096556e+00
1.023305e+01	-2.115839e+00
1.029215e+01	-2.135261e+00
1.035160e+01	-2.154533e+00
1.041139e+01	-2.174357e+00
1.047153e+01	-2.194125e+00
1.053201e+01	-2.214052e+00
1.059284e+01	-2.233945e+00
1.065403e+01	-2.254199e+00
1.071556e+01	-2.274566e+00
1.077746e+01	-2.295077e+00
1.083971e+01	-2.315629e+00
1.090232e+01	-2.336386e+00
1.096529e+01	-2.357280e+00
1.102862e+01	-2.378420e+00
1.109232e+01	-2.399426e+00
1.115639e+01	-2.420805e+00
1.122083e+01	-2.442283e+00
1.128564e+01	-2.463668e+00
1.135083e+01	-2.485624e+00
1.141639e+01	-2.507406e+00
1.148233e+01	-2.529361e+00
1.154865e+01	-2.551463e+00
1.161536e+01	-2.573857e+00
1.168245e+01	-2.596298e+00
1.174992e+01	-2.618772e+00
1.181779e+01	-2.641617e+00
1.188605e+01	-2.664408e+00
1.195470e+01	-2.687679e+00
1.202375e+01	-2.710562e+00
1.209320e+01	-2.733869e+00
1.216305e+01	-2.757068e+00
1.223330e+01	-2.780978e+00
1.230396e+01	-2.804767e+00
1.237503e+01	-2.828217e+00
1.244651e+01	-2.852428e+00
1.251840e+01	-2.876891e+00
1.259070e+01	-2.900967e+00
1.266343e+01	-2.925449e+00
1.273657e+01	-2.950010e+00
1.281014e+01	-2.974890e+00
1.288413e+01	-2.999737e+00
1.295855e+01	-3.024646e+00
1.303339e+01	-3.049879e+00
1.310867e+01	-3.075296e+00
1.318439e+01	-3.100361e+00
1.326054e+01	-3.126251e+00
1.333713e+01	-3.152050e+00
1.341417e+01	-3.177867e+00
1.349165e+01	-3.203830e+00
1.356958e+01	-3.230056e+00
1.364795e+01	-3.256418e+00
1.372678e+01	-3.282827e+00
1.380607e+01	-3.309404e+00
1.388581e+01	-3.336275e+00
1.396602e+01	-3.362980e+00
1.404668e+01	-3.390261e+00
1.412782e+01	-3.417258e+00
1.420942e+01	-3.444508e+00
1.429149e+01	-3.472241e+00
1.437404e+01	-3.499662e+00
1.445706e+01	-3.527505e+00
1.454057e+01	-3.555244e+00
1.462455e+01	-3.583392e+00
1.470902e+01	-3.611687e+00
1.479398e+01	-3.639741e+00
1.487943e+01	-3.668347e+00
1.496537e+01	-3.696739e+00
1.505181e+01	-3.725856e+00
1.513875e+01	-3.754473e+00
1.522619e+01	-3.783394e+00
1.531414e+01	-3.812751e+00
1.540259e+01	-3.842091e+00
1.549156e+01	-3.871531e+00
1.558103e+01	-3.901249e+00
1.567103e+01	-3.930602e+00
1.576155e+01	-3.960558e+00
1.585258e+01	-3.990462e+00
1.594415e+01	-4.020546e+00
1.603624e+01	-4.051130e+00
1.612886e+01	-4.081580e+00
1.622202e+01	-4.111995e+00
1.631572e+01	-4.142651e+00
1.640996e+01	-4.173712e+00
1.650474e+01	-4.204465e+00
1.660008e+01	-4.235580e+00
1.669596e+01	-4.266637e+00
1.679239e+01	-4.298242e+00
1.688938e+01	-4.329835e+00
1.698694e+01	-4.361444e+00
1.708505e+01	-4.393141e+00
1.718373e+01	-4.424909e+00
1.728299e+01	-4.456872e+00
1.738281e+01	-4.489159e+00
1.748322e+01	-4.521470e+00
1.758420e+01	-4.553975e+00
1.768576e+01	-4.586729e+00
1.778792e+01	-4.619427e+00
1.789066e+01	-4.651999e+00
1.799399e+01	-4.685145e+00
1.809793e+01	-4.717938e+00
1.820246e+01	-4.751482e+00
1.830760e+01	-4.784640e+00
1.841334e+01	-4.817953e+00
1.851969e+01	-4.851686e+00
1.862666e+01	-4.885367e+00
1.873425e+01	-4.919177e+00
1.884246e+01	-4.953025e+00
1.895129e+01	-4.987198e+00
1.906075e+01	-5.021712e+00
1.917085e+01	-5.055763e+00
1.928158e+01	-5.090407e+00
1.939295e+01	-5.124839e+00
1.950496e+01	-5.159825e+00
1.961762e+01	-5.194577e+00
1.973093e+01	-5.229410e+00
1.984490e+01	-5.264430e+00
1.995952e+01	-5.299400e+00
2.007480e+01	-5.335284e+00
2.019076e+01	-5.370739e+00
2.030738e+01	-5.405779e+00
2.042467e+01	-5.441672e+00
2.054264e+01	-5.477490e+00
2.066130e+01	-5.513488e+00
2.078064e+01	-5.549219e+00
2.090066e+01	-5.585632e+00
2.102139e+01	-5.621853e+00
2.114280e+01	-5.658178e+00
2.126492e+01	-5.694568e+00
2.138775e+01	-5.731053e+00
2.151128e+01	-5.767726e+00
2.163553e+01	-5.805167e+00
2.176050e+01	-5.841924e+00
2.188619e+01	-5.878810e+00
2.201260e+01	-5.916301e+00
2.213974e+01	-5.953105e+00
2.226762e+01	-5.990385e+00
2.239624e+01	-6.027859e+00
2.252560e+01	-6.065469e+00
2.265571e+01	-6.103419e+00
2.278656e+01	-6.141380e+00
2.291818e+01	-6.178765e+00
2.305055e+01	-6.216951e+00
2.318369e+01	-6.254975e+00
2.331760e+01	-6.293355e+00
2.345228e+01	-6.331534e+00
2.358774e+01	-6.370362e+00
2.372398e+01	-6.408838e+00
2.386101e+01	-6.447236e+00
2.399883e+01	-6.485974e+00
2.413745e+01	-6.524753e+00
2.427686e+01	-6.563973e+00
2.441709e+01	-6.603169e+00
2.455812e+01	-6.641791e+00
2.469997e+01	-6.681667e+00
2.484263e+01	-6.720834e+00
2.498612e+01	-6.759987e+00
2.513044e+01	-6.799610e+00
2.527559e+01	-6.839196e+00
2.542158e+01	-6.879072e+00
2.556842e+01	-6.918733e+00
2.571610e+01	-6.958829e+00
2.586463e+01	-6.999132e+00
2.601403e+01	-7.038748e+00
2.616428e+01	-7.078835e+00
2.631541e+01	-7.119138e+00
2.646740e+01	-7.159265e+00
2.662028e+01	-7.199918e+00
2.677404e+01	-7.240489e+00
2.692868e+01	-7.281276e+00
2.708422e+01	-7.322211e+00
2.724066e+01	-7.363040e+00
2.739800e+01	-7.403415e+00
2.755625e+01	-7.444540e+00
2.771541e+01	-7.485610e+00
2.787550e+01	-7.526732e+00
2.803650e+01	-7.568096e+00
2.819844e+01	-7.609674e+00
2.836131e+01	-7.650642e+00
2.852513e+01	-7.691485e+00
2.868989e+01	-7.733538e+00
2.885560e+01	-7.775484e+00
2.902227e+01	-7.816807e+00
2.918990e+01	-7.858741e+00
2.935850e+01	-7.900881e+00
2.952807e+01	-7.942517e+00
2.969863e+01	-7.984675e+00
2.987016e+01	-8.026675e+00
3.004269e+01	-8.069121e+00
3.021622e+01	-8.111352e+00
3.039075e+01	-8.153815e+00
3.056628e+01	-8.195805e+00
3.074283e+01	-8.238506e+00
3.092040e+01	-8.280928e+00
3.109900e+01	-8.324001e+00
3.127862e+01	-8.366498e+00
3.145929e+01	-8.408765e+00
3.164099e+01	-8.451720e+00
3.182375e+01	-8.495000e+00
3.200756e+01	-8.537651e+00
3.219244e+01	-8.580682e+00
3.237838e+01	-8.624165e+00
3.256540e+01	-8.667464e+00
3.275349e+01	-8.710448e+00
3.294268e+01	-8.753814e+00
3.313295e+01	-8.797465e+00
3.332433e+01	-8.840288e+00
3.351681e+01	-8.884409e+00
3.371040e+01	-8.928080e+00
3.390511e+01	-8.971495e+00
3.410094e+01	-9.015446e+00
3.429791e+01	-9.058897e+00
3.449601e+01	-9.102662e+00
3.469526e+01	-9.146615e+00
3.489566e+01	-9.190842e+00
3.509721e+01	-9.234585e+00
3.529993e+01	-9.278658e+00
3.550382e+01	-9.322963e+00
3.570889e+01	-9.367003e+00
3.591515e+01	-9.411272e+00
3.612259e+01	-9.455767e+00
3.633123e+01	-9.499963e+00
3.654108e+01	-9.544387e+00
3.675214e+01	-9.588734e+00
3.696442e+01	-9.633566e+00
3.717792e+01	-9.678672e+00
3.739266e+01	-9.723020e+00
3.760864e+01	-9.767790e+00
3.782587e+01	-9.812460e+00
3.804435e+01	-9.857096e+00
3.826409e+01	-9.902139e+00
3.848510e+01	-9.947649e+00
3.870739e+01	-9.992356e+00
3.893096e+01	-1.003745e+01
3.915583e+01	-1.008152e+01
3.938199e+01	-1.012733e+01
3.960946e+01	-1.017277e+01
3.983824e+01	-1.021790e+01
4.006834e+01	-1.026263e+01
4.029978e+01	-1.030860e+01
4.053255e+01	-1.035428e+01
4.076666e+01	-1.039924e+01
4.100213e+01	-1.044482e+01
4.123896e+01	-1.049068e+01
4.147715e+01	-1.053549e+01
4.171672e+01	-1.058134e+01
4.195767e+01	-1.062722e+01
4.220002e+01	-1.067228e+01
4.244377e+01	-1.071859e+01
4.268892e+01	-1.076467e+01
4.293549e+01	-1.080957e+01
4.318348e+01	-1.085653e+01
4.343291e+01	-1.090172e+01
4.368377e+01	-1.094814e+01
4.393609e+01	-1.099443e+01
4.418986e+01	-1.103982e+01
4.444510e+01	-1.108626e+01
4.470182e+01	-1.113251e+01
4.496001e+01	-1.117871e+01
4.521970e+01	-1.122509e+01
4.548089e+01	-1.127121e+01
4.574358e+01	-1.131760e+01
4.600779e+01	-1.136431e+01
4.627353e+01	-1.141025e+01
4.654081e+01	-1.145686e+01
4.680963e+01	-1.150274e+01
4.708000e+01	-1.154937e+01
4.735193e+01	-1.159587e+01
4.762543e+01	-1.164256e+01
4.790051e+01	-1.168921e+01
4.817719e+01	-1.173631e+01
4.845545e+01	-1.178295e+01
4.873533e+01	-1.182928e+01
4.901682e+01	-1.187602e+01
4.929994e+01	-1.192305e+01
4.958470e+01	-1.196989e+01
4.987110e+01	-1.201635e+01
5.015915e+01	-1.206386e+01
5.044887e+01	-1.211003e+01
5.074026e+01	-1.215777e+01
5.103333e+01	-1.220458e+01
5.132810e+01	-1.225128e+01
5.162457e+01	-1.229842e+01
5.192275e+01	-1.234552e+01
5.222265e+01	-1.239269e+01
5.252429e+01	-1.243994e+01
5.282767e+01	-1.248732e+01
5.313280e+01	-1.253403e+01
5.343969e+01	-1.258168e+01
5.374836e+01	-1.262868e+01
5.405880e+01	-1.267536e+01
5.437105e+01	-1.272426e+01
5.468509e+01	-1.277086e+01
5.500095e+01	-1.281908e+01
5.531863e+01	-1.286567e+01
5.563815e+01	-1.291351e+01
5.595951e+01	-1.296082e+01
5.628273e+01	-1.300854e+01
5.660782e+01	-1.305534e+01
5.693479e+01	-1.310397e+01
5.726364e+01	-1.315063e+01
5.759439e+01	-1.319818e+01
5.792705e+01	-1.324581e+01
5.826164e+01	-1.329363e+01
5.859815e+01	-1.334107e+01
5.893662e+01	-1.338878e+01
5.927703e+01	-1.343645e+01
5.961941e+01	-1.348445e+01
5.996377e+01	-1.353295e+01
6.031012e+01	-1.357988e+01
6.065847e+01	-1.362809e+01
6.100883e+01	-1.367509e+01
6.136121e+01	-1.372359e+01
6.171563e+01	-1.377135e+01
6.207210e+01	-1.382027e+01
6.243063e+01	-1.386721e+01
6.279122e+01	-1.391640e+01
6.315390e+01	-1.396405e+01
6.351868e+01	-1.401177e+01
6.388556e+01	-1.405951e+01
6.425456e+01	-1.410815e+01
6.462569e+01	-1.415621e+01
6.499897e+01	-1.420415e+01
6.537440e+01	-1.425225e+01
6.575200e+01	-1.430080e+01
6.613178e+01	-1.434820e+01
6.651375e+01	-1.439687e+01
6.689793e+01	-1.444554e+01
6.728433e+01	-1.449290e+01
6.767297e+01	-1.454214e+01
6.806384e+01	-1.459001e+01
6.845698e+01	-1.463797e+01
6.885238e+01	-1.468721e+01
6.925007e+01	-1.473530e+01
6.965005e+01	-1.478344e+01
7.005235e+01	-1.483160e+01
7.045697e+01	-1.487981e+01
7.086393e+01	-1.492816e+01
7.127323e+01	-1.497682e+01
7.168490e+01	-1.502532e+01
7.209895e+01	-1.507288e+01
7.251539e+01	-1.512285e+01
7.293424e+01	-1.517057e+01
7.335551e+01	-1.521966e+01
7.377920e+01	-1.526745e+01
7.420535e+01	-1.531583e+01
7.463396e+01	-1.536482e+01
7.506504e+01	-1.541285e+01
7.549861e+01	-1.546218e+01
7.593469e+01	-1.551113e+01
7.637328e+01	-1.555911e+01
7.681441e+01	-1.560812e+01
7.725809e+01	-1.565672e+01
7.770433e+01	-1.570531e+01
7.815315e+01	-1.575478e+01
7.860456e+01	-1.580277e+01
7.905857e+01	-1.584955e+01
7.951521e+01	-1.589980e+01
7.997449e+01	-1.594826e+01
8.043642e+01	-1.599732e+01
8.090102e+01	-1.604590e+01
8.136830e+01	-1.609510e+01
8.183828e+01	-1.614355e+01
8.231097e+01	-1.619256e+01
8.278640e+01	-1.624206e+01
8.326457e+01	-1.629001e+01
8.374550e+01	-1.633984e+01
8.422921e+01	-1.638845e+01
8.471572e+01	-1.643732e+01
8.520503e+01	-1.648551e+01
8.569717e+01	-1.653428e+01
8.619215e+01	-1.658488e+01
8.669000e+01	-1.663252e+01
8.719071e+01	-1.668141e+01
8.769432e+01	-1.673124e+01
8.820084e+01	-1.677995e+01
8.871029e+01	-1.682829e+01
8.922267e+01	-1.687711e+01
8.973802e+01	-1.692634e+01
9.025634e+01	-1.697606e+01
9.077766e+01	-1.702395e+01
9.130199e+01	-1.707266e+01
9.182935e+01	-1.712253e+01
9.235975e+01	-1.717287e+01
9.289321e+01	-1.722166e+01
9.342976e+01	-1.727006e+01
9.396941e+01	-1.731889e+01
9.451217e+01	-1.736897e+01
9.505807e+01	-1.741709e+01
9.560712e+01	-1.746738e+01
9.615934e+01	-1.751642e+01
9.671476e+01	-1.756415e+01
9.727338e+01	-1.761521e+01
9.783522e+01	-1.766355e+01
9.840032e+01	-1.771194e+01
9.896867e+01	-1.776184e+01
9.954031e+01	-1.781131e+01
1.001153e+02	-1.786038e+01
1.006935e+02	-1.790931e+01
1.012751e+02	-1.795810e+01
1.018601e+02	-1.800718e+01
1.024484e+02	-1.805718e+01
1.030402e+02	-1.810686e+01
1.036353e+02	-1.815483e+01
1.042339e+02	-1.820564e+01
1.048360e+02	-1.825393e+01
1.054415e+02	-1.830411e+01
1.060505e+02	-1.835378e+01
1.066631e+02	-1.840100e+01
1.072791e+02	-1.845094e+01
1.078988e+02	-1.850023e+01
1.085220e+02	-1.855032e+01
1.091488e+02	-1.859885e+01
1.097793e+02	-1.864913e+01
1.104133e+02	-1.869816e+01
1.110511e+02	-1.874768e+01
1.116925e+02	-1.879513e+01
1.123376e+02	-1.884688e+01
1.129865e+02	-1.889742e+01
1.136391e+02	-1.894423e+01
1.142955e+02	-1.899457e+01
1.149556e+02	-1.904408e+01
1.156196e+02	-1.909341e+01
1.162874e+02	-1.914071e+01
1.169591e+02	-1.919202e+01
1.176347e+02	-1.924180e+01
1.183141e+02	-1.928936e+01
1.189975e+02	-1.934027e+01
1.196848e+02	-1.938960e+01
1.203761e+02	-1.943873e+01
1.210714e+02	-1.948901e+01
1.217707e+02	-1.953746e+01
1.224740e+02	-1.958696e+01
1.231814e+02	-1.963716e+01
1.238929e+02	-1.968682e+01
1.246085e+02	-1.973754e+01
1.253283e+02	-1.978593e+01
1.260522e+02	-1.983519e+01
1.267802e+02	-1.988492e+01
1.275125e+02	-1.993569e+01
1.282490e+02	-1.998231e+01
1.289898e+02	-2.003373e+01
1.297348e+02	-2.008163e+01
1.304842e+02	-2.013246e+01
1.312378e+02	-2.018112e+01
1.319959e+02	-2.023105e+01
1.327583e+02	-2.028218e+01
1.335251e+02	-2.032931e+01
1.342963e+02	-2.037918e+01
1.350720e+02	-2.042911e+01
1.358522e+02	-2.047957e+01
1.366368e+02	-2.052756e+01
1.374260e+02	-2.057835e+01
1.382198e+02	-2.062881e+01
1.390182e+02	-2.067616e+01
1.398211e+02	-2.072721e+01
1.406287e+02	-2.077489e+01
1.414410e+02	-2.082600e+01
1.422579e+02	-2.087759e+01
1.430796e+02	-2.092639e+01
1.439060e+02	-2.097407e+01
1.447372e+02	-2.102507e+01
1.455732e+02	-2.107323e+01
1.464141e+02	-2.112264e+01
1.472597e+02	-2.117475e+01
1.481103e+02	-2.122380e+01
1.489658e+02	-2.127432e+01
1.498262e+02	-2.132405e+01
1.506916e+02	-2.137429e+01
1.515620e+02	-2.142103e+01
1.524374e+02	-2.147374e+01
1.533179e+02	-2.152256e+01
1.542034e+02	-2.157062e+01
1.550941e+02	-2.161909e+01
1.559899e+02	-2.167192e+01
1.568909e+02	-2.172007e+01
1.577971e+02	-2.177103e+01
1.587085e+02	-2.181989e+01
1.596252e+02	-2.187045e+01
1.605472e+02	-2.191901e+01
1.614745e+02	-2.196971e+01
1.624072e+02	-2.201909e+01
1.633453e+02	-2.206835e+01
1.642887e+02	-2.211904e+01
1.652377e+02	-2.216810e+01
1.661921e+02	-2.221819e+01
1.671520e+02	-2.226816e+01
1.681175e+02	-2.231812e+01
1.690885e+02	-2.236776e+01
1.700651e+02	-2.241714e+01
1.710474e+02	-2.246629e+01
1.720354e+02	-2.251712e+01
1.730291e+02	-2.256695e+01
1.740285e+02	-2.261752e+01
1.750337e+02	-2.266479e+01
1.760446e+02	-2.271482e+01
1.770615e+02	-2.276299e+01
1.780842e+02	-2.281379e+01
1.791128e+02	-2.286620e+01
1.801473e+02	-2.291508e+01
1.811878e+02	-2.296433e+01
1.822344e+02	-2.301443e+01
1.832870e+02	-2.306219e+01
1.843456e+02	-2.311426e+01
1.854104e+02	-2.316375e+01
1.864813e+02	-2.321162e+01
1.875584e+02	-2.326469e+01
1.886418e+02	-2.331220e+01
1.897313e+02	-2.336333e+01
1.908272e+02	-2.341261e+01
1.919294e+02	-2.346323e+01
1.930380e+02	-2.351215e+01
1.941530e+02	-2.356089e+01
1.952744e+02	-2.361264e+01
1.964023e+02	-2.366043e+01
1.975367e+02	-2.370796e+01
1.986777e+02	-2.376235e+01
1.998252e+02	-2.381167e+01
2.009794e+02	-2.386109e+01
2.021403e+02	-2.391018e+01
2.033078e+02	-2.396010e+01
2.044821e+02	-2.401315e+01
2.056632e+02	-2.406386e+01
2.068511e+02	-2.410953e+01
2.080459e+02	-2.416126e+01
2.092475e+02	-2.420887e+01
2.104561e+02	-2.425868e+01
2.116717e+02	-2.431077e+01
2.128943e+02	-2.436031e+01
2.141240e+02	-2.440794e+01
2.153608e+02	-2.445966e+01
2.166047e+02	-2.450799e+01
2.178558e+02	-2.455940e+01
2.191141e+02	-2.460879e+01
2.203797e+02	-2.465858e+01
2.216526e+02	-2.470659e+01
2.229329e+02	-2.475506e+01
2.242205e+02	-2.480904e+01
2.255156e+02	-2.485819e+01
2.268182e+02	-2.490723e+01
2.281283e+02	-2.495705e+01
2.294459e+02	-2.500579e+01
2.307712e+02	-2.505913e+01
2.321041e+02	-2.510768e+01
2.334447e+02	-2.515893e+01
2.347931e+02	-2.520855e+01
2.361493e+02	-2.525572e+01
2.375133e+02	-2.530795e+01
2.388851e+02	-2.535782e+01
2.402649e+02	-2.541112e+01
2.416527e+02	-2.545964e+01
2.430484e+02	-2.550549e+01
2.444523e+02	-2.555956e+01
2.458642e+02	-2.560775e+01
2.472843e+02	-2.565835e+01
2.487126e+02	-2.570820e+01
2.501492e+02	-2.575712e+01
2.515940e+02	-2.580666e+01
2.530472e+02	-2.586074e+01
2.545088e+02	-2.590701e+01
2.559789e+02	-2.595845e+01
2.574574e+02	-2.600804e+01
2.589444e+02	-2.605719e+01
2.604401e+02	-2.610582e+01
2.619444e+02	-2.615670e+01
2.634574e+02	-2.620836e+01
2.649791e+02	-2.625606e+01
2.665096e+02	-2.630523e+01
2.680489e+02	-2.635896e+01
2.695972e+02	-2.640705e+01
2.711544e+02	-2.645517e+01
2.727205e+02	-2.650712e+01
2.742958e+02	-2.655808e+01
2.758801e+02	-2.660756e+01
2.774736e+02	-2.665645e+01
2.790762e+02	-2.670536e+01
2.806882e+02	-2.675610e+01
2.823094e+02	-2.680518e+01
2.839400e+02	-2.685499e+01
2.855800e+02	-2.690778e+01
2.872295e+02	-2.695704e+01
2.888886e+02	-2.700323e+01
2.905572e+02	-2.705323e+01
2.922354e+02	-2.710404e+01
2.939234e+02	-2.715641e+01
2.956211e+02	-2.720158e+01
2.973286e+02	-2.725643e+01
2.990459e+02	-2.730593e+01
3.007732e+02	-2.736160e+01
3.025104e+02	-2.740720e+01
3.042577e+02	-2.745487e+01
3.060151e+02	-2.750870e+01
3.077826e+02	-2.755391e+01
3.095604e+02	-2.760665e+01
3.113484e+02	-2.765643e+01
3.131467e+02	-2.770426e+01
3.149554e+02	-2.775673e+01
3.167746e+02	-2.780885e+01
3.186043e+02	-2.785771e+01
3.204445e+02	-2.790854e+01
3.222954e+02	-2.795702e+01
3.241570e+02	-2.800326e+01
3.260293e+02	-2.805998e+01
3.279124e+02	-2.810659e+01
3.298064e+02	-2.815627e+01
3.317114e+02	-2.820909e+01
3.336273e+02	-2.825416e+01
3.355544e+02	-2.830670e+01
3.374925e+02	-2.835399e+01
3.394418e+02	-2.840377e+01
3.414024e+02	-2.846063e+01
3.433744e+02	-2.850788e+01
3.453577e+02	-2.855705e+01
3.473525e+02	-2.860820e+01
3.493588e+02	-2.865395e+01
3.513766e+02	-2.871065e+01
3.534062e+02	-2.876024e+01
3.554474e+02	-2.880340e+01
3.575005e+02	-2.885893e+01
3.595654e+02	-2.890676e+01
3.616422e+02	-2.895733e+01
3.637311e+02	-2.900878e+01
3.658320e+02	-2.905881e+01
3.679450e+02	-2.910759e+01
3.700702e+02	-2.916213e+01
3.722077e+02	-2.921031e+01
3.743576e+02	-2.925408e+01
3.765199e+02	-2.930780e+01
3.786946e+02	-2.935822e+01
3.808820e+02	-2.940958e+01
3.830819e+02	-2.945825e+01
3.852946e+02	-2.950814e+01
3.875200e+02	-2.955925e+01
3.897583e+02	-2.960681e+01
3.920096e+02	-2.965770e+01
3.942738e+02	-2.970896e+01
3.965511e+02	-2.975815e+01
3.988416e+02	-2.980892e+01
4.011452e+02	-2.986117e+01
4.034622e+02	-2.990565e+01
4.057926e+02	-2.995882e+01
4.081365e+02	-3.000829e+01
4.104938e+02	-3.005816e+01
4.128648e+02	-3.011044e+01
4.152495e+02	-3.015401e+01
4.176480e+02	-3.020943e+01
4.200603e+02	-3.025953e+01
4.224866e+02	-3.030665e+01
4.249268e+02	-3.035846e+01
4.273812e+02	-3.040544e+01
4.298497e+02	-3.045449e+01
4.323325e+02	-3.050875e+01
4.348297e+02	-3.055942e+01
4.373412e+02	-3.061147e+01
4.398673e+02	-3.065884e+01
4.424079e+02	-3.070796e+01
4.449633e+02	-3.076186e+01
4.475334e+02	-3.080639e+01
4.501183e+02	-3.086038e+01
4.527182e+02	-3.091140e+01
4.553330e+02	-3.096435e+01
4.579630e+02	-3.100993e+01
4.606082e+02	-3.106382e+01
4.632687e+02	-3.111238e+01
4.659445e+02	-3.116318e+01
4.686358e+02	-3.121503e+01
4.713426e+02	-3.126839e+01
4.740650e+02	-3.130907e+01
4.768032e+02	-3.136185e+01
4.795572e+02	-3.140869e+01
4.823271e+02	-3.146112e+01
4.851130e+02	-3.151042e+01
4.879150e+02	-3.155907e+01
4.907332e+02	-3.161590e+01
4.935676e+02	-3.166060e+01
4.964185e+02	-3.171424e+01
4.992858e+02	-3.176019e+01
5.021696e+02	-3.181437e+01
5.050701e+02	-3.186816e+01
5.079874e+02	-3.191610e+01
5.109215e+02	-3.195785e+01
5.138726e+02	-3.201014e+01
5.168407e+02	-3.206617e+01
5.198259e+02	-3.211523e+01
5.228284e+02	-3.216339e+01
5.258482e+02	-3.221163e+01
5.288855e+02	-3.226467e+01
5.319403e+02	-3.231192e+01
5.350128e+02	-3.236603e+01
5.381030e+02	-3.241418e+01
5.412111e+02	-3.246312e+01
5.443371e+02	-3.251421e+01
5.474812e+02	-3.257337e+01
5.506434e+02	-3.261458e+01
5.538239e+02	-3.265988e+01
5.570228e+02	-3.271779e+01
5.602401e+02	-3.276463e+01
5.634760e+02	-3.281667e+01
5.667306e+02	-3.286493e+01
5.700040e+02	-3.291188e+01
5.732964e+02	-3.296335e+01
5.766077e+02	-3.302405e+01
5.799382e+02	-3.306931e+01
5.832879e+02	-3.311366e+01
5.866569e+02	-3.316641e+01
5.900454e+02	-3.322097e+01
5.934535e+02	-3.326232e+01
5.968813e+02	-3.332168e+01
6.003288e+02	-3.336640e+01
6.037963e+02	-3.342302e+01
6.072838e+02	-3.346684e+01
6.107914e+02	-3.352362e+01
6.143194e+02	-3.357161e+01
6.178676e+02	-3.362835e+01
6.214364e+02	-3.367952e+01
6.250258e+02	-3.372284e+01
6.286359e+02	-3.377153e+01
6.322669e+02	-3.381967e+01
6.359189e+02	-3.387411e+01
6.395919e+02	-3.392296e+01
6.432862e+02	-3.397738e+01
6.470017e+02	-3.401644e+01
6.507388e+02	-3.407780e+01
6.544974e+02	-3.412341e+01
6.582778e+02	-3.417449e+01
6.620800e+02	-3.422314e+01
6.659041e+02	-3.427038e+01
6.697504e+02	-3.432314e+01
6.736188e+02	-3.437384e+01
6.775096e+02	-3.442681e+01
6.814229e+02	-3.448417e+01
6.853587e+02	-3.452612e+01
6.893173e+02	-3.456787e+01
6.932988e+02	-3.462832e+01
6.973033e+02	-3.468153e+01
7.013309e+02	-3.473436e+01
