Frequency(Hz)	Magnitude(dB)
1.000000e+01	-2.046526e+00
1.005776e+01	-2.065298e+00
1.011585e+01	-2.084795e+00
1.017428e+01	-2.103608e+00
1.023305e+01	-2.122914e+00
1.029215e+01	-2.142285e+00
1.035160e+01	-2.161915e+00
1.041139e+01	-2.181603e+00
1.047153e+01	-2.201486e+00
1.053201e+01	-2.221298e+00
1.059284e+01	-2.241427e+00
1.065403e+01	-2.261609e+00
1.071556e+01	-2.282244e+00
1.077746e+01	-2.302485e+00
1.083971e+01	-2.323185e+00
1.090232e+01	-2.343874e+00
1.096529e+01	-2.364790e+00
1.102862e+01	-2.386178e+00
1.109232e+01	-2.407307e+00
1.115639e+01	-2.428604e+00
1.122083e+01	-2.450388e+00
1.128564e+01	-2.471901e+00
1.135083e+01	-2.493605e+00
1.141639e+01	-2.515530e+00
1.148233e+01	-2.537489e+00
1.154865e+01	-2.559840e+00
1.161536e+01	-2.582238e+00
1.168245e+01	-2.604390e+00
1.174992e+01	-2.627165e+00
1.181779e+01	-2.650046e+00
1.188605e+01	-2.672962e+00
1.195470e+01	-2.696006e+00
1.202375e+01	-2.719249e+00
1.209320e+01	-2.742395e+00
1.216305e+01	-2.765898e+00
1.223330e+01	-2.789540e+00
1.230396e+01	-2.813519e+00
1.237503e+01	-2.837587e+00
1.244651e+01	-2.861453e+00
1.251840e+01	-2.885559e+00
1.259070e+01	-2.910132e+00
1.266343e+01	-2.934289e+00
1.273657e+01	-2.959138e+00
1.281014e+01	-2.983980e+00
1.288413e+01	-3.009080e+00
1.295855e+01	-3.033984e+00
1.303339e+01	-3.059381e+00
1.310867e+01	-3.084767e+00
1.318439e+01	-3.109883e+00
1.326054e+01	-3.135652e+00
1.333713e+01	-3.161409e+00
1.341417e+01	-3.187453e+00
1.349165e+01	-3.213627e+00
1.356958e+01	-3.239807e+00
1.364795e+01	-3.266209e+00
1.372678e+01	-3.292455e+00
1.380607e+01	-3.319384e+00
1.388581e+01	-3.346273e+00
1.396602e+01	-3.372885e+00
1.404668e+01	-3.399937e+00
1.412782e+01	-3.427552e+00
1.420942e+01	-3.454736e+00
1.429149e+01	-3.482500e+00
1.437404e+01	-3.510007e+00
1.445706e+01	-3.537544e+00
1.454057e+01	-3.565916e+00
1.462455e+01	-3.593627e+00
1.470902e+01	-3.621905e+00
1.479398e+01	-3.650514e+00
1.487943e+01	-3.678760e+00
1.496537e+01	-3.707496e+00
1.505181e+01	-3.736532e+00
1.513875e+01	-3.765291e+00
1.522619e+01	-3.794453e+00
1.531414e+01	-3.823398e+00
1.540259e+01	-3.852726e+00
1.549156e+01	-3.882284e+00
1.558103e+01	-3.912151e+00
1.567103e+01	-3.941811e+00
1.576155e+01	-3.971639e+00
1.585258e+01	-4.001630e+00
1.594415e+01	-4.032031e+00
1.603624e+01	-4.062187e+00
1.612886e+01	-4.092870e+00
1.622202e+01	-4.123287e+00
1.631572e+01	-4.154323e+00
1.640996e+01	-4.184951e+00
1.650474e+01	-4.215881e+00
1.660008e+01	-4.247108e+00
1.669596e+01	-4.278516e+00
1.679239e+01	-4.309669e+00
1.688938e+01	-4.341201e+00
1.698694e+01	-4.372853e+00
1.708505e+01	-4.404885e+00
1.718373e+01	-4.436663e+00
1.728299e+01	-4.468749e+00
1.738281e+01	-4.501034e+00
1.748322e+01	-4.533414e+00
1.758420e+01	-4.565791e+00
1.768576e+01	-4.598368e+00
1.778792e+01	-4.631043e+00
1.789066e+01	-4.663815e+00
1.799399e+01	-4.697383e+00
1.809793e+01	-4.730157e+00
1.820246e+01	-4.763315e+00
1.830760e+01	-4.796932e+00
1.841334e+01	-4.830260e+00
1.851969e+01	-4.864031e+00
1.862666e+01	-4.897902e+00
1.873425e+01	-4.931576e+00
1.884246e+01	-4.965642e+00
1.895129e+01	-4.999883e+00
1.906075e+01	-5.033754e+00
1.917085e+01	-5.068892e+00
1.928158e+01	-5.102932e+00
1.939295e+01	-5.137534e+00
1.950496e+01	-5.172174e+00
1.961762e+01	-5.207080e+00
1.973093e+01	-5.242391e+00
1.984490e+01	-5.277379e+00
1.995952e+01	-5.312976e+00
2.007480e+01	-5.348126e+00
2.019076e+01	-5.383339e+00
2.030738e+01	-5.419064e+00
2.042467e+01	-5.455040e+00
2.054264e+01	-5.490958e+00
2.066130e+01	-5.526503e+00
2.078064e+01	-5.562748e+00
2.090066e+01	-5.598967e+00
2.102139e+01	-5.635164e+00
2.114280e+01	-5.671870e+00
2.126492e+01	-5.707896e+00
2.138775e+01	-5.744657e+00
2.151128e+01	-5.781654e+00
2.163553e+01	-5.818105e+00
2.176050e+01	-5.855556e+00
2.188619e+01	-5.892426e+00
2.201260e+01	-5.929904e+00
2.213974e+01	-5.966677e+00
2.226762e+01	-6.004524e+00
2.239624e+01	-6.042002e+00
2.252560e+01	-6.079618e+00
2.265571e+01	-6.117219e+00
2.278656e+01	-6.155280e+00
2.291818e+01	-6.192793e+00
2.305055e+01	-6.231240e+00
2.318369e+01	-6.269290e+00
2.331760e+01	-6.307777e+00
2.345228e+01	-6.345934e+00
2.358774e+01	-6.384387e+00
2.372398e+01	-6.423195e+00
2.386101e+01	-6.461568e+00
2.399883e+01	-6.500592e+00
2.413745e+01	-6.539440e+00
2.427686e+01	-6.578725e+00
2.441709e+01	-6.617549e+00
2.455812e+01	-6.656394e+00
2.469997e+01	-6.695717e+00
2.484263e+01	-6.735303e+00
2.498612e+01	-6.774336e+00
2.513044e+01	-6.814134e+00
2.527559e+01	-6.853590e+00
2.542158e+01	-6.893819e+00
2.556842e+01	-6.933404e+00
2.571610e+01	-6.973400e+00
2.586463e+01	-7.013564e+00
2.601403e+01	-7.053421e+00
2.616428e+01	-7.093538e+00
2.631541e+01	-7.134155e+00
2.646740e+01	-7.174693e+00
2.662028e+01	-7.215025e+00
2.677404e+01	-7.255549e+00
2.692868e+01	-7.296168e+00
2.708422e+01	-7.337187e+00
2.724066e+01	-7.377638e+00
2.739800e+01	-7.418706e+00
2.755625e+01	-7.459824e+00
2.771541e+01	-7.500651e+00
2.787550e+01	-7.541717e+00
2.803650e+01	-7.583258e+00
2.819844e+01	-7.624572e+00
2.836131e+01	-7.665971e+00
2.852513e+01	-7.707561e+00
2.868989e+01	-7.749040e+00
2.885560e+01	-7.790832e+00
2.902227e+01	-7.832763e+00
2.918990e+01	-7.874097e+00
2.935850e+01	-7.916141e+00
2.952807e+01	-7.958200e+00
2.969863e+01	-8.000138e+00
2.987016e+01	-8.042139e+00
3.004269e+01	-8.084328e+00
3.021622e+01	-8.126895e+00
3.039075e+01	-8.169047e+00
3.056628e+01	-8.211601e+00
3.074283e+01	-8.254412e+00
3.092040e+01	-8.296393e+00
3.109900e+01	-8.339289e+00
3.127862e+01	-8.381964e+00
3.145929e+01	-8.424821e+00
3.164099e+01	-8.467621e+00
3.182375e+01	-8.510701e+00
3.200756e+01	-8.553970e+00
3.219244e+01	-8.596730e+00
3.237838e+01	-8.639736e+00
3.256540e+01	-8.683026e+00
3.275349e+01	-8.726608e+00
3.294268e+01	-8.769711e+00
3.313295e+01	-8.813553e+00
3.332433e+01	-8.856871e+00
3.351681e+01	-8.900356e+00
3.371040e+01	-8.943814e+00
3.390511e+01	-8.987445e+00
3.410094e+01	-9.031127e+00
3.429791e+01	-9.075485e+00
3.449601e+01	-9.119199e+00
3.469526e+01	-9.162687e+00
3.489566e+01	-9.207101e+00
3.509721e+01	-9.250927e+00
3.529993e+01	-9.295285e+00
3.550382e+01	-9.339130e+00
3.570889e+01	-9.383364e+00
3.591515e+01	-9.427547e+00
3.612259e+01	-9.471967e+00
3.633123e+01	-9.516563e+00
3.654108e+01	-9.560575e+00
3.675214e+01	-9.605822e+00
3.696442e+01	-9.650356e+00
3.717792e+01	-9.694757e+00
3.739266e+01	-9.739622e+00
3.760864e+01	-9.784288e+00
3.782587e+01	-9.829675e+00
3.804435e+01	-9.873869e+00
3.826409e+01	-9.918214e+00
3.848510e+01	-9.963495e+00
3.870739e+01	-1.000897e+01
3.893096e+01	-1.005360e+01
3.915583e+01	-1.009845e+01
3.938199e+01	-1.014414e+01
3.960946e+01	-1.018925e+01
3.983824e+01	-1.023456e+01
4.006834e+01	-1.027965e+01
4.029978e+01	-1.032517e+01
4.053255e+01	-1.037075e+01
4.076666e+01	-1.041588e+01
4.100213e+01	-1.046157e+01
4.123896e+01	-1.050704e+01
4.147715e+01	-1.055274e+01
4.171672e+01	-1.059873e+01
4.195767e+01	-1.064433e+01
4.220002e+01	-1.068959e+01
4.244377e+01	-1.073618e+01
4.268892e+01	-1.078137e+01
4.293549e+01	-1.082746e+01
4.318348e+01	-1.087274e+01
4.343291e+01	-1.091875e+01
4.368377e+01	-1.096490e+01
4.393609e+01	-1.101107e+01
4.418986e+01	-1.105710e+01
4.444510e+01	-1.110340e+01
4.470182e+01	-1.114948e+01
4.496001e+01	-1.119559e+01
4.521970e+01	-1.124200e+01
4.548089e+01	-1.128891e+01
4.574358e+01	-1.133460e+01
4.600779e+01	-1.138146e+01
4.627353e+01	-1.142715e+01
4.654081e+01	-1.147417e+01
4.680963e+01	-1.152052e+01
4.708000e+01	-1.156684e+01
4.735193e+01	-1.161357e+01
4.762543e+01	-1.165988e+01
4.790051e+01	-1.170661e+01
4.817719e+01	-1.175356e+01
4.845545e+01	-1.179971e+01
4.873533e+01	-1.184677e+01
4.901682e+01	-1.189405e+01
4.929994e+01	-1.194020e+01
4.958470e+01	-1.198721e+01
4.987110e+01	-1.203382e+01
5.015915e+01	-1.208164e+01
5.044887e+01	-1.212792e+01
5.074026e+01	-1.217530e+01
5.103333e+01	-1.222173e+01
5.132810e+01	-1.226852e+01
5.162457e+01	-1.231619e+01
5.192275e+01	-1.236254e+01
5.222265e+01	-1.240908e+01
5.252429e+01	-1.245710e+01
5.282767e+01	-1.250461e+01
5.313280e+01	-1.255197e+01
5.343969e+01	-1.259871e+01
5.374836e+01	-1.264645e+01
5.405880e+01	-1.269372e+01
5.437105e+01	-1.274109e+01
5.468509e+01	-1.278877e+01
5.500095e+01	-1.283501e+01
5.531863e+01	-1.288281e+01
5.563815e+01	-1.293081e+01
5.595951e+01	-1.297836e+01
5.628273e+01	-1.302597e+01
5.660782e+01	-1.307384e+01
5.693479e+01	-1.312059e+01
5.726364e+01	-1.316850e+01
5.759439e+01	-1.321571e+01
5.792705e+01	-1.326328e+01
5.826164e+01	-1.331175e+01
5.859815e+01	-1.335954e+01
5.893662e+01	-1.340699e+01
5.927703e+01	-1.345451e+01
5.961941e+01	-1.350225e+01
5.996377e+01	-1.355053e+01
6.031012e+01	-1.359881e+01
6.065847e+01	-1.364586e+01
6.100883e+01	-1.369365e+01
6.136121e+01	-1.374211e+01
6.171563e+01	-1.378987e+01
6.207210e+01	-1.383785e+01
6.243063e+01	-1.388515e+01
6.279122e+01	-1.393323e+01
6.315390e+01	-1.398174e+01
6.351868e+01	-1.402895e+01
6.388556e+01	-1.407815e+01
6.425456e+01	-1.412513e+01
6.462569e+01	-1.417396e+01
6.499897e+01	-1.422130e+01
6.537440e+01	-1.426948e+01
6.575200e+01	-1.431814e+01
6.613178e+01	-1.436584e+01
6.651375e+01	-1.441472e+01
6.689793e+01	-1.446321e+01
6.728433e+01	-1.451118e+01
6.767297e+01	-1.455972e+01
6.806384e+01	-1.460715e+01
6.845698e+01	-1.465557e+01
6.885238e+01	-1.470405e+01
6.925007e+01	-1.475303e+01
6.965005e+01	-1.480130e+01
7.005235e+01	-1.484943e+01
7.045697e+01	-1.489798e+01
7.086393e+01	-1.494691e+01
7.127323e+01	-1.499397e+01
7.168490e+01	-1.504321e+01
7.209895e+01	-1.509202e+01
7.251539e+01	-1.513969e+01
7.293424e+01	-1.518840e+01
7.335551e+01	-1.523705e+01
7.377920e+01	-1.528584e+01
7.420535e+01	-1.533380e+01
7.463396e+01	-1.538358e+01
7.506504e+01	-1.543136e+01
7.549861e+01	-1.547979e+01
7.593469e+01	-1.552822e+01
7.637328e+01	-1.557805e+01
7.681441e+01	-1.562517e+01
7.725809e+01	-1.567469e+01
7.770433e+01	-1.572287e+01
7.815315e+01	-1.577300e+01
7.860456e+01	-1.582031e+01
7.905857e+01	-1.586934e+01
7.951521e+01	-1.591809e+01
7.997449e+01	-1.596729e+01
8.043642e+01	-1.601561e+01
8.090102e+01	-1.606386e+01
8.136830e+01	-1.611285e+01
8.183828e+01	-1.616123e+01
8.231097e+01	-1.620967e+01
8.278640e+01	-1.625955e+01
8.326457e+01	-1.630866e+01
8.374550e+01	-1.635684e+01
8.422921e+01	-1.640668e+01
8.471572e+01	-1.645484e+01
8.520503e+01	-1.650314e+01
8.569717e+01	-1.655224e+01
8.619215e+01	-1.660169e+01
8.669000e+01	-1.665053e+01
8.719071e+01	-1.669922e+01
8.769432e+01	-1.674929e+01
8.820084e+01	-1.679820e+01
8.871029e+01	-1.684659e+01
8.922267e+01	-1.689665e+01
8.973802e+01	-1.694597e+01
9.025634e+01	-1.699422e+01
9.077766e+01	-1.704372e+01
9.130199e+01	-1.709215e+01
9.182935e+01	-1.713946e+01
9.235975e+01	-1.718992e+01
9.289321e+01	-1.723875e+01
9.342976e+01	-1.728778e+01
9.396941e+01	-1.733793e+01
9.451217e+01	-1.738636e+01
9.505807e+01	-1.743594e+01
9.560712e+01	-1.748598e+01
9.615934e+01	-1.753289e+01
9.671476e+01	-1.758324e+01
9.727338e+01	-1.763165e+01
9.783522e+01	-1.768035e+01
9.840032e+01	-1.773011e+01
9.896867e+01	-1.777920e+01
9.954031e+01	-1.782886e+01
1.001153e+02	-1.787790e+01
1.006935e+02	-1.792768e+01
1.012751e+02	-1.797507e+01
1.018601e+02	-1.802514e+01
1.024484e+02	-1.807561e+01
1.030402e+02	-1.812310e+01
1.036353e+02	-1.817224e+01
1.042339e+02	-1.822128e+01
1.048360e+02	-1.827173e+01
1.054415e+02	-1.832325e+01
1.060505e+02	-1.836911e+01
1.066631e+02	-1.841916e+01
1.072791e+02	-1.846975e+01
1.078988e+02	-1.851823e+01
1.085220e+02	-1.856723e+01
1.091488e+02	-1.861955e+01
1.097793e+02	-1.866706e+01
1.104133e+02	-1.871620e+01
1.110511e+02	-1.876510e+01
1.116925e+02	-1.881439e+01
1.123376e+02	-1.886360e+01
1.129865e+02	-1.891317e+01
1.136391e+02	-1.896358e+01
1.142955e+02	-1.901208e+01
1.149556e+02	-1.906162e+01
1.156196e+02	-1.911126e+01
1.162874e+02	-1.916048e+01
1.169591e+02	-1.921000e+01
1.176347e+02	-1.925875e+01
1.183141e+02	-1.930928e+01
1.189975e+02	-1.935840e+01
1.196848e+02	-1.940865e+01
1.203761e+02	-1.945879e+01
1.210714e+02	-1.950702e+01
1.217707e+02	-1.955649e+01
1.224740e+02	-1.960532e+01
1.231814e+02	-1.965475e+01
1.238929e+02	-1.970496e+01
1.246085e+02	-1.975518e+01
1.253283e+02	-1.980542e+01
1.260522e+02	-1.985262e+01
1.267802e+02	-1.990143e+01
1.275125e+02	-1.995229e+01
1.282490e+02	-2.000261e+01
1.289898e+02	-2.005072e+01
1.297348e+02	-2.010215e+01
1.304842e+02	-2.015014e+01
1.312378e+02	-2.020036e+01
1.319959e+02	-2.024967e+01
1.327583e+02	-2.029936e+01
1.335251e+02	-2.035033e+01
1.342963e+02	-2.039907e+01
1.350720e+02	-2.044854e+01
1.358522e+02	-2.049627e+01
1.366368e+02	-2.054577e+01
1.374260e+02	-2.059634e+01
1.382198e+02	-2.064639e+01
1.390182e+02	-2.069741e+01
1.398211e+02	-2.074478e+01
1.406287e+02	-2.079446e+01
1.414410e+02	-2.084472e+01
1.422579e+02	-2.089584e+01
1.430796e+02	-2.094214e+01
1.439060e+02	-2.099440e+01
1.447372e+02	-2.104377e+01
1.455732e+02	-2.109305e+01
1.464141e+02	-2.114418e+01
1.472597e+02	-2.119322e+01
1.481103e+02	-2.124104e+01
1.489658e+02	-2.129003e+01
1.498262e+02	-2.134248e+01
1.506916e+02	-2.139149e+01
1.515620e+02	-2.144306e+01
1.524374e+02	-2.149035e+01
1.533179e+02	-2.154042e+01
1.542034e+02	-2.158854e+01
1.550941e+02	-2.163989e+01
1.559899e+02	-2.168962e+01
1.568909e+02	-2.173861e+01
1.577971e+02	-2.178820e+01
1.587085e+02	-2.183901e+01
1.596252e+02	-2.188804e+01
1.605472e+02	-2.193843e+01
1.614745e+02	-2.198485e+01
1.624072e+02	-2.203814e+01
1.633453e+02	-2.208780e+01
1.642887e+02	-2.213699e+01
1.652377e+02	-2.218711e+01
1.661921e+02	-2.223509e+01
1.671520e+02	-2.228399e+01
1.681175e+02	-2.233738e+01
1.690885e+02	-2.238692e+01
1.700651e+02	-2.243471e+01
1.710474e+02	-2.248228e+01
1.720354e+02	-2.253501e+01
1.730291e+02	-2.258543e+01
1.740285e+02	-2.263389e+01
1.750337e+02	-2.268309e+01
1.760446e+02	-2.273333e+01
1.770615e+02	-2.278300e+01
1.780842e+02	-2.283371e+01
1.791128e+02	-2.288166e+01
1.801473e+02	-2.293199e+01
1.811878e+02	-2.298276e+01
1.822344e+02	-2.303187e+01
1.832870e+02	-2.308371e+01
1.843456e+02	-2.313314e+01
1.854104e+02	-2.318146e+01
1.864813e+02	-2.323096e+01
1.875584e+02	-2.327983e+01
1.886418e+02	-2.333117e+01
1.897313e+02	-2.338404e+01
1.908272e+02	-2.343029e+01
1.919294e+02	-2.347889e+01
1.930380e+02	-2.352808e+01
1.941530e+02	-2.357920e+01
1.952744e+02	-2.363004e+01
1.964023e+02	-2.368004e+01
1.975367e+02	-2.373106e+01
1.986777e+02	-2.377833e+01
1.998252e+02	-2.383033e+01
2.009794e+02	-2.387999e+01
2.021403e+02	-2.392993e+01
2.033078e+02	-2.398159e+01
2.044821e+02	-2.402941e+01
2.056632e+02	-2.407995e+01
2.068511e+02	-2.412825e+01
2.080459e+02	-2.417883e+01
2.092475e+02	-2.422755e+01
2.104561e+02	-2.427904e+01
2.116717e+02	-2.432923e+01
2.128943e+02	-2.437707e+01
2.141240e+02	-2.443030e+01
2.153608e+02	-2.447860e+01
2.166047e+02	-2.452928e+01
2.178558e+02	-2.457633e+01
2.191141e+02	-2.463053e+01
2.203797e+02	-2.467634e+01
2.216526e+02	-2.472911e+01
2.229329e+02	-2.477732e+01
2.242205e+02	-2.482842e+01
2.255156e+02	-2.487539e+01
2.268182e+02	-2.492741e+01
2.281283e+02	-2.497840e+01
2.294459e+02	-2.502936e+01
2.307712e+02	-2.507895e+01
2.321041e+02	-2.512626e+01
2.334447e+02	-2.517661e+01
2.347931e+02	-2.522763e+01
2.361493e+02	-2.527743e+01
2.375133e+02	-2.532677e+01
2.388851e+02	-2.537591e+01
2.402649e+02	-2.542663e+01
2.416527e+02	-2.547628e+01
2.430484e+02	-2.552852e+01
2.444523e+02	-2.557660e+01
2.458642e+02	-2.562624e+01
2.472843e+02	-2.567783e+01
2.487126e+02	-2.572063e+01
2.501492e+02	-2.577576e+01
2.515940e+02	-2.582885e+01
2.530472e+02	-2.587558e+01
2.545088e+02	-2.592496e+01
2.559789e+02	-2.597565e+01
2.574574e+02	-2.602615e+01
2.589444e+02	-2.607260e+01
2.604401e+02	-2.612288e+01
2.619444e+02	-2.617851e+01
2.634574e+02	-2.622524e+01
2.649791e+02	-2.627529e+01
2.665096e+02	-2.632539e+01
2.680489e+02	-2.637614e+01
2.695972e+02	-2.642617e+01
2.711544e+02	-2.647894e+01
2.727205e+02	-2.652562e+01
2.742958e+02	-2.657431e+01
2.758801e+02	-2.662112e+01
2.774736e+02	-2.667787e+01
2.790762e+02	-2.672323e+01
2.806882e+02	-2.677347e+01
2.823094e+02	-2.682404e+01
2.839400e+02	-2.687737e+01
2.855800e+02	-2.692597e+01
2.872295e+02	-2.697423e+01
2.888886e+02	-2.702168e+01
2.905572e+02	-2.707489e+01
2.922354e+02	-2.712108e+01
2.939234e+02	-2.717507e+01
2.956211e+02	-2.722474e+01
2.973286e+02	-2.727361e+01
2.990459e+02	-2.732166e+01
3.007732e+02	-2.737596e+01
3.025104e+02	-2.742013e+01
3.042577e+02	-2.747472e+01
3.060151e+02	-2.752283e+01
3.077826e+02	-2.757404e+01
3.095604e+02	-2.762525e+01
3.113484e+02	-2.767612e+01
3.131467e+02	-2.772833e+01
3.149554e+02	-2.777789e+01
3.167746e+02	-2.782552e+01
3.186043e+02	-2.787219e+01
3.204445e+02	-2.792433e+01
3.222954e+02	-2.797537e+01
3.241570e+02	-2.803010e+01
3.260293e+02	-2.807432e+01
3.279124e+02	-2.812328e+01
3.298064e+02	-2.817493e+01
3.317114e+02	-2.822619e+01
3.336273e+02	-2.827504e+01
3.355544e+02	-2.832765e+01
3.374925e+02	-2.837695e+01
3.394418e+02	-2.843154e+01
3.414024e+02	-2.847609e+01
3.433744e+02	-2.852741e+01
3.453577e+02	-2.857500e+01
3.473525e+02	-2.862785e+01
3.493588e+02	-2.867799e+01
3.513766e+02	-2.872425e+01
3.534062e+02	-2.877271e+01
3.554474e+02	-2.882694e+01
3.575005e+02	-2.887543e+01
3.595654e+02	-2.892292e+01
3.616422e+02	-2.897984e+01
3.637311e+02	-2.902786e+01
3.658320e+02	-2.907909e+01
3.679450e+02	-2.912564e+01
3.700702e+02	-2.917407e+01
3.722077e+02	-2.922899e+01
3.743576e+02	-2.927389e+01
3.765199e+02	-2.932342e+01
3.786946e+02	-2.937798e+01
3.808820e+02	-2.942485e+01
3.830819e+02	-2.947475e+01
3.852946e+02	-2.952991e+01
3.875200e+02	-2.957981e+01
3.897583e+02	-2.962818e+01
3.920096e+02	-2.967366e+01
3.942738e+02	-2.972739e+01
3.965511e+02	-2.977614e+01
3.988416e+02	-2.982707e+01
4.011452e+02	-2.988354e+01
4.034622e+02	-2.992613e+01
4.057926e+02	-2.997691e+01
4.081365e+02	-3.002461e+01
4.104938e+02	-3.007825e+01
4.128648e+02	-3.012581e+01
4.152495e+02	-3.018001e+01
4.176480e+02	-3.022543e+01
4.200603e+02	-3.027976e+01
4.224866e+02	-3.032682e+01
4.249268e+02	-3.037650e+01
4.273812e+02	-3.042681e+01
4.298497e+02	-3.047833e+01
4.323325e+02	-3.052726e+01
4.348297e+02	-3.058032e+01
4.373412e+02	-3.063095e+01
4.398673e+02	-3.068000e+01
4.424079e+02	-3.073265e+01
4.449633e+02	-3.078019e+01
4.475334e+02	-3.082911e+01
4.501183e+02	-3.087857e+01
4.527182e+02	-3.093168e+01
4.553330e+02	-3.098222e+01
4.579630e+02	-3.102550e+01
4.606082e+02	-3.107727e+01
4.632687e+02	-3.113251e+01
4.659445e+02	-3.117814e+01
4.686358e+02	-3.123294e+01
4.713426e+02	-3.127891e+01
4.740650e+02	-3.132947e+01
4.768032e+02	-3.137860e+01
4.795572e+02	-3.143148e+01
4.823271e+02	-3.147498e+01
4.851130e+02	-3.153400e+01
4.879150e+02	-3.158393e+01
4.907332e+02	-3.163390e+01
4.935676e+02	-3.167888e+01
4.964185e+02	-3.173152e+01
4.992858e+02	-3.178022e+01
5.021696e+02	-3.182449e+01
5.050701e+02	-3.188426e+01
5.079874e+02	-3.193089e+01
5.109215e+02	-3.198731e+01
5.138726e+02	-3.202794e+01
5.168407e+02	-3.207684e+01
5.198259e+02	-3.213297e+01
5.228284e+02	-3.217753e+01
5.258482e+02	-3.223440e+01
5.288855e+02	-3.229016e+01
5.319403e+02	-3.232720e+01
5.350128e+02	-3.238386e+01
5.381030e+02	-3.243285e+01
5.412111e+02	-3.248833e+01
5.443371e+02	-3.253495e+01
5.474812e+02	-3.257900e+01
5.506434e+02	-3.264397e+01
5.538239e+02	-3.268765e+01
5.570228e+02	-3.272787e+01
5.602401e+02	-3.278560e+01
5.634760e+02	-3.283283e+01
5.667306e+02	-3.288483e+01
5.700040e+02	-3.293754e+01
5.732964e+02	-3.299094e+01
5.766077e+02	-3.303549e+01
5.799382e+02	-3.308975e+01
5.832879e+02	-3.313645e+01
5.866569e+02	-3.318524e+01
5.900454e+02	-3.323619e+01
5.934535e+02	-3.329147e+01
5.968813e+02	-3.333274e+01
6.003288e+02	-3.338979e+01
6.037963e+02	-3.343457e+01
6.072838e+02	-3.348483e+01
6.107914e+02	-3.354021e+01
6.143194e+02	-3.359061e+01
6.178676e+02	-3.363458e+01
6.214364e+02	-3.369629e+01
6.250258e+02	-3.374001e+01
6.286359e+02	-3.379032e+01
6.322669e+02	-3.384098e+01
6.359189e+02	-3.389325e+01
6.395919e+02	-3.394915e+01
6.432862e+02	-3.399038e+01
6.470017e+02	-3.404887e+01
6.507388e+02	-3.409378e+01
6.544974e+02	-3.414929e+01
6.582778e+02	-3.419719e+01
6.620800e+02	-3.424173e+01
6.659041e+02	-3.429194e+01
6.697504e+02	-3.434904e+01
6.736188e+02	-3.438878e+01
6.775096e+02	-3.444229e+01
6.814229e+02	-3.449051e+01
6.853587e+02	-3.454793e+01
6.893173e+02	-3.459992e+01
6.932988e+02	-3.465062e+01
6.973033e+02	-3.469321e+01
7.013309e+02	-3.474244e+01
