Frequency(Hz)	Magnitude(dB)
1.000000e+01	-2.278590e+00
1.005776e+01	-2.298943e+00
1.011585e+01	-2.319613e+00
1.017428e+01	-2.340484e+00
1.023305e+01	-2.361256e+00
1.029215e+01	-2.382533e+00
1.035160e+01	-2.403462e+00
1.041139e+01	-2.424687e+00
1.047153e+01	-2.446253e+00
1.053201e+01	-2.467872e+00
1.059284e+01	-2.489808e+00
1.065403e+01	-2.511705e+00
1.071556e+01	-2.533677e+00
1.077746e+01	-2.556017e+00
1.083971e+01	-2.578210e+00
1.090232e+01	-2.600622e+00
1.096529e+01	-2.623139e+00
1.102862e+01	-2.645930e+00
1.109232e+01	-2.668800e+00
1.115639e+01	-2.691740e+00
1.122083e+01	-2.715031e+00
1.128564e+01	-2.738282e+00
1.135083e+01	-2.761945e+00
1.141639e+01	-2.785500e+00
1.148233e+01	-2.809258e+00
1.154865e+01	-2.832950e+00
1.161536e+01	-2.857113e+00
1.168245e+01	-2.881232e+00
1.174992e+01	-2.905624e+00
1.181779e+01	-2.930450e+00
1.188605e+01	-2.954753e+00
1.195470e+01	-2.979592e+00
1.202375e+01	-3.004643e+00
1.209320e+01	-3.029434e+00
1.216305e+01	-3.054880e+00
1.223330e+01	-3.080038e+00
1.230396e+01	-3.105609e+00
1.237503e+01	-3.131121e+00
1.244651e+01	-3.157099e+00
1.251840e+01	-3.183101e+00
1.259070e+01	-3.209085e+00
1.266343e+01	-3.235385e+00
1.273657e+01	-3.261220e+00
1.281014e+01	-3.288010e+00
1.288413e+01	-3.314562e+00
1.295855e+01	-3.341269e+00
1.303339e+01	-3.368285e+00
1.310867e+01	-3.395464e+00
1.318439e+01	-3.422632e+00
1.326054e+01	-3.449902e+00
1.333713e+01	-3.477376e+00
1.341417e+01	-3.505174e+00
1.349165e+01	-3.532672e+00
1.356958e+01	-3.560451e+00
1.364795e+01	-3.589124e+00
1.372678e+01	-3.616964e+00
1.380607e+01	-3.645228e+00
1.388581e+01	-3.673835e+00
1.396602e+01	-3.702733e+00
1.404668e+01	-3.731109e+00
1.412782e+01	-3.760298e+00
1.420942e+01	-3.789238e+00
1.429149e+01	-3.818362e+00
1.437404e+01	-3.847701e+00
1.445706e+01	-3.877307e+00
1.454057e+01	-3.906889e+00
1.462455e+01	-3.936594e+00
1.470902e+01	-3.966549e+00
1.479398e+01	-3.996602e+00
1.487943e+01	-4.026673e+00
1.496537e+01	-4.056876e+00
1.505181e+01	-4.087526e+00
1.513875e+01	-4.118093e+00
1.522619e+01	-4.148667e+00
1.531414e+01	-4.179598e+00
1.540259e+01	-4.210447e+00
1.549156e+01	-4.241585e+00
1.558103e+01	-4.272746e+00
1.567103e+01	-4.303888e+00
1.576155e+01	-4.335467e+00
1.585258e+01	-4.367652e+00
1.594415e+01	-4.399044e+00
1.603624e+01	-4.431149e+00
1.612886e+01	-4.463114e+00
1.622202e+01	-4.495286e+00
1.631572e+01	-4.527792e+00
1.640996e+01	-4.560450e+00
1.650474e+01	-4.592935e+00
1.660008e+01	-4.625527e+00
1.669596e+01	-4.658130e+00
1.679239e+01	-4.691289e+00
1.688938e+01	-4.724448e+00
1.698694e+01	-4.757721e+00
1.708505e+01	-4.791003e+00
1.718373e+01	-4.824251e+00
1.728299e+01	-4.858159e+00
1.738281e+01	-4.892022e+00
1.748322e+01	-4.925599e+00
1.758420e+01	-4.959838e+00
1.768576e+01	-4.993931e+00
1.778792e+01	-5.027930e+00
1.789066e+01	-5.062368e+00
1.799399e+01	-5.097086e+00
1.809793e+01	-5.131521e+00
1.820246e+01	-5.166025e+00
1.830760e+01	-5.201499e+00
1.841334e+01	-5.236430e+00
1.851969e+01	-5.271388e+00
1.862666e+01	-5.306519e+00
1.873425e+01	-5.341531e+00
1.884246e+01	-5.377290e+00
1.895129e+01	-5.412832e+00
1.906075e+01	-5.448476e+00
1.917085e+01	-5.484187e+00
1.928158e+01	-5.520261e+00
1.939295e+01	-5.556815e+00
1.950496e+01	-5.592386e+00
1.961762e+01	-5.628947e+00
1.973093e+01	-5.665504e+00
1.984490e+01	-5.701425e+00
1.995952e+01	-5.738476e+00
2.007480e+01	-5.775038e+00
2.019076e+01	-5.811973e+00
2.030738e+01	-5.848804e+00
2.042467e+01	-5.885926e+00
2.054264e+01	-5.922799e+00
2.066130e+01	-5.960408e+00
2.078064e+01	-5.997834e+00
2.090066e+01	-6.035298e+00
2.102139e+01	-6.072867e+00
2.114280e+01	-6.110724e+00
2.126492e+01	-6.148452e+00
2.138775e+01	-6.186238e+00
2.151128e+01	-6.224427e+00
2.163553e+01	-6.262571e+00
2.176050e+01	-6.300685e+00
2.188619e+01	-6.338990e+00
2.201260e+01	-6.377853e+00
2.213974e+01	-6.416037e+00
2.226762e+01	-6.455084e+00
2.239624e+01	-6.493478e+00
2.252560e+01	-6.532366e+00
2.265571e+01	-6.571337e+00
2.278656e+01	-6.610811e+00
2.291818e+01	-6.649899e+00
2.305055e+01	-6.688910e+00
2.318369e+01	-6.728189e+00
2.331760e+01	-6.767987e+00
2.345228e+01	-6.807000e+00
2.358774e+01	-6.847285e+00
2.372398e+01	-6.886639e+00
2.386101e+01	-6.926195e+00
2.399883e+01	-6.966353e+00
2.413745e+01	-7.006371e+00
2.427686e+01	-7.046403e+00
2.441709e+01	-7.086542e+00
2.455812e+01	-7.126790e+00
2.469997e+01	-7.167328e+00
2.484263e+01	-7.207932e+00
2.498612e+01	-7.248427e+00
2.513044e+01	-7.289020e+00
2.527559e+01	-7.329372e+00
2.542158e+01	-7.370458e+00
2.556842e+01	-7.411596e+00
2.571610e+01	-7.452191e+00
2.586463e+01	-7.493586e+00
2.601403e+01	-7.534924e+00
2.616428e+01	-7.576029e+00
2.631541e+01	-7.617599e+00
2.646740e+01	-7.658737e+00
2.662028e+01	-7.700254e+00
2.677404e+01	-7.741999e+00
2.692868e+01	-7.783576e+00
2.708422e+01	-7.825043e+00
2.724066e+01	-7.866564e+00
2.739800e+01	-7.908649e+00
2.755625e+01	-7.950606e+00
2.771541e+01	-7.992883e+00
2.787550e+01	-8.034867e+00
2.803650e+01	-8.077035e+00
2.819844e+01	-8.119336e+00
2.836131e+01	-8.161981e+00
2.852513e+01	-8.204213e+00
2.868989e+01	-8.246223e+00
2.885560e+01	-8.289108e+00
2.902227e+01	-8.332168e+00
2.918990e+01	-8.374181e+00
2.935850e+01	-8.417439e+00
2.952807e+01	-8.460147e+00
2.969863e+01	-8.503130e+00
2.987016e+01	-8.546119e+00
3.004269e+01	-8.589169e+00
3.021622e+01	-8.632491e+00
3.039075e+01	-8.675331e+00
3.056628e+01	-8.718725e+00
3.074283e+01	-8.761858e+00
3.092040e+01	-8.805621e+00
3.109900e+01	-8.848941e+00
3.127862e+01	-8.892576e+00
3.145929e+01	-8.936067e+00
3.164099e+01	-8.980115e+00
3.182375e+01	-9.023428e+00
3.200756e+01	-9.067267e+00
3.219244e+01	-9.111506e+00
3.237838e+01	-9.155189e+00
3.256540e+01	-9.199426e+00
3.275349e+01	-9.243539e+00
3.294268e+01	-9.287353e+00
3.313295e+01	-9.331719e+00
3.332433e+01	-9.375591e+00
3.351681e+01	-9.419952e+00
3.371040e+01	-9.464237e+00
3.390511e+01	-9.508448e+00
3.410094e+01	-9.553270e+00
3.429791e+01	-9.598175e+00
3.449601e+01	-9.642558e+00
3.469526e+01	-9.686556e+00
3.489566e+01	-9.731431e+00
3.509721e+01	-9.776582e+00
3.529993e+01	-9.820870e+00
3.550382e+01	-9.865220e+00
3.570889e+01	-9.910577e+00
3.591515e+01	-9.955415e+00
3.612259e+01	-1.000089e+01
3.633123e+01	-1.004617e+01
3.654108e+01	-1.009074e+01
3.675214e+01	-1.013608e+01
3.696442e+01	-1.018112e+01
3.717792e+01	-1.022639e+01
3.739266e+01	-1.027181e+01
3.760864e+01	-1.031697e+01
3.782587e+01	-1.036264e+01
3.804435e+01	-1.040793e+01
3.826409e+01	-1.045325e+01
3.848510e+01	-1.049919e+01
3.870739e+01	-1.054443e+01
3.893096e+01	-1.059061e+01
3.915583e+01	-1.063579e+01
3.938199e+01	-1.068109e+01
3.960946e+01	-1.072815e+01
3.983824e+01	-1.077322e+01
4.006834e+01	-1.081947e+01
4.029978e+01	-1.086459e+01
4.053255e+01	-1.091092e+01
4.076666e+01	-1.095721e+01
4.100213e+01	-1.100335e+01
4.123896e+01	-1.104879e+01
4.147715e+01	-1.109517e+01
4.171672e+01	-1.114119e+01
4.195767e+01	-1.118740e+01
4.220002e+01	-1.123430e+01
4.244377e+01	-1.128021e+01
4.268892e+01	-1.132658e+01
4.293549e+01	-1.137268e+01
4.318348e+01	-1.141926e+01
4.343291e+01	-1.146562e+01
4.368377e+01	-1.151257e+01
4.393609e+01	-1.155806e+01
4.418986e+01	-1.160523e+01
4.444510e+01	-1.165217e+01
4.470182e+01	-1.169810e+01
4.496001e+01	-1.174503e+01
4.521970e+01	-1.179174e+01
4.548089e+01	-1.183887e+01
4.574358e+01	-1.188529e+01
4.600779e+01	-1.193197e+01
4.627353e+01	-1.197903e+01
4.654081e+01	-1.202535e+01
4.680963e+01	-1.207222e+01
4.708000e+01	-1.211946e+01
4.735193e+01	-1.216624e+01
4.762543e+01	-1.221359e+01
4.790051e+01	-1.226061e+01
4.817719e+01	-1.230677e+01
4.845545e+01	-1.235439e+01
4.873533e+01	-1.240220e+01
4.901682e+01	-1.244900e+01
4.929994e+01	-1.249603e+01
4.958470e+01	-1.254389e+01
4.987110e+01	-1.259074e+01
5.015915e+01	-1.263786e+01
5.044887e+01	-1.268580e+01
5.074026e+01	-1.273254e+01
5.103333e+01	-1.278030e+01
5.132810e+01	-1.282794e+01
5.162457e+01	-1.287474e+01
5.192275e+01	-1.292199e+01
5.222265e+01	-1.297013e+01
5.252429e+01	-1.301729e+01
5.282767e+01	-1.306489e+01
5.313280e+01	-1.311245e+01
5.343969e+01	-1.315997e+01
5.374836e+01	-1.320742e+01
5.405880e+01	-1.325491e+01
5.437105e+01	-1.330230e+01
5.468509e+01	-1.335061e+01
5.500095e+01	-1.339901e+01
5.531863e+01	-1.344698e+01
5.563815e+01	-1.349382e+01
5.595951e+01	-1.354191e+01
5.628273e+01	-1.358956e+01
5.660782e+01	-1.363768e+01
5.693479e+01	-1.368585e+01
5.726364e+01	-1.373332e+01
5.759439e+01	-1.378097e+01
5.792705e+01	-1.383011e+01
5.826164e+01	-1.387710e+01
5.859815e+01	-1.392438e+01
5.893662e+01	-1.397326e+01
5.927703e+01	-1.402131e+01
5.961941e+01	-1.406922e+01
5.996377e+01	-1.411745e+01
6.031012e+01	-1.416627e+01
6.065847e+01	-1.421359e+01
6.100883e+01	-1.426200e+01
6.136121e+01	-1.431001e+01
6.171563e+01	-1.435773e+01
6.207210e+01	-1.440650e+01
6.243063e+01	-1.445399e+01
6.279122e+01	-1.450212e+01
6.315390e+01	-1.455135e+01
6.351868e+01	-1.460015e+01
6.388556e+01	-1.464653e+01
6.425456e+01	-1.469585e+01
6.462569e+01	-1.474422e+01
6.499897e+01	-1.479233e+01
6.537440e+01	-1.484119e+01
6.575200e+01	-1.488967e+01
6.613178e+01	-1.493808e+01
6.651375e+01	-1.498611e+01
6.689793e+01	-1.503377e+01
6.728433e+01	-1.508261e+01
6.767297e+01	-1.513117e+01
6.806384e+01	-1.518006e+01
6.845698e+01	-1.522889e+01
6.885238e+01	-1.527655e+01
6.925007e+01	-1.532509e+01
6.965005e+01	-1.537407e+01
7.005235e+01	-1.542244e+01
7.045697e+01	-1.547200e+01
7.086393e+01	-1.551944e+01
7.127323e+01	-1.556919e+01
7.168490e+01	-1.561680e+01
7.209895e+01	-1.566592e+01
7.251539e+01	-1.571482e+01
7.293424e+01	-1.576256e+01
7.335551e+01	-1.581192e+01
7.377920e+01	-1.586027e+01
7.420535e+01	-1.591007e+01
7.463396e+01	-1.595887e+01
7.506504e+01	-1.600790e+01
7.549861e+01	-1.605593e+01
7.593469e+01	-1.610458e+01
7.637328e+01	-1.615371e+01
7.681441e+01	-1.620147e+01
7.725809e+01	-1.625094e+01
7.770433e+01	-1.630049e+01
7.815315e+01	-1.634905e+01
7.860456e+01	-1.639872e+01
7.905857e+01	-1.644727e+01
7.951521e+01	-1.649517e+01
7.997449e+01	-1.654429e+01
8.043642e+01	-1.659242e+01
8.090102e+01	-1.664248e+01
8.136830e+01	-1.669086e+01
8.183828e+01	-1.673848e+01
8.231097e+01	-1.678968e+01
8.278640e+01	-1.683622e+01
8.326457e+01	-1.688731e+01
8.374550e+01	-1.693572e+01
8.422921e+01	-1.698536e+01
8.471572e+01	-1.703410e+01
8.520503e+01	-1.708286e+01
8.569717e+01	-1.713113e+01
8.619215e+01	-1.718200e+01
8.669000e+01	-1.723011e+01
8.719071e+01	-1.727866e+01
8.769432e+01	-1.732734e+01
8.820084e+01	-1.737864e+01
8.871029e+01	-1.742676e+01
8.922267e+01	-1.747484e+01
8.973802e+01	-1.752602e+01
9.025634e+01	-1.757434e+01
9.077766e+01	-1.762285e+01
9.130199e+01	-1.767344e+01
9.182935e+01	-1.772223e+01
9.235975e+01	-1.776997e+01
9.289321e+01	-1.781949e+01
9.342976e+01	-1.786975e+01
9.396941e+01	-1.791865e+01
9.451217e+01	-1.796804e+01
9.505807e+01	-1.801637e+01
9.560712e+01	-1.806670e+01
9.615934e+01	-1.811545e+01
9.671476e+01	-1.816433e+01
9.727338e+01	-1.821482e+01
9.783522e+01	-1.826350e+01
9.840032e+01	-1.831405e+01
9.896867e+01	-1.836230e+01
9.954031e+01	-1.841288e+01
1.001153e+02	-1.846006e+01
1.006935e+02	-1.850966e+01
1.012751e+02	-1.856011e+01
1.018601e+02	-1.860955e+01
1.024484e+02	-1.865789e+01
1.030402e+02	-1.870892e+01
1.036353e+02	-1.875795e+01
1.042339e+02	-1.880571e+01
1.048360e+02	-1.885502e+01
1.054415e+02	-1.890543e+01
1.060505e+02	-1.895435e+01
1.066631e+02	-1.900323e+01
1.072791e+02	-1.905313e+01
1.078988e+02	-1.910231e+01
1.085220e+02	-1.915196e+01
1.091488e+02	-1.920006e+01
1.097793e+02	-1.924985e+01
1.104133e+02	-1.929894e+01
1.110511e+02	-1.934909e+01
1.116925e+02	-1.939911e+01
1.123376e+02	-1.944827e+01
1.129865e+02	-1.949792e+01
1.136391e+02	-1.954678e+01
1.142955e+02	-1.959787e+01
1.149556e+02	-1.964636e+01
1.156196e+02	-1.969641e+01
1.162874e+02	-1.974546e+01
1.169591e+02	-1.979429e+01
1.176347e+02	-1.984450e+01
1.183141e+02	-1.989356e+01
1.189975e+02	-1.994361e+01
1.196848e+02	-1.999246e+01
1.203761e+02	-2.004231e+01
1.210714e+02	-2.009318e+01
1.217707e+02	-2.014036e+01
1.224740e+02	-2.019127e+01
1.231814e+02	-2.023968e+01
1.238929e+02	-2.029137e+01
1.246085e+02	-2.034009e+01
1.253283e+02	-2.039077e+01
1.260522e+02	-2.043956e+01
1.267802e+02	-2.048793e+01
1.275125e+02	-2.053989e+01
1.282490e+02	-2.058724e+01
1.289898e+02	-2.063819e+01
1.297348e+02	-2.068592e+01
1.304842e+02	-2.073696e+01
1.312378e+02	-2.078781e+01
1.319959e+02	-2.083518e+01
1.327583e+02	-2.088693e+01
1.335251e+02	-2.093485e+01
1.342963e+02	-2.098490e+01
1.350720e+02	-2.103360e+01
1.358522e+02	-2.108379e+01
1.366368e+02	-2.113448e+01
1.374260e+02	-2.118337e+01
1.382198e+02	-2.123260e+01
1.390182e+02	-2.128108e+01
1.398211e+02	-2.133002e+01
1.406287e+02	-2.138342e+01
1.414410e+02	-2.143037e+01
1.422579e+02	-2.148191e+01
1.430796e+02	-2.153172e+01
1.439060e+02	-2.158150e+01
1.447372e+02	-2.163073e+01
1.455732e+02	-2.167991e+01
1.464141e+02	-2.173012e+01
1.472597e+02	-2.178146e+01
1.481103e+02	-2.183079e+01
1.489658e+02	-2.187917e+01
1.498262e+02	-2.192992e+01
1.506916e+02	-2.197701e+01
1.515620e+02	-2.202841e+01
1.524374e+02	-2.207792e+01
1.533179e+02	-2.212774e+01
1.542034e+02	-2.217789e+01
1.550941e+02	-2.222874e+01
1.559899e+02	-2.227613e+01
1.568909e+02	-2.232753e+01
1.577971e+02	-2.237838e+01
1.587085e+02	-2.242778e+01
1.596252e+02	-2.247648e+01
1.605472e+02	-2.252616e+01
1.614745e+02	-2.257656e+01
1.624072e+02	-2.262758e+01
1.633453e+02	-2.267451e+01
1.642887e+02	-2.272546e+01
1.652377e+02	-2.277445e+01
1.661921e+02	-2.282455e+01
1.671520e+02	-2.287322e+01
1.681175e+02	-2.292282e+01
1.690885e+02	-2.297562e+01
1.700651e+02	-2.302413e+01
1.710474e+02	-2.307136e+01
1.720354e+02	-2.312608e+01
1.730291e+02	-2.317416e+01
1.740285e+02	-2.322202e+01
1.750337e+02	-2.327437e+01
1.760446e+02	-2.332162e+01
1.770615e+02	-2.337049e+01
1.780842e+02	-2.342005e+01
1.791128e+02	-2.347393e+01
1.801473e+02	-2.352271e+01
1.811878e+02	-2.357123e+01
1.822344e+02	-2.362214e+01
1.832870e+02	-2.367278e+01
1.843456e+02	-2.372241e+01
1.854104e+02	-2.377346e+01
1.864813e+02	-2.381922e+01
1.875584e+02	-2.387146e+01
1.886418e+02	-2.392113e+01
1.897313e+02	-2.397163e+01
1.908272e+02	-2.401920e+01
1.919294e+02	-2.407129e+01
1.930380e+02	-2.412086e+01
1.941530e+02	-2.417101e+01
1.952744e+02	-2.422118e+01
1.964023e+02	-2.426939e+01
1.975367e+02	-2.432088e+01
1.986777e+02	-2.436596e+01
1.998252e+02	-2.442086e+01
2.009794e+02	-2.446703e+01
2.021403e+02	-2.451974e+01
2.033078e+02	-2.456796e+01
2.044821e+02	-2.461907e+01
2.056632e+02	-2.467023e+01
2.068511e+02	-2.471774e+01
2.080459e+02	-2.476641e+01
2.092475e+02	-2.482050e+01
2.104561e+02	-2.486769e+01
2.116717e+02	-2.491716e+01
2.128943e+02	-2.496661e+01
2.141240e+02	-2.501702e+01
2.153608e+02	-2.506711e+01
2.166047e+02	-2.511828e+01
2.178558e+02	-2.516618e+01
2.191141e+02	-2.521683e+01
2.203797e+02	-2.526760e+01
2.216526e+02	-2.531635e+01
2.229329e+02	-2.536464e+01
2.242205e+02	-2.541827e+01
2.255156e+02	-2.546878e+01
2.268182e+02	-2.551682e+01
2.281283e+02	-2.556721e+01
2.294459e+02	-2.561746e+01
2.307712e+02	-2.566582e+01
2.321041e+02	-2.571787e+01
2.334447e+02	-2.576593e+01
2.347931e+02	-2.581734e+01
2.361493e+02	-2.586578e+01
2.375133e+02	-2.591554e+01
2.388851e+02	-2.596662e+01
2.402649e+02	-2.601286e+01
2.416527e+02	-2.606517e+01
2.430484e+02	-2.611815e+01
2.444523e+02	-2.616582e+01
2.458642e+02	-2.621695e+01
2.472843e+02	-2.626682e+01
2.487126e+02	-2.631645e+01
2.501492e+02	-2.636906e+01
2.515940e+02	-2.641708e+01
2.530472e+02	-2.646647e+01
2.545088e+02	-2.651969e+01
2.559789e+02	-2.656869e+01
2.574574e+02	-2.661377e+01
2.589444e+02	-2.666494e+01
2.604401e+02	-2.671801e+01
2.619444e+02	-2.676515e+01
2.634574e+02	-2.681494e+01
2.649791e+02	-2.686529e+01
2.665096e+02	-2.691690e+01
2.680489e+02	-2.696414e+01
2.695972e+02	-2.701532e+01
2.711544e+02	-2.706623e+01
2.727205e+02	-2.711732e+01
2.742958e+02	-2.716733e+01
2.758801e+02	-2.721576e+01
2.774736e+02	-2.726655e+01
2.790762e+02	-2.731753e+01
2.806882e+02	-2.736443e+01
2.823094e+02	-2.741428e+01
2.839400e+02	-2.746670e+01
2.855800e+02	-2.751314e+01
2.872295e+02	-2.756857e+01
2.888886e+02	-2.761438e+01
2.905572e+02	-2.766496e+01
2.922354e+02	-2.771530e+01
2.939234e+02	-2.776567e+01
2.956211e+02	-2.781347e+01
2.973286e+02	-2.786962e+01
2.990459e+02	-2.791754e+01
3.007732e+02	-2.796686e+01
3.025104e+02	-2.801407e+01
3.042577e+02	-2.806513e+01
3.060151e+02	-2.811846e+01
3.077826e+02	-2.816733e+01
3.095604e+02	-2.821550e+01
3.113484e+02	-2.826596e+01
3.131467e+02	-2.831394e+01
3.149554e+02	-2.836708e+01
3.167746e+02	-2.841603e+01
3.186043e+02	-2.846714e+01
3.204445e+02	-2.851725e+01
3.222954e+02	-2.856720e+01
3.241570e+02	-2.861725e+01
3.260293e+02	-2.866911e+01
3.279124e+02	-2.871805e+01
3.298064e+02	-2.877160e+01
3.317114e+02	-2.881932e+01
3.336273e+02	-2.886461e+01
3.355544e+02	-2.891564e+01
3.374925e+02	-2.896625e+01
3.394418e+02	-2.901800e+01
3.414024e+02	-2.906645e+01
3.433744e+02	-2.911705e+01
3.453577e+02	-2.916490e+01
3.473525e+02	-2.921899e+01
3.493588e+02	-2.926656e+01
3.513766e+02	-2.931833e+01
3.534062e+02	-2.936872e+01
3.554474e+02	-2.941645e+01
3.575005e+02	-2.946892e+01
3.595654e+02	-2.952005e+01
3.616422e+02	-2.956715e+01
3.637311e+02	-2.961846e+01
3.658320e+02	-2.966870e+01
3.679450e+02	-2.972002e+01
3.700702e+02	-2.977102e+01
3.722077e+02	-2.982156e+01
3.743576e+02	-2.986324e+01
3.765199e+02	-2.992022e+01
3.786946e+02	-2.996553e+01
3.808820e+02	-3.001820e+01
3.830819e+02	-3.006714e+01
3.852946e+02	-3.011704e+01
3.875200e+02	-3.016978e+01
3.897583e+02	-3.021658e+01
3.920096e+02	-3.026581e+01
3.942738e+02	-3.031832e+01
3.965511e+02	-3.036545e+01
3.988416e+02	-3.041579e+01
4.011452e+02	-3.046828e+01
4.034622e+02	-3.051938e+01
4.057926e+02	-3.056788e+01
4.081365e+02	-3.061995e+01
4.104938e+02	-3.066904e+01
4.128648e+02	-3.072136e+01
4.152495e+02	-3.076955e+01
4.176480e+02	-3.081877e+01
4.200603e+02	-3.086920e+01
4.224866e+02	-3.092168e+01
4.249268e+02	-3.097109e+01
4.273812e+02	-3.102084e+01
4.298497e+02	-3.107576e+01
4.323325e+02	-3.111645e+01
4.348297e+02	-3.117252e+01
4.373412e+02	-3.121966e+01
4.398673e+02	-3.127309e+01
4.424079e+02	-3.132290e+01
4.449633e+02	-3.137707e+01
4.475334e+02	-3.142478e+01
4.501183e+02	-3.147630e+01
4.527182e+02	-3.152297e+01
4.553330e+02	-3.157360e+01
4.579630e+02	-3.161841e+01
4.606082e+02	-3.167092e+01
4.632687e+02	-3.171549e+01
4.659445e+02	-3.177633e+01
4.686358e+02	-3.182871e+01
4.713426e+02	-3.186781e+01
4.740650e+02	-3.191841e+01
4.768032e+02	-3.197365e+01
4.795572e+02	-3.202597e+01
4.823271e+02	-3.207245e+01
4.851130e+02	-3.212571e+01
4.879150e+02	-3.217133e+01
4.907332e+02	-3.222363e+01
4.935676e+02	-3.226817e+01
4.964185e+02	-3.232612e+01
4.992858e+02	-3.237266e+01
5.021696e+02	-3.242902e+01
5.050701e+02	-3.248347e+01
5.079874e+02	-3.253294e+01
5.109215e+02	-3.257262e+01
5.138726e+02	-3.262351e+01
5.168407e+02	-3.267399e+01
5.198259e+02	-3.272950e+01
5.228284e+02	-3.277694e+01
5.258482e+02	-3.282902e+01
5.288855e+02	-3.287461e+01
5.319403e+02	-3.292758e+01
5.350128e+02	-3.298148e+01
5.381030e+02	-3.302099e+01
5.412111e+02	-3.307676e+01
5.443371e+02	-3.312966e+01
5.474812e+02	-3.317741e+01
5.506434e+02	-3.323617e+01
5.538239e+02	-3.327987e+01
5.570228e+02	-3.333571e+01
5.602401e+02	-3.337838e+01
5.634760e+02	-3.343508e+01
5.667306e+02	-3.347614e+01
5.700040e+02	-3.352569e+01
5.732964e+02	-3.357916e+01
5.766077e+02	-3.363147e+01
5.799382e+02	-3.368555e+01
5.832879e+02	-3.372941e+01
5.866569e+02	-3.378473e+01
5.900454e+02	-3.382854e+01
5.934535e+02	-3.388747e+01
5.968813e+02	-3.392824e+01
6.003288e+02	-3.398159e+01
6.037963e+02	-3.402776e+01
6.072838e+02	-3.408453e+01
6.107914e+02	-3.412965e+01
6.143194e+02	-3.418134e+01
6.178676e+02	-3.423753e+01
6.214364e+02	-3.428154e+01
6.250258e+02	-3.433225e+01
6.286359e+02	-3.438847e+01
6.322669e+02	-3.443484e+01
6.359189e+02	-3.448459e+01
6.395919e+02	-3.453835e+01
6.432862e+02	-3.458469e+01
6.470017e+02	-3.463589e+01
6.507388e+02	-3.468165e+01
6.544974e+02	-3.473424e+01
6.582778e+02	-3.479070e+01
6.620800e+02	-3.483408e+01
6.659041e+02	-3.488713e+01
6.697504e+02	-3.493744e+01
6.736188e+02	-3.498564e+01
6.775096e+02	-3.504513e+01
6.814229e+02	-3.509411e+01
6.853587e+02	-3.514043e+01
6.893173e+02	-3.519474e+01
6.932988e+02	-3.524612e+01
6.973033e+02	-3.528905e+01
7.013309e+02	-3.533710e+01
