Frequency(Hz)	Magnitude(dB)
1.000000e+01	-2.279475e+00
1.005776e+01	-2.300074e+00
1.011585e+01	-2.320679e+00
1.017428e+01	-2.341292e+00
1.023305e+01	-2.362100e+00
1.029215e+01	-2.383407e+00
1.035160e+01	-2.404707e+00
1.041139e+01	-2.425992e+00
1.047153e+01	-2.447504e+00
1.053201e+01	-2.469045e+00
1.059284e+01	-2.490833e+00
1.065403e+01	-2.512750e+00
1.071556e+01	-2.534721e+00
1.077746e+01	-2.556785e+00
1.083971e+01	-2.579174e+00
1.090232e+01	-2.601871e+00
1.096529e+01	-2.624243e+00
1.102862e+01	-2.646926e+00
1.109232e+01	-2.669798e+00
1.115639e+01	-2.692884e+00
1.122083e+01	-2.716392e+00
1.128564e+01	-2.739694e+00
1.135083e+01	-2.763062e+00
1.141639e+01	-2.786528e+00
1.148233e+01	-2.810385e+00
1.154865e+01	-2.834225e+00
1.161536e+01	-2.858488e+00
1.168245e+01	-2.882532e+00
1.174992e+01	-2.906800e+00
1.181779e+01	-2.931269e+00
1.188605e+01	-2.955873e+00
1.195470e+01	-2.980670e+00
1.202375e+01	-3.005873e+00
1.209320e+01	-3.030669e+00
1.216305e+01	-3.056096e+00
1.223330e+01	-3.081268e+00
1.230396e+01	-3.106809e+00
1.237503e+01	-3.132262e+00
1.244651e+01	-3.158175e+00
1.251840e+01	-3.183887e+00
1.259070e+01	-3.210208e+00
1.266343e+01	-3.236596e+00
1.273657e+01	-3.262594e+00
1.281014e+01	-3.289242e+00
1.288413e+01	-3.315831e+00
1.295855e+01	-3.342870e+00
1.303339e+01	-3.369750e+00
1.310867e+01	-3.396675e+00
1.318439e+01	-3.424090e+00
1.326054e+01	-3.451430e+00
1.333713e+01	-3.478615e+00
1.341417e+01	-3.506455e+00
1.349165e+01	-3.534120e+00
1.356958e+01	-3.562260e+00
1.364795e+01	-3.590241e+00
1.372678e+01	-3.618371e+00
1.380607e+01	-3.646856e+00
1.388581e+01	-3.675276e+00
1.396602e+01	-3.703974e+00
1.404668e+01	-3.732746e+00
1.412782e+01	-3.761659e+00
1.420942e+01	-3.790574e+00
1.429149e+01	-3.819799e+00
1.437404e+01	-3.849077e+00
1.445706e+01	-3.878968e+00
1.454057e+01	-3.908227e+00
1.462455e+01	-3.938169e+00
1.470902e+01	-3.968032e+00
1.479398e+01	-3.997999e+00
1.487943e+01	-4.028050e+00
1.496537e+01	-4.058456e+00
1.505181e+01	-4.088939e+00
1.513875e+01	-4.119517e+00
1.522619e+01	-4.150050e+00
1.531414e+01	-4.181205e+00
1.540259e+01	-4.212035e+00
1.549156e+01	-4.242980e+00
1.558103e+01	-4.274565e+00
1.567103e+01	-4.305756e+00
1.576155e+01	-4.337189e+00
1.585258e+01	-4.368990e+00
1.594415e+01	-4.400818e+00
1.603624e+01	-4.432574e+00
1.612886e+01	-4.464842e+00
1.622202e+01	-4.496879e+00
1.631572e+01	-4.529312e+00
1.640996e+01	-4.561839e+00
1.650474e+01	-4.594431e+00
1.660008e+01	-4.627084e+00
1.669596e+01	-4.660000e+00
1.679239e+01	-4.692975e+00
1.688938e+01	-4.726091e+00
1.698694e+01	-4.759580e+00
1.708505e+01	-4.792715e+00
1.718373e+01	-4.826089e+00
1.728299e+01	-4.859591e+00
1.738281e+01	-4.893607e+00
1.748322e+01	-4.927296e+00
1.758420e+01	-4.961331e+00
1.768576e+01	-4.995609e+00
1.778792e+01	-5.029914e+00
1.789066e+01	-5.063872e+00
1.799399e+01	-5.098391e+00
1.809793e+01	-5.133340e+00
1.820246e+01	-5.167977e+00
1.830760e+01	-5.202642e+00
1.841334e+01	-5.237929e+00
1.851969e+01	-5.272549e+00
1.862666e+01	-5.307986e+00
1.873425e+01	-5.343810e+00
1.884246e+01	-5.379178e+00
1.895129e+01	-5.414574e+00
1.906075e+01	-5.450330e+00
1.917085e+01	-5.486345e+00
1.928158e+01	-5.522151e+00
1.939295e+01	-5.558415e+00
1.950496e+01	-5.594271e+00
1.961762e+01	-5.630306e+00
1.973093e+01	-5.667257e+00
1.984490e+01	-5.703479e+00
1.995952e+01	-5.739848e+00
2.007480e+01	-5.777188e+00
2.019076e+01	-5.813867e+00
2.030738e+01	-5.850756e+00
2.042467e+01	-5.888044e+00
2.054264e+01	-5.924833e+00
2.066130e+01	-5.962221e+00
2.078064e+01	-5.999566e+00
2.090066e+01	-6.037198e+00
2.102139e+01	-6.074834e+00
2.114280e+01	-6.112323e+00
2.126492e+01	-6.150501e+00
2.138775e+01	-6.188189e+00
2.151128e+01	-6.226301e+00
2.163553e+01	-6.264340e+00
2.176050e+01	-6.302364e+00
2.188619e+01	-6.340996e+00
2.201260e+01	-6.379688e+00
2.213974e+01	-6.418218e+00
2.226762e+01	-6.456499e+00
2.239624e+01	-6.495585e+00
2.252560e+01	-6.534239e+00
2.265571e+01	-6.573775e+00
2.278656e+01	-6.612487e+00
2.291818e+01	-6.651656e+00
2.305055e+01	-6.690593e+00
2.318369e+01	-6.729898e+00
2.331760e+01	-6.769729e+00
2.345228e+01	-6.809382e+00
2.358774e+01	-6.848700e+00
2.372398e+01	-6.888364e+00
2.386101e+01	-6.928256e+00
2.399883e+01	-6.968412e+00
2.413745e+01	-7.008124e+00
2.427686e+01	-7.048326e+00
2.441709e+01	-7.088565e+00
2.455812e+01	-7.129149e+00
2.469997e+01	-7.169521e+00
2.484263e+01	-7.209910e+00
2.498612e+01	-7.250545e+00
2.513044e+01	-7.291078e+00
2.527559e+01	-7.331531e+00
2.542158e+01	-7.372623e+00
2.556842e+01	-7.413946e+00
2.571610e+01	-7.454503e+00
2.586463e+01	-7.495597e+00
2.601403e+01	-7.536670e+00
2.616428e+01	-7.577817e+00
2.631541e+01	-7.619250e+00
2.646740e+01	-7.660736e+00
2.662028e+01	-7.702254e+00
2.677404e+01	-7.743535e+00
2.692868e+01	-7.785531e+00
2.708422e+01	-7.826862e+00
2.724066e+01	-7.869033e+00
2.739800e+01	-7.910784e+00
2.755625e+01	-7.952502e+00
2.771541e+01	-7.994821e+00
2.787550e+01	-8.037252e+00
2.803650e+01	-8.079136e+00
2.819844e+01	-8.121684e+00
2.836131e+01	-8.163569e+00
2.852513e+01	-8.206071e+00
2.868989e+01	-8.248846e+00
2.885560e+01	-8.291350e+00
2.902227e+01	-8.334168e+00
2.918990e+01	-8.376455e+00
2.935850e+01	-8.419385e+00
2.952807e+01	-8.462118e+00
2.969863e+01	-8.504902e+00
2.987016e+01	-8.548364e+00
3.004269e+01	-8.591195e+00
3.021622e+01	-8.634036e+00
3.039075e+01	-8.677593e+00
3.056628e+01	-8.721343e+00
3.074283e+01	-8.764671e+00
3.092040e+01	-8.807653e+00
3.109900e+01	-8.851510e+00
3.127862e+01	-8.894470e+00
3.145929e+01	-8.938160e+00
3.164099e+01	-8.981740e+00
3.182375e+01	-9.025760e+00
3.200756e+01	-9.069391e+00
3.219244e+01	-9.113207e+00
3.237838e+01	-9.157787e+00
3.256540e+01	-9.201471e+00
3.275349e+01	-9.245145e+00
3.294268e+01	-9.289188e+00
3.313295e+01	-9.333633e+00
3.332433e+01	-9.377770e+00
3.351681e+01	-9.422193e+00
3.371040e+01	-9.466299e+00
3.390511e+01	-9.510668e+00
3.410094e+01	-9.555516e+00
3.429791e+01	-9.599395e+00
3.449601e+01	-9.644349e+00
3.469526e+01	-9.689184e+00
3.489566e+01	-9.733431e+00
3.509721e+01	-9.778506e+00
3.529993e+01	-9.823144e+00
3.550382e+01	-9.868504e+00
3.570889e+01	-9.912727e+00
3.591515e+01	-9.958024e+00
3.612259e+01	-1.000237e+01
3.633123e+01	-1.004781e+01
3.654108e+01	-1.009322e+01
3.675214e+01	-1.013832e+01
3.696442e+01	-1.018439e+01
3.717792e+01	-1.022870e+01
3.739266e+01	-1.027452e+01
3.760864e+01	-1.031955e+01
3.782587e+01	-1.036484e+01
3.804435e+01	-1.041018e+01
3.826409e+01	-1.045593e+01
3.848510e+01	-1.050117e+01
3.870739e+01	-1.054748e+01
3.893096e+01	-1.059221e+01
3.915583e+01	-1.063802e+01
3.938199e+01	-1.068378e+01
3.960946e+01	-1.072964e+01
3.983824e+01	-1.077573e+01
4.006834e+01	-1.082102e+01
4.029978e+01	-1.086725e+01
4.053255e+01	-1.091374e+01
4.076666e+01	-1.095862e+01
4.100213e+01	-1.100521e+01
4.123896e+01	-1.105105e+01
4.147715e+01	-1.109751e+01
4.171672e+01	-1.114383e+01
4.195767e+01	-1.119010e+01
4.220002e+01	-1.123637e+01
4.244377e+01	-1.128245e+01
4.268892e+01	-1.132897e+01
4.293549e+01	-1.137493e+01
4.318348e+01	-1.142169e+01
4.343291e+01	-1.146843e+01
4.368377e+01	-1.151435e+01
4.393609e+01	-1.156066e+01
4.418986e+01	-1.160773e+01
4.444510e+01	-1.165390e+01
4.470182e+01	-1.170084e+01
4.496001e+01	-1.174691e+01
4.521970e+01	-1.179422e+01
4.548089e+01	-1.184048e+01
4.574358e+01	-1.188767e+01
4.600779e+01	-1.193415e+01
4.627353e+01	-1.198170e+01
4.654081e+01	-1.202839e+01
4.680963e+01	-1.207492e+01
4.708000e+01	-1.212187e+01
4.735193e+01	-1.216839e+01
4.762543e+01	-1.221594e+01
4.790051e+01	-1.226287e+01
4.817719e+01	-1.230901e+01
4.845545e+01	-1.235695e+01
4.873533e+01	-1.240485e+01
4.901682e+01	-1.245161e+01
4.929994e+01	-1.249948e+01
4.958470e+01	-1.254583e+01
4.987110e+01	-1.259372e+01
5.015915e+01	-1.263947e+01
5.044887e+01	-1.268787e+01
5.074026e+01	-1.273468e+01
5.103333e+01	-1.278174e+01
5.132810e+01	-1.282947e+01
5.162457e+01	-1.287770e+01
5.192275e+01	-1.292515e+01
5.222265e+01	-1.297220e+01
5.252429e+01	-1.301976e+01
5.282767e+01	-1.306736e+01
5.313280e+01	-1.311506e+01
5.343969e+01	-1.316250e+01
5.374836e+01	-1.320975e+01
5.405880e+01	-1.325826e+01
5.437105e+01	-1.330548e+01
5.468509e+01	-1.335344e+01
5.500095e+01	-1.340056e+01
5.531863e+01	-1.344830e+01
5.563815e+01	-1.349692e+01
5.595951e+01	-1.354427e+01
5.628273e+01	-1.359217e+01
5.660782e+01	-1.363958e+01
5.693479e+01	-1.368713e+01
5.726364e+01	-1.373546e+01
5.759439e+01	-1.378367e+01
5.792705e+01	-1.383057e+01
5.826164e+01	-1.387921e+01
5.859815e+01	-1.392712e+01
5.893662e+01	-1.397623e+01
5.927703e+01	-1.402342e+01
5.961941e+01	-1.407137e+01
5.996377e+01	-1.411993e+01
6.031012e+01	-1.416780e+01
6.065847e+01	-1.421632e+01
6.100883e+01	-1.426395e+01
6.136121e+01	-1.431128e+01
6.171563e+01	-1.436092e+01
6.207210e+01	-1.440857e+01
6.243063e+01	-1.445611e+01
6.279122e+01	-1.450517e+01
6.315390e+01	-1.455274e+01
6.351868e+01	-1.460092e+01
6.388556e+01	-1.464971e+01
6.425456e+01	-1.469838e+01
6.462569e+01	-1.474735e+01
6.499897e+01	-1.479486e+01
6.537440e+01	-1.484290e+01
6.575200e+01	-1.489132e+01
6.613178e+01	-1.493986e+01
6.651375e+01	-1.498741e+01
6.689793e+01	-1.503685e+01
6.728433e+01	-1.508581e+01
6.767297e+01	-1.513375e+01
6.806384e+01	-1.518185e+01
6.845698e+01	-1.523086e+01
6.885238e+01	-1.527935e+01
6.925007e+01	-1.532851e+01
6.965005e+01	-1.537597e+01
7.005235e+01	-1.542566e+01
7.045697e+01	-1.547441e+01
7.086393e+01	-1.552234e+01
7.127323e+01	-1.557073e+01
7.168490e+01	-1.562065e+01
7.209895e+01	-1.566844e+01
7.251539e+01	-1.571633e+01
7.293424e+01	-1.576444e+01
7.335551e+01	-1.581468e+01
7.377920e+01	-1.586378e+01
7.420535e+01	-1.591124e+01
7.463396e+01	-1.596003e+01
7.506504e+01	-1.600948e+01
7.549861e+01	-1.605717e+01
7.593469e+01	-1.610655e+01
7.637328e+01	-1.615507e+01
7.681441e+01	-1.620538e+01
7.725809e+01	-1.625398e+01
7.770433e+01	-1.630269e+01
7.815315e+01	-1.635121e+01
7.860456e+01	-1.640004e+01
7.905857e+01	-1.644977e+01
7.951521e+01	-1.649777e+01
7.997449e+01	-1.654777e+01
8.043642e+01	-1.659468e+01
8.090102e+01	-1.664413e+01
8.136830e+01	-1.669247e+01
8.183828e+01	-1.674360e+01
8.231097e+01	-1.679028e+01
8.278640e+01	-1.684119e+01
8.326457e+01	-1.688900e+01
8.374550e+01	-1.693877e+01
8.422921e+01	-1.698779e+01
8.471572e+01	-1.703750e+01
8.520503e+01	-1.708528e+01
8.569717e+01	-1.713384e+01
8.619215e+01	-1.718354e+01
8.669000e+01	-1.723361e+01
8.719071e+01	-1.728140e+01
8.769432e+01	-1.733096e+01
8.820084e+01	-1.738048e+01
8.871029e+01	-1.743005e+01
8.922267e+01	-1.747892e+01
8.973802e+01	-1.752761e+01
9.025634e+01	-1.757730e+01
9.077766e+01	-1.762482e+01
9.130199e+01	-1.767622e+01
9.182935e+01	-1.772450e+01
9.235975e+01	-1.777391e+01
9.289321e+01	-1.782186e+01
9.342976e+01	-1.787262e+01
9.396941e+01	-1.791997e+01
9.451217e+01	-1.797006e+01
9.505807e+01	-1.802017e+01
9.560712e+01	-1.806849e+01
9.615934e+01	-1.811844e+01
9.671476e+01	-1.816740e+01
9.727338e+01	-1.821735e+01
9.783522e+01	-1.826497e+01
9.840032e+01	-1.831585e+01
9.896867e+01	-1.836483e+01
9.954031e+01	-1.841250e+01
1.001153e+02	-1.846291e+01
1.006935e+02	-1.851108e+01
1.012751e+02	-1.856172e+01
1.018601e+02	-1.861084e+01
1.024484e+02	-1.866075e+01
1.030402e+02	-1.870941e+01
1.036353e+02	-1.875934e+01
1.042339e+02	-1.880750e+01
1.048360e+02	-1.885768e+01
1.054415e+02	-1.890516e+01
1.060505e+02	-1.895776e+01
1.066631e+02	-1.900589e+01
1.072791e+02	-1.905474e+01
1.078988e+02	-1.910500e+01
1.085220e+02	-1.915307e+01
1.091488e+02	-1.920392e+01
1.097793e+02	-1.925214e+01
1.104133e+02	-1.930269e+01
1.110511e+02	-1.935123e+01
1.116925e+02	-1.940359e+01
1.123376e+02	-1.945058e+01
1.129865e+02	-1.949980e+01
1.136391e+02	-1.954861e+01
1.142955e+02	-1.959654e+01
1.149556e+02	-1.964846e+01
1.156196e+02	-1.969854e+01
1.162874e+02	-1.974928e+01
1.169591e+02	-1.979682e+01
1.176347e+02	-1.984574e+01
1.183141e+02	-1.989740e+01
1.189975e+02	-1.994544e+01
1.196848e+02	-1.999574e+01
1.203761e+02	-2.004501e+01
1.210714e+02	-2.009389e+01
1.217707e+02	-2.014429e+01
1.224740e+02	-2.019321e+01
1.231814e+02	-2.024354e+01
1.238929e+02	-2.029307e+01
1.246085e+02	-2.034302e+01
1.253283e+02	-2.039225e+01
1.260522e+02	-2.044116e+01
1.267802e+02	-2.049079e+01
1.275125e+02	-2.054068e+01
1.282490e+02	-2.059014e+01
1.289898e+02	-2.063883e+01
1.297348e+02	-2.069040e+01
1.304842e+02	-2.073878e+01
1.312378e+02	-2.078861e+01
1.319959e+02	-2.083725e+01
1.327583e+02	-2.088801e+01
1.335251e+02	-2.093707e+01
1.342963e+02	-2.098872e+01
1.350720e+02	-2.103759e+01
1.358522e+02	-2.108627e+01
1.366368e+02	-2.113625e+01
1.374260e+02	-2.118634e+01
1.382198e+02	-2.123647e+01
1.390182e+02	-2.128611e+01
1.398211e+02	-2.133558e+01
1.406287e+02	-2.138597e+01
1.414410e+02	-2.143477e+01
1.422579e+02	-2.148514e+01
1.430796e+02	-2.153541e+01
1.439060e+02	-2.158348e+01
1.447372e+02	-2.163419e+01
1.455732e+02	-2.168225e+01
1.464141e+02	-2.173065e+01
1.472597e+02	-2.178265e+01
1.481103e+02	-2.183154e+01
1.489658e+02	-2.188354e+01
1.498262e+02	-2.193131e+01
1.506916e+02	-2.198081e+01
1.515620e+02	-2.203002e+01
1.524374e+02	-2.208025e+01
1.533179e+02	-2.212913e+01
1.542034e+02	-2.218060e+01
1.550941e+02	-2.222745e+01
1.559899e+02	-2.228028e+01
1.568909e+02	-2.232721e+01
1.577971e+02	-2.237803e+01
1.587085e+02	-2.242936e+01
1.596252e+02	-2.247817e+01
1.605472e+02	-2.253150e+01
1.614745e+02	-2.257863e+01
1.624072e+02	-2.262900e+01
1.633453e+02	-2.267846e+01
1.642887e+02	-2.272998e+01
1.652377e+02	-2.277654e+01
1.661921e+02	-2.282992e+01
1.671520e+02	-2.287760e+01
1.681175e+02	-2.292699e+01
1.690885e+02	-2.297614e+01
1.700651e+02	-2.302344e+01
1.710474e+02	-2.307545e+01
1.720354e+02	-2.312676e+01
1.730291e+02	-2.317733e+01
1.740285e+02	-2.322391e+01
1.750337e+02	-2.327478e+01
1.760446e+02	-2.332568e+01
1.770615e+02	-2.337730e+01
1.780842e+02	-2.342528e+01
1.791128e+02	-2.347315e+01
1.801473e+02	-2.352318e+01
1.811878e+02	-2.357660e+01
1.822344e+02	-2.362286e+01
1.832870e+02	-2.367527e+01
1.843456e+02	-2.372059e+01
1.854104e+02	-2.377245e+01
1.864813e+02	-2.382231e+01
1.875584e+02	-2.387412e+01
1.886418e+02	-2.392272e+01
1.897313e+02	-2.397477e+01
1.908272e+02	-2.402627e+01
1.919294e+02	-2.407124e+01
1.930380e+02	-2.412373e+01
1.941530e+02	-2.417234e+01
1.952744e+02	-2.422118e+01
1.964023e+02	-2.427422e+01
1.975367e+02	-2.432348e+01
1.986777e+02	-2.437144e+01
1.998252e+02	-2.442143e+01
2.009794e+02	-2.447038e+01
2.021403e+02	-2.452416e+01
2.033078e+02	-2.456995e+01
2.044821e+02	-2.462163e+01
2.056632e+02	-2.467162e+01
2.068511e+02	-2.471918e+01
2.080459e+02	-2.477337e+01
2.092475e+02	-2.481835e+01
2.104561e+02	-2.487022e+01
2.116717e+02	-2.492073e+01
2.128943e+02	-2.497173e+01
2.141240e+02	-2.502154e+01
2.153608e+02	-2.506887e+01
2.166047e+02	-2.511806e+01
2.178558e+02	-2.517134e+01
2.191141e+02	-2.522251e+01
2.203797e+02	-2.527124e+01
2.216526e+02	-2.532038e+01
2.229329e+02	-2.537096e+01
2.242205e+02	-2.542228e+01
2.255156e+02	-2.547105e+01
2.268182e+02	-2.552113e+01
2.281283e+02	-2.557147e+01
2.294459e+02	-2.562109e+01
2.307712e+02	-2.566687e+01
2.321041e+02	-2.571781e+01
2.334447e+02	-2.576951e+01
2.347931e+02	-2.582046e+01
2.361493e+02	-2.586859e+01
2.375133e+02	-2.592003e+01
2.388851e+02	-2.596914e+01
2.402649e+02	-2.601759e+01
2.416527e+02	-2.606832e+01
2.430484e+02	-2.611632e+01
2.444523e+02	-2.616801e+01
2.458642e+02	-2.621717e+01
2.472843e+02	-2.627018e+01
2.487126e+02	-2.631898e+01
2.501492e+02	-2.637229e+01
2.515940e+02	-2.641735e+01
2.530472e+02	-2.646945e+01
2.545088e+02	-2.651975e+01
2.559789e+02	-2.657175e+01
2.574574e+02	-2.661874e+01
2.589444e+02	-2.667059e+01
2.604401e+02	-2.671759e+01
2.619444e+02	-2.676972e+01
2.634574e+02	-2.681869e+01
2.649791e+02	-2.686994e+01
2.665096e+02	-2.691664e+01
2.680489e+02	-2.696713e+01
2.695972e+02	-2.701762e+01
2.711544e+02	-2.706906e+01
2.727205e+02	-2.711897e+01
2.742958e+02	-2.717104e+01
2.758801e+02	-2.722191e+01
2.774736e+02	-2.726864e+01
2.790762e+02	-2.731945e+01
2.806882e+02	-2.736685e+01
2.823094e+02	-2.741827e+01
2.839400e+02	-2.746709e+01
2.855800e+02	-2.752152e+01
2.872295e+02	-2.756460e+01
2.888886e+02	-2.762104e+01
2.905572e+02	-2.766805e+01
2.922354e+02	-2.772008e+01
2.939234e+02	-2.776686e+01
2.956211e+02	-2.781772e+01
2.973286e+02	-2.786858e+01
2.990459e+02	-2.791824e+01
3.007732e+02	-2.796732e+01
3.025104e+02	-2.801849e+01
3.042577e+02	-2.806838e+01
3.060151e+02	-2.811673e+01
3.077826e+02	-2.816751e+01
3.095604e+02	-2.821647e+01
3.113484e+02	-2.826738e+01
3.131467e+02	-2.831913e+01
3.149554e+02	-2.837207e+01
3.167746e+02	-2.841788e+01
3.186043e+02	-2.846861e+01
3.204445e+02	-2.852110e+01
3.222954e+02	-2.857078e+01
3.241570e+02	-2.862362e+01
3.260293e+02	-2.866679e+01
3.279124e+02	-2.871767e+01
3.298064e+02	-2.876754e+01
3.317114e+02	-2.882064e+01
3.336273e+02	-2.887340e+01
3.355544e+02	-2.891638e+01
3.374925e+02	-2.896632e+01
3.394418e+02	-2.902097e+01
3.414024e+02	-2.907234e+01
3.433744e+02	-2.912176e+01
3.453577e+02	-2.916707e+01
3.473525e+02	-2.922345e+01
3.493588e+02	-2.927345e+01
3.513766e+02	-2.931596e+01
3.534062e+02	-2.936952e+01
3.554474e+02	-2.941810e+01
3.575005e+02	-2.946854e+01
3.595654e+02	-2.951763e+01
3.616422e+02	-2.957030e+01
3.637311e+02	-2.961871e+01
3.658320e+02	-2.966346e+01
3.679450e+02	-2.972282e+01
3.700702e+02	-2.977372e+01
3.722077e+02	-2.982530e+01
3.743576e+02	-2.986922e+01
3.765199e+02	-2.992418e+01
3.786946e+02	-2.996807e+01
3.808820e+02	-3.001997e+01
3.830819e+02	-3.007056e+01
3.852946e+02	-3.011881e+01
3.875200e+02	-3.017108e+01
3.897583e+02	-3.022236e+01
3.920096e+02	-3.027356e+01
3.942738e+02	-3.032271e+01
3.965511e+02	-3.036717e+01
3.988416e+02	-3.042013e+01
4.011452e+02	-3.047334e+01
4.034622e+02	-3.052278e+01
4.057926e+02	-3.057532e+01
4.081365e+02	-3.062198e+01
4.104938e+02	-3.066682e+01
4.128648e+02	-3.072304e+01
4.152495e+02	-3.076867e+01
4.176480e+02	-3.082175e+01
4.200603e+02	-3.087058e+01
4.224866e+02	-3.091701e+01
4.249268e+02	-3.096892e+01
4.273812e+02	-3.102203e+01
4.298497e+02	-3.107068e+01
4.323325e+02	-3.111910e+01
4.348297e+02	-3.117155e+01
4.373412e+02	-3.122396e+01
4.398673e+02	-3.127073e+01
4.424079e+02	-3.132112e+01
4.449633e+02	-3.136948e+01
4.475334e+02	-3.142276e+01
4.501183e+02	-3.147525e+01
4.527182e+02	-3.152838e+01
4.553330e+02	-3.157606e+01
4.579630e+02	-3.162265e+01
4.606082e+02	-3.167255e+01
4.632687e+02	-3.172919e+01
4.659445e+02	-3.177906e+01
4.686358e+02	-3.182721e+01
4.713426e+02	-3.187419e+01
4.740650e+02	-3.192826e+01
4.768032e+02	-3.197295e+01
4.795572e+02	-3.202144e+01
4.823271e+02	-3.207333e+01
4.851130e+02	-3.212621e+01
4.879150e+02	-3.217223e+01
4.907332e+02	-3.222860e+01
4.935676e+02	-3.227780e+01
4.964185e+02	-3.232922e+01
4.992858e+02	-3.237278e+01
5.021696e+02	-3.242419e+01
5.050701e+02	-3.247439e+01
5.079874e+02	-3.253038e+01
5.109215e+02	-3.258124e+01
5.138726e+02	-3.262507e+01
5.168407e+02	-3.267619e+01
5.198259e+02	-3.273284e+01
5.228284e+02	-3.277945e+01
5.258482e+02	-3.283260e+01
5.288855e+02	-3.287446e+01
5.319403e+02	-3.292779e+01
5.350128e+02	-3.298472e+01
5.381030e+02	-3.303348e+01
5.412111e+02	-3.308094e+01
5.443371e+02	-3.312690e+01
5.474812e+02	-3.318598e+01
5.506434e+02	-3.323412e+01
5.538239e+02	-3.328401e+01
5.570228e+02	-3.332760e+01
5.602401e+02	-3.339164e+01
5.634760e+02	-3.343325e+01
5.667306e+02	-3.347885e+01
5.700040e+02	-3.354055e+01
5.732964e+02	-3.358403e+01
5.766077e+02	-3.363942e+01
5.799382e+02	-3.368312e+01
5.832879e+02	-3.373879e+01
5.866569e+02	-3.378935e+01
5.900454e+02	-3.383741e+01
5.934535e+02	-3.388277e+01
5.968813e+02	-3.392663e+01
6.003288e+02	-3.398957e+01
6.037963e+02	-3.404099e+01
6.072838e+02	-3.407859e+01
6.107914e+02	-3.413818e+01
6.143194e+02	-3.419273e+01
6.178676e+02	-3.423543e+01
6.214364e+02	-3.428703e+01
6.250258e+02	-3.434247e+01
6.286359e+02	-3.438815e+01
6.322669e+02	-3.443793e+01
6.359189e+02	-3.449794e+01
6.395919e+02	-3.454947e+01
6.432862e+02	-3.458958e+01
6.470017e+02	-3.463508e+01
6.507388e+02	-3.468838e+01
6.544974e+02	-3.474199e+01
6.582778e+02	-3.479500e+01
6.620800e+02	-3.483852e+01
6.659041e+02	-3.489229e+01
6.697504e+02	-3.494152e+01
6.736188e+02	-3.499730e+01
6.775096e+02	-3.504030e+01
6.814229e+02	-3.508497e+01
6.853587e+02	-3.515076e+01
6.893173e+02	-3.519037e+01
6.932988e+02	-3.524451e+01
6.973033e+02	-3.528852e+01
7.013309e+02	-3.534582e+01
