Frequency(Hz)	Magnitude(dB)
1.000000e+01	-2.094682e+00
1.005776e+01	-2.113863e+00
1.011585e+01	-2.133353e+00
1.017428e+01	-2.152789e+00
1.023305e+01	-2.172630e+00
1.029215e+01	-2.192092e+00
1.035160e+01	-2.212183e+00
1.041139e+01	-2.232039e+00
1.047153e+01	-2.252192e+00
1.053201e+01	-2.272566e+00
1.059284e+01	-2.293167e+00
1.065403e+01	-2.313632e+00
1.071556e+01	-2.334356e+00
1.077746e+01	-2.355296e+00
1.083971e+01	-2.376272e+00
1.090232e+01	-2.397504e+00
1.096529e+01	-2.418670e+00
1.102862e+01	-2.440073e+00
1.109232e+01	-2.461814e+00
1.115639e+01	-2.483509e+00
1.122083e+01	-2.505080e+00
1.128564e+01	-2.527144e+00
1.135083e+01	-2.549667e+00
1.141639e+01	-2.571694e+00
1.148233e+01	-2.594176e+00
1.154865e+01	-2.616680e+00
1.161536e+01	-2.639587e+00
1.168245e+01	-2.662157e+00
1.174992e+01	-2.685157e+00
1.181779e+01	-2.708380e+00
1.188605e+01	-2.731731e+00
1.195470e+01	-2.755050e+00
1.202375e+01	-2.778724e+00
1.209320e+01	-2.802503e+00
1.216305e+01	-2.826166e+00
1.223330e+01	-2.850318e+00
1.230396e+01	-2.874276e+00
1.237503e+01	-2.898678e+00
1.244651e+01	-2.923112e+00
1.251840e+01	-2.947699e+00
1.259070e+01	-2.972590e+00
1.266343e+01	-2.997181e+00
1.273657e+01	-3.022108e+00
1.281014e+01	-3.047355e+00
1.288413e+01	-3.072706e+00
1.295855e+01	-3.098127e+00
1.303339e+01	-3.123797e+00
1.310867e+01	-3.149438e+00
1.318439e+01	-3.175289e+00
1.326054e+01	-3.201141e+00
1.333713e+01	-3.227226e+00
1.341417e+01	-3.254012e+00
1.349165e+01	-3.280245e+00
1.356958e+01	-3.306929e+00
1.364795e+01	-3.333624e+00
1.372678e+01	-3.360681e+00
1.380607e+01	-3.387597e+00
1.388581e+01	-3.414755e+00
1.396602e+01	-3.441911e+00
1.404668e+01	-3.469403e+00
1.412782e+01	-3.496941e+00
1.420942e+01	-3.524988e+00
1.429149e+01	-3.552416e+00
1.437404e+01	-3.580820e+00
1.445706e+01	-3.609136e+00
1.454057e+01	-3.636958e+00
1.462455e+01	-3.665526e+00
1.470902e+01	-3.694267e+00
1.479398e+01	-3.722857e+00
1.487943e+01	-3.751483e+00
1.496537e+01	-3.780680e+00
1.505181e+01	-3.809678e+00
1.513875e+01	-3.839240e+00
1.522619e+01	-3.868523e+00
1.531414e+01	-3.898279e+00
1.540259e+01	-3.927845e+00
1.549156e+01	-3.957532e+00
1.558103e+01	-3.987616e+00
1.567103e+01	-4.017530e+00
1.576155e+01	-4.048085e+00
1.585258e+01	-4.078756e+00
1.594415e+01	-4.109049e+00
1.603624e+01	-4.139795e+00
1.612886e+01	-4.170369e+00
1.622202e+01	-4.201530e+00
1.631572e+01	-4.232791e+00
1.640996e+01	-4.263757e+00
1.650474e+01	-4.295334e+00
1.660008e+01	-4.326605e+00
1.669596e+01	-4.358148e+00
1.679239e+01	-4.390073e+00
1.688938e+01	-4.421830e+00
1.698694e+01	-4.453856e+00
1.708505e+01	-4.486103e+00
1.718373e+01	-4.518215e+00
1.728299e+01	-4.550725e+00
1.738281e+01	-4.583189e+00
1.748322e+01	-4.615939e+00
1.758420e+01	-4.648860e+00
1.768576e+01	-4.681731e+00
1.778792e+01	-4.714655e+00
1.789066e+01	-4.747850e+00
1.799399e+01	-4.781301e+00
1.809793e+01	-4.814826e+00
1.820246e+01	-4.848279e+00
1.830760e+01	-4.882419e+00
1.841334e+01	-4.916025e+00
1.851969e+01	-4.949863e+00
1.862666e+01	-4.984020e+00
1.873425e+01	-5.018099e+00
1.884246e+01	-5.052281e+00
1.895129e+01	-5.086955e+00
1.906075e+01	-5.121459e+00
1.917085e+01	-5.156155e+00
1.928158e+01	-5.190978e+00
1.939295e+01	-5.225876e+00
1.950496e+01	-5.260910e+00
1.961762e+01	-5.295818e+00
1.973093e+01	-5.331657e+00
1.984490e+01	-5.366908e+00
1.995952e+01	-5.402499e+00
2.007480e+01	-5.437995e+00
2.019076e+01	-5.473720e+00
2.030738e+01	-5.509904e+00
2.042467e+01	-5.546133e+00
2.054264e+01	-5.581950e+00
2.066130e+01	-5.618177e+00
2.078064e+01	-5.654557e+00
2.090066e+01	-5.691210e+00
2.102139e+01	-5.727602e+00
2.114280e+01	-5.764498e+00
2.126492e+01	-5.801179e+00
2.138775e+01	-5.838094e+00
2.151128e+01	-5.875139e+00
2.163553e+01	-5.912513e+00
2.176050e+01	-5.949581e+00
2.188619e+01	-5.987089e+00
2.201260e+01	-6.024403e+00
2.213974e+01	-6.061830e+00
2.226762e+01	-6.099538e+00
2.239624e+01	-6.137732e+00
2.252560e+01	-6.175291e+00
2.265571e+01	-6.213320e+00
2.278656e+01	-6.251684e+00
2.291818e+01	-6.290084e+00
2.305055e+01	-6.328164e+00
2.318369e+01	-6.366415e+00
2.331760e+01	-6.404924e+00
2.345228e+01	-6.443745e+00
2.358774e+01	-6.482390e+00
2.372398e+01	-6.521315e+00
2.386101e+01	-6.560411e+00
2.399883e+01	-6.599360e+00
2.413745e+01	-6.638444e+00
2.427686e+01	-6.677668e+00
2.441709e+01	-6.716883e+00
2.455812e+01	-6.756219e+00
2.469997e+01	-6.795751e+00
2.484263e+01	-6.835238e+00
2.498612e+01	-6.874871e+00
2.513044e+01	-6.914949e+00
2.527559e+01	-6.954719e+00
2.542158e+01	-6.994643e+00
2.556842e+01	-7.034927e+00
2.571610e+01	-7.075170e+00
2.586463e+01	-7.115432e+00
2.601403e+01	-7.155477e+00
2.616428e+01	-7.196412e+00
2.631541e+01	-7.236668e+00
2.646740e+01	-7.276795e+00
2.662028e+01	-7.317840e+00
2.677404e+01	-7.358285e+00
2.692868e+01	-7.399708e+00
2.708422e+01	-7.440697e+00
2.724066e+01	-7.482026e+00
2.739800e+01	-7.522985e+00
2.755625e+01	-7.563583e+00
2.771541e+01	-7.605231e+00
2.787550e+01	-7.646414e+00
2.803650e+01	-7.688103e+00
2.819844e+01	-7.729692e+00
2.836131e+01	-7.771093e+00
2.852513e+01	-7.813022e+00
2.868989e+01	-7.854677e+00
2.885560e+01	-7.896685e+00
2.902227e+01	-7.938613e+00
2.918990e+01	-7.980296e+00
2.935850e+01	-8.022508e+00
2.952807e+01	-8.064972e+00
2.969863e+01	-8.107228e+00
2.987016e+01	-8.149818e+00
3.004269e+01	-8.192096e+00
3.021622e+01	-8.234418e+00
3.039075e+01	-8.276988e+00
3.056628e+01	-8.319798e+00
3.074283e+01	-8.362084e+00
3.092040e+01	-8.404973e+00
3.109900e+01	-8.447788e+00
3.127862e+01	-8.490806e+00
3.145929e+01	-8.533910e+00
3.164099e+01	-8.576788e+00
3.182375e+01	-8.619898e+00
3.200756e+01	-8.663280e+00
3.219244e+01	-8.706245e+00
3.237838e+01	-8.749927e+00
3.256540e+01	-8.793086e+00
3.275349e+01	-8.835936e+00
3.294268e+01	-8.879955e+00
3.313295e+01	-8.923418e+00
3.332433e+01	-8.967226e+00
3.351681e+01	-9.011046e+00
3.371040e+01	-9.054825e+00
3.390511e+01	-9.098606e+00
3.410094e+01	-9.143152e+00
3.429791e+01	-9.186012e+00
3.449601e+01	-9.230107e+00
3.469526e+01	-9.274797e+00
3.489566e+01	-9.318772e+00
3.509721e+01	-9.362429e+00
3.529993e+01	-9.406800e+00
3.550382e+01	-9.451927e+00
3.570889e+01	-9.495624e+00
3.591515e+01	-9.540163e+00
3.612259e+01	-9.584711e+00
3.633123e+01	-9.629415e+00
3.654108e+01	-9.673314e+00
3.675214e+01	-9.718701e+00
3.696442e+01	-9.763272e+00
3.717792e+01	-9.808093e+00
3.739266e+01	-9.853266e+00
3.760864e+01	-9.897941e+00
3.782587e+01	-9.942740e+00
3.804435e+01	-9.988202e+00
3.826409e+01	-1.003302e+01
3.848510e+01	-1.007779e+01
3.870739e+01	-1.012313e+01
3.893096e+01	-1.016792e+01
3.915583e+01	-1.021325e+01
3.938199e+01	-1.025883e+01
3.960946e+01	-1.030406e+01
3.983824e+01	-1.034918e+01
4.006834e+01	-1.039479e+01
4.029978e+01	-1.044035e+01
4.053255e+01	-1.048612e+01
4.076666e+01	-1.053165e+01
4.100213e+01	-1.057733e+01
4.123896e+01	-1.062193e+01
4.147715e+01	-1.066831e+01
4.171672e+01	-1.071424e+01
4.195767e+01	-1.076007e+01
4.220002e+01	-1.080610e+01
4.244377e+01	-1.085177e+01
4.268892e+01	-1.089763e+01
4.293549e+01	-1.094321e+01
4.318348e+01	-1.098996e+01
4.343291e+01	-1.103540e+01
4.368377e+01	-1.108229e+01
4.393609e+01	-1.112835e+01
4.418986e+01	-1.117376e+01
4.444510e+01	-1.122057e+01
4.470182e+01	-1.126622e+01
4.496001e+01	-1.131304e+01
4.521970e+01	-1.135992e+01
4.548089e+01	-1.140571e+01
4.574358e+01	-1.145205e+01
4.600779e+01	-1.149862e+01
4.627353e+01	-1.154529e+01
4.654081e+01	-1.159195e+01
4.680963e+01	-1.163789e+01
4.708000e+01	-1.168506e+01
4.735193e+01	-1.173120e+01
4.762543e+01	-1.177793e+01
4.790051e+01	-1.182426e+01
4.817719e+01	-1.187173e+01
4.845545e+01	-1.191845e+01
4.873533e+01	-1.196490e+01
4.901682e+01	-1.201267e+01
4.929994e+01	-1.205886e+01
4.958470e+01	-1.210559e+01
4.987110e+01	-1.215312e+01
5.015915e+01	-1.219909e+01
5.044887e+01	-1.224699e+01
5.074026e+01	-1.229422e+01
5.103333e+01	-1.234128e+01
5.132810e+01	-1.238797e+01
5.162457e+01	-1.243576e+01
5.192275e+01	-1.248247e+01
5.222265e+01	-1.252939e+01
5.252429e+01	-1.257735e+01
5.282767e+01	-1.262507e+01
5.313280e+01	-1.267158e+01
5.343969e+01	-1.271901e+01
5.374836e+01	-1.276572e+01
5.405880e+01	-1.281409e+01
5.437105e+01	-1.286101e+01
5.468509e+01	-1.290844e+01
5.500095e+01	-1.295566e+01
5.531863e+01	-1.300379e+01
5.563815e+01	-1.305131e+01
5.595951e+01	-1.309872e+01
5.628273e+01	-1.314624e+01
5.660782e+01	-1.319342e+01
5.693479e+01	-1.324143e+01
5.726364e+01	-1.328838e+01
5.759439e+01	-1.333747e+01
5.792705e+01	-1.338442e+01
5.826164e+01	-1.343213e+01
5.859815e+01	-1.348067e+01
5.893662e+01	-1.352763e+01
5.927703e+01	-1.357625e+01
5.961941e+01	-1.362315e+01
5.996377e+01	-1.367171e+01
6.031012e+01	-1.371949e+01
6.065847e+01	-1.376766e+01
6.100883e+01	-1.381452e+01
6.136121e+01	-1.386335e+01
6.171563e+01	-1.391145e+01
6.207210e+01	-1.395870e+01
6.243063e+01	-1.400729e+01
6.279122e+01	-1.405504e+01
6.315390e+01	-1.410324e+01
6.351868e+01	-1.415184e+01
6.388556e+01	-1.419900e+01
6.425456e+01	-1.424774e+01
6.462569e+01	-1.429517e+01
6.499897e+01	-1.434363e+01
6.537440e+01	-1.439191e+01
6.575200e+01	-1.444035e+01
6.613178e+01	-1.448855e+01
6.651375e+01	-1.453691e+01
6.689793e+01	-1.458463e+01
6.728433e+01	-1.463254e+01
6.767297e+01	-1.468172e+01
6.806384e+01	-1.472992e+01
6.845698e+01	-1.477855e+01
6.885238e+01	-1.482726e+01
6.925007e+01	-1.487505e+01
6.965005e+01	-1.492438e+01
7.005235e+01	-1.497268e+01
7.045697e+01	-1.502036e+01
7.086393e+01	-1.506940e+01
7.127323e+01	-1.511721e+01
7.168490e+01	-1.516541e+01
7.209895e+01	-1.521481e+01
7.251539e+01	-1.526349e+01
7.293424e+01	-1.531154e+01
7.335551e+01	-1.536000e+01
7.377920e+01	-1.540829e+01
7.420535e+01	-1.545843e+01
7.463396e+01	-1.550668e+01
7.506504e+01	-1.555384e+01
7.549861e+01	-1.560235e+01
7.593469e+01	-1.565235e+01
7.637328e+01	-1.570064e+01
7.681441e+01	-1.574809e+01
7.725809e+01	-1.579742e+01
7.770433e+01	-1.584666e+01
7.815315e+01	-1.589494e+01
7.860456e+01	-1.594448e+01
7.905857e+01	-1.599278e+01
7.951521e+01	-1.604205e+01
7.997449e+01	-1.608985e+01
8.043642e+01	-1.613920e+01
8.090102e+01	-1.618856e+01
8.136830e+01	-1.623812e+01
8.183828e+01	-1.628603e+01
8.231097e+01	-1.633535e+01
8.278640e+01	-1.638385e+01
8.326457e+01	-1.643225e+01
8.374550e+01	-1.648051e+01
8.422921e+01	-1.653030e+01
8.471572e+01	-1.657879e+01
8.520503e+01	-1.662840e+01
8.569717e+01	-1.667650e+01
8.619215e+01	-1.672519e+01
8.669000e+01	-1.677533e+01
8.719071e+01	-1.682335e+01
8.769432e+01	-1.687273e+01
8.820084e+01	-1.692230e+01
8.871029e+01	-1.697107e+01
8.922267e+01	-1.702034e+01
8.973802e+01	-1.706829e+01
9.025634e+01	-1.711670e+01
9.077766e+01	-1.716626e+01
9.130199e+01	-1.721613e+01
9.182935e+01	-1.726578e+01
9.235975e+01	-1.731449e+01
9.289321e+01	-1.736203e+01
9.342976e+01	-1.741194e+01
9.396941e+01	-1.746122e+01
9.451217e+01	-1.751079e+01
9.505807e+01	-1.755864e+01
9.560712e+01	-1.760874e+01
9.615934e+01	-1.765874e+01
9.671476e+01	-1.770691e+01
9.727338e+01	-1.775600e+01
9.783522e+01	-1.780458e+01
9.840032e+01	-1.785582e+01
9.896867e+01	-1.790513e+01
9.954031e+01	-1.795256e+01
1.001153e+02	-1.800132e+01
1.006935e+02	-1.805143e+01
1.012751e+02	-1.810079e+01
1.018601e+02	-1.815059e+01
1.024484e+02	-1.819984e+01
1.030402e+02	-1.824880e+01
1.036353e+02	-1.829836e+01
1.042339e+02	-1.834628e+01
1.048360e+02	-1.839662e+01
1.054415e+02	-1.844658e+01
1.060505e+02	-1.849537e+01
1.066631e+02	-1.854543e+01
1.072791e+02	-1.859560e+01
1.078988e+02	-1.864464e+01
1.085220e+02	-1.869314e+01
1.091488e+02	-1.874241e+01
1.097793e+02	-1.879207e+01
1.104133e+02	-1.884009e+01
1.110511e+02	-1.889054e+01
1.116925e+02	-1.893960e+01
1.123376e+02	-1.898786e+01
1.129865e+02	-1.903939e+01
1.136391e+02	-1.908935e+01
1.142955e+02	-1.913823e+01
1.149556e+02	-1.918705e+01
1.156196e+02	-1.923683e+01
1.162874e+02	-1.928687e+01
1.169591e+02	-1.933545e+01
1.176347e+02	-1.938355e+01
1.183141e+02	-1.943507e+01
1.189975e+02	-1.948284e+01
1.196848e+02	-1.953317e+01
1.203761e+02	-1.958244e+01
1.210714e+02	-1.963287e+01
1.217707e+02	-1.968340e+01
1.224740e+02	-1.973296e+01
1.231814e+02	-1.978025e+01
1.238929e+02	-1.982937e+01
1.246085e+02	-1.988014e+01
1.253283e+02	-1.992937e+01
1.260522e+02	-1.997795e+01
1.267802e+02	-2.002730e+01
1.275125e+02	-2.007757e+01
1.282490e+02	-2.012855e+01
1.289898e+02	-2.017605e+01
1.297348e+02	-2.022478e+01
1.304842e+02	-2.027774e+01
1.312378e+02	-2.032663e+01
1.319959e+02	-2.037516e+01
1.327583e+02	-2.042562e+01
1.335251e+02	-2.047291e+01
1.342963e+02	-2.052418e+01
1.350720e+02	-2.057340e+01
1.358522e+02	-2.062269e+01
1.366368e+02	-2.067387e+01
1.374260e+02	-2.072197e+01
1.382198e+02	-2.077072e+01
1.390182e+02	-2.082114e+01
1.398211e+02	-2.086998e+01
1.406287e+02	-2.091986e+01
1.414410e+02	-2.096863e+01
1.422579e+02	-2.101770e+01
1.430796e+02	-2.107163e+01
1.439060e+02	-2.111897e+01
1.447372e+02	-2.116918e+01
1.455732e+02	-2.121891e+01
1.464141e+02	-2.126893e+01
1.472597e+02	-2.131959e+01
1.481103e+02	-2.136729e+01
1.489658e+02	-2.141781e+01
1.498262e+02	-2.146757e+01
1.506916e+02	-2.151837e+01
1.515620e+02	-2.156695e+01
1.524374e+02	-2.161754e+01
1.533179e+02	-2.166622e+01
1.542034e+02	-2.171381e+01
1.550941e+02	-2.176380e+01
1.559899e+02	-2.181401e+01
1.568909e+02	-2.186649e+01
1.577971e+02	-2.191541e+01
1.587085e+02	-2.196301e+01
1.596252e+02	-2.201404e+01
1.605472e+02	-2.206569e+01
1.614745e+02	-2.211255e+01
1.624072e+02	-2.216281e+01
1.633453e+02	-2.221384e+01
1.642887e+02	-2.226250e+01
1.652377e+02	-2.231332e+01
1.661921e+02	-2.236356e+01
1.671520e+02	-2.241286e+01
1.681175e+02	-2.246075e+01
1.690885e+02	-2.251308e+01
1.700651e+02	-2.256206e+01
1.710474e+02	-2.261125e+01
1.720354e+02	-2.266362e+01
1.730291e+02	-2.270947e+01
1.740285e+02	-2.276153e+01
1.750337e+02	-2.280981e+01
1.760446e+02	-2.285816e+01
1.770615e+02	-2.291015e+01
1.780842e+02	-2.295781e+01
1.791128e+02	-2.300813e+01
1.801473e+02	-2.306092e+01
1.811878e+02	-2.310859e+01
1.822344e+02	-2.316028e+01
1.832870e+02	-2.320932e+01
1.843456e+02	-2.325893e+01
1.854104e+02	-2.330844e+01
1.864813e+02	-2.335728e+01
1.875584e+02	-2.340824e+01
1.886418e+02	-2.345832e+01
1.897313e+02	-2.350614e+01
1.908272e+02	-2.355956e+01
1.919294e+02	-2.360911e+01
1.930380e+02	-2.365716e+01
1.941530e+02	-2.370444e+01
1.952744e+02	-2.375762e+01
1.964023e+02	-2.380843e+01
1.975367e+02	-2.385669e+01
1.986777e+02	-2.390631e+01
1.998252e+02	-2.395716e+01
2.009794e+02	-2.400729e+01
2.021403e+02	-2.405573e+01
2.033078e+02	-2.410508e+01
2.044821e+02	-2.415383e+01
2.056632e+02	-2.420485e+01
2.068511e+02	-2.425438e+01
2.080459e+02	-2.430525e+01
2.092475e+02	-2.435426e+01
2.104561e+02	-2.440734e+01
2.116717e+02	-2.445597e+01
2.128943e+02	-2.450564e+01
2.141240e+02	-2.455542e+01
2.153608e+02	-2.460389e+01
2.166047e+02	-2.465602e+01
2.178558e+02	-2.470506e+01
2.191141e+02	-2.475755e+01
2.203797e+02	-2.480515e+01
2.216526e+02	-2.485254e+01
2.229329e+02	-2.490666e+01
2.242205e+02	-2.495423e+01
2.255156e+02	-2.500480e+01
2.268182e+02	-2.505750e+01
2.281283e+02	-2.510097e+01
2.294459e+02	-2.515225e+01
2.307712e+02	-2.520225e+01
2.321041e+02	-2.525261e+01
2.334447e+02	-2.530265e+01
2.347931e+02	-2.535379e+01
2.361493e+02	-2.540432e+01
2.375133e+02	-2.545422e+01
2.388851e+02	-2.550140e+01
2.402649e+02	-2.555342e+01
2.416527e+02	-2.560159e+01
2.430484e+02	-2.565302e+01
2.444523e+02	-2.570412e+01
2.458642e+02	-2.575330e+01
2.472843e+02	-2.580274e+01
2.487126e+02	-2.585094e+01
2.501492e+02	-2.590411e+01
2.515940e+02	-2.595124e+01
2.530472e+02	-2.600012e+01
2.545088e+02	-2.605183e+01
2.559789e+02	-2.610326e+01
2.574574e+02	-2.615283e+01
2.589444e+02	-2.620213e+01
2.604401e+02	-2.625249e+01
2.619444e+02	-2.630266e+01
2.634574e+02	-2.635154e+01
2.649791e+02	-2.640379e+01
2.665096e+02	-2.644890e+01
2.680489e+02	-2.649776e+01
2.695972e+02	-2.654821e+01
2.711544e+02	-2.660326e+01
2.727205e+02	-2.664985e+01
2.742958e+02	-2.670171e+01
2.758801e+02	-2.675279e+01
2.774736e+02	-2.680286e+01
2.790762e+02	-2.685052e+01
2.806882e+02	-2.690122e+01
2.823094e+02	-2.695229e+01
2.839400e+02	-2.700432e+01
2.855800e+02	-2.704897e+01
2.872295e+02	-2.709922e+01
2.888886e+02	-2.715227e+01
2.905572e+02	-2.719946e+01
2.922354e+02	-2.724957e+01
2.939234e+02	-2.730287e+01
2.956211e+02	-2.735177e+01
2.973286e+02	-2.739584e+01
2.990459e+02	-2.745340e+01
3.007732e+02	-2.749983e+01
3.025104e+02	-2.755309e+01
3.042577e+02	-2.759947e+01
3.060151e+02	-2.765229e+01
3.077826e+02	-2.770021e+01
3.095604e+02	-2.775433e+01
3.113484e+02	-2.780021e+01
3.131467e+02	-2.785216e+01
3.149554e+02	-2.790094e+01
3.167746e+02	-2.794792e+01
3.186043e+02	-2.800080e+01
3.204445e+02	-2.805337e+01
3.222954e+02	-2.810185e+01
3.241570e+02	-2.814997e+01
3.260293e+02	-2.820096e+01
3.279124e+02	-2.825082e+01
3.298064e+02	-2.829980e+01
3.317114e+02	-2.835101e+01
3.336273e+02	-2.840164e+01
3.355544e+02	-2.845170e+01
3.374925e+02	-2.850327e+01
3.394418e+02	-2.855480e+01
3.414024e+02	-2.860469e+01
3.433744e+02	-2.865039e+01
3.453577e+02	-2.870243e+01
3.473525e+02	-2.874983e+01
3.493588e+02	-2.880472e+01
3.513766e+02	-2.885211e+01
3.534062e+02	-2.890030e+01
3.554474e+02	-2.895405e+01
3.575005e+02	-2.900190e+01
3.595654e+02	-2.904809e+01
3.616422e+02	-2.909980e+01
3.637311e+02	-2.915273e+01
3.658320e+02	-2.920798e+01
3.679450e+02	-2.925411e+01
3.700702e+02	-2.930288e+01
3.722077e+02	-2.935558e+01
3.743576e+02	-2.940453e+01
3.765199e+02	-2.945444e+01
3.786946e+02	-2.950411e+01
3.808820e+02	-2.955266e+01
3.830819e+02	-2.960623e+01
3.852946e+02	-2.965605e+01
3.875200e+02	-2.970395e+01
3.897583e+02	-2.975218e+01
3.920096e+02	-2.980397e+01
3.942738e+02	-2.985547e+01
3.965511e+02	-2.990420e+01
3.988416e+02	-2.995514e+01
4.011452e+02	-3.000312e+01
4.034622e+02	-3.005250e+01
4.057926e+02	-3.010826e+01
4.081365e+02	-3.015778e+01
4.104938e+02	-3.020674e+01
4.128648e+02	-3.025208e+01
4.152495e+02	-3.030346e+01
4.176480e+02	-3.035713e+01
4.200603e+02	-3.040239e+01
4.224866e+02	-3.045694e+01
4.249268e+02	-3.050463e+01
4.273812e+02	-3.055280e+01
4.298497e+02	-3.060907e+01
4.323325e+02	-3.065137e+01
4.348297e+02	-3.070588e+01
4.373412e+02	-3.075906e+01
4.398673e+02	-3.080502e+01
4.424079e+02	-3.085681e+01
4.449633e+02	-3.090947e+01
4.475334e+02	-3.096263e+01
4.501183e+02	-3.100292e+01
4.527182e+02	-3.106041e+01
4.553330e+02	-3.110523e+01
4.579630e+02	-3.115387e+01
4.606082e+02	-3.120259e+01
4.632687e+02	-3.125514e+01
4.659445e+02	-3.130394e+01
4.686358e+02	-3.135526e+01
4.713426e+02	-3.141098e+01
4.740650e+02	-3.145642e+01
4.768032e+02	-3.151091e+01
4.795572e+02	-3.156082e+01
4.823271e+02	-3.161031e+01
4.851130e+02	-3.166978e+01
4.879150e+02	-3.170913e+01
4.907332e+02	-3.176488e+01
4.935676e+02	-3.180864e+01
4.964185e+02	-3.185746e+01
4.992858e+02	-3.191175e+01
5.021696e+02	-3.196333e+01
5.050701e+02	-3.200825e+01
5.079874e+02	-3.206188e+01
5.109215e+02	-3.210851e+01
5.138726e+02	-3.216137e+01
5.168407e+02	-3.221108e+01
5.198259e+02	-3.226072e+01
5.228284e+02	-3.231077e+01
5.258482e+02	-3.236291e+01
5.288855e+02	-3.241298e+01
5.319403e+02	-3.246166e+01
5.350128e+02	-3.251044e+01
5.381030e+02	-3.256040e+01
5.412111e+02	-3.260779e+01
5.443371e+02	-3.266230e+01
5.474812e+02	-3.271344e+01
5.506434e+02	-3.276535e+01
5.538239e+02	-3.280948e+01
5.570228e+02	-3.286885e+01
5.602401e+02	-3.291549e+01
5.634760e+02	-3.296429e+01
5.667306e+02	-3.301038e+01
5.700040e+02	-3.306003e+01
5.732964e+02	-3.311967e+01
5.766077e+02	-3.316613e+01
5.799382e+02	-3.322154e+01
5.832879e+02	-3.327116e+01
5.866569e+02	-3.331258e+01
5.900454e+02	-3.336534e+01
5.934535e+02	-3.342004e+01
5.968813e+02	-3.346418e+01
6.003288e+02	-3.351896e+01
6.037963e+02	-3.356987e+01
6.072838e+02	-3.362372e+01
6.107914e+02	-3.366149e+01
6.143194e+02	-3.372138e+01
6.178676e+02	-3.376729e+01
6.214364e+02	-3.381524e+01
6.250258e+02	-3.387382e+01
6.286359e+02	-3.391922e+01
6.322669e+02	-3.397512e+01
6.359189e+02	-3.401761e+01
6.395919e+02	-3.406497e+01
6.432862e+02	-3.411952e+01
6.470017e+02	-3.416715e+01
6.507388e+02	-3.422065e+01
6.544974e+02	-3.426987e+01
6.582778e+02	-3.432112e+01
6.620800e+02	-3.437856e+01
6.659041e+02	-3.443094e+01
6.697504e+02	-3.446436e+01
6.736188e+02	-3.452545e+01
6.775096e+02	-3.457768e+01
6.814229e+02	-3.462116e+01
6.853587e+02	-3.468166e+01
6.893173e+02	-3.472097e+01
6.932988e+02	-3.476672e+01
6.973033e+02	-3.482431e+01
7.013309e+02	-3.487051e+01
