Frequency(Hz)	Magnitude(dB)
1.000000e+01	-2.252141e+00
1.005776e+01	-2.272622e+00
1.011585e+01	-2.292927e+00
1.017428e+01	-2.313465e+00
1.023305e+01	-2.334313e+00
1.029215e+01	-2.355382e+00
1.035160e+01	-2.376096e+00
1.041139e+01	-2.397285e+00
1.047153e+01	-2.418752e+00
1.053201e+01	-2.440005e+00
1.059284e+01	-2.461784e+00
1.065403e+01	-2.483320e+00
1.071556e+01	-2.505297e+00
1.077746e+01	-2.527188e+00
1.083971e+01	-2.549507e+00
1.090232e+01	-2.571682e+00
1.096529e+01	-2.594308e+00
1.102862e+01	-2.616769e+00
1.109232e+01	-2.639444e+00
1.115639e+01	-2.662043e+00
1.122083e+01	-2.685416e+00
1.128564e+01	-2.708637e+00
1.135083e+01	-2.731636e+00
1.141639e+01	-2.755179e+00
1.148233e+01	-2.778862e+00
1.154865e+01	-2.802703e+00
1.161536e+01	-2.826324e+00
1.168245e+01	-2.850580e+00
1.174992e+01	-2.874389e+00
1.181779e+01	-2.898653e+00
1.188605e+01	-2.923102e+00
1.195470e+01	-2.947488e+00
1.202375e+01	-2.972477e+00
1.209320e+01	-2.997232e+00
1.216305e+01	-3.022254e+00
1.223330e+01	-3.047330e+00
1.230396e+01	-3.072562e+00
1.237503e+01	-3.098108e+00
1.244651e+01	-3.123677e+00
1.251840e+01	-3.149451e+00
1.259070e+01	-3.175211e+00
1.266343e+01	-3.201422e+00
1.273657e+01	-3.227764e+00
1.281014e+01	-3.253800e+00
1.288413e+01	-3.280233e+00
1.295855e+01	-3.307140e+00
1.303339e+01	-3.333500e+00
1.310867e+01	-3.360591e+00
1.318439e+01	-3.387363e+00
1.326054e+01	-3.414903e+00
1.333713e+01	-3.441917e+00
1.341417e+01	-3.469525e+00
1.349165e+01	-3.496935e+00
1.356958e+01	-3.524712e+00
1.364795e+01	-3.552841e+00
1.372678e+01	-3.580687e+00
1.380607e+01	-3.608963e+00
1.388581e+01	-3.637186e+00
1.396602e+01	-3.665736e+00
1.404668e+01	-3.694264e+00
1.412782e+01	-3.722666e+00
1.420942e+01	-3.751866e+00
1.429149e+01	-3.780799e+00
1.437404e+01	-3.809940e+00
1.445706e+01	-3.839510e+00
1.454057e+01	-3.868627e+00
1.462455e+01	-3.898089e+00
1.470902e+01	-3.928014e+00
1.479398e+01	-3.957838e+00
1.487943e+01	-3.987789e+00
1.496537e+01	-4.017680e+00
1.505181e+01	-4.048208e+00
1.513875e+01	-4.078656e+00
1.522619e+01	-4.109038e+00
1.531414e+01	-4.139769e+00
1.540259e+01	-4.170582e+00
1.549156e+01	-4.201581e+00
1.558103e+01	-4.232315e+00
1.567103e+01	-4.263866e+00
1.576155e+01	-4.295141e+00
1.585258e+01	-4.326830e+00
1.594415e+01	-4.358296e+00
1.603624e+01	-4.390039e+00
1.612886e+01	-4.421912e+00
1.622202e+01	-4.453830e+00
1.631572e+01	-4.485958e+00
1.640996e+01	-4.518484e+00
1.650474e+01	-4.550789e+00
1.660008e+01	-4.583372e+00
1.669596e+01	-4.615817e+00
1.679239e+01	-4.648845e+00
1.688938e+01	-4.681958e+00
1.698694e+01	-4.714609e+00
1.708505e+01	-4.748122e+00
1.718373e+01	-4.781315e+00
1.728299e+01	-4.814813e+00
1.738281e+01	-4.848437e+00
1.748322e+01	-4.881883e+00
1.758420e+01	-4.915753e+00
1.768576e+01	-4.949660e+00
1.778792e+01	-4.984209e+00
1.789066e+01	-5.018228e+00
1.799399e+01	-5.052784e+00
1.809793e+01	-5.086818e+00
1.820246e+01	-5.121516e+00
1.830760e+01	-5.156097e+00
1.841334e+01	-5.191152e+00
1.851969e+01	-5.226219e+00
1.862666e+01	-5.261112e+00
1.873425e+01	-5.296235e+00
1.884246e+01	-5.331631e+00
1.895129e+01	-5.367068e+00
1.906075e+01	-5.402249e+00
1.917085e+01	-5.438098e+00
1.928158e+01	-5.474165e+00
1.939295e+01	-5.509651e+00
1.950496e+01	-5.545532e+00
1.961762e+01	-5.582203e+00
1.973093e+01	-5.618223e+00
1.984490e+01	-5.654946e+00
1.995952e+01	-5.691027e+00
2.007480e+01	-5.727678e+00
2.019076e+01	-5.764583e+00
2.030738e+01	-5.801384e+00
2.042467e+01	-5.838066e+00
2.054264e+01	-5.875328e+00
2.066130e+01	-5.912096e+00
2.078064e+01	-5.949723e+00
2.090066e+01	-5.987170e+00
2.102139e+01	-6.024688e+00
2.114280e+01	-6.061968e+00
2.126492e+01	-6.099880e+00
2.138775e+01	-6.137344e+00
2.151128e+01	-6.175375e+00
2.163553e+01	-6.213413e+00
2.176050e+01	-6.251458e+00
2.188619e+01	-6.289963e+00
2.201260e+01	-6.328063e+00
2.213974e+01	-6.366871e+00
2.226762e+01	-6.405183e+00
2.239624e+01	-6.443359e+00
2.252560e+01	-6.482562e+00
2.265571e+01	-6.521077e+00
2.278656e+01	-6.560038e+00
2.291818e+01	-6.598612e+00
2.305055e+01	-6.638323e+00
2.318369e+01	-6.677397e+00
2.331760e+01	-6.716927e+00
2.345228e+01	-6.756672e+00
2.358774e+01	-6.795867e+00
2.372398e+01	-6.835632e+00
2.386101e+01	-6.875163e+00
2.399883e+01	-6.915068e+00
2.413745e+01	-6.954547e+00
2.427686e+01	-6.995119e+00
2.441709e+01	-7.034754e+00
2.455812e+01	-7.075383e+00
2.469997e+01	-7.115122e+00
2.484263e+01	-7.155714e+00
2.498612e+01	-7.196095e+00
2.513044e+01	-7.236891e+00
2.527559e+01	-7.276976e+00
2.542158e+01	-7.318146e+00
2.556842e+01	-7.358672e+00
2.571610e+01	-7.399513e+00
2.586463e+01	-7.440607e+00
2.601403e+01	-7.481932e+00
2.616428e+01	-7.523003e+00
2.631541e+01	-7.563840e+00
2.646740e+01	-7.605384e+00
2.662028e+01	-7.646372e+00
2.677404e+01	-7.688345e+00
2.692868e+01	-7.729893e+00
2.708422e+01	-7.771100e+00
2.724066e+01	-7.813273e+00
2.739800e+01	-7.855108e+00
2.755625e+01	-7.896667e+00
2.771541e+01	-7.938357e+00
2.787550e+01	-7.980980e+00
2.803650e+01	-8.022789e+00
2.819844e+01	-8.065231e+00
2.836131e+01	-8.107310e+00
2.852513e+01	-8.149294e+00
2.868989e+01	-8.191847e+00
2.885560e+01	-8.234266e+00
2.902227e+01	-8.277116e+00
2.918990e+01	-8.319264e+00
2.935850e+01	-8.362462e+00
2.952807e+01	-8.404959e+00
2.969863e+01	-8.447903e+00
2.987016e+01	-8.490750e+00
3.004269e+01	-8.533925e+00
3.021622e+01	-8.577002e+00
3.039075e+01	-8.620026e+00
3.056628e+01	-8.663471e+00
3.074283e+01	-8.706621e+00
3.092040e+01	-8.749298e+00
3.109900e+01	-8.792847e+00
3.127862e+01	-8.836270e+00
3.145929e+01	-8.880041e+00
3.164099e+01	-8.923245e+00
3.182375e+01	-8.967242e+00
3.200756e+01	-9.011227e+00
3.219244e+01	-9.055018e+00
3.237838e+01	-9.098879e+00
3.256540e+01	-9.142671e+00
3.275349e+01	-9.186647e+00
3.294268e+01	-9.230798e+00
3.313295e+01	-9.274668e+00
3.332433e+01	-9.318267e+00
3.351681e+01	-9.362617e+00
3.371040e+01	-9.407018e+00
3.390511e+01	-9.451527e+00
3.410094e+01	-9.495776e+00
3.429791e+01	-9.540524e+00
3.449601e+01	-9.585048e+00
3.469526e+01	-9.629762e+00
3.489566e+01	-9.674042e+00
3.509721e+01	-9.718782e+00
3.529993e+01	-9.763433e+00
3.550382e+01	-9.807930e+00
3.570889e+01	-9.852742e+00
3.591515e+01	-9.897902e+00
3.612259e+01	-9.942173e+00
3.633123e+01	-9.987494e+00
3.654108e+01	-1.003236e+01
3.675214e+01	-1.007778e+01
3.696442e+01	-1.012344e+01
3.717792e+01	-1.016830e+01
3.739266e+01	-1.021363e+01
3.760864e+01	-1.025809e+01
3.782587e+01	-1.030394e+01
3.804435e+01	-1.034979e+01
3.826409e+01	-1.039491e+01
3.848510e+01	-1.044052e+01
3.870739e+01	-1.048599e+01
3.893096e+01	-1.053147e+01
3.915583e+01	-1.057714e+01
3.938199e+01	-1.062286e+01
3.960946e+01	-1.066854e+01
3.983824e+01	-1.071429e+01
4.006834e+01	-1.075981e+01
4.029978e+01	-1.080569e+01
4.053255e+01	-1.085190e+01
4.076666e+01	-1.089780e+01
4.100213e+01	-1.094451e+01
4.123896e+01	-1.098969e+01
4.147715e+01	-1.103565e+01
4.171672e+01	-1.108272e+01
4.195767e+01	-1.112857e+01
4.220002e+01	-1.117410e+01
4.244377e+01	-1.122061e+01
4.268892e+01	-1.126668e+01
4.293549e+01	-1.131303e+01
4.318348e+01	-1.135918e+01
4.343291e+01	-1.140574e+01
4.368377e+01	-1.145225e+01
4.393609e+01	-1.149815e+01
4.418986e+01	-1.154441e+01
4.444510e+01	-1.159219e+01
4.470182e+01	-1.163813e+01
4.496001e+01	-1.168508e+01
4.521970e+01	-1.173132e+01
4.548089e+01	-1.177849e+01
4.574358e+01	-1.182498e+01
4.600779e+01	-1.187224e+01
4.627353e+01	-1.191896e+01
4.654081e+01	-1.196530e+01
4.680963e+01	-1.201281e+01
4.708000e+01	-1.205938e+01
4.735193e+01	-1.210586e+01
4.762543e+01	-1.215268e+01
4.790051e+01	-1.219967e+01
4.817719e+01	-1.224687e+01
4.845545e+01	-1.229453e+01
4.873533e+01	-1.234085e+01
4.901682e+01	-1.238810e+01
4.929994e+01	-1.243564e+01
4.958470e+01	-1.248279e+01
4.987110e+01	-1.253055e+01
5.015915e+01	-1.257616e+01
5.044887e+01	-1.262412e+01
5.074026e+01	-1.267172e+01
5.103333e+01	-1.271889e+01
5.132810e+01	-1.276652e+01
5.162457e+01	-1.281356e+01
5.192275e+01	-1.286163e+01
5.222265e+01	-1.290994e+01
5.252429e+01	-1.295644e+01
5.282767e+01	-1.300391e+01
5.313280e+01	-1.305056e+01
5.343969e+01	-1.309877e+01
5.374836e+01	-1.314571e+01
5.405880e+01	-1.319397e+01
5.437105e+01	-1.324151e+01
5.468509e+01	-1.328891e+01
5.500095e+01	-1.333669e+01
5.531863e+01	-1.338495e+01
5.563815e+01	-1.343139e+01
5.595951e+01	-1.348028e+01
5.628273e+01	-1.352833e+01
5.660782e+01	-1.357561e+01
5.693479e+01	-1.362387e+01
5.726364e+01	-1.367124e+01
5.759439e+01	-1.371935e+01
5.792705e+01	-1.376683e+01
5.826164e+01	-1.381575e+01
5.859815e+01	-1.386411e+01
5.893662e+01	-1.391074e+01
5.927703e+01	-1.396037e+01
5.961941e+01	-1.400700e+01
5.996377e+01	-1.405602e+01
6.031012e+01	-1.410400e+01
6.065847e+01	-1.415199e+01
6.100883e+01	-1.419900e+01
6.136121e+01	-1.424802e+01
6.171563e+01	-1.429661e+01
6.207210e+01	-1.434444e+01
6.243063e+01	-1.439181e+01
6.279122e+01	-1.443946e+01
6.315390e+01	-1.448843e+01
6.351868e+01	-1.453735e+01
6.388556e+01	-1.458585e+01
6.425456e+01	-1.463384e+01
6.462569e+01	-1.468176e+01
6.499897e+01	-1.473032e+01
6.537440e+01	-1.477868e+01
6.575200e+01	-1.482710e+01
6.613178e+01	-1.487587e+01
6.651375e+01	-1.492420e+01
6.689793e+01	-1.497129e+01
6.728433e+01	-1.502098e+01
6.767297e+01	-1.506939e+01
6.806384e+01	-1.511783e+01
6.845698e+01	-1.516535e+01
6.885238e+01	-1.521430e+01
6.925007e+01	-1.526349e+01
6.965005e+01	-1.531154e+01
7.005235e+01	-1.536098e+01
7.045697e+01	-1.540924e+01
7.086393e+01	-1.545711e+01
7.127323e+01	-1.550600e+01
7.168490e+01	-1.555398e+01
7.209895e+01	-1.560381e+01
7.251539e+01	-1.565193e+01
7.293424e+01	-1.570045e+01
7.335551e+01	-1.574859e+01
7.377920e+01	-1.579855e+01
7.420535e+01	-1.584711e+01
7.463396e+01	-1.589513e+01
7.506504e+01	-1.594387e+01
7.549861e+01	-1.599359e+01
7.593469e+01	-1.604219e+01
7.637328e+01	-1.609004e+01
7.681441e+01	-1.613793e+01
7.725809e+01	-1.618730e+01
7.770433e+01	-1.623648e+01
7.815315e+01	-1.628656e+01
7.860456e+01	-1.633548e+01
7.905857e+01	-1.638382e+01
7.951521e+01	-1.643184e+01
7.997449e+01	-1.648221e+01
8.043642e+01	-1.652986e+01
8.090102e+01	-1.657875e+01
8.136830e+01	-1.662843e+01
8.183828e+01	-1.667595e+01
8.231097e+01	-1.672615e+01
8.278640e+01	-1.677432e+01
8.326457e+01	-1.682322e+01
8.374550e+01	-1.687245e+01
8.422921e+01	-1.692117e+01
8.471572e+01	-1.697066e+01
8.520503e+01	-1.702068e+01
8.569717e+01	-1.706889e+01
8.619215e+01	-1.711889e+01
8.669000e+01	-1.716743e+01
8.719071e+01	-1.721637e+01
8.769432e+01	-1.726486e+01
8.820084e+01	-1.731463e+01
8.871029e+01	-1.736286e+01
8.922267e+01	-1.741267e+01
8.973802e+01	-1.746028e+01
9.025634e+01	-1.751098e+01
9.077766e+01	-1.756009e+01
9.130199e+01	-1.760995e+01
9.182935e+01	-1.765791e+01
9.235975e+01	-1.770823e+01
9.289321e+01	-1.775703e+01
9.342976e+01	-1.780547e+01
9.396941e+01	-1.785495e+01
9.451217e+01	-1.790492e+01
9.505807e+01	-1.795437e+01
9.560712e+01	-1.800403e+01
9.615934e+01	-1.805207e+01
9.671476e+01	-1.809956e+01
9.727338e+01	-1.815004e+01
9.783522e+01	-1.820024e+01
9.840032e+01	-1.825053e+01
9.896867e+01	-1.829902e+01
9.954031e+01	-1.834799e+01
1.001153e+02	-1.839649e+01
1.006935e+02	-1.844755e+01
1.012751e+02	-1.849453e+01
1.018601e+02	-1.854629e+01
1.024484e+02	-1.859382e+01
1.030402e+02	-1.864408e+01
1.036353e+02	-1.869341e+01
1.042339e+02	-1.874181e+01
1.048360e+02	-1.879266e+01
1.054415e+02	-1.884060e+01
1.060505e+02	-1.889150e+01
1.066631e+02	-1.894093e+01
1.072791e+02	-1.898756e+01
1.078988e+02	-1.903891e+01
1.085220e+02	-1.908822e+01
1.091488e+02	-1.913862e+01
1.097793e+02	-1.918571e+01
1.104133e+02	-1.923566e+01
1.110511e+02	-1.928633e+01
1.116925e+02	-1.933610e+01
1.123376e+02	-1.938552e+01
1.129865e+02	-1.943370e+01
1.136391e+02	-1.948414e+01
1.142955e+02	-1.953316e+01
1.149556e+02	-1.958174e+01
1.156196e+02	-1.963295e+01
1.162874e+02	-1.968146e+01
1.169591e+02	-1.973040e+01
1.176347e+02	-1.978142e+01
1.183141e+02	-1.983170e+01
1.189975e+02	-1.988087e+01
1.196848e+02	-1.992964e+01
1.203761e+02	-1.997871e+01
1.210714e+02	-2.002867e+01
1.217707e+02	-2.007773e+01
1.224740e+02	-2.012756e+01
1.231814e+02	-2.017857e+01
1.238929e+02	-2.022682e+01
1.246085e+02	-2.027576e+01
1.253283e+02	-2.032629e+01
1.260522e+02	-2.037419e+01
1.267802e+02	-2.042280e+01
1.275125e+02	-2.047388e+01
1.282490e+02	-2.052568e+01
1.289898e+02	-2.057325e+01
1.297348e+02	-2.062346e+01
1.304842e+02	-2.067201e+01
1.312378e+02	-2.072219e+01
1.319959e+02	-2.077160e+01
1.327583e+02	-2.082130e+01
1.335251e+02	-2.087187e+01
1.342963e+02	-2.092110e+01
1.350720e+02	-2.097065e+01
1.358522e+02	-2.102156e+01
1.366368e+02	-2.106946e+01
1.374260e+02	-2.111908e+01
1.382198e+02	-2.116873e+01
1.390182e+02	-2.121955e+01
1.398211e+02	-2.126971e+01
1.406287e+02	-2.131945e+01
1.414410e+02	-2.136843e+01
1.422579e+02	-2.141612e+01
1.430796e+02	-2.146762e+01
1.439060e+02	-2.151825e+01
1.447372e+02	-2.156792e+01
1.455732e+02	-2.161773e+01
1.464141e+02	-2.166644e+01
1.472597e+02	-2.171636e+01
1.481103e+02	-2.176637e+01
1.489658e+02	-2.181582e+01
1.498262e+02	-2.186550e+01
1.506916e+02	-2.191453e+01
1.515620e+02	-2.196383e+01
1.524374e+02	-2.201200e+01
1.533179e+02	-2.206327e+01
1.542034e+02	-2.211349e+01
1.550941e+02	-2.216283e+01
1.559899e+02	-2.221379e+01
1.568909e+02	-2.226307e+01
1.577971e+02	-2.231279e+01
1.587085e+02	-2.236165e+01
1.596252e+02	-2.241237e+01
1.605472e+02	-2.246296e+01
1.614745e+02	-2.251067e+01
1.624072e+02	-2.256118e+01
1.633453e+02	-2.261050e+01
1.642887e+02	-2.266208e+01
1.652377e+02	-2.271146e+01
1.661921e+02	-2.276065e+01
1.671520e+02	-2.281055e+01
1.681175e+02	-2.286035e+01
1.690885e+02	-2.290950e+01
1.700651e+02	-2.295963e+01
1.710474e+02	-2.300965e+01
1.720354e+02	-2.305761e+01
1.730291e+02	-2.310998e+01
1.740285e+02	-2.315849e+01
1.750337e+02	-2.320814e+01
1.760446e+02	-2.325676e+01
1.770615e+02	-2.330618e+01
1.780842e+02	-2.335948e+01
1.791128e+02	-2.340750e+01
1.801473e+02	-2.345683e+01
1.811878e+02	-2.350645e+01
1.822344e+02	-2.355758e+01
1.832870e+02	-2.360704e+01
1.843456e+02	-2.365612e+01
1.854104e+02	-2.370750e+01
1.864813e+02	-2.375618e+01
1.875584e+02	-2.380544e+01
1.886418e+02	-2.385576e+01
1.897313e+02	-2.390537e+01
1.908272e+02	-2.395396e+01
1.919294e+02	-2.400624e+01
1.930380e+02	-2.405615e+01
1.941530e+02	-2.410550e+01
1.952744e+02	-2.415512e+01
1.964023e+02	-2.420726e+01
1.975367e+02	-2.425525e+01
1.986777e+02	-2.430659e+01
1.998252e+02	-2.435439e+01
2.009794e+02	-2.440119e+01
2.021403e+02	-2.445457e+01
2.033078e+02	-2.450566e+01
2.044821e+02	-2.455420e+01
2.056632e+02	-2.460493e+01
2.068511e+02	-2.465278e+01
2.080459e+02	-2.470338e+01
2.092475e+02	-2.475551e+01
2.104561e+02	-2.480563e+01
2.116717e+02	-2.485384e+01
2.128943e+02	-2.490289e+01
2.141240e+02	-2.495398e+01
2.153608e+02	-2.500358e+01
2.166047e+02	-2.505298e+01
2.178558e+02	-2.510451e+01
2.191141e+02	-2.515480e+01
2.203797e+02	-2.520149e+01
2.216526e+02	-2.525287e+01
2.229329e+02	-2.530560e+01
2.242205e+02	-2.534973e+01
2.255156e+02	-2.540106e+01
2.268182e+02	-2.545210e+01
2.281283e+02	-2.549994e+01
2.294459e+02	-2.555221e+01
2.307712e+02	-2.560472e+01
2.321041e+02	-2.565217e+01
2.334447e+02	-2.570232e+01
2.347931e+02	-2.574988e+01
2.361493e+02	-2.579970e+01
2.375133e+02	-2.585093e+01
2.388851e+02	-2.590423e+01
2.402649e+02	-2.595088e+01
2.416527e+02	-2.600078e+01
2.430484e+02	-2.604931e+01
2.444523e+02	-2.609964e+01
2.458642e+02	-2.615217e+01
2.472843e+02	-2.620006e+01
2.487126e+02	-2.625458e+01
2.501492e+02	-2.630059e+01
2.515940e+02	-2.635481e+01
2.530472e+02	-2.639929e+01
2.545088e+02	-2.645081e+01
2.559789e+02	-2.650071e+01
2.574574e+02	-2.655316e+01
2.589444e+02	-2.659982e+01
2.604401e+02	-2.665033e+01
2.619444e+02	-2.670026e+01
2.634574e+02	-2.675033e+01
2.649791e+02	-2.679916e+01
2.665096e+02	-2.685214e+01
2.680489e+02	-2.690202e+01
2.695972e+02	-2.694845e+01
2.711544e+02	-2.699902e+01
2.727205e+02	-2.704855e+01
2.742958e+02	-2.709909e+01
2.758801e+02	-2.714684e+01
2.774736e+02	-2.720160e+01
2.790762e+02	-2.724852e+01
2.806882e+02	-2.730139e+01
2.823094e+02	-2.735128e+01
2.839400e+02	-2.739784e+01
2.855800e+02	-2.744973e+01
2.872295e+02	-2.750309e+01
2.888886e+02	-2.755067e+01
2.905572e+02	-2.760293e+01
2.922354e+02	-2.765032e+01
2.939234e+02	-2.769993e+01
2.956211e+02	-2.775044e+01
2.973286e+02	-2.780104e+01
2.990459e+02	-2.785109e+01
3.007732e+02	-2.790233e+01
3.025104e+02	-2.794949e+01
3.042577e+02	-2.800409e+01
3.060151e+02	-2.804862e+01
3.077826e+02	-2.810176e+01
3.095604e+02	-2.815047e+01
3.113484e+02	-2.820109e+01
3.131467e+02	-2.824873e+01
3.149554e+02	-2.830431e+01
3.167746e+02	-2.834946e+01
3.186043e+02	-2.840136e+01
3.204445e+02	-2.845097e+01
3.222954e+02	-2.849905e+01
3.241570e+02	-2.855590e+01
3.260293e+02	-2.860540e+01
3.279124e+02	-2.865131e+01
3.298064e+02	-2.870313e+01
3.317114e+02	-2.875391e+01
3.336273e+02	-2.880341e+01
3.355544e+02	-2.884525e+01
3.374925e+02	-2.890376e+01
3.394418e+02	-2.895306e+01
3.414024e+02	-2.899914e+01
3.433744e+02	-2.904754e+01
3.453577e+02	-2.910111e+01
3.473525e+02	-2.915034e+01
3.493588e+02	-2.919807e+01
3.513766e+02	-2.925168e+01
3.534062e+02	-2.930530e+01
3.554474e+02	-2.935284e+01
3.575005e+02	-2.939973e+01
3.595654e+02	-2.945030e+01
3.616422e+02	-2.949922e+01
3.637311e+02	-2.955032e+01
3.658320e+02	-2.960363e+01
3.679450e+02	-2.965220e+01
3.700702e+02	-2.970650e+01
3.722077e+02	-2.975160e+01
3.743576e+02	-2.980600e+01
3.765199e+02	-2.985401e+01
3.786946e+02	-2.990188e+01
3.808820e+02	-2.995605e+01
3.830819e+02	-3.000216e+01
3.852946e+02	-3.004801e+01
3.875200e+02	-3.010356e+01
3.897583e+02	-3.014625e+01
3.920096e+02	-3.020291e+01
3.942738e+02	-3.025526e+01
3.965511e+02	-3.029670e+01
3.988416e+02	-3.035392e+01
4.011452e+02	-3.039878e+01
4.034622e+02	-3.044989e+01
4.057926e+02	-3.050012e+01
4.081365e+02	-3.055141e+01
4.104938e+02	-3.060051e+01
4.128648e+02	-3.065926e+01
4.152495e+02	-3.070597e+01
4.176480e+02	-3.075130e+01
4.200603e+02	-3.080720e+01
4.224866e+02	-3.085399e+01
4.249268e+02	-3.090589e+01
4.273812e+02	-3.095614e+01
4.298497e+02	-3.100145e+01
4.323325e+02	-3.105829e+01
4.348297e+02	-3.110269e+01
4.373412e+02	-3.115557e+01
4.398673e+02	-3.120476e+01
4.424079e+02	-3.125496e+01
4.449633e+02	-3.130503e+01
4.475334e+02	-3.135401e+01
4.501183e+02	-3.140565e+01
4.527182e+02	-3.145474e+01
4.553330e+02	-3.150527e+01
4.579630e+02	-3.155212e+01
4.606082e+02	-3.160935e+01
4.632687e+02	-3.165284e+01
4.659445e+02	-3.170495e+01
4.686358e+02	-3.175451e+01
4.713426e+02	-3.180969e+01
4.740650e+02	-3.185585e+01
4.768032e+02	-3.190273e+01
4.795572e+02	-3.196040e+01
4.823271e+02	-3.200552e+01
4.851130e+02	-3.205359e+01
4.879150e+02	-3.211249e+01
4.907332e+02	-3.216004e+01
4.935676e+02	-3.221295e+01
4.964185e+02	-3.226067e+01
4.992858e+02	-3.230942e+01
5.021696e+02	-3.235962e+01
5.050701e+02	-3.240388e+01
5.079874e+02	-3.245817e+01
5.109215e+02	-3.251357e+01
5.138726e+02	-3.256418e+01
5.168407e+02	-3.261641e+01
5.198259e+02	-3.265680e+01
5.228284e+02	-3.271534e+01
5.258482e+02	-3.275998e+01
5.288855e+02	-3.281158e+01
5.319403e+02	-3.285820e+01
5.350128e+02	-3.291350e+01
5.381030e+02	-3.296165e+01
5.412111e+02	-3.301287e+01
5.443371e+02	-3.306516e+01
5.474812e+02	-3.312096e+01
5.506434e+02	-3.315883e+01
5.538239e+02	-3.321146e+01
5.570228e+02	-3.325817e+01
5.602401e+02	-3.331089e+01
5.634760e+02	-3.336209e+01
5.667306e+02	-3.341733e+01
5.700040e+02	-3.346053e+01
5.732964e+02	-3.351203e+01
5.766077e+02	-3.356532e+01
5.799382e+02	-3.362258e+01
5.832879e+02	-3.366709e+01
5.866569e+02	-3.371948e+01
5.900454e+02	-3.376879e+01
5.934535e+02	-3.381243e+01
5.968813e+02	-3.386152e+01
6.003288e+02	-3.391693e+01
6.037963e+02	-3.396579e+01
6.072838e+02	-3.402835e+01
6.107914e+02	-3.407367e+01
6.143194e+02	-3.411324e+01
6.178676e+02	-3.417337e+01
6.214364e+02	-3.422169e+01
6.250258e+02	-3.427362e+01
6.286359e+02	-3.432311e+01
6.322669e+02	-3.436414e+01
6.359189e+02	-3.442626e+01
6.395919e+02	-3.447447e+01
6.432862e+02	-3.452738e+01
6.470017e+02	-3.457326e+01
6.507388e+02	-3.461610e+01
6.544974e+02	-3.467206e+01
6.582778e+02	-3.471450e+01
6.620800e+02	-3.476998e+01
6.659041e+02	-3.481902e+01
6.697504e+02	-3.486876e+01
6.736188e+02	-3.491847e+01
6.775096e+02	-3.496853e+01
6.814229e+02	-3.502605e+01
6.853587e+02	-3.507754e+01
6.893173e+02	-3.512137e+01
6.932988e+02	-3.517733e+01
6.973033e+02	-3.522293e+01
7.013309e+02	-3.527552e+01
