Frequency(Hz)	Magnitude(dB)
1.000000e+01	-1.981950e+00
1.005776e+01	-2.000331e+00
1.011585e+01	-2.018892e+00
1.017428e+01	-2.037601e+00
1.023305e+01	-2.056300e+00
1.029215e+01	-2.075362e+00
1.035160e+01	-2.094362e+00
1.041139e+01	-2.113774e+00
1.047153e+01	-2.132953e+00
1.053201e+01	-2.152370e+00
1.059284e+01	-2.172163e+00
1.065403e+01	-2.191726e+00
1.071556e+01	-2.211511e+00
1.077746e+01	-2.231838e+00
1.083971e+01	-2.252009e+00
1.090232e+01	-2.272079e+00
1.096529e+01	-2.292785e+00
1.102862e+01	-2.313093e+00
1.109232e+01	-2.333985e+00
1.115639e+01	-2.354731e+00
1.122083e+01	-2.375687e+00
1.128564e+01	-2.396856e+00
1.135083e+01	-2.418258e+00
1.141639e+01	-2.439610e+00
1.148233e+01	-2.461318e+00
1.154865e+01	-2.482737e+00
1.161536e+01	-2.504793e+00
1.168245e+01	-2.526709e+00
1.174992e+01	-2.549045e+00
1.181779e+01	-2.571153e+00
1.188605e+01	-2.593494e+00
1.195470e+01	-2.616362e+00
1.202375e+01	-2.638715e+00
1.209320e+01	-2.661684e+00
1.216305e+01	-2.684560e+00
1.223330e+01	-2.707679e+00
1.230396e+01	-2.731326e+00
1.237503e+01	-2.754538e+00
1.244651e+01	-2.778354e+00
1.251840e+01	-2.801868e+00
1.259070e+01	-2.825706e+00
1.266343e+01	-2.849796e+00
1.273657e+01	-2.873798e+00
1.281014e+01	-2.898200e+00
1.288413e+01	-2.922602e+00
1.295855e+01	-2.947103e+00
1.303339e+01	-2.971531e+00
1.310867e+01	-2.996503e+00
1.318439e+01	-3.022008e+00
1.326054e+01	-3.046882e+00
1.333713e+01	-3.072480e+00
1.341417e+01	-3.097820e+00
1.349165e+01	-3.123361e+00
1.356958e+01	-3.148931e+00
1.364795e+01	-3.175113e+00
1.372678e+01	-3.201160e+00
1.380607e+01	-3.227078e+00
1.388581e+01	-3.253259e+00
1.396602e+01	-3.279651e+00
1.404668e+01	-3.306314e+00
1.412782e+01	-3.333073e+00
1.420942e+01	-3.359879e+00
1.429149e+01	-3.386900e+00
1.437404e+01	-3.414128e+00
1.445706e+01	-3.441385e+00
1.454057e+01	-3.468975e+00
1.462455e+01	-3.496393e+00
1.470902e+01	-3.524253e+00
1.479398e+01	-3.551665e+00
1.487943e+01	-3.580055e+00
1.496537e+01	-3.608423e+00
1.505181e+01	-3.636677e+00
1.513875e+01	-3.664942e+00
1.522619e+01	-3.693591e+00
1.531414e+01	-3.722332e+00
1.540259e+01	-3.751306e+00
1.549156e+01	-3.779891e+00
1.558103e+01	-3.809267e+00
1.567103e+01	-3.838804e+00
1.576155e+01	-3.868185e+00
1.585258e+01	-3.897699e+00
1.594415e+01	-3.927520e+00
1.603624e+01	-3.957131e+00
1.612886e+01	-3.986963e+00
1.622202e+01	-4.017119e+00
1.631572e+01	-4.047662e+00
1.640996e+01	-4.077953e+00
1.650474e+01	-4.108510e+00
1.660008e+01	-4.139302e+00
1.669596e+01	-4.169986e+00
1.679239e+01	-4.200624e+00
1.688938e+01	-4.231916e+00
1.698694e+01	-4.263326e+00
1.708505e+01	-4.294553e+00
1.718373e+01	-4.325948e+00
1.728299e+01	-4.357356e+00
1.738281e+01	-4.389525e+00
1.748322e+01	-4.421047e+00
1.758420e+01	-4.453470e+00
1.768576e+01	-4.485391e+00
1.778792e+01	-4.517481e+00
1.789066e+01	-4.549930e+00
1.799399e+01	-4.583111e+00
1.809793e+01	-4.615205e+00
1.820246e+01	-4.648424e+00
1.830760e+01	-4.681061e+00
1.841334e+01	-4.714307e+00
1.851969e+01	-4.747384e+00
1.862666e+01	-4.780719e+00
1.873425e+01	-4.814244e+00
1.884246e+01	-4.847791e+00
1.895129e+01	-4.881400e+00
1.906075e+01	-4.915214e+00
1.917085e+01	-4.949459e+00
1.928158e+01	-4.983346e+00
1.939295e+01	-5.017439e+00
1.950496e+01	-5.051732e+00
1.961762e+01	-5.086128e+00
1.973093e+01	-5.120909e+00
1.984490e+01	-5.155644e+00
1.995952e+01	-5.190478e+00
2.007480e+01	-5.225444e+00
2.019076e+01	-5.260442e+00
2.030738e+01	-5.295734e+00
2.042467e+01	-5.330910e+00
2.054264e+01	-5.366376e+00
2.066130e+01	-5.401893e+00
2.078064e+01	-5.437355e+00
2.090066e+01	-5.472947e+00
2.102139e+01	-5.509212e+00
2.114280e+01	-5.545204e+00
2.126492e+01	-5.581346e+00
2.138775e+01	-5.617597e+00
2.151128e+01	-5.653464e+00
2.163553e+01	-5.690109e+00
2.176050e+01	-5.727264e+00
2.188619e+01	-5.763627e+00
2.201260e+01	-5.800453e+00
2.213974e+01	-5.837396e+00
2.226762e+01	-5.874485e+00
2.239624e+01	-5.911572e+00
2.252560e+01	-5.948882e+00
2.265571e+01	-5.986107e+00
2.278656e+01	-6.023437e+00
2.291818e+01	-6.061684e+00
2.305055e+01	-6.098656e+00
2.318369e+01	-6.136763e+00
2.331760e+01	-6.174457e+00
2.345228e+01	-6.212616e+00
2.358774e+01	-6.250895e+00
2.372398e+01	-6.289038e+00
2.386101e+01	-6.327190e+00
2.399883e+01	-6.365988e+00
2.413745e+01	-6.403900e+00
2.427686e+01	-6.442973e+00
2.441709e+01	-6.481789e+00
2.455812e+01	-6.520352e+00
2.469997e+01	-6.559258e+00
2.484263e+01	-6.598467e+00
2.498612e+01	-6.637546e+00
2.513044e+01	-6.676624e+00
2.527559e+01	-6.715958e+00
2.542158e+01	-6.755090e+00
2.556842e+01	-6.794906e+00
2.571610e+01	-6.834833e+00
2.586463e+01	-6.874093e+00
2.601403e+01	-6.913939e+00
2.616428e+01	-6.953861e+00
2.631541e+01	-6.993610e+00
2.646740e+01	-7.033926e+00
2.662028e+01	-7.074018e+00
2.677404e+01	-7.114429e+00
2.692868e+01	-7.154717e+00
2.708422e+01	-7.195210e+00
2.724066e+01	-7.235778e+00
2.739800e+01	-7.276473e+00
2.755625e+01	-7.317214e+00
2.771541e+01	-7.357970e+00
2.787550e+01	-7.398799e+00
2.803650e+01	-7.439949e+00
2.819844e+01	-7.480716e+00
2.836131e+01	-7.521896e+00
2.852513e+01	-7.563265e+00
2.868989e+01	-7.604510e+00
2.885560e+01	-7.646013e+00
2.902227e+01	-7.687357e+00
2.918990e+01	-7.728673e+00
2.935850e+01	-7.770118e+00
2.952807e+01	-7.812117e+00
2.969863e+01	-7.853808e+00
2.987016e+01	-7.895677e+00
3.004269e+01	-7.937854e+00
3.021622e+01	-7.979626e+00
3.039075e+01	-8.021840e+00
3.056628e+01	-8.063749e+00
3.074283e+01	-8.106899e+00
3.092040e+01	-8.148286e+00
3.109900e+01	-8.190887e+00
3.127862e+01	-8.233434e+00
3.145929e+01	-8.275965e+00
3.164099e+01	-8.318771e+00
3.182375e+01	-8.361375e+00
3.200756e+01	-8.404000e+00
3.219244e+01	-8.447808e+00
3.237838e+01	-8.489959e+00
3.256540e+01	-8.532467e+00
3.275349e+01	-8.575714e+00
3.294268e+01	-8.619005e+00
3.313295e+01	-8.662460e+00
3.332433e+01	-8.705675e+00
3.351681e+01	-8.748920e+00
3.371040e+01	-8.792279e+00
3.390511e+01	-8.835526e+00
3.410094e+01	-8.879103e+00
3.429791e+01	-8.922942e+00
3.449601e+01	-8.966826e+00
3.469526e+01	-9.010105e+00
3.489566e+01	-9.054090e+00
3.509721e+01	-9.097958e+00
3.529993e+01	-9.141308e+00
3.550382e+01	-9.185986e+00
3.570889e+01	-9.229490e+00
3.591515e+01	-9.273829e+00
3.612259e+01	-9.317663e+00
3.633123e+01	-9.362458e+00
3.654108e+01	-9.406342e+00
3.675214e+01	-9.450638e+00
3.696442e+01	-9.494827e+00
3.717792e+01	-9.539204e+00
3.739266e+01	-9.583876e+00
3.760864e+01	-9.628420e+00
3.782587e+01	-9.672963e+00
3.804435e+01	-9.717976e+00
3.826409e+01	-9.762570e+00
3.848510e+01	-9.806768e+00
3.870739e+01	-9.852178e+00
3.893096e+01	-9.896457e+00
3.915583e+01	-9.941678e+00
3.938199e+01	-9.987519e+00
3.960946e+01	-1.003239e+01
3.983824e+01	-1.007684e+01
4.006834e+01	-1.012199e+01
4.029978e+01	-1.016679e+01
4.053255e+01	-1.021204e+01
4.076666e+01	-1.025721e+01
4.100213e+01	-1.030259e+01
4.123896e+01	-1.034902e+01
4.147715e+01	-1.039386e+01
4.171672e+01	-1.043918e+01
4.195767e+01	-1.048455e+01
4.220002e+01	-1.053026e+01
4.244377e+01	-1.057635e+01
4.268892e+01	-1.062167e+01
4.293549e+01	-1.066740e+01
4.318348e+01	-1.071331e+01
4.343291e+01	-1.075897e+01
4.368377e+01	-1.080476e+01
4.393609e+01	-1.085054e+01
4.418986e+01	-1.089650e+01
4.444510e+01	-1.094292e+01
4.470182e+01	-1.098925e+01
4.496001e+01	-1.103480e+01
4.521970e+01	-1.108116e+01
4.548089e+01	-1.112734e+01
4.574358e+01	-1.117252e+01
4.600779e+01	-1.121854e+01
4.627353e+01	-1.126570e+01
4.654081e+01	-1.131252e+01
4.680963e+01	-1.135846e+01
4.708000e+01	-1.140462e+01
4.735193e+01	-1.145155e+01
4.762543e+01	-1.149755e+01
4.790051e+01	-1.154398e+01
4.817719e+01	-1.159057e+01
4.845545e+01	-1.163722e+01
4.873533e+01	-1.168385e+01
4.901682e+01	-1.173070e+01
4.929994e+01	-1.177670e+01
4.958470e+01	-1.182487e+01
4.987110e+01	-1.187108e+01
5.015915e+01	-1.191768e+01
5.044887e+01	-1.196408e+01
5.074026e+01	-1.201113e+01
5.103333e+01	-1.205748e+01
5.132810e+01	-1.210495e+01
5.162457e+01	-1.215226e+01
5.192275e+01	-1.219880e+01
5.222265e+01	-1.224622e+01
5.252429e+01	-1.229291e+01
5.282767e+01	-1.234002e+01
5.313280e+01	-1.238719e+01
5.343969e+01	-1.243376e+01
5.374836e+01	-1.248165e+01
5.405880e+01	-1.252947e+01
5.437105e+01	-1.257588e+01
5.468509e+01	-1.262325e+01
5.500095e+01	-1.267073e+01
5.531863e+01	-1.271815e+01
5.563815e+01	-1.276571e+01
5.595951e+01	-1.281304e+01
5.628273e+01	-1.286042e+01
5.660782e+01	-1.290827e+01
5.693479e+01	-1.295571e+01
5.726364e+01	-1.300311e+01
5.759439e+01	-1.305047e+01
5.792705e+01	-1.309887e+01
5.826164e+01	-1.314539e+01
5.859815e+01	-1.319310e+01
5.893662e+01	-1.324040e+01
5.927703e+01	-1.328849e+01
5.961941e+01	-1.333583e+01
5.996377e+01	-1.338332e+01
6.031012e+01	-1.343205e+01
6.065847e+01	-1.347941e+01
6.100883e+01	-1.352702e+01
6.136121e+01	-1.357447e+01
6.171563e+01	-1.362302e+01
6.207210e+01	-1.367047e+01
6.243063e+01	-1.371797e+01
6.279122e+01	-1.376641e+01
6.315390e+01	-1.381466e+01
6.351868e+01	-1.386207e+01
6.388556e+01	-1.391035e+01
6.425456e+01	-1.395839e+01
6.462569e+01	-1.400711e+01
6.499897e+01	-1.405438e+01
6.537440e+01	-1.410268e+01
6.575200e+01	-1.415066e+01
6.613178e+01	-1.419904e+01
6.651375e+01	-1.424684e+01
6.689793e+01	-1.429414e+01
6.728433e+01	-1.434287e+01
6.767297e+01	-1.439124e+01
6.806384e+01	-1.443973e+01
6.845698e+01	-1.448868e+01
6.885238e+01	-1.453596e+01
6.925007e+01	-1.458389e+01
6.965005e+01	-1.463217e+01
7.005235e+01	-1.468064e+01
7.045697e+01	-1.472889e+01
7.086393e+01	-1.477796e+01
7.127323e+01	-1.482557e+01
7.168490e+01	-1.487408e+01
7.209895e+01	-1.492249e+01
7.251539e+01	-1.497107e+01
7.293424e+01	-1.502043e+01
7.335551e+01	-1.506791e+01
7.377920e+01	-1.511662e+01
7.420535e+01	-1.516568e+01
7.463396e+01	-1.521332e+01
7.506504e+01	-1.526169e+01
7.549861e+01	-1.531052e+01
7.593469e+01	-1.535878e+01
7.637328e+01	-1.540767e+01
7.681441e+01	-1.545616e+01
7.725809e+01	-1.550446e+01
7.770433e+01	-1.555385e+01
7.815315e+01	-1.560139e+01
7.860456e+01	-1.565042e+01
7.905857e+01	-1.569825e+01
7.951521e+01	-1.574674e+01
7.997449e+01	-1.579699e+01
8.043642e+01	-1.584538e+01
8.090102e+01	-1.589373e+01
8.136830e+01	-1.594382e+01
8.183828e+01	-1.599246e+01
8.231097e+01	-1.604060e+01
8.278640e+01	-1.608972e+01
8.326457e+01	-1.613869e+01
8.374550e+01	-1.618714e+01
8.422921e+01	-1.623614e+01
8.471572e+01	-1.628597e+01
8.520503e+01	-1.633329e+01
8.569717e+01	-1.638204e+01
8.619215e+01	-1.643145e+01
8.669000e+01	-1.648083e+01
8.719071e+01	-1.652903e+01
8.769432e+01	-1.657801e+01
8.820084e+01	-1.662782e+01
8.871029e+01	-1.667723e+01
8.922267e+01	-1.672576e+01
8.973802e+01	-1.677402e+01
9.025634e+01	-1.682335e+01
9.077766e+01	-1.687171e+01
9.130199e+01	-1.692169e+01
9.182935e+01	-1.697019e+01
9.235975e+01	-1.701844e+01
9.289321e+01	-1.706817e+01
9.342976e+01	-1.711726e+01
9.396941e+01	-1.716568e+01
9.451217e+01	-1.721649e+01
9.505807e+01	-1.726470e+01
9.560712e+01	-1.731389e+01
9.615934e+01	-1.736287e+01
9.671476e+01	-1.741207e+01
9.727338e+01	-1.746033e+01
9.783522e+01	-1.750948e+01
9.840032e+01	-1.755918e+01
9.896867e+01	-1.760818e+01
9.954031e+01	-1.765662e+01
1.001153e+02	-1.770666e+01
1.006935e+02	-1.775571e+01
1.012751e+02	-1.780553e+01
1.018601e+02	-1.785341e+01
1.024484e+02	-1.790347e+01
1.030402e+02	-1.795366e+01
1.036353e+02	-1.800268e+01
1.042339e+02	-1.805172e+01
1.048360e+02	-1.809991e+01
1.054415e+02	-1.815078e+01
1.060505e+02	-1.819876e+01
1.066631e+02	-1.824944e+01
1.072791e+02	-1.829723e+01
1.078988e+02	-1.834807e+01
1.085220e+02	-1.839560e+01
1.091488e+02	-1.844517e+01
1.097793e+02	-1.849418e+01
1.104133e+02	-1.854482e+01
1.110511e+02	-1.859315e+01
1.116925e+02	-1.864326e+01
1.123376e+02	-1.869182e+01
1.129865e+02	-1.874199e+01
1.136391e+02	-1.879048e+01
1.142955e+02	-1.884073e+01
1.149556e+02	-1.888979e+01
1.156196e+02	-1.893894e+01
1.162874e+02	-1.898929e+01
1.169591e+02	-1.903867e+01
1.176347e+02	-1.908644e+01
1.183141e+02	-1.913756e+01
1.189975e+02	-1.918685e+01
1.196848e+02	-1.923631e+01
1.203761e+02	-1.928627e+01
1.210714e+02	-1.933326e+01
1.217707e+02	-1.938337e+01
1.224740e+02	-1.943387e+01
1.231814e+02	-1.948303e+01
1.238929e+02	-1.953256e+01
1.246085e+02	-1.958141e+01
1.253283e+02	-1.963113e+01
1.260522e+02	-1.968313e+01
1.267802e+02	-1.973126e+01
1.275125e+02	-1.977945e+01
1.282490e+02	-1.982896e+01
1.289898e+02	-1.987940e+01
1.297348e+02	-1.992682e+01
1.304842e+02	-1.997770e+01
1.312378e+02	-2.002845e+01
1.319959e+02	-2.007786e+01
1.327583e+02	-2.012699e+01
1.335251e+02	-2.017678e+01
1.342963e+02	-2.022637e+01
1.350720e+02	-2.027478e+01
1.358522e+02	-2.032459e+01
1.366368e+02	-2.037386e+01
1.374260e+02	-2.042473e+01
1.382198e+02	-2.047205e+01
1.390182e+02	-2.052369e+01
1.398211e+02	-2.057351e+01
1.406287e+02	-2.062223e+01
1.414410e+02	-2.067078e+01
1.422579e+02	-2.072200e+01
1.430796e+02	-2.077109e+01
1.439060e+02	-2.082082e+01
1.447372e+02	-2.086976e+01
1.455732e+02	-2.091920e+01
1.464141e+02	-2.096989e+01
1.472597e+02	-2.101892e+01
1.481103e+02	-2.106801e+01
1.489658e+02	-2.111984e+01
1.498262e+02	-2.116904e+01
1.506916e+02	-2.121631e+01
1.515620e+02	-2.126844e+01
1.524374e+02	-2.131880e+01
1.533179e+02	-2.136563e+01
1.542034e+02	-2.141728e+01
1.550941e+02	-2.146735e+01
1.559899e+02	-2.151782e+01
1.568909e+02	-2.156645e+01
1.577971e+02	-2.161525e+01
1.587085e+02	-2.166432e+01
1.596252e+02	-2.171495e+01
1.605472e+02	-2.176251e+01
1.614745e+02	-2.181398e+01
1.624072e+02	-2.186386e+01
1.633453e+02	-2.191406e+01
1.642887e+02	-2.196403e+01
1.652377e+02	-2.201140e+01
1.661921e+02	-2.206069e+01
1.671520e+02	-2.211239e+01
1.681175e+02	-2.216378e+01
1.690885e+02	-2.221313e+01
1.700651e+02	-2.226261e+01
1.710474e+02	-2.231000e+01
1.720354e+02	-2.236199e+01
1.730291e+02	-2.241173e+01
1.740285e+02	-2.246018e+01
1.750337e+02	-2.251172e+01
1.760446e+02	-2.256219e+01
1.770615e+02	-2.260981e+01
1.780842e+02	-2.265821e+01
1.791128e+02	-2.271064e+01
1.801473e+02	-2.275755e+01
1.811878e+02	-2.280755e+01
1.822344e+02	-2.286031e+01
1.832870e+02	-2.291102e+01
1.843456e+02	-2.295945e+01
1.854104e+02	-2.300756e+01
1.864813e+02	-2.305887e+01
1.875584e+02	-2.310470e+01
1.886418e+02	-2.315739e+01
1.897313e+02	-2.320696e+01
1.908272e+02	-2.325829e+01
1.919294e+02	-2.330975e+01
1.930380e+02	-2.335657e+01
1.941530e+02	-2.340840e+01
1.952744e+02	-2.345658e+01
1.964023e+02	-2.350656e+01
1.975367e+02	-2.355662e+01
1.986777e+02	-2.360753e+01
1.998252e+02	-2.365670e+01
2.009794e+02	-2.370438e+01
2.021403e+02	-2.375653e+01
2.033078e+02	-2.380554e+01
2.044821e+02	-2.385430e+01
2.056632e+02	-2.390612e+01
2.068511e+02	-2.395558e+01
2.080459e+02	-2.400354e+01
2.092475e+02	-2.405546e+01
2.104561e+02	-2.410527e+01
2.116717e+02	-2.415207e+01
2.128943e+02	-2.420413e+01
2.141240e+02	-2.425534e+01
2.153608e+02	-2.430720e+01
2.166047e+02	-2.435495e+01
2.178558e+02	-2.440235e+01
2.191141e+02	-2.445304e+01
2.203797e+02	-2.450187e+01
2.216526e+02	-2.455414e+01
2.229329e+02	-2.460357e+01
2.242205e+02	-2.465000e+01
2.255156e+02	-2.470385e+01
2.268182e+02	-2.475538e+01
2.281283e+02	-2.480479e+01
2.294459e+02	-2.485483e+01
2.307712e+02	-2.490334e+01
2.321041e+02	-2.495186e+01
2.334447e+02	-2.500245e+01
2.347931e+02	-2.505220e+01
2.361493e+02	-2.510231e+01
2.375133e+02	-2.515637e+01
2.388851e+02	-2.520444e+01
2.402649e+02	-2.525303e+01
2.416527e+02	-2.530193e+01
2.430484e+02	-2.535457e+01
2.444523e+02	-2.539989e+01
2.458642e+02	-2.544990e+01
2.472843e+02	-2.549968e+01
2.487126e+02	-2.555439e+01
2.501492e+02	-2.560330e+01
2.515940e+02	-2.565441e+01
2.530472e+02	-2.570118e+01
2.545088e+02	-2.575100e+01
2.559789e+02	-2.579890e+01
2.574574e+02	-2.585102e+01
2.589444e+02	-2.590237e+01
2.604401e+02	-2.595235e+01
2.619444e+02	-2.600028e+01
2.634574e+02	-2.605133e+01
2.649791e+02	-2.610177e+01
2.665096e+02	-2.615110e+01
2.680489e+02	-2.619906e+01
2.695972e+02	-2.625027e+01
2.711544e+02	-2.630286e+01
2.727205e+02	-2.635170e+01
2.742958e+02	-2.640218e+01
2.758801e+02	-2.645342e+01
2.774736e+02	-2.650269e+01
2.790762e+02	-2.655299e+01
2.806882e+02	-2.659982e+01
2.823094e+02	-2.664925e+01
2.839400e+02	-2.670112e+01
2.855800e+02	-2.675064e+01
2.872295e+02	-2.679449e+01
2.888886e+02	-2.685117e+01
2.905572e+02	-2.689895e+01
2.922354e+02	-2.695234e+01
2.939234e+02	-2.700223e+01
2.956211e+02	-2.704930e+01
2.973286e+02	-2.709823e+01
2.990459e+02	-2.715137e+01
3.007732e+02	-2.720016e+01
3.025104e+02	-2.725166e+01
3.042577e+02	-2.730106e+01
3.060151e+02	-2.734801e+01
3.077826e+02	-2.740161e+01
3.095604e+02	-2.744940e+01
3.113484e+02	-2.750395e+01
3.131467e+02	-2.754869e+01
3.149554e+02	-2.760447e+01
3.167746e+02	-2.765186e+01
3.186043e+02	-2.769759e+01
3.204445e+02	-2.775249e+01
3.222954e+02	-2.780024e+01
3.241570e+02	-2.785519e+01
3.260293e+02	-2.790046e+01
3.279124e+02	-2.794838e+01
3.298064e+02	-2.800350e+01
3.317114e+02	-2.805119e+01
3.336273e+02	-2.810178e+01
3.355544e+02	-2.815237e+01
3.374925e+02	-2.820297e+01
3.394418e+02	-2.825029e+01
3.414024e+02	-2.830202e+01
3.433744e+02	-2.835269e+01
3.453577e+02	-2.840498e+01
3.473525e+02	-2.845178e+01
3.493588e+02	-2.850339e+01
3.513766e+02	-2.854910e+01
3.534062e+02	-2.859779e+01
3.554474e+02	-2.864947e+01
3.575005e+02	-2.869955e+01
3.595654e+02	-2.875239e+01
3.616422e+02	-2.880278e+01
3.637311e+02	-2.885209e+01
3.658320e+02	-2.890312e+01
3.679450e+02	-2.895216e+01
3.700702e+02	-2.900636e+01
3.722077e+02	-2.905320e+01
3.743576e+02	-2.910040e+01
3.765199e+02	-2.915532e+01
3.786946e+02	-2.920532e+01
3.808820e+02	-2.925462e+01
3.830819e+02	-2.929654e+01
3.852946e+02	-2.935677e+01
3.875200e+02	-2.940415e+01
3.897583e+02	-2.945401e+01
3.920096e+02	-2.950310e+01
3.942738e+02	-2.955374e+01
3.965511e+02	-2.959853e+01
3.988416e+02	-2.965112e+01
4.011452e+02	-2.970403e+01
4.034622e+02	-2.974915e+01
4.057926e+02	-2.980136e+01
4.081365e+02	-2.985464e+01
4.104938e+02	-2.989814e+01
4.128648e+02	-2.995457e+01
4.152495e+02	-3.000823e+01
4.176480e+02	-3.005025e+01
4.200603e+02	-3.010388e+01
4.224866e+02	-3.015468e+01
4.249268e+02	-3.020213e+01
4.273812e+02	-3.025409e+01
4.298497e+02	-3.030612e+01
4.323325e+02	-3.035773e+01
4.348297e+02	-3.040235e+01
4.373412e+02	-3.045212e+01
4.398673e+02	-3.050096e+01
4.424079e+02	-3.055433e+01
4.449633e+02	-3.060381e+01
4.475334e+02	-3.065950e+01
4.501183e+02	-3.070120e+01
4.527182e+02	-3.075365e+01
4.553330e+02	-3.080313e+01
4.579630e+02	-3.085383e+01
4.606082e+02	-3.090756e+01
4.632687e+02	-3.095929e+01
4.659445e+02	-3.100527e+01
4.686358e+02	-3.105530e+01
4.713426e+02	-3.110067e+01
4.740650e+02	-3.115083e+01
4.768032e+02	-3.120667e+01
4.795572e+02	-3.125962e+01
4.823271e+02	-3.130378e+01
4.851130e+02	-3.135664e+01
4.879150e+02	-3.141077e+01
4.907332e+02	-3.146003e+01
4.935676e+02	-3.151040e+01
4.964185e+02	-3.156064e+01
4.992858e+02	-3.161100e+01
5.021696e+02	-3.165960e+01
5.050701e+02	-3.171744e+01
5.079874e+02	-3.175555e+01
5.109215e+02	-3.181036e+01
5.138726e+02	-3.186848e+01
5.168407e+02	-3.190890e+01
5.198259e+02	-3.196105e+01
5.228284e+02	-3.200695e+01
5.258482e+02	-3.206174e+01
5.288855e+02	-3.211338e+01
5.319403e+02	-3.216234e+01
5.350128e+02	-3.221551e+01
5.381030e+02	-3.225903e+01
5.412111e+02	-3.230959e+01
5.443371e+02	-3.235470e+01
5.474812e+02	-3.240904e+01
5.506434e+02	-3.245912e+01
5.538239e+02	-3.251569e+01
5.570228e+02	-3.255966e+01
5.602401e+02	-3.261045e+01
5.634760e+02	-3.266420e+01
5.667306e+02	-3.270353e+01
5.700040e+02	-3.275979e+01
5.732964e+02	-3.281668e+01
5.766077e+02	-3.285757e+01
5.799382e+02	-3.291196e+01
5.832879e+02	-3.296616e+01
5.866569e+02	-3.301065e+01
5.900454e+02	-3.306911e+01
5.934535e+02	-3.311209e+01
5.968813e+02	-3.316054e+01
6.003288e+02	-3.322331e+01
6.037963e+02	-3.326852e+01
6.072838e+02	-3.331227e+01
6.107914e+02	-3.336121e+01
6.143194e+02	-3.342229e+01
6.178676e+02	-3.346683e+01
6.214364e+02	-3.351991e+01
6.250258e+02	-3.356385e+01
6.286359e+02	-3.361894e+01
6.322669e+02	-3.367206e+01
6.359189e+02	-3.371372e+01
6.395919e+02	-3.376881e+01
6.432862e+02	-3.381208e+01
6.470017e+02	-3.386982e+01
6.507388e+02	-3.392093e+01
6.544974e+02	-3.397153e+01
6.582778e+02	-3.401769e+01
6.620800e+02	-3.407446e+01
6.659041e+02	-3.411845e+01
6.697504e+02	-3.417800e+01
6.736188e+02	-3.422068e+01
6.775096e+02	-3.427130e+01
6.814229e+02	-3.432030e+01
6.853587e+02	-3.436985e+01
6.893173e+02	-3.441922e+01
6.932988e+02	-3.445900e+01
6.973033e+02	-3.451868e+01
7.013309e+02	-3.457056e+01
