Frequency(Hz)	Magnitude(dB)
1.000000e+01	-2.005849e+00
1.005776e+01	-2.024356e+00
1.011585e+01	-2.043036e+00
1.017428e+01	-2.061862e+00
1.023305e+01	-2.080898e+00
1.029215e+01	-2.100135e+00
1.035160e+01	-2.119369e+00
1.041139e+01	-2.138687e+00
1.047153e+01	-2.158419e+00
1.053201e+01	-2.177924e+00
1.059284e+01	-2.197753e+00
1.065403e+01	-2.217633e+00
1.071556e+01	-2.237790e+00
1.077746e+01	-2.257904e+00
1.083971e+01	-2.278293e+00
1.090232e+01	-2.298687e+00
1.096529e+01	-2.319285e+00
1.102862e+01	-2.339922e+00
1.109232e+01	-2.361086e+00
1.115639e+01	-2.381894e+00
1.122083e+01	-2.403425e+00
1.128564e+01	-2.424518e+00
1.135083e+01	-2.446001e+00
1.141639e+01	-2.467664e+00
1.148233e+01	-2.489501e+00
1.154865e+01	-2.511117e+00
1.161536e+01	-2.533351e+00
1.168245e+01	-2.555720e+00
1.174992e+01	-2.577828e+00
1.181779e+01	-2.600422e+00
1.188605e+01	-2.622901e+00
1.195470e+01	-2.645393e+00
1.202375e+01	-2.668537e+00
1.209320e+01	-2.691888e+00
1.216305e+01	-2.715030e+00
1.223330e+01	-2.738159e+00
1.230396e+01	-2.761711e+00
1.237503e+01	-2.785314e+00
1.244651e+01	-2.809052e+00
1.251840e+01	-2.832925e+00
1.259070e+01	-2.856977e+00
1.266343e+01	-2.881210e+00
1.273657e+01	-2.905396e+00
1.281014e+01	-2.929939e+00
1.288413e+01	-2.954533e+00
1.295855e+01	-2.979161e+00
1.303339e+01	-3.004140e+00
1.310867e+01	-3.029343e+00
1.318439e+01	-3.054509e+00
1.326054e+01	-3.079812e+00
1.333713e+01	-3.105220e+00
1.341417e+01	-3.130917e+00
1.349165e+01	-3.156732e+00
1.356958e+01	-3.182413e+00
1.364795e+01	-3.208725e+00
1.372678e+01	-3.234734e+00
1.380607e+01	-3.261086e+00
1.388581e+01	-3.287696e+00
1.396602e+01	-3.314205e+00
1.404668e+01	-3.341078e+00
1.412782e+01	-3.368147e+00
1.420942e+01	-3.394804e+00
1.429149e+01	-3.422476e+00
1.437404e+01	-3.449416e+00
1.445706e+01	-3.477264e+00
1.454057e+01	-3.504879e+00
1.462455e+01	-3.532655e+00
1.470902e+01	-3.560453e+00
1.479398e+01	-3.588702e+00
1.487943e+01	-3.616933e+00
1.496537e+01	-3.644869e+00
1.505181e+01	-3.673479e+00
1.513875e+01	-3.702161e+00
1.522619e+01	-3.730896e+00
1.531414e+01	-3.759634e+00
1.540259e+01	-3.788770e+00
1.549156e+01	-3.818130e+00
1.558103e+01	-3.847444e+00
1.567103e+01	-3.876992e+00
1.576155e+01	-3.905929e+00
1.585258e+01	-3.936373e+00
1.594415e+01	-3.966103e+00
1.603624e+01	-3.996113e+00
1.612886e+01	-4.026136e+00
1.622202e+01	-4.056680e+00
1.631572e+01	-4.087118e+00
1.640996e+01	-4.117952e+00
1.650474e+01	-4.148155e+00
1.660008e+01	-4.179417e+00
1.669596e+01	-4.210245e+00
1.679239e+01	-4.241148e+00
1.688938e+01	-4.272391e+00
1.698694e+01	-4.304027e+00
1.708505e+01	-4.335641e+00
1.718373e+01	-4.367219e+00
1.728299e+01	-4.399065e+00
1.738281e+01	-4.430786e+00
1.748322e+01	-4.462914e+00
1.758420e+01	-4.495035e+00
1.768576e+01	-4.527477e+00
1.778792e+01	-4.559834e+00
1.789066e+01	-4.592534e+00
1.799399e+01	-4.624973e+00
1.809793e+01	-4.657951e+00
1.820246e+01	-4.690758e+00
1.830760e+01	-4.724131e+00
1.841334e+01	-4.757356e+00
1.851969e+01	-4.790157e+00
1.862666e+01	-4.824153e+00
1.873425e+01	-4.857556e+00
1.884246e+01	-4.891483e+00
1.895129e+01	-4.925328e+00
1.906075e+01	-4.959099e+00
1.917085e+01	-4.993672e+00
1.928158e+01	-5.027743e+00
1.939295e+01	-5.062041e+00
1.950496e+01	-5.096685e+00
1.961762e+01	-5.131339e+00
1.973093e+01	-5.165922e+00
1.984490e+01	-5.200677e+00
1.995952e+01	-5.235625e+00
2.007480e+01	-5.271021e+00
2.019076e+01	-5.306007e+00
2.030738e+01	-5.341583e+00
2.042467e+01	-5.377016e+00
2.054264e+01	-5.412602e+00
2.066130e+01	-5.448106e+00
2.078064e+01	-5.483852e+00
2.090066e+01	-5.519952e+00
2.102139e+01	-5.555928e+00
2.114280e+01	-5.592189e+00
2.126492e+01	-5.628335e+00
2.138775e+01	-5.664894e+00
2.151128e+01	-5.701264e+00
2.163553e+01	-5.737882e+00
2.176050e+01	-5.774881e+00
2.188619e+01	-5.811438e+00
2.201260e+01	-5.848630e+00
2.213974e+01	-5.885300e+00
2.226762e+01	-5.923018e+00
2.239624e+01	-5.959877e+00
2.252560e+01	-5.997396e+00
2.265571e+01	-6.035080e+00
2.278656e+01	-6.072435e+00
2.291818e+01	-6.110674e+00
2.305055e+01	-6.148102e+00
2.318369e+01	-6.185944e+00
2.331760e+01	-6.224172e+00
2.345228e+01	-6.262035e+00
2.358774e+01	-6.300472e+00
2.372398e+01	-6.338559e+00
2.386101e+01	-6.377376e+00
2.399883e+01	-6.415930e+00
2.413745e+01	-6.454421e+00
2.427686e+01	-6.493113e+00
2.441709e+01	-6.532211e+00
2.455812e+01	-6.571031e+00
2.469997e+01	-6.610124e+00
2.484263e+01	-6.649377e+00
2.498612e+01	-6.688226e+00
2.513044e+01	-6.727713e+00
2.527559e+01	-6.767395e+00
2.542158e+01	-6.806875e+00
2.556842e+01	-6.846367e+00
2.571610e+01	-6.886053e+00
2.586463e+01	-6.925970e+00
2.601403e+01	-6.965728e+00
2.616428e+01	-7.005976e+00
2.631541e+01	-7.046607e+00
2.646740e+01	-7.086454e+00
2.662028e+01	-7.126663e+00
2.677404e+01	-7.166977e+00
2.692868e+01	-7.207315e+00
2.708422e+01	-7.248258e+00
2.724066e+01	-7.288615e+00
2.739800e+01	-7.329127e+00
2.755625e+01	-7.370180e+00
2.771541e+01	-7.411075e+00
2.787550e+01	-7.451928e+00
2.803650e+01	-7.493264e+00
2.819844e+01	-7.534430e+00
2.836131e+01	-7.575545e+00
2.852513e+01	-7.617128e+00
2.868989e+01	-7.658198e+00
2.885560e+01	-7.699706e+00
2.902227e+01	-7.741078e+00
2.918990e+01	-7.783122e+00
2.935850e+01	-7.824217e+00
2.952807e+01	-7.866343e+00
2.969863e+01	-7.908274e+00
2.987016e+01	-7.950359e+00
3.004269e+01	-7.992570e+00
3.021622e+01	-8.034414e+00
3.039075e+01	-8.076450e+00
3.056628e+01	-8.119052e+00
3.074283e+01	-8.161298e+00
3.092040e+01	-8.203906e+00
3.109900e+01	-8.246273e+00
3.127862e+01	-8.288906e+00
3.145929e+01	-8.331457e+00
3.164099e+01	-8.374239e+00
3.182375e+01	-8.417164e+00
3.200756e+01	-8.459862e+00
3.219244e+01	-8.502771e+00
3.237838e+01	-8.545684e+00
3.256540e+01	-8.588405e+00
3.275349e+01	-8.632067e+00
3.294268e+01	-8.674931e+00
3.313295e+01	-8.718550e+00
3.332433e+01	-8.761989e+00
3.351681e+01	-8.805223e+00
3.371040e+01	-8.848378e+00
3.390511e+01	-8.891954e+00
3.410094e+01	-8.935732e+00
3.429791e+01	-8.979437e+00
3.449601e+01	-9.023500e+00
3.469526e+01	-9.067201e+00
3.489566e+01	-9.110561e+00
3.509721e+01	-9.154621e+00
3.529993e+01	-9.198472e+00
3.550382e+01	-9.242892e+00
3.570889e+01	-9.286957e+00
3.591515e+01	-9.331284e+00
3.612259e+01	-9.375256e+00
3.633123e+01	-9.419169e+00
3.654108e+01	-9.464034e+00
3.675214e+01	-9.508238e+00
3.696442e+01	-9.552615e+00
3.717792e+01	-9.596594e+00
3.739266e+01	-9.641421e+00
3.760864e+01	-9.686327e+00
3.782587e+01	-9.731493e+00
3.804435e+01	-9.775535e+00
3.826409e+01	-9.820770e+00
3.848510e+01	-9.865514e+00
3.870739e+01	-9.910309e+00
3.893096e+01	-9.955548e+00
3.915583e+01	-1.000036e+01
3.938199e+01	-1.004511e+01
3.960946e+01	-1.009041e+01
3.983824e+01	-1.013517e+01
4.006834e+01	-1.018099e+01
4.029978e+01	-1.022640e+01
4.053255e+01	-1.027051e+01
4.076666e+01	-1.031639e+01
4.100213e+01	-1.036191e+01
4.123896e+01	-1.040718e+01
4.147715e+01	-1.045250e+01
4.171672e+01	-1.049883e+01
4.195767e+01	-1.054403e+01
4.220002e+01	-1.059019e+01
4.244377e+01	-1.063559e+01
4.268892e+01	-1.068127e+01
4.293549e+01	-1.072665e+01
4.318348e+01	-1.077258e+01
4.343291e+01	-1.081906e+01
4.368377e+01	-1.086461e+01
4.393609e+01	-1.091072e+01
4.418986e+01	-1.095701e+01
4.444510e+01	-1.100223e+01
4.470182e+01	-1.104922e+01
4.496001e+01	-1.109443e+01
4.521970e+01	-1.114028e+01
4.548089e+01	-1.118665e+01
4.574358e+01	-1.123318e+01
4.600779e+01	-1.127917e+01
4.627353e+01	-1.132602e+01
4.654081e+01	-1.137193e+01
4.680963e+01	-1.141871e+01
4.708000e+01	-1.146488e+01
4.735193e+01	-1.151111e+01
4.762543e+01	-1.155805e+01
4.790051e+01	-1.160493e+01
4.817719e+01	-1.165102e+01
4.845545e+01	-1.169760e+01
4.873533e+01	-1.174440e+01
4.901682e+01	-1.179114e+01
4.929994e+01	-1.183777e+01
4.958470e+01	-1.188459e+01
4.987110e+01	-1.193123e+01
5.015915e+01	-1.197892e+01
5.044887e+01	-1.202474e+01
5.074026e+01	-1.207283e+01
5.103333e+01	-1.211922e+01
5.132810e+01	-1.216527e+01
5.162457e+01	-1.221358e+01
5.192275e+01	-1.226027e+01
5.222265e+01	-1.230758e+01
5.252429e+01	-1.235440e+01
5.282767e+01	-1.240131e+01
5.313280e+01	-1.244814e+01
5.343969e+01	-1.249578e+01
5.374836e+01	-1.254284e+01
5.405880e+01	-1.259057e+01
5.437105e+01	-1.263741e+01
5.468509e+01	-1.268482e+01
5.500095e+01	-1.273215e+01
5.531863e+01	-1.277981e+01
5.563815e+01	-1.282676e+01
5.595951e+01	-1.287513e+01
5.628273e+01	-1.292217e+01
5.660782e+01	-1.296946e+01
5.693479e+01	-1.301690e+01
5.726364e+01	-1.306542e+01
5.759439e+01	-1.311180e+01
5.792705e+01	-1.315997e+01
5.826164e+01	-1.320670e+01
5.859815e+01	-1.325419e+01
5.893662e+01	-1.330325e+01
5.927703e+01	-1.335009e+01
5.961941e+01	-1.339746e+01
5.996377e+01	-1.344573e+01
6.031012e+01	-1.349285e+01
6.065847e+01	-1.354228e+01
6.100883e+01	-1.358899e+01
6.136121e+01	-1.363730e+01
6.171563e+01	-1.368542e+01
6.207210e+01	-1.373234e+01
6.243063e+01	-1.378051e+01
6.279122e+01	-1.382889e+01
6.315390e+01	-1.387666e+01
6.351868e+01	-1.392491e+01
6.388556e+01	-1.397314e+01
6.425456e+01	-1.402113e+01
6.462569e+01	-1.406855e+01
6.499897e+01	-1.411644e+01
6.537440e+01	-1.416477e+01
6.575200e+01	-1.421293e+01
6.613178e+01	-1.426107e+01
6.651375e+01	-1.430931e+01
6.689793e+01	-1.435702e+01
6.728433e+01	-1.440533e+01
6.767297e+01	-1.445398e+01
6.806384e+01	-1.450176e+01
6.845698e+01	-1.454999e+01
6.885238e+01	-1.459923e+01
6.925007e+01	-1.464693e+01
6.965005e+01	-1.469498e+01
7.005235e+01	-1.474347e+01
7.045697e+01	-1.479178e+01
7.086393e+01	-1.484118e+01
7.127323e+01	-1.488884e+01
7.168490e+01	-1.493786e+01
7.209895e+01	-1.498543e+01
7.251539e+01	-1.503493e+01
7.293424e+01	-1.508273e+01
7.335551e+01	-1.513157e+01
7.377920e+01	-1.517966e+01
7.420535e+01	-1.522737e+01
7.463396e+01	-1.527657e+01
7.506504e+01	-1.532468e+01
7.549861e+01	-1.537410e+01
7.593469e+01	-1.542189e+01
7.637328e+01	-1.547102e+01
7.681441e+01	-1.551942e+01
7.725809e+01	-1.556773e+01
7.770433e+01	-1.561703e+01
7.815315e+01	-1.566518e+01
7.860456e+01	-1.571516e+01
7.905857e+01	-1.576321e+01
7.951521e+01	-1.581107e+01
7.997449e+01	-1.585988e+01
8.043642e+01	-1.590822e+01
8.090102e+01	-1.595711e+01
8.136830e+01	-1.600687e+01
8.183828e+01	-1.605520e+01
8.231097e+01	-1.610441e+01
8.278640e+01	-1.615208e+01
8.326457e+01	-1.620149e+01
8.374550e+01	-1.625122e+01
8.422921e+01	-1.630009e+01
8.471572e+01	-1.634950e+01
8.520503e+01	-1.639778e+01
8.569717e+01	-1.644601e+01
8.619215e+01	-1.649609e+01
8.669000e+01	-1.654359e+01
8.719071e+01	-1.659240e+01
8.769432e+01	-1.664234e+01
8.820084e+01	-1.669102e+01
8.871029e+01	-1.673865e+01
8.922267e+01	-1.678763e+01
8.973802e+01	-1.683708e+01
9.025634e+01	-1.688588e+01
9.077766e+01	-1.693684e+01
9.130199e+01	-1.698370e+01
9.182935e+01	-1.703362e+01
9.235975e+01	-1.708189e+01
9.289321e+01	-1.713123e+01
9.342976e+01	-1.718115e+01
9.396941e+01	-1.723092e+01
9.451217e+01	-1.727864e+01
9.505807e+01	-1.732752e+01
9.560712e+01	-1.737656e+01
9.615934e+01	-1.742703e+01
9.671476e+01	-1.747488e+01
9.727338e+01	-1.752478e+01
9.783522e+01	-1.757393e+01
9.840032e+01	-1.762253e+01
9.896867e+01	-1.767236e+01
9.954031e+01	-1.772096e+01
1.001153e+02	-1.777031e+01
1.006935e+02	-1.781823e+01
1.012751e+02	-1.786960e+01
1.018601e+02	-1.791866e+01
1.024484e+02	-1.796766e+01
1.030402e+02	-1.801610e+01
1.036353e+02	-1.806614e+01
1.042339e+02	-1.811414e+01
1.048360e+02	-1.816442e+01
1.054415e+02	-1.821405e+01
1.060505e+02	-1.826237e+01
1.066631e+02	-1.831222e+01
1.072791e+02	-1.836203e+01
1.078988e+02	-1.841057e+01
1.085220e+02	-1.845920e+01
1.091488e+02	-1.850955e+01
1.097793e+02	-1.855907e+01
1.104133e+02	-1.860751e+01
1.110511e+02	-1.865763e+01
1.116925e+02	-1.870782e+01
1.123376e+02	-1.875644e+01
1.129865e+02	-1.880612e+01
1.136391e+02	-1.885654e+01
1.142955e+02	-1.890432e+01
1.149556e+02	-1.895465e+01
1.156196e+02	-1.900177e+01
1.162874e+02	-1.905301e+01
1.169591e+02	-1.910306e+01
1.176347e+02	-1.915182e+01
1.183141e+02	-1.920149e+01
1.189975e+02	-1.924909e+01
1.196848e+02	-1.930045e+01
1.203761e+02	-1.934874e+01
1.210714e+02	-1.939938e+01
1.217707e+02	-1.944752e+01
1.224740e+02	-1.949716e+01
1.231814e+02	-1.954797e+01
1.238929e+02	-1.959826e+01
1.246085e+02	-1.964414e+01
1.253283e+02	-1.969544e+01
1.260522e+02	-1.974464e+01
1.267802e+02	-1.979464e+01
1.275125e+02	-1.984277e+01
1.282490e+02	-1.989333e+01
1.289898e+02	-1.994479e+01
1.297348e+02	-1.999179e+01
1.304842e+02	-2.004283e+01
1.312378e+02	-2.009281e+01
1.319959e+02	-2.014135e+01
1.327583e+02	-2.019107e+01
1.335251e+02	-2.023934e+01
1.342963e+02	-2.029147e+01
1.350720e+02	-2.033925e+01
1.358522e+02	-2.038842e+01
1.366368e+02	-2.043861e+01
1.374260e+02	-2.048825e+01
1.382198e+02	-2.053586e+01
1.390182e+02	-2.058692e+01
1.398211e+02	-2.063716e+01
1.406287e+02	-2.068846e+01
1.414410e+02	-2.073641e+01
1.422579e+02	-2.078731e+01
1.430796e+02	-2.083498e+01
1.439060e+02	-2.088510e+01
1.447372e+02	-2.093372e+01
1.455732e+02	-2.098524e+01
1.464141e+02	-2.103456e+01
1.472597e+02	-2.108436e+01
1.481103e+02	-2.113415e+01
1.489658e+02	-2.118344e+01
1.498262e+02	-2.123306e+01
1.506916e+02	-2.128212e+01
1.515620e+02	-2.133316e+01
1.524374e+02	-2.138192e+01
1.533179e+02	-2.143277e+01
1.542034e+02	-2.148207e+01
1.550941e+02	-2.153187e+01
1.559899e+02	-2.157928e+01
1.568909e+02	-2.162951e+01
1.577971e+02	-2.167907e+01
1.587085e+02	-2.172900e+01
1.596252e+02	-2.177940e+01
1.605472e+02	-2.182857e+01
1.614745e+02	-2.187918e+01
1.624072e+02	-2.192971e+01
1.633453e+02	-2.198012e+01
1.642887e+02	-2.202768e+01
1.652377e+02	-2.207723e+01
1.661921e+02	-2.212828e+01
1.671520e+02	-2.217779e+01
1.681175e+02	-2.222861e+01
1.690885e+02	-2.227741e+01
1.700651e+02	-2.232723e+01
1.710474e+02	-2.237606e+01
1.720354e+02	-2.242579e+01
1.730291e+02	-2.247524e+01
1.740285e+02	-2.252442e+01
1.750337e+02	-2.257509e+01
1.760446e+02	-2.262473e+01
1.770615e+02	-2.267361e+01
1.780842e+02	-2.272567e+01
1.791128e+02	-2.277275e+01
1.801473e+02	-2.282495e+01
1.811878e+02	-2.287272e+01
1.822344e+02	-2.292366e+01
1.832870e+02	-2.297254e+01
1.843456e+02	-2.302404e+01
1.854104e+02	-2.307179e+01
1.864813e+02	-2.312228e+01
1.875584e+02	-2.317333e+01
1.886418e+02	-2.322148e+01
1.897313e+02	-2.327352e+01
1.908272e+02	-2.332198e+01
1.919294e+02	-2.337484e+01
1.930380e+02	-2.342321e+01
1.941530e+02	-2.347053e+01
1.952744e+02	-2.352028e+01
1.964023e+02	-2.356982e+01
1.975367e+02	-2.362090e+01
1.986777e+02	-2.367131e+01
1.998252e+02	-2.372333e+01
2.009794e+02	-2.377026e+01
2.021403e+02	-2.381910e+01
2.033078e+02	-2.387094e+01
2.044821e+02	-2.392345e+01
2.056632e+02	-2.397206e+01
2.068511e+02	-2.402097e+01
2.080459e+02	-2.406988e+01
2.092475e+02	-2.412112e+01
2.104561e+02	-2.417019e+01
2.116717e+02	-2.421768e+01
2.128943e+02	-2.427107e+01
2.141240e+02	-2.432232e+01
2.153608e+02	-2.436913e+01
2.166047e+02	-2.441930e+01
2.178558e+02	-2.446890e+01
2.191141e+02	-2.451992e+01
2.203797e+02	-2.456780e+01
2.216526e+02	-2.461829e+01
2.229329e+02	-2.466780e+01
2.242205e+02	-2.471878e+01
2.255156e+02	-2.477049e+01
2.268182e+02	-2.481644e+01
2.281283e+02	-2.486477e+01
2.294459e+02	-2.491750e+01
2.307712e+02	-2.496959e+01
2.321041e+02	-2.501612e+01
2.334447e+02	-2.506849e+01
2.347931e+02	-2.511770e+01
2.361493e+02	-2.516516e+01
2.375133e+02	-2.521657e+01
2.388851e+02	-2.526605e+01
2.402649e+02	-2.531805e+01
2.416527e+02	-2.536514e+01
2.430484e+02	-2.541444e+01
2.444523e+02	-2.546723e+01
2.458642e+02	-2.551765e+01
2.472843e+02	-2.556595e+01
2.487126e+02	-2.561736e+01
2.501492e+02	-2.566653e+01
2.515940e+02	-2.571514e+01
2.530472e+02	-2.576381e+01
2.545088e+02	-2.581652e+01
2.559789e+02	-2.586607e+01
2.574574e+02	-2.591822e+01
2.589444e+02	-2.596499e+01
2.604401e+02	-2.601630e+01
2.619444e+02	-2.606628e+01
2.634574e+02	-2.611544e+01
2.649791e+02	-2.616404e+01
2.665096e+02	-2.621698e+01
2.680489e+02	-2.626321e+01
2.695972e+02	-2.631299e+01
2.711544e+02	-2.636510e+01
2.727205e+02	-2.641627e+01
2.742958e+02	-2.646633e+01
2.758801e+02	-2.651546e+01
2.774736e+02	-2.656566e+01
2.790762e+02	-2.661348e+01
2.806882e+02	-2.666797e+01
2.823094e+02	-2.671957e+01
2.839400e+02	-2.676527e+01
2.855800e+02	-2.681432e+01
2.872295e+02	-2.686439e+01
2.888886e+02	-2.691696e+01
2.905572e+02	-2.696588e+01
2.922354e+02	-2.701488e+01
2.939234e+02	-2.706693e+01
2.956211e+02	-2.711639e+01
2.973286e+02	-2.716772e+01
2.990459e+02	-2.721455e+01
3.007732e+02	-2.726532e+01
3.025104e+02	-2.731685e+01
3.042577e+02	-2.736753e+01
3.060151e+02	-2.741447e+01
3.077826e+02	-2.747061e+01
3.095604e+02	-2.751711e+01
3.113484e+02	-2.756497e+01
3.131467e+02	-2.761351e+01
3.149554e+02	-2.766545e+01
3.167746e+02	-2.771926e+01
3.186043e+02	-2.776730e+01
3.204445e+02	-2.781332e+01
3.222954e+02	-2.786591e+01
3.241570e+02	-2.791564e+01
3.260293e+02	-2.796494e+01
3.279124e+02	-2.801366e+01
3.298064e+02	-2.806659e+01
3.317114e+02	-2.811541e+01
3.336273e+02	-2.816557e+01
3.355544e+02	-2.821441e+01
3.374925e+02	-2.826725e+01
3.394418e+02	-2.831229e+01
3.414024e+02	-2.836784e+01
3.433744e+02	-2.841203e+01
3.453577e+02	-2.846398e+01
3.473525e+02	-2.851629e+01
3.493588e+02	-2.856979e+01
3.513766e+02	-2.861358e+01
3.534062e+02	-2.866456e+01
3.554474e+02	-2.871625e+01
3.575005e+02	-2.876476e+01
3.595654e+02	-2.881773e+01
3.616422e+02	-2.886226e+01
3.637311e+02	-2.891749e+01
3.658320e+02	-2.896689e+01
3.679450e+02	-2.901364e+01
3.700702e+02	-2.906647e+01
3.722077e+02	-2.912146e+01
3.743576e+02	-2.917071e+01
3.765199e+02	-2.921538e+01
3.786946e+02	-2.926421e+01
3.808820e+02	-2.931523e+01
3.830819e+02	-2.936994e+01
3.852946e+02	-2.941702e+01
3.875200e+02	-2.946817e+01
3.897583e+02	-2.952108e+01
3.920096e+02	-2.956268e+01
3.942738e+02	-2.961622e+01
3.965511e+02	-2.966570e+01
3.988416e+02	-2.972181e+01
4.011452e+02	-2.976793e+01
4.034622e+02	-2.981832e+01
4.057926e+02	-2.986637e+01
4.081365e+02	-2.991981e+01
4.104938e+02	-2.997068e+01
4.128648e+02	-3.002286e+01
4.152495e+02	-3.006798e+01
4.176480e+02	-3.011638e+01
4.200603e+02	-3.017110e+01
4.224866e+02	-3.022234e+01
4.249268e+02	-3.027331e+01
4.273812e+02	-3.031731e+01
4.298497e+02	-3.037121e+01
4.323325e+02	-3.042414e+01
4.348297e+02	-3.046493e+01
4.373412e+02	-3.052056e+01
4.398673e+02	-3.057057e+01
4.424079e+02	-3.062062e+01
4.449633e+02	-3.067256e+01
4.475334e+02	-3.072024e+01
4.501183e+02	-3.076707e+01
4.527182e+02	-3.082435e+01
4.553330e+02	-3.087514e+01
4.579630e+02	-3.092501e+01
4.606082e+02	-3.096867e+01
4.632687e+02	-3.101874e+01
4.659445e+02	-3.107255e+01
4.686358e+02	-3.111917e+01
4.713426e+02	-3.117206e+01
4.740650e+02	-3.121491e+01
4.768032e+02	-3.126810e+01
4.795572e+02	-3.132497e+01
4.823271e+02	-3.136856e+01
4.851130e+02	-3.142751e+01
4.879150e+02	-3.146919e+01
4.907332e+02	-3.152400e+01
4.935676e+02	-3.157701e+01
4.964185e+02	-3.162100e+01
4.992858e+02	-3.167479e+01
5.021696e+02	-3.172158e+01
5.050701e+02	-3.176635e+01
5.079874e+02	-3.183054e+01
5.109215e+02	-3.187512e+01
5.138726e+02	-3.192534e+01
5.168407e+02	-3.197412e+01
5.198259e+02	-3.201994e+01
5.228284e+02	-3.208130e+01
5.258482e+02	-3.212511e+01
5.288855e+02	-3.216963e+01
5.319403e+02	-3.222284e+01
5.350128e+02	-3.227615e+01
5.381030e+02	-3.232379e+01
5.412111e+02	-3.237655e+01
5.443371e+02	-3.243095e+01
5.474812e+02	-3.247795e+01
5.506434e+02	-3.253132e+01
5.538239e+02	-3.258284e+01
5.570228e+02	-3.263103e+01
5.602401e+02	-3.267878e+01
5.634760e+02	-3.272299e+01
5.667306e+02	-3.278618e+01
5.700040e+02	-3.282790e+01
5.732964e+02	-3.287367e+01
5.766077e+02	-3.292670e+01
5.799382e+02	-3.297823e+01
5.832879e+02	-3.302943e+01
5.866569e+02	-3.307977e+01
5.900454e+02	-3.312998e+01
5.934535e+02	-3.318154e+01
5.968813e+02	-3.322678e+01
6.003288e+02	-3.327368e+01
6.037963e+02	-3.333681e+01
6.072838e+02	-3.338045e+01
6.107914e+02	-3.343384e+01
6.143194e+02	-3.347872e+01
6.178676e+02	-3.352606e+01
6.214364e+02	-3.358781e+01
6.250258e+02	-3.363865e+01
6.286359e+02	-3.368914e+01
6.322669e+02	-3.373221e+01
6.359189e+02	-3.378600e+01
6.395919e+02	-3.383910e+01
6.432862e+02	-3.388352e+01
6.470017e+02	-3.392831e+01
6.507388e+02	-3.398804e+01
6.544974e+02	-3.402875e+01
6.582778e+02	-3.408166e+01
6.620800e+02	-3.413653e+01
6.659041e+02	-3.418066e+01
6.697504e+02	-3.424570e+01
6.736188e+02	-3.429211e+01
6.775096e+02	-3.433463e+01
6.814229e+02	-3.439553e+01
6.853587e+02	-3.444754e+01
6.893173e+02	-3.449288e+01
6.932988e+02	-3.454350e+01
6.973033e+02	-3.458846e+01
7.013309e+02	-3.463951e+01
