Frequency(Hz)	Magnitude(dB)
1.000000e+01	-2.214820e+00
1.005776e+01	-2.234861e+00
1.011585e+01	-2.254937e+00
1.017428e+01	-2.275277e+00
1.023305e+01	-2.295743e+00
1.029215e+01	-2.316301e+00
1.035160e+01	-2.336921e+00
1.041139e+01	-2.358178e+00
1.047153e+01	-2.378984e+00
1.053201e+01	-2.400209e+00
1.059284e+01	-2.421567e+00
1.065403e+01	-2.442850e+00
1.071556e+01	-2.464559e+00
1.077746e+01	-2.486136e+00
1.083971e+01	-2.508103e+00
1.090232e+01	-2.530205e+00
1.096529e+01	-2.552399e+00
1.102862e+01	-2.574675e+00
1.109232e+01	-2.597239e+00
1.115639e+01	-2.619691e+00
1.122083e+01	-2.642469e+00
1.128564e+01	-2.665077e+00
1.135083e+01	-2.688322e+00
1.141639e+01	-2.711324e+00
1.148233e+01	-2.734822e+00
1.154865e+01	-2.758212e+00
1.161536e+01	-2.781868e+00
1.168245e+01	-2.805621e+00
1.174992e+01	-2.829362e+00
1.181779e+01	-2.853328e+00
1.188605e+01	-2.877720e+00
1.195470e+01	-2.901871e+00
1.202375e+01	-2.926478e+00
1.209320e+01	-2.950988e+00
1.216305e+01	-2.975453e+00
1.223330e+01	-3.000430e+00
1.230396e+01	-3.025485e+00
1.237503e+01	-3.050700e+00
1.244651e+01	-3.076157e+00
1.251840e+01	-3.101635e+00
1.259070e+01	-3.127156e+00
1.266343e+01	-3.153061e+00
1.273657e+01	-3.178904e+00
1.281014e+01	-3.205130e+00
1.288413e+01	-3.231068e+00
1.295855e+01	-3.257480e+00
1.303339e+01	-3.283815e+00
1.310867e+01	-3.310449e+00
1.318439e+01	-3.337351e+00
1.326054e+01	-3.363983e+00
1.333713e+01	-3.391112e+00
1.341417e+01	-3.418175e+00
1.349165e+01	-3.445744e+00
1.356958e+01	-3.473107e+00
1.364795e+01	-3.500674e+00
1.372678e+01	-3.528510e+00
1.380607e+01	-3.556235e+00
1.388581e+01	-3.584307e+00
1.396602e+01	-3.612536e+00
1.404668e+01	-3.640745e+00
1.412782e+01	-3.669428e+00
1.420942e+01	-3.697996e+00
1.429149e+01	-3.726811e+00
1.437404e+01	-3.755776e+00
1.445706e+01	-3.784437e+00
1.454057e+01	-3.813893e+00
1.462455e+01	-3.843220e+00
1.470902e+01	-3.872599e+00
1.479398e+01	-3.902097e+00
1.487943e+01	-3.931932e+00
1.496537e+01	-3.961918e+00
1.505181e+01	-3.991854e+00
1.513875e+01	-4.021911e+00
1.522619e+01	-4.052098e+00
1.531414e+01	-4.082679e+00
1.540259e+01	-4.112978e+00
1.549156e+01	-4.143563e+00
1.558103e+01	-4.174504e+00
1.567103e+01	-4.205486e+00
1.576155e+01	-4.236475e+00
1.585258e+01	-4.267995e+00
1.594415e+01	-4.299359e+00
1.603624e+01	-4.330656e+00
1.612886e+01	-4.362484e+00
1.622202e+01	-4.394414e+00
1.631572e+01	-4.426252e+00
1.640996e+01	-4.458061e+00
1.650474e+01	-4.490413e+00
1.660008e+01	-4.523004e+00
1.669596e+01	-4.554944e+00
1.679239e+01	-4.587630e+00
1.688938e+01	-4.620301e+00
1.698694e+01	-4.652883e+00
1.708505e+01	-4.685909e+00
1.718373e+01	-4.719024e+00
1.728299e+01	-4.752548e+00
1.738281e+01	-4.785724e+00
1.748322e+01	-4.819543e+00
1.758420e+01	-4.852720e+00
1.768576e+01	-4.886493e+00
1.778792e+01	-4.920497e+00
1.789066e+01	-4.954521e+00
1.799399e+01	-4.988256e+00
1.809793e+01	-5.022444e+00
1.820246e+01	-5.056849e+00
1.830760e+01	-5.091442e+00
1.841334e+01	-5.126041e+00
1.851969e+01	-5.160904e+00
1.862666e+01	-5.195681e+00
1.873425e+01	-5.230731e+00
1.884246e+01	-5.265575e+00
1.895129e+01	-5.300820e+00
1.906075e+01	-5.336268e+00
1.917085e+01	-5.371868e+00
1.928158e+01	-5.407454e+00
1.939295e+01	-5.443062e+00
1.950496e+01	-5.479105e+00
1.961762e+01	-5.514606e+00
1.973093e+01	-5.550608e+00
1.984490e+01	-5.586986e+00
1.995952e+01	-5.623337e+00
2.007480e+01	-5.659406e+00
2.019076e+01	-5.696030e+00
2.030738e+01	-5.732805e+00
2.042467e+01	-5.769139e+00
2.054264e+01	-5.806166e+00
2.066130e+01	-5.843030e+00
2.078064e+01	-5.880099e+00
2.090066e+01	-5.917353e+00
2.102139e+01	-5.954391e+00
2.114280e+01	-5.991958e+00
2.126492e+01	-6.029462e+00
2.138775e+01	-6.066780e+00
2.151128e+01	-6.104843e+00
2.163553e+01	-6.142758e+00
2.176050e+01	-6.180603e+00
2.188619e+01	-6.218531e+00
2.201260e+01	-6.256816e+00
2.213974e+01	-6.294849e+00
2.226762e+01	-6.333626e+00
2.239624e+01	-6.371659e+00
2.252560e+01	-6.410214e+00
2.265571e+01	-6.448791e+00
2.278656e+01	-6.487780e+00
2.291818e+01	-6.526634e+00
2.305055e+01	-6.565183e+00
2.318369e+01	-6.604254e+00
2.331760e+01	-6.643533e+00
2.345228e+01	-6.682821e+00
2.358774e+01	-6.722137e+00
2.372398e+01	-6.761460e+00
2.386101e+01	-6.800824e+00
2.399883e+01	-6.840581e+00
2.413745e+01	-6.880880e+00
2.427686e+01	-6.920306e+00
2.441709e+01	-6.960092e+00
2.455812e+01	-7.000196e+00
2.469997e+01	-7.039940e+00
2.484263e+01	-7.080435e+00
2.498612e+01	-7.120412e+00
2.513044e+01	-7.160960e+00
2.527559e+01	-7.201809e+00
2.542158e+01	-7.241875e+00
2.556842e+01	-7.282798e+00
2.571610e+01	-7.323263e+00
2.586463e+01	-7.364175e+00
2.601403e+01	-7.405374e+00
2.616428e+01	-7.445861e+00
2.631541e+01	-7.487282e+00
2.646740e+01	-7.528332e+00
2.662028e+01	-7.569508e+00
2.677404e+01	-7.610558e+00
2.692868e+01	-7.652343e+00
2.708422e+01	-7.693493e+00
2.724066e+01	-7.735330e+00
2.739800e+01	-7.776705e+00
2.755625e+01	-7.818173e+00
2.771541e+01	-7.860372e+00
2.787550e+01	-7.902359e+00
2.803650e+01	-7.944291e+00
2.819844e+01	-7.986590e+00
2.836131e+01	-8.028717e+00
2.852513e+01	-8.070887e+00
2.868989e+01	-8.112519e+00
2.885560e+01	-8.155080e+00
2.902227e+01	-8.197927e+00
2.918990e+01	-8.239704e+00
2.935850e+01	-8.282807e+00
2.952807e+01	-8.325116e+00
2.969863e+01	-8.368190e+00
2.987016e+01	-8.411103e+00
3.004269e+01	-8.453352e+00
3.021622e+01	-8.496477e+00
3.039075e+01	-8.539229e+00
3.056628e+01	-8.582344e+00
3.074283e+01	-8.625858e+00
3.092040e+01	-8.668917e+00
3.109900e+01	-8.712016e+00
3.127862e+01	-8.755774e+00
3.145929e+01	-8.798867e+00
3.164099e+01	-8.841625e+00
3.182375e+01	-8.886063e+00
3.200756e+01	-8.929200e+00
3.219244e+01	-8.973222e+00
3.237838e+01	-9.017557e+00
3.256540e+01	-9.060947e+00
3.275349e+01	-9.104407e+00
3.294268e+01	-9.148108e+00
3.313295e+01	-9.192403e+00
3.332433e+01	-9.236667e+00
3.351681e+01	-9.280477e+00
3.371040e+01	-9.324769e+00
3.390511e+01	-9.368768e+00
3.410094e+01	-9.413187e+00
3.429791e+01	-9.457282e+00
3.449601e+01	-9.502037e+00
3.469526e+01	-9.546109e+00
3.489566e+01	-9.590902e+00
3.509721e+01	-9.635494e+00
3.529993e+01	-9.679608e+00
3.550382e+01	-9.724371e+00
3.570889e+01	-9.769225e+00
3.591515e+01	-9.814067e+00
3.612259e+01	-9.858943e+00
3.633123e+01	-9.903313e+00
3.654108e+01	-9.948444e+00
3.675214e+01	-9.993554e+00
3.696442e+01	-1.003873e+01
3.717792e+01	-1.008388e+01
3.739266e+01	-1.012910e+01
3.760864e+01	-1.017382e+01
3.782587e+01	-1.021931e+01
3.804435e+01	-1.026502e+01
3.826409e+01	-1.031005e+01
3.848510e+01	-1.035578e+01
3.870739e+01	-1.040048e+01
3.893096e+01	-1.044655e+01
3.915583e+01	-1.049185e+01
3.938199e+01	-1.053764e+01
3.960946e+01	-1.058337e+01
3.983824e+01	-1.062885e+01
4.006834e+01	-1.067443e+01
4.029978e+01	-1.072000e+01
4.053255e+01	-1.076604e+01
4.076666e+01	-1.081209e+01
4.100213e+01	-1.085814e+01
4.123896e+01	-1.090392e+01
4.147715e+01	-1.094966e+01
4.171672e+01	-1.099569e+01
4.195767e+01	-1.104195e+01
4.220002e+01	-1.108799e+01
4.244377e+01	-1.113398e+01
4.268892e+01	-1.118032e+01
4.293549e+01	-1.122696e+01
4.318348e+01	-1.127304e+01
4.343291e+01	-1.131930e+01
4.368377e+01	-1.136535e+01
4.393609e+01	-1.141153e+01
4.418986e+01	-1.145842e+01
4.444510e+01	-1.150516e+01
4.470182e+01	-1.155124e+01
4.496001e+01	-1.159742e+01
4.521970e+01	-1.164516e+01
4.548089e+01	-1.169134e+01
4.574358e+01	-1.173824e+01
4.600779e+01	-1.178437e+01
4.627353e+01	-1.183075e+01
4.654081e+01	-1.187770e+01
4.680963e+01	-1.192458e+01
4.708000e+01	-1.197090e+01
4.735193e+01	-1.201862e+01
4.762543e+01	-1.206490e+01
4.790051e+01	-1.211239e+01
4.817719e+01	-1.215915e+01
4.845545e+01	-1.220637e+01
4.873533e+01	-1.225303e+01
4.901682e+01	-1.230014e+01
4.929994e+01	-1.234765e+01
4.958470e+01	-1.239544e+01
4.987110e+01	-1.244157e+01
5.015915e+01	-1.248808e+01
5.044887e+01	-1.253575e+01
5.074026e+01	-1.258379e+01
5.103333e+01	-1.263036e+01
5.132810e+01	-1.267807e+01
5.162457e+01	-1.272544e+01
5.192275e+01	-1.277295e+01
5.222265e+01	-1.282082e+01
5.252429e+01	-1.286739e+01
5.282767e+01	-1.291480e+01
5.313280e+01	-1.296214e+01
5.343969e+01	-1.301014e+01
5.374836e+01	-1.305801e+01
5.405880e+01	-1.310504e+01
5.437105e+01	-1.315227e+01
5.468509e+01	-1.320113e+01
5.500095e+01	-1.324726e+01
5.531863e+01	-1.329542e+01
5.563815e+01	-1.334354e+01
5.595951e+01	-1.339080e+01
5.628273e+01	-1.343864e+01
5.660782e+01	-1.348656e+01
5.693479e+01	-1.353374e+01
5.726364e+01	-1.358275e+01
5.759439e+01	-1.362966e+01
5.792705e+01	-1.367795e+01
5.826164e+01	-1.372585e+01
5.859815e+01	-1.377315e+01
5.893662e+01	-1.382153e+01
5.927703e+01	-1.386983e+01
5.961941e+01	-1.391731e+01
5.996377e+01	-1.396560e+01
6.031012e+01	-1.401338e+01
6.065847e+01	-1.406196e+01
6.100883e+01	-1.410988e+01
6.136121e+01	-1.415815e+01
6.171563e+01	-1.420527e+01
6.207210e+01	-1.425422e+01
6.243063e+01	-1.430208e+01
6.279122e+01	-1.435085e+01
6.315390e+01	-1.439937e+01
6.351868e+01	-1.444669e+01
6.388556e+01	-1.449444e+01
6.425456e+01	-1.454301e+01
6.462569e+01	-1.459121e+01
6.499897e+01	-1.464034e+01
6.537440e+01	-1.468800e+01
6.575200e+01	-1.473638e+01
6.613178e+01	-1.478576e+01
6.651375e+01	-1.483377e+01
6.689793e+01	-1.488179e+01
6.728433e+01	-1.492957e+01
6.767297e+01	-1.497836e+01
6.806384e+01	-1.502712e+01
6.845698e+01	-1.507558e+01
6.885238e+01	-1.512350e+01
6.925007e+01	-1.517281e+01
6.965005e+01	-1.522029e+01
7.005235e+01	-1.526986e+01
7.045697e+01	-1.531862e+01
7.086393e+01	-1.536699e+01
7.127323e+01	-1.541459e+01
7.168490e+01	-1.546308e+01
7.209895e+01	-1.551238e+01
7.251539e+01	-1.556102e+01
7.293424e+01	-1.560919e+01
7.335551e+01	-1.565886e+01
7.377920e+01	-1.570694e+01
7.420535e+01	-1.575606e+01
7.463396e+01	-1.580452e+01
7.506504e+01	-1.585226e+01
7.549861e+01	-1.590087e+01
7.593469e+01	-1.595067e+01
7.637328e+01	-1.599900e+01
7.681441e+01	-1.604839e+01
7.725809e+01	-1.609652e+01
7.770433e+01	-1.614593e+01
7.815315e+01	-1.619389e+01
7.860456e+01	-1.624387e+01
7.905857e+01	-1.629295e+01
7.951521e+01	-1.634046e+01
7.997449e+01	-1.639027e+01
8.043642e+01	-1.643942e+01
8.090102e+01	-1.648779e+01
8.136830e+01	-1.653660e+01
8.183828e+01	-1.658619e+01
8.231097e+01	-1.663486e+01
8.278640e+01	-1.668323e+01
8.326457e+01	-1.673298e+01
8.374550e+01	-1.678156e+01
8.422921e+01	-1.683078e+01
8.471572e+01	-1.687975e+01
8.520503e+01	-1.692868e+01
8.569717e+01	-1.697777e+01
8.619215e+01	-1.702644e+01
8.669000e+01	-1.707565e+01
8.719071e+01	-1.712460e+01
8.769432e+01	-1.717286e+01
8.820084e+01	-1.722381e+01
8.871029e+01	-1.727141e+01
8.922267e+01	-1.732071e+01
8.973802e+01	-1.737093e+01
9.025634e+01	-1.741883e+01
9.077766e+01	-1.746957e+01
9.130199e+01	-1.751828e+01
9.182935e+01	-1.756758e+01
9.235975e+01	-1.761602e+01
9.289321e+01	-1.766437e+01
9.342976e+01	-1.771510e+01
9.396941e+01	-1.776287e+01
9.451217e+01	-1.781250e+01
9.505807e+01	-1.786143e+01
9.560712e+01	-1.791054e+01
9.615934e+01	-1.795949e+01
9.671476e+01	-1.801029e+01
9.727338e+01	-1.805831e+01
9.783522e+01	-1.810864e+01
9.840032e+01	-1.815796e+01
9.896867e+01	-1.820529e+01
9.954031e+01	-1.825533e+01
1.001153e+02	-1.830481e+01
1.006935e+02	-1.835358e+01
1.012751e+02	-1.840421e+01
1.018601e+02	-1.845328e+01
1.024484e+02	-1.850284e+01
1.030402e+02	-1.855268e+01
1.036353e+02	-1.860149e+01
1.042339e+02	-1.865013e+01
1.048360e+02	-1.870025e+01
1.054415e+02	-1.874959e+01
1.060505e+02	-1.879855e+01
1.066631e+02	-1.884856e+01
1.072791e+02	-1.889806e+01
1.078988e+02	-1.894652e+01
1.085220e+02	-1.899618e+01
1.091488e+02	-1.904471e+01
1.097793e+02	-1.909307e+01
1.104133e+02	-1.914364e+01
1.110511e+02	-1.919249e+01
1.116925e+02	-1.924364e+01
1.123376e+02	-1.929345e+01
1.129865e+02	-1.934245e+01
1.136391e+02	-1.939209e+01
1.142955e+02	-1.944173e+01
1.149556e+02	-1.949075e+01
1.156196e+02	-1.953882e+01
1.162874e+02	-1.958777e+01
1.169591e+02	-1.963887e+01
1.176347e+02	-1.968921e+01
1.183141e+02	-1.973760e+01
1.189975e+02	-1.978729e+01
1.196848e+02	-1.983712e+01
1.203761e+02	-1.988579e+01
1.210714e+02	-1.993640e+01
1.217707e+02	-1.998540e+01
1.224740e+02	-2.003505e+01
1.231814e+02	-2.008539e+01
1.238929e+02	-2.013399e+01
1.246085e+02	-2.018305e+01
1.253283e+02	-2.023180e+01
1.260522e+02	-2.028105e+01
1.267802e+02	-2.033063e+01
1.275125e+02	-2.038240e+01
1.282490e+02	-2.043081e+01
1.289898e+02	-2.048117e+01
1.297348e+02	-2.053045e+01
1.304842e+02	-2.058196e+01
1.312378e+02	-2.062973e+01
1.319959e+02	-2.067952e+01
1.327583e+02	-2.072816e+01
1.335251e+02	-2.077943e+01
1.342963e+02	-2.082829e+01
1.350720e+02	-2.087764e+01
1.358522e+02	-2.092730e+01
1.366368e+02	-2.097704e+01
1.374260e+02	-2.102626e+01
1.382198e+02	-2.107830e+01
1.390182e+02	-2.112532e+01
1.398211e+02	-2.117520e+01
1.406287e+02	-2.122609e+01
1.414410e+02	-2.127486e+01
1.422579e+02	-2.132330e+01
1.430796e+02	-2.137439e+01
1.439060e+02	-2.142334e+01
1.447372e+02	-2.147498e+01
1.455732e+02	-2.152339e+01
1.464141e+02	-2.157302e+01
1.472597e+02	-2.162248e+01
1.481103e+02	-2.167214e+01
1.489658e+02	-2.172102e+01
1.498262e+02	-2.177193e+01
1.506916e+02	-2.182218e+01
1.515620e+02	-2.187302e+01
1.524374e+02	-2.192009e+01
1.533179e+02	-2.197319e+01
1.542034e+02	-2.202232e+01
1.550941e+02	-2.207034e+01
1.559899e+02	-2.212194e+01
1.568909e+02	-2.216911e+01
1.577971e+02	-2.221921e+01
1.587085e+02	-2.227058e+01
1.596252e+02	-2.232018e+01
1.605472e+02	-2.236657e+01
1.614745e+02	-2.241845e+01
1.624072e+02	-2.246812e+01
1.633453e+02	-2.251670e+01
1.642887e+02	-2.256770e+01
1.652377e+02	-2.261771e+01
1.661921e+02	-2.266729e+01
1.671520e+02	-2.271581e+01
1.681175e+02	-2.276670e+01
1.690885e+02	-2.281633e+01
1.700651e+02	-2.286592e+01
1.710474e+02	-2.291482e+01
1.720354e+02	-2.296644e+01
1.730291e+02	-2.301483e+01
1.740285e+02	-2.306566e+01
1.750337e+02	-2.311642e+01
1.760446e+02	-2.316419e+01
1.770615e+02	-2.321350e+01
1.780842e+02	-2.326512e+01
1.791128e+02	-2.331518e+01
1.801473e+02	-2.336269e+01
1.811878e+02	-2.341506e+01
1.822344e+02	-2.346270e+01
1.832870e+02	-2.351353e+01
1.843456e+02	-2.356657e+01
1.854104e+02	-2.361489e+01
1.864813e+02	-2.366051e+01
1.875584e+02	-2.371391e+01
1.886418e+02	-2.376279e+01
1.897313e+02	-2.381420e+01
1.908272e+02	-2.386056e+01
1.919294e+02	-2.391164e+01
1.930380e+02	-2.396480e+01
1.941530e+02	-2.401054e+01
1.952744e+02	-2.406188e+01
1.964023e+02	-2.411484e+01
1.975367e+02	-2.416030e+01
1.986777e+02	-2.421149e+01
1.998252e+02	-2.425803e+01
2.009794e+02	-2.431221e+01
2.021403e+02	-2.435968e+01
2.033078e+02	-2.441071e+01
2.044821e+02	-2.445970e+01
2.056632e+02	-2.451185e+01
2.068511e+02	-2.456264e+01
2.080459e+02	-2.461141e+01
2.092475e+02	-2.466154e+01
2.104561e+02	-2.471094e+01
2.116717e+02	-2.476245e+01
2.128943e+02	-2.481047e+01
2.141240e+02	-2.486150e+01
2.153608e+02	-2.491212e+01
2.166047e+02	-2.496191e+01
2.178558e+02	-2.501154e+01
2.191141e+02	-2.506064e+01
2.203797e+02	-2.510967e+01
2.216526e+02	-2.515920e+01
2.229329e+02	-2.520711e+01
2.242205e+02	-2.525915e+01
2.255156e+02	-2.531225e+01
2.268182e+02	-2.536001e+01
2.281283e+02	-2.540612e+01
2.294459e+02	-2.545853e+01
2.307712e+02	-2.550897e+01
2.321041e+02	-2.555790e+01
2.334447e+02	-2.560842e+01
2.347931e+02	-2.565682e+01
2.361493e+02	-2.570864e+01
2.375133e+02	-2.575900e+01
2.388851e+02	-2.581379e+01
2.402649e+02	-2.585695e+01
2.416527e+02	-2.590970e+01
2.430484e+02	-2.596034e+01
2.444523e+02	-2.600698e+01
2.458642e+02	-2.606197e+01
2.472843e+02	-2.610708e+01
2.487126e+02	-2.615814e+01
2.501492e+02	-2.620843e+01
2.515940e+02	-2.625801e+01
2.530472e+02	-2.630764e+01
2.545088e+02	-2.636129e+01
2.559789e+02	-2.640975e+01
2.574574e+02	-2.645509e+01
2.589444e+02	-2.650309e+01
2.604401e+02	-2.656063e+01
2.619444e+02	-2.660939e+01
2.634574e+02	-2.665633e+01
2.649791e+02	-2.670955e+01
2.665096e+02	-2.675816e+01
2.680489e+02	-2.680838e+01
2.695972e+02	-2.685596e+01
2.711544e+02	-2.690901e+01
2.727205e+02	-2.695835e+01
2.742958e+02	-2.700453e+01
2.758801e+02	-2.705904e+01
2.774736e+02	-2.710614e+01
2.790762e+02	-2.715990e+01
2.806882e+02	-2.720920e+01
2.823094e+02	-2.725925e+01
2.839400e+02	-2.730746e+01
2.855800e+02	-2.735914e+01
2.872295e+02	-2.740599e+01
2.888886e+02	-2.745479e+01
2.905572e+02	-2.750662e+01
2.922354e+02	-2.755641e+01
2.939234e+02	-2.760899e+01
2.956211e+02	-2.765970e+01
2.973286e+02	-2.771013e+01
2.990459e+02	-2.775979e+01
3.007732e+02	-2.780752e+01
3.025104e+02	-2.785880e+01
3.042577e+02	-2.790582e+01
3.060151e+02	-2.795808e+01
3.077826e+02	-2.800734e+01
3.095604e+02	-2.805409e+01
3.113484e+02	-2.810465e+01
3.131467e+02	-2.815852e+01
3.149554e+02	-2.820698e+01
3.167746e+02	-2.826074e+01
3.186043e+02	-2.831228e+01
3.204445e+02	-2.836219e+01
3.222954e+02	-2.841228e+01
3.241570e+02	-2.845798e+01
3.260293e+02	-2.851060e+01
3.279124e+02	-2.855941e+01
3.298064e+02	-2.860905e+01
3.317114e+02	-2.865782e+01
3.336273e+02	-2.870952e+01
3.355544e+02	-2.875598e+01
3.374925e+02	-2.880742e+01
3.394418e+02	-2.885460e+01
3.414024e+02	-2.890957e+01
3.433744e+02	-2.895912e+01
3.453577e+02	-2.900822e+01
3.473525e+02	-2.905712e+01
3.493588e+02	-2.911332e+01
3.513766e+02	-2.916071e+01
3.534062e+02	-2.921223e+01
3.554474e+02	-2.925736e+01
3.575005e+02	-2.930889e+01
3.595654e+02	-2.935878e+01
3.616422e+02	-2.941096e+01
3.637311e+02	-2.945636e+01
3.658320e+02	-2.951223e+01
3.679450e+02	-2.955381e+01
3.700702e+02	-2.961385e+01
3.722077e+02	-2.965441e+01
3.743576e+02	-2.970658e+01
3.765199e+02	-2.975909e+01
3.786946e+02	-2.980977e+01
3.808820e+02	-2.986058e+01
3.830819e+02	-2.991165e+01
3.852946e+02	-2.995678e+01
3.875200e+02	-3.001079e+01
3.897583e+02	-3.006118e+01
3.920096e+02	-3.011213e+01
3.942738e+02	-3.016158e+01
3.965511e+02	-3.020885e+01
3.988416e+02	-3.026054e+01
4.011452e+02	-3.031303e+01
4.034622e+02	-3.036094e+01
4.057926e+02	-3.040836e+01
4.081365e+02	-3.046145e+01
4.104938e+02	-3.051133e+01
4.128648e+02	-3.056367e+01
4.152495e+02	-3.061724e+01
4.176480e+02	-3.065974e+01
4.200603e+02	-3.071414e+01
4.224866e+02	-3.075358e+01
4.249268e+02	-3.082047e+01
4.273812e+02	-3.085667e+01
4.298497e+02	-3.091316e+01
4.323325e+02	-3.096303e+01
4.348297e+02	-3.101470e+01
4.373412e+02	-3.106586e+01
4.398673e+02	-3.111488e+01
4.424079e+02	-3.116341e+01
4.449633e+02	-3.121483e+01
4.475334e+02	-3.126359e+01
4.501183e+02	-3.131582e+01
4.527182e+02	-3.136456e+01
4.553330e+02	-3.141061e+01
4.579630e+02	-3.146200e+01
4.606082e+02	-3.151380e+01
4.632687e+02	-3.156553e+01
4.659445e+02	-3.161115e+01
4.686358e+02	-3.165904e+01
4.713426e+02	-3.171489e+01
4.740650e+02	-3.176270e+01
4.768032e+02	-3.181708e+01
4.795572e+02	-3.186201e+01
4.823271e+02	-3.191701e+01
4.851130e+02	-3.196053e+01
4.879150e+02	-3.201902e+01
4.907332e+02	-3.206906e+01
4.935676e+02	-3.210664e+01
4.964185e+02	-3.216607e+01
4.992858e+02	-3.220905e+01
5.021696e+02	-3.226246e+01
5.050701e+02	-3.232404e+01
5.079874e+02	-3.236406e+01
5.109215e+02	-3.242238e+01
5.138726e+02	-3.246750e+01
5.168407e+02	-3.251540e+01
5.198259e+02	-3.257082e+01
5.228284e+02	-3.262246e+01
5.258482e+02	-3.266662e+01
5.288855e+02	-3.272507e+01
5.319403e+02	-3.276369e+01
5.350128e+02	-3.281471e+01
5.381030e+02	-3.287063e+01
5.412111e+02	-3.291675e+01
5.443371e+02	-3.296536e+01
5.474812e+02	-3.302158e+01
5.506434e+02	-3.306800e+01
5.538239e+02	-3.311976e+01
5.570228e+02	-3.316519e+01
5.602401e+02	-3.321513e+01
5.634760e+02	-3.327210e+01
5.667306e+02	-3.332687e+01
5.700040e+02	-3.337437e+01
5.732964e+02	-3.342194e+01
5.766077e+02	-3.346490e+01
5.799382e+02	-3.352003e+01
5.832879e+02	-3.357556e+01
5.866569e+02	-3.361747e+01
5.900454e+02	-3.367276e+01
5.934535e+02	-3.372463e+01
5.968813e+02	-3.377173e+01
6.003288e+02	-3.382413e+01
6.037963e+02	-3.387830e+01
6.072838e+02	-3.392281e+01
6.107914e+02	-3.397667e+01
6.143194e+02	-3.402606e+01
6.178676e+02	-3.407525e+01
6.214364e+02	-3.412647e+01
6.250258e+02	-3.417096e+01
6.286359e+02	-3.422615e+01
6.322669e+02	-3.427489e+01
6.359189e+02	-3.433081e+01
6.395919e+02	-3.437203e+01
6.432862e+02	-3.442582e+01
6.470017e+02	-3.448387e+01
6.507388e+02	-3.452022e+01
6.544974e+02	-3.458585e+01
6.582778e+02	-3.462366e+01
6.620800e+02	-3.468516e+01
6.659041e+02	-3.474095e+01
6.697504e+02	-3.477733e+01
6.736188e+02	-3.482503e+01
6.775096e+02	-3.487972e+01
6.814229e+02	-3.493140e+01
6.853587e+02	-3.498270e+01
6.893173e+02	-3.502883e+01
6.932988e+02	-3.508129e+01
6.973033e+02	-3.513987e+01
7.013309e+02	-3.518544e+01
