Frequency(Hz)	Magnitude(dB)
1.000000e+01	-1.693535e-05
1.005776e+01	-1.713155e-05
1.011585e+01	-1.733002e-05
1.017428e+01	-1.753080e-05
1.023305e+01	-1.773389e-05
1.029215e+01	-1.793935e-05
1.035160e+01	-1.814718e-05
1.041139e+01	-1.835742e-05
1.047153e+01	-1.857009e-05
1.053201e+01	-1.878523e-05
1.059284e+01	-1.900286e-05
1.065403e+01	-1.922302e-05
1.071556e+01	-1.944572e-05
1.077746e+01	-1.967100e-05
1.083971e+01	-1.989890e-05
1.090232e+01	-2.012943e-05
1.096529e+01	-2.036264e-05
1.102862e+01	-2.059854e-05
1.109232e+01	-2.083718e-05
1.115639e+01	-2.107858e-05
1.122083e+01	-2.132279e-05
1.128564e+01	-2.156982e-05
1.135083e+01	-2.181971e-05
1.141639e+01	-2.207249e-05
1.148233e+01	-2.232821e-05
1.154865e+01	-2.258689e-05
1.161536e+01	-2.284856e-05
1.168245e+01	-2.311327e-05
1.174992e+01	-2.338104e-05
1.181779e+01	-2.365192e-05
1.188605e+01	-2.392593e-05
1.195470e+01	-2.420312e-05
1.202375e+01	-2.448352e-05
1.209320e+01	-2.476716e-05
1.216305e+01	-2.505410e-05
1.223330e+01	-2.534436e-05
1.230396e+01	-2.563798e-05
1.237503e+01	-2.593500e-05
1.244651e+01	-2.623546e-05
1.251840e+01	-2.653941e-05
1.259070e+01	-2.684687e-05
1.266343e+01	-2.715790e-05
1.273657e+01	-2.747253e-05
1.281014e+01	-2.779081e-05
1.288413e+01	-2.811277e-05
1.295855e+01	-2.843846e-05
1.303339e+01	-2.876793e-05
1.310867e+01	-2.910121e-05
1.318439e+01	-2.943836e-05
1.326054e+01	-2.977941e-05
1.333713e+01	-3.012441e-05
1.341417e+01	-3.047341e-05
1.349165e+01	-3.082645e-05
1.356958e+01	-3.118358e-05
1.364795e+01	-3.154485e-05
1.372678e+01	-3.191030e-05
1.380607e+01	-3.227999e-05
1.388581e+01	-3.265396e-05
1.396602e+01	-3.303227e-05
1.404668e+01	-3.341496e-05
1.412782e+01	-3.380208e-05
1.420942e+01	-3.419368e-05
1.429149e+01	-3.458982e-05
1.437404e+01	-3.499055e-05
1.445706e+01	-3.539593e-05
1.454057e+01	-3.580600e-05
1.462455e+01	-3.622082e-05
1.470902e+01	-3.664044e-05
1.479398e+01	-3.706493e-05
1.487943e+01	-3.749434e-05
1.496537e+01	-3.792872e-05
1.505181e+01	-3.836813e-05
1.513875e+01	-3.881263e-05
1.522619e+01	-3.926229e-05
1.531414e+01	-3.971715e-05
1.540259e+01	-4.017728e-05
1.549156e+01	-4.064275e-05
1.558103e+01	-4.111360e-05
1.567103e+01	-4.158991e-05
1.576155e+01	-4.207174e-05
1.585258e+01	-4.255915e-05
1.594415e+01	-4.305221e-05
1.603624e+01	-4.355098e-05
1.612886e+01	-4.405552e-05
1.622202e+01	-4.456592e-05
1.631572e+01	-4.508222e-05
1.640996e+01	-4.560451e-05
1.650474e+01	-4.613285e-05
1.660008e+01	-4.666731e-05
1.669596e+01	-4.720796e-05
1.679239e+01	-4.775487e-05
1.688938e+01	-4.830812e-05
1.698694e+01	-4.886778e-05
1.708505e+01	-4.943393e-05
1.718373e+01	-5.000663e-05
1.728299e+01	-5.058597e-05
1.738281e+01	-5.117202e-05
1.748322e+01	-5.176486e-05
1.758420e+01	-5.236456e-05
1.768576e+01	-5.297122e-05
1.778792e+01	-5.358490e-05
1.789066e+01	-5.420569e-05
1.799399e+01	-5.483368e-05
1.809793e+01	-5.546894e-05
1.820246e+01	-5.611155e-05
1.830760e+01	-5.676162e-05
1.841334e+01	-5.741921e-05
1.851969e+01	-5.808443e-05
1.862666e+01	-5.875735e-05
1.873425e+01	-5.943806e-05
1.884246e+01	-6.012666e-05
1.895129e+01	-6.082324e-05
1.906075e+01	-6.152789e-05
1.917085e+01	-6.224070e-05
1.928158e+01	-6.296178e-05
1.939295e+01	-6.369120e-05
1.950496e+01	-6.442907e-05
1.961762e+01	-6.517550e-05
1.973093e+01	-6.593057e-05
1.984490e+01	-6.669439e-05
1.995952e+01	-6.746705e-05
2.007480e+01	-6.824867e-05
2.019076e+01	-6.903935e-05
2.030738e+01	-6.983918e-05
2.042467e+01	-7.064828e-05
2.054264e+01	-7.146675e-05
2.066130e+01	-7.229471e-05
2.078064e+01	-7.313226e-05
2.090066e+01	-7.397951e-05
2.102139e+01	-7.483657e-05
2.114280e+01	-7.570357e-05
2.126492e+01	-7.658061e-05
2.138775e+01	-7.746781e-05
2.151128e+01	-7.836528e-05
2.163553e+01	-7.927316e-05
2.176050e+01	-8.019155e-05
2.188619e+01	-8.112059e-05
2.201260e+01	-8.206038e-05
2.213974e+01	-8.301106e-05
2.226762e+01	-8.397276e-05
2.239624e+01	-8.494560e-05
2.252560e+01	-8.592971e-05
2.265571e+01	-8.692522e-05
2.278656e+01	-8.793226e-05
2.291818e+01	-8.895097e-05
2.305055e+01	-8.998148e-05
2.318369e+01	-9.102393e-05
2.331760e+01	-9.207846e-05
2.345228e+01	-9.314520e-05
2.358774e+01	-9.422430e-05
2.372398e+01	-9.531591e-05
2.386101e+01	-9.642015e-05
2.399883e+01	-9.753720e-05
2.413745e+01	-9.866718e-05
2.427686e+01	-9.981025e-05
2.441709e+01	-1.009666e-04
2.455812e+01	-1.021363e-04
2.469997e+01	-1.033195e-04
2.484263e+01	-1.045165e-04
2.498612e+01	-1.057274e-04
2.513044e+01	-1.069522e-04
2.527559e+01	-1.081913e-04
2.542158e+01	-1.094447e-04
2.556842e+01	-1.107126e-04
2.571610e+01	-1.119952e-04
2.586463e+01	-1.132927e-04
2.601403e+01	-1.146052e-04
2.616428e+01	-1.159329e-04
2.631541e+01	-1.172760e-04
2.646740e+01	-1.186347e-04
2.662028e+01	-1.200091e-04
2.677404e+01	-1.213994e-04
2.692868e+01	-1.228058e-04
2.708422e+01	-1.242286e-04
2.724066e+01	-1.256678e-04
2.739800e+01	-1.271236e-04
2.755625e+01	-1.285964e-04
2.771541e+01	-1.300862e-04
2.787550e+01	-1.315932e-04
2.803650e+01	-1.331178e-04
2.819844e+01	-1.346599e-04
2.836131e+01	-1.362200e-04
2.852513e+01	-1.377981e-04
2.868989e+01	-1.393945e-04
2.885560e+01	-1.410094e-04
2.902227e+01	-1.426430e-04
2.918990e+01	-1.442956e-04
2.935850e+01	-1.459672e-04
2.952807e+01	-1.476583e-04
2.969863e+01	-1.493689e-04
2.987016e+01	-1.510994e-04
3.004269e+01	-1.528499e-04
3.021622e+01	-1.546206e-04
3.039075e+01	-1.564119e-04
3.056628e+01	-1.582240e-04
3.074283e+01	-1.600570e-04
3.092040e+01	-1.619113e-04
3.109900e+01	-1.637870e-04
3.127862e+01	-1.656845e-04
3.145929e+01	-1.676040e-04
3.164099e+01	-1.695457e-04
3.182375e+01	-1.715099e-04
3.200756e+01	-1.734968e-04
3.219244e+01	-1.755068e-04
3.237838e+01	-1.775400e-04
3.256540e+01	-1.795968e-04
3.275349e+01	-1.816775e-04
3.294268e+01	-1.837822e-04
3.313295e+01	-1.859113e-04
3.332433e+01	-1.880651e-04
3.351681e+01	-1.902439e-04
3.371040e+01	-1.924479e-04
3.390511e+01	-1.946774e-04
3.410094e+01	-1.969327e-04
3.429791e+01	-1.992142e-04
3.449601e+01	-2.015221e-04
3.469526e+01	-2.038567e-04
3.489566e+01	-2.062184e-04
3.509721e+01	-2.086074e-04
3.529993e+01	-2.110241e-04
3.550382e+01	-2.134689e-04
3.570889e+01	-2.159419e-04
3.591515e+01	-2.184436e-04
3.612259e+01	-2.209742e-04
3.633123e+01	-2.235342e-04
3.654108e+01	-2.261239e-04
3.675214e+01	-2.287435e-04
3.696442e+01	-2.313935e-04
3.717792e+01	-2.340742e-04
3.739266e+01	-2.367859e-04
3.760864e+01	-2.395291e-04
3.782587e+01	-2.423040e-04
3.804435e+01	-2.451111e-04
3.826409e+01	-2.479507e-04
3.848510e+01	-2.508232e-04
3.870739e+01	-2.537289e-04
3.893096e+01	-2.566684e-04
3.915583e+01	-2.596419e-04
3.938199e+01	-2.626498e-04
3.960946e+01	-2.656926e-04
3.983824e+01	-2.687706e-04
4.006834e+01	-2.718843e-04
4.029978e+01	-2.750340e-04
4.053255e+01	-2.782203e-04
4.076666e+01	-2.814434e-04
4.100213e+01	-2.847039e-04
4.123896e+01	-2.880022e-04
4.147715e+01	-2.913387e-04
4.171672e+01	-2.947138e-04
4.195767e+01	-2.981280e-04
4.220002e+01	-3.015818e-04
4.244377e+01	-3.050756e-04
4.268892e+01	-3.086098e-04
4.293549e+01	-3.121850e-04
4.318348e+01	-3.158017e-04
4.343291e+01	-3.194602e-04
4.368377e+01	-3.231611e-04
4.393609e+01	-3.269048e-04
4.418986e+01	-3.306920e-04
4.444510e+01	-3.345230e-04
4.470182e+01	-3.383984e-04
4.496001e+01	-3.423187e-04
4.521970e+01	-3.462844e-04
4.548089e+01	-3.502960e-04
4.574358e+01	-3.543541e-04
4.600779e+01	-3.584592e-04
4.627353e+01	-3.626119e-04
4.654081e+01	-3.668127e-04
4.680963e+01	-3.710621e-04
4.708000e+01	-3.753608e-04
4.735193e+01	-3.797093e-04
4.762543e+01	-3.841081e-04
4.790051e+01	-3.885579e-04
4.817719e+01	-3.930593e-04
4.845545e+01	-3.976128e-04
4.873533e+01	-4.022190e-04
4.901682e+01	-4.068786e-04
4.929994e+01	-4.115922e-04
4.958470e+01	-4.163604e-04
4.987110e+01	-4.211838e-04
5.015915e+01	-4.260631e-04
5.044887e+01	-4.309989e-04
5.074026e+01	-4.359919e-04
5.103333e+01	-4.410427e-04
5.132810e+01	-4.461520e-04
5.162457e+01	-4.513206e-04
5.192275e+01	-4.565490e-04
5.222265e+01	-4.618379e-04
5.252429e+01	-4.671882e-04
5.282767e+01	-4.726004e-04
5.313280e+01	-4.780753e-04
5.343969e+01	-4.836136e-04
5.374836e+01	-4.892161e-04
5.405880e+01	-4.948835e-04
5.437105e+01	-5.006165e-04
5.468509e+01	-5.064159e-04
5.500095e+01	-5.122826e-04
5.531863e+01	-5.182171e-04
5.563815e+01	-5.242205e-04
5.595951e+01	-5.302933e-04
5.628273e+01	-5.364366e-04
5.660782e+01	-5.426509e-04
5.693479e+01	-5.489373e-04
5.726364e+01	-5.552965e-04
5.759439e+01	-5.617293e-04
5.792705e+01	-5.682367e-04
5.826164e+01	-5.748194e-04
5.859815e+01	-5.814784e-04
5.893662e+01	-5.882146e-04
5.927703e+01	-5.950287e-04
5.961941e+01	-6.019218e-04
5.996377e+01	-6.088948e-04
6.031012e+01	-6.159485e-04
6.065847e+01	-6.230839e-04
6.100883e+01	-6.303020e-04
6.136121e+01	-6.376037e-04
6.171563e+01	-6.449899e-04
6.207210e+01	-6.524617e-04
6.243063e+01	-6.600201e-04
6.279122e+01	-6.676660e-04
6.315390e+01	-6.754005e-04
6.351868e+01	-6.832246e-04
6.388556e+01	-6.911393e-04
6.425456e+01	-6.991457e-04
6.462569e+01	-7.072449e-04
6.499897e+01	-7.154378e-04
6.537440e+01	-7.237257e-04
6.575200e+01	-7.321095e-04
6.613178e+01	-7.405905e-04
6.651375e+01	-7.491697e-04
6.689793e+01	-7.578483e-04
6.728433e+01	-7.666274e-04
6.767297e+01	-7.755082e-04
6.806384e+01	-7.844918e-04
6.845698e+01	-7.935796e-04
6.885238e+01	-8.027725e-04
6.925007e+01	-8.120720e-04
6.965005e+01	-8.214792e-04
7.005235e+01	-8.309953e-04
7.045697e+01	-8.406217e-04
7.086393e+01	-8.503596e-04
7.127323e+01	-8.602103e-04
7.168490e+01	-8.701750e-04
7.209895e+01	-8.802552e-04
7.251539e+01	-8.904522e-04
7.293424e+01	-9.007673e-04
7.335551e+01	-9.112018e-04
7.377920e+01	-9.217572e-04
7.420535e+01	-9.324349e-04
7.463396e+01	-9.432362e-04
7.506504e+01	-9.541626e-04
7.549861e+01	-9.652156e-04
7.593469e+01	-9.763967e-04
7.637328e+01	-9.877072e-04
7.681441e+01	-9.991487e-04
7.725809e+01	-1.010723e-03
7.770433e+01	-1.022431e-03
7.815315e+01	-1.034275e-03
7.860456e+01	-1.046256e-03
7.905857e+01	-1.058375e-03
7.951521e+01	-1.070635e-03
7.997449e+01	-1.083037e-03
8.043642e+01	-1.095583e-03
8.090102e+01	-1.108274e-03
8.136830e+01	-1.121112e-03
8.183828e+01	-1.134099e-03
8.231097e+01	-1.147236e-03
8.278640e+01	-1.160525e-03
8.326457e+01	-1.173968e-03
8.374550e+01	-1.187567e-03
8.422921e+01	-1.201324e-03
8.471572e+01	-1.215239e-03
8.520503e+01	-1.229316e-03
8.569717e+01	-1.243556e-03
8.619215e+01	-1.257961e-03
8.669000e+01	-1.272533e-03
8.719071e+01	-1.287273e-03
8.769432e+01	-1.302184e-03
8.820084e+01	-1.317268e-03
8.871029e+01	-1.332527e-03
8.922267e+01	-1.347962e-03
8.973802e+01	-1.363576e-03
9.025634e+01	-1.379371e-03
9.077766e+01	-1.395349e-03
9.130199e+01	-1.411512e-03
9.182935e+01	-1.427862e-03
9.235975e+01	-1.444401e-03
9.289321e+01	-1.461132e-03
9.342976e+01	-1.478057e-03
9.396941e+01	-1.495177e-03
9.451217e+01	-1.512496e-03
9.505807e+01	-1.530016e-03
9.560712e+01	-1.547739e-03
9.615934e+01	-1.565666e-03
9.671476e+01	-1.583802e-03
9.727338e+01	-1.602147e-03
9.783522e+01	-1.620705e-03
9.840032e+01	-1.639478e-03
9.896867e+01	-1.658468e-03
9.954031e+01	-1.677678e-03
1.001153e+02	-1.697110e-03
1.006935e+02	-1.716768e-03
1.012751e+02	-1.736653e-03
1.018601e+02	-1.756769e-03
1.024484e+02	-1.777117e-03
1.030402e+02	-1.797701e-03
1.036353e+02	-1.818524e-03
1.042339e+02	-1.839587e-03
1.048360e+02	-1.860895e-03
1.054415e+02	-1.882449e-03
1.060505e+02	-1.904253e-03
1.066631e+02	-1.926309e-03
1.072791e+02	-1.948621e-03
1.078988e+02	-1.971191e-03
1.085220e+02	-1.994023e-03
1.091488e+02	-2.017119e-03
1.097793e+02	-2.040482e-03
1.104133e+02	-2.064116e-03
1.110511e+02	-2.088024e-03
1.116925e+02	-2.112208e-03
1.123376e+02	-2.136673e-03
1.129865e+02	-2.161420e-03
1.136391e+02	-2.186455e-03
1.142955e+02	-2.211779e-03
1.149556e+02	-2.237396e-03
1.156196e+02	-2.263310e-03
1.162874e+02	-2.289525e-03
1.169591e+02	-2.316042e-03
1.176347e+02	-2.342867e-03
1.183141e+02	-2.370002e-03
1.189975e+02	-2.397452e-03
1.196848e+02	-2.425219e-03
1.203761e+02	-2.453308e-03
1.210714e+02	-2.481722e-03
1.217707e+02	-2.510465e-03
1.224740e+02	-2.539541e-03
1.231814e+02	-2.568954e-03
1.238929e+02	-2.598707e-03
1.246085e+02	-2.628804e-03
1.253283e+02	-2.659250e-03
1.260522e+02	-2.690049e-03
1.267802e+02	-2.721204e-03
1.275125e+02	-2.752720e-03
1.282490e+02	-2.784601e-03
1.289898e+02	-2.816850e-03
1.297348e+02	-2.849474e-03
1.304842e+02	-2.882475e-03
1.312378e+02	-2.915858e-03
1.319959e+02	-2.949627e-03
1.327583e+02	-2.983787e-03
1.335251e+02	-3.018343e-03
1.342963e+02	-3.053299e-03
1.350720e+02	-3.088660e-03
1.358522e+02	-3.124430e-03
1.366368e+02	-3.160614e-03
1.374260e+02	-3.197217e-03
1.382198e+02	-3.234244e-03
1.390182e+02	-3.271699e-03
1.398211e+02	-3.309588e-03
1.406287e+02	-3.347916e-03
1.414410e+02	-3.386687e-03
1.422579e+02	-3.425908e-03
1.430796e+02	-3.465582e-03
1.439060e+02	-3.505715e-03
1.447372e+02	-3.546313e-03
1.455732e+02	-3.587381e-03
1.464141e+02	-3.628924e-03
1.472597e+02	-3.670949e-03
1.481103e+02	-3.713459e-03
1.489658e+02	-3.756462e-03
1.498262e+02	-3.799963e-03
1.506916e+02	-3.843967e-03
1.515620e+02	-3.888480e-03
1.524374e+02	-3.933509e-03
1.533179e+02	-3.979058e-03
1.542034e+02	-4.025135e-03
1.550941e+02	-4.071746e-03
1.559899e+02	-4.118896e-03
1.568909e+02	-4.166591e-03
1.577971e+02	-4.214839e-03
1.587085e+02	-4.263645e-03
1.596252e+02	-4.313015e-03
1.605472e+02	-4.362958e-03
1.614745e+02	-4.413478e-03
1.624072e+02	-4.464583e-03
1.633453e+02	-4.516279e-03
1.642887e+02	-4.568574e-03
1.652377e+02	-4.621474e-03
1.661921e+02	-4.674986e-03
1.671520e+02	-4.729117e-03
1.681175e+02	-4.783875e-03
1.690885e+02	-4.839267e-03
1.700651e+02	-4.895299e-03
1.710474e+02	-4.951980e-03
1.720354e+02	-5.009317e-03
1.730291e+02	-5.067317e-03
1.740285e+02	-5.125988e-03
1.750337e+02	-5.185339e-03
1.760446e+02	-5.245376e-03
1.770615e+02	-5.306108e-03
1.780842e+02	-5.367542e-03
1.791128e+02	-5.429688e-03
1.801473e+02	-5.492552e-03
1.811878e+02	-5.556144e-03
1.822344e+02	-5.620471e-03
1.832870e+02	-5.685543e-03
1.843456e+02	-5.751368e-03
1.854104e+02	-5.817954e-03
1.864813e+02	-5.885311e-03
1.875584e+02	-5.953447e-03
1.886418e+02	-6.022371e-03
1.897313e+02	-6.092093e-03
1.908272e+02	-6.162621e-03
1.919294e+02	-6.233965e-03
1.930380e+02	-6.306135e-03
1.941530e+02	-6.379139e-03
1.952744e+02	-6.452988e-03
1.964023e+02	-6.527691e-03
1.975367e+02	-6.603258e-03
1.986777e+02	-6.679700e-03
1.998252e+02	-6.757025e-03
2.009794e+02	-6.835245e-03
2.021403e+02	-6.914370e-03
2.033078e+02	-6.994410e-03
2.044821e+02	-7.075376e-03
2.056632e+02	-7.157278e-03
2.068511e+02	-7.240128e-03
2.080459e+02	-7.323936e-03
2.092475e+02	-7.408713e-03
2.104561e+02	-7.494470e-03
2.116717e+02	-7.581219e-03
2.128943e+02	-7.668972e-03
2.141240e+02	-7.757739e-03
2.153608e+02	-7.847533e-03
2.166047e+02	-7.938366e-03
2.178558e+02	-8.030248e-03
2.191141e+02	-8.123193e-03
2.203797e+02	-8.217213e-03
2.216526e+02	-8.312320e-03
2.229329e+02	-8.408527e-03
2.242205e+02	-8.505846e-03
2.255156e+02	-8.604291e-03
2.268182e+02	-8.703873e-03
2.281283e+02	-8.804607e-03
2.294459e+02	-8.906506e-03
2.307712e+02	-9.009583e-03
2.321041e+02	-9.113851e-03
2.334447e+02	-9.219325e-03
2.347931e+02	-9.326018e-03
2.361493e+02	-9.433945e-03
2.375133e+02	-9.543119e-03
2.388851e+02	-9.653555e-03
2.402649e+02	-9.765268e-03
2.416527e+02	-9.878271e-03
2.430484e+02	-9.992582e-03
2.444523e+02	-1.010821e-02
2.458642e+02	-1.022518e-02
2.472843e+02	-1.034350e-02
2.487126e+02	-1.046319e-02
2.501492e+02	-1.058426e-02
2.515940e+02	-1.070673e-02
2.530472e+02	-1.083061e-02
2.545088e+02	-1.095593e-02
2.559789e+02	-1.108269e-02
2.574574e+02	-1.121092e-02
2.589444e+02	-1.134063e-02
2.604401e+02	-1.147184e-02
2.619444e+02	-1.160457e-02
2.634574e+02	-1.173883e-02
2.649791e+02	-1.187464e-02
2.665096e+02	-1.201202e-02
2.680489e+02	-1.215099e-02
2.695972e+02	-1.229156e-02
2.711544e+02	-1.243376e-02
2.727205e+02	-1.257759e-02
2.742958e+02	-1.272309e-02
2.758801e+02	-1.287028e-02
2.774736e+02	-1.301916e-02
2.790762e+02	-1.316976e-02
2.806882e+02	-1.332210e-02
2.823094e+02	-1.347620e-02
2.839400e+02	-1.363208e-02
2.855800e+02	-1.378976e-02
2.872295e+02	-1.394926e-02
2.888886e+02	-1.411060e-02
2.905572e+02	-1.427380e-02
2.922354e+02	-1.443889e-02
2.939234e+02	-1.460589e-02
2.956211e+02	-1.477481e-02
2.973286e+02	-1.494569e-02
2.990459e+02	-1.511853e-02
3.007732e+02	-1.529338e-02
3.025104e+02	-1.547024e-02
3.042577e+02	-1.564914e-02
3.060151e+02	-1.583011e-02
3.077826e+02	-1.601316e-02
3.095604e+02	-1.619833e-02
3.113484e+02	-1.638564e-02
3.131467e+02	-1.657511e-02
3.149554e+02	-1.676676e-02
3.167746e+02	-1.696063e-02
3.186043e+02	-1.715673e-02
3.204445e+02	-1.735510e-02
3.222954e+02	-1.755575e-02
3.241570e+02	-1.775872e-02
3.260293e+02	-1.796403e-02
3.279124e+02	-1.817172e-02
3.298064e+02	-1.838179e-02
3.317114e+02	-1.859429e-02
3.336273e+02	-1.880924e-02
3.355544e+02	-1.902667e-02
3.374925e+02	-1.924661e-02
3.394418e+02	-1.946909e-02
3.414024e+02	-1.969413e-02
3.433744e+02	-1.992176e-02
3.453577e+02	-2.015203e-02
3.473525e+02	-2.038494e-02
3.493588e+02	-2.062054e-02
3.513766e+02	-2.085886e-02
3.534062e+02	-2.109993e-02
3.554474e+02	-2.134377e-02
3.575005e+02	-2.159043e-02
3.595654e+02	-2.183993e-02
3.616422e+02	-2.209230e-02
3.637311e+02	-2.234759e-02
3.658320e+02	-2.260581e-02
3.679450e+02	-2.286701e-02
3.700702e+02	-2.313123e-02
3.722077e+02	-2.339848e-02
3.743576e+02	-2.366882e-02
3.765199e+02	-2.394227e-02
3.786946e+02	-2.421887e-02
3.808820e+02	-2.449866e-02
3.830819e+02	-2.478167e-02
3.852946e+02	-2.506794e-02
3.875200e+02	-2.535751e-02
3.897583e+02	-2.565041e-02
3.920096e+02	-2.594668e-02
3.942738e+02	-2.624637e-02
3.965511e+02	-2.654951e-02
3.988416e+02	-2.685614e-02
4.011452e+02	-2.716629e-02
4.034622e+02	-2.748002e-02
4.057926e+02	-2.779736e-02
4.081365e+02	-2.811836e-02
4.104938e+02	-2.844305e-02
4.128648e+02	-2.877147e-02
4.152495e+02	-2.910367e-02
4.176480e+02	-2.943970e-02
4.200603e+02	-2.977959e-02
4.224866e+02	-3.012340e-02
4.249268e+02	-3.047115e-02
4.273812e+02	-3.082291e-02
4.298497e+02	-3.117872e-02
4.323325e+02	-3.153862e-02
4.348297e+02	-3.190265e-02
4.373412e+02	-3.227087e-02
4.398673e+02	-3.264333e-02
4.424079e+02	-3.302007e-02
4.449633e+02	-3.340114e-02
4.475334e+02	-3.378659e-02
4.501183e+02	-3.417647e-02
4.527182e+02	-3.457083e-02
4.553330e+02	-3.496973e-02
4.579630e+02	-3.537320e-02
4.606082e+02	-3.578132e-02
4.632687e+02	-3.619412e-02
4.659445e+02	-3.661167e-02
4.686358e+02	-3.703401e-02
4.713426e+02	-3.746120e-02
4.740650e+02	-3.789330e-02
4.768032e+02	-3.833036e-02
4.795572e+02	-3.877244e-02
4.823271e+02	-3.921959e-02
4.851130e+02	-3.967188e-02
4.879150e+02	-4.012936e-02
4.907332e+02	-4.059209e-02
4.935676e+02	-4.106013e-02
4.964185e+02	-4.153354e-02
4.992858e+02	-4.201238e-02
5.021696e+02	-4.249672e-02
5.050701e+02	-4.298661e-02
5.079874e+02	-4.348212e-02
5.109215e+02	-4.398331e-02
5.138726e+02	-4.449025e-02
5.168407e+02	-4.500301e-02
5.198259e+02	-4.552164e-02
5.228284e+02	-4.604622e-02
5.258482e+02	-4.657681e-02
5.288855e+02	-4.711348e-02
5.319403e+02	-4.765630e-02
5.350128e+02	-4.820533e-02
5.381030e+02	-4.876066e-02
5.412111e+02	-4.932235e-02
5.443371e+02	-4.989047e-02
5.474812e+02	-5.046510e-02
5.506434e+02	-5.104631e-02
5.538239e+02	-5.163417e-02
5.570228e+02	-5.222876e-02
5.602401e+02	-5.283016e-02
5.634760e+02	-5.343843e-02
5.667306e+02	-5.405367e-02
5.700040e+02	-5.467595e-02
5.732964e+02	-5.530534e-02
5.766077e+02	-5.594193e-02
5.799382e+02	-5.658580e-02
5.832879e+02	-5.723704e-02
5.866569e+02	-5.789571e-02
5.900454e+02	-5.856192e-02
5.934535e+02	-5.923574e-02
5.968813e+02	-5.991726e-02
6.003288e+02	-6.060657e-02
6.037963e+02	-6.130375e-02
6.072838e+02	-6.200889e-02
6.107914e+02	-6.272208e-02
6.143194e+02	-6.344342e-02
6.178676e+02	-6.417299e-02
6.214364e+02	-6.491089e-02
6.250258e+02	-6.565720e-02
6.286359e+02	-6.641204e-02
6.322669e+02	-6.717548e-02
6.359189e+02	-6.794763e-02
6.395919e+02	-6.872859e-02
6.432862e+02	-6.951844e-02
6.470017e+02	-7.031731e-02
6.507388e+02	-7.112528e-02
6.544974e+02	-7.194245e-02
6.582778e+02	-7.276893e-02
6.620800e+02	-7.360483e-02
6.659041e+02	-7.445025e-02
6.697504e+02	-7.530529e-02
6.736188e+02	-7.617007e-02
6.775096e+02	-7.704469e-02
6.814229e+02	-7.792926e-02
6.853587e+02	-7.882389e-02
6.893173e+02	-7.972871e-02
6.932988e+02	-8.064381e-02
6.973033e+02	-8.156931e-02
7.013309e+02	-8.250533e-02
