Frequency(Hz)	Magnitude(dB)
1.000000e+01	-1.914725e+00
1.005776e+01	-1.932683e+00
1.011585e+01	-1.950585e+00
1.017428e+01	-1.969016e+00
1.023305e+01	-1.987283e+00
1.029215e+01	-2.005631e+00
1.035160e+01	-2.024049e+00
1.041139e+01	-2.043150e+00
1.047153e+01	-2.061701e+00
1.053201e+01	-2.080673e+00
1.059284e+01	-2.099884e+00
1.065403e+01	-2.118900e+00
1.071556e+01	-2.138394e+00
1.077746e+01	-2.157830e+00
1.083971e+01	-2.177619e+00
1.090232e+01	-2.197182e+00
1.096529e+01	-2.217491e+00
1.102862e+01	-2.237415e+00
1.109232e+01	-2.257725e+00
1.115639e+01	-2.278041e+00
1.122083e+01	-2.298517e+00
1.128564e+01	-2.319154e+00
1.135083e+01	-2.339878e+00
1.141639e+01	-2.360522e+00
1.148233e+01	-2.381772e+00
1.154865e+01	-2.402986e+00
1.161536e+01	-2.424169e+00
1.168245e+01	-2.445951e+00
1.174992e+01	-2.467493e+00
1.181779e+01	-2.489099e+00
1.188605e+01	-2.511264e+00
1.195470e+01	-2.533209e+00
1.202375e+01	-2.555074e+00
1.209320e+01	-2.577631e+00
1.216305e+01	-2.600012e+00
1.223330e+01	-2.622782e+00
1.230396e+01	-2.645289e+00
1.237503e+01	-2.668225e+00
1.244651e+01	-2.691404e+00
1.251840e+01	-2.714472e+00
1.259070e+01	-2.737843e+00
1.266343e+01	-2.761420e+00
1.273657e+01	-2.784929e+00
1.281014e+01	-2.808755e+00
1.288413e+01	-2.832688e+00
1.295855e+01	-2.856488e+00
1.303339e+01	-2.880838e+00
1.310867e+01	-2.905050e+00
1.318439e+01	-2.929608e+00
1.326054e+01	-2.954289e+00
1.333713e+01	-2.978921e+00
1.341417e+01	-3.003812e+00
1.349165e+01	-3.028883e+00
1.356958e+01	-3.054107e+00
1.364795e+01	-3.079530e+00
1.372678e+01	-3.105013e+00
1.380607e+01	-3.130578e+00
1.388581e+01	-3.156511e+00
1.396602e+01	-3.182151e+00
1.404668e+01	-3.208154e+00
1.412782e+01	-3.234632e+00
1.420942e+01	-3.260841e+00
1.429149e+01	-3.287478e+00
1.437404e+01	-3.313741e+00
1.445706e+01	-3.340914e+00
1.454057e+01	-3.367716e+00
1.462455e+01	-3.394719e+00
1.470902e+01	-3.421952e+00
1.479398e+01	-3.449176e+00
1.487943e+01	-3.476798e+00
1.496537e+01	-3.504375e+00
1.505181e+01	-3.532146e+00
1.513875e+01	-3.560102e+00
1.522619e+01	-3.588168e+00
1.531414e+01	-3.616104e+00
1.540259e+01	-3.644679e+00
1.549156e+01	-3.673182e+00
1.558103e+01	-3.701672e+00
1.567103e+01	-3.730429e+00
1.576155e+01	-3.759337e+00
1.585258e+01	-3.788454e+00
1.594415e+01	-3.817507e+00
1.603624e+01	-3.846948e+00
1.612886e+01	-3.876357e+00
1.622202e+01	-3.906103e+00
1.631572e+01	-3.935719e+00
1.640996e+01	-3.965636e+00
1.650474e+01	-3.995765e+00
1.660008e+01	-4.025759e+00
1.669596e+01	-4.056350e+00
1.679239e+01	-4.086500e+00
1.688938e+01	-4.116942e+00
1.698694e+01	-4.147845e+00
1.708505e+01	-4.178769e+00
1.718373e+01	-4.209760e+00
1.728299e+01	-4.240986e+00
1.738281e+01	-4.272180e+00
1.748322e+01	-4.303374e+00
1.758420e+01	-4.334874e+00
1.768576e+01	-4.366918e+00
1.778792e+01	-4.398299e+00
1.789066e+01	-4.430337e+00
1.799399e+01	-4.462410e+00
1.809793e+01	-4.494826e+00
1.820246e+01	-4.526976e+00
1.830760e+01	-4.559455e+00
1.841334e+01	-4.591903e+00
1.851969e+01	-4.624502e+00
1.862666e+01	-4.657537e+00
1.873425e+01	-4.690667e+00
1.884246e+01	-4.723742e+00
1.895129e+01	-4.756685e+00
1.906075e+01	-4.790234e+00
1.917085e+01	-4.823806e+00
1.928158e+01	-4.857722e+00
1.939295e+01	-4.891143e+00
1.950496e+01	-4.924614e+00
1.961762e+01	-4.958909e+00
1.973093e+01	-4.993187e+00
1.984490e+01	-5.027079e+00
1.995952e+01	-5.061643e+00
2.007480e+01	-5.096259e+00
2.019076e+01	-5.130814e+00
2.030738e+01	-5.165640e+00
2.042467e+01	-5.200449e+00
2.054264e+01	-5.235409e+00
2.066130e+01	-5.270476e+00
2.078064e+01	-5.305444e+00
2.090066e+01	-5.340950e+00
2.102139e+01	-5.376483e+00
2.114280e+01	-5.411911e+00
2.126492e+01	-5.447744e+00
2.138775e+01	-5.483672e+00
2.151128e+01	-5.519405e+00
2.163553e+01	-5.555665e+00
2.176050e+01	-5.591389e+00
2.188619e+01	-5.627916e+00
2.201260e+01	-5.664260e+00
2.213974e+01	-5.700692e+00
2.226762e+01	-5.737251e+00
2.239624e+01	-5.774200e+00
2.252560e+01	-5.810767e+00
2.265571e+01	-5.848131e+00
2.278656e+01	-5.884600e+00
2.291818e+01	-5.922174e+00
2.305055e+01	-5.959406e+00
2.318369e+01	-5.996949e+00
2.331760e+01	-6.034097e+00
2.345228e+01	-6.072033e+00
2.358774e+01	-6.109786e+00
2.372398e+01	-6.148029e+00
2.386101e+01	-6.185439e+00
2.399883e+01	-6.223592e+00
2.413745e+01	-6.261676e+00
2.427686e+01	-6.299742e+00
2.441709e+01	-6.338402e+00
2.455812e+01	-6.376516e+00
2.469997e+01	-6.415128e+00
2.484263e+01	-6.454192e+00
2.498612e+01	-6.492736e+00
2.513044e+01	-6.531861e+00
2.527559e+01	-6.570640e+00
2.542158e+01	-6.609728e+00
2.556842e+01	-6.648624e+00
2.571610e+01	-6.688010e+00
2.586463e+01	-6.727500e+00
2.601403e+01	-6.766756e+00
2.616428e+01	-6.806201e+00
2.631541e+01	-6.845760e+00
2.646740e+01	-6.885863e+00
2.662028e+01	-6.925589e+00
2.677404e+01	-6.965363e+00
2.692868e+01	-7.005283e+00
2.708422e+01	-7.045545e+00
2.724066e+01	-7.085561e+00
2.739800e+01	-7.126116e+00
2.755625e+01	-7.166553e+00
2.771541e+01	-7.206751e+00
2.787550e+01	-7.247495e+00
2.803650e+01	-7.288131e+00
2.819844e+01	-7.328722e+00
2.836131e+01	-7.369578e+00
2.852513e+01	-7.410941e+00
2.868989e+01	-7.451259e+00
2.885560e+01	-7.492463e+00
2.902227e+01	-7.533837e+00
2.918990e+01	-7.574988e+00
2.935850e+01	-7.616346e+00
2.952807e+01	-7.657402e+00
2.969863e+01	-7.699299e+00
2.987016e+01	-7.740715e+00
3.004269e+01	-7.782414e+00
3.021622e+01	-7.824182e+00
3.039075e+01	-7.866156e+00
3.056628e+01	-7.908024e+00
3.074283e+01	-7.949581e+00
3.092040e+01	-7.992211e+00
3.109900e+01	-8.034051e+00
3.127862e+01	-8.075894e+00
3.145929e+01	-8.118432e+00
3.164099e+01	-8.160928e+00
3.182375e+01	-8.203291e+00
3.200756e+01	-8.245806e+00
3.219244e+01	-8.288276e+00
3.237838e+01	-8.331029e+00
3.256540e+01	-8.373332e+00
3.275349e+01	-8.416120e+00
3.294268e+01	-8.459724e+00
3.313295e+01	-8.502179e+00
3.332433e+01	-8.545064e+00
3.351681e+01	-8.588377e+00
3.371040e+01	-8.631384e+00
3.390511e+01	-8.674462e+00
3.410094e+01	-8.717992e+00
3.429791e+01	-8.761107e+00
3.449601e+01	-8.804179e+00
3.469526e+01	-8.847918e+00
3.489566e+01	-8.891842e+00
3.509721e+01	-8.935087e+00
3.529993e+01	-8.978742e+00
3.550382e+01	-9.022600e+00
3.570889e+01	-9.066674e+00
3.591515e+01	-9.110182e+00
3.612259e+01	-9.154310e+00
3.633123e+01	-9.198147e+00
3.654108e+01	-9.242481e+00
3.675214e+01	-9.286541e+00
3.696442e+01	-9.330632e+00
3.717792e+01	-9.374541e+00
3.739266e+01	-9.418962e+00
3.760864e+01	-9.463368e+00
3.782587e+01	-9.507505e+00
3.804435e+01	-9.552143e+00
3.826409e+01	-9.596720e+00
3.848510e+01	-9.641441e+00
3.870739e+01	-9.685550e+00
3.893096e+01	-9.730788e+00
3.915583e+01	-9.775239e+00
3.938199e+01	-9.820094e+00
3.960946e+01	-9.864463e+00
3.983824e+01	-9.909456e+00
4.006834e+01	-9.954919e+00
4.029978e+01	-9.999576e+00
4.053255e+01	-1.004401e+01
4.076666e+01	-1.008929e+01
4.100213e+01	-1.013478e+01
4.123896e+01	-1.018005e+01
4.147715e+01	-1.022499e+01
4.171672e+01	-1.027104e+01
4.195767e+01	-1.031613e+01
4.220002e+01	-1.036160e+01
4.244377e+01	-1.040674e+01
4.268892e+01	-1.045270e+01
4.293549e+01	-1.049772e+01
4.318348e+01	-1.054434e+01
4.343291e+01	-1.058946e+01
4.368377e+01	-1.063510e+01
4.393609e+01	-1.068086e+01
4.418986e+01	-1.072597e+01
4.444510e+01	-1.077261e+01
4.470182e+01	-1.081781e+01
4.496001e+01	-1.086413e+01
4.521970e+01	-1.090923e+01
4.548089e+01	-1.095577e+01
4.574358e+01	-1.100213e+01
4.600779e+01	-1.104831e+01
4.627353e+01	-1.109433e+01
4.654081e+01	-1.113958e+01
4.680963e+01	-1.118599e+01
4.708000e+01	-1.123253e+01
4.735193e+01	-1.127944e+01
4.762543e+01	-1.132522e+01
4.790051e+01	-1.137200e+01
4.817719e+01	-1.141829e+01
4.845545e+01	-1.146457e+01
4.873533e+01	-1.151087e+01
4.901682e+01	-1.155806e+01
4.929994e+01	-1.160416e+01
4.958470e+01	-1.165086e+01
4.987110e+01	-1.169779e+01
5.015915e+01	-1.174464e+01
5.044887e+01	-1.179062e+01
5.074026e+01	-1.183748e+01
5.103333e+01	-1.188356e+01
5.132810e+01	-1.193095e+01
5.162457e+01	-1.197814e+01
5.192275e+01	-1.202479e+01
5.222265e+01	-1.207200e+01
5.252429e+01	-1.211900e+01
5.282767e+01	-1.216581e+01
5.313280e+01	-1.221300e+01
5.343969e+01	-1.225982e+01
5.374836e+01	-1.230690e+01
5.405880e+01	-1.235384e+01
5.437105e+01	-1.240080e+01
5.468509e+01	-1.244774e+01
5.500095e+01	-1.249532e+01
5.531863e+01	-1.254180e+01
5.563815e+01	-1.258985e+01
5.595951e+01	-1.263659e+01
5.628273e+01	-1.268439e+01
5.660782e+01	-1.273120e+01
5.693479e+01	-1.277877e+01
5.726364e+01	-1.282628e+01
5.759439e+01	-1.287272e+01
5.792705e+01	-1.292069e+01
5.826164e+01	-1.296904e+01
5.859815e+01	-1.301669e+01
5.893662e+01	-1.306314e+01
5.927703e+01	-1.311059e+01
5.961941e+01	-1.315798e+01
5.996377e+01	-1.320625e+01
6.031012e+01	-1.325517e+01
6.065847e+01	-1.330149e+01
6.100883e+01	-1.334952e+01
6.136121e+01	-1.339736e+01
6.171563e+01	-1.344509e+01
6.207210e+01	-1.349283e+01
6.243063e+01	-1.354098e+01
6.279122e+01	-1.358866e+01
6.315390e+01	-1.363608e+01
6.351868e+01	-1.368429e+01
6.388556e+01	-1.373236e+01
6.425456e+01	-1.378053e+01
6.462569e+01	-1.382804e+01
6.499897e+01	-1.387581e+01
6.537440e+01	-1.392369e+01
6.575200e+01	-1.397177e+01
6.613178e+01	-1.401976e+01
6.651375e+01	-1.406802e+01
6.689793e+01	-1.411668e+01
6.728433e+01	-1.416361e+01
6.767297e+01	-1.421110e+01
6.806384e+01	-1.426001e+01
6.845698e+01	-1.430910e+01
6.885238e+01	-1.435634e+01
6.925007e+01	-1.440484e+01
6.965005e+01	-1.445369e+01
7.005235e+01	-1.450140e+01
7.045697e+01	-1.454926e+01
7.086393e+01	-1.459800e+01
7.127323e+01	-1.464641e+01
7.168490e+01	-1.469428e+01
7.209895e+01	-1.474305e+01
7.251539e+01	-1.479154e+01
7.293424e+01	-1.483951e+01
7.335551e+01	-1.488845e+01
7.377920e+01	-1.493645e+01
7.420535e+01	-1.498528e+01
7.463396e+01	-1.503327e+01
7.506504e+01	-1.508133e+01
7.549861e+01	-1.512964e+01
7.593469e+01	-1.517765e+01
7.637328e+01	-1.522833e+01
7.681441e+01	-1.527569e+01
7.725809e+01	-1.532455e+01
7.770433e+01	-1.537237e+01
7.815315e+01	-1.542182e+01
7.860456e+01	-1.546961e+01
7.905857e+01	-1.551880e+01
7.951521e+01	-1.556743e+01
7.997449e+01	-1.561590e+01
8.043642e+01	-1.566485e+01
8.090102e+01	-1.571377e+01
8.136830e+01	-1.576271e+01
8.183828e+01	-1.581166e+01
8.231097e+01	-1.585924e+01
8.278640e+01	-1.590820e+01
8.326457e+01	-1.595695e+01
8.374550e+01	-1.600546e+01
8.422921e+01	-1.605417e+01
8.471572e+01	-1.610303e+01
8.520503e+01	-1.615198e+01
8.569717e+01	-1.620097e+01
8.619215e+01	-1.625046e+01
8.669000e+01	-1.629856e+01
8.719071e+01	-1.634709e+01
8.769432e+01	-1.639688e+01
8.820084e+01	-1.644547e+01
8.871029e+01	-1.649327e+01
8.922267e+01	-1.654282e+01
8.973802e+01	-1.659263e+01
9.025634e+01	-1.664084e+01
9.077766e+01	-1.668972e+01
9.130199e+01	-1.673884e+01
9.182935e+01	-1.678844e+01
9.235975e+01	-1.683704e+01
9.289321e+01	-1.688620e+01
9.342976e+01	-1.693479e+01
9.396941e+01	-1.698393e+01
9.451217e+01	-1.703368e+01
9.505807e+01	-1.708088e+01
9.560712e+01	-1.713049e+01
9.615934e+01	-1.717981e+01
9.671476e+01	-1.722864e+01
9.727338e+01	-1.727858e+01
9.783522e+01	-1.732744e+01
9.840032e+01	-1.737645e+01
9.896867e+01	-1.742609e+01
9.954031e+01	-1.747538e+01
1.001153e+02	-1.752497e+01
1.006935e+02	-1.757274e+01
1.012751e+02	-1.762200e+01
1.018601e+02	-1.767126e+01
1.024484e+02	-1.772073e+01
1.030402e+02	-1.776870e+01
1.036353e+02	-1.781847e+01
1.042339e+02	-1.786860e+01
1.048360e+02	-1.791721e+01
1.054415e+02	-1.796643e+01
1.060505e+02	-1.801654e+01
1.066631e+02	-1.806453e+01
1.072791e+02	-1.811399e+01
1.078988e+02	-1.816382e+01
1.085220e+02	-1.821197e+01
1.091488e+02	-1.826257e+01
1.097793e+02	-1.831189e+01
1.104133e+02	-1.836055e+01
1.110511e+02	-1.841026e+01
1.116925e+02	-1.845899e+01
1.123376e+02	-1.850804e+01
1.129865e+02	-1.855953e+01
1.136391e+02	-1.860679e+01
1.142955e+02	-1.865538e+01
1.149556e+02	-1.870677e+01
1.156196e+02	-1.875444e+01
1.162874e+02	-1.880381e+01
1.169591e+02	-1.885560e+01
1.176347e+02	-1.890247e+01
1.183141e+02	-1.895168e+01
1.189975e+02	-1.900092e+01
1.196848e+02	-1.905337e+01
1.203761e+02	-1.910136e+01
1.210714e+02	-1.914869e+01
1.217707e+02	-1.920052e+01
1.224740e+02	-1.925000e+01
1.231814e+02	-1.930074e+01
1.238929e+02	-1.934688e+01
1.246085e+02	-1.939716e+01
1.253283e+02	-1.944669e+01
1.260522e+02	-1.949629e+01
1.267802e+02	-1.954500e+01
1.275125e+02	-1.959536e+01
1.282490e+02	-1.964472e+01
1.289898e+02	-1.969423e+01
1.297348e+02	-1.974409e+01
1.304842e+02	-1.979153e+01
1.312378e+02	-1.984286e+01
1.319959e+02	-1.989161e+01
1.327583e+02	-1.994244e+01
1.335251e+02	-1.999192e+01
1.342963e+02	-2.003938e+01
1.350720e+02	-2.009084e+01
1.358522e+02	-2.014035e+01
1.366368e+02	-2.019115e+01
1.374260e+02	-2.023941e+01
1.382198e+02	-2.028859e+01
1.390182e+02	-2.033920e+01
1.398211e+02	-2.038835e+01
1.406287e+02	-2.043841e+01
1.414410e+02	-2.048760e+01
1.422579e+02	-2.053663e+01
1.430796e+02	-2.058593e+01
1.439060e+02	-2.063723e+01
1.447372e+02	-2.068487e+01
1.455732e+02	-2.073737e+01
1.464141e+02	-2.078561e+01
1.472597e+02	-2.083490e+01
1.481103e+02	-2.088556e+01
1.489658e+02	-2.093380e+01
1.498262e+02	-2.098276e+01
1.506916e+02	-2.103377e+01
1.515620e+02	-2.108229e+01
1.524374e+02	-2.113333e+01
1.533179e+02	-2.118232e+01
1.542034e+02	-2.123198e+01
1.550941e+02	-2.128249e+01
1.559899e+02	-2.133123e+01
1.568909e+02	-2.138089e+01
1.577971e+02	-2.143049e+01
1.587085e+02	-2.148022e+01
1.596252e+02	-2.153017e+01
1.605472e+02	-2.157905e+01
1.614745e+02	-2.162950e+01
1.624072e+02	-2.167991e+01
1.633453e+02	-2.172679e+01
1.642887e+02	-2.177766e+01
1.652377e+02	-2.182895e+01
1.661921e+02	-2.187699e+01
1.671520e+02	-2.192752e+01
1.681175e+02	-2.197555e+01
1.690885e+02	-2.202629e+01
1.700651e+02	-2.207646e+01
1.710474e+02	-2.212823e+01
1.720354e+02	-2.217547e+01
1.730291e+02	-2.222598e+01
1.740285e+02	-2.227315e+01
1.750337e+02	-2.232385e+01
1.760446e+02	-2.237678e+01
1.770615e+02	-2.242441e+01
1.780842e+02	-2.247478e+01
1.791128e+02	-2.252374e+01
1.801473e+02	-2.257315e+01
1.811878e+02	-2.262469e+01
1.822344e+02	-2.267217e+01
1.832870e+02	-2.272220e+01
1.843456e+02	-2.277315e+01
1.854104e+02	-2.282404e+01
1.864813e+02	-2.287311e+01
1.875584e+02	-2.292165e+01
1.886418e+02	-2.297242e+01
1.897313e+02	-2.302199e+01
1.908272e+02	-2.307114e+01
1.919294e+02	-2.312346e+01
1.930380e+02	-2.317165e+01
1.941530e+02	-2.322258e+01
1.952744e+02	-2.327083e+01
1.964023e+02	-2.332231e+01
1.975367e+02	-2.337053e+01
1.986777e+02	-2.342093e+01
1.998252e+02	-2.347197e+01
2.009794e+02	-2.351989e+01
2.021403e+02	-2.356945e+01
2.033078e+02	-2.361924e+01
2.044821e+02	-2.366887e+01
2.056632e+02	-2.371761e+01
2.068511e+02	-2.377174e+01
2.080459e+02	-2.382138e+01
2.092475e+02	-2.386814e+01
2.104561e+02	-2.392024e+01
2.116717e+02	-2.396675e+01
2.128943e+02	-2.402120e+01
2.141240e+02	-2.406806e+01
2.153608e+02	-2.412087e+01
2.166047e+02	-2.416792e+01
2.178558e+02	-2.421839e+01
2.191141e+02	-2.426910e+01
2.203797e+02	-2.431924e+01
2.216526e+02	-2.436670e+01
2.229329e+02	-2.441697e+01
2.242205e+02	-2.446876e+01
2.255156e+02	-2.451960e+01
2.268182e+02	-2.456740e+01
2.281283e+02	-2.461682e+01
2.294459e+02	-2.466707e+01
2.307712e+02	-2.471449e+01
2.321041e+02	-2.476568e+01
2.334447e+02	-2.481501e+01
2.347931e+02	-2.486687e+01
2.361493e+02	-2.491581e+01
2.375133e+02	-2.496764e+01
2.388851e+02	-2.501754e+01
2.402649e+02	-2.506561e+01
2.416527e+02	-2.511583e+01
2.430484e+02	-2.516462e+01
2.444523e+02	-2.521600e+01
2.458642e+02	-2.526842e+01
2.472843e+02	-2.531615e+01
2.487126e+02	-2.536472e+01
2.501492e+02	-2.541638e+01
2.515940e+02	-2.546497e+01
2.530472e+02	-2.551651e+01
2.545088e+02	-2.556443e+01
2.559789e+02	-2.561410e+01
2.574574e+02	-2.566607e+01
2.589444e+02	-2.571430e+01
2.604401e+02	-2.576361e+01
2.619444e+02	-2.581412e+01
2.634574e+02	-2.586742e+01
2.649791e+02	-2.591715e+01
2.665096e+02	-2.596618e+01
2.680489e+02	-2.601613e+01
2.695972e+02	-2.606475e+01
2.711544e+02	-2.611518e+01
2.727205e+02	-2.616350e+01
2.742958e+02	-2.621636e+01
2.758801e+02	-2.626203e+01
2.774736e+02	-2.631340e+01
2.790762e+02	-2.636561e+01
2.806882e+02	-2.641281e+01
2.823094e+02	-2.646383e+01
2.839400e+02	-2.651507e+01
2.855800e+02	-2.656381e+01
2.872295e+02	-2.661613e+01
2.888886e+02	-2.666596e+01
2.905572e+02	-2.671568e+01
2.922354e+02	-2.676611e+01
2.939234e+02	-2.681585e+01
2.956211e+02	-2.686489e+01
2.973286e+02	-2.691491e+01
2.990459e+02	-2.696587e+01
3.007732e+02	-2.701333e+01
3.025104e+02	-2.706677e+01
3.042577e+02	-2.711502e+01
3.060151e+02	-2.716367e+01
3.077826e+02	-2.721482e+01
3.095604e+02	-2.726228e+01
3.113484e+02	-2.731523e+01
3.131467e+02	-2.736551e+01
3.149554e+02	-2.741575e+01
3.167746e+02	-2.746357e+01
3.186043e+02	-2.751307e+01
3.204445e+02	-2.756525e+01
3.222954e+02	-2.761507e+01
3.241570e+02	-2.766374e+01
3.260293e+02	-2.771178e+01
3.279124e+02	-2.776206e+01
3.298064e+02	-2.781436e+01
3.317114e+02	-2.786309e+01
3.336273e+02	-2.791772e+01
3.355544e+02	-2.796406e+01
3.374925e+02	-2.801165e+01
3.394418e+02	-2.806310e+01
3.414024e+02	-2.811473e+01
3.433744e+02	-2.816464e+01
3.453577e+02	-2.821599e+01
3.473525e+02	-2.826313e+01
3.493588e+02	-2.831307e+01
3.513766e+02	-2.836022e+01
3.534062e+02	-2.841324e+01
3.554474e+02	-2.846204e+01
3.575005e+02	-2.851486e+01
3.595654e+02	-2.856645e+01
3.616422e+02	-2.861321e+01
3.637311e+02	-2.866031e+01
3.658320e+02	-2.871431e+01
3.679450e+02	-2.876646e+01
3.700702e+02	-2.881623e+01
3.722077e+02	-2.885765e+01
3.743576e+02	-2.891662e+01
3.765199e+02	-2.896163e+01
3.786946e+02	-2.901387e+01
3.808820e+02	-2.906658e+01
3.830819e+02	-2.911401e+01
3.852946e+02	-2.916706e+01
3.875200e+02	-2.920920e+01
3.897583e+02	-2.926505e+01
3.920096e+02	-2.931521e+01
3.942738e+02	-2.936289e+01
3.965511e+02	-2.941176e+01
3.988416e+02	-2.946503e+01
4.011452e+02	-2.951564e+01
4.034622e+02	-2.956536e+01
4.057926e+02	-2.961758e+01
4.081365e+02	-2.966698e+01
4.104938e+02	-2.971359e+01
4.128648e+02	-2.976596e+01
4.152495e+02	-2.981468e+01
4.176480e+02	-2.987194e+01
4.200603e+02	-2.991621e+01
4.224866e+02	-2.996062e+01
4.249268e+02	-3.001913e+01
4.273812e+02	-3.006938e+01
4.298497e+02	-3.012024e+01
4.323325e+02	-3.016466e+01
4.348297e+02	-3.021847e+01
4.373412e+02	-3.026347e+01
4.398673e+02	-3.031724e+01
4.424079e+02	-3.036400e+01
4.449633e+02	-3.041382e+01
4.475334e+02	-3.046864e+01
4.501183e+02	-3.051942e+01
4.527182e+02	-3.057062e+01
4.553330e+02	-3.062147e+01
4.579630e+02	-3.066880e+01
4.606082e+02	-3.071829e+01
4.632687e+02	-3.076216e+01
4.659445e+02	-3.082040e+01
4.686358e+02	-3.087148e+01
4.713426e+02	-3.091683e+01
4.740650e+02	-3.097064e+01
4.768032e+02	-3.101243e+01
4.795572e+02	-3.106410e+01
4.823271e+02	-3.111370e+01
4.851130e+02	-3.116432e+01
4.879150e+02	-3.122109e+01
4.907332e+02	-3.127272e+01
4.935676e+02	-3.131887e+01
4.964185e+02	-3.136940e+01
4.992858e+02	-3.142526e+01
5.021696e+02	-3.146457e+01
5.050701e+02	-3.151646e+01
5.079874e+02	-3.157077e+01
5.109215e+02	-3.162279e+01
5.138726e+02	-3.167197e+01
5.168407e+02	-3.171515e+01
5.198259e+02	-3.176890e+01
5.228284e+02	-3.182134e+01
5.258482e+02	-3.186739e+01
5.288855e+02	-3.191591e+01
5.319403e+02	-3.197268e+01
5.350128e+02	-3.202798e+01
5.381030e+02	-3.207004e+01
5.412111e+02	-3.212219e+01
5.443371e+02	-3.217512e+01
5.474812e+02	-3.223266e+01
5.506434e+02	-3.226839e+01
5.538239e+02	-3.232448e+01
5.570228e+02	-3.236927e+01
5.602401e+02	-3.242375e+01
5.634760e+02	-3.246685e+01
5.667306e+02	-3.252422e+01
5.700040e+02	-3.257652e+01
5.732964e+02	-3.262730e+01
5.766077e+02	-3.267620e+01
5.799382e+02	-3.272182e+01
5.832879e+02	-3.277212e+01
5.866569e+02	-3.282121e+01
5.900454e+02	-3.287108e+01
5.934535e+02	-3.292324e+01
5.968813e+02	-3.297697e+01
6.003288e+02	-3.302788e+01
6.037963e+02	-3.307463e+01
6.072838e+02	-3.312541e+01
6.107914e+02	-3.317827e+01
6.143194e+02	-3.322531e+01
6.178676e+02	-3.328220e+01
6.214364e+02	-3.332764e+01
6.250258e+02	-3.337536e+01
6.286359e+02	-3.343050e+01
6.322669e+02	-3.347951e+01
6.359189e+02	-3.352808e+01
6.395919e+02	-3.357686e+01
6.432862e+02	-3.362860e+01
6.470017e+02	-3.367984e+01
6.507388e+02	-3.373030e+01
6.544974e+02	-3.378574e+01
6.582778e+02	-3.382757e+01
6.620800e+02	-3.387790e+01
6.659041e+02	-3.392454e+01
6.697504e+02	-3.398153e+01
6.736188e+02	-3.402853e+01
6.775096e+02	-3.408389e+01
6.814229e+02	-3.413348e+01
6.853587e+02	-3.417830e+01
6.893173e+02	-3.423139e+01
6.932988e+02	-3.428831e+01
6.973033e+02	-3.432943e+01
7.013309e+02	-3.438183e+01
