Frequency(Hz)	Magnitude(dB)
1.000000e+01	-1.462871e-05
1.005776e+01	-1.479818e-05
1.011585e+01	-1.496962e-05
1.017428e+01	-1.514305e-05
1.023305e+01	-1.531849e-05
1.029215e+01	-1.549596e-05
1.035160e+01	-1.567548e-05
1.041139e+01	-1.585709e-05
1.047153e+01	-1.604079e-05
1.053201e+01	-1.622663e-05
1.059284e+01	-1.641462e-05
1.065403e+01	-1.660479e-05
1.071556e+01	-1.679716e-05
1.077746e+01	-1.699176e-05
1.083971e+01	-1.718861e-05
1.090232e+01	-1.738775e-05
1.096529e+01	-1.758919e-05
1.102862e+01	-1.779296e-05
1.109232e+01	-1.799910e-05
1.115639e+01	-1.820762e-05
1.122083e+01	-1.841856e-05
1.128564e+01	-1.863195e-05
1.135083e+01	-1.884780e-05
1.141639e+01	-1.906616e-05
1.148233e+01	-1.928705e-05
1.154865e+01	-1.951049e-05
1.161536e+01	-1.973652e-05
1.168245e+01	-1.996518e-05
1.174992e+01	-2.019648e-05
1.181779e+01	-2.043046e-05
1.188605e+01	-2.066715e-05
1.195470e+01	-2.090659e-05
1.202375e+01	-2.114879e-05
1.209320e+01	-2.139381e-05
1.216305e+01	-2.164166e-05
1.223330e+01	-2.189239e-05
1.230396e+01	-2.214601e-05
1.237503e+01	-2.240258e-05
1.244651e+01	-2.266212e-05
1.251840e+01	-2.292467e-05
1.259070e+01	-2.319026e-05
1.266343e+01	-2.345892e-05
1.273657e+01	-2.373070e-05
1.281014e+01	-2.400562e-05
1.288413e+01	-2.428373e-05
1.295855e+01	-2.456507e-05
1.303339e+01	-2.484966e-05
1.310867e+01	-2.513755e-05
1.318439e+01	-2.542877e-05
1.326054e+01	-2.572337e-05
1.333713e+01	-2.602138e-05
1.341417e+01	-2.632285e-05
1.349165e+01	-2.662781e-05
1.356958e+01	-2.693629e-05
1.364795e+01	-2.724836e-05
1.372678e+01	-2.756404e-05
1.380607e+01	-2.788337e-05
1.388581e+01	-2.820641e-05
1.396602e+01	-2.853319e-05
1.404668e+01	-2.886375e-05
1.412782e+01	-2.919814e-05
1.420942e+01	-2.953641e-05
1.429149e+01	-2.987860e-05
1.437404e+01	-3.022475e-05
1.445706e+01	-3.057491e-05
1.454057e+01	-3.092913e-05
1.462455e+01	-3.128745e-05
1.470902e+01	-3.164992e-05
1.479398e+01	-3.201659e-05
1.487943e+01	-3.238751e-05
1.496537e+01	-3.276273e-05
1.505181e+01	-3.314229e-05
1.513875e+01	-3.352626e-05
1.522619e+01	-3.391467e-05
1.531414e+01	-3.430757e-05
1.540259e+01	-3.470504e-05
1.549156e+01	-3.510710e-05
1.558103e+01	-3.551383e-05
1.567103e+01	-3.592526e-05
1.576155e+01	-3.634146e-05
1.585258e+01	-3.676249e-05
1.594415e+01	-3.718839e-05
1.603624e+01	-3.761923e-05
1.612886e+01	-3.805505e-05
1.622202e+01	-3.849593e-05
1.631572e+01	-3.894191e-05
1.640996e+01	-3.939307e-05
1.650474e+01	-3.984944e-05
1.660008e+01	-4.031111e-05
1.669596e+01	-4.077812e-05
1.679239e+01	-4.125054e-05
1.688938e+01	-4.172844e-05
1.698694e+01	-4.221187e-05
1.708505e+01	-4.270091e-05
1.718373e+01	-4.319561e-05
1.728299e+01	-4.369604e-05
1.738281e+01	-4.420227e-05
1.748322e+01	-4.471436e-05
1.758420e+01	-4.523239e-05
1.768576e+01	-4.575641e-05
1.778792e+01	-4.628651e-05
1.789066e+01	-4.682275e-05
1.799399e+01	-4.736520e-05
1.809793e+01	-4.791394e-05
1.820246e+01	-4.846903e-05
1.830760e+01	-4.903056e-05
1.841334e+01	-4.959858e-05
1.851969e+01	-5.017319e-05
1.862666e+01	-5.075446e-05
1.873425e+01	-5.134246e-05
1.884246e+01	-5.193728e-05
1.895129e+01	-5.253898e-05
1.906075e+01	-5.314766e-05
1.917085e+01	-5.376338e-05
1.928158e+01	-5.438624e-05
1.939295e+01	-5.501632e-05
1.950496e+01	-5.565369e-05
1.961762e+01	-5.629845e-05
1.973093e+01	-5.695068e-05
1.984490e+01	-5.761047e-05
1.995952e+01	-5.827790e-05
2.007480e+01	-5.895306e-05
2.019076e+01	-5.963604e-05
2.030738e+01	-6.032694e-05
2.042467e+01	-6.102584e-05
2.054264e+01	-6.173283e-05
2.066130e+01	-6.244802e-05
2.078064e+01	-6.317149e-05
2.090066e+01	-6.390335e-05
2.102139e+01	-6.464368e-05
2.114280e+01	-6.539259e-05
2.126492e+01	-6.615017e-05
2.138775e+01	-6.691653e-05
2.151128e+01	-6.769178e-05
2.163553e+01	-6.847600e-05
2.176050e+01	-6.926930e-05
2.188619e+01	-7.007180e-05
2.201260e+01	-7.088360e-05
2.213974e+01	-7.170480e-05
2.226762e+01	-7.253551e-05
2.239624e+01	-7.337585e-05
2.252560e+01	-7.422592e-05
2.265571e+01	-7.508584e-05
2.278656e+01	-7.595572e-05
2.291818e+01	-7.683568e-05
2.305055e+01	-7.772584e-05
2.318369e+01	-7.862631e-05
2.331760e+01	-7.953721e-05
2.345228e+01	-8.045866e-05
2.358774e+01	-8.139079e-05
2.372398e+01	-8.233371e-05
2.386101e+01	-8.328756e-05
2.399883e+01	-8.425246e-05
2.413745e+01	-8.522854e-05
2.427686e+01	-8.621593e-05
2.441709e+01	-8.721475e-05
2.455812e+01	-8.822515e-05
2.469997e+01	-8.924725e-05
2.484263e+01	-9.028120e-05
2.498612e+01	-9.132712e-05
2.513044e+01	-9.238516e-05
2.527559e+01	-9.345545e-05
2.542158e+01	-9.453815e-05
2.556842e+01	-9.563339e-05
2.571610e+01	-9.674131e-05
2.586463e+01	-9.786208e-05
2.601403e+01	-9.899582e-05
2.616428e+01	-1.001427e-04
2.631541e+01	-1.013029e-04
2.646740e+01	-1.024765e-04
2.662028e+01	-1.036637e-04
2.677404e+01	-1.048646e-04
2.692868e+01	-1.060795e-04
2.708422e+01	-1.073085e-04
2.724066e+01	-1.085516e-04
2.739800e+01	-1.098092e-04
2.755625e+01	-1.110814e-04
2.771541e+01	-1.123683e-04
2.787550e+01	-1.136701e-04
2.803650e+01	-1.149870e-04
2.819844e+01	-1.163191e-04
2.836131e+01	-1.176667e-04
2.852513e+01	-1.190298e-04
2.868989e+01	-1.204088e-04
2.885560e+01	-1.218038e-04
2.902227e+01	-1.232149e-04
2.918990e+01	-1.246423e-04
2.935850e+01	-1.260863e-04
2.952807e+01	-1.275471e-04
2.969863e+01	-1.290247e-04
2.987016e+01	-1.305195e-04
3.004269e+01	-1.320316e-04
3.021622e+01	-1.335612e-04
3.039075e+01	-1.351085e-04
3.056628e+01	-1.366737e-04
3.074283e+01	-1.382571e-04
3.092040e+01	-1.398588e-04
3.109900e+01	-1.414791e-04
3.127862e+01	-1.431181e-04
3.145929e+01	-1.447762e-04
3.164099e+01	-1.464534e-04
3.182375e+01	-1.481501e-04
3.200756e+01	-1.498664e-04
3.219244e+01	-1.516026e-04
3.237838e+01	-1.533590e-04
3.256540e+01	-1.551356e-04
3.275349e+01	-1.569329e-04
3.294268e+01	-1.587510e-04
3.313295e+01	-1.605901e-04
3.332433e+01	-1.624506e-04
3.351681e+01	-1.643326e-04
3.371040e+01	-1.662364e-04
3.390511e+01	-1.681622e-04
3.410094e+01	-1.701104e-04
3.429791e+01	-1.720811e-04
3.449601e+01	-1.740747e-04
3.469526e+01	-1.760914e-04
3.489566e+01	-1.781314e-04
3.509721e+01	-1.801950e-04
3.529993e+01	-1.822826e-04
3.550382e+01	-1.843944e-04
3.570889e+01	-1.865306e-04
3.591515e+01	-1.886915e-04
3.612259e+01	-1.908775e-04
3.633123e+01	-1.930889e-04
3.654108e+01	-1.953258e-04
3.675214e+01	-1.975886e-04
3.696442e+01	-1.998777e-04
3.717792e+01	-2.021933e-04
3.739266e+01	-2.045357e-04
3.760864e+01	-2.069053e-04
3.782587e+01	-2.093023e-04
3.804435e+01	-2.117270e-04
3.826409e+01	-2.141799e-04
3.848510e+01	-2.166611e-04
3.870739e+01	-2.191712e-04
3.893096e+01	-2.217103e-04
3.915583e+01	-2.242788e-04
3.938199e+01	-2.268770e-04
3.960946e+01	-2.295054e-04
3.983824e+01	-2.321642e-04
4.006834e+01	-2.348538e-04
4.029978e+01	-2.375746e-04
4.053255e+01	-2.403269e-04
4.076666e+01	-2.431111e-04
4.100213e+01	-2.459275e-04
4.123896e+01	-2.487765e-04
4.147715e+01	-2.516586e-04
4.171672e+01	-2.545741e-04
4.195767e+01	-2.575233e-04
4.220002e+01	-2.605067e-04
4.244377e+01	-2.635246e-04
4.268892e+01	-2.665775e-04
4.293549e+01	-2.696658e-04
4.318348e+01	-2.727899e-04
4.343291e+01	-2.759501e-04
4.368377e+01	-2.791470e-04
4.393609e+01	-2.823809e-04
4.418986e+01	-2.856522e-04
4.444510e+01	-2.889615e-04
4.470182e+01	-2.923091e-04
4.496001e+01	-2.956954e-04
4.521970e+01	-2.991210e-04
4.548089e+01	-3.025863e-04
4.574358e+01	-3.060917e-04
4.600779e+01	-3.096377e-04
4.627353e+01	-3.132249e-04
4.654081e+01	-3.168535e-04
4.680963e+01	-3.205242e-04
4.708000e+01	-3.242374e-04
4.735193e+01	-3.279937e-04
4.762543e+01	-3.317934e-04
4.790051e+01	-3.356372e-04
4.817719e+01	-3.395255e-04
4.845545e+01	-3.434588e-04
4.873533e+01	-3.474378e-04
4.901682e+01	-3.514628e-04
4.929994e+01	-3.555344e-04
4.958470e+01	-3.596532e-04
4.987110e+01	-3.638197e-04
5.015915e+01	-3.680345e-04
5.044887e+01	-3.722981e-04
5.074026e+01	-3.766110e-04
5.103333e+01	-3.809740e-04
5.132810e+01	-3.853875e-04
5.162457e+01	-3.898521e-04
5.192275e+01	-3.943684e-04
5.222265e+01	-3.989371e-04
5.252429e+01	-4.035587e-04
5.282767e+01	-4.082338e-04
5.313280e+01	-4.129631e-04
5.343969e+01	-4.177471e-04
5.374836e+01	-4.225866e-04
5.405880e+01	-4.274822e-04
5.437105e+01	-4.324344e-04
5.468509e+01	-4.374440e-04
5.500095e+01	-4.425117e-04
5.531863e+01	-4.476380e-04
5.563815e+01	-4.528238e-04
5.595951e+01	-4.580696e-04
5.628273e+01	-4.633762e-04
5.660782e+01	-4.687442e-04
5.693479e+01	-4.741745e-04
5.726364e+01	-4.796676e-04
5.759439e+01	-4.852244e-04
5.792705e+01	-4.908455e-04
5.826164e+01	-4.965318e-04
5.859815e+01	-5.022839e-04
5.893662e+01	-5.081027e-04
5.927703e+01	-5.139888e-04
5.961941e+01	-5.199432e-04
5.996377e+01	-5.259665e-04
6.031012e+01	-5.320596e-04
6.065847e+01	-5.382232e-04
6.100883e+01	-5.444583e-04
6.136121e+01	-5.507656e-04
6.171563e+01	-5.571460e-04
6.207210e+01	-5.636003e-04
6.243063e+01	-5.701293e-04
6.279122e+01	-5.767340e-04
6.315390e+01	-5.834151e-04
6.351868e+01	-5.901737e-04
6.388556e+01	-5.970105e-04
6.425456e+01	-6.039266e-04
6.462569e+01	-6.109228e-04
6.499897e+01	-6.180000e-04
6.537440e+01	-6.251592e-04
6.575200e+01	-6.324013e-04
6.613178e+01	-6.397273e-04
6.651375e+01	-6.471381e-04
6.689793e+01	-6.546348e-04
6.728433e+01	-6.622184e-04
6.767297e+01	-6.698898e-04
6.806384e+01	-6.776500e-04
6.845698e+01	-6.855002e-04
6.885238e+01	-6.934412e-04
6.925007e+01	-7.014743e-04
6.965005e+01	-7.096004e-04
7.005235e+01	-7.178206e-04
7.045697e+01	-7.261361e-04
7.086393e+01	-7.345479e-04
7.127323e+01	-7.430571e-04
7.168490e+01	-7.516649e-04
7.209895e+01	-7.603723e-04
7.251539e+01	-7.691807e-04
7.293424e+01	-7.780910e-04
7.335551e+01	-7.871046e-04
7.377920e+01	-7.962226e-04
7.420535e+01	-8.054462e-04
7.463396e+01	-8.147767e-04
7.506504e+01	-8.242152e-04
7.549861e+01	-8.337630e-04
7.593469e+01	-8.434214e-04
7.637328e+01	-8.531918e-04
7.681441e+01	-8.630752e-04
7.725809e+01	-8.730732e-04
7.770433e+01	-8.831870e-04
7.815315e+01	-8.934179e-04
7.860456e+01	-9.037673e-04
7.905857e+01	-9.142366e-04
7.951521e+01	-9.248271e-04
7.997449e+01	-9.355403e-04
8.043642e+01	-9.463776e-04
8.090102e+01	-9.573405e-04
8.136830e+01	-9.684303e-04
8.183828e+01	-9.796486e-04
8.231097e+01	-9.909968e-04
8.278640e+01	-1.002476e-03
8.326457e+01	-1.014089e-03
8.374550e+01	-1.025836e-03
8.422921e+01	-1.037719e-03
8.471572e+01	-1.049740e-03
8.520503e+01	-1.061900e-03
8.569717e+01	-1.074201e-03
8.619215e+01	-1.086644e-03
8.669000e+01	-1.099232e-03
8.719071e+01	-1.111965e-03
8.769432e+01	-1.124846e-03
8.820084e+01	-1.137876e-03
8.871029e+01	-1.151057e-03
8.922267e+01	-1.164390e-03
8.973802e+01	-1.177878e-03
9.025634e+01	-1.191522e-03
9.077766e+01	-1.205324e-03
9.130199e+01	-1.219286e-03
9.182935e+01	-1.233410e-03
9.235975e+01	-1.247698e-03
9.289321e+01	-1.262150e-03
9.342976e+01	-1.276771e-03
9.396941e+01	-1.291560e-03
9.451217e+01	-1.306521e-03
9.505807e+01	-1.321655e-03
9.560712e+01	-1.336964e-03
9.615934e+01	-1.352451e-03
9.671476e+01	-1.368117e-03
9.727338e+01	-1.383965e-03
9.783522e+01	-1.399996e-03
9.840032e+01	-1.416212e-03
9.896867e+01	-1.432617e-03
9.954031e+01	-1.449211e-03
1.001153e+02	-1.465998e-03
1.006935e+02	-1.482979e-03
1.012751e+02	-1.500157e-03
1.018601e+02	-1.517533e-03
1.024484e+02	-1.535111e-03
1.030402e+02	-1.552893e-03
1.036353e+02	-1.570880e-03
1.042339e+02	-1.589076e-03
1.048360e+02	-1.607483e-03
1.054415e+02	-1.626102e-03
1.060505e+02	-1.644937e-03
1.066631e+02	-1.663991e-03
1.072791e+02	-1.683265e-03
1.078988e+02	-1.702762e-03
1.085220e+02	-1.722485e-03
1.091488e+02	-1.742437e-03
1.097793e+02	-1.762619e-03
1.104133e+02	-1.783035e-03
1.110511e+02	-1.803688e-03
1.116925e+02	-1.824580e-03
1.123376e+02	-1.845713e-03
1.129865e+02	-1.867092e-03
1.136391e+02	-1.888718e-03
1.142955e+02	-1.910594e-03
1.149556e+02	-1.932724e-03
1.156196e+02	-1.955110e-03
1.162874e+02	-1.977756e-03
1.169591e+02	-2.000663e-03
1.176347e+02	-2.023836e-03
1.183141e+02	-2.047277e-03
1.189975e+02	-2.070990e-03
1.196848e+02	-2.094977e-03
1.203761e+02	-2.119242e-03
1.210714e+02	-2.143788e-03
1.217707e+02	-2.168618e-03
1.224740e+02	-2.193736e-03
1.231814e+02	-2.219144e-03
1.238929e+02	-2.244847e-03
1.246085e+02	-2.270847e-03
1.253283e+02	-2.297149e-03
1.260522e+02	-2.323755e-03
1.267802e+02	-2.350669e-03
1.275125e+02	-2.377894e-03
1.282490e+02	-2.405435e-03
1.289898e+02	-2.433295e-03
1.297348e+02	-2.461477e-03
1.304842e+02	-2.489986e-03
1.312378e+02	-2.518825e-03
1.319959e+02	-2.547997e-03
1.327583e+02	-2.577508e-03
1.335251e+02	-2.607360e-03
1.342963e+02	-2.637558e-03
1.350720e+02	-2.668105e-03
1.358522e+02	-2.699006e-03
1.366368e+02	-2.730265e-03
1.374260e+02	-2.761886e-03
1.382198e+02	-2.793873e-03
1.390182e+02	-2.826230e-03
1.398211e+02	-2.858962e-03
1.406287e+02	-2.892072e-03
1.414410e+02	-2.925567e-03
1.422579e+02	-2.959448e-03
1.430796e+02	-2.993723e-03
1.439060e+02	-3.028394e-03
1.447372e+02	-3.063466e-03
1.455732e+02	-3.098944e-03
1.464141e+02	-3.134833e-03
1.472597e+02	-3.171138e-03
1.481103e+02	-3.207863e-03
1.489658e+02	-3.245013e-03
1.498262e+02	-3.282593e-03
1.506916e+02	-3.320608e-03
1.515620e+02	-3.359063e-03
1.524374e+02	-3.397964e-03
1.533179e+02	-3.437314e-03
1.542034e+02	-3.477120e-03
1.550941e+02	-3.517387e-03
1.559899e+02	-3.558121e-03
1.568909e+02	-3.599325e-03
1.577971e+02	-3.641007e-03
1.587085e+02	-3.683171e-03
1.596252e+02	-3.725823e-03
1.605472e+02	-3.768969e-03
1.614745e+02	-3.812614e-03
1.624072e+02	-3.856765e-03
1.633453e+02	-3.901426e-03
1.642887e+02	-3.946605e-03
1.652377e+02	-3.992306e-03
1.661921e+02	-4.038536e-03
1.671520e+02	-4.085302e-03
1.681175e+02	-4.132608e-03
1.690885e+02	-4.180463e-03
1.700651e+02	-4.228871e-03
1.710474e+02	-4.277839e-03
1.720354e+02	-4.327374e-03
1.730291e+02	-4.377483e-03
1.740285e+02	-4.428171e-03
1.750337e+02	-4.479446e-03
1.760446e+02	-4.531314e-03
1.770615e+02	-4.583783e-03
1.780842e+02	-4.636859e-03
1.791128e+02	-4.690549e-03
1.801473e+02	-4.744861e-03
1.811878e+02	-4.799801e-03
1.822344e+02	-4.855376e-03
1.832870e+02	-4.911595e-03
1.843456e+02	-4.968465e-03
1.854104e+02	-5.025992e-03
1.864813e+02	-5.084185e-03
1.875584e+02	-5.143052e-03
1.886418e+02	-5.202600e-03
1.897313e+02	-5.262837e-03
1.908272e+02	-5.323771e-03
1.919294e+02	-5.385409e-03
1.930380e+02	-5.447762e-03
1.941530e+02	-5.510835e-03
1.952744e+02	-5.574638e-03
1.964023e+02	-5.639180e-03
1.975367e+02	-5.704468e-03
1.986777e+02	-5.770512e-03
1.998252e+02	-5.837320e-03
2.009794e+02	-5.904901e-03
2.021403e+02	-5.973263e-03
2.033078e+02	-6.042417e-03
2.044821e+02	-6.112370e-03
2.056632e+02	-6.183133e-03
2.068511e+02	-6.254714e-03
2.080459e+02	-6.327124e-03
2.092475e+02	-6.400371e-03
2.104561e+02	-6.474466e-03
2.116717e+02	-6.549417e-03
2.128943e+02	-6.625236e-03
2.141240e+02	-6.701931e-03
2.153608e+02	-6.779514e-03
2.166047e+02	-6.857994e-03
2.178558e+02	-6.937382e-03
2.191141e+02	-7.017689e-03
2.203797e+02	-7.098924e-03
2.216526e+02	-7.181098e-03
2.229329e+02	-7.264223e-03
2.242205e+02	-7.348310e-03
2.255156e+02	-7.433369e-03
2.268182e+02	-7.519411e-03
2.281283e+02	-7.606449e-03
2.294459e+02	-7.694493e-03
2.307712e+02	-7.783556e-03
2.321041e+02	-7.873648e-03
2.334447e+02	-7.964783e-03
2.347931e+02	-8.056971e-03
2.361493e+02	-8.150225e-03
2.375133e+02	-8.244557e-03
2.388851e+02	-8.339981e-03
2.402649e+02	-8.436507e-03
2.416527e+02	-8.534150e-03
2.430484e+02	-8.632922e-03
2.444523e+02	-8.732835e-03
2.458642e+02	-8.833904e-03
2.472843e+02	-8.936141e-03
2.487126e+02	-9.039561e-03
2.501492e+02	-9.144176e-03
2.515940e+02	-9.250000e-03
2.530472e+02	-9.357048e-03
2.545088e+02	-9.465333e-03
2.559789e+02	-9.574870e-03
2.574574e+02	-9.685673e-03
2.589444e+02	-9.797757e-03
2.604401e+02	-9.911137e-03
2.619444e+02	-1.002583e-02
2.634574e+02	-1.014184e-02
2.649791e+02	-1.025920e-02
2.665096e+02	-1.037791e-02
2.680489e+02	-1.049800e-02
2.695972e+02	-1.061947e-02
2.711544e+02	-1.074235e-02
2.727205e+02	-1.086664e-02
2.742958e+02	-1.099237e-02
2.758801e+02	-1.111956e-02
2.774736e+02	-1.124822e-02
2.790762e+02	-1.137836e-02
2.806882e+02	-1.151000e-02
2.823094e+02	-1.164317e-02
2.839400e+02	-1.177788e-02
2.855800e+02	-1.191414e-02
2.872295e+02	-1.205197e-02
2.888886e+02	-1.219140e-02
2.905572e+02	-1.233244e-02
2.922354e+02	-1.247511e-02
2.939234e+02	-1.261943e-02
2.956211e+02	-1.276541e-02
2.973286e+02	-1.291308e-02
2.990459e+02	-1.306246e-02
3.007732e+02	-1.321356e-02
3.025104e+02	-1.336640e-02
3.042577e+02	-1.352101e-02
3.060151e+02	-1.367741e-02
3.077826e+02	-1.383561e-02
3.095604e+02	-1.399564e-02
3.113484e+02	-1.415752e-02
3.131467e+02	-1.432127e-02
3.149554e+02	-1.448690e-02
3.167746e+02	-1.465445e-02
3.186043e+02	-1.482394e-02
3.204445e+02	-1.499538e-02
3.222954e+02	-1.516880e-02
3.241570e+02	-1.534422e-02
3.260293e+02	-1.552167e-02
3.279124e+02	-1.570117e-02
3.298064e+02	-1.588274e-02
3.317114e+02	-1.606640e-02
3.336273e+02	-1.625218e-02
3.355544e+02	-1.644011e-02
3.374925e+02	-1.663021e-02
3.394418e+02	-1.682250e-02
3.414024e+02	-1.701701e-02
3.433744e+02	-1.721376e-02
3.453577e+02	-1.741279e-02
3.473525e+02	-1.761411e-02
3.493588e+02	-1.781775e-02
3.513766e+02	-1.802374e-02
3.534062e+02	-1.823211e-02
3.554474e+02	-1.844289e-02
3.575005e+02	-1.865609e-02
3.595654e+02	-1.887176e-02
3.616422e+02	-1.908991e-02
3.637311e+02	-1.931058e-02
3.658320e+02	-1.953379e-02
3.679450e+02	-1.975957e-02
3.700702e+02	-1.998797e-02
3.722077e+02	-2.021899e-02
3.743576e+02	-2.045268e-02
3.765199e+02	-2.068906e-02
3.786946e+02	-2.092817e-02
3.808820e+02	-2.117003e-02
3.830819e+02	-2.141469e-02
3.852946e+02	-2.166216e-02
3.875200e+02	-2.191249e-02
3.897583e+02	-2.216570e-02
3.920096e+02	-2.242183e-02
3.942738e+02	-2.268091e-02
3.965511e+02	-2.294298e-02
3.988416e+02	-2.320806e-02
4.011452e+02	-2.347621e-02
4.034622e+02	-2.374744e-02
4.057926e+02	-2.402179e-02
4.081365e+02	-2.429931e-02
4.104938e+02	-2.458002e-02
4.128648e+02	-2.486397e-02
4.152495e+02	-2.515119e-02
4.176480e+02	-2.544172e-02
4.200603e+02	-2.573559e-02
4.224866e+02	-2.603284e-02
4.249268e+02	-2.633352e-02
4.273812e+02	-2.663767e-02
4.298497e+02	-2.694531e-02
4.323325e+02	-2.725649e-02
4.348297e+02	-2.757126e-02
4.373412e+02	-2.788965e-02
4.398673e+02	-2.821171e-02
4.424079e+02	-2.853747e-02
4.449633e+02	-2.886698e-02
4.475334e+02	-2.920028e-02
4.501183e+02	-2.953742e-02
4.527182e+02	-2.987844e-02
4.553330e+02	-3.022338e-02
4.579630e+02	-3.057229e-02
4.606082e+02	-3.092521e-02
4.632687e+02	-3.128219e-02
4.659445e+02	-3.164328e-02
4.686358e+02	-3.200852e-02
4.713426e+02	-3.237796e-02
4.740650e+02	-3.275164e-02
4.768032e+02	-3.312963e-02
4.795572e+02	-3.351196e-02
4.823271e+02	-3.389868e-02
4.851130e+02	-3.428985e-02
4.879150e+02	-3.468552e-02
4.907332e+02	-3.508573e-02
4.935676e+02	-3.549054e-02
4.964185e+02	-3.590000e-02
4.992858e+02	-3.631417e-02
5.021696e+02	-3.673309e-02
5.050701e+02	-3.715683e-02
5.079874e+02	-3.758543e-02
5.109215e+02	-3.801895e-02
5.138726e+02	-3.845746e-02
5.168407e+02	-3.890100e-02
5.198259e+02	-3.934963e-02
5.228284e+02	-3.980341e-02
5.258482e+02	-4.026239e-02
5.288855e+02	-4.072665e-02
5.319403e+02	-4.119623e-02
5.350128e+02	-4.167121e-02
5.381030e+02	-4.215163e-02
5.412111e+02	-4.263756e-02
5.443371e+02	-4.312907e-02
5.474812e+02	-4.362621e-02
5.506434e+02	-4.412906e-02
5.538239e+02	-4.463767e-02
5.570228e+02	-4.515212e-02
5.602401e+02	-4.567246e-02
5.634760e+02	-4.619876e-02
5.667306e+02	-4.673110e-02
5.700040e+02	-4.726954e-02
5.732964e+02	-4.781414e-02
5.766077e+02	-4.836499e-02
5.799382e+02	-4.892215e-02
5.832879e+02	-4.948569e-02
5.866569e+02	-5.005568e-02
5.900454e+02	-5.063220e-02
5.934535e+02	-5.121532e-02
5.968813e+02	-5.180512e-02
6.003288e+02	-5.240166e-02
6.037963e+02	-5.300504e-02
6.072838e+02	-5.361532e-02
6.107914e+02	-5.423258e-02
6.143194e+02	-5.485690e-02
6.178676e+02	-5.548836e-02
6.214364e+02	-5.612705e-02
6.250258e+02	-5.677303e-02
6.286359e+02	-5.742641e-02
6.322669e+02	-5.808725e-02
6.359189e+02	-5.875564e-02
6.395919e+02	-5.943168e-02
6.432862e+02	-6.011544e-02
6.470017e+02	-6.080701e-02
6.507388e+02	-6.150647e-02
6.544974e+02	-6.221393e-02
6.582778e+02	-6.292947e-02
6.620800e+02	-6.365317e-02
6.659041e+02	-6.438513e-02
6.697504e+02	-6.512545e-02
6.736188e+02	-6.587422e-02
6.775096e+02	-6.663153e-02
6.814229e+02	-6.739747e-02
6.853587e+02	-6.817215e-02
6.893173e+02	-6.895567e-02
6.932988e+02	-6.974812e-02
6.973033e+02	-7.054960e-02
7.013309e+02	-7.136021e-02
