Frequency(Hz)	Magnitude(dB)
1.000000e+01	-1.660540e-05
1.005776e+01	-1.679777e-05
1.011585e+01	-1.699238e-05
1.017428e+01	-1.718924e-05
1.023305e+01	-1.738838e-05
1.029215e+01	-1.758983e-05
1.035160e+01	-1.779361e-05
1.041139e+01	-1.799976e-05
1.047153e+01	-1.820829e-05
1.053201e+01	-1.841924e-05
1.059284e+01	-1.863263e-05
1.065403e+01	-1.884849e-05
1.071556e+01	-1.906686e-05
1.077746e+01	-1.928775e-05
1.083971e+01	-1.951121e-05
1.090232e+01	-1.973725e-05
1.096529e+01	-1.996591e-05
1.102862e+01	-2.019722e-05
1.109232e+01	-2.043121e-05
1.115639e+01	-2.066791e-05
1.122083e+01	-2.090735e-05
1.128564e+01	-2.114957e-05
1.135083e+01	-2.139459e-05
1.141639e+01	-2.164245e-05
1.148233e+01	-2.189319e-05
1.154865e+01	-2.214683e-05
1.161536e+01	-2.240340e-05
1.168245e+01	-2.266295e-05
1.174992e+01	-2.292551e-05
1.181779e+01	-2.319110e-05
1.188605e+01	-2.345978e-05
1.195470e+01	-2.373157e-05
1.202375e+01	-2.400650e-05
1.209320e+01	-2.428462e-05
1.216305e+01	-2.456597e-05
1.223330e+01	-2.485057e-05
1.230396e+01	-2.513847e-05
1.237503e+01	-2.542971e-05
1.244651e+01	-2.572431e-05
1.251840e+01	-2.602234e-05
1.259070e+01	-2.632381e-05
1.266343e+01	-2.662878e-05
1.273657e+01	-2.693728e-05
1.281014e+01	-2.724936e-05
1.288413e+01	-2.756505e-05
1.295855e+01	-2.788439e-05
1.303339e+01	-2.820744e-05
1.310867e+01	-2.853423e-05
1.318439e+01	-2.886481e-05
1.326054e+01	-2.919921e-05
1.333713e+01	-2.953749e-05
1.341417e+01	-2.987969e-05
1.349165e+01	-3.022586e-05
1.356958e+01	-3.057603e-05
1.364795e+01	-3.093026e-05
1.372678e+01	-3.128859e-05
1.380607e+01	-3.165108e-05
1.388581e+01	-3.201777e-05
1.396602e+01	-3.238870e-05
1.404668e+01	-3.276393e-05
1.412782e+01	-3.314351e-05
1.420942e+01	-3.352748e-05
1.429149e+01	-3.391591e-05
1.437404e+01	-3.430883e-05
1.445706e+01	-3.470631e-05
1.454057e+01	-3.510839e-05
1.462455e+01	-3.551513e-05
1.470902e+01	-3.592658e-05
1.479398e+01	-3.634279e-05
1.487943e+01	-3.676383e-05
1.496537e+01	-3.718975e-05
1.505181e+01	-3.762060e-05
1.513875e+01	-3.805645e-05
1.522619e+01	-3.849734e-05
1.531414e+01	-3.894334e-05
1.540259e+01	-3.939451e-05
1.549156e+01	-3.985090e-05
1.558103e+01	-4.031258e-05
1.567103e+01	-4.077961e-05
1.576155e+01	-4.125205e-05
1.585258e+01	-4.172997e-05
1.594415e+01	-4.221342e-05
1.603624e+01	-4.270247e-05
1.612886e+01	-4.319719e-05
1.622202e+01	-4.369764e-05
1.631572e+01	-4.420389e-05
1.640996e+01	-4.471600e-05
1.650474e+01	-4.523404e-05
1.660008e+01	-4.575809e-05
1.669596e+01	-4.628821e-05
1.679239e+01	-4.682446e-05
1.688938e+01	-4.736694e-05
1.698694e+01	-4.791569e-05
1.708505e+01	-4.847081e-05
1.718373e+01	-4.903235e-05
1.728299e+01	-4.960040e-05
1.738281e+01	-5.017503e-05
1.748322e+01	-5.075632e-05
1.758420e+01	-5.134434e-05
1.768576e+01	-5.193918e-05
1.778792e+01	-5.254090e-05
1.789066e+01	-5.314960e-05
1.799399e+01	-5.376535e-05
1.809793e+01	-5.438823e-05
1.820246e+01	-5.501833e-05
1.830760e+01	-5.565573e-05
1.841334e+01	-5.630051e-05
1.851969e+01	-5.695277e-05
1.862666e+01	-5.761258e-05
1.873425e+01	-5.828003e-05
1.884246e+01	-5.895522e-05
1.895129e+01	-5.963822e-05
1.906075e+01	-6.032914e-05
1.917085e+01	-6.102807e-05
1.928158e+01	-6.173509e-05
1.939295e+01	-6.245030e-05
1.950496e+01	-6.317380e-05
1.961762e+01	-6.390568e-05
1.973093e+01	-6.464604e-05
1.984490e+01	-6.539498e-05
1.995952e+01	-6.615259e-05
2.007480e+01	-6.691898e-05
2.019076e+01	-6.769425e-05
2.030738e+01	-6.847850e-05
2.042467e+01	-6.927184e-05
2.054264e+01	-7.007437e-05
2.066130e+01	-7.088619e-05
2.078064e+01	-7.170742e-05
2.090066e+01	-7.253817e-05
2.102139e+01	-7.337853e-05
2.114280e+01	-7.422864e-05
2.126492e+01	-7.508859e-05
2.138775e+01	-7.595850e-05
2.151128e+01	-7.683850e-05
2.163553e+01	-7.772868e-05
2.176050e+01	-7.862918e-05
2.188619e+01	-7.954012e-05
2.201260e+01	-8.046160e-05
2.213974e+01	-8.139376e-05
2.226762e+01	-8.233673e-05
2.239624e+01	-8.329061e-05
2.252560e+01	-8.425555e-05
2.265571e+01	-8.523166e-05
2.278656e+01	-8.621908e-05
2.291818e+01	-8.721795e-05
2.305055e+01	-8.822838e-05
2.318369e+01	-8.925052e-05
2.331760e+01	-9.028450e-05
2.345228e+01	-9.133046e-05
2.358774e+01	-9.238854e-05
2.372398e+01	-9.345887e-05
2.386101e+01	-9.454161e-05
2.399883e+01	-9.563689e-05
2.413745e+01	-9.674486e-05
2.427686e+01	-9.786566e-05
2.441709e+01	-9.899945e-05
2.455812e+01	-1.001464e-04
2.469997e+01	-1.013066e-04
2.484263e+01	-1.024802e-04
2.498612e+01	-1.036675e-04
2.513044e+01	-1.048685e-04
2.527559e+01	-1.060834e-04
2.542158e+01	-1.073124e-04
2.556842e+01	-1.085556e-04
2.571610e+01	-1.098132e-04
2.586463e+01	-1.110854e-04
2.601403e+01	-1.123724e-04
2.616428e+01	-1.136742e-04
2.631541e+01	-1.149912e-04
2.646740e+01	-1.163234e-04
2.662028e+01	-1.176710e-04
2.677404e+01	-1.190342e-04
2.692868e+01	-1.204132e-04
2.708422e+01	-1.218082e-04
2.724066e+01	-1.232194e-04
2.739800e+01	-1.246469e-04
2.755625e+01	-1.260910e-04
2.771541e+01	-1.275517e-04
2.787550e+01	-1.290294e-04
2.803650e+01	-1.305243e-04
2.819844e+01	-1.320364e-04
2.836131e+01	-1.335660e-04
2.852513e+01	-1.351134e-04
2.868989e+01	-1.366787e-04
2.885560e+01	-1.382622e-04
2.902227e+01	-1.398639e-04
2.918990e+01	-1.414843e-04
2.935850e+01	-1.431234e-04
2.952807e+01	-1.447815e-04
2.969863e+01	-1.464588e-04
2.987016e+01	-1.481555e-04
3.004269e+01	-1.498719e-04
3.021622e+01	-1.516082e-04
3.039075e+01	-1.533646e-04
3.056628e+01	-1.551413e-04
3.074283e+01	-1.569386e-04
3.092040e+01	-1.587568e-04
3.109900e+01	-1.605960e-04
3.127862e+01	-1.624565e-04
3.145929e+01	-1.643386e-04
3.164099e+01	-1.662425e-04
3.182375e+01	-1.681684e-04
3.200756e+01	-1.701166e-04
3.219244e+01	-1.720874e-04
3.237838e+01	-1.740811e-04
3.256540e+01	-1.760978e-04
3.275349e+01	-1.781379e-04
3.294268e+01	-1.802016e-04
3.313295e+01	-1.822893e-04
3.332433e+01	-1.844011e-04
3.351681e+01	-1.865374e-04
3.371040e+01	-1.886984e-04
3.390511e+01	-1.908845e-04
3.410094e+01	-1.930959e-04
3.429791e+01	-1.953329e-04
3.449601e+01	-1.975959e-04
3.469526e+01	-1.998850e-04
3.489566e+01	-2.022007e-04
3.509721e+01	-2.045432e-04
3.529993e+01	-2.069128e-04
3.550382e+01	-2.093099e-04
3.570889e+01	-2.117348e-04
3.591515e+01	-2.141877e-04
3.612259e+01	-2.166691e-04
3.633123e+01	-2.191792e-04
3.654108e+01	-2.217184e-04
3.675214e+01	-2.242870e-04
3.696442e+01	-2.268853e-04
3.717792e+01	-2.295138e-04
3.739266e+01	-2.321727e-04
3.760864e+01	-2.348624e-04
3.782587e+01	-2.375833e-04
3.804435e+01	-2.403357e-04
3.826409e+01	-2.431200e-04
3.848510e+01	-2.459365e-04
3.870739e+01	-2.487857e-04
3.893096e+01	-2.516678e-04
3.915583e+01	-2.545834e-04
3.938199e+01	-2.575327e-04
3.960946e+01	-2.605162e-04
3.983824e+01	-2.635343e-04
4.006834e+01	-2.665873e-04
4.029978e+01	-2.696757e-04
4.053255e+01	-2.727999e-04
4.076666e+01	-2.759602e-04
4.100213e+01	-2.791572e-04
4.123896e+01	-2.823912e-04
4.147715e+01	-2.856627e-04
4.171672e+01	-2.889720e-04
4.195767e+01	-2.923198e-04
4.220002e+01	-2.957062e-04
4.244377e+01	-2.991320e-04
4.268892e+01	-3.025974e-04
4.293549e+01	-3.061029e-04
4.318348e+01	-3.096491e-04
4.343291e+01	-3.132363e-04
4.368377e+01	-3.168651e-04
4.393609e+01	-3.205360e-04
4.418986e+01	-3.242493e-04
4.444510e+01	-3.280057e-04
4.470182e+01	-3.318056e-04
4.496001e+01	-3.356495e-04
4.521970e+01	-3.395379e-04
4.548089e+01	-3.434714e-04
4.574358e+01	-3.474505e-04
4.600779e+01	-3.514756e-04
4.627353e+01	-3.555474e-04
4.654081e+01	-3.596663e-04
4.680963e+01	-3.638330e-04
4.708000e+01	-3.680479e-04
4.735193e+01	-3.723117e-04
4.762543e+01	-3.766248e-04
4.790051e+01	-3.809879e-04
4.817719e+01	-3.854016e-04
4.845545e+01	-3.898664e-04
4.873533e+01	-3.943829e-04
4.901682e+01	-3.989517e-04
4.929994e+01	-4.035735e-04
4.958470e+01	-4.082488e-04
4.987110e+01	-4.129782e-04
5.015915e+01	-4.177624e-04
5.044887e+01	-4.226021e-04
5.074026e+01	-4.274978e-04
5.103333e+01	-4.324503e-04
5.132810e+01	-4.374601e-04
5.162457e+01	-4.425279e-04
5.192275e+01	-4.476544e-04
5.222265e+01	-4.528404e-04
5.252429e+01	-4.580864e-04
5.282767e+01	-4.633931e-04
5.313280e+01	-4.687614e-04
5.343969e+01	-4.741918e-04
5.374836e+01	-4.796852e-04
5.405880e+01	-4.852421e-04
5.437105e+01	-4.908635e-04
5.468509e+01	-4.965500e-04
5.500095e+01	-5.023023e-04
5.531863e+01	-5.081213e-04
5.563815e+01	-5.140076e-04
5.595951e+01	-5.199622e-04
5.628273e+01	-5.259857e-04
5.660782e+01	-5.320791e-04
5.693479e+01	-5.382430e-04
5.726364e+01	-5.444783e-04
5.759439e+01	-5.507858e-04
5.792705e+01	-5.571664e-04
5.826164e+01	-5.636209e-04
5.859815e+01	-5.701502e-04
5.893662e+01	-5.767551e-04
5.927703e+01	-5.834365e-04
5.961941e+01	-5.901953e-04
5.996377e+01	-5.970324e-04
6.031012e+01	-6.039487e-04
6.065847e+01	-6.109451e-04
6.100883e+01	-6.180226e-04
6.136121e+01	-6.251821e-04
6.171563e+01	-6.324244e-04
6.207210e+01	-6.397507e-04
6.243063e+01	-6.471618e-04
6.279122e+01	-6.546588e-04
6.315390e+01	-6.622426e-04
6.351868e+01	-6.699143e-04
6.388556e+01	-6.776749e-04
6.425456e+01	-6.855253e-04
6.462569e+01	-6.934666e-04
6.499897e+01	-7.015000e-04
6.537440e+01	-7.096264e-04
6.575200e+01	-7.178469e-04
6.613178e+01	-7.261627e-04
6.651375e+01	-7.345748e-04
6.689793e+01	-7.430843e-04
6.728433e+01	-7.516924e-04
6.767297e+01	-7.604002e-04
6.806384e+01	-7.692089e-04
6.845698e+01	-7.781196e-04
6.885238e+01	-7.871335e-04
6.925007e+01	-7.962518e-04
6.965005e+01	-8.054757e-04
7.005235e+01	-8.148065e-04
7.045697e+01	-8.242454e-04
7.086393e+01	-8.337936e-04
7.127323e+01	-8.434524e-04
7.168490e+01	-8.532230e-04
7.209895e+01	-8.631069e-04
7.251539e+01	-8.731052e-04
7.293424e+01	-8.832193e-04
7.335551e+01	-8.934506e-04
7.377920e+01	-9.038004e-04
7.420535e+01	-9.142701e-04
7.463396e+01	-9.248610e-04
7.506504e+01	-9.355746e-04
7.549861e+01	-9.464123e-04
7.593469e+01	-9.573756e-04
7.637328e+01	-9.684658e-04
7.681441e+01	-9.796845e-04
7.725809e+01	-9.910331e-04
7.770433e+01	-1.002513e-03
7.815315e+01	-1.014126e-03
7.860456e+01	-1.025874e-03
7.905857e+01	-1.037757e-03
7.951521e+01	-1.049779e-03
7.997449e+01	-1.061939e-03
8.043642e+01	-1.074240e-03
8.090102e+01	-1.086684e-03
8.136830e+01	-1.099272e-03
8.183828e+01	-1.112006e-03
8.231097e+01	-1.124887e-03
8.278640e+01	-1.137917e-03
8.326457e+01	-1.151099e-03
8.374550e+01	-1.164433e-03
8.422921e+01	-1.177921e-03
8.471572e+01	-1.191566e-03
8.520503e+01	-1.205369e-03
8.569717e+01	-1.219331e-03
8.619215e+01	-1.233455e-03
8.669000e+01	-1.247743e-03
8.719071e+01	-1.262197e-03
8.769432e+01	-1.276817e-03
8.820084e+01	-1.291607e-03
8.871029e+01	-1.306569e-03
8.922267e+01	-1.321704e-03
8.973802e+01	-1.337013e-03
9.025634e+01	-1.352501e-03
9.077766e+01	-1.368167e-03
9.130199e+01	-1.384015e-03
9.182935e+01	-1.400047e-03
9.235975e+01	-1.416264e-03
9.289321e+01	-1.432669e-03
9.342976e+01	-1.449264e-03
9.396941e+01	-1.466052e-03
9.451217e+01	-1.483033e-03
9.505807e+01	-1.500212e-03
9.560712e+01	-1.517589e-03
9.615934e+01	-1.535168e-03
9.671476e+01	-1.552950e-03
9.727338e+01	-1.570938e-03
9.783522e+01	-1.589134e-03
9.840032e+01	-1.607541e-03
9.896867e+01	-1.626162e-03
9.954031e+01	-1.644998e-03
1.001153e+02	-1.664052e-03
1.006935e+02	-1.683327e-03
1.012751e+02	-1.702825e-03
1.018601e+02	-1.722548e-03
1.024484e+02	-1.742500e-03
1.030402e+02	-1.762684e-03
1.036353e+02	-1.783101e-03
1.042339e+02	-1.803754e-03
1.048360e+02	-1.824647e-03
1.054415e+02	-1.845781e-03
1.060505e+02	-1.867160e-03
1.066631e+02	-1.888787e-03
1.072791e+02	-1.910665e-03
1.078988e+02	-1.932795e-03
1.085220e+02	-1.955182e-03
1.091488e+02	-1.977828e-03
1.097793e+02	-2.000737e-03
1.104133e+02	-2.023910e-03
1.110511e+02	-2.047352e-03
1.116925e+02	-2.071066e-03
1.123376e+02	-2.095054e-03
1.129865e+02	-2.119320e-03
1.136391e+02	-2.143866e-03
1.142955e+02	-2.168698e-03
1.149556e+02	-2.193816e-03
1.156196e+02	-2.219226e-03
1.162874e+02	-2.244929e-03
1.169591e+02	-2.270931e-03
1.176347e+02	-2.297233e-03
1.183141e+02	-2.323840e-03
1.189975e+02	-2.350755e-03
1.196848e+02	-2.377981e-03
1.203761e+02	-2.405523e-03
1.210714e+02	-2.433384e-03
1.217707e+02	-2.461568e-03
1.224740e+02	-2.490077e-03
1.231814e+02	-2.518917e-03
1.238929e+02	-2.548091e-03
1.246085e+02	-2.577602e-03
1.253283e+02	-2.607456e-03
1.260522e+02	-2.637655e-03
1.267802e+02	-2.668203e-03
1.275125e+02	-2.699105e-03
1.282490e+02	-2.730365e-03
1.289898e+02	-2.761987e-03
1.297348e+02	-2.793975e-03
1.304842e+02	-2.826334e-03
1.312378e+02	-2.859067e-03
1.319959e+02	-2.892179e-03
1.327583e+02	-2.925674e-03
1.335251e+02	-2.959557e-03
1.342963e+02	-2.993833e-03
1.350720e+02	-3.028505e-03
1.358522e+02	-3.063578e-03
1.366368e+02	-3.099058e-03
1.374260e+02	-3.134948e-03
1.382198e+02	-3.171254e-03
1.390182e+02	-3.207981e-03
1.398211e+02	-3.245132e-03
1.406287e+02	-3.282713e-03
1.414410e+02	-3.320730e-03
1.422579e+02	-3.359187e-03
1.430796e+02	-3.398088e-03
1.439060e+02	-3.437441e-03
1.447372e+02	-3.477248e-03
1.455732e+02	-3.517517e-03
1.464141e+02	-3.558251e-03
1.472597e+02	-3.599458e-03
1.481103e+02	-3.641141e-03
1.489658e+02	-3.683306e-03
1.498262e+02	-3.725960e-03
1.506916e+02	-3.769107e-03
1.515620e+02	-3.812754e-03
1.524374e+02	-3.856906e-03
1.533179e+02	-3.901570e-03
1.542034e+02	-3.946750e-03
1.550941e+02	-3.992453e-03
1.559899e+02	-4.038685e-03
1.568909e+02	-4.085452e-03
1.577971e+02	-4.132760e-03
1.587085e+02	-4.180616e-03
1.596252e+02	-4.229026e-03
1.605472e+02	-4.277997e-03
1.614745e+02	-4.327533e-03
1.624072e+02	-4.377644e-03
1.633453e+02	-4.428334e-03
1.642887e+02	-4.479611e-03
1.652377e+02	-4.531481e-03
1.661921e+02	-4.583952e-03
1.671520e+02	-4.637030e-03
1.681175e+02	-4.690722e-03
1.690885e+02	-4.745035e-03
1.700651e+02	-4.799977e-03
1.710474e+02	-4.855555e-03
1.720354e+02	-4.911776e-03
1.730291e+02	-4.968648e-03
1.740285e+02	-5.026177e-03
1.750337e+02	-5.084373e-03
1.760446e+02	-5.143241e-03
1.770615e+02	-5.202791e-03
1.780842e+02	-5.263031e-03
1.791128e+02	-5.323967e-03
1.801473e+02	-5.385608e-03
1.811878e+02	-5.447962e-03
1.822344e+02	-5.511038e-03
1.832870e+02	-5.574844e-03
1.843456e+02	-5.639388e-03
1.854104e+02	-5.704679e-03
1.864813e+02	-5.770725e-03
1.875584e+02	-5.837535e-03
1.886418e+02	-5.905118e-03
1.897313e+02	-5.973483e-03
1.908272e+02	-6.042639e-03
1.919294e+02	-6.112595e-03
1.930380e+02	-6.183361e-03
1.941530e+02	-6.254945e-03
1.952744e+02	-6.327357e-03
1.964023e+02	-6.400607e-03
1.975367e+02	-6.474704e-03
1.986777e+02	-6.549659e-03
1.998252e+02	-6.625480e-03
2.009794e+02	-6.702179e-03
2.021403e+02	-6.779764e-03
2.033078e+02	-6.858247e-03
2.044821e+02	-6.937638e-03
2.056632e+02	-7.017947e-03
2.068511e+02	-7.099186e-03
2.080459e+02	-7.181363e-03
2.092475e+02	-7.264491e-03
2.104561e+02	-7.348581e-03
2.116717e+02	-7.433643e-03
2.128943e+02	-7.519689e-03
2.141240e+02	-7.606730e-03
2.153608e+02	-7.694777e-03
2.166047e+02	-7.783843e-03
2.178558e+02	-7.873939e-03
2.191141e+02	-7.965077e-03
2.203797e+02	-8.057268e-03
2.216526e+02	-8.150526e-03
2.229329e+02	-8.244862e-03
2.242205e+02	-8.340289e-03
2.255156e+02	-8.436819e-03
2.268182e+02	-8.534465e-03
2.281283e+02	-8.633241e-03
2.294459e+02	-8.733158e-03
2.307712e+02	-8.834231e-03
2.321041e+02	-8.936472e-03
2.334447e+02	-9.039895e-03
2.347931e+02	-9.144514e-03
2.361493e+02	-9.250342e-03
2.375133e+02	-9.357394e-03
2.388851e+02	-9.465683e-03
2.402649e+02	-9.575224e-03
2.416527e+02	-9.686032e-03
2.430484e+02	-9.798120e-03
2.444523e+02	-9.911503e-03
2.458642e+02	-1.002620e-02
2.472843e+02	-1.014222e-02
2.487126e+02	-1.025958e-02
2.501492e+02	-1.037830e-02
2.515940e+02	-1.049839e-02
2.530472e+02	-1.061986e-02
2.545088e+02	-1.074274e-02
2.559789e+02	-1.086704e-02
2.574574e+02	-1.099278e-02
2.589444e+02	-1.111997e-02
2.604401e+02	-1.124863e-02
2.619444e+02	-1.137878e-02
2.634574e+02	-1.151043e-02
2.649791e+02	-1.164360e-02
2.665096e+02	-1.177831e-02
2.680489e+02	-1.191458e-02
2.695972e+02	-1.205242e-02
2.711544e+02	-1.219186e-02
2.727205e+02	-1.233290e-02
2.742958e+02	-1.247557e-02
2.758801e+02	-1.261990e-02
2.774736e+02	-1.276588e-02
2.790762e+02	-1.291356e-02
2.806882e+02	-1.306294e-02
2.823094e+02	-1.321405e-02
2.839400e+02	-1.336690e-02
2.855800e+02	-1.352152e-02
2.872295e+02	-1.367792e-02
2.888886e+02	-1.383613e-02
2.905572e+02	-1.399616e-02
2.922354e+02	-1.415805e-02
2.939234e+02	-1.432180e-02
2.956211e+02	-1.448744e-02
2.973286e+02	-1.465500e-02
2.990459e+02	-1.482449e-02
3.007732e+02	-1.499594e-02
3.025104e+02	-1.516937e-02
3.042577e+02	-1.534480e-02
3.060151e+02	-1.552225e-02
3.077826e+02	-1.570175e-02
3.095604e+02	-1.588333e-02
3.113484e+02	-1.606700e-02
3.131467e+02	-1.625279e-02
3.149554e+02	-1.644072e-02
3.167746e+02	-1.663083e-02
3.186043e+02	-1.682313e-02
3.204445e+02	-1.701764e-02
3.222954e+02	-1.721440e-02
3.241570e+02	-1.741344e-02
3.260293e+02	-1.761477e-02
3.279124e+02	-1.781842e-02
3.298064e+02	-1.802442e-02
3.317114e+02	-1.823279e-02
3.336273e+02	-1.844358e-02
3.355544e+02	-1.865679e-02
3.374925e+02	-1.887246e-02
3.394418e+02	-1.909062e-02
3.414024e+02	-1.931130e-02
3.433744e+02	-1.953452e-02
3.453577e+02	-1.976031e-02
3.473525e+02	-1.998871e-02
3.493588e+02	-2.021975e-02
3.513766e+02	-2.045344e-02
3.534062e+02	-2.068984e-02
3.554474e+02	-2.092895e-02
3.575005e+02	-2.117083e-02
3.595654e+02	-2.141549e-02
3.616422e+02	-2.166297e-02
3.637311e+02	-2.191331e-02
3.658320e+02	-2.216653e-02
3.679450e+02	-2.242267e-02
3.700702e+02	-2.268176e-02
3.722077e+02	-2.294384e-02
3.743576e+02	-2.320894e-02
3.765199e+02	-2.347709e-02
3.786946e+02	-2.374833e-02
3.808820e+02	-2.402270e-02
3.830819e+02	-2.430022e-02
3.852946e+02	-2.458095e-02
3.875200e+02	-2.486491e-02
3.897583e+02	-2.515214e-02
3.920096e+02	-2.544267e-02
3.942738e+02	-2.573656e-02
3.965511e+02	-2.603383e-02
3.988416e+02	-2.633452e-02
4.011452e+02	-2.663867e-02
4.034622e+02	-2.694633e-02
4.057926e+02	-2.725752e-02
4.081365e+02	-2.757230e-02
4.104938e+02	-2.789070e-02
4.128648e+02	-2.821277e-02
4.152495e+02	-2.853855e-02
4.176480e+02	-2.886807e-02
4.200603e+02	-2.920139e-02
4.224866e+02	-2.953854e-02
4.249268e+02	-2.987957e-02
4.273812e+02	-3.022452e-02
4.298497e+02	-3.057345e-02
4.323325e+02	-3.092638e-02
4.348297e+02	-3.128338e-02
4.373412e+02	-3.164448e-02
4.398673e+02	-3.200973e-02
4.424079e+02	-3.237919e-02
4.449633e+02	-3.275289e-02
4.475334e+02	-3.313089e-02
4.501183e+02	-3.351323e-02
4.527182e+02	-3.389997e-02
4.553330e+02	-3.429116e-02
4.579630e+02	-3.468684e-02
4.606082e+02	-3.508706e-02
4.632687e+02	-3.549189e-02
4.659445e+02	-3.590137e-02
4.686358e+02	-3.631555e-02
4.713426e+02	-3.673449e-02
4.740650e+02	-3.715825e-02
4.768032e+02	-3.758686e-02
4.795572e+02	-3.802041e-02
4.823271e+02	-3.845893e-02
4.851130e+02	-3.890248e-02
4.879150e+02	-3.935113e-02
4.907332e+02	-3.980493e-02
4.935676e+02	-4.026394e-02
4.964185e+02	-4.072821e-02
4.992858e+02	-4.119781e-02
5.021696e+02	-4.167281e-02
5.050701e+02	-4.215325e-02
5.079874e+02	-4.263920e-02
5.109215e+02	-4.313073e-02
5.138726e+02	-4.362789e-02
5.168407e+02	-4.413076e-02
5.198259e+02	-4.463939e-02
5.228284e+02	-4.515385e-02
5.258482e+02	-4.567422e-02
5.288855e+02	-4.620054e-02
5.319403e+02	-4.673290e-02
5.350128e+02	-4.727136e-02
5.381030e+02	-4.781599e-02
5.412111e+02	-4.836686e-02
5.443371e+02	-4.892404e-02
5.474812e+02	-4.948760e-02
5.506434e+02	-5.005762e-02
5.538239e+02	-5.063416e-02
5.570228e+02	-5.121730e-02
5.602401e+02	-5.180712e-02
5.634760e+02	-5.240370e-02
5.667306e+02	-5.300709e-02
5.700040e+02	-5.361740e-02
5.732964e+02	-5.423468e-02
5.766077e+02	-5.485903e-02
5.799382e+02	-5.549052e-02
5.832879e+02	-5.612923e-02
5.866569e+02	-5.677525e-02
5.900454e+02	-5.742865e-02
5.934535e+02	-5.808952e-02
5.968813e+02	-5.875794e-02
6.003288e+02	-5.943400e-02
6.037963e+02	-6.011779e-02
6.072838e+02	-6.080939e-02
6.107914e+02	-6.150888e-02
6.143194e+02	-6.221637e-02
6.178676e+02	-6.293193e-02
6.214364e+02	-6.365567e-02
6.250258e+02	-6.438766e-02
6.286359e+02	-6.512801e-02
6.322669e+02	-6.587681e-02
6.359189e+02	-6.663415e-02
6.395919e+02	-6.740013e-02
6.432862e+02	-6.817484e-02
6.470017e+02	-6.895839e-02
6.507388e+02	-6.975087e-02
6.544974e+02	-7.055239e-02
6.582778e+02	-7.136304e-02
6.620800e+02	-7.218292e-02
6.659041e+02	-7.301215e-02
6.697504e+02	-7.385082e-02
6.736188e+02	-7.469904e-02
6.775096e+02	-7.555692e-02
6.814229e+02	-7.642456e-02
6.853587e+02	-7.730208e-02
6.893173e+02	-7.818958e-02
6.932988e+02	-7.908718e-02
6.973033e+02	-7.999499e-02
7.013309e+02	-8.091312e-02
