Frequency(Hz)	Magnitude(dB)
1.000000e+01	-2.245804e+00
1.005776e+01	-2.266052e+00
1.011585e+01	-2.286435e+00
1.017428e+01	-2.306985e+00
1.023305e+01	-2.327554e+00
1.029215e+01	-2.348393e+00
1.035160e+01	-2.369427e+00
1.041139e+01	-2.390601e+00
1.047153e+01	-2.411851e+00
1.053201e+01	-2.433319e+00
1.059284e+01	-2.454551e+00
1.065403e+01	-2.476466e+00
1.071556e+01	-2.498199e+00
1.077746e+01	-2.520215e+00
1.083971e+01	-2.541958e+00
1.090232e+01	-2.564409e+00
1.096529e+01	-2.586811e+00
1.102862e+01	-2.609410e+00
1.109232e+01	-2.632096e+00
1.115639e+01	-2.654855e+00
1.122083e+01	-2.677774e+00
1.128564e+01	-2.701044e+00
1.135083e+01	-2.724282e+00
1.141639e+01	-2.747601e+00
1.148233e+01	-2.771191e+00
1.154865e+01	-2.794925e+00
1.161536e+01	-2.818594e+00
1.168245e+01	-2.842535e+00
1.174992e+01	-2.866743e+00
1.181779e+01	-2.890667e+00
1.188605e+01	-2.915135e+00
1.195470e+01	-2.939800e+00
1.202375e+01	-2.964416e+00
1.209320e+01	-2.989172e+00
1.216305e+01	-3.014330e+00
1.223330e+01	-3.039263e+00
1.230396e+01	-3.064654e+00
1.237503e+01	-3.090011e+00
1.244651e+01	-3.115480e+00
1.251840e+01	-3.141185e+00
1.259070e+01	-3.166942e+00
1.266343e+01	-3.193023e+00
1.273657e+01	-3.218974e+00
1.281014e+01	-3.245252e+00
1.288413e+01	-3.271727e+00
1.295855e+01	-3.298215e+00
1.303339e+01	-3.325031e+00
1.310867e+01	-3.351871e+00
1.318439e+01	-3.378681e+00
1.326054e+01	-3.405863e+00
1.333713e+01	-3.433086e+00
1.341417e+01	-3.460577e+00
1.349165e+01	-3.488099e+00
1.356958e+01	-3.515744e+00
1.364795e+01	-3.543572e+00
1.372678e+01	-3.571917e+00
1.380607e+01	-3.599826e+00
1.388581e+01	-3.627926e+00
1.396602e+01	-3.656359e+00
1.404668e+01	-3.685144e+00
1.412782e+01	-3.713673e+00
1.420942e+01	-3.742429e+00
1.429149e+01	-3.771556e+00
1.437404e+01	-3.800405e+00
1.445706e+01	-3.829781e+00
1.454057e+01	-3.859142e+00
1.462455e+01	-3.888770e+00
1.470902e+01	-3.918442e+00
1.479398e+01	-3.948252e+00
1.487943e+01	-3.978239e+00
1.496537e+01	-4.008167e+00
1.505181e+01	-4.038293e+00
1.513875e+01	-4.068822e+00
1.522619e+01	-4.099293e+00
1.531414e+01	-4.129873e+00
1.540259e+01	-4.160577e+00
1.549156e+01	-4.191321e+00
1.558103e+01	-4.222728e+00
1.567103e+01	-4.253659e+00
1.576155e+01	-4.284629e+00
1.585258e+01	-4.316391e+00
1.594415e+01	-4.347987e+00
1.603624e+01	-4.379704e+00
1.612886e+01	-4.411480e+00
1.622202e+01	-4.443453e+00
1.631572e+01	-4.475739e+00
1.640996e+01	-4.507811e+00
1.650474e+01	-4.540248e+00
1.660008e+01	-4.572641e+00
1.669596e+01	-4.605459e+00
1.679239e+01	-4.638180e+00
1.688938e+01	-4.671113e+00
1.698694e+01	-4.703904e+00
1.708505e+01	-4.737336e+00
1.718373e+01	-4.770628e+00
1.728299e+01	-4.804067e+00
1.738281e+01	-4.837558e+00
1.748322e+01	-4.871250e+00
1.758420e+01	-4.904844e+00
1.768576e+01	-4.938937e+00
1.778792e+01	-4.972813e+00
1.789066e+01	-5.007042e+00
1.799399e+01	-5.041189e+00
1.809793e+01	-5.075734e+00
1.820246e+01	-5.110431e+00
1.830760e+01	-5.144912e+00
1.841334e+01	-5.179772e+00
1.851969e+01	-5.214334e+00
1.862666e+01	-5.249366e+00
1.873425e+01	-5.284939e+00
1.884246e+01	-5.320080e+00
1.895129e+01	-5.355621e+00
1.906075e+01	-5.390980e+00
1.917085e+01	-5.426835e+00
1.928158e+01	-5.462275e+00
1.939295e+01	-5.498167e+00
1.950496e+01	-5.534298e+00
1.961762e+01	-5.570311e+00
1.973093e+01	-5.606938e+00
1.984490e+01	-5.643017e+00
1.995952e+01	-5.679317e+00
2.007480e+01	-5.715824e+00
2.019076e+01	-5.752432e+00
2.030738e+01	-5.789299e+00
2.042467e+01	-5.826337e+00
2.054264e+01	-5.863122e+00
2.066130e+01	-5.900470e+00
2.078064e+01	-5.937459e+00
2.090066e+01	-5.974826e+00
2.102139e+01	-6.012370e+00
2.114280e+01	-6.049970e+00
2.126492e+01	-6.087638e+00
2.138775e+01	-6.125056e+00
2.151128e+01	-6.163020e+00
2.163553e+01	-6.200846e+00
2.176050e+01	-6.239021e+00
2.188619e+01	-6.277336e+00
2.201260e+01	-6.315701e+00
2.213974e+01	-6.354209e+00
2.226762e+01	-6.392705e+00
2.239624e+01	-6.431145e+00
2.252560e+01	-6.470075e+00
2.265571e+01	-6.508599e+00
2.278656e+01	-6.547791e+00
2.291818e+01	-6.586409e+00
2.305055e+01	-6.625337e+00
2.318369e+01	-6.664742e+00
2.331760e+01	-6.704149e+00
2.345228e+01	-6.743660e+00
2.358774e+01	-6.782917e+00
2.372398e+01	-6.822685e+00
2.386101e+01	-6.862557e+00
2.399883e+01	-6.901750e+00
2.413745e+01	-6.942198e+00
2.427686e+01	-6.981317e+00
2.441709e+01	-7.021667e+00
2.455812e+01	-7.062250e+00
2.469997e+01	-7.102447e+00
2.484263e+01	-7.142553e+00
2.498612e+01	-7.183082e+00
2.513044e+01	-7.223473e+00
2.527559e+01	-7.264342e+00
2.542158e+01	-7.304641e+00
2.556842e+01	-7.345560e+00
2.571610e+01	-7.386380e+00
2.586463e+01	-7.427130e+00
2.601403e+01	-7.468038e+00
2.616428e+01	-7.509557e+00
2.631541e+01	-7.550672e+00
2.646740e+01	-7.592133e+00
2.662028e+01	-7.633032e+00
2.677404e+01	-7.674590e+00
2.692868e+01	-7.716234e+00
2.708422e+01	-7.757618e+00
2.724066e+01	-7.799564e+00
2.739800e+01	-7.841507e+00
2.755625e+01	-7.883200e+00
2.771541e+01	-7.925298e+00
2.787550e+01	-7.966756e+00
2.803650e+01	-8.009306e+00
2.819844e+01	-8.051129e+00
2.836131e+01	-8.093598e+00
2.852513e+01	-8.135541e+00
2.868989e+01	-8.178287e+00
2.885560e+01	-8.220739e+00
2.902227e+01	-8.263000e+00
2.918990e+01	-8.305831e+00
2.935850e+01	-8.348224e+00
2.952807e+01	-8.391308e+00
2.969863e+01	-8.434014e+00
2.987016e+01	-8.476776e+00
3.004269e+01	-8.519793e+00
3.021622e+01	-8.563083e+00
3.039075e+01	-8.605947e+00
3.056628e+01	-8.649107e+00
3.074283e+01	-8.692491e+00
3.092040e+01	-8.735705e+00
3.109900e+01	-8.778845e+00
3.127862e+01	-8.822793e+00
3.145929e+01	-8.866218e+00
3.164099e+01	-8.909653e+00
3.182375e+01	-8.953344e+00
3.200756e+01	-8.996746e+00
3.219244e+01	-9.040870e+00
3.237838e+01	-9.084611e+00
3.256540e+01	-9.128206e+00
3.275349e+01	-9.172274e+00
3.294268e+01	-9.215830e+00
3.313295e+01	-9.260449e+00
3.332433e+01	-9.304212e+00
3.351681e+01	-9.349038e+00
3.371040e+01	-9.392390e+00
3.390511e+01	-9.437245e+00
3.410094e+01	-9.481352e+00
3.429791e+01	-9.526040e+00
3.449601e+01	-9.570252e+00
3.469526e+01	-9.615070e+00
3.489566e+01	-9.659741e+00
3.509721e+01	-9.704118e+00
3.529993e+01	-9.748877e+00
3.550382e+01	-9.793912e+00
3.570889e+01	-9.838359e+00
3.591515e+01	-9.883144e+00
3.612259e+01	-9.928253e+00
3.633123e+01	-9.973414e+00
3.654108e+01	-1.001776e+01
3.675214e+01	-1.006329e+01
3.696442e+01	-1.010865e+01
3.717792e+01	-1.015298e+01
3.739266e+01	-1.019896e+01
3.760864e+01	-1.024413e+01
3.782587e+01	-1.028962e+01
3.804435e+01	-1.033472e+01
3.826409e+01	-1.038045e+01
3.848510e+01	-1.042584e+01
3.870739e+01	-1.047166e+01
3.893096e+01	-1.051708e+01
3.915583e+01	-1.056227e+01
3.938199e+01	-1.060782e+01
3.960946e+01	-1.065363e+01
3.983824e+01	-1.069907e+01
4.006834e+01	-1.074508e+01
4.029978e+01	-1.079104e+01
4.053255e+01	-1.083709e+01
4.076666e+01	-1.088279e+01
4.100213e+01	-1.092873e+01
4.123896e+01	-1.097499e+01
4.147715e+01	-1.101997e+01
4.171672e+01	-1.106691e+01
4.195767e+01	-1.111314e+01
4.220002e+01	-1.115891e+01
4.244377e+01	-1.120576e+01
4.268892e+01	-1.125148e+01
4.293549e+01	-1.129841e+01
4.318348e+01	-1.134436e+01
4.343291e+01	-1.139093e+01
4.368377e+01	-1.143750e+01
4.393609e+01	-1.148348e+01
4.418986e+01	-1.152984e+01
4.444510e+01	-1.157708e+01
4.470182e+01	-1.162322e+01
4.496001e+01	-1.166970e+01
4.521970e+01	-1.171624e+01
4.548089e+01	-1.176306e+01
4.574358e+01	-1.180965e+01
4.600779e+01	-1.185712e+01
4.627353e+01	-1.190336e+01
4.654081e+01	-1.195004e+01
4.680963e+01	-1.199678e+01
4.708000e+01	-1.204377e+01
4.735193e+01	-1.209071e+01
4.762543e+01	-1.213759e+01
4.790051e+01	-1.218497e+01
4.817719e+01	-1.223189e+01
4.845545e+01	-1.227821e+01
4.873533e+01	-1.232595e+01
4.901682e+01	-1.237273e+01
4.929994e+01	-1.242109e+01
4.958470e+01	-1.246734e+01
4.987110e+01	-1.251451e+01
5.015915e+01	-1.256173e+01
5.044887e+01	-1.260885e+01
5.074026e+01	-1.265617e+01
5.103333e+01	-1.270340e+01
5.132810e+01	-1.275063e+01
5.162457e+01	-1.279753e+01
5.192275e+01	-1.284652e+01
5.222265e+01	-1.289345e+01
5.252429e+01	-1.294108e+01
5.282767e+01	-1.298768e+01
5.313280e+01	-1.303622e+01
5.343969e+01	-1.308349e+01
5.374836e+01	-1.313072e+01
5.405880e+01	-1.317923e+01
5.437105e+01	-1.322519e+01
5.468509e+01	-1.327337e+01
5.500095e+01	-1.332108e+01
5.531863e+01	-1.336982e+01
5.563815e+01	-1.341690e+01
5.595951e+01	-1.346454e+01
5.628273e+01	-1.351235e+01
5.660782e+01	-1.356003e+01
5.693479e+01	-1.360844e+01
5.726364e+01	-1.365549e+01
5.759439e+01	-1.370395e+01
5.792705e+01	-1.375223e+01
5.826164e+01	-1.380002e+01
5.859815e+01	-1.384724e+01
5.893662e+01	-1.389542e+01
5.927703e+01	-1.394366e+01
5.961941e+01	-1.399151e+01
5.996377e+01	-1.403970e+01
6.031012e+01	-1.408682e+01
6.065847e+01	-1.413674e+01
6.100883e+01	-1.418313e+01
6.136121e+01	-1.423180e+01
6.171563e+01	-1.427980e+01
6.207210e+01	-1.432839e+01
6.243063e+01	-1.437655e+01
6.279122e+01	-1.442553e+01
6.315390e+01	-1.447260e+01
6.351868e+01	-1.452130e+01
6.388556e+01	-1.456898e+01
6.425456e+01	-1.461870e+01
6.462569e+01	-1.466583e+01
6.499897e+01	-1.471449e+01
6.537440e+01	-1.476236e+01
6.575200e+01	-1.481102e+01
6.613178e+01	-1.485953e+01
6.651375e+01	-1.490762e+01
6.689793e+01	-1.495608e+01
6.728433e+01	-1.500499e+01
6.767297e+01	-1.505315e+01
6.806384e+01	-1.510162e+01
6.845698e+01	-1.515090e+01
6.885238e+01	-1.519872e+01
6.925007e+01	-1.524745e+01
6.965005e+01	-1.529628e+01
7.005235e+01	-1.534381e+01
7.045697e+01	-1.539312e+01
7.086393e+01	-1.544088e+01
7.127323e+01	-1.549073e+01
7.168490e+01	-1.553934e+01
7.209895e+01	-1.558781e+01
7.251539e+01	-1.563640e+01
7.293424e+01	-1.568454e+01
7.335551e+01	-1.573399e+01
7.377920e+01	-1.578166e+01
7.420535e+01	-1.583135e+01
7.463396e+01	-1.587964e+01
7.506504e+01	-1.592796e+01
7.549861e+01	-1.597690e+01
7.593469e+01	-1.602668e+01
7.637328e+01	-1.607550e+01
7.681441e+01	-1.612406e+01
7.725809e+01	-1.617327e+01
7.770433e+01	-1.622083e+01
7.815315e+01	-1.627026e+01
7.860456e+01	-1.631958e+01
7.905857e+01	-1.636815e+01
7.951521e+01	-1.641667e+01
7.997449e+01	-1.646694e+01
8.043642e+01	-1.651437e+01
8.090102e+01	-1.656356e+01
8.136830e+01	-1.661173e+01
8.183828e+01	-1.666066e+01
8.231097e+01	-1.671104e+01
8.278640e+01	-1.675889e+01
8.326457e+01	-1.680771e+01
8.374550e+01	-1.685684e+01
8.422921e+01	-1.690628e+01
8.471572e+01	-1.695400e+01
8.520503e+01	-1.700431e+01
8.569717e+01	-1.705285e+01
8.619215e+01	-1.710113e+01
8.669000e+01	-1.715145e+01
8.719071e+01	-1.719947e+01
8.769432e+01	-1.725022e+01
8.820084e+01	-1.729871e+01
8.871029e+01	-1.734852e+01
8.922267e+01	-1.739737e+01
8.973802e+01	-1.744609e+01
9.025634e+01	-1.749403e+01
9.077766e+01	-1.754396e+01
9.130199e+01	-1.759347e+01
9.182935e+01	-1.764285e+01
9.235975e+01	-1.769083e+01
9.289321e+01	-1.774063e+01
9.342976e+01	-1.779090e+01
9.396941e+01	-1.783755e+01
9.451217e+01	-1.788944e+01
9.505807e+01	-1.793807e+01
9.560712e+01	-1.798807e+01
9.615934e+01	-1.803633e+01
9.671476e+01	-1.808545e+01
9.727338e+01	-1.813504e+01
9.783522e+01	-1.818544e+01
9.840032e+01	-1.823248e+01
9.896867e+01	-1.828220e+01
9.954031e+01	-1.833262e+01
1.001153e+02	-1.838157e+01
1.006935e+02	-1.843065e+01
1.012751e+02	-1.847993e+01
1.018601e+02	-1.852866e+01
1.024484e+02	-1.857716e+01
1.030402e+02	-1.862789e+01
1.036353e+02	-1.867744e+01
1.042339e+02	-1.872585e+01
1.048360e+02	-1.877503e+01
1.054415e+02	-1.882499e+01
1.060505e+02	-1.887488e+01
1.066631e+02	-1.892432e+01
1.072791e+02	-1.897404e+01
1.078988e+02	-1.902321e+01
1.085220e+02	-1.907173e+01
1.091488e+02	-1.912248e+01
1.097793e+02	-1.917021e+01
1.104133e+02	-1.922051e+01
1.110511e+02	-1.926844e+01
1.116925e+02	-1.931970e+01
1.123376e+02	-1.936762e+01
1.129865e+02	-1.941761e+01
1.136391e+02	-1.946784e+01
1.142955e+02	-1.951643e+01
1.149556e+02	-1.956526e+01
1.156196e+02	-1.961737e+01
1.162874e+02	-1.966486e+01
1.169591e+02	-1.971486e+01
1.176347e+02	-1.976501e+01
1.183141e+02	-1.981507e+01
1.189975e+02	-1.986385e+01
1.196848e+02	-1.991284e+01
1.203761e+02	-1.996297e+01
1.210714e+02	-2.001164e+01
1.217707e+02	-2.006110e+01
1.224740e+02	-2.011187e+01
1.231814e+02	-2.015951e+01
1.238929e+02	-2.021142e+01
1.246085e+02	-2.026026e+01
1.253283e+02	-2.031024e+01
1.260522e+02	-2.036039e+01
1.267802e+02	-2.040759e+01
1.275125e+02	-2.045796e+01
1.282490e+02	-2.050916e+01
1.289898e+02	-2.055874e+01
1.297348e+02	-2.060797e+01
1.304842e+02	-2.065659e+01
1.312378e+02	-2.070648e+01
1.319959e+02	-2.075406e+01
1.327583e+02	-2.080661e+01
1.335251e+02	-2.085498e+01
1.342963e+02	-2.090253e+01
1.350720e+02	-2.095446e+01
1.358522e+02	-2.100402e+01
1.366368e+02	-2.105333e+01
1.374260e+02	-2.110344e+01
1.382198e+02	-2.115248e+01
1.390182e+02	-2.120245e+01
1.398211e+02	-2.125296e+01
1.406287e+02	-2.130421e+01
1.414410e+02	-2.135350e+01
1.422579e+02	-2.140130e+01
1.430796e+02	-2.145160e+01
1.439060e+02	-2.150229e+01
1.447372e+02	-2.155032e+01
1.455732e+02	-2.159912e+01
1.464141e+02	-2.165067e+01
1.472597e+02	-2.169852e+01
1.481103e+02	-2.174767e+01
1.489658e+02	-2.179639e+01
1.498262e+02	-2.184816e+01
1.506916e+02	-2.189816e+01
1.515620e+02	-2.194905e+01
1.524374e+02	-2.199728e+01
1.533179e+02	-2.205028e+01
1.542034e+02	-2.209946e+01
1.550941e+02	-2.214663e+01
1.559899e+02	-2.219418e+01
1.568909e+02	-2.224819e+01
1.577971e+02	-2.229662e+01
1.587085e+02	-2.234609e+01
1.596252e+02	-2.239513e+01
1.605472e+02	-2.244569e+01
1.614745e+02	-2.249469e+01
1.624072e+02	-2.254450e+01
1.633453e+02	-2.259619e+01
1.642887e+02	-2.264355e+01
1.652377e+02	-2.269356e+01
1.661921e+02	-2.274262e+01
1.671520e+02	-2.279238e+01
1.681175e+02	-2.284351e+01
1.690885e+02	-2.289436e+01
1.700651e+02	-2.294395e+01
1.710474e+02	-2.299342e+01
1.720354e+02	-2.304256e+01
1.730291e+02	-2.309192e+01
1.740285e+02	-2.314552e+01
1.750337e+02	-2.319069e+01
1.760446e+02	-2.324235e+01
1.770615e+02	-2.329068e+01
1.780842e+02	-2.334250e+01
1.791128e+02	-2.339140e+01
1.801473e+02	-2.344254e+01
1.811878e+02	-2.349218e+01
1.822344e+02	-2.354069e+01
1.832870e+02	-2.358943e+01
1.843456e+02	-2.364031e+01
1.854104e+02	-2.368854e+01
1.864813e+02	-2.374145e+01
1.875584e+02	-2.379162e+01
1.886418e+02	-2.384038e+01
1.897313e+02	-2.389003e+01
1.908272e+02	-2.394136e+01
1.919294e+02	-2.398967e+01
1.930380e+02	-2.404130e+01
1.941530e+02	-2.408688e+01
1.952744e+02	-2.413700e+01
1.964023e+02	-2.418854e+01
1.975367e+02	-2.423763e+01
1.986777e+02	-2.428985e+01
1.998252e+02	-2.433740e+01
2.009794e+02	-2.438953e+01
2.021403e+02	-2.443653e+01
2.033078e+02	-2.448888e+01
2.044821e+02	-2.453870e+01
2.056632e+02	-2.458777e+01
2.068511e+02	-2.463731e+01
2.080459e+02	-2.468666e+01
2.092475e+02	-2.473794e+01
2.104561e+02	-2.478839e+01
2.116717e+02	-2.483657e+01
2.128943e+02	-2.488750e+01
2.141240e+02	-2.493636e+01
2.153608e+02	-2.498920e+01
2.166047e+02	-2.503692e+01
2.178558e+02	-2.508659e+01
2.191141e+02	-2.513624e+01
2.203797e+02	-2.518365e+01
2.216526e+02	-2.523808e+01
2.229329e+02	-2.528381e+01
2.242205e+02	-2.534150e+01
2.255156e+02	-2.538738e+01
2.268182e+02	-2.543506e+01
2.281283e+02	-2.548339e+01
2.294459e+02	-2.553542e+01
2.307712e+02	-2.558675e+01
2.321041e+02	-2.563459e+01
2.334447e+02	-2.568682e+01
2.347931e+02	-2.573774e+01
2.361493e+02	-2.578677e+01
2.375133e+02	-2.583878e+01
2.388851e+02	-2.588330e+01
2.402649e+02	-2.593363e+01
2.416527e+02	-2.598640e+01
2.430484e+02	-2.603174e+01
2.444523e+02	-2.608815e+01
2.458642e+02	-2.613410e+01
2.472843e+02	-2.618431e+01
2.487126e+02	-2.623415e+01
2.501492e+02	-2.628442e+01
2.515940e+02	-2.633411e+01
2.530472e+02	-2.638501e+01
2.545088e+02	-2.643827e+01
2.559789e+02	-2.648693e+01
2.574574e+02	-2.653678e+01
2.589444e+02	-2.658261e+01
2.604401e+02	-2.663354e+01
2.619444e+02	-2.668527e+01
2.634574e+02	-2.673531e+01
2.649791e+02	-2.678841e+01
2.665096e+02	-2.683271e+01
2.680489e+02	-2.688582e+01
2.695972e+02	-2.693419e+01
2.711544e+02	-2.698417e+01
2.727205e+02	-2.703491e+01
2.742958e+02	-2.708539e+01
2.758801e+02	-2.713808e+01
2.774736e+02	-2.719170e+01
2.790762e+02	-2.723671e+01
2.806882e+02	-2.728347e+01
2.823094e+02	-2.733554e+01
2.839400e+02	-2.738320e+01
2.855800e+02	-2.743456e+01
2.872295e+02	-2.748615e+01
2.888886e+02	-2.753636e+01
2.905572e+02	-2.758515e+01
2.922354e+02	-2.763219e+01
2.939234e+02	-2.768767e+01
2.956211e+02	-2.773500e+01
2.973286e+02	-2.778211e+01
2.990459e+02	-2.783393e+01
3.007732e+02	-2.788699e+01
3.025104e+02	-2.793701e+01
3.042577e+02	-2.798192e+01
3.060151e+02	-2.803279e+01
3.077826e+02	-2.808553e+01
3.095604e+02	-2.813442e+01
3.113484e+02	-2.818952e+01
3.131467e+02	-2.823333e+01
3.149554e+02	-2.828492e+01
3.167746e+02	-2.833781e+01
3.186043e+02	-2.838868e+01
3.204445e+02	-2.843709e+01
3.222954e+02	-2.847839e+01
3.241570e+02	-2.853203e+01
3.260293e+02	-2.858390e+01
3.279124e+02	-2.863816e+01
3.298064e+02	-2.868907e+01
3.317114e+02	-2.873363e+01
3.336273e+02	-2.878566e+01
3.355544e+02	-2.884082e+01
3.374925e+02	-2.888847e+01
3.394418e+02	-2.893249e+01
3.414024e+02	-2.898955e+01
3.433744e+02	-2.903520e+01
3.453577e+02	-2.908666e+01
3.473525e+02	-2.913789e+01
3.493588e+02	-2.918460e+01
3.513766e+02	-2.923506e+01
3.534062e+02	-2.928851e+01
3.554474e+02	-2.933742e+01
3.575005e+02	-2.938609e+01
3.595654e+02	-2.943322e+01
3.616422e+02	-2.948582e+01
3.637311e+02	-2.954034e+01
3.658320e+02	-2.958415e+01
3.679450e+02	-2.963801e+01
3.700702e+02	-2.968519e+01
3.722077e+02	-2.973016e+01
3.743576e+02	-2.978846e+01
3.765199e+02	-2.983174e+01
3.786946e+02	-2.988568e+01
3.808820e+02	-2.994009e+01
3.830819e+02	-2.998494e+01
3.852946e+02	-3.004178e+01
3.875200e+02	-3.009142e+01
3.897583e+02	-3.013487e+01
3.920096e+02	-3.018645e+01
3.942738e+02	-3.023537e+01
3.965511e+02	-3.028504e+01
3.988416e+02	-3.033742e+01
4.011452e+02	-3.038975e+01
4.034622e+02	-3.044517e+01
4.057926e+02	-3.049149e+01
4.081365e+02	-3.054085e+01
4.104938e+02	-3.059069e+01
4.128648e+02	-3.063405e+01
4.152495e+02	-3.069288e+01
4.176480e+02	-3.073617e+01
4.200603e+02	-3.079138e+01
4.224866e+02	-3.083912e+01
4.249268e+02	-3.089005e+01
4.273812e+02	-3.094421e+01
4.298497e+02	-3.099437e+01
4.323325e+02	-3.103432e+01
4.348297e+02	-3.108991e+01
4.373412e+02	-3.114337e+01
4.398673e+02	-3.119024e+01
4.424079e+02	-3.124097e+01
4.449633e+02	-3.129053e+01
4.475334e+02	-3.134288e+01
4.501183e+02	-3.139394e+01
4.527182e+02	-3.144007e+01
4.553330e+02	-3.148764e+01
4.579630e+02	-3.153767e+01
4.606082e+02	-3.159124e+01
4.632687e+02	-3.164164e+01
4.659445e+02	-3.168766e+01
4.686358e+02	-3.174234e+01
4.713426e+02	-3.179140e+01
4.740650e+02	-3.183907e+01
4.768032e+02	-3.189301e+01
4.795572e+02	-3.194161e+01
4.823271e+02	-3.199342e+01
4.851130e+02	-3.204161e+01
4.879150e+02	-3.209684e+01
4.907332e+02	-3.214569e+01
4.935676e+02	-3.219393e+01
4.964185e+02	-3.224180e+01
4.992858e+02	-3.228601e+01
5.021696e+02	-3.234394e+01
5.050701e+02	-3.238992e+01
5.079874e+02	-3.244302e+01
5.109215e+02	-3.249201e+01
5.138726e+02	-3.254550e+01
5.168407e+02	-3.258978e+01
5.198259e+02	-3.264272e+01
5.228284e+02	-3.269732e+01
5.258482e+02	-3.275365e+01
5.288855e+02	-3.280136e+01
5.319403e+02	-3.284568e+01
5.350128e+02	-3.289271e+01
5.381030e+02	-3.294494e+01
5.412111e+02	-3.299593e+01
5.443371e+02	-3.304877e+01
5.474812e+02	-3.309837e+01
5.506434e+02	-3.314568e+01
5.538239e+02	-3.319597e+01
5.570228e+02	-3.325181e+01
5.602401e+02	-3.329291e+01
5.634760e+02	-3.335005e+01
5.667306e+02	-3.339653e+01
5.700040e+02	-3.345601e+01
5.732964e+02	-3.349256e+01
5.766077e+02	-3.355183e+01
5.799382e+02	-3.359592e+01
5.832879e+02	-3.364990e+01
5.866569e+02	-3.370026e+01
5.900454e+02	-3.374610e+01
5.934535e+02	-3.380510e+01
5.968813e+02	-3.384758e+01
6.003288e+02	-3.390242e+01
6.037963e+02	-3.394717e+01
6.072838e+02	-3.400511e+01
6.107914e+02	-3.405737e+01
6.143194e+02	-3.410768e+01
6.178676e+02	-3.414494e+01
6.214364e+02	-3.420244e+01
6.250258e+02	-3.425237e+01
6.286359e+02	-3.430011e+01
6.322669e+02	-3.435706e+01
6.359189e+02	-3.441493e+01
6.395919e+02	-3.445900e+01
6.432862e+02	-3.450953e+01
6.470017e+02	-3.456298e+01
6.507388e+02	-3.460913e+01
6.544974e+02	-3.464846e+01
6.582778e+02	-3.470429e+01
6.620800e+02	-3.475508e+01
6.659041e+02	-3.481578e+01
6.697504e+02	-3.486216e+01
6.736188e+02	-3.491584e+01
6.775096e+02	-3.496345e+01
6.814229e+02	-3.500786e+01
6.853587e+02	-3.505638e+01
6.893173e+02	-3.510800e+01
6.932988e+02	-3.514719e+01
6.973033e+02	-3.520805e+01
7.013309e+02	-3.525977e+01
