Frequency(Hz)	Magnitude(dB)
1.000000e+01	-1.567757e-05
1.005776e+01	-1.585920e-05
1.011585e+01	-1.604294e-05
1.017428e+01	-1.622880e-05
1.023305e+01	-1.641681e-05
1.029215e+01	-1.660700e-05
1.035160e+01	-1.679940e-05
1.041139e+01	-1.699403e-05
1.047153e+01	-1.719091e-05
1.053201e+01	-1.739007e-05
1.059284e+01	-1.759154e-05
1.065403e+01	-1.779534e-05
1.071556e+01	-1.800150e-05
1.077746e+01	-1.821005e-05
1.083971e+01	-1.842102e-05
1.090232e+01	-1.863444e-05
1.096529e+01	-1.885032e-05
1.102862e+01	-1.906871e-05
1.109232e+01	-1.928962e-05
1.115639e+01	-1.951310e-05
1.122083e+01	-1.973916e-05
1.128564e+01	-1.996784e-05
1.135083e+01	-2.019918e-05
1.141639e+01	-2.043319e-05
1.148233e+01	-2.066991e-05
1.154865e+01	-2.090938e-05
1.161536e+01	-2.115162e-05
1.168245e+01	-2.139667e-05
1.174992e+01	-2.164455e-05
1.181779e+01	-2.189531e-05
1.188605e+01	-2.214897e-05
1.195470e+01	-2.240557e-05
1.202375e+01	-2.266515e-05
1.209320e+01	-2.292773e-05
1.216305e+01	-2.319335e-05
1.223330e+01	-2.346205e-05
1.230396e+01	-2.373387e-05
1.237503e+01	-2.400883e-05
1.244651e+01	-2.428698e-05
1.251840e+01	-2.456835e-05
1.259070e+01	-2.485298e-05
1.266343e+01	-2.514091e-05
1.273657e+01	-2.543217e-05
1.281014e+01	-2.572681e-05
1.288413e+01	-2.602486e-05
1.295855e+01	-2.632636e-05
1.303339e+01	-2.663136e-05
1.310867e+01	-2.693989e-05
1.318439e+01	-2.725200e-05
1.326054e+01	-2.756772e-05
1.333713e+01	-2.788710e-05
1.341417e+01	-2.821018e-05
1.349165e+01	-2.853700e-05
1.356958e+01	-2.886761e-05
1.364795e+01	-2.920204e-05
1.372678e+01	-2.954036e-05
1.380607e+01	-2.988259e-05
1.388581e+01	-3.022879e-05
1.396602e+01	-3.057899e-05
1.404668e+01	-3.093326e-05
1.412782e+01	-3.129163e-05
1.420942e+01	-3.165415e-05
1.429149e+01	-3.202087e-05
1.437404e+01	-3.239184e-05
1.445706e+01	-3.276711e-05
1.454057e+01	-3.314672e-05
1.462455e+01	-3.353073e-05
1.470902e+01	-3.391919e-05
1.479398e+01	-3.431216e-05
1.487943e+01	-3.470967e-05
1.496537e+01	-3.511179e-05
1.505181e+01	-3.551857e-05
1.513875e+01	-3.593006e-05
1.522619e+01	-3.634632e-05
1.531414e+01	-3.676740e-05
1.540259e+01	-3.719336e-05
1.549156e+01	-3.762425e-05
1.558103e+01	-3.806014e-05
1.567103e+01	-3.850107e-05
1.576155e+01	-3.894711e-05
1.585258e+01	-3.939833e-05
1.594415e+01	-3.985476e-05
1.603624e+01	-4.031649e-05
1.612886e+01	-4.078357e-05
1.622202e+01	-4.125605e-05
1.631572e+01	-4.173401e-05
1.640996e+01	-4.221751e-05
1.650474e+01	-4.270661e-05
1.660008e+01	-4.320138e-05
1.669596e+01	-4.370187e-05
1.679239e+01	-4.420817e-05
1.688938e+01	-4.472033e-05
1.698694e+01	-4.523843e-05
1.708505e+01	-4.576252e-05
1.718373e+01	-4.629269e-05
1.728299e+01	-4.682900e-05
1.738281e+01	-4.737153e-05
1.748322e+01	-4.792034e-05
1.758420e+01	-4.847550e-05
1.768576e+01	-4.903710e-05
1.778792e+01	-4.960521e-05
1.789066e+01	-5.017990e-05
1.799399e+01	-5.076124e-05
1.809793e+01	-5.134932e-05
1.820246e+01	-5.194421e-05
1.830760e+01	-5.254600e-05
1.841334e+01	-5.315475e-05
1.851969e+01	-5.377056e-05
1.862666e+01	-5.439351e-05
1.873425e+01	-5.502367e-05
1.884246e+01	-5.566113e-05
1.895129e+01	-5.630597e-05
1.906075e+01	-5.695829e-05
1.917085e+01	-5.761816e-05
1.928158e+01	-5.828568e-05
1.939295e+01	-5.896093e-05
1.950496e+01	-5.964400e-05
1.961762e+01	-6.033499e-05
1.973093e+01	-6.103398e-05
1.984490e+01	-6.174108e-05
1.995952e+01	-6.245636e-05
2.007480e+01	-6.317993e-05
2.019076e+01	-6.391188e-05
2.030738e+01	-6.465231e-05
2.042467e+01	-6.540132e-05
2.054264e+01	-6.615901e-05
2.066130e+01	-6.692547e-05
2.078064e+01	-6.770082e-05
2.090066e+01	-6.848514e-05
2.102139e+01	-6.927856e-05
2.114280e+01	-7.008116e-05
2.126492e+01	-7.089306e-05
2.138775e+01	-7.171437e-05
2.151128e+01	-7.254520e-05
2.163553e+01	-7.338565e-05
2.176050e+01	-7.423583e-05
2.188619e+01	-7.509587e-05
2.201260e+01	-7.596587e-05
2.213974e+01	-7.684594e-05
2.226762e+01	-7.773622e-05
2.239624e+01	-7.863681e-05
2.252560e+01	-7.954783e-05
2.265571e+01	-8.046940e-05
2.278656e+01	-8.140165e-05
2.291818e+01	-8.234471e-05
2.305055e+01	-8.329868e-05
2.318369e+01	-8.426371e-05
2.331760e+01	-8.523992e-05
2.345228e+01	-8.622744e-05
2.358774e+01	-8.722640e-05
2.372398e+01	-8.823693e-05
2.386101e+01	-8.925917e-05
2.399883e+01	-9.029325e-05
2.413745e+01	-9.133931e-05
2.427686e+01	-9.239749e-05
2.441709e+01	-9.346793e-05
2.455812e+01	-9.455077e-05
2.469997e+01	-9.564616e-05
2.484263e+01	-9.675423e-05
2.498612e+01	-9.787515e-05
2.513044e+01	-9.900904e-05
2.527559e+01	-1.001561e-04
2.542158e+01	-1.013164e-04
2.556842e+01	-1.024902e-04
2.571610e+01	-1.036775e-04
2.586463e+01	-1.048786e-04
2.601403e+01	-1.060937e-04
2.616428e+01	-1.073228e-04
2.631541e+01	-1.085661e-04
2.646740e+01	-1.098239e-04
2.662028e+01	-1.110962e-04
2.677404e+01	-1.123833e-04
2.692868e+01	-1.136853e-04
2.708422e+01	-1.150023e-04
2.724066e+01	-1.163346e-04
2.739800e+01	-1.176824e-04
2.755625e+01	-1.190457e-04
2.771541e+01	-1.204249e-04
2.787550e+01	-1.218200e-04
2.803650e+01	-1.232313e-04
2.819844e+01	-1.246590e-04
2.836131e+01	-1.261032e-04
2.852513e+01	-1.275641e-04
2.868989e+01	-1.290419e-04
2.885560e+01	-1.305369e-04
2.902227e+01	-1.320492e-04
2.918990e+01	-1.335790e-04
2.935850e+01	-1.351265e-04
2.952807e+01	-1.366920e-04
2.969863e+01	-1.382756e-04
2.987016e+01	-1.398775e-04
3.004269e+01	-1.414980e-04
3.021622e+01	-1.431373e-04
3.039075e+01	-1.447955e-04
3.056628e+01	-1.464730e-04
3.074283e+01	-1.481699e-04
3.092040e+01	-1.498864e-04
3.109900e+01	-1.516229e-04
3.127862e+01	-1.533795e-04
3.145929e+01	-1.551564e-04
3.164099e+01	-1.569539e-04
3.182375e+01	-1.587722e-04
3.200756e+01	-1.606116e-04
3.219244e+01	-1.624723e-04
3.237838e+01	-1.643545e-04
3.256540e+01	-1.662586e-04
3.275349e+01	-1.681847e-04
3.294268e+01	-1.701331e-04
3.313295e+01	-1.721041e-04
3.332433e+01	-1.740979e-04
3.351681e+01	-1.761149e-04
3.371040e+01	-1.781552e-04
3.390511e+01	-1.802191e-04
3.410094e+01	-1.823070e-04
3.429791e+01	-1.844190e-04
3.449601e+01	-1.865555e-04
3.469526e+01	-1.887167e-04
3.489566e+01	-1.909030e-04
3.509721e+01	-1.931146e-04
3.529993e+01	-1.953519e-04
3.550382e+01	-1.976150e-04
3.570889e+01	-1.999044e-04
3.591515e+01	-2.022203e-04
3.612259e+01	-2.045630e-04
3.633123e+01	-2.069329e-04
3.654108e+01	-2.093302e-04
3.675214e+01	-2.117553e-04
3.696442e+01	-2.142085e-04
3.717792e+01	-2.166901e-04
3.739266e+01	-2.192004e-04
3.760864e+01	-2.217399e-04
3.782587e+01	-2.243087e-04
3.804435e+01	-2.269073e-04
3.826409e+01	-2.295360e-04
3.848510e+01	-2.321952e-04
3.870739e+01	-2.348852e-04
3.893096e+01	-2.376063e-04
3.915583e+01	-2.403590e-04
3.938199e+01	-2.431435e-04
3.960946e+01	-2.459603e-04
3.983824e+01	-2.488098e-04
4.006834e+01	-2.516922e-04
4.029978e+01	-2.546081e-04
4.053255e+01	-2.575577e-04
4.076666e+01	-2.605415e-04
4.100213e+01	-2.635598e-04
4.123896e+01	-2.666131e-04
4.147715e+01	-2.697018e-04
4.171672e+01	-2.728263e-04
4.195767e+01	-2.759870e-04
4.220002e+01	-2.791843e-04
4.244377e+01	-2.824186e-04
4.268892e+01	-2.856904e-04
4.293549e+01	-2.890001e-04
4.318348e+01	-2.923481e-04
4.343291e+01	-2.957349e-04
4.368377e+01	-2.991610e-04
4.393609e+01	-3.026267e-04
4.418986e+01	-3.061326e-04
4.444510e+01	-3.096791e-04
4.470182e+01	-3.132667e-04
4.496001e+01	-3.168958e-04
4.521970e+01	-3.205670e-04
4.548089e+01	-3.242807e-04
4.574358e+01	-3.280375e-04
4.600779e+01	-3.318377e-04
4.627353e+01	-3.356820e-04
4.654081e+01	-3.395708e-04
4.680963e+01	-3.435047e-04
4.708000e+01	-3.474842e-04
4.735193e+01	-3.515097e-04
4.762543e+01	-3.555819e-04
4.790051e+01	-3.597012e-04
4.817719e+01	-3.638683e-04
4.845545e+01	-3.680836e-04
4.873533e+01	-3.723478e-04
4.901682e+01	-3.766613e-04
4.929994e+01	-3.810249e-04
4.958470e+01	-3.854390e-04
4.987110e+01	-3.899042e-04
5.015915e+01	-3.944211e-04
5.044887e+01	-3.989904e-04
5.074026e+01	-4.036126e-04
5.103333e+01	-4.082883e-04
5.132810e+01	-4.130182e-04
5.162457e+01	-4.178029e-04
5.192275e+01	-4.226431e-04
5.222265e+01	-4.275393e-04
5.252429e+01	-4.324922e-04
5.282767e+01	-4.375025e-04
5.313280e+01	-4.425708e-04
5.343969e+01	-4.476978e-04
5.374836e+01	-4.528843e-04
5.405880e+01	-4.581308e-04
5.437105e+01	-4.634381e-04
5.468509e+01	-4.688068e-04
5.500095e+01	-4.742378e-04
5.531863e+01	-4.797317e-04
5.563815e+01	-4.852892e-04
5.595951e+01	-4.909111e-04
5.628273e+01	-4.965981e-04
5.660782e+01	-5.023510e-04
5.693479e+01	-5.081705e-04
5.726364e+01	-5.140575e-04
5.759439e+01	-5.200126e-04
5.792705e+01	-5.260367e-04
5.826164e+01	-5.321306e-04
5.859815e+01	-5.382951e-04
5.893662e+01	-5.445310e-04
5.927703e+01	-5.508392e-04
5.961941e+01	-5.572204e-04
5.996377e+01	-5.636755e-04
6.031012e+01	-5.702054e-04
6.065847e+01	-5.768110e-04
6.100883e+01	-5.834930e-04
6.136121e+01	-5.902525e-04
6.171563e+01	-5.970903e-04
6.207210e+01	-6.040073e-04
6.243063e+01	-6.110044e-04
6.279122e+01	-6.180825e-04
6.315390e+01	-6.252426e-04
6.351868e+01	-6.324857e-04
6.388556e+01	-6.398127e-04
6.425456e+01	-6.472246e-04
6.462569e+01	-6.547223e-04
6.499897e+01	-6.623068e-04
6.537440e+01	-6.699792e-04
6.575200e+01	-6.777405e-04
6.613178e+01	-6.855917e-04
6.651375e+01	-6.935339e-04
6.689793e+01	-7.015680e-04
6.728433e+01	-7.096952e-04
6.767297e+01	-7.179165e-04
6.806384e+01	-7.262331e-04
6.845698e+01	-7.346460e-04
6.885238e+01	-7.431563e-04
6.925007e+01	-7.517653e-04
6.965005e+01	-7.604739e-04
7.005235e+01	-7.692834e-04
7.045697e+01	-7.781950e-04
7.086393e+01	-7.872098e-04
7.127323e+01	-7.963290e-04
7.168490e+01	-8.055538e-04
7.209895e+01	-8.148855e-04
7.251539e+01	-8.243253e-04
7.293424e+01	-8.338744e-04
7.335551e+01	-8.435341e-04
7.377920e+01	-8.533057e-04
7.420535e+01	-8.631905e-04
7.463396e+01	-8.731898e-04
7.506504e+01	-8.833049e-04
7.549861e+01	-8.935372e-04
7.593469e+01	-9.038880e-04
7.637328e+01	-9.143587e-04
7.681441e+01	-9.249506e-04
7.725809e+01	-9.356653e-04
7.770433e+01	-9.465041e-04
7.815315e+01	-9.574684e-04
7.860456e+01	-9.685596e-04
7.905857e+01	-9.797794e-04
7.951521e+01	-9.911291e-04
7.997449e+01	-1.002610e-03
8.043642e+01	-1.014224e-03
8.090102e+01	-1.025973e-03
8.136830e+01	-1.037858e-03
8.183828e+01	-1.049880e-03
8.231097e+01	-1.062042e-03
8.278640e+01	-1.074344e-03
8.326457e+01	-1.086790e-03
8.374550e+01	-1.099379e-03
8.422921e+01	-1.112114e-03
8.471572e+01	-1.124996e-03
8.520503e+01	-1.138028e-03
8.569717e+01	-1.151210e-03
8.619215e+01	-1.164546e-03
8.669000e+01	-1.178035e-03
8.719071e+01	-1.191681e-03
8.769432e+01	-1.205485e-03
8.820084e+01	-1.219449e-03
8.871029e+01	-1.233575e-03
8.922267e+01	-1.247864e-03
8.973802e+01	-1.262319e-03
9.025634e+01	-1.276941e-03
9.077766e+01	-1.291733e-03
9.130199e+01	-1.306695e-03
9.182935e+01	-1.321832e-03
9.235975e+01	-1.337143e-03
9.289321e+01	-1.352632e-03
9.342976e+01	-1.368300e-03
9.396941e+01	-1.384150e-03
9.451217e+01	-1.400183e-03
9.505807e+01	-1.416402e-03
9.560712e+01	-1.432808e-03
9.615934e+01	-1.449405e-03
9.671476e+01	-1.466194e-03
9.727338e+01	-1.483177e-03
9.783522e+01	-1.500357e-03
9.840032e+01	-1.517736e-03
9.896867e+01	-1.535316e-03
9.954031e+01	-1.553100e-03
1.001153e+02	-1.571090e-03
1.006935e+02	-1.589288e-03
1.012751e+02	-1.607697e-03
1.018601e+02	-1.626319e-03
1.024484e+02	-1.645157e-03
1.030402e+02	-1.664213e-03
1.036353e+02	-1.683490e-03
1.042339e+02	-1.702990e-03
1.048360e+02	-1.722715e-03
1.054415e+02	-1.742669e-03
1.060505e+02	-1.762855e-03
1.066631e+02	-1.783273e-03
1.072791e+02	-1.803929e-03
1.078988e+02	-1.824823e-03
1.085220e+02	-1.845960e-03
1.091488e+02	-1.867341e-03
1.097793e+02	-1.888970e-03
1.104133e+02	-1.910850e-03
1.110511e+02	-1.932983e-03
1.116925e+02	-1.955372e-03
1.123376e+02	-1.978020e-03
1.129865e+02	-2.000931e-03
1.136391e+02	-2.024106e-03
1.142955e+02	-2.047551e-03
1.149556e+02	-2.071266e-03
1.156196e+02	-2.095257e-03
1.162874e+02	-2.119525e-03
1.169591e+02	-2.144074e-03
1.176347e+02	-2.168908e-03
1.183141e+02	-2.194029e-03
1.189975e+02	-2.219441e-03
1.196848e+02	-2.245147e-03
1.203761e+02	-2.271151e-03
1.210714e+02	-2.297456e-03
1.217707e+02	-2.324065e-03
1.224740e+02	-2.350983e-03
1.231814e+02	-2.378212e-03
1.238929e+02	-2.405757e-03
1.246085e+02	-2.433620e-03
1.253283e+02	-2.461806e-03
1.260522e+02	-2.490319e-03
1.267802e+02	-2.519161e-03
1.275125e+02	-2.548338e-03
1.282490e+02	-2.577852e-03
1.289898e+02	-2.607708e-03
1.297348e+02	-2.637910e-03
1.304842e+02	-2.668462e-03
1.312378e+02	-2.699367e-03
1.319959e+02	-2.730630e-03
1.327583e+02	-2.762255e-03
1.335251e+02	-2.794246e-03
1.342963e+02	-2.826608e-03
1.350720e+02	-2.859344e-03
1.358522e+02	-2.892459e-03
1.366368e+02	-2.925958e-03
1.374260e+02	-2.959844e-03
1.382198e+02	-2.994123e-03
1.390182e+02	-3.028798e-03
1.398211e+02	-3.063875e-03
1.406287e+02	-3.099358e-03
1.414410e+02	-3.135252e-03
1.422579e+02	-3.171562e-03
1.430796e+02	-3.208292e-03
1.439060e+02	-3.245447e-03
1.447372e+02	-3.283032e-03
1.455732e+02	-3.321052e-03
1.464141e+02	-3.359512e-03
1.472597e+02	-3.398418e-03
1.481103e+02	-3.437774e-03
1.489658e+02	-3.477585e-03
1.498262e+02	-3.517858e-03
1.506916e+02	-3.558596e-03
1.515620e+02	-3.599806e-03
1.524374e+02	-3.641494e-03
1.533179e+02	-3.683663e-03
1.542034e+02	-3.726321e-03
1.550941e+02	-3.769473e-03
1.559899e+02	-3.813124e-03
1.568909e+02	-3.857280e-03
1.577971e+02	-3.901948e-03
1.587085e+02	-3.947132e-03
1.596252e+02	-3.992840e-03
1.605472e+02	-4.039076e-03
1.614745e+02	-4.085848e-03
1.624072e+02	-4.133161e-03
1.633453e+02	-4.181022e-03
1.642887e+02	-4.229436e-03
1.652377e+02	-4.278411e-03
1.661921e+02	-4.327953e-03
1.671520e+02	-4.378068e-03
1.681175e+02	-4.428763e-03
1.690885e+02	-4.480045e-03
1.700651e+02	-4.531920e-03
1.710474e+02	-4.584396e-03
1.720354e+02	-4.637479e-03
1.730291e+02	-4.691176e-03
1.740285e+02	-4.745495e-03
1.750337e+02	-4.800442e-03
1.760446e+02	-4.856026e-03
1.770615e+02	-4.912252e-03
1.780842e+02	-4.969129e-03
1.791128e+02	-5.026664e-03
1.801473e+02	-5.084865e-03
1.811878e+02	-5.143740e-03
1.822344e+02	-5.203296e-03
1.832870e+02	-5.263541e-03
1.843456e+02	-5.324483e-03
1.854104e+02	-5.386130e-03
1.864813e+02	-5.448490e-03
1.875584e+02	-5.511572e-03
1.886418e+02	-5.575384e-03
1.897313e+02	-5.639934e-03
1.908272e+02	-5.705231e-03
1.919294e+02	-5.771284e-03
1.930380e+02	-5.838101e-03
1.941530e+02	-5.905690e-03
1.952744e+02	-5.974062e-03
1.964023e+02	-6.043225e-03
1.975367e+02	-6.113188e-03
1.986777e+02	-6.183960e-03
1.998252e+02	-6.255551e-03
2.009794e+02	-6.327970e-03
2.021403e+02	-6.401227e-03
2.033078e+02	-6.475332e-03
2.044821e+02	-6.550293e-03
2.056632e+02	-6.626122e-03
2.068511e+02	-6.702828e-03
2.080459e+02	-6.780421e-03
2.092475e+02	-6.858912e-03
2.104561e+02	-6.938311e-03
2.116717e+02	-7.018628e-03
2.128943e+02	-7.099873e-03
2.141240e+02	-7.182059e-03
2.153608e+02	-7.265195e-03
2.166047e+02	-7.349293e-03
2.178558e+02	-7.434363e-03
2.191141e+02	-7.520418e-03
2.203797e+02	-7.607467e-03
2.216526e+02	-7.695523e-03
2.229329e+02	-7.784598e-03
2.242205e+02	-7.874702e-03
2.255156e+02	-7.965849e-03
2.268182e+02	-8.058049e-03
2.281283e+02	-8.151316e-03
2.294459e+02	-8.245661e-03
2.307712e+02	-8.341097e-03
2.321041e+02	-8.437636e-03
2.334447e+02	-8.535292e-03
2.347931e+02	-8.634077e-03
2.361493e+02	-8.734004e-03
2.375133e+02	-8.835087e-03
2.388851e+02	-8.937338e-03
2.402649e+02	-9.040771e-03
2.416527e+02	-9.145400e-03
2.430484e+02	-9.251239e-03
2.444523e+02	-9.358301e-03
2.458642e+02	-9.466600e-03
2.472843e+02	-9.576152e-03
2.487126e+02	-9.686970e-03
2.501492e+02	-9.799069e-03
2.515940e+02	-9.912464e-03
2.530472e+02	-1.002717e-02
2.545088e+02	-1.014320e-02
2.559789e+02	-1.026057e-02
2.574574e+02	-1.037930e-02
2.589444e+02	-1.049940e-02
2.604401e+02	-1.062089e-02
2.619444e+02	-1.074378e-02
2.634574e+02	-1.086810e-02
2.649791e+02	-1.099385e-02
2.665096e+02	-1.112105e-02
2.680489e+02	-1.124972e-02
2.695972e+02	-1.137988e-02
2.711544e+02	-1.151155e-02
2.727205e+02	-1.164473e-02
2.742958e+02	-1.177945e-02
2.758801e+02	-1.191573e-02
2.774736e+02	-1.205359e-02
2.790762e+02	-1.219304e-02
2.806882e+02	-1.233409e-02
2.823094e+02	-1.247678e-02
2.839400e+02	-1.262112e-02
2.855800e+02	-1.276712e-02
2.872295e+02	-1.291481e-02
2.888886e+02	-1.306421e-02
2.905572e+02	-1.321533e-02
2.922354e+02	-1.336819e-02
2.939234e+02	-1.352283e-02
2.956211e+02	-1.367924e-02
2.973286e+02	-1.383747e-02
2.990459e+02	-1.399752e-02
3.007732e+02	-1.415942e-02
3.025104e+02	-1.432319e-02
3.042577e+02	-1.448885e-02
3.060151e+02	-1.465642e-02
3.077826e+02	-1.482593e-02
3.095604e+02	-1.499739e-02
3.113484e+02	-1.517084e-02
3.131467e+02	-1.534628e-02
3.149554e+02	-1.552375e-02
3.167746e+02	-1.570327e-02
3.186043e+02	-1.588487e-02
3.204445e+02	-1.606856e-02
3.222954e+02	-1.625436e-02
3.241570e+02	-1.644232e-02
3.260293e+02	-1.663244e-02
3.279124e+02	-1.682476e-02
3.298064e+02	-1.701929e-02
3.317114e+02	-1.721607e-02
3.336273e+02	-1.741512e-02
3.355544e+02	-1.761647e-02
3.374925e+02	-1.782014e-02
3.394418e+02	-1.802616e-02
3.414024e+02	-1.823456e-02
3.433744e+02	-1.844536e-02
3.453577e+02	-1.865860e-02
3.473525e+02	-1.887429e-02
3.493588e+02	-1.909247e-02
3.513766e+02	-1.931317e-02
3.534062e+02	-1.953641e-02
3.554474e+02	-1.976223e-02
3.575005e+02	-1.999065e-02
3.595654e+02	-2.022171e-02
3.616422e+02	-2.045543e-02
3.637311e+02	-2.069184e-02
3.658320e+02	-2.093098e-02
3.679450e+02	-2.117288e-02
3.700702e+02	-2.141756e-02
3.722077e+02	-2.166507e-02
3.743576e+02	-2.191543e-02
3.765199e+02	-2.216868e-02
3.786946e+02	-2.242484e-02
3.808820e+02	-2.268396e-02
3.830819e+02	-2.294606e-02
3.852946e+02	-2.321118e-02
3.875200e+02	-2.347936e-02
3.897583e+02	-2.375063e-02
3.920096e+02	-2.402502e-02
3.942738e+02	-2.430258e-02
3.965511e+02	-2.458333e-02
3.988416e+02	-2.486732e-02
4.011452e+02	-2.515457e-02
4.034622e+02	-2.544514e-02
4.057926e+02	-2.573905e-02
4.081365e+02	-2.603635e-02
4.104938e+02	-2.633707e-02
4.128648e+02	-2.664125e-02
4.152495e+02	-2.694893e-02
4.176480e+02	-2.726016e-02
4.200603e+02	-2.757497e-02
4.224866e+02	-2.789340e-02
4.249268e+02	-2.821550e-02
4.273812e+02	-2.854131e-02
4.298497e+02	-2.887087e-02
4.323325e+02	-2.920421e-02
4.348297e+02	-2.954140e-02
4.373412e+02	-2.988246e-02
4.398673e+02	-3.022745e-02
4.424079e+02	-3.057640e-02
4.449633e+02	-3.092937e-02
4.475334e+02	-3.128640e-02
4.501183e+02	-3.164754e-02
4.527182e+02	-3.201283e-02
4.553330e+02	-3.238232e-02
4.579630e+02	-3.275606e-02
4.606082e+02	-3.313409e-02
4.632687e+02	-3.351648e-02
4.659445e+02	-3.390325e-02
4.686358e+02	-3.429447e-02
4.713426e+02	-3.469019e-02
4.740650e+02	-3.509046e-02
4.768032e+02	-3.549533e-02
4.795572e+02	-3.590484e-02
4.823271e+02	-3.631907e-02
4.851130e+02	-3.673805e-02
4.879150e+02	-3.716184e-02
4.907332e+02	-3.759050e-02
4.935676e+02	-3.802409e-02
4.964185e+02	-3.846265e-02
4.992858e+02	-3.890625e-02
5.021696e+02	-3.935494e-02
5.050701e+02	-3.980878e-02
5.079874e+02	-4.026783e-02
5.109215e+02	-4.073215e-02
5.138726e+02	-4.120180e-02
5.168407e+02	-4.167684e-02
5.198259e+02	-4.215733e-02
5.228284e+02	-4.264333e-02
5.258482e+02	-4.313490e-02
5.288855e+02	-4.363211e-02
5.319403e+02	-4.413503e-02
5.350128e+02	-4.464371e-02
5.381030e+02	-4.515822e-02
5.412111e+02	-4.567863e-02
5.443371e+02	-4.620501e-02
5.474812e+02	-4.673742e-02
5.506434e+02	-4.727593e-02
5.538239e+02	-4.782062e-02
5.570228e+02	-4.837154e-02
5.602401e+02	-4.892877e-02
5.634760e+02	-4.949239e-02
5.667306e+02	-5.006246e-02
5.700040e+02	-5.063906e-02
5.732964e+02	-5.122226e-02
5.766077e+02	-5.181214e-02
5.799382e+02	-5.240876e-02
5.832879e+02	-5.301222e-02
5.866569e+02	-5.362258e-02
5.900454e+02	-5.423993e-02
5.934535e+02	-5.486434e-02
5.968813e+02	-5.549589e-02
6.003288e+02	-5.613466e-02
6.037963e+02	-5.678074e-02
6.072838e+02	-5.743420e-02
6.107914e+02	-5.809513e-02
6.143194e+02	-5.876362e-02
6.178676e+02	-5.943975e-02
6.214364e+02	-6.012360e-02
6.250258e+02	-6.081527e-02
6.286359e+02	-6.151483e-02
6.322669e+02	-6.222238e-02
6.359189e+02	-6.293802e-02
6.395919e+02	-6.366182e-02
6.432862e+02	-6.439389e-02
6.470017e+02	-6.513431e-02
6.507388e+02	-6.588318e-02
6.544974e+02	-6.664059e-02
6.582778e+02	-6.740664e-02
6.620800e+02	-6.818143e-02
6.659041e+02	-6.896506e-02
6.697504e+02	-6.975761e-02
6.736188e+02	-7.055921e-02
6.775096e+02	-7.136993e-02
6.814229e+02	-7.218990e-02
6.853587e+02	-7.301920e-02
6.893173e+02	-7.385795e-02
6.932988e+02	-7.470626e-02
6.973033e+02	-7.556422e-02
7.013309e+02	-7.643195e-02
