Frequency(Hz)	Magnitude(dB)
1.000000e+01	-2.102165e+00
1.005776e+01	-2.121521e+00
1.011585e+01	-2.140898e+00
1.017428e+01	-2.160372e+00
1.023305e+01	-2.180081e+00
1.029215e+01	-2.199894e+00
1.035160e+01	-2.219964e+00
1.041139e+01	-2.239941e+00
1.047153e+01	-2.260037e+00
1.053201e+01	-2.280747e+00
1.059284e+01	-2.301216e+00
1.065403e+01	-2.321753e+00
1.071556e+01	-2.342488e+00
1.077746e+01	-2.363494e+00
1.083971e+01	-2.384436e+00
1.090232e+01	-2.405873e+00
1.096529e+01	-2.426993e+00
1.102862e+01	-2.448693e+00
1.109232e+01	-2.470086e+00
1.115639e+01	-2.491904e+00
1.122083e+01	-2.513779e+00
1.128564e+01	-2.535961e+00
1.135083e+01	-2.557939e+00
1.141639e+01	-2.580447e+00
1.148233e+01	-2.602981e+00
1.154865e+01	-2.625612e+00
1.161536e+01	-2.648252e+00
1.168245e+01	-2.671126e+00
1.174992e+01	-2.694377e+00
1.181779e+01	-2.717429e+00
1.188605e+01	-2.740570e+00
1.195470e+01	-2.764311e+00
1.202375e+01	-2.787927e+00
1.209320e+01	-2.811745e+00
1.216305e+01	-2.835773e+00
1.223330e+01	-2.859525e+00
1.230396e+01	-2.883891e+00
1.237503e+01	-2.908166e+00
1.244651e+01	-2.932559e+00
1.251840e+01	-2.957220e+00
1.259070e+01	-2.982171e+00
1.266343e+01	-3.007094e+00
1.273657e+01	-3.032181e+00
1.281014e+01	-3.057447e+00
1.288413e+01	-3.082536e+00
1.295855e+01	-3.108242e+00
1.303339e+01	-3.133730e+00
1.310867e+01	-3.159671e+00
1.318439e+01	-3.185587e+00
1.326054e+01	-3.211599e+00
1.333713e+01	-3.238056e+00
1.341417e+01	-3.264046e+00
1.349165e+01	-3.290587e+00
1.356958e+01	-3.317335e+00
1.364795e+01	-3.344163e+00
1.372678e+01	-3.371065e+00
1.380607e+01	-3.397981e+00
1.388581e+01	-3.425173e+00
1.396602e+01	-3.452626e+00
1.404668e+01	-3.480381e+00
1.412782e+01	-3.507827e+00
1.420942e+01	-3.535725e+00
1.429149e+01	-3.563373e+00
1.437404e+01	-3.591818e+00
1.445706e+01	-3.619764e+00
1.454057e+01	-3.648305e+00
1.462455e+01	-3.676908e+00
1.470902e+01	-3.705127e+00
1.479398e+01	-3.733930e+00
1.487943e+01	-3.763035e+00
1.496537e+01	-3.791944e+00
1.505181e+01	-3.821256e+00
1.513875e+01	-3.850678e+00
1.522619e+01	-3.880014e+00
1.531414e+01	-3.909530e+00
1.540259e+01	-3.939533e+00
1.549156e+01	-3.969466e+00
1.558103e+01	-3.999481e+00
1.567103e+01	-4.029528e+00
1.576155e+01	-4.060121e+00
1.585258e+01	-4.090369e+00
1.594415e+01	-4.120888e+00
1.603624e+01	-4.151632e+00
1.612886e+01	-4.182262e+00
1.622202e+01	-4.213570e+00
1.631572e+01	-4.244453e+00
1.640996e+01	-4.275905e+00
1.650474e+01	-4.307335e+00
1.660008e+01	-4.339094e+00
1.669596e+01	-4.370663e+00
1.679239e+01	-4.402554e+00
1.688938e+01	-4.434186e+00
1.698694e+01	-4.466013e+00
1.708505e+01	-4.498648e+00
1.718373e+01	-4.530954e+00
1.728299e+01	-4.563344e+00
1.738281e+01	-4.596046e+00
1.748322e+01	-4.628496e+00
1.758420e+01	-4.661679e+00
1.768576e+01	-4.694594e+00
1.778792e+01	-4.727665e+00
1.789066e+01	-4.760686e+00
1.799399e+01	-4.794706e+00
1.809793e+01	-4.827771e+00
1.820246e+01	-4.861456e+00
1.830760e+01	-4.895303e+00
1.841334e+01	-4.929099e+00
1.851969e+01	-4.963430e+00
1.862666e+01	-4.997459e+00
1.873425e+01	-5.031649e+00
1.884246e+01	-5.065801e+00
1.895129e+01	-5.100401e+00
1.906075e+01	-5.135178e+00
1.917085e+01	-5.169678e+00
1.928158e+01	-5.204562e+00
1.939295e+01	-5.239609e+00
1.950496e+01	-5.274793e+00
1.961762e+01	-5.310027e+00
1.973093e+01	-5.345360e+00
1.984490e+01	-5.380736e+00
1.995952e+01	-5.416499e+00
2.007480e+01	-5.452201e+00
2.019076e+01	-5.487919e+00
2.030738e+01	-5.523857e+00
2.042467e+01	-5.559975e+00
2.054264e+01	-5.596351e+00
2.066130e+01	-5.632430e+00
2.078064e+01	-5.668957e+00
2.090066e+01	-5.705492e+00
2.102139e+01	-5.741954e+00
2.114280e+01	-5.778680e+00
2.126492e+01	-5.815491e+00
2.138775e+01	-5.852374e+00
2.151128e+01	-5.889579e+00
2.163553e+01	-5.927200e+00
2.176050e+01	-5.964367e+00
2.188619e+01	-6.001597e+00
2.201260e+01	-6.039115e+00
2.213974e+01	-6.076918e+00
2.226762e+01	-6.114415e+00
2.239624e+01	-6.152182e+00
2.252560e+01	-6.190306e+00
2.265571e+01	-6.228247e+00
2.278656e+01	-6.266400e+00
2.291818e+01	-6.304684e+00
2.305055e+01	-6.342740e+00
2.318369e+01	-6.381476e+00
2.331760e+01	-6.420288e+00
2.345228e+01	-6.458731e+00
2.358774e+01	-6.497587e+00
2.372398e+01	-6.536571e+00
2.386101e+01	-6.575333e+00
2.399883e+01	-6.614469e+00
2.413745e+01	-6.653956e+00
2.427686e+01	-6.692755e+00
2.441709e+01	-6.732062e+00
2.455812e+01	-6.771777e+00
2.469997e+01	-6.811349e+00
2.484263e+01	-6.850825e+00
2.498612e+01	-6.890615e+00
2.513044e+01	-6.930096e+00
2.527559e+01	-6.970362e+00
2.542158e+01	-7.010328e+00
2.556842e+01	-7.050441e+00
2.571610e+01	-7.090592e+00
2.586463e+01	-7.131000e+00
2.601403e+01	-7.171411e+00
2.616428e+01	-7.211904e+00
2.631541e+01	-7.252264e+00
2.646740e+01	-7.293178e+00
2.662028e+01	-7.333575e+00
2.677404e+01	-7.374734e+00
2.692868e+01	-7.415709e+00
2.708422e+01	-7.456904e+00
2.724066e+01	-7.497591e+00
2.739800e+01	-7.538815e+00
2.755625e+01	-7.580367e+00
2.771541e+01	-7.621638e+00
2.787550e+01	-7.662960e+00
2.803650e+01	-7.704370e+00
2.819844e+01	-7.746078e+00
2.836131e+01	-7.787609e+00
2.852513e+01	-7.829489e+00
2.868989e+01	-7.871149e+00
2.885560e+01	-7.913248e+00
2.902227e+01	-7.955029e+00
2.918990e+01	-7.997205e+00
2.935850e+01	-8.039569e+00
2.952807e+01	-8.081402e+00
2.969863e+01	-8.123611e+00
2.987016e+01	-8.166077e+00
3.004269e+01	-8.208031e+00
3.021622e+01	-8.251374e+00
3.039075e+01	-8.293344e+00
3.056628e+01	-8.335888e+00
3.074283e+01	-8.378865e+00
3.092040e+01	-8.422067e+00
3.109900e+01	-8.464744e+00
3.127862e+01	-8.507418e+00
3.145929e+01	-8.550429e+00
3.164099e+01	-8.593414e+00
3.182375e+01	-8.636867e+00
3.200756e+01	-8.679700e+00
3.219244e+01	-8.722684e+00
3.237838e+01	-8.766089e+00
3.256540e+01	-8.809471e+00
3.275349e+01	-8.853529e+00
3.294268e+01	-8.897528e+00
3.313295e+01	-8.940301e+00
3.332433e+01	-8.984138e+00
3.351681e+01	-9.028051e+00
3.371040e+01	-9.072262e+00
3.390511e+01	-9.115961e+00
3.410094e+01	-9.159564e+00
3.429791e+01	-9.203733e+00
3.449601e+01	-9.247748e+00
3.469526e+01	-9.291369e+00
3.489566e+01	-9.335730e+00
3.509721e+01	-9.379779e+00
3.529993e+01	-9.424256e+00
3.550382e+01	-9.468926e+00
3.570889e+01	-9.513283e+00
3.591515e+01	-9.557296e+00
3.612259e+01	-9.602045e+00
3.633123e+01	-9.646466e+00
3.654108e+01	-9.691661e+00
3.675214e+01	-9.735934e+00
3.696442e+01	-9.780414e+00
3.717792e+01	-9.825638e+00
3.739266e+01	-9.870265e+00
3.760864e+01	-9.915431e+00
3.782587e+01	-9.960604e+00
3.804435e+01	-1.000542e+01
3.826409e+01	-1.005037e+01
3.848510e+01	-1.009547e+01
3.870739e+01	-1.014057e+01
3.893096e+01	-1.018565e+01
3.915583e+01	-1.023105e+01
3.938199e+01	-1.027639e+01
3.960946e+01	-1.032188e+01
3.983824e+01	-1.036728e+01
4.006834e+01	-1.041226e+01
4.029978e+01	-1.045875e+01
4.053255e+01	-1.050380e+01
4.076666e+01	-1.054928e+01
4.100213e+01	-1.059515e+01
4.123896e+01	-1.064017e+01
4.147715e+01	-1.068612e+01
4.171672e+01	-1.073244e+01
4.195767e+01	-1.077733e+01
4.220002e+01	-1.082382e+01
4.244377e+01	-1.087008e+01
4.268892e+01	-1.091568e+01
4.293549e+01	-1.096214e+01
4.318348e+01	-1.100785e+01
4.343291e+01	-1.105363e+01
4.368377e+01	-1.110009e+01
4.393609e+01	-1.114659e+01
4.418986e+01	-1.119255e+01
4.444510e+01	-1.123843e+01
4.470182e+01	-1.128532e+01
4.496001e+01	-1.133117e+01
4.521970e+01	-1.137776e+01
4.548089e+01	-1.142436e+01
4.574358e+01	-1.147021e+01
4.600779e+01	-1.151629e+01
4.627353e+01	-1.156314e+01
4.654081e+01	-1.161004e+01
4.680963e+01	-1.165617e+01
4.708000e+01	-1.170300e+01
4.735193e+01	-1.174966e+01
4.762543e+01	-1.179611e+01
4.790051e+01	-1.184334e+01
4.817719e+01	-1.188975e+01
4.845545e+01	-1.193680e+01
4.873533e+01	-1.198316e+01
4.901682e+01	-1.203102e+01
4.929994e+01	-1.207761e+01
4.958470e+01	-1.212441e+01
4.987110e+01	-1.217128e+01
5.015915e+01	-1.221827e+01
5.044887e+01	-1.226502e+01
5.074026e+01	-1.231319e+01
5.103333e+01	-1.235987e+01
5.132810e+01	-1.240651e+01
5.162457e+01	-1.245366e+01
5.192275e+01	-1.250112e+01
5.222265e+01	-1.254814e+01
5.252429e+01	-1.259521e+01
5.282767e+01	-1.264272e+01
5.313280e+01	-1.269035e+01
5.343969e+01	-1.273695e+01
5.374836e+01	-1.278540e+01
5.405880e+01	-1.283195e+01
5.437105e+01	-1.287939e+01
5.468509e+01	-1.292766e+01
5.500095e+01	-1.297492e+01
5.531863e+01	-1.302253e+01
5.563815e+01	-1.306917e+01
5.595951e+01	-1.311722e+01
5.628273e+01	-1.316473e+01
5.660782e+01	-1.321254e+01
5.693479e+01	-1.326013e+01
5.726364e+01	-1.330780e+01
5.759439e+01	-1.335510e+01
5.792705e+01	-1.340245e+01
5.826164e+01	-1.345155e+01
5.859815e+01	-1.349895e+01
5.893662e+01	-1.354665e+01
5.927703e+01	-1.359381e+01
5.961941e+01	-1.364089e+01
5.996377e+01	-1.369002e+01
6.031012e+01	-1.373835e+01
6.065847e+01	-1.378582e+01
6.100883e+01	-1.383458e+01
6.136121e+01	-1.388157e+01
6.171563e+01	-1.393062e+01
6.207210e+01	-1.397835e+01
6.243063e+01	-1.402623e+01
6.279122e+01	-1.407384e+01
6.315390e+01	-1.412245e+01
6.351868e+01	-1.417023e+01
6.388556e+01	-1.421798e+01
6.425456e+01	-1.426669e+01
6.462569e+01	-1.431452e+01
6.499897e+01	-1.436263e+01
6.537440e+01	-1.440998e+01
6.575200e+01	-1.445903e+01
6.613178e+01	-1.450692e+01
6.651375e+01	-1.455585e+01
6.689793e+01	-1.460371e+01
6.728433e+01	-1.465259e+01
6.767297e+01	-1.470112e+01
6.806384e+01	-1.474812e+01
6.845698e+01	-1.479773e+01
6.885238e+01	-1.484623e+01
6.925007e+01	-1.489432e+01
6.965005e+01	-1.494185e+01
7.005235e+01	-1.499044e+01
7.045697e+01	-1.503955e+01
7.086393e+01	-1.508806e+01
7.127323e+01	-1.513698e+01
7.168490e+01	-1.518429e+01
7.209895e+01	-1.523288e+01
7.251539e+01	-1.528201e+01
7.293424e+01	-1.533078e+01
7.335551e+01	-1.537913e+01
7.377920e+01	-1.542744e+01
7.420535e+01	-1.547653e+01
7.463396e+01	-1.552346e+01
7.506504e+01	-1.557256e+01
7.549861e+01	-1.562165e+01
7.593469e+01	-1.567074e+01
7.637328e+01	-1.571860e+01
7.681441e+01	-1.576875e+01
7.725809e+01	-1.581795e+01
7.770433e+01	-1.586582e+01
7.815315e+01	-1.591419e+01
7.860456e+01	-1.596363e+01
7.905857e+01	-1.601230e+01
7.951521e+01	-1.606024e+01
7.997449e+01	-1.610906e+01
8.043642e+01	-1.615852e+01
8.090102e+01	-1.620684e+01
8.136830e+01	-1.625548e+01
8.183828e+01	-1.630560e+01
8.231097e+01	-1.635429e+01
8.278640e+01	-1.640147e+01
8.326457e+01	-1.645107e+01
8.374550e+01	-1.649913e+01
8.422921e+01	-1.654835e+01
8.471572e+01	-1.659832e+01
8.520503e+01	-1.664753e+01
8.569717e+01	-1.669641e+01
8.619215e+01	-1.674525e+01
8.669000e+01	-1.679430e+01
8.719071e+01	-1.684309e+01
8.769432e+01	-1.689251e+01
8.820084e+01	-1.694041e+01
8.871029e+01	-1.699102e+01
8.922267e+01	-1.703958e+01
8.973802e+01	-1.708737e+01
9.025634e+01	-1.713749e+01
9.077766e+01	-1.718734e+01
9.130199e+01	-1.723531e+01
9.182935e+01	-1.728374e+01
9.235975e+01	-1.733323e+01
9.289321e+01	-1.738228e+01
9.342976e+01	-1.743182e+01
9.396941e+01	-1.748143e+01
9.451217e+01	-1.753040e+01
9.505807e+01	-1.757887e+01
9.560712e+01	-1.762970e+01
9.615934e+01	-1.767799e+01
9.671476e+01	-1.772718e+01
9.727338e+01	-1.777503e+01
9.783522e+01	-1.782616e+01
9.840032e+01	-1.787383e+01
9.896867e+01	-1.792414e+01
9.954031e+01	-1.797433e+01
1.001153e+02	-1.802121e+01
1.006935e+02	-1.807131e+01
1.012751e+02	-1.812108e+01
1.018601e+02	-1.816977e+01
1.024484e+02	-1.821931e+01
1.030402e+02	-1.826797e+01
1.036353e+02	-1.831731e+01
1.042339e+02	-1.836699e+01
1.048360e+02	-1.841692e+01
1.054415e+02	-1.846669e+01
1.060505e+02	-1.851381e+01
1.066631e+02	-1.856324e+01
1.072791e+02	-1.861438e+01
1.078988e+02	-1.866418e+01
1.085220e+02	-1.871308e+01
1.091488e+02	-1.876221e+01
1.097793e+02	-1.881147e+01
1.104133e+02	-1.886048e+01
1.110511e+02	-1.890974e+01
1.116925e+02	-1.895908e+01
1.123376e+02	-1.900878e+01
1.129865e+02	-1.905840e+01
1.136391e+02	-1.910901e+01
1.142955e+02	-1.915763e+01
1.149556e+02	-1.920540e+01
1.156196e+02	-1.925573e+01
1.162874e+02	-1.930535e+01
1.169591e+02	-1.935431e+01
1.176347e+02	-1.940377e+01
1.183141e+02	-1.945309e+01
1.189975e+02	-1.950226e+01
1.196848e+02	-1.955232e+01
1.203761e+02	-1.960138e+01
1.210714e+02	-1.965116e+01
1.217707e+02	-1.970089e+01
1.224740e+02	-1.975105e+01
1.231814e+02	-1.979928e+01
1.238929e+02	-1.985067e+01
1.246085e+02	-1.989686e+01
1.253283e+02	-1.994998e+01
1.260522e+02	-1.999866e+01
1.267802e+02	-2.004813e+01
1.275125e+02	-2.009914e+01
1.282490e+02	-2.014541e+01
1.289898e+02	-2.019592e+01
1.297348e+02	-2.024523e+01
1.304842e+02	-2.029469e+01
1.312378e+02	-2.034573e+01
1.319959e+02	-2.039468e+01
1.327583e+02	-2.044368e+01
1.335251e+02	-2.049339e+01
1.342963e+02	-2.054225e+01
1.350720e+02	-2.059184e+01
1.358522e+02	-2.064198e+01
1.366368e+02	-2.069201e+01
1.374260e+02	-2.074176e+01
1.382198e+02	-2.079248e+01
1.390182e+02	-2.084158e+01
1.398211e+02	-2.089095e+01
1.406287e+02	-2.094207e+01
1.414410e+02	-2.098757e+01
1.422579e+02	-2.104126e+01
1.430796e+02	-2.108977e+01
1.439060e+02	-2.113712e+01
1.447372e+02	-2.119006e+01
1.455732e+02	-2.123933e+01
1.464141e+02	-2.128623e+01
1.472597e+02	-2.133922e+01
1.481103e+02	-2.138645e+01
1.489658e+02	-2.143719e+01
1.498262e+02	-2.148759e+01
1.506916e+02	-2.153653e+01
1.515620e+02	-2.158700e+01
1.524374e+02	-2.163623e+01
1.533179e+02	-2.168505e+01
1.542034e+02	-2.173716e+01
1.550941e+02	-2.178549e+01
1.559899e+02	-2.183504e+01
1.568909e+02	-2.188501e+01
1.577971e+02	-2.193423e+01
1.587085e+02	-2.198304e+01
1.596252e+02	-2.203280e+01
1.605472e+02	-2.208327e+01
1.614745e+02	-2.213058e+01
1.624072e+02	-2.218018e+01
1.633453e+02	-2.223385e+01
1.642887e+02	-2.228356e+01
1.652377e+02	-2.233005e+01
1.661921e+02	-2.238051e+01
1.671520e+02	-2.243095e+01
1.681175e+02	-2.248139e+01
1.690885e+02	-2.253069e+01
1.700651e+02	-2.258314e+01
1.710474e+02	-2.263172e+01
1.720354e+02	-2.268139e+01
1.730291e+02	-2.272936e+01
1.740285e+02	-2.278117e+01
1.750337e+02	-2.282869e+01
1.760446e+02	-2.287922e+01
1.770615e+02	-2.292989e+01
1.780842e+02	-2.297694e+01
1.791128e+02	-2.302919e+01
1.801473e+02	-2.307947e+01
1.811878e+02	-2.312511e+01
1.822344e+02	-2.317920e+01
1.832870e+02	-2.322740e+01
1.843456e+02	-2.327997e+01
1.854104e+02	-2.332836e+01
1.864813e+02	-2.337746e+01
1.875584e+02	-2.342565e+01
1.886418e+02	-2.347696e+01
1.897313e+02	-2.352638e+01
1.908272e+02	-2.357480e+01
1.919294e+02	-2.362464e+01
1.930380e+02	-2.367789e+01
1.941530e+02	-2.372621e+01
1.952744e+02	-2.377521e+01
1.964023e+02	-2.382381e+01
1.975367e+02	-2.387570e+01
1.986777e+02	-2.392359e+01
1.998252e+02	-2.397514e+01
2.009794e+02	-2.402630e+01
2.021403e+02	-2.407723e+01
2.033078e+02	-2.412259e+01
2.044821e+02	-2.417407e+01
2.056632e+02	-2.422671e+01
2.068511e+02	-2.427499e+01
2.080459e+02	-2.432465e+01
2.092475e+02	-2.437432e+01
2.104561e+02	-2.442305e+01
2.116717e+02	-2.447315e+01
2.128943e+02	-2.452299e+01
2.141240e+02	-2.457579e+01
2.153608e+02	-2.462226e+01
2.166047e+02	-2.467213e+01
2.178558e+02	-2.472339e+01
2.191141e+02	-2.477553e+01
2.203797e+02	-2.482397e+01
2.216526e+02	-2.487293e+01
2.229329e+02	-2.492278e+01
2.242205e+02	-2.497262e+01
2.255156e+02	-2.502362e+01
2.268182e+02	-2.507243e+01
2.281283e+02	-2.512405e+01
2.294459e+02	-2.517343e+01
2.307712e+02	-2.522297e+01
2.321041e+02	-2.527273e+01
2.334447e+02	-2.532476e+01
2.347931e+02	-2.537048e+01
2.361493e+02	-2.542231e+01
2.375133e+02	-2.547390e+01
2.388851e+02	-2.551971e+01
2.402649e+02	-2.557302e+01
2.416527e+02	-2.561714e+01
2.430484e+02	-2.567370e+01
2.444523e+02	-2.572438e+01
2.458642e+02	-2.576857e+01
2.472843e+02	-2.582103e+01
2.487126e+02	-2.586817e+01
2.501492e+02	-2.592079e+01
2.515940e+02	-2.597309e+01
2.530472e+02	-2.602212e+01
2.545088e+02	-2.607111e+01
2.559789e+02	-2.612108e+01
2.574574e+02	-2.617261e+01
2.589444e+02	-2.621990e+01
2.604401e+02	-2.627154e+01
2.619444e+02	-2.631982e+01
2.634574e+02	-2.637022e+01
2.649791e+02	-2.642074e+01
2.665096e+02	-2.647313e+01
2.680489e+02	-2.652066e+01
2.695972e+02	-2.657206e+01
2.711544e+02	-2.662227e+01
2.727205e+02	-2.667172e+01
2.742958e+02	-2.672426e+01
2.758801e+02	-2.676983e+01
2.774736e+02	-2.682243e+01
2.790762e+02	-2.687154e+01
2.806882e+02	-2.692145e+01
2.823094e+02	-2.697097e+01
2.839400e+02	-2.701897e+01
2.855800e+02	-2.707126e+01
2.872295e+02	-2.712237e+01
2.888886e+02	-2.717355e+01
2.905572e+02	-2.722210e+01
2.922354e+02	-2.727109e+01
2.939234e+02	-2.732100e+01
2.956211e+02	-2.737205e+01
2.973286e+02	-2.741664e+01
2.990459e+02	-2.747108e+01
3.007732e+02	-2.752330e+01
3.025104e+02	-2.757194e+01
3.042577e+02	-2.762191e+01
3.060151e+02	-2.766943e+01
3.077826e+02	-2.772039e+01
3.095604e+02	-2.777086e+01
3.113484e+02	-2.782039e+01
3.131467e+02	-2.787306e+01
3.149554e+02	-2.792164e+01
3.167746e+02	-2.797184e+01
3.186043e+02	-2.801822e+01
3.204445e+02	-2.807004e+01
3.222954e+02	-2.811649e+01
3.241570e+02	-2.816896e+01
3.260293e+02	-2.822245e+01
3.279124e+02	-2.826950e+01
3.298064e+02	-2.832415e+01
3.317114e+02	-2.837313e+01
3.336273e+02	-2.841693e+01
3.355544e+02	-2.847391e+01
3.374925e+02	-2.851715e+01
3.394418e+02	-2.857036e+01
3.414024e+02	-2.861881e+01
3.433744e+02	-2.867111e+01
3.453577e+02	-2.872212e+01
3.473525e+02	-2.877455e+01
3.493588e+02	-2.882197e+01
3.513766e+02	-2.886892e+01
3.534062e+02	-2.892262e+01
3.554474e+02	-2.897496e+01
3.575005e+02	-2.902150e+01
3.595654e+02	-2.906787e+01
3.616422e+02	-2.912114e+01
3.637311e+02	-2.916949e+01
3.658320e+02	-2.922232e+01
3.679450e+02	-2.927393e+01
3.700702e+02	-2.932124e+01
3.722077e+02	-2.937247e+01
3.743576e+02	-2.942135e+01
3.765199e+02	-2.947484e+01
3.786946e+02	-2.952613e+01
3.808820e+02	-2.957487e+01
3.830819e+02	-2.962192e+01
3.852946e+02	-2.967635e+01
3.875200e+02	-2.972531e+01
3.897583e+02	-2.977017e+01
3.920096e+02	-2.982178e+01
3.942738e+02	-2.987033e+01
3.965511e+02	-2.992404e+01
3.988416e+02	-2.997197e+01
4.011452e+02	-3.002176e+01
4.034622e+02	-3.007724e+01
4.057926e+02	-3.012283e+01
4.081365e+02	-3.017319e+01
4.104938e+02	-3.022043e+01
4.128648e+02	-3.027607e+01
4.152495e+02	-3.032339e+01
4.176480e+02	-3.037322e+01
4.200603e+02	-3.042595e+01
4.224866e+02	-3.047342e+01
4.249268e+02	-3.052224e+01
4.273812e+02	-3.057819e+01
4.298497e+02	-3.062479e+01
4.323325e+02	-3.067379e+01
4.348297e+02	-3.072832e+01
4.373412e+02	-3.077248e+01
4.398673e+02	-3.081925e+01
4.424079e+02	-3.087379e+01
4.449633e+02	-3.092738e+01
4.475334e+02	-3.098060e+01
4.501183e+02	-3.102290e+01
4.527182e+02	-3.107555e+01
4.553330e+02	-3.112713e+01
4.579630e+02	-3.118046e+01
4.606082e+02	-3.122583e+01
4.632687e+02	-3.127181e+01
4.659445e+02	-3.132459e+01
4.686358e+02	-3.137770e+01
4.713426e+02	-3.142784e+01
4.740650e+02	-3.147734e+01
4.768032e+02	-3.152479e+01
4.795572e+02	-3.158224e+01
4.823271e+02	-3.162776e+01
4.851130e+02	-3.167575e+01
4.879150e+02	-3.173168e+01
4.907332e+02	-3.177724e+01
4.935676e+02	-3.182952e+01
4.964185e+02	-3.188161e+01
4.992858e+02	-3.192240e+01
5.021696e+02	-3.198039e+01
5.050701e+02	-3.203151e+01
5.079874e+02	-3.207395e+01
5.109215e+02	-3.212239e+01
5.138726e+02	-3.218306e+01
5.168407e+02	-3.222518e+01
5.198259e+02	-3.228577e+01
5.228284e+02	-3.233248e+01
5.258482e+02	-3.237882e+01
5.288855e+02	-3.243643e+01
5.319403e+02	-3.248246e+01
5.350128e+02	-3.253081e+01
5.381030e+02	-3.258168e+01
5.412111e+02	-3.263168e+01
5.443371e+02	-3.268721e+01
5.474812e+02	-3.273514e+01
5.506434e+02	-3.278627e+01
5.538239e+02	-3.283013e+01
5.570228e+02	-3.288516e+01
5.602401e+02	-3.292673e+01
5.634760e+02	-3.298965e+01
5.667306e+02	-3.302985e+01
5.700040e+02	-3.307709e+01
5.732964e+02	-3.313648e+01
5.766077e+02	-3.318690e+01
5.799382e+02	-3.323890e+01
5.832879e+02	-3.328099e+01
5.866569e+02	-3.333712e+01
5.900454e+02	-3.338401e+01
5.934535e+02	-3.343580e+01
5.968813e+02	-3.348689e+01
6.003288e+02	-3.353961e+01
6.037963e+02	-3.358663e+01
6.072838e+02	-3.363815e+01
6.107914e+02	-3.368981e+01
6.143194e+02	-3.373559e+01
6.178676e+02	-3.378460e+01
6.214364e+02	-3.383944e+01
6.250258e+02	-3.388776e+01
6.286359e+02	-3.393061e+01
6.322669e+02	-3.398746e+01
6.359189e+02	-3.403737e+01
6.395919e+02	-3.409171e+01
6.432862e+02	-3.413639e+01
6.470017e+02	-3.418611e+01
6.507388e+02	-3.423751e+01
6.544974e+02	-3.429075e+01
6.582778e+02	-3.433627e+01
6.620800e+02	-3.439015e+01
6.659041e+02	-3.444229e+01
6.697504e+02	-3.449389e+01
6.736188e+02	-3.453577e+01
6.775096e+02	-3.459112e+01
6.814229e+02	-3.464319e+01
6.853587e+02	-3.469302e+01
6.893173e+02	-3.473223e+01
6.932988e+02	-3.479065e+01
6.973033e+02	-3.484552e+01
7.013309e+02	-3.489459e+01
