Frequency(Hz)	Magnitude(dB)
1.000000e+01	-1.633116e-05
1.005776e+01	-1.652036e-05
1.011585e+01	-1.671175e-05
1.017428e+01	-1.690536e-05
1.023305e+01	-1.710121e-05
1.029215e+01	-1.729934e-05
1.035160e+01	-1.749975e-05
1.041139e+01	-1.770249e-05
1.047153e+01	-1.790758e-05
1.053201e+01	-1.811504e-05
1.059284e+01	-1.832491e-05
1.065403e+01	-1.853721e-05
1.071556e+01	-1.875197e-05
1.077746e+01	-1.896921e-05
1.083971e+01	-1.918898e-05
1.090232e+01	-1.941129e-05
1.096529e+01	-1.963617e-05
1.102862e+01	-1.986366e-05
1.109232e+01	-2.009379e-05
1.115639e+01	-2.032658e-05
1.122083e+01	-2.056207e-05
1.128564e+01	-2.080028e-05
1.135083e+01	-2.104126e-05
1.141639e+01	-2.128503e-05
1.148233e+01	-2.153162e-05
1.154865e+01	-2.178107e-05
1.161536e+01	-2.203341e-05
1.168245e+01	-2.228867e-05
1.174992e+01	-2.254689e-05
1.181779e+01	-2.280810e-05
1.188605e+01	-2.307234e-05
1.195470e+01	-2.333964e-05
1.202375e+01	-2.361004e-05
1.209320e+01	-2.388356e-05
1.216305e+01	-2.416026e-05
1.223330e+01	-2.444016e-05
1.230396e+01	-2.472331e-05
1.237503e+01	-2.500973e-05
1.244651e+01	-2.529948e-05
1.251840e+01	-2.559258e-05
1.259070e+01	-2.588907e-05
1.266343e+01	-2.618901e-05
1.273657e+01	-2.649241e-05
1.281014e+01	-2.679933e-05
1.288413e+01	-2.710981e-05
1.295855e+01	-2.742388e-05
1.303339e+01	-2.774160e-05
1.310867e+01	-2.806299e-05
1.318439e+01	-2.838811e-05
1.326054e+01	-2.871699e-05
1.333713e+01	-2.904968e-05
1.341417e+01	-2.938623e-05
1.349165e+01	-2.972668e-05
1.356958e+01	-3.007107e-05
1.364795e+01	-3.041945e-05
1.372678e+01	-3.077186e-05
1.380607e+01	-3.112836e-05
1.388581e+01	-3.148899e-05
1.396602e+01	-3.185380e-05
1.404668e+01	-3.222283e-05
1.412782e+01	-3.259614e-05
1.420942e+01	-3.297378e-05
1.429149e+01	-3.335579e-05
1.437404e+01	-3.374222e-05
1.445706e+01	-3.413313e-05
1.454057e+01	-3.452857e-05
1.462455e+01	-3.492859e-05
1.470902e+01	-3.533325e-05
1.479398e+01	-3.574259e-05
1.487943e+01	-3.615668e-05
1.496537e+01	-3.657556e-05
1.505181e+01	-3.699930e-05
1.513875e+01	-3.742795e-05
1.522619e+01	-3.786156e-05
1.531414e+01	-3.830019e-05
1.540259e+01	-3.874391e-05
1.549156e+01	-3.919277e-05
1.558103e+01	-3.964682e-05
1.567103e+01	-4.010614e-05
1.576155e+01	-4.057078e-05
1.585258e+01	-4.104080e-05
1.594415e+01	-4.151627e-05
1.603624e+01	-4.199724e-05
1.612886e+01	-4.248379e-05
1.622202e+01	-4.297597e-05
1.631572e+01	-4.347386e-05
1.640996e+01	-4.397751e-05
1.650474e+01	-4.448700e-05
1.660008e+01	-4.500240e-05
1.669596e+01	-4.552376e-05
1.679239e+01	-4.605116e-05
1.688938e+01	-4.658467e-05
1.698694e+01	-4.712437e-05
1.708505e+01	-4.767031e-05
1.718373e+01	-4.822258e-05
1.728299e+01	-4.878125e-05
1.738281e+01	-4.934639e-05
1.748322e+01	-4.991808e-05
1.758420e+01	-5.049639e-05
1.768576e+01	-5.108141e-05
1.778792e+01	-5.167319e-05
1.789066e+01	-5.227184e-05
1.799399e+01	-5.287742e-05
1.809793e+01	-5.349002e-05
1.820246e+01	-5.410971e-05
1.830760e+01	-5.473658e-05
1.841334e+01	-5.537072e-05
1.851969e+01	-5.601220e-05
1.862666e+01	-5.666111e-05
1.873425e+01	-5.731754e-05
1.884246e+01	-5.798158e-05
1.895129e+01	-5.865330e-05
1.906075e+01	-5.933281e-05
1.917085e+01	-6.002020e-05
1.928158e+01	-6.071554e-05
1.939295e+01	-6.141894e-05
1.950496e+01	-6.213049e-05
1.961762e+01	-6.285029e-05
1.973093e+01	-6.357842e-05
1.984490e+01	-6.431499e-05
1.995952e+01	-6.506009e-05
2.007480e+01	-6.581382e-05
2.019076e+01	-6.657629e-05
2.030738e+01	-6.734759e-05
2.042467e+01	-6.812782e-05
2.054264e+01	-6.891710e-05
2.066130e+01	-6.971551e-05
2.078064e+01	-7.052318e-05
2.090066e+01	-7.134021e-05
2.102139e+01	-7.216670e-05
2.114280e+01	-7.300276e-05
2.126492e+01	-7.384851e-05
2.138775e+01	-7.470406e-05
2.151128e+01	-7.556952e-05
2.163553e+01	-7.644500e-05
2.176050e+01	-7.733063e-05
2.188619e+01	-7.822652e-05
2.201260e+01	-7.913279e-05
2.213974e+01	-8.004956e-05
2.226762e+01	-8.097694e-05
2.239624e+01	-8.191508e-05
2.252560e+01	-8.286408e-05
2.265571e+01	-8.382407e-05
2.278656e+01	-8.479519e-05
2.291818e+01	-8.577755e-05
2.305055e+01	-8.677130e-05
2.318369e+01	-8.777656e-05
2.331760e+01	-8.879346e-05
2.345228e+01	-8.982215e-05
2.358774e+01	-9.086275e-05
2.372398e+01	-9.191541e-05
2.386101e+01	-9.298027e-05
2.399883e+01	-9.405746e-05
2.413745e+01	-9.514713e-05
2.427686e+01	-9.624942e-05
2.441709e+01	-9.736449e-05
2.455812e+01	-9.849247e-05
2.469997e+01	-9.963352e-05
2.484263e+01	-1.007878e-04
2.498612e+01	-1.019554e-04
2.513044e+01	-1.031366e-04
2.527559e+01	-1.043314e-04
2.542158e+01	-1.055401e-04
2.556842e+01	-1.067628e-04
2.571610e+01	-1.079997e-04
2.586463e+01	-1.092509e-04
2.601403e+01	-1.105166e-04
2.616428e+01	-1.117969e-04
2.631541e+01	-1.130921e-04
2.646740e+01	-1.144023e-04
2.662028e+01	-1.157277e-04
2.677404e+01	-1.170684e-04
2.692868e+01	-1.184246e-04
2.708422e+01	-1.197966e-04
2.724066e+01	-1.211845e-04
2.739800e+01	-1.225884e-04
2.755625e+01	-1.240086e-04
2.771541e+01	-1.254452e-04
2.787550e+01	-1.268985e-04
2.803650e+01	-1.283687e-04
2.819844e+01	-1.298558e-04
2.836131e+01	-1.313602e-04
2.852513e+01	-1.328821e-04
2.868989e+01	-1.344215e-04
2.885560e+01	-1.359788e-04
2.902227e+01	-1.375541e-04
2.918990e+01	-1.391477e-04
2.935850e+01	-1.407597e-04
2.952807e+01	-1.423904e-04
2.969863e+01	-1.440401e-04
2.987016e+01	-1.457088e-04
3.004269e+01	-1.473968e-04
3.021622e+01	-1.491044e-04
3.039075e+01	-1.508318e-04
3.056628e+01	-1.525792e-04
3.074283e+01	-1.543468e-04
3.092040e+01	-1.561350e-04
3.109900e+01	-1.579438e-04
3.127862e+01	-1.597736e-04
3.145929e+01	-1.616246e-04
3.164099e+01	-1.634970e-04
3.182375e+01	-1.653911e-04
3.200756e+01	-1.673072e-04
3.219244e+01	-1.692455e-04
3.237838e+01	-1.712062e-04
3.256540e+01	-1.731896e-04
3.275349e+01	-1.751960e-04
3.294268e+01	-1.772257e-04
3.313295e+01	-1.792788e-04
3.332433e+01	-1.813558e-04
3.351681e+01	-1.834568e-04
3.371040e+01	-1.855822e-04
3.390511e+01	-1.877321e-04
3.410094e+01	-1.899070e-04
3.429791e+01	-1.921071e-04
3.449601e+01	-1.943327e-04
3.469526e+01	-1.965840e-04
3.489566e+01	-1.988614e-04
3.509721e+01	-2.011652e-04
3.529993e+01	-2.034957e-04
3.550382e+01	-2.058532e-04
3.570889e+01	-2.082380e-04
3.591515e+01	-2.106505e-04
3.612259e+01	-2.130909e-04
3.633123e+01	-2.155595e-04
3.654108e+01	-2.180568e-04
3.675214e+01	-2.205830e-04
3.696442e+01	-2.231384e-04
3.717792e+01	-2.257235e-04
3.739266e+01	-2.283385e-04
3.760864e+01	-2.309838e-04
3.782587e+01	-2.336597e-04
3.804435e+01	-2.363666e-04
3.826409e+01	-2.391049e-04
3.848510e+01	-2.418750e-04
3.870739e+01	-2.446771e-04
3.893096e+01	-2.475116e-04
3.915583e+01	-2.503790e-04
3.938199e+01	-2.532797e-04
3.960946e+01	-2.562139e-04
3.983824e+01	-2.591821e-04
4.006834e+01	-2.621847e-04
4.029978e+01	-2.652221e-04
4.053255e+01	-2.682947e-04
4.076666e+01	-2.714029e-04
4.100213e+01	-2.745470e-04
4.123896e+01	-2.777277e-04
4.147715e+01	-2.809451e-04
4.171672e+01	-2.841998e-04
4.195767e+01	-2.874922e-04
4.220002e+01	-2.908228e-04
4.244377e+01	-2.941920e-04
4.268892e+01	-2.976001e-04
4.293549e+01	-3.010478e-04
4.318348e+01	-3.045354e-04
4.343291e+01	-3.080634e-04
4.368377e+01	-3.116323e-04
4.393609e+01	-3.152425e-04
4.418986e+01	-3.188945e-04
4.444510e+01	-3.225889e-04
4.470182e+01	-3.263260e-04
4.496001e+01	-3.301064e-04
4.521970e+01	-3.339307e-04
4.548089e+01	-3.377992e-04
4.574358e+01	-3.417125e-04
4.600779e+01	-3.456712e-04
4.627353e+01	-3.496758e-04
4.654081e+01	-3.537267e-04
4.680963e+01	-3.578245e-04
4.708000e+01	-3.619699e-04
4.735193e+01	-3.661632e-04
4.762543e+01	-3.704051e-04
4.790051e+01	-3.746962e-04
4.817719e+01	-3.790370e-04
4.845545e+01	-3.834280e-04
4.873533e+01	-3.878699e-04
4.901682e+01	-3.923633e-04
4.929994e+01	-3.969087e-04
4.958470e+01	-4.015068e-04
4.987110e+01	-4.061582e-04
5.015915e+01	-4.108634e-04
5.044887e+01	-4.156231e-04
5.074026e+01	-4.204380e-04
5.103333e+01	-4.253087e-04
5.132810e+01	-4.302358e-04
5.162457e+01	-4.352199e-04
5.192275e+01	-4.402618e-04
5.222265e+01	-4.453621e-04
5.252429e+01	-4.505215e-04
5.282767e+01	-4.557406e-04
5.313280e+01	-4.610202e-04
5.343969e+01	-4.663610e-04
5.374836e+01	-4.717636e-04
5.405880e+01	-4.772288e-04
5.437105e+01	-4.827573e-04
5.468509e+01	-4.883499e-04
5.500095e+01	-4.940072e-04
5.531863e+01	-4.997301e-04
5.563815e+01	-5.055193e-04
5.595951e+01	-5.113755e-04
5.628273e+01	-5.172996e-04
5.660782e+01	-5.232923e-04
5.693479e+01	-5.293544e-04
5.726364e+01	-5.354867e-04
5.759439e+01	-5.416901e-04
5.792705e+01	-5.479654e-04
5.826164e+01	-5.543133e-04
5.859815e+01	-5.607347e-04
5.893662e+01	-5.672306e-04
5.927703e+01	-5.738017e-04
5.961941e+01	-5.804489e-04
5.996377e+01	-5.871731e-04
6.031012e+01	-5.939752e-04
6.065847e+01	-6.008561e-04
6.100883e+01	-6.078167e-04
6.136121e+01	-6.148579e-04
6.171563e+01	-6.219807e-04
6.207210e+01	-6.291860e-04
6.243063e+01	-6.364747e-04
6.279122e+01	-6.438479e-04
6.315390e+01	-6.513065e-04
6.351868e+01	-6.588515e-04
6.388556e+01	-6.664839e-04
6.425456e+01	-6.742047e-04
6.462569e+01	-6.820149e-04
6.499897e+01	-6.899156e-04
6.537440e+01	-6.979078e-04
6.575200e+01	-7.059926e-04
6.613178e+01	-7.141711e-04
6.651375e+01	-7.224443e-04
6.689793e+01	-7.308133e-04
6.728433e+01	-7.392792e-04
6.767297e+01	-7.478432e-04
6.806384e+01	-7.565065e-04
6.845698e+01	-7.652700e-04
6.885238e+01	-7.741351e-04
6.925007e+01	-7.831029e-04
6.965005e+01	-7.921745e-04
7.005235e+01	-8.013512e-04
7.045697e+01	-8.106342e-04
7.086393e+01	-8.200247e-04
7.127323e+01	-8.295240e-04
7.168490e+01	-8.391334e-04
7.209895e+01	-8.488540e-04
7.251539e+01	-8.586872e-04
7.293424e+01	-8.686344e-04
7.335551e+01	-8.786967e-04
7.377920e+01	-8.888756e-04
7.420535e+01	-8.991724e-04
7.463396e+01	-9.095885e-04
7.506504e+01	-9.201252e-04
7.549861e+01	-9.307840e-04
7.593469e+01	-9.415662e-04
7.637328e+01	-9.524733e-04
7.681441e+01	-9.635067e-04
7.725809e+01	-9.746680e-04
7.770433e+01	-9.859585e-04
7.815315e+01	-9.973798e-04
7.860456e+01	-1.008933e-03
7.905857e+01	-1.020621e-03
7.951521e+01	-1.032443e-03
7.997449e+01	-1.044403e-03
8.043642e+01	-1.056501e-03
8.090102e+01	-1.068740e-03
8.136830e+01	-1.081120e-03
8.183828e+01	-1.093643e-03
8.231097e+01	-1.106312e-03
8.278640e+01	-1.119127e-03
8.326457e+01	-1.132091e-03
8.374550e+01	-1.145205e-03
8.422921e+01	-1.158470e-03
8.471572e+01	-1.171890e-03
8.520503e+01	-1.185465e-03
8.569717e+01	-1.199197e-03
8.619215e+01	-1.213088e-03
8.669000e+01	-1.227140e-03
8.719071e+01	-1.241354e-03
8.769432e+01	-1.255734e-03
8.820084e+01	-1.270280e-03
8.871029e+01	-1.284994e-03
8.922267e+01	-1.299879e-03
8.973802e+01	-1.314936e-03
9.025634e+01	-1.330168e-03
9.077766e+01	-1.345575e-03
9.130199e+01	-1.361162e-03
9.182935e+01	-1.376929e-03
9.235975e+01	-1.392878e-03
9.289321e+01	-1.409013e-03
9.342976e+01	-1.425334e-03
9.396941e+01	-1.441844e-03
9.451217e+01	-1.458545e-03
9.505807e+01	-1.475440e-03
9.560712e+01	-1.492530e-03
9.615934e+01	-1.509819e-03
9.671476e+01	-1.527307e-03
9.727338e+01	-1.544998e-03
9.783522e+01	-1.562894e-03
9.840032e+01	-1.580998e-03
9.896867e+01	-1.599311e-03
9.954031e+01	-1.617836e-03
1.001153e+02	-1.636575e-03
1.006935e+02	-1.655532e-03
1.012751e+02	-1.674708e-03
1.018601e+02	-1.694106e-03
1.024484e+02	-1.713729e-03
1.030402e+02	-1.733579e-03
1.036353e+02	-1.753659e-03
1.042339e+02	-1.773971e-03
1.048360e+02	-1.794519e-03
1.054415e+02	-1.815304e-03
1.060505e+02	-1.836331e-03
1.066631e+02	-1.857601e-03
1.072791e+02	-1.879117e-03
1.078988e+02	-1.900882e-03
1.085220e+02	-1.922899e-03
1.091488e+02	-1.945172e-03
1.097793e+02	-1.967702e-03
1.104133e+02	-1.990493e-03
1.110511e+02	-2.013548e-03
1.116925e+02	-2.036870e-03
1.123376e+02	-2.060462e-03
1.129865e+02	-2.084327e-03
1.136391e+02	-2.108469e-03
1.142955e+02	-2.132890e-03
1.149556e+02	-2.157594e-03
1.156196e+02	-2.182584e-03
1.162874e+02	-2.207864e-03
1.169591e+02	-2.233436e-03
1.176347e+02	-2.259304e-03
1.183141e+02	-2.285472e-03
1.189975e+02	-2.311942e-03
1.196848e+02	-2.338720e-03
1.203761e+02	-2.365807e-03
1.210714e+02	-2.393208e-03
1.217707e+02	-2.420926e-03
1.224740e+02	-2.448965e-03
1.231814e+02	-2.477329e-03
1.238929e+02	-2.506021e-03
1.246085e+02	-2.535046e-03
1.253283e+02	-2.564406e-03
1.260522e+02	-2.594107e-03
1.267802e+02	-2.624151e-03
1.275125e+02	-2.654543e-03
1.282490e+02	-2.685287e-03
1.289898e+02	-2.716387e-03
1.297348e+02	-2.747847e-03
1.304842e+02	-2.779672e-03
1.312378e+02	-2.811864e-03
1.319959e+02	-2.844430e-03
1.327583e+02	-2.877372e-03
1.335251e+02	-2.910696e-03
1.342963e+02	-2.944406e-03
1.350720e+02	-2.978506e-03
1.358522e+02	-3.013001e-03
1.366368e+02	-3.047895e-03
1.374260e+02	-3.083193e-03
1.382198e+02	-3.118900e-03
1.390182e+02	-3.155020e-03
1.398211e+02	-3.191558e-03
1.406287e+02	-3.228520e-03
1.414410e+02	-3.265909e-03
1.422579e+02	-3.303731e-03
1.430796e+02	-3.341991e-03
1.439060e+02	-3.380693e-03
1.447372e+02	-3.419844e-03
1.455732e+02	-3.459448e-03
1.464141e+02	-3.499510e-03
1.472597e+02	-3.540037e-03
1.481103e+02	-3.581032e-03
1.489658e+02	-3.622502e-03
1.498262e+02	-3.664452e-03
1.506916e+02	-3.706887e-03
1.515620e+02	-3.749814e-03
1.524374e+02	-3.793237e-03
1.533179e+02	-3.837164e-03
1.542034e+02	-3.881598e-03
1.550941e+02	-3.926547e-03
1.559899e+02	-3.972016e-03
1.568909e+02	-4.018012e-03
1.577971e+02	-4.064540e-03
1.587085e+02	-4.111606e-03
1.596252e+02	-4.159217e-03
1.605472e+02	-4.207380e-03
1.614745e+02	-4.256099e-03
1.624072e+02	-4.305383e-03
1.633453e+02	-4.355237e-03
1.642887e+02	-4.405668e-03
1.652377e+02	-4.456682e-03
1.661921e+02	-4.508287e-03
1.671520e+02	-4.560489e-03
1.681175e+02	-4.613296e-03
1.690885e+02	-4.666713e-03
1.700651e+02	-4.720749e-03
1.710474e+02	-4.775410e-03
1.720354e+02	-4.830703e-03
1.730291e+02	-4.886636e-03
1.740285e+02	-4.943217e-03
1.750337e+02	-5.000452e-03
1.760446e+02	-5.058350e-03
1.770615e+02	-5.116918e-03
1.780842e+02	-5.176163e-03
1.791128e+02	-5.236094e-03
1.801473e+02	-5.296719e-03
1.811878e+02	-5.358045e-03
1.822344e+02	-5.420080e-03
1.832870e+02	-5.482833e-03
1.843456e+02	-5.546313e-03
1.854104e+02	-5.610526e-03
1.864813e+02	-5.675483e-03
1.875584e+02	-5.741192e-03
1.886418e+02	-5.807660e-03
1.897313e+02	-5.874898e-03
1.908272e+02	-5.942913e-03
1.919294e+02	-6.011716e-03
1.930380e+02	-6.081314e-03
1.941530e+02	-6.151718e-03
1.952744e+02	-6.222936e-03
1.964023e+02	-6.294978e-03
1.975367e+02	-6.367853e-03
1.986777e+02	-6.441571e-03
1.998252e+02	-6.516142e-03
2.009794e+02	-6.591576e-03
2.021403e+02	-6.667882e-03
2.033078e+02	-6.745071e-03
2.044821e+02	-6.823153e-03
2.056632e+02	-6.902138e-03
2.068511e+02	-6.982037e-03
2.080459e+02	-7.062859e-03
2.092475e+02	-7.144617e-03
2.104561e+02	-7.227320e-03
2.116717e+02	-7.310980e-03
2.128943e+02	-7.395607e-03
2.141240e+02	-7.481213e-03
2.153608e+02	-7.567809e-03
2.166047e+02	-7.655406e-03
2.178558e+02	-7.744017e-03
2.191141e+02	-7.833652e-03
2.203797e+02	-7.924324e-03
2.216526e+02	-8.016044e-03
2.229329e+02	-8.108825e-03
2.242205e+02	-8.202679e-03
2.255156e+02	-8.297618e-03
2.268182e+02	-8.393655e-03
2.281283e+02	-8.490802e-03
2.294459e+02	-8.589072e-03
2.307712e+02	-8.688479e-03
2.321041e+02	-8.789035e-03
2.334447e+02	-8.890754e-03
2.347931e+02	-8.993648e-03
2.361493e+02	-9.097733e-03
2.375133e+02	-9.203020e-03
2.388851e+02	-9.309525e-03
2.402649e+02	-9.417261e-03
2.416527e+02	-9.526242e-03
2.430484e+02	-9.636483e-03
2.444523e+02	-9.747998e-03
2.458642e+02	-9.860803e-03
2.472843e+02	-9.974911e-03
2.487126e+02	-1.009034e-02
2.501492e+02	-1.020710e-02
2.515940e+02	-1.032521e-02
2.530472e+02	-1.044469e-02
2.545088e+02	-1.056554e-02
2.559789e+02	-1.068780e-02
2.574574e+02	-1.081146e-02
2.589444e+02	-1.093656e-02
2.604401e+02	-1.106310e-02
2.619444e+02	-1.119110e-02
2.634574e+02	-1.132058e-02
2.649791e+02	-1.145156e-02
2.665096e+02	-1.158405e-02
2.680489e+02	-1.171808e-02
2.695972e+02	-1.185365e-02
2.711544e+02	-1.199078e-02
2.727205e+02	-1.212951e-02
2.742958e+02	-1.226983e-02
2.758801e+02	-1.241178e-02
2.774736e+02	-1.255536e-02
2.790762e+02	-1.270060e-02
2.806882e+02	-1.284752e-02
2.823094e+02	-1.299614e-02
2.839400e+02	-1.314648e-02
2.855800e+02	-1.329855e-02
2.872295e+02	-1.345238e-02
2.888886e+02	-1.360798e-02
2.905572e+02	-1.376538e-02
2.922354e+02	-1.392460e-02
2.939234e+02	-1.408566e-02
2.956211e+02	-1.424858e-02
2.973286e+02	-1.441337e-02
2.990459e+02	-1.458008e-02
3.007732e+02	-1.474870e-02
3.025104e+02	-1.491927e-02
3.042577e+02	-1.509182e-02
3.060151e+02	-1.526635e-02
3.077826e+02	-1.544290e-02
3.095604e+02	-1.562149e-02
3.113484e+02	-1.580213e-02
3.131467e+02	-1.598487e-02
3.149554e+02	-1.616971e-02
3.167746e+02	-1.635669e-02
3.186043e+02	-1.654582e-02
3.204445e+02	-1.673714e-02
3.222954e+02	-1.693066e-02
3.241570e+02	-1.712642e-02
3.260293e+02	-1.732444e-02
3.279124e+02	-1.752474e-02
3.298064e+02	-1.772735e-02
3.317114e+02	-1.793230e-02
3.336273e+02	-1.813962e-02
3.355544e+02	-1.834932e-02
3.374925e+02	-1.856145e-02
3.394418e+02	-1.877602e-02
3.414024e+02	-1.899307e-02
3.433744e+02	-1.921262e-02
3.453577e+02	-1.943470e-02
3.473525e+02	-1.965935e-02
3.493588e+02	-1.988658e-02
3.513766e+02	-2.011644e-02
3.534062e+02	-2.034894e-02
3.554474e+02	-2.058413e-02
3.575005e+02	-2.082203e-02
3.595654e+02	-2.106267e-02
3.616422e+02	-2.130609e-02
3.637311e+02	-2.155231e-02
3.658320e+02	-2.180137e-02
3.679450e+02	-2.205330e-02
3.700702e+02	-2.230813e-02
3.722077e+02	-2.256590e-02
3.743576e+02	-2.282665e-02
3.765199e+02	-2.309039e-02
3.786946e+02	-2.335718e-02
3.808820e+02	-2.362704e-02
3.830819e+02	-2.390001e-02
3.852946e+02	-2.417612e-02
3.875200e+02	-2.445542e-02
3.897583e+02	-2.473793e-02
3.920096e+02	-2.502370e-02
3.942738e+02	-2.531276e-02
3.965511e+02	-2.560514e-02
3.988416e+02	-2.590090e-02
4.011452e+02	-2.620006e-02
4.034622e+02	-2.650266e-02
4.057926e+02	-2.680875e-02
4.081365e+02	-2.711836e-02
4.104938e+02	-2.743154e-02
4.128648e+02	-2.774833e-02
4.152495e+02	-2.806875e-02
4.176480e+02	-2.839287e-02
4.200603e+02	-2.872072e-02
4.224866e+02	-2.905234e-02
4.249268e+02	-2.938777e-02
4.273812e+02	-2.972707e-02
4.298497e+02	-3.007027e-02
4.323325e+02	-3.041742e-02
4.348297e+02	-3.076856e-02
4.373412e+02	-3.112374e-02
4.398673e+02	-3.148300e-02
4.424079e+02	-3.184640e-02
4.449633e+02	-3.221398e-02
4.475334e+02	-3.258578e-02
4.501183e+02	-3.296186e-02
4.527182e+02	-3.334226e-02
4.553330e+02	-3.372703e-02
4.579630e+02	-3.411623e-02
4.606082e+02	-3.450990e-02
4.632687e+02	-3.490809e-02
4.659445e+02	-3.531086e-02
4.686358e+02	-3.571826e-02
4.713426e+02	-3.613034e-02
4.740650e+02	-3.654715e-02
4.768032e+02	-3.696875e-02
4.795572e+02	-3.739520e-02
4.823271e+02	-3.782654e-02
4.851130e+02	-3.826283e-02
4.879150e+02	-3.870414e-02
4.907332e+02	-3.915051e-02
4.935676e+02	-3.960200e-02
4.964185e+02	-4.005868e-02
4.992858e+02	-4.052060e-02
5.021696e+02	-4.098782e-02
5.050701e+02	-4.146040e-02
5.079874e+02	-4.193841e-02
5.109215e+02	-4.242189e-02
5.138726e+02	-4.291093e-02
5.168407e+02	-4.340557e-02
5.198259e+02	-4.390589e-02
5.228284e+02	-4.441194e-02
5.258482e+02	-4.492380e-02
5.288855e+02	-4.544152e-02
5.319403e+02	-4.596518e-02
5.350128e+02	-4.649484e-02
5.381030e+02	-4.703057e-02
5.412111e+02	-4.757244e-02
5.443371e+02	-4.812052e-02
5.474812e+02	-4.867488e-02
5.506434e+02	-4.923559e-02
5.538239e+02	-4.980272e-02
5.570228e+02	-5.037634e-02
5.602401e+02	-5.095653e-02
5.634760e+02	-5.154337e-02
5.667306e+02	-5.213692e-02
5.700040e+02	-5.273727e-02
5.732964e+02	-5.334448e-02
5.766077e+02	-5.395865e-02
5.799382e+02	-5.457984e-02
5.832879e+02	-5.520813e-02
5.866569e+02	-5.584361e-02
5.900454e+02	-5.648636e-02
5.934535e+02	-5.713646e-02
5.968813e+02	-5.779399e-02
6.003288e+02	-5.845903e-02
6.037963e+02	-5.913168e-02
6.072838e+02	-5.981201e-02
6.107914e+02	-6.050011e-02
6.143194e+02	-6.119608e-02
6.178676e+02	-6.189999e-02
6.214364e+02	-6.261194e-02
6.250258e+02	-6.333202e-02
6.286359e+02	-6.406033e-02
6.322669e+02	-6.479694e-02
6.359189e+02	-6.554196e-02
6.395919e+02	-6.629548e-02
6.432862e+02	-6.705759e-02
6.470017e+02	-6.782840e-02
6.507388e+02	-6.860800e-02
6.544974e+02	-6.939648e-02
6.582778e+02	-7.019396e-02
6.620800e+02	-7.100052e-02
6.659041e+02	-7.181628e-02
6.697504e+02	-7.264133e-02
6.736188e+02	-7.347577e-02
6.775096e+02	-7.431972e-02
6.814229e+02	-7.517328e-02
6.853587e+02	-7.603656e-02
6.893173e+02	-7.690966e-02
6.932988e+02	-7.779270e-02
6.973033e+02	-7.868578e-02
7.013309e+02	-7.958902e-02
