Frequency(Hz)	Magnitude(dB)
1.000000e+01	-2.211304e+00
1.005776e+01	-2.231117e+00
1.011585e+01	-2.251097e+00
1.017428e+01	-2.271751e+00
1.023305e+01	-2.292309e+00
1.029215e+01	-2.312800e+00
1.035160e+01	-2.333509e+00
1.041139e+01	-2.354215e+00
1.047153e+01	-2.375241e+00
1.053201e+01	-2.396597e+00
1.059284e+01	-2.417706e+00
1.065403e+01	-2.439170e+00
1.071556e+01	-2.460748e+00
1.077746e+01	-2.482495e+00
1.083971e+01	-2.504414e+00
1.090232e+01	-2.526500e+00
1.096529e+01	-2.548410e+00
1.102862e+01	-2.570711e+00
1.109232e+01	-2.593094e+00
1.115639e+01	-2.615773e+00
1.122083e+01	-2.638279e+00
1.128564e+01	-2.661244e+00
1.135083e+01	-2.684208e+00
1.141639e+01	-2.707318e+00
1.148233e+01	-2.730739e+00
1.154865e+01	-2.754087e+00
1.161536e+01	-2.777593e+00
1.168245e+01	-2.800957e+00
1.174992e+01	-2.825355e+00
1.181779e+01	-2.849080e+00
1.188605e+01	-2.873446e+00
1.195470e+01	-2.897784e+00
1.202375e+01	-2.921985e+00
1.209320e+01	-2.946572e+00
1.216305e+01	-2.971540e+00
1.223330e+01	-2.996361e+00
1.230396e+01	-3.021233e+00
1.237503e+01	-3.046256e+00
1.244651e+01	-3.071556e+00
1.251840e+01	-3.097036e+00
1.259070e+01	-3.122788e+00
1.266343e+01	-3.148540e+00
1.273657e+01	-3.174231e+00
1.281014e+01	-3.200354e+00
1.288413e+01	-3.226478e+00
1.295855e+01	-3.252628e+00
1.303339e+01	-3.279181e+00
1.310867e+01	-3.305815e+00
1.318439e+01	-3.332727e+00
1.326054e+01	-3.359176e+00
1.333713e+01	-3.386262e+00
1.341417e+01	-3.413438e+00
1.349165e+01	-3.440790e+00
1.356958e+01	-3.468200e+00
1.364795e+01	-3.495754e+00
1.372678e+01	-3.523545e+00
1.380607e+01	-3.551537e+00
1.388581e+01	-3.579571e+00
1.396602e+01	-3.607377e+00
1.404668e+01	-3.635868e+00
1.412782e+01	-3.664366e+00
1.420942e+01	-3.692833e+00
1.429149e+01	-3.721467e+00
1.437404e+01	-3.750308e+00
1.445706e+01	-3.779524e+00
1.454057e+01	-3.808540e+00
1.462455e+01	-3.837889e+00
1.470902e+01	-3.867086e+00
1.479398e+01	-3.896850e+00
1.487943e+01	-3.926528e+00
1.496537e+01	-3.956415e+00
1.505181e+01	-3.986479e+00
1.513875e+01	-4.016672e+00
1.522619e+01	-4.046778e+00
1.531414e+01	-4.076981e+00
1.540259e+01	-4.107870e+00
1.549156e+01	-4.138583e+00
1.558103e+01	-4.169238e+00
1.567103e+01	-4.200085e+00
1.576155e+01	-4.231211e+00
1.585258e+01	-4.262177e+00
1.594415e+01	-4.293762e+00
1.603624e+01	-4.325167e+00
1.612886e+01	-4.356967e+00
1.622202e+01	-4.388471e+00
1.631572e+01	-4.420273e+00
1.640996e+01	-4.452585e+00
1.650474e+01	-4.484747e+00
1.660008e+01	-4.516864e+00
1.669596e+01	-4.549208e+00
1.679239e+01	-4.581881e+00
1.688938e+01	-4.614490e+00
1.698694e+01	-4.647412e+00
1.708505e+01	-4.680340e+00
1.718373e+01	-4.713149e+00
1.728299e+01	-4.746347e+00
1.738281e+01	-4.780087e+00
1.748322e+01	-4.813337e+00
1.758420e+01	-4.846470e+00
1.768576e+01	-4.880521e+00
1.778792e+01	-4.914413e+00
1.789066e+01	-4.948217e+00
1.799399e+01	-4.982683e+00
1.809793e+01	-5.016593e+00
1.820246e+01	-5.051138e+00
1.830760e+01	-5.085411e+00
1.841334e+01	-5.119958e+00
1.851969e+01	-5.154829e+00
1.862666e+01	-5.189125e+00
1.873425e+01	-5.224555e+00
1.884246e+01	-5.259367e+00
1.895129e+01	-5.294584e+00
1.906075e+01	-5.330093e+00
1.917085e+01	-5.365272e+00
1.928158e+01	-5.401131e+00
1.939295e+01	-5.436484e+00
1.950496e+01	-5.472540e+00
1.961762e+01	-5.508136e+00
1.973093e+01	-5.544337e+00
1.984490e+01	-5.580444e+00
1.995952e+01	-5.616603e+00
2.007480e+01	-5.653159e+00
2.019076e+01	-5.689441e+00
2.030738e+01	-5.726133e+00
2.042467e+01	-5.762782e+00
2.054264e+01	-5.799517e+00
2.066130e+01	-5.836562e+00
2.078064e+01	-5.873620e+00
2.090066e+01	-5.910861e+00
2.102139e+01	-5.948106e+00
2.114280e+01	-5.985406e+00
2.126492e+01	-6.022618e+00
2.138775e+01	-6.060019e+00
2.151128e+01	-6.098431e+00
2.163553e+01	-6.135756e+00
2.176050e+01	-6.173551e+00
2.188619e+01	-6.211764e+00
2.201260e+01	-6.249944e+00
2.213974e+01	-6.288081e+00
2.226762e+01	-6.326294e+00
2.239624e+01	-6.364741e+00
2.252560e+01	-6.403333e+00
2.265571e+01	-6.441927e+00
2.278656e+01	-6.480706e+00
2.291818e+01	-6.519476e+00
2.305055e+01	-6.558300e+00
2.318369e+01	-6.597630e+00
2.331760e+01	-6.636484e+00
2.345228e+01	-6.675800e+00
2.358774e+01	-6.714923e+00
2.372398e+01	-6.754664e+00
2.386101e+01	-6.793647e+00
2.399883e+01	-6.833865e+00
2.413745e+01	-6.873035e+00
2.427686e+01	-6.913111e+00
2.441709e+01	-6.953192e+00
2.455812e+01	-6.993367e+00
2.469997e+01	-7.033116e+00
2.484263e+01	-7.073534e+00
2.498612e+01	-7.113248e+00
2.513044e+01	-7.153818e+00
2.527559e+01	-7.194620e+00
2.542158e+01	-7.234469e+00
2.556842e+01	-7.275572e+00
2.571610e+01	-7.316164e+00
2.586463e+01	-7.356784e+00
2.601403e+01	-7.397615e+00
2.616428e+01	-7.438259e+00
2.631541e+01	-7.480273e+00
2.646740e+01	-7.521034e+00
2.662028e+01	-7.562468e+00
2.677404e+01	-7.603445e+00
2.692868e+01	-7.645157e+00
2.708422e+01	-7.686660e+00
2.724066e+01	-7.727790e+00
2.739800e+01	-7.769346e+00
2.755625e+01	-7.811286e+00
2.771541e+01	-7.852772e+00
2.787550e+01	-7.894681e+00
2.803650e+01	-7.936849e+00
2.819844e+01	-7.978863e+00
2.836131e+01	-8.021119e+00
2.852513e+01	-8.062928e+00
2.868989e+01	-8.105410e+00
2.885560e+01	-8.147747e+00
2.902227e+01	-8.190180e+00
2.918990e+01	-8.232662e+00
2.935850e+01	-8.275123e+00
2.952807e+01	-8.317691e+00
2.969863e+01	-8.360404e+00
2.987016e+01	-8.403109e+00
3.004269e+01	-8.446030e+00
3.021622e+01	-8.488649e+00
3.039075e+01	-8.531558e+00
3.056628e+01	-8.575075e+00
3.074283e+01	-8.617777e+00
3.092040e+01	-8.660890e+00
3.109900e+01	-8.704434e+00
3.127862e+01	-8.747942e+00
3.145929e+01	-8.790804e+00
3.164099e+01	-8.834712e+00
3.182375e+01	-8.878248e+00
3.200756e+01	-8.921388e+00
3.219244e+01	-8.965183e+00
3.237838e+01	-9.009302e+00
3.256540e+01	-9.053184e+00
3.275349e+01	-9.096276e+00
3.294268e+01	-9.140690e+00
3.313295e+01	-9.184495e+00
3.332433e+01	-9.228176e+00
3.351681e+01	-9.272668e+00
3.371040e+01	-9.316670e+00
3.390511e+01	-9.360858e+00
3.410094e+01	-9.405112e+00
3.429791e+01	-9.449760e+00
3.449601e+01	-9.493957e+00
3.469526e+01	-9.538670e+00
3.489566e+01	-9.582974e+00
3.509721e+01	-9.627117e+00
3.529993e+01	-9.671796e+00
3.550382e+01	-9.716519e+00
3.570889e+01	-9.761509e+00
3.591515e+01	-9.806424e+00
3.612259e+01	-9.850820e+00
3.633123e+01	-9.895445e+00
3.654108e+01	-9.941117e+00
3.675214e+01	-9.985746e+00
3.696442e+01	-1.003085e+01
3.717792e+01	-1.007584e+01
3.739266e+01	-1.012072e+01
3.760864e+01	-1.016642e+01
3.782587e+01	-1.021144e+01
3.804435e+01	-1.025719e+01
3.826409e+01	-1.030161e+01
3.848510e+01	-1.034708e+01
3.870739e+01	-1.039324e+01
3.893096e+01	-1.043847e+01
3.915583e+01	-1.048373e+01
3.938199e+01	-1.052942e+01
3.960946e+01	-1.057572e+01
3.983824e+01	-1.062047e+01
4.006834e+01	-1.066622e+01
4.029978e+01	-1.071231e+01
4.053255e+01	-1.075782e+01
4.076666e+01	-1.080372e+01
4.100213e+01	-1.084974e+01
4.123896e+01	-1.089582e+01
4.147715e+01	-1.094146e+01
4.171672e+01	-1.098750e+01
4.195767e+01	-1.103397e+01
4.220002e+01	-1.107968e+01
4.244377e+01	-1.112647e+01
4.268892e+01	-1.117179e+01
4.293549e+01	-1.121867e+01
4.318348e+01	-1.126421e+01
4.343291e+01	-1.131066e+01
4.368377e+01	-1.135689e+01
4.393609e+01	-1.140394e+01
4.418986e+01	-1.145011e+01
4.444510e+01	-1.149661e+01
4.470182e+01	-1.154291e+01
4.496001e+01	-1.159033e+01
4.521970e+01	-1.163706e+01
4.548089e+01	-1.168270e+01
4.574358e+01	-1.172922e+01
4.600779e+01	-1.177646e+01
4.627353e+01	-1.182300e+01
4.654081e+01	-1.186962e+01
4.680963e+01	-1.191638e+01
4.708000e+01	-1.196308e+01
4.735193e+01	-1.200997e+01
4.762543e+01	-1.205697e+01
4.790051e+01	-1.210373e+01
4.817719e+01	-1.215129e+01
4.845545e+01	-1.219775e+01
4.873533e+01	-1.224482e+01
4.901682e+01	-1.229186e+01
4.929994e+01	-1.233865e+01
4.958470e+01	-1.238595e+01
4.987110e+01	-1.243335e+01
5.015915e+01	-1.248029e+01
5.044887e+01	-1.252740e+01
5.074026e+01	-1.257496e+01
5.103333e+01	-1.262213e+01
5.132810e+01	-1.266976e+01
5.162457e+01	-1.271671e+01
5.192275e+01	-1.276436e+01
5.222265e+01	-1.281172e+01
5.252429e+01	-1.285922e+01
5.282767e+01	-1.290591e+01
5.313280e+01	-1.295364e+01
5.343969e+01	-1.300160e+01
5.374836e+01	-1.304884e+01
5.405880e+01	-1.309618e+01
5.437105e+01	-1.314439e+01
5.468509e+01	-1.319222e+01
5.500095e+01	-1.323952e+01
5.531863e+01	-1.328699e+01
5.563815e+01	-1.333475e+01
5.595951e+01	-1.338294e+01
5.628273e+01	-1.343066e+01
5.660782e+01	-1.347846e+01
5.693479e+01	-1.352538e+01
5.726364e+01	-1.357353e+01
5.759439e+01	-1.362171e+01
5.792705e+01	-1.366941e+01
5.826164e+01	-1.371795e+01
5.859815e+01	-1.376532e+01
5.893662e+01	-1.381333e+01
5.927703e+01	-1.386138e+01
5.961941e+01	-1.390892e+01
5.996377e+01	-1.395736e+01
6.031012e+01	-1.400439e+01
6.065847e+01	-1.405332e+01
6.100883e+01	-1.410137e+01
6.136121e+01	-1.414931e+01
6.171563e+01	-1.419798e+01
6.207210e+01	-1.424576e+01
6.243063e+01	-1.429403e+01
6.279122e+01	-1.434143e+01
6.315390e+01	-1.439022e+01
6.351868e+01	-1.443801e+01
6.388556e+01	-1.448710e+01
6.425456e+01	-1.453472e+01
6.462569e+01	-1.458219e+01
6.499897e+01	-1.463194e+01
6.537440e+01	-1.467908e+01
6.575200e+01	-1.472885e+01
6.613178e+01	-1.477636e+01
6.651375e+01	-1.482453e+01
6.689793e+01	-1.487305e+01
6.728433e+01	-1.492260e+01
6.767297e+01	-1.497010e+01
6.806384e+01	-1.501838e+01
6.845698e+01	-1.506663e+01
6.885238e+01	-1.511517e+01
6.925007e+01	-1.516372e+01
6.965005e+01	-1.521242e+01
7.005235e+01	-1.526056e+01
7.045697e+01	-1.530971e+01
7.086393e+01	-1.535775e+01
7.127323e+01	-1.540748e+01
7.168490e+01	-1.545492e+01
7.209895e+01	-1.550340e+01
7.251539e+01	-1.555132e+01
7.293424e+01	-1.560077e+01
7.335551e+01	-1.565024e+01
7.377920e+01	-1.569787e+01
7.420535e+01	-1.574714e+01
7.463396e+01	-1.579547e+01
7.506504e+01	-1.584423e+01
7.549861e+01	-1.589374e+01
7.593469e+01	-1.594173e+01
7.637328e+01	-1.599083e+01
7.681441e+01	-1.603934e+01
7.725809e+01	-1.608879e+01
7.770433e+01	-1.613741e+01
7.815315e+01	-1.618642e+01
7.860456e+01	-1.623325e+01
7.905857e+01	-1.628382e+01
7.951521e+01	-1.633299e+01
7.997449e+01	-1.638249e+01
8.043642e+01	-1.642998e+01
8.090102e+01	-1.648053e+01
8.136830e+01	-1.652693e+01
8.183828e+01	-1.657719e+01
8.231097e+01	-1.662636e+01
8.278640e+01	-1.667579e+01
8.326457e+01	-1.672447e+01
8.374550e+01	-1.677295e+01
8.422921e+01	-1.682140e+01
8.471572e+01	-1.687106e+01
8.520503e+01	-1.691990e+01
8.569717e+01	-1.696891e+01
8.619215e+01	-1.701783e+01
8.669000e+01	-1.706722e+01
8.719071e+01	-1.711611e+01
8.769432e+01	-1.716585e+01
8.820084e+01	-1.721467e+01
8.871029e+01	-1.726292e+01
8.922267e+01	-1.731306e+01
8.973802e+01	-1.736015e+01
9.025634e+01	-1.741036e+01
9.077766e+01	-1.746019e+01
9.130199e+01	-1.750815e+01
9.182935e+01	-1.755783e+01
9.235975e+01	-1.760797e+01
9.289321e+01	-1.765569e+01
9.342976e+01	-1.770611e+01
9.396941e+01	-1.775352e+01
9.451217e+01	-1.780395e+01
9.505807e+01	-1.785257e+01
9.560712e+01	-1.790111e+01
9.615934e+01	-1.795156e+01
9.671476e+01	-1.800019e+01
9.727338e+01	-1.804935e+01
9.783522e+01	-1.809917e+01
9.840032e+01	-1.814751e+01
9.896867e+01	-1.819698e+01
9.954031e+01	-1.824770e+01
1.001153e+02	-1.829673e+01
1.006935e+02	-1.834476e+01
1.012751e+02	-1.839473e+01
1.018601e+02	-1.844472e+01
1.024484e+02	-1.849390e+01
1.030402e+02	-1.854458e+01
1.036353e+02	-1.859309e+01
1.042339e+02	-1.864206e+01
1.048360e+02	-1.868930e+01
1.054415e+02	-1.873955e+01
1.060505e+02	-1.878868e+01
1.066631e+02	-1.883861e+01
1.072791e+02	-1.888879e+01
1.078988e+02	-1.893828e+01
1.085220e+02	-1.898655e+01
1.091488e+02	-1.903598e+01
1.097793e+02	-1.908509e+01
1.104133e+02	-1.913452e+01
1.110511e+02	-1.918481e+01
1.116925e+02	-1.923362e+01
1.123376e+02	-1.928310e+01
1.129865e+02	-1.933312e+01
1.136391e+02	-1.938202e+01
1.142955e+02	-1.943193e+01
1.149556e+02	-1.948131e+01
1.156196e+02	-1.953084e+01
1.162874e+02	-1.958051e+01
1.169591e+02	-1.963058e+01
1.176347e+02	-1.967909e+01
1.183141e+02	-1.972846e+01
1.189975e+02	-1.977857e+01
1.196848e+02	-1.982847e+01
1.203761e+02	-1.987772e+01
1.210714e+02	-1.992786e+01
1.217707e+02	-1.997555e+01
1.224740e+02	-2.002698e+01
1.231814e+02	-2.007716e+01
1.238929e+02	-2.012459e+01
1.246085e+02	-2.017500e+01
1.253283e+02	-2.022422e+01
1.260522e+02	-2.027455e+01
1.267802e+02	-2.032390e+01
1.275125e+02	-2.037257e+01
1.282490e+02	-2.042193e+01
1.289898e+02	-2.047110e+01
1.297348e+02	-2.052192e+01
1.304842e+02	-2.057025e+01
1.312378e+02	-2.062145e+01
1.319959e+02	-2.067080e+01
1.327583e+02	-2.072044e+01
1.335251e+02	-2.077239e+01
1.342963e+02	-2.082037e+01
1.350720e+02	-2.086818e+01
1.358522e+02	-2.091912e+01
1.366368e+02	-2.096975e+01
1.374260e+02	-2.101907e+01
1.382198e+02	-2.106769e+01
1.390182e+02	-2.111796e+01
1.398211e+02	-2.116547e+01
1.406287e+02	-2.121634e+01
1.414410e+02	-2.126695e+01
1.422579e+02	-2.131811e+01
1.430796e+02	-2.136640e+01
1.439060e+02	-2.141581e+01
1.447372e+02	-2.146243e+01
1.455732e+02	-2.151397e+01
1.464141e+02	-2.156456e+01
1.472597e+02	-2.161255e+01
1.481103e+02	-2.166353e+01
1.489658e+02	-2.171380e+01
1.498262e+02	-2.176310e+01
1.506916e+02	-2.181289e+01
1.515620e+02	-2.186100e+01
1.524374e+02	-2.191187e+01
1.533179e+02	-2.196175e+01
1.542034e+02	-2.201145e+01
1.550941e+02	-2.206216e+01
1.559899e+02	-2.211163e+01
1.568909e+02	-2.216046e+01
1.577971e+02	-2.221146e+01
1.587085e+02	-2.226053e+01
1.596252e+02	-2.231094e+01
1.605472e+02	-2.236027e+01
1.614745e+02	-2.240952e+01
1.624072e+02	-2.245851e+01
1.633453e+02	-2.251163e+01
1.642887e+02	-2.256060e+01
1.652377e+02	-2.260859e+01
1.661921e+02	-2.265893e+01
1.671520e+02	-2.270706e+01
1.681175e+02	-2.275794e+01
1.690885e+02	-2.280995e+01
1.700651e+02	-2.285726e+01
1.710474e+02	-2.290767e+01
1.720354e+02	-2.295678e+01
1.730291e+02	-2.300608e+01
1.740285e+02	-2.305746e+01
1.750337e+02	-2.310613e+01
1.760446e+02	-2.315429e+01
1.770615e+02	-2.320670e+01
1.780842e+02	-2.325666e+01
1.791128e+02	-2.330742e+01
1.801473e+02	-2.335732e+01
1.811878e+02	-2.340530e+01
1.822344e+02	-2.345682e+01
1.832870e+02	-2.350613e+01
1.843456e+02	-2.355276e+01
1.854104e+02	-2.360476e+01
1.864813e+02	-2.365725e+01
1.875584e+02	-2.370524e+01
1.886418e+02	-2.375536e+01
1.897313e+02	-2.380485e+01
1.908272e+02	-2.385402e+01
1.919294e+02	-2.390389e+01
1.930380e+02	-2.395443e+01
1.941530e+02	-2.400464e+01
1.952744e+02	-2.405305e+01
1.964023e+02	-2.410198e+01
1.975367e+02	-2.415351e+01
1.986777e+02	-2.420314e+01
1.998252e+02	-2.425268e+01
2.009794e+02	-2.429952e+01
2.021403e+02	-2.435349e+01
2.033078e+02	-2.440124e+01
2.044821e+02	-2.445132e+01
2.056632e+02	-2.450056e+01
2.068511e+02	-2.455474e+01
2.080459e+02	-2.460247e+01
2.092475e+02	-2.465158e+01
2.104561e+02	-2.470057e+01
2.116717e+02	-2.475056e+01
2.128943e+02	-2.480042e+01
2.141240e+02	-2.485012e+01
2.153608e+02	-2.490120e+01
2.166047e+02	-2.495007e+01
2.178558e+02	-2.500231e+01
2.191141e+02	-2.505368e+01
2.203797e+02	-2.509907e+01
2.216526e+02	-2.515191e+01
2.229329e+02	-2.520040e+01
2.242205e+02	-2.525174e+01
2.255156e+02	-2.530162e+01
2.268182e+02	-2.535090e+01
2.281283e+02	-2.540199e+01
2.294459e+02	-2.545005e+01
2.307712e+02	-2.550043e+01
2.321041e+02	-2.554787e+01
2.334447e+02	-2.559654e+01
2.347931e+02	-2.564994e+01
2.361493e+02	-2.569929e+01
2.375133e+02	-2.575079e+01
2.388851e+02	-2.580015e+01
2.402649e+02	-2.585219e+01
2.416527e+02	-2.589975e+01
2.430484e+02	-2.594780e+01
2.444523e+02	-2.599809e+01
2.458642e+02	-2.604877e+01
2.472843e+02	-2.610244e+01
2.487126e+02	-2.614812e+01
2.501492e+02	-2.619885e+01
2.515940e+02	-2.624681e+01
2.530472e+02	-2.629434e+01
2.545088e+02	-2.635225e+01
2.559789e+02	-2.640064e+01
2.574574e+02	-2.644732e+01
2.589444e+02	-2.650298e+01
2.604401e+02	-2.654817e+01
2.619444e+02	-2.660074e+01
2.634574e+02	-2.664944e+01
2.649791e+02	-2.670130e+01
2.665096e+02	-2.675163e+01
2.680489e+02	-2.679908e+01
2.695972e+02	-2.685060e+01
2.711544e+02	-2.690004e+01
2.727205e+02	-2.694943e+01
2.742958e+02	-2.700054e+01
2.758801e+02	-2.704807e+01
2.774736e+02	-2.710042e+01
2.790762e+02	-2.714777e+01
2.806882e+02	-2.719986e+01
2.823094e+02	-2.724798e+01
2.839400e+02	-2.729979e+01
2.855800e+02	-2.735053e+01
2.872295e+02	-2.739720e+01
2.888886e+02	-2.745145e+01
2.905572e+02	-2.750033e+01
2.922354e+02	-2.754555e+01
2.939234e+02	-2.760124e+01
2.956211e+02	-2.765040e+01
2.973286e+02	-2.769915e+01
2.990459e+02	-2.774758e+01
3.007732e+02	-2.779623e+01
3.025104e+02	-2.784783e+01
3.042577e+02	-2.789932e+01
3.060151e+02	-2.794785e+01
3.077826e+02	-2.799684e+01
3.095604e+02	-2.804717e+01
3.113484e+02	-2.810461e+01
3.131467e+02	-2.814788e+01
3.149554e+02	-2.820273e+01
3.167746e+02	-2.825201e+01
3.186043e+02	-2.829810e+01
3.204445e+02	-2.834502e+01
3.222954e+02	-2.840384e+01
3.241570e+02	-2.844941e+01
3.260293e+02	-2.849775e+01
3.279124e+02	-2.854957e+01
3.298064e+02	-2.859924e+01
3.317114e+02	-2.865039e+01
3.336273e+02	-2.869344e+01
3.355544e+02	-2.875053e+01
3.374925e+02	-2.879983e+01
3.394418e+02	-2.885193e+01
3.414024e+02	-2.889826e+01
3.433744e+02	-2.895155e+01
3.453577e+02	-2.900003e+01
3.473525e+02	-2.905073e+01
3.493588e+02	-2.910074e+01
3.513766e+02	-2.914629e+01
3.534062e+02	-2.920295e+01
3.554474e+02	-2.924758e+01
3.575005e+02	-2.930199e+01
3.595654e+02	-2.935235e+01
3.616422e+02	-2.940048e+01
3.637311e+02	-2.944792e+01
3.658320e+02	-2.949938e+01
3.679450e+02	-2.955151e+01
3.700702e+02	-2.960131e+01
3.722077e+02	-2.965036e+01
3.743576e+02	-2.970786e+01
3.765199e+02	-2.975339e+01
3.786946e+02	-2.980283e+01
3.808820e+02	-2.985484e+01
3.830819e+02	-2.989465e+01
3.852946e+02	-2.994611e+01
3.875200e+02	-3.000719e+01
3.897583e+02	-3.004827e+01
3.920096e+02	-3.010095e+01
3.942738e+02	-3.014842e+01
3.965511e+02	-3.020236e+01
3.988416e+02	-3.025574e+01
4.011452e+02	-3.030050e+01
4.034622e+02	-3.035375e+01
4.057926e+02	-3.039901e+01
4.081365e+02	-3.045534e+01
4.104938e+02	-3.050462e+01
4.128648e+02	-3.055339e+01
4.152495e+02	-3.059518e+01
4.176480e+02	-3.065226e+01
4.200603e+02	-3.069644e+01
4.224866e+02	-3.075453e+01
4.249268e+02	-3.080310e+01
4.273812e+02	-3.085373e+01
4.298497e+02	-3.090136e+01
4.323325e+02	-3.095485e+01
4.348297e+02	-3.100399e+01
4.373412e+02	-3.105255e+01
4.398673e+02	-3.110685e+01
4.424079e+02	-3.115000e+01
4.449633e+02	-3.120525e+01
4.475334e+02	-3.125408e+01
4.501183e+02	-3.130264e+01
4.527182e+02	-3.135029e+01
4.553330e+02	-3.140531e+01
4.579630e+02	-3.145058e+01
4.606082e+02	-3.150623e+01
4.632687e+02	-3.155367e+01
4.659445e+02	-3.160587e+01
4.686358e+02	-3.165390e+01
4.713426e+02	-3.170746e+01
4.740650e+02	-3.175027e+01
4.768032e+02	-3.180163e+01
4.795572e+02	-3.185664e+01
4.823271e+02	-3.190501e+01
4.851130e+02	-3.194705e+01
4.879150e+02	-3.200458e+01
4.907332e+02	-3.206180e+01
4.935676e+02	-3.210617e+01
4.964185e+02	-3.215665e+01
4.992858e+02	-3.220690e+01
5.021696e+02	-3.225720e+01
5.050701e+02	-3.231403e+01
5.079874e+02	-3.235816e+01
5.109215e+02	-3.240549e+01
5.138726e+02	-3.245411e+01
5.168407e+02	-3.250850e+01
5.198259e+02	-3.256022e+01
5.228284e+02	-3.260867e+01
5.258482e+02	-3.266046e+01
5.288855e+02	-3.271223e+01
5.319403e+02	-3.275647e+01
5.350128e+02	-3.281768e+01
5.381030e+02	-3.286378e+01
5.412111e+02	-3.291816e+01
5.443371e+02	-3.296276e+01
5.474812e+02	-3.300107e+01
5.506434e+02	-3.305858e+01
5.538239e+02	-3.311058e+01
5.570228e+02	-3.316243e+01
5.602401e+02	-3.320731e+01
5.634760e+02	-3.326693e+01
5.667306e+02	-3.331090e+01
5.700040e+02	-3.336048e+01
5.732964e+02	-3.341567e+01
5.766077e+02	-3.346496e+01
5.799382e+02	-3.351458e+01
5.832879e+02	-3.356867e+01
5.866569e+02	-3.360707e+01
5.900454e+02	-3.366383e+01
5.934535e+02	-3.371664e+01
5.968813e+02	-3.376832e+01
6.003288e+02	-3.381156e+01
6.037963e+02	-3.386128e+01
6.072838e+02	-3.392397e+01
6.107914e+02	-3.395779e+01
6.143194e+02	-3.401561e+01
6.178676e+02	-3.407143e+01
6.214364e+02	-3.411533e+01
6.250258e+02	-3.416917e+01
6.286359e+02	-3.422144e+01
6.322669e+02	-3.426681e+01
6.359189e+02	-3.431661e+01
6.395919e+02	-3.436204e+01
6.432862e+02	-3.441640e+01
6.470017e+02	-3.446895e+01
6.507388e+02	-3.452666e+01
6.544974e+02	-3.456538e+01
6.582778e+02	-3.461672e+01
6.620800e+02	-3.466255e+01
6.659041e+02	-3.472820e+01
6.697504e+02	-3.476593e+01
6.736188e+02	-3.481224e+01
6.775096e+02	-3.486654e+01
6.814229e+02	-3.491687e+01
6.853587e+02	-3.497452e+01
6.893173e+02	-3.501917e+01
6.932988e+02	-3.507613e+01
6.973033e+02	-3.511593e+01
7.013309e+02	-3.516981e+01
