Frequency(Hz)	Magnitude(dB)
1.000000e+01	-1.604125e-05
1.005776e+01	-1.622709e-05
1.011585e+01	-1.641509e-05
1.017428e+01	-1.660526e-05
1.023305e+01	-1.679764e-05
1.029215e+01	-1.699224e-05
1.035160e+01	-1.718910e-05
1.041139e+01	-1.738824e-05
1.047153e+01	-1.758969e-05
1.053201e+01	-1.779347e-05
1.059284e+01	-1.799961e-05
1.065403e+01	-1.820814e-05
1.071556e+01	-1.841909e-05
1.077746e+01	-1.863248e-05
1.083971e+01	-1.884834e-05
1.090232e+01	-1.906670e-05
1.096529e+01	-1.928760e-05
1.102862e+01	-1.951105e-05
1.109232e+01	-1.973709e-05
1.115639e+01	-1.996575e-05
1.122083e+01	-2.019706e-05
1.128564e+01	-2.043104e-05
1.135083e+01	-2.066774e-05
1.141639e+01	-2.090718e-05
1.148233e+01	-2.114940e-05
1.154865e+01	-2.139442e-05
1.161536e+01	-2.164228e-05
1.168245e+01	-2.189301e-05
1.174992e+01	-2.214665e-05
1.181779e+01	-2.240322e-05
1.188605e+01	-2.266277e-05
1.195470e+01	-2.292532e-05
1.202375e+01	-2.319092e-05
1.209320e+01	-2.345959e-05
1.216305e+01	-2.373137e-05
1.223330e+01	-2.400631e-05
1.230396e+01	-2.428443e-05
1.237503e+01	-2.456577e-05
1.244651e+01	-2.485037e-05
1.251840e+01	-2.513827e-05
1.259070e+01	-2.542950e-05
1.266343e+01	-2.572411e-05
1.273657e+01	-2.602213e-05
1.281014e+01	-2.632360e-05
1.288413e+01	-2.662856e-05
1.295855e+01	-2.693706e-05
1.303339e+01	-2.724914e-05
1.310867e+01	-2.756482e-05
1.318439e+01	-2.788417e-05
1.326054e+01	-2.820721e-05
1.333713e+01	-2.853400e-05
1.341417e+01	-2.886457e-05
1.349165e+01	-2.919898e-05
1.356958e+01	-2.953725e-05
1.364795e+01	-2.987945e-05
1.372678e+01	-3.022561e-05
1.380607e+01	-3.057578e-05
1.388581e+01	-3.093001e-05
1.396602e+01	-3.128834e-05
1.404668e+01	-3.165082e-05
1.412782e+01	-3.201751e-05
1.420942e+01	-3.238844e-05
1.429149e+01	-3.276367e-05
1.437404e+01	-3.314324e-05
1.445706e+01	-3.352721e-05
1.454057e+01	-3.391563e-05
1.462455e+01	-3.430855e-05
1.470902e+01	-3.470603e-05
1.479398e+01	-3.510810e-05
1.487943e+01	-3.551484e-05
1.496537e+01	-3.592629e-05
1.505181e+01	-3.634250e-05
1.513875e+01	-3.676354e-05
1.522619e+01	-3.718945e-05
1.531414e+01	-3.762030e-05
1.540259e+01	-3.805614e-05
1.549156e+01	-3.849703e-05
1.558103e+01	-3.894303e-05
1.567103e+01	-3.939419e-05
1.576155e+01	-3.985058e-05
1.585258e+01	-4.031226e-05
1.594415e+01	-4.077928e-05
1.603624e+01	-4.125172e-05
1.612886e+01	-4.172963e-05
1.622202e+01	-4.221308e-05
1.631572e+01	-4.270213e-05
1.640996e+01	-4.319684e-05
1.650474e+01	-4.369729e-05
1.660008e+01	-4.420353e-05
1.669596e+01	-4.471564e-05
1.679239e+01	-4.523368e-05
1.688938e+01	-4.575772e-05
1.698694e+01	-4.628783e-05
1.708505e+01	-4.682409e-05
1.718373e+01	-4.736655e-05
1.728299e+01	-4.791531e-05
1.738281e+01	-4.847041e-05
1.748322e+01	-4.903195e-05
1.758420e+01	-4.960000e-05
1.768576e+01	-5.017463e-05
1.778792e+01	-5.075591e-05
1.789066e+01	-5.134393e-05
1.799399e+01	-5.193876e-05
1.809793e+01	-5.254048e-05
1.820246e+01	-5.314917e-05
1.830760e+01	-5.376492e-05
1.841334e+01	-5.438779e-05
1.851969e+01	-5.501789e-05
1.862666e+01	-5.565528e-05
1.873425e+01	-5.630006e-05
1.884246e+01	-5.695231e-05
1.895129e+01	-5.761211e-05
1.906075e+01	-5.827956e-05
1.917085e+01	-5.895474e-05
1.928158e+01	-5.963774e-05
1.939295e+01	-6.032866e-05
1.950496e+01	-6.102758e-05
1.961762e+01	-6.173459e-05
1.973093e+01	-6.244980e-05
1.984490e+01	-6.317329e-05
1.995952e+01	-6.390517e-05
2.007480e+01	-6.464552e-05
2.019076e+01	-6.539445e-05
2.030738e+01	-6.615206e-05
2.042467e+01	-6.691844e-05
2.054264e+01	-6.769371e-05
2.066130e+01	-6.847795e-05
2.078064e+01	-6.927128e-05
2.090066e+01	-7.007380e-05
2.102139e+01	-7.088562e-05
2.114280e+01	-7.170684e-05
2.126492e+01	-7.253758e-05
2.138775e+01	-7.337794e-05
2.151128e+01	-7.422804e-05
2.163553e+01	-7.508798e-05
2.176050e+01	-7.595789e-05
2.188619e+01	-7.683788e-05
2.201260e+01	-7.772806e-05
2.213974e+01	-7.862855e-05
2.226762e+01	-7.953948e-05
2.239624e+01	-8.046095e-05
2.252560e+01	-8.139311e-05
2.265571e+01	-8.233606e-05
2.278656e+01	-8.328994e-05
2.291818e+01	-8.425487e-05
2.305055e+01	-8.523097e-05
2.318369e+01	-8.621839e-05
2.331760e+01	-8.721724e-05
2.345228e+01	-8.822767e-05
2.358774e+01	-8.924980e-05
2.372398e+01	-9.028377e-05
2.386101e+01	-9.132972e-05
2.399883e+01	-9.238779e-05
2.413745e+01	-9.345812e-05
2.427686e+01	-9.454085e-05
2.441709e+01	-9.563612e-05
2.455812e+01	-9.674408e-05
2.469997e+01	-9.786487e-05
2.484263e+01	-9.899865e-05
2.498612e+01	-1.001456e-04
2.513044e+01	-1.013058e-04
2.527559e+01	-1.024794e-04
2.542158e+01	-1.036666e-04
2.556842e+01	-1.048676e-04
2.571610e+01	-1.060825e-04
2.586463e+01	-1.073115e-04
2.601403e+01	-1.085547e-04
2.616428e+01	-1.098124e-04
2.631541e+01	-1.110846e-04
2.646740e+01	-1.123715e-04
2.662028e+01	-1.136733e-04
2.677404e+01	-1.149902e-04
2.692868e+01	-1.163224e-04
2.708422e+01	-1.176700e-04
2.724066e+01	-1.190332e-04
2.739800e+01	-1.204123e-04
2.755625e+01	-1.218073e-04
2.771541e+01	-1.232184e-04
2.787550e+01	-1.246459e-04
2.803650e+01	-1.260899e-04
2.819844e+01	-1.275507e-04
2.836131e+01	-1.290284e-04
2.852513e+01	-1.305232e-04
2.868989e+01	-1.320353e-04
2.885560e+01	-1.335650e-04
2.902227e+01	-1.351123e-04
2.918990e+01	-1.366776e-04
2.935850e+01	-1.382610e-04
2.952807e+01	-1.398628e-04
2.969863e+01	-1.414831e-04
2.987016e+01	-1.431222e-04
3.004269e+01	-1.447803e-04
3.021622e+01	-1.464576e-04
3.039075e+01	-1.481543e-04
3.056628e+01	-1.498707e-04
3.074283e+01	-1.516070e-04
3.092040e+01	-1.533633e-04
3.109900e+01	-1.551401e-04
3.127862e+01	-1.569374e-04
3.145929e+01	-1.587555e-04
3.164099e+01	-1.605947e-04
3.182375e+01	-1.624552e-04
3.200756e+01	-1.643373e-04
3.219244e+01	-1.662411e-04
3.237838e+01	-1.681670e-04
3.256540e+01	-1.701153e-04
3.275349e+01	-1.720860e-04
3.294268e+01	-1.740797e-04
3.313295e+01	-1.760964e-04
3.332433e+01	-1.781365e-04
3.351681e+01	-1.802002e-04
3.371040e+01	-1.822878e-04
3.390511e+01	-1.843996e-04
3.410094e+01	-1.865359e-04
3.429791e+01	-1.886969e-04
3.449601e+01	-1.908830e-04
3.469526e+01	-1.930944e-04
3.489566e+01	-1.953314e-04
3.509721e+01	-1.975943e-04
3.529993e+01	-1.998834e-04
3.550382e+01	-2.021991e-04
3.570889e+01	-2.045415e-04
3.591515e+01	-2.069112e-04
3.612259e+01	-2.093082e-04
3.633123e+01	-2.117331e-04
3.654108e+01	-2.141860e-04
3.675214e+01	-2.166673e-04
3.696442e+01	-2.191774e-04
3.717792e+01	-2.217166e-04
3.739266e+01	-2.242852e-04
3.760864e+01	-2.268835e-04
3.782587e+01	-2.295119e-04
3.804435e+01	-2.321708e-04
3.826409e+01	-2.348605e-04
3.848510e+01	-2.375814e-04
3.870739e+01	-2.403337e-04
3.893096e+01	-2.431180e-04
3.915583e+01	-2.459345e-04
3.938199e+01	-2.487836e-04
3.960946e+01	-2.516658e-04
3.983824e+01	-2.545813e-04
4.006834e+01	-2.575306e-04
4.029978e+01	-2.605141e-04
4.053255e+01	-2.635321e-04
4.076666e+01	-2.665851e-04
4.100213e+01	-2.696735e-04
4.123896e+01	-2.727977e-04
4.147715e+01	-2.759580e-04
4.171672e+01	-2.791549e-04
4.195767e+01	-2.823889e-04
4.220002e+01	-2.856604e-04
4.244377e+01	-2.889697e-04
4.268892e+01	-2.923174e-04
4.293549e+01	-2.957039e-04
4.318348e+01	-2.991296e-04
4.343291e+01	-3.025949e-04
4.368377e+01	-3.061005e-04
4.393609e+01	-3.096466e-04
4.418986e+01	-3.132338e-04
4.444510e+01	-3.168626e-04
4.470182e+01	-3.205334e-04
4.496001e+01	-3.242467e-04
4.521970e+01	-3.280030e-04
4.548089e+01	-3.318029e-04
4.574358e+01	-3.356468e-04
4.600779e+01	-3.395352e-04
4.627353e+01	-3.434687e-04
4.654081e+01	-3.474477e-04
4.680963e+01	-3.514728e-04
4.708000e+01	-3.555445e-04
4.735193e+01	-3.596634e-04
4.762543e+01	-3.638301e-04
4.790051e+01	-3.680450e-04
4.817719e+01	-3.723087e-04
4.845545e+01	-3.766218e-04
4.873533e+01	-3.809849e-04
4.901682e+01	-3.853985e-04
4.929994e+01	-3.898632e-04
4.958470e+01	-3.943797e-04
4.987110e+01	-3.989485e-04
5.015915e+01	-4.035702e-04
5.044887e+01	-4.082455e-04
5.074026e+01	-4.129749e-04
5.103333e+01	-4.177591e-04
5.132810e+01	-4.225987e-04
5.162457e+01	-4.274944e-04
5.192275e+01	-4.324468e-04
5.222265e+01	-4.374565e-04
5.252429e+01	-4.425243e-04
5.282767e+01	-4.476508e-04
5.313280e+01	-4.528367e-04
5.343969e+01	-4.580827e-04
5.374836e+01	-4.633894e-04
5.405880e+01	-4.687576e-04
5.437105e+01	-4.741880e-04
5.468509e+01	-4.796813e-04
5.500095e+01	-4.852382e-04
5.531863e+01	-4.908595e-04
5.563815e+01	-4.965460e-04
5.595951e+01	-5.022982e-04
5.628273e+01	-5.081172e-04
5.660782e+01	-5.140035e-04
5.693479e+01	-5.199580e-04
5.726364e+01	-5.259815e-04
5.759439e+01	-5.320748e-04
5.792705e+01	-5.382386e-04
5.826164e+01	-5.444739e-04
5.859815e+01	-5.507814e-04
5.893662e+01	-5.571619e-04
5.927703e+01	-5.636164e-04
5.961941e+01	-5.701456e-04
5.996377e+01	-5.767504e-04
6.031012e+01	-5.834318e-04
6.065847e+01	-5.901906e-04
6.100883e+01	-5.970276e-04
6.136121e+01	-6.039439e-04
6.171563e+01	-6.109402e-04
6.207210e+01	-6.180176e-04
6.243063e+01	-6.251770e-04
6.279122e+01	-6.324193e-04
6.315390e+01	-6.397455e-04
6.351868e+01	-6.471566e-04
6.388556e+01	-6.546535e-04
6.425456e+01	-6.622373e-04
6.462569e+01	-6.699089e-04
6.499897e+01	-6.776694e-04
6.537440e+01	-6.855198e-04
6.575200e+01	-6.934611e-04
6.613178e+01	-7.014943e-04
6.651375e+01	-7.096207e-04
6.689793e+01	-7.178412e-04
6.728433e+01	-7.261568e-04
6.767297e+01	-7.345689e-04
6.806384e+01	-7.430783e-04
6.845698e+01	-7.516863e-04
6.885238e+01	-7.603941e-04
6.925007e+01	-7.692027e-04
6.965005e+01	-7.781133e-04
7.005235e+01	-7.871271e-04
7.045697e+01	-7.962454e-04
7.086393e+01	-8.054692e-04
7.127323e+01	-8.147999e-04
7.168490e+01	-8.242387e-04
7.209895e+01	-8.337868e-04
7.251539e+01	-8.434456e-04
7.293424e+01	-8.532161e-04
7.335551e+01	-8.630999e-04
7.377920e+01	-8.730981e-04
7.420535e+01	-8.832122e-04
7.463396e+01	-8.934434e-04
7.506504e+01	-9.037931e-04
7.549861e+01	-9.142627e-04
7.593469e+01	-9.248535e-04
7.637328e+01	-9.355671e-04
7.681441e+01	-9.464047e-04
7.725809e+01	-9.573678e-04
7.770433e+01	-9.684580e-04
7.815315e+01	-9.796766e-04
7.860456e+01	-9.910251e-04
7.905857e+01	-1.002505e-03
7.951521e+01	-1.014118e-03
7.997449e+01	-1.025865e-03
8.043642e+01	-1.037749e-03
8.090102e+01	-1.049770e-03
8.136830e+01	-1.061930e-03
8.183828e+01	-1.074232e-03
8.231097e+01	-1.086675e-03
8.278640e+01	-1.099263e-03
8.326457e+01	-1.111997e-03
8.374550e+01	-1.124878e-03
8.422921e+01	-1.137908e-03
8.471572e+01	-1.151090e-03
8.520503e+01	-1.164423e-03
8.569717e+01	-1.177912e-03
8.619215e+01	-1.191556e-03
8.669000e+01	-1.205359e-03
8.719071e+01	-1.219321e-03
8.769432e+01	-1.233446e-03
8.820084e+01	-1.247733e-03
8.871029e+01	-1.262187e-03
8.922267e+01	-1.276807e-03
8.973802e+01	-1.291597e-03
9.025634e+01	-1.306558e-03
9.077766e+01	-1.321693e-03
9.130199e+01	-1.337003e-03
9.182935e+01	-1.352490e-03
9.235975e+01	-1.368156e-03
9.289321e+01	-1.384004e-03
9.342976e+01	-1.400036e-03
9.396941e+01	-1.416253e-03
9.451217e+01	-1.432658e-03
9.505807e+01	-1.449253e-03
9.560712e+01	-1.466040e-03
9.615934e+01	-1.483021e-03
9.671476e+01	-1.500200e-03
9.727338e+01	-1.517577e-03
9.783522e+01	-1.535155e-03
9.840032e+01	-1.552937e-03
9.896867e+01	-1.570925e-03
9.954031e+01	-1.589122e-03
1.001153e+02	-1.607529e-03
1.006935e+02	-1.626149e-03
1.012751e+02	-1.644984e-03
1.018601e+02	-1.664038e-03
1.024484e+02	-1.683313e-03
1.030402e+02	-1.702811e-03
1.036353e+02	-1.722534e-03
1.042339e+02	-1.742486e-03
1.048360e+02	-1.762670e-03
1.054415e+02	-1.783086e-03
1.060505e+02	-1.803740e-03
1.066631e+02	-1.824632e-03
1.072791e+02	-1.845766e-03
1.078988e+02	-1.867145e-03
1.085220e+02	-1.888772e-03
1.091488e+02	-1.910649e-03
1.097793e+02	-1.932780e-03
1.104133e+02	-1.955166e-03
1.110511e+02	-1.977812e-03
1.116925e+02	-2.000721e-03
1.123376e+02	-2.023894e-03
1.129865e+02	-2.047336e-03
1.136391e+02	-2.071049e-03
1.142955e+02	-2.095037e-03
1.149556e+02	-2.119303e-03
1.156196e+02	-2.143849e-03
1.162874e+02	-2.168680e-03
1.169591e+02	-2.193798e-03
1.176347e+02	-2.219208e-03
1.183141e+02	-2.244911e-03
1.189975e+02	-2.270912e-03
1.196848e+02	-2.297214e-03
1.203761e+02	-2.323821e-03
1.210714e+02	-2.350736e-03
1.217707e+02	-2.377962e-03
1.224740e+02	-2.405504e-03
1.231814e+02	-2.433365e-03
1.238929e+02	-2.461548e-03
1.246085e+02	-2.490057e-03
1.253283e+02	-2.518897e-03
1.260522e+02	-2.548070e-03
1.267802e+02	-2.577582e-03
1.275125e+02	-2.607435e-03
1.282490e+02	-2.637633e-03
1.289898e+02	-2.668182e-03
1.297348e+02	-2.699084e-03
1.304842e+02	-2.730343e-03
1.312378e+02	-2.761965e-03
1.319959e+02	-2.793953e-03
1.327583e+02	-2.826311e-03
1.335251e+02	-2.859044e-03
1.342963e+02	-2.892155e-03
1.350720e+02	-2.925650e-03
1.358522e+02	-2.959533e-03
1.366368e+02	-2.993808e-03
1.374260e+02	-3.028480e-03
1.382198e+02	-3.063554e-03
1.390182e+02	-3.099033e-03
1.398211e+02	-3.134923e-03
1.406287e+02	-3.171229e-03
1.414410e+02	-3.207955e-03
1.422579e+02	-3.245106e-03
1.430796e+02	-3.282687e-03
1.439060e+02	-3.320703e-03
1.447372e+02	-3.359160e-03
1.455732e+02	-3.398061e-03
1.464141e+02	-3.437413e-03
1.472597e+02	-3.477220e-03
1.481103e+02	-3.517488e-03
1.489658e+02	-3.558223e-03
1.498262e+02	-3.599429e-03
1.506916e+02	-3.641111e-03
1.515620e+02	-3.683277e-03
1.524374e+02	-3.725930e-03
1.533179e+02	-3.769077e-03
1.542034e+02	-3.812724e-03
1.550941e+02	-3.856875e-03
1.559899e+02	-3.901538e-03
1.568909e+02	-3.946718e-03
1.577971e+02	-3.992421e-03
1.587085e+02	-4.038652e-03
1.596252e+02	-4.085419e-03
1.605472e+02	-4.132727e-03
1.614745e+02	-4.180583e-03
1.624072e+02	-4.228992e-03
1.633453e+02	-4.277962e-03
1.642887e+02	-4.327499e-03
1.652377e+02	-4.377609e-03
1.661921e+02	-4.428298e-03
1.671520e+02	-4.479575e-03
1.681175e+02	-4.531445e-03
1.690885e+02	-4.583915e-03
1.700651e+02	-4.636992e-03
1.710474e+02	-4.690684e-03
1.720354e+02	-4.744997e-03
1.730291e+02	-4.799939e-03
1.740285e+02	-4.855516e-03
1.750337e+02	-4.911737e-03
1.760446e+02	-4.968608e-03
1.770615e+02	-5.026137e-03
1.780842e+02	-5.084332e-03
1.791128e+02	-5.143200e-03
1.801473e+02	-5.202750e-03
1.811878e+02	-5.262988e-03
1.822344e+02	-5.323924e-03
1.832870e+02	-5.385565e-03
1.843456e+02	-5.447919e-03
1.854104e+02	-5.510994e-03
1.864813e+02	-5.574799e-03
1.875584e+02	-5.639343e-03
1.886418e+02	-5.704633e-03
1.897313e+02	-5.770678e-03
1.908272e+02	-5.837488e-03
1.919294e+02	-5.905071e-03
1.930380e+02	-5.973435e-03
1.941530e+02	-6.042591e-03
1.952744e+02	-6.112547e-03
1.964023e+02	-6.183311e-03
1.975367e+02	-6.254895e-03
1.986777e+02	-6.327307e-03
1.998252e+02	-6.400556e-03
2.009794e+02	-6.474653e-03
2.021403e+02	-6.549606e-03
2.033078e+02	-6.625427e-03
2.044821e+02	-6.702125e-03
2.056632e+02	-6.779710e-03
2.068511e+02	-6.858193e-03
2.080459e+02	-6.937583e-03
2.092475e+02	-7.017891e-03
2.104561e+02	-7.099129e-03
2.116717e+02	-7.181306e-03
2.128943e+02	-7.264433e-03
2.141240e+02	-7.348522e-03
2.153608e+02	-7.433584e-03
2.166047e+02	-7.519629e-03
2.178558e+02	-7.606669e-03
2.191141e+02	-7.694716e-03
2.203797e+02	-7.783781e-03
2.216526e+02	-7.873876e-03
2.229329e+02	-7.965013e-03
2.242205e+02	-8.057204e-03
2.255156e+02	-8.150461e-03
2.268182e+02	-8.244796e-03
2.281283e+02	-8.340222e-03
2.294459e+02	-8.436752e-03
2.307712e+02	-8.534397e-03
2.321041e+02	-8.633172e-03
2.334447e+02	-8.733088e-03
2.347931e+02	-8.834160e-03
2.361493e+02	-8.936401e-03
2.375133e+02	-9.039823e-03
2.388851e+02	-9.144441e-03
2.402649e+02	-9.250269e-03
2.416527e+02	-9.357319e-03
2.430484e+02	-9.465608e-03
2.444523e+02	-9.575148e-03
2.458642e+02	-9.685954e-03
2.472843e+02	-9.798042e-03
2.487126e+02	-9.911424e-03
2.501492e+02	-1.002612e-02
2.515940e+02	-1.014214e-02
2.530472e+02	-1.025950e-02
2.545088e+02	-1.037821e-02
2.559789e+02	-1.049830e-02
2.574574e+02	-1.061978e-02
2.589444e+02	-1.074266e-02
2.604401e+02	-1.086696e-02
2.619444e+02	-1.099269e-02
2.634574e+02	-1.111988e-02
2.649791e+02	-1.124854e-02
2.665096e+02	-1.137869e-02
2.680489e+02	-1.151034e-02
2.695972e+02	-1.164351e-02
2.711544e+02	-1.177822e-02
2.727205e+02	-1.191449e-02
2.742958e+02	-1.205233e-02
2.758801e+02	-1.219176e-02
2.774736e+02	-1.233280e-02
2.790762e+02	-1.247547e-02
2.806882e+02	-1.261980e-02
2.823094e+02	-1.276578e-02
2.839400e+02	-1.291346e-02
2.855800e+02	-1.306284e-02
2.872295e+02	-1.321394e-02
2.888886e+02	-1.336679e-02
2.905572e+02	-1.352141e-02
2.922354e+02	-1.367781e-02
2.939234e+02	-1.383602e-02
2.956211e+02	-1.399605e-02
2.973286e+02	-1.415793e-02
2.990459e+02	-1.432169e-02
3.007732e+02	-1.448733e-02
3.025104e+02	-1.465488e-02
3.042577e+02	-1.482437e-02
3.060151e+02	-1.499582e-02
3.077826e+02	-1.516925e-02
3.095604e+02	-1.534467e-02
3.113484e+02	-1.552213e-02
3.131467e+02	-1.570163e-02
3.149554e+02	-1.588320e-02
3.167746e+02	-1.606687e-02
3.186043e+02	-1.625266e-02
3.204445e+02	-1.644059e-02
3.222954e+02	-1.663070e-02
3.241570e+02	-1.682299e-02
3.260293e+02	-1.701751e-02
3.279124e+02	-1.721427e-02
3.298064e+02	-1.741330e-02
3.317114e+02	-1.761463e-02
3.336273e+02	-1.781828e-02
3.355544e+02	-1.802428e-02
3.374925e+02	-1.823265e-02
3.394418e+02	-1.844343e-02
3.414024e+02	-1.865664e-02
3.433744e+02	-1.887231e-02
3.453577e+02	-1.909047e-02
3.473525e+02	-1.931115e-02
3.493588e+02	-1.953437e-02
3.513766e+02	-1.976016e-02
3.534062e+02	-1.998856e-02
3.554474e+02	-2.021959e-02
3.575005e+02	-2.045328e-02
3.595654e+02	-2.068967e-02
3.616422e+02	-2.092879e-02
3.637311e+02	-2.117066e-02
3.658320e+02	-2.141532e-02
3.679450e+02	-2.166280e-02
3.700702e+02	-2.191314e-02
3.722077e+02	-2.216636e-02
3.743576e+02	-2.242249e-02
3.765199e+02	-2.268158e-02
3.786946e+02	-2.294366e-02
3.808820e+02	-2.320875e-02
3.830819e+02	-2.347690e-02
3.852946e+02	-2.374814e-02
3.875200e+02	-2.402251e-02
3.897583e+02	-2.430003e-02
3.920096e+02	-2.458076e-02
3.942738e+02	-2.486471e-02
3.965511e+02	-2.515194e-02
3.988416e+02	-2.544248e-02
4.011452e+02	-2.573636e-02
4.034622e+02	-2.603362e-02
4.057926e+02	-2.633431e-02
4.081365e+02	-2.663846e-02
4.104938e+02	-2.694612e-02
4.128648e+02	-2.725731e-02
4.152495e+02	-2.757209e-02
4.176480e+02	-2.789049e-02
4.200603e+02	-2.821255e-02
4.224866e+02	-2.853833e-02
4.249268e+02	-2.886785e-02
4.273812e+02	-2.920116e-02
4.298497e+02	-2.953831e-02
4.323325e+02	-2.987934e-02
4.348297e+02	-3.022429e-02
4.373412e+02	-3.057321e-02
4.398673e+02	-3.092614e-02
4.424079e+02	-3.128313e-02
4.449633e+02	-3.164423e-02
4.475334e+02	-3.200948e-02
4.501183e+02	-3.237894e-02
4.527182e+02	-3.275264e-02
4.553330e+02	-3.313063e-02
4.579630e+02	-3.351297e-02
4.606082e+02	-3.389971e-02
4.632687e+02	-3.429089e-02
4.659445e+02	-3.468657e-02
4.686358e+02	-3.508679e-02
4.713426e+02	-3.549162e-02
4.740650e+02	-3.590109e-02
4.768032e+02	-3.631527e-02
4.795572e+02	-3.673421e-02
4.823271e+02	-3.715796e-02
4.851130e+02	-3.758658e-02
4.879150e+02	-3.802012e-02
4.907332e+02	-3.845863e-02
4.935676e+02	-3.890218e-02
4.964185e+02	-3.935083e-02
4.992858e+02	-3.980462e-02
5.021696e+02	-4.026363e-02
5.050701e+02	-4.072790e-02
5.079874e+02	-4.119750e-02
5.109215e+02	-4.167249e-02
5.138726e+02	-4.215293e-02
5.168407e+02	-4.263887e-02
5.198259e+02	-4.313040e-02
5.228284e+02	-4.362756e-02
5.258482e+02	-4.413042e-02
5.288855e+02	-4.463905e-02
5.319403e+02	-4.515351e-02
5.350128e+02	-4.567387e-02
5.381030e+02	-4.620019e-02
5.412111e+02	-4.673255e-02
5.443371e+02	-4.727100e-02
5.474812e+02	-4.781563e-02
5.506434e+02	-4.836649e-02
5.538239e+02	-4.892367e-02
5.570228e+02	-4.948723e-02
5.602401e+02	-5.005724e-02
5.634760e+02	-5.063378e-02
5.667306e+02	-5.121692e-02
5.700040e+02	-5.180674e-02
5.732964e+02	-5.240330e-02
5.766077e+02	-5.300670e-02
5.799382e+02	-5.361700e-02
5.832879e+02	-5.423428e-02
5.866569e+02	-5.485862e-02
5.900454e+02	-5.549011e-02
5.934535e+02	-5.612881e-02
5.968813e+02	-5.677482e-02
6.003288e+02	-5.742822e-02
6.037963e+02	-5.808908e-02
6.072838e+02	-5.875750e-02
6.107914e+02	-5.943356e-02
6.143194e+02	-6.011734e-02
6.178676e+02	-6.080893e-02
6.214364e+02	-6.150843e-02
6.250258e+02	-6.221591e-02
6.286359e+02	-6.293147e-02
6.322669e+02	-6.365520e-02
6.359189e+02	-6.438719e-02
6.395919e+02	-6.512753e-02
6.432862e+02	-6.587632e-02
6.470017e+02	-6.663366e-02
6.507388e+02	-6.739963e-02
6.544974e+02	-6.817434e-02
6.582778e+02	-6.895789e-02
6.620800e+02	-6.975036e-02
6.659041e+02	-7.055187e-02
6.697504e+02	-7.136251e-02
6.736188e+02	-7.218240e-02
6.775096e+02	-7.301162e-02
6.814229e+02	-7.385028e-02
6.853587e+02	-7.469850e-02
6.893173e+02	-7.555637e-02
6.932988e+02	-7.642401e-02
6.973033e+02	-7.730152e-02
7.013309e+02	-7.818902e-02
