Frequency(Hz)	Magnitude(dB)
1.000000e+01	-1.825229e-05
1.005776e+01	-1.846375e-05
1.011585e+01	-1.867765e-05
1.017428e+01	-1.889404e-05
1.023305e+01	-1.911293e-05
1.029215e+01	-1.933436e-05
1.035160e+01	-1.955835e-05
1.041139e+01	-1.978494e-05
1.047153e+01	-2.001415e-05
1.053201e+01	-2.024602e-05
1.059284e+01	-2.048058e-05
1.065403e+01	-2.071785e-05
1.071556e+01	-2.095787e-05
1.077746e+01	-2.120067e-05
1.083971e+01	-2.144629e-05
1.090232e+01	-2.169475e-05
1.096529e+01	-2.194609e-05
1.102862e+01	-2.220034e-05
1.109232e+01	-2.245754e-05
1.115639e+01	-2.271771e-05
1.122083e+01	-2.298090e-05
1.128564e+01	-2.324714e-05
1.135083e+01	-2.351647e-05
1.141639e+01	-2.378891e-05
1.148233e+01	-2.406451e-05
1.154865e+01	-2.434330e-05
1.161536e+01	-2.462533e-05
1.168245e+01	-2.491062e-05
1.174992e+01	-2.519921e-05
1.181779e+01	-2.549115e-05
1.188605e+01	-2.578647e-05
1.195470e+01	-2.608522e-05
1.202375e+01	-2.638742e-05
1.209320e+01	-2.669313e-05
1.216305e+01	-2.700237e-05
1.223330e+01	-2.731520e-05
1.230396e+01	-2.763165e-05
1.237503e+01	-2.795177e-05
1.244651e+01	-2.827560e-05
1.251840e+01	-2.860318e-05
1.259070e+01	-2.893456e-05
1.266343e+01	-2.926977e-05
1.273657e+01	-2.960887e-05
1.281014e+01	-2.995189e-05
1.288413e+01	-3.029889e-05
1.295855e+01	-3.064991e-05
1.303339e+01	-3.100500e-05
1.310867e+01	-3.136420e-05
1.318439e+01	-3.172756e-05
1.326054e+01	-3.209513e-05
1.333713e+01	-3.246696e-05
1.341417e+01	-3.284310e-05
1.349165e+01	-3.322360e-05
1.356958e+01	-3.360850e-05
1.364795e+01	-3.399786e-05
1.372678e+01	-3.439173e-05
1.380607e+01	-3.479017e-05
1.388581e+01	-3.519322e-05
1.396602e+01	-3.560094e-05
1.404668e+01	-3.601339e-05
1.412782e+01	-3.643061e-05
1.420942e+01	-3.685267e-05
1.429149e+01	-3.727962e-05
1.437404e+01	-3.771151e-05
1.445706e+01	-3.814841e-05
1.454057e+01	-3.859036e-05
1.462455e+01	-3.903744e-05
1.470902e+01	-3.948970e-05
1.479398e+01	-3.994720e-05
1.487943e+01	-4.040999e-05
1.496537e+01	-4.087815e-05
1.505181e+01	-4.135174e-05
1.513875e+01	-4.183080e-05
1.522619e+01	-4.231542e-05
1.531414e+01	-4.280566e-05
1.540259e+01	-4.330157e-05
1.549156e+01	-4.380323e-05
1.558103e+01	-4.431070e-05
1.567103e+01	-4.482405e-05
1.576155e+01	-4.534334e-05
1.585258e+01	-4.586866e-05
1.594415e+01	-4.640006e-05
1.603624e+01	-4.693761e-05
1.612886e+01	-4.748139e-05
1.622202e+01	-4.803147e-05
1.631572e+01	-4.858793e-05
1.640996e+01	-4.915083e-05
1.650474e+01	-4.972025e-05
1.660008e+01	-5.029627e-05
1.669596e+01	-5.087897e-05
1.679239e+01	-5.146841e-05
1.688938e+01	-5.206468e-05
1.698694e+01	-5.266786e-05
1.708505e+01	-5.327803e-05
1.718373e+01	-5.389527e-05
1.728299e+01	-5.451966e-05
1.738281e+01	-5.515128e-05
1.748322e+01	-5.579022e-05
1.758420e+01	-5.643656e-05
1.768576e+01	-5.709039e-05
1.778792e+01	-5.775179e-05
1.789066e+01	-5.842086e-05
1.799399e+01	-5.909767e-05
1.809793e+01	-5.978233e-05
1.820246e+01	-6.047492e-05
1.830760e+01	-6.117554e-05
1.841334e+01	-6.188427e-05
1.851969e+01	-6.260121e-05
1.862666e+01	-6.332646e-05
1.873425e+01	-6.406010e-05
1.884246e+01	-6.480225e-05
1.895129e+01	-6.555300e-05
1.906075e+01	-6.631244e-05
1.917085e+01	-6.708069e-05
1.928158e+01	-6.785783e-05
1.939295e+01	-6.864397e-05
1.950496e+01	-6.943923e-05
1.961762e+01	-7.024369e-05
1.973093e+01	-7.105748e-05
1.984490e+01	-7.188069e-05
1.995952e+01	-7.271345e-05
2.007480e+01	-7.355584e-05
2.019076e+01	-7.440800e-05
2.030738e+01	-7.527003e-05
2.042467e+01	-7.614205e-05
2.054264e+01	-7.702417e-05
2.066130e+01	-7.791651e-05
2.078064e+01	-7.881918e-05
2.090066e+01	-7.973232e-05
2.102139e+01	-8.065603e-05
2.114280e+01	-8.159044e-05
2.126492e+01	-8.253568e-05
2.138775e+01	-8.349187e-05
2.151128e+01	-8.445914e-05
2.163553e+01	-8.543761e-05
2.176050e+01	-8.642742e-05
2.188619e+01	-8.742870e-05
2.201260e+01	-8.844157e-05
2.213974e+01	-8.946618e-05
2.226762e+01	-9.050266e-05
2.239624e+01	-9.155115e-05
2.252560e+01	-9.261178e-05
2.265571e+01	-9.368471e-05
2.278656e+01	-9.477006e-05
2.291818e+01	-9.586798e-05
2.305055e+01	-9.697863e-05
2.318369e+01	-9.810214e-05
2.331760e+01	-9.923867e-05
2.345228e+01	-1.003884e-04
2.358774e+01	-1.015514e-04
2.372398e+01	-1.027279e-04
2.386101e+01	-1.039180e-04
2.399883e+01	-1.051219e-04
2.413745e+01	-1.063397e-04
2.427686e+01	-1.075717e-04
2.441709e+01	-1.088179e-04
2.455812e+01	-1.100786e-04
2.469997e+01	-1.113539e-04
2.484263e+01	-1.126439e-04
2.498612e+01	-1.139489e-04
2.513044e+01	-1.152690e-04
2.527559e+01	-1.166044e-04
2.542158e+01	-1.179553e-04
2.556842e+01	-1.193218e-04
2.571610e+01	-1.207042e-04
2.586463e+01	-1.221026e-04
2.601403e+01	-1.235171e-04
2.616428e+01	-1.249481e-04
2.631541e+01	-1.263956e-04
2.646740e+01	-1.278599e-04
2.662028e+01	-1.293412e-04
2.677404e+01	-1.308396e-04
2.692868e+01	-1.323554e-04
2.708422e+01	-1.338888e-04
2.724066e+01	-1.354399e-04
2.739800e+01	-1.370090e-04
2.755625e+01	-1.385963e-04
2.771541e+01	-1.402019e-04
2.787550e+01	-1.418262e-04
2.803650e+01	-1.434692e-04
2.819844e+01	-1.451313e-04
2.836131e+01	-1.468127e-04
2.852513e+01	-1.485135e-04
2.868989e+01	-1.502341e-04
2.885560e+01	-1.519745e-04
2.902227e+01	-1.537352e-04
2.918990e+01	-1.555162e-04
2.935850e+01	-1.573179e-04
2.952807e+01	-1.591404e-04
2.969863e+01	-1.609841e-04
2.987016e+01	-1.628491e-04
3.004269e+01	-1.647357e-04
3.021622e+01	-1.666442e-04
3.039075e+01	-1.685747e-04
3.056628e+01	-1.705277e-04
3.074283e+01	-1.725033e-04
3.092040e+01	-1.745017e-04
3.109900e+01	-1.765233e-04
3.127862e+01	-1.785684e-04
3.145929e+01	-1.806371e-04
3.164099e+01	-1.827298e-04
3.182375e+01	-1.848467e-04
3.200756e+01	-1.869881e-04
3.219244e+01	-1.891544e-04
3.237838e+01	-1.913458e-04
3.256540e+01	-1.935625e-04
3.275349e+01	-1.958049e-04
3.294268e+01	-1.980733e-04
3.313295e+01	-2.003680e-04
3.332433e+01	-2.026893e-04
3.351681e+01	-2.050374e-04
3.371040e+01	-2.074128e-04
3.390511e+01	-2.098157e-04
3.410094e+01	-2.122464e-04
3.429791e+01	-2.147053e-04
3.449601e+01	-2.171926e-04
3.469526e+01	-2.197088e-04
3.489566e+01	-2.222541e-04
3.509721e+01	-2.248289e-04
3.529993e+01	-2.274336e-04
3.550382e+01	-2.300684e-04
3.570889e+01	-2.327337e-04
3.591515e+01	-2.354299e-04
3.612259e+01	-2.381574e-04
3.633123e+01	-2.409164e-04
3.654108e+01	-2.437074e-04
3.675214e+01	-2.465308e-04
3.696442e+01	-2.493868e-04
3.717792e+01	-2.522759e-04
3.739266e+01	-2.551985e-04
3.760864e+01	-2.581550e-04
3.782587e+01	-2.611457e-04
3.804435e+01	-2.641711e-04
3.826409e+01	-2.672315e-04
3.848510e+01	-2.703273e-04
3.870739e+01	-2.734590e-04
3.893096e+01	-2.766270e-04
3.915583e+01	-2.798317e-04
3.938199e+01	-2.830736e-04
3.960946e+01	-2.863529e-04
3.983824e+01	-2.896703e-04
4.006834e+01	-2.930261e-04
4.029978e+01	-2.964208e-04
4.053255e+01	-2.998548e-04
4.076666e+01	-3.033285e-04
4.100213e+01	-3.068426e-04
4.123896e+01	-3.103973e-04
4.147715e+01	-3.139932e-04
4.171672e+01	-3.176308e-04
4.195767e+01	-3.213105e-04
4.220002e+01	-3.250328e-04
4.244377e+01	-3.287983e-04
4.268892e+01	-3.326073e-04
4.293549e+01	-3.364605e-04
4.318348e+01	-3.403584e-04
4.343291e+01	-3.443014e-04
4.368377e+01	-3.482900e-04
4.393609e+01	-3.523249e-04
4.418986e+01	-3.564065e-04
4.444510e+01	-3.605354e-04
4.470182e+01	-3.647121e-04
4.496001e+01	-3.689373e-04
4.521970e+01	-3.732113e-04
4.548089e+01	-3.775349e-04
4.574358e+01	-3.819085e-04
4.600779e+01	-3.863329e-04
4.627353e+01	-3.908084e-04
4.654081e+01	-3.953358e-04
4.680963e+01	-3.999157e-04
4.708000e+01	-4.045486e-04
4.735193e+01	-4.092352e-04
4.762543e+01	-4.139761e-04
4.790051e+01	-4.187719e-04
4.817719e+01	-4.236232e-04
4.845545e+01	-4.285308e-04
4.873533e+01	-4.334952e-04
4.901682e+01	-4.385171e-04
4.929994e+01	-4.435972e-04
4.958470e+01	-4.487361e-04
4.987110e+01	-4.539346e-04
5.015915e+01	-4.591933e-04
5.044887e+01	-4.645128e-04
5.074026e+01	-4.698941e-04
5.103333e+01	-4.753376e-04
5.132810e+01	-4.808442e-04
5.162457e+01	-4.864146e-04
5.192275e+01	-4.920496e-04
5.222265e+01	-4.977498e-04
5.252429e+01	-5.035160e-04
5.282767e+01	-5.093490e-04
5.313280e+01	-5.152496e-04
5.343969e+01	-5.212186e-04
5.374836e+01	-5.272567e-04
5.405880e+01	-5.333647e-04
5.437105e+01	-5.395435e-04
5.468509e+01	-5.457939e-04
5.500095e+01	-5.521167e-04
5.531863e+01	-5.585127e-04
5.563815e+01	-5.649828e-04
5.595951e+01	-5.715278e-04
5.628273e+01	-5.781487e-04
5.660782e+01	-5.848462e-04
5.693479e+01	-5.916214e-04
5.726364e+01	-5.984750e-04
5.759439e+01	-6.054080e-04
5.792705e+01	-6.124214e-04
5.826164e+01	-6.195159e-04
5.859815e+01	-6.266927e-04
5.893662e+01	-6.339525e-04
5.927703e+01	-6.412965e-04
5.961941e+01	-6.487256e-04
5.996377e+01	-6.562407e-04
6.031012e+01	-6.638428e-04
6.065847e+01	-6.715330e-04
6.100883e+01	-6.793123e-04
6.136121e+01	-6.871817e-04
6.171563e+01	-6.951422e-04
6.207210e+01	-7.031950e-04
6.243063e+01	-7.113410e-04
6.279122e+01	-7.195814e-04
6.315390e+01	-7.279173e-04
6.351868e+01	-7.363497e-04
6.388556e+01	-7.448798e-04
6.425456e+01	-7.535087e-04
6.462569e+01	-7.622375e-04
6.499897e+01	-7.710675e-04
6.537440e+01	-7.799997e-04
6.575200e+01	-7.890354e-04
6.613178e+01	-7.981757e-04
6.651375e+01	-8.074220e-04
6.689793e+01	-8.167753e-04
6.728433e+01	-8.262369e-04
6.767297e+01	-8.358082e-04
6.806384e+01	-8.454903e-04
6.845698e+01	-8.552846e-04
6.885238e+01	-8.651923e-04
6.925007e+01	-8.752148e-04
6.965005e+01	-8.853534e-04
7.005235e+01	-8.956094e-04
7.045697e+01	-9.059842e-04
7.086393e+01	-9.164791e-04
7.127323e+01	-9.270957e-04
7.168490e+01	-9.378352e-04
7.209895e+01	-9.486991e-04
7.251539e+01	-9.596888e-04
7.293424e+01	-9.708058e-04
7.335551e+01	-9.820516e-04
7.377920e+01	-9.934276e-04
7.420535e+01	-1.004935e-03
7.463396e+01	-1.016576e-03
7.506504e+01	-1.028352e-03
7.549861e+01	-1.040265e-03
7.593469e+01	-1.052315e-03
7.637328e+01	-1.064505e-03
7.681441e+01	-1.076836e-03
7.725809e+01	-1.089310e-03
7.770433e+01	-1.101928e-03
7.815315e+01	-1.114693e-03
7.860456e+01	-1.127605e-03
7.905857e+01	-1.140667e-03
7.951521e+01	-1.153880e-03
7.997449e+01	-1.167246e-03
8.043642e+01	-1.180767e-03
8.090102e+01	-1.194445e-03
8.136830e+01	-1.208281e-03
8.183828e+01	-1.222277e-03
8.231097e+01	-1.236436e-03
8.278640e+01	-1.250758e-03
8.326457e+01	-1.265246e-03
8.374550e+01	-1.279902e-03
8.422921e+01	-1.294728e-03
8.471572e+01	-1.309726e-03
8.520503e+01	-1.324897e-03
8.569717e+01	-1.340244e-03
8.619215e+01	-1.355769e-03
8.669000e+01	-1.371473e-03
8.719071e+01	-1.387359e-03
8.769432e+01	-1.403430e-03
8.820084e+01	-1.419686e-03
8.871029e+01	-1.436131e-03
8.922267e+01	-1.452766e-03
8.973802e+01	-1.469594e-03
9.025634e+01	-1.486617e-03
9.077766e+01	-1.503836e-03
9.130199e+01	-1.521256e-03
9.182935e+01	-1.538877e-03
9.235975e+01	-1.556702e-03
9.289321e+01	-1.574733e-03
9.342976e+01	-1.592974e-03
9.396941e+01	-1.611425e-03
9.451217e+01	-1.630091e-03
9.505807e+01	-1.648972e-03
9.560712e+01	-1.668072e-03
9.615934e+01	-1.687394e-03
9.671476e+01	-1.706939e-03
9.727338e+01	-1.726710e-03
9.783522e+01	-1.746710e-03
9.840032e+01	-1.766942e-03
9.896867e+01	-1.787409e-03
9.954031e+01	-1.808112e-03
1.001153e+02	-1.829055e-03
1.006935e+02	-1.850241e-03
1.012751e+02	-1.871672e-03
1.018601e+02	-1.893351e-03
1.024484e+02	-1.915281e-03
1.030402e+02	-1.937465e-03
1.036353e+02	-1.959906e-03
1.042339e+02	-1.982607e-03
1.048360e+02	-2.005570e-03
1.054415e+02	-2.028800e-03
1.060505e+02	-2.052299e-03
1.066631e+02	-2.076069e-03
1.072791e+02	-2.100115e-03
1.078988e+02	-2.124440e-03
1.085220e+02	-2.149046e-03
1.091488e+02	-2.173937e-03
1.097793e+02	-2.199116e-03
1.104133e+02	-2.224587e-03
1.110511e+02	-2.250353e-03
1.116925e+02	-2.276417e-03
1.123376e+02	-2.302783e-03
1.129865e+02	-2.329454e-03
1.136391e+02	-2.356434e-03
1.142955e+02	-2.383727e-03
1.149556e+02	-2.411335e-03
1.156196e+02	-2.439263e-03
1.162874e+02	-2.467515e-03
1.169591e+02	-2.496093e-03
1.176347e+02	-2.525003e-03
1.183141e+02	-2.554247e-03
1.189975e+02	-2.583830e-03
1.196848e+02	-2.613755e-03
1.203761e+02	-2.644027e-03
1.210714e+02	-2.674649e-03
1.217707e+02	-2.705626e-03
1.224740e+02	-2.736962e-03
1.231814e+02	-2.768660e-03
1.238929e+02	-2.800725e-03
1.246085e+02	-2.833162e-03
1.253283e+02	-2.865974e-03
1.260522e+02	-2.899166e-03
1.267802e+02	-2.932742e-03
1.275125e+02	-2.966707e-03
1.282490e+02	-3.001065e-03
1.289898e+02	-3.035821e-03
1.297348e+02	-3.070979e-03
1.304842e+02	-3.106545e-03
1.312378e+02	-3.142522e-03
1.319959e+02	-3.178916e-03
1.327583e+02	-3.215730e-03
1.335251e+02	-3.252972e-03
1.342963e+02	-3.290644e-03
1.350720e+02	-3.328752e-03
1.358522e+02	-3.367302e-03
1.366368e+02	-3.406297e-03
1.374260e+02	-3.445745e-03
1.382198e+02	-3.485648e-03
1.390182e+02	-3.526014e-03
1.398211e+02	-3.566847e-03
1.406287e+02	-3.608153e-03
1.414410e+02	-3.649937e-03
1.422579e+02	-3.692204e-03
1.430796e+02	-3.734961e-03
1.439060e+02	-3.778212e-03
1.447372e+02	-3.821965e-03
1.455732e+02	-3.866223e-03
1.464141e+02	-3.910995e-03
1.472597e+02	-3.956284e-03
1.481103e+02	-4.002097e-03
1.489658e+02	-4.048441e-03
1.498262e+02	-4.095321e-03
1.506916e+02	-4.142744e-03
1.515620e+02	-4.190715e-03
1.524374e+02	-4.239242e-03
1.533179e+02	-4.288330e-03
1.542034e+02	-4.337987e-03
1.550941e+02	-4.388218e-03
1.559899e+02	-4.439031e-03
1.568909e+02	-4.490432e-03
1.577971e+02	-4.542427e-03
1.587085e+02	-4.595025e-03
1.596252e+02	-4.648231e-03
1.605472e+02	-4.702052e-03
1.614745e+02	-4.756497e-03
1.624072e+02	-4.811572e-03
1.633453e+02	-4.867284e-03
1.642887e+02	-4.923640e-03
1.652377e+02	-4.980649e-03
1.661921e+02	-5.038318e-03
1.671520e+02	-5.096654e-03
1.681175e+02	-5.155665e-03
1.690885e+02	-5.215358e-03
1.700651e+02	-5.275743e-03
1.710474e+02	-5.336826e-03
1.720354e+02	-5.398616e-03
1.730291e+02	-5.461121e-03
1.740285e+02	-5.524349e-03
1.750337e+02	-5.588309e-03
1.760446e+02	-5.653009e-03
1.770615e+02	-5.718457e-03
1.780842e+02	-5.784663e-03
1.791128e+02	-5.851634e-03
1.801473e+02	-5.919381e-03
1.811878e+02	-5.987911e-03
1.822344e+02	-6.057234e-03
1.832870e+02	-6.127359e-03
1.843456e+02	-6.198295e-03
1.854104e+02	-6.270052e-03
1.864813e+02	-6.342639e-03
1.875584e+02	-6.416066e-03
1.886418e+02	-6.490342e-03
1.897313e+02	-6.565477e-03
1.908272e+02	-6.641482e-03
1.919294e+02	-6.718365e-03
1.930380e+02	-6.796138e-03
1.941530e+02	-6.874811e-03
1.952744e+02	-6.954393e-03
1.964023e+02	-7.034896e-03
1.975367e+02	-7.116331e-03
1.986777e+02	-7.198707e-03
1.998252e+02	-7.282035e-03
2.009794e+02	-7.366328e-03
2.021403e+02	-7.451595e-03
2.033078e+02	-7.537849e-03
2.044821e+02	-7.625100e-03
2.056632e+02	-7.713360e-03
2.068511e+02	-7.802641e-03
2.080459e+02	-7.892954e-03
2.092475e+02	-7.984312e-03
2.104561e+02	-8.076726e-03
2.116717e+02	-8.170209e-03
2.128943e+02	-8.264772e-03
2.141240e+02	-8.360429e-03
2.153608e+02	-8.457192e-03
2.166047e+02	-8.555074e-03
2.178558e+02	-8.654088e-03
2.191141e+02	-8.754247e-03
2.203797e+02	-8.855563e-03
2.216526e+02	-8.958051e-03
2.229329e+02	-9.061724e-03
2.242205e+02	-9.166595e-03
2.255156e+02	-9.272679e-03
2.268182e+02	-9.379989e-03
2.281283e+02	-9.488539e-03
2.294459e+02	-9.598345e-03
2.307712e+02	-9.709419e-03
2.321041e+02	-9.821778e-03
2.334447e+02	-9.935435e-03
2.347931e+02	-1.005041e-02
2.361493e+02	-1.016671e-02
2.375133e+02	-1.028435e-02
2.388851e+02	-1.040335e-02
2.402649e+02	-1.052373e-02
2.416527e+02	-1.064550e-02
2.430484e+02	-1.076868e-02
2.444523e+02	-1.089328e-02
2.458642e+02	-1.101932e-02
2.472843e+02	-1.114682e-02
2.487126e+02	-1.127579e-02
2.501492e+02	-1.140625e-02
2.515940e+02	-1.153822e-02
2.530472e+02	-1.167171e-02
2.545088e+02	-1.180675e-02
2.559789e+02	-1.194334e-02
2.574574e+02	-1.208152e-02
2.589444e+02	-1.222129e-02
2.604401e+02	-1.236267e-02
2.619444e+02	-1.250569e-02
2.634574e+02	-1.265036e-02
2.649791e+02	-1.279670e-02
2.665096e+02	-1.294473e-02
2.680489e+02	-1.309447e-02
2.695972e+02	-1.324595e-02
2.711544e+02	-1.339917e-02
2.727205e+02	-1.355416e-02
2.742958e+02	-1.371093e-02
2.758801e+02	-1.386953e-02
2.774736e+02	-1.402995e-02
2.790762e+02	-1.419222e-02
2.806882e+02	-1.435637e-02
2.823094e+02	-1.452241e-02
2.839400e+02	-1.469037e-02
2.855800e+02	-1.486027e-02
2.872295e+02	-1.503213e-02
2.888886e+02	-1.520598e-02
2.905572e+02	-1.538183e-02
2.922354e+02	-1.555971e-02
2.939234e+02	-1.573965e-02
2.956211e+02	-1.592166e-02
2.973286e+02	-1.610578e-02
2.990459e+02	-1.629201e-02
3.007732e+02	-1.648040e-02
3.025104e+02	-1.667096e-02
3.042577e+02	-1.686373e-02
3.060151e+02	-1.705871e-02
3.077826e+02	-1.725595e-02
3.095604e+02	-1.745546e-02
3.113484e+02	-1.765727e-02
3.131467e+02	-1.786141e-02
3.149554e+02	-1.806791e-02
3.167746e+02	-1.827679e-02
3.186043e+02	-1.848808e-02
3.204445e+02	-1.870181e-02
3.222954e+02	-1.891800e-02
3.241570e+02	-1.913668e-02
3.260293e+02	-1.935789e-02
3.279124e+02	-1.958165e-02
3.298064e+02	-1.980799e-02
3.317114e+02	-2.003694e-02
3.336273e+02	-2.026853e-02
3.355544e+02	-2.050279e-02
3.374925e+02	-2.073975e-02
3.394418e+02	-2.097945e-02
3.414024e+02	-2.122190e-02
3.433744e+02	-2.146715e-02
3.453577e+02	-2.171523e-02
3.473525e+02	-2.196617e-02
3.493588e+02	-2.222000e-02
3.513766e+02	-2.247676e-02
3.534062e+02	-2.273647e-02
3.554474e+02	-2.299918e-02
3.575005e+02	-2.326492e-02
3.595654e+02	-2.353372e-02
3.616422e+02	-2.380561e-02
3.637311e+02	-2.408064e-02
3.658320e+02	-2.435883e-02
3.679450e+02	-2.464023e-02
3.700702e+02	-2.492488e-02
3.722077e+02	-2.521280e-02
3.743576e+02	-2.550403e-02
3.765199e+02	-2.579863e-02
3.786946e+02	-2.609661e-02
3.808820e+02	-2.639802e-02
3.830819e+02	-2.670291e-02
3.852946e+02	-2.701130e-02
3.875200e+02	-2.732325e-02
3.897583e+02	-2.763879e-02
3.920096e+02	-2.795796e-02
3.942738e+02	-2.828080e-02
3.965511e+02	-2.860736e-02
3.988416e+02	-2.893767e-02
4.011452e+02	-2.927179e-02
4.034622e+02	-2.960975e-02
4.057926e+02	-2.995160e-02
4.081365e+02	-3.029739e-02
4.104938e+02	-3.064715e-02
4.128648e+02	-3.100094e-02
4.152495e+02	-3.135879e-02
4.176480e+02	-3.172076e-02
4.200603e+02	-3.208689e-02
4.224866e+02	-3.245723e-02
4.249268e+02	-3.283183e-02
4.273812e+02	-3.321074e-02
4.298497e+02	-3.359401e-02
4.323325e+02	-3.398167e-02
4.348297e+02	-3.437380e-02
4.373412e+02	-3.477043e-02
4.398673e+02	-3.517162e-02
4.424079e+02	-3.557742e-02
4.449633e+02	-3.598788e-02
4.475334e+02	-3.640306e-02
4.501183e+02	-3.682301e-02
4.527182e+02	-3.724778e-02
4.553330e+02	-3.767743e-02
4.579630e+02	-3.811201e-02
4.606082e+02	-3.855159e-02
4.632687e+02	-3.899621e-02
4.659445e+02	-3.944593e-02
4.686358e+02	-3.990082e-02
4.713426e+02	-4.036093e-02
4.740650e+02	-4.082632e-02
4.768032e+02	-4.129705e-02
4.795572e+02	-4.177318e-02
4.823271e+02	-4.225478e-02
4.851130e+02	-4.274190e-02
4.879150e+02	-4.323460e-02
4.907332e+02	-4.373296e-02
4.935676e+02	-4.423704e-02
4.964185e+02	-4.474689e-02
4.992858e+02	-4.526259e-02
5.021696e+02	-4.578420e-02
5.050701e+02	-4.631179e-02
5.079874e+02	-4.684542e-02
5.109215e+02	-4.738518e-02
5.138726e+02	-4.793111e-02
5.168407e+02	-4.848330e-02
5.198259e+02	-4.904182e-02
5.228284e+02	-4.960673e-02
5.258482e+02	-5.017812e-02
5.288855e+02	-5.075604e-02
5.319403e+02	-5.134058e-02
5.350128e+02	-5.193182e-02
5.381030e+02	-5.252982e-02
5.412111e+02	-5.313466e-02
5.443371e+02	-5.374643e-02
5.474812e+02	-5.436520e-02
5.506434e+02	-5.499104e-02
5.538239e+02	-5.562404e-02
5.570228e+02	-5.626428e-02
5.602401e+02	-5.691185e-02
5.634760e+02	-5.756681e-02
5.667306e+02	-5.822926e-02
5.700040e+02	-5.889929e-02
5.732964e+02	-5.957697e-02
5.766077e+02	-6.026239e-02
5.799382e+02	-6.095565e-02
5.832879e+02	-6.165682e-02
5.866569e+02	-6.236600e-02
5.900454e+02	-6.308327e-02
5.934535e+02	-6.380874e-02
5.968813e+02	-6.454249e-02
6.003288e+02	-6.528461e-02
6.037963e+02	-6.603520e-02
6.072838e+02	-6.679435e-02
6.107914e+02	-6.756216e-02
6.143194e+02	-6.833873e-02
6.178676e+02	-6.912415e-02
6.214364e+02	-6.991853e-02
6.250258e+02	-7.072196e-02
6.286359e+02	-7.153454e-02
6.322669e+02	-7.235639e-02
6.359189e+02	-7.318760e-02
6.395919e+02	-7.402827e-02
6.432862e+02	-7.487852e-02
6.470017e+02	-7.573845e-02
6.507388e+02	-7.660816e-02
6.544974e+02	-7.748778e-02
6.582778e+02	-7.837740e-02
6.620800e+02	-7.927714e-02
6.659041e+02	-8.018712e-02
6.697504e+02	-8.110744e-02
6.736188e+02	-8.203822e-02
6.775096e+02	-8.297959e-02
6.814229e+02	-8.393165e-02
6.853587e+02	-8.489453e-02
6.893173e+02	-8.586834e-02
6.932988e+02	-8.685322e-02
6.973033e+02	-8.784927e-02
7.013309e+02	-8.885664e-02
