Frequency(Hz)	Magnitude(dB)
1.000000e+01	-2.158531e+00
1.005776e+01	-2.178174e+00
1.011585e+01	-2.197991e+00
1.017428e+01	-2.218022e+00
1.023305e+01	-2.238153e+00
1.029215e+01	-2.258217e+00
1.035160e+01	-2.278581e+00
1.041139e+01	-2.298982e+00
1.047153e+01	-2.319677e+00
1.053201e+01	-2.340476e+00
1.059284e+01	-2.361465e+00
1.065403e+01	-2.382142e+00
1.071556e+01	-2.403770e+00
1.077746e+01	-2.424959e+00
1.083971e+01	-2.446556e+00
1.090232e+01	-2.468045e+00
1.096529e+01	-2.489997e+00
1.102862e+01	-2.511778e+00
1.109232e+01	-2.533729e+00
1.115639e+01	-2.556029e+00
1.122083e+01	-2.578059e+00
1.128564e+01	-2.601048e+00
1.135083e+01	-2.623490e+00
1.141639e+01	-2.646277e+00
1.148233e+01	-2.669157e+00
1.154865e+01	-2.692039e+00
1.161536e+01	-2.715303e+00
1.168245e+01	-2.738521e+00
1.174992e+01	-2.761838e+00
1.181779e+01	-2.785671e+00
1.188605e+01	-2.809342e+00
1.195470e+01	-2.833192e+00
1.202375e+01	-2.857480e+00
1.209320e+01	-2.881861e+00
1.216305e+01	-2.905861e+00
1.223330e+01	-2.930290e+00
1.230396e+01	-2.955114e+00
1.237503e+01	-2.979645e+00
1.244651e+01	-3.004621e+00
1.251840e+01	-3.029662e+00
1.259070e+01	-3.055008e+00
1.266343e+01	-3.080419e+00
1.273657e+01	-3.105547e+00
1.281014e+01	-3.131421e+00
1.288413e+01	-3.157248e+00
1.295855e+01	-3.183013e+00
1.303339e+01	-3.209048e+00
1.310867e+01	-3.235344e+00
1.318439e+01	-3.261410e+00
1.326054e+01	-3.288267e+00
1.333713e+01	-3.314819e+00
1.341417e+01	-3.341658e+00
1.349165e+01	-3.368316e+00
1.356958e+01	-3.395513e+00
1.364795e+01	-3.423101e+00
1.372678e+01	-3.449999e+00
1.380607e+01	-3.477428e+00
1.388581e+01	-3.505388e+00
1.396602e+01	-3.532836e+00
1.404668e+01	-3.560788e+00
1.412782e+01	-3.588864e+00
1.420942e+01	-3.617191e+00
1.429149e+01	-3.645442e+00
1.437404e+01	-3.674001e+00
1.445706e+01	-3.702660e+00
1.454057e+01	-3.731298e+00
1.462455e+01	-3.760297e+00
1.470902e+01	-3.789453e+00
1.479398e+01	-3.818250e+00
1.487943e+01	-3.847676e+00
1.496537e+01	-3.877627e+00
1.505181e+01	-3.906825e+00
1.513875e+01	-3.936735e+00
1.522619e+01	-3.966652e+00
1.531414e+01	-3.996420e+00
1.540259e+01	-4.026715e+00
1.549156e+01	-4.057363e+00
1.558103e+01	-4.087603e+00
1.567103e+01	-4.118067e+00
1.576155e+01	-4.148822e+00
1.585258e+01	-4.179508e+00
1.594415e+01	-4.210744e+00
1.603624e+01	-4.241897e+00
1.612886e+01	-4.273192e+00
1.622202e+01	-4.304292e+00
1.631572e+01	-4.335988e+00
1.640996e+01	-4.367423e+00
1.650474e+01	-4.399295e+00
1.660008e+01	-4.431141e+00
1.669596e+01	-4.463542e+00
1.679239e+01	-4.495729e+00
1.688938e+01	-4.527963e+00
1.698694e+01	-4.560406e+00
1.708505e+01	-4.593046e+00
1.718373e+01	-4.625637e+00
1.728299e+01	-4.658605e+00
1.738281e+01	-4.691762e+00
1.748322e+01	-4.724612e+00
1.758420e+01	-4.757641e+00
1.768576e+01	-4.791356e+00
1.778792e+01	-4.824330e+00
1.789066e+01	-4.858385e+00
1.799399e+01	-4.892218e+00
1.809793e+01	-4.925794e+00
1.820246e+01	-4.959816e+00
1.830760e+01	-4.994211e+00
1.841334e+01	-5.028413e+00
1.851969e+01	-5.062756e+00
1.862666e+01	-5.097164e+00
1.873425e+01	-5.131742e+00
1.884246e+01	-5.166545e+00
1.895129e+01	-5.201316e+00
1.906075e+01	-5.236462e+00
1.917085e+01	-5.271689e+00
1.928158e+01	-5.306447e+00
1.939295e+01	-5.342142e+00
1.950496e+01	-5.377281e+00
1.961762e+01	-5.413228e+00
1.973093e+01	-5.448589e+00
1.984490e+01	-5.484603e+00
1.995952e+01	-5.520307e+00
2.007480e+01	-5.556476e+00
2.019076e+01	-5.592586e+00
2.030738e+01	-5.629129e+00
2.042467e+01	-5.665345e+00
2.054264e+01	-5.701746e+00
2.066130e+01	-5.738302e+00
2.078064e+01	-5.775254e+00
2.090066e+01	-5.811775e+00
2.102139e+01	-5.848890e+00
2.114280e+01	-5.886178e+00
2.126492e+01	-5.923225e+00
2.138775e+01	-5.960804e+00
2.151128e+01	-5.998166e+00
2.163553e+01	-6.035510e+00
2.176050e+01	-6.073479e+00
2.188619e+01	-6.110884e+00
2.201260e+01	-6.148845e+00
2.213974e+01	-6.186624e+00
2.226762e+01	-6.224754e+00
2.239624e+01	-6.262661e+00
2.252560e+01	-6.301110e+00
2.265571e+01	-6.339663e+00
2.278656e+01	-6.378003e+00
2.291818e+01	-6.416321e+00
2.305055e+01	-6.455137e+00
2.318369e+01	-6.493898e+00
2.331760e+01	-6.532711e+00
2.345228e+01	-6.571540e+00
2.358774e+01	-6.610709e+00
2.372398e+01	-6.649872e+00
2.386101e+01	-6.688752e+00
2.399883e+01	-6.728588e+00
2.413745e+01	-6.767767e+00
2.427686e+01	-6.807655e+00
2.441709e+01	-6.847124e+00
2.455812e+01	-6.886634e+00
2.469997e+01	-6.926699e+00
2.484263e+01	-6.966594e+00
2.498612e+01	-7.006705e+00
2.513044e+01	-7.046926e+00
2.527559e+01	-7.087101e+00
2.542158e+01	-7.126792e+00
2.556842e+01	-7.167578e+00
2.571610e+01	-7.208055e+00
2.586463e+01	-7.248774e+00
2.601403e+01	-7.289343e+00
2.616428e+01	-7.329906e+00
2.631541e+01	-7.370428e+00
2.646740e+01	-7.411730e+00
2.662028e+01	-7.452598e+00
2.677404e+01	-7.493575e+00
2.692868e+01	-7.534922e+00
2.708422e+01	-7.576429e+00
2.724066e+01	-7.617706e+00
2.739800e+01	-7.659029e+00
2.755625e+01	-7.700113e+00
2.771541e+01	-7.741906e+00
2.787550e+01	-7.784031e+00
2.803650e+01	-7.825200e+00
2.819844e+01	-7.867198e+00
2.836131e+01	-7.909068e+00
2.852513e+01	-7.951148e+00
2.868989e+01	-7.993181e+00
2.885560e+01	-8.035355e+00
2.902227e+01	-8.077202e+00
2.918990e+01	-8.119200e+00
2.935850e+01	-8.161784e+00
2.952807e+01	-8.204426e+00
2.969863e+01	-8.247115e+00
2.987016e+01	-8.289641e+00
3.004269e+01	-8.332324e+00
3.021622e+01	-8.375045e+00
3.039075e+01	-8.417835e+00
3.056628e+01	-8.460730e+00
3.074283e+01	-8.503901e+00
3.092040e+01	-8.546378e+00
3.109900e+01	-8.589317e+00
3.127862e+01	-8.632309e+00
3.145929e+01	-8.675856e+00
3.164099e+01	-8.718776e+00
3.182375e+01	-8.762424e+00
3.200756e+01	-8.806177e+00
3.219244e+01	-8.849387e+00
3.237838e+01	-8.892864e+00
3.256540e+01	-8.936460e+00
3.275349e+01	-8.979886e+00
3.294268e+01	-9.023932e+00
3.313295e+01	-9.067492e+00
3.332433e+01	-9.111857e+00
3.351681e+01	-9.155875e+00
3.371040e+01	-9.199374e+00
3.390511e+01	-9.243503e+00
3.410094e+01	-9.287918e+00
3.429791e+01	-9.331769e+00
3.449601e+01	-9.376018e+00
3.469526e+01	-9.419790e+00
3.489566e+01	-9.464297e+00
3.509721e+01	-9.508821e+00
3.529993e+01	-9.553543e+00
3.550382e+01	-9.597893e+00
3.570889e+01	-9.642376e+00
3.591515e+01	-9.687297e+00
3.612259e+01	-9.731798e+00
3.633123e+01	-9.776250e+00
3.654108e+01	-9.820828e+00
3.675214e+01	-9.866047e+00
3.696442e+01	-9.910804e+00
3.717792e+01	-9.956508e+00
3.739266e+01	-1.000135e+01
3.760864e+01	-1.004598e+01
3.782587e+01	-1.009093e+01
3.804435e+01	-1.013575e+01
3.826409e+01	-1.018155e+01
3.848510e+01	-1.022625e+01
3.870739e+01	-1.027230e+01
3.893096e+01	-1.031719e+01
3.915583e+01	-1.036292e+01
3.938199e+01	-1.040861e+01
3.960946e+01	-1.045345e+01
3.983824e+01	-1.049964e+01
4.006834e+01	-1.054553e+01
4.029978e+01	-1.059063e+01
4.053255e+01	-1.063638e+01
4.076666e+01	-1.068268e+01
4.100213e+01	-1.072740e+01
4.123896e+01	-1.077329e+01
4.147715e+01	-1.081964e+01
4.171672e+01	-1.086569e+01
4.195767e+01	-1.091141e+01
4.220002e+01	-1.095692e+01
4.244377e+01	-1.100319e+01
4.268892e+01	-1.104955e+01
4.293549e+01	-1.109621e+01
4.318348e+01	-1.114144e+01
4.343291e+01	-1.118774e+01
4.368377e+01	-1.123447e+01
4.393609e+01	-1.128006e+01
4.418986e+01	-1.132664e+01
4.444510e+01	-1.137303e+01
4.470182e+01	-1.141957e+01
4.496001e+01	-1.146589e+01
4.521970e+01	-1.151246e+01
4.548089e+01	-1.155889e+01
4.574358e+01	-1.160490e+01
4.600779e+01	-1.165190e+01
4.627353e+01	-1.169866e+01
4.654081e+01	-1.174527e+01
4.680963e+01	-1.179197e+01
4.708000e+01	-1.183943e+01
4.735193e+01	-1.188626e+01
4.762543e+01	-1.193276e+01
4.790051e+01	-1.197915e+01
4.817719e+01	-1.202602e+01
4.845545e+01	-1.207309e+01
4.873533e+01	-1.211954e+01
4.901682e+01	-1.216602e+01
4.929994e+01	-1.221380e+01
4.958470e+01	-1.226003e+01
4.987110e+01	-1.230804e+01
5.015915e+01	-1.235509e+01
5.044887e+01	-1.240248e+01
5.074026e+01	-1.244910e+01
5.103333e+01	-1.249711e+01
5.132810e+01	-1.254350e+01
5.162457e+01	-1.259114e+01
5.192275e+01	-1.263799e+01
5.222265e+01	-1.268616e+01
5.252429e+01	-1.273295e+01
5.282767e+01	-1.278032e+01
5.313280e+01	-1.282776e+01
5.343969e+01	-1.287544e+01
5.374836e+01	-1.292291e+01
5.405880e+01	-1.296952e+01
5.437105e+01	-1.301810e+01
5.468509e+01	-1.306470e+01
5.500095e+01	-1.311347e+01
5.531863e+01	-1.316008e+01
5.563815e+01	-1.320803e+01
5.595951e+01	-1.325637e+01
5.628273e+01	-1.330282e+01
5.660782e+01	-1.335059e+01
5.693479e+01	-1.339866e+01
5.726364e+01	-1.344661e+01
5.759439e+01	-1.349417e+01
5.792705e+01	-1.354153e+01
5.826164e+01	-1.359031e+01
5.859815e+01	-1.363714e+01
5.893662e+01	-1.368552e+01
5.927703e+01	-1.373357e+01
5.961941e+01	-1.378198e+01
5.996377e+01	-1.382963e+01
6.031012e+01	-1.387803e+01
6.065847e+01	-1.392534e+01
6.100883e+01	-1.397322e+01
6.136121e+01	-1.402148e+01
6.171563e+01	-1.406987e+01
6.207210e+01	-1.411736e+01
6.243063e+01	-1.416609e+01
6.279122e+01	-1.421382e+01
6.315390e+01	-1.426171e+01
6.351868e+01	-1.430995e+01
6.388556e+01	-1.435894e+01
6.425456e+01	-1.440626e+01
6.462569e+01	-1.445440e+01
6.499897e+01	-1.450298e+01
6.537440e+01	-1.455112e+01
6.575200e+01	-1.459886e+01
6.613178e+01	-1.464706e+01
6.651375e+01	-1.469594e+01
6.689793e+01	-1.474436e+01
6.728433e+01	-1.479266e+01
6.767297e+01	-1.484100e+01
6.806384e+01	-1.488947e+01
6.845698e+01	-1.493689e+01
6.885238e+01	-1.498582e+01
6.925007e+01	-1.503497e+01
6.965005e+01	-1.508309e+01
7.005235e+01	-1.513169e+01
7.045697e+01	-1.518041e+01
7.086393e+01	-1.522899e+01
7.127323e+01	-1.527674e+01
7.168490e+01	-1.532531e+01
7.209895e+01	-1.537503e+01
7.251539e+01	-1.542354e+01
7.293424e+01	-1.547204e+01
7.335551e+01	-1.551982e+01
7.377920e+01	-1.556938e+01
7.420535e+01	-1.561767e+01
7.463396e+01	-1.566610e+01
7.506504e+01	-1.571526e+01
7.549861e+01	-1.576341e+01
7.593469e+01	-1.581163e+01
7.637328e+01	-1.586142e+01
7.681441e+01	-1.590964e+01
7.725809e+01	-1.595887e+01
7.770433e+01	-1.600721e+01
7.815315e+01	-1.605613e+01
7.860456e+01	-1.610548e+01
7.905857e+01	-1.615324e+01
7.951521e+01	-1.620342e+01
7.997449e+01	-1.625124e+01
8.043642e+01	-1.630019e+01
8.090102e+01	-1.634963e+01
8.136830e+01	-1.639699e+01
8.183828e+01	-1.644619e+01
8.231097e+01	-1.649609e+01
8.278640e+01	-1.654547e+01
8.326457e+01	-1.659400e+01
8.374550e+01	-1.664225e+01
8.422921e+01	-1.669194e+01
8.471572e+01	-1.674080e+01
8.520503e+01	-1.678874e+01
8.569717e+01	-1.683877e+01
8.619215e+01	-1.688629e+01
8.669000e+01	-1.693640e+01
8.719071e+01	-1.698588e+01
8.769432e+01	-1.703513e+01
8.820084e+01	-1.708413e+01
8.871029e+01	-1.713203e+01
8.922267e+01	-1.718157e+01
8.973802e+01	-1.723126e+01
9.025634e+01	-1.727977e+01
9.077766e+01	-1.732871e+01
9.130199e+01	-1.737814e+01
9.182935e+01	-1.742653e+01
9.235975e+01	-1.747672e+01
9.289321e+01	-1.752543e+01
9.342976e+01	-1.757546e+01
9.396941e+01	-1.762392e+01
9.451217e+01	-1.767224e+01
9.505807e+01	-1.772148e+01
9.560712e+01	-1.777060e+01
9.615934e+01	-1.782143e+01
9.671476e+01	-1.786964e+01
9.727338e+01	-1.791870e+01
9.783522e+01	-1.796951e+01
9.840032e+01	-1.801685e+01
9.896867e+01	-1.806579e+01
9.954031e+01	-1.811585e+01
1.001153e+02	-1.816570e+01
1.006935e+02	-1.821472e+01
1.012751e+02	-1.826486e+01
1.018601e+02	-1.831151e+01
1.024484e+02	-1.836222e+01
1.030402e+02	-1.841134e+01
1.036353e+02	-1.846031e+01
1.042339e+02	-1.851014e+01
1.048360e+02	-1.856067e+01
1.054415e+02	-1.860938e+01
1.060505e+02	-1.865841e+01
1.066631e+02	-1.870842e+01
1.072791e+02	-1.875650e+01
1.078988e+02	-1.880628e+01
1.085220e+02	-1.885634e+01
1.091488e+02	-1.890423e+01
1.097793e+02	-1.895505e+01
1.104133e+02	-1.900365e+01
1.110511e+02	-1.905308e+01
1.116925e+02	-1.910223e+01
1.123376e+02	-1.915308e+01
1.129865e+02	-1.920185e+01
1.136391e+02	-1.925181e+01
1.142955e+02	-1.930003e+01
1.149556e+02	-1.934945e+01
1.156196e+02	-1.940002e+01
1.162874e+02	-1.944810e+01
1.169591e+02	-1.949952e+01
1.176347e+02	-1.954697e+01
1.183141e+02	-1.959713e+01
1.189975e+02	-1.964715e+01
1.196848e+02	-1.969730e+01
1.203761e+02	-1.974603e+01
1.210714e+02	-1.979506e+01
1.217707e+02	-1.984384e+01
1.224740e+02	-1.989425e+01
1.231814e+02	-1.994284e+01
1.238929e+02	-1.999332e+01
1.246085e+02	-2.004169e+01
1.253283e+02	-2.009400e+01
1.260522e+02	-2.014279e+01
1.267802e+02	-2.019129e+01
1.275125e+02	-2.024100e+01
1.282490e+02	-2.028999e+01
1.289898e+02	-2.034026e+01
1.297348e+02	-2.039043e+01
1.304842e+02	-2.043962e+01
1.312378e+02	-2.048843e+01
1.319959e+02	-2.053812e+01
1.327583e+02	-2.058731e+01
1.335251e+02	-2.063708e+01
1.342963e+02	-2.068773e+01
1.350720e+02	-2.073658e+01
1.358522e+02	-2.078609e+01
1.366368e+02	-2.083541e+01
1.374260e+02	-2.088799e+01
1.382198e+02	-2.093592e+01
1.390182e+02	-2.098389e+01
1.398211e+02	-2.103573e+01
1.406287e+02	-2.108349e+01
1.414410e+02	-2.113359e+01
1.422579e+02	-2.118201e+01
1.430796e+02	-2.123351e+01
1.439060e+02	-2.128383e+01
1.447372e+02	-2.133224e+01
1.455732e+02	-2.138089e+01
1.464141e+02	-2.143423e+01
1.472597e+02	-2.148028e+01
1.481103e+02	-2.153145e+01
1.489658e+02	-2.158137e+01
1.498262e+02	-2.163326e+01
1.506916e+02	-2.168001e+01
1.515620e+02	-2.172996e+01
1.524374e+02	-2.177953e+01
1.533179e+02	-2.182816e+01
1.542034e+02	-2.188023e+01
1.550941e+02	-2.193051e+01
1.559899e+02	-2.197883e+01
1.568909e+02	-2.202692e+01
1.577971e+02	-2.207850e+01
1.587085e+02	-2.212758e+01
1.596252e+02	-2.217673e+01
1.605472e+02	-2.222973e+01
1.614745e+02	-2.227841e+01
1.624072e+02	-2.232583e+01
1.633453e+02	-2.237635e+01
1.642887e+02	-2.242715e+01
1.652377e+02	-2.247527e+01
1.661921e+02	-2.252596e+01
1.671520e+02	-2.257596e+01
1.681175e+02	-2.262612e+01
1.690885e+02	-2.267517e+01
1.700651e+02	-2.272298e+01
1.710474e+02	-2.277558e+01
1.720354e+02	-2.282576e+01
1.730291e+02	-2.287344e+01
1.740285e+02	-2.292393e+01
1.750337e+02	-2.297501e+01
1.760446e+02	-2.302452e+01
1.770615e+02	-2.307204e+01
1.780842e+02	-2.312557e+01
1.791128e+02	-2.316989e+01
1.801473e+02	-2.322319e+01
1.811878e+02	-2.327209e+01
1.822344e+02	-2.332136e+01
1.832870e+02	-2.337232e+01
1.843456e+02	-2.342150e+01
1.854104e+02	-2.347327e+01
1.864813e+02	-2.352272e+01
1.875584e+02	-2.357317e+01
1.886418e+02	-2.362308e+01
1.897313e+02	-2.367285e+01
1.908272e+02	-2.372020e+01
1.919294e+02	-2.377174e+01
1.930380e+02	-2.382197e+01
1.941530e+02	-2.387243e+01
1.952744e+02	-2.392217e+01
1.964023e+02	-2.396923e+01
1.975367e+02	-2.402133e+01
1.986777e+02	-2.407133e+01
1.998252e+02	-2.412032e+01
2.009794e+02	-2.416813e+01
2.021403e+02	-2.421988e+01
2.033078e+02	-2.427282e+01
2.044821e+02	-2.432081e+01
2.056632e+02	-2.437005e+01
2.068511e+02	-2.441788e+01
2.080459e+02	-2.446829e+01
2.092475e+02	-2.451933e+01
2.104561e+02	-2.457087e+01
2.116717e+02	-2.461899e+01
2.128943e+02	-2.466890e+01
2.141240e+02	-2.471833e+01
2.153608e+02	-2.476918e+01
2.166047e+02	-2.482170e+01
2.178558e+02	-2.486949e+01
2.191141e+02	-2.492177e+01
2.203797e+02	-2.496641e+01
2.216526e+02	-2.502224e+01
2.229329e+02	-2.507128e+01
2.242205e+02	-2.512180e+01
2.255156e+02	-2.516854e+01
2.268182e+02	-2.521808e+01
2.281283e+02	-2.526748e+01
2.294459e+02	-2.531867e+01
2.307712e+02	-2.536716e+01
2.321041e+02	-2.541716e+01
2.334447e+02	-2.546646e+01
2.347931e+02	-2.551861e+01
2.361493e+02	-2.556728e+01
2.375133e+02	-2.561691e+01
2.388851e+02	-2.566990e+01
2.402649e+02	-2.571488e+01
2.416527e+02	-2.576589e+01
2.430484e+02	-2.582159e+01
2.444523e+02	-2.586744e+01
2.458642e+02	-2.591661e+01
2.472843e+02	-2.596666e+01
2.487126e+02	-2.601593e+01
2.501492e+02	-2.606891e+01
2.515940e+02	-2.611818e+01
2.530472e+02	-2.616805e+01
2.545088e+02	-2.622030e+01
2.559789e+02	-2.626820e+01
2.574574e+02	-2.631886e+01
2.589444e+02	-2.636710e+01
2.604401e+02	-2.641636e+01
2.619444e+02	-2.646384e+01
2.634574e+02	-2.651713e+01
2.649791e+02	-2.656311e+01
2.665096e+02	-2.661746e+01
2.680489e+02	-2.666437e+01
2.695972e+02	-2.671852e+01
2.711544e+02	-2.676737e+01
2.727205e+02	-2.681637e+01
2.742958e+02	-2.686893e+01
2.758801e+02	-2.691852e+01
2.774736e+02	-2.697025e+01
2.790762e+02	-2.701558e+01
2.806882e+02	-2.706586e+01
2.823094e+02	-2.711850e+01
2.839400e+02	-2.716855e+01
2.855800e+02	-2.721602e+01
2.872295e+02	-2.726844e+01
2.888886e+02	-2.731380e+01
2.905572e+02	-2.736827e+01
2.922354e+02	-2.741346e+01
2.939234e+02	-2.746640e+01
2.956211e+02	-2.751412e+01
2.973286e+02	-2.756665e+01
2.990459e+02	-2.761900e+01
3.007732e+02	-2.766834e+01
3.025104e+02	-2.771435e+01
3.042577e+02	-2.776751e+01
3.060151e+02	-2.781907e+01
3.077826e+02	-2.786648e+01
3.095604e+02	-2.791737e+01
3.113484e+02	-2.796772e+01
3.131467e+02	-2.801609e+01
3.149554e+02	-2.806611e+01
3.167746e+02	-2.812045e+01
3.186043e+02	-2.816882e+01
3.204445e+02	-2.821237e+01
3.222954e+02	-2.826329e+01
3.241570e+02	-2.831765e+01
3.260293e+02	-2.836716e+01
3.279124e+02	-2.841869e+01
3.298064e+02	-2.846684e+01
3.317114e+02	-2.851267e+01
3.336273e+02	-2.856691e+01
3.355544e+02	-2.861674e+01
3.374925e+02	-2.866803e+01
3.394418e+02	-2.871525e+01
3.414024e+02	-2.876269e+01
3.433744e+02	-2.881294e+01
3.453577e+02	-2.886323e+01
3.473525e+02	-2.892163e+01
3.493588e+02	-2.896530e+01
3.513766e+02	-2.901621e+01
3.534062e+02	-2.906344e+01
3.554474e+02	-2.911958e+01
3.575005e+02	-2.916446e+01
3.595654e+02	-2.921323e+01
3.616422e+02	-2.926425e+01
3.637311e+02	-2.932029e+01
3.658320e+02	-2.936900e+01
3.679450e+02	-2.941604e+01
3.700702e+02	-2.947229e+01
3.722077e+02	-2.951835e+01
3.743576e+02	-2.957102e+01
3.765199e+02	-2.961807e+01
3.786946e+02	-2.966754e+01
3.808820e+02	-2.971703e+01
3.830819e+02	-2.976993e+01
3.852946e+02	-2.981941e+01
3.875200e+02	-2.987014e+01
3.897583e+02	-2.992009e+01
3.920096e+02	-2.996948e+01
3.942738e+02	-3.001864e+01
3.965511e+02	-3.007251e+01
3.988416e+02	-3.011668e+01
4.011452e+02	-3.016804e+01
4.034622e+02	-3.021994e+01
4.057926e+02	-3.026303e+01
4.081365e+02	-3.032281e+01
4.104938e+02	-3.036403e+01
4.128648e+02	-3.042019e+01
4.152495e+02	-3.046905e+01
4.176480e+02	-3.051874e+01
4.200603e+02	-3.056941e+01
4.224866e+02	-3.062241e+01
4.249268e+02	-3.067378e+01
4.273812e+02	-3.071473e+01
4.298497e+02	-3.076785e+01
4.323325e+02	-3.082059e+01
4.348297e+02	-3.087243e+01
4.373412e+02	-3.091781e+01
4.398673e+02	-3.097013e+01
4.424079e+02	-3.102561e+01
4.449633e+02	-3.107227e+01
4.475334e+02	-3.112062e+01
4.501183e+02	-3.117680e+01
4.527182e+02	-3.122592e+01
4.553330e+02	-3.127635e+01
4.579630e+02	-3.132327e+01
4.606082e+02	-3.137675e+01
4.632687e+02	-3.142016e+01
4.659445e+02	-3.147534e+01
4.686358e+02	-3.152283e+01
4.713426e+02	-3.157289e+01
4.740650e+02	-3.162178e+01
4.768032e+02	-3.166872e+01
4.795572e+02	-3.171712e+01
4.823271e+02	-3.177744e+01
4.851130e+02	-3.182664e+01
4.879150e+02	-3.187489e+01
4.907332e+02	-3.192676e+01
4.935676e+02	-3.196988e+01
4.964185e+02	-3.202896e+01
4.992858e+02	-3.207939e+01
5.021696e+02	-3.212370e+01
5.050701e+02	-3.217389e+01
5.079874e+02	-3.222850e+01
5.109215e+02	-3.227482e+01
5.138726e+02	-3.232743e+01
5.168407e+02	-3.237757e+01
5.198259e+02	-3.242989e+01
5.228284e+02	-3.248717e+01
5.258482e+02	-3.252688e+01
5.288855e+02	-3.257811e+01
5.319403e+02	-3.262804e+01
5.350128e+02	-3.267080e+01
5.381030e+02	-3.272776e+01
5.412111e+02	-3.277893e+01
5.443371e+02	-3.282885e+01
5.474812e+02	-3.288014e+01
5.506434e+02	-3.293178e+01
5.538239e+02	-3.297812e+01
5.570228e+02	-3.303243e+01
5.602401e+02	-3.307689e+01
5.634760e+02	-3.312859e+01
5.667306e+02	-3.317122e+01
5.700040e+02	-3.323151e+01
5.732964e+02	-3.328402e+01
5.766077e+02	-3.333001e+01
5.799382e+02	-3.338089e+01
5.832879e+02	-3.343192e+01
5.866569e+02	-3.347715e+01
5.900454e+02	-3.352518e+01
5.934535e+02	-3.358721e+01
5.968813e+02	-3.362960e+01
6.003288e+02	-3.368456e+01
6.037963e+02	-3.373396e+01
6.072838e+02	-3.377735e+01
6.107914e+02	-3.383561e+01
6.143194e+02	-3.387794e+01
6.178676e+02	-3.393885e+01
6.214364e+02	-3.399110e+01
6.250258e+02	-3.402781e+01
6.286359e+02	-3.407543e+01
6.322669e+02	-3.413287e+01
6.359189e+02	-3.419302e+01
6.395919e+02	-3.423455e+01
6.432862e+02	-3.428565e+01
6.470017e+02	-3.433400e+01
6.507388e+02	-3.438929e+01
6.544974e+02	-3.443177e+01
6.582778e+02	-3.448925e+01
6.620800e+02	-3.453984e+01
6.659041e+02	-3.458615e+01
6.697504e+02	-3.463876e+01
6.736188e+02	-3.468478e+01
6.775096e+02	-3.473341e+01
6.814229e+02	-3.479049e+01
6.853587e+02	-3.483784e+01
6.893173e+02	-3.488725e+01
6.932988e+02	-3.494695e+01
6.973033e+02	-3.499207e+01
7.013309e+02	-3.504056e+01
