Frequency(Hz)	Magnitude(dB)
1.000000e+01	-2.097022e+00
1.005776e+01	-2.116143e+00
1.011585e+01	-2.135366e+00
1.017428e+01	-2.154961e+00
1.023305e+01	-2.174489e+00
1.029215e+01	-2.194412e+00
1.035160e+01	-2.214319e+00
1.041139e+01	-2.234326e+00
1.047153e+01	-2.254481e+00
1.053201e+01	-2.275099e+00
1.059284e+01	-2.295402e+00
1.065403e+01	-2.315808e+00
1.071556e+01	-2.336685e+00
1.077746e+01	-2.357472e+00
1.083971e+01	-2.378525e+00
1.090232e+01	-2.399648e+00
1.096529e+01	-2.421084e+00
1.102862e+01	-2.442605e+00
1.109232e+01	-2.464386e+00
1.115639e+01	-2.485702e+00
1.122083e+01	-2.507610e+00
1.128564e+01	-2.529681e+00
1.135083e+01	-2.551981e+00
1.141639e+01	-2.574014e+00
1.148233e+01	-2.596795e+00
1.154865e+01	-2.619232e+00
1.161536e+01	-2.641902e+00
1.168245e+01	-2.664652e+00
1.174992e+01	-2.687804e+00
1.181779e+01	-2.710943e+00
1.188605e+01	-2.734113e+00
1.195470e+01	-2.757929e+00
1.202375e+01	-2.781549e+00
1.209320e+01	-2.804997e+00
1.216305e+01	-2.828954e+00
1.223330e+01	-2.852907e+00
1.230396e+01	-2.877052e+00
1.237503e+01	-2.901622e+00
1.244651e+01	-2.926133e+00
1.251840e+01	-2.950389e+00
1.259070e+01	-2.975254e+00
1.266343e+01	-3.000073e+00
1.273657e+01	-3.025113e+00
1.281014e+01	-3.050537e+00
1.288413e+01	-3.075490e+00
1.295855e+01	-3.101061e+00
1.303339e+01	-3.126702e+00
1.310867e+01	-3.152382e+00
1.318439e+01	-3.178197e+00
1.326054e+01	-3.204353e+00
1.333713e+01	-3.230432e+00
1.341417e+01	-3.256993e+00
1.349165e+01	-3.283213e+00
1.356958e+01	-3.309849e+00
1.364795e+01	-3.336684e+00
1.372678e+01	-3.363445e+00
1.380607e+01	-3.390519e+00
1.388581e+01	-3.417528e+00
1.396602e+01	-3.444968e+00
1.404668e+01	-3.472679e+00
1.412782e+01	-3.500205e+00
1.420942e+01	-3.528092e+00
1.429149e+01	-3.555664e+00
1.437404e+01	-3.583784e+00
1.445706e+01	-3.611876e+00
1.454057e+01	-3.640376e+00
1.462455e+01	-3.668865e+00
1.470902e+01	-3.697347e+00
1.479398e+01	-3.726213e+00
1.487943e+01	-3.755074e+00
1.496537e+01	-3.784072e+00
1.505181e+01	-3.813222e+00
1.513875e+01	-3.842419e+00
1.522619e+01	-3.871995e+00
1.531414e+01	-3.901573e+00
1.540259e+01	-3.931264e+00
1.549156e+01	-3.961261e+00
1.558103e+01	-3.991340e+00
1.567103e+01	-4.021010e+00
1.576155e+01	-4.051478e+00
1.585258e+01	-4.081948e+00
1.594415e+01	-4.112440e+00
1.603624e+01	-4.143187e+00
1.612886e+01	-4.174161e+00
1.622202e+01	-4.204872e+00
1.631572e+01	-4.235998e+00
1.640996e+01	-4.267194e+00
1.650474e+01	-4.298793e+00
1.660008e+01	-4.330069e+00
1.669596e+01	-4.361818e+00
1.679239e+01	-4.393534e+00
1.688938e+01	-4.425564e+00
1.698694e+01	-4.457644e+00
1.708505e+01	-4.489406e+00
1.718373e+01	-4.522034e+00
1.728299e+01	-4.554382e+00
1.738281e+01	-4.587094e+00
1.748322e+01	-4.619660e+00
1.758420e+01	-4.652565e+00
1.768576e+01	-4.685213e+00
1.778792e+01	-4.718512e+00
1.789066e+01	-4.751664e+00
1.799399e+01	-4.785043e+00
1.809793e+01	-4.818529e+00
1.820246e+01	-4.852003e+00
1.830760e+01	-4.885628e+00
1.841334e+01	-4.919551e+00
1.851969e+01	-4.953706e+00
1.862666e+01	-4.987852e+00
1.873425e+01	-5.022125e+00
1.884246e+01	-5.056323e+00
1.895129e+01	-5.090900e+00
1.906075e+01	-5.125264e+00
1.917085e+01	-5.160091e+00
1.928158e+01	-5.195004e+00
1.939295e+01	-5.229650e+00
1.950496e+01	-5.265097e+00
1.961762e+01	-5.300423e+00
1.973093e+01	-5.335740e+00
1.984490e+01	-5.371151e+00
1.995952e+01	-5.406783e+00
2.007480e+01	-5.442236e+00
2.019076e+01	-5.478097e+00
2.030738e+01	-5.514044e+00
2.042467e+01	-5.549925e+00
2.054264e+01	-5.586158e+00
2.066130e+01	-5.622413e+00
2.078064e+01	-5.658898e+00
2.090066e+01	-5.694810e+00
2.102139e+01	-5.731866e+00
2.114280e+01	-5.768463e+00
2.126492e+01	-5.805273e+00
2.138775e+01	-5.842257e+00
2.151128e+01	-5.879358e+00
2.163553e+01	-5.916676e+00
2.176050e+01	-5.953721e+00
2.188619e+01	-5.991173e+00
2.201260e+01	-6.028743e+00
2.213974e+01	-6.066331e+00
2.226762e+01	-6.104197e+00
2.239624e+01	-6.141531e+00
2.252560e+01	-6.179781e+00
2.265571e+01	-6.217664e+00
2.278656e+01	-6.255829e+00
2.291818e+01	-6.293906e+00
2.305055e+01	-6.332228e+00
2.318369e+01	-6.370804e+00
2.331760e+01	-6.409442e+00
2.345228e+01	-6.447950e+00
2.358774e+01	-6.486445e+00
2.372398e+01	-6.525492e+00
2.386101e+01	-6.564540e+00
2.399883e+01	-6.603577e+00
2.413745e+01	-6.642691e+00
2.427686e+01	-6.681540e+00
2.441709e+01	-6.721458e+00
2.455812e+01	-6.761066e+00
2.469997e+01	-6.800371e+00
2.484263e+01	-6.839734e+00
2.498612e+01	-6.879414e+00
2.513044e+01	-6.919264e+00
2.527559e+01	-6.959244e+00
2.542158e+01	-6.999337e+00
2.556842e+01	-7.039461e+00
2.571610e+01	-7.079502e+00
2.586463e+01	-7.119820e+00
2.601403e+01	-7.159965e+00
2.616428e+01	-7.200674e+00
2.631541e+01	-7.241435e+00
2.646740e+01	-7.281677e+00
2.662028e+01	-7.322664e+00
2.677404e+01	-7.363528e+00
2.692868e+01	-7.404224e+00
2.708422e+01	-7.445052e+00
2.724066e+01	-7.486117e+00
2.739800e+01	-7.527328e+00
2.755625e+01	-7.568177e+00
2.771541e+01	-7.609744e+00
2.787550e+01	-7.651344e+00
2.803650e+01	-7.692638e+00
2.819844e+01	-7.734359e+00
2.836131e+01	-7.776233e+00
2.852513e+01	-7.818166e+00
2.868989e+01	-7.859519e+00
2.885560e+01	-7.901397e+00
2.902227e+01	-7.943679e+00
2.918990e+01	-7.985673e+00
2.935850e+01	-8.027492e+00
2.952807e+01	-8.070021e+00
2.969863e+01	-8.111597e+00
2.987016e+01	-8.154678e+00
3.004269e+01	-8.196721e+00
3.021622e+01	-8.239202e+00
3.039075e+01	-8.281682e+00
3.056628e+01	-8.324564e+00
3.074283e+01	-8.367052e+00
3.092040e+01	-8.410092e+00
3.109900e+01	-8.452451e+00
3.127862e+01	-8.495342e+00
3.145929e+01	-8.538617e+00
3.164099e+01	-8.581554e+00
3.182375e+01	-8.624744e+00
3.200756e+01	-8.667906e+00
3.219244e+01	-8.711351e+00
3.237838e+01	-8.754608e+00
3.256540e+01	-8.798198e+00
3.275349e+01	-8.842019e+00
3.294268e+01	-8.884863e+00
3.313295e+01	-8.928693e+00
3.332433e+01	-8.972599e+00
3.351681e+01	-9.016469e+00
3.371040e+01	-9.059663e+00
3.390511e+01	-9.103537e+00
3.410094e+01	-9.147840e+00
3.429791e+01	-9.191455e+00
3.449601e+01	-9.235883e+00
3.469526e+01	-9.279500e+00
3.489566e+01	-9.323634e+00
3.509721e+01	-9.367898e+00
3.529993e+01	-9.411878e+00
3.550382e+01	-9.456540e+00
3.570889e+01	-9.501018e+00
3.591515e+01	-9.545469e+00
3.612259e+01	-9.589715e+00
3.633123e+01	-9.634552e+00
3.654108e+01	-9.678732e+00
3.675214e+01	-9.723631e+00
3.696442e+01	-9.768425e+00
3.717792e+01	-9.813574e+00
3.739266e+01	-9.857635e+00
3.760864e+01	-9.902490e+00
3.782587e+01	-9.948054e+00
3.804435e+01	-9.992866e+00
3.826409e+01	-1.003794e+01
3.848510e+01	-1.008313e+01
3.870739e+01	-1.012824e+01
3.893096e+01	-1.017321e+01
3.915583e+01	-1.021853e+01
3.938199e+01	-1.026355e+01
3.960946e+01	-1.030882e+01
3.983824e+01	-1.035483e+01
4.006834e+01	-1.040014e+01
4.029978e+01	-1.044500e+01
4.053255e+01	-1.049083e+01
4.076666e+01	-1.053690e+01
4.100213e+01	-1.058215e+01
4.123896e+01	-1.062772e+01
4.147715e+01	-1.067367e+01
4.171672e+01	-1.071912e+01
4.195767e+01	-1.076491e+01
4.220002e+01	-1.081065e+01
4.244377e+01	-1.085711e+01
4.268892e+01	-1.090248e+01
4.293549e+01	-1.094854e+01
4.318348e+01	-1.099472e+01
4.343291e+01	-1.104106e+01
4.368377e+01	-1.108712e+01
4.393609e+01	-1.113307e+01
4.418986e+01	-1.117989e+01
4.444510e+01	-1.122590e+01
4.470182e+01	-1.127217e+01
4.496001e+01	-1.131833e+01
4.521970e+01	-1.136495e+01
4.548089e+01	-1.141034e+01
4.574358e+01	-1.145741e+01
4.600779e+01	-1.150366e+01
4.627353e+01	-1.155023e+01
4.654081e+01	-1.159731e+01
4.680963e+01	-1.164405e+01
4.708000e+01	-1.168980e+01
4.735193e+01	-1.173679e+01
4.762543e+01	-1.178344e+01
4.790051e+01	-1.182985e+01
4.817719e+01	-1.187667e+01
4.845545e+01	-1.192321e+01
4.873533e+01	-1.197081e+01
4.901682e+01	-1.201672e+01
4.929994e+01	-1.206421e+01
4.958470e+01	-1.211101e+01
4.987110e+01	-1.215855e+01
5.015915e+01	-1.220552e+01
5.044887e+01	-1.225269e+01
5.074026e+01	-1.229895e+01
5.103333e+01	-1.234652e+01
5.132810e+01	-1.239358e+01
5.162457e+01	-1.244055e+01
5.192275e+01	-1.248797e+01
5.222265e+01	-1.253523e+01
5.252429e+01	-1.258249e+01
5.282767e+01	-1.263006e+01
5.313280e+01	-1.267679e+01
5.343969e+01	-1.272513e+01
5.374836e+01	-1.277192e+01
5.405880e+01	-1.281927e+01
5.437105e+01	-1.286696e+01
5.468509e+01	-1.291410e+01
5.500095e+01	-1.296173e+01
5.531863e+01	-1.300974e+01
5.563815e+01	-1.305685e+01
5.595951e+01	-1.310420e+01
5.628273e+01	-1.315110e+01
5.660782e+01	-1.319900e+01
5.693479e+01	-1.324712e+01
5.726364e+01	-1.329477e+01
5.759439e+01	-1.334220e+01
5.792705e+01	-1.338959e+01
5.826164e+01	-1.343754e+01
5.859815e+01	-1.348474e+01
5.893662e+01	-1.353360e+01
5.927703e+01	-1.358193e+01
5.961941e+01	-1.362876e+01
5.996377e+01	-1.367715e+01
6.031012e+01	-1.372533e+01
6.065847e+01	-1.377281e+01
6.100883e+01	-1.382047e+01
6.136121e+01	-1.386901e+01
6.171563e+01	-1.391683e+01
6.207210e+01	-1.396513e+01
6.243063e+01	-1.401241e+01
6.279122e+01	-1.406097e+01
6.315390e+01	-1.410945e+01
6.351868e+01	-1.415660e+01
6.388556e+01	-1.420507e+01
6.425456e+01	-1.425425e+01
6.462569e+01	-1.430174e+01
6.499897e+01	-1.435014e+01
6.537440e+01	-1.439742e+01
6.575200e+01	-1.444598e+01
6.613178e+01	-1.449462e+01
6.651375e+01	-1.454197e+01
6.689793e+01	-1.459026e+01
6.728433e+01	-1.463852e+01
6.767297e+01	-1.468714e+01
6.806384e+01	-1.473590e+01
6.845698e+01	-1.478457e+01
6.885238e+01	-1.483307e+01
6.925007e+01	-1.488033e+01
6.965005e+01	-1.492928e+01
7.005235e+01	-1.497722e+01
7.045697e+01	-1.502614e+01
7.086393e+01	-1.507472e+01
7.127323e+01	-1.512259e+01
7.168490e+01	-1.517169e+01
7.209895e+01	-1.522073e+01
7.251539e+01	-1.526805e+01
7.293424e+01	-1.531734e+01
7.335551e+01	-1.536594e+01
7.377920e+01	-1.541453e+01
7.420535e+01	-1.546212e+01
7.463396e+01	-1.551127e+01
7.506504e+01	-1.556032e+01
7.549861e+01	-1.560794e+01
7.593469e+01	-1.565722e+01
7.637328e+01	-1.570575e+01
7.681441e+01	-1.575418e+01
7.725809e+01	-1.580354e+01
7.770433e+01	-1.585132e+01
7.815315e+01	-1.590115e+01
7.860456e+01	-1.594946e+01
7.905857e+01	-1.599932e+01
7.951521e+01	-1.604682e+01
7.997449e+01	-1.609617e+01
8.043642e+01	-1.614479e+01
8.090102e+01	-1.619507e+01
8.136830e+01	-1.624200e+01
8.183828e+01	-1.629180e+01
8.231097e+01	-1.634105e+01
8.278640e+01	-1.638949e+01
8.326457e+01	-1.643771e+01
8.374550e+01	-1.648723e+01
8.422921e+01	-1.653625e+01
8.471572e+01	-1.658435e+01
8.520503e+01	-1.663408e+01
8.569717e+01	-1.668237e+01
8.619215e+01	-1.673157e+01
8.669000e+01	-1.678057e+01
8.719071e+01	-1.682934e+01
8.769432e+01	-1.687901e+01
8.820084e+01	-1.692788e+01
8.871029e+01	-1.697575e+01
8.922267e+01	-1.702463e+01
8.973802e+01	-1.707392e+01
9.025634e+01	-1.712413e+01
9.077766e+01	-1.717166e+01
9.130199e+01	-1.722086e+01
9.182935e+01	-1.727013e+01
9.235975e+01	-1.731901e+01
9.289321e+01	-1.736856e+01
9.342976e+01	-1.741727e+01
9.396941e+01	-1.746729e+01
9.451217e+01	-1.751777e+01
9.505807e+01	-1.756634e+01
9.560712e+01	-1.761500e+01
9.615934e+01	-1.766285e+01
9.671476e+01	-1.771315e+01
9.727338e+01	-1.776226e+01
9.783522e+01	-1.781304e+01
9.840032e+01	-1.786127e+01
9.896867e+01	-1.790993e+01
9.954031e+01	-1.795864e+01
1.001153e+02	-1.800742e+01
1.006935e+02	-1.805812e+01
1.012751e+02	-1.810801e+01
1.018601e+02	-1.815600e+01
1.024484e+02	-1.820564e+01
1.030402e+02	-1.825382e+01
1.036353e+02	-1.830340e+01
1.042339e+02	-1.835288e+01
1.048360e+02	-1.840308e+01
1.054415e+02	-1.845339e+01
1.060505e+02	-1.850116e+01
1.066631e+02	-1.855006e+01
1.072791e+02	-1.860002e+01
1.078988e+02	-1.864924e+01
1.085220e+02	-1.869832e+01
1.091488e+02	-1.874798e+01
1.097793e+02	-1.879689e+01
1.104133e+02	-1.884671e+01
1.110511e+02	-1.889605e+01
1.116925e+02	-1.894616e+01
1.123376e+02	-1.899398e+01
1.129865e+02	-1.904526e+01
1.136391e+02	-1.909269e+01
1.142955e+02	-1.914329e+01
1.149556e+02	-1.919384e+01
1.156196e+02	-1.924155e+01
1.162874e+02	-1.929164e+01
1.169591e+02	-1.934189e+01
1.176347e+02	-1.939004e+01
1.183141e+02	-1.943924e+01
1.189975e+02	-1.948970e+01
1.196848e+02	-1.953761e+01
1.203761e+02	-1.958784e+01
1.210714e+02	-1.963921e+01
1.217707e+02	-1.968707e+01
1.224740e+02	-1.973585e+01
1.231814e+02	-1.978423e+01
1.238929e+02	-1.983352e+01
1.246085e+02	-1.988565e+01
1.253283e+02	-1.993446e+01
1.260522e+02	-1.998465e+01
1.267802e+02	-2.003490e+01
1.275125e+02	-2.008236e+01
1.282490e+02	-2.013275e+01
1.289898e+02	-2.018367e+01
1.297348e+02	-2.023280e+01
1.304842e+02	-2.028125e+01
1.312378e+02	-2.033240e+01
1.319959e+02	-2.038062e+01
1.327583e+02	-2.043117e+01
1.335251e+02	-2.047939e+01
1.342963e+02	-2.052831e+01
1.350720e+02	-2.057855e+01
1.358522e+02	-2.062786e+01
1.366368e+02	-2.067842e+01
1.374260e+02	-2.072733e+01
1.382198e+02	-2.077772e+01
1.390182e+02	-2.082538e+01
1.398211e+02	-2.087681e+01
1.406287e+02	-2.092534e+01
1.414410e+02	-2.097694e+01
1.422579e+02	-2.102503e+01
1.430796e+02	-2.107313e+01
1.439060e+02	-2.112521e+01
1.447372e+02	-2.117468e+01
1.455732e+02	-2.122404e+01
1.464141e+02	-2.127254e+01
1.472597e+02	-2.132360e+01
1.481103e+02	-2.137398e+01
1.489658e+02	-2.142286e+01
1.498262e+02	-2.147243e+01
1.506916e+02	-2.152061e+01
1.515620e+02	-2.157054e+01
1.524374e+02	-2.162109e+01
1.533179e+02	-2.167198e+01
1.542034e+02	-2.172009e+01
1.550941e+02	-2.176903e+01
1.559899e+02	-2.182138e+01
1.568909e+02	-2.186959e+01
1.577971e+02	-2.191929e+01
1.587085e+02	-2.197035e+01
1.596252e+02	-2.201818e+01
1.605472e+02	-2.206966e+01
1.614745e+02	-2.211860e+01
1.624072e+02	-2.216773e+01
1.633453e+02	-2.221706e+01
1.642887e+02	-2.226734e+01
1.652377e+02	-2.231706e+01
1.661921e+02	-2.236698e+01
1.671520e+02	-2.241676e+01
1.681175e+02	-2.246629e+01
1.690885e+02	-2.251788e+01
1.700651e+02	-2.256500e+01
1.710474e+02	-2.261619e+01
1.720354e+02	-2.266483e+01
1.730291e+02	-2.271705e+01
1.740285e+02	-2.276756e+01
1.750337e+02	-2.281724e+01
1.760446e+02	-2.286290e+01
1.770615e+02	-2.291661e+01
1.780842e+02	-2.296648e+01
1.791128e+02	-2.301520e+01
1.801473e+02	-2.306343e+01
1.811878e+02	-2.311479e+01
1.822344e+02	-2.316451e+01
1.832870e+02	-2.321332e+01
1.843456e+02	-2.326363e+01
1.854104e+02	-2.331340e+01
1.864813e+02	-2.336465e+01
1.875584e+02	-2.341304e+01
1.886418e+02	-2.346200e+01
1.897313e+02	-2.351303e+01
1.908272e+02	-2.356389e+01
1.919294e+02	-2.361439e+01
1.930380e+02	-2.366054e+01
1.941530e+02	-2.371122e+01
1.952744e+02	-2.376230e+01
1.964023e+02	-2.380968e+01
1.975367e+02	-2.386254e+01
1.986777e+02	-2.391157e+01
1.998252e+02	-2.396218e+01
2.009794e+02	-2.400999e+01
2.021403e+02	-2.405951e+01
2.033078e+02	-2.411167e+01
2.044821e+02	-2.416083e+01
2.056632e+02	-2.420721e+01
2.068511e+02	-2.426060e+01
2.080459e+02	-2.430955e+01
2.092475e+02	-2.435795e+01
2.104561e+02	-2.441029e+01
2.116717e+02	-2.445898e+01
2.128943e+02	-2.451015e+01
2.141240e+02	-2.456032e+01
2.153608e+02	-2.461168e+01
2.166047e+02	-2.465944e+01
2.178558e+02	-2.471165e+01
2.191141e+02	-2.475903e+01
2.203797e+02	-2.480773e+01
2.216526e+02	-2.486033e+01
2.229329e+02	-2.491202e+01
2.242205e+02	-2.495823e+01
2.255156e+02	-2.501090e+01
2.268182e+02	-2.505732e+01
2.281283e+02	-2.510974e+01
2.294459e+02	-2.515822e+01
2.307712e+02	-2.521033e+01
2.321041e+02	-2.525554e+01
2.334447e+02	-2.530598e+01
2.347931e+02	-2.535761e+01
2.361493e+02	-2.540825e+01
2.375133e+02	-2.545703e+01
2.388851e+02	-2.550582e+01
2.402649e+02	-2.555923e+01
2.416527e+02	-2.560960e+01
2.430484e+02	-2.565423e+01
2.444523e+02	-2.570825e+01
2.458642e+02	-2.575699e+01
2.472843e+02	-2.580498e+01
2.487126e+02	-2.586073e+01
2.501492e+02	-2.591034e+01
2.515940e+02	-2.595774e+01
2.530472e+02	-2.600657e+01
2.545088e+02	-2.605916e+01
2.559789e+02	-2.610325e+01
2.574574e+02	-2.615883e+01
2.589444e+02	-2.620857e+01
2.604401e+02	-2.625720e+01
2.619444e+02	-2.630603e+01
2.634574e+02	-2.636050e+01
2.649791e+02	-2.640850e+01
2.665096e+02	-2.645768e+01
2.680489e+02	-2.650555e+01
2.695972e+02	-2.655614e+01
2.711544e+02	-2.660660e+01
2.727205e+02	-2.665551e+01
2.742958e+02	-2.670649e+01
2.758801e+02	-2.675513e+01
2.774736e+02	-2.680453e+01
2.790762e+02	-2.685889e+01
2.806882e+02	-2.690412e+01
2.823094e+02	-2.695522e+01
2.839400e+02	-2.700167e+01
2.855800e+02	-2.705794e+01
2.872295e+02	-2.710287e+01
2.888886e+02	-2.715602e+01
2.905572e+02	-2.720493e+01
2.922354e+02	-2.725617e+01
2.939234e+02	-2.730990e+01
2.956211e+02	-2.735806e+01
2.973286e+02	-2.740525e+01
2.990459e+02	-2.745445e+01
3.007732e+02	-2.750581e+01
3.025104e+02	-2.755599e+01
3.042577e+02	-2.760605e+01
3.060151e+02	-2.765478e+01
3.077826e+02	-2.770180e+01
3.095604e+02	-2.775503e+01
3.113484e+02	-2.780607e+01
3.131467e+02	-2.785511e+01
3.149554e+02	-2.790598e+01
3.167746e+02	-2.795748e+01
3.186043e+02	-2.800198e+01
3.204445e+02	-2.805946e+01
3.222954e+02	-2.810589e+01
3.241570e+02	-2.815378e+01
3.260293e+02	-2.820579e+01
3.279124e+02	-2.825716e+01
3.298064e+02	-2.830505e+01
3.317114e+02	-2.835522e+01
3.336273e+02	-2.840381e+01
3.355544e+02	-2.845857e+01
3.374925e+02	-2.851108e+01
3.394418e+02	-2.855741e+01
3.414024e+02	-2.860574e+01
3.433744e+02	-2.865860e+01
3.453577e+02	-2.870549e+01
3.473525e+02	-2.875849e+01
3.493588e+02	-2.880390e+01
3.513766e+02	-2.885340e+01
3.534062e+02	-2.890787e+01
3.554474e+02	-2.895980e+01
3.575005e+02	-2.900656e+01
3.595654e+02	-2.906014e+01
3.616422e+02	-2.910467e+01
3.637311e+02	-2.915775e+01
3.658320e+02	-2.920993e+01
3.679450e+02	-2.925181e+01
3.700702e+02	-2.930581e+01
3.722077e+02	-2.935876e+01
3.743576e+02	-2.940600e+01
3.765199e+02	-2.945309e+01
3.786946e+02	-2.950817e+01
3.808820e+02	-2.956000e+01
3.830819e+02	-2.960911e+01
3.852946e+02	-2.965837e+01
3.875200e+02	-2.970843e+01
3.897583e+02	-2.976035e+01
3.920096e+02	-2.980740e+01
3.942738e+02	-2.985507e+01
3.965511e+02	-2.990794e+01
3.988416e+02	-2.996157e+01
4.011452e+02	-3.000960e+01
4.034622e+02	-3.005480e+01
4.057926e+02	-3.011293e+01
4.081365e+02	-3.015939e+01
4.104938e+02	-3.020894e+01
4.128648e+02	-3.025849e+01
4.152495e+02	-3.031104e+01
4.176480e+02	-3.036389e+01
4.200603e+02	-3.041158e+01
4.224866e+02	-3.045713e+01
4.249268e+02	-3.051123e+01
4.273812e+02	-3.055553e+01
4.298497e+02	-3.060746e+01
4.323325e+02	-3.066318e+01
4.348297e+02	-3.070538e+01
4.373412e+02	-3.075782e+01
4.398673e+02	-3.081182e+01
4.424079e+02	-3.085676e+01
4.449633e+02	-3.091220e+01
4.475334e+02	-3.096585e+01
4.501183e+02	-3.100921e+01
4.527182e+02	-3.106470e+01
4.553330e+02	-3.110957e+01
4.579630e+02	-3.116095e+01
4.606082e+02	-3.121284e+01
4.632687e+02	-3.125879e+01
4.659445e+02	-3.130814e+01
4.686358e+02	-3.135837e+01
4.713426e+02	-3.141047e+01
4.740650e+02	-3.146376e+01
4.768032e+02	-3.151176e+01
4.795572e+02	-3.156312e+01
4.823271e+02	-3.160564e+01
4.851130e+02	-3.166063e+01
4.879150e+02	-3.171098e+01
4.907332e+02	-3.175927e+01
4.935676e+02	-3.181051e+01
4.964185e+02	-3.185479e+01
4.992858e+02	-3.191375e+01
5.021696e+02	-3.196832e+01
5.050701e+02	-3.201070e+01
5.079874e+02	-3.205842e+01
5.109215e+02	-3.211035e+01
5.138726e+02	-3.215529e+01
5.168407e+02	-3.221015e+01
5.198259e+02	-3.226767e+01
5.228284e+02	-3.231410e+01
5.258482e+02	-3.236841e+01
5.288855e+02	-3.241787e+01
5.319403e+02	-3.246224e+01
5.350128e+02	-3.250558e+01
5.381030e+02	-3.256626e+01
5.412111e+02	-3.262040e+01
5.443371e+02	-3.266856e+01
5.474812e+02	-3.271401e+01
5.506434e+02	-3.276549e+01
5.538239e+02	-3.282377e+01
5.570228e+02	-3.286909e+01
5.602401e+02	-3.291725e+01
5.634760e+02	-3.297325e+01
5.667306e+02	-3.302612e+01
5.700040e+02	-3.306502e+01
5.732964e+02	-3.311901e+01
5.766077e+02	-3.317368e+01
5.799382e+02	-3.321961e+01
5.832879e+02	-3.327109e+01
5.866569e+02	-3.331704e+01
5.900454e+02	-3.336861e+01
5.934535e+02	-3.342134e+01
5.968813e+02	-3.346800e+01
6.003288e+02	-3.351993e+01
6.037963e+02	-3.357608e+01
6.072838e+02	-3.361223e+01
6.107914e+02	-3.366725e+01
6.143194e+02	-3.371812e+01
6.178676e+02	-3.376560e+01
6.214364e+02	-3.382540e+01
6.250258e+02	-3.387129e+01
6.286359e+02	-3.392380e+01
6.322669e+02	-3.396537e+01
6.359189e+02	-3.402596e+01
6.395919e+02	-3.406921e+01
6.432862e+02	-3.411140e+01
6.470017e+02	-3.416877e+01
6.507388e+02	-3.423028e+01
6.544974e+02	-3.427862e+01
6.582778e+02	-3.432405e+01
6.620800e+02	-3.437165e+01
6.659041e+02	-3.442441e+01
6.697504e+02	-3.448010e+01
6.736188e+02	-3.453006e+01
6.775096e+02	-3.456695e+01
6.814229e+02	-3.462870e+01
6.853587e+02	-3.467793e+01
6.893173e+02	-3.473594e+01
6.932988e+02	-3.477394e+01
6.973033e+02	-3.483165e+01
7.013309e+02	-3.487893e+01
