Frequency(Hz)	Magnitude(dB)
1.000000e+01	-2.035525e+00
1.005776e+01	-2.054309e+00
1.011585e+01	-2.073236e+00
1.017428e+01	-2.092238e+00
1.023305e+01	-2.111545e+00
1.029215e+01	-2.130621e+00
1.035160e+01	-2.150492e+00
1.041139e+01	-2.169833e+00
1.047153e+01	-2.189765e+00
1.053201e+01	-2.209397e+00
1.059284e+01	-2.229531e+00
1.065403e+01	-2.249632e+00
1.071556e+01	-2.269948e+00
1.077746e+01	-2.290336e+00
1.083971e+01	-2.311119e+00
1.090232e+01	-2.331543e+00
1.096529e+01	-2.352509e+00
1.102862e+01	-2.373386e+00
1.109232e+01	-2.394590e+00
1.115639e+01	-2.415808e+00
1.122083e+01	-2.437348e+00
1.128564e+01	-2.459029e+00
1.135083e+01	-2.480442e+00
1.141639e+01	-2.502270e+00
1.148233e+01	-2.524291e+00
1.154865e+01	-2.546638e+00
1.161536e+01	-2.568730e+00
1.168245e+01	-2.591310e+00
1.174992e+01	-2.613828e+00
1.181779e+01	-2.636492e+00
1.188605e+01	-2.659163e+00
1.195470e+01	-2.682392e+00
1.202375e+01	-2.705436e+00
1.209320e+01	-2.728565e+00
1.216305e+01	-2.751982e+00
1.223330e+01	-2.775821e+00
1.230396e+01	-2.799035e+00
1.237503e+01	-2.822942e+00
1.244651e+01	-2.847279e+00
1.251840e+01	-2.871173e+00
1.259070e+01	-2.895649e+00
1.266343e+01	-2.919976e+00
1.273657e+01	-2.944608e+00
1.281014e+01	-2.969230e+00
1.288413e+01	-2.994065e+00
1.295855e+01	-3.019122e+00
1.303339e+01	-3.044221e+00
1.310867e+01	-3.069427e+00
1.318439e+01	-3.094690e+00
1.326054e+01	-3.120202e+00
1.333713e+01	-3.146010e+00
1.341417e+01	-3.172443e+00
1.349165e+01	-3.197906e+00
1.356958e+01	-3.224162e+00
1.364795e+01	-3.250356e+00
1.372678e+01	-3.276805e+00
1.380607e+01	-3.303315e+00
1.388581e+01	-3.330209e+00
1.396602e+01	-3.356973e+00
1.404668e+01	-3.384049e+00
1.412782e+01	-3.410979e+00
1.420942e+01	-3.438698e+00
1.429149e+01	-3.465843e+00
1.437404e+01	-3.493315e+00
1.445706e+01	-3.520996e+00
1.454057e+01	-3.548902e+00
1.462455e+01	-3.577092e+00
1.470902e+01	-3.605371e+00
1.479398e+01	-3.633387e+00
1.487943e+01	-3.661764e+00
1.496537e+01	-3.690216e+00
1.505181e+01	-3.719127e+00
1.513875e+01	-3.747808e+00
1.522619e+01	-3.776880e+00
1.531414e+01	-3.806039e+00
1.540259e+01	-3.835260e+00
1.549156e+01	-3.864659e+00
1.558103e+01	-3.894330e+00
1.567103e+01	-3.924163e+00
1.576155e+01	-3.953953e+00
1.585258e+01	-3.983946e+00
1.594415e+01	-4.013563e+00
1.603624e+01	-4.044153e+00
1.612886e+01	-4.074666e+00
1.622202e+01	-4.105092e+00
1.631572e+01	-4.136010e+00
1.640996e+01	-4.166314e+00
1.650474e+01	-4.197379e+00
1.660008e+01	-4.228352e+00
1.669596e+01	-4.259730e+00
1.679239e+01	-4.290925e+00
1.688938e+01	-4.322461e+00
1.698694e+01	-4.354364e+00
1.708505e+01	-4.385907e+00
1.718373e+01	-4.417637e+00
1.728299e+01	-4.449732e+00
1.738281e+01	-4.481584e+00
1.748322e+01	-4.514018e+00
1.758420e+01	-4.546381e+00
1.768576e+01	-4.579131e+00
1.778792e+01	-4.611853e+00
1.789066e+01	-4.644401e+00
1.799399e+01	-4.677466e+00
1.809793e+01	-4.710504e+00
1.820246e+01	-4.743544e+00
1.830760e+01	-4.776558e+00
1.841334e+01	-4.810556e+00
1.851969e+01	-4.844117e+00
1.862666e+01	-4.877272e+00
1.873425e+01	-4.911380e+00
1.884246e+01	-4.945433e+00
1.895129e+01	-4.979648e+00
1.906075e+01	-5.013554e+00
1.917085e+01	-5.048313e+00
1.928158e+01	-5.082476e+00
1.939295e+01	-5.117101e+00
1.950496e+01	-5.151506e+00
1.961762e+01	-5.186321e+00
1.973093e+01	-5.221634e+00
1.984490e+01	-5.256241e+00
1.995952e+01	-5.291757e+00
2.007480e+01	-5.326962e+00
2.019076e+01	-5.362422e+00
2.030738e+01	-5.398030e+00
2.042467e+01	-5.433596e+00
2.054264e+01	-5.469087e+00
2.066130e+01	-5.505034e+00
2.078064e+01	-5.541338e+00
2.090066e+01	-5.577013e+00
2.102139e+01	-5.613551e+00
2.114280e+01	-5.649930e+00
2.126492e+01	-5.686463e+00
2.138775e+01	-5.722969e+00
2.151128e+01	-5.759669e+00
2.163553e+01	-5.796707e+00
2.176050e+01	-5.833143e+00
2.188619e+01	-5.870153e+00
2.201260e+01	-5.907732e+00
2.213974e+01	-5.944731e+00
2.226762e+01	-5.981897e+00
2.239624e+01	-6.019436e+00
2.252560e+01	-6.056953e+00
2.265571e+01	-6.094753e+00
2.278656e+01	-6.132395e+00
2.291818e+01	-6.170510e+00
2.305055e+01	-6.208350e+00
2.318369e+01	-6.246608e+00
2.331760e+01	-6.284951e+00
2.345228e+01	-6.323028e+00
2.358774e+01	-6.361613e+00
2.372398e+01	-6.399753e+00
2.386101e+01	-6.438584e+00
2.399883e+01	-6.477111e+00
2.413745e+01	-6.516397e+00
2.427686e+01	-6.554911e+00
2.441709e+01	-6.594361e+00
2.455812e+01	-6.633412e+00
2.469997e+01	-6.672459e+00
2.484263e+01	-6.711885e+00
2.498612e+01	-6.750902e+00
2.513044e+01	-6.790315e+00
2.527559e+01	-6.830231e+00
2.542158e+01	-6.869830e+00
2.556842e+01	-6.909891e+00
2.571610e+01	-6.949834e+00
2.586463e+01	-6.989929e+00
2.601403e+01	-7.029342e+00
2.616428e+01	-7.069460e+00
2.631541e+01	-7.110215e+00
2.646740e+01	-7.150026e+00
2.662028e+01	-7.190709e+00
2.677404e+01	-7.231393e+00
2.692868e+01	-7.271933e+00
2.708422e+01	-7.312392e+00
2.724066e+01	-7.353287e+00
2.739800e+01	-7.394272e+00
2.755625e+01	-7.435289e+00
2.771541e+01	-7.476474e+00
2.787550e+01	-7.517420e+00
2.803650e+01	-7.558479e+00
2.819844e+01	-7.600140e+00
2.836131e+01	-7.641118e+00
2.852513e+01	-7.682621e+00
2.868989e+01	-7.724512e+00
2.885560e+01	-7.765367e+00
2.902227e+01	-7.807379e+00
2.918990e+01	-7.849089e+00
2.935850e+01	-7.891111e+00
2.952807e+01	-7.933124e+00
2.969863e+01	-7.975449e+00
2.987016e+01	-8.017287e+00
3.004269e+01	-8.059621e+00
3.021622e+01	-8.101753e+00
3.039075e+01	-8.143997e+00
3.056628e+01	-8.186828e+00
3.074283e+01	-8.228661e+00
3.092040e+01	-8.271060e+00
3.109900e+01	-8.314134e+00
3.127862e+01	-8.356831e+00
3.145929e+01	-8.399528e+00
3.164099e+01	-8.442614e+00
3.182375e+01	-8.485316e+00
3.200756e+01	-8.528045e+00
3.219244e+01	-8.571323e+00
3.237838e+01	-8.614320e+00
3.256540e+01	-8.657382e+00
3.275349e+01	-8.700425e+00
3.294268e+01	-8.743757e+00
3.313295e+01	-8.787741e+00
3.332433e+01	-8.830734e+00
3.351681e+01	-8.874220e+00
3.371040e+01	-8.918219e+00
3.390511e+01	-8.961484e+00
3.410094e+01	-9.005398e+00
3.429791e+01	-9.048645e+00
3.449601e+01	-9.092828e+00
3.469526e+01	-9.136624e+00
3.489566e+01	-9.180973e+00
3.509721e+01	-9.224792e+00
3.529993e+01	-9.269002e+00
3.550382e+01	-9.313442e+00
3.570889e+01	-9.356883e+00
3.591515e+01	-9.401326e+00
3.612259e+01	-9.445600e+00
3.633123e+01	-9.489993e+00
3.654108e+01	-9.535062e+00
3.675214e+01	-9.579173e+00
3.696442e+01	-9.623848e+00
3.717792e+01	-9.668126e+00
3.739266e+01	-9.712440e+00
3.760864e+01	-9.757770e+00
3.782587e+01	-9.802291e+00
3.804435e+01	-9.847130e+00
3.826409e+01	-9.891853e+00
3.848510e+01	-9.936979e+00
3.870739e+01	-9.982419e+00
3.893096e+01	-1.002709e+01
3.915583e+01	-1.007201e+01
3.938199e+01	-1.011710e+01
3.960946e+01	-1.016251e+01
3.983824e+01	-1.020742e+01
4.006834e+01	-1.025306e+01
4.029978e+01	-1.029797e+01
4.053255e+01	-1.034398e+01
4.076666e+01	-1.038933e+01
4.100213e+01	-1.043416e+01
4.123896e+01	-1.047993e+01
4.147715e+01	-1.052547e+01
4.171672e+01	-1.057162e+01
4.195767e+01	-1.061696e+01
4.220002e+01	-1.066289e+01
4.244377e+01	-1.070840e+01
4.268892e+01	-1.075379e+01
4.293549e+01	-1.080010e+01
4.318348e+01	-1.084549e+01
4.343291e+01	-1.089198e+01
4.368377e+01	-1.093729e+01
4.393609e+01	-1.098321e+01
4.418986e+01	-1.103028e+01
4.444510e+01	-1.107649e+01
4.470182e+01	-1.112175e+01
4.496001e+01	-1.116751e+01
4.521970e+01	-1.121454e+01
4.548089e+01	-1.126079e+01
4.574358e+01	-1.130681e+01
4.600779e+01	-1.135367e+01
4.627353e+01	-1.139988e+01
4.654081e+01	-1.144592e+01
4.680963e+01	-1.149297e+01
4.708000e+01	-1.153958e+01
4.735193e+01	-1.158494e+01
4.762543e+01	-1.163236e+01
4.790051e+01	-1.167800e+01
4.817719e+01	-1.172525e+01
4.845545e+01	-1.177245e+01
4.873533e+01	-1.181864e+01
4.901682e+01	-1.186545e+01
4.929994e+01	-1.191244e+01
4.958470e+01	-1.195864e+01
4.987110e+01	-1.200547e+01
5.015915e+01	-1.205265e+01
5.044887e+01	-1.209995e+01
5.074026e+01	-1.214662e+01
5.103333e+01	-1.219389e+01
5.132810e+01	-1.224122e+01
5.162457e+01	-1.228808e+01
5.192275e+01	-1.233446e+01
5.222265e+01	-1.238196e+01
5.252429e+01	-1.242995e+01
5.282767e+01	-1.247639e+01
5.313280e+01	-1.252407e+01
5.343969e+01	-1.257107e+01
5.374836e+01	-1.261791e+01
5.405880e+01	-1.266500e+01
5.437105e+01	-1.271343e+01
5.468509e+01	-1.276072e+01
5.500095e+01	-1.280721e+01
5.531863e+01	-1.285470e+01
5.563815e+01	-1.290207e+01
5.595951e+01	-1.294967e+01
5.628273e+01	-1.299699e+01
5.660782e+01	-1.304460e+01
5.693479e+01	-1.309297e+01
5.726364e+01	-1.313989e+01
5.759439e+01	-1.318787e+01
5.792705e+01	-1.323485e+01
5.826164e+01	-1.328331e+01
5.859815e+01	-1.333143e+01
5.893662e+01	-1.337898e+01
5.927703e+01	-1.342569e+01
5.961941e+01	-1.347403e+01
5.996377e+01	-1.352180e+01
6.031012e+01	-1.356966e+01
6.065847e+01	-1.361739e+01
6.100883e+01	-1.366569e+01
6.136121e+01	-1.371294e+01
6.171563e+01	-1.376079e+01
6.207210e+01	-1.380908e+01
6.243063e+01	-1.385700e+01
6.279122e+01	-1.390505e+01
6.315390e+01	-1.395317e+01
6.351868e+01	-1.400174e+01
6.388556e+01	-1.404927e+01
6.425456e+01	-1.409761e+01
6.462569e+01	-1.414441e+01
6.499897e+01	-1.419327e+01
6.537440e+01	-1.424197e+01
6.575200e+01	-1.428985e+01
6.613178e+01	-1.433789e+01
6.651375e+01	-1.438650e+01
6.689793e+01	-1.443460e+01
6.728433e+01	-1.448334e+01
6.767297e+01	-1.453088e+01
6.806384e+01	-1.457923e+01
6.845698e+01	-1.462742e+01
6.885238e+01	-1.467604e+01
6.925007e+01	-1.472449e+01
6.965005e+01	-1.477234e+01
7.005235e+01	-1.482028e+01
7.045697e+01	-1.486842e+01
7.086393e+01	-1.491781e+01
7.127323e+01	-1.496554e+01
7.168490e+01	-1.501422e+01
7.209895e+01	-1.506265e+01
7.251539e+01	-1.511126e+01
7.293424e+01	-1.515951e+01
7.335551e+01	-1.520921e+01
7.377920e+01	-1.525637e+01
7.420535e+01	-1.530658e+01
7.463396e+01	-1.535340e+01
7.506504e+01	-1.540175e+01
7.549861e+01	-1.545192e+01
7.593469e+01	-1.550066e+01
7.637328e+01	-1.554813e+01
7.681441e+01	-1.559640e+01
7.725809e+01	-1.564586e+01
7.770433e+01	-1.569384e+01
7.815315e+01	-1.574234e+01
7.860456e+01	-1.579302e+01
7.905857e+01	-1.583991e+01
7.951521e+01	-1.588901e+01
7.997449e+01	-1.593825e+01
8.043642e+01	-1.598698e+01
8.090102e+01	-1.603533e+01
8.136830e+01	-1.608400e+01
8.183828e+01	-1.613395e+01
8.231097e+01	-1.618199e+01
8.278640e+01	-1.623086e+01
8.326457e+01	-1.628017e+01
8.374550e+01	-1.632821e+01
8.422921e+01	-1.637889e+01
8.471572e+01	-1.642511e+01
8.520503e+01	-1.647599e+01
8.569717e+01	-1.652403e+01
8.619215e+01	-1.657404e+01
8.669000e+01	-1.662143e+01
8.719071e+01	-1.667049e+01
8.769432e+01	-1.671900e+01
8.820084e+01	-1.676882e+01
8.871029e+01	-1.681643e+01
8.922267e+01	-1.686690e+01
8.973802e+01	-1.691524e+01
9.025634e+01	-1.696483e+01
9.077766e+01	-1.701437e+01
9.130199e+01	-1.706304e+01
9.182935e+01	-1.711192e+01
9.235975e+01	-1.716144e+01
9.289321e+01	-1.721015e+01
9.342976e+01	-1.725820e+01
9.396941e+01	-1.730789e+01
9.451217e+01	-1.735758e+01
9.505807e+01	-1.740614e+01
9.560712e+01	-1.745621e+01
9.615934e+01	-1.750520e+01
9.671476e+01	-1.755541e+01
9.727338e+01	-1.760228e+01
9.783522e+01	-1.765160e+01
9.840032e+01	-1.770126e+01
9.896867e+01	-1.775051e+01
9.954031e+01	-1.780083e+01
1.001153e+02	-1.784886e+01
1.006935e+02	-1.789711e+01
1.012751e+02	-1.794655e+01
1.018601e+02	-1.799706e+01
1.024484e+02	-1.804700e+01
1.030402e+02	-1.809472e+01
1.036353e+02	-1.814359e+01
1.042339e+02	-1.819402e+01
1.048360e+02	-1.824269e+01
1.054415e+02	-1.829223e+01
1.060505e+02	-1.834104e+01
1.066631e+02	-1.839086e+01
1.072791e+02	-1.844007e+01
1.078988e+02	-1.848961e+01
1.085220e+02	-1.853916e+01
1.091488e+02	-1.858769e+01
1.097793e+02	-1.863782e+01
1.104133e+02	-1.868676e+01
1.110511e+02	-1.873560e+01
1.116925e+02	-1.878561e+01
1.123376e+02	-1.883539e+01
1.129865e+02	-1.888436e+01
1.136391e+02	-1.893471e+01
1.142955e+02	-1.898329e+01
1.149556e+02	-1.903252e+01
1.156196e+02	-1.908135e+01
1.162874e+02	-1.913169e+01
1.169591e+02	-1.918121e+01
1.176347e+02	-1.923019e+01
1.183141e+02	-1.928033e+01
1.189975e+02	-1.933079e+01
1.196848e+02	-1.937888e+01
1.203761e+02	-1.942841e+01
1.210714e+02	-1.947835e+01
1.217707e+02	-1.952715e+01
1.224740e+02	-1.957777e+01
1.231814e+02	-1.962542e+01
1.238929e+02	-1.967582e+01
1.246085e+02	-1.972621e+01
1.253283e+02	-1.977305e+01
1.260522e+02	-1.982288e+01
1.267802e+02	-1.987495e+01
1.275125e+02	-1.992320e+01
1.282490e+02	-1.997385e+01
1.289898e+02	-2.002243e+01
1.297348e+02	-2.007209e+01
1.304842e+02	-2.012057e+01
1.312378e+02	-2.017072e+01
1.319959e+02	-2.022086e+01
1.327583e+02	-2.026922e+01
1.335251e+02	-2.031817e+01
1.342963e+02	-2.036859e+01
1.350720e+02	-2.041779e+01
1.358522e+02	-2.046680e+01
1.366368e+02	-2.051779e+01
1.374260e+02	-2.056776e+01
1.382198e+02	-2.061552e+01
1.390182e+02	-2.066614e+01
1.398211e+02	-2.071839e+01
1.406287e+02	-2.076562e+01
1.414410e+02	-2.081378e+01
1.422579e+02	-2.086701e+01
1.430796e+02	-2.091387e+01
1.439060e+02	-2.096298e+01
1.447372e+02	-2.101386e+01
1.455732e+02	-2.106501e+01
1.464141e+02	-2.111361e+01
1.472597e+02	-2.116201e+01
1.481103e+02	-2.121412e+01
1.489658e+02	-2.126320e+01
1.498262e+02	-2.131218e+01
1.506916e+02	-2.136112e+01
1.515620e+02	-2.141149e+01
1.524374e+02	-2.146032e+01
1.533179e+02	-2.151155e+01
1.542034e+02	-2.155927e+01
1.550941e+02	-2.161148e+01
1.559899e+02	-2.166061e+01
1.568909e+02	-2.170965e+01
1.577971e+02	-2.176062e+01
1.587085e+02	-2.181088e+01
1.596252e+02	-2.185912e+01
1.605472e+02	-2.190845e+01
1.614745e+02	-2.195757e+01
1.624072e+02	-2.200803e+01
1.633453e+02	-2.205731e+01
1.642887e+02	-2.210779e+01
1.652377e+02	-2.215617e+01
1.661921e+02	-2.220633e+01
1.671520e+02	-2.225809e+01
1.681175e+02	-2.230644e+01
1.690885e+02	-2.235479e+01
1.700651e+02	-2.240487e+01
1.710474e+02	-2.245392e+01
1.720354e+02	-2.250550e+01
1.730291e+02	-2.255424e+01
1.740285e+02	-2.260427e+01
1.750337e+02	-2.265680e+01
1.760446e+02	-2.270544e+01
1.770615e+02	-2.275436e+01
1.780842e+02	-2.280316e+01
1.791128e+02	-2.285299e+01
1.801473e+02	-2.290462e+01
1.811878e+02	-2.295324e+01
1.822344e+02	-2.300564e+01
1.832870e+02	-2.305519e+01
1.843456e+02	-2.310319e+01
1.854104e+02	-2.315256e+01
1.864813e+02	-2.320406e+01
1.875584e+02	-2.325356e+01
1.886418e+02	-2.330209e+01
1.897313e+02	-2.335140e+01
1.908272e+02	-2.340351e+01
1.919294e+02	-2.345128e+01
1.930380e+02	-2.350187e+01
1.941530e+02	-2.355248e+01
1.952744e+02	-2.360255e+01
1.964023e+02	-2.365260e+01
1.975367e+02	-2.370117e+01
1.986777e+02	-2.375224e+01
1.998252e+02	-2.380047e+01
2.009794e+02	-2.385291e+01
2.021403e+02	-2.390015e+01
2.033078e+02	-2.395155e+01
2.044821e+02	-2.399904e+01
2.056632e+02	-2.405118e+01
2.068511e+02	-2.409891e+01
2.080459e+02	-2.414919e+01
2.092475e+02	-2.420189e+01
2.104561e+02	-2.425148e+01
2.116717e+02	-2.429925e+01
2.128943e+02	-2.434843e+01
2.141240e+02	-2.439953e+01
2.153608e+02	-2.444835e+01
2.166047e+02	-2.449877e+01
2.178558e+02	-2.455095e+01
2.191141e+02	-2.459944e+01
2.203797e+02	-2.464738e+01
2.216526e+02	-2.469709e+01
2.229329e+02	-2.474682e+01
2.242205e+02	-2.479798e+01
2.255156e+02	-2.484965e+01
2.268182e+02	-2.489726e+01
2.281283e+02	-2.494821e+01
2.294459e+02	-2.499655e+01
2.307712e+02	-2.504714e+01
2.321041e+02	-2.509547e+01
2.334447e+02	-2.514830e+01
2.347931e+02	-2.519641e+01
2.361493e+02	-2.524645e+01
2.375133e+02	-2.529933e+01
2.388851e+02	-2.534815e+01
2.402649e+02	-2.539865e+01
2.416527e+02	-2.544752e+01
2.430484e+02	-2.549743e+01
2.444523e+02	-2.554944e+01
2.458642e+02	-2.559504e+01
2.472843e+02	-2.564858e+01
2.487126e+02	-2.569462e+01
2.501492e+02	-2.574659e+01
2.515940e+02	-2.579599e+01
2.530472e+02	-2.584893e+01
2.545088e+02	-2.589929e+01
2.559789e+02	-2.594760e+01
2.574574e+02	-2.599658e+01
2.589444e+02	-2.604647e+01
2.604401e+02	-2.609532e+01
2.619444e+02	-2.614461e+01
2.634574e+02	-2.619818e+01
2.649791e+02	-2.624894e+01
2.665096e+02	-2.629555e+01
2.680489e+02	-2.634746e+01
2.695972e+02	-2.639667e+01
2.711544e+02	-2.644576e+01
2.727205e+02	-2.649543e+01
2.742958e+02	-2.654612e+01
2.758801e+02	-2.659672e+01
2.774736e+02	-2.664541e+01
2.790762e+02	-2.669596e+01
2.806882e+02	-2.674597e+01
2.823094e+02	-2.679497e+01
2.839400e+02	-2.684403e+01
2.855800e+02	-2.689747e+01
2.872295e+02	-2.694555e+01
2.888886e+02	-2.699489e+01
2.905572e+02	-2.704288e+01
2.922354e+02	-2.709715e+01
2.939234e+02	-2.714725e+01
2.956211e+02	-2.719284e+01
2.973286e+02	-2.724500e+01
2.990459e+02	-2.729310e+01
3.007732e+02	-2.734817e+01
3.025104e+02	-2.739000e+01
3.042577e+02	-2.744957e+01
3.060151e+02	-2.749642e+01
3.077826e+02	-2.755028e+01
3.095604e+02	-2.759535e+01
3.113484e+02	-2.764733e+01
3.131467e+02	-2.769423e+01
3.149554e+02	-2.774857e+01
3.167746e+02	-2.779554e+01
3.186043e+02	-2.784309e+01
3.204445e+02	-2.789728e+01
3.222954e+02	-2.794657e+01
3.241570e+02	-2.799243e+01
3.260293e+02	-2.804520e+01
3.279124e+02	-2.809857e+01
3.298064e+02	-2.814840e+01
3.317114e+02	-2.819458e+01
3.336273e+02	-2.824468e+01
3.355544e+02	-2.829865e+01
3.374925e+02	-2.834524e+01
3.394418e+02	-2.839470e+01
3.414024e+02	-2.844516e+01
3.433744e+02	-2.849502e+01
3.453577e+02	-2.854949e+01
3.473525e+02	-2.859732e+01
3.493588e+02	-2.864740e+01
3.513766e+02	-2.869542e+01
3.534062e+02	-2.874032e+01
3.554474e+02	-2.879465e+01
3.575005e+02	-2.884972e+01
3.595654e+02	-2.889792e+01
3.616422e+02	-2.895046e+01
3.637311e+02	-2.899587e+01
3.658320e+02	-2.904671e+01
3.679450e+02	-2.909700e+01
3.700702e+02	-2.914901e+01
3.722077e+02	-2.919649e+01
3.743576e+02	-2.924547e+01
3.765199e+02	-2.929680e+01
3.786946e+02	-2.934664e+01
3.808820e+02	-2.939679e+01
3.830819e+02	-2.945173e+01
3.852946e+02	-2.949218e+01
3.875200e+02	-2.954747e+01
3.897583e+02	-2.959763e+01
3.920096e+02	-2.964810e+01
3.942738e+02	-2.969791e+01
3.965511e+02	-2.975102e+01
3.988416e+02	-2.979580e+01
4.011452e+02	-2.984848e+01
4.034622e+02	-2.989670e+01
4.057926e+02	-2.994574e+01
4.081365e+02	-3.000108e+01
4.104938e+02	-3.004383e+01
4.128648e+02	-3.009854e+01
4.152495e+02	-3.015033e+01
4.176480e+02	-3.019783e+01
4.200603e+02	-3.024748e+01
4.224866e+02	-3.029704e+01
4.249268e+02	-3.035241e+01
4.273812e+02	-3.040010e+01
4.298497e+02	-3.045141e+01
4.323325e+02	-3.050107e+01
4.348297e+02	-3.055440e+01
4.373412e+02	-3.060194e+01
4.398673e+02	-3.065227e+01
4.424079e+02	-3.070217e+01
4.449633e+02	-3.074897e+01
4.475334e+02	-3.080248e+01
4.501183e+02	-3.085463e+01
4.527182e+02	-3.090717e+01
4.553330e+02	-3.095478e+01
4.579630e+02	-3.100466e+01
4.606082e+02	-3.104989e+01
4.632687e+02	-3.110166e+01
4.659445e+02	-3.115071e+01
4.686358e+02	-3.120610e+01
4.713426e+02	-3.124833e+01
4.740650e+02	-3.130363e+01
4.768032e+02	-3.134889e+01
4.795572e+02	-3.140705e+01
4.823271e+02	-3.144798e+01
4.851130e+02	-3.149861e+01
4.879150e+02	-3.155613e+01
4.907332e+02	-3.160349e+01
4.935676e+02	-3.165080e+01
4.964185e+02	-3.170252e+01
4.992858e+02	-3.175376e+01
5.021696e+02	-3.179972e+01
5.050701e+02	-3.185359e+01
5.079874e+02	-3.190228e+01
5.109215e+02	-3.195277e+01
5.138726e+02	-3.200402e+01
5.168407e+02	-3.204875e+01
5.198259e+02	-3.210224e+01
5.228284e+02	-3.216095e+01
5.258482e+02	-3.220451e+01
5.288855e+02	-3.225368e+01
5.319403e+02	-3.230604e+01
5.350128e+02	-3.236081e+01
5.381030e+02	-3.240607e+01
5.412111e+02	-3.246170e+01
5.443371e+02	-3.250822e+01
5.474812e+02	-3.256032e+01
5.506434e+02	-3.260977e+01
5.538239e+02	-3.265628e+01
5.570228e+02	-3.271579e+01
5.602401e+02	-3.275525e+01
5.634760e+02	-3.281027e+01
5.667306e+02	-3.286350e+01
5.700040e+02	-3.290966e+01
5.732964e+02	-3.296321e+01
5.766077e+02	-3.301208e+01
5.799382e+02	-3.306299e+01
5.832879e+02	-3.310879e+01
5.866569e+02	-3.316381e+01
5.900454e+02	-3.321169e+01
5.934535e+02	-3.326469e+01
5.968813e+02	-3.330768e+01
6.003288e+02	-3.336121e+01
6.037963e+02	-3.341060e+01
6.072838e+02	-3.346263e+01
6.107914e+02	-3.351425e+01
6.143194e+02	-3.356404e+01
6.178676e+02	-3.361307e+01
6.214364e+02	-3.366702e+01
6.250258e+02	-3.372430e+01
6.286359e+02	-3.377138e+01
6.322669e+02	-3.381317e+01
6.359189e+02	-3.387013e+01
6.395919e+02	-3.391274e+01
6.432862e+02	-3.395809e+01
6.470017e+02	-3.402635e+01
6.507388e+02	-3.407108e+01
6.544974e+02	-3.411240e+01
6.582778e+02	-3.416927e+01
6.620800e+02	-3.421144e+01
6.659041e+02	-3.427547e+01
6.697504e+02	-3.431937e+01
6.736188e+02	-3.437365e+01
6.775096e+02	-3.442269e+01
6.814229e+02	-3.446543e+01
6.853587e+02	-3.452535e+01
6.893173e+02	-3.456601e+01
6.932988e+02	-3.462568e+01
6.973033e+02	-3.467408e+01
7.013309e+02	-3.471739e+01
