Frequency(Hz)	Magnitude(dB)
1.000000e+01	-1.740227e-05
1.005776e+01	-1.760388e-05
1.011585e+01	-1.780783e-05
1.017428e+01	-1.801413e-05
1.023305e+01	-1.822283e-05
1.029215e+01	-1.843395e-05
1.035160e+01	-1.864751e-05
1.041139e+01	-1.886355e-05
1.047153e+01	-1.908208e-05
1.053201e+01	-1.930316e-05
1.059284e+01	-1.952679e-05
1.065403e+01	-1.975301e-05
1.071556e+01	-1.998185e-05
1.077746e+01	-2.021335e-05
1.083971e+01	-2.044753e-05
1.090232e+01	-2.068442e-05
1.096529e+01	-2.092405e-05
1.102862e+01	-2.116646e-05
1.109232e+01	-2.141168e-05
1.115639e+01	-2.165974e-05
1.122083e+01	-2.191067e-05
1.128564e+01	-2.216451e-05
1.135083e+01	-2.242129e-05
1.141639e+01	-2.268105e-05
1.148233e+01	-2.294382e-05
1.154865e+01	-2.320963e-05
1.161536e+01	-2.347852e-05
1.168245e+01	-2.375052e-05
1.174992e+01	-2.402568e-05
1.181779e+01	-2.430402e-05
1.188605e+01	-2.458559e-05
1.195470e+01	-2.487042e-05
1.202375e+01	-2.515855e-05
1.209320e+01	-2.545001e-05
1.216305e+01	-2.574486e-05
1.223330e+01	-2.604312e-05
1.230396e+01	-2.634484e-05
1.237503e+01	-2.665005e-05
1.244651e+01	-2.695879e-05
1.251840e+01	-2.727112e-05
1.259070e+01	-2.758706e-05
1.266343e+01	-2.790666e-05
1.273657e+01	-2.822997e-05
1.281014e+01	-2.855702e-05
1.288413e+01	-2.888786e-05
1.295855e+01	-2.922253e-05
1.303339e+01	-2.956108e-05
1.310867e+01	-2.990356e-05
1.318439e+01	-3.025000e-05
1.326054e+01	-3.060045e-05
1.333713e+01	-3.095496e-05
1.341417e+01	-3.131358e-05
1.349165e+01	-3.167636e-05
1.356958e+01	-3.204334e-05
1.364795e+01	-3.241457e-05
1.372678e+01	-3.279010e-05
1.380607e+01	-3.316998e-05
1.388581e+01	-3.355426e-05
1.396602e+01	-3.394299e-05
1.404668e+01	-3.433623e-05
1.412782e+01	-3.473402e-05
1.420942e+01	-3.513643e-05
1.429149e+01	-3.554349e-05
1.437404e+01	-3.595527e-05
1.445706e+01	-3.637182e-05
1.454057e+01	-3.679320e-05
1.462455e+01	-3.721945e-05
1.470902e+01	-3.765065e-05
1.479398e+01	-3.808684e-05
1.487943e+01	-3.852808e-05
1.496537e+01	-3.897444e-05
1.505181e+01	-3.942597e-05
1.513875e+01	-3.988273e-05
1.522619e+01	-4.034478e-05
1.531414e+01	-4.081218e-05
1.540259e+01	-4.128500e-05
1.549156e+01	-4.176330e-05
1.558103e+01	-4.224713e-05
1.567103e+01	-4.273658e-05
1.576155e+01	-4.323169e-05
1.585258e+01	-4.373254e-05
1.594415e+01	-4.423919e-05
1.603624e+01	-4.475171e-05
1.612886e+01	-4.527017e-05
1.622202e+01	-4.579463e-05
1.631572e+01	-4.632517e-05
1.640996e+01	-4.686186e-05
1.650474e+01	-4.740476e-05
1.660008e+01	-4.795396e-05
1.669596e+01	-4.850952e-05
1.679239e+01	-4.907151e-05
1.688938e+01	-4.964001e-05
1.698694e+01	-5.021510e-05
1.708505e+01	-5.079686e-05
1.718373e+01	-5.138535e-05
1.728299e+01	-5.198066e-05
1.738281e+01	-5.258287e-05
1.748322e+01	-5.319205e-05
1.758420e+01	-5.380829e-05
1.768576e+01	-5.443167e-05
1.778792e+01	-5.506227e-05
1.789066e+01	-5.570018e-05
1.799399e+01	-5.634548e-05
1.809793e+01	-5.699825e-05
1.820246e+01	-5.765859e-05
1.830760e+01	-5.832657e-05
1.841334e+01	-5.900230e-05
1.851969e+01	-5.968585e-05
1.862666e+01	-6.037733e-05
1.873425e+01	-6.107681e-05
1.884246e+01	-6.178440e-05
1.895129e+01	-6.250018e-05
1.906075e+01	-6.322426e-05
1.917085e+01	-6.395672e-05
1.928158e+01	-6.469767e-05
1.939295e+01	-6.544721e-05
1.950496e+01	-6.620543e-05
1.961762e+01	-6.697243e-05
1.973093e+01	-6.774832e-05
1.984490e+01	-6.853319e-05
1.995952e+01	-6.932716e-05
2.007480e+01	-7.013033e-05
2.019076e+01	-7.094281e-05
2.030738e+01	-7.176469e-05
2.042467e+01	-7.259610e-05
2.054264e+01	-7.343714e-05
2.066130e+01	-7.428792e-05
2.078064e+01	-7.514856e-05
2.090066e+01	-7.601917e-05
2.102139e+01	-7.689986e-05
2.114280e+01	-7.779076e-05
2.126492e+01	-7.869198e-05
2.138775e+01	-7.960364e-05
2.151128e+01	-8.052586e-05
2.163553e+01	-8.145877e-05
2.176050e+01	-8.240248e-05
2.188619e+01	-8.335713e-05
2.201260e+01	-8.432284e-05
2.213974e+01	-8.529973e-05
2.226762e+01	-8.628794e-05
2.239624e+01	-8.728760e-05
2.252560e+01	-8.829884e-05
2.265571e+01	-8.932180e-05
2.278656e+01	-9.035661e-05
2.291818e+01	-9.140340e-05
2.305055e+01	-9.246232e-05
2.318369e+01	-9.353351e-05
2.331760e+01	-9.461711e-05
2.345228e+01	-9.571327e-05
2.358774e+01	-9.682212e-05
2.372398e+01	-9.794382e-05
2.386101e+01	-9.907851e-05
2.399883e+01	-1.002264e-04
2.413745e+01	-1.013875e-04
2.427686e+01	-1.025621e-04
2.441709e+01	-1.037503e-04
2.455812e+01	-1.049522e-04
2.469997e+01	-1.061681e-04
2.484263e+01	-1.073981e-04
2.498612e+01	-1.086423e-04
2.513044e+01	-1.099010e-04
2.527559e+01	-1.111742e-04
2.542158e+01	-1.124621e-04
2.556842e+01	-1.137650e-04
2.571610e+01	-1.150830e-04
2.586463e+01	-1.164163e-04
2.601403e+01	-1.177650e-04
2.616428e+01	-1.191293e-04
2.631541e+01	-1.205094e-04
2.646740e+01	-1.219055e-04
2.662028e+01	-1.233178e-04
2.677404e+01	-1.247465e-04
2.692868e+01	-1.261917e-04
2.708422e+01	-1.276536e-04
2.724066e+01	-1.291325e-04
2.739800e+01	-1.306285e-04
2.755625e+01	-1.321418e-04
2.771541e+01	-1.336727e-04
2.787550e+01	-1.352213e-04
2.803650e+01	-1.367879e-04
2.819844e+01	-1.383726e-04
2.836131e+01	-1.399756e-04
2.852513e+01	-1.415973e-04
2.868989e+01	-1.432377e-04
2.885560e+01	-1.448971e-04
2.902227e+01	-1.465758e-04
2.918990e+01	-1.482738e-04
2.935850e+01	-1.499916e-04
2.952807e+01	-1.517293e-04
2.969863e+01	-1.534871e-04
2.987016e+01	-1.552652e-04
3.004269e+01	-1.570640e-04
3.021622e+01	-1.588836e-04
3.039075e+01	-1.607243e-04
3.056628e+01	-1.625863e-04
3.074283e+01	-1.644698e-04
3.092040e+01	-1.663752e-04
3.109900e+01	-1.683027e-04
3.127862e+01	-1.702525e-04
3.145929e+01	-1.722249e-04
3.164099e+01	-1.742201e-04
3.182375e+01	-1.762384e-04
3.200756e+01	-1.782802e-04
3.219244e+01	-1.803456e-04
3.237838e+01	-1.824349e-04
3.256540e+01	-1.845484e-04
3.275349e+01	-1.866864e-04
3.294268e+01	-1.888491e-04
3.313295e+01	-1.910370e-04
3.332433e+01	-1.932501e-04
3.351681e+01	-1.954889e-04
3.371040e+01	-1.977537e-04
3.390511e+01	-2.000447e-04
3.410094e+01	-2.023622e-04
3.429791e+01	-2.047066e-04
3.449601e+01	-2.070781e-04
3.469526e+01	-2.094771e-04
3.489566e+01	-2.119039e-04
3.509721e+01	-2.143588e-04
3.529993e+01	-2.168421e-04
3.550382e+01	-2.193542e-04
3.570889e+01	-2.218954e-04
3.591515e+01	-2.244661e-04
3.612259e+01	-2.270665e-04
3.633123e+01	-2.296971e-04
3.654108e+01	-2.323581e-04
3.675214e+01	-2.350500e-04
3.696442e+01	-2.377730e-04
3.717792e+01	-2.405276e-04
3.739266e+01	-2.433141e-04
3.760864e+01	-2.461329e-04
3.782587e+01	-2.489843e-04
3.804435e+01	-2.518688e-04
3.826409e+01	-2.547867e-04
3.848510e+01	-2.577384e-04
3.870739e+01	-2.607243e-04
3.893096e+01	-2.637447e-04
3.915583e+01	-2.668002e-04
3.938199e+01	-2.698911e-04
3.960946e+01	-2.730177e-04
3.983824e+01	-2.761806e-04
4.006834e+01	-2.793801e-04
4.029978e+01	-2.826167e-04
4.053255e+01	-2.858908e-04
4.076666e+01	-2.892028e-04
4.100213e+01	-2.925532e-04
4.123896e+01	-2.959424e-04
4.147715e+01	-2.993709e-04
4.171672e+01	-3.028390e-04
4.195767e+01	-3.063474e-04
4.220002e+01	-3.098964e-04
4.244377e+01	-3.134865e-04
4.268892e+01	-3.171182e-04
4.293549e+01	-3.207919e-04
4.318348e+01	-3.245083e-04
4.343291e+01	-3.282676e-04
4.368377e+01	-3.320706e-04
4.393609e+01	-3.359176e-04
4.418986e+01	-3.398091e-04
4.444510e+01	-3.437457e-04
4.470182e+01	-3.477280e-04
4.496001e+01	-3.517563e-04
4.521970e+01	-3.558313e-04
4.548089e+01	-3.599536e-04
4.574358e+01	-3.641236e-04
4.600779e+01	-3.683419e-04
4.627353e+01	-3.726090e-04
4.654081e+01	-3.769256e-04
4.680963e+01	-3.812922e-04
4.708000e+01	-3.857094e-04
4.735193e+01	-3.901777e-04
4.762543e+01	-3.946978e-04
4.790051e+01	-3.992703e-04
4.817719e+01	-4.038958e-04
4.845545e+01	-4.085748e-04
4.873533e+01	-4.133080e-04
4.901682e+01	-4.180961e-04
4.929994e+01	-4.229396e-04
4.958470e+01	-4.278392e-04
4.987110e+01	-4.327956e-04
5.015915e+01	-4.378094e-04
5.044887e+01	-4.428813e-04
5.074026e+01	-4.480119e-04
5.103333e+01	-4.532020e-04
5.132810e+01	-4.584522e-04
5.162457e+01	-4.637632e-04
5.192275e+01	-4.691358e-04
5.222265e+01	-4.745705e-04
5.252429e+01	-4.800683e-04
5.282767e+01	-4.856297e-04
5.313280e+01	-4.912555e-04
5.343969e+01	-4.969465e-04
5.374836e+01	-5.027034e-04
5.405880e+01	-5.085271e-04
5.437105e+01	-5.144181e-04
5.468509e+01	-5.203774e-04
5.500095e+01	-5.264058e-04
5.531863e+01	-5.325040e-04
5.563815e+01	-5.386728e-04
5.595951e+01	-5.449131e-04
5.628273e+01	-5.512257e-04
5.660782e+01	-5.576113e-04
5.693479e+01	-5.640710e-04
5.726364e+01	-5.706055e-04
5.759439e+01	-5.772157e-04
5.792705e+01	-5.839024e-04
5.826164e+01	-5.906666e-04
5.859815e+01	-5.975092e-04
5.893662e+01	-6.044310e-04
5.927703e+01	-6.114330e-04
5.961941e+01	-6.185162e-04
5.996377e+01	-6.256813e-04
6.031012e+01	-6.329295e-04
6.065847e+01	-6.402616e-04
6.100883e+01	-6.476787e-04
6.136121e+01	-6.551816e-04
6.171563e+01	-6.627715e-04
6.207210e+01	-6.704493e-04
6.243063e+01	-6.782160e-04
6.279122e+01	-6.860727e-04
6.315390e+01	-6.940204e-04
6.351868e+01	-7.020602e-04
6.388556e+01	-7.101931e-04
6.425456e+01	-7.184202e-04
6.462569e+01	-7.267426e-04
6.499897e+01	-7.351614e-04
6.537440e+01	-7.436777e-04
6.575200e+01	-7.522927e-04
6.613178e+01	-7.610074e-04
6.651375e+01	-7.698231e-04
6.689793e+01	-7.787410e-04
6.728433e+01	-7.877621e-04
6.767297e+01	-7.968877e-04
6.806384e+01	-8.061190e-04
6.845698e+01	-8.154572e-04
6.885238e+01	-8.249036e-04
6.925007e+01	-8.344594e-04
6.965005e+01	-8.441259e-04
7.005235e+01	-8.539044e-04
7.045697e+01	-8.637961e-04
7.086393e+01	-8.738024e-04
7.127323e+01	-8.839246e-04
7.168490e+01	-8.941641e-04
7.209895e+01	-9.045221e-04
7.251539e+01	-9.150002e-04
7.293424e+01	-9.255996e-04
7.335551e+01	-9.363217e-04
7.377920e+01	-9.471681e-04
7.420535e+01	-9.581401e-04
7.463396e+01	-9.692392e-04
7.506504e+01	-9.804668e-04
7.549861e+01	-9.918245e-04
7.593469e+01	-1.003314e-03
7.637328e+01	-1.014936e-03
7.681441e+01	-1.026693e-03
7.725809e+01	-1.038586e-03
7.770433e+01	-1.050617e-03
7.815315e+01	-1.062787e-03
7.860456e+01	-1.075098e-03
7.905857e+01	-1.087552e-03
7.951521e+01	-1.100150e-03
7.997449e+01	-1.112894e-03
8.043642e+01	-1.125785e-03
8.090102e+01	-1.138826e-03
8.136830e+01	-1.152018e-03
8.183828e+01	-1.165363e-03
8.231097e+01	-1.178862e-03
8.278640e+01	-1.192517e-03
8.326457e+01	-1.206331e-03
8.374550e+01	-1.220305e-03
8.422921e+01	-1.234440e-03
8.471572e+01	-1.248740e-03
8.520503e+01	-1.263205e-03
8.569717e+01	-1.277837e-03
8.619215e+01	-1.292639e-03
8.669000e+01	-1.307612e-03
8.719071e+01	-1.322759e-03
8.769432e+01	-1.338081e-03
8.820084e+01	-1.353581e-03
8.871029e+01	-1.369260e-03
8.922267e+01	-1.385121e-03
8.973802e+01	-1.401165e-03
9.025634e+01	-1.417395e-03
9.077766e+01	-1.433813e-03
9.130199e+01	-1.450422e-03
9.182935e+01	-1.467222e-03
9.235975e+01	-1.484218e-03
9.289321e+01	-1.501410e-03
9.342976e+01	-1.518801e-03
9.396941e+01	-1.536394e-03
9.451217e+01	-1.554190e-03
9.505807e+01	-1.572192e-03
9.560712e+01	-1.590403e-03
9.615934e+01	-1.608825e-03
9.671476e+01	-1.627460e-03
9.727338e+01	-1.646311e-03
9.783522e+01	-1.665381e-03
9.840032e+01	-1.684671e-03
9.896867e+01	-1.704184e-03
9.954031e+01	-1.723924e-03
1.001153e+02	-1.743892e-03
1.006935e+02	-1.764091e-03
1.012751e+02	-1.784524e-03
1.018601e+02	-1.805194e-03
1.024484e+02	-1.826104e-03
1.030402e+02	-1.847255e-03
1.036353e+02	-1.868651e-03
1.042339e+02	-1.890295e-03
1.048360e+02	-1.912190e-03
1.054415e+02	-1.934339e-03
1.060505e+02	-1.956743e-03
1.066631e+02	-1.979408e-03
1.072791e+02	-2.002334e-03
1.078988e+02	-2.025526e-03
1.085220e+02	-2.048987e-03
1.091488e+02	-2.072719e-03
1.097793e+02	-2.096727e-03
1.104133e+02	-2.121012e-03
1.110511e+02	-2.145578e-03
1.116925e+02	-2.170429e-03
1.123376e+02	-2.195568e-03
1.129865e+02	-2.220998e-03
1.136391e+02	-2.246722e-03
1.142955e+02	-2.272744e-03
1.149556e+02	-2.299067e-03
1.156196e+02	-2.325695e-03
1.162874e+02	-2.352632e-03
1.169591e+02	-2.379880e-03
1.176347e+02	-2.407444e-03
1.183141e+02	-2.435327e-03
1.189975e+02	-2.463533e-03
1.196848e+02	-2.492066e-03
1.203761e+02	-2.520928e-03
1.210714e+02	-2.550125e-03
1.217707e+02	-2.579661e-03
1.224740e+02	-2.609538e-03
1.231814e+02	-2.639761e-03
1.238929e+02	-2.670333e-03
1.246085e+02	-2.701260e-03
1.253283e+02	-2.732545e-03
1.260522e+02	-2.764192e-03
1.267802e+02	-2.796206e-03
1.275125e+02	-2.828590e-03
1.282490e+02	-2.861349e-03
1.289898e+02	-2.894488e-03
1.297348e+02	-2.928010e-03
1.304842e+02	-2.961920e-03
1.312378e+02	-2.996223e-03
1.319959e+02	-3.030923e-03
1.327583e+02	-3.066024e-03
1.335251e+02	-3.101532e-03
1.342963e+02	-3.137451e-03
1.350720e+02	-3.173786e-03
1.358522e+02	-3.210542e-03
1.366368e+02	-3.247723e-03
1.374260e+02	-3.285334e-03
1.382198e+02	-3.323381e-03
1.390182e+02	-3.361869e-03
1.398211e+02	-3.400801e-03
1.406287e+02	-3.440185e-03
1.414410e+02	-3.480024e-03
1.422579e+02	-3.520325e-03
1.430796e+02	-3.561092e-03
1.439060e+02	-3.602331e-03
1.447372e+02	-3.644048e-03
1.455732e+02	-3.686247e-03
1.464141e+02	-3.728935e-03
1.472597e+02	-3.772117e-03
1.481103e+02	-3.815798e-03
1.489658e+02	-3.859986e-03
1.498262e+02	-3.904684e-03
1.506916e+02	-3.949901e-03
1.515620e+02	-3.995640e-03
1.524374e+02	-4.041909e-03
1.533179e+02	-4.088714e-03
1.542034e+02	-4.136060e-03
1.550941e+02	-4.183954e-03
1.559899e+02	-4.232403e-03
1.568909e+02	-4.281412e-03
1.577971e+02	-4.330988e-03
1.587085e+02	-4.381139e-03
1.596252e+02	-4.431869e-03
1.605472e+02	-4.483187e-03
1.614745e+02	-4.535099e-03
1.624072e+02	-4.587611e-03
1.633453e+02	-4.640731e-03
1.642887e+02	-4.694466e-03
1.652377e+02	-4.748823e-03
1.661921e+02	-4.803809e-03
1.671520e+02	-4.859431e-03
1.681175e+02	-4.915697e-03
1.690885e+02	-4.972614e-03
1.700651e+02	-5.030190e-03
1.710474e+02	-5.088431e-03
1.720354e+02	-5.147347e-03
1.730291e+02	-5.206945e-03
1.740285e+02	-5.267232e-03
1.750337e+02	-5.328216e-03
1.760446e+02	-5.389907e-03
1.770615e+02	-5.452311e-03
1.780842e+02	-5.515437e-03
1.791128e+02	-5.579294e-03
1.801473e+02	-5.643889e-03
1.811878e+02	-5.709232e-03
1.822344e+02	-5.775331e-03
1.832870e+02	-5.842194e-03
1.843456e+02	-5.909832e-03
1.854104e+02	-5.978251e-03
1.864813e+02	-6.047463e-03
1.875584e+02	-6.117474e-03
1.886418e+02	-6.188296e-03
1.897313e+02	-6.259938e-03
1.908272e+02	-6.332408e-03
1.919294e+02	-6.405716e-03
1.930380e+02	-6.479872e-03
1.941530e+02	-6.554886e-03
1.952744e+02	-6.630768e-03
1.964023e+02	-6.707528e-03
1.975367e+02	-6.785175e-03
1.986777e+02	-6.863721e-03
1.998252e+02	-6.943175e-03
2.009794e+02	-7.023549e-03
2.021403e+02	-7.104851e-03
2.033078e+02	-7.187095e-03
2.044821e+02	-7.270289e-03
2.056632e+02	-7.354446e-03
2.068511e+02	-7.439576e-03
2.080459e+02	-7.525690e-03
2.092475e+02	-7.612801e-03
2.104561e+02	-7.700918e-03
2.116717e+02	-7.790055e-03
2.128943e+02	-7.880223e-03
2.141240e+02	-7.971433e-03
2.153608e+02	-8.063698e-03
2.166047e+02	-8.157030e-03
2.178558e+02	-8.251442e-03
2.191141e+02	-8.346945e-03
2.203797e+02	-8.443552e-03
2.216526e+02	-8.541276e-03
2.229329e+02	-8.640130e-03
2.242205e+02	-8.740127e-03
2.255156e+02	-8.841280e-03
2.268182e+02	-8.943603e-03
2.281283e+02	-9.047109e-03
2.294459e+02	-9.151811e-03
2.307712e+02	-9.257724e-03
2.321041e+02	-9.364861e-03
2.334447e+02	-9.473236e-03
2.347931e+02	-9.582865e-03
2.361493e+02	-9.693760e-03
2.375133e+02	-9.805938e-03
2.388851e+02	-9.919412e-03
2.402649e+02	-1.003420e-02
2.416527e+02	-1.015031e-02
2.430484e+02	-1.026776e-02
2.444523e+02	-1.038658e-02
2.458642e+02	-1.050676e-02
2.472843e+02	-1.062834e-02
2.487126e+02	-1.075131e-02
2.501492e+02	-1.087571e-02
2.515940e+02	-1.100155e-02
2.530472e+02	-1.112884e-02
2.545088e+02	-1.125761e-02
2.559789e+02	-1.138786e-02
2.574574e+02	-1.151961e-02
2.589444e+02	-1.165289e-02
2.604401e+02	-1.178771e-02
2.619444e+02	-1.192409e-02
2.634574e+02	-1.206204e-02
2.649791e+02	-1.220158e-02
2.665096e+02	-1.234274e-02
2.680489e+02	-1.248553e-02
2.695972e+02	-1.262996e-02
2.711544e+02	-1.277607e-02
2.727205e+02	-1.292386e-02
2.742958e+02	-1.307336e-02
2.758801e+02	-1.322459e-02
2.774736e+02	-1.337756e-02
2.790762e+02	-1.353230e-02
2.806882e+02	-1.368883e-02
2.823094e+02	-1.384716e-02
2.839400e+02	-1.400733e-02
2.855800e+02	-1.416934e-02
2.872295e+02	-1.433322e-02
2.888886e+02	-1.449900e-02
2.905572e+02	-1.466669e-02
2.922354e+02	-1.483631e-02
2.939234e+02	-1.500790e-02
2.956211e+02	-1.518146e-02
2.973286e+02	-1.535703e-02
2.990459e+02	-1.553463e-02
3.007732e+02	-1.571427e-02
3.025104e+02	-1.589599e-02
3.042577e+02	-1.607981e-02
3.060151e+02	-1.626575e-02
3.077826e+02	-1.645383e-02
3.095604e+02	-1.664409e-02
3.113484e+02	-1.683654e-02
3.131467e+02	-1.703121e-02
3.149554e+02	-1.722813e-02
3.167746e+02	-1.742732e-02
3.186043e+02	-1.762881e-02
3.204445e+02	-1.783262e-02
3.222954e+02	-1.803879e-02
3.241570e+02	-1.824733e-02
3.260293e+02	-1.845828e-02
3.279124e+02	-1.867166e-02
3.298064e+02	-1.888751e-02
3.317114e+02	-1.910584e-02
3.336273e+02	-1.932669e-02
3.355544e+02	-1.955009e-02
3.374925e+02	-1.977607e-02
3.394418e+02	-2.000465e-02
3.414024e+02	-2.023587e-02
3.433744e+02	-2.046975e-02
3.453577e+02	-2.070633e-02
3.473525e+02	-2.094564e-02
3.493588e+02	-2.118770e-02
3.513766e+02	-2.143256e-02
3.534062e+02	-2.168024e-02
3.554474e+02	-2.193077e-02
3.575005e+02	-2.218420e-02
3.595654e+02	-2.244054e-02
3.616422e+02	-2.269984e-02
3.637311e+02	-2.296212e-02
3.658320e+02	-2.322743e-02
3.679450e+02	-2.349580e-02
3.700702e+02	-2.376725e-02
3.722077e+02	-2.404184e-02
3.743576e+02	-2.431959e-02
3.765199e+02	-2.460054e-02
3.786946e+02	-2.488472e-02
3.808820e+02	-2.517218e-02
3.830819e+02	-2.546295e-02
3.852946e+02	-2.575706e-02
3.875200e+02	-2.605457e-02
3.897583e+02	-2.635550e-02
3.920096e+02	-2.665989e-02
3.942738e+02	-2.696779e-02
3.965511e+02	-2.727924e-02
3.988416e+02	-2.759427e-02
4.011452e+02	-2.791292e-02
4.034622e+02	-2.823524e-02
4.057926e+02	-2.856128e-02
4.081365e+02	-2.889106e-02
4.104938e+02	-2.922464e-02
4.128648e+02	-2.956206e-02
4.152495e+02	-2.990337e-02
4.176480e+02	-3.024859e-02
4.200603e+02	-3.059779e-02
4.224866e+02	-3.095101e-02
4.249268e+02	-3.130829e-02
4.273812e+02	-3.166968e-02
4.298497e+02	-3.203522e-02
4.323325e+02	-3.240497e-02
4.348297e+02	-3.277897e-02
4.373412e+02	-3.315727e-02
4.398673e+02	-3.353991e-02
4.424079e+02	-3.392696e-02
4.449633e+02	-3.431845e-02
4.475334e+02	-3.471445e-02
4.501183e+02	-3.511499e-02
4.527182e+02	-3.552014e-02
4.553330e+02	-3.592995e-02
4.579630e+02	-3.634446e-02
4.606082e+02	-3.676373e-02
4.632687e+02	-3.718782e-02
4.659445e+02	-3.761678e-02
4.686358e+02	-3.805066e-02
4.713426e+02	-3.848953e-02
4.740650e+02	-3.893344e-02
4.768032e+02	-3.938244e-02
4.795572e+02	-3.983660e-02
4.823271e+02	-4.029597e-02
4.851130e+02	-4.076061e-02
4.879150e+02	-4.123059e-02
4.907332e+02	-4.170596e-02
4.935676e+02	-4.218678e-02
4.964185e+02	-4.267312e-02
4.992858e+02	-4.316503e-02
5.021696e+02	-4.366259e-02
5.050701e+02	-4.416586e-02
5.079874e+02	-4.467489e-02
5.109215e+02	-4.518976e-02
5.138726e+02	-4.571054e-02
5.168407e+02	-4.623728e-02
5.198259e+02	-4.677006e-02
5.228284e+02	-4.730895e-02
5.258482e+02	-4.785401e-02
5.288855e+02	-4.840531e-02
5.319403e+02	-4.896293e-02
5.350128e+02	-4.952694e-02
5.381030e+02	-5.009741e-02
5.412111e+02	-5.067441e-02
5.443371e+02	-5.125801e-02
5.474812e+02	-5.184830e-02
5.506434e+02	-5.244534e-02
5.538239e+02	-5.304922e-02
5.570228e+02	-5.366000e-02
5.602401e+02	-5.427778e-02
5.634760e+02	-5.490262e-02
5.667306e+02	-5.553461e-02
5.700040e+02	-5.617382e-02
5.732964e+02	-5.682035e-02
5.766077e+02	-5.747427e-02
5.799382e+02	-5.813566e-02
5.832879e+02	-5.880461e-02
5.866569e+02	-5.948120e-02
5.900454e+02	-6.016553e-02
5.934535e+02	-6.085767e-02
5.968813e+02	-6.155772e-02
6.003288e+02	-6.226577e-02
6.037963e+02	-6.298190e-02
6.072838e+02	-6.370620e-02
6.107914e+02	-6.443878e-02
6.143194e+02	-6.517971e-02
6.178676e+02	-6.592910e-02
6.214364e+02	-6.668704e-02
6.250258e+02	-6.745362e-02
6.286359e+02	-6.822894e-02
6.322669e+02	-6.901311e-02
6.359189e+02	-6.980622e-02
6.395919e+02	-7.060836e-02
6.432862e+02	-7.141965e-02
6.470017e+02	-7.224018e-02
6.507388e+02	-7.307006e-02
6.544974e+02	-7.390939e-02
6.582778e+02	-7.475828e-02
6.620800e+02	-7.561683e-02
6.659041e+02	-7.648516e-02
6.697504e+02	-7.736337e-02
6.736188e+02	-7.825157e-02
6.775096e+02	-7.914988e-02
6.814229e+02	-8.005840e-02
6.853587e+02	-8.097725e-02
6.893173e+02	-8.190655e-02
6.932988e+02	-8.284641e-02
6.973033e+02	-8.379696e-02
7.013309e+02	-8.475830e-02
