Frequency(Hz)	Magnitude(dB)
1.000000e+01	-2.087234e+00
1.005776e+01	-2.106525e+00
1.011585e+01	-2.125755e+00
1.017428e+01	-2.144794e+00
1.023305e+01	-2.164757e+00
1.029215e+01	-2.184407e+00
1.035160e+01	-2.204210e+00
1.041139e+01	-2.224323e+00
1.047153e+01	-2.244336e+00
1.053201e+01	-2.264650e+00
1.059284e+01	-2.284773e+00
1.065403e+01	-2.305552e+00
1.071556e+01	-2.326120e+00
1.077746e+01	-2.347084e+00
1.083971e+01	-2.367876e+00
1.090232e+01	-2.388916e+00
1.096529e+01	-2.410252e+00
1.102862e+01	-2.431502e+00
1.109232e+01	-2.453173e+00
1.115639e+01	-2.474852e+00
1.122083e+01	-2.496534e+00
1.128564e+01	-2.518496e+00
1.135083e+01	-2.540583e+00
1.141639e+01	-2.562985e+00
1.148233e+01	-2.585225e+00
1.154865e+01	-2.607863e+00
1.161536e+01	-2.630354e+00
1.168245e+01	-2.653217e+00
1.174992e+01	-2.675909e+00
1.181779e+01	-2.699226e+00
1.188605e+01	-2.722537e+00
1.195470e+01	-2.745987e+00
1.202375e+01	-2.769469e+00
1.209320e+01	-2.793016e+00
1.216305e+01	-2.816953e+00
1.223330e+01	-2.840644e+00
1.230396e+01	-2.864928e+00
1.237503e+01	-2.889076e+00
1.244651e+01	-2.913403e+00
1.251840e+01	-2.938187e+00
1.259070e+01	-2.962680e+00
1.266343e+01	-2.987325e+00
1.273657e+01	-3.012148e+00
1.281014e+01	-3.037648e+00
1.288413e+01	-3.062520e+00
1.295855e+01	-3.088080e+00
1.303339e+01	-3.113577e+00
1.310867e+01	-3.139362e+00
1.318439e+01	-3.165151e+00
1.326054e+01	-3.191130e+00
1.333713e+01	-3.217415e+00
1.341417e+01	-3.243405e+00
1.349165e+01	-3.269829e+00
1.356958e+01	-3.296278e+00
1.364795e+01	-3.323254e+00
1.372678e+01	-3.349916e+00
1.380607e+01	-3.376816e+00
1.388581e+01	-3.404000e+00
1.396602e+01	-3.431227e+00
1.404668e+01	-3.458507e+00
1.412782e+01	-3.485983e+00
1.420942e+01	-3.514056e+00
1.429149e+01	-3.541731e+00
1.437404e+01	-3.569767e+00
1.445706e+01	-3.597635e+00
1.454057e+01	-3.625939e+00
1.462455e+01	-3.654215e+00
1.470902e+01	-3.682680e+00
1.479398e+01	-3.711728e+00
1.487943e+01	-3.740436e+00
1.496537e+01	-3.769340e+00
1.505181e+01	-3.798549e+00
1.513875e+01	-3.827690e+00
1.522619e+01	-3.856962e+00
1.531414e+01	-3.886678e+00
1.540259e+01	-3.916071e+00
1.549156e+01	-3.946061e+00
1.558103e+01	-3.976009e+00
1.567103e+01	-4.006055e+00
1.576155e+01	-4.036286e+00
1.585258e+01	-4.066631e+00
1.594415e+01	-4.097121e+00
1.603624e+01	-4.127912e+00
1.612886e+01	-4.158382e+00
1.622202e+01	-4.188921e+00
1.631572e+01	-4.220391e+00
1.640996e+01	-4.251461e+00
1.650474e+01	-4.282951e+00
1.660008e+01	-4.314196e+00
1.669596e+01	-4.345337e+00
1.679239e+01	-4.377439e+00
1.688938e+01	-4.409241e+00
1.698694e+01	-4.441143e+00
1.708505e+01	-4.473434e+00
1.718373e+01	-4.505603e+00
1.728299e+01	-4.537854e+00
1.738281e+01	-4.570458e+00
1.748322e+01	-4.602942e+00
1.758420e+01	-4.636028e+00
1.768576e+01	-4.668658e+00
1.778792e+01	-4.701776e+00
1.789066e+01	-4.734985e+00
1.799399e+01	-4.768331e+00
1.809793e+01	-4.801798e+00
1.820246e+01	-4.835135e+00
1.830760e+01	-4.868747e+00
1.841334e+01	-4.902631e+00
1.851969e+01	-4.936494e+00
1.862666e+01	-4.970457e+00
1.873425e+01	-5.004740e+00
1.884246e+01	-5.038933e+00
1.895129e+01	-5.073550e+00
1.906075e+01	-5.108016e+00
1.917085e+01	-5.142515e+00
1.928158e+01	-5.177331e+00
1.939295e+01	-5.212369e+00
1.950496e+01	-5.247314e+00
1.961762e+01	-5.282598e+00
1.973093e+01	-5.317242e+00
1.984490e+01	-5.352880e+00
1.995952e+01	-5.388675e+00
2.007480e+01	-5.424111e+00
2.019076e+01	-5.459780e+00
2.030738e+01	-5.495546e+00
2.042467e+01	-5.531715e+00
2.054264e+01	-5.567817e+00
2.066130e+01	-5.603873e+00
2.078064e+01	-5.640314e+00
2.090066e+01	-5.677001e+00
2.102139e+01	-5.713161e+00
2.114280e+01	-5.750174e+00
2.126492e+01	-5.786775e+00
2.138775e+01	-5.823445e+00
2.151128e+01	-5.860339e+00
2.163553e+01	-5.897685e+00
2.176050e+01	-5.934727e+00
2.188619e+01	-5.972135e+00
2.201260e+01	-6.009626e+00
2.213974e+01	-6.047147e+00
2.226762e+01	-6.084950e+00
2.239624e+01	-6.122553e+00
2.252560e+01	-6.160404e+00
2.265571e+01	-6.198167e+00
2.278656e+01	-6.236364e+00
2.291818e+01	-6.274393e+00
2.305055e+01	-6.313159e+00
2.318369e+01	-6.351463e+00
2.331760e+01	-6.390190e+00
2.345228e+01	-6.428416e+00
2.358774e+01	-6.467078e+00
2.372398e+01	-6.506341e+00
2.386101e+01	-6.544840e+00
2.399883e+01	-6.583735e+00
2.413745e+01	-6.622865e+00
2.427686e+01	-6.662185e+00
2.441709e+01	-6.701309e+00
2.455812e+01	-6.740670e+00
2.469997e+01	-6.780168e+00
2.484263e+01	-6.819645e+00
2.498612e+01	-6.859657e+00
2.513044e+01	-6.899307e+00
2.527559e+01	-6.939240e+00
2.542158e+01	-6.978915e+00
2.556842e+01	-7.019036e+00
2.571610e+01	-7.059436e+00
2.586463e+01	-7.099531e+00
2.601403e+01	-7.139882e+00
2.616428e+01	-7.180208e+00
2.631541e+01	-7.220418e+00
2.646740e+01	-7.261516e+00
2.662028e+01	-7.302113e+00
2.677404e+01	-7.342394e+00
2.692868e+01	-7.383478e+00
2.708422e+01	-7.424457e+00
2.724066e+01	-7.465653e+00
2.739800e+01	-7.506523e+00
2.755625e+01	-7.548039e+00
2.771541e+01	-7.589073e+00
2.787550e+01	-7.630187e+00
2.803650e+01	-7.671896e+00
2.819844e+01	-7.713417e+00
2.836131e+01	-7.755313e+00
2.852513e+01	-7.796557e+00
2.868989e+01	-7.838036e+00
2.885560e+01	-7.880253e+00
2.902227e+01	-7.921908e+00
2.918990e+01	-7.964334e+00
2.935850e+01	-8.006268e+00
2.952807e+01	-8.048138e+00
2.969863e+01	-8.089926e+00
2.987016e+01	-8.132771e+00
3.004269e+01	-8.175333e+00
3.021622e+01	-8.217686e+00
3.039075e+01	-8.260253e+00
3.056628e+01	-8.302434e+00
3.074283e+01	-8.345247e+00
3.092040e+01	-8.388108e+00
3.109900e+01	-8.431131e+00
3.127862e+01	-8.473890e+00
3.145929e+01	-8.516714e+00
3.164099e+01	-8.560111e+00
3.182375e+01	-8.603016e+00
3.200756e+01	-8.645527e+00
3.219244e+01	-8.689466e+00
3.237838e+01	-8.732930e+00
3.256540e+01	-8.776085e+00
3.275349e+01	-8.819264e+00
3.294268e+01	-8.862912e+00
3.313295e+01	-8.906953e+00
3.332433e+01	-8.950345e+00
3.351681e+01	-8.993924e+00
3.371040e+01	-9.037479e+00
3.390511e+01	-9.081007e+00
3.410094e+01	-9.125000e+00
3.429791e+01	-9.169248e+00
3.449601e+01	-9.213198e+00
3.469526e+01	-9.256914e+00
3.489566e+01	-9.301302e+00
3.509721e+01	-9.345424e+00
3.529993e+01	-9.390126e+00
3.550382e+01	-9.433716e+00
3.570889e+01	-9.478655e+00
3.591515e+01	-9.522730e+00
3.612259e+01	-9.567324e+00
3.633123e+01	-9.612088e+00
3.654108e+01	-9.657055e+00
3.675214e+01	-9.701439e+00
3.696442e+01	-9.745593e+00
3.717792e+01	-9.790448e+00
3.739266e+01	-9.835537e+00
3.760864e+01	-9.880202e+00
3.782587e+01	-9.925105e+00
3.804435e+01	-9.969778e+00
3.826409e+01	-1.001584e+01
3.848510e+01	-1.006064e+01
3.870739e+01	-1.010508e+01
3.893096e+01	-1.015089e+01
3.915583e+01	-1.019562e+01
3.938199e+01	-1.024144e+01
3.960946e+01	-1.028621e+01
3.983824e+01	-1.033137e+01
4.006834e+01	-1.037692e+01
4.029978e+01	-1.042184e+01
4.053255e+01	-1.046766e+01
4.076666e+01	-1.051348e+01
4.100213e+01	-1.055931e+01
4.123896e+01	-1.060492e+01
4.147715e+01	-1.065011e+01
4.171672e+01	-1.069607e+01
4.195767e+01	-1.074153e+01
4.220002e+01	-1.078741e+01
4.244377e+01	-1.083431e+01
4.268892e+01	-1.087997e+01
4.293549e+01	-1.092517e+01
4.318348e+01	-1.097160e+01
4.343291e+01	-1.101697e+01
4.368377e+01	-1.106351e+01
4.393609e+01	-1.110961e+01
4.418986e+01	-1.115561e+01
4.444510e+01	-1.120251e+01
4.470182e+01	-1.124866e+01
4.496001e+01	-1.129501e+01
4.521970e+01	-1.134143e+01
4.548089e+01	-1.138714e+01
4.574358e+01	-1.143384e+01
4.600779e+01	-1.148012e+01
4.627353e+01	-1.152676e+01
4.654081e+01	-1.157318e+01
4.680963e+01	-1.161945e+01
4.708000e+01	-1.166650e+01
4.735193e+01	-1.171277e+01
4.762543e+01	-1.175987e+01
4.790051e+01	-1.180615e+01
4.817719e+01	-1.185309e+01
4.845545e+01	-1.190054e+01
4.873533e+01	-1.194656e+01
4.901682e+01	-1.199373e+01
4.929994e+01	-1.204054e+01
4.958470e+01	-1.208646e+01
4.987110e+01	-1.213416e+01
5.015915e+01	-1.218189e+01
5.044887e+01	-1.222865e+01
5.074026e+01	-1.227575e+01
5.103333e+01	-1.232219e+01
5.132810e+01	-1.236895e+01
5.162457e+01	-1.241675e+01
5.192275e+01	-1.246350e+01
5.222265e+01	-1.251182e+01
5.252429e+01	-1.255830e+01
5.282767e+01	-1.260589e+01
5.313280e+01	-1.265323e+01
5.343969e+01	-1.270050e+01
5.374836e+01	-1.274824e+01
5.405880e+01	-1.279551e+01
5.437105e+01	-1.284290e+01
5.468509e+01	-1.289046e+01
5.500095e+01	-1.293775e+01
5.531863e+01	-1.298484e+01
5.563815e+01	-1.303243e+01
5.595951e+01	-1.307951e+01
5.628273e+01	-1.312726e+01
5.660782e+01	-1.317467e+01
5.693479e+01	-1.322313e+01
5.726364e+01	-1.327100e+01
5.759439e+01	-1.331834e+01
5.792705e+01	-1.336570e+01
5.826164e+01	-1.341389e+01
5.859815e+01	-1.346124e+01
5.893662e+01	-1.350885e+01
5.927703e+01	-1.355622e+01
5.961941e+01	-1.360498e+01
5.996377e+01	-1.365355e+01
6.031012e+01	-1.370102e+01
6.065847e+01	-1.374804e+01
6.100883e+01	-1.379629e+01
6.136121e+01	-1.384374e+01
6.171563e+01	-1.389277e+01
6.207210e+01	-1.394005e+01
6.243063e+01	-1.398822e+01
6.279122e+01	-1.403701e+01
6.315390e+01	-1.408470e+01
6.351868e+01	-1.413230e+01
6.388556e+01	-1.418065e+01
6.425456e+01	-1.422922e+01
6.462569e+01	-1.427661e+01
6.499897e+01	-1.432550e+01
6.537440e+01	-1.437315e+01
6.575200e+01	-1.442173e+01
6.613178e+01	-1.446967e+01
6.651375e+01	-1.451844e+01
6.689793e+01	-1.456596e+01
6.728433e+01	-1.461447e+01
6.767297e+01	-1.466322e+01
6.806384e+01	-1.471161e+01
6.845698e+01	-1.475993e+01
6.885238e+01	-1.480785e+01
6.925007e+01	-1.485688e+01
6.965005e+01	-1.490472e+01
7.005235e+01	-1.495276e+01
7.045697e+01	-1.500181e+01
7.086393e+01	-1.504936e+01
7.127323e+01	-1.509790e+01
7.168490e+01	-1.514757e+01
7.209895e+01	-1.519576e+01
7.251539e+01	-1.524317e+01
7.293424e+01	-1.529257e+01
7.335551e+01	-1.534069e+01
7.377920e+01	-1.538935e+01
7.420535e+01	-1.543805e+01
7.463396e+01	-1.548691e+01
7.506504e+01	-1.553548e+01
7.549861e+01	-1.558432e+01
7.593469e+01	-1.563219e+01
7.637328e+01	-1.568166e+01
7.681441e+01	-1.572911e+01
7.725809e+01	-1.578041e+01
7.770433e+01	-1.582750e+01
7.815315e+01	-1.587653e+01
7.860456e+01	-1.592473e+01
7.905857e+01	-1.597349e+01
7.951521e+01	-1.602174e+01
7.997449e+01	-1.607203e+01
8.043642e+01	-1.612018e+01
8.090102e+01	-1.616895e+01
8.136830e+01	-1.621812e+01
8.183828e+01	-1.626762e+01
8.231097e+01	-1.631546e+01
8.278640e+01	-1.636344e+01
8.326457e+01	-1.641324e+01
8.374550e+01	-1.646126e+01
8.422921e+01	-1.651232e+01
8.471572e+01	-1.656096e+01
8.520503e+01	-1.660893e+01
8.569717e+01	-1.665767e+01
8.619215e+01	-1.670702e+01
8.669000e+01	-1.675541e+01
8.719071e+01	-1.680323e+01
8.769432e+01	-1.685322e+01
8.820084e+01	-1.690259e+01
8.871029e+01	-1.695028e+01
8.922267e+01	-1.700104e+01
8.973802e+01	-1.704958e+01
9.025634e+01	-1.709902e+01
9.077766e+01	-1.714842e+01
9.130199e+01	-1.719565e+01
9.182935e+01	-1.724584e+01
9.235975e+01	-1.729477e+01
9.289321e+01	-1.734403e+01
9.342976e+01	-1.739249e+01
9.396941e+01	-1.744267e+01
9.451217e+01	-1.749141e+01
9.505807e+01	-1.754091e+01
9.560712e+01	-1.758976e+01
9.615934e+01	-1.764004e+01
9.671476e+01	-1.768829e+01
9.727338e+01	-1.773907e+01
9.783522e+01	-1.778756e+01
9.840032e+01	-1.783520e+01
9.896867e+01	-1.788591e+01
9.954031e+01	-1.793444e+01
1.001153e+02	-1.798467e+01
1.006935e+02	-1.803318e+01
1.012751e+02	-1.808014e+01
1.018601e+02	-1.813190e+01
1.024484e+02	-1.818119e+01
1.030402e+02	-1.823008e+01
1.036353e+02	-1.827961e+01
1.042339e+02	-1.832914e+01
1.048360e+02	-1.837773e+01
1.054415e+02	-1.842686e+01
1.060505e+02	-1.847624e+01
1.066631e+02	-1.852600e+01
1.072791e+02	-1.857616e+01
1.078988e+02	-1.862353e+01
1.085220e+02	-1.867306e+01
1.091488e+02	-1.872137e+01
1.097793e+02	-1.877306e+01
1.104133e+02	-1.882188e+01
1.110511e+02	-1.887099e+01
1.116925e+02	-1.892077e+01
1.123376e+02	-1.897111e+01
1.129865e+02	-1.901940e+01
1.136391e+02	-1.906984e+01
1.142955e+02	-1.911857e+01
1.149556e+02	-1.916614e+01
1.156196e+02	-1.921598e+01
1.162874e+02	-1.926655e+01
1.169591e+02	-1.931608e+01
1.176347e+02	-1.936580e+01
1.183141e+02	-1.941452e+01
1.189975e+02	-1.946417e+01
1.196848e+02	-1.951308e+01
1.203761e+02	-1.956405e+01
1.210714e+02	-1.961363e+01
1.217707e+02	-1.966301e+01
1.224740e+02	-1.971200e+01
1.231814e+02	-1.976043e+01
1.238929e+02	-1.981030e+01
1.246085e+02	-1.986042e+01
1.253283e+02	-1.990973e+01
1.260522e+02	-1.995857e+01
1.267802e+02	-2.000851e+01
1.275125e+02	-2.005783e+01
1.282490e+02	-2.010685e+01
1.289898e+02	-2.015823e+01
1.297348e+02	-2.020755e+01
1.304842e+02	-2.025489e+01
1.312378e+02	-2.030620e+01
1.319959e+02	-2.035622e+01
1.327583e+02	-2.040388e+01
1.335251e+02	-2.045436e+01
1.342963e+02	-2.050408e+01
1.350720e+02	-2.055423e+01
1.358522e+02	-2.060238e+01
1.366368e+02	-2.065361e+01
1.374260e+02	-2.070331e+01
1.382198e+02	-2.075340e+01
1.390182e+02	-2.080451e+01
1.398211e+02	-2.085217e+01
1.406287e+02	-2.090254e+01
1.414410e+02	-2.095157e+01
1.422579e+02	-2.099856e+01
1.430796e+02	-2.105167e+01
1.439060e+02	-2.109957e+01
1.447372e+02	-2.115097e+01
1.455732e+02	-2.119929e+01
1.464141e+02	-2.124971e+01
1.472597e+02	-2.129984e+01
1.481103e+02	-2.134639e+01
1.489658e+02	-2.139529e+01
1.498262e+02	-2.144888e+01
1.506916e+02	-2.149550e+01
1.515620e+02	-2.154677e+01
1.524374e+02	-2.159660e+01
1.533179e+02	-2.164543e+01
1.542034e+02	-2.169550e+01
1.550941e+02	-2.174739e+01
1.559899e+02	-2.179537e+01
1.568909e+02	-2.184384e+01
1.577971e+02	-2.189541e+01
1.587085e+02	-2.194216e+01
1.596252e+02	-2.199280e+01
1.605472e+02	-2.204490e+01
1.614745e+02	-2.209552e+01
1.624072e+02	-2.214382e+01
1.633453e+02	-2.219292e+01
1.642887e+02	-2.224329e+01
1.652377e+02	-2.229157e+01
1.661921e+02	-2.234223e+01
1.671520e+02	-2.239100e+01
1.681175e+02	-2.243954e+01
1.690885e+02	-2.249429e+01
1.700651e+02	-2.254251e+01
1.710474e+02	-2.259057e+01
1.720354e+02	-2.264166e+01
1.730291e+02	-2.268970e+01
1.740285e+02	-2.274037e+01
1.750337e+02	-2.279253e+01
1.760446e+02	-2.284138e+01
1.770615e+02	-2.288940e+01
1.780842e+02	-2.293985e+01
1.791128e+02	-2.298611e+01
1.801473e+02	-2.304004e+01
1.811878e+02	-2.308990e+01
1.822344e+02	-2.313830e+01
1.832870e+02	-2.318977e+01
1.843456e+02	-2.323895e+01
1.854104e+02	-2.328874e+01
1.864813e+02	-2.333819e+01
1.875584e+02	-2.338720e+01
1.886418e+02	-2.343642e+01
1.897313e+02	-2.348785e+01
1.908272e+02	-2.353725e+01
1.919294e+02	-2.358889e+01
1.930380e+02	-2.363600e+01
1.941530e+02	-2.368793e+01
1.952744e+02	-2.373562e+01
1.964023e+02	-2.378658e+01
1.975367e+02	-2.383686e+01
1.986777e+02	-2.388610e+01
1.998252e+02	-2.393610e+01
2.009794e+02	-2.398730e+01
2.021403e+02	-2.403836e+01
2.033078e+02	-2.408379e+01
2.044821e+02	-2.413581e+01
2.056632e+02	-2.418545e+01
2.068511e+02	-2.423607e+01
2.080459e+02	-2.428687e+01
2.092475e+02	-2.433215e+01
2.104561e+02	-2.438625e+01
2.116717e+02	-2.443708e+01
2.128943e+02	-2.448714e+01
2.141240e+02	-2.453271e+01
2.153608e+02	-2.458171e+01
2.166047e+02	-2.463503e+01
2.178558e+02	-2.468399e+01
2.191141e+02	-2.473544e+01
2.203797e+02	-2.478249e+01
2.216526e+02	-2.483278e+01
2.229329e+02	-2.488244e+01
2.242205e+02	-2.493277e+01
2.255156e+02	-2.498434e+01
2.268182e+02	-2.503314e+01
2.281283e+02	-2.508302e+01
2.294459e+02	-2.513167e+01
2.307712e+02	-2.518353e+01
2.321041e+02	-2.523406e+01
2.334447e+02	-2.528392e+01
2.347931e+02	-2.533123e+01
2.361493e+02	-2.538219e+01
2.375133e+02	-2.543161e+01
2.388851e+02	-2.548361e+01
2.402649e+02	-2.553244e+01
2.416527e+02	-2.558494e+01
2.430484e+02	-2.563256e+01
2.444523e+02	-2.568208e+01
2.458642e+02	-2.573224e+01
2.472843e+02	-2.578221e+01
2.487126e+02	-2.583412e+01
2.501492e+02	-2.588713e+01
2.515940e+02	-2.593242e+01
2.530472e+02	-2.598312e+01
2.545088e+02	-2.603286e+01
2.559789e+02	-2.608242e+01
2.574574e+02	-2.613098e+01
2.589444e+02	-2.617920e+01
2.604401e+02	-2.623218e+01
2.619444e+02	-2.628093e+01
2.634574e+02	-2.633125e+01
2.649791e+02	-2.637958e+01
2.665096e+02	-2.643099e+01
2.680489e+02	-2.648182e+01
2.695972e+02	-2.653323e+01
2.711544e+02	-2.658043e+01
2.727205e+02	-2.663338e+01
2.742958e+02	-2.668175e+01
2.758801e+02	-2.673416e+01
2.774736e+02	-2.678123e+01
2.790762e+02	-2.683453e+01
2.806882e+02	-2.687916e+01
2.823094e+02	-2.693127e+01
2.839400e+02	-2.697975e+01
2.855800e+02	-2.703158e+01
2.872295e+02	-2.708263e+01
2.888886e+02	-2.713203e+01
2.905572e+02	-2.718190e+01
2.922354e+02	-2.723161e+01
2.939234e+02	-2.728132e+01
2.956211e+02	-2.732740e+01
2.973286e+02	-2.738039e+01
2.990459e+02	-2.742856e+01
3.007732e+02	-2.747987e+01
3.025104e+02	-2.753009e+01
3.042577e+02	-2.758189e+01
3.060151e+02	-2.763004e+01
3.077826e+02	-2.767936e+01
3.095604e+02	-2.772972e+01
3.113484e+02	-2.778159e+01
3.131467e+02	-2.783015e+01
3.149554e+02	-2.788145e+01
3.167746e+02	-2.793193e+01
3.186043e+02	-2.798489e+01
3.204445e+02	-2.803266e+01
3.222954e+02	-2.808025e+01
3.241570e+02	-2.813179e+01
3.260293e+02	-2.817977e+01
3.279124e+02	-2.822974e+01
3.298064e+02	-2.828166e+01
3.317114e+02	-2.833025e+01
3.336273e+02	-2.838387e+01
3.355544e+02	-2.842830e+01
3.374925e+02	-2.848310e+01
3.394418e+02	-2.853093e+01
3.414024e+02	-2.857804e+01
3.433744e+02	-2.863111e+01
3.453577e+02	-2.868168e+01
3.473525e+02	-2.872589e+01
3.493588e+02	-2.878579e+01
3.513766e+02	-2.883505e+01
3.534062e+02	-2.888427e+01
3.554474e+02	-2.892597e+01
3.575005e+02	-2.898415e+01
3.595654e+02	-2.903481e+01
3.616422e+02	-2.908395e+01
3.637311e+02	-2.913327e+01
3.658320e+02	-2.918510e+01
3.679450e+02	-2.923278e+01
3.700702e+02	-2.928514e+01
3.722077e+02	-2.933201e+01
3.743576e+02	-2.938162e+01
3.765199e+02	-2.943051e+01
3.786946e+02	-2.948516e+01
3.808820e+02	-2.953467e+01
3.830819e+02	-2.958402e+01
3.852946e+02	-2.963818e+01
3.875200e+02	-2.967835e+01
3.897583e+02	-2.973042e+01
3.920096e+02	-2.978423e+01
3.942738e+02	-2.983321e+01
3.965511e+02	-2.988833e+01
3.988416e+02	-2.993100e+01
4.011452e+02	-2.998683e+01
4.034622e+02	-3.003400e+01
4.057926e+02	-3.008311e+01
4.081365e+02	-3.013671e+01
4.104938e+02	-3.018044e+01
4.128648e+02	-3.023225e+01
4.152495e+02	-3.027879e+01
4.176480e+02	-3.032809e+01
4.200603e+02	-3.038467e+01
4.224866e+02	-3.043678e+01
4.249268e+02	-3.048792e+01
4.273812e+02	-3.053512e+01
4.298497e+02	-3.059395e+01
4.323325e+02	-3.063190e+01
4.348297e+02	-3.068440e+01
4.373412e+02	-3.073680e+01
4.398673e+02	-3.077973e+01
4.424079e+02	-3.084124e+01
4.449633e+02	-3.088992e+01
4.475334e+02	-3.093037e+01
4.501183e+02	-3.098554e+01
4.527182e+02	-3.103811e+01
4.553330e+02	-3.108333e+01
4.579630e+02	-3.113344e+01
4.606082e+02	-3.119018e+01
4.632687e+02	-3.123879e+01
4.659445e+02	-3.129106e+01
4.686358e+02	-3.134458e+01
4.713426e+02	-3.138151e+01
4.740650e+02	-3.143460e+01
4.768032e+02	-3.148521e+01
4.795572e+02	-3.153518e+01
4.823271e+02	-3.158762e+01
4.851130e+02	-3.163918e+01
4.879150e+02	-3.168618e+01
4.907332e+02	-3.174617e+01
4.935676e+02	-3.179062e+01
4.964185e+02	-3.183660e+01
4.992858e+02	-3.188926e+01
5.021696e+02	-3.193619e+01
5.050701e+02	-3.198215e+01
5.079874e+02	-3.203682e+01
5.109215e+02	-3.209507e+01
5.138726e+02	-3.214111e+01
5.168407e+02	-3.218815e+01
5.198259e+02	-3.223989e+01
5.228284e+02	-3.228871e+01
5.258482e+02	-3.234029e+01
5.288855e+02	-3.239049e+01
5.319403e+02	-3.244553e+01
5.350128e+02	-3.249672e+01
5.381030e+02	-3.254180e+01
5.412111e+02	-3.259268e+01
5.443371e+02	-3.264128e+01
5.474812e+02	-3.269307e+01
5.506434e+02	-3.274367e+01
5.538239e+02	-3.279082e+01
5.570228e+02	-3.284304e+01
5.602401e+02	-3.289229e+01
5.634760e+02	-3.294214e+01
5.667306e+02	-3.299120e+01
5.700040e+02	-3.304704e+01
5.732964e+02	-3.309042e+01
5.766077e+02	-3.313901e+01
5.799382e+02	-3.319835e+01
5.832879e+02	-3.324450e+01
5.866569e+02	-3.330210e+01
5.900454e+02	-3.335374e+01
5.934535e+02	-3.339145e+01
5.968813e+02	-3.344540e+01
6.003288e+02	-3.349146e+01
6.037963e+02	-3.355062e+01
6.072838e+02	-3.360152e+01
6.107914e+02	-3.364435e+01
6.143194e+02	-3.369120e+01
6.178676e+02	-3.374853e+01
6.214364e+02	-3.379154e+01
6.250258e+02	-3.385144e+01
6.286359e+02	-3.389688e+01
6.322669e+02	-3.394561e+01
6.359189e+02	-3.399804e+01
6.395919e+02	-3.404422e+01
6.432862e+02	-3.409563e+01
6.470017e+02	-3.415532e+01
6.507388e+02	-3.419567e+01
6.544974e+02	-3.424910e+01
6.582778e+02	-3.429580e+01
6.620800e+02	-3.434715e+01
6.659041e+02	-3.440080e+01
6.697504e+02	-3.445408e+01
6.736188e+02	-3.450404e+01
6.775096e+02	-3.455827e+01
6.814229e+02	-3.460433e+01
6.853587e+02	-3.465355e+01
6.893173e+02	-3.470572e+01
6.932988e+02	-3.475424e+01
6.973033e+02	-3.480192e+01
7.013309e+02	-3.485874e+01
