Frequency(Hz)	Magnitude(dB)
1.000000e+01	-2.114453e+00
1.005776e+01	-2.133719e+00
1.011585e+01	-2.153343e+00
1.017428e+01	-2.173093e+00
1.023305e+01	-2.192712e+00
1.029215e+01	-2.212477e+00
1.035160e+01	-2.232840e+00
1.041139e+01	-2.252879e+00
1.047153e+01	-2.273238e+00
1.053201e+01	-2.293627e+00
1.059284e+01	-2.314361e+00
1.065403e+01	-2.335023e+00
1.071556e+01	-2.355863e+00
1.077746e+01	-2.376793e+00
1.083971e+01	-2.397753e+00
1.090232e+01	-2.419270e+00
1.096529e+01	-2.440682e+00
1.102862e+01	-2.462266e+00
1.109232e+01	-2.483984e+00
1.115639e+01	-2.505911e+00
1.122083e+01	-2.527713e+00
1.128564e+01	-2.550064e+00
1.135083e+01	-2.572354e+00
1.141639e+01	-2.594591e+00
1.148233e+01	-2.617162e+00
1.154865e+01	-2.640024e+00
1.161536e+01	-2.662762e+00
1.168245e+01	-2.685752e+00
1.174992e+01	-2.708782e+00
1.181779e+01	-2.732046e+00
1.188605e+01	-2.755603e+00
1.195470e+01	-2.779417e+00
1.202375e+01	-2.802835e+00
1.209320e+01	-2.826690e+00
1.216305e+01	-2.850848e+00
1.223330e+01	-2.874777e+00
1.230396e+01	-2.899465e+00
1.237503e+01	-2.923892e+00
1.244651e+01	-2.948107e+00
1.251840e+01	-2.973258e+00
1.259070e+01	-2.997982e+00
1.266343e+01	-3.022713e+00
1.273657e+01	-3.048028e+00
1.281014e+01	-3.073529e+00
1.288413e+01	-3.098846e+00
1.295855e+01	-3.124449e+00
1.303339e+01	-3.150049e+00
1.310867e+01	-3.176003e+00
1.318439e+01	-3.201867e+00
1.326054e+01	-3.228223e+00
1.333713e+01	-3.254678e+00
1.341417e+01	-3.281055e+00
1.349165e+01	-3.307851e+00
1.356958e+01	-3.334297e+00
1.364795e+01	-3.361434e+00
1.372678e+01	-3.388405e+00
1.380607e+01	-3.415479e+00
1.388581e+01	-3.442735e+00
1.396602e+01	-3.470115e+00
1.404668e+01	-3.497738e+00
1.412782e+01	-3.525546e+00
1.420942e+01	-3.553543e+00
1.429149e+01	-3.581622e+00
1.437404e+01	-3.609616e+00
1.445706e+01	-3.638120e+00
1.454057e+01	-3.666279e+00
1.462455e+01	-3.695077e+00
1.470902e+01	-3.723666e+00
1.479398e+01	-3.752570e+00
1.487943e+01	-3.781806e+00
1.496537e+01	-3.810623e+00
1.505181e+01	-3.840068e+00
1.513875e+01	-3.869568e+00
1.522619e+01	-3.899222e+00
1.531414e+01	-3.928562e+00
1.540259e+01	-3.958396e+00
1.549156e+01	-3.988306e+00
1.558103e+01	-4.018946e+00
1.567103e+01	-4.049097e+00
1.576155e+01	-4.079244e+00
1.585258e+01	-4.109863e+00
1.594415e+01	-4.140534e+00
1.603624e+01	-4.171372e+00
1.612886e+01	-4.202342e+00
1.622202e+01	-4.233547e+00
1.631572e+01	-4.264521e+00
1.640996e+01	-4.295925e+00
1.650474e+01	-4.327448e+00
1.660008e+01	-4.358910e+00
1.669596e+01	-4.390518e+00
1.679239e+01	-4.422640e+00
1.688938e+01	-4.454834e+00
1.698694e+01	-4.486944e+00
1.708505e+01	-4.519373e+00
1.718373e+01	-4.551749e+00
1.728299e+01	-4.584127e+00
1.738281e+01	-4.617059e+00
1.748322e+01	-4.649632e+00
1.758420e+01	-4.682442e+00
1.768576e+01	-4.715646e+00
1.778792e+01	-4.748739e+00
1.789066e+01	-4.782426e+00
1.799399e+01	-4.815408e+00
1.809793e+01	-4.849238e+00
1.820246e+01	-4.882802e+00
1.830760e+01	-4.917085e+00
1.841334e+01	-4.950555e+00
1.851969e+01	-4.984867e+00
1.862666e+01	-5.018810e+00
1.873425e+01	-5.053402e+00
1.884246e+01	-5.087477e+00
1.895129e+01	-5.122543e+00
1.906075e+01	-5.157178e+00
1.917085e+01	-5.192217e+00
1.928158e+01	-5.227057e+00
1.939295e+01	-5.261973e+00
1.950496e+01	-5.297314e+00
1.961762e+01	-5.332319e+00
1.973093e+01	-5.368089e+00
1.984490e+01	-5.403652e+00
1.995952e+01	-5.439245e+00
2.007480e+01	-5.474965e+00
2.019076e+01	-5.510804e+00
2.030738e+01	-5.546763e+00
2.042467e+01	-5.583090e+00
2.054264e+01	-5.619211e+00
2.066130e+01	-5.655712e+00
2.078064e+01	-5.691910e+00
2.090066e+01	-5.728622e+00
2.102139e+01	-5.765296e+00
2.114280e+01	-5.802089e+00
2.126492e+01	-5.839010e+00
2.138775e+01	-5.876034e+00
2.151128e+01	-5.913144e+00
2.163553e+01	-5.950191e+00
2.176050e+01	-5.988036e+00
2.188619e+01	-6.025549e+00
2.201260e+01	-6.062915e+00
2.213974e+01	-6.101071e+00
2.226762e+01	-6.138828e+00
2.239624e+01	-6.176545e+00
2.252560e+01	-6.214429e+00
2.265571e+01	-6.252315e+00
2.278656e+01	-6.291042e+00
2.291818e+01	-6.328820e+00
2.305055e+01	-6.367521e+00
2.318369e+01	-6.405843e+00
2.331760e+01	-6.444646e+00
2.345228e+01	-6.483299e+00
2.358774e+01	-6.521999e+00
2.372398e+01	-6.560626e+00
2.386101e+01	-6.600296e+00
2.399883e+01	-6.639034e+00
2.413745e+01	-6.678991e+00
2.427686e+01	-6.717832e+00
2.441709e+01	-6.757466e+00
2.455812e+01	-6.797333e+00
2.469997e+01	-6.836278e+00
2.484263e+01	-6.875997e+00
2.498612e+01	-6.916127e+00
2.513044e+01	-6.956132e+00
2.527559e+01	-6.995480e+00
2.542158e+01	-7.035602e+00
2.556842e+01	-7.075871e+00
2.571610e+01	-7.116466e+00
2.586463e+01	-7.156456e+00
2.601403e+01	-7.196869e+00
2.616428e+01	-7.237652e+00
2.631541e+01	-7.278633e+00
2.646740e+01	-7.318989e+00
2.662028e+01	-7.359702e+00
2.677404e+01	-7.400992e+00
2.692868e+01	-7.441755e+00
2.708422e+01	-7.482761e+00
2.724066e+01	-7.524009e+00
2.739800e+01	-7.565196e+00
2.755625e+01	-7.606388e+00
2.771541e+01	-7.647760e+00
2.787550e+01	-7.689401e+00
2.803650e+01	-7.730694e+00
2.819844e+01	-7.772631e+00
2.836131e+01	-7.813792e+00
2.852513e+01	-7.855735e+00
2.868989e+01	-7.898073e+00
2.885560e+01	-7.939736e+00
2.902227e+01	-7.981738e+00
2.918990e+01	-8.024139e+00
2.935850e+01	-8.066289e+00
2.952807e+01	-8.108471e+00
2.969863e+01	-8.150853e+00
2.987016e+01	-8.193222e+00
3.004269e+01	-8.235434e+00
3.021622e+01	-8.278336e+00
3.039075e+01	-8.320570e+00
3.056628e+01	-8.363585e+00
3.074283e+01	-8.406462e+00
3.092040e+01	-8.448964e+00
3.109900e+01	-8.491749e+00
3.127862e+01	-8.534770e+00
3.145929e+01	-8.578113e+00
3.164099e+01	-8.621011e+00
3.182375e+01	-8.664355e+00
3.200756e+01	-8.707389e+00
3.219244e+01	-8.750931e+00
3.237838e+01	-8.794348e+00
3.256540e+01	-8.837091e+00
3.275349e+01	-8.880876e+00
3.294268e+01	-8.924676e+00
3.313295e+01	-8.968596e+00
3.332433e+01	-9.012016e+00
3.351681e+01	-9.055680e+00
3.371040e+01	-9.099710e+00
3.390511e+01	-9.143782e+00
3.410094e+01	-9.187556e+00
3.429791e+01	-9.231888e+00
3.449601e+01	-9.275566e+00
3.469526e+01	-9.319925e+00
3.489566e+01	-9.364144e+00
3.509721e+01	-9.408121e+00
3.529993e+01	-9.452396e+00
3.550382e+01	-9.497178e+00
3.570889e+01	-9.541654e+00
3.591515e+01	-9.586520e+00
3.612259e+01	-9.630104e+00
3.633123e+01	-9.675418e+00
3.654108e+01	-9.719642e+00
3.675214e+01	-9.764887e+00
3.696442e+01	-9.809343e+00
3.717792e+01	-9.854249e+00
3.739266e+01	-9.899172e+00
3.760864e+01	-9.943943e+00
3.782587e+01	-9.988696e+00
3.804435e+01	-1.003430e+01
3.826409e+01	-1.007910e+01
3.848510e+01	-1.012447e+01
3.870739e+01	-1.016933e+01
3.893096e+01	-1.021475e+01
3.915583e+01	-1.026055e+01
3.938199e+01	-1.030522e+01
3.960946e+01	-1.035143e+01
3.983824e+01	-1.039619e+01
4.006834e+01	-1.044166e+01
4.029978e+01	-1.048689e+01
4.053255e+01	-1.053311e+01
4.076666e+01	-1.057830e+01
4.100213e+01	-1.062405e+01
4.123896e+01	-1.066974e+01
4.147715e+01	-1.071535e+01
4.171672e+01	-1.076149e+01
4.195767e+01	-1.080686e+01
4.220002e+01	-1.085282e+01
4.244377e+01	-1.089894e+01
4.268892e+01	-1.094448e+01
4.293549e+01	-1.099095e+01
4.318348e+01	-1.103693e+01
4.343291e+01	-1.108263e+01
4.368377e+01	-1.112959e+01
4.393609e+01	-1.117601e+01
4.418986e+01	-1.122159e+01
4.444510e+01	-1.126798e+01
4.470182e+01	-1.131406e+01
4.496001e+01	-1.136099e+01
4.521970e+01	-1.140664e+01
4.548089e+01	-1.145350e+01
4.574358e+01	-1.150007e+01
4.600779e+01	-1.154677e+01
4.627353e+01	-1.159325e+01
4.654081e+01	-1.163931e+01
4.680963e+01	-1.168587e+01
4.708000e+01	-1.173213e+01
4.735193e+01	-1.177918e+01
4.762543e+01	-1.182528e+01
4.790051e+01	-1.187325e+01
4.817719e+01	-1.191955e+01
4.845545e+01	-1.196613e+01
4.873533e+01	-1.201403e+01
4.901682e+01	-1.206010e+01
4.929994e+01	-1.210748e+01
4.958470e+01	-1.215427e+01
4.987110e+01	-1.220135e+01
5.015915e+01	-1.224795e+01
5.044887e+01	-1.229472e+01
5.074026e+01	-1.234239e+01
5.103333e+01	-1.238908e+01
5.132810e+01	-1.243622e+01
5.162457e+01	-1.248423e+01
5.192275e+01	-1.253168e+01
5.222265e+01	-1.257825e+01
5.252429e+01	-1.262568e+01
5.282767e+01	-1.267276e+01
5.313280e+01	-1.271989e+01
5.343969e+01	-1.276808e+01
5.374836e+01	-1.281525e+01
5.405880e+01	-1.286197e+01
5.437105e+01	-1.290933e+01
5.468509e+01	-1.295677e+01
5.500095e+01	-1.300498e+01
5.531863e+01	-1.305269e+01
5.563815e+01	-1.309950e+01
5.595951e+01	-1.314784e+01
5.628273e+01	-1.319461e+01
5.660782e+01	-1.324261e+01
5.693479e+01	-1.329070e+01
5.726364e+01	-1.333827e+01
5.759439e+01	-1.338636e+01
5.792705e+01	-1.343392e+01
5.826164e+01	-1.348054e+01
5.859815e+01	-1.352939e+01
5.893662e+01	-1.357602e+01
5.927703e+01	-1.362509e+01
5.961941e+01	-1.367316e+01
5.996377e+01	-1.372019e+01
6.031012e+01	-1.376887e+01
6.065847e+01	-1.381668e+01
6.100883e+01	-1.386450e+01
6.136121e+01	-1.391282e+01
6.171563e+01	-1.396087e+01
6.207210e+01	-1.400840e+01
6.243063e+01	-1.405684e+01
6.279122e+01	-1.410532e+01
6.315390e+01	-1.415305e+01
6.351868e+01	-1.420042e+01
6.388556e+01	-1.424947e+01
6.425456e+01	-1.429719e+01
6.462569e+01	-1.434577e+01
6.499897e+01	-1.439393e+01
6.537440e+01	-1.444194e+01
6.575200e+01	-1.448976e+01
6.613178e+01	-1.453878e+01
6.651375e+01	-1.458666e+01
6.689793e+01	-1.463482e+01
6.728433e+01	-1.468343e+01
6.767297e+01	-1.473182e+01
6.806384e+01	-1.478001e+01
6.845698e+01	-1.482881e+01
6.885238e+01	-1.487668e+01
6.925007e+01	-1.492526e+01
6.965005e+01	-1.497291e+01
7.005235e+01	-1.502147e+01
7.045697e+01	-1.506974e+01
7.086393e+01	-1.511895e+01
7.127323e+01	-1.516600e+01
7.168490e+01	-1.521639e+01
7.209895e+01	-1.526457e+01
7.251539e+01	-1.531234e+01
7.293424e+01	-1.536195e+01
7.335551e+01	-1.541077e+01
7.377920e+01	-1.545926e+01
7.420535e+01	-1.550674e+01
7.463396e+01	-1.555594e+01
7.506504e+01	-1.560441e+01
7.549861e+01	-1.565285e+01
7.593469e+01	-1.570107e+01
7.637328e+01	-1.575038e+01
7.681441e+01	-1.579971e+01
7.725809e+01	-1.584797e+01
7.770433e+01	-1.589698e+01
7.815315e+01	-1.594506e+01
7.860456e+01	-1.599383e+01
7.905857e+01	-1.604219e+01
7.951521e+01	-1.609224e+01
7.997449e+01	-1.614024e+01
8.043642e+01	-1.618967e+01
8.090102e+01	-1.623814e+01
8.136830e+01	-1.628767e+01
8.183828e+01	-1.633566e+01
8.231097e+01	-1.638459e+01
8.278640e+01	-1.643408e+01
8.326457e+01	-1.648221e+01
8.374550e+01	-1.653141e+01
8.422921e+01	-1.657960e+01
8.471572e+01	-1.663017e+01
8.520503e+01	-1.667817e+01
8.569717e+01	-1.672747e+01
8.619215e+01	-1.677603e+01
8.669000e+01	-1.682559e+01
8.719071e+01	-1.687428e+01
8.769432e+01	-1.692228e+01
8.820084e+01	-1.697215e+01
8.871029e+01	-1.702187e+01
8.922267e+01	-1.707114e+01
8.973802e+01	-1.711967e+01
9.025634e+01	-1.716866e+01
9.077766e+01	-1.721671e+01
9.130199e+01	-1.726732e+01
9.182935e+01	-1.731547e+01
9.235975e+01	-1.736526e+01
9.289321e+01	-1.741356e+01
9.342976e+01	-1.746416e+01
9.396941e+01	-1.751188e+01
9.451217e+01	-1.756047e+01
9.505807e+01	-1.761087e+01
9.560712e+01	-1.765967e+01
9.615934e+01	-1.770901e+01
9.671476e+01	-1.775912e+01
9.727338e+01	-1.780725e+01
9.783522e+01	-1.785683e+01
9.840032e+01	-1.790482e+01
9.896867e+01	-1.795539e+01
9.954031e+01	-1.800413e+01
1.001153e+02	-1.805417e+01
1.006935e+02	-1.810246e+01
1.012751e+02	-1.815180e+01
1.018601e+02	-1.820144e+01
1.024484e+02	-1.825133e+01
1.030402e+02	-1.829998e+01
1.036353e+02	-1.834872e+01
1.042339e+02	-1.839930e+01
1.048360e+02	-1.844809e+01
1.054415e+02	-1.849599e+01
1.060505e+02	-1.854454e+01
1.066631e+02	-1.859601e+01
1.072791e+02	-1.864579e+01
1.078988e+02	-1.869286e+01
1.085220e+02	-1.874351e+01
1.091488e+02	-1.879240e+01
1.097793e+02	-1.884308e+01
1.104133e+02	-1.889227e+01
1.110511e+02	-1.894177e+01
1.116925e+02	-1.899075e+01
1.123376e+02	-1.904061e+01
1.129865e+02	-1.908927e+01
1.136391e+02	-1.913837e+01
1.142955e+02	-1.918838e+01
1.149556e+02	-1.923695e+01
1.156196e+02	-1.928670e+01
1.162874e+02	-1.933692e+01
1.169591e+02	-1.938457e+01
1.176347e+02	-1.943574e+01
1.183141e+02	-1.948359e+01
1.189975e+02	-1.953256e+01
1.196848e+02	-1.958422e+01
1.203761e+02	-1.963336e+01
1.210714e+02	-1.968475e+01
1.217707e+02	-1.973145e+01
1.224740e+02	-1.978175e+01
1.231814e+02	-1.983310e+01
1.238929e+02	-1.988027e+01
1.246085e+02	-1.993091e+01
1.253283e+02	-1.997929e+01
1.260522e+02	-2.002879e+01
1.267802e+02	-2.007899e+01
1.275125e+02	-2.012890e+01
1.282490e+02	-2.017779e+01
1.289898e+02	-2.022929e+01
1.297348e+02	-2.027832e+01
1.304842e+02	-2.032784e+01
1.312378e+02	-2.037785e+01
1.319959e+02	-2.042629e+01
1.327583e+02	-2.047457e+01
1.335251e+02	-2.052569e+01
1.342963e+02	-2.057580e+01
1.350720e+02	-2.062431e+01
1.358522e+02	-2.067422e+01
1.366368e+02	-2.072488e+01
1.374260e+02	-2.077346e+01
1.382198e+02	-2.082294e+01
1.390182e+02	-2.087287e+01
1.398211e+02	-2.092326e+01
1.406287e+02	-2.097241e+01
1.414410e+02	-2.102076e+01
1.422579e+02	-2.107223e+01
1.430796e+02	-2.112178e+01
1.439060e+02	-2.117084e+01
1.447372e+02	-2.121951e+01
1.455732e+02	-2.126987e+01
1.464141e+02	-2.132055e+01
1.472597e+02	-2.136852e+01
1.481103e+02	-2.141715e+01
1.489658e+02	-2.146930e+01
1.498262e+02	-2.151772e+01
1.506916e+02	-2.156758e+01
1.515620e+02	-2.161861e+01
1.524374e+02	-2.166617e+01
1.533179e+02	-2.171940e+01
1.542034e+02	-2.176652e+01
1.550941e+02	-2.181614e+01
1.559899e+02	-2.186916e+01
1.568909e+02	-2.191503e+01
1.577971e+02	-2.196591e+01
1.587085e+02	-2.201464e+01
1.596252e+02	-2.206544e+01
1.605472e+02	-2.211390e+01
1.614745e+02	-2.216536e+01
1.624072e+02	-2.221271e+01
1.633453e+02	-2.226500e+01
1.642887e+02	-2.231485e+01
1.652377e+02	-2.236208e+01
1.661921e+02	-2.241418e+01
1.671520e+02	-2.246315e+01
1.681175e+02	-2.251283e+01
1.690885e+02	-2.256327e+01
1.700651e+02	-2.261250e+01
1.710474e+02	-2.266372e+01
1.720354e+02	-2.271139e+01
1.730291e+02	-2.276007e+01
1.740285e+02	-2.281379e+01
1.750337e+02	-2.286054e+01
1.760446e+02	-2.291021e+01
1.770615e+02	-2.296203e+01
1.780842e+02	-2.301251e+01
1.791128e+02	-2.306008e+01
1.801473e+02	-2.311033e+01
1.811878e+02	-2.315812e+01
1.822344e+02	-2.320866e+01
1.832870e+02	-2.325916e+01
1.843456e+02	-2.331007e+01
1.854104e+02	-2.336101e+01
1.864813e+02	-2.340974e+01
1.875584e+02	-2.345727e+01
1.886418e+02	-2.350839e+01
1.897313e+02	-2.355790e+01
1.908272e+02	-2.360974e+01
1.919294e+02	-2.365637e+01
1.930380e+02	-2.370571e+01
1.941530e+02	-2.375780e+01
1.952744e+02	-2.380861e+01
1.964023e+02	-2.385733e+01
1.975367e+02	-2.390785e+01
1.986777e+02	-2.395700e+01
1.998252e+02	-2.400892e+01
2.009794e+02	-2.405524e+01
2.021403e+02	-2.410763e+01
2.033078e+02	-2.415898e+01
2.044821e+02	-2.420630e+01
2.056632e+02	-2.425580e+01
2.068511e+02	-2.430784e+01
2.080459e+02	-2.435720e+01
2.092475e+02	-2.440665e+01
2.104561e+02	-2.445320e+01
2.116717e+02	-2.450600e+01
2.128943e+02	-2.455720e+01
2.141240e+02	-2.460361e+01
2.153608e+02	-2.465516e+01
2.166047e+02	-2.470428e+01
2.178558e+02	-2.475607e+01
2.191141e+02	-2.480475e+01
2.203797e+02	-2.485763e+01
2.216526e+02	-2.490239e+01
2.229329e+02	-2.495371e+01
2.242205e+02	-2.500427e+01
2.255156e+02	-2.505606e+01
2.268182e+02	-2.510508e+01
2.281283e+02	-2.515189e+01
2.294459e+02	-2.520316e+01
2.307712e+02	-2.525408e+01
2.321041e+02	-2.530423e+01
2.334447e+02	-2.535182e+01
2.347931e+02	-2.540436e+01
2.361493e+02	-2.545284e+01
2.375133e+02	-2.550147e+01
2.388851e+02	-2.555399e+01
2.402649e+02	-2.560521e+01
2.416527e+02	-2.565302e+01
2.430484e+02	-2.570443e+01
2.444523e+02	-2.575320e+01
2.458642e+02	-2.580326e+01
2.472843e+02	-2.585246e+01
2.487126e+02	-2.590964e+01
2.501492e+02	-2.595411e+01
2.515940e+02	-2.600265e+01
2.530472e+02	-2.605114e+01
2.545088e+02	-2.610001e+01
2.559789e+02	-2.615513e+01
2.574574e+02	-2.620575e+01
2.589444e+02	-2.625698e+01
2.604401e+02	-2.630216e+01
2.619444e+02	-2.635145e+01
2.634574e+02	-2.640193e+01
2.649791e+02	-2.645369e+01
2.665096e+02	-2.650473e+01
2.680489e+02	-2.655252e+01
2.695972e+02	-2.659974e+01
2.711544e+02	-2.665396e+01
2.727205e+02	-2.670269e+01
2.742958e+02	-2.674904e+01
2.758801e+02	-2.680299e+01
2.774736e+02	-2.685408e+01
2.790762e+02	-2.690530e+01
2.806882e+02	-2.694944e+01
2.823094e+02	-2.700272e+01
2.839400e+02	-2.704892e+01
2.855800e+02	-2.710364e+01
2.872295e+02	-2.715282e+01
2.888886e+02	-2.720248e+01
2.905572e+02	-2.725382e+01
2.922354e+02	-2.730571e+01
2.939234e+02	-2.735183e+01
2.956211e+02	-2.740236e+01
2.973286e+02	-2.745499e+01
2.990459e+02	-2.750454e+01
3.007732e+02	-2.755122e+01
3.025104e+02	-2.760229e+01
3.042577e+02	-2.764939e+01
3.060151e+02	-2.769825e+01
3.077826e+02	-2.775471e+01
3.095604e+02	-2.780352e+01
3.113484e+02	-2.784889e+01
3.131467e+02	-2.790043e+01
3.149554e+02	-2.795848e+01
3.167746e+02	-2.800095e+01
3.186043e+02	-2.805082e+01
3.204445e+02	-2.810655e+01
3.222954e+02	-2.815513e+01
3.241570e+02	-2.820589e+01
3.260293e+02	-2.825441e+01
3.279124e+02	-2.830123e+01
3.298064e+02	-2.835208e+01
3.317114e+02	-2.840248e+01
3.336273e+02	-2.845358e+01
3.355544e+02	-2.850202e+01
3.374925e+02	-2.855462e+01
3.394418e+02	-2.860610e+01
3.414024e+02	-2.865235e+01
3.433744e+02	-2.870526e+01
3.453577e+02	-2.875505e+01
3.473525e+02	-2.879934e+01
3.493588e+02	-2.885236e+01
3.513766e+02	-2.890594e+01
3.534062e+02	-2.895389e+01
3.554474e+02	-2.899887e+01
3.575005e+02	-2.905861e+01
3.595654e+02	-2.910951e+01
3.616422e+02	-2.915280e+01
3.637311e+02	-2.920286e+01
3.658320e+02	-2.925538e+01
3.679450e+02	-2.930528e+01
3.700702e+02	-2.935813e+01
3.722077e+02	-2.940553e+01
3.743576e+02	-2.945363e+01
3.765199e+02	-2.950211e+01
3.786946e+02	-2.955618e+01
3.808820e+02	-2.960133e+01
3.830819e+02	-2.965943e+01
3.852946e+02	-2.970371e+01
3.875200e+02	-2.975878e+01
3.897583e+02	-2.980146e+01
3.920096e+02	-2.985772e+01
3.942738e+02	-2.991108e+01
3.965511e+02	-2.995304e+01
3.988416e+02	-3.001086e+01
4.011452e+02	-3.005578e+01
4.034622e+02	-3.010833e+01
4.057926e+02	-3.015724e+01
4.081365e+02	-3.020526e+01
4.104938e+02	-3.025487e+01
4.128648e+02	-3.030925e+01
4.152495e+02	-3.035497e+01
4.176480e+02	-3.040905e+01
4.200603e+02	-3.045717e+01
4.224866e+02	-3.050496e+01
4.249268e+02	-3.055243e+01
4.273812e+02	-3.060361e+01
4.298497e+02	-3.065651e+01
4.323325e+02	-3.070806e+01
4.348297e+02	-3.075640e+01
4.373412e+02	-3.080595e+01
4.398673e+02	-3.085658e+01
4.424079e+02	-3.091384e+01
4.449633e+02	-3.095770e+01
4.475334e+02	-3.100626e+01
4.501183e+02	-3.105399e+01
4.527182e+02	-3.110382e+01
4.553330e+02	-3.115870e+01
4.579630e+02	-3.119837e+01
4.606082e+02	-3.125965e+01
4.632687e+02	-3.130713e+01
4.659445e+02	-3.136550e+01
4.686358e+02	-3.140802e+01
4.713426e+02	-3.145929e+01
4.740650e+02	-3.151037e+01
4.768032e+02	-3.156369e+01
4.795572e+02	-3.161098e+01
4.823271e+02	-3.166885e+01
4.851130e+02	-3.170574e+01
4.879150e+02	-3.175986e+01
4.907332e+02	-3.181124e+01
4.935676e+02	-3.186371e+01
4.964185e+02	-3.191006e+01
4.992858e+02	-3.195050e+01
5.021696e+02	-3.200643e+01
5.050701e+02	-3.206585e+01
5.079874e+02	-3.211449e+01
5.109215e+02	-3.216267e+01
5.138726e+02	-3.221224e+01
5.168407e+02	-3.227162e+01
5.198259e+02	-3.230265e+01
5.228284e+02	-3.236277e+01
5.258482e+02	-3.241488e+01
5.288855e+02	-3.246396e+01
5.319403e+02	-3.250890e+01
5.350128e+02	-3.256308e+01
5.381030e+02	-3.260931e+01
5.412111e+02	-3.266181e+01
5.443371e+02	-3.271320e+01
5.474812e+02	-3.276172e+01
5.506434e+02	-3.281446e+01
5.538239e+02	-3.285891e+01
5.570228e+02	-3.291849e+01
5.602401e+02	-3.296917e+01
5.634760e+02	-3.302728e+01
5.667306e+02	-3.306337e+01
5.700040e+02	-3.311546e+01
5.732964e+02	-3.316700e+01
5.766077e+02	-3.321885e+01
5.799382e+02	-3.326598e+01
5.832879e+02	-3.331954e+01
5.866569e+02	-3.336862e+01
5.900454e+02	-3.341495e+01
5.934535e+02	-3.346520e+01
5.968813e+02	-3.350979e+01
6.003288e+02	-3.356378e+01
6.037963e+02	-3.361199e+01
6.072838e+02	-3.367172e+01
6.107914e+02	-3.371574e+01
6.143194e+02	-3.377237e+01
6.178676e+02	-3.382006e+01
6.214364e+02	-3.386870e+01
6.250258e+02	-3.391887e+01
6.286359e+02	-3.396750e+01
6.322669e+02	-3.401920e+01
6.359189e+02	-3.407067e+01
6.395919e+02	-3.412369e+01
6.432862e+02	-3.417800e+01
6.470017e+02	-3.421463e+01
6.507388e+02	-3.427734e+01
6.544974e+02	-3.432205e+01
6.582778e+02	-3.437756e+01
6.620800e+02	-3.442432e+01
6.659041e+02	-3.447698e+01
6.697504e+02	-3.451988e+01
6.736188e+02	-3.457389e+01
6.775096e+02	-3.462828e+01
6.814229e+02	-3.466563e+01
6.853587e+02	-3.472873e+01
6.893173e+02	-3.477462e+01
6.932988e+02	-3.483298e+01
6.973033e+02	-3.487262e+01
7.013309e+02	-3.492328e+01
