Frequency(Hz)	Magnitude(dB)
1.000000e+01	-1.737452e-05
1.005776e+01	-1.757581e-05
1.011585e+01	-1.777943e-05
1.017428e+01	-1.798541e-05
1.023305e+01	-1.819377e-05
1.029215e+01	-1.840455e-05
1.035160e+01	-1.861777e-05
1.041139e+01	-1.883346e-05
1.047153e+01	-1.905166e-05
1.053201e+01	-1.927237e-05
1.059284e+01	-1.949565e-05
1.065403e+01	-1.972151e-05
1.071556e+01	-1.994999e-05
1.077746e+01	-2.018112e-05
1.083971e+01	-2.041492e-05
1.090232e+01	-2.065143e-05
1.096529e+01	-2.089068e-05
1.102862e+01	-2.113271e-05
1.109232e+01	-2.137753e-05
1.115639e+01	-2.162520e-05
1.122083e+01	-2.187573e-05
1.128564e+01	-2.212917e-05
1.135083e+01	-2.238554e-05
1.141639e+01	-2.264488e-05
1.148233e+01	-2.290723e-05
1.154865e+01	-2.317261e-05
1.161536e+01	-2.344107e-05
1.168245e+01	-2.371265e-05
1.174992e+01	-2.398736e-05
1.181779e+01	-2.426526e-05
1.188605e+01	-2.454638e-05
1.195470e+01	-2.483076e-05
1.202375e+01	-2.511843e-05
1.209320e+01	-2.540943e-05
1.216305e+01	-2.570380e-05
1.223330e+01	-2.600159e-05
1.230396e+01	-2.630282e-05
1.237503e+01	-2.660755e-05
1.244651e+01	-2.691580e-05
1.251840e+01	-2.722763e-05
1.259070e+01	-2.754307e-05
1.266343e+01	-2.786216e-05
1.273657e+01	-2.818495e-05
1.281014e+01	-2.851148e-05
1.288413e+01	-2.884179e-05
1.295855e+01	-2.917593e-05
1.303339e+01	-2.951394e-05
1.310867e+01	-2.985587e-05
1.318439e+01	-3.020176e-05
1.326054e+01	-3.055165e-05
1.333713e+01	-3.090560e-05
1.341417e+01	-3.126365e-05
1.349165e+01	-3.162584e-05
1.356958e+01	-3.199224e-05
1.364795e+01	-3.236288e-05
1.372678e+01	-3.273781e-05
1.380607e+01	-3.311708e-05
1.388581e+01	-3.350075e-05
1.396602e+01	-3.388887e-05
1.404668e+01	-3.428148e-05
1.412782e+01	-3.467863e-05
1.420942e+01	-3.508039e-05
1.429149e+01	-3.548681e-05
1.437404e+01	-3.589793e-05
1.445706e+01	-3.631382e-05
1.454057e+01	-3.673452e-05
1.462455e+01	-3.716010e-05
1.470902e+01	-3.759061e-05
1.479398e+01	-3.802610e-05
1.487943e+01	-3.846665e-05
1.496537e+01	-3.891229e-05
1.505181e+01	-3.936310e-05
1.513875e+01	-3.981913e-05
1.522619e+01	-4.028044e-05
1.531414e+01	-4.074710e-05
1.540259e+01	-4.121916e-05
1.549156e+01	-4.169670e-05
1.558103e+01	-4.217976e-05
1.567103e+01	-4.266843e-05
1.576155e+01	-4.316275e-05
1.585258e+01	-4.366280e-05
1.594415e+01	-4.416864e-05
1.603624e+01	-4.468034e-05
1.612886e+01	-4.519798e-05
1.622202e+01	-4.572160e-05
1.631572e+01	-4.625130e-05
1.640996e+01	-4.678713e-05
1.650474e+01	-4.732917e-05
1.660008e+01	-4.787749e-05
1.669596e+01	-4.843216e-05
1.679239e+01	-4.899326e-05
1.688938e+01	-4.956085e-05
1.698694e+01	-5.013503e-05
1.708505e+01	-5.071585e-05
1.718373e+01	-5.130341e-05
1.728299e+01	-5.189777e-05
1.738281e+01	-5.249901e-05
1.748322e+01	-5.310723e-05
1.758420e+01	-5.372248e-05
1.768576e+01	-5.434487e-05
1.778792e+01	-5.497447e-05
1.789066e+01	-5.561136e-05
1.799399e+01	-5.625563e-05
1.809793e+01	-5.690736e-05
1.820246e+01	-5.756664e-05
1.830760e+01	-5.823356e-05
1.841334e+01	-5.890821e-05
1.851969e+01	-5.959067e-05
1.862666e+01	-6.028104e-05
1.873425e+01	-6.097941e-05
1.884246e+01	-6.168587e-05
1.895129e+01	-6.240051e-05
1.906075e+01	-6.312344e-05
1.917085e+01	-6.385473e-05
1.928158e+01	-6.459450e-05
1.939295e+01	-6.534284e-05
1.950496e+01	-6.609985e-05
1.961762e+01	-6.686563e-05
1.973093e+01	-6.764028e-05
1.984490e+01	-6.842391e-05
1.995952e+01	-6.921661e-05
2.007480e+01	-7.001850e-05
2.019076e+01	-7.082968e-05
2.030738e+01	-7.165025e-05
2.042467e+01	-7.248033e-05
2.054264e+01	-7.332003e-05
2.066130e+01	-7.416946e-05
2.078064e+01	-7.502872e-05
2.090066e+01	-7.589794e-05
2.102139e+01	-7.677723e-05
2.114280e+01	-7.766671e-05
2.126492e+01	-7.856649e-05
2.138775e+01	-7.947670e-05
2.151128e+01	-8.039745e-05
2.163553e+01	-8.132887e-05
2.176050e+01	-8.227108e-05
2.188619e+01	-8.322420e-05
2.201260e+01	-8.418837e-05
2.213974e+01	-8.516371e-05
2.226762e+01	-8.615034e-05
2.239624e+01	-8.714841e-05
2.252560e+01	-8.815804e-05
2.265571e+01	-8.917936e-05
2.278656e+01	-9.021252e-05
2.291818e+01	-9.125764e-05
2.305055e+01	-9.231488e-05
2.318369e+01	-9.338436e-05
2.331760e+01	-9.446623e-05
2.345228e+01	-9.556064e-05
2.358774e+01	-9.666772e-05
2.372398e+01	-9.778763e-05
2.386101e+01	-9.892052e-05
2.399883e+01	-1.000665e-04
2.413745e+01	-1.012258e-04
2.427686e+01	-1.023985e-04
2.441709e+01	-1.035848e-04
2.455812e+01	-1.047849e-04
2.469997e+01	-1.059988e-04
2.484263e+01	-1.072268e-04
2.498612e+01	-1.084691e-04
2.513044e+01	-1.097257e-04
2.527559e+01	-1.109969e-04
2.542158e+01	-1.122828e-04
2.556842e+01	-1.135836e-04
2.571610e+01	-1.148995e-04
2.586463e+01	-1.162306e-04
2.601403e+01	-1.175772e-04
2.616428e+01	-1.189393e-04
2.631541e+01	-1.203172e-04
2.646740e+01	-1.217111e-04
2.662028e+01	-1.231212e-04
2.677404e+01	-1.245475e-04
2.692868e+01	-1.259904e-04
2.708422e+01	-1.274500e-04
2.724066e+01	-1.289266e-04
2.739800e+01	-1.304202e-04
2.755625e+01	-1.319311e-04
2.771541e+01	-1.334596e-04
2.787550e+01	-1.350057e-04
2.803650e+01	-1.365698e-04
2.819844e+01	-1.381519e-04
2.836131e+01	-1.397524e-04
2.852513e+01	-1.413715e-04
2.868989e+01	-1.430093e-04
2.885560e+01	-1.446660e-04
2.902227e+01	-1.463420e-04
2.918990e+01	-1.480374e-04
2.935850e+01	-1.497524e-04
2.952807e+01	-1.514873e-04
2.969863e+01	-1.532423e-04
2.987016e+01	-1.550176e-04
3.004269e+01	-1.568135e-04
3.021622e+01	-1.586302e-04
3.039075e+01	-1.604680e-04
3.056628e+01	-1.623270e-04
3.074283e+01	-1.642076e-04
3.092040e+01	-1.661099e-04
3.109900e+01	-1.680343e-04
3.127862e+01	-1.699810e-04
3.145929e+01	-1.719502e-04
3.164099e+01	-1.739423e-04
3.182375e+01	-1.759574e-04
3.200756e+01	-1.779959e-04
3.219244e+01	-1.800580e-04
3.237838e+01	-1.821440e-04
3.256540e+01	-1.842541e-04
3.275349e+01	-1.863887e-04
3.294268e+01	-1.885480e-04
3.313295e+01	-1.907323e-04
3.332433e+01	-1.929420e-04
3.351681e+01	-1.951772e-04
3.371040e+01	-1.974383e-04
3.390511e+01	-1.997257e-04
3.410094e+01	-2.020395e-04
3.429791e+01	-2.043801e-04
3.449601e+01	-2.067479e-04
3.469526e+01	-2.091430e-04
3.489566e+01	-2.115660e-04
3.509721e+01	-2.140170e-04
3.529993e+01	-2.164963e-04
3.550382e+01	-2.190044e-04
3.570889e+01	-2.215416e-04
3.591515e+01	-2.241082e-04
3.612259e+01	-2.267044e-04
3.633123e+01	-2.293308e-04
3.654108e+01	-2.319876e-04
3.675214e+01	-2.346752e-04
3.696442e+01	-2.373939e-04
3.717792e+01	-2.401441e-04
3.739266e+01	-2.429261e-04
3.760864e+01	-2.457404e-04
3.782587e+01	-2.485873e-04
3.804435e+01	-2.514672e-04
3.826409e+01	-2.543804e-04
3.848510e+01	-2.573274e-04
3.870739e+01	-2.603085e-04
3.893096e+01	-2.633242e-04
3.915583e+01	-2.663748e-04
3.938199e+01	-2.694607e-04
3.960946e+01	-2.725824e-04
3.983824e+01	-2.757402e-04
4.006834e+01	-2.789346e-04
4.029978e+01	-2.821661e-04
4.053255e+01	-2.854349e-04
4.076666e+01	-2.887417e-04
4.100213e+01	-2.920867e-04
4.123896e+01	-2.954705e-04
4.147715e+01	-2.988935e-04
4.171672e+01	-3.023561e-04
4.195767e+01	-3.058589e-04
4.220002e+01	-3.094022e-04
4.244377e+01	-3.129866e-04
4.268892e+01	-3.166125e-04
4.293549e+01	-3.202804e-04
4.318348e+01	-3.239908e-04
4.343291e+01	-3.277442e-04
4.368377e+01	-3.315411e-04
4.393609e+01	-3.353819e-04
4.418986e+01	-3.392672e-04
4.444510e+01	-3.431976e-04
4.470182e+01	-3.471735e-04
4.496001e+01	-3.511954e-04
4.521970e+01	-3.552639e-04
4.548089e+01	-3.593796e-04
4.574358e+01	-3.635429e-04
4.600779e+01	-3.677545e-04
4.627353e+01	-3.720149e-04
4.654081e+01	-3.763246e-04
4.680963e+01	-3.806842e-04
4.708000e+01	-3.850943e-04
4.735193e+01	-3.895556e-04
4.762543e+01	-3.940685e-04
4.790051e+01	-3.986337e-04
4.817719e+01	-4.032517e-04
4.845545e+01	-4.079233e-04
4.873533e+01	-4.126490e-04
4.901682e+01	-4.174294e-04
4.929994e+01	-4.222652e-04
4.958470e+01	-4.271570e-04
4.987110e+01	-4.321055e-04
5.015915e+01	-4.371113e-04
5.044887e+01	-4.421751e-04
5.074026e+01	-4.472976e-04
5.103333e+01	-4.524794e-04
5.132810e+01	-4.577212e-04
5.162457e+01	-4.630237e-04
5.192275e+01	-4.683877e-04
5.222265e+01	-4.738138e-04
5.252429e+01	-4.793028e-04
5.282767e+01	-4.848553e-04
5.313280e+01	-4.904722e-04
5.343969e+01	-4.961541e-04
5.374836e+01	-5.019018e-04
5.405880e+01	-5.077162e-04
5.437105e+01	-5.135979e-04
5.468509e+01	-5.195477e-04
5.500095e+01	-5.255664e-04
5.531863e+01	-5.316549e-04
5.563815e+01	-5.378139e-04
5.595951e+01	-5.440442e-04
5.628273e+01	-5.503467e-04
5.660782e+01	-5.567222e-04
5.693479e+01	-5.631716e-04
5.726364e+01	-5.696956e-04
5.759439e+01	-5.762953e-04
5.792705e+01	-5.829714e-04
5.826164e+01	-5.897248e-04
5.859815e+01	-5.965565e-04
5.893662e+01	-6.034673e-04
5.927703e+01	-6.104581e-04
5.961941e+01	-6.175299e-04
5.996377e+01	-6.246837e-04
6.031012e+01	-6.319203e-04
6.065847e+01	-6.392407e-04
6.100883e+01	-6.466459e-04
6.136121e+01	-6.541369e-04
6.171563e+01	-6.617147e-04
6.207210e+01	-6.693803e-04
6.243063e+01	-6.771346e-04
6.279122e+01	-6.849788e-04
6.315390e+01	-6.929138e-04
6.351868e+01	-7.009408e-04
6.388556e+01	-7.090607e-04
6.425456e+01	-7.172747e-04
6.462569e+01	-7.255838e-04
6.499897e+01	-7.339892e-04
6.537440e+01	-7.424919e-04
6.575200e+01	-7.510932e-04
6.613178e+01	-7.597940e-04
6.651375e+01	-7.685957e-04
6.689793e+01	-7.774993e-04
6.728433e+01	-7.865060e-04
6.767297e+01	-7.956170e-04
6.806384e+01	-8.048336e-04
6.845698e+01	-8.141570e-04
6.885238e+01	-8.235883e-04
6.925007e+01	-8.331289e-04
6.965005e+01	-8.427800e-04
7.005235e+01	-8.525429e-04
7.045697e+01	-8.624188e-04
7.086393e+01	-8.724092e-04
7.127323e+01	-8.825153e-04
7.168490e+01	-8.927384e-04
7.209895e+01	-9.030799e-04
7.251539e+01	-9.135413e-04
7.293424e+01	-9.241238e-04
7.335551e+01	-9.348288e-04
7.377920e+01	-9.456579e-04
7.420535e+01	-9.566124e-04
7.463396e+01	-9.676938e-04
7.506504e+01	-9.789035e-04
7.549861e+01	-9.902431e-04
7.593469e+01	-1.001714e-03
7.637328e+01	-1.013318e-03
7.681441e+01	-1.025056e-03
7.725809e+01	-1.036930e-03
7.770433e+01	-1.048942e-03
7.815315e+01	-1.061093e-03
7.860456e+01	-1.073384e-03
7.905857e+01	-1.085818e-03
7.951521e+01	-1.098396e-03
7.997449e+01	-1.111119e-03
8.043642e+01	-1.123990e-03
8.090102e+01	-1.137010e-03
8.136830e+01	-1.150181e-03
8.183828e+01	-1.163505e-03
8.231097e+01	-1.176982e-03
8.278640e+01	-1.190616e-03
8.326457e+01	-1.204408e-03
8.374550e+01	-1.218359e-03
8.422921e+01	-1.232472e-03
8.471572e+01	-1.246749e-03
8.520503e+01	-1.261191e-03
8.569717e+01	-1.275800e-03
8.619215e+01	-1.290578e-03
8.669000e+01	-1.305527e-03
8.719071e+01	-1.320650e-03
8.769432e+01	-1.335948e-03
8.820084e+01	-1.351423e-03
8.871029e+01	-1.367077e-03
8.922267e+01	-1.382912e-03
8.973802e+01	-1.398931e-03
9.025634e+01	-1.415135e-03
9.077766e+01	-1.431527e-03
9.130199e+01	-1.448109e-03
9.182935e+01	-1.464883e-03
9.235975e+01	-1.481851e-03
9.289321e+01	-1.499016e-03
9.342976e+01	-1.516380e-03
9.396941e+01	-1.533944e-03
9.451217e+01	-1.551712e-03
9.505807e+01	-1.569686e-03
9.560712e+01	-1.587868e-03
9.615934e+01	-1.606260e-03
9.671476e+01	-1.624866e-03
9.727338e+01	-1.643687e-03
9.783522e+01	-1.662726e-03
9.840032e+01	-1.681985e-03
9.896867e+01	-1.701467e-03
9.954031e+01	-1.721175e-03
1.001153e+02	-1.741112e-03
1.006935e+02	-1.761279e-03
1.012751e+02	-1.781680e-03
1.018601e+02	-1.802317e-03
1.024484e+02	-1.823192e-03
1.030402e+02	-1.844310e-03
1.036353e+02	-1.865672e-03
1.042339e+02	-1.887282e-03
1.048360e+02	-1.909142e-03
1.054415e+02	-1.931255e-03
1.060505e+02	-1.953624e-03
1.066631e+02	-1.976252e-03
1.072791e+02	-1.999142e-03
1.078988e+02	-2.022297e-03
1.085220e+02	-2.045721e-03
1.091488e+02	-2.069415e-03
1.097793e+02	-2.093384e-03
1.104133e+02	-2.117631e-03
1.110511e+02	-2.142158e-03
1.116925e+02	-2.166969e-03
1.123376e+02	-2.192068e-03
1.129865e+02	-2.217457e-03
1.136391e+02	-2.243140e-03
1.142955e+02	-2.269121e-03
1.149556e+02	-2.295402e-03
1.156196e+02	-2.321988e-03
1.162874e+02	-2.348882e-03
1.169591e+02	-2.376087e-03
1.176347e+02	-2.403606e-03
1.183141e+02	-2.431445e-03
1.189975e+02	-2.459606e-03
1.196848e+02	-2.488093e-03
1.203761e+02	-2.516910e-03
1.210714e+02	-2.546060e-03
1.217707e+02	-2.575548e-03
1.224740e+02	-2.605378e-03
1.231814e+02	-2.635553e-03
1.238929e+02	-2.666077e-03
1.246085e+02	-2.696955e-03
1.253283e+02	-2.728190e-03
1.260522e+02	-2.759786e-03
1.267802e+02	-2.791749e-03
1.275125e+02	-2.824082e-03
1.282490e+02	-2.856789e-03
1.289898e+02	-2.889874e-03
1.297348e+02	-2.923343e-03
1.304842e+02	-2.957199e-03
1.312378e+02	-2.991447e-03
1.319959e+02	-3.026092e-03
1.327583e+02	-3.061137e-03
1.335251e+02	-3.096589e-03
1.342963e+02	-3.132451e-03
1.350720e+02	-3.168728e-03
1.358522e+02	-3.205425e-03
1.366368e+02	-3.242547e-03
1.374260e+02	-3.280098e-03
1.382198e+02	-3.318084e-03
1.390182e+02	-3.356510e-03
1.398211e+02	-3.395381e-03
1.406287e+02	-3.434702e-03
1.414410e+02	-3.474478e-03
1.422579e+02	-3.514714e-03
1.430796e+02	-3.555417e-03
1.439060e+02	-3.596590e-03
1.447372e+02	-3.638240e-03
1.455732e+02	-3.680372e-03
1.464141e+02	-3.722992e-03
1.472597e+02	-3.766105e-03
1.481103e+02	-3.809717e-03
1.489658e+02	-3.853834e-03
1.498262e+02	-3.898462e-03
1.506916e+02	-3.943606e-03
1.515620e+02	-3.989272e-03
1.524374e+02	-4.035468e-03
1.533179e+02	-4.082198e-03
1.542034e+02	-4.129469e-03
1.550941e+02	-4.177286e-03
1.559899e+02	-4.225658e-03
1.568909e+02	-4.274589e-03
1.577971e+02	-4.324087e-03
1.587085e+02	-4.374157e-03
1.596252e+02	-4.424807e-03
1.605472e+02	-4.476043e-03
1.614745e+02	-4.527872e-03
1.624072e+02	-4.580301e-03
1.633453e+02	-4.633336e-03
1.642887e+02	-4.686986e-03
1.652377e+02	-4.741256e-03
1.661921e+02	-4.796154e-03
1.671520e+02	-4.851688e-03
1.681175e+02	-4.907864e-03
1.690885e+02	-4.964691e-03
1.700651e+02	-5.022174e-03
1.710474e+02	-5.080324e-03
1.720354e+02	-5.139146e-03
1.730291e+02	-5.198648e-03
1.740285e+02	-5.258839e-03
1.750337e+02	-5.319727e-03
1.760446e+02	-5.381319e-03
1.770615e+02	-5.443624e-03
1.780842e+02	-5.506650e-03
1.791128e+02	-5.570405e-03
1.801473e+02	-5.634897e-03
1.811878e+02	-5.700136e-03
1.822344e+02	-5.766130e-03
1.832870e+02	-5.832887e-03
1.843456e+02	-5.900416e-03
1.854104e+02	-5.968727e-03
1.864813e+02	-6.037828e-03
1.875584e+02	-6.107729e-03
1.886418e+02	-6.178438e-03
1.897313e+02	-6.249965e-03
1.908272e+02	-6.322320e-03
1.919294e+02	-6.395511e-03
1.930380e+02	-6.469550e-03
1.941530e+02	-6.544444e-03
1.952744e+02	-6.620206e-03
1.964023e+02	-6.696843e-03
1.975367e+02	-6.774367e-03
1.986777e+02	-6.852788e-03
1.998252e+02	-6.932116e-03
2.009794e+02	-7.012361e-03
2.021403e+02	-7.093535e-03
2.033078e+02	-7.175647e-03
2.044821e+02	-7.258709e-03
2.056632e+02	-7.342732e-03
2.068511e+02	-7.427726e-03
2.080459e+02	-7.513704e-03
2.092475e+02	-7.600676e-03
2.104561e+02	-7.688653e-03
2.116717e+02	-7.777648e-03
2.128943e+02	-7.867672e-03
2.141240e+02	-7.958738e-03
2.153608e+02	-8.050856e-03
2.166047e+02	-8.144040e-03
2.178558e+02	-8.238301e-03
2.191141e+02	-8.333652e-03
2.203797e+02	-8.430105e-03
2.216526e+02	-8.527674e-03
2.229329e+02	-8.626371e-03
2.242205e+02	-8.726209e-03
2.255156e+02	-8.827201e-03
2.268182e+02	-8.929361e-03
2.281283e+02	-9.032702e-03
2.294459e+02	-9.137238e-03
2.307712e+02	-9.242983e-03
2.321041e+02	-9.349949e-03
2.334447e+02	-9.458153e-03
2.347931e+02	-9.567607e-03
2.361493e+02	-9.678326e-03
2.375133e+02	-9.790325e-03
2.388851e+02	-9.903619e-03
2.402649e+02	-1.001822e-02
2.416527e+02	-1.013415e-02
2.430484e+02	-1.025142e-02
2.444523e+02	-1.037004e-02
2.458642e+02	-1.049003e-02
2.472843e+02	-1.061142e-02
2.487126e+02	-1.073420e-02
2.501492e+02	-1.085840e-02
2.515940e+02	-1.098404e-02
2.530472e+02	-1.111113e-02
2.545088e+02	-1.123969e-02
2.559789e+02	-1.136973e-02
2.574574e+02	-1.150128e-02
2.589444e+02	-1.163434e-02
2.604401e+02	-1.176895e-02
2.619444e+02	-1.190511e-02
2.634574e+02	-1.204284e-02
2.649791e+02	-1.218216e-02
2.665096e+02	-1.232309e-02
2.680489e+02	-1.246565e-02
2.695972e+02	-1.260986e-02
2.711544e+02	-1.275574e-02
2.727205e+02	-1.290329e-02
2.742958e+02	-1.305256e-02
2.758801e+02	-1.320354e-02
2.774736e+02	-1.335627e-02
2.790762e+02	-1.351077e-02
2.806882e+02	-1.366705e-02
2.823094e+02	-1.382513e-02
2.839400e+02	-1.398504e-02
2.855800e+02	-1.414680e-02
2.872295e+02	-1.431042e-02
2.888886e+02	-1.447593e-02
2.905572e+02	-1.464335e-02
2.922354e+02	-1.481271e-02
2.939234e+02	-1.498402e-02
2.956211e+02	-1.515731e-02
2.973286e+02	-1.533260e-02
2.990459e+02	-1.550992e-02
3.007732e+02	-1.568928e-02
3.025104e+02	-1.587071e-02
3.042577e+02	-1.605424e-02
3.060151e+02	-1.623988e-02
3.077826e+02	-1.642767e-02
3.095604e+02	-1.661762e-02
3.113484e+02	-1.680976e-02
3.131467e+02	-1.700413e-02
3.149554e+02	-1.720073e-02
3.167746e+02	-1.739961e-02
3.186043e+02	-1.760078e-02
3.204445e+02	-1.780427e-02
3.222954e+02	-1.801011e-02
3.241570e+02	-1.821832e-02
3.260293e+02	-1.842893e-02
3.279124e+02	-1.864198e-02
3.298064e+02	-1.885748e-02
3.317114e+02	-1.907547e-02
3.336273e+02	-1.929597e-02
3.355544e+02	-1.951901e-02
3.374925e+02	-1.974463e-02
3.394418e+02	-1.997285e-02
3.414024e+02	-2.020370e-02
3.433744e+02	-2.043721e-02
3.453577e+02	-2.067342e-02
3.473525e+02	-2.091235e-02
3.493588e+02	-2.115403e-02
3.513766e+02	-2.139850e-02
3.534062e+02	-2.164579e-02
3.554474e+02	-2.189593e-02
3.575005e+02	-2.214895e-02
3.595654e+02	-2.240488e-02
3.616422e+02	-2.266377e-02
3.637311e+02	-2.292564e-02
3.658320e+02	-2.319053e-02
3.679450e+02	-2.345847e-02
3.700702e+02	-2.372950e-02
3.722077e+02	-2.400365e-02
3.743576e+02	-2.428096e-02
3.765199e+02	-2.456146e-02
3.786946e+02	-2.484520e-02
3.808820e+02	-2.513220e-02
3.830819e+02	-2.542251e-02
3.852946e+02	-2.571616e-02
3.875200e+02	-2.601319e-02
3.897583e+02	-2.631365e-02
3.920096e+02	-2.661756e-02
3.942738e+02	-2.692497e-02
3.965511e+02	-2.723593e-02
3.988416e+02	-2.755046e-02
4.011452e+02	-2.786861e-02
4.034622e+02	-2.819042e-02
4.057926e+02	-2.851594e-02
4.081365e+02	-2.884521e-02
4.104938e+02	-2.917826e-02
4.128648e+02	-2.951515e-02
4.152495e+02	-2.985591e-02
4.176480e+02	-3.020059e-02
4.200603e+02	-3.054924e-02
4.224866e+02	-3.090190e-02
4.249268e+02	-3.125861e-02
4.273812e+02	-3.161943e-02
4.298497e+02	-3.198440e-02
4.323325e+02	-3.235356e-02
4.348297e+02	-3.272697e-02
4.373412e+02	-3.310467e-02
4.398673e+02	-3.348672e-02
4.424079e+02	-3.387315e-02
4.449633e+02	-3.426403e-02
4.475334e+02	-3.465940e-02
4.501183e+02	-3.505931e-02
4.527182e+02	-3.546382e-02
4.553330e+02	-3.587298e-02
4.579630e+02	-3.628684e-02
4.606082e+02	-3.670545e-02
4.632687e+02	-3.712887e-02
4.659445e+02	-3.755715e-02
4.686358e+02	-3.799036e-02
4.713426e+02	-3.842853e-02
4.740650e+02	-3.887174e-02
4.768032e+02	-3.932004e-02
4.795572e+02	-3.977348e-02
4.823271e+02	-4.023213e-02
4.851130e+02	-4.069604e-02
4.879150e+02	-4.116528e-02
4.907332e+02	-4.163990e-02
4.935676e+02	-4.211996e-02
4.964185e+02	-4.260554e-02
4.992858e+02	-4.309668e-02
5.021696e+02	-4.359345e-02
5.050701e+02	-4.409593e-02
5.079874e+02	-4.460416e-02
5.109215e+02	-4.511823e-02
5.138726e+02	-4.563818e-02
5.168407e+02	-4.616410e-02
5.198259e+02	-4.669604e-02
5.228284e+02	-4.723408e-02
5.258482e+02	-4.777828e-02
5.288855e+02	-4.832872e-02
5.319403e+02	-4.888547e-02
5.350128e+02	-4.944859e-02
5.381030e+02	-5.001816e-02
5.412111e+02	-5.059426e-02
5.443371e+02	-5.117695e-02
5.474812e+02	-5.176631e-02
5.506434e+02	-5.236242e-02
5.538239e+02	-5.296534e-02
5.570228e+02	-5.357517e-02
5.602401e+02	-5.419198e-02
5.634760e+02	-5.481584e-02
5.667306e+02	-5.544684e-02
5.700040e+02	-5.608506e-02
5.732964e+02	-5.673057e-02
5.766077e+02	-5.738346e-02
5.799382e+02	-5.804382e-02
5.832879e+02	-5.871172e-02
5.866569e+02	-5.938726e-02
5.900454e+02	-6.007052e-02
5.934535e+02	-6.076158e-02
5.968813e+02	-6.146053e-02
6.003288e+02	-6.216747e-02
6.037963e+02	-6.288248e-02
6.072838e+02	-6.360566e-02
6.107914e+02	-6.433708e-02
6.143194e+02	-6.507686e-02
6.178676e+02	-6.582508e-02
6.214364e+02	-6.658183e-02
6.250258e+02	-6.734722e-02
6.286359e+02	-6.812134e-02
6.322669e+02	-6.890428e-02
6.359189e+02	-6.969615e-02
6.395919e+02	-7.049704e-02
6.432862e+02	-7.130707e-02
6.470017e+02	-7.212632e-02
6.507388e+02	-7.295491e-02
6.544974e+02	-7.379293e-02
6.582778e+02	-7.464050e-02
6.620800e+02	-7.549772e-02
6.659041e+02	-7.636469e-02
6.697504e+02	-7.724154e-02
6.736188e+02	-7.812836e-02
6.775096e+02	-7.902527e-02
6.814229e+02	-7.993238e-02
6.853587e+02	-8.084980e-02
6.893173e+02	-8.177766e-02
6.932988e+02	-8.271606e-02
6.973033e+02	-8.366513e-02
7.013309e+02	-8.462498e-02
