Frequency(Hz)	Magnitude(dB)
1.000000e+01	-1.619007e-05
1.005776e+01	-1.637763e-05
1.011585e+01	-1.656737e-05
1.017428e+01	-1.675931e-05
1.023305e+01	-1.695347e-05
1.029215e+01	-1.714988e-05
1.035160e+01	-1.734857e-05
1.041139e+01	-1.754956e-05
1.047153e+01	-1.775287e-05
1.053201e+01	-1.795854e-05
1.059284e+01	-1.816660e-05
1.065403e+01	-1.837706e-05
1.071556e+01	-1.858996e-05
1.077746e+01	-1.880533e-05
1.083971e+01	-1.902320e-05
1.090232e+01	-1.924359e-05
1.096529e+01	-1.946653e-05
1.102862e+01	-1.969205e-05
1.109232e+01	-1.992019e-05
1.115639e+01	-2.015097e-05
1.122083e+01	-2.038443e-05
1.128564e+01	-2.062058e-05
1.135083e+01	-2.085948e-05
1.141639e+01	-2.110114e-05
1.148233e+01	-2.134560e-05
1.154865e+01	-2.159290e-05
1.161536e+01	-2.184306e-05
1.168245e+01	-2.209611e-05
1.174992e+01	-2.235210e-05
1.181779e+01	-2.261106e-05
1.188605e+01	-2.287301e-05
1.195470e+01	-2.313800e-05
1.202375e+01	-2.340606e-05
1.209320e+01	-2.367723e-05
1.216305e+01	-2.395153e-05
1.223330e+01	-2.422902e-05
1.230396e+01	-2.450972e-05
1.237503e+01	-2.479367e-05
1.244651e+01	-2.508091e-05
1.251840e+01	-2.537148e-05
1.259070e+01	-2.566541e-05
1.266343e+01	-2.596275e-05
1.273657e+01	-2.626354e-05
1.281014e+01	-2.656781e-05
1.288413e+01	-2.687560e-05
1.295855e+01	-2.718696e-05
1.303339e+01	-2.750193e-05
1.310867e+01	-2.782055e-05
1.318439e+01	-2.814285e-05
1.326054e+01	-2.846890e-05
1.333713e+01	-2.879871e-05
1.341417e+01	-2.913235e-05
1.349165e+01	-2.946986e-05
1.356958e+01	-2.981128e-05
1.364795e+01	-3.015665e-05
1.372678e+01	-3.050602e-05
1.380607e+01	-3.085944e-05
1.388581e+01	-3.121695e-05
1.396602e+01	-3.157861e-05
1.404668e+01	-3.194445e-05
1.412782e+01	-3.231454e-05
1.420942e+01	-3.268891e-05
1.429149e+01	-3.306762e-05
1.437404e+01	-3.345071e-05
1.445706e+01	-3.383825e-05
1.454057e+01	-3.423027e-05
1.462455e+01	-3.462684e-05
1.470902e+01	-3.502800e-05
1.479398e+01	-3.543380e-05
1.487943e+01	-3.584431e-05
1.496537e+01	-3.625958e-05
1.505181e+01	-3.667965e-05
1.513875e+01	-3.710460e-05
1.522619e+01	-3.753446e-05
1.531414e+01	-3.796931e-05
1.540259e+01	-3.840919e-05
1.549156e+01	-3.885417e-05
1.558103e+01	-3.930430e-05
1.567103e+01	-3.975965e-05
1.576155e+01	-4.022028e-05
1.585258e+01	-4.068624e-05
1.594415e+01	-4.115760e-05
1.603624e+01	-4.163442e-05
1.612886e+01	-4.211676e-05
1.622202e+01	-4.260469e-05
1.631572e+01	-4.309828e-05
1.640996e+01	-4.359758e-05
1.650474e+01	-4.410267e-05
1.660008e+01	-4.461361e-05
1.669596e+01	-4.513047e-05
1.679239e+01	-4.565331e-05
1.688938e+01	-4.618222e-05
1.698694e+01	-4.671725e-05
1.708505e+01	-4.725848e-05
1.718373e+01	-4.780598e-05
1.728299e+01	-4.835982e-05
1.738281e+01	-4.892008e-05
1.748322e+01	-4.948683e-05
1.758420e+01	-5.006014e-05
1.768576e+01	-5.064010e-05
1.778792e+01	-5.122678e-05
1.789066e+01	-5.182025e-05
1.799399e+01	-5.242060e-05
1.809793e+01	-5.302790e-05
1.820246e+01	-5.364224e-05
1.830760e+01	-5.426370e-05
1.841334e+01	-5.489235e-05
1.851969e+01	-5.552829e-05
1.862666e+01	-5.617160e-05
1.873425e+01	-5.682236e-05
1.884246e+01	-5.748066e-05
1.895129e+01	-5.814658e-05
1.906075e+01	-5.882022e-05
1.917085e+01	-5.950167e-05
1.928158e+01	-6.019101e-05
1.939295e+01	-6.088833e-05
1.950496e+01	-6.159373e-05
1.961762e+01	-6.230731e-05
1.973093e+01	-6.302915e-05
1.984490e+01	-6.375936e-05
1.995952e+01	-6.449802e-05
2.007480e+01	-6.524524e-05
2.019076e+01	-6.600112e-05
2.030738e+01	-6.676576e-05
2.042467e+01	-6.753925e-05
2.054264e+01	-6.832171e-05
2.066130e+01	-6.911323e-05
2.078064e+01	-6.991392e-05
2.090066e+01	-7.072388e-05
2.102139e+01	-7.154323e-05
2.114280e+01	-7.237207e-05
2.126492e+01	-7.321052e-05
2.138775e+01	-7.405867e-05
2.151128e+01	-7.491666e-05
2.163553e+01	-7.578458e-05
2.176050e+01	-7.666256e-05
2.188619e+01	-7.755071e-05
2.201260e+01	-7.844914e-05
2.213974e+01	-7.935799e-05
2.226762e+01	-8.027737e-05
2.239624e+01	-8.120739e-05
2.252560e+01	-8.214820e-05
2.265571e+01	-8.309990e-05
2.278656e+01	-8.406262e-05
2.291818e+01	-8.503650e-05
2.305055e+01	-8.602166e-05
2.318369e+01	-8.701824e-05
2.331760e+01	-8.802636e-05
2.345228e+01	-8.904616e-05
2.358774e+01	-9.007777e-05
2.372398e+01	-9.112134e-05
2.386101e+01	-9.217699e-05
2.399883e+01	-9.324488e-05
2.413745e+01	-9.432513e-05
2.427686e+01	-9.541790e-05
2.441709e+01	-9.652334e-05
2.455812e+01	-9.764157e-05
2.469997e+01	-9.877276e-05
2.484263e+01	-9.991706e-05
2.498612e+01	-1.010746e-04
2.513044e+01	-1.022456e-04
2.527559e+01	-1.034301e-04
2.542158e+01	-1.046284e-04
2.556842e+01	-1.058405e-04
2.571610e+01	-1.070667e-04
2.586463e+01	-1.083071e-04
2.601403e+01	-1.095618e-04
2.616428e+01	-1.108311e-04
2.631541e+01	-1.121151e-04
2.646740e+01	-1.134140e-04
2.662028e+01	-1.147279e-04
2.677404e+01	-1.160570e-04
2.692868e+01	-1.174015e-04
2.708422e+01	-1.187617e-04
2.724066e+01	-1.201375e-04
2.739800e+01	-1.215293e-04
2.755625e+01	-1.229373e-04
2.771541e+01	-1.243615e-04
2.787550e+01	-1.258022e-04
2.803650e+01	-1.272597e-04
2.819844e+01	-1.287340e-04
2.836131e+01	-1.302254e-04
2.852513e+01	-1.317341e-04
2.868989e+01	-1.332602e-04
2.885560e+01	-1.348040e-04
2.902227e+01	-1.363658e-04
2.918990e+01	-1.379456e-04
2.935850e+01	-1.395437e-04
2.952807e+01	-1.411603e-04
2.969863e+01	-1.427957e-04
2.987016e+01	-1.444500e-04
3.004269e+01	-1.461234e-04
3.021622e+01	-1.478163e-04
3.039075e+01	-1.495287e-04
3.056628e+01	-1.512611e-04
3.074283e+01	-1.530134e-04
3.092040e+01	-1.547861e-04
3.109900e+01	-1.565793e-04
3.127862e+01	-1.583933e-04
3.145929e+01	-1.602283e-04
3.164099e+01	-1.620845e-04
3.182375e+01	-1.639623e-04
3.200756e+01	-1.658618e-04
3.219244e+01	-1.677833e-04
3.237838e+01	-1.697271e-04
3.256540e+01	-1.716934e-04
3.275349e+01	-1.736825e-04
3.294268e+01	-1.756946e-04
3.313295e+01	-1.777300e-04
3.332433e+01	-1.797890e-04
3.351681e+01	-1.818719e-04
3.371040e+01	-1.839789e-04
3.390511e+01	-1.861103e-04
3.410094e+01	-1.882664e-04
3.429791e+01	-1.904475e-04
3.449601e+01	-1.926538e-04
3.469526e+01	-1.948857e-04
3.489566e+01	-1.971434e-04
3.509721e+01	-1.994274e-04
3.529993e+01	-2.017377e-04
3.550382e+01	-2.040749e-04
3.570889e+01	-2.064391e-04
3.591515e+01	-2.088307e-04
3.612259e+01	-2.112500e-04
3.633123e+01	-2.136973e-04
3.654108e+01	-2.161730e-04
3.675214e+01	-2.186773e-04
3.696442e+01	-2.212107e-04
3.717792e+01	-2.237734e-04
3.739266e+01	-2.263658e-04
3.760864e+01	-2.289883e-04
3.782587e+01	-2.316411e-04
3.804435e+01	-2.343247e-04
3.826409e+01	-2.370393e-04
3.848510e+01	-2.397854e-04
3.870739e+01	-2.425633e-04
3.893096e+01	-2.453734e-04
3.915583e+01	-2.482160e-04
3.938199e+01	-2.510916e-04
3.960946e+01	-2.540005e-04
3.983824e+01	-2.569430e-04
4.006834e+01	-2.599197e-04
4.029978e+01	-2.629309e-04
4.053255e+01	-2.659769e-04
4.076666e+01	-2.690582e-04
4.100213e+01	-2.721752e-04
4.123896e+01	-2.753284e-04
4.147715e+01	-2.785180e-04
4.171672e+01	-2.817446e-04
4.195767e+01	-2.850086e-04
4.220002e+01	-2.883104e-04
4.244377e+01	-2.916504e-04
4.268892e+01	-2.950292e-04
4.293549e+01	-2.984470e-04
4.318348e+01	-3.019045e-04
4.343291e+01	-3.054020e-04
4.368377e+01	-3.089401e-04
4.393609e+01	-3.125191e-04
4.418986e+01	-3.161396e-04
4.444510e+01	-3.198020e-04
4.470182e+01	-3.235069e-04
4.496001e+01	-3.272547e-04
4.521970e+01	-3.310459e-04
4.548089e+01	-3.348810e-04
4.574358e+01	-3.387605e-04
4.600779e+01	-3.426850e-04
4.627353e+01	-3.466549e-04
4.654081e+01	-3.506709e-04
4.680963e+01	-3.547333e-04
4.708000e+01	-3.588428e-04
4.735193e+01	-3.629999e-04
4.762543e+01	-3.672052e-04
4.790051e+01	-3.714592e-04
4.817719e+01	-3.757625e-04
4.845545e+01	-3.801156e-04
4.873533e+01	-3.845192e-04
4.901682e+01	-3.889737e-04
4.929994e+01	-3.934799e-04
4.958470e+01	-3.980382e-04
4.987110e+01	-4.026494e-04
5.015915e+01	-4.073140e-04
5.044887e+01	-4.120326e-04
5.074026e+01	-4.168059e-04
5.103333e+01	-4.216345e-04
5.132810e+01	-4.265190e-04
5.162457e+01	-4.314601e-04
5.192275e+01	-4.364584e-04
5.222265e+01	-4.415147e-04
5.252429e+01	-4.466295e-04
5.282767e+01	-4.518035e-04
5.313280e+01	-4.570375e-04
5.343969e+01	-4.623321e-04
5.374836e+01	-4.676881e-04
5.405880e+01	-4.731061e-04
5.437105e+01	-4.785869e-04
5.468509e+01	-4.841311e-04
5.500095e+01	-4.897396e-04
5.531863e+01	-4.954130e-04
5.563815e+01	-5.011522e-04
5.595951e+01	-5.069578e-04
5.628273e+01	-5.128307e-04
5.660782e+01	-5.187717e-04
5.693479e+01	-5.247814e-04
5.726364e+01	-5.308608e-04
5.759439e+01	-5.370106e-04
5.792705e+01	-5.432316e-04
5.826164e+01	-5.495247e-04
5.859815e+01	-5.558907e-04
5.893662e+01	-5.623304e-04
5.927703e+01	-5.688447e-04
5.961941e+01	-5.754345e-04
5.996377e+01	-5.821006e-04
6.031012e+01	-5.888440e-04
6.065847e+01	-5.956654e-04
6.100883e+01	-6.025659e-04
6.136121e+01	-6.095463e-04
6.171563e+01	-6.166076e-04
6.207210e+01	-6.237506e-04
6.243063e+01	-6.309764e-04
6.279122e+01	-6.382859e-04
6.315390e+01	-6.456801e-04
6.351868e+01	-6.531599e-04
6.388556e+01	-6.607264e-04
6.425456e+01	-6.683805e-04
6.462569e+01	-6.761232e-04
6.499897e+01	-6.839557e-04
6.537440e+01	-6.918789e-04
6.575200e+01	-6.998938e-04
6.613178e+01	-7.080016e-04
6.651375e+01	-7.162034e-04
6.689793e+01	-7.245001e-04
6.728433e+01	-7.328929e-04
6.767297e+01	-7.413829e-04
6.806384e+01	-7.499713e-04
6.845698e+01	-7.586592e-04
6.885238e+01	-7.674477e-04
6.925007e+01	-7.763380e-04
6.965005e+01	-7.853313e-04
7.005235e+01	-7.944287e-04
7.045697e+01	-8.036315e-04
7.086393e+01	-8.129410e-04
7.127323e+01	-8.223582e-04
7.168490e+01	-8.318845e-04
7.209895e+01	-8.415212e-04
7.251539e+01	-8.512695e-04
7.293424e+01	-8.611307e-04
7.335551e+01	-8.711062e-04
7.377920e+01	-8.811971e-04
7.420535e+01	-8.914050e-04
7.463396e+01	-9.017311e-04
7.506504e+01	-9.121768e-04
7.549861e+01	-9.227435e-04
7.593469e+01	-9.334326e-04
7.637328e+01	-9.442455e-04
7.681441e+01	-9.551836e-04
7.725809e+01	-9.662484e-04
7.770433e+01	-9.774414e-04
7.815315e+01	-9.887641e-04
7.860456e+01	-1.000218e-03
7.905857e+01	-1.011804e-03
7.951521e+01	-1.023525e-03
7.997449e+01	-1.035381e-03
8.043642e+01	-1.047375e-03
8.090102e+01	-1.059508e-03
8.136830e+01	-1.071781e-03
8.183828e+01	-1.084196e-03
8.231097e+01	-1.096755e-03
8.278640e+01	-1.109460e-03
8.326457e+01	-1.122312e-03
8.374550e+01	-1.135312e-03
8.422921e+01	-1.148463e-03
8.471572e+01	-1.161767e-03
8.520503e+01	-1.175224e-03
8.569717e+01	-1.188838e-03
8.619215e+01	-1.202609e-03
8.669000e+01	-1.216540e-03
8.719071e+01	-1.230632e-03
8.769432e+01	-1.244887e-03
8.820084e+01	-1.259307e-03
8.871029e+01	-1.273894e-03
8.922267e+01	-1.288650e-03
8.973802e+01	-1.303578e-03
9.025634e+01	-1.318678e-03
9.077766e+01	-1.333952e-03
9.130199e+01	-1.349404e-03
9.182935e+01	-1.365035e-03
9.235975e+01	-1.380847e-03
9.289321e+01	-1.396842e-03
9.342976e+01	-1.413022e-03
9.396941e+01	-1.429389e-03
9.451217e+01	-1.445946e-03
9.505807e+01	-1.462695e-03
9.560712e+01	-1.479638e-03
9.615934e+01	-1.496777e-03
9.671476e+01	-1.514115e-03
9.727338e+01	-1.531653e-03
9.783522e+01	-1.549395e-03
9.840032e+01	-1.567341e-03
9.896867e+01	-1.585496e-03
9.954031e+01	-1.603861e-03
1.001153e+02	-1.622439e-03
1.006935e+02	-1.641232e-03
1.012751e+02	-1.660242e-03
1.018601e+02	-1.679473e-03
1.024484e+02	-1.698926e-03
1.030402e+02	-1.718605e-03
1.036353e+02	-1.738511e-03
1.042339e+02	-1.758648e-03
1.048360e+02	-1.779019e-03
1.054415e+02	-1.799625e-03
1.060505e+02	-1.820469e-03
1.066631e+02	-1.841556e-03
1.072791e+02	-1.862886e-03
1.078988e+02	-1.884463e-03
1.085220e+02	-1.906290e-03
1.091488e+02	-1.928370e-03
1.097793e+02	-1.950706e-03
1.104133e+02	-1.973300e-03
1.110511e+02	-1.996156e-03
1.116925e+02	-2.019277e-03
1.123376e+02	-2.042665e-03
1.129865e+02	-2.066325e-03
1.136391e+02	-2.090258e-03
1.142955e+02	-2.114468e-03
1.149556e+02	-2.138959e-03
1.156196e+02	-2.163733e-03
1.162874e+02	-2.188794e-03
1.169591e+02	-2.214145e-03
1.176347e+02	-2.239790e-03
1.183141e+02	-2.265732e-03
1.189975e+02	-2.291974e-03
1.196848e+02	-2.318520e-03
1.203761e+02	-2.345373e-03
1.210714e+02	-2.372538e-03
1.217707e+02	-2.400017e-03
1.224740e+02	-2.427814e-03
1.231814e+02	-2.455933e-03
1.238929e+02	-2.484377e-03
1.246085e+02	-2.513151e-03
1.253283e+02	-2.542258e-03
1.260522e+02	-2.571702e-03
1.267802e+02	-2.601487e-03
1.275125e+02	-2.631617e-03
1.282490e+02	-2.662095e-03
1.289898e+02	-2.692927e-03
1.297348e+02	-2.724115e-03
1.304842e+02	-2.755665e-03
1.312378e+02	-2.787580e-03
1.319959e+02	-2.819864e-03
1.327583e+02	-2.852522e-03
1.335251e+02	-2.885558e-03
1.342963e+02	-2.918977e-03
1.350720e+02	-2.952782e-03
1.358522e+02	-2.986979e-03
1.366368e+02	-3.021572e-03
1.374260e+02	-3.056566e-03
1.382198e+02	-3.091964e-03
1.390182e+02	-3.127772e-03
1.398211e+02	-3.163995e-03
1.406287e+02	-3.200638e-03
1.414410e+02	-3.237704e-03
1.422579e+02	-3.275199e-03
1.430796e+02	-3.313129e-03
1.439060e+02	-3.351498e-03
1.447372e+02	-3.390310e-03
1.455732e+02	-3.429572e-03
1.464141e+02	-3.469289e-03
1.472597e+02	-3.509465e-03
1.481103e+02	-3.550107e-03
1.489658e+02	-3.591219e-03
1.498262e+02	-3.632806e-03
1.506916e+02	-3.674876e-03
1.515620e+02	-3.717432e-03
1.524374e+02	-3.760480e-03
1.533179e+02	-3.804027e-03
1.542034e+02	-3.848079e-03
1.550941e+02	-3.892640e-03
1.559899e+02	-3.937716e-03
1.568909e+02	-3.983315e-03
1.577971e+02	-4.029441e-03
1.587085e+02	-4.076101e-03
1.596252e+02	-4.123301e-03
1.605472e+02	-4.171048e-03
1.614745e+02	-4.219347e-03
1.624072e+02	-4.268205e-03
1.633453e+02	-4.317629e-03
1.642887e+02	-4.367624e-03
1.652377e+02	-4.418199e-03
1.661921e+02	-4.469358e-03
1.671520e+02	-4.521110e-03
1.681175e+02	-4.573461e-03
1.690885e+02	-4.626417e-03
1.700651e+02	-4.679986e-03
1.710474e+02	-4.734175e-03
1.720354e+02	-4.788992e-03
1.730291e+02	-4.844443e-03
1.740285e+02	-4.900535e-03
1.750337e+02	-4.957276e-03
1.760446e+02	-5.014674e-03
1.770615e+02	-5.072737e-03
1.780842e+02	-5.131471e-03
1.791128e+02	-5.190885e-03
1.801473e+02	-5.250986e-03
1.811878e+02	-5.311783e-03
1.822344e+02	-5.373283e-03
1.832870e+02	-5.435495e-03
1.843456e+02	-5.498426e-03
1.854104e+02	-5.562086e-03
1.864813e+02	-5.626482e-03
1.875584e+02	-5.691624e-03
1.886418e+02	-5.757519e-03
1.897313e+02	-5.824176e-03
1.908272e+02	-5.891605e-03
1.919294e+02	-5.959814e-03
1.930380e+02	-6.028812e-03
1.941530e+02	-6.098608e-03
1.952744e+02	-6.169211e-03
1.964023e+02	-6.240632e-03
1.975367e+02	-6.312878e-03
1.986777e+02	-6.385961e-03
1.998252e+02	-6.459889e-03
2.009794e+02	-6.534672e-03
2.021403e+02	-6.610320e-03
2.033078e+02	-6.686843e-03
2.044821e+02	-6.764251e-03
2.056632e+02	-6.842555e-03
2.068511e+02	-6.921764e-03
2.080459e+02	-7.001890e-03
2.092475e+02	-7.082942e-03
2.104561e+02	-7.164932e-03
2.116717e+02	-7.247870e-03
2.128943e+02	-7.331767e-03
2.141240e+02	-7.416635e-03
2.153608e+02	-7.502484e-03
2.166047e+02	-7.589326e-03
2.178558e+02	-7.677172e-03
2.191141e+02	-7.766034e-03
2.203797e+02	-7.855924e-03
2.216526e+02	-7.946853e-03
2.229329e+02	-8.038834e-03
2.242205e+02	-8.131879e-03
2.255156e+02	-8.225999e-03
2.268182e+02	-8.321208e-03
2.281283e+02	-8.417517e-03
2.294459e+02	-8.514940e-03
2.307712e+02	-8.613490e-03
2.321041e+02	-8.713179e-03
2.334447e+02	-8.814021e-03
2.347931e+02	-8.916028e-03
2.361493e+02	-9.019215e-03
2.375133e+02	-9.123595e-03
2.388851e+02	-9.229181e-03
2.402649e+02	-9.335988e-03
2.416527e+02	-9.444030e-03
2.430484e+02	-9.553321e-03
2.444523e+02	-9.663875e-03
2.458642e+02	-9.775707e-03
2.472843e+02	-9.888831e-03
2.487126e+02	-1.000326e-02
2.501492e+02	-1.011902e-02
2.515940e+02	-1.023611e-02
2.530472e+02	-1.035456e-02
2.545088e+02	-1.047437e-02
2.559789e+02	-1.059557e-02
2.574574e+02	-1.071817e-02
2.589444e+02	-1.084219e-02
2.604401e+02	-1.096764e-02
2.619444e+02	-1.109454e-02
2.634574e+02	-1.122291e-02
2.649791e+02	-1.135276e-02
2.665096e+02	-1.148411e-02
2.680489e+02	-1.161697e-02
2.695972e+02	-1.175138e-02
2.711544e+02	-1.188733e-02
2.727205e+02	-1.202486e-02
2.742958e+02	-1.216397e-02
2.758801e+02	-1.230470e-02
2.774736e+02	-1.244704e-02
2.790762e+02	-1.259104e-02
2.806882e+02	-1.273669e-02
2.823094e+02	-1.288403e-02
2.839400e+02	-1.303307e-02
2.855800e+02	-1.318383e-02
2.872295e+02	-1.333633e-02
2.888886e+02	-1.349060e-02
2.905572e+02	-1.364664e-02
2.922354e+02	-1.380449e-02
2.939234e+02	-1.396416e-02
2.956211e+02	-1.412568e-02
2.973286e+02	-1.428905e-02
2.990459e+02	-1.445432e-02
3.007732e+02	-1.462149e-02
3.025104e+02	-1.479060e-02
3.042577e+02	-1.496165e-02
3.060151e+02	-1.513469e-02
3.077826e+02	-1.530971e-02
3.095604e+02	-1.548676e-02
3.113484e+02	-1.566586e-02
3.131467e+02	-1.584702e-02
3.149554e+02	-1.603027e-02
3.167746e+02	-1.621564e-02
3.186043e+02	-1.640314e-02
3.204445e+02	-1.659281e-02
3.222954e+02	-1.678467e-02
3.241570e+02	-1.697874e-02
3.260293e+02	-1.717506e-02
3.279124e+02	-1.737363e-02
3.298064e+02	-1.757450e-02
3.317114e+02	-1.777769e-02
3.336273e+02	-1.798322e-02
3.355544e+02	-1.819112e-02
3.374925e+02	-1.840142e-02
3.394418e+02	-1.861415e-02
3.414024e+02	-1.882933e-02
3.433744e+02	-1.904699e-02
3.453577e+02	-1.926717e-02
3.473525e+02	-1.948988e-02
3.493588e+02	-1.971516e-02
3.513766e+02	-1.994304e-02
3.534062e+02	-2.017354e-02
3.554474e+02	-2.040671e-02
3.575005e+02	-2.064256e-02
3.595654e+02	-2.088113e-02
3.616422e+02	-2.112246e-02
3.637311e+02	-2.136656e-02
3.658320e+02	-2.161348e-02
3.679450e+02	-2.186325e-02
3.700702e+02	-2.211589e-02
3.722077e+02	-2.237144e-02
3.743576e+02	-2.262995e-02
3.765199e+02	-2.289143e-02
3.786946e+02	-2.315592e-02
3.808820e+02	-2.342346e-02
3.830819e+02	-2.369408e-02
3.852946e+02	-2.396783e-02
3.875200e+02	-2.424472e-02
3.897583e+02	-2.452481e-02
3.920096e+02	-2.480812e-02
3.942738e+02	-2.509469e-02
3.965511e+02	-2.538457e-02
3.988416e+02	-2.567778e-02
4.011452e+02	-2.597437e-02
4.034622e+02	-2.627438e-02
4.057926e+02	-2.657784e-02
4.081365e+02	-2.688479e-02
4.104938e+02	-2.719528e-02
4.128648e+02	-2.750935e-02
4.152495e+02	-2.782702e-02
4.176480e+02	-2.814836e-02
4.200603e+02	-2.847339e-02
4.224866e+02	-2.880216e-02
4.249268e+02	-2.913472e-02
4.273812e+02	-2.947111e-02
4.298497e+02	-2.981136e-02
4.323325e+02	-3.015553e-02
4.348297e+02	-3.050366e-02
4.373412e+02	-3.085579e-02
4.398673e+02	-3.121197e-02
4.424079e+02	-3.157225e-02
4.449633e+02	-3.193668e-02
4.475334e+02	-3.230529e-02
4.501183e+02	-3.267814e-02
4.527182e+02	-3.305528e-02
4.553330e+02	-3.343676e-02
4.579630e+02	-3.382262e-02
4.606082e+02	-3.421291e-02
4.632687e+02	-3.460769e-02
4.659445e+02	-3.500701e-02
4.686358e+02	-3.541092e-02
4.713426e+02	-3.581946e-02
4.740650e+02	-3.623271e-02
4.768032e+02	-3.665069e-02
4.795572e+02	-3.707348e-02
4.823271e+02	-3.750113e-02
4.851130e+02	-3.793369e-02
4.879150e+02	-3.837121e-02
4.907332e+02	-3.881376e-02
4.935676e+02	-3.926139e-02
4.964185e+02	-3.971415e-02
4.992858e+02	-4.017212e-02
5.021696e+02	-4.063534e-02
5.050701e+02	-4.110388e-02
5.079874e+02	-4.157779e-02
5.109215e+02	-4.205714e-02
5.138726e+02	-4.254199e-02
5.168407e+02	-4.303240e-02
5.198259e+02	-4.352844e-02
5.228284e+02	-4.403016e-02
5.258482e+02	-4.453764e-02
5.288855e+02	-4.505094e-02
5.319403e+02	-4.557012e-02
5.350128e+02	-4.609525e-02
5.381030e+02	-4.662640e-02
5.412111e+02	-4.716364e-02
5.443371e+02	-4.770704e-02
5.474812e+02	-4.825666e-02
5.506434e+02	-4.881257e-02
5.538239e+02	-4.937486e-02
5.570228e+02	-4.994358e-02
5.602401e+02	-5.051882e-02
5.634760e+02	-5.110064e-02
5.667306e+02	-5.168912e-02
5.700040e+02	-5.228434e-02
5.732964e+02	-5.288638e-02
5.766077e+02	-5.349530e-02
5.799382e+02	-5.411119e-02
5.832879e+02	-5.473412e-02
5.866569e+02	-5.536418e-02
5.900454e+02	-5.600144e-02
5.934535e+02	-5.664600e-02
5.968813e+02	-5.729792e-02
6.003288e+02	-5.795729e-02
6.037963e+02	-5.862420e-02
6.072838e+02	-5.929874e-02
6.107914e+02	-5.998097e-02
6.143194e+02	-6.067101e-02
6.178676e+02	-6.136892e-02
6.214364e+02	-6.207481e-02
6.250258e+02	-6.278876e-02
6.286359e+02	-6.351086e-02
6.322669e+02	-6.424120e-02
6.359189e+02	-6.497987e-02
6.395919e+02	-6.572698e-02
6.432862e+02	-6.648261e-02
6.470017e+02	-6.724686e-02
6.507388e+02	-6.801982e-02
6.544974e+02	-6.880160e-02
6.582778e+02	-6.959229e-02
6.620800e+02	-7.039200e-02
6.659041e+02	-7.120082e-02
6.697504e+02	-7.201885e-02
6.736188e+02	-7.284621e-02
6.775096e+02	-7.368299e-02
6.814229e+02	-7.452930e-02
6.853587e+02	-7.538524e-02
6.893173e+02	-7.625093e-02
6.932988e+02	-7.712647e-02
6.973033e+02	-7.801197e-02
7.013309e+02	-7.890755e-02
