Frequency(Hz)	Magnitude(dB)
1.000000e+01	-2.096477e+00
1.005776e+01	-2.115687e+00
1.011585e+01	-2.134735e+00
1.017428e+01	-2.154437e+00
1.023305e+01	-2.174061e+00
1.029215e+01	-2.193950e+00
1.035160e+01	-2.213796e+00
1.041139e+01	-2.233781e+00
1.047153e+01	-2.254099e+00
1.053201e+01	-2.274288e+00
1.059284e+01	-2.294981e+00
1.065403e+01	-2.315465e+00
1.071556e+01	-2.336043e+00
1.077746e+01	-2.357217e+00
1.083971e+01	-2.377908e+00
1.090232e+01	-2.399376e+00
1.096529e+01	-2.420620e+00
1.102862e+01	-2.442116e+00
1.109232e+01	-2.463589e+00
1.115639e+01	-2.485317e+00
1.122083e+01	-2.507149e+00
1.128564e+01	-2.529201e+00
1.135083e+01	-2.551297e+00
1.141639e+01	-2.573642e+00
1.148233e+01	-2.596181e+00
1.154865e+01	-2.618617e+00
1.161536e+01	-2.641396e+00
1.168245e+01	-2.664259e+00
1.174992e+01	-2.687105e+00
1.181779e+01	-2.710463e+00
1.188605e+01	-2.733552e+00
1.195470e+01	-2.757133e+00
1.202375e+01	-2.780830e+00
1.209320e+01	-2.804349e+00
1.216305e+01	-2.828303e+00
1.223330e+01	-2.852096e+00
1.230396e+01	-2.876445e+00
1.237503e+01	-2.900688e+00
1.244651e+01	-2.925125e+00
1.251840e+01	-2.949720e+00
1.259070e+01	-2.974339e+00
1.266343e+01	-2.999495e+00
1.273657e+01	-3.024405e+00
1.281014e+01	-3.049640e+00
1.288413e+01	-3.075075e+00
1.295855e+01	-3.100314e+00
1.303339e+01	-3.125996e+00
1.310867e+01	-3.151572e+00
1.318439e+01	-3.177600e+00
1.326054e+01	-3.203610e+00
1.333713e+01	-3.229795e+00
1.341417e+01	-3.256031e+00
1.349165e+01	-3.282550e+00
1.356958e+01	-3.309094e+00
1.364795e+01	-3.335795e+00
1.372678e+01	-3.362788e+00
1.380607e+01	-3.389902e+00
1.388581e+01	-3.417061e+00
1.396602e+01	-3.444066e+00
1.404668e+01	-3.471996e+00
1.412782e+01	-3.499300e+00
1.420942e+01	-3.527205e+00
1.429149e+01	-3.555139e+00
1.437404e+01	-3.583046e+00
1.445706e+01	-3.611222e+00
1.454057e+01	-3.639452e+00
1.462455e+01	-3.668124e+00
1.470902e+01	-3.696677e+00
1.479398e+01	-3.725094e+00
1.487943e+01	-3.754293e+00
1.496537e+01	-3.783434e+00
1.505181e+01	-3.812514e+00
1.513875e+01	-3.841544e+00
1.522619e+01	-3.871405e+00
1.531414e+01	-3.900687e+00
1.540259e+01	-3.930551e+00
1.549156e+01	-3.960112e+00
1.558103e+01	-3.990300e+00
1.567103e+01	-4.020451e+00
1.576155e+01	-4.050710e+00
1.585258e+01	-4.081344e+00
1.594415e+01	-4.111813e+00
1.603624e+01	-4.142230e+00
1.612886e+01	-4.173342e+00
1.622202e+01	-4.204523e+00
1.631572e+01	-4.235313e+00
1.640996e+01	-4.266463e+00
1.650474e+01	-4.297819e+00
1.660008e+01	-4.329222e+00
1.669596e+01	-4.361079e+00
1.679239e+01	-4.392660e+00
1.688938e+01	-4.424727e+00
1.698694e+01	-4.456593e+00
1.708505e+01	-4.488674e+00
1.718373e+01	-4.521126e+00
1.728299e+01	-4.553598e+00
1.738281e+01	-4.585967e+00
1.748322e+01	-4.619109e+00
1.758420e+01	-4.651872e+00
1.768576e+01	-4.684766e+00
1.778792e+01	-4.717668e+00
1.789066e+01	-4.750984e+00
1.799399e+01	-4.784243e+00
1.809793e+01	-4.817646e+00
1.820246e+01	-4.851031e+00
1.830760e+01	-4.884628e+00
1.841334e+01	-4.918670e+00
1.851969e+01	-4.952613e+00
1.862666e+01	-4.987133e+00
1.873425e+01	-5.021185e+00
1.884246e+01	-5.055506e+00
1.895129e+01	-5.090026e+00
1.906075e+01	-5.124399e+00
1.917085e+01	-5.159062e+00
1.928158e+01	-5.193912e+00
1.939295e+01	-5.228704e+00
1.950496e+01	-5.264066e+00
1.961762e+01	-5.299044e+00
1.973093e+01	-5.334613e+00
1.984490e+01	-5.369875e+00
1.995952e+01	-5.405762e+00
2.007480e+01	-5.441321e+00
2.019076e+01	-5.477021e+00
2.030738e+01	-5.513002e+00
2.042467e+01	-5.548625e+00
2.054264e+01	-5.585167e+00
2.066130e+01	-5.621382e+00
2.078064e+01	-5.657748e+00
2.090066e+01	-5.694391e+00
2.102139e+01	-5.730532e+00
2.114280e+01	-5.767469e+00
2.126492e+01	-5.804057e+00
2.138775e+01	-5.841299e+00
2.151128e+01	-5.877997e+00
2.163553e+01	-5.915171e+00
2.176050e+01	-5.952955e+00
2.188619e+01	-5.990254e+00
2.201260e+01	-6.027861e+00
2.213974e+01	-6.065148e+00
2.226762e+01	-6.102837e+00
2.239624e+01	-6.140804e+00
2.252560e+01	-6.178839e+00
2.265571e+01	-6.216905e+00
2.278656e+01	-6.255112e+00
2.291818e+01	-6.292784e+00
2.305055e+01	-6.331783e+00
2.318369e+01	-6.370072e+00
2.331760e+01	-6.408653e+00
2.345228e+01	-6.447193e+00
2.358774e+01	-6.485519e+00
2.372398e+01	-6.524583e+00
2.386101e+01	-6.563657e+00
2.399883e+01	-6.602463e+00
2.413745e+01	-6.641635e+00
2.427686e+01	-6.680761e+00
2.441709e+01	-6.720170e+00
2.455812e+01	-6.759556e+00
2.469997e+01	-6.799066e+00
2.484263e+01	-6.838882e+00
2.498612e+01	-6.878483e+00
2.513044e+01	-6.918142e+00
2.527559e+01	-6.958174e+00
2.542158e+01	-6.998119e+00
2.556842e+01	-7.038189e+00
2.571610e+01	-7.078533e+00
2.586463e+01	-7.118745e+00
2.601403e+01	-7.158876e+00
2.616428e+01	-7.199349e+00
2.631541e+01	-7.239893e+00
2.646740e+01	-7.280752e+00
2.662028e+01	-7.321352e+00
2.677404e+01	-7.362409e+00
2.692868e+01	-7.403325e+00
2.708422e+01	-7.444123e+00
2.724066e+01	-7.485687e+00
2.739800e+01	-7.526236e+00
2.755625e+01	-7.567316e+00
2.771541e+01	-7.608870e+00
2.787550e+01	-7.650518e+00
2.803650e+01	-7.691917e+00
2.819844e+01	-7.733076e+00
2.836131e+01	-7.774836e+00
2.852513e+01	-7.816561e+00
2.868989e+01	-7.858071e+00
2.885560e+01	-7.900230e+00
2.902227e+01	-7.942660e+00
2.918990e+01	-7.984516e+00
2.935850e+01	-8.026611e+00
2.952807e+01	-8.068479e+00
2.969863e+01	-8.110954e+00
2.987016e+01	-8.153148e+00
3.004269e+01	-8.195230e+00
3.021622e+01	-8.237880e+00
3.039075e+01	-8.280213e+00
3.056628e+01	-8.323121e+00
3.074283e+01	-8.365956e+00
3.092040e+01	-8.409010e+00
3.109900e+01	-8.451665e+00
3.127862e+01	-8.494550e+00
3.145929e+01	-8.537631e+00
3.164099e+01	-8.579980e+00
3.182375e+01	-8.623928e+00
3.200756e+01	-8.666970e+00
3.219244e+01	-8.710154e+00
3.237838e+01	-8.753464e+00
3.256540e+01	-8.796605e+00
3.275349e+01	-8.840393e+00
3.294268e+01	-8.883769e+00
3.313295e+01	-8.927050e+00
3.332433e+01	-8.971001e+00
3.351681e+01	-9.014771e+00
3.371040e+01	-9.058689e+00
3.390511e+01	-9.102201e+00
3.410094e+01	-9.146373e+00
3.429791e+01	-9.190130e+00
3.449601e+01	-9.234417e+00
3.469526e+01	-9.278254e+00
3.489566e+01	-9.322712e+00
3.509721e+01	-9.367084e+00
3.529993e+01	-9.411087e+00
3.550382e+01	-9.454652e+00
3.570889e+01	-9.499742e+00
3.591515e+01	-9.544168e+00
3.612259e+01	-9.589052e+00
3.633123e+01	-9.633156e+00
3.654108e+01	-9.677901e+00
3.675214e+01	-9.722454e+00
3.696442e+01	-9.766938e+00
3.717792e+01	-9.811816e+00
3.739266e+01	-9.856857e+00
3.760864e+01	-9.901742e+00
3.782587e+01	-9.946396e+00
3.804435e+01	-9.991386e+00
3.826409e+01	-1.003674e+01
3.848510e+01	-1.008263e+01
3.870739e+01	-1.012676e+01
3.893096e+01	-1.017260e+01
3.915583e+01	-1.021700e+01
3.938199e+01	-1.026268e+01
3.960946e+01	-1.030778e+01
3.983824e+01	-1.035266e+01
4.006834e+01	-1.039870e+01
4.029978e+01	-1.044459e+01
4.053255e+01	-1.048963e+01
4.076666e+01	-1.053561e+01
4.100213e+01	-1.058064e+01
4.123896e+01	-1.062620e+01
4.147715e+01	-1.067240e+01
4.171672e+01	-1.071849e+01
4.195767e+01	-1.076335e+01
4.220002e+01	-1.080963e+01
4.244377e+01	-1.085586e+01
4.268892e+01	-1.090183e+01
4.293549e+01	-1.094764e+01
4.318348e+01	-1.099356e+01
4.343291e+01	-1.103979e+01
4.368377e+01	-1.108582e+01
4.393609e+01	-1.113066e+01
4.418986e+01	-1.117781e+01
4.444510e+01	-1.122487e+01
4.470182e+01	-1.127065e+01
4.496001e+01	-1.131710e+01
4.521970e+01	-1.136345e+01
4.548089e+01	-1.140951e+01
4.574358e+01	-1.145617e+01
4.600779e+01	-1.150269e+01
4.627353e+01	-1.154876e+01
4.654081e+01	-1.159541e+01
4.680963e+01	-1.164230e+01
4.708000e+01	-1.168939e+01
4.735193e+01	-1.173541e+01
4.762543e+01	-1.178157e+01
4.790051e+01	-1.182932e+01
4.817719e+01	-1.187491e+01
4.845545e+01	-1.192216e+01
4.873533e+01	-1.196875e+01
4.901682e+01	-1.201616e+01
4.929994e+01	-1.206297e+01
4.958470e+01	-1.211065e+01
4.987110e+01	-1.215681e+01
5.015915e+01	-1.220353e+01
5.044887e+01	-1.225079e+01
5.074026e+01	-1.229851e+01
5.103333e+01	-1.234544e+01
5.132810e+01	-1.239292e+01
5.162457e+01	-1.243969e+01
5.192275e+01	-1.248651e+01
5.222265e+01	-1.253364e+01
5.252429e+01	-1.258037e+01
5.282767e+01	-1.262876e+01
5.313280e+01	-1.267612e+01
5.343969e+01	-1.272224e+01
5.374836e+01	-1.277041e+01
5.405880e+01	-1.281786e+01
5.437105e+01	-1.286433e+01
5.468509e+01	-1.291284e+01
5.500095e+01	-1.296025e+01
5.531863e+01	-1.300695e+01
5.563815e+01	-1.305512e+01
5.595951e+01	-1.310234e+01
5.628273e+01	-1.315074e+01
5.660782e+01	-1.319852e+01
5.693479e+01	-1.324533e+01
5.726364e+01	-1.329378e+01
5.759439e+01	-1.334149e+01
5.792705e+01	-1.338850e+01
5.826164e+01	-1.343722e+01
5.859815e+01	-1.348462e+01
5.893662e+01	-1.353218e+01
5.927703e+01	-1.357909e+01
5.961941e+01	-1.362777e+01
5.996377e+01	-1.367497e+01
6.031012e+01	-1.372366e+01
6.065847e+01	-1.377161e+01
6.100883e+01	-1.381945e+01
6.136121e+01	-1.386739e+01
6.171563e+01	-1.391565e+01
6.207210e+01	-1.396213e+01
6.243063e+01	-1.401230e+01
6.279122e+01	-1.405948e+01
6.315390e+01	-1.410823e+01
6.351868e+01	-1.415506e+01
6.388556e+01	-1.420357e+01
6.425456e+01	-1.425144e+01
6.462569e+01	-1.430008e+01
6.499897e+01	-1.434892e+01
6.537440e+01	-1.439576e+01
6.575200e+01	-1.444428e+01
6.613178e+01	-1.449218e+01
6.651375e+01	-1.454182e+01
6.689793e+01	-1.458931e+01
6.728433e+01	-1.463752e+01
6.767297e+01	-1.468652e+01
6.806384e+01	-1.473491e+01
6.845698e+01	-1.478256e+01
6.885238e+01	-1.483090e+01
6.925007e+01	-1.487919e+01
6.965005e+01	-1.492838e+01
7.005235e+01	-1.497631e+01
7.045697e+01	-1.502404e+01
7.086393e+01	-1.507228e+01
7.127323e+01	-1.512083e+01
7.168490e+01	-1.516970e+01
7.209895e+01	-1.521822e+01
7.251539e+01	-1.526732e+01
7.293424e+01	-1.531623e+01
7.335551e+01	-1.536400e+01
7.377920e+01	-1.541344e+01
7.420535e+01	-1.546161e+01
7.463396e+01	-1.551034e+01
7.506504e+01	-1.555864e+01
7.549861e+01	-1.560691e+01
7.593469e+01	-1.565666e+01
7.637328e+01	-1.570565e+01
7.681441e+01	-1.575307e+01
7.725809e+01	-1.580183e+01
7.770433e+01	-1.585033e+01
7.815315e+01	-1.589952e+01
7.860456e+01	-1.594868e+01
7.905857e+01	-1.599717e+01
7.951521e+01	-1.604623e+01
7.997449e+01	-1.609405e+01
8.043642e+01	-1.614363e+01
8.090102e+01	-1.619264e+01
8.136830e+01	-1.624072e+01
8.183828e+01	-1.628992e+01
8.231097e+01	-1.633836e+01
8.278640e+01	-1.638754e+01
8.326457e+01	-1.643712e+01
8.374550e+01	-1.648643e+01
8.422921e+01	-1.653427e+01
8.471572e+01	-1.658289e+01
8.520503e+01	-1.663222e+01
8.569717e+01	-1.668166e+01
8.619215e+01	-1.673008e+01
8.669000e+01	-1.677993e+01
8.719071e+01	-1.682861e+01
8.769432e+01	-1.687728e+01
8.820084e+01	-1.692644e+01
8.871029e+01	-1.697544e+01
8.922267e+01	-1.702426e+01
8.973802e+01	-1.707280e+01
9.025634e+01	-1.712252e+01
9.077766e+01	-1.717194e+01
9.130199e+01	-1.722042e+01
9.182935e+01	-1.727011e+01
9.235975e+01	-1.731840e+01
9.289321e+01	-1.736746e+01
9.342976e+01	-1.741668e+01
9.396941e+01	-1.746584e+01
9.451217e+01	-1.751512e+01
9.505807e+01	-1.756452e+01
9.560712e+01	-1.761396e+01
9.615934e+01	-1.766268e+01
9.671476e+01	-1.771151e+01
9.727338e+01	-1.776104e+01
9.783522e+01	-1.780959e+01
9.840032e+01	-1.786026e+01
9.896867e+01	-1.790864e+01
9.954031e+01	-1.795751e+01
1.001153e+02	-1.800711e+01
1.006935e+02	-1.805629e+01
1.012751e+02	-1.810538e+01
1.018601e+02	-1.815430e+01
1.024484e+02	-1.820279e+01
1.030402e+02	-1.825281e+01
1.036353e+02	-1.830333e+01
1.042339e+02	-1.835305e+01
1.048360e+02	-1.840053e+01
1.054415e+02	-1.845091e+01
1.060505e+02	-1.849916e+01
1.066631e+02	-1.854903e+01
1.072791e+02	-1.859871e+01
1.078988e+02	-1.864684e+01
1.085220e+02	-1.869698e+01
1.091488e+02	-1.874693e+01
1.097793e+02	-1.879670e+01
1.104133e+02	-1.884639e+01
1.110511e+02	-1.889464e+01
1.116925e+02	-1.894316e+01
1.123376e+02	-1.899291e+01
1.129865e+02	-1.904301e+01
1.136391e+02	-1.909070e+01
1.142955e+02	-1.914233e+01
1.149556e+02	-1.919179e+01
1.156196e+02	-1.924057e+01
1.162874e+02	-1.928909e+01
1.169591e+02	-1.933796e+01
1.176347e+02	-1.939028e+01
1.183141e+02	-1.943875e+01
1.189975e+02	-1.948901e+01
1.196848e+02	-1.953789e+01
1.203761e+02	-1.958787e+01
1.210714e+02	-1.963645e+01
1.217707e+02	-1.968516e+01
1.224740e+02	-1.973524e+01
1.231814e+02	-1.978476e+01
1.238929e+02	-1.983403e+01
1.246085e+02	-1.988548e+01
1.253283e+02	-1.993336e+01
1.260522e+02	-1.998325e+01
1.267802e+02	-2.003334e+01
1.275125e+02	-2.008002e+01
1.282490e+02	-2.013071e+01
1.289898e+02	-2.018064e+01
1.297348e+02	-2.023281e+01
1.304842e+02	-2.027987e+01
1.312378e+02	-2.033081e+01
1.319959e+02	-2.037963e+01
1.327583e+02	-2.042959e+01
1.335251e+02	-2.047754e+01
1.342963e+02	-2.052763e+01
1.350720e+02	-2.057750e+01
1.358522e+02	-2.062679e+01
1.366368e+02	-2.067717e+01
1.374260e+02	-2.072770e+01
1.382198e+02	-2.077523e+01
1.390182e+02	-2.082657e+01
1.398211e+02	-2.087496e+01
1.406287e+02	-2.092454e+01
1.414410e+02	-2.097556e+01
1.422579e+02	-2.102456e+01
1.430796e+02	-2.107328e+01
1.439060e+02	-2.112385e+01
1.447372e+02	-2.117352e+01
1.455732e+02	-2.122154e+01
1.464141e+02	-2.127351e+01
1.472597e+02	-2.132301e+01
1.481103e+02	-2.137247e+01
1.489658e+02	-2.142127e+01
1.498262e+02	-2.147096e+01
1.506916e+02	-2.152160e+01
1.515620e+02	-2.157168e+01
1.524374e+02	-2.162056e+01
1.533179e+02	-2.167016e+01
1.542034e+02	-2.172104e+01
1.550941e+02	-2.177040e+01
1.559899e+02	-2.181738e+01
1.568909e+02	-2.186889e+01
1.577971e+02	-2.191899e+01
1.587085e+02	-2.196847e+01
1.596252e+02	-2.201908e+01
1.605472e+02	-2.206830e+01
1.614745e+02	-2.211745e+01
1.624072e+02	-2.216670e+01
1.633453e+02	-2.221639e+01
1.642887e+02	-2.226706e+01
1.652377e+02	-2.231609e+01
1.661921e+02	-2.236700e+01
1.671520e+02	-2.241574e+01
1.681175e+02	-2.246531e+01
1.690885e+02	-2.251674e+01
1.700651e+02	-2.256456e+01
1.710474e+02	-2.261597e+01
1.720354e+02	-2.266542e+01
1.730291e+02	-2.271381e+01
1.740285e+02	-2.276366e+01
1.750337e+02	-2.281680e+01
1.760446e+02	-2.286314e+01
1.770615e+02	-2.291131e+01
1.780842e+02	-2.296332e+01
1.791128e+02	-2.301260e+01
1.801473e+02	-2.306492e+01
1.811878e+02	-2.311743e+01
1.822344e+02	-2.316165e+01
1.832870e+02	-2.321216e+01
1.843456e+02	-2.326378e+01
1.854104e+02	-2.331239e+01
1.864813e+02	-2.336275e+01
1.875584e+02	-2.341148e+01
1.886418e+02	-2.346406e+01
1.897313e+02	-2.351254e+01
1.908272e+02	-2.356184e+01
1.919294e+02	-2.361233e+01
1.930380e+02	-2.366057e+01
1.941530e+02	-2.370997e+01
1.952744e+02	-2.375903e+01
1.964023e+02	-2.381070e+01
1.975367e+02	-2.386011e+01
1.986777e+02	-2.390956e+01
1.998252e+02	-2.395907e+01
2.009794e+02	-2.400825e+01
2.021403e+02	-2.405961e+01
2.033078e+02	-2.410974e+01
2.044821e+02	-2.416065e+01
2.056632e+02	-2.420861e+01
2.068511e+02	-2.425902e+01
2.080459e+02	-2.430896e+01
2.092475e+02	-2.435907e+01
2.104561e+02	-2.440770e+01
2.116717e+02	-2.445773e+01
2.128943e+02	-2.450922e+01
2.141240e+02	-2.455916e+01
2.153608e+02	-2.461060e+01
2.166047e+02	-2.466126e+01
2.178558e+02	-2.470908e+01
2.191141e+02	-2.475924e+01
2.203797e+02	-2.480641e+01
2.216526e+02	-2.485870e+01
2.229329e+02	-2.490621e+01
2.242205e+02	-2.495709e+01
2.255156e+02	-2.500824e+01
2.268182e+02	-2.505664e+01
2.281283e+02	-2.510867e+01
2.294459e+02	-2.515713e+01
2.307712e+02	-2.521105e+01
2.321041e+02	-2.525744e+01
2.334447e+02	-2.530717e+01
2.347931e+02	-2.535776e+01
2.361493e+02	-2.540686e+01
2.375133e+02	-2.545773e+01
2.388851e+02	-2.550695e+01
2.402649e+02	-2.555582e+01
2.416527e+02	-2.560704e+01
2.430484e+02	-2.565946e+01
2.444523e+02	-2.570449e+01
2.458642e+02	-2.575811e+01
2.472843e+02	-2.580572e+01
2.487126e+02	-2.585719e+01
2.501492e+02	-2.590880e+01
2.515940e+02	-2.595344e+01
2.530472e+02	-2.600624e+01
2.545088e+02	-2.605938e+01
2.559789e+02	-2.610618e+01
2.574574e+02	-2.615989e+01
2.589444e+02	-2.620312e+01
2.604401e+02	-2.625595e+01
2.619444e+02	-2.630488e+01
2.634574e+02	-2.635579e+01
2.649791e+02	-2.640330e+01
2.665096e+02	-2.645784e+01
2.680489e+02	-2.650680e+01
2.695972e+02	-2.655503e+01
2.711544e+02	-2.660566e+01
2.727205e+02	-2.665707e+01
2.742958e+02	-2.670587e+01
2.758801e+02	-2.675562e+01
2.774736e+02	-2.680386e+01
2.790762e+02	-2.685684e+01
2.806882e+02	-2.690731e+01
2.823094e+02	-2.695539e+01
2.839400e+02	-2.700678e+01
2.855800e+02	-2.705636e+01
2.872295e+02	-2.710402e+01
2.888886e+02	-2.715743e+01
2.905572e+02	-2.720792e+01
2.922354e+02	-2.725380e+01
2.939234e+02	-2.730599e+01
2.956211e+02	-2.735479e+01
2.973286e+02	-2.740406e+01
2.990459e+02	-2.745782e+01
3.007732e+02	-2.750572e+01
3.025104e+02	-2.755352e+01
3.042577e+02	-2.760498e+01
3.060151e+02	-2.765185e+01
3.077826e+02	-2.770062e+01
3.095604e+02	-2.775438e+01
3.113484e+02	-2.780513e+01
3.131467e+02	-2.785342e+01
3.149554e+02	-2.790519e+01
3.167746e+02	-2.795959e+01
3.186043e+02	-2.800679e+01
3.204445e+02	-2.805702e+01
3.222954e+02	-2.810750e+01
3.241570e+02	-2.815073e+01
3.260293e+02	-2.820797e+01
3.279124e+02	-2.825682e+01
3.298064e+02	-2.830424e+01
3.317114e+02	-2.835373e+01
3.336273e+02	-2.840574e+01
3.355544e+02	-2.845574e+01
3.374925e+02	-2.850870e+01
3.394418e+02	-2.855502e+01
3.414024e+02	-2.860453e+01
3.433744e+02	-2.865850e+01
3.453577e+02	-2.870648e+01
3.473525e+02	-2.876239e+01
3.493588e+02	-2.880957e+01
3.513766e+02	-2.885521e+01
3.534062e+02	-2.890297e+01
3.554474e+02	-2.896370e+01
3.575005e+02	-2.900718e+01
3.595654e+02	-2.905853e+01
3.616422e+02	-2.910817e+01
3.637311e+02	-2.915736e+01
3.658320e+02	-2.920778e+01
3.679450e+02	-2.925609e+01
3.700702e+02	-2.930729e+01
3.722077e+02	-2.935807e+01
3.743576e+02	-2.940204e+01
3.765199e+02	-2.946015e+01
3.786946e+02	-2.950754e+01
3.808820e+02	-2.955802e+01
3.830819e+02	-2.961040e+01
3.852946e+02	-2.965806e+01
3.875200e+02	-2.970591e+01
3.897583e+02	-2.975483e+01
3.920096e+02	-2.980760e+01
3.942738e+02	-2.986051e+01
3.965511e+02	-2.991252e+01
3.988416e+02	-2.996164e+01
4.011452e+02	-3.000905e+01
4.034622e+02	-3.005988e+01
4.057926e+02	-3.011130e+01
4.081365e+02	-3.015795e+01
4.104938e+02	-3.021003e+01
4.128648e+02	-3.025707e+01
4.152495e+02	-3.031226e+01
4.176480e+02	-3.035492e+01
4.200603e+02	-3.041304e+01
4.224866e+02	-3.045434e+01
4.249268e+02	-3.050165e+01
4.273812e+02	-3.055187e+01
4.298497e+02	-3.061002e+01
4.323325e+02	-3.065780e+01
4.348297e+02	-3.070821e+01
4.373412e+02	-3.076274e+01
4.398673e+02	-3.081294e+01
4.424079e+02	-3.086144e+01
4.449633e+02	-3.091199e+01
4.475334e+02	-3.096060e+01
4.501183e+02	-3.101431e+01
4.527182e+02	-3.106258e+01
4.553330e+02	-3.111096e+01
4.579630e+02	-3.116357e+01
4.606082e+02	-3.120763e+01
4.632687e+02	-3.126170e+01
4.659445e+02	-3.131458e+01
4.686358e+02	-3.135797e+01
4.713426e+02	-3.141255e+01
4.740650e+02	-3.146490e+01
4.768032e+02	-3.151097e+01
4.795572e+02	-3.156410e+01
4.823271e+02	-3.160931e+01
4.851130e+02	-3.166269e+01
4.879150e+02	-3.171315e+01
4.907332e+02	-3.176560e+01
4.935676e+02	-3.180936e+01
4.964185e+02	-3.186509e+01
4.992858e+02	-3.191776e+01
5.021696e+02	-3.196218e+01
5.050701e+02	-3.201011e+01
5.079874e+02	-3.206406e+01
5.109215e+02	-3.211246e+01
5.138726e+02	-3.216403e+01
5.168407e+02	-3.221298e+01
5.198259e+02	-3.226403e+01
5.228284e+02	-3.231400e+01
5.258482e+02	-3.236752e+01
5.288855e+02	-3.241738e+01
5.319403e+02	-3.246407e+01
5.350128e+02	-3.251577e+01
5.381030e+02	-3.256945e+01
5.412111e+02	-3.261315e+01
5.443371e+02	-3.266673e+01
5.474812e+02	-3.271706e+01
5.506434e+02	-3.276038e+01
5.538239e+02	-3.281086e+01
5.570228e+02	-3.286112e+01
5.602401e+02	-3.291263e+01
5.634760e+02	-3.297195e+01
5.667306e+02	-3.301886e+01
5.700040e+02	-3.306348e+01
5.732964e+02	-3.312297e+01
5.766077e+02	-3.316479e+01
5.799382e+02	-3.321744e+01
5.832879e+02	-3.326858e+01
5.866569e+02	-3.331457e+01
5.900454e+02	-3.336526e+01
5.934535e+02	-3.341445e+01
5.968813e+02	-3.346910e+01
6.003288e+02	-3.352545e+01
6.037963e+02	-3.357254e+01
6.072838e+02	-3.362577e+01
6.107914e+02	-3.367178e+01
6.143194e+02	-3.372864e+01
6.178676e+02	-3.377476e+01
6.214364e+02	-3.381914e+01
6.250258e+02	-3.387458e+01
6.286359e+02	-3.392993e+01
6.322669e+02	-3.397790e+01
6.359189e+02	-3.402004e+01
6.395919e+02	-3.407018e+01
6.432862e+02	-3.412646e+01
6.470017e+02	-3.417169e+01
6.507388e+02	-3.422148e+01
6.544974e+02	-3.426728e+01
6.582778e+02	-3.432889e+01
6.620800e+02	-3.437616e+01
6.659041e+02	-3.441839e+01
6.697504e+02	-3.447625e+01
6.736188e+02	-3.453419e+01
6.775096e+02	-3.457458e+01
6.814229e+02	-3.462720e+01
6.853587e+02	-3.467187e+01
6.893173e+02	-3.472855e+01
6.932988e+02	-3.477510e+01
6.973033e+02	-3.482537e+01
7.013309e+02	-3.487115e+01
