Frequency(Hz)	Magnitude(dB)
1.000000e+01	-1.720507e-05
1.005776e+01	-1.740439e-05
1.011585e+01	-1.760603e-05
1.017428e+01	-1.781000e-05
1.023305e+01	-1.801633e-05
1.029215e+01	-1.822506e-05
1.035160e+01	-1.843620e-05
1.041139e+01	-1.864979e-05
1.047153e+01	-1.886585e-05
1.053201e+01	-1.908441e-05
1.059284e+01	-1.930551e-05
1.065403e+01	-1.952917e-05
1.071556e+01	-1.975542e-05
1.077746e+01	-1.998429e-05
1.083971e+01	-2.021582e-05
1.090232e+01	-2.045002e-05
1.096529e+01	-2.068694e-05
1.102862e+01	-2.092660e-05
1.109232e+01	-2.116904e-05
1.115639e+01	-2.141429e-05
1.122083e+01	-2.166238e-05
1.128564e+01	-2.191335e-05
1.135083e+01	-2.216722e-05
1.141639e+01	-2.242403e-05
1.148233e+01	-2.268382e-05
1.154865e+01	-2.294662e-05
1.161536e+01	-2.321246e-05
1.168245e+01	-2.348138e-05
1.174992e+01	-2.375342e-05
1.181779e+01	-2.402861e-05
1.188605e+01	-2.430699e-05
1.195470e+01	-2.458859e-05
1.202375e+01	-2.487345e-05
1.209320e+01	-2.516162e-05
1.216305e+01	-2.545312e-05
1.223330e+01	-2.574800e-05
1.230396e+01	-2.604630e-05
1.237503e+01	-2.634805e-05
1.244651e+01	-2.665330e-05
1.251840e+01	-2.696209e-05
1.259070e+01	-2.727445e-05
1.266343e+01	-2.759043e-05
1.273657e+01	-2.791007e-05
1.281014e+01	-2.823342e-05
1.288413e+01	-2.856051e-05
1.295855e+01	-2.889139e-05
1.303339e+01	-2.922610e-05
1.310867e+01	-2.956469e-05
1.318439e+01	-2.990721e-05
1.326054e+01	-3.025369e-05
1.333713e+01	-3.060418e-05
1.341417e+01	-3.095874e-05
1.349165e+01	-3.131741e-05
1.356958e+01	-3.168023e-05
1.364795e+01	-3.204725e-05
1.372678e+01	-3.241852e-05
1.380607e+01	-3.279410e-05
1.388581e+01	-3.317403e-05
1.396602e+01	-3.355836e-05
1.404668e+01	-3.394714e-05
1.412782e+01	-3.434042e-05
1.420942e+01	-3.473826e-05
1.429149e+01	-3.514072e-05
1.437404e+01	-3.554783e-05
1.445706e+01	-3.595966e-05
1.454057e+01	-3.637626e-05
1.462455e+01	-3.679769e-05
1.470902e+01	-3.722400e-05
1.479398e+01	-3.765525e-05
1.487943e+01	-3.809149e-05
1.496537e+01	-3.853279e-05
1.505181e+01	-3.897920e-05
1.513875e+01	-3.943078e-05
1.522619e+01	-3.988760e-05
1.531414e+01	-4.034970e-05
1.540259e+01	-4.081716e-05
1.549156e+01	-4.129004e-05
1.558103e+01	-4.176840e-05
1.567103e+01	-4.225229e-05
1.576155e+01	-4.274179e-05
1.585258e+01	-4.323697e-05
1.594415e+01	-4.373788e-05
1.603624e+01	-4.424459e-05
1.612886e+01	-4.475717e-05
1.622202e+01	-4.527569e-05
1.631572e+01	-4.580022e-05
1.640996e+01	-4.633083e-05
1.650474e+01	-4.686758e-05
1.660008e+01	-4.741055e-05
1.669596e+01	-4.795981e-05
1.679239e+01	-4.851544e-05
1.688938e+01	-4.907750e-05
1.698694e+01	-4.964607e-05
1.708505e+01	-5.022123e-05
1.718373e+01	-5.080306e-05
1.728299e+01	-5.139162e-05
1.738281e+01	-5.198701e-05
1.748322e+01	-5.258929e-05
1.758420e+01	-5.319854e-05
1.768576e+01	-5.381486e-05
1.778792e+01	-5.443832e-05
1.789066e+01	-5.506899e-05
1.799399e+01	-5.570698e-05
1.809793e+01	-5.635236e-05
1.820246e+01	-5.700521e-05
1.830760e+01	-5.766563e-05
1.841334e+01	-5.833370e-05
1.851969e+01	-5.900950e-05
1.862666e+01	-5.969314e-05
1.873425e+01	-6.038470e-05
1.884246e+01	-6.108427e-05
1.895129e+01	-6.179194e-05
1.906075e+01	-6.250781e-05
1.917085e+01	-6.323198e-05
1.928158e+01	-6.396453e-05
1.939295e+01	-6.470557e-05
1.950496e+01	-6.545520e-05
1.961762e+01	-6.621351e-05
1.973093e+01	-6.698061e-05
1.984490e+01	-6.775659e-05
1.995952e+01	-6.854156e-05
2.007480e+01	-6.933563e-05
2.019076e+01	-7.013889e-05
2.030738e+01	-7.095147e-05
2.042467e+01	-7.177345e-05
2.054264e+01	-7.260496e-05
2.066130e+01	-7.344610e-05
2.078064e+01	-7.429699e-05
2.090066e+01	-7.515773e-05
2.102139e+01	-7.602845e-05
2.114280e+01	-7.690925e-05
2.126492e+01	-7.780026e-05
2.138775e+01	-7.870159e-05
2.151128e+01	-7.961336e-05
2.163553e+01	-8.053569e-05
2.176050e+01	-8.146871e-05
2.188619e+01	-8.241254e-05
2.201260e+01	-8.336731e-05
2.213974e+01	-8.433313e-05
2.226762e+01	-8.531014e-05
2.239624e+01	-8.629848e-05
2.252560e+01	-8.729826e-05
2.265571e+01	-8.830962e-05
2.278656e+01	-8.933270e-05
2.291818e+01	-9.036764e-05
2.305055e+01	-9.141456e-05
2.318369e+01	-9.247361e-05
2.331760e+01	-9.354493e-05
2.345228e+01	-9.462867e-05
2.358774e+01	-9.572495e-05
2.372398e+01	-9.683394e-05
2.386101e+01	-9.795578e-05
2.399883e+01	-9.909061e-05
2.413745e+01	-1.002386e-04
2.427686e+01	-1.013999e-04
2.441709e+01	-1.025746e-04
2.455812e+01	-1.037629e-04
2.469997e+01	-1.049650e-04
2.484263e+01	-1.061811e-04
2.498612e+01	-1.074112e-04
2.513044e+01	-1.086556e-04
2.527559e+01	-1.099144e-04
2.542158e+01	-1.111877e-04
2.556842e+01	-1.124759e-04
2.571610e+01	-1.137789e-04
2.586463e+01	-1.150971e-04
2.601403e+01	-1.164305e-04
2.616428e+01	-1.177793e-04
2.631541e+01	-1.191438e-04
2.646740e+01	-1.205241e-04
2.662028e+01	-1.219204e-04
2.677404e+01	-1.233329e-04
2.692868e+01	-1.247617e-04
2.708422e+01	-1.262071e-04
2.724066e+01	-1.276692e-04
2.739800e+01	-1.291482e-04
2.755625e+01	-1.306444e-04
2.771541e+01	-1.321580e-04
2.787550e+01	-1.336890e-04
2.803650e+01	-1.352378e-04
2.819844e+01	-1.368046e-04
2.836131e+01	-1.383895e-04
2.852513e+01	-1.399927e-04
2.868989e+01	-1.416146e-04
2.885560e+01	-1.432552e-04
2.902227e+01	-1.449148e-04
2.918990e+01	-1.465936e-04
2.935850e+01	-1.482919e-04
2.952807e+01	-1.500099e-04
2.969863e+01	-1.517478e-04
2.987016e+01	-1.535058e-04
3.004269e+01	-1.552842e-04
3.021622e+01	-1.570832e-04
3.039075e+01	-1.589030e-04
3.056628e+01	-1.607439e-04
3.074283e+01	-1.626061e-04
3.092040e+01	-1.644899e-04
3.109900e+01	-1.663955e-04
3.127862e+01	-1.683232e-04
3.145929e+01	-1.702733e-04
3.164099e+01	-1.722459e-04
3.182375e+01	-1.742414e-04
3.200756e+01	-1.762600e-04
3.219244e+01	-1.783019e-04
3.237838e+01	-1.803676e-04
3.256540e+01	-1.824571e-04
3.275349e+01	-1.845709e-04
3.294268e+01	-1.867092e-04
3.313295e+01	-1.888722e-04
3.332433e+01	-1.910603e-04
3.351681e+01	-1.932737e-04
3.371040e+01	-1.955128e-04
3.390511e+01	-1.977778e-04
3.410094e+01	-2.000691e-04
3.429791e+01	-2.023869e-04
3.449601e+01	-2.047315e-04
3.469526e+01	-2.071034e-04
3.489566e+01	-2.095027e-04
3.509721e+01	-2.119297e-04
3.529993e+01	-2.143849e-04
3.550382e+01	-2.168686e-04
3.570889e+01	-2.193810e-04
3.591515e+01	-2.219225e-04
3.612259e+01	-2.244935e-04
3.633123e+01	-2.270943e-04
3.654108e+01	-2.297251e-04
3.675214e+01	-2.323865e-04
3.696442e+01	-2.350787e-04
3.717792e+01	-2.378021e-04
3.739266e+01	-2.405570e-04
3.760864e+01	-2.433438e-04
3.782587e+01	-2.461630e-04
3.804435e+01	-2.490147e-04
3.826409e+01	-2.518996e-04
3.848510e+01	-2.548178e-04
3.870739e+01	-2.577699e-04
3.893096e+01	-2.607561e-04
3.915583e+01	-2.637769e-04
3.938199e+01	-2.668328e-04
3.960946e+01	-2.699240e-04
3.983824e+01	-2.730511e-04
4.006834e+01	-2.762143e-04
4.029978e+01	-2.794142e-04
4.053255e+01	-2.826512e-04
4.076666e+01	-2.859257e-04
4.100213e+01	-2.892381e-04
4.123896e+01	-2.925889e-04
4.147715e+01	-2.959785e-04
4.171672e+01	-2.994074e-04
4.195767e+01	-3.028760e-04
4.220002e+01	-3.063848e-04
4.244377e+01	-3.099342e-04
4.268892e+01	-3.135248e-04
4.293549e+01	-3.171569e-04
4.318348e+01	-3.208311e-04
4.343291e+01	-3.245479e-04
4.368377e+01	-3.283077e-04
4.393609e+01	-3.321111e-04
4.418986e+01	-3.359586e-04
4.444510e+01	-3.398506e-04
4.470182e+01	-3.437877e-04
4.496001e+01	-3.477704e-04
4.521970e+01	-3.517993e-04
4.548089e+01	-3.558748e-04
4.574358e+01	-3.599975e-04
4.600779e+01	-3.641680e-04
4.627353e+01	-3.683868e-04
4.654081e+01	-3.726545e-04
4.680963e+01	-3.769716e-04
4.708000e+01	-3.813388e-04
4.735193e+01	-3.857565e-04
4.762543e+01	-3.902254e-04
4.790051e+01	-3.947460e-04
4.817719e+01	-3.993191e-04
4.845545e+01	-4.039451e-04
4.873533e+01	-4.086247e-04
4.901682e+01	-4.133585e-04
4.929994e+01	-4.181471e-04
4.958470e+01	-4.229912e-04
4.987110e+01	-4.278915e-04
5.015915e+01	-4.328485e-04
5.044887e+01	-4.378629e-04
5.074026e+01	-4.429354e-04
5.103333e+01	-4.480666e-04
5.132810e+01	-4.532573e-04
5.162457e+01	-4.585082e-04
5.192275e+01	-4.638198e-04
5.222265e+01	-4.691930e-04
5.252429e+01	-4.746285e-04
5.282767e+01	-4.801269e-04
5.313280e+01	-4.856889e-04
5.343969e+01	-4.913155e-04
5.374836e+01	-4.970072e-04
5.405880e+01	-5.027648e-04
5.437105e+01	-5.085891e-04
5.468509e+01	-5.144809e-04
5.500095e+01	-5.204410e-04
5.531863e+01	-5.264701e-04
5.563815e+01	-5.325690e-04
5.595951e+01	-5.387386e-04
5.628273e+01	-5.449796e-04
5.660782e+01	-5.512929e-04
5.693479e+01	-5.576794e-04
5.726364e+01	-5.641399e-04
5.759439e+01	-5.706752e-04
5.792705e+01	-5.772861e-04
5.826164e+01	-5.839737e-04
5.859815e+01	-5.907387e-04
5.893662e+01	-5.975821e-04
5.927703e+01	-6.045048e-04
5.961941e+01	-6.115077e-04
5.996377e+01	-6.185917e-04
6.031012e+01	-6.257577e-04
6.065847e+01	-6.330067e-04
6.100883e+01	-6.403398e-04
6.136121e+01	-6.477577e-04
6.171563e+01	-6.552616e-04
6.207210e+01	-6.628524e-04
6.243063e+01	-6.705311e-04
6.279122e+01	-6.782988e-04
6.315390e+01	-6.861565e-04
6.351868e+01	-6.941052e-04
6.388556e+01	-7.021459e-04
6.425456e+01	-7.102798e-04
6.462569e+01	-7.185079e-04
6.499897e+01	-7.268313e-04
6.537440e+01	-7.352511e-04
6.575200e+01	-7.437685e-04
6.613178e+01	-7.523845e-04
6.651375e+01	-7.611003e-04
6.689793e+01	-7.699171e-04
6.728433e+01	-7.788360e-04
6.767297e+01	-7.878582e-04
6.806384e+01	-7.969849e-04
6.845698e+01	-8.062174e-04
6.885238e+01	-8.155567e-04
6.925007e+01	-8.250043e-04
6.965005e+01	-8.345613e-04
7.005235e+01	-8.442290e-04
7.045697e+01	-8.540086e-04
7.086393e+01	-8.639016e-04
7.127323e+01	-8.739091e-04
7.168490e+01	-8.840325e-04
7.209895e+01	-8.942732e-04
7.251539e+01	-9.046326e-04
7.293424e+01	-9.151119e-04
7.335551e+01	-9.257126e-04
7.377920e+01	-9.364360e-04
7.420535e+01	-9.472837e-04
7.463396e+01	-9.582570e-04
7.506504e+01	-9.693575e-04
7.549861e+01	-9.805865e-04
7.593469e+01	-9.919455e-04
7.637328e+01	-1.003436e-03
7.681441e+01	-1.015060e-03
7.725809e+01	-1.026818e-03
7.770433e+01	-1.038713e-03
7.815315e+01	-1.050745e-03
7.860456e+01	-1.062917e-03
7.905857e+01	-1.075229e-03
7.951521e+01	-1.087685e-03
7.997449e+01	-1.100284e-03
8.043642e+01	-1.113030e-03
8.090102e+01	-1.125923e-03
8.136830e+01	-1.138965e-03
8.183828e+01	-1.152159e-03
8.231097e+01	-1.165505e-03
8.278640e+01	-1.179006e-03
8.326457e+01	-1.192663e-03
8.374550e+01	-1.206478e-03
8.422921e+01	-1.220454e-03
8.471572e+01	-1.234591e-03
8.520503e+01	-1.248892e-03
8.569717e+01	-1.263359e-03
8.619215e+01	-1.277993e-03
8.669000e+01	-1.292797e-03
8.719071e+01	-1.307772e-03
8.769432e+01	-1.322920e-03
8.820084e+01	-1.338244e-03
8.871029e+01	-1.353746e-03
8.922267e+01	-1.369427e-03
8.973802e+01	-1.385290e-03
9.025634e+01	-1.401336e-03
9.077766e+01	-1.417568e-03
9.130199e+01	-1.433988e-03
9.182935e+01	-1.450599e-03
9.235975e+01	-1.467401e-03
9.289321e+01	-1.484399e-03
9.342976e+01	-1.501593e-03
9.396941e+01	-1.518986e-03
9.451217e+01	-1.536581e-03
9.505807e+01	-1.554380e-03
9.560712e+01	-1.572384e-03
9.615934e+01	-1.590597e-03
9.671476e+01	-1.609021e-03
9.727338e+01	-1.627659e-03
9.783522e+01	-1.646512e-03
9.840032e+01	-1.665584e-03
9.896867e+01	-1.684876e-03
9.954031e+01	-1.704392e-03
1.001153e+02	-1.724134e-03
1.006935e+02	-1.744105e-03
1.012751e+02	-1.764306e-03
1.018601e+02	-1.784742e-03
1.024484e+02	-1.805415e-03
1.030402e+02	-1.826326e-03
1.036353e+02	-1.847480e-03
1.042339e+02	-1.868879e-03
1.048360e+02	-1.890526e-03
1.054415e+02	-1.912424e-03
1.060505e+02	-1.934575e-03
1.066631e+02	-1.956982e-03
1.072791e+02	-1.979649e-03
1.078988e+02	-2.002579e-03
1.085220e+02	-2.025774e-03
1.091488e+02	-2.049237e-03
1.097793e+02	-2.072972e-03
1.104133e+02	-2.096983e-03
1.110511e+02	-2.121271e-03
1.116925e+02	-2.145840e-03
1.123376e+02	-2.170694e-03
1.129865e+02	-2.195836e-03
1.136391e+02	-2.221269e-03
1.142955e+02	-2.246996e-03
1.149556e+02	-2.273021e-03
1.156196e+02	-2.299348e-03
1.162874e+02	-2.325979e-03
1.169591e+02	-2.352919e-03
1.176347e+02	-2.380171e-03
1.183141e+02	-2.407738e-03
1.189975e+02	-2.435624e-03
1.196848e+02	-2.463834e-03
1.203761e+02	-2.492370e-03
1.210714e+02	-2.521236e-03
1.217707e+02	-2.550437e-03
1.224740e+02	-2.579975e-03
1.231814e+02	-2.609856e-03
1.238929e+02	-2.640083e-03
1.246085e+02	-2.670659e-03
1.253283e+02	-2.701590e-03
1.260522e+02	-2.732879e-03
1.267802e+02	-2.764530e-03
1.275125e+02	-2.796547e-03
1.282490e+02	-2.828935e-03
1.289898e+02	-2.861698e-03
1.297348e+02	-2.894841e-03
1.304842e+02	-2.928367e-03
1.312378e+02	-2.962281e-03
1.319959e+02	-2.996588e-03
1.327583e+02	-3.031292e-03
1.335251e+02	-3.066398e-03
1.342963e+02	-3.101911e-03
1.350720e+02	-3.137834e-03
1.358522e+02	-3.174173e-03
1.366368e+02	-3.210933e-03
1.374260e+02	-3.248119e-03
1.382198e+02	-3.285735e-03
1.390182e+02	-3.323787e-03
1.398211e+02	-3.362279e-03
1.406287e+02	-3.401216e-03
1.414410e+02	-3.440605e-03
1.422579e+02	-3.480449e-03
1.430796e+02	-3.520754e-03
1.439060e+02	-3.561527e-03
1.447372e+02	-3.602771e-03
1.455732e+02	-3.644492e-03
1.464141e+02	-3.686697e-03
1.472597e+02	-3.729389e-03
1.481103e+02	-3.772577e-03
1.489658e+02	-3.816264e-03
1.498262e+02	-3.860456e-03
1.506916e+02	-3.905161e-03
1.515620e+02	-3.950382e-03
1.524374e+02	-3.996127e-03
1.533179e+02	-4.042402e-03
1.542034e+02	-4.089212e-03
1.550941e+02	-4.136564e-03
1.559899e+02	-4.184464e-03
1.568909e+02	-4.232919e-03
1.577971e+02	-4.281934e-03
1.587085e+02	-4.331516e-03
1.596252e+02	-4.381673e-03
1.605472e+02	-4.432410e-03
1.614745e+02	-4.483734e-03
1.624072e+02	-4.535652e-03
1.633453e+02	-4.588171e-03
1.642887e+02	-4.641297e-03
1.652377e+02	-4.695039e-03
1.661921e+02	-4.749402e-03
1.671520e+02	-4.804395e-03
1.681175e+02	-4.860024e-03
1.690885e+02	-4.916296e-03
1.700651e+02	-4.973220e-03
1.710474e+02	-5.030803e-03
1.720354e+02	-5.089052e-03
1.730291e+02	-5.147975e-03
1.740285e+02	-5.207579e-03
1.750337e+02	-5.267874e-03
1.760446e+02	-5.328866e-03
1.770615e+02	-5.390564e-03
1.780842e+02	-5.452976e-03
1.791128e+02	-5.516109e-03
1.801473e+02	-5.579974e-03
1.811878e+02	-5.644577e-03
1.822344e+02	-5.709928e-03
1.832870e+02	-5.776035e-03
1.843456e+02	-5.842907e-03
1.854104e+02	-5.910552e-03
1.864813e+02	-5.978980e-03
1.875584e+02	-6.048200e-03
1.886418e+02	-6.118220e-03
1.897313e+02	-6.189050e-03
1.908272e+02	-6.260700e-03
1.919294e+02	-6.333179e-03
1.930380e+02	-6.406496e-03
1.941530e+02	-6.480662e-03
1.952744e+02	-6.555685e-03
1.964023e+02	-6.631576e-03
1.975367e+02	-6.708345e-03
1.986777e+02	-6.786002e-03
1.998252e+02	-6.864557e-03
2.009794e+02	-6.944021e-03
2.021403e+02	-7.024404e-03
2.033078e+02	-7.105717e-03
2.044821e+02	-7.187970e-03
2.056632e+02	-7.271175e-03
2.068511e+02	-7.355342e-03
2.080459e+02	-7.440482e-03
2.092475e+02	-7.526607e-03
2.104561e+02	-7.613728e-03
2.116717e+02	-7.701856e-03
2.128943e+02	-7.791004e-03
2.141240e+02	-7.881183e-03
2.153608e+02	-7.972404e-03
2.166047e+02	-8.064680e-03
2.178558e+02	-8.158024e-03
2.191141e+02	-8.252447e-03
2.203797e+02	-8.347961e-03
2.216526e+02	-8.444580e-03
2.229329e+02	-8.542316e-03
2.242205e+02	-8.641182e-03
2.255156e+02	-8.741191e-03
2.268182e+02	-8.842357e-03
2.281283e+02	-8.944692e-03
2.294459e+02	-9.048210e-03
2.307712e+02	-9.152925e-03
2.321041e+02	-9.258851e-03
2.334447e+02	-9.366001e-03
2.347931e+02	-9.474390e-03
2.361493e+02	-9.584031e-03
2.375133e+02	-9.694940e-03
2.388851e+02	-9.807131e-03
2.402649e+02	-9.920619e-03
2.416527e+02	-1.003542e-02
2.430484e+02	-1.015155e-02
2.444523e+02	-1.026901e-02
2.458642e+02	-1.038784e-02
2.472843e+02	-1.050804e-02
2.487126e+02	-1.062963e-02
2.501492e+02	-1.075262e-02
2.515940e+02	-1.087704e-02
2.530472e+02	-1.100289e-02
2.545088e+02	-1.113020e-02
2.559789e+02	-1.125898e-02
2.574574e+02	-1.138924e-02
2.589444e+02	-1.152102e-02
2.604401e+02	-1.165431e-02
2.619444e+02	-1.178914e-02
2.634574e+02	-1.192554e-02
2.649791e+02	-1.206350e-02
2.665096e+02	-1.220307e-02
2.680489e+02	-1.234424e-02
2.695972e+02	-1.248704e-02
2.711544e+02	-1.263150e-02
2.727205e+02	-1.277762e-02
2.742958e+02	-1.292543e-02
2.758801e+02	-1.307495e-02
2.774736e+02	-1.322620e-02
2.790762e+02	-1.337919e-02
2.806882e+02	-1.353395e-02
2.823094e+02	-1.369049e-02
2.839400e+02	-1.384885e-02
2.855800e+02	-1.400903e-02
2.872295e+02	-1.417106e-02
2.888886e+02	-1.433496e-02
2.905572e+02	-1.450076e-02
2.922354e+02	-1.466847e-02
2.939234e+02	-1.483812e-02
2.956211e+02	-1.500972e-02
2.973286e+02	-1.518331e-02
2.990459e+02	-1.535890e-02
3.007732e+02	-1.553652e-02
3.025104e+02	-1.571618e-02
3.042577e+02	-1.589793e-02
3.060151e+02	-1.608176e-02
3.077826e+02	-1.626773e-02
3.095604e+02	-1.645583e-02
3.113484e+02	-1.664611e-02
3.131467e+02	-1.683859e-02
3.149554e+02	-1.703328e-02
3.167746e+02	-1.723022e-02
3.186043e+02	-1.742944e-02
3.204445e+02	-1.763095e-02
3.222954e+02	-1.783479e-02
3.241570e+02	-1.804098e-02
3.260293e+02	-1.824955e-02
3.279124e+02	-1.846052e-02
3.298064e+02	-1.867393e-02
3.317114e+02	-1.888980e-02
3.336273e+02	-1.910816e-02
3.355544e+02	-1.932904e-02
3.374925e+02	-1.955246e-02
3.394418e+02	-1.977847e-02
3.414024e+02	-2.000708e-02
3.433744e+02	-2.023832e-02
3.453577e+02	-2.047223e-02
3.473525e+02	-2.070884e-02
3.493588e+02	-2.094818e-02
3.513766e+02	-2.119027e-02
3.534062e+02	-2.143516e-02
3.554474e+02	-2.168287e-02
3.575005e+02	-2.193343e-02
3.595654e+02	-2.218689e-02
3.616422e+02	-2.244326e-02
3.637311e+02	-2.270259e-02
3.658320e+02	-2.296491e-02
3.679450e+02	-2.323025e-02
3.700702e+02	-2.349864e-02
3.722077e+02	-2.377013e-02
3.743576e+02	-2.404475e-02
3.765199e+02	-2.432253e-02
3.786946e+02	-2.460352e-02
3.808820e+02	-2.488773e-02
3.830819e+02	-2.517523e-02
3.852946e+02	-2.546603e-02
3.875200e+02	-2.576018e-02
3.897583e+02	-2.605772e-02
3.920096e+02	-2.635869e-02
3.942738e+02	-2.666312e-02
3.965511e+02	-2.697106e-02
3.988416e+02	-2.728254e-02
4.011452e+02	-2.759761e-02
4.034622e+02	-2.791630e-02
4.057926e+02	-2.823866e-02
4.081365e+02	-2.856474e-02
4.104938e+02	-2.889456e-02
4.128648e+02	-2.922818e-02
4.152495e+02	-2.956564e-02
4.176480e+02	-2.990698e-02
4.200603e+02	-3.025225e-02
4.224866e+02	-3.060149e-02
4.249268e+02	-3.095475e-02
4.273812e+02	-3.131207e-02
4.298497e+02	-3.167351e-02
4.323325e+02	-3.203909e-02
4.348297e+02	-3.240888e-02
4.373412e+02	-3.278293e-02
4.398673e+02	-3.316127e-02
4.424079e+02	-3.354397e-02
4.449633e+02	-3.393106e-02
4.475334e+02	-3.432260e-02
4.501183e+02	-3.471864e-02
4.527182e+02	-3.511924e-02
4.553330e+02	-3.552443e-02
4.579630e+02	-3.593428e-02
4.606082e+02	-3.634884e-02
4.632687e+02	-3.676817e-02
4.659445e+02	-3.719231e-02
4.686358e+02	-3.762132e-02
4.713426e+02	-3.805526e-02
4.740650e+02	-3.849418e-02
4.768032e+02	-3.893814e-02
4.795572e+02	-3.938719e-02
4.823271e+02	-3.984140e-02
4.851130e+02	-4.030083e-02
4.879150e+02	-4.076553e-02
4.907332e+02	-4.123556e-02
4.935676e+02	-4.171098e-02
4.964185e+02	-4.219186e-02
4.992858e+02	-4.267826e-02
5.021696e+02	-4.317023e-02
5.050701e+02	-4.366785e-02
5.079874e+02	-4.417118e-02
5.109215e+02	-4.468027e-02
5.138726e+02	-4.519520e-02
5.168407e+02	-4.571604e-02
5.198259e+02	-4.624285e-02
5.228284e+02	-4.677569e-02
5.258482e+02	-4.731464e-02
5.288855e+02	-4.785977e-02
5.319403e+02	-4.841114e-02
5.350128e+02	-4.896882e-02
5.381030e+02	-4.953290e-02
5.412111e+02	-5.010343e-02
5.443371e+02	-5.068050e-02
5.474812e+02	-5.126417e-02
5.506434e+02	-5.185453e-02
5.538239e+02	-5.245164e-02
5.570228e+02	-5.305559e-02
5.602401e+02	-5.366645e-02
5.634760e+02	-5.428430e-02
5.667306e+02	-5.490921e-02
5.700040e+02	-5.554127e-02
5.732964e+02	-5.618056e-02
5.766077e+02	-5.682717e-02
5.799382e+02	-5.748116e-02
5.832879e+02	-5.814263e-02
5.866569e+02	-5.881166e-02
5.900454e+02	-5.948833e-02
5.934535e+02	-6.017274e-02
5.968813e+02	-6.086497e-02
6.003288e+02	-6.156510e-02
6.037963e+02	-6.227323e-02
6.072838e+02	-6.298944e-02
6.107914e+02	-6.371383e-02
6.143194e+02	-6.444649e-02
6.178676e+02	-6.518751e-02
6.214364e+02	-6.593699e-02
6.250258e+02	-6.669501e-02
6.286359e+02	-6.746168e-02
6.322669e+02	-6.823710e-02
6.359189e+02	-6.902136e-02
6.395919e+02	-6.981456e-02
6.432862e+02	-7.061680e-02
6.470017e+02	-7.142818e-02
6.507388e+02	-7.224881e-02
6.544974e+02	-7.307878e-02
6.582778e+02	-7.391821e-02
6.620800e+02	-7.476720e-02
6.659041e+02	-7.562585e-02
6.697504e+02	-7.649428e-02
6.736188e+02	-7.737259e-02
6.775096e+02	-7.826090e-02
6.814229e+02	-7.915931e-02
6.853587e+02	-8.006794e-02
6.893173e+02	-8.098690e-02
6.932988e+02	-8.191630e-02
6.973033e+02	-8.285627e-02
7.013309e+02	-8.380693e-02
