Frequency(Hz)	Magnitude(dB)
1.000000e+01	-2.214375e+00
1.005776e+01	-2.234422e+00
1.011585e+01	-2.254768e+00
1.017428e+01	-2.274978e+00
1.023305e+01	-2.295613e+00
1.029215e+01	-2.316290e+00
1.035160e+01	-2.337021e+00
1.041139e+01	-2.357851e+00
1.047153e+01	-2.378740e+00
1.053201e+01	-2.399976e+00
1.059284e+01	-2.421118e+00
1.065403e+01	-2.442705e+00
1.071556e+01	-2.464425e+00
1.077746e+01	-2.486009e+00
1.083971e+01	-2.507940e+00
1.090232e+01	-2.529825e+00
1.096529e+01	-2.551823e+00
1.102862e+01	-2.574355e+00
1.109232e+01	-2.596860e+00
1.115639e+01	-2.619271e+00
1.122083e+01	-2.642062e+00
1.128564e+01	-2.664890e+00
1.135083e+01	-2.688258e+00
1.141639e+01	-2.711111e+00
1.148233e+01	-2.734469e+00
1.154865e+01	-2.758111e+00
1.161536e+01	-2.781513e+00
1.168245e+01	-2.805070e+00
1.174992e+01	-2.829068e+00
1.181779e+01	-2.853337e+00
1.188605e+01	-2.877525e+00
1.195470e+01	-2.901614e+00
1.202375e+01	-2.926168e+00
1.209320e+01	-2.950610e+00
1.216305e+01	-2.975334e+00
1.223330e+01	-3.000194e+00
1.230396e+01	-3.025271e+00
1.237503e+01	-3.050774e+00
1.244651e+01	-3.076021e+00
1.251840e+01	-3.101234e+00
1.259070e+01	-3.126828e+00
1.266343e+01	-3.152558e+00
1.273657e+01	-3.178248e+00
1.281014e+01	-3.204264e+00
1.288413e+01	-3.230705e+00
1.295855e+01	-3.257090e+00
1.303339e+01	-3.283556e+00
1.310867e+01	-3.310200e+00
1.318439e+01	-3.336878e+00
1.326054e+01	-3.363559e+00
1.333713e+01	-3.390948e+00
1.341417e+01	-3.417747e+00
1.349165e+01	-3.445523e+00
1.356958e+01	-3.472858e+00
1.364795e+01	-3.500209e+00
1.372678e+01	-3.528091e+00
1.380607e+01	-3.555937e+00
1.388581e+01	-3.583967e+00
1.396602e+01	-3.612300e+00
1.404668e+01	-3.640704e+00
1.412782e+01	-3.668849e+00
1.420942e+01	-3.697425e+00
1.429149e+01	-3.726474e+00
1.437404e+01	-3.755245e+00
1.445706e+01	-3.784185e+00
1.454057e+01	-3.813278e+00
1.462455e+01	-3.842551e+00
1.470902e+01	-3.872162e+00
1.479398e+01	-3.901827e+00
1.487943e+01	-3.931213e+00
1.496537e+01	-3.961191e+00
1.505181e+01	-3.991061e+00
1.513875e+01	-4.021317e+00
1.522619e+01	-4.051653e+00
1.531414e+01	-4.082360e+00
1.540259e+01	-4.112795e+00
1.549156e+01	-4.143464e+00
1.558103e+01	-4.174232e+00
1.567103e+01	-4.205301e+00
1.576155e+01	-4.236068e+00
1.585258e+01	-4.267496e+00
1.594415e+01	-4.298770e+00
1.603624e+01	-4.330407e+00
1.612886e+01	-4.362170e+00
1.622202e+01	-4.393844e+00
1.631572e+01	-4.425859e+00
1.640996e+01	-4.457704e+00
1.650474e+01	-4.490067e+00
1.660008e+01	-4.522385e+00
1.669596e+01	-4.554690e+00
1.679239e+01	-4.587148e+00
1.688938e+01	-4.619721e+00
1.698694e+01	-4.652641e+00
1.708505e+01	-4.685590e+00
1.718373e+01	-4.718472e+00
1.728299e+01	-4.752264e+00
1.738281e+01	-4.785519e+00
1.748322e+01	-4.818885e+00
1.758420e+01	-4.852177e+00
1.768576e+01	-4.886059e+00
1.778792e+01	-4.919722e+00
1.789066e+01	-4.953901e+00
1.799399e+01	-4.987987e+00
1.809793e+01	-5.022293e+00
1.820246e+01	-5.056648e+00
1.830760e+01	-5.090933e+00
1.841334e+01	-5.125863e+00
1.851969e+01	-5.160302e+00
1.862666e+01	-5.194920e+00
1.873425e+01	-5.230090e+00
1.884246e+01	-5.265300e+00
1.895129e+01	-5.300448e+00
1.906075e+01	-5.335940e+00
1.917085e+01	-5.371306e+00
1.928158e+01	-5.406513e+00
1.939295e+01	-5.442470e+00
1.950496e+01	-5.478037e+00
1.961762e+01	-5.514399e+00
1.973093e+01	-5.550335e+00
1.984490e+01	-5.586335e+00
1.995952e+01	-5.622535e+00
2.007480e+01	-5.659013e+00
2.019076e+01	-5.695545e+00
2.030738e+01	-5.732411e+00
2.042467e+01	-5.768928e+00
2.054264e+01	-5.806149e+00
2.066130e+01	-5.842658e+00
2.078064e+01	-5.879756e+00
2.090066e+01	-5.916530e+00
2.102139e+01	-5.953986e+00
2.114280e+01	-5.991355e+00
2.126492e+01	-6.028865e+00
2.138775e+01	-6.066481e+00
2.151128e+01	-6.103986e+00
2.163553e+01	-6.142326e+00
2.176050e+01	-6.180057e+00
2.188619e+01	-6.217792e+00
2.201260e+01	-6.256047e+00
2.213974e+01	-6.294352e+00
2.226762e+01	-6.332622e+00
2.239624e+01	-6.371095e+00
2.252560e+01	-6.409640e+00
2.265571e+01	-6.448295e+00
2.278656e+01	-6.486881e+00
2.291818e+01	-6.525874e+00
2.305055e+01	-6.564767e+00
2.318369e+01	-6.604228e+00
2.331760e+01	-6.642775e+00
2.345228e+01	-6.682232e+00
2.358774e+01	-6.721524e+00
2.372398e+01	-6.760935e+00
2.386101e+01	-6.800441e+00
2.399883e+01	-6.839975e+00
2.413745e+01	-6.879372e+00
2.427686e+01	-6.919596e+00
2.441709e+01	-6.959705e+00
2.455812e+01	-6.999781e+00
2.469997e+01	-7.039645e+00
2.484263e+01	-7.079715e+00
2.498612e+01	-7.120053e+00
2.513044e+01	-7.160648e+00
2.527559e+01	-7.200528e+00
2.542158e+01	-7.241152e+00
2.556842e+01	-7.282333e+00
2.571610e+01	-7.322801e+00
2.586463e+01	-7.363583e+00
2.601403e+01	-7.404568e+00
2.616428e+01	-7.445650e+00
2.631541e+01	-7.486630e+00
2.646740e+01	-7.528012e+00
2.662028e+01	-7.568713e+00
2.677404e+01	-7.610090e+00
2.692868e+01	-7.651631e+00
2.708422e+01	-7.693250e+00
2.724066e+01	-7.734875e+00
2.739800e+01	-7.776432e+00
2.755625e+01	-7.817833e+00
2.771541e+01	-7.859741e+00
2.787550e+01	-7.902087e+00
2.803650e+01	-7.943661e+00
2.819844e+01	-7.985510e+00
2.836131e+01	-8.027805e+00
2.852513e+01	-8.070013e+00
2.868989e+01	-8.112252e+00
2.885560e+01	-8.154127e+00
2.902227e+01	-8.196825e+00
2.918990e+01	-8.239625e+00
2.935850e+01	-8.281338e+00
2.952807e+01	-8.324876e+00
2.969863e+01	-8.367031e+00
2.987016e+01	-8.409941e+00
3.004269e+01	-8.453320e+00
3.021622e+01	-8.495787e+00
3.039075e+01	-8.538613e+00
3.056628e+01	-8.581731e+00
3.074283e+01	-8.625198e+00
3.092040e+01	-8.668213e+00
3.109900e+01	-8.711709e+00
3.127862e+01	-8.754877e+00
3.145929e+01	-8.798318e+00
3.164099e+01	-8.841680e+00
3.182375e+01	-8.885297e+00
3.200756e+01	-8.928746e+00
3.219244e+01	-8.972816e+00
3.237838e+01	-9.016443e+00
3.256540e+01	-9.059644e+00
3.275349e+01	-9.104209e+00
3.294268e+01	-9.147828e+00
3.313295e+01	-9.191338e+00
3.332433e+01	-9.235914e+00
3.351681e+01	-9.279744e+00
3.371040e+01	-9.323597e+00
3.390511e+01	-9.368035e+00
3.410094e+01	-9.412232e+00
3.429791e+01	-9.456821e+00
3.449601e+01	-9.500801e+00
3.469526e+01	-9.546006e+00
3.489566e+01	-9.589861e+00
3.509721e+01	-9.633974e+00
3.529993e+01	-9.679147e+00
3.550382e+01	-9.724114e+00
3.570889e+01	-9.768712e+00
3.591515e+01	-9.813426e+00
3.612259e+01	-9.858309e+00
3.633123e+01	-9.903107e+00
3.654108e+01	-9.947556e+00
3.675214e+01	-9.992970e+00
3.696442e+01	-1.003804e+01
3.717792e+01	-1.008329e+01
3.739266e+01	-1.012852e+01
3.760864e+01	-1.017314e+01
3.782587e+01	-1.021875e+01
3.804435e+01	-1.026396e+01
3.826409e+01	-1.030963e+01
3.848510e+01	-1.035467e+01
3.870739e+01	-1.040031e+01
3.893096e+01	-1.044584e+01
3.915583e+01	-1.049081e+01
3.938199e+01	-1.053643e+01
3.960946e+01	-1.058244e+01
3.983824e+01	-1.062781e+01
4.006834e+01	-1.067371e+01
4.029978e+01	-1.071942e+01
4.053255e+01	-1.076507e+01
4.076666e+01	-1.081139e+01
4.100213e+01	-1.085738e+01
4.123896e+01	-1.090300e+01
4.147715e+01	-1.094908e+01
4.171672e+01	-1.099472e+01
4.195767e+01	-1.104166e+01
4.220002e+01	-1.108704e+01
4.244377e+01	-1.113361e+01
4.268892e+01	-1.118029e+01
4.293549e+01	-1.122633e+01
4.318348e+01	-1.127217e+01
4.343291e+01	-1.131809e+01
4.368377e+01	-1.136513e+01
4.393609e+01	-1.141160e+01
4.418986e+01	-1.145790e+01
4.444510e+01	-1.150438e+01
4.470182e+01	-1.155043e+01
4.496001e+01	-1.159716e+01
4.521970e+01	-1.164423e+01
4.548089e+01	-1.168978e+01
4.574358e+01	-1.173716e+01
4.600779e+01	-1.178356e+01
4.627353e+01	-1.183060e+01
4.654081e+01	-1.187749e+01
4.680963e+01	-1.192387e+01
4.708000e+01	-1.197095e+01
4.735193e+01	-1.201831e+01
4.762543e+01	-1.206459e+01
4.790051e+01	-1.211129e+01
4.817719e+01	-1.215938e+01
4.845545e+01	-1.220588e+01
4.873533e+01	-1.225220e+01
4.901682e+01	-1.229971e+01
4.929994e+01	-1.234610e+01
4.958470e+01	-1.239411e+01
4.987110e+01	-1.244053e+01
5.015915e+01	-1.248740e+01
5.044887e+01	-1.253520e+01
5.074026e+01	-1.258288e+01
5.103333e+01	-1.262974e+01
5.132810e+01	-1.267728e+01
5.162457e+01	-1.272414e+01
5.192275e+01	-1.277182e+01
5.222265e+01	-1.281932e+01
5.252429e+01	-1.286713e+01
5.282767e+01	-1.291452e+01
5.313280e+01	-1.296197e+01
5.343969e+01	-1.300953e+01
5.374836e+01	-1.305668e+01
5.405880e+01	-1.310425e+01
5.437105e+01	-1.315197e+01
5.468509e+01	-1.319948e+01
5.500095e+01	-1.324838e+01
5.531863e+01	-1.329497e+01
5.563815e+01	-1.334233e+01
5.595951e+01	-1.339104e+01
5.628273e+01	-1.343893e+01
5.660782e+01	-1.348621e+01
5.693479e+01	-1.353347e+01
5.726364e+01	-1.358182e+01
5.759439e+01	-1.362929e+01
5.792705e+01	-1.367660e+01
5.826164e+01	-1.372427e+01
5.859815e+01	-1.377226e+01
5.893662e+01	-1.382038e+01
5.927703e+01	-1.386748e+01
5.961941e+01	-1.391676e+01
5.996377e+01	-1.396509e+01
6.031012e+01	-1.401235e+01
6.065847e+01	-1.406058e+01
6.100883e+01	-1.410841e+01
6.136121e+01	-1.415714e+01
6.171563e+01	-1.420573e+01
6.207210e+01	-1.425343e+01
6.243063e+01	-1.430195e+01
6.279122e+01	-1.434982e+01
6.315390e+01	-1.439763e+01
6.351868e+01	-1.444578e+01
6.388556e+01	-1.449436e+01
6.425456e+01	-1.454216e+01
6.462569e+01	-1.458998e+01
6.499897e+01	-1.463939e+01
6.537440e+01	-1.468754e+01
6.575200e+01	-1.473596e+01
6.613178e+01	-1.478356e+01
6.651375e+01	-1.483199e+01
6.689793e+01	-1.488010e+01
6.728433e+01	-1.492926e+01
6.767297e+01	-1.497768e+01
6.806384e+01	-1.502690e+01
6.845698e+01	-1.507532e+01
6.885238e+01	-1.512303e+01
6.925007e+01	-1.517164e+01
6.965005e+01	-1.521991e+01
7.005235e+01	-1.526797e+01
7.045697e+01	-1.531709e+01
7.086393e+01	-1.536554e+01
7.127323e+01	-1.541417e+01
7.168490e+01	-1.546309e+01
7.209895e+01	-1.551223e+01
7.251539e+01	-1.556015e+01
7.293424e+01	-1.560860e+01
7.335551e+01	-1.565848e+01
7.377920e+01	-1.570657e+01
7.420535e+01	-1.575438e+01
7.463396e+01	-1.580283e+01
7.506504e+01	-1.585310e+01
7.549861e+01	-1.590101e+01
7.593469e+01	-1.595026e+01
7.637328e+01	-1.599901e+01
7.681441e+01	-1.604747e+01
7.725809e+01	-1.609659e+01
7.770433e+01	-1.614583e+01
7.815315e+01	-1.619387e+01
7.860456e+01	-1.624290e+01
7.905857e+01	-1.629078e+01
7.951521e+01	-1.634009e+01
7.997449e+01	-1.639026e+01
8.043642e+01	-1.643812e+01
8.090102e+01	-1.648709e+01
8.136830e+01	-1.653754e+01
8.183828e+01	-1.658487e+01
8.231097e+01	-1.663464e+01
8.278640e+01	-1.668360e+01
8.326457e+01	-1.673152e+01
8.374550e+01	-1.678189e+01
8.422921e+01	-1.683087e+01
8.471572e+01	-1.687835e+01
8.520503e+01	-1.692857e+01
8.569717e+01	-1.697630e+01
8.619215e+01	-1.702648e+01
8.669000e+01	-1.707484e+01
8.719071e+01	-1.712408e+01
8.769432e+01	-1.717294e+01
8.820084e+01	-1.722175e+01
8.871029e+01	-1.727202e+01
8.922267e+01	-1.732053e+01
8.973802e+01	-1.736837e+01
9.025634e+01	-1.741758e+01
9.077766e+01	-1.746659e+01
9.130199e+01	-1.751617e+01
9.182935e+01	-1.756664e+01
9.235975e+01	-1.761555e+01
9.289321e+01	-1.766490e+01
9.342976e+01	-1.771336e+01
9.396941e+01	-1.776331e+01
9.451217e+01	-1.781188e+01
9.505807e+01	-1.786171e+01
9.560712e+01	-1.791088e+01
9.615934e+01	-1.795989e+01
9.671476e+01	-1.800886e+01
9.727338e+01	-1.805841e+01
9.783522e+01	-1.810684e+01
9.840032e+01	-1.815639e+01
9.896867e+01	-1.820517e+01
9.954031e+01	-1.825483e+01
1.001153e+02	-1.830498e+01
1.006935e+02	-1.835392e+01
1.012751e+02	-1.840248e+01
1.018601e+02	-1.845295e+01
1.024484e+02	-1.850185e+01
1.030402e+02	-1.855136e+01
1.036353e+02	-1.860007e+01
1.042339e+02	-1.865015e+01
1.048360e+02	-1.870033e+01
1.054415e+02	-1.874907e+01
1.060505e+02	-1.879884e+01
1.066631e+02	-1.884671e+01
1.072791e+02	-1.889467e+01
1.078988e+02	-1.894614e+01
1.085220e+02	-1.899540e+01
1.091488e+02	-1.904530e+01
1.097793e+02	-1.909359e+01
1.104133e+02	-1.914365e+01
1.110511e+02	-1.919232e+01
1.116925e+02	-1.924231e+01
1.123376e+02	-1.929218e+01
1.129865e+02	-1.934178e+01
1.136391e+02	-1.939041e+01
1.142955e+02	-1.943886e+01
1.149556e+02	-1.948904e+01
1.156196e+02	-1.953828e+01
1.162874e+02	-1.958860e+01
1.169591e+02	-1.963738e+01
1.176347e+02	-1.968633e+01
1.183141e+02	-1.973593e+01
1.189975e+02	-1.978644e+01
1.196848e+02	-1.983598e+01
1.203761e+02	-1.988360e+01
1.210714e+02	-1.993625e+01
1.217707e+02	-1.998522e+01
1.224740e+02	-2.003307e+01
1.231814e+02	-2.008408e+01
1.238929e+02	-2.013428e+01
1.246085e+02	-2.018117e+01
1.253283e+02	-2.023126e+01
1.260522e+02	-2.027966e+01
1.267802e+02	-2.033170e+01
1.275125e+02	-2.038199e+01
1.282490e+02	-2.043194e+01
1.289898e+02	-2.048090e+01
1.297348e+02	-2.052858e+01
1.304842e+02	-2.057887e+01
1.312378e+02	-2.062909e+01
1.319959e+02	-2.067878e+01
1.327583e+02	-2.072800e+01
1.335251e+02	-2.077721e+01
1.342963e+02	-2.082780e+01
1.350720e+02	-2.087773e+01
1.358522e+02	-2.092658e+01
1.366368e+02	-2.097589e+01
1.374260e+02	-2.102671e+01
1.382198e+02	-2.107653e+01
1.390182e+02	-2.112558e+01
1.398211e+02	-2.117518e+01
1.406287e+02	-2.122567e+01
1.414410e+02	-2.127387e+01
1.422579e+02	-2.132450e+01
1.430796e+02	-2.137281e+01
1.439060e+02	-2.142369e+01
1.447372e+02	-2.147471e+01
1.455732e+02	-2.152319e+01
1.464141e+02	-2.157434e+01
1.472597e+02	-2.162140e+01
1.481103e+02	-2.167184e+01
1.489658e+02	-2.172072e+01
1.498262e+02	-2.177033e+01
1.506916e+02	-2.182086e+01
1.515620e+02	-2.186946e+01
1.524374e+02	-2.192036e+01
1.533179e+02	-2.197025e+01
1.542034e+02	-2.202091e+01
1.550941e+02	-2.206827e+01
1.559899e+02	-2.211938e+01
1.568909e+02	-2.216826e+01
1.577971e+02	-2.221871e+01
1.587085e+02	-2.226719e+01
1.596252e+02	-2.231786e+01
1.605472e+02	-2.236768e+01
1.614745e+02	-2.241826e+01
1.624072e+02	-2.246780e+01
1.633453e+02	-2.251808e+01
1.642887e+02	-2.256737e+01
1.652377e+02	-2.261774e+01
1.661921e+02	-2.266754e+01
1.671520e+02	-2.271713e+01
1.681175e+02	-2.276683e+01
1.690885e+02	-2.281497e+01
1.700651e+02	-2.286518e+01
1.710474e+02	-2.291681e+01
1.720354e+02	-2.296541e+01
1.730291e+02	-2.301270e+01
1.740285e+02	-2.306521e+01
1.750337e+02	-2.311417e+01
1.760446e+02	-2.316454e+01
1.770615e+02	-2.321543e+01
1.780842e+02	-2.326276e+01
1.791128e+02	-2.331445e+01
1.801473e+02	-2.336429e+01
1.811878e+02	-2.341289e+01
1.822344e+02	-2.346230e+01
1.832870e+02	-2.351508e+01
1.843456e+02	-2.356455e+01
1.854104e+02	-2.361146e+01
1.864813e+02	-2.366283e+01
1.875584e+02	-2.371299e+01
1.886418e+02	-2.376256e+01
1.897313e+02	-2.381170e+01
1.908272e+02	-2.386090e+01
1.919294e+02	-2.391133e+01
1.930380e+02	-2.396129e+01
1.941530e+02	-2.401097e+01
1.952744e+02	-2.406239e+01
1.964023e+02	-2.411143e+01
1.975367e+02	-2.415843e+01
1.986777e+02	-2.421129e+01
1.998252e+02	-2.426447e+01
2.009794e+02	-2.431051e+01
2.021403e+02	-2.435934e+01
2.033078e+02	-2.441064e+01
2.044821e+02	-2.446114e+01
2.056632e+02	-2.450946e+01
2.068511e+02	-2.456066e+01
2.080459e+02	-2.461032e+01
2.092475e+02	-2.466245e+01
2.104561e+02	-2.471087e+01
2.116717e+02	-2.476091e+01
2.128943e+02	-2.480637e+01
2.141240e+02	-2.485979e+01
2.153608e+02	-2.491165e+01
2.166047e+02	-2.496064e+01
2.178558e+02	-2.501063e+01
2.191141e+02	-2.506075e+01
2.203797e+02	-2.510850e+01
2.216526e+02	-2.515878e+01
2.229329e+02	-2.520648e+01
2.242205e+02	-2.526009e+01
2.255156e+02	-2.531200e+01
2.268182e+02	-2.535875e+01
2.281283e+02	-2.540777e+01
2.294459e+02	-2.546144e+01
2.307712e+02	-2.551147e+01
2.321041e+02	-2.555773e+01
2.334447e+02	-2.560787e+01
2.347931e+02	-2.565904e+01
2.361493e+02	-2.570778e+01
2.375133e+02	-2.575856e+01
2.388851e+02	-2.580796e+01
2.402649e+02	-2.585889e+01
2.416527e+02	-2.590929e+01
2.430484e+02	-2.595675e+01
2.444523e+02	-2.600757e+01
2.458642e+02	-2.605829e+01
2.472843e+02	-2.611090e+01
2.487126e+02	-2.615625e+01
2.501492e+02	-2.620597e+01
2.515940e+02	-2.625327e+01
2.530472e+02	-2.630752e+01
2.545088e+02	-2.635853e+01
2.559789e+02	-2.641033e+01
2.574574e+02	-2.645879e+01
2.589444e+02	-2.650804e+01
2.604401e+02	-2.655914e+01
2.619444e+02	-2.660507e+01
2.634574e+02	-2.665748e+01
2.649791e+02	-2.670673e+01
2.665096e+02	-2.675843e+01
2.680489e+02	-2.680805e+01
2.695972e+02	-2.685460e+01
2.711544e+02	-2.690423e+01
2.727205e+02	-2.695737e+01
2.742958e+02	-2.700404e+01
2.758801e+02	-2.705599e+01
2.774736e+02	-2.711008e+01
2.790762e+02	-2.715596e+01
2.806882e+02	-2.720552e+01
2.823094e+02	-2.725838e+01
2.839400e+02	-2.730547e+01
2.855800e+02	-2.735575e+01
2.872295e+02	-2.740960e+01
2.888886e+02	-2.745731e+01
2.905572e+02	-2.750753e+01
2.922354e+02	-2.755816e+01
2.939234e+02	-2.760736e+01
2.956211e+02	-2.765734e+01
2.973286e+02	-2.770568e+01
2.990459e+02	-2.775407e+01
3.007732e+02	-2.780685e+01
3.025104e+02	-2.785782e+01
3.042577e+02	-2.791073e+01
3.060151e+02	-2.795754e+01
3.077826e+02	-2.800819e+01
3.095604e+02	-2.806016e+01
3.113484e+02	-2.810797e+01
3.131467e+02	-2.815895e+01
3.149554e+02	-2.821014e+01
3.167746e+02	-2.825741e+01
3.186043e+02	-2.830569e+01
3.204445e+02	-2.835328e+01
3.222954e+02	-2.840734e+01
3.241570e+02	-2.845961e+01
3.260293e+02	-2.850702e+01
3.279124e+02	-2.855877e+01
3.298064e+02	-2.860957e+01
3.317114e+02	-2.865971e+01
3.336273e+02	-2.870579e+01
3.355544e+02	-2.875557e+01
3.374925e+02	-2.880247e+01
3.394418e+02	-2.885854e+01
3.414024e+02	-2.890816e+01
3.433744e+02	-2.895389e+01
3.453577e+02	-2.900308e+01
3.473525e+02	-2.905469e+01
3.493588e+02	-2.910829e+01
3.513766e+02	-2.915688e+01
3.534062e+02	-2.921106e+01
3.554474e+02	-2.926204e+01
3.575005e+02	-2.930648e+01
3.595654e+02	-2.935823e+01
3.616422e+02	-2.940979e+01
3.637311e+02	-2.945786e+01
3.658320e+02	-2.951122e+01
3.679450e+02	-2.955834e+01
3.700702e+02	-2.961048e+01
3.722077e+02	-2.965783e+01
3.743576e+02	-2.970893e+01
3.765199e+02	-2.975197e+01
3.786946e+02	-2.981178e+01
3.808820e+02	-2.985780e+01
3.830819e+02	-2.991324e+01
3.852946e+02	-2.996144e+01
3.875200e+02	-3.001093e+01
3.897583e+02	-3.005769e+01
3.920096e+02	-3.010956e+01
3.942738e+02	-3.016065e+01
3.965511e+02	-3.021092e+01
3.988416e+02	-3.025256e+01
4.011452e+02	-3.031425e+01
4.034622e+02	-3.036214e+01
4.057926e+02	-3.041023e+01
4.081365e+02	-3.046200e+01
4.104938e+02	-3.051454e+01
4.128648e+02	-3.055727e+01
4.152495e+02	-3.061153e+01
4.176480e+02	-3.066172e+01
4.200603e+02	-3.071711e+01
4.224866e+02	-3.076497e+01
4.249268e+02	-3.080739e+01
4.273812e+02	-3.086614e+01
4.298497e+02	-3.090811e+01
4.323325e+02	-3.095981e+01
4.348297e+02	-3.101074e+01
4.373412e+02	-3.105817e+01
4.398673e+02	-3.111364e+01
4.424079e+02	-3.115820e+01
4.449633e+02	-3.120750e+01
4.475334e+02	-3.126490e+01
4.501183e+02	-3.131151e+01
4.527182e+02	-3.136459e+01
4.553330e+02	-3.141748e+01
4.579630e+02	-3.146452e+01
4.606082e+02	-3.150941e+01
4.632687e+02	-3.156109e+01
4.659445e+02	-3.161359e+01
4.686358e+02	-3.165785e+01
4.713426e+02	-3.171453e+01
4.740650e+02	-3.176417e+01
4.768032e+02	-3.181103e+01
4.795572e+02	-3.186525e+01
4.823271e+02	-3.191244e+01
4.851130e+02	-3.195796e+01
4.879150e+02	-3.201635e+01
4.907332e+02	-3.206666e+01
4.935676e+02	-3.211565e+01
4.964185e+02	-3.215631e+01
4.992858e+02	-3.221889e+01
5.021696e+02	-3.226755e+01
5.050701e+02	-3.231478e+01
5.079874e+02	-3.236737e+01
5.109215e+02	-3.242504e+01
5.138726e+02	-3.246023e+01
5.168407e+02	-3.251121e+01
5.198259e+02	-3.256527e+01
5.228284e+02	-3.262329e+01
5.258482e+02	-3.267194e+01
5.288855e+02	-3.272345e+01
5.319403e+02	-3.276939e+01
5.350128e+02	-3.281679e+01
5.381030e+02	-3.286222e+01
5.412111e+02	-3.291824e+01
5.443371e+02	-3.297391e+01
5.474812e+02	-3.302348e+01
5.506434e+02	-3.307126e+01
5.538239e+02	-3.312361e+01
5.570228e+02	-3.316546e+01
5.602401e+02	-3.322490e+01
5.634760e+02	-3.327101e+01
5.667306e+02	-3.332489e+01
5.700040e+02	-3.337449e+01
5.732964e+02	-3.342176e+01
5.766077e+02	-3.346410e+01
5.799382e+02	-3.351858e+01
5.832879e+02	-3.357428e+01
5.866569e+02	-3.362521e+01
5.900454e+02	-3.366660e+01
5.934535e+02	-3.372113e+01
5.968813e+02	-3.377157e+01
6.003288e+02	-3.382151e+01
6.037963e+02	-3.387590e+01
6.072838e+02	-3.393428e+01
6.107914e+02	-3.398266e+01
6.143194e+02	-3.402396e+01
6.178676e+02	-3.407868e+01
6.214364e+02	-3.412432e+01
6.250258e+02	-3.417206e+01
6.286359e+02	-3.423489e+01
6.322669e+02	-3.426942e+01
6.359189e+02	-3.432776e+01
6.395919e+02	-3.437338e+01
6.432862e+02	-3.443086e+01
6.470017e+02	-3.447274e+01
6.507388e+02	-3.453527e+01
6.544974e+02	-3.457536e+01
6.582778e+02	-3.462599e+01
6.620800e+02	-3.467108e+01
6.659041e+02	-3.473008e+01
6.697504e+02	-3.478788e+01
6.736188e+02	-3.483460e+01
6.775096e+02	-3.488717e+01
6.814229e+02	-3.493035e+01
6.853587e+02	-3.498563e+01
6.893173e+02	-3.502826e+01
6.932988e+02	-3.508171e+01
6.973033e+02	-3.512390e+01
7.013309e+02	-3.519105e+01
