Frequency(Hz)	Magnitude(dB)
1.000000e+01	-2.060588e+00
1.005776e+01	-2.079568e+00
1.011585e+01	-2.098657e+00
1.017428e+01	-2.117917e+00
1.023305e+01	-2.137153e+00
1.029215e+01	-2.156708e+00
1.035160e+01	-2.176359e+00
1.041139e+01	-2.196041e+00
1.047153e+01	-2.216013e+00
1.053201e+01	-2.236180e+00
1.059284e+01	-2.256422e+00
1.065403e+01	-2.276530e+00
1.071556e+01	-2.297168e+00
1.077746e+01	-2.317729e+00
1.083971e+01	-2.338446e+00
1.090232e+01	-2.359637e+00
1.096529e+01	-2.380327e+00
1.102862e+01	-2.401556e+00
1.109232e+01	-2.423076e+00
1.115639e+01	-2.444295e+00
1.122083e+01	-2.466206e+00
1.128564e+01	-2.487600e+00
1.135083e+01	-2.509670e+00
1.141639e+01	-2.531449e+00
1.148233e+01	-2.553662e+00
1.154865e+01	-2.576232e+00
1.161536e+01	-2.598503e+00
1.168245e+01	-2.620876e+00
1.174992e+01	-2.643995e+00
1.181779e+01	-2.666774e+00
1.188605e+01	-2.689979e+00
1.195470e+01	-2.713133e+00
1.202375e+01	-2.736213e+00
1.209320e+01	-2.759728e+00
1.216305e+01	-2.783274e+00
1.223330e+01	-2.807275e+00
1.230396e+01	-2.831016e+00
1.237503e+01	-2.854942e+00
1.244651e+01	-2.879273e+00
1.251840e+01	-2.903460e+00
1.259070e+01	-2.928163e+00
1.266343e+01	-2.952883e+00
1.273657e+01	-2.977433e+00
1.281014e+01	-3.002358e+00
1.288413e+01	-3.027091e+00
1.295855e+01	-3.052355e+00
1.303339e+01	-3.077743e+00
1.310867e+01	-3.103226e+00
1.318439e+01	-3.129040e+00
1.326054e+01	-3.154647e+00
1.333713e+01	-3.180791e+00
1.341417e+01	-3.206527e+00
1.349165e+01	-3.232769e+00
1.356958e+01	-3.258954e+00
1.364795e+01	-3.285444e+00
1.372678e+01	-3.312223e+00
1.380607e+01	-3.339114e+00
1.388581e+01	-3.365885e+00
1.396602e+01	-3.392941e+00
1.404668e+01	-3.420164e+00
1.412782e+01	-3.447476e+00
1.420942e+01	-3.474864e+00
1.429149e+01	-3.502451e+00
1.437404e+01	-3.530413e+00
1.445706e+01	-3.558141e+00
1.454057e+01	-3.586361e+00
1.462455e+01	-3.614474e+00
1.470902e+01	-3.642749e+00
1.479398e+01	-3.671239e+00
1.487943e+01	-3.699751e+00
1.496537e+01	-3.728748e+00
1.505181e+01	-3.757615e+00
1.513875e+01	-3.786804e+00
1.522619e+01	-3.815567e+00
1.531414e+01	-3.844952e+00
1.540259e+01	-3.874340e+00
1.549156e+01	-3.903980e+00
1.558103e+01	-3.933675e+00
1.567103e+01	-3.963732e+00
1.576155e+01	-3.993815e+00
1.585258e+01	-4.023997e+00
1.594415e+01	-4.054193e+00
1.603624e+01	-4.084522e+00
1.612886e+01	-4.115260e+00
1.622202e+01	-4.145746e+00
1.631572e+01	-4.176707e+00
1.640996e+01	-4.207655e+00
1.650474e+01	-4.238740e+00
1.660008e+01	-4.269914e+00
1.669596e+01	-4.301353e+00
1.679239e+01	-4.332981e+00
1.688938e+01	-4.364610e+00
1.698694e+01	-4.396151e+00
1.708505e+01	-4.428206e+00
1.718373e+01	-4.460233e+00
1.728299e+01	-4.492615e+00
1.738281e+01	-4.524691e+00
1.748322e+01	-4.557148e+00
1.758420e+01	-4.589806e+00
1.768576e+01	-4.622403e+00
1.778792e+01	-4.655130e+00
1.789066e+01	-4.688335e+00
1.799399e+01	-4.721428e+00
1.809793e+01	-4.754637e+00
1.820246e+01	-4.788053e+00
1.830760e+01	-4.821272e+00
1.841334e+01	-4.854900e+00
1.851969e+01	-4.888477e+00
1.862666e+01	-4.922774e+00
1.873425e+01	-4.956636e+00
1.884246e+01	-4.990483e+00
1.895129e+01	-5.025180e+00
1.906075e+01	-5.059489e+00
1.917085e+01	-5.093687e+00
1.928158e+01	-5.128310e+00
1.939295e+01	-5.162810e+00
1.950496e+01	-5.198431e+00
1.961762e+01	-5.232762e+00
1.973093e+01	-5.267973e+00
1.984490e+01	-5.303197e+00
1.995952e+01	-5.338573e+00
2.007480e+01	-5.374028e+00
2.019076e+01	-5.409721e+00
2.030738e+01	-5.445138e+00
2.042467e+01	-5.481265e+00
2.054264e+01	-5.516987e+00
2.066130e+01	-5.552783e+00
2.078064e+01	-5.589229e+00
2.090066e+01	-5.625341e+00
2.102139e+01	-5.661960e+00
2.114280e+01	-5.698488e+00
2.126492e+01	-5.734612e+00
2.138775e+01	-5.771867e+00
2.151128e+01	-5.808391e+00
2.163553e+01	-5.845408e+00
2.176050e+01	-5.882244e+00
2.188619e+01	-5.920145e+00
2.201260e+01	-5.956669e+00
2.213974e+01	-5.994134e+00
2.226762e+01	-6.032058e+00
2.239624e+01	-6.069820e+00
2.252560e+01	-6.106983e+00
2.265571e+01	-6.144850e+00
2.278656e+01	-6.182896e+00
2.291818e+01	-6.220994e+00
2.305055e+01	-6.259151e+00
2.318369e+01	-6.297395e+00
2.331760e+01	-6.335593e+00
2.345228e+01	-6.374058e+00
2.358774e+01	-6.412737e+00
2.372398e+01	-6.451175e+00
2.386101e+01	-6.490096e+00
2.399883e+01	-6.528803e+00
2.413745e+01	-6.568023e+00
2.427686e+01	-6.606838e+00
2.441709e+01	-6.646159e+00
2.455812e+01	-6.685439e+00
2.469997e+01	-6.724748e+00
2.484263e+01	-6.764105e+00
2.498612e+01	-6.803687e+00
2.513044e+01	-6.843391e+00
2.527559e+01	-6.883093e+00
2.542158e+01	-6.922938e+00
2.556842e+01	-6.963006e+00
2.571610e+01	-7.002643e+00
2.586463e+01	-7.042884e+00
2.601403e+01	-7.082754e+00
2.616428e+01	-7.123523e+00
2.631541e+01	-7.163504e+00
2.646740e+01	-7.203779e+00
2.662028e+01	-7.245168e+00
2.677404e+01	-7.285244e+00
2.692868e+01	-7.326003e+00
2.708422e+01	-7.367299e+00
2.724066e+01	-7.407659e+00
2.739800e+01	-7.448334e+00
2.755625e+01	-7.489959e+00
2.771541e+01	-7.530898e+00
2.787550e+01	-7.572331e+00
2.803650e+01	-7.613476e+00
2.819844e+01	-7.655352e+00
2.836131e+01	-7.696647e+00
2.852513e+01	-7.737847e+00
2.868989e+01	-7.779532e+00
2.885560e+01	-7.821542e+00
2.902227e+01	-7.863390e+00
2.918990e+01	-7.905077e+00
2.935850e+01	-7.946691e+00
2.952807e+01	-7.988955e+00
2.969863e+01	-8.030978e+00
2.987016e+01	-8.073079e+00
3.004269e+01	-8.115065e+00
3.021622e+01	-8.158105e+00
3.039075e+01	-8.200659e+00
3.056628e+01	-8.243125e+00
3.074283e+01	-8.285844e+00
3.092040e+01	-8.328230e+00
3.109900e+01	-8.370717e+00
3.127862e+01	-8.413514e+00
3.145929e+01	-8.456462e+00
3.164099e+01	-8.499236e+00
3.182375e+01	-8.542389e+00
3.200756e+01	-8.585237e+00
3.219244e+01	-8.628987e+00
3.237838e+01	-8.672097e+00
3.256540e+01	-8.714796e+00
3.275349e+01	-8.758470e+00
3.294268e+01	-8.801709e+00
3.313295e+01	-8.845257e+00
3.332433e+01	-8.888645e+00
3.351681e+01	-8.932430e+00
3.371040e+01	-8.975914e+00
3.390511e+01	-9.019696e+00
3.410094e+01	-9.063652e+00
3.429791e+01	-9.107186e+00
3.449601e+01	-9.151040e+00
3.469526e+01	-9.195123e+00
3.489566e+01	-9.239308e+00
3.509721e+01	-9.283425e+00
3.529993e+01	-9.327021e+00
3.550382e+01	-9.371646e+00
3.570889e+01	-9.415955e+00
3.591515e+01	-9.460086e+00
3.612259e+01	-9.505044e+00
3.633123e+01	-9.548449e+00
3.654108e+01	-9.593792e+00
3.675214e+01	-9.637819e+00
3.696442e+01	-9.682751e+00
3.717792e+01	-9.727807e+00
3.739266e+01	-9.772138e+00
3.760864e+01	-9.817045e+00
3.782587e+01	-9.861895e+00
3.804435e+01	-9.906261e+00
3.826409e+01	-9.951329e+00
3.848510e+01	-9.996528e+00
3.870739e+01	-1.004180e+01
3.893096e+01	-1.008695e+01
3.915583e+01	-1.013146e+01
3.938199e+01	-1.017692e+01
3.960946e+01	-1.022179e+01
3.983824e+01	-1.026743e+01
4.006834e+01	-1.031311e+01
4.029978e+01	-1.035818e+01
4.053255e+01	-1.040438e+01
4.076666e+01	-1.044918e+01
4.100213e+01	-1.049522e+01
4.123896e+01	-1.054039e+01
4.147715e+01	-1.058612e+01
4.171672e+01	-1.063234e+01
4.195767e+01	-1.067748e+01
4.220002e+01	-1.072350e+01
4.244377e+01	-1.076946e+01
4.268892e+01	-1.081486e+01
4.293549e+01	-1.086044e+01
4.318348e+01	-1.090641e+01
4.343291e+01	-1.095322e+01
4.368377e+01	-1.099862e+01
4.393609e+01	-1.104548e+01
4.418986e+01	-1.109138e+01
4.444510e+01	-1.113726e+01
4.470182e+01	-1.118309e+01
4.496001e+01	-1.123026e+01
4.521970e+01	-1.127598e+01
4.548089e+01	-1.132231e+01
4.574358e+01	-1.136885e+01
4.600779e+01	-1.141494e+01
4.627353e+01	-1.146227e+01
4.654081e+01	-1.150788e+01
4.680963e+01	-1.155421e+01
4.708000e+01	-1.160074e+01
4.735193e+01	-1.164771e+01
4.762543e+01	-1.169381e+01
4.790051e+01	-1.174065e+01
4.817719e+01	-1.178701e+01
4.845545e+01	-1.183429e+01
4.873533e+01	-1.188088e+01
4.901682e+01	-1.192787e+01
4.929994e+01	-1.197527e+01
4.958470e+01	-1.202137e+01
4.987110e+01	-1.206914e+01
5.015915e+01	-1.211523e+01
5.044887e+01	-1.216241e+01
5.074026e+01	-1.220878e+01
5.103333e+01	-1.225665e+01
5.132810e+01	-1.230402e+01
5.162457e+01	-1.234987e+01
5.192275e+01	-1.239695e+01
5.222265e+01	-1.244415e+01
5.252429e+01	-1.249162e+01
5.282767e+01	-1.253984e+01
5.313280e+01	-1.258614e+01
5.343969e+01	-1.263386e+01
5.374836e+01	-1.268187e+01
5.405880e+01	-1.272881e+01
5.437105e+01	-1.277518e+01
5.468509e+01	-1.282344e+01
5.500095e+01	-1.287018e+01
5.531863e+01	-1.291803e+01
5.563815e+01	-1.296549e+01
5.595951e+01	-1.301271e+01
5.628273e+01	-1.306069e+01
5.660782e+01	-1.310890e+01
5.693479e+01	-1.315568e+01
5.726364e+01	-1.320361e+01
5.759439e+01	-1.325107e+01
5.792705e+01	-1.329927e+01
5.826164e+01	-1.334629e+01
5.859815e+01	-1.339502e+01
5.893662e+01	-1.344144e+01
5.927703e+01	-1.348898e+01
5.961941e+01	-1.353740e+01
5.996377e+01	-1.358566e+01
6.031012e+01	-1.363345e+01
6.065847e+01	-1.368097e+01
6.100883e+01	-1.372898e+01
6.136121e+01	-1.377629e+01
6.171563e+01	-1.382458e+01
6.207210e+01	-1.387325e+01
6.243063e+01	-1.392066e+01
6.279122e+01	-1.396879e+01
6.315390e+01	-1.401653e+01
6.351868e+01	-1.406543e+01
6.388556e+01	-1.411294e+01
6.425456e+01	-1.416109e+01
6.462569e+01	-1.420855e+01
6.499897e+01	-1.425706e+01
6.537440e+01	-1.430446e+01
6.575200e+01	-1.435252e+01
6.613178e+01	-1.440187e+01
6.651375e+01	-1.445000e+01
6.689793e+01	-1.449854e+01
6.728433e+01	-1.454684e+01
6.767297e+01	-1.459449e+01
6.806384e+01	-1.464276e+01
6.845698e+01	-1.469085e+01
6.885238e+01	-1.473971e+01
6.925007e+01	-1.478824e+01
6.965005e+01	-1.483696e+01
7.005235e+01	-1.488490e+01
7.045697e+01	-1.493292e+01
7.086393e+01	-1.498185e+01
7.127323e+01	-1.503045e+01
7.168490e+01	-1.507939e+01
7.209895e+01	-1.512806e+01
7.251539e+01	-1.517687e+01
7.293424e+01	-1.522381e+01
7.335551e+01	-1.527290e+01
7.377920e+01	-1.532117e+01
7.420535e+01	-1.537008e+01
7.463396e+01	-1.541813e+01
7.506504e+01	-1.546778e+01
7.549861e+01	-1.551589e+01
7.593469e+01	-1.556395e+01
7.637328e+01	-1.561185e+01
7.681441e+01	-1.566131e+01
7.725809e+01	-1.570971e+01
7.770433e+01	-1.575835e+01
7.815315e+01	-1.580670e+01
7.860456e+01	-1.585599e+01
7.905857e+01	-1.590481e+01
7.951521e+01	-1.595358e+01
7.997449e+01	-1.600272e+01
8.043642e+01	-1.605106e+01
8.090102e+01	-1.609921e+01
8.136830e+01	-1.614887e+01
8.183828e+01	-1.619808e+01
8.231097e+01	-1.624631e+01
8.278640e+01	-1.629547e+01
8.326457e+01	-1.634390e+01
8.374550e+01	-1.639338e+01
8.422921e+01	-1.644126e+01
8.471572e+01	-1.649057e+01
8.520503e+01	-1.654070e+01
8.569717e+01	-1.658882e+01
8.619215e+01	-1.663757e+01
8.669000e+01	-1.668628e+01
8.719071e+01	-1.673642e+01
8.769432e+01	-1.678497e+01
8.820084e+01	-1.683278e+01
8.871029e+01	-1.688313e+01
8.922267e+01	-1.693119e+01
8.973802e+01	-1.698119e+01
9.025634e+01	-1.702952e+01
9.077766e+01	-1.707950e+01
9.130199e+01	-1.712859e+01
9.182935e+01	-1.717720e+01
9.235975e+01	-1.722634e+01
9.289321e+01	-1.727492e+01
9.342976e+01	-1.732539e+01
9.396941e+01	-1.737468e+01
9.451217e+01	-1.742244e+01
9.505807e+01	-1.747106e+01
9.560712e+01	-1.752064e+01
9.615934e+01	-1.756985e+01
9.671476e+01	-1.762006e+01
9.727338e+01	-1.766813e+01
9.783522e+01	-1.771661e+01
9.840032e+01	-1.776710e+01
9.896867e+01	-1.781597e+01
9.954031e+01	-1.786518e+01
1.001153e+02	-1.791357e+01
1.006935e+02	-1.796357e+01
1.012751e+02	-1.801256e+01
1.018601e+02	-1.806260e+01
1.024484e+02	-1.811134e+01
1.030402e+02	-1.815934e+01
1.036353e+02	-1.821025e+01
1.042339e+02	-1.825935e+01
1.048360e+02	-1.830707e+01
1.054415e+02	-1.835839e+01
1.060505e+02	-1.840795e+01
1.066631e+02	-1.845721e+01
1.072791e+02	-1.850660e+01
1.078988e+02	-1.855537e+01
1.085220e+02	-1.860466e+01
1.091488e+02	-1.865322e+01
1.097793e+02	-1.870182e+01
1.104133e+02	-1.875302e+01
1.110511e+02	-1.880288e+01
1.116925e+02	-1.885141e+01
1.123376e+02	-1.890064e+01
1.129865e+02	-1.895035e+01
1.136391e+02	-1.899869e+01
1.142955e+02	-1.904754e+01
1.149556e+02	-1.909893e+01
1.156196e+02	-1.914770e+01
1.162874e+02	-1.919638e+01
1.169591e+02	-1.924555e+01
1.176347e+02	-1.929664e+01
1.183141e+02	-1.934641e+01
1.189975e+02	-1.939473e+01
1.196848e+02	-1.944330e+01
1.203761e+02	-1.949425e+01
1.210714e+02	-1.954424e+01
1.217707e+02	-1.959331e+01
1.224740e+02	-1.964221e+01
1.231814e+02	-1.969206e+01
1.238929e+02	-1.974111e+01
1.246085e+02	-1.979250e+01
1.253283e+02	-1.983970e+01
1.260522e+02	-1.988949e+01
1.267802e+02	-1.993806e+01
1.275125e+02	-1.998840e+01
1.282490e+02	-2.003808e+01
1.289898e+02	-2.008788e+01
1.297348e+02	-2.013635e+01
1.304842e+02	-2.018705e+01
1.312378e+02	-2.023590e+01
1.319959e+02	-2.028530e+01
1.327583e+02	-2.033557e+01
1.335251e+02	-2.038282e+01
1.342963e+02	-2.043392e+01
1.350720e+02	-2.048551e+01
1.358522e+02	-2.053299e+01
1.366368e+02	-2.058336e+01
1.374260e+02	-2.063381e+01
1.382198e+02	-2.068280e+01
1.390182e+02	-2.073301e+01
1.398211e+02	-2.078221e+01
1.406287e+02	-2.083099e+01
1.414410e+02	-2.088106e+01
1.422579e+02	-2.093191e+01
1.430796e+02	-2.098088e+01
1.439060e+02	-2.102905e+01
1.447372e+02	-2.107873e+01
1.455732e+02	-2.113078e+01
1.464141e+02	-2.118011e+01
1.472597e+02	-2.122976e+01
1.481103e+02	-2.127646e+01
1.489658e+02	-2.132795e+01
1.498262e+02	-2.137921e+01
1.506916e+02	-2.142858e+01
1.515620e+02	-2.147753e+01
1.524374e+02	-2.152517e+01
1.533179e+02	-2.157507e+01
1.542034e+02	-2.162766e+01
1.550941e+02	-2.167442e+01
1.559899e+02	-2.172633e+01
1.568909e+02	-2.177662e+01
1.577971e+02	-2.182507e+01
1.587085e+02	-2.187352e+01
1.596252e+02	-2.192362e+01
1.605472e+02	-2.197306e+01
1.614745e+02	-2.202293e+01
1.624072e+02	-2.207355e+01
1.633453e+02	-2.212397e+01
1.642887e+02	-2.217274e+01
1.652377e+02	-2.222263e+01
1.661921e+02	-2.227168e+01
1.671520e+02	-2.232370e+01
1.681175e+02	-2.237144e+01
1.690885e+02	-2.242146e+01
1.700651e+02	-2.246981e+01
1.710474e+02	-2.251916e+01
1.720354e+02	-2.257195e+01
1.730291e+02	-2.261977e+01
1.740285e+02	-2.267062e+01
1.750337e+02	-2.272184e+01
1.760446e+02	-2.276836e+01
1.770615e+02	-2.281967e+01
1.780842e+02	-2.287063e+01
1.791128e+02	-2.292006e+01
1.801473e+02	-2.297009e+01
1.811878e+02	-2.301744e+01
1.822344e+02	-2.307134e+01
1.832870e+02	-2.311976e+01
1.843456e+02	-2.316812e+01
1.854104e+02	-2.321860e+01
1.864813e+02	-2.326805e+01
1.875584e+02	-2.331862e+01
1.886418e+02	-2.336906e+01
1.897313e+02	-2.341856e+01
1.908272e+02	-2.346761e+01
1.919294e+02	-2.351910e+01
1.930380e+02	-2.356561e+01
1.941530e+02	-2.361679e+01
1.952744e+02	-2.366876e+01
1.964023e+02	-2.371701e+01
1.975367e+02	-2.376837e+01
1.986777e+02	-2.381562e+01
1.998252e+02	-2.386672e+01
2.009794e+02	-2.391719e+01
2.021403e+02	-2.396471e+01
2.033078e+02	-2.401495e+01
2.044821e+02	-2.406696e+01
2.056632e+02	-2.411648e+01
2.068511e+02	-2.416459e+01
2.080459e+02	-2.421484e+01
2.092475e+02	-2.426522e+01
2.104561e+02	-2.431488e+01
2.116717e+02	-2.436389e+01
2.128943e+02	-2.441471e+01
2.141240e+02	-2.446377e+01
2.153608e+02	-2.451309e+01
2.166047e+02	-2.456476e+01
2.178558e+02	-2.461641e+01
2.191141e+02	-2.466508e+01
2.203797e+02	-2.471336e+01
2.216526e+02	-2.476336e+01
2.229329e+02	-2.481272e+01
2.242205e+02	-2.486676e+01
2.255156e+02	-2.491257e+01
2.268182e+02	-2.496356e+01
2.281283e+02	-2.501428e+01
2.294459e+02	-2.506374e+01
2.307712e+02	-2.511498e+01
2.321041e+02	-2.516456e+01
2.334447e+02	-2.521351e+01
2.347931e+02	-2.526249e+01
2.361493e+02	-2.531234e+01
2.375133e+02	-2.536239e+01
2.388851e+02	-2.541321e+01
2.402649e+02	-2.546445e+01
2.416527e+02	-2.551380e+01
2.430484e+02	-2.556403e+01
2.444523e+02	-2.561162e+01
2.458642e+02	-2.566430e+01
2.472843e+02	-2.571189e+01
2.487126e+02	-2.576413e+01
2.501492e+02	-2.581335e+01
2.515940e+02	-2.586000e+01
2.530472e+02	-2.591155e+01
2.545088e+02	-2.596185e+01
2.559789e+02	-2.601154e+01
2.574574e+02	-2.606159e+01
2.589444e+02	-2.611026e+01
2.604401e+02	-2.616202e+01
2.619444e+02	-2.621360e+01
2.634574e+02	-2.626273e+01
2.649791e+02	-2.631225e+01
2.665096e+02	-2.636187e+01
2.680489e+02	-2.641322e+01
2.695972e+02	-2.646347e+01
2.711544e+02	-2.650996e+01
2.727205e+02	-2.655967e+01
2.742958e+02	-2.661076e+01
2.758801e+02	-2.666278e+01
2.774736e+02	-2.670990e+01
2.790762e+02	-2.676099e+01
2.806882e+02	-2.680986e+01
2.823094e+02	-2.686000e+01
2.839400e+02	-2.691260e+01
2.855800e+02	-2.696313e+01
2.872295e+02	-2.700925e+01
2.888886e+02	-2.706287e+01
2.905572e+02	-2.711324e+01
2.922354e+02	-2.716446e+01
2.939234e+02	-2.721020e+01
2.956211e+02	-2.726244e+01
2.973286e+02	-2.731108e+01
2.990459e+02	-2.736009e+01
3.007732e+02	-2.740869e+01
3.025104e+02	-2.746083e+01
3.042577e+02	-2.751236e+01
3.060151e+02	-2.756259e+01
3.077826e+02	-2.761106e+01
3.095604e+02	-2.766203e+01
3.113484e+02	-2.771496e+01
3.131467e+02	-2.776201e+01
3.149554e+02	-2.781399e+01
3.167746e+02	-2.786252e+01
3.186043e+02	-2.791218e+01
3.204445e+02	-2.796326e+01
3.222954e+02	-2.801271e+01
3.241570e+02	-2.806314e+01
3.260293e+02	-2.811328e+01
3.279124e+02	-2.816376e+01
3.298064e+02	-2.820873e+01
3.317114e+02	-2.825905e+01
3.336273e+02	-2.831071e+01
3.355544e+02	-2.835773e+01
3.374925e+02	-2.841257e+01
3.394418e+02	-2.846553e+01
3.414024e+02	-2.851245e+01
3.433744e+02	-2.856652e+01
3.453577e+02	-2.861252e+01
3.473525e+02	-2.865613e+01
3.493588e+02	-2.870903e+01
3.513766e+02	-2.876562e+01
3.534062e+02	-2.881070e+01
3.554474e+02	-2.886264e+01
3.575005e+02	-2.891183e+01
3.595654e+02	-2.896496e+01
3.616422e+02	-2.901468e+01
3.637311e+02	-2.906691e+01
3.658320e+02	-2.911394e+01
3.679450e+02	-2.916336e+01
3.700702e+02	-2.921121e+01
3.722077e+02	-2.926526e+01
3.743576e+02	-2.931431e+01
3.765199e+02	-2.936686e+01
3.786946e+02	-2.941049e+01
3.808820e+02	-2.946196e+01
3.830819e+02	-2.951565e+01
3.852946e+02	-2.956652e+01
3.875200e+02	-2.961463e+01
3.897583e+02	-2.966507e+01
3.920096e+02	-2.971235e+01
3.942738e+02	-2.976782e+01
3.965511e+02	-2.981094e+01
3.988416e+02	-2.986763e+01
4.011452e+02	-2.991802e+01
4.034622e+02	-2.996083e+01
4.057926e+02	-3.000889e+01
4.081365e+02	-3.006840e+01
4.104938e+02	-3.011893e+01
4.128648e+02	-3.016977e+01
4.152495e+02	-3.021102e+01
4.176480e+02	-3.026692e+01
4.200603e+02	-3.031560e+01
4.224866e+02	-3.036778e+01
4.249268e+02	-3.041590e+01
4.273812e+02	-3.046743e+01
4.298497e+02	-3.051195e+01
4.323325e+02	-3.057282e+01
4.348297e+02	-3.061185e+01
4.373412e+02	-3.066467e+01
4.398673e+02	-3.071621e+01
4.424079e+02	-3.076481e+01
4.449633e+02	-3.081503e+01
4.475334e+02	-3.086162e+01
4.501183e+02	-3.091313e+01
4.527182e+02	-3.096755e+01
4.553330e+02	-3.101234e+01
4.579630e+02	-3.107071e+01
4.606082e+02	-3.111368e+01
4.632687e+02	-3.116461e+01
4.659445e+02	-3.122191e+01
4.686358e+02	-3.126436e+01
4.713426e+02	-3.131957e+01
4.740650e+02	-3.136881e+01
4.768032e+02	-3.141457e+01
4.795572e+02	-3.146673e+01
4.823271e+02	-3.151799e+01
4.851130e+02	-3.156989e+01
4.879150e+02	-3.162431e+01
4.907332e+02	-3.166997e+01
4.935676e+02	-3.172137e+01
4.964185e+02	-3.176364e+01
4.992858e+02	-3.182073e+01
5.021696e+02	-3.186475e+01
5.050701e+02	-3.192161e+01
5.079874e+02	-3.197189e+01
5.109215e+02	-3.201926e+01
5.138726e+02	-3.207250e+01
5.168407e+02	-3.212119e+01
5.198259e+02	-3.217581e+01
5.228284e+02	-3.221794e+01
5.258482e+02	-3.227193e+01
5.288855e+02	-3.231950e+01
5.319403e+02	-3.238046e+01
5.350128e+02	-3.241893e+01
5.381030e+02	-3.247774e+01
5.412111e+02	-3.252356e+01
5.443371e+02	-3.256804e+01
5.474812e+02	-3.262324e+01
5.506434e+02	-3.267314e+01
5.538239e+02	-3.273003e+01
5.570228e+02	-3.276995e+01
5.602401e+02	-3.282349e+01
5.634760e+02	-3.287671e+01
5.667306e+02	-3.293223e+01
5.700040e+02	-3.298076e+01
5.732964e+02	-3.303191e+01
5.766077e+02	-3.307244e+01
5.799382e+02	-3.312433e+01
5.832879e+02	-3.317758e+01
5.866569e+02	-3.323136e+01
5.900454e+02	-3.328087e+01
5.934535e+02	-3.332720e+01
5.968813e+02	-3.337448e+01
6.003288e+02	-3.342860e+01
6.037963e+02	-3.348496e+01
6.072838e+02	-3.352204e+01
6.107914e+02	-3.357883e+01
6.143194e+02	-3.362989e+01
6.178676e+02	-3.367498e+01
6.214364e+02	-3.372806e+01
6.250258e+02	-3.377645e+01
6.286359e+02	-3.383091e+01
6.322669e+02	-3.387889e+01
6.359189e+02	-3.393487e+01
6.395919e+02	-3.398678e+01
6.432862e+02	-3.403167e+01
6.470017e+02	-3.408221e+01
6.507388e+02	-3.412610e+01
6.544974e+02	-3.417572e+01
6.582778e+02	-3.423449e+01
6.620800e+02	-3.428151e+01
6.659041e+02	-3.433251e+01
6.697504e+02	-3.439055e+01
6.736188e+02	-3.444212e+01
6.775096e+02	-3.448248e+01
6.814229e+02	-3.453175e+01
6.853587e+02	-3.459151e+01
6.893173e+02	-3.463611e+01
6.932988e+02	-3.468704e+01
6.973033e+02	-3.473516e+01
7.013309e+02	-3.478436e+01
