Frequency(Hz)	Magnitude(dB)
1.000000e+01	-1.903171e-05
1.005776e+01	-1.925220e-05
1.011585e+01	-1.947524e-05
1.017428e+01	-1.970087e-05
1.023305e+01	-1.992911e-05
1.029215e+01	-2.015999e-05
1.035160e+01	-2.039355e-05
1.041139e+01	-2.062981e-05
1.047153e+01	-2.086881e-05
1.053201e+01	-2.111058e-05
1.059284e+01	-2.135516e-05
1.065403e+01	-2.160256e-05
1.071556e+01	-2.185283e-05
1.077746e+01	-2.210600e-05
1.083971e+01	-2.236211e-05
1.090232e+01	-2.262118e-05
1.096529e+01	-2.288325e-05
1.102862e+01	-2.314836e-05
1.109232e+01	-2.341654e-05
1.115639e+01	-2.368782e-05
1.122083e+01	-2.396225e-05
1.128564e+01	-2.423986e-05
1.135083e+01	-2.452069e-05
1.141639e+01	-2.480476e-05
1.148233e+01	-2.509213e-05
1.154865e+01	-2.538283e-05
1.161536e+01	-2.567690e-05
1.168245e+01	-2.597437e-05
1.174992e+01	-2.627529e-05
1.181779e+01	-2.657970e-05
1.188605e+01	-2.688763e-05
1.195470e+01	-2.719913e-05
1.202375e+01	-2.751424e-05
1.209320e+01	-2.783300e-05
1.216305e+01	-2.815545e-05
1.223330e+01	-2.848164e-05
1.230396e+01	-2.881160e-05
1.237503e+01	-2.914539e-05
1.244651e+01	-2.948305e-05
1.251840e+01	-2.982462e-05
1.259070e+01	-3.017014e-05
1.266343e+01	-3.051967e-05
1.273657e+01	-3.087325e-05
1.281014e+01	-3.123092e-05
1.288413e+01	-3.159274e-05
1.295855e+01	-3.195875e-05
1.303339e+01	-3.232900e-05
1.310867e+01	-3.270354e-05
1.318439e+01	-3.308242e-05
1.326054e+01	-3.346568e-05
1.333713e+01	-3.385339e-05
1.341417e+01	-3.424559e-05
1.349165e+01	-3.464233e-05
1.356958e+01	-3.504367e-05
1.364795e+01	-3.544966e-05
1.372678e+01	-3.586035e-05
1.380607e+01	-3.627581e-05
1.388581e+01	-3.669607e-05
1.396602e+01	-3.712120e-05
1.404668e+01	-3.755126e-05
1.412782e+01	-3.798630e-05
1.420942e+01	-3.842638e-05
1.429149e+01	-3.887156e-05
1.437404e+01	-3.932189e-05
1.445706e+01	-3.977745e-05
1.454057e+01	-4.023828e-05
1.462455e+01	-4.070445e-05
1.470902e+01	-4.117602e-05
1.479398e+01	-4.165305e-05
1.487943e+01	-4.213561e-05
1.496537e+01	-4.262376e-05
1.505181e+01	-4.311757e-05
1.513875e+01	-4.361709e-05
1.522619e+01	-4.412241e-05
1.531414e+01	-4.463357e-05
1.540259e+01	-4.515066e-05
1.549156e+01	-4.567374e-05
1.558103e+01	-4.620288e-05
1.567103e+01	-4.673815e-05
1.576155e+01	-4.727963e-05
1.585258e+01	-4.782737e-05
1.594415e+01	-4.838146e-05
1.603624e+01	-4.894197e-05
1.612886e+01	-4.950897e-05
1.622202e+01	-5.008255e-05
1.631572e+01	-5.066276e-05
1.640996e+01	-5.124970e-05
1.650474e+01	-5.184344e-05
1.660008e+01	-5.244406e-05
1.669596e+01	-5.305163e-05
1.679239e+01	-5.366625e-05
1.688938e+01	-5.428798e-05
1.698694e+01	-5.491692e-05
1.708505e+01	-5.555314e-05
1.718373e+01	-5.619674e-05
1.728299e+01	-5.684779e-05
1.738281e+01	-5.750638e-05
1.748322e+01	-5.817260e-05
1.758420e+01	-5.884655e-05
1.768576e+01	-5.952830e-05
1.778792e+01	-6.021794e-05
1.789066e+01	-6.091558e-05
1.799399e+01	-6.162130e-05
1.809793e+01	-6.233519e-05
1.820246e+01	-6.305736e-05
1.830760e+01	-6.378789e-05
1.841334e+01	-6.452689e-05
1.851969e+01	-6.527444e-05
1.862666e+01	-6.603066e-05
1.873425e+01	-6.679564e-05
1.884246e+01	-6.756948e-05
1.895129e+01	-6.835228e-05
1.906075e+01	-6.914416e-05
1.917085e+01	-6.994520e-05
1.928158e+01	-7.075553e-05
1.939295e+01	-7.157525e-05
1.950496e+01	-7.240446e-05
1.961762e+01	-7.324328e-05
1.973093e+01	-7.409182e-05
1.984490e+01	-7.495018e-05
1.995952e+01	-7.581849e-05
2.007480e+01	-7.669686e-05
2.019076e+01	-7.758541e-05
2.030738e+01	-7.848425e-05
2.042467e+01	-7.939351e-05
2.054264e+01	-8.031329e-05
2.066130e+01	-8.124374e-05
2.078064e+01	-8.218496e-05
2.090066e+01	-8.313709e-05
2.102139e+01	-8.410024e-05
2.114280e+01	-8.507456e-05
2.126492e+01	-8.606016e-05
2.138775e+01	-8.705718e-05
2.151128e+01	-8.806575e-05
2.163553e+01	-8.908601e-05
2.176050e+01	-9.011808e-05
2.188619e+01	-9.116212e-05
2.201260e+01	-9.221824e-05
2.213974e+01	-9.328661e-05
2.226762e+01	-9.436735e-05
2.239624e+01	-9.546061e-05
2.252560e+01	-9.656653e-05
2.265571e+01	-9.768527e-05
2.278656e+01	-9.881697e-05
2.291818e+01	-9.996178e-05
2.305055e+01	-1.011198e-04
2.318369e+01	-1.022913e-04
2.331760e+01	-1.034764e-04
2.345228e+01	-1.046752e-04
2.358774e+01	-1.058879e-04
2.372398e+01	-1.071146e-04
2.386101e+01	-1.083555e-04
2.399883e+01	-1.096108e-04
2.413745e+01	-1.108807e-04
2.427686e+01	-1.121653e-04
2.441709e+01	-1.134647e-04
2.455812e+01	-1.147792e-04
2.469997e+01	-1.161089e-04
2.484263e+01	-1.174541e-04
2.498612e+01	-1.188148e-04
2.513044e+01	-1.201913e-04
2.527559e+01	-1.215837e-04
2.542158e+01	-1.229923e-04
2.556842e+01	-1.244172e-04
2.571610e+01	-1.258585e-04
2.586463e+01	-1.273166e-04
2.601403e+01	-1.287916e-04
2.616428e+01	-1.302837e-04
2.631541e+01	-1.317930e-04
2.646740e+01	-1.333199e-04
2.662028e+01	-1.348644e-04
2.677404e+01	-1.364268e-04
2.692868e+01	-1.380073e-04
2.708422e+01	-1.396061e-04
2.724066e+01	-1.412235e-04
2.739800e+01	-1.428596e-04
2.755625e+01	-1.445146e-04
2.771541e+01	-1.461888e-04
2.787550e+01	-1.478824e-04
2.803650e+01	-1.495957e-04
2.819844e+01	-1.513287e-04
2.836131e+01	-1.530819e-04
2.852513e+01	-1.548554e-04
2.868989e+01	-1.566494e-04
2.885560e+01	-1.584642e-04
2.902227e+01	-1.603000e-04
2.918990e+01	-1.621571e-04
2.935850e+01	-1.640357e-04
2.952807e+01	-1.659360e-04
2.969863e+01	-1.678584e-04
2.987016e+01	-1.698031e-04
3.004269e+01	-1.717702e-04
3.021622e+01	-1.737602e-04
3.039075e+01	-1.757732e-04
3.056628e+01	-1.778096e-04
3.074283e+01	-1.798695e-04
3.092040e+01	-1.819533e-04
3.109900e+01	-1.840612e-04
3.127862e+01	-1.861936e-04
3.145929e+01	-1.883506e-04
3.164099e+01	-1.905327e-04
3.182375e+01	-1.927400e-04
3.200756e+01	-1.949729e-04
3.219244e+01	-1.972317e-04
3.237838e+01	-1.995166e-04
3.256540e+01	-2.018280e-04
3.275349e+01	-2.041662e-04
3.294268e+01	-2.065314e-04
3.313295e+01	-2.089241e-04
3.332433e+01	-2.113445e-04
3.351681e+01	-2.137929e-04
3.371040e+01	-2.162697e-04
3.390511e+01	-2.187752e-04
3.410094e+01	-2.213097e-04
3.429791e+01	-2.238736e-04
3.449601e+01	-2.264671e-04
3.469526e+01	-2.290908e-04
3.489566e+01	-2.317448e-04
3.509721e+01	-2.344295e-04
3.529993e+01	-2.371454e-04
3.550382e+01	-2.398927e-04
3.570889e+01	-2.426718e-04
3.591515e+01	-2.454832e-04
3.612259e+01	-2.483271e-04
3.633123e+01	-2.512040e-04
3.654108e+01	-2.541141e-04
3.675214e+01	-2.570580e-04
3.696442e+01	-2.600360e-04
3.717792e+01	-2.630485e-04
3.739266e+01	-2.660959e-04
3.760864e+01	-2.691786e-04
3.782587e+01	-2.722970e-04
3.804435e+01	-2.754516e-04
3.826409e+01	-2.786427e-04
3.848510e+01	-2.818707e-04
3.870739e+01	-2.851361e-04
3.893096e+01	-2.884394e-04
3.915583e+01	-2.917810e-04
3.938199e+01	-2.951612e-04
3.960946e+01	-2.985806e-04
3.983824e+01	-3.020396e-04
4.006834e+01	-3.055387e-04
4.029978e+01	-3.090783e-04
4.053255e+01	-3.126590e-04
4.076666e+01	-3.162811e-04
4.100213e+01	-3.199452e-04
4.123896e+01	-3.236517e-04
4.147715e+01	-3.274011e-04
4.171672e+01	-3.311940e-04
4.195767e+01	-3.350308e-04
4.220002e+01	-3.389121e-04
4.244377e+01	-3.428383e-04
4.268892e+01	-3.468101e-04
4.293549e+01	-3.508278e-04
4.318348e+01	-3.548921e-04
4.343291e+01	-3.590034e-04
4.368377e+01	-3.631624e-04
4.393609e+01	-3.673696e-04
4.418986e+01	-3.716255e-04
4.444510e+01	-3.759307e-04
4.470182e+01	-3.802857e-04
4.496001e+01	-3.846912e-04
4.521970e+01	-3.891478e-04
4.548089e+01	-3.936560e-04
4.574358e+01	-3.982164e-04
4.600779e+01	-4.028296e-04
4.627353e+01	-4.074963e-04
4.654081e+01	-4.122170e-04
4.680963e+01	-4.169924e-04
4.708000e+01	-4.218232e-04
4.735193e+01	-4.267099e-04
4.762543e+01	-4.316532e-04
4.790051e+01	-4.366538e-04
4.817719e+01	-4.417123e-04
4.845545e+01	-4.468293e-04
4.873533e+01	-4.520057e-04
4.901682e+01	-4.572421e-04
4.929994e+01	-4.625391e-04
4.958470e+01	-4.678974e-04
4.987110e+01	-4.733178e-04
5.015915e+01	-4.788010e-04
5.044887e+01	-4.843478e-04
5.074026e+01	-4.899588e-04
5.103333e+01	-4.956348e-04
5.132810e+01	-5.013765e-04
5.162457e+01	-5.071847e-04
5.192275e+01	-5.130603e-04
5.222265e+01	-5.190038e-04
5.252429e+01	-5.250163e-04
5.282767e+01	-5.310984e-04
5.313280e+01	-5.372509e-04
5.343969e+01	-5.434747e-04
5.374836e+01	-5.497706e-04
5.405880e+01	-5.561395e-04
5.437105e+01	-5.625821e-04
5.468509e+01	-5.690993e-04
5.500095e+01	-5.756921e-04
5.531863e+01	-5.823612e-04
5.563815e+01	-5.891075e-04
5.595951e+01	-5.959320e-04
5.628273e+01	-6.028356e-04
5.660782e+01	-6.098191e-04
5.693479e+01	-6.168835e-04
5.726364e+01	-6.240298e-04
5.759439e+01	-6.312588e-04
5.792705e+01	-6.385716e-04
5.826164e+01	-6.459691e-04
5.859815e+01	-6.534522e-04
5.893662e+01	-6.610221e-04
5.927703e+01	-6.686796e-04
5.961941e+01	-6.764258e-04
5.996377e+01	-6.842618e-04
6.031012e+01	-6.921885e-04
6.065847e+01	-7.002071e-04
6.100883e+01	-7.083185e-04
6.136121e+01	-7.165239e-04
6.171563e+01	-7.248243e-04
6.207210e+01	-7.332209e-04
6.243063e+01	-7.417148e-04
6.279122e+01	-7.503070e-04
6.315390e+01	-7.589987e-04
6.351868e+01	-7.677912e-04
6.388556e+01	-7.766854e-04
6.425456e+01	-7.856827e-04
6.462569e+01	-7.947843e-04
6.499897e+01	-8.039912e-04
6.537440e+01	-8.133048e-04
6.575200e+01	-8.227263e-04
6.613178e+01	-8.322569e-04
6.651375e+01	-8.418978e-04
6.689793e+01	-8.516505e-04
6.728433e+01	-8.615161e-04
6.767297e+01	-8.714960e-04
6.806384e+01	-8.815915e-04
6.845698e+01	-8.918040e-04
6.885238e+01	-9.021347e-04
6.925007e+01	-9.125851e-04
6.965005e+01	-9.231565e-04
7.005235e+01	-9.338503e-04
7.045697e+01	-9.446681e-04
7.086393e+01	-9.556111e-04
7.127323e+01	-9.666809e-04
7.168490e+01	-9.778789e-04
7.209895e+01	-9.892066e-04
7.251539e+01	-1.000666e-03
7.293424e+01	-1.012257e-03
7.335551e+01	-1.023983e-03
7.377920e+01	-1.035845e-03
7.420535e+01	-1.047844e-03
7.463396e+01	-1.059982e-03
7.506504e+01	-1.072261e-03
7.549861e+01	-1.084681e-03
7.593469e+01	-1.097246e-03
7.637328e+01	-1.109956e-03
7.681441e+01	-1.122814e-03
7.725809e+01	-1.135820e-03
7.770433e+01	-1.148977e-03
7.815315e+01	-1.162287e-03
7.860456e+01	-1.175750e-03
7.905857e+01	-1.189370e-03
7.951521e+01	-1.203147e-03
7.997449e+01	-1.217084e-03
8.043642e+01	-1.231182e-03
8.090102e+01	-1.245444e-03
8.136830e+01	-1.259871e-03
8.183828e+01	-1.274464e-03
8.231097e+01	-1.289227e-03
8.278640e+01	-1.304161e-03
8.326457e+01	-1.319268e-03
8.374550e+01	-1.334549e-03
8.422921e+01	-1.350008e-03
8.471572e+01	-1.365646e-03
8.520503e+01	-1.381465e-03
8.569717e+01	-1.397467e-03
8.619215e+01	-1.413654e-03
8.669000e+01	-1.430029e-03
8.719071e+01	-1.446594e-03
8.769432e+01	-1.463350e-03
8.820084e+01	-1.480300e-03
8.871029e+01	-1.497447e-03
8.922267e+01	-1.514792e-03
8.973802e+01	-1.532339e-03
9.025634e+01	-1.550088e-03
9.077766e+01	-1.568043e-03
9.130199e+01	-1.586206e-03
9.182935e+01	-1.604579e-03
9.235975e+01	-1.623165e-03
9.289321e+01	-1.641966e-03
9.342976e+01	-1.660985e-03
9.396941e+01	-1.680225e-03
9.451217e+01	-1.699687e-03
9.505807e+01	-1.719374e-03
9.560712e+01	-1.739289e-03
9.615934e+01	-1.759435e-03
9.671476e+01	-1.779815e-03
9.727338e+01	-1.800430e-03
9.783522e+01	-1.821284e-03
9.840032e+01	-1.842380e-03
9.896867e+01	-1.863720e-03
9.954031e+01	-1.885307e-03
1.001153e+02	-1.907144e-03
1.006935e+02	-1.929234e-03
1.012751e+02	-1.951579e-03
1.018601e+02	-1.974184e-03
1.024484e+02	-1.997050e-03
1.030402e+02	-2.020181e-03
1.036353e+02	-2.043580e-03
1.042339e+02	-2.067249e-03
1.048360e+02	-2.091193e-03
1.054415e+02	-2.115414e-03
1.060505e+02	-2.139916e-03
1.066631e+02	-2.164701e-03
1.072791e+02	-2.189774e-03
1.078988e+02	-2.215136e-03
1.085220e+02	-2.240793e-03
1.091488e+02	-2.266746e-03
1.097793e+02	-2.293000e-03
1.104133e+02	-2.319558e-03
1.110511e+02	-2.346423e-03
1.116925e+02	-2.373600e-03
1.123376e+02	-2.401091e-03
1.129865e+02	-2.428900e-03
1.136391e+02	-2.457032e-03
1.142955e+02	-2.485489e-03
1.149556e+02	-2.514276e-03
1.156196e+02	-2.543396e-03
1.162874e+02	-2.572853e-03
1.169591e+02	-2.602651e-03
1.176347e+02	-2.632795e-03
1.183141e+02	-2.663287e-03
1.189975e+02	-2.694132e-03
1.196848e+02	-2.725335e-03
1.203761e+02	-2.756898e-03
1.210714e+02	-2.788827e-03
1.217707e+02	-2.821126e-03
1.224740e+02	-2.853799e-03
1.231814e+02	-2.886850e-03
1.238929e+02	-2.920284e-03
1.246085e+02	-2.954104e-03
1.253283e+02	-2.988317e-03
1.260522e+02	-3.022925e-03
1.267802e+02	-3.057934e-03
1.275125e+02	-3.093348e-03
1.282490e+02	-3.129173e-03
1.289898e+02	-3.165412e-03
1.297348e+02	-3.202070e-03
1.304842e+02	-3.239153e-03
1.312378e+02	-3.276666e-03
1.319959e+02	-3.314612e-03
1.327583e+02	-3.352998e-03
1.335251e+02	-3.391828e-03
1.342963e+02	-3.431108e-03
1.350720e+02	-3.470842e-03
1.358522e+02	-3.511037e-03
1.366368e+02	-3.551696e-03
1.374260e+02	-3.592826e-03
1.382198e+02	-3.634433e-03
1.390182e+02	-3.676521e-03
1.398211e+02	-3.719096e-03
1.406287e+02	-3.762164e-03
1.414410e+02	-3.805731e-03
1.422579e+02	-3.849801e-03
1.430796e+02	-3.894382e-03
1.439060e+02	-3.939479e-03
1.447372e+02	-3.985098e-03
1.455732e+02	-4.031245e-03
1.464141e+02	-4.077926e-03
1.472597e+02	-4.125148e-03
1.481103e+02	-4.172915e-03
1.489658e+02	-4.221236e-03
1.498262e+02	-4.270116e-03
1.506916e+02	-4.319562e-03
1.515620e+02	-4.369580e-03
1.524374e+02	-4.420177e-03
1.533179e+02	-4.471359e-03
1.542034e+02	-4.523134e-03
1.550941e+02	-4.575508e-03
1.559899e+02	-4.628488e-03
1.568909e+02	-4.682082e-03
1.577971e+02	-4.736295e-03
1.587085e+02	-4.791136e-03
1.596252e+02	-4.846612e-03
1.605472e+02	-4.902729e-03
1.614745e+02	-4.959496e-03
1.624072e+02	-5.016920e-03
1.633453e+02	-5.075008e-03
1.642887e+02	-5.133769e-03
1.652377e+02	-5.193209e-03
1.661921e+02	-5.253337e-03
1.671520e+02	-5.314161e-03
1.681175e+02	-5.375689e-03
1.690885e+02	-5.437929e-03
1.700651e+02	-5.500888e-03
1.710474e+02	-5.564577e-03
1.720354e+02	-5.629002e-03
1.730291e+02	-5.694173e-03
1.740285e+02	-5.760097e-03
1.750337e+02	-5.826784e-03
1.760446e+02	-5.894243e-03
1.770615e+02	-5.962483e-03
1.780842e+02	-6.031512e-03
1.791128e+02	-6.101339e-03
1.801473e+02	-6.171974e-03
1.811878e+02	-6.243427e-03
1.822344e+02	-6.315706e-03
1.832870e+02	-6.388821e-03
1.843456e+02	-6.462782e-03
1.854104e+02	-6.537598e-03
1.864813e+02	-6.613280e-03
1.875584e+02	-6.689838e-03
1.886418e+02	-6.767280e-03
1.897313e+02	-6.845619e-03
1.908272e+02	-6.924864e-03
1.919294e+02	-7.005026e-03
1.930380e+02	-7.086114e-03
1.941530e+02	-7.168141e-03
1.952744e+02	-7.251116e-03
1.964023e+02	-7.335051e-03
1.975367e+02	-7.419957e-03
1.986777e+02	-7.505844e-03
1.998252e+02	-7.592725e-03
2.009794e+02	-7.680611e-03
2.021403e+02	-7.769513e-03
2.033078e+02	-7.859443e-03
2.044821e+02	-7.950413e-03
2.056632e+02	-8.042435e-03
2.068511e+02	-8.135521e-03
2.080459e+02	-8.229684e-03
2.092475e+02	-8.324935e-03
2.104561e+02	-8.421288e-03
2.116717e+02	-8.518755e-03
2.128943e+02	-8.617349e-03
2.141240e+02	-8.717082e-03
2.153608e+02	-8.817969e-03
2.166047e+02	-8.920022e-03
2.178558e+02	-9.023255e-03
2.191141e+02	-9.127682e-03
2.203797e+02	-9.233316e-03
2.216526e+02	-9.340171e-03
2.229329e+02	-9.448261e-03
2.242205e+02	-9.557601e-03
2.255156e+02	-9.668204e-03
2.268182e+02	-9.780087e-03
2.281283e+02	-9.893262e-03
2.294459e+02	-1.000775e-02
2.307712e+02	-1.012355e-02
2.321041e+02	-1.024070e-02
2.334447e+02	-1.035920e-02
2.347931e+02	-1.047907e-02
2.361493e+02	-1.060032e-02
2.375133e+02	-1.072297e-02
2.388851e+02	-1.084705e-02
2.402649e+02	-1.097255e-02
2.416527e+02	-1.109951e-02
2.430484e+02	-1.122793e-02
2.444523e+02	-1.135784e-02
2.458642e+02	-1.148925e-02
2.472843e+02	-1.162218e-02
2.487126e+02	-1.175664e-02
2.501492e+02	-1.189266e-02
2.515940e+02	-1.203025e-02
2.530472e+02	-1.216942e-02
2.545088e+02	-1.231021e-02
2.559789e+02	-1.245262e-02
2.574574e+02	-1.259668e-02
2.589444e+02	-1.274240e-02
2.604401e+02	-1.288980e-02
2.619444e+02	-1.303891e-02
2.634574e+02	-1.318974e-02
2.649791e+02	-1.334231e-02
2.665096e+02	-1.349664e-02
2.680489e+02	-1.365276e-02
2.695972e+02	-1.381068e-02
2.711544e+02	-1.397042e-02
2.727205e+02	-1.413201e-02
2.742958e+02	-1.429546e-02
2.758801e+02	-1.446080e-02
2.774736e+02	-1.462805e-02
2.790762e+02	-1.479723e-02
2.806882e+02	-1.496836e-02
2.823094e+02	-1.514147e-02
2.839400e+02	-1.531658e-02
2.855800e+02	-1.549371e-02
2.872295e+02	-1.567288e-02
2.888886e+02	-1.585412e-02
2.905572e+02	-1.603746e-02
2.922354e+02	-1.622291e-02
2.939234e+02	-1.641050e-02
2.956211e+02	-1.660025e-02
2.973286e+02	-1.679220e-02
2.990459e+02	-1.698636e-02
3.007732e+02	-1.718276e-02
3.025104e+02	-1.738143e-02
3.042577e+02	-1.758238e-02
3.060151e+02	-1.778566e-02
3.077826e+02	-1.799129e-02
3.095604e+02	-1.819928e-02
3.113484e+02	-1.840968e-02
3.131467e+02	-1.862250e-02
3.149554e+02	-1.883778e-02
3.167746e+02	-1.905554e-02
3.186043e+02	-1.927581e-02
3.204445e+02	-1.949862e-02
3.222954e+02	-1.972400e-02
3.241570e+02	-1.995198e-02
3.260293e+02	-2.018259e-02
3.279124e+02	-2.041586e-02
3.298064e+02	-2.065182e-02
3.317114e+02	-2.089050e-02
3.336273e+02	-2.113193e-02
3.355544e+02	-2.137615e-02
3.374925e+02	-2.162318e-02
3.394418e+02	-2.187305e-02
3.414024e+02	-2.212581e-02
3.433744e+02	-2.238148e-02
3.453577e+02	-2.264010e-02
3.473525e+02	-2.290170e-02
3.493588e+02	-2.316631e-02
3.513766e+02	-2.343397e-02
3.534062e+02	-2.370472e-02
3.554474e+02	-2.397858e-02
3.575005e+02	-2.425560e-02
3.595654e+02	-2.453581e-02
3.616422e+02	-2.481925e-02
3.637311e+02	-2.510596e-02
3.658320e+02	-2.539596e-02
3.679450e+02	-2.568931e-02
3.700702e+02	-2.598603e-02
3.722077e+02	-2.628617e-02
3.743576e+02	-2.658977e-02
3.765199e+02	-2.689686e-02
3.786946e+02	-2.720749e-02
3.808820e+02	-2.752170e-02
3.830819e+02	-2.783952e-02
3.852946e+02	-2.816100e-02
3.875200e+02	-2.848618e-02
3.897583e+02	-2.881510e-02
3.920096e+02	-2.914780e-02
3.942738e+02	-2.948434e-02
3.965511e+02	-2.982475e-02
3.988416e+02	-3.016907e-02
4.011452e+02	-3.051736e-02
4.034622e+02	-3.086965e-02
4.057926e+02	-3.122599e-02
4.081365e+02	-3.158643e-02
4.104938e+02	-3.195102e-02
4.128648e+02	-3.231980e-02
4.152495e+02	-3.269282e-02
4.176480e+02	-3.307013e-02
4.200603e+02	-3.345178e-02
4.224866e+02	-3.383781e-02
4.249268e+02	-3.422828e-02
4.273812e+02	-3.462324e-02
4.298497e+02	-3.502274e-02
4.323325e+02	-3.542683e-02
4.348297e+02	-3.583556e-02
4.373412e+02	-3.624899e-02
4.398673e+02	-3.666717e-02
4.424079e+02	-3.709015e-02
4.449633e+02	-3.751798e-02
4.475334e+02	-3.795074e-02
4.501183e+02	-3.838846e-02
4.527182e+02	-3.883121e-02
4.553330e+02	-3.927904e-02
4.579630e+02	-3.973201e-02
4.606082e+02	-4.019018e-02
4.632687e+02	-4.065361e-02
4.659445e+02	-4.112236e-02
4.686358e+02	-4.159649e-02
4.713426e+02	-4.207605e-02
4.740650e+02	-4.256112e-02
4.768032e+02	-4.305175e-02
4.795572e+02	-4.354802e-02
4.823271e+02	-4.404997e-02
4.851130e+02	-4.455768e-02
4.879150e+02	-4.507120e-02
4.907332e+02	-4.559062e-02
4.935676e+02	-4.611599e-02
4.964185e+02	-4.664738e-02
4.992858e+02	-4.718486e-02
5.021696e+02	-4.772850e-02
5.050701e+02	-4.827837e-02
5.079874e+02	-4.883454e-02
5.109215e+02	-4.939708e-02
5.138726e+02	-4.996606e-02
5.168407e+02	-5.054156e-02
5.198259e+02	-5.112364e-02
5.228284e+02	-5.171239e-02
5.258482e+02	-5.230788e-02
5.288855e+02	-5.291019e-02
5.319403e+02	-5.351939e-02
5.350128e+02	-5.413555e-02
5.381030e+02	-5.475877e-02
5.412111e+02	-5.538911e-02
5.443371e+02	-5.602667e-02
5.474812e+02	-5.667151e-02
5.506434e+02	-5.732373e-02
5.538239e+02	-5.798340e-02
5.570228e+02	-5.865062e-02
5.602401e+02	-5.932545e-02
5.634760e+02	-6.000800e-02
5.667306e+02	-6.069835e-02
5.700040e+02	-6.139658e-02
5.732964e+02	-6.210279e-02
5.766077e+02	-6.281706e-02
5.799382e+02	-6.353949e-02
5.832879e+02	-6.427016e-02
5.866569e+02	-6.500917e-02
5.900454e+02	-6.575662e-02
5.934535e+02	-6.651259e-02
5.968813e+02	-6.727718e-02
6.003288e+02	-6.805050e-02
6.037963e+02	-6.883264e-02
6.072838e+02	-6.962369e-02
6.107914e+02	-7.042376e-02
6.143194e+02	-7.123294e-02
6.178676e+02	-7.205135e-02
6.214364e+02	-7.287908e-02
6.250258e+02	-7.371624e-02
6.286359e+02	-7.456294e-02
6.322669e+02	-7.541927e-02
6.359189e+02	-7.628535e-02
6.395919e+02	-7.716129e-02
6.432862e+02	-7.804720e-02
6.470017e+02	-7.894318e-02
6.507388e+02	-7.984936e-02
6.544974e+02	-8.076584e-02
6.582778e+02	-8.169274e-02
6.620800e+02	-8.263017e-02
6.659041e+02	-8.357826e-02
6.697504e+02	-8.453713e-02
6.736188e+02	-8.550688e-02
6.775096e+02	-8.648765e-02
6.814229e+02	-8.747955e-02
6.853587e+02	-8.848272e-02
6.893173e+02	-8.949726e-02
6.932988e+02	-9.052332e-02
6.973033e+02	-9.156102e-02
7.013309e+02	-9.261049e-02
