Frequency(Hz)	Magnitude(dB)
1.000000e+01	-1.625213e-05
1.005776e+01	-1.644041e-05
1.011585e+01	-1.663088e-05
1.017428e+01	-1.682355e-05
1.023305e+01	-1.701846e-05
1.029215e+01	-1.721562e-05
1.035160e+01	-1.741507e-05
1.041139e+01	-1.761683e-05
1.047153e+01	-1.782092e-05
1.053201e+01	-1.802738e-05
1.059284e+01	-1.823624e-05
1.065403e+01	-1.844751e-05
1.071556e+01	-1.866123e-05
1.077746e+01	-1.887742e-05
1.083971e+01	-1.909612e-05
1.090232e+01	-1.931735e-05
1.096529e+01	-1.954115e-05
1.102862e+01	-1.976754e-05
1.109232e+01	-1.999655e-05
1.115639e+01	-2.022822e-05
1.122083e+01	-2.046257e-05
1.128564e+01	-2.069963e-05
1.135083e+01	-2.093944e-05
1.141639e+01	-2.118203e-05
1.148233e+01	-2.142743e-05
1.154865e+01	-2.167567e-05
1.161536e+01	-2.192679e-05
1.168245e+01	-2.218082e-05
1.174992e+01	-2.243779e-05
1.181779e+01	-2.269773e-05
1.188605e+01	-2.296069e-05
1.195470e+01	-2.322670e-05
1.202375e+01	-2.349578e-05
1.209320e+01	-2.376799e-05
1.216305e+01	-2.404335e-05
1.223330e+01	-2.432190e-05
1.230396e+01	-2.460367e-05
1.237503e+01	-2.488871e-05
1.244651e+01	-2.517705e-05
1.251840e+01	-2.546873e-05
1.259070e+01	-2.576380e-05
1.266343e+01	-2.606228e-05
1.273657e+01	-2.636421e-05
1.281014e+01	-2.666965e-05
1.288413e+01	-2.697862e-05
1.295855e+01	-2.729118e-05
1.303339e+01	-2.760735e-05
1.310867e+01	-2.792719e-05
1.318439e+01	-2.825073e-05
1.326054e+01	-2.857803e-05
1.333713e+01	-2.890911e-05
1.341417e+01	-2.924403e-05
1.349165e+01	-2.958283e-05
1.356958e+01	-2.992555e-05
1.364795e+01	-3.027225e-05
1.372678e+01	-3.062296e-05
1.380607e+01	-3.097773e-05
1.388581e+01	-3.133662e-05
1.396602e+01	-3.169966e-05
1.404668e+01	-3.206691e-05
1.412782e+01	-3.243841e-05
1.420942e+01	-3.281422e-05
1.429149e+01	-3.319438e-05
1.437404e+01	-3.357894e-05
1.445706e+01	-3.396796e-05
1.454057e+01	-3.436149e-05
1.462455e+01	-3.475957e-05
1.470902e+01	-3.516227e-05
1.479398e+01	-3.556963e-05
1.487943e+01	-3.598172e-05
1.496537e+01	-3.639857e-05
1.505181e+01	-3.682026e-05
1.513875e+01	-3.724683e-05
1.522619e+01	-3.767834e-05
1.531414e+01	-3.811486e-05
1.540259e+01	-3.855642e-05
1.549156e+01	-3.900311e-05
1.558103e+01	-3.945497e-05
1.567103e+01	-3.991206e-05
1.576155e+01	-4.037445e-05
1.585258e+01	-4.084220e-05
1.594415e+01	-4.131537e-05
1.603624e+01	-4.179402e-05
1.612886e+01	-4.227821e-05
1.622202e+01	-4.276801e-05
1.631572e+01	-4.326349e-05
1.640996e+01	-4.376471e-05
1.650474e+01	-4.427173e-05
1.660008e+01	-4.478463e-05
1.669596e+01	-4.530347e-05
1.679239e+01	-4.582832e-05
1.688938e+01	-4.635925e-05
1.698694e+01	-4.689633e-05
1.708505e+01	-4.743963e-05
1.718373e+01	-4.798923e-05
1.728299e+01	-4.854520e-05
1.738281e+01	-4.910760e-05
1.748322e+01	-4.967653e-05
1.758420e+01	-5.025204e-05
1.768576e+01	-5.083422e-05
1.778792e+01	-5.142315e-05
1.789066e+01	-5.201889e-05
1.799399e+01	-5.262154e-05
1.809793e+01	-5.323117e-05
1.820246e+01	-5.384787e-05
1.830760e+01	-5.447171e-05
1.841334e+01	-5.510277e-05
1.851969e+01	-5.574115e-05
1.862666e+01	-5.638692e-05
1.873425e+01	-5.704018e-05
1.884246e+01	-5.770100e-05
1.895129e+01	-5.836948e-05
1.906075e+01	-5.904570e-05
1.917085e+01	-5.972976e-05
1.928158e+01	-6.042174e-05
1.939295e+01	-6.112173e-05
1.950496e+01	-6.182984e-05
1.961762e+01	-6.254615e-05
1.973093e+01	-6.327076e-05
1.984490e+01	-6.400377e-05
1.995952e+01	-6.474526e-05
2.007480e+01	-6.549535e-05
2.019076e+01	-6.625412e-05
2.030738e+01	-6.702169e-05
2.042467e+01	-6.779815e-05
2.054264e+01	-6.858360e-05
2.066130e+01	-6.937816e-05
2.078064e+01	-7.018192e-05
2.090066e+01	-7.099499e-05
2.102139e+01	-7.181748e-05
2.114280e+01	-7.264950e-05
2.126492e+01	-7.349115e-05
2.138775e+01	-7.434256e-05
2.151128e+01	-7.520383e-05
2.163553e+01	-7.607508e-05
2.176050e+01	-7.695643e-05
2.188619e+01	-7.784798e-05
2.201260e+01	-7.874986e-05
2.213974e+01	-7.966219e-05
2.226762e+01	-8.058509e-05
2.239624e+01	-8.151869e-05
2.252560e+01	-8.246309e-05
2.265571e+01	-8.341844e-05
2.278656e+01	-8.438486e-05
2.291818e+01	-8.536247e-05
2.305055e+01	-8.635141e-05
2.318369e+01	-8.735181e-05
2.331760e+01	-8.836379e-05
2.345228e+01	-8.938750e-05
2.358774e+01	-9.042307e-05
2.372398e+01	-9.147063e-05
2.386101e+01	-9.253034e-05
2.399883e+01	-9.360231e-05
2.413745e+01	-9.468671e-05
2.427686e+01	-9.578367e-05
2.441709e+01	-9.689334e-05
2.455812e+01	-9.801586e-05
2.469997e+01	-9.915139e-05
2.484263e+01	-1.003001e-04
2.498612e+01	-1.014621e-04
2.513044e+01	-1.026375e-04
2.527559e+01	-1.038266e-04
2.542158e+01	-1.050294e-04
2.556842e+01	-1.062462e-04
2.571610e+01	-1.074771e-04
2.586463e+01	-1.087222e-04
2.601403e+01	-1.099818e-04
2.616428e+01	-1.112559e-04
2.631541e+01	-1.125449e-04
2.646740e+01	-1.138487e-04
2.662028e+01	-1.151677e-04
2.677404e+01	-1.165019e-04
2.692868e+01	-1.178516e-04
2.708422e+01	-1.192169e-04
2.724066e+01	-1.205980e-04
2.739800e+01	-1.219952e-04
2.755625e+01	-1.234085e-04
2.771541e+01	-1.248382e-04
2.787550e+01	-1.262845e-04
2.803650e+01	-1.277475e-04
2.819844e+01	-1.292275e-04
2.836131e+01	-1.307246e-04
2.852513e+01	-1.322390e-04
2.868989e+01	-1.337710e-04
2.885560e+01	-1.353208e-04
2.902227e+01	-1.368885e-04
2.918990e+01	-1.384744e-04
2.935850e+01	-1.400786e-04
2.952807e+01	-1.417014e-04
2.969863e+01	-1.433430e-04
2.987016e+01	-1.450037e-04
3.004269e+01	-1.466836e-04
3.021622e+01	-1.483829e-04
3.039075e+01	-1.501019e-04
3.056628e+01	-1.518409e-04
3.074283e+01	-1.536000e-04
3.092040e+01	-1.553794e-04
3.109900e+01	-1.571795e-04
3.127862e+01	-1.590004e-04
3.145929e+01	-1.608425e-04
3.164099e+01	-1.627058e-04
3.182375e+01	-1.645908e-04
3.200756e+01	-1.664976e-04
3.219244e+01	-1.684265e-04
3.237838e+01	-1.703777e-04
3.256540e+01	-1.723515e-04
3.275349e+01	-1.743482e-04
3.294268e+01	-1.763681e-04
3.313295e+01	-1.784113e-04
3.332433e+01	-1.804782e-04
3.351681e+01	-1.825691e-04
3.371040e+01	-1.846841e-04
3.390511e+01	-1.868237e-04
3.410094e+01	-1.889881e-04
3.429791e+01	-1.911775e-04
3.449601e+01	-1.933923e-04
3.469526e+01	-1.956327e-04
3.489566e+01	-1.978991e-04
3.509721e+01	-2.001918e-04
3.529993e+01	-2.025110e-04
3.550382e+01	-2.048571e-04
3.570889e+01	-2.072304e-04
3.591515e+01	-2.096312e-04
3.612259e+01	-2.120597e-04
3.633123e+01	-2.145164e-04
3.654108e+01	-2.170016e-04
3.675214e+01	-2.195156e-04
3.696442e+01	-2.220587e-04
3.717792e+01	-2.246312e-04
3.739266e+01	-2.272336e-04
3.760864e+01	-2.298660e-04
3.782587e+01	-2.325290e-04
3.804435e+01	-2.352229e-04
3.826409e+01	-2.379479e-04
3.848510e+01	-2.407045e-04
3.870739e+01	-2.434931e-04
3.893096e+01	-2.463139e-04
3.915583e+01	-2.491675e-04
3.938199e+01	-2.520541e-04
3.960946e+01	-2.549741e-04
3.983824e+01	-2.579280e-04
4.006834e+01	-2.609160e-04
4.029978e+01	-2.639387e-04
4.053255e+01	-2.669964e-04
4.076666e+01	-2.700896e-04
4.100213e+01	-2.732185e-04
4.123896e+01	-2.763838e-04
4.147715e+01	-2.795856e-04
4.171672e+01	-2.828246e-04
4.195767e+01	-2.861011e-04
4.220002e+01	-2.894155e-04
4.244377e+01	-2.927684e-04
4.268892e+01	-2.961601e-04
4.293549e+01	-2.995911e-04
4.318348e+01	-3.030618e-04
4.343291e+01	-3.065727e-04
4.368377e+01	-3.101243e-04
4.393609e+01	-3.137171e-04
4.418986e+01	-3.173514e-04
4.444510e+01	-3.210279e-04
4.470182e+01	-3.247470e-04
4.496001e+01	-3.285091e-04
4.521970e+01	-3.323148e-04
4.548089e+01	-3.361646e-04
4.574358e+01	-3.400590e-04
4.600779e+01	-3.439986e-04
4.627353e+01	-3.479837e-04
4.654081e+01	-3.520150e-04
4.680963e+01	-3.560931e-04
4.708000e+01	-3.602183e-04
4.735193e+01	-3.643914e-04
4.762543e+01	-3.686128e-04
4.790051e+01	-3.728831e-04
4.817719e+01	-3.772029e-04
4.845545e+01	-3.815727e-04
4.873533e+01	-3.859931e-04
4.901682e+01	-3.904647e-04
4.929994e+01	-3.949882e-04
4.958470e+01	-3.995640e-04
4.987110e+01	-4.041928e-04
5.015915e+01	-4.088753e-04
5.044887e+01	-4.136120e-04
5.074026e+01	-4.184036e-04
5.103333e+01	-4.232507e-04
5.132810e+01	-4.281539e-04
5.162457e+01	-4.331139e-04
5.192275e+01	-4.381314e-04
5.222265e+01	-4.432071e-04
5.252429e+01	-4.483415e-04
5.282767e+01	-4.535354e-04
5.313280e+01	-4.587894e-04
5.343969e+01	-4.641043e-04
5.374836e+01	-4.694808e-04
5.405880e+01	-4.749196e-04
5.437105e+01	-4.804214e-04
5.468509e+01	-4.859869e-04
5.500095e+01	-4.916168e-04
5.531863e+01	-4.973120e-04
5.563815e+01	-5.030732e-04
5.595951e+01	-5.089011e-04
5.628273e+01	-5.147965e-04
5.660782e+01	-5.207602e-04
5.693479e+01	-5.267930e-04
5.726364e+01	-5.328956e-04
5.759439e+01	-5.390690e-04
5.792705e+01	-5.453139e-04
5.826164e+01	-5.516311e-04
5.859815e+01	-5.580215e-04
5.893662e+01	-5.644859e-04
5.927703e+01	-5.710252e-04
5.961941e+01	-5.776402e-04
5.996377e+01	-5.843319e-04
6.031012e+01	-5.911011e-04
6.065847e+01	-5.979487e-04
6.100883e+01	-6.048756e-04
6.136121e+01	-6.118828e-04
6.171563e+01	-6.189711e-04
6.207210e+01	-6.261415e-04
6.243063e+01	-6.333950e-04
6.279122e+01	-6.407325e-04
6.315390e+01	-6.481550e-04
6.351868e+01	-6.556635e-04
6.388556e+01	-6.632590e-04
6.425456e+01	-6.709424e-04
6.462569e+01	-6.787149e-04
6.499897e+01	-6.865773e-04
6.537440e+01	-6.945309e-04
6.575200e+01	-7.025766e-04
6.613178e+01	-7.107155e-04
6.651375e+01	-7.189486e-04
6.689793e+01	-7.272771e-04
6.728433e+01	-7.357021e-04
6.767297e+01	-7.442247e-04
6.806384e+01	-7.528460e-04
6.845698e+01	-7.615672e-04
6.885238e+01	-7.703893e-04
6.925007e+01	-7.793137e-04
6.965005e+01	-7.883415e-04
7.005235e+01	-7.974738e-04
7.045697e+01	-8.067119e-04
7.086393e+01	-8.160570e-04
7.127323e+01	-8.255103e-04
7.168490e+01	-8.350731e-04
7.209895e+01	-8.447468e-04
7.251539e+01	-8.545324e-04
7.293424e+01	-8.644314e-04
7.335551e+01	-8.744451e-04
7.377920e+01	-8.845747e-04
7.420535e+01	-8.948217e-04
7.463396e+01	-9.051874e-04
7.506504e+01	-9.156731e-04
7.549861e+01	-9.262803e-04
7.593469e+01	-9.370104e-04
7.637328e+01	-9.478647e-04
7.681441e+01	-9.588448e-04
7.725809e+01	-9.699520e-04
7.770433e+01	-9.811879e-04
7.815315e+01	-9.925539e-04
7.860456e+01	-1.004052e-03
7.905857e+01	-1.015682e-03
7.951521e+01	-1.027448e-03
7.997449e+01	-1.039350e-03
8.043642e+01	-1.051390e-03
8.090102e+01	-1.063569e-03
8.136830e+01	-1.075889e-03
8.183828e+01	-1.088352e-03
8.231097e+01	-1.100959e-03
8.278640e+01	-1.113712e-03
8.326457e+01	-1.126613e-03
8.374550e+01	-1.139664e-03
8.422921e+01	-1.152865e-03
8.471572e+01	-1.166220e-03
8.520503e+01	-1.179729e-03
8.569717e+01	-1.193395e-03
8.619215e+01	-1.207218e-03
8.669000e+01	-1.221202e-03
8.719071e+01	-1.235348e-03
8.769432e+01	-1.249658e-03
8.820084e+01	-1.264134e-03
8.871029e+01	-1.278777e-03
8.922267e+01	-1.293590e-03
8.973802e+01	-1.308574e-03
9.025634e+01	-1.323732e-03
9.077766e+01	-1.339065e-03
9.130199e+01	-1.354576e-03
9.182935e+01	-1.370267e-03
9.235975e+01	-1.386139e-03
9.289321e+01	-1.402195e-03
9.342976e+01	-1.418438e-03
9.396941e+01	-1.434868e-03
9.451217e+01	-1.451488e-03
9.505807e+01	-1.468301e-03
9.560712e+01	-1.485309e-03
9.615934e+01	-1.502514e-03
9.671476e+01	-1.519918e-03
9.727338e+01	-1.537523e-03
9.783522e+01	-1.555333e-03
9.840032e+01	-1.573349e-03
9.896867e+01	-1.591573e-03
9.954031e+01	-1.610008e-03
1.001153e+02	-1.628657e-03
1.006935e+02	-1.647522e-03
1.012751e+02	-1.666605e-03
1.018601e+02	-1.685910e-03
1.024484e+02	-1.705438e-03
1.030402e+02	-1.725192e-03
1.036353e+02	-1.745174e-03
1.042339e+02	-1.765389e-03
1.048360e+02	-1.785837e-03
1.054415e+02	-1.806522e-03
1.060505e+02	-1.827447e-03
1.066631e+02	-1.848613e-03
1.072791e+02	-1.870026e-03
1.078988e+02	-1.891686e-03
1.085220e+02	-1.913596e-03
1.091488e+02	-1.935761e-03
1.097793e+02	-1.958182e-03
1.104133e+02	-1.980863e-03
1.110511e+02	-2.003807e-03
1.116925e+02	-2.027016e-03
1.123376e+02	-2.050494e-03
1.129865e+02	-2.074244e-03
1.136391e+02	-2.098269e-03
1.142955e+02	-2.122572e-03
1.149556e+02	-2.147156e-03
1.156196e+02	-2.172025e-03
1.162874e+02	-2.197182e-03
1.169591e+02	-2.222631e-03
1.176347e+02	-2.248374e-03
1.183141e+02	-2.274415e-03
1.189975e+02	-2.300758e-03
1.196848e+02	-2.327405e-03
1.203761e+02	-2.354362e-03
1.210714e+02	-2.381630e-03
1.217707e+02	-2.409214e-03
1.224740e+02	-2.437118e-03
1.231814e+02	-2.465345e-03
1.238929e+02	-2.493898e-03
1.246085e+02	-2.522782e-03
1.253283e+02	-2.552001e-03
1.260522e+02	-2.581557e-03
1.267802e+02	-2.611456e-03
1.275125e+02	-2.641702e-03
1.282490e+02	-2.672297e-03
1.289898e+02	-2.703247e-03
1.297348e+02	-2.734555e-03
1.304842e+02	-2.766225e-03
1.312378e+02	-2.798262e-03
1.319959e+02	-2.830670e-03
1.327583e+02	-2.863453e-03
1.335251e+02	-2.896616e-03
1.342963e+02	-2.930163e-03
1.350720e+02	-2.964098e-03
1.358522e+02	-2.998426e-03
1.366368e+02	-3.033151e-03
1.374260e+02	-3.068279e-03
1.382198e+02	-3.103813e-03
1.390182e+02	-3.139758e-03
1.398211e+02	-3.176120e-03
1.406287e+02	-3.212902e-03
1.414410e+02	-3.250111e-03
1.422579e+02	-3.287750e-03
1.430796e+02	-3.325825e-03
1.439060e+02	-3.364340e-03
1.447372e+02	-3.403302e-03
1.455732e+02	-3.442714e-03
1.464141e+02	-3.482583e-03
1.472597e+02	-3.522913e-03
1.481103e+02	-3.563710e-03
1.489658e+02	-3.604980e-03
1.498262e+02	-3.646727e-03
1.506916e+02	-3.688957e-03
1.515620e+02	-3.731676e-03
1.524374e+02	-3.774890e-03
1.533179e+02	-3.818604e-03
1.542034e+02	-3.862823e-03
1.550941e+02	-3.907555e-03
1.559899e+02	-3.952805e-03
1.568909e+02	-3.998578e-03
1.577971e+02	-4.044881e-03
1.587085e+02	-4.091719e-03
1.596252e+02	-4.139100e-03
1.605472e+02	-4.187030e-03
1.614745e+02	-4.235514e-03
1.624072e+02	-4.284559e-03
1.633453e+02	-4.334172e-03
1.642887e+02	-4.384359e-03
1.652377e+02	-4.435127e-03
1.661921e+02	-4.486483e-03
1.671520e+02	-4.538433e-03
1.681175e+02	-4.590984e-03
1.690885e+02	-4.644143e-03
1.700651e+02	-4.697917e-03
1.710474e+02	-4.752314e-03
1.720354e+02	-4.807340e-03
1.730291e+02	-4.863003e-03
1.740285e+02	-4.919310e-03
1.750337e+02	-4.976269e-03
1.760446e+02	-5.033887e-03
1.770615e+02	-5.092172e-03
1.780842e+02	-5.151131e-03
1.791128e+02	-5.210772e-03
1.801473e+02	-5.271103e-03
1.811878e+02	-5.332133e-03
1.822344e+02	-5.393869e-03
1.832870e+02	-5.456319e-03
1.843456e+02	-5.519491e-03
1.854104e+02	-5.583395e-03
1.864813e+02	-5.648038e-03
1.875584e+02	-5.713428e-03
1.886418e+02	-5.779576e-03
1.897313e+02	-5.846489e-03
1.908272e+02	-5.914175e-03
1.919294e+02	-5.982645e-03
1.930380e+02	-6.051907e-03
1.941530e+02	-6.121971e-03
1.952744e+02	-6.192845e-03
1.964023e+02	-6.264538e-03
1.975367e+02	-6.337062e-03
1.986777e+02	-6.410424e-03
1.998252e+02	-6.484634e-03
2.009794e+02	-6.559704e-03
2.021403e+02	-6.635641e-03
2.033078e+02	-6.712457e-03
2.044821e+02	-6.790162e-03
2.056632e+02	-6.868765e-03
2.068511e+02	-6.948278e-03
2.080459e+02	-7.028710e-03
2.092475e+02	-7.110073e-03
2.104561e+02	-7.192376e-03
2.116717e+02	-7.275632e-03
2.128943e+02	-7.359850e-03
2.141240e+02	-7.445043e-03
2.153608e+02	-7.531220e-03
2.166047e+02	-7.618395e-03
2.178558e+02	-7.706577e-03
2.191141e+02	-7.795779e-03
2.203797e+02	-7.886013e-03
2.216526e+02	-7.977291e-03
2.229329e+02	-8.069623e-03
2.242205e+02	-8.163024e-03
2.255156e+02	-8.257504e-03
2.268182e+02	-8.353077e-03
2.281283e+02	-8.449756e-03
2.294459e+02	-8.547552e-03
2.307712e+02	-8.646478e-03
2.321041e+02	-8.746549e-03
2.334447e+02	-8.847776e-03
2.347931e+02	-8.950174e-03
2.361493e+02	-9.053755e-03
2.375133e+02	-9.158535e-03
2.388851e+02	-9.264525e-03
2.402649e+02	-9.371741e-03
2.416527e+02	-9.480196e-03
2.430484e+02	-9.589905e-03
2.444523e+02	-9.700882e-03
2.458642e+02	-9.813141e-03
2.472843e+02	-9.926699e-03
2.487126e+02	-1.004157e-02
2.501492e+02	-1.015777e-02
2.515940e+02	-1.027531e-02
2.530472e+02	-1.039421e-02
2.545088e+02	-1.051448e-02
2.559789e+02	-1.063614e-02
2.574574e+02	-1.075921e-02
2.589444e+02	-1.088370e-02
2.604401e+02	-1.100963e-02
2.619444e+02	-1.113702e-02
2.634574e+02	-1.126588e-02
2.649791e+02	-1.139622e-02
2.665096e+02	-1.152807e-02
2.680489e+02	-1.166145e-02
2.695972e+02	-1.179637e-02
2.711544e+02	-1.193284e-02
2.727205e+02	-1.207089e-02
2.742958e+02	-1.221054e-02
2.758801e+02	-1.235180e-02
2.774736e+02	-1.249469e-02
2.790762e+02	-1.263924e-02
2.806882e+02	-1.278545e-02
2.823094e+02	-1.293335e-02
2.839400e+02	-1.308296e-02
2.855800e+02	-1.323430e-02
2.872295e+02	-1.338738e-02
2.888886e+02	-1.354224e-02
2.905572e+02	-1.369888e-02
2.922354e+02	-1.385733e-02
2.939234e+02	-1.401761e-02
2.956211e+02	-1.417974e-02
2.973286e+02	-1.434375e-02
2.990459e+02	-1.450964e-02
3.007732e+02	-1.467746e-02
3.025104e+02	-1.484721e-02
3.042577e+02	-1.501892e-02
3.060151e+02	-1.519261e-02
3.077826e+02	-1.536831e-02
3.095604e+02	-1.554603e-02
3.113484e+02	-1.572581e-02
3.131467e+02	-1.590766e-02
3.149554e+02	-1.609161e-02
3.167746e+02	-1.627769e-02
3.186043e+02	-1.646591e-02
3.204445e+02	-1.665631e-02
3.222954e+02	-1.684890e-02
3.241570e+02	-1.704371e-02
3.260293e+02	-1.724077e-02
3.279124e+02	-1.744011e-02
3.298064e+02	-1.764175e-02
3.317114e+02	-1.784571e-02
3.336273e+02	-1.805203e-02
3.355544e+02	-1.826072e-02
3.374925e+02	-1.847182e-02
3.394418e+02	-1.868536e-02
3.414024e+02	-1.890137e-02
3.433744e+02	-1.911986e-02
3.453577e+02	-1.934087e-02
3.473525e+02	-1.956443e-02
3.493588e+02	-1.979058e-02
3.513766e+02	-2.001932e-02
3.534062e+02	-2.025071e-02
3.554474e+02	-2.048476e-02
3.575005e+02	-2.072152e-02
3.595654e+02	-2.096100e-02
3.616422e+02	-2.120324e-02
3.637311e+02	-2.144828e-02
3.658320e+02	-2.169614e-02
3.679450e+02	-2.194686e-02
3.700702e+02	-2.220047e-02
3.722077e+02	-2.245700e-02
3.743576e+02	-2.271648e-02
3.765199e+02	-2.297896e-02
3.786946e+02	-2.324446e-02
3.808820e+02	-2.351303e-02
3.830819e+02	-2.378468e-02
3.852946e+02	-2.405947e-02
3.875200e+02	-2.433742e-02
3.897583e+02	-2.461857e-02
3.920096e+02	-2.490296e-02
3.942738e+02	-2.519063e-02
3.965511e+02	-2.548161e-02
3.988416e+02	-2.577594e-02
4.011452e+02	-2.607367e-02
4.034622e+02	-2.637482e-02
4.057926e+02	-2.667943e-02
4.081365e+02	-2.698756e-02
4.104938e+02	-2.729923e-02
4.128648e+02	-2.761449e-02
4.152495e+02	-2.793338e-02
4.176480e+02	-2.825594e-02
4.200603e+02	-2.858221e-02
4.224866e+02	-2.891223e-02
4.249268e+02	-2.924606e-02
4.273812e+02	-2.958372e-02
4.298497e+02	-2.992527e-02
4.323325e+02	-3.027075e-02
4.348297e+02	-3.062021e-02
4.373412e+02	-3.097368e-02
4.398673e+02	-3.133122e-02
4.424079e+02	-3.169287e-02
4.449633e+02	-3.205868e-02
4.475334e+02	-3.242870e-02
4.501183e+02	-3.280297e-02
4.527182e+02	-3.318155e-02
4.553330e+02	-3.356447e-02
4.579630e+02	-3.395180e-02
4.606082e+02	-3.434358e-02
4.632687e+02	-3.473987e-02
4.659445e+02	-3.514070e-02
4.686358e+02	-3.554615e-02
4.713426e+02	-3.595625e-02
4.740650e+02	-3.637106e-02
4.768032e+02	-3.679064e-02
4.795572e+02	-3.721504e-02
4.823271e+02	-3.764431e-02
4.851130e+02	-3.807851e-02
4.879150e+02	-3.851770e-02
4.907332e+02	-3.896193e-02
4.935676e+02	-3.941126e-02
4.964185e+02	-3.986575e-02
4.992858e+02	-4.032545e-02
5.021696e+02	-4.079044e-02
5.050701e+02	-4.126075e-02
5.079874e+02	-4.173647e-02
5.109215e+02	-4.221764e-02
5.138726e+02	-4.270433e-02
5.168407e+02	-4.319660e-02
5.198259e+02	-4.369452e-02
5.228284e+02	-4.419815e-02
5.258482e+02	-4.470756e-02
5.288855e+02	-4.522281e-02
5.319403e+02	-4.574396e-02
5.350128e+02	-4.627108e-02
5.381030e+02	-4.680425e-02
5.412111e+02	-4.734353e-02
5.443371e+02	-4.788899e-02
5.474812e+02	-4.844069e-02
5.506434e+02	-4.899872e-02
5.538239e+02	-4.956313e-02
5.570228e+02	-5.013402e-02
5.602401e+02	-5.071143e-02
5.634760e+02	-5.129546e-02
5.667306e+02	-5.188618e-02
5.700040e+02	-5.248365e-02
5.732964e+02	-5.308797e-02
5.766077e+02	-5.369920e-02
5.799382e+02	-5.431742e-02
5.832879e+02	-5.494271e-02
5.866569e+02	-5.557516e-02
5.900454e+02	-5.621484e-02
5.934535e+02	-5.686183e-02
5.968813e+02	-5.751622e-02
6.003288e+02	-5.817809e-02
6.037963e+02	-5.884753e-02
6.072838e+02	-5.952462e-02
6.107914e+02	-6.020944e-02
6.143194e+02	-6.090208e-02
6.178676e+02	-6.160264e-02
6.214364e+02	-6.231120e-02
6.250258e+02	-6.302784e-02
6.286359e+02	-6.375267e-02
6.322669e+02	-6.448578e-02
6.359189e+02	-6.522724e-02
6.395919e+02	-6.597717e-02
6.432862e+02	-6.673566e-02
6.470017e+02	-6.750280e-02
6.507388e+02	-6.827868e-02
6.544974e+02	-6.906341e-02
6.582778e+02	-6.985709e-02
6.620800e+02	-7.065982e-02
6.659041e+02	-7.147169e-02
6.697504e+02	-7.229282e-02
6.736188e+02	-7.312329e-02
6.775096e+02	-7.396323e-02
6.814229e+02	-7.481273e-02
6.853587e+02	-7.567190e-02
6.893173e+02	-7.654086e-02
6.932988e+02	-7.741970e-02
6.973033e+02	-7.830854e-02
7.013309e+02	-7.920749e-02
