Frequency(Hz)	Magnitude(dB)
1.000000e+01	-2.128593e+00
1.005776e+01	-2.148124e+00
1.011585e+01	-2.167568e+00
1.017428e+01	-2.187440e+00
1.023305e+01	-2.207289e+00
1.029215e+01	-2.226986e+00
1.035160e+01	-2.247213e+00
1.041139e+01	-2.267725e+00
1.047153e+01	-2.288022e+00
1.053201e+01	-2.308595e+00
1.059284e+01	-2.329388e+00
1.065403e+01	-2.350240e+00
1.071556e+01	-2.371069e+00
1.077746e+01	-2.392068e+00
1.083971e+01	-2.413437e+00
1.090232e+01	-2.434748e+00
1.096529e+01	-2.456543e+00
1.102862e+01	-2.477880e+00
1.109232e+01	-2.500031e+00
1.115639e+01	-2.521874e+00
1.122083e+01	-2.544005e+00
1.128564e+01	-2.566275e+00
1.135083e+01	-2.588531e+00
1.141639e+01	-2.610951e+00
1.148233e+01	-2.633833e+00
1.154865e+01	-2.656436e+00
1.161536e+01	-2.679373e+00
1.168245e+01	-2.702498e+00
1.174992e+01	-2.725982e+00
1.181779e+01	-2.749448e+00
1.188605e+01	-2.772948e+00
1.195470e+01	-2.796328e+00
1.202375e+01	-2.820424e+00
1.209320e+01	-2.844262e+00
1.216305e+01	-2.868718e+00
1.223330e+01	-2.892470e+00
1.230396e+01	-2.917029e+00
1.237503e+01	-2.941744e+00
1.244651e+01	-2.966312e+00
1.251840e+01	-2.991308e+00
1.259070e+01	-3.016061e+00
1.266343e+01	-3.041326e+00
1.273657e+01	-3.066699e+00
1.281014e+01	-3.091943e+00
1.288413e+01	-3.117505e+00
1.295855e+01	-3.143077e+00
1.303339e+01	-3.169201e+00
1.310867e+01	-3.195042e+00
1.318439e+01	-3.221253e+00
1.326054e+01	-3.247243e+00
1.333713e+01	-3.273802e+00
1.341417e+01	-3.300461e+00
1.349165e+01	-3.326964e+00
1.356958e+01	-3.353682e+00
1.364795e+01	-3.381035e+00
1.372678e+01	-3.408210e+00
1.380607e+01	-3.435618e+00
1.388581e+01	-3.462866e+00
1.396602e+01	-3.490346e+00
1.404668e+01	-3.517702e+00
1.412782e+01	-3.546067e+00
1.420942e+01	-3.573866e+00
1.429149e+01	-3.601824e+00
1.437404e+01	-3.630441e+00
1.445706e+01	-3.658652e+00
1.454057e+01	-3.687179e+00
1.462455e+01	-3.715858e+00
1.470902e+01	-3.744885e+00
1.479398e+01	-3.773705e+00
1.487943e+01	-3.803024e+00
1.496537e+01	-3.831965e+00
1.505181e+01	-3.861452e+00
1.513875e+01	-3.891135e+00
1.522619e+01	-3.920783e+00
1.531414e+01	-3.950644e+00
1.540259e+01	-3.980446e+00
1.549156e+01	-4.010645e+00
1.558103e+01	-4.040516e+00
1.567103e+01	-4.070848e+00
1.576155e+01	-4.101504e+00
1.585258e+01	-4.132139e+00
1.594415e+01	-4.162916e+00
1.603624e+01	-4.193902e+00
1.612886e+01	-4.225257e+00
1.622202e+01	-4.256126e+00
1.631572e+01	-4.287412e+00
1.640996e+01	-4.319070e+00
1.650474e+01	-4.350611e+00
1.660008e+01	-4.382210e+00
1.669596e+01	-4.414157e+00
1.679239e+01	-4.446209e+00
1.688938e+01	-4.478306e+00
1.698694e+01	-4.510788e+00
1.708505e+01	-4.543018e+00
1.718373e+01	-4.575303e+00
1.728299e+01	-4.607956e+00
1.738281e+01	-4.641253e+00
1.748322e+01	-4.673780e+00
1.758420e+01	-4.706885e+00
1.768576e+01	-4.740018e+00
1.778792e+01	-4.773130e+00
1.789066e+01	-4.806731e+00
1.799399e+01	-4.840394e+00
1.809793e+01	-4.873862e+00
1.820246e+01	-4.907803e+00
1.830760e+01	-4.941703e+00
1.841334e+01	-4.975618e+00
1.851969e+01	-5.009809e+00
1.862666e+01	-5.044083e+00
1.873425e+01	-5.078518e+00
1.884246e+01	-5.113155e+00
1.895129e+01	-5.147815e+00
1.906075e+01	-5.182708e+00
1.917085e+01	-5.217476e+00
1.928158e+01	-5.252722e+00
1.939295e+01	-5.287509e+00
1.950496e+01	-5.323089e+00
1.961762e+01	-5.358346e+00
1.973093e+01	-5.393928e+00
1.984490e+01	-5.429509e+00
1.995952e+01	-5.464871e+00
2.007480e+01	-5.501240e+00
2.019076e+01	-5.536913e+00
2.030738e+01	-5.573325e+00
2.042467e+01	-5.609397e+00
2.054264e+01	-5.645970e+00
2.066130e+01	-5.681945e+00
2.078064e+01	-5.718910e+00
2.090066e+01	-5.755661e+00
2.102139e+01	-5.792154e+00
2.114280e+01	-5.829276e+00
2.126492e+01	-5.866132e+00
2.138775e+01	-5.903523e+00
2.151128e+01	-5.940497e+00
2.163553e+01	-5.977822e+00
2.176050e+01	-6.015183e+00
2.188619e+01	-6.052599e+00
2.201260e+01	-6.090530e+00
2.213974e+01	-6.128548e+00
2.226762e+01	-6.166203e+00
2.239624e+01	-6.204201e+00
2.252560e+01	-6.242481e+00
2.265571e+01	-6.280531e+00
2.278656e+01	-6.318698e+00
2.291818e+01	-6.357011e+00
2.305055e+01	-6.395938e+00
2.318369e+01	-6.434228e+00
2.331760e+01	-6.473286e+00
2.345228e+01	-6.511430e+00
2.358774e+01	-6.550948e+00
2.372398e+01	-6.589655e+00
2.386101e+01	-6.628910e+00
2.399883e+01	-6.667966e+00
2.413745e+01	-6.707252e+00
2.427686e+01	-6.746568e+00
2.441709e+01	-6.786212e+00
2.455812e+01	-6.825633e+00
2.469997e+01	-6.865426e+00
2.484263e+01	-6.905133e+00
2.498612e+01	-6.945120e+00
2.513044e+01	-6.985172e+00
2.527559e+01	-7.024873e+00
2.542158e+01	-7.065080e+00
2.556842e+01	-7.105427e+00
2.571610e+01	-7.145999e+00
2.586463e+01	-7.186450e+00
2.601403e+01	-7.226532e+00
2.616428e+01	-7.267077e+00
2.631541e+01	-7.308022e+00
2.646740e+01	-7.349013e+00
2.662028e+01	-7.389804e+00
2.677404e+01	-7.430434e+00
2.692868e+01	-7.471926e+00
2.708422e+01	-7.513095e+00
2.724066e+01	-7.554021e+00
2.739800e+01	-7.594993e+00
2.755625e+01	-7.636417e+00
2.771541e+01	-7.678042e+00
2.787550e+01	-7.719580e+00
2.803650e+01	-7.761181e+00
2.819844e+01	-7.802985e+00
2.836131e+01	-7.844784e+00
2.852513e+01	-7.886195e+00
2.868989e+01	-7.928477e+00
2.885560e+01	-7.970560e+00
2.902227e+01	-8.012426e+00
2.918990e+01	-8.054666e+00
2.935850e+01	-8.097293e+00
2.952807e+01	-8.139137e+00
2.969863e+01	-8.181907e+00
2.987016e+01	-8.224422e+00
3.004269e+01	-8.266848e+00
3.021622e+01	-8.308921e+00
3.039075e+01	-8.352078e+00
3.056628e+01	-8.394575e+00
3.074283e+01	-8.437202e+00
3.092040e+01	-8.480464e+00
3.109900e+01	-8.523144e+00
3.127862e+01	-8.566384e+00
3.145929e+01	-8.609427e+00
3.164099e+01	-8.652891e+00
3.182375e+01	-8.696061e+00
3.200756e+01	-8.739140e+00
3.219244e+01	-8.782076e+00
3.237838e+01	-8.825940e+00
3.256540e+01	-8.869425e+00
3.275349e+01	-8.913293e+00
3.294268e+01	-8.956925e+00
3.313295e+01	-9.000428e+00
3.332433e+01	-9.044176e+00
3.351681e+01	-9.087561e+00
3.371040e+01	-9.131917e+00
3.390511e+01	-9.175861e+00
3.410094e+01	-9.219744e+00
3.429791e+01	-9.264006e+00
3.449601e+01	-9.307686e+00
3.469526e+01	-9.351771e+00
3.489566e+01	-9.396422e+00
3.509721e+01	-9.441046e+00
3.529993e+01	-9.484931e+00
3.550382e+01	-9.529667e+00
3.570889e+01	-9.573910e+00
3.591515e+01	-9.618178e+00
3.612259e+01	-9.663471e+00
3.633123e+01	-9.707855e+00
3.654108e+01	-9.753271e+00
3.675214e+01	-9.796990e+00
3.696442e+01	-9.841989e+00
3.717792e+01	-9.886806e+00
3.739266e+01	-9.931788e+00
3.760864e+01	-9.977009e+00
3.782587e+01	-1.002184e+01
3.804435e+01	-1.006718e+01
3.826409e+01	-1.011226e+01
3.848510e+01	-1.015749e+01
3.870739e+01	-1.020269e+01
3.893096e+01	-1.024761e+01
3.915583e+01	-1.029316e+01
3.938199e+01	-1.033858e+01
3.960946e+01	-1.038381e+01
3.983824e+01	-1.042890e+01
4.006834e+01	-1.047492e+01
4.029978e+01	-1.052010e+01
4.053255e+01	-1.056596e+01
4.076666e+01	-1.061164e+01
4.100213e+01	-1.065780e+01
4.123896e+01	-1.070330e+01
4.147715e+01	-1.074903e+01
4.171672e+01	-1.079458e+01
4.195767e+01	-1.084089e+01
4.220002e+01	-1.088650e+01
4.244377e+01	-1.093223e+01
4.268892e+01	-1.097858e+01
4.293549e+01	-1.102468e+01
4.318348e+01	-1.107078e+01
4.343291e+01	-1.111696e+01
4.368377e+01	-1.116226e+01
4.393609e+01	-1.120961e+01
4.418986e+01	-1.125542e+01
4.444510e+01	-1.130117e+01
4.470182e+01	-1.134773e+01
4.496001e+01	-1.139493e+01
4.521970e+01	-1.144073e+01
4.548089e+01	-1.148694e+01
4.574358e+01	-1.153354e+01
4.600779e+01	-1.158038e+01
4.627353e+01	-1.162742e+01
4.654081e+01	-1.167278e+01
4.680963e+01	-1.171942e+01
4.708000e+01	-1.176620e+01
4.735193e+01	-1.181337e+01
4.762543e+01	-1.185992e+01
4.790051e+01	-1.190620e+01
4.817719e+01	-1.195302e+01
4.845545e+01	-1.200069e+01
4.873533e+01	-1.204774e+01
4.901682e+01	-1.209483e+01
4.929994e+01	-1.214100e+01
4.958470e+01	-1.218815e+01
4.987110e+01	-1.223512e+01
5.015915e+01	-1.228263e+01
5.044887e+01	-1.232977e+01
5.074026e+01	-1.237626e+01
5.103333e+01	-1.242342e+01
5.132810e+01	-1.246988e+01
5.162457e+01	-1.251895e+01
5.192275e+01	-1.256525e+01
5.222265e+01	-1.261327e+01
5.252429e+01	-1.266072e+01
5.282767e+01	-1.270787e+01
5.313280e+01	-1.275494e+01
5.343969e+01	-1.280258e+01
5.374836e+01	-1.284963e+01
5.405880e+01	-1.289656e+01
5.437105e+01	-1.294428e+01
5.468509e+01	-1.299165e+01
5.500095e+01	-1.303899e+01
5.531863e+01	-1.308774e+01
5.563815e+01	-1.313389e+01
5.595951e+01	-1.318215e+01
5.628273e+01	-1.323008e+01
5.660782e+01	-1.327843e+01
5.693479e+01	-1.332528e+01
5.726364e+01	-1.337246e+01
5.759439e+01	-1.342040e+01
5.792705e+01	-1.346861e+01
5.826164e+01	-1.351617e+01
5.859815e+01	-1.356423e+01
5.893662e+01	-1.361185e+01
5.927703e+01	-1.366055e+01
5.961941e+01	-1.370745e+01
5.996377e+01	-1.375570e+01
6.031012e+01	-1.380352e+01
6.065847e+01	-1.385052e+01
6.100883e+01	-1.389910e+01
6.136121e+01	-1.394748e+01
6.171563e+01	-1.399526e+01
6.207210e+01	-1.404372e+01
6.243063e+01	-1.409274e+01
6.279122e+01	-1.414016e+01
6.315390e+01	-1.418800e+01
6.351868e+01	-1.423565e+01
6.388556e+01	-1.428467e+01
6.425456e+01	-1.433300e+01
6.462569e+01	-1.438029e+01
6.499897e+01	-1.442915e+01
6.537440e+01	-1.447671e+01
6.575200e+01	-1.452521e+01
6.613178e+01	-1.457374e+01
6.651375e+01	-1.462197e+01
6.689793e+01	-1.467072e+01
6.728433e+01	-1.471871e+01
6.767297e+01	-1.476712e+01
6.806384e+01	-1.481553e+01
6.845698e+01	-1.486387e+01
6.885238e+01	-1.491146e+01
6.925007e+01	-1.496000e+01
6.965005e+01	-1.500883e+01
7.005235e+01	-1.505735e+01
7.045697e+01	-1.510542e+01
7.086393e+01	-1.515481e+01
7.127323e+01	-1.520245e+01
7.168490e+01	-1.525140e+01
7.209895e+01	-1.530050e+01
7.251539e+01	-1.534857e+01
7.293424e+01	-1.539661e+01
7.335551e+01	-1.544567e+01
7.377920e+01	-1.549401e+01
7.420535e+01	-1.554203e+01
7.463396e+01	-1.559148e+01
7.506504e+01	-1.564017e+01
7.549861e+01	-1.568865e+01
7.593469e+01	-1.573749e+01
7.637328e+01	-1.578672e+01
7.681441e+01	-1.583547e+01
7.725809e+01	-1.588319e+01
7.770433e+01	-1.593212e+01
7.815315e+01	-1.598161e+01
7.860456e+01	-1.602930e+01
7.905857e+01	-1.607830e+01
7.951521e+01	-1.612675e+01
7.997449e+01	-1.617528e+01
8.043642e+01	-1.622425e+01
8.090102e+01	-1.627448e+01
8.136830e+01	-1.632335e+01
8.183828e+01	-1.637261e+01
8.231097e+01	-1.642032e+01
8.278640e+01	-1.646983e+01
8.326457e+01	-1.651788e+01
8.374550e+01	-1.656724e+01
8.422921e+01	-1.661660e+01
8.471572e+01	-1.666432e+01
8.520503e+01	-1.671419e+01
8.569717e+01	-1.676229e+01
8.619215e+01	-1.681184e+01
8.669000e+01	-1.686097e+01
8.719071e+01	-1.690927e+01
8.769432e+01	-1.695921e+01
8.820084e+01	-1.700739e+01
8.871029e+01	-1.705772e+01
8.922267e+01	-1.710590e+01
8.973802e+01	-1.715567e+01
9.025634e+01	-1.720467e+01
9.077766e+01	-1.725304e+01
9.130199e+01	-1.730174e+01
9.182935e+01	-1.735205e+01
9.235975e+01	-1.740092e+01
9.289321e+01	-1.744977e+01
9.342976e+01	-1.749969e+01
9.396941e+01	-1.754732e+01
9.451217e+01	-1.759774e+01
9.505807e+01	-1.764670e+01
9.560712e+01	-1.769516e+01
9.615934e+01	-1.774447e+01
9.671476e+01	-1.779373e+01
9.727338e+01	-1.784333e+01
9.783522e+01	-1.789263e+01
9.840032e+01	-1.794119e+01
9.896867e+01	-1.799217e+01
9.954031e+01	-1.804044e+01
1.001153e+02	-1.808958e+01
1.006935e+02	-1.813853e+01
1.012751e+02	-1.818723e+01
1.018601e+02	-1.823657e+01
1.024484e+02	-1.828759e+01
1.030402e+02	-1.833617e+01
1.036353e+02	-1.838605e+01
1.042339e+02	-1.843503e+01
1.048360e+02	-1.848382e+01
1.054415e+02	-1.853277e+01
1.060505e+02	-1.858274e+01
1.066631e+02	-1.863140e+01
1.072791e+02	-1.867981e+01
1.078988e+02	-1.872961e+01
1.085220e+02	-1.878024e+01
1.091488e+02	-1.882866e+01
1.097793e+02	-1.887936e+01
1.104133e+02	-1.892764e+01
1.110511e+02	-1.897651e+01
1.116925e+02	-1.902682e+01
1.123376e+02	-1.907655e+01
1.129865e+02	-1.912656e+01
1.136391e+02	-1.917522e+01
1.142955e+02	-1.922515e+01
1.149556e+02	-1.927471e+01
1.156196e+02	-1.932404e+01
1.162874e+02	-1.937276e+01
1.169591e+02	-1.942386e+01
1.176347e+02	-1.947236e+01
1.183141e+02	-1.952184e+01
1.189975e+02	-1.957069e+01
1.196848e+02	-1.962023e+01
1.203761e+02	-1.966928e+01
1.210714e+02	-1.971857e+01
1.217707e+02	-1.976783e+01
1.224740e+02	-1.981810e+01
1.231814e+02	-1.986663e+01
1.238929e+02	-1.991731e+01
1.246085e+02	-1.996631e+01
1.253283e+02	-2.001659e+01
1.260522e+02	-2.006413e+01
1.267802e+02	-2.011516e+01
1.275125e+02	-2.016571e+01
1.282490e+02	-2.021530e+01
1.289898e+02	-2.026456e+01
1.297348e+02	-2.031414e+01
1.304842e+02	-2.036203e+01
1.312378e+02	-2.041302e+01
1.319959e+02	-2.046130e+01
1.327583e+02	-2.051141e+01
1.335251e+02	-2.056032e+01
1.342963e+02	-2.061291e+01
1.350720e+02	-2.066055e+01
1.358522e+02	-2.070973e+01
1.366368e+02	-2.076000e+01
1.374260e+02	-2.081104e+01
1.382198e+02	-2.085934e+01
1.390182e+02	-2.090787e+01
1.398211e+02	-2.095835e+01
1.406287e+02	-2.100694e+01
1.414410e+02	-2.105921e+01
1.422579e+02	-2.110639e+01
1.430796e+02	-2.115888e+01
1.439060e+02	-2.120586e+01
1.447372e+02	-2.125445e+01
1.455732e+02	-2.130572e+01
1.464141e+02	-2.135469e+01
1.472597e+02	-2.140621e+01
1.481103e+02	-2.145688e+01
1.489658e+02	-2.150554e+01
1.498262e+02	-2.155457e+01
1.506916e+02	-2.160412e+01
1.515620e+02	-2.165336e+01
1.524374e+02	-2.170452e+01
1.533179e+02	-2.175460e+01
1.542034e+02	-2.180371e+01
1.550941e+02	-2.185301e+01
1.559899e+02	-2.190346e+01
1.568909e+02	-2.195372e+01
1.577971e+02	-2.200070e+01
1.587085e+02	-2.205265e+01
1.596252e+02	-2.209963e+01
1.605472e+02	-2.215301e+01
1.614745e+02	-2.220184e+01
1.624072e+02	-2.225085e+01
1.633453e+02	-2.229916e+01
1.642887e+02	-2.234987e+01
1.652377e+02	-2.239936e+01
1.661921e+02	-2.245071e+01
1.671520e+02	-2.250034e+01
1.681175e+02	-2.254901e+01
1.690885e+02	-2.259896e+01
1.700651e+02	-2.264969e+01
1.710474e+02	-2.269707e+01
1.720354e+02	-2.274928e+01
1.730291e+02	-2.279612e+01
1.740285e+02	-2.284736e+01
1.750337e+02	-2.289698e+01
1.760446e+02	-2.294632e+01
1.770615e+02	-2.299969e+01
1.780842e+02	-2.304578e+01
1.791128e+02	-2.309512e+01
1.801473e+02	-2.314833e+01
1.811878e+02	-2.319802e+01
1.822344e+02	-2.324516e+01
1.832870e+02	-2.329517e+01
1.843456e+02	-2.334316e+01
1.854104e+02	-2.339637e+01
1.864813e+02	-2.344431e+01
1.875584e+02	-2.349413e+01
1.886418e+02	-2.354407e+01
1.897313e+02	-2.359520e+01
1.908272e+02	-2.364537e+01
1.919294e+02	-2.369274e+01
1.930380e+02	-2.374562e+01
1.941530e+02	-2.379246e+01
1.952744e+02	-2.384367e+01
1.964023e+02	-2.389498e+01
1.975367e+02	-2.394419e+01
1.986777e+02	-2.399338e+01
1.998252e+02	-2.404405e+01
2.009794e+02	-2.409207e+01
2.021403e+02	-2.414298e+01
2.033078e+02	-2.419156e+01
2.044821e+02	-2.424356e+01
2.056632e+02	-2.429316e+01
2.068511e+02	-2.434439e+01
2.080459e+02	-2.439344e+01
2.092475e+02	-2.444454e+01
2.104561e+02	-2.448992e+01
2.116717e+02	-2.454206e+01
2.128943e+02	-2.459124e+01
2.141240e+02	-2.464165e+01
2.153608e+02	-2.469015e+01
2.166047e+02	-2.474283e+01
2.178558e+02	-2.479048e+01
2.191141e+02	-2.483972e+01
2.203797e+02	-2.489181e+01
2.216526e+02	-2.494502e+01
2.229329e+02	-2.499296e+01
2.242205e+02	-2.504058e+01
2.255156e+02	-2.508897e+01
2.268182e+02	-2.514372e+01
2.281283e+02	-2.519346e+01
2.294459e+02	-2.524108e+01
2.307712e+02	-2.529079e+01
2.321041e+02	-2.534131e+01
2.334447e+02	-2.539170e+01
2.347931e+02	-2.543890e+01
2.361493e+02	-2.548844e+01
2.375133e+02	-2.554149e+01
2.388851e+02	-2.559209e+01
2.402649e+02	-2.564075e+01
2.416527e+02	-2.568786e+01
2.430484e+02	-2.574082e+01
2.444523e+02	-2.579204e+01
2.458642e+02	-2.584107e+01
2.472843e+02	-2.589346e+01
2.487126e+02	-2.593896e+01
2.501492e+02	-2.599196e+01
2.515940e+02	-2.603993e+01
2.530472e+02	-2.608819e+01
2.545088e+02	-2.613830e+01
2.559789e+02	-2.619117e+01
2.574574e+02	-2.624078e+01
2.589444e+02	-2.629276e+01
2.604401e+02	-2.634216e+01
2.619444e+02	-2.638948e+01
2.634574e+02	-2.644170e+01
2.649791e+02	-2.649081e+01
2.665096e+02	-2.654005e+01
2.680489e+02	-2.659133e+01
2.695972e+02	-2.663663e+01
2.711544e+02	-2.668943e+01
2.727205e+02	-2.673631e+01
2.742958e+02	-2.679119e+01
2.758801e+02	-2.683832e+01
2.774736e+02	-2.689059e+01
2.790762e+02	-2.694228e+01
2.806882e+02	-2.699038e+01
2.823094e+02	-2.704000e+01
2.839400e+02	-2.709068e+01
2.855800e+02	-2.713950e+01
2.872295e+02	-2.718695e+01
2.888886e+02	-2.723696e+01
2.905572e+02	-2.728840e+01
2.922354e+02	-2.733790e+01
2.939234e+02	-2.738847e+01
2.956211e+02	-2.744020e+01
2.973286e+02	-2.749256e+01
2.990459e+02	-2.753685e+01
3.007732e+02	-2.758758e+01
3.025104e+02	-2.763867e+01
3.042577e+02	-2.768691e+01
3.060151e+02	-2.773552e+01
3.077826e+02	-2.778788e+01
3.095604e+02	-2.783905e+01
3.113484e+02	-2.788804e+01
3.131467e+02	-2.794006e+01
3.149554e+02	-2.799030e+01
3.167746e+02	-2.803932e+01
3.186043e+02	-2.808754e+01
3.204445e+02	-2.814111e+01
3.222954e+02	-2.818917e+01
3.241570e+02	-2.823911e+01
3.260293e+02	-2.828652e+01
3.279124e+02	-2.833613e+01
3.298064e+02	-2.839096e+01
3.317114e+02	-2.844270e+01
3.336273e+02	-2.848828e+01
3.355544e+02	-2.854287e+01
3.374925e+02	-2.859026e+01
3.394418e+02	-2.863748e+01
3.414024e+02	-2.869044e+01
3.433744e+02	-2.874027e+01
3.453577e+02	-2.879007e+01
3.473525e+02	-2.884130e+01
3.493588e+02	-2.889162e+01
3.513766e+02	-2.894140e+01
3.534062e+02	-2.899142e+01
3.554474e+02	-2.904278e+01
3.575005e+02	-2.909239e+01
3.595654e+02	-2.914300e+01
3.616422e+02	-2.919323e+01
3.637311e+02	-2.924330e+01
3.658320e+02	-2.929249e+01
3.679450e+02	-2.934247e+01
3.700702e+02	-2.939035e+01
3.722077e+02	-2.944238e+01
3.743576e+02	-2.948891e+01
3.765199e+02	-2.954422e+01
3.786946e+02	-2.959259e+01
3.808820e+02	-2.964287e+01
3.830819e+02	-2.968978e+01
3.852946e+02	-2.974326e+01
3.875200e+02	-2.979122e+01
3.897583e+02	-2.984295e+01
3.920096e+02	-2.988994e+01
3.942738e+02	-2.994382e+01
3.965511e+02	-2.999473e+01
3.988416e+02	-3.004043e+01
4.011452e+02	-3.009411e+01
4.034622e+02	-3.014234e+01
4.057926e+02	-3.018971e+01
4.081365e+02	-3.024189e+01
4.104938e+02	-3.029300e+01
4.128648e+02	-3.034089e+01
4.152495e+02	-3.039307e+01
4.176480e+02	-3.044169e+01
4.200603e+02	-3.049052e+01
4.224866e+02	-3.054339e+01
4.249268e+02	-3.058917e+01
4.273812e+02	-3.064363e+01
4.298497e+02	-3.069407e+01
4.323325e+02	-3.074451e+01
4.348297e+02	-3.079772e+01
4.373412e+02	-3.085198e+01
4.398673e+02	-3.089091e+01
4.424079e+02	-3.094711e+01
4.449633e+02	-3.098792e+01
4.475334e+02	-3.104104e+01
4.501183e+02	-3.109465e+01
4.527182e+02	-3.113920e+01
4.553330e+02	-3.119754e+01
4.579630e+02	-3.124578e+01
4.606082e+02	-3.129459e+01
4.632687e+02	-3.135140e+01
4.659445e+02	-3.139691e+01
4.686358e+02	-3.144747e+01
4.713426e+02	-3.149391e+01
4.740650e+02	-3.154534e+01
4.768032e+02	-3.159906e+01
4.795572e+02	-3.164474e+01
4.823271e+02	-3.169679e+01
4.851130e+02	-3.174900e+01
4.879150e+02	-3.179266e+01
4.907332e+02	-3.185139e+01
4.935676e+02	-3.190201e+01
4.964185e+02	-3.194259e+01
4.992858e+02	-3.199949e+01
5.021696e+02	-3.205071e+01
5.050701e+02	-3.209788e+01
5.079874e+02	-3.214669e+01
5.109215e+02	-3.219547e+01
5.138726e+02	-3.224998e+01
5.168407e+02	-3.230134e+01
5.198259e+02	-3.234550e+01
5.228284e+02	-3.239691e+01
5.258482e+02	-3.244917e+01
5.288855e+02	-3.249792e+01
5.319403e+02	-3.254819e+01
5.350128e+02	-3.260449e+01
5.381030e+02	-3.264996e+01
5.412111e+02	-3.270508e+01
5.443371e+02	-3.274503e+01
5.474812e+02	-3.279018e+01
5.506434e+02	-3.285446e+01
5.538239e+02	-3.290539e+01
5.570228e+02	-3.295337e+01
5.602401e+02	-3.300938e+01
5.634760e+02	-3.305463e+01
5.667306e+02	-3.310319e+01
5.700040e+02	-3.315633e+01
5.732964e+02	-3.320513e+01
5.766077e+02	-3.325655e+01
5.799382e+02	-3.329857e+01
5.832879e+02	-3.335551e+01
5.866569e+02	-3.340797e+01
5.900454e+02	-3.345248e+01
5.934535e+02	-3.350350e+01
5.968813e+02	-3.355392e+01
6.003288e+02	-3.360534e+01
6.037963e+02	-3.365245e+01
6.072838e+02	-3.370018e+01
6.107914e+02	-3.375984e+01
6.143194e+02	-3.380779e+01
6.178676e+02	-3.385685e+01
6.214364e+02	-3.390879e+01
6.250258e+02	-3.396417e+01
6.286359e+02	-3.400914e+01
6.322669e+02	-3.405740e+01
6.359189e+02	-3.410355e+01
6.395919e+02	-3.416682e+01
6.432862e+02	-3.421214e+01
6.470017e+02	-3.425761e+01
6.507388e+02	-3.429683e+01
6.544974e+02	-3.435981e+01
6.582778e+02	-3.440555e+01
6.620800e+02	-3.445887e+01
6.659041e+02	-3.450945e+01
6.697504e+02	-3.456352e+01
6.736188e+02	-3.460760e+01
6.775096e+02	-3.465829e+01
6.814229e+02	-3.471342e+01
6.853587e+02	-3.475586e+01
6.893173e+02	-3.481568e+01
6.932988e+02	-3.486558e+01
6.973033e+02	-3.490989e+01
7.013309e+02	-3.496090e+01
