Frequency(Hz)	Magnitude(dB)
1.000000e+01	-1.780683e-05
1.005776e+01	-1.801313e-05
1.011585e+01	-1.822181e-05
1.017428e+01	-1.843292e-05
1.023305e+01	-1.864647e-05
1.029215e+01	-1.886249e-05
1.035160e+01	-1.908102e-05
1.041139e+01	-1.930208e-05
1.047153e+01	-1.952570e-05
1.053201e+01	-1.975191e-05
1.059284e+01	-1.998074e-05
1.065403e+01	-2.021222e-05
1.071556e+01	-2.044638e-05
1.077746e+01	-2.068326e-05
1.083971e+01	-2.092288e-05
1.090232e+01	-2.116528e-05
1.096529e+01	-2.141048e-05
1.102862e+01	-2.165853e-05
1.109232e+01	-2.190945e-05
1.115639e+01	-2.216328e-05
1.122083e+01	-2.242004e-05
1.128564e+01	-2.267978e-05
1.135083e+01	-2.294254e-05
1.141639e+01	-2.320833e-05
1.148233e+01	-2.347720e-05
1.154865e+01	-2.374919e-05
1.161536e+01	-2.402433e-05
1.168245e+01	-2.430266e-05
1.174992e+01	-2.458421e-05
1.181779e+01	-2.486903e-05
1.188605e+01	-2.515714e-05
1.195470e+01	-2.544859e-05
1.202375e+01	-2.574342e-05
1.209320e+01	-2.604167e-05
1.216305e+01	-2.634337e-05
1.223330e+01	-2.664856e-05
1.230396e+01	-2.695729e-05
1.237503e+01	-2.726960e-05
1.244651e+01	-2.758552e-05
1.251840e+01	-2.790511e-05
1.259070e+01	-2.822839e-05
1.266343e+01	-2.855543e-05
1.273657e+01	-2.888625e-05
1.281014e+01	-2.922090e-05
1.288413e+01	-2.955943e-05
1.295855e+01	-2.990189e-05
1.303339e+01	-3.024831e-05
1.310867e+01	-3.059874e-05
1.318439e+01	-3.095323e-05
1.326054e+01	-3.131184e-05
1.333713e+01	-3.167459e-05
1.341417e+01	-3.204155e-05
1.349165e+01	-3.241276e-05
1.356958e+01	-3.278827e-05
1.364795e+01	-3.316813e-05
1.372678e+01	-3.355239e-05
1.380607e+01	-3.394110e-05
1.388581e+01	-3.433431e-05
1.396602e+01	-3.473209e-05
1.404668e+01	-3.513446e-05
1.412782e+01	-3.554151e-05
1.420942e+01	-3.595326e-05
1.429149e+01	-3.636979e-05
1.437404e+01	-3.679114e-05
1.445706e+01	-3.721738e-05
1.454057e+01	-3.764855e-05
1.462455e+01	-3.808471e-05
1.470902e+01	-3.852593e-05
1.479398e+01	-3.897227e-05
1.487943e+01	-3.942377e-05
1.496537e+01	-3.988050e-05
1.505181e+01	-4.034253e-05
1.513875e+01	-4.080990e-05
1.522619e+01	-4.128270e-05
1.531414e+01	-4.176097e-05
1.540259e+01	-4.224478e-05
1.549156e+01	-4.273419e-05
1.558103e+01	-4.322928e-05
1.567103e+01	-4.373010e-05
1.576155e+01	-4.423672e-05
1.585258e+01	-4.474921e-05
1.594415e+01	-4.526764e-05
1.603624e+01	-4.579208e-05
1.612886e+01	-4.632259e-05
1.622202e+01	-4.685925e-05
1.631572e+01	-4.740212e-05
1.640996e+01	-4.795128e-05
1.650474e+01	-4.850681e-05
1.660008e+01	-4.906877e-05
1.669596e+01	-4.963724e-05
1.679239e+01	-5.021230e-05
1.688938e+01	-5.079402e-05
1.698694e+01	-5.138248e-05
1.708505e+01	-5.197776e-05
1.718373e+01	-5.257993e-05
1.728299e+01	-5.318908e-05
1.738281e+01	-5.380529e-05
1.748322e+01	-5.442863e-05
1.758420e+01	-5.505920e-05
1.768576e+01	-5.569707e-05
1.778792e+01	-5.634233e-05
1.789066e+01	-5.699507e-05
1.799399e+01	-5.765537e-05
1.809793e+01	-5.832332e-05
1.820246e+01	-5.899901e-05
1.830760e+01	-5.968252e-05
1.841334e+01	-6.037396e-05
1.851969e+01	-6.107340e-05
1.862666e+01	-6.178095e-05
1.873425e+01	-6.249669e-05
1.884246e+01	-6.322073e-05
1.895129e+01	-6.395315e-05
1.906075e+01	-6.469406e-05
1.917085e+01	-6.544356e-05
1.928158e+01	-6.620173e-05
1.939295e+01	-6.696869e-05
1.950496e+01	-6.774454e-05
1.961762e+01	-6.852937e-05
1.973093e+01	-6.932330e-05
1.984490e+01	-7.012642e-05
1.995952e+01	-7.093885e-05
2.007480e+01	-7.176069e-05
2.019076e+01	-7.259205e-05
2.030738e+01	-7.343304e-05
2.042467e+01	-7.428377e-05
2.054264e+01	-7.514436e-05
2.066130e+01	-7.601493e-05
2.078064e+01	-7.689557e-05
2.090066e+01	-7.778642e-05
2.102139e+01	-7.868759e-05
2.114280e+01	-7.959920e-05
2.126492e+01	-8.052137e-05
2.138775e+01	-8.145422e-05
2.151128e+01	-8.239788e-05
2.163553e+01	-8.335248e-05
2.176050e+01	-8.431813e-05
2.188619e+01	-8.529497e-05
2.201260e+01	-8.628313e-05
2.213974e+01	-8.728273e-05
2.226762e+01	-8.829391e-05
2.239624e+01	-8.931681e-05
2.252560e+01	-9.035156e-05
2.265571e+01	-9.139830e-05
2.278656e+01	-9.245716e-05
2.291818e+01	-9.352829e-05
2.305055e+01	-9.461183e-05
2.318369e+01	-9.570793e-05
2.331760e+01	-9.681672e-05
2.345228e+01	-9.793835e-05
2.358774e+01	-9.907298e-05
2.372398e+01	-1.002208e-04
2.386101e+01	-1.013818e-04
2.399883e+01	-1.025564e-04
2.413745e+01	-1.037445e-04
2.427686e+01	-1.049464e-04
2.441709e+01	-1.061622e-04
2.455812e+01	-1.073921e-04
2.469997e+01	-1.086363e-04
2.484263e+01	-1.098948e-04
2.498612e+01	-1.111680e-04
2.513044e+01	-1.124559e-04
2.527559e+01	-1.137587e-04
2.542158e+01	-1.150766e-04
2.556842e+01	-1.164098e-04
2.571610e+01	-1.177584e-04
2.586463e+01	-1.191226e-04
2.601403e+01	-1.205027e-04
2.616428e+01	-1.218987e-04
2.631541e+01	-1.233109e-04
2.646740e+01	-1.247395e-04
2.662028e+01	-1.261846e-04
2.677404e+01	-1.276465e-04
2.692868e+01	-1.291253e-04
2.708422e+01	-1.306212e-04
2.724066e+01	-1.321345e-04
2.739800e+01	-1.336653e-04
2.755625e+01	-1.352138e-04
2.771541e+01	-1.367802e-04
2.787550e+01	-1.383649e-04
2.803650e+01	-1.399678e-04
2.819844e+01	-1.415894e-04
2.836131e+01	-1.432297e-04
2.852513e+01	-1.448890e-04
2.868989e+01	-1.465676e-04
2.885560e+01	-1.482656e-04
2.902227e+01	-1.499832e-04
2.918990e+01	-1.517208e-04
2.935850e+01	-1.534785e-04
2.952807e+01	-1.552566e-04
2.969863e+01	-1.570552e-04
2.987016e+01	-1.588747e-04
3.004269e+01	-1.607153e-04
3.021622e+01	-1.625772e-04
3.039075e+01	-1.644607e-04
3.056628e+01	-1.663659e-04
3.074283e+01	-1.682933e-04
3.092040e+01	-1.702430e-04
3.109900e+01	-1.722153e-04
3.127862e+01	-1.742104e-04
3.145929e+01	-1.762286e-04
3.164099e+01	-1.782702e-04
3.182375e+01	-1.803355e-04
3.200756e+01	-1.824247e-04
3.219244e+01	-1.845381e-04
3.237838e+01	-1.866760e-04
3.256540e+01	-1.888386e-04
3.275349e+01	-1.910263e-04
3.294268e+01	-1.932394e-04
3.313295e+01	-1.954780e-04
3.332433e+01	-1.977427e-04
3.351681e+01	-2.000335e-04
3.371040e+01	-2.023509e-04
3.390511e+01	-2.046951e-04
3.410094e+01	-2.070665e-04
3.429791e+01	-2.094654e-04
3.449601e+01	-2.118920e-04
3.469526e+01	-2.143468e-04
3.489566e+01	-2.168300e-04
3.509721e+01	-2.193420e-04
3.529993e+01	-2.218831e-04
3.550382e+01	-2.244536e-04
3.570889e+01	-2.270539e-04
3.591515e+01	-2.296843e-04
3.612259e+01	-2.323452e-04
3.633123e+01	-2.350369e-04
3.654108e+01	-2.377598e-04
3.675214e+01	-2.405142e-04
3.696442e+01	-2.433005e-04
3.717792e+01	-2.461192e-04
3.739266e+01	-2.489704e-04
3.760864e+01	-2.518548e-04
3.782587e+01	-2.547725e-04
3.804435e+01	-2.577240e-04
3.826409e+01	-2.607097e-04
3.848510e+01	-2.637300e-04
3.870739e+01	-2.667853e-04
3.893096e+01	-2.698760e-04
3.915583e+01	-2.730025e-04
3.938199e+01	-2.761652e-04
3.960946e+01	-2.793645e-04
3.983824e+01	-2.826010e-04
4.006834e+01	-2.858749e-04
4.029978e+01	-2.891867e-04
4.053255e+01	-2.925369e-04
4.076666e+01	-2.959259e-04
4.100213e+01	-2.993542e-04
4.123896e+01	-3.028221e-04
4.147715e+01	-3.063303e-04
4.171672e+01	-3.098791e-04
4.195767e+01	-3.134690e-04
4.220002e+01	-3.171005e-04
4.244377e+01	-3.207740e-04
4.268892e+01	-3.244902e-04
4.293549e+01	-3.282493e-04
4.318348e+01	-3.320520e-04
4.343291e+01	-3.358988e-04
4.368377e+01	-3.397901e-04
4.393609e+01	-3.437265e-04
4.418986e+01	-3.477086e-04
4.444510e+01	-3.517367e-04
4.470182e+01	-3.558115e-04
4.496001e+01	-3.599335e-04
4.521970e+01	-3.641032e-04
4.548089e+01	-3.683213e-04
4.574358e+01	-3.725882e-04
4.600779e+01	-3.769046e-04
4.627353e+01	-3.812709e-04
4.654081e+01	-3.856879e-04
4.680963e+01	-3.901560e-04
4.708000e+01	-3.946758e-04
4.735193e+01	-3.992480e-04
4.762543e+01	-4.038732e-04
4.790051e+01	-4.085520e-04
4.817719e+01	-4.132849e-04
4.845545e+01	-4.180727e-04
4.873533e+01	-4.229160e-04
4.901682e+01	-4.278153e-04
4.929994e+01	-4.327715e-04
4.958470e+01	-4.377850e-04
4.987110e+01	-4.428566e-04
5.015915e+01	-4.479869e-04
5.044887e+01	-4.531767e-04
5.074026e+01	-4.584266e-04
5.103333e+01	-4.637373e-04
5.132810e+01	-4.691096e-04
5.162457e+01	-4.745440e-04
5.192275e+01	-4.800415e-04
5.222265e+01	-4.856026e-04
5.252429e+01	-4.912281e-04
5.282767e+01	-4.969188e-04
5.313280e+01	-5.026754e-04
5.343969e+01	-5.084987e-04
5.374836e+01	-5.143894e-04
5.405880e+01	-5.203484e-04
5.437105e+01	-5.263764e-04
5.468509e+01	-5.324743e-04
5.500095e+01	-5.386427e-04
5.531863e+01	-5.448827e-04
5.563815e+01	-5.511949e-04
5.595951e+01	-5.575802e-04
5.628273e+01	-5.640395e-04
5.660782e+01	-5.705737e-04
5.693479e+01	-5.771835e-04
5.726364e+01	-5.838698e-04
5.759439e+01	-5.906337e-04
5.792705e+01	-5.974759e-04
5.826164e+01	-6.043973e-04
5.859815e+01	-6.113989e-04
5.893662e+01	-6.184816e-04
5.927703e+01	-6.256464e-04
5.961941e+01	-6.328942e-04
5.996377e+01	-6.402259e-04
6.031012e+01	-6.476425e-04
6.065847e+01	-6.551451e-04
6.100883e+01	-6.627345e-04
6.136121e+01	-6.704119e-04
6.171563e+01	-6.781782e-04
6.207210e+01	-6.860344e-04
6.243063e+01	-6.939817e-04
6.279122e+01	-7.020210e-04
6.315390e+01	-7.101535e-04
6.351868e+01	-7.183801e-04
6.388556e+01	-7.267020e-04
6.425456e+01	-7.351204e-04
6.462569e+01	-7.436362e-04
6.499897e+01	-7.522507e-04
6.537440e+01	-7.609650e-04
6.575200e+01	-7.697802e-04
6.613178e+01	-7.786975e-04
6.651375e+01	-7.877181e-04
6.689793e+01	-7.968432e-04
6.728433e+01	-8.060740e-04
6.767297e+01	-8.154117e-04
6.806384e+01	-8.248576e-04
6.845698e+01	-8.344128e-04
6.885238e+01	-8.440788e-04
6.925007e+01	-8.538567e-04
6.965005e+01	-8.637479e-04
7.005235e+01	-8.737537e-04
7.045697e+01	-8.838753e-04
7.086393e+01	-8.941142e-04
7.127323e+01	-9.044717e-04
7.168490e+01	-9.149491e-04
7.209895e+01	-9.255479e-04
7.251539e+01	-9.362695e-04
7.293424e+01	-9.471152e-04
7.335551e+01	-9.580866e-04
7.377920e+01	-9.691851e-04
7.420535e+01	-9.804121e-04
7.463396e+01	-9.917691e-04
7.506504e+01	-1.003258e-03
7.549861e+01	-1.014879e-03
7.593469e+01	-1.026636e-03
7.637328e+01	-1.038528e-03
7.681441e+01	-1.050558e-03
7.725809e+01	-1.062728e-03
7.770433e+01	-1.075038e-03
7.815315e+01	-1.087491e-03
7.860456e+01	-1.100089e-03
7.905857e+01	-1.112832e-03
7.951521e+01	-1.125723e-03
7.997449e+01	-1.138763e-03
8.043642e+01	-1.151954e-03
8.090102e+01	-1.165298e-03
8.136830e+01	-1.178796e-03
8.183828e+01	-1.192451e-03
8.231097e+01	-1.206264e-03
8.278640e+01	-1.220237e-03
8.326457e+01	-1.234372e-03
8.374550e+01	-1.248670e-03
8.422921e+01	-1.263134e-03
8.471572e+01	-1.277766e-03
8.520503e+01	-1.292567e-03
8.569717e+01	-1.307539e-03
8.619215e+01	-1.322685e-03
8.669000e+01	-1.338006e-03
8.719071e+01	-1.353505e-03
8.769432e+01	-1.369183e-03
8.820084e+01	-1.385043e-03
8.871029e+01	-1.401087e-03
8.922267e+01	-1.417316e-03
8.973802e+01	-1.433733e-03
9.025634e+01	-1.450341e-03
9.077766e+01	-1.467141e-03
9.130199e+01	-1.484135e-03
9.182935e+01	-1.501326e-03
9.235975e+01	-1.518716e-03
9.289321e+01	-1.536308e-03
9.342976e+01	-1.554103e-03
9.396941e+01	-1.572105e-03
9.451217e+01	-1.590315e-03
9.505807e+01	-1.608735e-03
9.560712e+01	-1.627369e-03
9.615934e+01	-1.646219e-03
9.671476e+01	-1.665288e-03
9.727338e+01	-1.684577e-03
9.783522e+01	-1.704089e-03
9.840032e+01	-1.723828e-03
9.896867e+01	-1.743795e-03
9.954031e+01	-1.763993e-03
1.001153e+02	-1.784425e-03
1.006935e+02	-1.805094e-03
1.012751e+02	-1.826002e-03
1.018601e+02	-1.847152e-03
1.024484e+02	-1.868547e-03
1.030402e+02	-1.890190e-03
1.036353e+02	-1.912084e-03
1.042339e+02	-1.934231e-03
1.048360e+02	-1.956634e-03
1.054415e+02	-1.979297e-03
1.060505e+02	-2.002222e-03
1.066631e+02	-2.025413e-03
1.072791e+02	-2.048873e-03
1.078988e+02	-2.072604e-03
1.085220e+02	-2.096610e-03
1.091488e+02	-2.120894e-03
1.097793e+02	-2.145459e-03
1.104133e+02	-2.170308e-03
1.110511e+02	-2.195445e-03
1.116925e+02	-2.220874e-03
1.123376e+02	-2.246596e-03
1.129865e+02	-2.272617e-03
1.136391e+02	-2.298939e-03
1.142955e+02	-2.325566e-03
1.149556e+02	-2.352500e-03
1.156196e+02	-2.379747e-03
1.162874e+02	-2.407310e-03
1.169591e+02	-2.435191e-03
1.176347e+02	-2.463396e-03
1.183141e+02	-2.491926e-03
1.189975e+02	-2.520788e-03
1.196848e+02	-2.549983e-03
1.203761e+02	-2.579517e-03
1.210714e+02	-2.609392e-03
1.217707e+02	-2.639613e-03
1.224740e+02	-2.670184e-03
1.231814e+02	-2.701110e-03
1.238929e+02	-2.732393e-03
1.246085e+02	-2.764038e-03
1.253283e+02	-2.796050e-03
1.260522e+02	-2.828432e-03
1.267802e+02	-2.861190e-03
1.275125e+02	-2.894326e-03
1.282490e+02	-2.927846e-03
1.289898e+02	-2.961755e-03
1.297348e+02	-2.996056e-03
1.304842e+02	-3.030754e-03
1.312378e+02	-3.065853e-03
1.319959e+02	-3.101359e-03
1.327583e+02	-3.137276e-03
1.335251e+02	-3.173609e-03
1.342963e+02	-3.210363e-03
1.350720e+02	-3.247542e-03
1.358522e+02	-3.285151e-03
1.366368e+02	-3.323196e-03
1.374260e+02	-3.361681e-03
1.382198e+02	-3.400612e-03
1.390182e+02	-3.439993e-03
1.398211e+02	-3.479830e-03
1.406287e+02	-3.520129e-03
1.414410e+02	-3.560893e-03
1.422579e+02	-3.602130e-03
1.430796e+02	-3.643844e-03
1.439060e+02	-3.686041e-03
1.447372e+02	-3.728727e-03
1.455732e+02	-3.771906e-03
1.464141e+02	-3.815585e-03
1.472597e+02	-3.859770e-03
1.481103e+02	-3.904466e-03
1.489658e+02	-3.949680e-03
1.498262e+02	-3.995417e-03
1.506916e+02	-4.041683e-03
1.515620e+02	-4.088485e-03
1.524374e+02	-4.135829e-03
1.533179e+02	-4.183720e-03
1.542034e+02	-4.232166e-03
1.550941e+02	-4.281173e-03
1.559899e+02	-4.330746e-03
1.568909e+02	-4.380894e-03
1.577971e+02	-4.431622e-03
1.587085e+02	-4.482937e-03
1.596252e+02	-4.534846e-03
1.605472e+02	-4.587355e-03
1.614745e+02	-4.640472e-03
1.624072e+02	-4.694204e-03
1.633453e+02	-4.748558e-03
1.642887e+02	-4.803541e-03
1.652377e+02	-4.859160e-03
1.661921e+02	-4.915423e-03
1.671520e+02	-4.972336e-03
1.681175e+02	-5.029909e-03
1.690885e+02	-5.088147e-03
1.700651e+02	-5.147060e-03
1.710474e+02	-5.206654e-03
1.720354e+02	-5.266938e-03
1.730291e+02	-5.327919e-03
1.740285e+02	-5.389606e-03
1.750337e+02	-5.452007e-03
1.760446e+02	-5.515129e-03
1.770615e+02	-5.578982e-03
1.780842e+02	-5.643574e-03
1.791128e+02	-5.708913e-03
1.801473e+02	-5.775008e-03
1.811878e+02	-5.841868e-03
1.822344e+02	-5.909502e-03
1.832870e+02	-5.977918e-03
1.843456e+02	-6.047125e-03
1.854104e+02	-6.117133e-03
1.864813e+02	-6.187951e-03
1.875584e+02	-6.259588e-03
1.886418e+02	-6.332054e-03
1.897313e+02	-6.405358e-03
1.908272e+02	-6.479510e-03
1.919294e+02	-6.554520e-03
1.930380e+02	-6.630398e-03
1.941530e+02	-6.707153e-03
1.952744e+02	-6.784797e-03
1.964023e+02	-6.863338e-03
1.975367e+02	-6.942788e-03
1.986777e+02	-7.023156e-03
1.998252e+02	-7.104455e-03
2.009794e+02	-7.186693e-03
2.021403e+02	-7.269883e-03
2.033078e+02	-7.354035e-03
2.044821e+02	-7.439160e-03
2.056632e+02	-7.525270e-03
2.068511e+02	-7.612376e-03
2.080459e+02	-7.700488e-03
2.092475e+02	-7.789620e-03
2.104561e+02	-7.879783e-03
2.116717e+02	-7.970988e-03
2.128943e+02	-8.063248e-03
2.141240e+02	-8.156575e-03
2.153608e+02	-8.250981e-03
2.166047e+02	-8.346478e-03
2.178558e+02	-8.443080e-03
2.191141e+02	-8.540799e-03
2.203797e+02	-8.639648e-03
2.216526e+02	-8.739639e-03
2.229329e+02	-8.840787e-03
2.242205e+02	-8.943104e-03
2.255156e+02	-9.046603e-03
2.268182e+02	-9.151300e-03
2.281283e+02	-9.257207e-03
2.294459e+02	-9.364338e-03
2.307712e+02	-9.472707e-03
2.321041e+02	-9.582329e-03
2.334447e+02	-9.693219e-03
2.347931e+02	-9.805390e-03
2.361493e+02	-9.918858e-03
2.375133e+02	-1.003364e-02
2.388851e+02	-1.014974e-02
2.402649e+02	-1.026719e-02
2.416527e+02	-1.038600e-02
2.430484e+02	-1.050617e-02
2.444523e+02	-1.062774e-02
2.458642e+02	-1.075071e-02
2.472843e+02	-1.087511e-02
2.487126e+02	-1.100094e-02
2.501492e+02	-1.112822e-02
2.515940e+02	-1.125698e-02
2.530472e+02	-1.138722e-02
2.545088e+02	-1.151897e-02
2.559789e+02	-1.165224e-02
2.574574e+02	-1.178705e-02
2.589444e+02	-1.192342e-02
2.604401e+02	-1.206136e-02
2.619444e+02	-1.220090e-02
2.634574e+02	-1.234205e-02
2.649791e+02	-1.248483e-02
2.665096e+02	-1.262926e-02
2.680489e+02	-1.277535e-02
2.695972e+02	-1.292314e-02
2.711544e+02	-1.307263e-02
2.727205e+02	-1.322385e-02
2.742958e+02	-1.337681e-02
2.758801e+02	-1.353154e-02
2.774736e+02	-1.368806e-02
2.790762e+02	-1.384639e-02
2.806882e+02	-1.400654e-02
2.823094e+02	-1.416855e-02
2.839400e+02	-1.433242e-02
2.855800e+02	-1.449819e-02
2.872295e+02	-1.466587e-02
2.888886e+02	-1.483549e-02
2.905572e+02	-1.500706e-02
2.922354e+02	-1.518062e-02
2.939234e+02	-1.535618e-02
2.956211e+02	-1.553376e-02
2.973286e+02	-1.571340e-02
2.990459e+02	-1.589511e-02
3.007732e+02	-1.607891e-02
3.025104e+02	-1.626484e-02
3.042577e+02	-1.645292e-02
3.060151e+02	-1.664316e-02
3.077826e+02	-1.683560e-02
3.095604e+02	-1.703026e-02
3.113484e+02	-1.722717e-02
3.131467e+02	-1.742635e-02
3.149554e+02	-1.762782e-02
3.167746e+02	-1.783163e-02
3.186043e+02	-1.803778e-02
3.204445e+02	-1.824631e-02
3.222954e+02	-1.845725e-02
3.241570e+02	-1.867062e-02
3.260293e+02	-1.888645e-02
3.279124e+02	-1.910477e-02
3.298064e+02	-1.932561e-02
3.317114e+02	-1.954900e-02
3.336273e+02	-1.977496e-02
3.355544e+02	-2.000353e-02
3.374925e+02	-2.023473e-02
3.394418e+02	-2.046860e-02
3.414024e+02	-2.070517e-02
3.433744e+02	-2.094447e-02
3.453577e+02	-2.118652e-02
3.473525e+02	-2.143136e-02
3.493588e+02	-2.167903e-02
3.513766e+02	-2.192955e-02
3.534062e+02	-2.218296e-02
3.554474e+02	-2.243929e-02
3.575005e+02	-2.269857e-02
3.595654e+02	-2.296084e-02
3.616422e+02	-2.322613e-02
3.637311e+02	-2.349448e-02
3.658320e+02	-2.376593e-02
3.679450e+02	-2.404050e-02
3.700702e+02	-2.431823e-02
3.722077e+02	-2.459916e-02
3.743576e+02	-2.488333e-02
3.765199e+02	-2.517077e-02
3.786946e+02	-2.546152e-02
3.808820e+02	-2.575562e-02
3.830819e+02	-2.605311e-02
3.852946e+02	-2.635402e-02
3.875200e+02	-2.665840e-02
3.897583e+02	-2.696628e-02
3.920096e+02	-2.727771e-02
3.942738e+02	-2.759272e-02
3.965511e+02	-2.791136e-02
3.988416e+02	-2.823367e-02
4.011452e+02	-2.855968e-02
4.034622e+02	-2.888945e-02
4.057926e+02	-2.922301e-02
4.081365e+02	-2.956041e-02
4.104938e+02	-2.990169e-02
4.128648e+02	-3.024690e-02
4.152495e+02	-3.059608e-02
4.176480e+02	-3.094928e-02
4.200603e+02	-3.130654e-02
4.224866e+02	-3.166790e-02
4.249268e+02	-3.203343e-02
4.273812e+02	-3.240315e-02
4.298497e+02	-3.277713e-02
4.323325e+02	-3.315541e-02
4.348297e+02	-3.353804e-02
4.373412e+02	-3.392506e-02
4.398673e+02	-3.431653e-02
4.424079e+02	-3.471251e-02
4.449633e+02	-3.511303e-02
4.475334e+02	-3.551816e-02
4.501183e+02	-3.592794e-02
4.527182e+02	-3.634242e-02
4.553330e+02	-3.676167e-02
4.579630e+02	-3.718574e-02
4.606082e+02	-3.761467e-02
4.632687e+02	-3.804853e-02
4.659445e+02	-3.848738e-02
4.686358e+02	-3.893126e-02
4.713426e+02	-3.938024e-02
4.740650e+02	-3.983437e-02
4.768032e+02	-4.029372e-02
4.795572e+02	-4.075833e-02
4.823271e+02	-4.122828e-02
4.851130e+02	-4.170362e-02
4.879150e+02	-4.218442e-02
4.907332e+02	-4.267073e-02
4.935676e+02	-4.316262e-02
4.964185e+02	-4.366015e-02
4.992858e+02	-4.416338e-02
5.021696e+02	-4.467239e-02
5.050701e+02	-4.518723e-02
5.079874e+02	-4.570798e-02
5.109215e+02	-4.623469e-02
5.138726e+02	-4.676744e-02
5.168407e+02	-4.730630e-02
5.198259e+02	-4.785133e-02
5.228284e+02	-4.840260e-02
5.258482e+02	-4.896019e-02
5.288855e+02	-4.952417e-02
5.319403e+02	-5.009460e-02
5.350128e+02	-5.067157e-02
5.381030e+02	-5.125514e-02
5.412111e+02	-5.184540e-02
5.443371e+02	-5.244241e-02
5.474812e+02	-5.304625e-02
5.506434e+02	-5.365700e-02
5.538239e+02	-5.427474e-02
5.570228e+02	-5.489954e-02
5.602401e+02	-5.553150e-02
5.634760e+02	-5.617068e-02
5.667306e+02	-5.681717e-02
5.700040e+02	-5.747105e-02
5.732964e+02	-5.813240e-02
5.766077e+02	-5.880131e-02
5.799382e+02	-5.947787e-02
5.832879e+02	-6.016216e-02
5.866569e+02	-6.085426e-02
5.900454e+02	-6.155428e-02
5.934535e+02	-6.226228e-02
5.968813e+02	-6.297837e-02
6.003288e+02	-6.370263e-02
6.037963e+02	-6.443516e-02
6.072838e+02	-6.517606e-02
6.107914e+02	-6.592540e-02
6.143194e+02	-6.668330e-02
6.178676e+02	-6.744984e-02
6.214364e+02	-6.822512e-02
6.250258e+02	-6.900924e-02
6.286359e+02	-6.980230e-02
6.322669e+02	-7.060440e-02
6.359189e+02	-7.141565e-02
6.395919e+02	-7.223613e-02
6.432862e+02	-7.306596e-02
6.470017e+02	-7.390525e-02
6.507388e+02	-7.475409e-02
6.544974e+02	-7.561259e-02
6.582778e+02	-7.648087e-02
6.620800e+02	-7.735903e-02
6.659041e+02	-7.824718e-02
6.697504e+02	-7.914544e-02
6.736188e+02	-8.005391e-02
6.775096e+02	-8.097271e-02
6.814229e+02	-8.190196e-02
6.853587e+02	-8.284177e-02
6.893173e+02	-8.379225e-02
6.932988e+02	-8.475354e-02
6.973033e+02	-8.572575e-02
7.013309e+02	-8.670900e-02
