Frequency(Hz)	Magnitude(dB)
1.000000e+01	-2.197521e+00
1.005776e+01	-2.217313e+00
1.011585e+01	-2.237616e+00
1.017428e+01	-2.257854e+00
1.023305e+01	-2.278080e+00
1.029215e+01	-2.298725e+00
1.035160e+01	-2.319258e+00
1.041139e+01	-2.339747e+00
1.047153e+01	-2.361136e+00
1.053201e+01	-2.382118e+00
1.059284e+01	-2.403261e+00
1.065403e+01	-2.424530e+00
1.071556e+01	-2.446145e+00
1.077746e+01	-2.467623e+00
1.083971e+01	-2.489180e+00
1.090232e+01	-2.511234e+00
1.096529e+01	-2.533099e+00
1.102862e+01	-2.555484e+00
1.109232e+01	-2.577671e+00
1.115639e+01	-2.600294e+00
1.122083e+01	-2.622858e+00
1.128564e+01	-2.645773e+00
1.135083e+01	-2.668613e+00
1.141639e+01	-2.691430e+00
1.148233e+01	-2.714787e+00
1.154865e+01	-2.737995e+00
1.161536e+01	-2.761601e+00
1.168245e+01	-2.785239e+00
1.174992e+01	-2.809043e+00
1.181779e+01	-2.832763e+00
1.188605e+01	-2.856867e+00
1.195470e+01	-2.880825e+00
1.202375e+01	-2.905532e+00
1.209320e+01	-2.929882e+00
1.216305e+01	-2.954479e+00
1.223330e+01	-2.979025e+00
1.230396e+01	-3.004222e+00
1.237503e+01	-3.029004e+00
1.244651e+01	-3.054292e+00
1.251840e+01	-3.079437e+00
1.259070e+01	-3.104965e+00
1.266343e+01	-3.130606e+00
1.273657e+01	-3.156362e+00
1.281014e+01	-3.182323e+00
1.288413e+01	-3.208511e+00
1.295855e+01	-3.234865e+00
1.303339e+01	-3.261114e+00
1.310867e+01	-3.287638e+00
1.318439e+01	-3.314452e+00
1.326054e+01	-3.341007e+00
1.333713e+01	-3.367691e+00
1.341417e+01	-3.394771e+00
1.349165e+01	-3.422017e+00
1.356958e+01	-3.449485e+00
1.364795e+01	-3.476961e+00
1.372678e+01	-3.504520e+00
1.380607e+01	-3.532611e+00
1.388581e+01	-3.560108e+00
1.396602e+01	-3.588268e+00
1.404668e+01	-3.616866e+00
1.412782e+01	-3.644717e+00
1.420942e+01	-3.673179e+00
1.429149e+01	-3.702001e+00
1.437404e+01	-3.730928e+00
1.445706e+01	-3.759462e+00
1.454057e+01	-3.788591e+00
1.462455e+01	-3.817762e+00
1.470902e+01	-3.847121e+00
1.479398e+01	-3.876663e+00
1.487943e+01	-3.906036e+00
1.496537e+01	-3.935847e+00
1.505181e+01	-3.965688e+00
1.513875e+01	-3.995897e+00
1.522619e+01	-4.026044e+00
1.531414e+01	-4.056369e+00
1.540259e+01	-4.086796e+00
1.549156e+01	-4.117532e+00
1.558103e+01	-4.147898e+00
1.567103e+01	-4.178948e+00
1.576155e+01	-4.209872e+00
1.585258e+01	-4.240860e+00
1.594415e+01	-4.272385e+00
1.603624e+01	-4.303536e+00
1.612886e+01	-4.335178e+00
1.622202e+01	-4.367177e+00
1.631572e+01	-4.398845e+00
1.640996e+01	-4.430495e+00
1.650474e+01	-4.462771e+00
1.660008e+01	-4.494750e+00
1.669596e+01	-4.527158e+00
1.679239e+01	-4.559441e+00
1.688938e+01	-4.592327e+00
1.698694e+01	-4.624861e+00
1.708505e+01	-4.657752e+00
1.718373e+01	-4.690604e+00
1.728299e+01	-4.723609e+00
1.738281e+01	-4.756844e+00
1.748322e+01	-4.790298e+00
1.758420e+01	-4.823972e+00
1.768576e+01	-4.857533e+00
1.778792e+01	-4.891374e+00
1.789066e+01	-4.925226e+00
1.799399e+01	-4.958976e+00
1.809793e+01	-4.993207e+00
1.820246e+01	-5.027482e+00
1.830760e+01	-5.061938e+00
1.841334e+01	-5.096291e+00
1.851969e+01	-5.131246e+00
1.862666e+01	-5.165484e+00
1.873425e+01	-5.200520e+00
1.884246e+01	-5.235640e+00
1.895129e+01	-5.270827e+00
1.906075e+01	-5.305704e+00
1.917085e+01	-5.341440e+00
1.928158e+01	-5.376676e+00
1.939295e+01	-5.412280e+00
1.950496e+01	-5.448198e+00
1.961762e+01	-5.483655e+00
1.973093e+01	-5.519540e+00
1.984490e+01	-5.555785e+00
1.995952e+01	-5.591748e+00
2.007480e+01	-5.628404e+00
2.019076e+01	-5.664573e+00
2.030738e+01	-5.700781e+00
2.042467e+01	-5.737591e+00
2.054264e+01	-5.774485e+00
2.066130e+01	-5.811277e+00
2.078064e+01	-5.848061e+00
2.090066e+01	-5.885144e+00
2.102139e+01	-5.922259e+00
2.114280e+01	-5.959885e+00
2.126492e+01	-5.996942e+00
2.138775e+01	-6.034879e+00
2.151128e+01	-6.072042e+00
2.163553e+01	-6.109908e+00
2.176050e+01	-6.147856e+00
2.188619e+01	-6.185919e+00
2.201260e+01	-6.223580e+00
2.213974e+01	-6.261976e+00
2.226762e+01	-6.299787e+00
2.239624e+01	-6.338642e+00
2.252560e+01	-6.376891e+00
2.265571e+01	-6.415775e+00
2.278656e+01	-6.454033e+00
2.291818e+01	-6.492781e+00
2.305055e+01	-6.531694e+00
2.318369e+01	-6.570788e+00
2.331760e+01	-6.610010e+00
2.345228e+01	-6.648863e+00
2.358774e+01	-6.688132e+00
2.372398e+01	-6.727595e+00
2.386101e+01	-6.766961e+00
2.399883e+01	-6.806484e+00
2.413745e+01	-6.846045e+00
2.427686e+01	-6.885927e+00
2.441709e+01	-6.925568e+00
2.455812e+01	-6.965700e+00
2.469997e+01	-7.005724e+00
2.484263e+01	-7.045873e+00
2.498612e+01	-7.085780e+00
2.513044e+01	-7.126110e+00
2.527559e+01	-7.166443e+00
2.542158e+01	-7.207061e+00
2.556842e+01	-7.247690e+00
2.571610e+01	-7.288110e+00
2.586463e+01	-7.329008e+00
2.601403e+01	-7.369784e+00
2.616428e+01	-7.410578e+00
2.631541e+01	-7.451947e+00
2.646740e+01	-7.492553e+00
2.662028e+01	-7.533704e+00
2.677404e+01	-7.575627e+00
2.692868e+01	-7.616388e+00
2.708422e+01	-7.657903e+00
2.724066e+01	-7.698832e+00
2.739800e+01	-7.740939e+00
2.755625e+01	-7.782717e+00
2.771541e+01	-7.824210e+00
2.787550e+01	-7.866031e+00
2.803650e+01	-7.908002e+00
2.819844e+01	-7.950456e+00
2.836131e+01	-7.991776e+00
2.852513e+01	-8.034499e+00
2.868989e+01	-8.076511e+00
2.885560e+01	-8.118616e+00
2.902227e+01	-8.160791e+00
2.918990e+01	-8.203421e+00
2.935850e+01	-8.245987e+00
2.952807e+01	-8.288390e+00
2.969863e+01	-8.331253e+00
2.987016e+01	-8.373758e+00
3.004269e+01	-8.416707e+00
3.021622e+01	-8.459730e+00
3.039075e+01	-8.502023e+00
3.056628e+01	-8.545179e+00
3.074283e+01	-8.588367e+00
3.092040e+01	-8.631551e+00
3.109900e+01	-8.674839e+00
3.127862e+01	-8.718023e+00
3.145929e+01	-8.761936e+00
3.164099e+01	-8.804667e+00
3.182375e+01	-8.848574e+00
3.200756e+01	-8.891988e+00
3.219244e+01	-8.935457e+00
3.237838e+01	-8.978811e+00
3.256540e+01	-9.023088e+00
3.275349e+01	-9.066553e+00
3.294268e+01	-9.110298e+00
3.313295e+01	-9.154355e+00
3.332433e+01	-9.198358e+00
3.351681e+01	-9.242238e+00
3.371040e+01	-9.286526e+00
3.390511e+01	-9.330781e+00
3.410094e+01	-9.375000e+00
3.429791e+01	-9.418788e+00
3.449601e+01	-9.463605e+00
3.469526e+01	-9.508060e+00
3.489566e+01	-9.552479e+00
3.509721e+01	-9.597481e+00
3.529993e+01	-9.641402e+00
3.550382e+01	-9.686144e+00
3.570889e+01	-9.730930e+00
3.591515e+01	-9.775316e+00
3.612259e+01	-9.819970e+00
3.633123e+01	-9.865391e+00
3.654108e+01	-9.910404e+00
3.675214e+01	-9.955063e+00
3.696442e+01	-1.000021e+01
3.717792e+01	-1.004522e+01
3.739266e+01	-1.008957e+01
3.760864e+01	-1.013517e+01
3.782587e+01	-1.018049e+01
3.804435e+01	-1.022568e+01
3.826409e+01	-1.027096e+01
3.848510e+01	-1.031672e+01
3.870739e+01	-1.036174e+01
3.893096e+01	-1.040695e+01
3.915583e+01	-1.045300e+01
3.938199e+01	-1.049884e+01
3.960946e+01	-1.054388e+01
3.983824e+01	-1.058958e+01
4.006834e+01	-1.063490e+01
4.029978e+01	-1.068111e+01
4.053255e+01	-1.072614e+01
4.076666e+01	-1.077251e+01
4.100213e+01	-1.081825e+01
4.123896e+01	-1.086380e+01
4.147715e+01	-1.091110e+01
4.171672e+01	-1.095665e+01
4.195767e+01	-1.100210e+01
4.220002e+01	-1.104801e+01
4.244377e+01	-1.109426e+01
4.268892e+01	-1.114028e+01
4.293549e+01	-1.118676e+01
4.318348e+01	-1.123356e+01
4.343291e+01	-1.127927e+01
4.368377e+01	-1.132556e+01
4.393609e+01	-1.137196e+01
4.418986e+01	-1.141850e+01
4.444510e+01	-1.146550e+01
4.470182e+01	-1.151095e+01
4.496001e+01	-1.155758e+01
4.521970e+01	-1.160441e+01
4.548089e+01	-1.165035e+01
4.574358e+01	-1.169724e+01
4.600779e+01	-1.174403e+01
4.627353e+01	-1.179058e+01
4.654081e+01	-1.183832e+01
4.680963e+01	-1.188479e+01
4.708000e+01	-1.193135e+01
4.735193e+01	-1.197781e+01
4.762543e+01	-1.202424e+01
4.790051e+01	-1.207160e+01
4.817719e+01	-1.211856e+01
4.845545e+01	-1.216513e+01
4.873533e+01	-1.221337e+01
4.901682e+01	-1.225934e+01
4.929994e+01	-1.230695e+01
4.958470e+01	-1.235427e+01
4.987110e+01	-1.240094e+01
5.015915e+01	-1.244784e+01
5.044887e+01	-1.249559e+01
5.074026e+01	-1.254287e+01
5.103333e+01	-1.258987e+01
5.132810e+01	-1.263765e+01
5.162457e+01	-1.268458e+01
5.192275e+01	-1.273175e+01
5.222265e+01	-1.277959e+01
5.252429e+01	-1.282663e+01
5.282767e+01	-1.287468e+01
5.313280e+01	-1.292194e+01
5.343969e+01	-1.296866e+01
5.374836e+01	-1.301665e+01
5.405880e+01	-1.306421e+01
5.437105e+01	-1.311121e+01
5.468509e+01	-1.315908e+01
5.500095e+01	-1.320724e+01
5.531863e+01	-1.325520e+01
5.563815e+01	-1.330174e+01
5.595951e+01	-1.335049e+01
5.628273e+01	-1.339817e+01
5.660782e+01	-1.344565e+01
5.693479e+01	-1.349295e+01
5.726364e+01	-1.354098e+01
5.759439e+01	-1.358832e+01
5.792705e+01	-1.363742e+01
5.826164e+01	-1.368423e+01
5.859815e+01	-1.373243e+01
5.893662e+01	-1.378080e+01
5.927703e+01	-1.382766e+01
5.961941e+01	-1.387657e+01
5.996377e+01	-1.392381e+01
6.031012e+01	-1.397286e+01
6.065847e+01	-1.401973e+01
6.100883e+01	-1.406912e+01
6.136121e+01	-1.411596e+01
6.171563e+01	-1.416517e+01
6.207210e+01	-1.421314e+01
6.243063e+01	-1.426078e+01
6.279122e+01	-1.430887e+01
6.315390e+01	-1.435718e+01
6.351868e+01	-1.440535e+01
6.388556e+01	-1.445403e+01
6.425456e+01	-1.450129e+01
6.462569e+01	-1.454971e+01
6.499897e+01	-1.459756e+01
6.537440e+01	-1.464621e+01
6.575200e+01	-1.469439e+01
6.613178e+01	-1.474268e+01
6.651375e+01	-1.479227e+01
6.689793e+01	-1.483952e+01
6.728433e+01	-1.488851e+01
6.767297e+01	-1.493683e+01
6.806384e+01	-1.498506e+01
6.845698e+01	-1.503270e+01
6.885238e+01	-1.508219e+01
6.925007e+01	-1.513078e+01
6.965005e+01	-1.517849e+01
7.005235e+01	-1.522777e+01
7.045697e+01	-1.527677e+01
7.086393e+01	-1.532542e+01
7.127323e+01	-1.537371e+01
7.168490e+01	-1.542245e+01
7.209895e+01	-1.547166e+01
7.251539e+01	-1.551904e+01
7.293424e+01	-1.556842e+01
7.335551e+01	-1.561638e+01
7.377920e+01	-1.566611e+01
7.420535e+01	-1.571366e+01
7.463396e+01	-1.576198e+01
7.506504e+01	-1.581076e+01
7.549861e+01	-1.585933e+01
7.593469e+01	-1.590939e+01
7.637328e+01	-1.595739e+01
7.681441e+01	-1.600669e+01
7.725809e+01	-1.605440e+01
7.770433e+01	-1.610406e+01
7.815315e+01	-1.615180e+01
7.860456e+01	-1.620166e+01
7.905857e+01	-1.625070e+01
7.951521e+01	-1.629878e+01
7.997449e+01	-1.634711e+01
8.043642e+01	-1.639742e+01
8.090102e+01	-1.644482e+01
8.136830e+01	-1.649551e+01
8.183828e+01	-1.654346e+01
8.231097e+01	-1.659277e+01
8.278640e+01	-1.664225e+01
8.326457e+01	-1.669012e+01
8.374550e+01	-1.673856e+01
8.422921e+01	-1.678863e+01
8.471572e+01	-1.683796e+01
8.520503e+01	-1.688617e+01
8.569717e+01	-1.693555e+01
8.619215e+01	-1.698431e+01
8.669000e+01	-1.703274e+01
8.719071e+01	-1.708156e+01
8.769432e+01	-1.713124e+01
8.820084e+01	-1.718052e+01
8.871029e+01	-1.723058e+01
8.922267e+01	-1.727867e+01
8.973802e+01	-1.732739e+01
9.025634e+01	-1.737727e+01
9.077766e+01	-1.742552e+01
9.130199e+01	-1.747553e+01
9.182935e+01	-1.752436e+01
9.235975e+01	-1.757282e+01
9.289321e+01	-1.762230e+01
9.342976e+01	-1.767126e+01
9.396941e+01	-1.772023e+01
9.451217e+01	-1.777008e+01
9.505807e+01	-1.781849e+01
9.560712e+01	-1.787006e+01
9.615934e+01	-1.791706e+01
9.671476e+01	-1.796677e+01
9.727338e+01	-1.801580e+01
9.783522e+01	-1.806467e+01
9.840032e+01	-1.811503e+01
9.896867e+01	-1.816479e+01
9.954031e+01	-1.821165e+01
1.001153e+02	-1.826283e+01
1.006935e+02	-1.831144e+01
1.012751e+02	-1.836102e+01
1.018601e+02	-1.841113e+01
1.024484e+02	-1.846107e+01
1.030402e+02	-1.850846e+01
1.036353e+02	-1.855877e+01
1.042339e+02	-1.860781e+01
1.048360e+02	-1.865747e+01
1.054415e+02	-1.870626e+01
1.060505e+02	-1.875682e+01
1.066631e+02	-1.880608e+01
1.072791e+02	-1.885516e+01
1.078988e+02	-1.890452e+01
1.085220e+02	-1.895365e+01
1.091488e+02	-1.900271e+01
1.097793e+02	-1.905251e+01
1.104133e+02	-1.910197e+01
1.110511e+02	-1.915080e+01
1.116925e+02	-1.920063e+01
1.123376e+02	-1.925032e+01
1.129865e+02	-1.929978e+01
1.136391e+02	-1.934741e+01
1.142955e+02	-1.939864e+01
1.149556e+02	-1.944759e+01
1.156196e+02	-1.949708e+01
1.162874e+02	-1.954692e+01
1.169591e+02	-1.959700e+01
1.176347e+02	-1.964640e+01
1.183141e+02	-1.969485e+01
1.189975e+02	-1.974412e+01
1.196848e+02	-1.979390e+01
1.203761e+02	-1.984385e+01
1.210714e+02	-1.989425e+01
1.217707e+02	-1.994200e+01
1.224740e+02	-1.999414e+01
1.231814e+02	-2.004063e+01
1.238929e+02	-2.009126e+01
1.246085e+02	-2.014051e+01
1.253283e+02	-2.019150e+01
1.260522e+02	-2.024027e+01
1.267802e+02	-2.029008e+01
1.275125e+02	-2.034003e+01
1.282490e+02	-2.038914e+01
1.289898e+02	-2.043650e+01
1.297348e+02	-2.048828e+01
1.304842e+02	-2.053752e+01
1.312378e+02	-2.058651e+01
1.319959e+02	-2.063649e+01
1.327583e+02	-2.068644e+01
1.335251e+02	-2.073576e+01
1.342963e+02	-2.078528e+01
1.350720e+02	-2.083672e+01
1.358522e+02	-2.088785e+01
1.366368e+02	-2.093503e+01
1.374260e+02	-2.098150e+01
1.382198e+02	-2.103470e+01
1.390182e+02	-2.108217e+01
1.398211e+02	-2.113294e+01
1.406287e+02	-2.118122e+01
1.414410e+02	-2.123221e+01
1.422579e+02	-2.128299e+01
1.430796e+02	-2.133259e+01
1.439060e+02	-2.138003e+01
1.447372e+02	-2.143156e+01
1.455732e+02	-2.148010e+01
1.464141e+02	-2.153319e+01
1.472597e+02	-2.157962e+01
1.481103e+02	-2.163093e+01
1.489658e+02	-2.167897e+01
1.498262e+02	-2.172881e+01
1.506916e+02	-2.178030e+01
1.515620e+02	-2.182972e+01
1.524374e+02	-2.187712e+01
1.533179e+02	-2.192770e+01
1.542034e+02	-2.197852e+01
1.550941e+02	-2.202695e+01
1.559899e+02	-2.207719e+01
1.568909e+02	-2.212721e+01
1.577971e+02	-2.217684e+01
1.587085e+02	-2.222858e+01
1.596252e+02	-2.227492e+01
1.605472e+02	-2.232549e+01
1.614745e+02	-2.237607e+01
1.624072e+02	-2.242897e+01
1.633453e+02	-2.247594e+01
1.642887e+02	-2.252653e+01
1.652377e+02	-2.257316e+01
1.661921e+02	-2.262668e+01
1.671520e+02	-2.267414e+01
1.681175e+02	-2.272551e+01
1.690885e+02	-2.277537e+01
1.700651e+02	-2.282329e+01
1.710474e+02	-2.287399e+01
1.720354e+02	-2.292432e+01
1.730291e+02	-2.297566e+01
1.740285e+02	-2.302118e+01
1.750337e+02	-2.307284e+01
1.760446e+02	-2.312397e+01
1.770615e+02	-2.317299e+01
1.780842e+02	-2.322245e+01
1.791128e+02	-2.327355e+01
1.801473e+02	-2.331925e+01
1.811878e+02	-2.337185e+01
1.822344e+02	-2.342124e+01
1.832870e+02	-2.347105e+01
1.843456e+02	-2.352035e+01
1.854104e+02	-2.357218e+01
1.864813e+02	-2.362118e+01
1.875584e+02	-2.367203e+01
1.886418e+02	-2.371907e+01
1.897313e+02	-2.377081e+01
1.908272e+02	-2.382060e+01
1.919294e+02	-2.386763e+01
1.930380e+02	-2.392129e+01
1.941530e+02	-2.396836e+01
1.952744e+02	-2.402220e+01
1.964023e+02	-2.406990e+01
1.975367e+02	-2.411905e+01
1.986777e+02	-2.417134e+01
1.998252e+02	-2.421841e+01
2.009794e+02	-2.426919e+01
2.021403e+02	-2.431956e+01
2.033078e+02	-2.436938e+01
2.044821e+02	-2.441827e+01
2.056632e+02	-2.446964e+01
2.068511e+02	-2.452030e+01
2.080459e+02	-2.456815e+01
2.092475e+02	-2.461632e+01
2.104561e+02	-2.466769e+01
2.116717e+02	-2.471798e+01
2.128943e+02	-2.476860e+01
2.141240e+02	-2.481705e+01
2.153608e+02	-2.486586e+01
2.166047e+02	-2.491857e+01
2.178558e+02	-2.496688e+01
2.191141e+02	-2.501894e+01
2.203797e+02	-2.506784e+01
2.216526e+02	-2.511478e+01
2.229329e+02	-2.516564e+01
2.242205e+02	-2.521998e+01
2.255156e+02	-2.526613e+01
2.268182e+02	-2.531765e+01
2.281283e+02	-2.536834e+01
2.294459e+02	-2.541744e+01
2.307712e+02	-2.546745e+01
2.321041e+02	-2.551725e+01
2.334447e+02	-2.556642e+01
2.347931e+02	-2.561918e+01
2.361493e+02	-2.566803e+01
2.375133e+02	-2.571828e+01
2.388851e+02	-2.576731e+01
2.402649e+02	-2.581405e+01
2.416527e+02	-2.586413e+01
2.430484e+02	-2.591530e+01
2.444523e+02	-2.596718e+01
2.458642e+02	-2.601429e+01
2.472843e+02	-2.606299e+01
2.487126e+02	-2.611738e+01
2.501492e+02	-2.616527e+01
2.515940e+02	-2.621448e+01
2.530472e+02	-2.626633e+01
2.545088e+02	-2.631381e+01
2.559789e+02	-2.636275e+01
2.574574e+02	-2.641666e+01
2.589444e+02	-2.646535e+01
2.604401e+02	-2.651265e+01
2.619444e+02	-2.656428e+01
2.634574e+02	-2.661871e+01
2.649791e+02	-2.666705e+01
2.665096e+02	-2.671584e+01
2.680489e+02	-2.676974e+01
2.695972e+02	-2.681567e+01
2.711544e+02	-2.686637e+01
2.727205e+02	-2.691568e+01
2.742958e+02	-2.696526e+01
2.758801e+02	-2.701445e+01
2.774736e+02	-2.706696e+01
2.790762e+02	-2.711725e+01
2.806882e+02	-2.716088e+01
2.823094e+02	-2.721414e+01
2.839400e+02	-2.726647e+01
2.855800e+02	-2.731933e+01
2.872295e+02	-2.736584e+01
2.888886e+02	-2.741461e+01
2.905572e+02	-2.746170e+01
2.922354e+02	-2.751798e+01
2.939234e+02	-2.756527e+01
2.956211e+02	-2.761558e+01
2.973286e+02	-2.766667e+01
2.990459e+02	-2.771518e+01
3.007732e+02	-2.776663e+01
3.025104e+02	-2.781660e+01
3.042577e+02	-2.786418e+01
3.060151e+02	-2.791796e+01
3.077826e+02	-2.796406e+01
3.095604e+02	-2.801052e+01
3.113484e+02	-2.806732e+01
3.131467e+02	-2.811422e+01
3.149554e+02	-2.816556e+01
3.167746e+02	-2.821580e+01
3.186043e+02	-2.826958e+01
3.204445e+02	-2.831643e+01
3.222954e+02	-2.836942e+01
3.241570e+02	-2.841838e+01
3.260293e+02	-2.846244e+01
3.279124e+02	-2.851779e+01
3.298064e+02	-2.856108e+01
3.317114e+02	-2.861602e+01
3.336273e+02	-2.866643e+01
3.355544e+02	-2.871753e+01
3.374925e+02	-2.876727e+01
3.394418e+02	-2.882209e+01
3.414024e+02	-2.886713e+01
3.433744e+02	-2.891770e+01
3.453577e+02	-2.896319e+01
3.473525e+02	-2.901237e+01
3.493588e+02	-2.906364e+01
3.513766e+02	-2.911429e+01
3.534062e+02	-2.916764e+01
3.554474e+02	-2.921556e+01
3.575005e+02	-2.926825e+01
3.595654e+02	-2.931724e+01
3.616422e+02	-2.936758e+01
3.637311e+02	-2.941510e+01
3.658320e+02	-2.946735e+01
3.679450e+02	-2.951579e+01
3.700702e+02	-2.956710e+01
3.722077e+02	-2.961469e+01
3.743576e+02	-2.967084e+01
3.765199e+02	-2.971772e+01
3.786946e+02	-2.976228e+01
3.808820e+02	-2.982065e+01
3.830819e+02	-2.986263e+01
3.852946e+02	-2.991901e+01
3.875200e+02	-2.996809e+01
3.897583e+02	-3.001704e+01
3.920096e+02	-3.007138e+01
3.942738e+02	-3.011728e+01
3.965511e+02	-3.016768e+01
3.988416e+02	-3.022121e+01
4.011452e+02	-3.026291e+01
4.034622e+02	-3.031337e+01
4.057926e+02	-3.036910e+01
4.081365e+02	-3.041767e+01
4.104938e+02	-3.047102e+01
4.128648e+02	-3.051841e+01
4.152495e+02	-3.056619e+01
4.176480e+02	-3.061591e+01
4.200603e+02	-3.067062e+01
4.224866e+02	-3.072150e+01
4.249268e+02	-3.077498e+01
4.273812e+02	-3.081860e+01
4.298497e+02	-3.087214e+01
4.323325e+02	-3.091873e+01
4.348297e+02	-3.097646e+01
4.373412e+02	-3.101913e+01
4.398673e+02	-3.106984e+01
4.424079e+02	-3.111621e+01
4.449633e+02	-3.117165e+01
4.475334e+02	-3.121833e+01
4.501183e+02	-3.126897e+01
4.527182e+02	-3.132485e+01
4.553330e+02	-3.137518e+01
4.579630e+02	-3.141954e+01
4.606082e+02	-3.147413e+01
4.632687e+02	-3.152336e+01
4.659445e+02	-3.157128e+01
4.686358e+02	-3.162591e+01
4.713426e+02	-3.166814e+01
4.740650e+02	-3.172479e+01
4.768032e+02	-3.176717e+01
4.795572e+02	-3.182436e+01
4.823271e+02	-3.186808e+01
4.851130e+02	-3.192229e+01
4.879150e+02	-3.197880e+01
4.907332e+02	-3.202078e+01
4.935676e+02	-3.207585e+01
4.964185e+02	-3.213141e+01
4.992858e+02	-3.217612e+01
5.021696e+02	-3.222790e+01
5.050701e+02	-3.227796e+01
5.079874e+02	-3.232459e+01
5.109215e+02	-3.237786e+01
5.138726e+02	-3.242457e+01
5.168407e+02	-3.247398e+01
5.198259e+02	-3.252871e+01
5.228284e+02	-3.257452e+01
5.258482e+02	-3.262703e+01
5.288855e+02	-3.267932e+01
5.319403e+02	-3.273106e+01
5.350128e+02	-3.277695e+01
5.381030e+02	-3.282973e+01
5.412111e+02	-3.288452e+01
5.443371e+02	-3.293096e+01
5.474812e+02	-3.298245e+01
5.506434e+02	-3.303517e+01
5.538239e+02	-3.308496e+01
5.570228e+02	-3.313145e+01
5.602401e+02	-3.318038e+01
5.634760e+02	-3.323478e+01
5.667306e+02	-3.328071e+01
5.700040e+02	-3.333215e+01
5.732964e+02	-3.338732e+01
5.766077e+02	-3.342713e+01
5.799382e+02	-3.348415e+01
5.832879e+02	-3.352872e+01
5.866569e+02	-3.357949e+01
5.900454e+02	-3.362812e+01
5.934535e+02	-3.368502e+01
5.968813e+02	-3.373281e+01
6.003288e+02	-3.378113e+01
6.037963e+02	-3.383447e+01
6.072838e+02	-3.388520e+01
6.107914e+02	-3.392794e+01
6.143194e+02	-3.398254e+01
6.178676e+02	-3.403432e+01
6.214364e+02	-3.408821e+01
6.250258e+02	-3.413723e+01
6.286359e+02	-3.417973e+01
6.322669e+02	-3.423473e+01
6.359189e+02	-3.429226e+01
6.395919e+02	-3.433940e+01
6.432862e+02	-3.438281e+01
6.470017e+02	-3.443578e+01
6.507388e+02	-3.448863e+01
6.544974e+02	-3.454581e+01
6.582778e+02	-3.458592e+01
6.620800e+02	-3.463263e+01
6.659041e+02	-3.468878e+01
6.697504e+02	-3.474169e+01
6.736188e+02	-3.479045e+01
6.775096e+02	-3.484031e+01
6.814229e+02	-3.489287e+01
6.853587e+02	-3.493987e+01
6.893173e+02	-3.499702e+01
6.932988e+02	-3.504670e+01
6.973033e+02	-3.509045e+01
7.013309e+02	-3.513508e+01
