Frequency(Hz)	Magnitude(dB)
1.000000e+01	-2.198093e+00
1.005776e+01	-2.217838e+00
1.011585e+01	-2.238081e+00
1.017428e+01	-2.258307e+00
1.023305e+01	-2.278744e+00
1.029215e+01	-2.299146e+00
1.035160e+01	-2.319844e+00
1.041139e+01	-2.340435e+00
1.047153e+01	-2.361564e+00
1.053201e+01	-2.382447e+00
1.059284e+01	-2.403632e+00
1.065403e+01	-2.425037e+00
1.071556e+01	-2.446585e+00
1.077746e+01	-2.468129e+00
1.083971e+01	-2.489771e+00
1.090232e+01	-2.511659e+00
1.096529e+01	-2.533786e+00
1.102862e+01	-2.555993e+00
1.109232e+01	-2.578338e+00
1.115639e+01	-2.600821e+00
1.122083e+01	-2.623424e+00
1.128564e+01	-2.646074e+00
1.135083e+01	-2.668918e+00
1.141639e+01	-2.692129e+00
1.148233e+01	-2.715314e+00
1.154865e+01	-2.738570e+00
1.161536e+01	-2.762051e+00
1.168245e+01	-2.785495e+00
1.174992e+01	-2.809308e+00
1.181779e+01	-2.833456e+00
1.188605e+01	-2.857274e+00
1.195470e+01	-2.881582e+00
1.202375e+01	-2.905939e+00
1.209320e+01	-2.930148e+00
1.216305e+01	-2.954963e+00
1.223330e+01	-2.979742e+00
1.230396e+01	-3.004741e+00
1.237503e+01	-3.029729e+00
1.244651e+01	-3.054824e+00
1.251840e+01	-3.080135e+00
1.259070e+01	-3.105650e+00
1.266343e+01	-3.131347e+00
1.273657e+01	-3.157077e+00
1.281014e+01	-3.182991e+00
1.288413e+01	-3.209080e+00
1.295855e+01	-3.235399e+00
1.303339e+01	-3.261540e+00
1.310867e+01	-3.288338e+00
1.318439e+01	-3.314639e+00
1.326054e+01	-3.341608e+00
1.333713e+01	-3.368424e+00
1.341417e+01	-3.395696e+00
1.349165e+01	-3.422578e+00
1.356958e+01	-3.449833e+00
1.364795e+01	-3.477560e+00
1.372678e+01	-3.505293e+00
1.380607e+01	-3.532989e+00
1.388581e+01	-3.560698e+00
1.396602e+01	-3.588949e+00
1.404668e+01	-3.617251e+00
1.412782e+01	-3.645432e+00
1.420942e+01	-3.673864e+00
1.429149e+01	-3.702662e+00
1.437404e+01	-3.731570e+00
1.445706e+01	-3.760261e+00
1.454057e+01	-3.789114e+00
1.462455e+01	-3.818412e+00
1.470902e+01	-3.847927e+00
1.479398e+01	-3.877090e+00
1.487943e+01	-3.907183e+00
1.496537e+01	-3.936625e+00
1.505181e+01	-3.966529e+00
1.513875e+01	-3.996449e+00
1.522619e+01	-4.026800e+00
1.531414e+01	-4.057080e+00
1.540259e+01	-4.087615e+00
1.549156e+01	-4.118081e+00
1.558103e+01	-4.148803e+00
1.567103e+01	-4.179667e+00
1.576155e+01	-4.210544e+00
1.585258e+01	-4.241796e+00
1.594415e+01	-4.272970e+00
1.603624e+01	-4.304105e+00
1.612886e+01	-4.335955e+00
1.622202e+01	-4.367754e+00
1.631572e+01	-4.399395e+00
1.640996e+01	-4.431364e+00
1.650474e+01	-4.463334e+00
1.660008e+01	-4.495510e+00
1.669596e+01	-4.527550e+00
1.679239e+01	-4.560273e+00
1.688938e+01	-4.593173e+00
1.698694e+01	-4.625662e+00
1.708505e+01	-4.658675e+00
1.718373e+01	-4.691388e+00
1.728299e+01	-4.724577e+00
1.738281e+01	-4.757851e+00
1.748322e+01	-4.791330e+00
1.758420e+01	-4.824667e+00
1.768576e+01	-4.858380e+00
1.778792e+01	-4.891915e+00
1.789066e+01	-4.926089e+00
1.799399e+01	-4.959806e+00
1.809793e+01	-4.993890e+00
1.820246e+01	-5.028326e+00
1.830760e+01	-5.062556e+00
1.841334e+01	-5.097177e+00
1.851969e+01	-5.131641e+00
1.862666e+01	-5.166325e+00
1.873425e+01	-5.201183e+00
1.884246e+01	-5.236313e+00
1.895129e+01	-5.271057e+00
1.906075e+01	-5.307118e+00
1.917085e+01	-5.341594e+00
1.928158e+01	-5.377608e+00
1.939295e+01	-5.413113e+00
1.950496e+01	-5.449063e+00
1.961762e+01	-5.484612e+00
1.973093e+01	-5.520781e+00
1.984490e+01	-5.556488e+00
1.995952e+01	-5.592553e+00
2.007480e+01	-5.629110e+00
2.019076e+01	-5.665229e+00
2.030738e+01	-5.701699e+00
2.042467e+01	-5.738589e+00
2.054264e+01	-5.775319e+00
2.066130e+01	-5.812063e+00
2.078064e+01	-5.849365e+00
2.090066e+01	-5.886150e+00
2.102139e+01	-5.923362e+00
2.114280e+01	-5.960542e+00
2.126492e+01	-5.997647e+00
2.138775e+01	-6.035559e+00
2.151128e+01	-6.073272e+00
2.163553e+01	-6.111060e+00
2.176050e+01	-6.148303e+00
2.188619e+01	-6.186675e+00
2.201260e+01	-6.224870e+00
2.213974e+01	-6.262705e+00
2.226762e+01	-6.301167e+00
2.239624e+01	-6.339467e+00
2.252560e+01	-6.378156e+00
2.265571e+01	-6.416329e+00
2.278656e+01	-6.455274e+00
2.291818e+01	-6.493886e+00
2.305055e+01	-6.533031e+00
2.318369e+01	-6.571874e+00
2.331760e+01	-6.610852e+00
2.345228e+01	-6.649577e+00
2.358774e+01	-6.689378e+00
2.372398e+01	-6.728500e+00
2.386101e+01	-6.768060e+00
2.399883e+01	-6.807786e+00
2.413745e+01	-6.846861e+00
2.427686e+01	-6.887190e+00
2.441709e+01	-6.926104e+00
2.455812e+01	-6.966289e+00
2.469997e+01	-7.006662e+00
2.484263e+01	-7.046875e+00
2.498612e+01	-7.086810e+00
2.513044e+01	-7.126888e+00
2.527559e+01	-7.167161e+00
2.542158e+01	-7.207926e+00
2.556842e+01	-7.248358e+00
2.571610e+01	-7.289431e+00
2.586463e+01	-7.329959e+00
2.601403e+01	-7.370716e+00
2.616428e+01	-7.411669e+00
2.631541e+01	-7.452818e+00
2.646740e+01	-7.493557e+00
2.662028e+01	-7.534757e+00
2.677404e+01	-7.576115e+00
2.692868e+01	-7.617041e+00
2.708422e+01	-7.658727e+00
2.724066e+01	-7.700443e+00
2.739800e+01	-7.741840e+00
2.755625e+01	-7.783783e+00
2.771541e+01	-7.825300e+00
2.787550e+01	-7.867090e+00
2.803650e+01	-7.908596e+00
2.819844e+01	-7.950615e+00
2.836131e+01	-7.992828e+00
2.852513e+01	-8.034953e+00
2.868989e+01	-8.077386e+00
2.885560e+01	-8.119418e+00
2.902227e+01	-8.162096e+00
2.918990e+01	-8.204344e+00
2.935850e+01	-8.246961e+00
2.952807e+01	-8.289462e+00
2.969863e+01	-8.331625e+00
2.987016e+01	-8.374936e+00
3.004269e+01	-8.417595e+00
3.021622e+01	-8.460679e+00
3.039075e+01	-8.503703e+00
3.056628e+01	-8.546668e+00
3.074283e+01	-8.589584e+00
3.092040e+01	-8.632590e+00
3.109900e+01	-8.676076e+00
3.127862e+01	-8.719015e+00
3.145929e+01	-8.762609e+00
3.164099e+01	-8.805748e+00
3.182375e+01	-8.849158e+00
3.200756e+01	-8.893101e+00
3.219244e+01	-8.936659e+00
3.237838e+01	-8.980649e+00
3.256540e+01	-9.023666e+00
3.275349e+01	-9.067908e+00
3.294268e+01	-9.111344e+00
3.313295e+01	-9.155348e+00
3.332433e+01	-9.199383e+00
3.351681e+01	-9.243291e+00
3.371040e+01	-9.286920e+00
3.390511e+01	-9.331793e+00
3.410094e+01	-9.375860e+00
3.429791e+01	-9.420499e+00
3.449601e+01	-9.464639e+00
3.469526e+01	-9.509029e+00
3.489566e+01	-9.553541e+00
3.509721e+01	-9.598072e+00
3.529993e+01	-9.642419e+00
3.550382e+01	-9.686970e+00
3.570889e+01	-9.732296e+00
3.591515e+01	-9.776410e+00
3.612259e+01	-9.820692e+00
3.633123e+01	-9.866295e+00
3.654108e+01	-9.910502e+00
3.675214e+01	-9.955890e+00
3.696442e+01	-1.000083e+01
3.717792e+01	-1.004635e+01
3.739266e+01	-1.009159e+01
3.760864e+01	-1.013605e+01
3.782587e+01	-1.018178e+01
3.804435e+01	-1.022636e+01
3.826409e+01	-1.027140e+01
3.848510e+01	-1.031751e+01
3.870739e+01	-1.036235e+01
3.893096e+01	-1.040837e+01
3.915583e+01	-1.045383e+01
3.938199e+01	-1.049920e+01
3.960946e+01	-1.054500e+01
3.983824e+01	-1.059039e+01
4.006834e+01	-1.063611e+01
4.029978e+01	-1.068169e+01
4.053255e+01	-1.072748e+01
4.076666e+01	-1.077364e+01
4.100213e+01	-1.081925e+01
4.123896e+01	-1.086485e+01
4.147715e+01	-1.091066e+01
4.171672e+01	-1.095702e+01
4.195767e+01	-1.100345e+01
4.220002e+01	-1.104921e+01
4.244377e+01	-1.109573e+01
4.268892e+01	-1.114135e+01
4.293549e+01	-1.118766e+01
4.318348e+01	-1.123498e+01
4.343291e+01	-1.128044e+01
4.368377e+01	-1.132624e+01
4.393609e+01	-1.137322e+01
4.418986e+01	-1.141943e+01
4.444510e+01	-1.146550e+01
4.470182e+01	-1.151200e+01
4.496001e+01	-1.155926e+01
4.521970e+01	-1.160517e+01
4.548089e+01	-1.165248e+01
4.574358e+01	-1.169818e+01
4.600779e+01	-1.174488e+01
4.627353e+01	-1.179154e+01
4.654081e+01	-1.183844e+01
4.680963e+01	-1.188565e+01
4.708000e+01	-1.193282e+01
4.735193e+01	-1.197901e+01
4.762543e+01	-1.202617e+01
4.790051e+01	-1.207325e+01
4.817719e+01	-1.211999e+01
4.845545e+01	-1.216771e+01
4.873533e+01	-1.221393e+01
4.901682e+01	-1.226057e+01
4.929994e+01	-1.230740e+01
4.958470e+01	-1.235489e+01
4.987110e+01	-1.240176e+01
5.015915e+01	-1.244983e+01
5.044887e+01	-1.249599e+01
5.074026e+01	-1.254385e+01
5.103333e+01	-1.259073e+01
5.132810e+01	-1.263853e+01
5.162457e+01	-1.268579e+01
5.192275e+01	-1.273261e+01
5.222265e+01	-1.278057e+01
5.252429e+01	-1.282718e+01
5.282767e+01	-1.287550e+01
5.313280e+01	-1.292239e+01
5.343969e+01	-1.297043e+01
5.374836e+01	-1.301774e+01
5.405880e+01	-1.306505e+01
5.437105e+01	-1.311262e+01
5.468509e+01	-1.316009e+01
5.500095e+01	-1.320737e+01
5.531863e+01	-1.325647e+01
5.563815e+01	-1.330321e+01
5.595951e+01	-1.335065e+01
5.628273e+01	-1.339877e+01
5.660782e+01	-1.344603e+01
5.693479e+01	-1.349422e+01
5.726364e+01	-1.354199e+01
5.759439e+01	-1.358984e+01
5.792705e+01	-1.363827e+01
5.826164e+01	-1.368531e+01
5.859815e+01	-1.373371e+01
5.893662e+01	-1.378151e+01
5.927703e+01	-1.382902e+01
5.961941e+01	-1.387660e+01
5.996377e+01	-1.392570e+01
6.031012e+01	-1.397326e+01
6.065847e+01	-1.402091e+01
6.100883e+01	-1.406904e+01
6.136121e+01	-1.411725e+01
6.171563e+01	-1.416555e+01
6.207210e+01	-1.421324e+01
6.243063e+01	-1.426307e+01
6.279122e+01	-1.430994e+01
6.315390e+01	-1.435760e+01
6.351868e+01	-1.440647e+01
6.388556e+01	-1.445414e+01
6.425456e+01	-1.450286e+01
6.462569e+01	-1.455035e+01
6.499897e+01	-1.459929e+01
6.537440e+01	-1.464709e+01
6.575200e+01	-1.469618e+01
6.613178e+01	-1.474425e+01
6.651375e+01	-1.479374e+01
6.689793e+01	-1.484081e+01
6.728433e+01	-1.488843e+01
6.767297e+01	-1.493829e+01
6.806384e+01	-1.498657e+01
6.845698e+01	-1.503453e+01
6.885238e+01	-1.508299e+01
6.925007e+01	-1.513157e+01
6.965005e+01	-1.518015e+01
7.005235e+01	-1.522858e+01
7.045697e+01	-1.527737e+01
7.086393e+01	-1.532531e+01
7.127323e+01	-1.537431e+01
7.168490e+01	-1.542284e+01
7.209895e+01	-1.547187e+01
7.251539e+01	-1.552013e+01
7.293424e+01	-1.556875e+01
7.335551e+01	-1.561706e+01
7.377920e+01	-1.566604e+01
7.420535e+01	-1.571549e+01
7.463396e+01	-1.576394e+01
7.506504e+01	-1.581249e+01
7.549861e+01	-1.586066e+01
7.593469e+01	-1.591020e+01
7.637328e+01	-1.595889e+01
7.681441e+01	-1.600681e+01
7.725809e+01	-1.605724e+01
7.770433e+01	-1.610455e+01
7.815315e+01	-1.615313e+01
7.860456e+01	-1.620199e+01
7.905857e+01	-1.625216e+01
7.951521e+01	-1.629990e+01
7.997449e+01	-1.634921e+01
8.043642e+01	-1.639770e+01
8.090102e+01	-1.644669e+01
8.136830e+01	-1.649614e+01
8.183828e+01	-1.654496e+01
8.231097e+01	-1.659300e+01
8.278640e+01	-1.664205e+01
8.326457e+01	-1.669184e+01
8.374550e+01	-1.674035e+01
8.422921e+01	-1.678961e+01
8.471572e+01	-1.683867e+01
8.520503e+01	-1.688707e+01
8.569717e+01	-1.693628e+01
8.619215e+01	-1.698642e+01
8.669000e+01	-1.703496e+01
8.719071e+01	-1.708443e+01
8.769432e+01	-1.713213e+01
8.820084e+01	-1.718119e+01
8.871029e+01	-1.723023e+01
8.922267e+01	-1.727966e+01
8.973802e+01	-1.732858e+01
9.025634e+01	-1.737820e+01
9.077766e+01	-1.742759e+01
9.130199e+01	-1.747647e+01
9.182935e+01	-1.752547e+01
9.235975e+01	-1.757424e+01
9.289321e+01	-1.762318e+01
9.342976e+01	-1.767330e+01
9.396941e+01	-1.772171e+01
9.451217e+01	-1.777239e+01
9.505807e+01	-1.782121e+01
9.560712e+01	-1.786993e+01
9.615934e+01	-1.791859e+01
9.671476e+01	-1.796733e+01
9.727338e+01	-1.801795e+01
9.783522e+01	-1.806561e+01
9.840032e+01	-1.811705e+01
9.896867e+01	-1.816454e+01
9.954031e+01	-1.821556e+01
1.001153e+02	-1.826401e+01
1.006935e+02	-1.831147e+01
1.012751e+02	-1.836289e+01
1.018601e+02	-1.841147e+01
1.024484e+02	-1.846162e+01
1.030402e+02	-1.850937e+01
1.036353e+02	-1.856159e+01
1.042339e+02	-1.860918e+01
1.048360e+02	-1.865810e+01
1.054415e+02	-1.870839e+01
1.060505e+02	-1.875674e+01
1.066631e+02	-1.880492e+01
1.072791e+02	-1.885497e+01
1.078988e+02	-1.890533e+01
1.085220e+02	-1.895450e+01
1.091488e+02	-1.900439e+01
1.097793e+02	-1.905516e+01
1.104133e+02	-1.910307e+01
1.110511e+02	-1.915110e+01
1.116925e+02	-1.920237e+01
1.123376e+02	-1.925169e+01
1.129865e+02	-1.930180e+01
1.136391e+02	-1.934961e+01
1.142955e+02	-1.939927e+01
1.149556e+02	-1.944858e+01
1.156196e+02	-1.949836e+01
1.162874e+02	-1.955014e+01
1.169591e+02	-1.959711e+01
1.176347e+02	-1.964714e+01
1.183141e+02	-1.969648e+01
1.189975e+02	-1.974481e+01
1.196848e+02	-1.979546e+01
1.203761e+02	-1.984522e+01
1.210714e+02	-1.989493e+01
1.217707e+02	-1.994429e+01
1.224740e+02	-1.999492e+01
1.231814e+02	-2.004206e+01
1.238929e+02	-2.009203e+01
1.246085e+02	-2.014133e+01
1.253283e+02	-2.019027e+01
1.260522e+02	-2.024175e+01
1.267802e+02	-2.029222e+01
1.275125e+02	-2.034098e+01
1.282490e+02	-2.039022e+01
1.289898e+02	-2.043942e+01
1.297348e+02	-2.048890e+01
1.304842e+02	-2.053660e+01
1.312378e+02	-2.058964e+01
1.319959e+02	-2.063843e+01
1.327583e+02	-2.068709e+01
1.335251e+02	-2.073713e+01
1.342963e+02	-2.078576e+01
1.350720e+02	-2.083606e+01
1.358522e+02	-2.088648e+01
1.366368e+02	-2.093447e+01
1.374260e+02	-2.098581e+01
1.382198e+02	-2.103466e+01
1.390182e+02	-2.108403e+01
1.398211e+02	-2.113320e+01
1.406287e+02	-2.118228e+01
1.414410e+02	-2.123325e+01
1.422579e+02	-2.128222e+01
1.430796e+02	-2.133198e+01
1.439060e+02	-2.138281e+01
1.447372e+02	-2.143194e+01
1.455732e+02	-2.148244e+01
1.464141e+02	-2.153059e+01
1.472597e+02	-2.158124e+01
1.481103e+02	-2.163270e+01
1.489658e+02	-2.167997e+01
1.498262e+02	-2.172864e+01
1.506916e+02	-2.177995e+01
1.515620e+02	-2.182952e+01
1.524374e+02	-2.188037e+01
1.533179e+02	-2.192928e+01
1.542034e+02	-2.197811e+01
1.550941e+02	-2.203035e+01
1.559899e+02	-2.207918e+01
1.568909e+02	-2.212771e+01
1.577971e+02	-2.217839e+01
1.587085e+02	-2.222567e+01
1.596252e+02	-2.227776e+01
1.605472e+02	-2.232461e+01
1.614745e+02	-2.237710e+01
1.624072e+02	-2.242781e+01
1.633453e+02	-2.247589e+01
1.642887e+02	-2.252596e+01
1.652377e+02	-2.257633e+01
1.661921e+02	-2.262351e+01
1.671520e+02	-2.267387e+01
1.681175e+02	-2.272682e+01
1.690885e+02	-2.277346e+01
1.700651e+02	-2.282458e+01
1.710474e+02	-2.287439e+01
1.720354e+02	-2.292329e+01
1.730291e+02	-2.297391e+01
1.740285e+02	-2.302510e+01
1.750337e+02	-2.307524e+01
1.760446e+02	-2.312264e+01
1.770615e+02	-2.317459e+01
1.780842e+02	-2.322441e+01
1.791128e+02	-2.327244e+01
1.801473e+02	-2.332291e+01
1.811878e+02	-2.337217e+01
1.822344e+02	-2.341932e+01
1.832870e+02	-2.347440e+01
1.843456e+02	-2.352400e+01
1.854104e+02	-2.357222e+01
1.864813e+02	-2.362304e+01
1.875584e+02	-2.367162e+01
1.886418e+02	-2.371995e+01
1.897313e+02	-2.377416e+01
1.908272e+02	-2.382053e+01
1.919294e+02	-2.386945e+01
1.930380e+02	-2.392050e+01
1.941530e+02	-2.396994e+01
1.952744e+02	-2.402045e+01
1.964023e+02	-2.407152e+01
1.975367e+02	-2.412073e+01
1.986777e+02	-2.417095e+01
1.998252e+02	-2.422370e+01
2.009794e+02	-2.426795e+01
2.021403e+02	-2.431679e+01
2.033078e+02	-2.436972e+01
2.044821e+02	-2.442040e+01
2.056632e+02	-2.447020e+01
2.068511e+02	-2.451870e+01
2.080459e+02	-2.457089e+01
2.092475e+02	-2.462140e+01
2.104561e+02	-2.466927e+01
2.116717e+02	-2.472027e+01
2.128943e+02	-2.476870e+01
2.141240e+02	-2.481843e+01
2.153608e+02	-2.486900e+01
2.166047e+02	-2.492106e+01
2.178558e+02	-2.496937e+01
2.191141e+02	-2.501645e+01
2.203797e+02	-2.506798e+01
2.216526e+02	-2.512058e+01
2.229329e+02	-2.516849e+01
2.242205e+02	-2.521892e+01
2.255156e+02	-2.526712e+01
2.268182e+02	-2.532116e+01
2.281283e+02	-2.536599e+01
2.294459e+02	-2.541714e+01
2.307712e+02	-2.546824e+01
2.321041e+02	-2.551742e+01
2.334447e+02	-2.556594e+01
2.347931e+02	-2.561813e+01
2.361493e+02	-2.566869e+01
2.375133e+02	-2.571861e+01
2.388851e+02	-2.576779e+01
2.402649e+02	-2.581642e+01
2.416527e+02	-2.586592e+01
2.430484e+02	-2.591742e+01
2.444523e+02	-2.596723e+01
2.458642e+02	-2.601636e+01
2.472843e+02	-2.606747e+01
2.487126e+02	-2.611936e+01
2.501492e+02	-2.617110e+01
2.515940e+02	-2.621377e+01
2.530472e+02	-2.626523e+01
2.545088e+02	-2.631669e+01
2.559789e+02	-2.636692e+01
2.574574e+02	-2.641545e+01
2.589444e+02	-2.646969e+01
2.604401e+02	-2.651752e+01
2.619444e+02	-2.656937e+01
2.634574e+02	-2.661768e+01
2.649791e+02	-2.666744e+01
2.665096e+02	-2.671717e+01
2.680489e+02	-2.676692e+01
2.695972e+02	-2.681575e+01
2.711544e+02	-2.686998e+01
2.727205e+02	-2.691853e+01
2.742958e+02	-2.697207e+01
2.758801e+02	-2.701806e+01
2.774736e+02	-2.706779e+01
2.790762e+02	-2.711652e+01
2.806882e+02	-2.716520e+01
2.823094e+02	-2.721639e+01
2.839400e+02	-2.726302e+01
2.855800e+02	-2.731903e+01
2.872295e+02	-2.736599e+01
2.888886e+02	-2.741769e+01
2.905572e+02	-2.747099e+01
2.922354e+02	-2.751594e+01
2.939234e+02	-2.757095e+01
2.956211e+02	-2.761964e+01
2.973286e+02	-2.766385e+01
2.990459e+02	-2.771752e+01
3.007732e+02	-2.776539e+01
3.025104e+02	-2.781544e+01
3.042577e+02	-2.786787e+01
3.060151e+02	-2.791780e+01
3.077826e+02	-2.796513e+01
3.095604e+02	-2.801738e+01
3.113484e+02	-2.806845e+01
3.131467e+02	-2.811866e+01
3.149554e+02	-2.816738e+01
3.167746e+02	-2.821676e+01
3.186043e+02	-2.826540e+01
3.204445e+02	-2.831632e+01
3.222954e+02	-2.836858e+01
3.241570e+02	-2.841932e+01
3.260293e+02	-2.846482e+01
3.279124e+02	-2.851711e+01
3.298064e+02	-2.856777e+01
3.317114e+02	-2.861846e+01
3.336273e+02	-2.867137e+01
3.355544e+02	-2.871543e+01
3.374925e+02	-2.877261e+01
3.394418e+02	-2.881872e+01
3.414024e+02	-2.886311e+01
3.433744e+02	-2.891759e+01
3.453577e+02	-2.897549e+01
3.473525e+02	-2.902065e+01
3.493588e+02	-2.906633e+01
3.513766e+02	-2.911818e+01
3.534062e+02	-2.917071e+01
3.554474e+02	-2.921391e+01
3.575005e+02	-2.926724e+01
3.595654e+02	-2.931875e+01
3.616422e+02	-2.936858e+01
3.637311e+02	-2.941567e+01
3.658320e+02	-2.946665e+01
3.679450e+02	-2.951795e+01
3.700702e+02	-2.956840e+01
3.722077e+02	-2.962045e+01
3.743576e+02	-2.966662e+01
3.765199e+02	-2.971652e+01
3.786946e+02	-2.976764e+01
3.808820e+02	-2.981909e+01
3.830819e+02	-2.987186e+01
3.852946e+02	-2.991874e+01
3.875200e+02	-2.996577e+01
3.897583e+02	-3.001908e+01
3.920096e+02	-3.007399e+01
3.942738e+02	-3.011993e+01
3.965511e+02	-3.017219e+01
3.988416e+02	-3.021601e+01
4.011452e+02	-3.027442e+01
4.034622e+02	-3.031720e+01
4.057926e+02	-3.036787e+01
4.081365e+02	-3.042662e+01
4.104938e+02	-3.047338e+01
4.128648e+02	-3.051931e+01
4.152495e+02	-3.057490e+01
4.176480e+02	-3.061797e+01
4.200603e+02	-3.067159e+01
4.224866e+02	-3.072209e+01
4.249268e+02	-3.076641e+01
4.273812e+02	-3.082067e+01
4.298497e+02	-3.086894e+01
4.323325e+02	-3.092054e+01
4.348297e+02	-3.097012e+01
4.373412e+02	-3.102026e+01
4.398673e+02	-3.106346e+01
4.424079e+02	-3.112020e+01
4.449633e+02	-3.116844e+01
4.475334e+02	-3.122373e+01
4.501183e+02	-3.126774e+01
4.527182e+02	-3.132452e+01
4.553330e+02	-3.137290e+01
4.579630e+02	-3.142561e+01
4.606082e+02	-3.147046e+01
4.632687e+02	-3.152632e+01
4.659445e+02	-3.157686e+01
4.686358e+02	-3.162455e+01
4.713426e+02	-3.167489e+01
4.740650e+02	-3.172667e+01
4.768032e+02	-3.177843e+01
4.795572e+02	-3.182587e+01
4.823271e+02	-3.187705e+01
4.851130e+02	-3.192636e+01
4.879150e+02	-3.197772e+01
4.907332e+02	-3.202582e+01
4.935676e+02	-3.207274e+01
4.964185e+02	-3.212896e+01
4.992858e+02	-3.216958e+01
5.021696e+02	-3.223443e+01
5.050701e+02	-3.228039e+01
5.079874e+02	-3.232938e+01
5.109215e+02	-3.237987e+01
5.138726e+02	-3.242927e+01
5.168407e+02	-3.247262e+01
5.198259e+02	-3.252271e+01
5.228284e+02	-3.257677e+01
5.258482e+02	-3.262830e+01
5.288855e+02	-3.268271e+01
5.319403e+02	-3.273019e+01
5.350128e+02	-3.278499e+01
5.381030e+02	-3.283651e+01
5.412111e+02	-3.288047e+01
5.443371e+02	-3.292712e+01
5.474812e+02	-3.297536e+01
5.506434e+02	-3.302693e+01
5.538239e+02	-3.307912e+01
5.570228e+02	-3.312979e+01
5.602401e+02	-3.318588e+01
5.634760e+02	-3.322878e+01
5.667306e+02	-3.327616e+01
5.700040e+02	-3.333252e+01
5.732964e+02	-3.337838e+01
5.766077e+02	-3.342845e+01
5.799382e+02	-3.348383e+01
5.832879e+02	-3.353563e+01
5.866569e+02	-3.357956e+01
5.900454e+02	-3.363291e+01
5.934535e+02	-3.368946e+01
5.968813e+02	-3.372868e+01
6.003288e+02	-3.378175e+01
6.037963e+02	-3.382972e+01
6.072838e+02	-3.388429e+01
6.107914e+02	-3.393874e+01
6.143194e+02	-3.398737e+01
6.178676e+02	-3.403467e+01
6.214364e+02	-3.408141e+01
6.250258e+02	-3.414183e+01
6.286359e+02	-3.418197e+01
6.322669e+02	-3.423432e+01
6.359189e+02	-3.428795e+01
6.395919e+02	-3.434096e+01
6.432862e+02	-3.438974e+01
6.470017e+02	-3.443507e+01
6.507388e+02	-3.448579e+01
6.544974e+02	-3.453742e+01
6.582778e+02	-3.458896e+01
6.620800e+02	-3.464218e+01
6.659041e+02	-3.468989e+01
6.697504e+02	-3.474100e+01
6.736188e+02	-3.480108e+01
6.775096e+02	-3.485332e+01
6.814229e+02	-3.489475e+01
6.853587e+02	-3.494951e+01
6.893173e+02	-3.499917e+01
6.932988e+02	-3.503487e+01
6.973033e+02	-3.509612e+01
7.013309e+02	-3.514507e+01
