Frequency(Hz)	Magnitude(dB)
1.000000e+01	-2.173051e+00
1.005776e+01	-2.193025e+00
1.011585e+01	-2.212922e+00
1.017428e+01	-2.232992e+00
1.023305e+01	-2.253125e+00
1.029215e+01	-2.273545e+00
1.035160e+01	-2.293921e+00
1.041139e+01	-2.314510e+00
1.047153e+01	-2.335355e+00
1.053201e+01	-2.356057e+00
1.059284e+01	-2.377107e+00
1.065403e+01	-2.398345e+00
1.071556e+01	-2.419664e+00
1.077746e+01	-2.441129e+00
1.083971e+01	-2.462409e+00
1.090232e+01	-2.484177e+00
1.096529e+01	-2.506126e+00
1.102862e+01	-2.528081e+00
1.109232e+01	-2.550370e+00
1.115639e+01	-2.572574e+00
1.122083e+01	-2.595197e+00
1.128564e+01	-2.617664e+00
1.135083e+01	-2.640504e+00
1.141639e+01	-2.663358e+00
1.148233e+01	-2.686346e+00
1.154865e+01	-2.709583e+00
1.161536e+01	-2.732748e+00
1.168245e+01	-2.756084e+00
1.174992e+01	-2.779549e+00
1.181779e+01	-2.803443e+00
1.188605e+01	-2.827209e+00
1.195470e+01	-2.851043e+00
1.202375e+01	-2.875373e+00
1.209320e+01	-2.899666e+00
1.216305e+01	-2.924239e+00
1.223330e+01	-2.948710e+00
1.230396e+01	-2.973395e+00
1.237503e+01	-2.998475e+00
1.244651e+01	-3.023274e+00
1.251840e+01	-3.048602e+00
1.259070e+01	-3.073735e+00
1.266343e+01	-3.099267e+00
1.273657e+01	-3.124929e+00
1.281014e+01	-3.150530e+00
1.288413e+01	-3.176598e+00
1.295855e+01	-3.202456e+00
1.303339e+01	-3.228666e+00
1.310867e+01	-3.254936e+00
1.318439e+01	-3.281289e+00
1.326054e+01	-3.307874e+00
1.333713e+01	-3.334960e+00
1.341417e+01	-3.361714e+00
1.349165e+01	-3.388689e+00
1.356958e+01	-3.416142e+00
1.364795e+01	-3.443002e+00
1.372678e+01	-3.470636e+00
1.380607e+01	-3.498260e+00
1.388581e+01	-3.526045e+00
1.396602e+01	-3.553972e+00
1.404668e+01	-3.581688e+00
1.412782e+01	-3.609977e+00
1.420942e+01	-3.638117e+00
1.429149e+01	-3.666721e+00
1.437404e+01	-3.695113e+00
1.445706e+01	-3.724128e+00
1.454057e+01	-3.752996e+00
1.462455e+01	-3.781992e+00
1.470902e+01	-3.811282e+00
1.479398e+01	-3.840434e+00
1.487943e+01	-3.869965e+00
1.496537e+01	-3.899308e+00
1.505181e+01	-3.929310e+00
1.513875e+01	-3.958815e+00
1.522619e+01	-3.989228e+00
1.531414e+01	-4.019206e+00
1.540259e+01	-4.049677e+00
1.549156e+01	-4.079840e+00
1.558103e+01	-4.110332e+00
1.567103e+01	-4.141093e+00
1.576155e+01	-4.171687e+00
1.585258e+01	-4.202580e+00
1.594415e+01	-4.233982e+00
1.603624e+01	-4.265136e+00
1.612886e+01	-4.296495e+00
1.622202e+01	-4.328088e+00
1.631572e+01	-4.359498e+00
1.640996e+01	-4.391279e+00
1.650474e+01	-4.423435e+00
1.660008e+01	-4.455146e+00
1.669596e+01	-4.487592e+00
1.679239e+01	-4.519554e+00
1.688938e+01	-4.552020e+00
1.698694e+01	-4.584738e+00
1.708505e+01	-4.617297e+00
1.718373e+01	-4.650357e+00
1.728299e+01	-4.683233e+00
1.738281e+01	-4.716212e+00
1.748322e+01	-4.749587e+00
1.758420e+01	-4.782839e+00
1.768576e+01	-4.816132e+00
1.778792e+01	-4.849868e+00
1.789066e+01	-4.883474e+00
1.799399e+01	-4.917335e+00
1.809793e+01	-4.951113e+00
1.820246e+01	-4.985254e+00
1.830760e+01	-5.019636e+00
1.841334e+01	-5.053910e+00
1.851969e+01	-5.088482e+00
1.862666e+01	-5.122922e+00
1.873425e+01	-5.157857e+00
1.884246e+01	-5.192423e+00
1.895129e+01	-5.227315e+00
1.906075e+01	-5.262516e+00
1.917085e+01	-5.297640e+00
1.928158e+01	-5.332964e+00
1.939295e+01	-5.368470e+00
1.950496e+01	-5.403787e+00
1.961762e+01	-5.439706e+00
1.973093e+01	-5.475425e+00
1.984490e+01	-5.511511e+00
1.995952e+01	-5.547135e+00
2.007480e+01	-5.583679e+00
2.019076e+01	-5.619674e+00
2.030738e+01	-5.656289e+00
2.042467e+01	-5.692637e+00
2.054264e+01	-5.729235e+00
2.066130e+01	-5.765696e+00
2.078064e+01	-5.802857e+00
2.090066e+01	-5.839747e+00
2.102139e+01	-5.876711e+00
2.114280e+01	-5.913986e+00
2.126492e+01	-5.951207e+00
2.138775e+01	-5.988672e+00
2.151128e+01	-6.026346e+00
2.163553e+01	-6.063571e+00
2.176050e+01	-6.101202e+00
2.188619e+01	-6.139108e+00
2.201260e+01	-6.177327e+00
2.213974e+01	-6.215016e+00
2.226762e+01	-6.253188e+00
2.239624e+01	-6.291429e+00
2.252560e+01	-6.329857e+00
2.265571e+01	-6.368318e+00
2.278656e+01	-6.406691e+00
2.291818e+01	-6.445266e+00
2.305055e+01	-6.484321e+00
2.318369e+01	-6.523027e+00
2.331760e+01	-6.562012e+00
2.345228e+01	-6.600779e+00
2.358774e+01	-6.640018e+00
2.372398e+01	-6.679222e+00
2.386101e+01	-6.718432e+00
2.399883e+01	-6.757668e+00
2.413745e+01	-6.797447e+00
2.427686e+01	-6.837022e+00
2.441709e+01	-6.877006e+00
2.455812e+01	-6.916336e+00
2.469997e+01	-6.956543e+00
2.484263e+01	-6.996190e+00
2.498612e+01	-7.036380e+00
2.513044e+01	-7.076600e+00
2.527559e+01	-7.117281e+00
2.542158e+01	-7.157474e+00
2.556842e+01	-7.197808e+00
2.571610e+01	-7.238076e+00
2.586463e+01	-7.279176e+00
2.601403e+01	-7.319787e+00
2.616428e+01	-7.360263e+00
2.631541e+01	-7.401529e+00
2.646740e+01	-7.442181e+00
2.662028e+01	-7.483176e+00
2.677404e+01	-7.524738e+00
2.692868e+01	-7.565922e+00
2.708422e+01	-7.607410e+00
2.724066e+01	-7.648037e+00
2.739800e+01	-7.689767e+00
2.755625e+01	-7.731894e+00
2.771541e+01	-7.773066e+00
2.787550e+01	-7.814718e+00
2.803650e+01	-7.856483e+00
2.819844e+01	-7.898629e+00
2.836131e+01	-7.940448e+00
2.852513e+01	-7.982586e+00
2.868989e+01	-8.024659e+00
2.885560e+01	-8.066720e+00
2.902227e+01	-8.109019e+00
2.918990e+01	-8.150749e+00
2.935850e+01	-8.193694e+00
2.952807e+01	-8.235928e+00
2.969863e+01	-8.278802e+00
2.987016e+01	-8.321019e+00
3.004269e+01	-8.363751e+00
3.021622e+01	-8.406877e+00
3.039075e+01	-8.449913e+00
3.056628e+01	-8.492087e+00
3.074283e+01	-8.535899e+00
3.092040e+01	-8.578360e+00
3.109900e+01	-8.621657e+00
3.127862e+01	-8.664872e+00
3.145929e+01	-8.707912e+00
3.164099e+01	-8.751875e+00
3.182375e+01	-8.794841e+00
3.200756e+01	-8.838165e+00
3.219244e+01	-8.881996e+00
3.237838e+01	-8.925574e+00
3.256540e+01	-8.969149e+00
3.275349e+01	-9.012611e+00
3.294268e+01	-9.056831e+00
3.313295e+01	-9.100499e+00
3.332433e+01	-9.144263e+00
3.351681e+01	-9.188536e+00
3.371040e+01	-9.232060e+00
3.390511e+01	-9.276322e+00
3.410094e+01	-9.320569e+00
3.429791e+01	-9.364949e+00
3.449601e+01	-9.408936e+00
3.469526e+01	-9.453742e+00
3.489566e+01	-9.497821e+00
3.509721e+01	-9.542160e+00
3.529993e+01	-9.585970e+00
3.550382e+01	-9.630845e+00
3.570889e+01	-9.675303e+00
3.591515e+01	-9.720577e+00
3.612259e+01	-9.765099e+00
3.633123e+01	-9.809957e+00
3.654108e+01	-9.854590e+00
3.675214e+01	-9.899470e+00
3.696442e+01	-9.944225e+00
3.717792e+01	-9.989336e+00
3.739266e+01	-1.003479e+01
3.760864e+01	-1.007956e+01
3.782587e+01	-1.012485e+01
3.804435e+01	-1.016963e+01
3.826409e+01	-1.021522e+01
3.848510e+01	-1.026143e+01
3.870739e+01	-1.030604e+01
3.893096e+01	-1.035142e+01
3.915583e+01	-1.039709e+01
3.938199e+01	-1.044179e+01
3.960946e+01	-1.048728e+01
3.983824e+01	-1.053333e+01
4.006834e+01	-1.057882e+01
4.029978e+01	-1.062446e+01
4.053255e+01	-1.067007e+01
4.076666e+01	-1.071621e+01
4.100213e+01	-1.076210e+01
4.123896e+01	-1.080801e+01
4.147715e+01	-1.085349e+01
4.171672e+01	-1.089956e+01
4.195767e+01	-1.094540e+01
4.220002e+01	-1.099154e+01
4.244377e+01	-1.103782e+01
4.268892e+01	-1.108404e+01
4.293549e+01	-1.113033e+01
4.318348e+01	-1.117562e+01
4.343291e+01	-1.122270e+01
4.368377e+01	-1.126921e+01
4.393609e+01	-1.131489e+01
4.418986e+01	-1.136143e+01
4.444510e+01	-1.140818e+01
4.470182e+01	-1.145399e+01
4.496001e+01	-1.150031e+01
4.521970e+01	-1.154738e+01
4.548089e+01	-1.159372e+01
4.574358e+01	-1.164039e+01
4.600779e+01	-1.168660e+01
4.627353e+01	-1.173368e+01
4.654081e+01	-1.177923e+01
4.680963e+01	-1.182719e+01
4.708000e+01	-1.187312e+01
4.735193e+01	-1.192059e+01
4.762543e+01	-1.196712e+01
4.790051e+01	-1.201428e+01
4.817719e+01	-1.206090e+01
4.845545e+01	-1.210749e+01
4.873533e+01	-1.215467e+01
4.901682e+01	-1.220237e+01
4.929994e+01	-1.224915e+01
4.958470e+01	-1.229598e+01
4.987110e+01	-1.234319e+01
5.015915e+01	-1.239014e+01
5.044887e+01	-1.243733e+01
5.074026e+01	-1.248411e+01
5.103333e+01	-1.253234e+01
5.132810e+01	-1.257899e+01
5.162457e+01	-1.262621e+01
5.192275e+01	-1.267380e+01
5.222265e+01	-1.272057e+01
5.252429e+01	-1.276798e+01
5.282767e+01	-1.281625e+01
5.313280e+01	-1.286302e+01
5.343969e+01	-1.291024e+01
5.374836e+01	-1.295882e+01
5.405880e+01	-1.300538e+01
5.437105e+01	-1.305207e+01
5.468509e+01	-1.310074e+01
5.500095e+01	-1.314780e+01
5.531863e+01	-1.319622e+01
5.563815e+01	-1.324330e+01
5.595951e+01	-1.329114e+01
5.628273e+01	-1.333907e+01
5.660782e+01	-1.338676e+01
5.693479e+01	-1.343407e+01
5.726364e+01	-1.348219e+01
5.759439e+01	-1.352977e+01
5.792705e+01	-1.357856e+01
5.826164e+01	-1.362547e+01
5.859815e+01	-1.367382e+01
5.893662e+01	-1.372184e+01
5.927703e+01	-1.376926e+01
5.961941e+01	-1.381686e+01
5.996377e+01	-1.386548e+01
6.031012e+01	-1.391320e+01
6.065847e+01	-1.396095e+01
6.100883e+01	-1.400933e+01
6.136121e+01	-1.405745e+01
6.171563e+01	-1.410472e+01
6.207210e+01	-1.415335e+01
6.243063e+01	-1.420186e+01
6.279122e+01	-1.424941e+01
6.315390e+01	-1.429793e+01
6.351868e+01	-1.434683e+01
6.388556e+01	-1.439424e+01
6.425456e+01	-1.444186e+01
6.462569e+01	-1.449133e+01
6.499897e+01	-1.453924e+01
6.537440e+01	-1.458808e+01
6.575200e+01	-1.463580e+01
6.613178e+01	-1.468379e+01
6.651375e+01	-1.473285e+01
6.689793e+01	-1.478061e+01
6.728433e+01	-1.482840e+01
6.767297e+01	-1.487766e+01
6.806384e+01	-1.492523e+01
6.845698e+01	-1.497433e+01
6.885238e+01	-1.502346e+01
6.925007e+01	-1.507127e+01
6.965005e+01	-1.511954e+01
7.005235e+01	-1.516901e+01
7.045697e+01	-1.521684e+01
7.086393e+01	-1.526462e+01
7.127323e+01	-1.531465e+01
7.168490e+01	-1.536220e+01
7.209895e+01	-1.541130e+01
7.251539e+01	-1.545858e+01
7.293424e+01	-1.550762e+01
7.335551e+01	-1.555647e+01
7.377920e+01	-1.560568e+01
7.420535e+01	-1.565342e+01
7.463396e+01	-1.570216e+01
7.506504e+01	-1.575128e+01
7.549861e+01	-1.579937e+01
7.593469e+01	-1.584943e+01
7.637328e+01	-1.589787e+01
7.681441e+01	-1.594587e+01
7.725809e+01	-1.599527e+01
7.770433e+01	-1.604294e+01
7.815315e+01	-1.609134e+01
7.860456e+01	-1.614128e+01
7.905857e+01	-1.619048e+01
7.951521e+01	-1.623894e+01
7.997449e+01	-1.628808e+01
8.043642e+01	-1.633735e+01
8.090102e+01	-1.638585e+01
8.136830e+01	-1.643398e+01
8.183828e+01	-1.648387e+01
8.231097e+01	-1.653204e+01
8.278640e+01	-1.658266e+01
8.326457e+01	-1.662956e+01
8.374550e+01	-1.667917e+01
8.422921e+01	-1.672831e+01
8.471572e+01	-1.677664e+01
8.520503e+01	-1.682614e+01
8.569717e+01	-1.687494e+01
8.619215e+01	-1.692513e+01
8.669000e+01	-1.697263e+01
8.719071e+01	-1.702276e+01
8.769432e+01	-1.707150e+01
8.820084e+01	-1.712032e+01
8.871029e+01	-1.716997e+01
8.922267e+01	-1.721937e+01
8.973802e+01	-1.726728e+01
9.025634e+01	-1.731626e+01
9.077766e+01	-1.736561e+01
9.130199e+01	-1.741379e+01
9.182935e+01	-1.746290e+01
9.235975e+01	-1.751279e+01
9.289321e+01	-1.756169e+01
9.342976e+01	-1.761095e+01
9.396941e+01	-1.765928e+01
9.451217e+01	-1.771065e+01
9.505807e+01	-1.775957e+01
9.560712e+01	-1.780738e+01
9.615934e+01	-1.785781e+01
9.671476e+01	-1.790724e+01
9.727338e+01	-1.795706e+01
9.783522e+01	-1.800463e+01
9.840032e+01	-1.805352e+01
9.896867e+01	-1.810290e+01
9.954031e+01	-1.815403e+01
1.001153e+02	-1.820139e+01
1.006935e+02	-1.825125e+01
1.012751e+02	-1.829961e+01
1.018601e+02	-1.834961e+01
1.024484e+02	-1.839916e+01
1.030402e+02	-1.844807e+01
1.036353e+02	-1.849790e+01
1.042339e+02	-1.854700e+01
1.048360e+02	-1.859737e+01
1.054415e+02	-1.864572e+01
1.060505e+02	-1.869567e+01
1.066631e+02	-1.874474e+01
1.072791e+02	-1.879412e+01
1.078988e+02	-1.884337e+01
1.085220e+02	-1.889340e+01
1.091488e+02	-1.894264e+01
1.097793e+02	-1.899076e+01
1.104133e+02	-1.904078e+01
1.110511e+02	-1.908975e+01
1.116925e+02	-1.913877e+01
1.123376e+02	-1.918944e+01
1.129865e+02	-1.923832e+01
1.136391e+02	-1.928675e+01
1.142955e+02	-1.933828e+01
1.149556e+02	-1.938673e+01
1.156196e+02	-1.943734e+01
1.162874e+02	-1.948545e+01
1.169591e+02	-1.953518e+01
1.176347e+02	-1.958480e+01
1.183141e+02	-1.963519e+01
1.189975e+02	-1.968326e+01
1.196848e+02	-1.973229e+01
1.203761e+02	-1.978414e+01
1.210714e+02	-1.983251e+01
1.217707e+02	-1.988204e+01
1.224740e+02	-1.993041e+01
1.231814e+02	-1.997997e+01
1.238929e+02	-2.003095e+01
1.246085e+02	-2.007948e+01
1.253283e+02	-2.012966e+01
1.260522e+02	-2.018059e+01
1.267802e+02	-2.022739e+01
1.275125e+02	-2.027756e+01
1.282490e+02	-2.032620e+01
1.289898e+02	-2.037693e+01
1.297348e+02	-2.042699e+01
1.304842e+02	-2.047847e+01
1.312378e+02	-2.052591e+01
1.319959e+02	-2.057450e+01
1.327583e+02	-2.062570e+01
1.335251e+02	-2.067391e+01
1.342963e+02	-2.072459e+01
1.350720e+02	-2.077439e+01
1.358522e+02	-2.082309e+01
1.366368e+02	-2.087373e+01
1.374260e+02	-2.092485e+01
1.382198e+02	-2.097087e+01
1.390182e+02	-2.102379e+01
1.398211e+02	-2.107177e+01
1.406287e+02	-2.112169e+01
1.414410e+02	-2.116970e+01
1.422579e+02	-2.122135e+01
1.430796e+02	-2.126980e+01
1.439060e+02	-2.131960e+01
1.447372e+02	-2.137059e+01
1.455732e+02	-2.141740e+01
1.464141e+02	-2.146844e+01
1.472597e+02	-2.151823e+01
1.481103e+02	-2.157027e+01
1.489658e+02	-2.161899e+01
1.498262e+02	-2.166995e+01
1.506916e+02	-2.171814e+01
1.515620e+02	-2.176680e+01
1.524374e+02	-2.181747e+01
1.533179e+02	-2.186547e+01
1.542034e+02	-2.191585e+01
1.550941e+02	-2.196485e+01
1.559899e+02	-2.201677e+01
1.568909e+02	-2.206576e+01
1.577971e+02	-2.211655e+01
1.587085e+02	-2.216267e+01
1.596252e+02	-2.221518e+01
1.605472e+02	-2.226240e+01
1.614745e+02	-2.231467e+01
1.624072e+02	-2.236408e+01
1.633453e+02	-2.241329e+01
1.642887e+02	-2.246563e+01
1.652377e+02	-2.251345e+01
1.661921e+02	-2.256400e+01
1.671520e+02	-2.261209e+01
1.681175e+02	-2.266220e+01
1.690885e+02	-2.271153e+01
1.700651e+02	-2.276513e+01
1.710474e+02	-2.281351e+01
1.720354e+02	-2.286220e+01
1.730291e+02	-2.291159e+01
1.740285e+02	-2.296455e+01
1.750337e+02	-2.301089e+01
1.760446e+02	-2.306033e+01
1.770615e+02	-2.310917e+01
1.780842e+02	-2.316201e+01
1.791128e+02	-2.321198e+01
1.801473e+02	-2.325811e+01
1.811878e+02	-2.331050e+01
1.822344e+02	-2.335971e+01
1.832870e+02	-2.341296e+01
1.843456e+02	-2.346136e+01
1.854104e+02	-2.350886e+01
1.864813e+02	-2.355915e+01
1.875584e+02	-2.360743e+01
1.886418e+02	-2.365999e+01
1.897313e+02	-2.370852e+01
1.908272e+02	-2.375679e+01
1.919294e+02	-2.380866e+01
1.930380e+02	-2.386064e+01
1.941530e+02	-2.390990e+01
1.952744e+02	-2.395766e+01
1.964023e+02	-2.400714e+01
1.975367e+02	-2.405492e+01
1.986777e+02	-2.410894e+01
1.998252e+02	-2.415717e+01
2.009794e+02	-2.420768e+01
2.021403e+02	-2.425516e+01
2.033078e+02	-2.430759e+01
2.044821e+02	-2.435772e+01
2.056632e+02	-2.440525e+01
2.068511e+02	-2.445813e+01
2.080459e+02	-2.450637e+01
2.092475e+02	-2.455597e+01
2.104561e+02	-2.460623e+01
2.116717e+02	-2.465802e+01
2.128943e+02	-2.470453e+01
2.141240e+02	-2.475506e+01
2.153608e+02	-2.480675e+01
2.166047e+02	-2.485920e+01
2.178558e+02	-2.490602e+01
2.191141e+02	-2.495564e+01
2.203797e+02	-2.500428e+01
2.216526e+02	-2.505685e+01
2.229329e+02	-2.510282e+01
2.242205e+02	-2.515324e+01
2.255156e+02	-2.520864e+01
2.268182e+02	-2.525453e+01
2.281283e+02	-2.530274e+01
2.294459e+02	-2.535315e+01
2.307712e+02	-2.540323e+01
2.321041e+02	-2.545426e+01
2.334447e+02	-2.550751e+01
2.347931e+02	-2.555310e+01
2.361493e+02	-2.560426e+01
2.375133e+02	-2.565251e+01
2.388851e+02	-2.570283e+01
2.402649e+02	-2.575450e+01
2.416527e+02	-2.580388e+01
2.430484e+02	-2.585780e+01
2.444523e+02	-2.590373e+01
2.458642e+02	-2.595369e+01
2.472843e+02	-2.600696e+01
2.487126e+02	-2.605512e+01
2.501492e+02	-2.610506e+01
2.515940e+02	-2.615402e+01
2.530472e+02	-2.620435e+01
2.545088e+02	-2.625062e+01
2.559789e+02	-2.630059e+01
2.574574e+02	-2.635370e+01
2.589444e+02	-2.640165e+01
2.604401e+02	-2.645268e+01
2.619444e+02	-2.650191e+01
2.634574e+02	-2.655393e+01
2.649791e+02	-2.660191e+01
2.665096e+02	-2.665043e+01
2.680489e+02	-2.670636e+01
2.695972e+02	-2.675395e+01
2.711544e+02	-2.680702e+01
2.727205e+02	-2.685758e+01
2.742958e+02	-2.690145e+01
2.758801e+02	-2.695234e+01
2.774736e+02	-2.700117e+01
2.790762e+02	-2.705052e+01
2.806882e+02	-2.710512e+01
2.823094e+02	-2.715386e+01
2.839400e+02	-2.720099e+01
2.855800e+02	-2.725294e+01
2.872295e+02	-2.730132e+01
2.888886e+02	-2.735394e+01
2.905572e+02	-2.740513e+01
2.922354e+02	-2.745553e+01
2.939234e+02	-2.750463e+01
2.956211e+02	-2.755209e+01
2.973286e+02	-2.760752e+01
2.990459e+02	-2.765396e+01
3.007732e+02	-2.770263e+01
3.025104e+02	-2.775517e+01
3.042577e+02	-2.780238e+01
3.060151e+02	-2.785306e+01
3.077826e+02	-2.789951e+01
3.095604e+02	-2.795396e+01
3.113484e+02	-2.800170e+01
3.131467e+02	-2.805293e+01
3.149554e+02	-2.810022e+01
3.167746e+02	-2.815751e+01
3.186043e+02	-2.820249e+01
3.204445e+02	-2.825154e+01
3.222954e+02	-2.830316e+01
3.241570e+02	-2.835192e+01
3.260293e+02	-2.840250e+01
3.279124e+02	-2.845211e+01
3.298064e+02	-2.850307e+01
3.317114e+02	-2.855619e+01
3.336273e+02	-2.860661e+01
3.355544e+02	-2.865253e+01
3.374925e+02	-2.870319e+01
3.394418e+02	-2.875305e+01
3.414024e+02	-2.879772e+01
3.433744e+02	-2.885382e+01
3.453577e+02	-2.890614e+01
3.473525e+02	-2.895269e+01
3.493588e+02	-2.900323e+01
3.513766e+02	-2.905231e+01
3.534062e+02	-2.910667e+01
3.554474e+02	-2.915297e+01
3.575005e+02	-2.920251e+01
3.595654e+02	-2.925464e+01
3.616422e+02	-2.930238e+01
3.637311e+02	-2.935417e+01
3.658320e+02	-2.940180e+01
3.679450e+02	-2.944997e+01
3.700702e+02	-2.950170e+01
3.722077e+02	-2.955659e+01
3.743576e+02	-2.960291e+01
3.765199e+02	-2.965570e+01
3.786946e+02	-2.970354e+01
3.808820e+02	-2.975885e+01
3.830819e+02	-2.980389e+01
3.852946e+02	-2.985780e+01
3.875200e+02	-2.990407e+01
3.897583e+02	-2.995449e+01
3.920096e+02	-3.000654e+01
3.942738e+02	-3.005903e+01
3.965511e+02	-3.010630e+01
3.988416e+02	-3.015636e+01
4.011452e+02	-3.020943e+01
4.034622e+02	-3.025421e+01
4.057926e+02	-3.030255e+01
4.081365e+02	-3.035693e+01
4.104938e+02	-3.040784e+01
4.128648e+02	-3.045587e+01
4.152495e+02	-3.050966e+01
4.176480e+02	-3.055276e+01
4.200603e+02	-3.060424e+01
4.224866e+02	-3.065500e+01
4.249268e+02	-3.070655e+01
4.273812e+02	-3.075867e+01
4.298497e+02	-3.080855e+01
4.323325e+02	-3.086286e+01
4.348297e+02	-3.090577e+01
4.373412e+02	-3.095497e+01
4.398673e+02	-3.100556e+01
4.424079e+02	-3.105054e+01
4.449633e+02	-3.110877e+01
4.475334e+02	-3.116038e+01
4.501183e+02	-3.120529e+01
4.527182e+02	-3.125725e+01
4.553330e+02	-3.131315e+01
4.579630e+02	-3.136071e+01
4.606082e+02	-3.140734e+01
4.632687e+02	-3.146424e+01
4.659445e+02	-3.150953e+01
4.686358e+02	-3.156070e+01
4.713426e+02	-3.160488e+01
4.740650e+02	-3.166097e+01
4.768032e+02	-3.170367e+01
4.795572e+02	-3.176375e+01
4.823271e+02	-3.181315e+01
4.851130e+02	-3.185727e+01
4.879150e+02	-3.191233e+01
4.907332e+02	-3.196170e+01
4.935676e+02	-3.201293e+01
4.964185e+02	-3.206644e+01
4.992858e+02	-3.211150e+01
5.021696e+02	-3.215969e+01
5.050701e+02	-3.221490e+01
5.079874e+02	-3.226496e+01
5.109215e+02	-3.230755e+01
5.138726e+02	-3.235561e+01
5.168407e+02	-3.240687e+01
5.198259e+02	-3.245797e+01
5.228284e+02	-3.251466e+01
5.258482e+02	-3.256359e+01
5.288855e+02	-3.261685e+01
5.319403e+02	-3.265895e+01
5.350128e+02	-3.271556e+01
5.381030e+02	-3.276790e+01
5.412111e+02	-3.281455e+01
5.443371e+02	-3.286583e+01
5.474812e+02	-3.291504e+01
5.506434e+02	-3.296198e+01
5.538239e+02	-3.301597e+01
5.570228e+02	-3.306993e+01
5.602401e+02	-3.311862e+01
5.634760e+02	-3.316899e+01
5.667306e+02	-3.321249e+01
5.700040e+02	-3.326508e+01
5.732964e+02	-3.331762e+01
5.766077e+02	-3.336801e+01
5.799382e+02	-3.341905e+01
5.832879e+02	-3.347019e+01
5.866569e+02	-3.351714e+01
5.900454e+02	-3.356735e+01
5.934535e+02	-3.362018e+01
5.968813e+02	-3.366585e+01
6.003288e+02	-3.371745e+01
6.037963e+02	-3.376037e+01
6.072838e+02	-3.381115e+01
6.107914e+02	-3.386394e+01
6.143194e+02	-3.391669e+01
6.178676e+02	-3.397015e+01
6.214364e+02	-3.401810e+01
6.250258e+02	-3.407043e+01
6.286359e+02	-3.412450e+01
6.322669e+02	-3.416812e+01
6.359189e+02	-3.421576e+01
6.395919e+02	-3.426944e+01
6.432862e+02	-3.432746e+01
6.470017e+02	-3.437481e+01
6.507388e+02	-3.441721e+01
6.544974e+02	-3.446488e+01
6.582778e+02	-3.451452e+01
6.620800e+02	-3.457790e+01
6.659041e+02	-3.462236e+01
6.697504e+02	-3.467308e+01
6.736188e+02	-3.472262e+01
6.775096e+02	-3.477215e+01
6.814229e+02	-3.482945e+01
6.853587e+02	-3.488018e+01
6.893173e+02	-3.492067e+01
6.932988e+02	-3.497282e+01
6.973033e+02	-3.502438e+01
7.013309e+02	-3.507192e+01
