Frequency(Hz)	Magnitude(dB)
1.000000e+01	-2.176666e+00
1.005776e+01	-2.196393e+00
1.011585e+01	-2.216444e+00
1.017428e+01	-2.236305e+00
1.023305e+01	-2.256833e+00
1.029215e+01	-2.277095e+00
1.035160e+01	-2.297517e+00
1.041139e+01	-2.318016e+00
1.047153e+01	-2.338989e+00
1.053201e+01	-2.359771e+00
1.059284e+01	-2.380806e+00
1.065403e+01	-2.401995e+00
1.071556e+01	-2.423054e+00
1.077746e+01	-2.444938e+00
1.083971e+01	-2.466572e+00
1.090232e+01	-2.488285e+00
1.096529e+01	-2.510134e+00
1.102862e+01	-2.532179e+00
1.109232e+01	-2.554346e+00
1.115639e+01	-2.576588e+00
1.122083e+01	-2.598920e+00
1.128564e+01	-2.621648e+00
1.135083e+01	-2.644302e+00
1.141639e+01	-2.667192e+00
1.148233e+01	-2.690263e+00
1.154865e+01	-2.713379e+00
1.161536e+01	-2.736689e+00
1.168245e+01	-2.760015e+00
1.174992e+01	-2.784166e+00
1.181779e+01	-2.807540e+00
1.188605e+01	-2.831495e+00
1.195470e+01	-2.855464e+00
1.202375e+01	-2.879767e+00
1.209320e+01	-2.903911e+00
1.216305e+01	-2.928479e+00
1.223330e+01	-2.953164e+00
1.230396e+01	-2.977827e+00
1.237503e+01	-3.002758e+00
1.244651e+01	-3.027832e+00
1.251840e+01	-3.053008e+00
1.259070e+01	-3.078049e+00
1.266343e+01	-3.103924e+00
1.273657e+01	-3.129507e+00
1.281014e+01	-3.155147e+00
1.288413e+01	-3.181054e+00
1.295855e+01	-3.207164e+00
1.303339e+01	-3.233301e+00
1.310867e+01	-3.259541e+00
1.318439e+01	-3.286093e+00
1.326054e+01	-3.312740e+00
1.333713e+01	-3.339606e+00
1.341417e+01	-3.366399e+00
1.349165e+01	-3.393437e+00
1.356958e+01	-3.420503e+00
1.364795e+01	-3.448174e+00
1.372678e+01	-3.475342e+00
1.380607e+01	-3.503210e+00
1.388581e+01	-3.530786e+00
1.396602e+01	-3.558867e+00
1.404668e+01	-3.586997e+00
1.412782e+01	-3.614950e+00
1.420942e+01	-3.643401e+00
1.429149e+01	-3.671770e+00
1.437404e+01	-3.700449e+00
1.445706e+01	-3.728929e+00
1.454057e+01	-3.757994e+00
1.462455e+01	-3.786949e+00
1.470902e+01	-3.816132e+00
1.479398e+01	-3.845623e+00
1.487943e+01	-3.875085e+00
1.496537e+01	-3.904779e+00
1.505181e+01	-3.934440e+00
1.513875e+01	-3.964351e+00
1.522619e+01	-3.994346e+00
1.531414e+01	-4.024499e+00
1.540259e+01	-4.054870e+00
1.549156e+01	-4.085300e+00
1.558103e+01	-4.115937e+00
1.567103e+01	-4.146416e+00
1.576155e+01	-4.177168e+00
1.585258e+01	-4.208164e+00
1.594415e+01	-4.239255e+00
1.603624e+01	-4.270400e+00
1.612886e+01	-4.302070e+00
1.622202e+01	-4.333477e+00
1.631572e+01	-4.364675e+00
1.640996e+01	-4.396995e+00
1.650474e+01	-4.428755e+00
1.660008e+01	-4.461058e+00
1.669596e+01	-4.492951e+00
1.679239e+01	-4.525602e+00
1.688938e+01	-4.558108e+00
1.698694e+01	-4.590292e+00
1.708505e+01	-4.622994e+00
1.718373e+01	-4.655996e+00
1.728299e+01	-4.689123e+00
1.738281e+01	-4.722155e+00
1.748322e+01	-4.755243e+00
1.758420e+01	-4.788484e+00
1.768576e+01	-4.822080e+00
1.778792e+01	-4.855829e+00
1.789066e+01	-4.889320e+00
1.799399e+01	-4.923512e+00
1.809793e+01	-4.957153e+00
1.820246e+01	-4.991295e+00
1.830760e+01	-5.025714e+00
1.841334e+01	-5.060019e+00
1.851969e+01	-5.094650e+00
1.862666e+01	-5.128844e+00
1.873425e+01	-5.163800e+00
1.884246e+01	-5.198785e+00
1.895129e+01	-5.233656e+00
1.906075e+01	-5.268703e+00
1.917085e+01	-5.304199e+00
1.928158e+01	-5.339401e+00
1.939295e+01	-5.374630e+00
1.950496e+01	-5.410332e+00
1.961762e+01	-5.446109e+00
1.973093e+01	-5.481872e+00
1.984490e+01	-5.517905e+00
1.995952e+01	-5.553947e+00
2.007480e+01	-5.589952e+00
2.019076e+01	-5.626326e+00
2.030738e+01	-5.662862e+00
2.042467e+01	-5.699003e+00
2.054264e+01	-5.735373e+00
2.066130e+01	-5.772725e+00
2.078064e+01	-5.809593e+00
2.090066e+01	-5.845908e+00
2.102139e+01	-5.883167e+00
2.114280e+01	-5.920368e+00
2.126492e+01	-5.957221e+00
2.138775e+01	-5.994726e+00
2.151128e+01	-6.033059e+00
2.163553e+01	-6.070251e+00
2.176050e+01	-6.107961e+00
2.188619e+01	-6.145825e+00
2.201260e+01	-6.183519e+00
2.213974e+01	-6.221572e+00
2.226762e+01	-6.259825e+00
2.239624e+01	-6.298196e+00
2.252560e+01	-6.336243e+00
2.265571e+01	-6.374814e+00
2.278656e+01	-6.413495e+00
2.291818e+01	-6.452050e+00
2.305055e+01	-6.490653e+00
2.318369e+01	-6.529660e+00
2.331760e+01	-6.568534e+00
2.345228e+01	-6.607656e+00
2.358774e+01	-6.646975e+00
2.372398e+01	-6.686156e+00
2.386101e+01	-6.725440e+00
2.399883e+01	-6.764786e+00
2.413745e+01	-6.804273e+00
2.427686e+01	-6.843968e+00
2.441709e+01	-6.883332e+00
2.455812e+01	-6.923357e+00
2.469997e+01	-6.963478e+00
2.484263e+01	-7.003500e+00
2.498612e+01	-7.043671e+00
2.513044e+01	-7.084147e+00
2.527559e+01	-7.123731e+00
2.542158e+01	-7.164772e+00
2.556842e+01	-7.204644e+00
2.571610e+01	-7.245137e+00
2.586463e+01	-7.286043e+00
2.601403e+01	-7.326699e+00
2.616428e+01	-7.367641e+00
2.631541e+01	-7.408726e+00
2.646740e+01	-7.449393e+00
2.662028e+01	-7.490350e+00
2.677404e+01	-7.531449e+00
2.692868e+01	-7.572991e+00
2.708422e+01	-7.614091e+00
2.724066e+01	-7.655682e+00
2.739800e+01	-7.697049e+00
2.755625e+01	-7.738788e+00
2.771541e+01	-7.780533e+00
2.787550e+01	-7.821789e+00
2.803650e+01	-7.863756e+00
2.819844e+01	-7.905736e+00
2.836131e+01	-7.947884e+00
2.852513e+01	-7.989778e+00
2.868989e+01	-8.031989e+00
2.885560e+01	-8.074146e+00
2.902227e+01	-8.116199e+00
2.918990e+01	-8.158646e+00
2.935850e+01	-8.201412e+00
2.952807e+01	-8.243465e+00
2.969863e+01	-8.286354e+00
2.987016e+01	-8.329044e+00
3.004269e+01	-8.371542e+00
3.021622e+01	-8.414535e+00
3.039075e+01	-8.457257e+00
3.056628e+01	-8.500423e+00
3.074283e+01	-8.543241e+00
3.092040e+01	-8.586110e+00
3.109900e+01	-8.629470e+00
3.127862e+01	-8.672485e+00
3.145929e+01	-8.715722e+00
3.164099e+01	-8.759324e+00
3.182375e+01	-8.802740e+00
3.200756e+01	-8.845907e+00
3.219244e+01	-8.889350e+00
3.237838e+01	-8.933321e+00
3.256540e+01	-8.976961e+00
3.275349e+01	-9.020427e+00
3.294268e+01	-9.064430e+00
3.313295e+01	-9.108191e+00
3.332433e+01	-9.152057e+00
3.351681e+01	-9.196248e+00
3.371040e+01	-9.240163e+00
3.390511e+01	-9.284580e+00
3.410094e+01	-9.328385e+00
3.429791e+01	-9.372345e+00
3.449601e+01	-9.416533e+00
3.469526e+01	-9.461177e+00
3.489566e+01	-9.505464e+00
3.509721e+01	-9.550230e+00
3.529993e+01	-9.594064e+00
3.550382e+01	-9.638870e+00
3.570889e+01	-9.683767e+00
3.591515e+01	-9.728662e+00
3.612259e+01	-9.772493e+00
3.633123e+01	-9.817820e+00
3.654108e+01	-9.862693e+00
3.675214e+01	-9.907518e+00
3.696442e+01	-9.952439e+00
3.717792e+01	-9.996892e+00
3.739266e+01	-1.004265e+01
3.760864e+01	-1.008739e+01
3.782587e+01	-1.013301e+01
3.804435e+01	-1.017842e+01
3.826409e+01	-1.022245e+01
3.848510e+01	-1.026875e+01
3.870739e+01	-1.031368e+01
3.893096e+01	-1.035928e+01
3.915583e+01	-1.040478e+01
3.938199e+01	-1.045053e+01
3.960946e+01	-1.049591e+01
3.983824e+01	-1.054109e+01
4.006834e+01	-1.058667e+01
4.029978e+01	-1.063280e+01
4.053255e+01	-1.067831e+01
4.076666e+01	-1.072422e+01
4.100213e+01	-1.076959e+01
4.123896e+01	-1.081615e+01
4.147715e+01	-1.086191e+01
4.171672e+01	-1.090763e+01
4.195767e+01	-1.095358e+01
4.220002e+01	-1.099997e+01
4.244377e+01	-1.104510e+01
4.268892e+01	-1.109198e+01
4.293549e+01	-1.113806e+01
4.318348e+01	-1.118414e+01
4.343291e+01	-1.123091e+01
4.368377e+01	-1.127667e+01
4.393609e+01	-1.132282e+01
4.418986e+01	-1.136907e+01
4.444510e+01	-1.141544e+01
4.470182e+01	-1.146225e+01
4.496001e+01	-1.150851e+01
4.521970e+01	-1.155508e+01
4.548089e+01	-1.160210e+01
4.574358e+01	-1.164823e+01
4.600779e+01	-1.169540e+01
4.627353e+01	-1.174171e+01
4.654081e+01	-1.178802e+01
4.680963e+01	-1.183563e+01
4.708000e+01	-1.188202e+01
4.735193e+01	-1.192840e+01
4.762543e+01	-1.197558e+01
4.790051e+01	-1.202224e+01
4.817719e+01	-1.206893e+01
4.845545e+01	-1.211546e+01
4.873533e+01	-1.216304e+01
4.901682e+01	-1.220993e+01
4.929994e+01	-1.225730e+01
4.958470e+01	-1.230397e+01
4.987110e+01	-1.235150e+01
5.015915e+01	-1.239850e+01
5.044887e+01	-1.244539e+01
5.074026e+01	-1.249297e+01
5.103333e+01	-1.254038e+01
5.132810e+01	-1.258689e+01
5.162457e+01	-1.263511e+01
5.192275e+01	-1.268201e+01
5.222265e+01	-1.272989e+01
5.252429e+01	-1.277632e+01
5.282767e+01	-1.282449e+01
5.313280e+01	-1.287165e+01
5.343969e+01	-1.291829e+01
5.374836e+01	-1.296692e+01
5.405880e+01	-1.301343e+01
5.437105e+01	-1.306186e+01
5.468509e+01	-1.310976e+01
5.500095e+01	-1.315613e+01
5.531863e+01	-1.320433e+01
5.563815e+01	-1.325164e+01
5.595951e+01	-1.329968e+01
5.628273e+01	-1.334699e+01
5.660782e+01	-1.339451e+01
5.693479e+01	-1.344289e+01
5.726364e+01	-1.349142e+01
5.759439e+01	-1.353780e+01
5.792705e+01	-1.358538e+01
5.826164e+01	-1.363352e+01
5.859815e+01	-1.368221e+01
5.893662e+01	-1.372985e+01
5.927703e+01	-1.377796e+01
5.961941e+01	-1.382525e+01
5.996377e+01	-1.387394e+01
6.031012e+01	-1.392134e+01
6.065847e+01	-1.396963e+01
6.100883e+01	-1.401822e+01
6.136121e+01	-1.406503e+01
6.171563e+01	-1.411350e+01
6.207210e+01	-1.416171e+01
6.243063e+01	-1.420953e+01
6.279122e+01	-1.425854e+01
6.315390e+01	-1.430682e+01
6.351868e+01	-1.435510e+01
6.388556e+01	-1.440291e+01
6.425456e+01	-1.445066e+01
6.462569e+01	-1.449940e+01
6.499897e+01	-1.454754e+01
6.537440e+01	-1.459579e+01
6.575200e+01	-1.464494e+01
6.613178e+01	-1.469224e+01
6.651375e+01	-1.474022e+01
6.689793e+01	-1.478922e+01
6.728433e+01	-1.483818e+01
6.767297e+01	-1.488650e+01
6.806384e+01	-1.493511e+01
6.845698e+01	-1.498254e+01
6.885238e+01	-1.503099e+01
6.925007e+01	-1.507888e+01
6.965005e+01	-1.512841e+01
7.005235e+01	-1.517705e+01
7.045697e+01	-1.522480e+01
7.086393e+01	-1.527417e+01
7.127323e+01	-1.532273e+01
7.168490e+01	-1.537009e+01
7.209895e+01	-1.541995e+01
7.251539e+01	-1.546722e+01
7.293424e+01	-1.551620e+01
7.335551e+01	-1.556450e+01
7.377920e+01	-1.561320e+01
7.420535e+01	-1.566256e+01
7.463396e+01	-1.571121e+01
7.506504e+01	-1.575924e+01
7.549861e+01	-1.580756e+01
7.593469e+01	-1.585850e+01
7.637328e+01	-1.590632e+01
7.681441e+01	-1.595504e+01
7.725809e+01	-1.600406e+01
7.770433e+01	-1.605258e+01
7.815315e+01	-1.610048e+01
7.860456e+01	-1.614964e+01
7.905857e+01	-1.619827e+01
7.951521e+01	-1.624679e+01
7.997449e+01	-1.629704e+01
8.043642e+01	-1.634575e+01
8.090102e+01	-1.639537e+01
8.136830e+01	-1.644283e+01
8.183828e+01	-1.649207e+01
8.231097e+01	-1.654117e+01
8.278640e+01	-1.658989e+01
8.326457e+01	-1.663849e+01
8.374550e+01	-1.668683e+01
8.422921e+01	-1.673678e+01
8.471572e+01	-1.678582e+01
8.520503e+01	-1.683479e+01
8.569717e+01	-1.688413e+01
8.619215e+01	-1.693304e+01
8.669000e+01	-1.698082e+01
8.719071e+01	-1.703117e+01
8.769432e+01	-1.707999e+01
8.820084e+01	-1.712787e+01
8.871029e+01	-1.717905e+01
8.922267e+01	-1.722570e+01
8.973802e+01	-1.727578e+01
9.025634e+01	-1.732497e+01
9.077766e+01	-1.737466e+01
9.130199e+01	-1.742318e+01
9.182935e+01	-1.747257e+01
9.235975e+01	-1.752205e+01
9.289321e+01	-1.757096e+01
9.342976e+01	-1.762005e+01
9.396941e+01	-1.766833e+01
9.451217e+01	-1.771947e+01
9.505807e+01	-1.776682e+01
9.560712e+01	-1.781657e+01
9.615934e+01	-1.786553e+01
9.671476e+01	-1.791574e+01
9.727338e+01	-1.796486e+01
9.783522e+01	-1.801347e+01
9.840032e+01	-1.806287e+01
9.896867e+01	-1.811200e+01
9.954031e+01	-1.816101e+01
1.001153e+02	-1.821261e+01
1.006935e+02	-1.826002e+01
1.012751e+02	-1.830888e+01
1.018601e+02	-1.835740e+01
1.024484e+02	-1.840963e+01
1.030402e+02	-1.845794e+01
1.036353e+02	-1.850690e+01
1.042339e+02	-1.855479e+01
1.048360e+02	-1.860390e+01
1.054415e+02	-1.865499e+01
1.060505e+02	-1.870297e+01
1.066631e+02	-1.875264e+01
1.072791e+02	-1.880253e+01
1.078988e+02	-1.885243e+01
1.085220e+02	-1.890203e+01
1.091488e+02	-1.895059e+01
1.097793e+02	-1.900037e+01
1.104133e+02	-1.905093e+01
1.110511e+02	-1.909892e+01
1.116925e+02	-1.914813e+01
1.123376e+02	-1.919812e+01
1.129865e+02	-1.924756e+01
1.136391e+02	-1.929669e+01
1.142955e+02	-1.934726e+01
1.149556e+02	-1.939483e+01
1.156196e+02	-1.944546e+01
1.162874e+02	-1.949453e+01
1.169591e+02	-1.954508e+01
1.176347e+02	-1.959326e+01
1.183141e+02	-1.964213e+01
1.189975e+02	-1.969324e+01
1.196848e+02	-1.974238e+01
1.203761e+02	-1.979092e+01
1.210714e+02	-1.984058e+01
1.217707e+02	-1.989078e+01
1.224740e+02	-1.993912e+01
1.231814e+02	-1.998992e+01
1.238929e+02	-2.003797e+01
1.246085e+02	-2.008950e+01
1.253283e+02	-2.013896e+01
1.260522e+02	-2.018900e+01
1.267802e+02	-2.023581e+01
1.275125e+02	-2.028672e+01
1.282490e+02	-2.033626e+01
1.289898e+02	-2.038553e+01
1.297348e+02	-2.043622e+01
1.304842e+02	-2.048542e+01
1.312378e+02	-2.053435e+01
1.319959e+02	-2.058495e+01
1.327583e+02	-2.063477e+01
1.335251e+02	-2.068361e+01
1.342963e+02	-2.073355e+01
1.350720e+02	-2.078169e+01
1.358522e+02	-2.083177e+01
1.366368e+02	-2.088171e+01
1.374260e+02	-2.093317e+01
1.382198e+02	-2.098088e+01
1.390182e+02	-2.103121e+01
1.398211e+02	-2.107910e+01
1.406287e+02	-2.113043e+01
1.414410e+02	-2.118023e+01
1.422579e+02	-2.122970e+01
1.430796e+02	-2.127841e+01
1.439060e+02	-2.132907e+01
1.447372e+02	-2.137938e+01
1.455732e+02	-2.142601e+01
1.464141e+02	-2.147873e+01
1.472597e+02	-2.152893e+01
1.481103e+02	-2.157666e+01
1.489658e+02	-2.162738e+01
1.498262e+02	-2.167541e+01
1.506916e+02	-2.172501e+01
1.515620e+02	-2.177660e+01
1.524374e+02	-2.182518e+01
1.533179e+02	-2.187696e+01
1.542034e+02	-2.192550e+01
1.550941e+02	-2.197631e+01
1.559899e+02	-2.202326e+01
1.568909e+02	-2.207599e+01
1.577971e+02	-2.212414e+01
1.587085e+02	-2.217326e+01
1.596252e+02	-2.222468e+01
1.605472e+02	-2.227276e+01
1.614745e+02	-2.232340e+01
1.624072e+02	-2.237276e+01
1.633453e+02	-2.242379e+01
1.642887e+02	-2.247347e+01
1.652377e+02	-2.252312e+01
1.661921e+02	-2.257108e+01
1.671520e+02	-2.262058e+01
1.681175e+02	-2.267143e+01
1.690885e+02	-2.272357e+01
1.700651e+02	-2.277267e+01
1.710474e+02	-2.282137e+01
1.720354e+02	-2.286994e+01
1.730291e+02	-2.292090e+01
1.740285e+02	-2.297208e+01
1.750337e+02	-2.302065e+01
1.760446e+02	-2.306948e+01
1.770615e+02	-2.311852e+01
1.780842e+02	-2.317042e+01
1.791128e+02	-2.322128e+01
1.801473e+02	-2.326922e+01
1.811878e+02	-2.331891e+01
1.822344e+02	-2.336916e+01
1.832870e+02	-2.341831e+01
1.843456e+02	-2.346743e+01
1.854104e+02	-2.351784e+01
1.864813e+02	-2.356680e+01
1.875584e+02	-2.361802e+01
1.886418e+02	-2.366889e+01
1.897313e+02	-2.371851e+01
1.908272e+02	-2.376753e+01
1.919294e+02	-2.381777e+01
1.930380e+02	-2.386965e+01
1.941530e+02	-2.391610e+01
1.952744e+02	-2.396793e+01
1.964023e+02	-2.401728e+01
1.975367e+02	-2.406841e+01
1.986777e+02	-2.411712e+01
1.998252e+02	-2.416745e+01
2.009794e+02	-2.421483e+01
2.021403e+02	-2.426706e+01
2.033078e+02	-2.431509e+01
2.044821e+02	-2.436498e+01
2.056632e+02	-2.441576e+01
2.068511e+02	-2.446592e+01
2.080459e+02	-2.451375e+01
2.092475e+02	-2.456492e+01
2.104561e+02	-2.461237e+01
2.116717e+02	-2.466354e+01
2.128943e+02	-2.471284e+01
2.141240e+02	-2.476541e+01
2.153608e+02	-2.481373e+01
2.166047e+02	-2.486505e+01
2.178558e+02	-2.491334e+01
2.191141e+02	-2.496280e+01
2.203797e+02	-2.501561e+01
2.216526e+02	-2.506375e+01
2.229329e+02	-2.511326e+01
2.242205e+02	-2.516244e+01
2.255156e+02	-2.521289e+01
2.268182e+02	-2.526069e+01
2.281283e+02	-2.531283e+01
2.294459e+02	-2.536545e+01
2.307712e+02	-2.541342e+01
2.321041e+02	-2.546763e+01
2.334447e+02	-2.551106e+01
2.347931e+02	-2.556311e+01
2.361493e+02	-2.561494e+01
2.375133e+02	-2.566216e+01
2.388851e+02	-2.571269e+01
2.402649e+02	-2.575945e+01
2.416527e+02	-2.581146e+01
2.430484e+02	-2.586321e+01
2.444523e+02	-2.591044e+01
2.458642e+02	-2.596252e+01
2.472843e+02	-2.601437e+01
2.487126e+02	-2.606495e+01
2.501492e+02	-2.611460e+01
2.515940e+02	-2.616143e+01
2.530472e+02	-2.621031e+01
2.545088e+02	-2.626227e+01
2.559789e+02	-2.631154e+01
2.574574e+02	-2.635826e+01
2.589444e+02	-2.641041e+01
2.604401e+02	-2.646065e+01
2.619444e+02	-2.651462e+01
2.634574e+02	-2.656215e+01
2.649791e+02	-2.661357e+01
2.665096e+02	-2.666043e+01
2.680489e+02	-2.671062e+01
2.695972e+02	-2.676198e+01
2.711544e+02	-2.681483e+01
2.727205e+02	-2.685717e+01
2.742958e+02	-2.691215e+01
2.758801e+02	-2.696418e+01
2.774736e+02	-2.701288e+01
2.790762e+02	-2.705762e+01
2.806882e+02	-2.711366e+01
2.823094e+02	-2.715706e+01
2.839400e+02	-2.720862e+01
2.855800e+02	-2.726299e+01
2.872295e+02	-2.730892e+01
2.888886e+02	-2.735771e+01
2.905572e+02	-2.741199e+01
2.922354e+02	-2.746057e+01
2.939234e+02	-2.750860e+01
2.956211e+02	-2.756280e+01
2.973286e+02	-2.761333e+01
2.990459e+02	-2.765944e+01
3.007732e+02	-2.771044e+01
3.025104e+02	-2.776217e+01
3.042577e+02	-2.781270e+01
3.060151e+02	-2.785852e+01
3.077826e+02	-2.791134e+01
3.095604e+02	-2.796626e+01
3.113484e+02	-2.801199e+01
3.131467e+02	-2.806412e+01
3.149554e+02	-2.811042e+01
3.167746e+02	-2.816427e+01
3.186043e+02	-2.821133e+01
3.204445e+02	-2.826723e+01
3.222954e+02	-2.831535e+01
3.241570e+02	-2.836271e+01
3.260293e+02	-2.840876e+01
3.279124e+02	-2.846169e+01
3.298064e+02	-2.851261e+01
3.317114e+02	-2.856221e+01
3.336273e+02	-2.860993e+01
3.355544e+02	-2.866081e+01
3.374925e+02	-2.871416e+01
3.394418e+02	-2.876203e+01
3.414024e+02	-2.881676e+01
3.433744e+02	-2.886325e+01
3.453577e+02	-2.891081e+01
3.473525e+02	-2.896242e+01
3.493588e+02	-2.901188e+01
3.513766e+02	-2.906092e+01
3.534062e+02	-2.911274e+01
3.554474e+02	-2.916227e+01
3.575005e+02	-2.921396e+01
3.595654e+02	-2.926602e+01
3.616422e+02	-2.931445e+01
3.637311e+02	-2.936488e+01
3.658320e+02	-2.941184e+01
3.679450e+02	-2.945878e+01
3.700702e+02	-2.951295e+01
3.722077e+02	-2.955935e+01
3.743576e+02	-2.961288e+01
3.765199e+02	-2.966038e+01
3.786946e+02	-2.971067e+01
3.808820e+02	-2.976847e+01
3.830819e+02	-2.981784e+01
3.852946e+02	-2.986127e+01
3.875200e+02	-2.991462e+01
3.897583e+02	-2.996260e+01
3.920096e+02	-3.001460e+01
3.942738e+02	-3.006524e+01
3.965511e+02	-3.011169e+01
3.988416e+02	-3.015853e+01
4.011452e+02	-3.021166e+01
4.034622e+02	-3.025965e+01
4.057926e+02	-3.031752e+01
4.081365e+02	-3.036058e+01
4.104938e+02	-3.041573e+01
4.128648e+02	-3.046199e+01
4.152495e+02	-3.051808e+01
4.176480e+02	-3.056590e+01
4.200603e+02	-3.061587e+01
4.224866e+02	-3.066564e+01
4.249268e+02	-3.071664e+01
4.273812e+02	-3.076350e+01
4.298497e+02	-3.081894e+01
4.323325e+02	-3.086815e+01
4.348297e+02	-3.091295e+01
4.373412e+02	-3.097167e+01
4.398673e+02	-3.101802e+01
4.424079e+02	-3.106953e+01
4.449633e+02	-3.111108e+01
4.475334e+02	-3.116280e+01
4.501183e+02	-3.121777e+01
4.527182e+02	-3.126473e+01
4.553330e+02	-3.131826e+01
4.579630e+02	-3.136681e+01
4.606082e+02	-3.141712e+01
4.632687e+02	-3.147179e+01
4.659445e+02	-3.152142e+01
4.686358e+02	-3.156905e+01
4.713426e+02	-3.161722e+01
4.740650e+02	-3.166767e+01
4.768032e+02	-3.171647e+01
4.795572e+02	-3.176790e+01
4.823271e+02	-3.181865e+01
4.851130e+02	-3.186734e+01
4.879150e+02	-3.191900e+01
4.907332e+02	-3.196472e+01
4.935676e+02	-3.201976e+01
4.964185e+02	-3.206995e+01
4.992858e+02	-3.211456e+01
5.021696e+02	-3.216690e+01
5.050701e+02	-3.222199e+01
5.079874e+02	-3.227021e+01
5.109215e+02	-3.231689e+01
5.138726e+02	-3.237001e+01
5.168407e+02	-3.241982e+01
5.198259e+02	-3.247112e+01
5.228284e+02	-3.251950e+01
5.258482e+02	-3.257434e+01
5.288855e+02	-3.261668e+01
5.319403e+02	-3.267057e+01
5.350128e+02	-3.271835e+01
5.381030e+02	-3.276550e+01
5.412111e+02	-3.282181e+01
5.443371e+02	-3.286903e+01
5.474812e+02	-3.292204e+01
5.506434e+02	-3.297678e+01
5.538239e+02	-3.302365e+01
5.570228e+02	-3.307196e+01
5.602401e+02	-3.312742e+01
5.634760e+02	-3.317734e+01
5.667306e+02	-3.322358e+01
5.700040e+02	-3.328390e+01
5.732964e+02	-3.332315e+01
5.766077e+02	-3.337209e+01
5.799382e+02	-3.343099e+01
5.832879e+02	-3.347102e+01
5.866569e+02	-3.352176e+01
5.900454e+02	-3.357853e+01
5.934535e+02	-3.362698e+01
5.968813e+02	-3.368057e+01
6.003288e+02	-3.372627e+01
6.037963e+02	-3.377642e+01
6.072838e+02	-3.382361e+01
6.107914e+02	-3.387978e+01
6.143194e+02	-3.393704e+01
6.178676e+02	-3.397539e+01
6.214364e+02	-3.403170e+01
6.250258e+02	-3.407592e+01
6.286359e+02	-3.412823e+01
6.322669e+02	-3.417632e+01
6.359189e+02	-3.422433e+01
6.395919e+02	-3.428058e+01
6.432862e+02	-3.432584e+01
6.470017e+02	-3.438814e+01
6.507388e+02	-3.443371e+01
6.544974e+02	-3.447576e+01
6.582778e+02	-3.452356e+01
6.620800e+02	-3.458320e+01
6.659041e+02	-3.463448e+01
6.697504e+02	-3.468058e+01
6.736188e+02	-3.473225e+01
6.775096e+02	-3.478775e+01
6.814229e+02	-3.483432e+01
6.853587e+02	-3.488104e+01
6.893173e+02	-3.492509e+01
6.932988e+02	-3.497289e+01
6.973033e+02	-3.503496e+01
7.013309e+02	-3.507859e+01
