Frequency(Hz)	Magnitude(dB)
1.000000e+01	-2.024820e+00
1.005776e+01	-2.043496e+00
1.011585e+01	-2.062207e+00
1.017428e+01	-2.081294e+00
1.023305e+01	-2.100461e+00
1.029215e+01	-2.119509e+00
1.035160e+01	-2.139049e+00
1.041139e+01	-2.158520e+00
1.047153e+01	-2.178312e+00
1.053201e+01	-2.197884e+00
1.059284e+01	-2.217880e+00
1.065403e+01	-2.238131e+00
1.071556e+01	-2.258221e+00
1.077746e+01	-2.278642e+00
1.083971e+01	-2.299251e+00
1.090232e+01	-2.319641e+00
1.096529e+01	-2.340688e+00
1.102862e+01	-2.361546e+00
1.109232e+01	-2.382504e+00
1.115639e+01	-2.403729e+00
1.122083e+01	-2.425029e+00
1.128564e+01	-2.446357e+00
1.135083e+01	-2.468064e+00
1.141639e+01	-2.489823e+00
1.148233e+01	-2.511848e+00
1.154865e+01	-2.533615e+00
1.161536e+01	-2.555953e+00
1.168245e+01	-2.578246e+00
1.174992e+01	-2.600646e+00
1.181779e+01	-2.623350e+00
1.188605e+01	-2.645971e+00
1.195470e+01	-2.669011e+00
1.202375e+01	-2.692074e+00
1.209320e+01	-2.715085e+00
1.216305e+01	-2.738743e+00
1.223330e+01	-2.762082e+00
1.230396e+01	-2.785724e+00
1.237503e+01	-2.809262e+00
1.244651e+01	-2.833521e+00
1.251840e+01	-2.857454e+00
1.259070e+01	-2.881508e+00
1.266343e+01	-2.905895e+00
1.273657e+01	-2.930102e+00
1.281014e+01	-2.954933e+00
1.288413e+01	-2.979570e+00
1.295855e+01	-3.004682e+00
1.303339e+01	-3.029804e+00
1.310867e+01	-3.054935e+00
1.318439e+01	-3.080294e+00
1.326054e+01	-3.105558e+00
1.333713e+01	-3.131259e+00
1.341417e+01	-3.157159e+00
1.349165e+01	-3.182983e+00
1.356958e+01	-3.209133e+00
1.364795e+01	-3.235217e+00
1.372678e+01	-3.261804e+00
1.380607e+01	-3.288135e+00
1.388581e+01	-3.314782e+00
1.396602e+01	-3.341505e+00
1.404668e+01	-3.368448e+00
1.412782e+01	-3.395609e+00
1.420942e+01	-3.422751e+00
1.429149e+01	-3.450074e+00
1.437404e+01	-3.477833e+00
1.445706e+01	-3.505027e+00
1.454057e+01	-3.533037e+00
1.462455e+01	-3.560717e+00
1.470902e+01	-3.589003e+00
1.479398e+01	-3.617092e+00
1.487943e+01	-3.645267e+00
1.496537e+01	-3.674113e+00
1.505181e+01	-3.702979e+00
1.513875e+01	-3.731267e+00
1.522619e+01	-3.760422e+00
1.531414e+01	-3.789372e+00
1.540259e+01	-3.818394e+00
1.549156e+01	-3.847881e+00
1.558103e+01	-3.877719e+00
1.567103e+01	-3.906952e+00
1.576155e+01	-3.936654e+00
1.585258e+01	-3.966737e+00
1.594415e+01	-3.996676e+00
1.603624e+01	-4.026844e+00
1.612886e+01	-4.057066e+00
1.622202e+01	-4.087573e+00
1.631572e+01	-4.118098e+00
1.640996e+01	-4.148887e+00
1.650474e+01	-4.179421e+00
1.660008e+01	-4.210676e+00
1.669596e+01	-4.241666e+00
1.679239e+01	-4.272917e+00
1.688938e+01	-4.304568e+00
1.698694e+01	-4.336089e+00
1.708505e+01	-4.367577e+00
1.718373e+01	-4.399380e+00
1.728299e+01	-4.431139e+00
1.738281e+01	-4.463629e+00
1.748322e+01	-4.495498e+00
1.758420e+01	-4.527740e+00
1.768576e+01	-4.560382e+00
1.778792e+01	-4.593056e+00
1.789066e+01	-4.625557e+00
1.799399e+01	-4.658496e+00
1.809793e+01	-4.691462e+00
1.820246e+01	-4.724945e+00
1.830760e+01	-4.757602e+00
1.841334e+01	-4.791278e+00
1.851969e+01	-4.824861e+00
1.862666e+01	-4.858462e+00
1.873425e+01	-4.892059e+00
1.884246e+01	-4.926084e+00
1.895129e+01	-4.960105e+00
1.906075e+01	-4.994283e+00
1.917085e+01	-5.028345e+00
1.928158e+01	-5.062786e+00
1.939295e+01	-5.097394e+00
1.950496e+01	-5.131761e+00
1.961762e+01	-5.166651e+00
1.973093e+01	-5.201376e+00
1.984490e+01	-5.236265e+00
1.995952e+01	-5.271414e+00
2.007480e+01	-5.306593e+00
2.019076e+01	-5.341828e+00
2.030738e+01	-5.377548e+00
2.042467e+01	-5.413117e+00
2.054264e+01	-5.448685e+00
2.066130e+01	-5.484717e+00
2.078064e+01	-5.520491e+00
2.090066e+01	-5.556643e+00
2.102139e+01	-5.593030e+00
2.114280e+01	-5.629383e+00
2.126492e+01	-5.665496e+00
2.138775e+01	-5.702005e+00
2.151128e+01	-5.738660e+00
2.163553e+01	-5.775228e+00
2.176050e+01	-5.812007e+00
2.188619e+01	-5.849196e+00
2.201260e+01	-5.886428e+00
2.213974e+01	-5.923031e+00
2.226762e+01	-5.960315e+00
2.239624e+01	-5.998039e+00
2.252560e+01	-6.035582e+00
2.265571e+01	-6.073112e+00
2.278656e+01	-6.111279e+00
2.291818e+01	-6.148608e+00
2.305055e+01	-6.186315e+00
2.318369e+01	-6.224663e+00
2.331760e+01	-6.262760e+00
2.345228e+01	-6.301251e+00
2.358774e+01	-6.339393e+00
2.372398e+01	-6.377936e+00
2.386101e+01	-6.416489e+00
2.399883e+01	-6.455207e+00
2.413745e+01	-6.493818e+00
2.427686e+01	-6.532806e+00
2.441709e+01	-6.571963e+00
2.455812e+01	-6.610749e+00
2.469997e+01	-6.649994e+00
2.484263e+01	-6.689437e+00
2.498612e+01	-6.728421e+00
2.513044e+01	-6.767959e+00
2.527559e+01	-6.807264e+00
2.542158e+01	-6.847348e+00
2.556842e+01	-6.887063e+00
2.571610e+01	-6.926554e+00
2.586463e+01	-6.966643e+00
2.601403e+01	-7.006800e+00
2.616428e+01	-7.047016e+00
2.631541e+01	-7.087279e+00
2.646740e+01	-7.127522e+00
2.662028e+01	-7.167868e+00
2.677404e+01	-7.208297e+00
2.692868e+01	-7.248736e+00
2.708422e+01	-7.289394e+00
2.724066e+01	-7.330403e+00
2.739800e+01	-7.370868e+00
2.755625e+01	-7.411869e+00
2.771541e+01	-7.452811e+00
2.787550e+01	-7.494041e+00
2.803650e+01	-7.535169e+00
2.819844e+01	-7.576474e+00
2.836131e+01	-7.617396e+00
2.852513e+01	-7.659113e+00
2.868989e+01	-7.700087e+00
2.885560e+01	-7.742452e+00
2.902227e+01	-7.783439e+00
2.918990e+01	-7.825412e+00
2.935850e+01	-7.867488e+00
2.952807e+01	-7.909155e+00
2.969863e+01	-7.951039e+00
2.987016e+01	-7.993263e+00
3.004269e+01	-8.035335e+00
3.021622e+01	-8.077835e+00
3.039075e+01	-8.119473e+00
3.056628e+01	-8.162383e+00
3.074283e+01	-8.204481e+00
3.092040e+01	-8.246862e+00
3.109900e+01	-8.289220e+00
3.127862e+01	-8.331973e+00
3.145929e+01	-8.374977e+00
3.164099e+01	-8.417451e+00
3.182375e+01	-8.460149e+00
3.200756e+01	-8.503368e+00
3.219244e+01	-8.546260e+00
3.237838e+01	-8.589676e+00
3.256540e+01	-8.632692e+00
3.275349e+01	-8.675806e+00
3.294268e+01	-8.719447e+00
3.313295e+01	-8.762387e+00
3.332433e+01	-8.805379e+00
3.351681e+01	-8.849262e+00
3.371040e+01	-8.892598e+00
3.390511e+01	-8.936268e+00
3.410094e+01	-8.980553e+00
3.429791e+01	-9.024034e+00
3.449601e+01	-9.067672e+00
3.469526e+01	-9.111801e+00
3.489566e+01	-9.155416e+00
3.509721e+01	-9.199220e+00
3.529993e+01	-9.243388e+00
3.550382e+01	-9.287671e+00
3.570889e+01	-9.332026e+00
3.591515e+01	-9.376266e+00
3.612259e+01	-9.420239e+00
3.633123e+01	-9.464255e+00
3.654108e+01	-9.509103e+00
3.675214e+01	-9.553450e+00
3.696442e+01	-9.598105e+00
3.717792e+01	-9.642664e+00
3.739266e+01	-9.686404e+00
3.760864e+01	-9.731703e+00
3.782587e+01	-9.776497e+00
3.804435e+01	-9.821926e+00
3.826409e+01	-9.866204e+00
3.848510e+01	-9.911293e+00
3.870739e+01	-9.956253e+00
3.893096e+01	-1.000121e+01
3.915583e+01	-1.004609e+01
3.938199e+01	-1.009103e+01
3.960946e+01	-1.013653e+01
3.983824e+01	-1.018144e+01
4.006834e+01	-1.022669e+01
4.029978e+01	-1.027197e+01
4.053255e+01	-1.031794e+01
4.076666e+01	-1.036294e+01
4.100213e+01	-1.040921e+01
4.123896e+01	-1.045386e+01
4.147715e+01	-1.049972e+01
4.171672e+01	-1.054487e+01
4.195767e+01	-1.059029e+01
4.220002e+01	-1.063598e+01
4.244377e+01	-1.068262e+01
4.268892e+01	-1.072719e+01
4.293549e+01	-1.077392e+01
4.318348e+01	-1.081930e+01
4.343291e+01	-1.086496e+01
4.368377e+01	-1.091096e+01
4.393609e+01	-1.095708e+01
4.418986e+01	-1.100318e+01
4.444510e+01	-1.104935e+01
4.470182e+01	-1.109575e+01
4.496001e+01	-1.114147e+01
4.521970e+01	-1.118799e+01
4.548089e+01	-1.123438e+01
4.574358e+01	-1.128061e+01
4.600779e+01	-1.132661e+01
4.627353e+01	-1.137261e+01
4.654081e+01	-1.141948e+01
4.680963e+01	-1.146561e+01
4.708000e+01	-1.151246e+01
4.735193e+01	-1.155900e+01
4.762543e+01	-1.160506e+01
4.790051e+01	-1.165196e+01
4.817719e+01	-1.169896e+01
4.845545e+01	-1.174538e+01
4.873533e+01	-1.179214e+01
4.901682e+01	-1.183858e+01
4.929994e+01	-1.188530e+01
4.958470e+01	-1.193249e+01
4.987110e+01	-1.197895e+01
5.015915e+01	-1.202631e+01
5.044887e+01	-1.207343e+01
5.074026e+01	-1.212054e+01
5.103333e+01	-1.216689e+01
5.132810e+01	-1.221394e+01
5.162457e+01	-1.226057e+01
5.192275e+01	-1.230780e+01
5.222265e+01	-1.235439e+01
5.252429e+01	-1.240298e+01
5.282767e+01	-1.244935e+01
5.313280e+01	-1.249676e+01
5.343969e+01	-1.254388e+01
5.374836e+01	-1.259125e+01
5.405880e+01	-1.263774e+01
5.437105e+01	-1.268545e+01
5.468509e+01	-1.273379e+01
5.500095e+01	-1.278044e+01
5.531863e+01	-1.282719e+01
5.563815e+01	-1.287519e+01
5.595951e+01	-1.292312e+01
5.628273e+01	-1.296994e+01
5.660782e+01	-1.301750e+01
5.693479e+01	-1.306571e+01
5.726364e+01	-1.311308e+01
5.759439e+01	-1.316128e+01
5.792705e+01	-1.320832e+01
5.826164e+01	-1.325555e+01
5.859815e+01	-1.330391e+01
5.893662e+01	-1.335082e+01
5.927703e+01	-1.339846e+01
5.961941e+01	-1.344656e+01
5.996377e+01	-1.349422e+01
6.031012e+01	-1.354227e+01
6.065847e+01	-1.358944e+01
6.100883e+01	-1.363739e+01
6.136121e+01	-1.368465e+01
6.171563e+01	-1.373337e+01
6.207210e+01	-1.378167e+01
6.243063e+01	-1.382941e+01
6.279122e+01	-1.387671e+01
6.315390e+01	-1.392511e+01
6.351868e+01	-1.397236e+01
6.388556e+01	-1.402158e+01
6.425456e+01	-1.406926e+01
6.462569e+01	-1.411746e+01
6.499897e+01	-1.416574e+01
6.537440e+01	-1.421415e+01
6.575200e+01	-1.426171e+01
6.613178e+01	-1.430981e+01
6.651375e+01	-1.435806e+01
6.689793e+01	-1.440647e+01
6.728433e+01	-1.445523e+01
6.767297e+01	-1.450280e+01
6.806384e+01	-1.455112e+01
6.845698e+01	-1.459879e+01
6.885238e+01	-1.464798e+01
6.925007e+01	-1.469533e+01
6.965005e+01	-1.474418e+01
7.005235e+01	-1.479291e+01
7.045697e+01	-1.484097e+01
7.086393e+01	-1.488933e+01
7.127323e+01	-1.493775e+01
7.168490e+01	-1.498691e+01
7.209895e+01	-1.503554e+01
7.251539e+01	-1.508389e+01
7.293424e+01	-1.513195e+01
7.335551e+01	-1.517961e+01
7.377920e+01	-1.522863e+01
7.420535e+01	-1.527722e+01
7.463396e+01	-1.532616e+01
7.506504e+01	-1.537492e+01
7.549861e+01	-1.542314e+01
7.593469e+01	-1.547213e+01
7.637328e+01	-1.552061e+01
7.681441e+01	-1.556868e+01
7.725809e+01	-1.561782e+01
7.770433e+01	-1.566499e+01
7.815315e+01	-1.571540e+01
7.860456e+01	-1.576435e+01
7.905857e+01	-1.581282e+01
7.951521e+01	-1.586094e+01
7.997449e+01	-1.590940e+01
8.043642e+01	-1.595848e+01
8.090102e+01	-1.600665e+01
8.136830e+01	-1.605607e+01
8.183828e+01	-1.610543e+01
8.231097e+01	-1.615391e+01
8.278640e+01	-1.620306e+01
8.326457e+01	-1.625112e+01
8.374550e+01	-1.630061e+01
8.422921e+01	-1.634958e+01
8.471572e+01	-1.639779e+01
8.520503e+01	-1.644607e+01
8.569717e+01	-1.649527e+01
8.619215e+01	-1.654494e+01
8.669000e+01	-1.659299e+01
8.719071e+01	-1.664226e+01
8.769432e+01	-1.669275e+01
8.820084e+01	-1.673978e+01
8.871029e+01	-1.678932e+01
8.922267e+01	-1.683849e+01
8.973802e+01	-1.688728e+01
9.025634e+01	-1.693676e+01
9.077766e+01	-1.698680e+01
9.130199e+01	-1.703545e+01
9.182935e+01	-1.708413e+01
9.235975e+01	-1.713325e+01
9.289321e+01	-1.718223e+01
9.342976e+01	-1.723065e+01
9.396941e+01	-1.728004e+01
9.451217e+01	-1.732949e+01
9.505807e+01	-1.737784e+01
9.560712e+01	-1.742717e+01
9.615934e+01	-1.747550e+01
9.671476e+01	-1.752562e+01
9.727338e+01	-1.757424e+01
9.783522e+01	-1.762407e+01
9.840032e+01	-1.767381e+01
9.896867e+01	-1.772248e+01
9.954031e+01	-1.777109e+01
1.001153e+02	-1.782060e+01
1.006935e+02	-1.787008e+01
1.012751e+02	-1.791895e+01
1.018601e+02	-1.796814e+01
1.024484e+02	-1.801798e+01
1.030402e+02	-1.806764e+01
1.036353e+02	-1.811632e+01
1.042339e+02	-1.816642e+01
1.048360e+02	-1.821380e+01
1.054415e+02	-1.826374e+01
1.060505e+02	-1.831209e+01
1.066631e+02	-1.836270e+01
1.072791e+02	-1.841077e+01
1.078988e+02	-1.846163e+01
1.085220e+02	-1.850973e+01
1.091488e+02	-1.855883e+01
1.097793e+02	-1.860750e+01
1.104133e+02	-1.865836e+01
1.110511e+02	-1.870788e+01
1.116925e+02	-1.875708e+01
1.123376e+02	-1.880713e+01
1.129865e+02	-1.885550e+01
1.136391e+02	-1.890617e+01
1.142955e+02	-1.895600e+01
1.149556e+02	-1.900423e+01
1.156196e+02	-1.905411e+01
1.162874e+02	-1.910248e+01
1.169591e+02	-1.915263e+01
1.176347e+02	-1.920212e+01
1.183141e+02	-1.925055e+01
1.189975e+02	-1.929935e+01
1.196848e+02	-1.935084e+01
1.203761e+02	-1.939977e+01
1.210714e+02	-1.944917e+01
1.217707e+02	-1.949931e+01
1.224740e+02	-1.954897e+01
1.231814e+02	-1.959798e+01
1.238929e+02	-1.964505e+01
1.246085e+02	-1.969708e+01
1.253283e+02	-1.974483e+01
1.260522e+02	-1.979625e+01
1.267802e+02	-1.984409e+01
1.275125e+02	-1.989413e+01
1.282490e+02	-1.994314e+01
1.289898e+02	-1.999342e+01
1.297348e+02	-2.004354e+01
1.304842e+02	-2.009391e+01
1.312378e+02	-2.014271e+01
1.319959e+02	-2.019225e+01
1.327583e+02	-2.024133e+01
1.335251e+02	-2.029051e+01
1.342963e+02	-2.033839e+01
1.350720e+02	-2.039045e+01
1.358522e+02	-2.043992e+01
1.366368e+02	-2.048880e+01
1.374260e+02	-2.053836e+01
1.382198e+02	-2.058789e+01
1.390182e+02	-2.063842e+01
1.398211e+02	-2.068812e+01
1.406287e+02	-2.073642e+01
1.414410e+02	-2.078793e+01
1.422579e+02	-2.083732e+01
1.430796e+02	-2.088595e+01
1.439060e+02	-2.093533e+01
1.447372e+02	-2.098577e+01
1.455732e+02	-2.103354e+01
1.464141e+02	-2.108386e+01
1.472597e+02	-2.113394e+01
1.481103e+02	-2.118319e+01
1.489658e+02	-2.123489e+01
1.498262e+02	-2.128286e+01
1.506916e+02	-2.133291e+01
1.515620e+02	-2.138232e+01
1.524374e+02	-2.143304e+01
1.533179e+02	-2.148362e+01
1.542034e+02	-2.153173e+01
1.550941e+02	-2.158088e+01
1.559899e+02	-2.162969e+01
1.568909e+02	-2.168276e+01
1.577971e+02	-2.173139e+01
1.587085e+02	-2.177965e+01
1.596252e+02	-2.182932e+01
1.605472e+02	-2.188013e+01
1.614745e+02	-2.192885e+01
1.624072e+02	-2.197888e+01
1.633453e+02	-2.202847e+01
1.642887e+02	-2.207782e+01
1.652377e+02	-2.212956e+01
1.661921e+02	-2.217760e+01
1.671520e+02	-2.222867e+01
1.681175e+02	-2.227699e+01
1.690885e+02	-2.232937e+01
1.700651e+02	-2.237674e+01
1.710474e+02	-2.242550e+01
1.720354e+02	-2.247536e+01
1.730291e+02	-2.252723e+01
1.740285e+02	-2.257595e+01
1.750337e+02	-2.262295e+01
1.760446e+02	-2.267438e+01
1.770615e+02	-2.272533e+01
1.780842e+02	-2.277392e+01
1.791128e+02	-2.282482e+01
1.801473e+02	-2.287558e+01
1.811878e+02	-2.292493e+01
1.822344e+02	-2.297516e+01
1.832870e+02	-2.302455e+01
1.843456e+02	-2.307319e+01
1.854104e+02	-2.312442e+01
1.864813e+02	-2.317404e+01
1.875584e+02	-2.322189e+01
1.886418e+02	-2.327285e+01
1.897313e+02	-2.332134e+01
1.908272e+02	-2.337353e+01
1.919294e+02	-2.342084e+01
1.930380e+02	-2.347363e+01
1.941530e+02	-2.352318e+01
1.952744e+02	-2.357209e+01
1.964023e+02	-2.362383e+01
1.975367e+02	-2.367232e+01
1.986777e+02	-2.372192e+01
1.998252e+02	-2.377282e+01
2.009794e+02	-2.382156e+01
2.021403e+02	-2.387141e+01
2.033078e+02	-2.392368e+01
2.044821e+02	-2.397136e+01
2.056632e+02	-2.401989e+01
2.068511e+02	-2.407143e+01
2.080459e+02	-2.412102e+01
2.092475e+02	-2.417071e+01
2.104561e+02	-2.422113e+01
2.116717e+02	-2.427398e+01
2.128943e+02	-2.431872e+01
2.141240e+02	-2.437115e+01
2.153608e+02	-2.441722e+01
2.166047e+02	-2.447056e+01
2.178558e+02	-2.451787e+01
2.191141e+02	-2.456640e+01
2.203797e+02	-2.461912e+01
2.216526e+02	-2.467065e+01
2.229329e+02	-2.471813e+01
2.242205e+02	-2.476748e+01
2.255156e+02	-2.482017e+01
2.268182e+02	-2.486876e+01
2.281283e+02	-2.491987e+01
2.294459e+02	-2.496806e+01
2.307712e+02	-2.501970e+01
2.321041e+02	-2.506850e+01
2.334447e+02	-2.511567e+01
2.347931e+02	-2.516829e+01
2.361493e+02	-2.522248e+01
2.375133e+02	-2.526750e+01
2.388851e+02	-2.532141e+01
2.402649e+02	-2.536942e+01
2.416527e+02	-2.541758e+01
2.430484e+02	-2.546882e+01
2.444523e+02	-2.551868e+01
2.458642e+02	-2.556577e+01
2.472843e+02	-2.561609e+01
2.487126e+02	-2.566830e+01
2.501492e+02	-2.571762e+01
2.515940e+02	-2.576769e+01
2.530472e+02	-2.581452e+01
2.545088e+02	-2.586993e+01
2.559789e+02	-2.591648e+01
2.574574e+02	-2.596613e+01
2.589444e+02	-2.601714e+01
2.604401e+02	-2.606568e+01
2.619444e+02	-2.611517e+01
2.634574e+02	-2.616664e+01
2.649791e+02	-2.621888e+01
2.665096e+02	-2.626814e+01
2.680489e+02	-2.631799e+01
2.695972e+02	-2.636556e+01
2.711544e+02	-2.641554e+01
2.727205e+02	-2.646425e+01
2.742958e+02	-2.651874e+01
2.758801e+02	-2.656671e+01
2.774736e+02	-2.661594e+01
2.790762e+02	-2.666918e+01
2.806882e+02	-2.671304e+01
2.823094e+02	-2.676551e+01
2.839400e+02	-2.681587e+01
2.855800e+02	-2.686454e+01
2.872295e+02	-2.691516e+01
2.888886e+02	-2.696727e+01
2.905572e+02	-2.701622e+01
2.922354e+02	-2.707012e+01
2.939234e+02	-2.711134e+01
2.956211e+02	-2.716628e+01
2.973286e+02	-2.721833e+01
2.990459e+02	-2.726555e+01
3.007732e+02	-2.731527e+01
3.025104e+02	-2.736790e+01
3.042577e+02	-2.741824e+01
3.060151e+02	-2.746476e+01
3.077826e+02	-2.751529e+01
3.095604e+02	-2.756611e+01
3.113484e+02	-2.761811e+01
3.131467e+02	-2.766508e+01
3.149554e+02	-2.771716e+01
3.167746e+02	-2.776690e+01
3.186043e+02	-2.781418e+01
3.204445e+02	-2.786288e+01
3.222954e+02	-2.791752e+01
3.241570e+02	-2.796241e+01
3.260293e+02	-2.801914e+01
3.279124e+02	-2.806401e+01
3.298064e+02	-2.811656e+01
3.317114e+02	-2.816784e+01
3.336273e+02	-2.821819e+01
3.355544e+02	-2.826939e+01
3.374925e+02	-2.831184e+01
3.394418e+02	-2.836174e+01
3.414024e+02	-2.841783e+01
3.433744e+02	-2.846459e+01
3.453577e+02	-2.851536e+01
3.473525e+02	-2.856587e+01
3.493588e+02	-2.861742e+01
3.513766e+02	-2.867003e+01
3.534062e+02	-2.871218e+01
3.554474e+02	-2.876774e+01
3.575005e+02	-2.881954e+01
3.595654e+02	-2.887032e+01
3.616422e+02	-2.891615e+01
3.637311e+02	-2.896678e+01
3.658320e+02	-2.901833e+01
3.679450e+02	-2.906782e+01
3.700702e+02	-2.911496e+01
3.722077e+02	-2.916679e+01
3.743576e+02	-2.921581e+01
3.765199e+02	-2.926842e+01
3.786946e+02	-2.932542e+01
3.808820e+02	-2.936759e+01
3.830819e+02	-2.941410e+01
3.852946e+02	-2.947065e+01
3.875200e+02	-2.951546e+01
3.897583e+02	-2.956496e+01
3.920096e+02	-2.961652e+01
3.942738e+02	-2.966799e+01
3.965511e+02	-2.972182e+01
3.988416e+02	-2.976823e+01
4.011452e+02	-2.981887e+01
4.034622e+02	-2.987043e+01
4.057926e+02	-2.991695e+01
4.081365e+02	-2.996961e+01
4.104938e+02	-3.001841e+01
4.128648e+02	-3.006885e+01
4.152495e+02	-3.011732e+01
4.176480e+02	-3.016514e+01
4.200603e+02	-3.022236e+01
4.224866e+02	-3.027448e+01
4.249268e+02	-3.031937e+01
4.273812e+02	-3.036843e+01
4.298497e+02	-3.042127e+01
4.323325e+02	-3.046986e+01
4.348297e+02	-3.051655e+01
4.373412e+02	-3.057294e+01
4.398673e+02	-3.062168e+01
4.424079e+02	-3.066763e+01
4.449633e+02	-3.071879e+01
4.475334e+02	-3.076875e+01
4.501183e+02	-3.081970e+01
4.527182e+02	-3.086990e+01
4.553330e+02	-3.092199e+01
4.579630e+02	-3.096980e+01
4.606082e+02	-3.101952e+01
4.632687e+02	-3.107691e+01
4.659445e+02	-3.111650e+01
4.686358e+02	-3.117024e+01
4.713426e+02	-3.122649e+01
4.740650e+02	-3.127399e+01
4.768032e+02	-3.131853e+01
4.795572e+02	-3.137890e+01
4.823271e+02	-3.142113e+01
4.851130e+02	-3.147504e+01
4.879150e+02	-3.152054e+01
4.907332e+02	-3.157929e+01
4.935676e+02	-3.162782e+01
4.964185e+02	-3.167677e+01
4.992858e+02	-3.171893e+01
5.021696e+02	-3.177084e+01
5.050701e+02	-3.182347e+01
5.079874e+02	-3.187416e+01
5.109215e+02	-3.192257e+01
5.138726e+02	-3.197767e+01
5.168407e+02	-3.202803e+01
5.198259e+02	-3.206851e+01
5.228284e+02	-3.212701e+01
5.258482e+02	-3.217309e+01
5.288855e+02	-3.222090e+01
5.319403e+02	-3.227445e+01
5.350128e+02	-3.231960e+01
5.381030e+02	-3.237422e+01
5.412111e+02	-3.242614e+01
5.443371e+02	-3.247753e+01
5.474812e+02	-3.253110e+01
5.506434e+02	-3.257156e+01
5.538239e+02	-3.263181e+01
5.570228e+02	-3.267551e+01
5.602401e+02	-3.272318e+01
5.634760e+02	-3.278212e+01
5.667306e+02	-3.282938e+01
5.700040e+02	-3.287623e+01
5.732964e+02	-3.293353e+01
5.766077e+02	-3.298343e+01
5.799382e+02	-3.301949e+01
5.832879e+02	-3.307554e+01
5.866569e+02	-3.312920e+01
5.900454e+02	-3.317606e+01
5.934535e+02	-3.322578e+01
5.968813e+02	-3.327393e+01
6.003288e+02	-3.332935e+01
6.037963e+02	-3.338428e+01
6.072838e+02	-3.343498e+01
6.107914e+02	-3.347413e+01
6.143194e+02	-3.353105e+01
6.178676e+02	-3.358169e+01
6.214364e+02	-3.363342e+01
6.250258e+02	-3.368519e+01
6.286359e+02	-3.372479e+01
6.322669e+02	-3.377698e+01
6.359189e+02	-3.383455e+01
6.395919e+02	-3.388378e+01
6.432862e+02	-3.393699e+01
6.470017e+02	-3.398566e+01
6.507388e+02	-3.403480e+01
6.544974e+02	-3.408069e+01
6.582778e+02	-3.414291e+01
6.620800e+02	-3.418659e+01
6.659041e+02	-3.423632e+01
6.697504e+02	-3.427616e+01
6.736188e+02	-3.434293e+01
6.775096e+02	-3.439644e+01
6.814229e+02	-3.443598e+01
6.853587e+02	-3.447874e+01
6.893173e+02	-3.454127e+01
6.932988e+02	-3.458700e+01
6.973033e+02	-3.464391e+01
7.013309e+02	-3.470123e+01
