Frequency(Hz)	Magnitude(dB)
1.000000e+01	-2.351289e+00
1.005776e+01	-2.372198e+00
1.011585e+01	-2.393560e+00
1.017428e+01	-2.414566e+00
1.023305e+01	-2.436062e+00
1.029215e+01	-2.457455e+00
1.035160e+01	-2.479239e+00
1.041139e+01	-2.500926e+00
1.047153e+01	-2.522931e+00
1.053201e+01	-2.544989e+00
1.059284e+01	-2.567227e+00
1.065403e+01	-2.589689e+00
1.071556e+01	-2.612403e+00
1.077746e+01	-2.635202e+00
1.083971e+01	-2.657998e+00
1.090232e+01	-2.680803e+00
1.096529e+01	-2.704206e+00
1.102862e+01	-2.727234e+00
1.109232e+01	-2.750614e+00
1.115639e+01	-2.774175e+00
1.122083e+01	-2.797989e+00
1.128564e+01	-2.821662e+00
1.135083e+01	-2.845678e+00
1.141639e+01	-2.869604e+00
1.148233e+01	-2.894005e+00
1.154865e+01	-2.918443e+00
1.161536e+01	-2.942676e+00
1.168245e+01	-2.967629e+00
1.174992e+01	-2.992372e+00
1.181779e+01	-3.017435e+00
1.188605e+01	-3.042683e+00
1.195470e+01	-3.067842e+00
1.202375e+01	-3.093270e+00
1.209320e+01	-3.119003e+00
1.216305e+01	-3.144400e+00
1.223330e+01	-3.170614e+00
1.230396e+01	-3.196420e+00
1.237503e+01	-3.222518e+00
1.244651e+01	-3.248883e+00
1.251840e+01	-3.275254e+00
1.259070e+01	-3.301832e+00
1.266343e+01	-3.328617e+00
1.273657e+01	-3.355186e+00
1.281014e+01	-3.382173e+00
1.288413e+01	-3.409648e+00
1.295855e+01	-3.436758e+00
1.303339e+01	-3.464266e+00
1.310867e+01	-3.491783e+00
1.318439e+01	-3.519248e+00
1.326054e+01	-3.547313e+00
1.333713e+01	-3.575332e+00
1.341417e+01	-3.603433e+00
1.349165e+01	-3.631840e+00
1.356958e+01	-3.660302e+00
1.364795e+01	-3.688662e+00
1.372678e+01	-3.717577e+00
1.380607e+01	-3.746483e+00
1.388581e+01	-3.775348e+00
1.396602e+01	-3.804367e+00
1.404668e+01	-3.833526e+00
1.412782e+01	-3.862960e+00
1.420942e+01	-3.892496e+00
1.429149e+01	-3.922354e+00
1.437404e+01	-3.952273e+00
1.445706e+01	-3.982010e+00
1.454057e+01	-4.012182e+00
1.462455e+01	-4.042313e+00
1.470902e+01	-4.072621e+00
1.479398e+01	-4.102986e+00
1.487943e+01	-4.134076e+00
1.496537e+01	-4.164414e+00
1.505181e+01	-4.195669e+00
1.513875e+01	-4.226599e+00
1.522619e+01	-4.257666e+00
1.531414e+01	-4.289171e+00
1.540259e+01	-4.320924e+00
1.549156e+01	-4.352008e+00
1.558103e+01	-4.383725e+00
1.567103e+01	-4.415535e+00
1.576155e+01	-4.447785e+00
1.585258e+01	-4.479752e+00
1.594415e+01	-4.512364e+00
1.603624e+01	-4.544586e+00
1.612886e+01	-4.577071e+00
1.622202e+01	-4.609765e+00
1.631572e+01	-4.642647e+00
1.640996e+01	-4.675509e+00
1.650474e+01	-4.708442e+00
1.660008e+01	-4.741707e+00
1.669596e+01	-4.774679e+00
1.679239e+01	-4.808327e+00
1.688938e+01	-4.841867e+00
1.698694e+01	-4.875468e+00
1.708505e+01	-4.909077e+00
1.718373e+01	-4.943051e+00
1.728299e+01	-4.977463e+00
1.738281e+01	-5.011275e+00
1.748322e+01	-5.046104e+00
1.758420e+01	-5.080619e+00
1.768576e+01	-5.114762e+00
1.778792e+01	-5.149785e+00
1.789066e+01	-5.184407e+00
1.799399e+01	-5.219603e+00
1.809793e+01	-5.254594e+00
1.820246e+01	-5.289312e+00
1.830760e+01	-5.325057e+00
1.841334e+01	-5.360070e+00
1.851969e+01	-5.395655e+00
1.862666e+01	-5.431500e+00
1.873425e+01	-5.466994e+00
1.884246e+01	-5.503216e+00
1.895129e+01	-5.538910e+00
1.906075e+01	-5.575195e+00
1.917085e+01	-5.611173e+00
1.928158e+01	-5.647923e+00
1.939295e+01	-5.684096e+00
1.950496e+01	-5.720902e+00
1.961762e+01	-5.757150e+00
1.973093e+01	-5.794030e+00
1.984490e+01	-5.831048e+00
1.995952e+01	-5.868362e+00
2.007480e+01	-5.905477e+00
2.019076e+01	-5.942573e+00
2.030738e+01	-5.980005e+00
2.042467e+01	-6.017169e+00
2.054264e+01	-6.054586e+00
2.066130e+01	-6.092473e+00
2.078064e+01	-6.130311e+00
2.090066e+01	-6.168230e+00
2.102139e+01	-6.206188e+00
2.114280e+01	-6.244210e+00
2.126492e+01	-6.282366e+00
2.138775e+01	-6.320702e+00
2.151128e+01	-6.359001e+00
2.163553e+01	-6.397520e+00
2.176050e+01	-6.436039e+00
2.188619e+01	-6.474863e+00
2.201260e+01	-6.514115e+00
2.213974e+01	-6.552705e+00
2.226762e+01	-6.591884e+00
2.239624e+01	-6.630819e+00
2.252560e+01	-6.670022e+00
2.265571e+01	-6.709299e+00
2.278656e+01	-6.748439e+00
2.291818e+01	-6.788050e+00
2.305055e+01	-6.827539e+00
2.318369e+01	-6.867489e+00
2.331760e+01	-6.907622e+00
2.345228e+01	-6.947319e+00
2.358774e+01	-6.987251e+00
2.372398e+01	-7.027258e+00
2.386101e+01	-7.067015e+00
2.399883e+01	-7.107440e+00
2.413745e+01	-7.148066e+00
2.427686e+01	-7.188232e+00
2.441709e+01	-7.228946e+00
2.455812e+01	-7.269445e+00
2.469997e+01	-7.310325e+00
2.484263e+01	-7.351093e+00
2.498612e+01	-7.391779e+00
2.513044e+01	-7.432721e+00
2.527559e+01	-7.473896e+00
2.542158e+01	-7.514875e+00
2.556842e+01	-7.556233e+00
2.571610e+01	-7.596734e+00
2.586463e+01	-7.638639e+00
2.601403e+01	-7.680122e+00
2.616428e+01	-7.722074e+00
2.631541e+01	-7.763195e+00
2.646740e+01	-7.804999e+00
2.662028e+01	-7.847197e+00
2.677404e+01	-7.888576e+00
2.692868e+01	-7.930450e+00
2.708422e+01	-7.972392e+00
2.724066e+01	-8.014999e+00
2.739800e+01	-8.056879e+00
2.755625e+01	-8.098966e+00
2.771541e+01	-8.141493e+00
2.787550e+01	-8.183617e+00
2.803650e+01	-8.225851e+00
2.819844e+01	-8.268643e+00
2.836131e+01	-8.310850e+00
2.852513e+01	-8.354114e+00
2.868989e+01	-8.396644e+00
2.885560e+01	-8.439119e+00
2.902227e+01	-8.482551e+00
2.918990e+01	-8.525839e+00
2.935850e+01	-8.568970e+00
2.952807e+01	-8.611318e+00
2.969863e+01	-8.654821e+00
2.987016e+01	-8.698037e+00
3.004269e+01	-8.741463e+00
3.021622e+01	-8.784925e+00
3.039075e+01	-8.827913e+00
3.056628e+01	-8.871531e+00
3.074283e+01	-8.915351e+00
3.092040e+01	-8.958655e+00
3.109900e+01	-9.002535e+00
3.127862e+01	-9.046935e+00
3.145929e+01	-9.090016e+00
3.164099e+01	-9.133735e+00
3.182375e+01	-9.177719e+00
3.200756e+01	-9.221952e+00
3.219244e+01	-9.265885e+00
3.237838e+01	-9.310307e+00
3.256540e+01	-9.353996e+00
3.275349e+01	-9.398499e+00
3.294268e+01	-9.443104e+00
3.313295e+01	-9.487325e+00
3.332433e+01	-9.532093e+00
3.351681e+01	-9.576687e+00
3.371040e+01	-9.620575e+00
3.390511e+01	-9.665444e+00
3.410094e+01	-9.710110e+00
3.429791e+01	-9.754511e+00
3.449601e+01	-9.799534e+00
3.469526e+01	-9.844288e+00
3.489566e+01	-9.888848e+00
3.509721e+01	-9.933686e+00
3.529993e+01	-9.978865e+00
3.550382e+01	-1.002407e+01
3.570889e+01	-1.006954e+01
3.591515e+01	-1.011462e+01
3.612259e+01	-1.015964e+01
3.633123e+01	-1.020498e+01
3.654108e+01	-1.025022e+01
3.675214e+01	-1.029518e+01
3.696442e+01	-1.034033e+01
3.717792e+01	-1.038607e+01
3.739266e+01	-1.043181e+01
3.760864e+01	-1.047765e+01
3.782587e+01	-1.052300e+01
3.804435e+01	-1.056877e+01
3.826409e+01	-1.061384e+01
3.848510e+01	-1.065969e+01
3.870739e+01	-1.070523e+01
3.893096e+01	-1.075187e+01
3.915583e+01	-1.079698e+01
3.938199e+01	-1.084282e+01
3.960946e+01	-1.088880e+01
3.983824e+01	-1.093462e+01
4.006834e+01	-1.098079e+01
4.029978e+01	-1.102676e+01
4.053255e+01	-1.107285e+01
4.076666e+01	-1.111949e+01
4.100213e+01	-1.116497e+01
4.123896e+01	-1.121171e+01
4.147715e+01	-1.125793e+01
4.171672e+01	-1.130413e+01
4.195767e+01	-1.135055e+01
4.220002e+01	-1.139694e+01
4.244377e+01	-1.144283e+01
4.268892e+01	-1.148946e+01
4.293549e+01	-1.153655e+01
4.318348e+01	-1.158226e+01
4.343291e+01	-1.162957e+01
4.368377e+01	-1.167546e+01
4.393609e+01	-1.172236e+01
4.418986e+01	-1.176904e+01
4.444510e+01	-1.181555e+01
4.470182e+01	-1.186259e+01
4.496001e+01	-1.191022e+01
4.521970e+01	-1.195675e+01
4.548089e+01	-1.200291e+01
4.574358e+01	-1.204978e+01
4.600779e+01	-1.209712e+01
4.627353e+01	-1.214418e+01
4.654081e+01	-1.219060e+01
4.680963e+01	-1.223821e+01
4.708000e+01	-1.228520e+01
4.735193e+01	-1.233267e+01
4.762543e+01	-1.237931e+01
4.790051e+01	-1.242694e+01
4.817719e+01	-1.247313e+01
4.845545e+01	-1.252038e+01
4.873533e+01	-1.256835e+01
4.901682e+01	-1.261513e+01
4.929994e+01	-1.266329e+01
4.958470e+01	-1.270980e+01
4.987110e+01	-1.275714e+01
5.015915e+01	-1.280469e+01
5.044887e+01	-1.285212e+01
5.074026e+01	-1.289971e+01
5.103333e+01	-1.294755e+01
5.132810e+01	-1.299406e+01
5.162457e+01	-1.304272e+01
5.192275e+01	-1.308968e+01
5.222265e+01	-1.313769e+01
5.252429e+01	-1.318402e+01
5.282767e+01	-1.323219e+01
5.313280e+01	-1.328008e+01
5.343969e+01	-1.332819e+01
5.374836e+01	-1.337550e+01
5.405880e+01	-1.342347e+01
5.437105e+01	-1.347082e+01
5.468509e+01	-1.351834e+01
5.500095e+01	-1.356681e+01
5.531863e+01	-1.361510e+01
5.563815e+01	-1.366247e+01
5.595951e+01	-1.371013e+01
5.628273e+01	-1.375843e+01
5.660782e+01	-1.380632e+01
5.693479e+01	-1.385320e+01
5.726364e+01	-1.390242e+01
5.759439e+01	-1.394930e+01
5.792705e+01	-1.399750e+01
5.826164e+01	-1.404634e+01
5.859815e+01	-1.409428e+01
5.893662e+01	-1.414196e+01
5.927703e+01	-1.418961e+01
5.961941e+01	-1.423867e+01
5.996377e+01	-1.428701e+01
6.031012e+01	-1.433431e+01
6.065847e+01	-1.438268e+01
6.100883e+01	-1.443080e+01
6.136121e+01	-1.447909e+01
6.171563e+01	-1.452785e+01
6.207210e+01	-1.457582e+01
6.243063e+01	-1.462394e+01
6.279122e+01	-1.467270e+01
6.315390e+01	-1.472113e+01
6.351868e+01	-1.476837e+01
6.388556e+01	-1.481787e+01
6.425456e+01	-1.486641e+01
6.462569e+01	-1.491405e+01
6.499897e+01	-1.496233e+01
6.537440e+01	-1.501108e+01
6.575200e+01	-1.505911e+01
6.613178e+01	-1.510850e+01
6.651375e+01	-1.515642e+01
6.689793e+01	-1.520475e+01
6.728433e+01	-1.525393e+01
6.767297e+01	-1.530119e+01
6.806384e+01	-1.535033e+01
6.845698e+01	-1.540010e+01
6.885238e+01	-1.544778e+01
6.925007e+01	-1.549664e+01
6.965005e+01	-1.554510e+01
7.005235e+01	-1.559375e+01
7.045697e+01	-1.564235e+01
7.086393e+01	-1.569165e+01
7.127323e+01	-1.573942e+01
7.168490e+01	-1.578815e+01
7.209895e+01	-1.583788e+01
7.251539e+01	-1.588635e+01
7.293424e+01	-1.593432e+01
7.335551e+01	-1.598301e+01
7.377920e+01	-1.603164e+01
7.420535e+01	-1.608151e+01
7.463396e+01	-1.612929e+01
7.506504e+01	-1.617896e+01
7.549861e+01	-1.622788e+01
7.593469e+01	-1.627591e+01
7.637328e+01	-1.632510e+01
7.681441e+01	-1.637483e+01
7.725809e+01	-1.642275e+01
7.770433e+01	-1.647136e+01
7.815315e+01	-1.651997e+01
7.860456e+01	-1.656891e+01
7.905857e+01	-1.661930e+01
7.951521e+01	-1.666792e+01
7.997449e+01	-1.671748e+01
8.043642e+01	-1.676497e+01
8.090102e+01	-1.681408e+01
8.136830e+01	-1.686339e+01
8.183828e+01	-1.691162e+01
8.231097e+01	-1.696177e+01
8.278640e+01	-1.701124e+01
8.326457e+01	-1.705919e+01
8.374550e+01	-1.710890e+01
8.422921e+01	-1.715716e+01
8.471572e+01	-1.720700e+01
8.520503e+01	-1.725676e+01
8.569717e+01	-1.730572e+01
8.619215e+01	-1.735410e+01
8.669000e+01	-1.740236e+01
8.719071e+01	-1.745142e+01
8.769432e+01	-1.750219e+01
8.820084e+01	-1.755096e+01
8.871029e+01	-1.759914e+01
8.922267e+01	-1.764966e+01
8.973802e+01	-1.769769e+01
9.025634e+01	-1.774758e+01
9.077766e+01	-1.779557e+01
9.130199e+01	-1.784497e+01
9.182935e+01	-1.789519e+01
9.235975e+01	-1.794514e+01
9.289321e+01	-1.799314e+01
9.342976e+01	-1.804213e+01
9.396941e+01	-1.809162e+01
9.451217e+01	-1.814203e+01
9.505807e+01	-1.819109e+01
9.560712e+01	-1.824011e+01
9.615934e+01	-1.828896e+01
9.671476e+01	-1.833891e+01
9.727338e+01	-1.838671e+01
9.783522e+01	-1.843762e+01
9.840032e+01	-1.848624e+01
9.896867e+01	-1.853560e+01
9.954031e+01	-1.858544e+01
1.001153e+02	-1.863382e+01
1.006935e+02	-1.868438e+01
1.012751e+02	-1.873246e+01
1.018601e+02	-1.878289e+01
1.024484e+02	-1.883077e+01
1.030402e+02	-1.888120e+01
1.036353e+02	-1.893094e+01
1.042339e+02	-1.898048e+01
1.048360e+02	-1.902968e+01
1.054415e+02	-1.907904e+01
1.060505e+02	-1.913014e+01
1.066631e+02	-1.917771e+01
1.072791e+02	-1.922752e+01
1.078988e+02	-1.927578e+01
1.085220e+02	-1.932550e+01
1.091488e+02	-1.937576e+01
1.097793e+02	-1.942497e+01
1.104133e+02	-1.947433e+01
1.110511e+02	-1.952416e+01
1.116925e+02	-1.957380e+01
1.123376e+02	-1.962209e+01
1.129865e+02	-1.967108e+01
1.136391e+02	-1.972171e+01
1.142955e+02	-1.976956e+01
1.149556e+02	-1.982084e+01
1.156196e+02	-1.986997e+01
1.162874e+02	-1.992118e+01
1.169591e+02	-1.996923e+01
1.176347e+02	-2.001744e+01
1.183141e+02	-2.006858e+01
1.189975e+02	-2.011741e+01
1.196848e+02	-2.016664e+01
1.203761e+02	-2.021741e+01
1.210714e+02	-2.026852e+01
1.217707e+02	-2.031572e+01
1.224740e+02	-2.036578e+01
1.231814e+02	-2.041635e+01
1.238929e+02	-2.046497e+01
1.246085e+02	-2.051402e+01
1.253283e+02	-2.056297e+01
1.260522e+02	-2.061299e+01
1.267802e+02	-2.066216e+01
1.275125e+02	-2.071198e+01
1.282490e+02	-2.076222e+01
1.289898e+02	-2.081415e+01
1.297348e+02	-2.086109e+01
1.304842e+02	-2.091085e+01
1.312378e+02	-2.096155e+01
1.319959e+02	-2.101140e+01
1.327583e+02	-2.105882e+01
1.335251e+02	-2.111079e+01
1.342963e+02	-2.116025e+01
1.350720e+02	-2.120822e+01
1.358522e+02	-2.125951e+01
1.366368e+02	-2.130904e+01
1.374260e+02	-2.135846e+01
1.382198e+02	-2.140870e+01
1.390182e+02	-2.145963e+01
1.398211e+02	-2.150516e+01
1.406287e+02	-2.155731e+01
1.414410e+02	-2.160651e+01
1.422579e+02	-2.165471e+01
1.430796e+02	-2.170642e+01
1.439060e+02	-2.175393e+01
1.447372e+02	-2.180577e+01
1.455732e+02	-2.185588e+01
1.464141e+02	-2.190391e+01
1.472597e+02	-2.195350e+01
1.481103e+02	-2.200429e+01
1.489658e+02	-2.205404e+01
1.498262e+02	-2.210447e+01
1.506916e+02	-2.215208e+01
1.515620e+02	-2.220220e+01
1.524374e+02	-2.225217e+01
1.533179e+02	-2.230281e+01
1.542034e+02	-2.235483e+01
1.550941e+02	-2.240102e+01
1.559899e+02	-2.245215e+01
1.568909e+02	-2.250311e+01
1.577971e+02	-2.255223e+01
1.587085e+02	-2.260386e+01
1.596252e+02	-2.264939e+01
1.605472e+02	-2.269901e+01
1.614745e+02	-2.275252e+01
1.624072e+02	-2.279989e+01
1.633453e+02	-2.285233e+01
1.642887e+02	-2.290029e+01
1.652377e+02	-2.295009e+01
1.661921e+02	-2.299744e+01
1.671520e+02	-2.305008e+01
1.681175e+02	-2.309833e+01
1.690885e+02	-2.315100e+01
1.700651e+02	-2.319768e+01
1.710474e+02	-2.324696e+01
1.720354e+02	-2.329742e+01
1.730291e+02	-2.334597e+01
1.740285e+02	-2.339801e+01
1.750337e+02	-2.344728e+01
1.760446e+02	-2.349915e+01
1.770615e+02	-2.354816e+01
1.780842e+02	-2.359766e+01
1.791128e+02	-2.364518e+01
1.801473e+02	-2.369798e+01
1.811878e+02	-2.374822e+01
1.822344e+02	-2.379567e+01
1.832870e+02	-2.384633e+01
1.843456e+02	-2.389413e+01
1.854104e+02	-2.394559e+01
1.864813e+02	-2.399640e+01
1.875584e+02	-2.404556e+01
1.886418e+02	-2.409705e+01
1.897313e+02	-2.414903e+01
1.908272e+02	-2.419380e+01
1.919294e+02	-2.424423e+01
1.930380e+02	-2.429592e+01
1.941530e+02	-2.434762e+01
1.952744e+02	-2.439179e+01
1.964023e+02	-2.444506e+01
1.975367e+02	-2.449711e+01
1.986777e+02	-2.454433e+01
1.998252e+02	-2.459591e+01
2.009794e+02	-2.464379e+01
2.021403e+02	-2.469208e+01
2.033078e+02	-2.474300e+01
2.044821e+02	-2.479079e+01
2.056632e+02	-2.484283e+01
2.068511e+02	-2.489314e+01
2.080459e+02	-2.494266e+01
2.092475e+02	-2.499411e+01
2.104561e+02	-2.504344e+01
2.116717e+02	-2.509217e+01
2.128943e+02	-2.514462e+01
2.141240e+02	-2.519226e+01
2.153608e+02	-2.524236e+01
2.166047e+02	-2.529280e+01
2.178558e+02	-2.534148e+01
2.191141e+02	-2.539340e+01
2.203797e+02	-2.544216e+01
2.216526e+02	-2.549135e+01
2.229329e+02	-2.554200e+01
2.242205e+02	-2.559626e+01
2.255156e+02	-2.564153e+01
2.268182e+02	-2.569088e+01
2.281283e+02	-2.574116e+01
2.294459e+02	-2.579317e+01
2.307712e+02	-2.584203e+01
2.321041e+02	-2.588883e+01
2.334447e+02	-2.594106e+01
2.347931e+02	-2.599105e+01
2.361493e+02	-2.603953e+01
2.375133e+02	-2.609285e+01
2.388851e+02	-2.614310e+01
2.402649e+02	-2.619020e+01
2.416527e+02	-2.624193e+01
2.430484e+02	-2.629201e+01
2.444523e+02	-2.634137e+01
2.458642e+02	-2.638744e+01
2.472843e+02	-2.644135e+01
2.487126e+02	-2.649154e+01
2.501492e+02	-2.654339e+01
2.515940e+02	-2.658834e+01
2.530472e+02	-2.664008e+01
2.545088e+02	-2.668984e+01
2.559789e+02	-2.674209e+01
2.574574e+02	-2.679188e+01
2.589444e+02	-2.684225e+01
2.604401e+02	-2.689043e+01
2.619444e+02	-2.694496e+01
2.634574e+02	-2.699288e+01
2.649791e+02	-2.703787e+01
2.665096e+02	-2.708960e+01
2.680489e+02	-2.714517e+01
2.695972e+02	-2.719580e+01
2.711544e+02	-2.724029e+01
2.727205e+02	-2.728983e+01
2.742958e+02	-2.734185e+01
2.758801e+02	-2.739217e+01
2.774736e+02	-2.744078e+01
2.790762e+02	-2.749247e+01
2.806882e+02	-2.754545e+01
2.823094e+02	-2.759127e+01
2.839400e+02	-2.764706e+01
2.855800e+02	-2.769363e+01
2.872295e+02	-2.773774e+01
2.888886e+02	-2.779254e+01
2.905572e+02	-2.784253e+01
2.922354e+02	-2.789152e+01
2.939234e+02	-2.794418e+01
2.956211e+02	-2.799180e+01
2.973286e+02	-2.804104e+01
2.990459e+02	-2.809347e+01
3.007732e+02	-2.814116e+01
3.025104e+02	-2.819089e+01
3.042577e+02	-2.824260e+01
3.060151e+02	-2.829656e+01
3.077826e+02	-2.833966e+01
3.095604e+02	-2.838538e+01
3.113484e+02	-2.844119e+01
3.131467e+02	-2.849042e+01
3.149554e+02	-2.853917e+01
3.167746e+02	-2.859047e+01
3.186043e+02	-2.864187e+01
3.204445e+02	-2.869689e+01
3.222954e+02	-2.873923e+01
3.241570e+02	-2.879122e+01
3.260293e+02	-2.884205e+01
3.279124e+02	-2.889179e+01
3.298064e+02	-2.893908e+01
3.317114e+02	-2.899356e+01
3.336273e+02	-2.904216e+01
3.355544e+02	-2.909008e+01
3.374925e+02	-2.914701e+01
3.394418e+02	-2.919373e+01
3.414024e+02	-2.924005e+01
3.433744e+02	-2.929299e+01
3.453577e+02	-2.934248e+01
3.473525e+02	-2.939299e+01
3.493588e+02	-2.944218e+01
3.513766e+02	-2.948996e+01
3.534062e+02	-2.954324e+01
3.554474e+02	-2.959286e+01
3.575005e+02	-2.964308e+01
3.595654e+02	-2.969271e+01
3.616422e+02	-2.974851e+01
3.637311e+02	-2.979501e+01
3.658320e+02	-2.984317e+01
3.679450e+02	-2.989750e+01
3.700702e+02	-2.994901e+01
3.722077e+02	-2.999614e+01
3.743576e+02	-3.004254e+01
3.765199e+02	-3.008759e+01
3.786946e+02	-3.014707e+01
3.808820e+02	-3.019470e+01
3.830819e+02	-3.024727e+01
3.852946e+02	-3.029580e+01
3.875200e+02	-3.034693e+01
3.897583e+02	-3.039270e+01
3.920096e+02	-3.045067e+01
3.942738e+02	-3.049590e+01
3.965511e+02	-3.054724e+01
3.988416e+02	-3.059713e+01
4.011452e+02	-3.064596e+01
4.034622e+02	-3.069379e+01
4.057926e+02	-3.075134e+01
4.081365e+02	-3.079081e+01
4.104938e+02	-3.084229e+01
4.128648e+02	-3.089563e+01
4.152495e+02	-3.094422e+01
4.176480e+02	-3.100092e+01
4.200603e+02	-3.104805e+01
4.224866e+02	-3.109966e+01
4.249268e+02	-3.115321e+01
4.273812e+02	-3.119752e+01
4.298497e+02	-3.124351e+01
4.323325e+02	-3.130105e+01
4.348297e+02	-3.134456e+01
4.373412e+02	-3.139597e+01
4.398673e+02	-3.144401e+01
4.424079e+02	-3.149925e+01
4.449633e+02	-3.154961e+01
4.475334e+02	-3.160275e+01
4.501183e+02	-3.164331e+01
4.527182e+02	-3.170134e+01
4.553330e+02	-3.175094e+01
4.579630e+02	-3.180104e+01
4.606082e+02	-3.185272e+01
4.632687e+02	-3.190021e+01
4.659445e+02	-3.195296e+01
4.686358e+02	-3.200283e+01
4.713426e+02	-3.204846e+01
4.740650e+02	-3.209355e+01
4.768032e+02	-3.215495e+01
4.795572e+02	-3.220128e+01
4.823271e+02	-3.225260e+01
4.851130e+02	-3.230143e+01
4.879150e+02	-3.235230e+01
4.907332e+02	-3.240074e+01
4.935676e+02	-3.245658e+01
4.964185e+02	-3.250134e+01
4.992858e+02	-3.255358e+01
5.021696e+02	-3.259858e+01
5.050701e+02	-3.265810e+01
5.079874e+02	-3.270152e+01
5.109215e+02	-3.275190e+01
5.138726e+02	-3.280305e+01
5.168407e+02	-3.285310e+01
5.198259e+02	-3.290227e+01
5.228284e+02	-3.295695e+01
5.258482e+02	-3.300517e+01
5.288855e+02	-3.305226e+01
5.319403e+02	-3.310833e+01
5.350128e+02	-3.316209e+01
5.381030e+02	-3.320321e+01
5.412111e+02	-3.325913e+01
5.443371e+02	-3.329832e+01
5.474812e+02	-3.335570e+01
5.506434e+02	-3.341024e+01
5.538239e+02	-3.345988e+01
5.570228e+02	-3.350455e+01
5.602401e+02	-3.354881e+01
5.634760e+02	-3.360679e+01
5.667306e+02	-3.365832e+01
5.700040e+02	-3.371272e+01
5.732964e+02	-3.376271e+01
5.766077e+02	-3.380630e+01
5.799382e+02	-3.386684e+01
5.832879e+02	-3.391373e+01
5.866569e+02	-3.395535e+01
5.900454e+02	-3.401302e+01
5.934535e+02	-3.406844e+01
5.968813e+02	-3.411314e+01
6.003288e+02	-3.415229e+01
6.037963e+02	-3.421036e+01
6.072838e+02	-3.425047e+01
6.107914e+02	-3.430183e+01
6.143194e+02	-3.435976e+01
6.178676e+02	-3.440980e+01
6.214364e+02	-3.446185e+01
6.250258e+02	-3.451003e+01
6.286359e+02	-3.455140e+01
6.322669e+02	-3.461060e+01
6.359189e+02	-3.466461e+01
6.395919e+02	-3.471244e+01
6.432862e+02	-3.477114e+01
6.470017e+02	-3.481076e+01
6.507388e+02	-3.486590e+01
6.544974e+02	-3.491245e+01
6.582778e+02	-3.496174e+01
6.620800e+02	-3.501469e+01
6.659041e+02	-3.506087e+01
6.697504e+02	-3.511421e+01
6.736188e+02	-3.517352e+01
6.775096e+02	-3.521006e+01
6.814229e+02	-3.526548e+01
6.853587e+02	-3.531857e+01
6.893173e+02	-3.537965e+01
6.932988e+02	-3.541914e+01
6.973033e+02	-3.545866e+01
7.013309e+02	-3.552817e+01
