Frequency(Hz)	Magnitude(dB)
1.000000e+01	-2.124314e+00
1.005776e+01	-2.143594e+00
1.011585e+01	-2.163219e+00
1.017428e+01	-2.182673e+00
1.023305e+01	-2.202809e+00
1.029215e+01	-2.222742e+00
1.035160e+01	-2.242769e+00
1.041139e+01	-2.263048e+00
1.047153e+01	-2.283419e+00
1.053201e+01	-2.303907e+00
1.059284e+01	-2.324654e+00
1.065403e+01	-2.345436e+00
1.071556e+01	-2.366281e+00
1.077746e+01	-2.387374e+00
1.083971e+01	-2.408655e+00
1.090232e+01	-2.430067e+00
1.096529e+01	-2.451639e+00
1.102862e+01	-2.472980e+00
1.109232e+01	-2.494858e+00
1.115639e+01	-2.517019e+00
1.122083e+01	-2.539131e+00
1.128564e+01	-2.561259e+00
1.135083e+01	-2.583702e+00
1.141639e+01	-2.605983e+00
1.148233e+01	-2.628649e+00
1.154865e+01	-2.651630e+00
1.161536e+01	-2.674401e+00
1.168245e+01	-2.697511e+00
1.174992e+01	-2.720714e+00
1.181779e+01	-2.743956e+00
1.188605e+01	-2.767537e+00
1.195470e+01	-2.791131e+00
1.202375e+01	-2.815100e+00
1.209320e+01	-2.839182e+00
1.216305e+01	-2.863018e+00
1.223330e+01	-2.887313e+00
1.230396e+01	-2.911452e+00
1.237503e+01	-2.936096e+00
1.244651e+01	-2.960880e+00
1.251840e+01	-2.985695e+00
1.259070e+01	-3.010490e+00
1.266343e+01	-3.035549e+00
1.273657e+01	-3.060838e+00
1.281014e+01	-3.086230e+00
1.288413e+01	-3.111681e+00
1.295855e+01	-3.137333e+00
1.303339e+01	-3.163272e+00
1.310867e+01	-3.189163e+00
1.318439e+01	-3.215214e+00
1.326054e+01	-3.241503e+00
1.333713e+01	-3.268024e+00
1.341417e+01	-3.294600e+00
1.349165e+01	-3.321042e+00
1.356958e+01	-3.347846e+00
1.364795e+01	-3.374661e+00
1.372678e+01	-3.401838e+00
1.380607e+01	-3.428937e+00
1.388581e+01	-3.456750e+00
1.396602e+01	-3.484146e+00
1.404668e+01	-3.511749e+00
1.412782e+01	-3.539558e+00
1.420942e+01	-3.567360e+00
1.429149e+01	-3.595718e+00
1.437404e+01	-3.623958e+00
1.445706e+01	-3.652144e+00
1.454057e+01	-3.680682e+00
1.462455e+01	-3.709607e+00
1.470902e+01	-3.738355e+00
1.479398e+01	-3.767094e+00
1.487943e+01	-3.796182e+00
1.496537e+01	-3.825572e+00
1.505181e+01	-3.854901e+00
1.513875e+01	-3.884334e+00
1.522619e+01	-3.914008e+00
1.531414e+01	-3.943845e+00
1.540259e+01	-3.973531e+00
1.549156e+01	-4.003711e+00
1.558103e+01	-4.033844e+00
1.567103e+01	-4.063933e+00
1.576155e+01	-4.094776e+00
1.585258e+01	-4.125352e+00
1.594415e+01	-4.156101e+00
1.603624e+01	-4.186828e+00
1.612886e+01	-4.217827e+00
1.622202e+01	-4.249232e+00
1.631572e+01	-4.280095e+00
1.640996e+01	-4.311636e+00
1.650474e+01	-4.343298e+00
1.660008e+01	-4.374721e+00
1.669596e+01	-4.406819e+00
1.679239e+01	-4.438732e+00
1.688938e+01	-4.470899e+00
1.698694e+01	-4.503081e+00
1.708505e+01	-4.535411e+00
1.718373e+01	-4.567744e+00
1.728299e+01	-4.600671e+00
1.738281e+01	-4.633187e+00
1.748322e+01	-4.666117e+00
1.758420e+01	-4.699164e+00
1.768576e+01	-4.732455e+00
1.778792e+01	-4.765676e+00
1.789066e+01	-4.798858e+00
1.799399e+01	-4.832688e+00
1.809793e+01	-4.866182e+00
1.820246e+01	-4.899961e+00
1.830760e+01	-4.934010e+00
1.841334e+01	-4.968051e+00
1.851969e+01	-5.002123e+00
1.862666e+01	-5.036355e+00
1.873425e+01	-5.070540e+00
1.884246e+01	-5.105174e+00
1.895129e+01	-5.139865e+00
1.906075e+01	-5.174828e+00
1.917085e+01	-5.209792e+00
1.928158e+01	-5.244868e+00
1.939295e+01	-5.279937e+00
1.950496e+01	-5.314848e+00
1.961762e+01	-5.350174e+00
1.973093e+01	-5.385965e+00
1.984490e+01	-5.421716e+00
1.995952e+01	-5.457124e+00
2.007480e+01	-5.493064e+00
2.019076e+01	-5.528927e+00
2.030738e+01	-5.565073e+00
2.042467e+01	-5.601227e+00
2.054264e+01	-5.637563e+00
2.066130e+01	-5.674006e+00
2.078064e+01	-5.710711e+00
2.090066e+01	-5.747294e+00
2.102139e+01	-5.783718e+00
2.114280e+01	-5.820669e+00
2.126492e+01	-5.857614e+00
2.138775e+01	-5.895014e+00
2.151128e+01	-5.932082e+00
2.163553e+01	-5.969405e+00
2.176050e+01	-6.006792e+00
2.188619e+01	-6.044674e+00
2.201260e+01	-6.082109e+00
2.213974e+01	-6.119620e+00
2.226762e+01	-6.157642e+00
2.239624e+01	-6.195751e+00
2.252560e+01	-6.233327e+00
2.265571e+01	-6.272175e+00
2.278656e+01	-6.310126e+00
2.291818e+01	-6.348698e+00
2.305055e+01	-6.386843e+00
2.318369e+01	-6.425381e+00
2.331760e+01	-6.464265e+00
2.345228e+01	-6.502836e+00
2.358774e+01	-6.542217e+00
2.372398e+01	-6.581206e+00
2.386101e+01	-6.619769e+00
2.399883e+01	-6.659028e+00
2.413745e+01	-6.698588e+00
2.427686e+01	-6.737507e+00
2.441709e+01	-6.777157e+00
2.455812e+01	-6.816565e+00
2.469997e+01	-6.856721e+00
2.484263e+01	-6.896232e+00
2.498612e+01	-6.935912e+00
2.513044e+01	-6.976332e+00
2.527559e+01	-7.016283e+00
2.542158e+01	-7.056374e+00
2.556842e+01	-7.096380e+00
2.571610e+01	-7.136572e+00
2.586463e+01	-7.177070e+00
2.601403e+01	-7.217045e+00
2.616428e+01	-7.258005e+00
2.631541e+01	-7.298855e+00
2.646740e+01	-7.339085e+00
2.662028e+01	-7.380445e+00
2.677404e+01	-7.421527e+00
2.692868e+01	-7.462512e+00
2.708422e+01	-7.503381e+00
2.724066e+01	-7.544632e+00
2.739800e+01	-7.586032e+00
2.755625e+01	-7.626885e+00
2.771541e+01	-7.668625e+00
2.787550e+01	-7.710291e+00
2.803650e+01	-7.751709e+00
2.819844e+01	-7.793219e+00
2.836131e+01	-7.835077e+00
2.852513e+01	-7.876719e+00
2.868989e+01	-7.918941e+00
2.885560e+01	-7.960944e+00
2.902227e+01	-8.002736e+00
2.918990e+01	-8.044950e+00
2.935850e+01	-8.087346e+00
2.952807e+01	-8.129542e+00
2.969863e+01	-8.172253e+00
2.987016e+01	-8.214726e+00
3.004269e+01	-8.256903e+00
3.021622e+01	-8.299360e+00
3.039075e+01	-8.342223e+00
3.056628e+01	-8.385012e+00
3.074283e+01	-8.427443e+00
3.092040e+01	-8.470663e+00
3.109900e+01	-8.513354e+00
3.127862e+01	-8.556527e+00
3.145929e+01	-8.599455e+00
3.164099e+01	-8.642951e+00
3.182375e+01	-8.686298e+00
3.200756e+01	-8.729778e+00
3.219244e+01	-8.772637e+00
3.237838e+01	-8.815800e+00
3.256540e+01	-8.859609e+00
3.275349e+01	-8.902956e+00
3.294268e+01	-8.946565e+00
3.313295e+01	-8.990573e+00
3.332433e+01	-9.034479e+00
3.351681e+01	-9.077768e+00
3.371040e+01	-9.122062e+00
3.390511e+01	-9.165781e+00
3.410094e+01	-9.209869e+00
3.429791e+01	-9.253806e+00
3.449601e+01	-9.297951e+00
3.469526e+01	-9.342569e+00
3.489566e+01	-9.386580e+00
3.509721e+01	-9.430814e+00
3.529993e+01	-9.475365e+00
3.550382e+01	-9.519364e+00
3.570889e+01	-9.563780e+00
3.591515e+01	-9.608726e+00
3.612259e+01	-9.653409e+00
3.633123e+01	-9.697469e+00
3.654108e+01	-9.741931e+00
3.675214e+01	-9.786896e+00
3.696442e+01	-9.831370e+00
3.717792e+01	-9.876464e+00
3.739266e+01	-9.921495e+00
3.760864e+01	-9.966902e+00
3.782587e+01	-1.001169e+01
3.804435e+01	-1.005712e+01
3.826409e+01	-1.010182e+01
3.848510e+01	-1.014640e+01
3.870739e+01	-1.019225e+01
3.893096e+01	-1.023771e+01
3.915583e+01	-1.028271e+01
3.938199e+01	-1.032771e+01
3.960946e+01	-1.037377e+01
3.983824e+01	-1.041918e+01
4.006834e+01	-1.046433e+01
4.029978e+01	-1.050991e+01
4.053255e+01	-1.055554e+01
4.076666e+01	-1.060088e+01
4.100213e+01	-1.064692e+01
4.123896e+01	-1.069270e+01
4.147715e+01	-1.073896e+01
4.171672e+01	-1.078443e+01
4.195767e+01	-1.083047e+01
4.220002e+01	-1.087586e+01
4.244377e+01	-1.092221e+01
4.268892e+01	-1.096805e+01
4.293549e+01	-1.101426e+01
4.318348e+01	-1.105980e+01
4.343291e+01	-1.110616e+01
4.368377e+01	-1.115330e+01
4.393609e+01	-1.119892e+01
4.418986e+01	-1.124466e+01
4.444510e+01	-1.129114e+01
4.470182e+01	-1.133720e+01
4.496001e+01	-1.138409e+01
4.521970e+01	-1.143052e+01
4.548089e+01	-1.147686e+01
4.574358e+01	-1.152269e+01
4.600779e+01	-1.156980e+01
4.627353e+01	-1.161636e+01
4.654081e+01	-1.166304e+01
4.680963e+01	-1.170990e+01
4.708000e+01	-1.175620e+01
4.735193e+01	-1.180220e+01
4.762543e+01	-1.184987e+01
4.790051e+01	-1.189655e+01
4.817719e+01	-1.194304e+01
4.845545e+01	-1.199014e+01
4.873533e+01	-1.203681e+01
4.901682e+01	-1.208401e+01
4.929994e+01	-1.213063e+01
4.958470e+01	-1.217760e+01
4.987110e+01	-1.222463e+01
5.015915e+01	-1.227213e+01
5.044887e+01	-1.231895e+01
5.074026e+01	-1.236582e+01
5.103333e+01	-1.241293e+01
5.132810e+01	-1.246011e+01
5.162457e+01	-1.250776e+01
5.192275e+01	-1.255522e+01
5.222265e+01	-1.260221e+01
5.252429e+01	-1.264944e+01
5.282767e+01	-1.269626e+01
5.313280e+01	-1.274397e+01
5.343969e+01	-1.279104e+01
5.374836e+01	-1.283913e+01
5.405880e+01	-1.288649e+01
5.437105e+01	-1.293400e+01
5.468509e+01	-1.298107e+01
5.500095e+01	-1.302884e+01
5.531863e+01	-1.307643e+01
5.563815e+01	-1.312407e+01
5.595951e+01	-1.317181e+01
5.628273e+01	-1.321929e+01
5.660782e+01	-1.326683e+01
5.693479e+01	-1.331443e+01
5.726364e+01	-1.336220e+01
5.759439e+01	-1.341081e+01
5.792705e+01	-1.345785e+01
5.826164e+01	-1.350537e+01
5.859815e+01	-1.355286e+01
5.893662e+01	-1.360068e+01
5.927703e+01	-1.364868e+01
5.961941e+01	-1.369658e+01
5.996377e+01	-1.374472e+01
6.031012e+01	-1.379266e+01
6.065847e+01	-1.384099e+01
6.100883e+01	-1.388784e+01
6.136121e+01	-1.393715e+01
6.171563e+01	-1.398447e+01
6.207210e+01	-1.403239e+01
6.243063e+01	-1.408086e+01
6.279122e+01	-1.412802e+01
6.315390e+01	-1.417673e+01
6.351868e+01	-1.422504e+01
6.388556e+01	-1.427286e+01
6.425456e+01	-1.432132e+01
6.462569e+01	-1.436926e+01
6.499897e+01	-1.441774e+01
6.537440e+01	-1.446585e+01
6.575200e+01	-1.451341e+01
6.613178e+01	-1.456271e+01
6.651375e+01	-1.461071e+01
6.689793e+01	-1.465884e+01
6.728433e+01	-1.470785e+01
6.767297e+01	-1.475506e+01
6.806384e+01	-1.480346e+01
6.845698e+01	-1.485338e+01
6.885238e+01	-1.490142e+01
6.925007e+01	-1.494959e+01
6.965005e+01	-1.499721e+01
7.005235e+01	-1.504663e+01
7.045697e+01	-1.509423e+01
7.086393e+01	-1.514260e+01
7.127323e+01	-1.519157e+01
7.168490e+01	-1.524053e+01
7.209895e+01	-1.528919e+01
7.251539e+01	-1.533729e+01
7.293424e+01	-1.538580e+01
7.335551e+01	-1.543440e+01
7.377920e+01	-1.548376e+01
7.420535e+01	-1.553161e+01
7.463396e+01	-1.558045e+01
7.506504e+01	-1.562943e+01
7.549861e+01	-1.567744e+01
7.593469e+01	-1.572560e+01
7.637328e+01	-1.577477e+01
7.681441e+01	-1.582373e+01
7.725809e+01	-1.587275e+01
7.770433e+01	-1.592072e+01
7.815315e+01	-1.596987e+01
7.860456e+01	-1.601848e+01
7.905857e+01	-1.606746e+01
7.951521e+01	-1.611624e+01
7.997449e+01	-1.616553e+01
8.043642e+01	-1.621386e+01
8.090102e+01	-1.626206e+01
8.136830e+01	-1.631155e+01
8.183828e+01	-1.636117e+01
8.231097e+01	-1.640945e+01
8.278640e+01	-1.645784e+01
8.326457e+01	-1.650712e+01
8.374550e+01	-1.655510e+01
8.422921e+01	-1.660457e+01
8.471572e+01	-1.665295e+01
8.520503e+01	-1.670365e+01
8.569717e+01	-1.675229e+01
8.619215e+01	-1.680087e+01
8.669000e+01	-1.685096e+01
8.719071e+01	-1.689869e+01
8.769432e+01	-1.694780e+01
8.820084e+01	-1.699626e+01
8.871029e+01	-1.704619e+01
8.922267e+01	-1.709531e+01
8.973802e+01	-1.714394e+01
9.025634e+01	-1.719371e+01
9.077766e+01	-1.724307e+01
9.130199e+01	-1.729121e+01
9.182935e+01	-1.734064e+01
9.235975e+01	-1.738944e+01
9.289321e+01	-1.743800e+01
9.342976e+01	-1.748792e+01
9.396941e+01	-1.753702e+01
9.451217e+01	-1.758672e+01
9.505807e+01	-1.763495e+01
9.560712e+01	-1.768471e+01
9.615934e+01	-1.773305e+01
9.671476e+01	-1.778280e+01
9.727338e+01	-1.783178e+01
9.783522e+01	-1.788063e+01
9.840032e+01	-1.793175e+01
9.896867e+01	-1.798066e+01
9.954031e+01	-1.802959e+01
1.001153e+02	-1.807761e+01
1.006935e+02	-1.812751e+01
1.012751e+02	-1.817705e+01
1.018601e+02	-1.822562e+01
1.024484e+02	-1.827769e+01
1.030402e+02	-1.832401e+01
1.036353e+02	-1.837368e+01
1.042339e+02	-1.842373e+01
1.048360e+02	-1.847234e+01
1.054415e+02	-1.852241e+01
1.060505e+02	-1.857128e+01
1.066631e+02	-1.862184e+01
1.072791e+02	-1.866889e+01
1.078988e+02	-1.871836e+01
1.085220e+02	-1.876836e+01
1.091488e+02	-1.881866e+01
1.097793e+02	-1.886763e+01
1.104133e+02	-1.891738e+01
1.110511e+02	-1.896523e+01
1.116925e+02	-1.901619e+01
1.123376e+02	-1.906555e+01
1.129865e+02	-1.911447e+01
1.136391e+02	-1.916415e+01
1.142955e+02	-1.921326e+01
1.149556e+02	-1.926269e+01
1.156196e+02	-1.931005e+01
1.162874e+02	-1.936074e+01
1.169591e+02	-1.940889e+01
1.176347e+02	-1.946088e+01
1.183141e+02	-1.950985e+01
1.189975e+02	-1.955960e+01
1.196848e+02	-1.960899e+01
1.203761e+02	-1.965703e+01
1.210714e+02	-1.970779e+01
1.217707e+02	-1.975656e+01
1.224740e+02	-1.980645e+01
1.231814e+02	-1.985495e+01
1.238929e+02	-1.990597e+01
1.246085e+02	-1.995556e+01
1.253283e+02	-2.000606e+01
1.260522e+02	-2.005373e+01
1.267802e+02	-2.010386e+01
1.275125e+02	-2.015096e+01
1.282490e+02	-2.020382e+01
1.289898e+02	-2.025385e+01
1.297348e+02	-2.030320e+01
1.304842e+02	-2.035203e+01
1.312378e+02	-2.040154e+01
1.319959e+02	-2.044963e+01
1.327583e+02	-2.050235e+01
1.335251e+02	-2.054895e+01
1.342963e+02	-2.059901e+01
1.350720e+02	-2.065017e+01
1.358522e+02	-2.070160e+01
1.366368e+02	-2.074889e+01
1.374260e+02	-2.079887e+01
1.382198e+02	-2.084782e+01
1.390182e+02	-2.089648e+01
1.398211e+02	-2.094711e+01
1.406287e+02	-2.099694e+01
1.414410e+02	-2.104682e+01
1.422579e+02	-2.109601e+01
1.430796e+02	-2.114599e+01
1.439060e+02	-2.119401e+01
1.447372e+02	-2.124533e+01
1.455732e+02	-2.129503e+01
1.464141e+02	-2.134505e+01
1.472597e+02	-2.139321e+01
1.481103e+02	-2.144239e+01
1.489658e+02	-2.149355e+01
1.498262e+02	-2.154375e+01
1.506916e+02	-2.159076e+01
1.515620e+02	-2.164087e+01
1.524374e+02	-2.169215e+01
1.533179e+02	-2.174068e+01
1.542034e+02	-2.178952e+01
1.550941e+02	-2.184234e+01
1.559899e+02	-2.189186e+01
1.568909e+02	-2.193993e+01
1.577971e+02	-2.199101e+01
1.587085e+02	-2.204135e+01
1.596252e+02	-2.209082e+01
1.605472e+02	-2.214015e+01
1.614745e+02	-2.218855e+01
1.624072e+02	-2.223830e+01
1.633453e+02	-2.229010e+01
1.642887e+02	-2.233731e+01
1.652377e+02	-2.238715e+01
1.661921e+02	-2.244010e+01
1.671520e+02	-2.248608e+01
1.681175e+02	-2.253723e+01
1.690885e+02	-2.258698e+01
1.700651e+02	-2.263754e+01
1.710474e+02	-2.268829e+01
1.720354e+02	-2.273798e+01
1.730291e+02	-2.278618e+01
1.740285e+02	-2.283685e+01
1.750337e+02	-2.288477e+01
1.760446e+02	-2.293713e+01
1.770615e+02	-2.298389e+01
1.780842e+02	-2.303593e+01
1.791128e+02	-2.308584e+01
1.801473e+02	-2.313343e+01
1.811878e+02	-2.318374e+01
1.822344e+02	-2.323499e+01
1.832870e+02	-2.328365e+01
1.843456e+02	-2.333385e+01
1.854104e+02	-2.338495e+01
1.864813e+02	-2.343432e+01
1.875584e+02	-2.348229e+01
1.886418e+02	-2.353620e+01
1.897313e+02	-2.358331e+01
1.908272e+02	-2.363407e+01
1.919294e+02	-2.368424e+01
1.930380e+02	-2.373361e+01
1.941530e+02	-2.378368e+01
1.952744e+02	-2.383459e+01
1.964023e+02	-2.388387e+01
1.975367e+02	-2.393125e+01
1.986777e+02	-2.398266e+01
1.998252e+02	-2.403129e+01
2.009794e+02	-2.408186e+01
2.021403e+02	-2.413072e+01
2.033078e+02	-2.417946e+01
2.044821e+02	-2.423091e+01
2.056632e+02	-2.428028e+01
2.068511e+02	-2.433171e+01
2.080459e+02	-2.437910e+01
2.092475e+02	-2.443280e+01
2.104561e+02	-2.448354e+01
2.116717e+02	-2.453189e+01
2.128943e+02	-2.458255e+01
2.141240e+02	-2.463161e+01
2.153608e+02	-2.468144e+01
2.166047e+02	-2.473207e+01
2.178558e+02	-2.478043e+01
2.191141e+02	-2.483249e+01
2.203797e+02	-2.487944e+01
2.216526e+02	-2.493184e+01
2.229329e+02	-2.498132e+01
2.242205e+02	-2.503230e+01
2.255156e+02	-2.508066e+01
2.268182e+02	-2.513066e+01
2.281283e+02	-2.517922e+01
2.294459e+02	-2.523051e+01
2.307712e+02	-2.528003e+01
2.321041e+02	-2.533189e+01
2.334447e+02	-2.537933e+01
2.347931e+02	-2.542725e+01
2.361493e+02	-2.547926e+01
2.375133e+02	-2.553058e+01
2.388851e+02	-2.557776e+01
2.402649e+02	-2.562979e+01
2.416527e+02	-2.568166e+01
2.430484e+02	-2.573068e+01
2.444523e+02	-2.578312e+01
2.458642e+02	-2.582938e+01
2.472843e+02	-2.588079e+01
2.487126e+02	-2.592485e+01
2.501492e+02	-2.597864e+01
2.515940e+02	-2.602900e+01
2.530472e+02	-2.607903e+01
2.545088e+02	-2.612978e+01
2.559789e+02	-2.617667e+01
2.574574e+02	-2.622978e+01
2.589444e+02	-2.627728e+01
2.604401e+02	-2.632849e+01
2.619444e+02	-2.637600e+01
2.634574e+02	-2.643083e+01
2.649791e+02	-2.647567e+01
2.665096e+02	-2.652772e+01
2.680489e+02	-2.657687e+01
2.695972e+02	-2.662763e+01
2.711544e+02	-2.667863e+01
2.727205e+02	-2.672693e+01
2.742958e+02	-2.677863e+01
2.758801e+02	-2.682692e+01
2.774736e+02	-2.687515e+01
2.790762e+02	-2.692778e+01
2.806882e+02	-2.697806e+01
2.823094e+02	-2.702802e+01
2.839400e+02	-2.707800e+01
2.855800e+02	-2.712733e+01
2.872295e+02	-2.717701e+01
2.888886e+02	-2.722847e+01
2.905572e+02	-2.727681e+01
2.922354e+02	-2.733097e+01
2.939234e+02	-2.737657e+01
2.956211e+02	-2.743038e+01
2.973286e+02	-2.747924e+01
2.990459e+02	-2.753036e+01
3.007732e+02	-2.757769e+01
3.025104e+02	-2.763118e+01
3.042577e+02	-2.767485e+01
3.060151e+02	-2.772335e+01
3.077826e+02	-2.777813e+01
3.095604e+02	-2.782680e+01
3.113484e+02	-2.787558e+01
3.131467e+02	-2.792835e+01
3.149554e+02	-2.798232e+01
3.167746e+02	-2.802544e+01
3.186043e+02	-2.808148e+01
3.204445e+02	-2.812355e+01
3.222954e+02	-2.817792e+01
3.241570e+02	-2.822822e+01
3.260293e+02	-2.828094e+01
3.279124e+02	-2.832696e+01
3.298064e+02	-2.837742e+01
3.317114e+02	-2.842802e+01
3.336273e+02	-2.847794e+01
3.355544e+02	-2.852951e+01
3.374925e+02	-2.857474e+01
3.394418e+02	-2.862859e+01
3.414024e+02	-2.868072e+01
3.433744e+02	-2.872421e+01
3.453577e+02	-2.877447e+01
3.473525e+02	-2.882711e+01
3.493588e+02	-2.887874e+01
3.513766e+02	-2.893053e+01
3.534062e+02	-2.897696e+01
3.554474e+02	-2.902970e+01
3.575005e+02	-2.908049e+01
3.595654e+02	-2.912700e+01
3.616422e+02	-2.917231e+01
3.637311e+02	-2.923518e+01
3.658320e+02	-2.927780e+01
3.679450e+02	-2.933070e+01
3.700702e+02	-2.938145e+01
3.722077e+02	-2.943034e+01
3.743576e+02	-2.948156e+01
3.765199e+02	-2.953060e+01
3.786946e+02	-2.957878e+01
3.808820e+02	-2.962932e+01
3.830819e+02	-2.967596e+01
3.852946e+02	-2.972584e+01
3.875200e+02	-2.977802e+01
3.897583e+02	-2.982869e+01
3.920096e+02	-2.988026e+01
3.942738e+02	-2.992972e+01
3.965511e+02	-2.997512e+01
3.988416e+02	-3.002917e+01
4.011452e+02	-3.008712e+01
4.034622e+02	-3.012801e+01
4.057926e+02	-3.018184e+01
4.081365e+02	-3.023279e+01
4.104938e+02	-3.027563e+01
4.128648e+02	-3.033553e+01
4.152495e+02	-3.038213e+01
4.176480e+02	-3.043500e+01
4.200603e+02	-3.047735e+01
4.224866e+02	-3.053358e+01
4.249268e+02	-3.057935e+01
4.273812e+02	-3.062882e+01
4.298497e+02	-3.067998e+01
4.323325e+02	-3.073458e+01
4.348297e+02	-3.078245e+01
4.373412e+02	-3.083367e+01
4.398673e+02	-3.087786e+01
4.424079e+02	-3.093008e+01
4.449633e+02	-3.098041e+01
4.475334e+02	-3.103268e+01
4.501183e+02	-3.108535e+01
4.527182e+02	-3.113633e+01
4.553330e+02	-3.118025e+01
4.579630e+02	-3.123796e+01
4.606082e+02	-3.128413e+01
4.632687e+02	-3.133531e+01
4.659445e+02	-3.138595e+01
4.686358e+02	-3.143314e+01
4.713426e+02	-3.148376e+01
4.740650e+02	-3.153033e+01
4.768032e+02	-3.158518e+01
4.795572e+02	-3.163228e+01
4.823271e+02	-3.168311e+01
4.851130e+02	-3.173499e+01
4.879150e+02	-3.178442e+01
4.907332e+02	-3.183581e+01
4.935676e+02	-3.187950e+01
4.964185e+02	-3.192945e+01
4.992858e+02	-3.198815e+01
5.021696e+02	-3.203894e+01
5.050701e+02	-3.208242e+01
5.079874e+02	-3.213246e+01
5.109215e+02	-3.218925e+01
5.138726e+02	-3.223631e+01
5.168407e+02	-3.229141e+01
5.198259e+02	-3.234052e+01
5.228284e+02	-3.238187e+01
5.258482e+02	-3.243807e+01
5.288855e+02	-3.248337e+01
5.319403e+02	-3.253417e+01
5.350128e+02	-3.258768e+01
5.381030e+02	-3.263798e+01
5.412111e+02	-3.268589e+01
5.443371e+02	-3.273267e+01
5.474812e+02	-3.278913e+01
5.506434e+02	-3.285147e+01
5.538239e+02	-3.289522e+01
5.570228e+02	-3.293688e+01
5.602401e+02	-3.299501e+01
5.634760e+02	-3.303078e+01
5.667306e+02	-3.309508e+01
5.700040e+02	-3.313917e+01
5.732964e+02	-3.318783e+01
5.766077e+02	-3.324322e+01
5.799382e+02	-3.328785e+01
5.832879e+02	-3.333830e+01
5.866569e+02	-3.339230e+01
5.900454e+02	-3.344305e+01
5.934535e+02	-3.349091e+01
5.968813e+02	-3.354587e+01
6.003288e+02	-3.359100e+01
6.037963e+02	-3.364740e+01
6.072838e+02	-3.368880e+01
6.107914e+02	-3.373555e+01
6.143194e+02	-3.379720e+01
6.178676e+02	-3.384666e+01
6.214364e+02	-3.388874e+01
6.250258e+02	-3.394973e+01
6.286359e+02	-3.399333e+01
6.322669e+02	-3.404402e+01
6.359189e+02	-3.409385e+01
6.395919e+02	-3.414943e+01
6.432862e+02	-3.419855e+01
6.470017e+02	-3.424932e+01
6.507388e+02	-3.429645e+01
6.544974e+02	-3.435163e+01
6.582778e+02	-3.440132e+01
6.620800e+02	-3.444406e+01
6.659041e+02	-3.449376e+01
6.697504e+02	-3.455507e+01
6.736188e+02	-3.460651e+01
6.775096e+02	-3.464311e+01
6.814229e+02	-3.470300e+01
6.853587e+02	-3.474676e+01
6.893173e+02	-3.479231e+01
6.932988e+02	-3.485195e+01
6.973033e+02	-3.491509e+01
7.013309e+02	-3.495030e+01
