Frequency(Hz)	Magnitude(dB)
1.000000e+01	-2.042017e+00
1.005776e+01	-2.060625e+00
1.011585e+01	-2.079706e+00
1.017428e+01	-2.098782e+00
1.023305e+01	-2.118136e+00
1.029215e+01	-2.137420e+00
1.035160e+01	-2.156938e+00
1.041139e+01	-2.176720e+00
1.047153e+01	-2.196572e+00
1.053201e+01	-2.216246e+00
1.059284e+01	-2.236478e+00
1.065403e+01	-2.256672e+00
1.071556e+01	-2.277036e+00
1.077746e+01	-2.297397e+00
1.083971e+01	-2.317966e+00
1.090232e+01	-2.338822e+00
1.096529e+01	-2.359764e+00
1.102862e+01	-2.380857e+00
1.109232e+01	-2.401968e+00
1.115639e+01	-2.423431e+00
1.122083e+01	-2.444608e+00
1.128564e+01	-2.466310e+00
1.135083e+01	-2.488130e+00
1.141639e+01	-2.509786e+00
1.148233e+01	-2.531998e+00
1.154865e+01	-2.554174e+00
1.161536e+01	-2.576467e+00
1.168245e+01	-2.598935e+00
1.174992e+01	-2.621564e+00
1.181779e+01	-2.644321e+00
1.188605e+01	-2.667172e+00
1.195470e+01	-2.690094e+00
1.202375e+01	-2.713305e+00
1.209320e+01	-2.736728e+00
1.216305e+01	-2.760233e+00
1.223330e+01	-2.783560e+00
1.230396e+01	-2.807630e+00
1.237503e+01	-2.831313e+00
1.244651e+01	-2.855272e+00
1.251840e+01	-2.879584e+00
1.259070e+01	-2.903870e+00
1.266343e+01	-2.928218e+00
1.273657e+01	-2.952797e+00
1.281014e+01	-2.977879e+00
1.288413e+01	-3.002562e+00
1.295855e+01	-3.027730e+00
1.303339e+01	-3.052698e+00
1.310867e+01	-3.078156e+00
1.318439e+01	-3.103711e+00
1.326054e+01	-3.129323e+00
1.333713e+01	-3.155147e+00
1.341417e+01	-3.180968e+00
1.349165e+01	-3.207357e+00
1.356958e+01	-3.233285e+00
1.364795e+01	-3.259486e+00
1.372678e+01	-3.286056e+00
1.380607e+01	-3.312439e+00
1.388581e+01	-3.339431e+00
1.396602e+01	-3.366123e+00
1.404668e+01	-3.393463e+00
1.412782e+01	-3.420613e+00
1.420942e+01	-3.447793e+00
1.429149e+01	-3.475276e+00
1.437404e+01	-3.502924e+00
1.445706e+01	-3.530489e+00
1.454057e+01	-3.558523e+00
1.462455e+01	-3.586758e+00
1.470902e+01	-3.614936e+00
1.479398e+01	-3.643149e+00
1.487943e+01	-3.671572e+00
1.496537e+01	-3.700210e+00
1.505181e+01	-3.728875e+00
1.513875e+01	-3.757952e+00
1.522619e+01	-3.787246e+00
1.531414e+01	-3.815981e+00
1.540259e+01	-3.845635e+00
1.549156e+01	-3.874938e+00
1.558103e+01	-3.904385e+00
1.567103e+01	-3.934576e+00
1.576155e+01	-3.964109e+00
1.585258e+01	-3.994276e+00
1.594415e+01	-4.024411e+00
1.603624e+01	-4.054533e+00
1.612886e+01	-4.084992e+00
1.622202e+01	-4.115462e+00
1.631572e+01	-4.146323e+00
1.640996e+01	-4.177048e+00
1.650474e+01	-4.208152e+00
1.660008e+01	-4.239071e+00
1.669596e+01	-4.270406e+00
1.679239e+01	-4.301870e+00
1.688938e+01	-4.333347e+00
1.698694e+01	-4.365073e+00
1.708505e+01	-4.396734e+00
1.718373e+01	-4.428781e+00
1.728299e+01	-4.460823e+00
1.738281e+01	-4.493096e+00
1.748322e+01	-4.525030e+00
1.758420e+01	-4.557748e+00
1.768576e+01	-4.590441e+00
1.778792e+01	-4.622844e+00
1.789066e+01	-4.655572e+00
1.799399e+01	-4.688722e+00
1.809793e+01	-4.721703e+00
1.820246e+01	-4.755331e+00
1.830760e+01	-4.788650e+00
1.841334e+01	-4.822043e+00
1.851969e+01	-4.855407e+00
1.862666e+01	-4.889482e+00
1.873425e+01	-4.922977e+00
1.884246e+01	-4.957260e+00
1.895129e+01	-4.991182e+00
1.906075e+01	-5.025409e+00
1.917085e+01	-5.059790e+00
1.928158e+01	-5.094020e+00
1.939295e+01	-5.128798e+00
1.950496e+01	-5.163525e+00
1.961762e+01	-5.198412e+00
1.973093e+01	-5.233238e+00
1.984490e+01	-5.268494e+00
1.995952e+01	-5.303786e+00
2.007480e+01	-5.338836e+00
2.019076e+01	-5.374692e+00
2.030738e+01	-5.410232e+00
2.042467e+01	-5.445889e+00
2.054264e+01	-5.481712e+00
2.066130e+01	-5.517569e+00
2.078064e+01	-5.553240e+00
2.090066e+01	-5.589756e+00
2.102139e+01	-5.626075e+00
2.114280e+01	-5.662294e+00
2.126492e+01	-5.699039e+00
2.138775e+01	-5.735678e+00
2.151128e+01	-5.772243e+00
2.163553e+01	-5.809368e+00
2.176050e+01	-5.846500e+00
2.188619e+01	-5.883437e+00
2.201260e+01	-5.920398e+00
2.213974e+01	-5.957139e+00
2.226762e+01	-5.995147e+00
2.239624e+01	-6.032639e+00
2.252560e+01	-6.070069e+00
2.265571e+01	-6.107630e+00
2.278656e+01	-6.145668e+00
2.291818e+01	-6.183476e+00
2.305055e+01	-6.221630e+00
2.318369e+01	-6.259543e+00
2.331760e+01	-6.297904e+00
2.345228e+01	-6.336111e+00
2.358774e+01	-6.374381e+00
2.372398e+01	-6.413635e+00
2.386101e+01	-6.452405e+00
2.399883e+01	-6.490523e+00
2.413745e+01	-6.529868e+00
2.427686e+01	-6.568562e+00
2.441709e+01	-6.607593e+00
2.455812e+01	-6.646717e+00
2.469997e+01	-6.685980e+00
2.484263e+01	-6.725462e+00
2.498612e+01	-6.764275e+00
2.513044e+01	-6.804383e+00
2.527559e+01	-6.843686e+00
2.542158e+01	-6.883273e+00
2.556842e+01	-6.923206e+00
2.571610e+01	-6.963310e+00
2.586463e+01	-7.003008e+00
2.601403e+01	-7.043421e+00
2.616428e+01	-7.083384e+00
2.631541e+01	-7.124130e+00
2.646740e+01	-7.164332e+00
2.662028e+01	-7.204208e+00
2.677404e+01	-7.245377e+00
2.692868e+01	-7.285960e+00
2.708422e+01	-7.326393e+00
2.724066e+01	-7.367803e+00
2.739800e+01	-7.408272e+00
2.755625e+01	-7.449456e+00
2.771541e+01	-7.490366e+00
2.787550e+01	-7.531396e+00
2.803650e+01	-7.572637e+00
2.819844e+01	-7.613899e+00
2.836131e+01	-7.654889e+00
2.852513e+01	-7.697298e+00
2.868989e+01	-7.738360e+00
2.885560e+01	-7.780602e+00
2.902227e+01	-7.822419e+00
2.918990e+01	-7.863545e+00
2.935850e+01	-7.905339e+00
2.952807e+01	-7.947380e+00
2.969863e+01	-7.989533e+00
2.987016e+01	-8.031984e+00
3.004269e+01	-8.073752e+00
3.021622e+01	-8.116506e+00
3.039075e+01	-8.158186e+00
3.056628e+01	-8.201177e+00
3.074283e+01	-8.243749e+00
3.092040e+01	-8.285827e+00
3.109900e+01	-8.328877e+00
3.127862e+01	-8.371572e+00
3.145929e+01	-8.414202e+00
3.164099e+01	-8.457233e+00
3.182375e+01	-8.499826e+00
3.200756e+01	-8.543102e+00
3.219244e+01	-8.586077e+00
3.237838e+01	-8.629200e+00
3.256540e+01	-8.672226e+00
3.275349e+01	-8.715453e+00
3.294268e+01	-8.759123e+00
3.313295e+01	-8.802266e+00
3.332433e+01	-8.845718e+00
3.351681e+01	-8.889698e+00
3.371040e+01	-8.933127e+00
3.390511e+01	-8.976642e+00
3.410094e+01	-9.020631e+00
3.429791e+01	-9.063891e+00
3.449601e+01	-9.107675e+00
3.469526e+01	-9.151452e+00
3.489566e+01	-9.195822e+00
3.509721e+01	-9.239265e+00
3.529993e+01	-9.284423e+00
3.550382e+01	-9.328062e+00
3.570889e+01	-9.372673e+00
3.591515e+01	-9.416578e+00
3.612259e+01	-9.460755e+00
3.633123e+01	-9.505189e+00
3.654108e+01	-9.549364e+00
3.675214e+01	-9.593957e+00
3.696442e+01	-9.638959e+00
3.717792e+01	-9.684267e+00
3.739266e+01	-9.727947e+00
3.760864e+01	-9.772636e+00
3.782587e+01	-9.817664e+00
3.804435e+01	-9.862437e+00
3.826409e+01	-9.907186e+00
3.848510e+01	-9.952507e+00
3.870739e+01	-9.997864e+00
3.893096e+01	-1.004204e+01
3.915583e+01	-1.008773e+01
3.938199e+01	-1.013295e+01
3.960946e+01	-1.017794e+01
3.983824e+01	-1.022260e+01
4.006834e+01	-1.026818e+01
4.029978e+01	-1.031349e+01
4.053255e+01	-1.035879e+01
4.076666e+01	-1.040446e+01
4.100213e+01	-1.044960e+01
4.123896e+01	-1.049568e+01
4.147715e+01	-1.054149e+01
4.171672e+01	-1.058707e+01
4.195767e+01	-1.063220e+01
4.220002e+01	-1.067885e+01
4.244377e+01	-1.072426e+01
4.268892e+01	-1.076978e+01
4.293549e+01	-1.081594e+01
4.318348e+01	-1.086129e+01
4.343291e+01	-1.090745e+01
4.368377e+01	-1.095308e+01
4.393609e+01	-1.099937e+01
4.418986e+01	-1.104505e+01
4.444510e+01	-1.109165e+01
4.470182e+01	-1.113782e+01
4.496001e+01	-1.118373e+01
4.521970e+01	-1.123055e+01
4.548089e+01	-1.127659e+01
4.574358e+01	-1.132271e+01
4.600779e+01	-1.136906e+01
4.627353e+01	-1.141646e+01
4.654081e+01	-1.146189e+01
4.680963e+01	-1.150901e+01
4.708000e+01	-1.155520e+01
4.735193e+01	-1.160181e+01
4.762543e+01	-1.164804e+01
4.790051e+01	-1.169456e+01
4.817719e+01	-1.174125e+01
4.845545e+01	-1.178796e+01
4.873533e+01	-1.183484e+01
4.901682e+01	-1.188190e+01
4.929994e+01	-1.192847e+01
4.958470e+01	-1.197498e+01
4.987110e+01	-1.202195e+01
5.015915e+01	-1.206850e+01
5.044887e+01	-1.211579e+01
5.074026e+01	-1.216279e+01
5.103333e+01	-1.220911e+01
5.132810e+01	-1.225693e+01
5.162457e+01	-1.230394e+01
5.192275e+01	-1.235106e+01
5.222265e+01	-1.239830e+01
5.252429e+01	-1.244543e+01
5.282767e+01	-1.249269e+01
5.313280e+01	-1.254063e+01
5.343969e+01	-1.258650e+01
5.374836e+01	-1.263389e+01
5.405880e+01	-1.268246e+01
5.437105e+01	-1.272917e+01
5.468509e+01	-1.277655e+01
5.500095e+01	-1.282412e+01
5.531863e+01	-1.287139e+01
5.563815e+01	-1.291924e+01
5.595951e+01	-1.296521e+01
5.628273e+01	-1.301391e+01
5.660782e+01	-1.306138e+01
5.693479e+01	-1.310920e+01
5.726364e+01	-1.315675e+01
5.759439e+01	-1.320442e+01
5.792705e+01	-1.325210e+01
5.826164e+01	-1.329948e+01
5.859815e+01	-1.334672e+01
5.893662e+01	-1.339450e+01
5.927703e+01	-1.344258e+01
5.961941e+01	-1.349040e+01
5.996377e+01	-1.353816e+01
6.031012e+01	-1.358669e+01
6.065847e+01	-1.363366e+01
6.100883e+01	-1.368139e+01
6.136121e+01	-1.373003e+01
6.171563e+01	-1.377740e+01
6.207210e+01	-1.382534e+01
6.243063e+01	-1.387279e+01
6.279122e+01	-1.392128e+01
6.315390e+01	-1.397008e+01
6.351868e+01	-1.401725e+01
6.388556e+01	-1.406580e+01
6.425456e+01	-1.411322e+01
6.462569e+01	-1.416235e+01
6.499897e+01	-1.421001e+01
6.537440e+01	-1.425798e+01
6.575200e+01	-1.430657e+01
6.613178e+01	-1.435437e+01
6.651375e+01	-1.440259e+01
6.689793e+01	-1.445069e+01
6.728433e+01	-1.449864e+01
6.767297e+01	-1.454717e+01
6.806384e+01	-1.459625e+01
6.845698e+01	-1.464342e+01
6.885238e+01	-1.469165e+01
6.925007e+01	-1.474049e+01
6.965005e+01	-1.478847e+01
7.005235e+01	-1.483752e+01
7.045697e+01	-1.488538e+01
7.086393e+01	-1.493422e+01
7.127323e+01	-1.498176e+01
7.168490e+01	-1.503141e+01
7.209895e+01	-1.507932e+01
7.251539e+01	-1.512760e+01
7.293424e+01	-1.517589e+01
7.335551e+01	-1.522460e+01
7.377920e+01	-1.527346e+01
7.420535e+01	-1.532201e+01
7.463396e+01	-1.537028e+01
7.506504e+01	-1.541919e+01
7.549861e+01	-1.546754e+01
7.593469e+01	-1.551666e+01
7.637328e+01	-1.556468e+01
7.681441e+01	-1.561312e+01
7.725809e+01	-1.566214e+01
7.770433e+01	-1.571117e+01
7.815315e+01	-1.575888e+01
7.860456e+01	-1.580736e+01
7.905857e+01	-1.585706e+01
7.951521e+01	-1.590575e+01
7.997449e+01	-1.595511e+01
8.043642e+01	-1.600281e+01
8.090102e+01	-1.605222e+01
8.136830e+01	-1.610136e+01
8.183828e+01	-1.614998e+01
8.231097e+01	-1.619873e+01
8.278640e+01	-1.624781e+01
8.326457e+01	-1.629642e+01
8.374550e+01	-1.634487e+01
8.422921e+01	-1.639390e+01
8.471572e+01	-1.644367e+01
8.520503e+01	-1.649221e+01
8.569717e+01	-1.654051e+01
8.619215e+01	-1.659045e+01
8.669000e+01	-1.663890e+01
8.719071e+01	-1.668761e+01
8.769432e+01	-1.673694e+01
8.820084e+01	-1.678556e+01
8.871029e+01	-1.683458e+01
8.922267e+01	-1.688399e+01
8.973802e+01	-1.693241e+01
9.025634e+01	-1.698160e+01
9.077766e+01	-1.703002e+01
9.130199e+01	-1.707886e+01
9.182935e+01	-1.712833e+01
9.235975e+01	-1.717771e+01
9.289321e+01	-1.722615e+01
9.342976e+01	-1.727554e+01
9.396941e+01	-1.732542e+01
9.451217e+01	-1.737436e+01
9.505807e+01	-1.742223e+01
9.560712e+01	-1.747160e+01
9.615934e+01	-1.752164e+01
9.671476e+01	-1.757038e+01
9.727338e+01	-1.761993e+01
9.783522e+01	-1.766911e+01
9.840032e+01	-1.771856e+01
9.896867e+01	-1.776697e+01
9.954031e+01	-1.781722e+01
1.001153e+02	-1.786649e+01
1.006935e+02	-1.791487e+01
1.012751e+02	-1.796373e+01
1.018601e+02	-1.801394e+01
1.024484e+02	-1.806159e+01
1.030402e+02	-1.811258e+01
1.036353e+02	-1.816050e+01
1.042339e+02	-1.821079e+01
1.048360e+02	-1.825969e+01
1.054415e+02	-1.830845e+01
1.060505e+02	-1.835716e+01
1.066631e+02	-1.840618e+01
1.072791e+02	-1.845689e+01
1.078988e+02	-1.850617e+01
1.085220e+02	-1.855579e+01
1.091488e+02	-1.860385e+01
1.097793e+02	-1.865463e+01
1.104133e+02	-1.870461e+01
1.110511e+02	-1.875536e+01
1.116925e+02	-1.880297e+01
1.123376e+02	-1.885313e+01
1.129865e+02	-1.890106e+01
1.136391e+02	-1.894835e+01
1.142955e+02	-1.899980e+01
1.149556e+02	-1.904839e+01
1.156196e+02	-1.909916e+01
1.162874e+02	-1.914853e+01
1.169591e+02	-1.919844e+01
1.176347e+02	-1.924707e+01
1.183141e+02	-1.929567e+01
1.189975e+02	-1.934643e+01
1.196848e+02	-1.939547e+01
1.203761e+02	-1.944558e+01
1.210714e+02	-1.949404e+01
1.217707e+02	-1.954394e+01
1.224740e+02	-1.959300e+01
1.231814e+02	-1.964360e+01
1.238929e+02	-1.969241e+01
1.246085e+02	-1.974262e+01
1.253283e+02	-1.979113e+01
1.260522e+02	-1.984087e+01
1.267802e+02	-1.989051e+01
1.275125e+02	-1.994056e+01
1.282490e+02	-1.999050e+01
1.289898e+02	-2.003839e+01
1.297348e+02	-2.008721e+01
1.304842e+02	-2.013880e+01
1.312378e+02	-2.018786e+01
1.319959e+02	-2.023610e+01
1.327583e+02	-2.028857e+01
1.335251e+02	-2.033734e+01
1.342963e+02	-2.038491e+01
1.350720e+02	-2.043555e+01
1.358522e+02	-2.048404e+01
1.366368e+02	-2.053344e+01
1.374260e+02	-2.058355e+01
1.382198e+02	-2.063386e+01
1.390182e+02	-2.068249e+01
1.398211e+02	-2.073238e+01
1.406287e+02	-2.078317e+01
1.414410e+02	-2.083244e+01
1.422579e+02	-2.087924e+01
1.430796e+02	-2.093217e+01
1.439060e+02	-2.098207e+01
1.447372e+02	-2.103012e+01
1.455732e+02	-2.107933e+01
1.464141e+02	-2.112920e+01
1.472597e+02	-2.118012e+01
1.481103e+02	-2.122909e+01
1.489658e+02	-2.127817e+01
1.498262e+02	-2.133087e+01
1.506916e+02	-2.137911e+01
1.515620e+02	-2.142805e+01
1.524374e+02	-2.147677e+01
1.533179e+02	-2.152651e+01
1.542034e+02	-2.157839e+01
1.550941e+02	-2.162601e+01
1.559899e+02	-2.167556e+01
1.568909e+02	-2.172718e+01
1.577971e+02	-2.177510e+01
1.587085e+02	-2.182495e+01
1.596252e+02	-2.187494e+01
1.605472e+02	-2.192580e+01
1.614745e+02	-2.197555e+01
1.624072e+02	-2.202548e+01
1.633453e+02	-2.207446e+01
1.642887e+02	-2.212351e+01
1.652377e+02	-2.217476e+01
1.661921e+02	-2.222497e+01
1.671520e+02	-2.227640e+01
1.681175e+02	-2.232222e+01
1.690885e+02	-2.237090e+01
1.700651e+02	-2.242213e+01
1.710474e+02	-2.247278e+01
1.720354e+02	-2.252128e+01
1.730291e+02	-2.257132e+01
1.740285e+02	-2.262087e+01
1.750337e+02	-2.267266e+01
1.760446e+02	-2.272022e+01
1.770615e+02	-2.277174e+01
1.780842e+02	-2.282014e+01
1.791128e+02	-2.287153e+01
1.801473e+02	-2.291952e+01
1.811878e+02	-2.297190e+01
1.822344e+02	-2.301824e+01
1.832870e+02	-2.306938e+01
1.843456e+02	-2.311992e+01
1.854104e+02	-2.316920e+01
1.864813e+02	-2.321932e+01
1.875584e+02	-2.326953e+01
1.886418e+02	-2.331951e+01
1.897313e+02	-2.337035e+01
1.908272e+02	-2.341954e+01
1.919294e+02	-2.346954e+01
1.930380e+02	-2.351869e+01
1.941530e+02	-2.356901e+01
1.952744e+02	-2.361695e+01
1.964023e+02	-2.366504e+01
1.975367e+02	-2.371494e+01
1.986777e+02	-2.376767e+01
1.998252e+02	-2.381671e+01
2.009794e+02	-2.386861e+01
2.021403e+02	-2.391594e+01
2.033078e+02	-2.396668e+01
2.044821e+02	-2.401825e+01
2.056632e+02	-2.406646e+01
2.068511e+02	-2.411824e+01
2.080459e+02	-2.416734e+01
2.092475e+02	-2.421781e+01
2.104561e+02	-2.426233e+01
2.116717e+02	-2.431803e+01
2.128943e+02	-2.436601e+01
2.141240e+02	-2.441845e+01
2.153608e+02	-2.446683e+01
2.166047e+02	-2.451523e+01
2.178558e+02	-2.456473e+01
2.191141e+02	-2.461426e+01
2.203797e+02	-2.466512e+01
2.216526e+02	-2.471083e+01
2.229329e+02	-2.476308e+01
2.242205e+02	-2.481301e+01
2.255156e+02	-2.486550e+01
2.268182e+02	-2.491498e+01
2.281283e+02	-2.496342e+01
2.294459e+02	-2.501549e+01
2.307712e+02	-2.506589e+01
2.321041e+02	-2.511049e+01
2.334447e+02	-2.516026e+01
2.347931e+02	-2.521088e+01
2.361493e+02	-2.526679e+01
2.375133e+02	-2.531408e+01
2.388851e+02	-2.536242e+01
2.402649e+02	-2.541276e+01
2.416527e+02	-2.546525e+01
2.430484e+02	-2.551109e+01
2.444523e+02	-2.556502e+01
2.458642e+02	-2.561338e+01
2.472843e+02	-2.566185e+01
2.487126e+02	-2.571295e+01
2.501492e+02	-2.576102e+01
2.515940e+02	-2.581239e+01
2.530472e+02	-2.586179e+01
2.545088e+02	-2.591191e+01
2.559789e+02	-2.596898e+01
2.574574e+02	-2.601180e+01
2.589444e+02	-2.606306e+01
2.604401e+02	-2.610834e+01
2.619444e+02	-2.616455e+01
2.634574e+02	-2.621075e+01
2.649791e+02	-2.626100e+01
2.665096e+02	-2.631119e+01
2.680489e+02	-2.636220e+01
2.695972e+02	-2.641317e+01
2.711544e+02	-2.646148e+01
2.727205e+02	-2.651299e+01
2.742958e+02	-2.656412e+01
2.758801e+02	-2.661405e+01
2.774736e+02	-2.665990e+01
2.790762e+02	-2.671286e+01
2.806882e+02	-2.675805e+01
2.823094e+02	-2.681232e+01
2.839400e+02	-2.686058e+01
2.855800e+02	-2.691054e+01
2.872295e+02	-2.696107e+01
2.888886e+02	-2.700985e+01
2.905572e+02	-2.706273e+01
2.922354e+02	-2.711062e+01
2.939234e+02	-2.716268e+01
2.956211e+02	-2.721311e+01
2.973286e+02	-2.725973e+01
2.990459e+02	-2.730877e+01
3.007732e+02	-2.736681e+01
3.025104e+02	-2.741680e+01
3.042577e+02	-2.746405e+01
3.060151e+02	-2.751300e+01
3.077826e+02	-2.756198e+01
3.095604e+02	-2.761484e+01
3.113484e+02	-2.766106e+01
3.131467e+02	-2.771358e+01
3.149554e+02	-2.775797e+01
3.167746e+02	-2.781271e+01
3.186043e+02	-2.786325e+01
3.204445e+02	-2.791595e+01
3.222954e+02	-2.795920e+01
3.241570e+02	-2.801490e+01
3.260293e+02	-2.806332e+01
3.279124e+02	-2.811189e+01
3.298064e+02	-2.816130e+01
3.317114e+02	-2.821203e+01
3.336273e+02	-2.826100e+01
3.355544e+02	-2.831630e+01
3.374925e+02	-2.836305e+01
3.394418e+02	-2.840990e+01
3.414024e+02	-2.845981e+01
3.433744e+02	-2.850897e+01
3.453577e+02	-2.856201e+01
3.473525e+02	-2.861321e+01
3.493588e+02	-2.866354e+01
3.513766e+02	-2.871192e+01
3.534062e+02	-2.876678e+01
3.554474e+02	-2.881465e+01
3.575005e+02	-2.886792e+01
3.595654e+02	-2.891199e+01
3.616422e+02	-2.896224e+01
3.637311e+02	-2.901238e+01
3.658320e+02	-2.906431e+01
3.679450e+02	-2.911591e+01
3.700702e+02	-2.916131e+01
3.722077e+02	-2.921550e+01
3.743576e+02	-2.926197e+01
3.765199e+02	-2.931516e+01
3.786946e+02	-2.936571e+01
3.808820e+02	-2.941280e+01
3.830819e+02	-2.946892e+01
3.852946e+02	-2.951687e+01
3.875200e+02	-2.956243e+01
3.897583e+02	-2.961749e+01
3.920096e+02	-2.966745e+01
3.942738e+02	-2.971618e+01
3.965511e+02	-2.976050e+01
3.988416e+02	-2.981848e+01
4.011452e+02	-2.986448e+01
4.034622e+02	-2.991289e+01
4.057926e+02	-2.996530e+01
4.081365e+02	-3.001606e+01
4.104938e+02	-3.006481e+01
4.128648e+02	-3.011271e+01
4.152495e+02	-3.016908e+01
4.176480e+02	-3.021351e+01
4.200603e+02	-3.026906e+01
4.224866e+02	-3.031615e+01
4.249268e+02	-3.036326e+01
4.273812e+02	-3.041448e+01
4.298497e+02	-3.046492e+01
4.323325e+02	-3.051365e+01
4.348297e+02	-3.056274e+01
4.373412e+02	-3.061839e+01
4.398673e+02	-3.066765e+01
4.424079e+02	-3.071684e+01
4.449633e+02	-3.076831e+01
4.475334e+02	-3.081903e+01
4.501183e+02	-3.086779e+01
4.527182e+02	-3.091862e+01
4.553330e+02	-3.096974e+01
4.579630e+02	-3.101070e+01
4.606082e+02	-3.106521e+01
4.632687e+02	-3.112106e+01
4.659445e+02	-3.116559e+01
4.686358e+02	-3.122178e+01
4.713426e+02	-3.127041e+01
4.740650e+02	-3.131632e+01
4.768032e+02	-3.136599e+01
4.795572e+02	-3.141623e+01
4.823271e+02	-3.146973e+01
4.851130e+02	-3.151566e+01
4.879150e+02	-3.157216e+01
4.907332e+02	-3.162046e+01
4.935676e+02	-3.166768e+01
4.964185e+02	-3.172443e+01
4.992858e+02	-3.176922e+01
5.021696e+02	-3.181348e+01
5.050701e+02	-3.187785e+01
5.079874e+02	-3.191819e+01
5.109215e+02	-3.196854e+01
5.138726e+02	-3.202191e+01
5.168407e+02	-3.207106e+01
5.198259e+02	-3.211158e+01
5.228284e+02	-3.218308e+01
5.258482e+02	-3.222206e+01
5.288855e+02	-3.227550e+01
5.319403e+02	-3.233080e+01
5.350128e+02	-3.237016e+01
5.381030e+02	-3.242423e+01
5.412111e+02	-3.247610e+01
5.443371e+02	-3.252640e+01
5.474812e+02	-3.257116e+01
5.506434e+02	-3.262667e+01
5.538239e+02	-3.267513e+01
5.570228e+02	-3.273217e+01
5.602401e+02	-3.277136e+01
5.634760e+02	-3.282459e+01
5.667306e+02	-3.287450e+01
5.700040e+02	-3.292543e+01
5.732964e+02	-3.297647e+01
5.766077e+02	-3.302791e+01
5.799382e+02	-3.307056e+01
5.832879e+02	-3.312981e+01
5.866569e+02	-3.318020e+01
5.900454e+02	-3.322312e+01
5.934535e+02	-3.328162e+01
5.968813e+02	-3.332890e+01
6.003288e+02	-3.338253e+01
6.037963e+02	-3.342123e+01
6.072838e+02	-3.347649e+01
6.107914e+02	-3.352874e+01
6.143194e+02	-3.357383e+01
6.178676e+02	-3.362871e+01
6.214364e+02	-3.368632e+01
6.250258e+02	-3.373476e+01
6.286359e+02	-3.377604e+01
6.322669e+02	-3.382873e+01
6.359189e+02	-3.388543e+01
6.395919e+02	-3.393217e+01
6.432862e+02	-3.397936e+01
6.470017e+02	-3.403609e+01
6.507388e+02	-3.408266e+01
6.544974e+02	-3.413171e+01
6.582778e+02	-3.417971e+01
6.620800e+02	-3.422953e+01
6.659041e+02	-3.428298e+01
6.697504e+02	-3.433431e+01
6.736188e+02	-3.438385e+01
6.775096e+02	-3.442787e+01
6.814229e+02	-3.448619e+01
6.853587e+02	-3.452789e+01
6.893173e+02	-3.458983e+01
6.932988e+02	-3.463162e+01
6.973033e+02	-3.468232e+01
7.013309e+02	-3.473271e+01
