Frequency(Hz)	Magnitude(dB)
1.000000e+01	-2.031318e+00
1.005776e+01	-2.049868e+00
1.011585e+01	-2.069022e+00
1.017428e+01	-2.088004e+00
1.023305e+01	-2.107218e+00
1.029215e+01	-2.126364e+00
1.035160e+01	-2.145886e+00
1.041139e+01	-2.165465e+00
1.047153e+01	-2.184994e+00
1.053201e+01	-2.204882e+00
1.059284e+01	-2.225199e+00
1.065403e+01	-2.245045e+00
1.071556e+01	-2.265250e+00
1.077746e+01	-2.285729e+00
1.083971e+01	-2.306343e+00
1.090232e+01	-2.327016e+00
1.096529e+01	-2.347714e+00
1.102862e+01	-2.368823e+00
1.109232e+01	-2.389864e+00
1.115639e+01	-2.411016e+00
1.122083e+01	-2.432562e+00
1.128564e+01	-2.454042e+00
1.135083e+01	-2.475578e+00
1.141639e+01	-2.497614e+00
1.148233e+01	-2.519458e+00
1.154865e+01	-2.541462e+00
1.161536e+01	-2.563680e+00
1.168245e+01	-2.586097e+00
1.174992e+01	-2.608704e+00
1.181779e+01	-2.631433e+00
1.188605e+01	-2.654119e+00
1.195470e+01	-2.677101e+00
1.202375e+01	-2.700009e+00
1.209320e+01	-2.723529e+00
1.216305e+01	-2.746779e+00
1.223330e+01	-2.770221e+00
1.230396e+01	-2.794136e+00
1.237503e+01	-2.817790e+00
1.244651e+01	-2.841794e+00
1.251840e+01	-2.865743e+00
1.259070e+01	-2.890109e+00
1.266343e+01	-2.914282e+00
1.273657e+01	-2.938997e+00
1.281014e+01	-2.963689e+00
1.288413e+01	-2.988706e+00
1.295855e+01	-3.013343e+00
1.303339e+01	-3.038429e+00
1.310867e+01	-3.063616e+00
1.318439e+01	-3.089196e+00
1.326054e+01	-3.114475e+00
1.333713e+01	-3.140493e+00
1.341417e+01	-3.165997e+00
1.349165e+01	-3.192373e+00
1.356958e+01	-3.218381e+00
1.364795e+01	-3.244394e+00
1.372678e+01	-3.270708e+00
1.380607e+01	-3.297525e+00
1.388581e+01	-3.324184e+00
1.396602e+01	-3.351082e+00
1.404668e+01	-3.377880e+00
1.412782e+01	-3.405223e+00
1.420942e+01	-3.432251e+00
1.429149e+01	-3.459770e+00
1.437404e+01	-3.487346e+00
1.445706e+01	-3.514992e+00
1.454057e+01	-3.542768e+00
1.462455e+01	-3.570744e+00
1.470902e+01	-3.599043e+00
1.479398e+01	-3.627220e+00
1.487943e+01	-3.655555e+00
1.496537e+01	-3.684047e+00
1.505181e+01	-3.712641e+00
1.513875e+01	-3.741206e+00
1.522619e+01	-3.770366e+00
1.531414e+01	-3.799690e+00
1.540259e+01	-3.828903e+00
1.549156e+01	-3.857978e+00
1.558103e+01	-3.887724e+00
1.567103e+01	-3.917132e+00
1.576155e+01	-3.947082e+00
1.585258e+01	-3.977098e+00
1.594415e+01	-4.007321e+00
1.603624e+01	-4.037309e+00
1.612886e+01	-4.067677e+00
1.622202e+01	-4.098257e+00
1.631572e+01	-4.128852e+00
1.640996e+01	-4.159783e+00
1.650474e+01	-4.190528e+00
1.660008e+01	-4.221404e+00
1.669596e+01	-4.252589e+00
1.679239e+01	-4.284358e+00
1.688938e+01	-4.315491e+00
1.698694e+01	-4.346704e+00
1.708505e+01	-4.378575e+00
1.718373e+01	-4.410536e+00
1.728299e+01	-4.442388e+00
1.738281e+01	-4.474579e+00
1.748322e+01	-4.507068e+00
1.758420e+01	-4.539177e+00
1.768576e+01	-4.571748e+00
1.778792e+01	-4.604244e+00
1.789066e+01	-4.637083e+00
1.799399e+01	-4.670064e+00
1.809793e+01	-4.703000e+00
1.820246e+01	-4.736271e+00
1.830760e+01	-4.769548e+00
1.841334e+01	-4.802967e+00
1.851969e+01	-4.836384e+00
1.862666e+01	-4.870272e+00
1.873425e+01	-4.903851e+00
1.884246e+01	-4.937676e+00
1.895129e+01	-4.971717e+00
1.906075e+01	-5.005987e+00
1.917085e+01	-5.040361e+00
1.928158e+01	-5.074476e+00
1.939295e+01	-5.109230e+00
1.950496e+01	-5.143764e+00
1.961762e+01	-5.178387e+00
1.973093e+01	-5.213718e+00
1.984490e+01	-5.248956e+00
1.995952e+01	-5.283770e+00
2.007480e+01	-5.318788e+00
2.019076e+01	-5.354162e+00
2.030738e+01	-5.389598e+00
2.042467e+01	-5.425803e+00
2.054264e+01	-5.461331e+00
2.066130e+01	-5.497300e+00
2.078064e+01	-5.533297e+00
2.090066e+01	-5.569017e+00
2.102139e+01	-5.605318e+00
2.114280e+01	-5.641934e+00
2.126492e+01	-5.678165e+00
2.138775e+01	-5.714616e+00
2.151128e+01	-5.751398e+00
2.163553e+01	-5.788067e+00
2.176050e+01	-5.824966e+00
2.188619e+01	-5.862010e+00
2.201260e+01	-5.899075e+00
2.213974e+01	-5.936501e+00
2.226762e+01	-5.973416e+00
2.239624e+01	-6.011359e+00
2.252560e+01	-6.048681e+00
2.265571e+01	-6.086281e+00
2.278656e+01	-6.124027e+00
2.291818e+01	-6.162175e+00
2.305055e+01	-6.199973e+00
2.318369e+01	-6.237959e+00
2.331760e+01	-6.276134e+00
2.345228e+01	-6.314410e+00
2.358774e+01	-6.353170e+00
2.372398e+01	-6.391569e+00
2.386101e+01	-6.430158e+00
2.399883e+01	-6.468757e+00
2.413745e+01	-6.507342e+00
2.427686e+01	-6.546351e+00
2.441709e+01	-6.585339e+00
2.455812e+01	-6.624384e+00
2.469997e+01	-6.663507e+00
2.484263e+01	-6.702878e+00
2.498612e+01	-6.742049e+00
2.513044e+01	-6.781841e+00
2.527559e+01	-6.821445e+00
2.542158e+01	-6.860934e+00
2.556842e+01	-6.901001e+00
2.571610e+01	-6.941094e+00
2.586463e+01	-6.980593e+00
2.601403e+01	-7.020806e+00
2.616428e+01	-7.060829e+00
2.631541e+01	-7.100956e+00
2.646740e+01	-7.141116e+00
2.662028e+01	-7.181750e+00
2.677404e+01	-7.222233e+00
2.692868e+01	-7.262838e+00
2.708422e+01	-7.303627e+00
2.724066e+01	-7.344140e+00
2.739800e+01	-7.385344e+00
2.755625e+01	-7.426142e+00
2.771541e+01	-7.467311e+00
2.787550e+01	-7.508090e+00
2.803650e+01	-7.549429e+00
2.819844e+01	-7.591168e+00
2.836131e+01	-7.631910e+00
2.852513e+01	-7.673340e+00
2.868989e+01	-7.714879e+00
2.885560e+01	-7.756537e+00
2.902227e+01	-7.798259e+00
2.918990e+01	-7.840030e+00
2.935850e+01	-7.881777e+00
2.952807e+01	-7.923638e+00
2.969863e+01	-7.965767e+00
2.987016e+01	-8.007651e+00
3.004269e+01	-8.049633e+00
3.021622e+01	-8.092247e+00
3.039075e+01	-8.134640e+00
3.056628e+01	-8.177157e+00
3.074283e+01	-8.219163e+00
3.092040e+01	-8.261675e+00
3.109900e+01	-8.304248e+00
3.127862e+01	-8.347272e+00
3.145929e+01	-8.389487e+00
3.164099e+01	-8.432452e+00
3.182375e+01	-8.475661e+00
3.200756e+01	-8.518853e+00
3.219244e+01	-8.561190e+00
3.237838e+01	-8.604632e+00
3.256540e+01	-8.647465e+00
3.275349e+01	-8.690973e+00
3.294268e+01	-8.734591e+00
3.313295e+01	-8.777485e+00
3.332433e+01	-8.821287e+00
3.351681e+01	-8.864397e+00
3.371040e+01	-8.908466e+00
3.390511e+01	-8.951742e+00
3.410094e+01	-8.995398e+00
3.429791e+01	-9.039061e+00
3.449601e+01	-9.083132e+00
3.469526e+01	-9.126729e+00
3.489566e+01	-9.171078e+00
3.509721e+01	-9.214880e+00
3.529993e+01	-9.259079e+00
3.550382e+01	-9.303163e+00
3.570889e+01	-9.346955e+00
3.591515e+01	-9.391579e+00
3.612259e+01	-9.435815e+00
3.633123e+01	-9.480166e+00
3.654108e+01	-9.524519e+00
3.675214e+01	-9.568793e+00
3.696442e+01	-9.613656e+00
3.717792e+01	-9.658063e+00
3.739266e+01	-9.702633e+00
3.760864e+01	-9.747661e+00
3.782587e+01	-9.792325e+00
3.804435e+01	-9.836700e+00
3.826409e+01	-9.881432e+00
3.848510e+01	-9.926771e+00
3.870739e+01	-9.971916e+00
3.893096e+01	-1.001634e+01
3.915583e+01	-1.006138e+01
3.938199e+01	-1.010703e+01
3.960946e+01	-1.015209e+01
3.983824e+01	-1.019716e+01
4.006834e+01	-1.024265e+01
4.029978e+01	-1.028778e+01
4.053255e+01	-1.033283e+01
4.076666e+01	-1.037866e+01
4.100213e+01	-1.042412e+01
4.123896e+01	-1.046988e+01
4.147715e+01	-1.051499e+01
4.171672e+01	-1.056084e+01
4.195767e+01	-1.060657e+01
4.220002e+01	-1.065259e+01
4.244377e+01	-1.069796e+01
4.268892e+01	-1.074306e+01
4.293549e+01	-1.078986e+01
4.318348e+01	-1.083572e+01
4.343291e+01	-1.088152e+01
4.368377e+01	-1.092776e+01
4.393609e+01	-1.097310e+01
4.418986e+01	-1.101894e+01
4.444510e+01	-1.106561e+01
4.470182e+01	-1.111136e+01
4.496001e+01	-1.115725e+01
4.521970e+01	-1.120410e+01
4.548089e+01	-1.125022e+01
4.574358e+01	-1.129616e+01
4.600779e+01	-1.134299e+01
4.627353e+01	-1.138966e+01
4.654081e+01	-1.143555e+01
4.680963e+01	-1.148198e+01
4.708000e+01	-1.152910e+01
4.735193e+01	-1.157499e+01
4.762543e+01	-1.162160e+01
4.790051e+01	-1.166826e+01
4.817719e+01	-1.171520e+01
4.845545e+01	-1.176152e+01
4.873533e+01	-1.180830e+01
4.901682e+01	-1.185460e+01
4.929994e+01	-1.190242e+01
4.958470e+01	-1.194907e+01
4.987110e+01	-1.199518e+01
5.015915e+01	-1.204213e+01
5.044887e+01	-1.208972e+01
5.074026e+01	-1.213652e+01
5.103333e+01	-1.218306e+01
5.132810e+01	-1.223043e+01
5.162457e+01	-1.227797e+01
5.192275e+01	-1.232415e+01
5.222265e+01	-1.237219e+01
5.252429e+01	-1.241796e+01
5.282767e+01	-1.246638e+01
5.313280e+01	-1.251368e+01
5.343969e+01	-1.256101e+01
5.374836e+01	-1.260762e+01
5.405880e+01	-1.265453e+01
5.437105e+01	-1.270216e+01
5.468509e+01	-1.275045e+01
5.500095e+01	-1.279719e+01
5.531863e+01	-1.284416e+01
5.563815e+01	-1.289229e+01
5.595951e+01	-1.293992e+01
5.628273e+01	-1.298647e+01
5.660782e+01	-1.303430e+01
5.693479e+01	-1.308183e+01
5.726364e+01	-1.312922e+01
5.759439e+01	-1.317741e+01
5.792705e+01	-1.322453e+01
5.826164e+01	-1.327209e+01
5.859815e+01	-1.332023e+01
5.893662e+01	-1.336742e+01
5.927703e+01	-1.341535e+01
5.961941e+01	-1.346287e+01
5.996377e+01	-1.351076e+01
6.031012e+01	-1.355839e+01
6.065847e+01	-1.360774e+01
6.100883e+01	-1.365444e+01
6.136121e+01	-1.370181e+01
6.171563e+01	-1.374954e+01
6.207210e+01	-1.379833e+01
6.243063e+01	-1.384647e+01
6.279122e+01	-1.389462e+01
6.315390e+01	-1.394276e+01
6.351868e+01	-1.398991e+01
6.388556e+01	-1.403893e+01
6.425456e+01	-1.408577e+01
6.462569e+01	-1.413436e+01
6.499897e+01	-1.418234e+01
6.537440e+01	-1.423085e+01
6.575200e+01	-1.427834e+01
6.613178e+01	-1.432684e+01
6.651375e+01	-1.437525e+01
6.689793e+01	-1.442332e+01
6.728433e+01	-1.447194e+01
6.767297e+01	-1.452007e+01
6.806384e+01	-1.456854e+01
6.845698e+01	-1.461616e+01
6.885238e+01	-1.466482e+01
6.925007e+01	-1.471257e+01
6.965005e+01	-1.476136e+01
7.005235e+01	-1.480978e+01
7.045697e+01	-1.485869e+01
7.086393e+01	-1.490655e+01
7.127323e+01	-1.495511e+01
7.168490e+01	-1.500340e+01
7.209895e+01	-1.505231e+01
7.251539e+01	-1.509934e+01
7.293424e+01	-1.514924e+01
7.335551e+01	-1.519792e+01
7.377920e+01	-1.524542e+01
7.420535e+01	-1.529547e+01
7.463396e+01	-1.534281e+01
7.506504e+01	-1.539112e+01
7.549861e+01	-1.544004e+01
7.593469e+01	-1.548829e+01
7.637328e+01	-1.553728e+01
7.681441e+01	-1.558530e+01
7.725809e+01	-1.563414e+01
7.770433e+01	-1.568259e+01
7.815315e+01	-1.573162e+01
7.860456e+01	-1.578067e+01
7.905857e+01	-1.582966e+01
7.951521e+01	-1.587737e+01
7.997449e+01	-1.592713e+01
8.043642e+01	-1.597514e+01
8.090102e+01	-1.602489e+01
8.136830e+01	-1.607378e+01
8.183828e+01	-1.612191e+01
8.231097e+01	-1.617125e+01
8.278640e+01	-1.622073e+01
8.326457e+01	-1.626795e+01
8.374550e+01	-1.631731e+01
8.422921e+01	-1.636691e+01
8.471572e+01	-1.641444e+01
8.520503e+01	-1.646364e+01
8.569717e+01	-1.651292e+01
8.619215e+01	-1.656222e+01
8.669000e+01	-1.661049e+01
8.719071e+01	-1.666027e+01
8.769432e+01	-1.670843e+01
8.820084e+01	-1.675732e+01
8.871029e+01	-1.680595e+01
8.922267e+01	-1.685579e+01
8.973802e+01	-1.690464e+01
9.025634e+01	-1.695419e+01
9.077766e+01	-1.700279e+01
9.130199e+01	-1.705096e+01
9.182935e+01	-1.710025e+01
9.235975e+01	-1.714975e+01
9.289321e+01	-1.719984e+01
9.342976e+01	-1.724757e+01
9.396941e+01	-1.729724e+01
9.451217e+01	-1.734677e+01
9.505807e+01	-1.739488e+01
9.560712e+01	-1.744529e+01
9.615934e+01	-1.749466e+01
9.671476e+01	-1.754137e+01
9.727338e+01	-1.759306e+01
9.783522e+01	-1.764215e+01
9.840032e+01	-1.768978e+01
9.896867e+01	-1.774076e+01
9.954031e+01	-1.778897e+01
1.001153e+02	-1.783672e+01
1.006935e+02	-1.788758e+01
1.012751e+02	-1.793571e+01
1.018601e+02	-1.798429e+01
1.024484e+02	-1.803522e+01
1.030402e+02	-1.808400e+01
1.036353e+02	-1.813328e+01
1.042339e+02	-1.818353e+01
1.048360e+02	-1.823243e+01
1.054415e+02	-1.828079e+01
1.060505e+02	-1.832867e+01
1.066631e+02	-1.838082e+01
1.072791e+02	-1.842824e+01
1.078988e+02	-1.847751e+01
1.085220e+02	-1.852730e+01
1.091488e+02	-1.857551e+01
1.097793e+02	-1.862615e+01
1.104133e+02	-1.867493e+01
1.110511e+02	-1.872662e+01
1.116925e+02	-1.877365e+01
1.123376e+02	-1.882402e+01
1.129865e+02	-1.887413e+01
1.136391e+02	-1.892188e+01
1.142955e+02	-1.897203e+01
1.149556e+02	-1.902030e+01
1.156196e+02	-1.907069e+01
1.162874e+02	-1.912154e+01
1.169591e+02	-1.916886e+01
1.176347e+02	-1.921813e+01
1.183141e+02	-1.926915e+01
1.189975e+02	-1.931852e+01
1.196848e+02	-1.936780e+01
1.203761e+02	-1.941606e+01
1.210714e+02	-1.946635e+01
1.217707e+02	-1.951616e+01
1.224740e+02	-1.956532e+01
1.231814e+02	-1.961659e+01
1.238929e+02	-1.966455e+01
1.246085e+02	-1.971345e+01
1.253283e+02	-1.976331e+01
1.260522e+02	-1.981190e+01
1.267802e+02	-1.986165e+01
1.275125e+02	-1.991054e+01
1.282490e+02	-1.995960e+01
1.289898e+02	-2.001075e+01
1.297348e+02	-2.006025e+01
1.304842e+02	-2.011009e+01
1.312378e+02	-2.015862e+01
1.319959e+02	-2.020801e+01
1.327583e+02	-2.025887e+01
1.335251e+02	-2.030781e+01
1.342963e+02	-2.035774e+01
1.350720e+02	-2.040818e+01
1.358522e+02	-2.045622e+01
1.366368e+02	-2.050696e+01
1.374260e+02	-2.055594e+01
1.382198e+02	-2.060442e+01
1.390182e+02	-2.065389e+01
1.398211e+02	-2.070609e+01
1.406287e+02	-2.075419e+01
1.414410e+02	-2.080317e+01
1.422579e+02	-2.085555e+01
1.430796e+02	-2.090401e+01
1.439060e+02	-2.095284e+01
1.447372e+02	-2.100402e+01
1.455732e+02	-2.105358e+01
1.464141e+02	-2.110406e+01
1.472597e+02	-2.115167e+01
1.481103e+02	-2.120232e+01
1.489658e+02	-2.125009e+01
1.498262e+02	-2.130239e+01
1.506916e+02	-2.134812e+01
1.515620e+02	-2.139997e+01
1.524374e+02	-2.144830e+01
1.533179e+02	-2.149821e+01
1.542034e+02	-2.154796e+01
1.550941e+02	-2.159786e+01
1.559899e+02	-2.164740e+01
1.568909e+02	-2.169895e+01
1.577971e+02	-2.174667e+01
1.587085e+02	-2.179604e+01
1.596252e+02	-2.184617e+01
1.605472e+02	-2.189706e+01
1.614745e+02	-2.194803e+01
1.624072e+02	-2.199732e+01
1.633453e+02	-2.204685e+01
1.642887e+02	-2.209603e+01
1.652377e+02	-2.214637e+01
1.661921e+02	-2.219668e+01
1.671520e+02	-2.224422e+01
1.681175e+02	-2.229493e+01
1.690885e+02	-2.234487e+01
1.700651e+02	-2.239507e+01
1.710474e+02	-2.244445e+01
1.720354e+02	-2.249320e+01
1.730291e+02	-2.254331e+01
1.740285e+02	-2.259380e+01
1.750337e+02	-2.264300e+01
1.760446e+02	-2.269275e+01
1.770615e+02	-2.274264e+01
1.780842e+02	-2.279220e+01
1.791128e+02	-2.284551e+01
1.801473e+02	-2.289060e+01
1.811878e+02	-2.294118e+01
1.822344e+02	-2.299134e+01
1.832870e+02	-2.304176e+01
1.843456e+02	-2.309153e+01
1.854104e+02	-2.313937e+01
1.864813e+02	-2.318977e+01
1.875584e+02	-2.323933e+01
1.886418e+02	-2.328975e+01
1.897313e+02	-2.333957e+01
1.908272e+02	-2.339066e+01
1.919294e+02	-2.343767e+01
1.930380e+02	-2.349068e+01
1.941530e+02	-2.354009e+01
1.952744e+02	-2.358707e+01
1.964023e+02	-2.364039e+01
1.975367e+02	-2.369032e+01
1.986777e+02	-2.373811e+01
1.998252e+02	-2.379066e+01
2.009794e+02	-2.383682e+01
2.021403e+02	-2.388797e+01
2.033078e+02	-2.394089e+01
2.044821e+02	-2.398868e+01
2.056632e+02	-2.403703e+01
2.068511e+02	-2.408681e+01
2.080459e+02	-2.414221e+01
2.092475e+02	-2.418708e+01
2.104561e+02	-2.423763e+01
2.116717e+02	-2.428789e+01
2.128943e+02	-2.433703e+01
2.141240e+02	-2.438787e+01
2.153608e+02	-2.443751e+01
2.166047e+02	-2.448674e+01
2.178558e+02	-2.453593e+01
2.191141e+02	-2.458674e+01
2.203797e+02	-2.463723e+01
2.216526e+02	-2.468723e+01
2.229329e+02	-2.473985e+01
2.242205e+02	-2.478535e+01
2.255156e+02	-2.483506e+01
2.268182e+02	-2.488671e+01
2.281283e+02	-2.493689e+01
2.294459e+02	-2.498503e+01
2.307712e+02	-2.503504e+01
2.321041e+02	-2.508413e+01
2.334447e+02	-2.513600e+01
2.347931e+02	-2.518587e+01
2.361493e+02	-2.523345e+01
2.375133e+02	-2.528566e+01
2.388851e+02	-2.533317e+01
2.402649e+02	-2.538588e+01
2.416527e+02	-2.543462e+01
2.430484e+02	-2.548558e+01
2.444523e+02	-2.553261e+01
2.458642e+02	-2.558527e+01
2.472843e+02	-2.563408e+01
2.487126e+02	-2.568481e+01
2.501492e+02	-2.573408e+01
2.515940e+02	-2.578487e+01
2.530472e+02	-2.583370e+01
2.545088e+02	-2.588425e+01
2.559789e+02	-2.593205e+01
2.574574e+02	-2.598246e+01
2.589444e+02	-2.603272e+01
2.604401e+02	-2.608547e+01
2.619444e+02	-2.613482e+01
2.634574e+02	-2.618317e+01
2.649791e+02	-2.623164e+01
2.665096e+02	-2.628648e+01
2.680489e+02	-2.633308e+01
2.695972e+02	-2.638510e+01
2.711544e+02	-2.643643e+01
2.727205e+02	-2.648272e+01
2.742958e+02	-2.653456e+01
2.758801e+02	-2.658233e+01
2.774736e+02	-2.663626e+01
2.790762e+02	-2.668338e+01
2.806882e+02	-2.673168e+01
2.823094e+02	-2.678586e+01
2.839400e+02	-2.683378e+01
2.855800e+02	-2.688549e+01
2.872295e+02	-2.693083e+01
2.888886e+02	-2.698450e+01
2.905572e+02	-2.703607e+01
2.922354e+02	-2.708478e+01
2.939234e+02	-2.713252e+01
2.956211e+02	-2.718450e+01
2.973286e+02	-2.723521e+01
2.990459e+02	-2.728402e+01
3.007732e+02	-2.733249e+01
3.025104e+02	-2.738334e+01
3.042577e+02	-2.743754e+01
3.060151e+02	-2.748352e+01
3.077826e+02	-2.753802e+01
3.095604e+02	-2.758622e+01
3.113484e+02	-2.763359e+01
3.131467e+02	-2.768274e+01
3.149554e+02	-2.773314e+01
3.167746e+02	-2.778284e+01
3.186043e+02	-2.783243e+01
3.204445e+02	-2.788260e+01
3.222954e+02	-2.793721e+01
3.241570e+02	-2.798284e+01
3.260293e+02	-2.803590e+01
3.279124e+02	-2.808094e+01
3.298064e+02	-2.813305e+01
3.317114e+02	-2.818442e+01
3.336273e+02	-2.823747e+01
3.355544e+02	-2.828149e+01
3.374925e+02	-2.832899e+01
3.394418e+02	-2.838437e+01
3.414024e+02	-2.843359e+01
3.433744e+02	-2.848657e+01
3.453577e+02	-2.853526e+01
3.473525e+02	-2.858313e+01
3.493588e+02	-2.863712e+01
3.513766e+02	-2.868384e+01
3.534062e+02	-2.873189e+01
3.554474e+02	-2.878106e+01
3.575005e+02	-2.883675e+01
3.595654e+02	-2.887991e+01
3.616422e+02	-2.893687e+01
3.637311e+02	-2.898482e+01
3.658320e+02	-2.902997e+01
3.679450e+02	-2.908437e+01
3.700702e+02	-2.913592e+01
3.722077e+02	-2.918340e+01
3.743576e+02	-2.923814e+01
3.765199e+02	-2.928376e+01
3.786946e+02	-2.933299e+01
3.808820e+02	-2.938408e+01
3.830819e+02	-2.943248e+01
3.852946e+02	-2.948570e+01
3.875200e+02	-2.953705e+01
3.897583e+02	-2.958269e+01
3.920096e+02	-2.963488e+01
3.942738e+02	-2.968390e+01
3.965511e+02	-2.973666e+01
3.988416e+02	-2.979018e+01
4.011452e+02	-2.983571e+01
4.034622e+02	-2.988266e+01
4.057926e+02	-2.993411e+01
4.081365e+02	-2.998767e+01
4.104938e+02	-3.003553e+01
4.128648e+02	-3.008453e+01
4.152495e+02	-3.013299e+01
4.176480e+02	-3.018906e+01
4.200603e+02	-3.023647e+01
4.224866e+02	-3.028700e+01
4.249268e+02	-3.033363e+01
4.273812e+02	-3.038667e+01
4.298497e+02	-3.043398e+01
4.323325e+02	-3.049083e+01
4.348297e+02	-3.053810e+01
4.373412e+02	-3.058719e+01
4.398673e+02	-3.064152e+01
4.424079e+02	-3.068385e+01
4.449633e+02	-3.073989e+01
4.475334e+02	-3.078743e+01
4.501183e+02	-3.083736e+01
4.527182e+02	-3.088804e+01
4.553330e+02	-3.093911e+01
4.579630e+02	-3.098693e+01
4.606082e+02	-3.103828e+01
4.632687e+02	-3.109019e+01
4.659445e+02	-3.113989e+01
4.686358e+02	-3.119224e+01
4.713426e+02	-3.122756e+01
4.740650e+02	-3.128890e+01
4.768032e+02	-3.134050e+01
4.795572e+02	-3.139374e+01
4.823271e+02	-3.144172e+01
4.851130e+02	-3.148841e+01
4.879150e+02	-3.153990e+01
4.907332e+02	-3.158985e+01
4.935676e+02	-3.164227e+01
4.964185e+02	-3.168778e+01
4.992858e+02	-3.174030e+01
5.021696e+02	-3.178762e+01
5.050701e+02	-3.184457e+01
5.079874e+02	-3.189236e+01
5.109215e+02	-3.193397e+01
5.138726e+02	-3.198304e+01
5.168407e+02	-3.204370e+01
5.198259e+02	-3.210219e+01
5.228284e+02	-3.213778e+01
5.258482e+02	-3.219251e+01
5.288855e+02	-3.224530e+01
5.319403e+02	-3.229837e+01
5.350128e+02	-3.234437e+01
5.381030e+02	-3.239394e+01
5.412111e+02	-3.245269e+01
5.443371e+02	-3.249126e+01
5.474812e+02	-3.254387e+01
5.506434e+02	-3.259708e+01
5.538239e+02	-3.264969e+01
5.570228e+02	-3.269811e+01
5.602401e+02	-3.274239e+01
5.634760e+02	-3.279932e+01
5.667306e+02	-3.284558e+01
5.700040e+02	-3.288831e+01
5.732964e+02	-3.294222e+01
5.766077e+02	-3.299628e+01
5.799382e+02	-3.304381e+01
5.832879e+02	-3.309383e+01
5.866569e+02	-3.314326e+01
5.900454e+02	-3.320004e+01
5.934535e+02	-3.324067e+01
5.968813e+02	-3.329929e+01
6.003288e+02	-3.334338e+01
6.037963e+02	-3.340131e+01
6.072838e+02	-3.344171e+01
6.107914e+02	-3.349919e+01
6.143194e+02	-3.355832e+01
6.178676e+02	-3.360176e+01
6.214364e+02	-3.366474e+01
6.250258e+02	-3.370138e+01
6.286359e+02	-3.375616e+01
6.322669e+02	-3.380021e+01
6.359189e+02	-3.385758e+01
6.395919e+02	-3.390387e+01
6.432862e+02	-3.394930e+01
6.470017e+02	-3.399876e+01
6.507388e+02	-3.405118e+01
6.544974e+02	-3.410511e+01
6.582778e+02	-3.415237e+01
6.620800e+02	-3.420227e+01
6.659041e+02	-3.425150e+01
6.697504e+02	-3.430884e+01
6.736188e+02	-3.434940e+01
6.775096e+02	-3.440930e+01
6.814229e+02	-3.445297e+01
6.853587e+02	-3.451047e+01
6.893173e+02	-3.455066e+01
6.932988e+02	-3.460580e+01
6.973033e+02	-3.465850e+01
7.013309e+02	-3.471125e+01
