Frequency(Hz)	Magnitude(dB)
1.000000e+01	-2.030127e+00
1.005776e+01	-2.048868e+00
1.011585e+01	-2.067874e+00
1.017428e+01	-2.086566e+00
1.023305e+01	-2.106082e+00
1.029215e+01	-2.125312e+00
1.035160e+01	-2.144832e+00
1.041139e+01	-2.164242e+00
1.047153e+01	-2.183867e+00
1.053201e+01	-2.203744e+00
1.059284e+01	-2.223874e+00
1.065403e+01	-2.243797e+00
1.071556e+01	-2.264181e+00
1.077746e+01	-2.284397e+00
1.083971e+01	-2.304882e+00
1.090232e+01	-2.325439e+00
1.096529e+01	-2.346570e+00
1.102862e+01	-2.367412e+00
1.109232e+01	-2.388567e+00
1.115639e+01	-2.409770e+00
1.122083e+01	-2.431125e+00
1.128564e+01	-2.452925e+00
1.135083e+01	-2.474400e+00
1.141639e+01	-2.496069e+00
1.148233e+01	-2.518108e+00
1.154865e+01	-2.540151e+00
1.161536e+01	-2.562367e+00
1.168245e+01	-2.584755e+00
1.174992e+01	-2.607376e+00
1.181779e+01	-2.630092e+00
1.188605e+01	-2.652948e+00
1.195470e+01	-2.675654e+00
1.202375e+01	-2.698784e+00
1.209320e+01	-2.722013e+00
1.216305e+01	-2.745434e+00
1.223330e+01	-2.769110e+00
1.230396e+01	-2.792668e+00
1.237503e+01	-2.816163e+00
1.244651e+01	-2.840425e+00
1.251840e+01	-2.864282e+00
1.259070e+01	-2.888474e+00
1.266343e+01	-2.913130e+00
1.273657e+01	-2.937605e+00
1.281014e+01	-2.962229e+00
1.288413e+01	-2.986734e+00
1.295855e+01	-3.011760e+00
1.303339e+01	-3.036728e+00
1.310867e+01	-3.062171e+00
1.318439e+01	-3.087556e+00
1.326054e+01	-3.113348e+00
1.333713e+01	-3.138676e+00
1.341417e+01	-3.164687e+00
1.349165e+01	-3.190577e+00
1.356958e+01	-3.216658e+00
1.364795e+01	-3.243075e+00
1.372678e+01	-3.269330e+00
1.380607e+01	-3.295715e+00
1.388581e+01	-3.322600e+00
1.396602e+01	-3.349198e+00
1.404668e+01	-3.376281e+00
1.412782e+01	-3.403457e+00
1.420942e+01	-3.430670e+00
1.429149e+01	-3.457908e+00
1.437404e+01	-3.485754e+00
1.445706e+01	-3.513268e+00
1.454057e+01	-3.541076e+00
1.462455e+01	-3.568998e+00
1.470902e+01	-3.597093e+00
1.479398e+01	-3.625310e+00
1.487943e+01	-3.653744e+00
1.496537e+01	-3.682046e+00
1.505181e+01	-3.710922e+00
1.513875e+01	-3.739701e+00
1.522619e+01	-3.768799e+00
1.531414e+01	-3.797875e+00
1.540259e+01	-3.827037e+00
1.549156e+01	-3.856620e+00
1.558103e+01	-3.886119e+00
1.567103e+01	-3.915469e+00
1.576155e+01	-3.945339e+00
1.585258e+01	-3.975132e+00
1.594415e+01	-4.005267e+00
1.603624e+01	-4.035631e+00
1.612886e+01	-4.065805e+00
1.622202e+01	-4.096509e+00
1.631572e+01	-4.126920e+00
1.640996e+01	-4.157728e+00
1.650474e+01	-4.188798e+00
1.660008e+01	-4.219523e+00
1.669596e+01	-4.250784e+00
1.679239e+01	-4.282101e+00
1.688938e+01	-4.313643e+00
1.698694e+01	-4.345279e+00
1.708505e+01	-4.376682e+00
1.718373e+01	-4.408543e+00
1.728299e+01	-4.440901e+00
1.738281e+01	-4.472776e+00
1.748322e+01	-4.504909e+00
1.758420e+01	-4.537343e+00
1.768576e+01	-4.569709e+00
1.778792e+01	-4.602672e+00
1.789066e+01	-4.635113e+00
1.799399e+01	-4.668073e+00
1.809793e+01	-4.701487e+00
1.820246e+01	-4.734342e+00
1.830760e+01	-4.767584e+00
1.841334e+01	-4.800845e+00
1.851969e+01	-4.834487e+00
1.862666e+01	-4.868091e+00
1.873425e+01	-4.902087e+00
1.884246e+01	-4.935686e+00
1.895129e+01	-4.969723e+00
1.906075e+01	-5.004143e+00
1.917085e+01	-5.038197e+00
1.928158e+01	-5.072967e+00
1.939295e+01	-5.106988e+00
1.950496e+01	-5.141726e+00
1.961762e+01	-5.176503e+00
1.973093e+01	-5.211483e+00
1.984490e+01	-5.246528e+00
1.995952e+01	-5.281869e+00
2.007480e+01	-5.316907e+00
2.019076e+01	-5.352410e+00
2.030738e+01	-5.387912e+00
2.042467e+01	-5.423351e+00
2.054264e+01	-5.458992e+00
2.066130e+01	-5.494937e+00
2.078064e+01	-5.530649e+00
2.090066e+01	-5.566993e+00
2.102139e+01	-5.603065e+00
2.114280e+01	-5.639350e+00
2.126492e+01	-5.675994e+00
2.138775e+01	-5.712567e+00
2.151128e+01	-5.749075e+00
2.163553e+01	-5.785874e+00
2.176050e+01	-5.822638e+00
2.188619e+01	-5.859649e+00
2.201260e+01	-5.896774e+00
2.213974e+01	-5.933910e+00
2.226762e+01	-5.971607e+00
2.239624e+01	-6.008859e+00
2.252560e+01	-6.046484e+00
2.265571e+01	-6.084035e+00
2.278656e+01	-6.121822e+00
2.291818e+01	-6.159565e+00
2.305055e+01	-6.197809e+00
2.318369e+01	-6.235898e+00
2.331760e+01	-6.274039e+00
2.345228e+01	-6.312097e+00
2.358774e+01	-6.350303e+00
2.372398e+01	-6.389069e+00
2.386101e+01	-6.427451e+00
2.399883e+01	-6.466463e+00
2.413745e+01	-6.505068e+00
2.427686e+01	-6.544271e+00
2.441709e+01	-6.582580e+00
2.455812e+01	-6.622137e+00
2.469997e+01	-6.661309e+00
2.484263e+01	-6.700605e+00
2.498612e+01	-6.739817e+00
2.513044e+01	-6.779128e+00
2.527559e+01	-6.818988e+00
2.542158e+01	-6.858516e+00
2.556842e+01	-6.898492e+00
2.571610e+01	-6.938214e+00
2.586463e+01	-6.977961e+00
2.601403e+01	-7.018106e+00
2.616428e+01	-7.058653e+00
2.631541e+01	-7.098728e+00
2.646740e+01	-7.138980e+00
2.662028e+01	-7.179156e+00
2.677404e+01	-7.219749e+00
2.692868e+01	-7.260058e+00
2.708422e+01	-7.301379e+00
2.724066e+01	-7.341810e+00
2.739800e+01	-7.382477e+00
2.755625e+01	-7.423376e+00
2.771541e+01	-7.464733e+00
2.787550e+01	-7.505362e+00
2.803650e+01	-7.546634e+00
2.819844e+01	-7.588422e+00
2.836131e+01	-7.629284e+00
2.852513e+01	-7.670861e+00
2.868989e+01	-7.712471e+00
2.885560e+01	-7.754228e+00
2.902227e+01	-7.795464e+00
2.918990e+01	-7.837625e+00
2.935850e+01	-7.879335e+00
2.952807e+01	-7.921238e+00
2.969863e+01	-7.963353e+00
2.987016e+01	-8.005208e+00
3.004269e+01	-8.047309e+00
3.021622e+01	-8.089620e+00
3.039075e+01	-8.131733e+00
3.056628e+01	-8.174364e+00
3.074283e+01	-8.216571e+00
3.092040e+01	-8.259056e+00
3.109900e+01	-8.301881e+00
3.127862e+01	-8.344814e+00
3.145929e+01	-8.387143e+00
3.164099e+01	-8.429926e+00
3.182375e+01	-8.472864e+00
3.200756e+01	-8.515223e+00
3.219244e+01	-8.559282e+00
3.237838e+01	-8.601957e+00
3.256540e+01	-8.645031e+00
3.275349e+01	-8.688702e+00
3.294268e+01	-8.731801e+00
3.313295e+01	-8.774923e+00
3.332433e+01	-8.818683e+00
3.351681e+01	-8.862205e+00
3.371040e+01	-8.905547e+00
3.390511e+01	-8.948881e+00
3.410094e+01	-8.993318e+00
3.429791e+01	-9.037086e+00
3.449601e+01	-9.080240e+00
3.469526e+01	-9.124453e+00
3.489566e+01	-9.168178e+00
3.509721e+01	-9.212072e+00
3.529993e+01	-9.256062e+00
3.550382e+01	-9.300186e+00
3.570889e+01	-9.344998e+00
3.591515e+01	-9.388461e+00
3.612259e+01	-9.433132e+00
3.633123e+01	-9.477112e+00
3.654108e+01	-9.521961e+00
3.675214e+01	-9.566322e+00
3.696442e+01	-9.610554e+00
3.717792e+01	-9.655846e+00
3.739266e+01	-9.699431e+00
3.760864e+01	-9.745207e+00
3.782587e+01	-9.789185e+00
3.804435e+01	-9.833837e+00
3.826409e+01	-9.878742e+00
3.848510e+01	-9.923821e+00
3.870739e+01	-9.969237e+00
3.893096e+01	-1.001399e+01
3.915583e+01	-1.005919e+01
3.938199e+01	-1.010421e+01
3.960946e+01	-1.014912e+01
3.983824e+01	-1.019465e+01
4.006834e+01	-1.024000e+01
4.029978e+01	-1.028524e+01
4.053255e+01	-1.033092e+01
4.076666e+01	-1.037584e+01
4.100213e+01	-1.042187e+01
4.123896e+01	-1.046716e+01
4.147715e+01	-1.051257e+01
4.171672e+01	-1.055857e+01
4.195767e+01	-1.060409e+01
4.220002e+01	-1.064928e+01
4.244377e+01	-1.069515e+01
4.268892e+01	-1.074142e+01
4.293549e+01	-1.078673e+01
4.318348e+01	-1.083245e+01
4.343291e+01	-1.087885e+01
4.368377e+01	-1.092444e+01
4.393609e+01	-1.097045e+01
4.418986e+01	-1.101632e+01
4.444510e+01	-1.106265e+01
4.470182e+01	-1.110894e+01
4.496001e+01	-1.115463e+01
4.521970e+01	-1.120112e+01
4.548089e+01	-1.124762e+01
4.574358e+01	-1.129370e+01
4.600779e+01	-1.134013e+01
4.627353e+01	-1.138593e+01
4.654081e+01	-1.143304e+01
4.680963e+01	-1.147935e+01
4.708000e+01	-1.152558e+01
4.735193e+01	-1.157260e+01
4.762543e+01	-1.161909e+01
4.790051e+01	-1.166585e+01
4.817719e+01	-1.171198e+01
4.845545e+01	-1.175885e+01
4.873533e+01	-1.180561e+01
4.901682e+01	-1.185266e+01
4.929994e+01	-1.189874e+01
4.958470e+01	-1.194573e+01
4.987110e+01	-1.199238e+01
5.015915e+01	-1.203929e+01
5.044887e+01	-1.208682e+01
5.074026e+01	-1.213333e+01
5.103333e+01	-1.218081e+01
5.132810e+01	-1.222730e+01
5.162457e+01	-1.227444e+01
5.192275e+01	-1.232196e+01
5.222265e+01	-1.236883e+01
5.252429e+01	-1.241571e+01
5.282767e+01	-1.246354e+01
5.313280e+01	-1.251053e+01
5.343969e+01	-1.255769e+01
5.374836e+01	-1.260486e+01
5.405880e+01	-1.265249e+01
5.437105e+01	-1.270005e+01
5.468509e+01	-1.274671e+01
5.500095e+01	-1.279343e+01
5.531863e+01	-1.284251e+01
5.563815e+01	-1.288918e+01
5.595951e+01	-1.293620e+01
5.628273e+01	-1.298410e+01
5.660782e+01	-1.303147e+01
5.693479e+01	-1.307880e+01
5.726364e+01	-1.312656e+01
5.759439e+01	-1.317413e+01
5.792705e+01	-1.322153e+01
5.826164e+01	-1.326941e+01
5.859815e+01	-1.331695e+01
5.893662e+01	-1.336471e+01
5.927703e+01	-1.341273e+01
5.961941e+01	-1.346075e+01
5.996377e+01	-1.350786e+01
6.031012e+01	-1.355639e+01
6.065847e+01	-1.360342e+01
6.100883e+01	-1.365139e+01
6.136121e+01	-1.369869e+01
6.171563e+01	-1.374772e+01
6.207210e+01	-1.379469e+01
6.243063e+01	-1.384380e+01
6.279122e+01	-1.389187e+01
6.315390e+01	-1.393846e+01
6.351868e+01	-1.398692e+01
6.388556e+01	-1.403570e+01
6.425456e+01	-1.408337e+01
6.462569e+01	-1.413160e+01
6.499897e+01	-1.417950e+01
6.537440e+01	-1.422781e+01
6.575200e+01	-1.427515e+01
6.613178e+01	-1.432385e+01
6.651375e+01	-1.437164e+01
6.689793e+01	-1.442046e+01
6.728433e+01	-1.446820e+01
6.767297e+01	-1.451654e+01
6.806384e+01	-1.456459e+01
6.845698e+01	-1.461313e+01
6.885238e+01	-1.466119e+01
6.925007e+01	-1.470998e+01
6.965005e+01	-1.475809e+01
7.005235e+01	-1.480680e+01
7.045697e+01	-1.485460e+01
7.086393e+01	-1.490259e+01
7.127323e+01	-1.495195e+01
7.168490e+01	-1.499980e+01
7.209895e+01	-1.504864e+01
7.251539e+01	-1.509686e+01
7.293424e+01	-1.514575e+01
7.335551e+01	-1.519430e+01
7.377920e+01	-1.524270e+01
7.420535e+01	-1.529208e+01
7.463396e+01	-1.534019e+01
7.506504e+01	-1.538978e+01
7.549861e+01	-1.543770e+01
7.593469e+01	-1.548500e+01
7.637328e+01	-1.553378e+01
7.681441e+01	-1.558375e+01
7.725809e+01	-1.563232e+01
7.770433e+01	-1.567991e+01
7.815315e+01	-1.572951e+01
7.860456e+01	-1.577816e+01
7.905857e+01	-1.582672e+01
7.951521e+01	-1.587564e+01
7.997449e+01	-1.592292e+01
8.043642e+01	-1.597296e+01
8.090102e+01	-1.602169e+01
8.136830e+01	-1.606946e+01
8.183828e+01	-1.611906e+01
8.231097e+01	-1.616794e+01
8.278640e+01	-1.621633e+01
8.326457e+01	-1.626568e+01
8.374550e+01	-1.631382e+01
8.422921e+01	-1.636317e+01
8.471572e+01	-1.641197e+01
8.520503e+01	-1.646124e+01
8.569717e+01	-1.651001e+01
8.619215e+01	-1.655917e+01
8.669000e+01	-1.660693e+01
8.719071e+01	-1.665727e+01
8.769432e+01	-1.670703e+01
8.820084e+01	-1.675459e+01
8.871029e+01	-1.680349e+01
8.922267e+01	-1.685148e+01
8.973802e+01	-1.690262e+01
9.025634e+01	-1.695030e+01
9.077766e+01	-1.699961e+01
9.130199e+01	-1.704868e+01
9.182935e+01	-1.709821e+01
9.235975e+01	-1.714747e+01
9.289321e+01	-1.719659e+01
9.342976e+01	-1.724530e+01
9.396941e+01	-1.729379e+01
9.451217e+01	-1.734263e+01
9.505807e+01	-1.739364e+01
9.560712e+01	-1.744218e+01
9.615934e+01	-1.749140e+01
9.671476e+01	-1.753906e+01
9.727338e+01	-1.758819e+01
9.783522e+01	-1.763838e+01
9.840032e+01	-1.768702e+01
9.896867e+01	-1.773682e+01
9.954031e+01	-1.778533e+01
1.001153e+02	-1.783518e+01
1.006935e+02	-1.788475e+01
1.012751e+02	-1.793372e+01
1.018601e+02	-1.798296e+01
1.024484e+02	-1.803165e+01
1.030402e+02	-1.807982e+01
1.036353e+02	-1.813122e+01
1.042339e+02	-1.817923e+01
1.048360e+02	-1.822760e+01
1.054415e+02	-1.827815e+01
1.060505e+02	-1.832728e+01
1.066631e+02	-1.837791e+01
1.072791e+02	-1.842513e+01
1.078988e+02	-1.847481e+01
1.085220e+02	-1.852417e+01
1.091488e+02	-1.857432e+01
1.097793e+02	-1.862310e+01
1.104133e+02	-1.867186e+01
1.110511e+02	-1.872292e+01
1.116925e+02	-1.877028e+01
1.123376e+02	-1.882092e+01
1.129865e+02	-1.886952e+01
1.136391e+02	-1.891922e+01
1.142955e+02	-1.896841e+01
1.149556e+02	-1.901754e+01
1.156196e+02	-1.906937e+01
1.162874e+02	-1.911742e+01
1.169591e+02	-1.916644e+01
1.176347e+02	-1.921636e+01
1.183141e+02	-1.926656e+01
1.189975e+02	-1.931590e+01
1.196848e+02	-1.936387e+01
1.203761e+02	-1.941430e+01
1.210714e+02	-1.946177e+01
1.217707e+02	-1.951348e+01
1.224740e+02	-1.956228e+01
1.231814e+02	-1.961341e+01
1.238929e+02	-1.965979e+01
1.246085e+02	-1.971012e+01
1.253283e+02	-1.976147e+01
1.260522e+02	-1.980924e+01
1.267802e+02	-1.985941e+01
1.275125e+02	-1.990888e+01
1.282490e+02	-1.995883e+01
1.289898e+02	-2.000842e+01
1.297348e+02	-2.005721e+01
1.304842e+02	-2.010605e+01
1.312378e+02	-2.015792e+01
1.319959e+02	-2.020537e+01
1.327583e+02	-2.025568e+01
1.335251e+02	-2.030527e+01
1.342963e+02	-2.035443e+01
1.350720e+02	-2.040534e+01
1.358522e+02	-2.045443e+01
1.366368e+02	-2.050328e+01
1.374260e+02	-2.055268e+01
1.382198e+02	-2.060219e+01
1.390182e+02	-2.065230e+01
1.398211e+02	-2.070139e+01
1.406287e+02	-2.075198e+01
1.414410e+02	-2.080031e+01
1.422579e+02	-2.084954e+01
1.430796e+02	-2.090058e+01
1.439060e+02	-2.095004e+01
1.447372e+02	-2.099834e+01
1.455732e+02	-2.104984e+01
1.464141e+02	-2.109850e+01
1.472597e+02	-2.114900e+01
1.481103e+02	-2.120009e+01
1.489658e+02	-2.124664e+01
1.498262e+02	-2.129760e+01
1.506916e+02	-2.134743e+01
1.515620e+02	-2.139642e+01
1.524374e+02	-2.144568e+01
1.533179e+02	-2.149596e+01
1.542034e+02	-2.154709e+01
1.550941e+02	-2.159408e+01
1.559899e+02	-2.164587e+01
1.568909e+02	-2.169495e+01
1.577971e+02	-2.174343e+01
1.587085e+02	-2.179464e+01
1.596252e+02	-2.184530e+01
1.605472e+02	-2.189370e+01
1.614745e+02	-2.194306e+01
1.624072e+02	-2.199348e+01
1.633453e+02	-2.204212e+01
1.642887e+02	-2.209111e+01
1.652377e+02	-2.214366e+01
1.661921e+02	-2.219382e+01
1.671520e+02	-2.224115e+01
1.681175e+02	-2.229120e+01
1.690885e+02	-2.234293e+01
1.700651e+02	-2.239210e+01
1.710474e+02	-2.244196e+01
1.720354e+02	-2.249128e+01
1.730291e+02	-2.254133e+01
1.740285e+02	-2.259228e+01
1.750337e+02	-2.263782e+01
1.760446e+02	-2.269012e+01
1.770615e+02	-2.274075e+01
1.780842e+02	-2.279085e+01
1.791128e+02	-2.283850e+01
1.801473e+02	-2.288791e+01
1.811878e+02	-2.293848e+01
1.822344e+02	-2.298766e+01
1.832870e+02	-2.303635e+01
1.843456e+02	-2.308973e+01
1.854104e+02	-2.313981e+01
1.864813e+02	-2.318763e+01
1.875584e+02	-2.323845e+01
1.886418e+02	-2.328752e+01
1.897313e+02	-2.333606e+01
1.908272e+02	-2.338627e+01
1.919294e+02	-2.343830e+01
1.930380e+02	-2.348815e+01
1.941530e+02	-2.353711e+01
1.952744e+02	-2.358399e+01
1.964023e+02	-2.363623e+01
1.975367e+02	-2.368817e+01
1.986777e+02	-2.373811e+01
1.998252e+02	-2.378577e+01
2.009794e+02	-2.383380e+01
2.021403e+02	-2.388560e+01
2.033078e+02	-2.393133e+01
2.044821e+02	-2.398476e+01
2.056632e+02	-2.403476e+01
2.068511e+02	-2.408675e+01
2.080459e+02	-2.413331e+01
2.092475e+02	-2.418849e+01
2.104561e+02	-2.423464e+01
2.116717e+02	-2.428445e+01
2.128943e+02	-2.433468e+01
2.141240e+02	-2.438512e+01
2.153608e+02	-2.443283e+01
2.166047e+02	-2.448381e+01
2.178558e+02	-2.453450e+01
2.191141e+02	-2.458509e+01
2.203797e+02	-2.463474e+01
2.216526e+02	-2.468455e+01
2.229329e+02	-2.473357e+01
2.242205e+02	-2.478109e+01
2.255156e+02	-2.483242e+01
2.268182e+02	-2.488142e+01
2.281283e+02	-2.493497e+01
2.294459e+02	-2.498124e+01
2.307712e+02	-2.503398e+01
2.321041e+02	-2.508203e+01
2.334447e+02	-2.513496e+01
2.347931e+02	-2.518000e+01
2.361493e+02	-2.523292e+01
2.375133e+02	-2.528246e+01
2.388851e+02	-2.533580e+01
2.402649e+02	-2.538378e+01
2.416527e+02	-2.543429e+01
2.430484e+02	-2.548397e+01
2.444523e+02	-2.553340e+01
2.458642e+02	-2.558432e+01
2.472843e+02	-2.562995e+01
2.487126e+02	-2.568199e+01
2.501492e+02	-2.572905e+01
2.515940e+02	-2.578452e+01
2.530472e+02	-2.583007e+01
2.545088e+02	-2.588052e+01
2.559789e+02	-2.593156e+01
2.574574e+02	-2.597780e+01
2.589444e+02	-2.603307e+01
2.604401e+02	-2.607842e+01
2.619444e+02	-2.613194e+01
2.634574e+02	-2.618206e+01
2.649791e+02	-2.623302e+01
2.665096e+02	-2.628371e+01
2.680489e+02	-2.633012e+01
2.695972e+02	-2.637712e+01
2.711544e+02	-2.642973e+01
2.727205e+02	-2.647660e+01
2.742958e+02	-2.652917e+01
2.758801e+02	-2.658074e+01
2.774736e+02	-2.663220e+01
2.790762e+02	-2.667944e+01
2.806882e+02	-2.673461e+01
2.823094e+02	-2.678209e+01
2.839400e+02	-2.683003e+01
2.855800e+02	-2.688036e+01
2.872295e+02	-2.692920e+01
2.888886e+02	-2.698382e+01
2.905572e+02	-2.702631e+01
2.922354e+02	-2.708088e+01
2.939234e+02	-2.712945e+01
2.956211e+02	-2.717772e+01
2.973286e+02	-2.723299e+01
2.990459e+02	-2.727880e+01
3.007732e+02	-2.732984e+01
3.025104e+02	-2.737860e+01
3.042577e+02	-2.743055e+01
3.060151e+02	-2.748019e+01
3.077826e+02	-2.753193e+01
3.095604e+02	-2.758129e+01
3.113484e+02	-2.762969e+01
3.131467e+02	-2.767985e+01
3.149554e+02	-2.773403e+01
3.167746e+02	-2.777986e+01
3.186043e+02	-2.783204e+01
3.204445e+02	-2.788422e+01
3.222954e+02	-2.793137e+01
3.241570e+02	-2.798062e+01
3.260293e+02	-2.803151e+01
3.279124e+02	-2.807677e+01
3.298064e+02	-2.813226e+01
3.317114e+02	-2.817961e+01
3.336273e+02	-2.822986e+01
3.355544e+02	-2.828325e+01
3.374925e+02	-2.832826e+01
3.394418e+02	-2.838145e+01
3.414024e+02	-2.843506e+01
3.433744e+02	-2.848360e+01
3.453577e+02	-2.853092e+01
3.473525e+02	-2.858541e+01
3.493588e+02	-2.863348e+01
3.513766e+02	-2.868545e+01
3.534062e+02	-2.872967e+01
3.554474e+02	-2.877652e+01
3.575005e+02	-2.883125e+01
3.595654e+02	-2.888078e+01
3.616422e+02	-2.893077e+01
3.637311e+02	-2.898504e+01
3.658320e+02	-2.902759e+01
3.679450e+02	-2.907698e+01
3.700702e+02	-2.912971e+01
3.722077e+02	-2.918228e+01
3.743576e+02	-2.923343e+01
3.765199e+02	-2.928184e+01
3.786946e+02	-2.933369e+01
3.808820e+02	-2.938189e+01
3.830819e+02	-2.943728e+01
3.852946e+02	-2.947913e+01
3.875200e+02	-2.952693e+01
3.897583e+02	-2.958361e+01
3.920096e+02	-2.963764e+01
3.942738e+02	-2.968341e+01
3.965511e+02	-2.973353e+01
3.988416e+02	-2.978367e+01
4.011452e+02	-2.983298e+01
4.034622e+02	-2.988482e+01
4.057926e+02	-2.993948e+01
4.081365e+02	-2.997869e+01
4.104938e+02	-3.002950e+01
4.128648e+02	-3.008584e+01
4.152495e+02	-3.013635e+01
4.176480e+02	-3.018300e+01
4.200603e+02	-3.023358e+01
4.224866e+02	-3.028406e+01
4.249268e+02	-3.033705e+01
4.273812e+02	-3.038847e+01
4.298497e+02	-3.043440e+01
4.323325e+02	-3.048329e+01
4.348297e+02	-3.053438e+01
4.373412e+02	-3.058868e+01
4.398673e+02	-3.063526e+01
4.424079e+02	-3.068347e+01
4.449633e+02	-3.073998e+01
4.475334e+02	-3.078808e+01
4.501183e+02	-3.084021e+01
4.527182e+02	-3.088151e+01
4.553330e+02	-3.093250e+01
4.579630e+02	-3.098826e+01
4.606082e+02	-3.103563e+01
4.632687e+02	-3.108629e+01
4.659445e+02	-3.113801e+01
4.686358e+02	-3.118859e+01
4.713426e+02	-3.123803e+01
4.740650e+02	-3.128528e+01
4.768032e+02	-3.133927e+01
4.795572e+02	-3.138702e+01
4.823271e+02	-3.143445e+01
4.851130e+02	-3.148755e+01
4.879150e+02	-3.153875e+01
4.907332e+02	-3.158572e+01
4.935676e+02	-3.163929e+01
4.964185e+02	-3.168569e+01
4.992858e+02	-3.173936e+01
5.021696e+02	-3.178760e+01
5.050701e+02	-3.184337e+01
5.079874e+02	-3.188846e+01
5.109215e+02	-3.193742e+01
5.138726e+02	-3.199727e+01
5.168407e+02	-3.203180e+01
5.198259e+02	-3.208714e+01
5.228284e+02	-3.214384e+01
5.258482e+02	-3.219496e+01
5.288855e+02	-3.223832e+01
5.319403e+02	-3.228291e+01
5.350128e+02	-3.234099e+01
5.381030e+02	-3.239351e+01
5.412111e+02	-3.244356e+01
5.443371e+02	-3.248026e+01
5.474812e+02	-3.253826e+01
5.506434e+02	-3.258858e+01
5.538239e+02	-3.263879e+01
5.570228e+02	-3.269970e+01
5.602401e+02	-3.274316e+01
5.634760e+02	-3.278904e+01
5.667306e+02	-3.284322e+01
5.700040e+02	-3.288624e+01
5.732964e+02	-3.293821e+01
5.766077e+02	-3.299318e+01
5.799382e+02	-3.305054e+01
5.832879e+02	-3.309411e+01
5.866569e+02	-3.314485e+01
5.900454e+02	-3.319293e+01
5.934535e+02	-3.325055e+01
5.968813e+02	-3.329722e+01
6.003288e+02	-3.334603e+01
6.037963e+02	-3.339552e+01
6.072838e+02	-3.344423e+01
6.107914e+02	-3.350071e+01
6.143194e+02	-3.355019e+01
6.178676e+02	-3.359419e+01
6.214364e+02	-3.364166e+01
6.250258e+02	-3.370033e+01
6.286359e+02	-3.374162e+01
6.322669e+02	-3.379470e+01
6.359189e+02	-3.385349e+01
6.395919e+02	-3.390523e+01
6.432862e+02	-3.394197e+01
6.470017e+02	-3.400038e+01
6.507388e+02	-3.404781e+01
6.544974e+02	-3.410881e+01
6.582778e+02	-3.415529e+01
6.620800e+02	-3.419870e+01
6.659041e+02	-3.424622e+01
6.697504e+02	-3.430118e+01
6.736188e+02	-3.434735e+01
6.775096e+02	-3.439602e+01
6.814229e+02	-3.445349e+01
6.853587e+02	-3.449707e+01
6.893173e+02	-3.455014e+01
6.932988e+02	-3.460874e+01
6.973033e+02	-3.465536e+01
7.013309e+02	-3.470224e+01
