Frequency(Hz)	Magnitude(dB)
1.000000e+01	-1.792187e-05
1.005776e+01	-1.812950e-05
1.011585e+01	-1.833954e-05
1.017428e+01	-1.855200e-05
1.023305e+01	-1.876693e-05
1.029215e+01	-1.898435e-05
1.035160e+01	-1.920429e-05
1.041139e+01	-1.942678e-05
1.047153e+01	-1.965184e-05
1.053201e+01	-1.987952e-05
1.059284e+01	-2.010982e-05
1.065403e+01	-2.034280e-05
1.071556e+01	-2.057848e-05
1.077746e+01	-2.081688e-05
1.083971e+01	-2.105805e-05
1.090232e+01	-2.130202e-05
1.096529e+01	-2.154881e-05
1.102862e+01	-2.179845e-05
1.109232e+01	-2.205099e-05
1.115639e+01	-2.230646e-05
1.122083e+01	-2.256489e-05
1.128564e+01	-2.282631e-05
1.135083e+01	-2.309076e-05
1.141639e+01	-2.335827e-05
1.148233e+01	-2.362888e-05
1.154865e+01	-2.390262e-05
1.161536e+01	-2.417954e-05
1.168245e+01	-2.445967e-05
1.174992e+01	-2.474304e-05
1.181779e+01	-2.502969e-05
1.188605e+01	-2.531967e-05
1.195470e+01	-2.561300e-05
1.202375e+01	-2.590974e-05
1.209320e+01	-2.620991e-05
1.216305e+01	-2.651356e-05
1.223330e+01	-2.682072e-05
1.230396e+01	-2.713145e-05
1.237503e+01	-2.744577e-05
1.244651e+01	-2.776374e-05
1.251840e+01	-2.808539e-05
1.259070e+01	-2.841076e-05
1.266343e+01	-2.873991e-05
1.273657e+01	-2.907287e-05
1.281014e+01	-2.940968e-05
1.288413e+01	-2.975040e-05
1.295855e+01	-3.009507e-05
1.303339e+01	-3.044373e-05
1.310867e+01	-3.079642e-05
1.318439e+01	-3.115321e-05
1.326054e+01	-3.151412e-05
1.333713e+01	-3.187922e-05
1.341417e+01	-3.224855e-05
1.349165e+01	-3.262216e-05
1.356958e+01	-3.300009e-05
1.364795e+01	-3.338241e-05
1.372678e+01	-3.376915e-05
1.380607e+01	-3.416037e-05
1.388581e+01	-3.455613e-05
1.396602e+01	-3.495647e-05
1.404668e+01	-3.536145e-05
1.412782e+01	-3.577112e-05
1.420942e+01	-3.618554e-05
1.429149e+01	-3.660476e-05
1.437404e+01	-3.702883e-05
1.445706e+01	-3.745782e-05
1.454057e+01	-3.789177e-05
1.462455e+01	-3.833076e-05
1.470902e+01	-3.877483e-05
1.479398e+01	-3.922405e-05
1.487943e+01	-3.967846e-05
1.496537e+01	-4.013815e-05
1.505181e+01	-4.060316e-05
1.513875e+01	-4.107356e-05
1.522619e+01	-4.154940e-05
1.531414e+01	-4.203076e-05
1.540259e+01	-4.251770e-05
1.549156e+01	-4.301027e-05
1.558103e+01	-4.350856e-05
1.567103e+01	-4.401261e-05
1.576155e+01	-4.452251e-05
1.585258e+01	-4.503831e-05
1.594415e+01	-4.556009e-05
1.603624e+01	-4.608791e-05
1.612886e+01	-4.662185e-05
1.622202e+01	-4.716198e-05
1.631572e+01	-4.770836e-05
1.640996e+01	-4.826107e-05
1.650474e+01	-4.882019e-05
1.660008e+01	-4.938578e-05
1.669596e+01	-4.995792e-05
1.679239e+01	-5.053670e-05
1.688938e+01	-5.112217e-05
1.698694e+01	-5.171443e-05
1.708505e+01	-5.231356e-05
1.718373e+01	-5.291962e-05
1.728299e+01	-5.353271e-05
1.738281e+01	-5.415289e-05
1.748322e+01	-5.478027e-05
1.758420e+01	-5.541491e-05
1.768576e+01	-5.605690e-05
1.778792e+01	-5.670633e-05
1.789066e+01	-5.736329e-05
1.799399e+01	-5.802785e-05
1.809793e+01	-5.870011e-05
1.820246e+01	-5.938017e-05
1.830760e+01	-6.006810e-05
1.841334e+01	-6.076400e-05
1.851969e+01	-6.146796e-05
1.862666e+01	-6.218008e-05
1.873425e+01	-6.290045e-05
1.884246e+01	-6.362916e-05
1.895129e+01	-6.436632e-05
1.906075e+01	-6.511202e-05
1.917085e+01	-6.586635e-05
1.928158e+01	-6.662942e-05
1.939295e+01	-6.740134e-05
1.950496e+01	-6.818220e-05
1.961762e+01	-6.897210e-05
1.973093e+01	-6.977115e-05
1.984490e+01	-7.057947e-05
1.995952e+01	-7.139714e-05
2.007480e+01	-7.222429e-05
2.019076e+01	-7.306102e-05
2.030738e+01	-7.390745e-05
2.042467e+01	-7.476368e-05
2.054264e+01	-7.562983e-05
2.066130e+01	-7.650601e-05
2.078064e+01	-7.739235e-05
2.090066e+01	-7.828895e-05
2.102139e+01	-7.919595e-05
2.114280e+01	-8.011344e-05
2.126492e+01	-8.104157e-05
2.138775e+01	-8.198045e-05
2.151128e+01	-8.293021e-05
2.163553e+01	-8.389097e-05
2.176050e+01	-8.486286e-05
2.188619e+01	-8.584601e-05
2.201260e+01	-8.684055e-05
2.213974e+01	-8.784661e-05
2.226762e+01	-8.886433e-05
2.239624e+01	-8.989384e-05
2.252560e+01	-9.093527e-05
2.265571e+01	-9.198877e-05
2.278656e+01	-9.305448e-05
2.291818e+01	-9.413253e-05
2.305055e+01	-9.522307e-05
2.318369e+01	-9.632624e-05
2.331760e+01	-9.744219e-05
2.345228e+01	-9.857108e-05
2.358774e+01	-9.971304e-05
2.372398e+01	-1.008682e-04
2.386101e+01	-1.020368e-04
2.399883e+01	-1.032189e-04
2.413745e+01	-1.044147e-04
2.427686e+01	-1.056244e-04
2.441709e+01	-1.068480e-04
2.455812e+01	-1.080859e-04
2.469997e+01	-1.093381e-04
2.484263e+01	-1.106048e-04
2.498612e+01	-1.118862e-04
2.513044e+01	-1.131824e-04
2.527559e+01	-1.144936e-04
2.542158e+01	-1.158200e-04
2.556842e+01	-1.171618e-04
2.571610e+01	-1.185191e-04
2.586463e+01	-1.198922e-04
2.601403e+01	-1.212812e-04
2.616428e+01	-1.226862e-04
2.631541e+01	-1.241076e-04
2.646740e+01	-1.255454e-04
2.662028e+01	-1.269998e-04
2.677404e+01	-1.284711e-04
2.692868e+01	-1.299595e-04
2.708422e+01	-1.314651e-04
2.724066e+01	-1.329881e-04
2.739800e+01	-1.345288e-04
2.755625e+01	-1.360873e-04
2.771541e+01	-1.376639e-04
2.787550e+01	-1.392587e-04
2.803650e+01	-1.408721e-04
2.819844e+01	-1.425041e-04
2.836131e+01	-1.441550e-04
2.852513e+01	-1.458251e-04
2.868989e+01	-1.475145e-04
2.885560e+01	-1.492234e-04
2.902227e+01	-1.509522e-04
2.918990e+01	-1.527010e-04
2.935850e+01	-1.544700e-04
2.952807e+01	-1.562596e-04
2.969863e+01	-1.580699e-04
2.987016e+01	-1.599011e-04
3.004269e+01	-1.617536e-04
3.021622e+01	-1.636275e-04
3.039075e+01	-1.655231e-04
3.056628e+01	-1.674407e-04
3.074283e+01	-1.693805e-04
3.092040e+01	-1.713428e-04
3.109900e+01	-1.733278e-04
3.127862e+01	-1.753358e-04
3.145929e+01	-1.773671e-04
3.164099e+01	-1.794219e-04
3.182375e+01	-1.815005e-04
3.200756e+01	-1.836032e-04
3.219244e+01	-1.857303e-04
3.237838e+01	-1.878820e-04
3.256540e+01	-1.900586e-04
3.275349e+01	-1.922604e-04
3.294268e+01	-1.944877e-04
3.313295e+01	-1.967409e-04
3.332433e+01	-1.990201e-04
3.351681e+01	-2.013258e-04
3.371040e+01	-2.036582e-04
3.390511e+01	-2.060175e-04
3.410094e+01	-2.084042e-04
3.429791e+01	-2.108186e-04
3.449601e+01	-2.132609e-04
3.469526e+01	-2.157316e-04
3.489566e+01	-2.182308e-04
3.509721e+01	-2.207590e-04
3.529993e+01	-2.233165e-04
3.550382e+01	-2.259036e-04
3.570889e+01	-2.285207e-04
3.591515e+01	-2.311681e-04
3.612259e+01	-2.338462e-04
3.633123e+01	-2.365553e-04
3.654108e+01	-2.392958e-04
3.675214e+01	-2.420680e-04
3.696442e+01	-2.448723e-04
3.717792e+01	-2.477092e-04
3.739266e+01	-2.505789e-04
3.760864e+01	-2.534818e-04
3.782587e+01	-2.564184e-04
3.804435e+01	-2.593890e-04
3.826409e+01	-2.623940e-04
3.848510e+01	-2.654338e-04
3.870739e+01	-2.685088e-04
3.893096e+01	-2.716195e-04
3.915583e+01	-2.747662e-04
3.938199e+01	-2.779493e-04
3.960946e+01	-2.811693e-04
3.983824e+01	-2.844266e-04
4.006834e+01	-2.877217e-04
4.029978e+01	-2.910549e-04
4.053255e+01	-2.944268e-04
4.076666e+01	-2.978377e-04
4.100213e+01	-3.012881e-04
4.123896e+01	-3.047784e-04
4.147715e+01	-3.083093e-04
4.171672e+01	-3.118810e-04
4.195767e+01	-3.154941e-04
4.220002e+01	-3.191490e-04
4.244377e+01	-3.228463e-04
4.268892e+01	-3.265865e-04
4.293549e+01	-3.303699e-04
4.318348e+01	-3.341972e-04
4.343291e+01	-3.380688e-04
4.368377e+01	-3.419853e-04
4.393609e+01	-3.459471e-04
4.418986e+01	-3.499548e-04
4.444510e+01	-3.540090e-04
4.470182e+01	-3.581101e-04
4.496001e+01	-3.622587e-04
4.521970e+01	-3.664554e-04
4.548089e+01	-3.707007e-04
4.574358e+01	-3.749952e-04
4.600779e+01	-3.793395e-04
4.627353e+01	-3.837340e-04
4.654081e+01	-3.881795e-04
4.680963e+01	-3.926765e-04
4.708000e+01	-3.972255e-04
4.735193e+01	-4.018273e-04
4.762543e+01	-4.064823e-04
4.790051e+01	-4.111913e-04
4.817719e+01	-4.159549e-04
4.845545e+01	-4.207736e-04
4.873533e+01	-4.256481e-04
4.901682e+01	-4.305791e-04
4.929994e+01	-4.355672e-04
4.958470e+01	-4.406132e-04
4.987110e+01	-4.457175e-04
5.015915e+01	-4.508810e-04
5.044887e+01	-4.561043e-04
5.074026e+01	-4.613881e-04
5.103333e+01	-4.667332e-04
5.132810e+01	-4.721401e-04
5.162457e+01	-4.776097e-04
5.192275e+01	-4.831426e-04
5.222265e+01	-4.887396e-04
5.252429e+01	-4.944015e-04
5.282767e+01	-5.001289e-04
5.313280e+01	-5.059227e-04
5.343969e+01	-5.117836e-04
5.374836e+01	-5.177124e-04
5.405880e+01	-5.237099e-04
5.437105e+01	-5.297769e-04
5.468509e+01	-5.359141e-04
5.500095e+01	-5.421224e-04
5.531863e+01	-5.484027e-04
5.563815e+01	-5.547557e-04
5.595951e+01	-5.611823e-04
5.628273e+01	-5.676833e-04
5.660782e+01	-5.742596e-04
5.693479e+01	-5.809121e-04
5.726364e+01	-5.876417e-04
5.759439e+01	-5.944492e-04
5.792705e+01	-6.013356e-04
5.826164e+01	-6.083018e-04
5.859815e+01	-6.153486e-04
5.893662e+01	-6.224771e-04
5.927703e+01	-6.296881e-04
5.961941e+01	-6.369827e-04
5.996377e+01	-6.443618e-04
6.031012e+01	-6.518263e-04
6.065847e+01	-6.593773e-04
6.100883e+01	-6.670158e-04
6.136121e+01	-6.747428e-04
6.171563e+01	-6.825592e-04
6.207210e+01	-6.904662e-04
6.243063e+01	-6.984648e-04
6.279122e+01	-7.065561e-04
6.315390e+01	-7.147411e-04
6.351868e+01	-7.230208e-04
6.388556e+01	-7.313965e-04
6.425456e+01	-7.398692e-04
6.462569e+01	-7.484401e-04
6.499897e+01	-7.571102e-04
6.537440e+01	-7.658808e-04
6.575200e+01	-7.747529e-04
6.613178e+01	-7.837278e-04
6.651375e+01	-7.928067e-04
6.689793e+01	-8.019908e-04
6.728433e+01	-8.112812e-04
6.767297e+01	-8.206792e-04
6.806384e+01	-8.301861e-04
6.845698e+01	-8.398031e-04
6.885238e+01	-8.495315e-04
6.925007e+01	-8.593726e-04
6.965005e+01	-8.693276e-04
7.005235e+01	-8.793980e-04
7.045697e+01	-8.895850e-04
7.086393e+01	-8.998901e-04
7.127323e+01	-9.103144e-04
7.168490e+01	-9.208596e-04
7.209895e+01	-9.315268e-04
7.251539e+01	-9.423176e-04
7.293424e+01	-9.532335e-04
7.335551e+01	-9.642757e-04
7.377920e+01	-9.754458e-04
7.420535e+01	-9.867454e-04
7.463396e+01	-9.981758e-04
7.506504e+01	-1.009739e-03
7.549861e+01	-1.021435e-03
7.593469e+01	-1.033267e-03
7.637328e+01	-1.045237e-03
7.681441e+01	-1.057345e-03
7.725809e+01	-1.069593e-03
7.770433e+01	-1.081983e-03
7.815315e+01	-1.094516e-03
7.860456e+01	-1.107195e-03
7.905857e+01	-1.120020e-03
7.951521e+01	-1.132994e-03
7.997449e+01	-1.146119e-03
8.043642e+01	-1.159395e-03
8.090102e+01	-1.172825e-03
8.136830e+01	-1.186411e-03
8.183828e+01	-1.200154e-03
8.231097e+01	-1.214056e-03
8.278640e+01	-1.228119e-03
8.326457e+01	-1.242345e-03
8.374550e+01	-1.256736e-03
8.422921e+01	-1.271293e-03
8.471572e+01	-1.286020e-03
8.520503e+01	-1.300916e-03
8.569717e+01	-1.315985e-03
8.619215e+01	-1.331229e-03
8.669000e+01	-1.346649e-03
8.719071e+01	-1.362248e-03
8.769432e+01	-1.378028e-03
8.820084e+01	-1.393990e-03
8.871029e+01	-1.410137e-03
8.922267e+01	-1.426471e-03
8.973802e+01	-1.442995e-03
9.025634e+01	-1.459709e-03
9.077766e+01	-1.476617e-03
9.130199e+01	-1.493722e-03
9.182935e+01	-1.511024e-03
9.235975e+01	-1.528526e-03
9.289321e+01	-1.546231e-03
9.342976e+01	-1.564142e-03
9.396941e+01	-1.582259e-03
9.451217e+01	-1.600587e-03
9.505807e+01	-1.619127e-03
9.560712e+01	-1.637881e-03
9.615934e+01	-1.656853e-03
9.671476e+01	-1.676044e-03
9.727338e+01	-1.695458e-03
9.783522e+01	-1.715096e-03
9.840032e+01	-1.734962e-03
9.896867e+01	-1.755058e-03
9.954031e+01	-1.775387e-03
1.001153e+02	-1.795951e-03
1.006935e+02	-1.816753e-03
1.012751e+02	-1.837796e-03
1.018601e+02	-1.859083e-03
1.024484e+02	-1.880616e-03
1.030402e+02	-1.902399e-03
1.036353e+02	-1.924434e-03
1.042339e+02	-1.946724e-03
1.048360e+02	-1.969272e-03
1.054415e+02	-1.992082e-03
1.060505e+02	-2.015155e-03
1.066631e+02	-2.038496e-03
1.072791e+02	-2.062107e-03
1.078988e+02	-2.085991e-03
1.085220e+02	-2.110152e-03
1.091488e+02	-2.134592e-03
1.097793e+02	-2.159316e-03
1.104133e+02	-2.184326e-03
1.110511e+02	-2.209626e-03
1.116925e+02	-2.235218e-03
1.123376e+02	-2.261107e-03
1.129865e+02	-2.287296e-03
1.136391e+02	-2.313787e-03
1.142955e+02	-2.340586e-03
1.149556e+02	-2.367695e-03
1.156196e+02	-2.395118e-03
1.162874e+02	-2.422858e-03
1.169591e+02	-2.450920e-03
1.176347e+02	-2.479306e-03
1.183141e+02	-2.508021e-03
1.189975e+02	-2.537069e-03
1.196848e+02	-2.566453e-03
1.203761e+02	-2.596177e-03
1.210714e+02	-2.626245e-03
1.217707e+02	-2.656662e-03
1.224740e+02	-2.687430e-03
1.231814e+02	-2.718555e-03
1.238929e+02	-2.750040e-03
1.246085e+02	-2.781890e-03
1.253283e+02	-2.814108e-03
1.260522e+02	-2.846700e-03
1.267802e+02	-2.879669e-03
1.275125e+02	-2.913019e-03
1.282490e+02	-2.946756e-03
1.289898e+02	-2.980883e-03
1.297348e+02	-3.015405e-03
1.304842e+02	-3.050327e-03
1.312378e+02	-3.085654e-03
1.319959e+02	-3.121389e-03
1.327583e+02	-3.157538e-03
1.335251e+02	-3.194105e-03
1.342963e+02	-3.231096e-03
1.350720e+02	-3.268515e-03
1.358522e+02	-3.306367e-03
1.366368e+02	-3.344658e-03
1.374260e+02	-3.383391e-03
1.382198e+02	-3.422573e-03
1.390182e+02	-3.462209e-03
1.398211e+02	-3.502303e-03
1.406287e+02	-3.542862e-03
1.414410e+02	-3.583890e-03
1.422579e+02	-3.625393e-03
1.430796e+02	-3.667376e-03
1.439060e+02	-3.709845e-03
1.447372e+02	-3.752806e-03
1.455732e+02	-3.796265e-03
1.464141e+02	-3.840226e-03
1.472597e+02	-3.884696e-03
1.481103e+02	-3.929681e-03
1.489658e+02	-3.975186e-03
1.498262e+02	-4.021218e-03
1.506916e+02	-4.067783e-03
1.515620e+02	-4.114887e-03
1.524374e+02	-4.162537e-03
1.533179e+02	-4.210737e-03
1.542034e+02	-4.259496e-03
1.550941e+02	-4.308819e-03
1.559899e+02	-4.358712e-03
1.568909e+02	-4.409183e-03
1.577971e+02	-4.460239e-03
1.587085e+02	-4.511885e-03
1.596252e+02	-4.564129e-03
1.605472e+02	-4.616977e-03
1.614745e+02	-4.670437e-03
1.624072e+02	-4.724516e-03
1.633453e+02	-4.779220e-03
1.642887e+02	-4.834558e-03
1.652377e+02	-4.890536e-03
1.661921e+02	-4.947162e-03
1.671520e+02	-5.004443e-03
1.681175e+02	-5.062387e-03
1.690885e+02	-5.121001e-03
1.700651e+02	-5.180294e-03
1.710474e+02	-5.240273e-03
1.720354e+02	-5.300946e-03
1.730291e+02	-5.362320e-03
1.740285e+02	-5.424405e-03
1.750337e+02	-5.487209e-03
1.760446e+02	-5.550739e-03
1.770615e+02	-5.615004e-03
1.780842e+02	-5.680012e-03
1.791128e+02	-5.745773e-03
1.801473e+02	-5.812295e-03
1.811878e+02	-5.879586e-03
1.822344e+02	-5.947656e-03
1.832870e+02	-6.016513e-03
1.843456e+02	-6.086167e-03
1.854104e+02	-6.156627e-03
1.864813e+02	-6.227902e-03
1.875584e+02	-6.300001e-03
1.886418e+02	-6.372934e-03
1.897313e+02	-6.446712e-03
1.908272e+02	-6.521342e-03
1.919294e+02	-6.596836e-03
1.930380e+02	-6.673203e-03
1.941530e+02	-6.750454e-03
1.952744e+02	-6.828598e-03
1.964023e+02	-6.907646e-03
1.975367e+02	-6.987608e-03
1.986777e+02	-7.068495e-03
1.998252e+02	-7.150318e-03
2.009794e+02	-7.233087e-03
2.021403e+02	-7.316814e-03
2.033078e+02	-7.401508e-03
2.044821e+02	-7.487183e-03
2.056632e+02	-7.573848e-03
2.068511e+02	-7.661515e-03
2.080459e+02	-7.750196e-03
2.092475e+02	-7.839903e-03
2.104561e+02	-7.930647e-03
2.116717e+02	-8.022441e-03
2.128943e+02	-8.115296e-03
2.141240e+02	-8.209224e-03
2.153608e+02	-8.304239e-03
2.166047e+02	-8.400353e-03
2.178558e+02	-8.497577e-03
2.191141e+02	-8.595926e-03
2.203797e+02	-8.695412e-03
2.216526e+02	-8.796049e-03
2.229329e+02	-8.897848e-03
2.242205e+02	-9.000825e-03
2.255156e+02	-9.104992e-03
2.268182e+02	-9.210364e-03
2.281283e+02	-9.316954e-03
2.294459e+02	-9.424775e-03
2.307712e+02	-9.533844e-03
2.321041e+02	-9.644173e-03
2.334447e+02	-9.755777e-03
2.347931e+02	-9.868671e-03
2.361493e+02	-9.982871e-03
2.375133e+02	-1.009839e-02
2.388851e+02	-1.021524e-02
2.402649e+02	-1.033345e-02
2.416527e+02	-1.045302e-02
2.430484e+02	-1.057397e-02
2.444523e+02	-1.069632e-02
2.458642e+02	-1.082009e-02
2.472843e+02	-1.094528e-02
2.487126e+02	-1.107193e-02
2.501492e+02	-1.120003e-02
2.515940e+02	-1.132962e-02
2.530472e+02	-1.146070e-02
2.545088e+02	-1.159330e-02
2.559789e+02	-1.172743e-02
2.574574e+02	-1.186311e-02
2.589444e+02	-1.200035e-02
2.604401e+02	-1.213918e-02
2.619444e+02	-1.227962e-02
2.634574e+02	-1.242168e-02
2.649791e+02	-1.256538e-02
2.665096e+02	-1.271074e-02
2.680489e+02	-1.285778e-02
2.695972e+02	-1.300651e-02
2.711544e+02	-1.315697e-02
2.727205e+02	-1.330916e-02
2.742958e+02	-1.346311e-02
2.758801e+02	-1.361884e-02
2.774736e+02	-1.377637e-02
2.790762e+02	-1.393571e-02
2.806882e+02	-1.409690e-02
2.823094e+02	-1.425994e-02
2.839400e+02	-1.442487e-02
2.855800e+02	-1.459171e-02
2.872295e+02	-1.476047e-02
2.888886e+02	-1.493118e-02
2.905572e+02	-1.510386e-02
2.922354e+02	-1.527853e-02
2.939234e+02	-1.545522e-02
2.956211e+02	-1.563395e-02
2.973286e+02	-1.581474e-02
2.990459e+02	-1.599762e-02
3.007732e+02	-1.618261e-02
3.025104e+02	-1.636974e-02
3.042577e+02	-1.655902e-02
3.060151e+02	-1.675049e-02
3.077826e+02	-1.694417e-02
3.095604e+02	-1.714008e-02
3.113484e+02	-1.733826e-02
3.131467e+02	-1.753872e-02
3.149554e+02	-1.774149e-02
3.167746e+02	-1.794661e-02
3.186043e+02	-1.815409e-02
3.204445e+02	-1.836396e-02
3.222954e+02	-1.857626e-02
3.241570e+02	-1.879100e-02
3.260293e+02	-1.900822e-02
3.279124e+02	-1.922795e-02
3.298064e+02	-1.945021e-02
3.317114e+02	-1.967503e-02
3.336273e+02	-1.990245e-02
3.355544e+02	-2.013249e-02
3.374925e+02	-2.036518e-02
3.394418e+02	-2.060055e-02
3.414024e+02	-2.083864e-02
3.433744e+02	-2.107947e-02
3.453577e+02	-2.132308e-02
3.473525e+02	-2.156950e-02
3.493588e+02	-2.181876e-02
3.513766e+02	-2.207089e-02
3.534062e+02	-2.232593e-02
3.554474e+02	-2.258391e-02
3.575005e+02	-2.284486e-02
3.595654e+02	-2.310881e-02
3.616422e+02	-2.337581e-02
3.637311e+02	-2.364589e-02
3.658320e+02	-2.391908e-02
3.679450e+02	-2.419541e-02
3.700702e+02	-2.447493e-02
3.722077e+02	-2.475767e-02
3.743576e+02	-2.504366e-02
3.765199e+02	-2.533295e-02
3.786946e+02	-2.562557e-02
3.808820e+02	-2.592156e-02
3.830819e+02	-2.622096e-02
3.852946e+02	-2.652380e-02
3.875200e+02	-2.683014e-02
3.897583e+02	-2.714000e-02
3.920096e+02	-2.745343e-02
3.942738e+02	-2.777046e-02
3.965511e+02	-2.809114e-02
3.988416e+02	-2.841552e-02
4.011452e+02	-2.874363e-02
4.034622e+02	-2.907551e-02
4.057926e+02	-2.941122e-02
4.081365e+02	-2.975078e-02
4.104938e+02	-3.009426e-02
4.128648e+02	-3.044168e-02
4.152495e+02	-3.079310e-02
4.176480e+02	-3.114857e-02
4.200603e+02	-3.150812e-02
4.224866e+02	-3.187180e-02
4.249268e+02	-3.223967e-02
4.273812e+02	-3.261177e-02
4.298497e+02	-3.298815e-02
4.323325e+02	-3.336885e-02
4.348297e+02	-3.375393e-02
4.373412e+02	-3.414344e-02
4.398673e+02	-3.453743e-02
4.424079e+02	-3.493594e-02
4.449633e+02	-3.533903e-02
4.475334e+02	-3.574675e-02
4.501183e+02	-3.615916e-02
4.527182e+02	-3.657630e-02
4.553330e+02	-3.699824e-02
4.579630e+02	-3.742502e-02
4.606082e+02	-3.785671e-02
4.632687e+02	-3.829335e-02
4.659445e+02	-3.873501e-02
4.686358e+02	-3.918173e-02
4.713426e+02	-3.963359e-02
4.740650e+02	-4.009063e-02
4.768032e+02	-4.055292e-02
4.795572e+02	-4.102051e-02
4.823271e+02	-4.149347e-02
4.851130e+02	-4.197185e-02
4.879150e+02	-4.245573e-02
4.907332e+02	-4.294515e-02
4.935676e+02	-4.344019e-02
4.964185e+02	-4.394090e-02
4.992858e+02	-4.444736e-02
5.021696e+02	-4.495962e-02
5.050701e+02	-4.547776e-02
5.079874e+02	-4.600184e-02
5.109215e+02	-4.653192e-02
5.138726e+02	-4.706808e-02
5.168407e+02	-4.761038e-02
5.198259e+02	-4.815890e-02
5.228284e+02	-4.871370e-02
5.258482e+02	-4.927485e-02
5.288855e+02	-4.984243e-02
5.319403e+02	-5.041651e-02
5.350128e+02	-5.099717e-02
5.381030e+02	-5.158447e-02
5.412111e+02	-5.217849e-02
5.443371e+02	-5.277932e-02
5.474812e+02	-5.338702e-02
5.506434e+02	-5.400167e-02
5.538239e+02	-5.462335e-02
5.570228e+02	-5.525215e-02
5.602401e+02	-5.588814e-02
5.634760e+02	-5.653140e-02
5.667306e+02	-5.718201e-02
5.700040e+02	-5.784007e-02
5.732964e+02	-5.850564e-02
5.766077e+02	-5.917882e-02
5.799382e+02	-5.985970e-02
5.832879e+02	-6.054835e-02
5.866569e+02	-6.124487e-02
5.900454e+02	-6.194934e-02
5.934535e+02	-6.266186e-02
5.968813e+02	-6.338252e-02
6.003288e+02	-6.411140e-02
6.037963e+02	-6.484860e-02
6.072838e+02	-6.559421e-02
6.107914e+02	-6.634833e-02
6.143194e+02	-6.711105e-02
6.178676e+02	-6.788247e-02
6.214364e+02	-6.866269e-02
6.250258e+02	-6.945180e-02
6.286359e+02	-7.024991e-02
6.322669e+02	-7.105712e-02
6.359189e+02	-7.187352e-02
6.395919e+02	-7.269923e-02
6.432862e+02	-7.353434e-02
6.470017e+02	-7.437896e-02
6.507388e+02	-7.523320e-02
6.544974e+02	-7.609716e-02
6.582778e+02	-7.697096e-02
6.620800e+02	-7.785470e-02
6.659041e+02	-7.874850e-02
6.697504e+02	-7.965246e-02
6.736188e+02	-8.056670e-02
6.775096e+02	-8.149133e-02
6.814229e+02	-8.242648e-02
6.853587e+02	-8.337226e-02
6.893173e+02	-8.432878e-02
6.932988e+02	-8.529617e-02
6.973033e+02	-8.627454e-02
7.013309e+02	-8.726402e-02
