Frequency(Hz)	Magnitude(dB)
1.000000e+01	-1.804519e-05
1.005776e+01	-1.825424e-05
1.011585e+01	-1.846572e-05
1.017428e+01	-1.867965e-05
1.023305e+01	-1.889606e-05
1.029215e+01	-1.911498e-05
1.035160e+01	-1.933643e-05
1.041139e+01	-1.956045e-05
1.047153e+01	-1.978706e-05
1.053201e+01	-2.001630e-05
1.059284e+01	-2.024819e-05
1.065403e+01	-2.048277e-05
1.071556e+01	-2.072007e-05
1.077746e+01	-2.096012e-05
1.083971e+01	-2.120295e-05
1.090232e+01	-2.144859e-05
1.096529e+01	-2.169708e-05
1.102862e+01	-2.194844e-05
1.109232e+01	-2.220272e-05
1.115639e+01	-2.245994e-05
1.122083e+01	-2.272015e-05
1.128564e+01	-2.298337e-05
1.135083e+01	-2.324964e-05
1.141639e+01	-2.351899e-05
1.148233e+01	-2.379146e-05
1.154865e+01	-2.406709e-05
1.161536e+01	-2.434591e-05
1.168245e+01	-2.462797e-05
1.174992e+01	-2.491329e-05
1.181779e+01	-2.520192e-05
1.188605e+01	-2.549389e-05
1.195470e+01	-2.578924e-05
1.202375e+01	-2.608801e-05
1.209320e+01	-2.639025e-05
1.216305e+01	-2.669599e-05
1.223330e+01	-2.700527e-05
1.230396e+01	-2.731813e-05
1.237503e+01	-2.763462e-05
1.244651e+01	-2.795477e-05
1.251840e+01	-2.827863e-05
1.259070e+01	-2.860625e-05
1.266343e+01	-2.893766e-05
1.273657e+01	-2.927291e-05
1.281014e+01	-2.961204e-05
1.288413e+01	-2.995510e-05
1.295855e+01	-3.030214e-05
1.303339e+01	-3.065320e-05
1.310867e+01	-3.100832e-05
1.318439e+01	-3.136756e-05
1.326054e+01	-3.173096e-05
1.333713e+01	-3.209857e-05
1.341417e+01	-3.247044e-05
1.349165e+01	-3.284662e-05
1.356958e+01	-3.322716e-05
1.364795e+01	-3.361210e-05
1.372678e+01	-3.400151e-05
1.380607e+01	-3.439542e-05
1.388581e+01	-3.479390e-05
1.396602e+01	-3.519700e-05
1.404668e+01	-3.560476e-05
1.412782e+01	-3.601725e-05
1.420942e+01	-3.643452e-05
1.429149e+01	-3.685662e-05
1.437404e+01	-3.728361e-05
1.445706e+01	-3.771555e-05
1.454057e+01	-3.815250e-05
1.462455e+01	-3.859450e-05
1.470902e+01	-3.904163e-05
1.479398e+01	-3.949393e-05
1.487943e+01	-3.995148e-05
1.496537e+01	-4.041433e-05
1.505181e+01	-4.088254e-05
1.513875e+01	-4.135617e-05
1.522619e+01	-4.183529e-05
1.531414e+01	-4.231996e-05
1.540259e+01	-4.281025e-05
1.549156e+01	-4.330621e-05
1.558103e+01	-4.380792e-05
1.567103e+01	-4.431545e-05
1.576155e+01	-4.482885e-05
1.585258e+01	-4.534821e-05
1.594415e+01	-4.587357e-05
1.603624e+01	-4.640503e-05
1.612886e+01	-4.694264e-05
1.622202e+01	-4.748648e-05
1.631572e+01	-4.803662e-05
1.640996e+01	-4.859314e-05
1.650474e+01	-4.915610e-05
1.660008e+01	-4.972558e-05
1.669596e+01	-5.030167e-05
1.679239e+01	-5.088442e-05
1.688938e+01	-5.147393e-05
1.698694e+01	-5.207026e-05
1.708505e+01	-5.267351e-05
1.718373e+01	-5.328374e-05
1.728299e+01	-5.390105e-05
1.738281e+01	-5.452550e-05
1.748322e+01	-5.515719e-05
1.758420e+01	-5.579620e-05
1.768576e+01	-5.644261e-05
1.778792e+01	-5.709651e-05
1.789066e+01	-5.775798e-05
1.799399e+01	-5.842712e-05
1.809793e+01	-5.910401e-05
1.820246e+01	-5.978874e-05
1.830760e+01	-6.048141e-05
1.841334e+01	-6.118209e-05
1.851969e+01	-6.189090e-05
1.862666e+01	-6.260792e-05
1.873425e+01	-6.333324e-05
1.884246e+01	-6.406697e-05
1.895129e+01	-6.480920e-05
1.906075e+01	-6.556003e-05
1.917085e+01	-6.631955e-05
1.928158e+01	-6.708788e-05
1.939295e+01	-6.786510e-05
1.950496e+01	-6.865133e-05
1.961762e+01	-6.944667e-05
1.973093e+01	-7.025122e-05
1.984490e+01	-7.106510e-05
1.995952e+01	-7.188840e-05
2.007480e+01	-7.272124e-05
2.019076e+01	-7.356373e-05
2.030738e+01	-7.441598e-05
2.042467e+01	-7.527810e-05
2.054264e+01	-7.615021e-05
2.066130e+01	-7.703242e-05
2.078064e+01	-7.792486e-05
2.090066e+01	-7.882763e-05
2.102139e+01	-7.974086e-05
2.114280e+01	-8.066468e-05
2.126492e+01	-8.159919e-05
2.138775e+01	-8.254453e-05
2.151128e+01	-8.350082e-05
2.163553e+01	-8.446819e-05
2.176050e+01	-8.544677e-05
2.188619e+01	-8.643669e-05
2.201260e+01	-8.743807e-05
2.213974e+01	-8.845105e-05
2.226762e+01	-8.947577e-05
2.239624e+01	-9.051236e-05
2.252560e+01	-9.156096e-05
2.265571e+01	-9.262171e-05
2.278656e+01	-9.369475e-05
2.291818e+01	-9.478022e-05
2.305055e+01	-9.587826e-05
2.318369e+01	-9.698902e-05
2.331760e+01	-9.811266e-05
2.345228e+01	-9.924931e-05
2.358774e+01	-1.003991e-04
2.372398e+01	-1.015623e-04
2.386101e+01	-1.027389e-04
2.399883e+01	-1.039291e-04
2.413745e+01	-1.051332e-04
2.427686e+01	-1.063511e-04
2.441709e+01	-1.075832e-04
2.455812e+01	-1.088296e-04
2.469997e+01	-1.100904e-04
2.484263e+01	-1.113658e-04
2.498612e+01	-1.126560e-04
2.513044e+01	-1.139611e-04
2.527559e+01	-1.152814e-04
2.542158e+01	-1.166169e-04
2.556842e+01	-1.179680e-04
2.571610e+01	-1.193346e-04
2.586463e+01	-1.207171e-04
2.601403e+01	-1.221157e-04
2.616428e+01	-1.235304e-04
2.631541e+01	-1.249615e-04
2.646740e+01	-1.264092e-04
2.662028e+01	-1.278737e-04
2.677404e+01	-1.293551e-04
2.692868e+01	-1.308537e-04
2.708422e+01	-1.323696e-04
2.724066e+01	-1.339031e-04
2.739800e+01	-1.354544e-04
2.755625e+01	-1.370237e-04
2.771541e+01	-1.386111e-04
2.787550e+01	-1.402169e-04
2.803650e+01	-1.418414e-04
2.819844e+01	-1.434846e-04
2.836131e+01	-1.451469e-04
2.852513e+01	-1.468284e-04
2.868989e+01	-1.485294e-04
2.885560e+01	-1.502502e-04
2.902227e+01	-1.519908e-04
2.918990e+01	-1.537516e-04
2.935850e+01	-1.555329e-04
2.952807e+01	-1.573347e-04
2.969863e+01	-1.591575e-04
2.987016e+01	-1.610013e-04
3.004269e+01	-1.628665e-04
3.021622e+01	-1.647533e-04
3.039075e+01	-1.666620e-04
3.056628e+01	-1.685928e-04
3.074283e+01	-1.705460e-04
3.092040e+01	-1.725217e-04
3.109900e+01	-1.745204e-04
3.127862e+01	-1.765422e-04
3.145929e+01	-1.785875e-04
3.164099e+01	-1.806564e-04
3.182375e+01	-1.827494e-04
3.200756e+01	-1.848665e-04
3.219244e+01	-1.870082e-04
3.237838e+01	-1.891747e-04
3.256540e+01	-1.913663e-04
3.275349e+01	-1.935833e-04
3.294268e+01	-1.958259e-04
3.313295e+01	-1.980946e-04
3.332433e+01	-2.003895e-04
3.351681e+01	-2.027110e-04
3.371040e+01	-2.050594e-04
3.390511e+01	-2.074350e-04
3.410094e+01	-2.098382e-04
3.429791e+01	-2.122691e-04
3.449601e+01	-2.147283e-04
3.469526e+01	-2.172159e-04
3.489566e+01	-2.197324e-04
3.509721e+01	-2.222779e-04
3.529993e+01	-2.248530e-04
3.550382e+01	-2.274579e-04
3.570889e+01	-2.300930e-04
3.591515e+01	-2.327587e-04
3.612259e+01	-2.354552e-04
3.633123e+01	-2.381829e-04
3.654108e+01	-2.409422e-04
3.675214e+01	-2.437335e-04
3.696442e+01	-2.465572e-04
3.717792e+01	-2.494135e-04
3.739266e+01	-2.523030e-04
3.760864e+01	-2.552259e-04
3.782587e+01	-2.581827e-04
3.804435e+01	-2.611737e-04
3.826409e+01	-2.641994e-04
3.848510e+01	-2.672601e-04
3.870739e+01	-2.703563e-04
3.893096e+01	-2.734883e-04
3.915583e+01	-2.766567e-04
3.938199e+01	-2.798617e-04
3.960946e+01	-2.831039e-04
3.983824e+01	-2.863836e-04
4.006834e+01	-2.897013e-04
4.029978e+01	-2.930575e-04
4.053255e+01	-2.964525e-04
4.076666e+01	-2.998869e-04
4.100213e+01	-3.033611e-04
4.123896e+01	-3.068755e-04
4.147715e+01	-3.104306e-04
4.171672e+01	-3.140269e-04
4.195767e+01	-3.176648e-04
4.220002e+01	-3.213449e-04
4.244377e+01	-3.250676e-04
4.268892e+01	-3.288335e-04
4.293549e+01	-3.326430e-04
4.318348e+01	-3.364966e-04
4.343291e+01	-3.403949e-04
4.368377e+01	-3.443383e-04
4.393609e+01	-3.483274e-04
4.418986e+01	-3.523627e-04
4.444510e+01	-3.564447e-04
4.470182e+01	-3.605741e-04
4.496001e+01	-3.647512e-04
4.521970e+01	-3.689768e-04
4.548089e+01	-3.732513e-04
4.574358e+01	-3.775753e-04
4.600779e+01	-3.819495e-04
4.627353e+01	-3.863743e-04
4.654081e+01	-3.908503e-04
4.680963e+01	-3.953782e-04
4.708000e+01	-3.999586e-04
4.735193e+01	-4.045920e-04
4.762543e+01	-4.092791e-04
4.790051e+01	-4.140205e-04
4.817719e+01	-4.188168e-04
4.845545e+01	-4.236686e-04
4.873533e+01	-4.285767e-04
4.901682e+01	-4.335417e-04
4.929994e+01	-4.385641e-04
4.958470e+01	-4.436447e-04
4.987110e+01	-4.487842e-04
5.015915e+01	-4.539832e-04
5.044887e+01	-4.592425e-04
5.074026e+01	-4.645626e-04
5.103333e+01	-4.699444e-04
5.132810e+01	-4.753886e-04
5.162457e+01	-4.808958e-04
5.192275e+01	-4.864668e-04
5.222265e+01	-4.921023e-04
5.252429e+01	-4.978031e-04
5.282767e+01	-5.035700e-04
5.313280e+01	-5.094036e-04
5.343969e+01	-5.153049e-04
5.374836e+01	-5.212744e-04
5.405880e+01	-5.273132e-04
5.437105e+01	-5.334219e-04
5.468509e+01	-5.396013e-04
5.500095e+01	-5.458524e-04
5.531863e+01	-5.521758e-04
5.563815e+01	-5.585725e-04
5.595951e+01	-5.650433e-04
5.628273e+01	-5.715891e-04
5.660782e+01	-5.782106e-04
5.693479e+01	-5.849089e-04
5.726364e+01	-5.916848e-04
5.759439e+01	-5.985392e-04
5.792705e+01	-6.054729e-04
5.826164e+01	-6.124870e-04
5.859815e+01	-6.195823e-04
5.893662e+01	-6.267598e-04
5.927703e+01	-6.340205e-04
5.961941e+01	-6.413652e-04
5.996377e+01	-6.487951e-04
6.031012e+01	-6.563110e-04
6.065847e+01	-6.639139e-04
6.100883e+01	-6.716050e-04
6.136121e+01	-6.793851e-04
6.171563e+01	-6.872553e-04
6.207210e+01	-6.952167e-04
6.243063e+01	-7.032704e-04
6.279122e+01	-7.114173e-04
6.315390e+01	-7.196586e-04
6.351868e+01	-7.279953e-04
6.388556e+01	-7.364286e-04
6.425456e+01	-7.449596e-04
6.462569e+01	-7.535894e-04
6.499897e+01	-7.623192e-04
6.537440e+01	-7.711501e-04
6.575200e+01	-7.800833e-04
6.613178e+01	-7.891199e-04
6.651375e+01	-7.982613e-04
6.689793e+01	-8.075085e-04
6.728433e+01	-8.168628e-04
6.767297e+01	-8.263255e-04
6.806384e+01	-8.358978e-04
6.845698e+01	-8.455809e-04
6.885238e+01	-8.553762e-04
6.925007e+01	-8.652850e-04
6.965005e+01	-8.753086e-04
7.005235e+01	-8.854482e-04
7.045697e+01	-8.957053e-04
7.086393e+01	-9.060812e-04
7.127323e+01	-9.165773e-04
7.168490e+01	-9.271950e-04
7.209895e+01	-9.379357e-04
7.251539e+01	-9.488007e-04
7.293424e+01	-9.597916e-04
7.335551e+01	-9.709098e-04
7.377920e+01	-9.821568e-04
7.420535e+01	-9.935340e-04
7.463396e+01	-1.005043e-03
7.506504e+01	-1.016685e-03
7.549861e+01	-1.028463e-03
7.593469e+01	-1.040376e-03
7.637328e+01	-1.052428e-03
7.681441e+01	-1.064619e-03
7.725809e+01	-1.076951e-03
7.770433e+01	-1.089427e-03
7.815315e+01	-1.102046e-03
7.860456e+01	-1.114812e-03
7.905857e+01	-1.127726e-03
7.951521e+01	-1.140789e-03
7.997449e+01	-1.154004e-03
8.043642e+01	-1.167371e-03
8.090102e+01	-1.180894e-03
8.136830e+01	-1.194573e-03
8.183828e+01	-1.208410e-03
8.231097e+01	-1.222408e-03
8.278640e+01	-1.236568e-03
8.326457e+01	-1.250892e-03
8.374550e+01	-1.265382e-03
8.422921e+01	-1.280040e-03
8.471572e+01	-1.294867e-03
8.520503e+01	-1.309866e-03
8.569717e+01	-1.325039e-03
8.619215e+01	-1.340387e-03
8.669000e+01	-1.355914e-03
8.719071e+01	-1.371620e-03
8.769432e+01	-1.387508e-03
8.820084e+01	-1.403580e-03
8.871029e+01	-1.419838e-03
8.922267e+01	-1.436285e-03
8.973802e+01	-1.452922e-03
9.025634e+01	-1.469751e-03
9.077766e+01	-1.486776e-03
9.130199e+01	-1.503998e-03
9.182935e+01	-1.521419e-03
9.235975e+01	-1.539042e-03
9.289321e+01	-1.556869e-03
9.342976e+01	-1.574902e-03
9.396941e+01	-1.593144e-03
9.451217e+01	-1.611598e-03
9.505807e+01	-1.630265e-03
9.560712e+01	-1.649149e-03
9.615934e+01	-1.668251e-03
9.671476e+01	-1.687574e-03
9.727338e+01	-1.707121e-03
9.783522e+01	-1.726895e-03
9.840032e+01	-1.746898e-03
9.896867e+01	-1.767132e-03
9.954031e+01	-1.787600e-03
1.001153e+02	-1.808306e-03
1.006935e+02	-1.829251e-03
1.012751e+02	-1.850439e-03
1.018601e+02	-1.871872e-03
1.024484e+02	-1.893553e-03
1.030402e+02	-1.915486e-03
1.036353e+02	-1.937672e-03
1.042339e+02	-1.960116e-03
1.048360e+02	-1.982819e-03
1.054415e+02	-2.005785e-03
1.060505e+02	-2.029017e-03
1.066631e+02	-2.052518e-03
1.072791e+02	-2.076292e-03
1.078988e+02	-2.100340e-03
1.085220e+02	-2.124667e-03
1.091488e+02	-2.149276e-03
1.097793e+02	-2.174170e-03
1.104133e+02	-2.199352e-03
1.110511e+02	-2.224825e-03
1.116925e+02	-2.250594e-03
1.123376e+02	-2.276661e-03
1.129865e+02	-2.303029e-03
1.136391e+02	-2.329703e-03
1.142955e+02	-2.356686e-03
1.149556e+02	-2.383982e-03
1.156196e+02	-2.411593e-03
1.162874e+02	-2.439524e-03
1.169591e+02	-2.467779e-03
1.176347e+02	-2.496360e-03
1.183141e+02	-2.525273e-03
1.189975e+02	-2.554520e-03
1.196848e+02	-2.584106e-03
1.203761e+02	-2.614035e-03
1.210714e+02	-2.644310e-03
1.217707e+02	-2.674935e-03
1.224740e+02	-2.705916e-03
1.231814e+02	-2.737254e-03
1.238929e+02	-2.768956e-03
1.246085e+02	-2.801025e-03
1.253283e+02	-2.833465e-03
1.260522e+02	-2.866280e-03
1.267802e+02	-2.899476e-03
1.275125e+02	-2.933056e-03
1.282490e+02	-2.967024e-03
1.289898e+02	-3.001386e-03
1.297348e+02	-3.036146e-03
1.304842e+02	-3.071308e-03
1.312378e+02	-3.106877e-03
1.319959e+02	-3.142858e-03
1.327583e+02	-3.179256e-03
1.335251e+02	-3.216075e-03
1.342963e+02	-3.253320e-03
1.350720e+02	-3.290996e-03
1.358522e+02	-3.329108e-03
1.366368e+02	-3.367662e-03
1.374260e+02	-3.406662e-03
1.382198e+02	-3.446113e-03
1.390182e+02	-3.486021e-03
1.398211e+02	-3.526391e-03
1.406287e+02	-3.567229e-03
1.414410e+02	-3.608539e-03
1.422579e+02	-3.650327e-03
1.430796e+02	-3.692599e-03
1.439060e+02	-3.735360e-03
1.447372e+02	-3.778617e-03
1.455732e+02	-3.822374e-03
1.464141e+02	-3.866637e-03
1.472597e+02	-3.911413e-03
1.481103e+02	-3.956707e-03
1.489658e+02	-4.002525e-03
1.498262e+02	-4.048874e-03
1.506916e+02	-4.095759e-03
1.515620e+02	-4.143187e-03
1.524374e+02	-4.191163e-03
1.533179e+02	-4.239695e-03
1.542034e+02	-4.288789e-03
1.550941e+02	-4.338451e-03
1.559899e+02	-4.388688e-03
1.568909e+02	-4.439506e-03
1.577971e+02	-4.490912e-03
1.587085e+02	-4.542913e-03
1.596252e+02	-4.595516e-03
1.605472e+02	-4.648727e-03
1.614745e+02	-4.702555e-03
1.624072e+02	-4.757005e-03
1.633453e+02	-4.812086e-03
1.642887e+02	-4.867804e-03
1.652377e+02	-4.924167e-03
1.661921e+02	-4.981182e-03
1.671520e+02	-5.038856e-03
1.681175e+02	-5.097198e-03
1.690885e+02	-5.156216e-03
1.700651e+02	-5.215916e-03
1.710474e+02	-5.276307e-03
1.720354e+02	-5.337396e-03
1.730291e+02	-5.399193e-03
1.740285e+02	-5.461705e-03
1.750337e+02	-5.524940e-03
1.760446e+02	-5.588906e-03
1.770615e+02	-5.653613e-03
1.780842e+02	-5.719068e-03
1.791128e+02	-5.785281e-03
1.801473e+02	-5.852260e-03
1.811878e+02	-5.920013e-03
1.822344e+02	-5.988551e-03
1.832870e+02	-6.057881e-03
1.843456e+02	-6.128013e-03
1.854104e+02	-6.198957e-03
1.864813e+02	-6.270722e-03
1.875584e+02	-6.343317e-03
1.886418e+02	-6.416751e-03
1.897313e+02	-6.491035e-03
1.908272e+02	-6.566178e-03
1.919294e+02	-6.642191e-03
1.930380e+02	-6.719083e-03
1.941530e+02	-6.796864e-03
1.952744e+02	-6.875545e-03
1.964023e+02	-6.955136e-03
1.975367e+02	-7.035647e-03
1.986777e+02	-7.117090e-03
1.998252e+02	-7.199475e-03
2.009794e+02	-7.282813e-03
2.021403e+02	-7.367114e-03
2.033078e+02	-7.452391e-03
2.044821e+02	-7.538653e-03
2.056632e+02	-7.625914e-03
2.068511e+02	-7.714183e-03
2.080459e+02	-7.803473e-03
2.092475e+02	-7.893796e-03
2.104561e+02	-7.985164e-03
2.116717e+02	-8.077587e-03
2.128943e+02	-8.171080e-03
2.141240e+02	-8.265654e-03
2.153608e+02	-8.361321e-03
2.166047e+02	-8.458095e-03
2.178558e+02	-8.555987e-03
2.191141e+02	-8.655011e-03
2.203797e+02	-8.755180e-03
2.216526e+02	-8.856508e-03
2.229329e+02	-8.959006e-03
2.242205e+02	-9.062690e-03
2.255156e+02	-9.167572e-03
2.268182e+02	-9.273667e-03
2.281283e+02	-9.380989e-03
2.294459e+02	-9.489551e-03
2.307712e+02	-9.599368e-03
2.321041e+02	-9.710454e-03
2.334447e+02	-9.822825e-03
2.347931e+02	-9.936494e-03
2.361493e+02	-1.005148e-02
2.375133e+02	-1.016779e-02
2.388851e+02	-1.028545e-02
2.402649e+02	-1.040446e-02
2.416527e+02	-1.052485e-02
2.430484e+02	-1.064664e-02
2.444523e+02	-1.076983e-02
2.458642e+02	-1.089444e-02
2.472843e+02	-1.102050e-02
2.487126e+02	-1.114801e-02
2.501492e+02	-1.127699e-02
2.515940e+02	-1.140747e-02
2.530472e+02	-1.153945e-02
2.545088e+02	-1.167296e-02
2.559789e+02	-1.180801e-02
2.574574e+02	-1.194462e-02
2.589444e+02	-1.208280e-02
2.604401e+02	-1.222259e-02
2.619444e+02	-1.236399e-02
2.634574e+02	-1.250702e-02
2.649791e+02	-1.265171e-02
2.665096e+02	-1.279806e-02
2.680489e+02	-1.294611e-02
2.695972e+02	-1.309587e-02
2.711544e+02	-1.324735e-02
2.727205e+02	-1.340059e-02
2.742958e+02	-1.355560e-02
2.758801e+02	-1.371239e-02
2.774736e+02	-1.387100e-02
2.790762e+02	-1.403144e-02
2.806882e+02	-1.419373e-02
2.823094e+02	-1.435789e-02
2.839400e+02	-1.452396e-02
2.855800e+02	-1.469193e-02
2.872295e+02	-1.486185e-02
2.888886e+02	-1.503373e-02
2.905572e+02	-1.520759e-02
2.922354e+02	-1.538346e-02
2.939234e+02	-1.556137e-02
2.956211e+02	-1.574132e-02
2.973286e+02	-1.592335e-02
2.990459e+02	-1.610749e-02
3.007732e+02	-1.629374e-02
3.025104e+02	-1.648215e-02
3.042577e+02	-1.667273e-02
3.060151e+02	-1.686551e-02
3.077826e+02	-1.706052e-02
3.095604e+02	-1.725778e-02
3.113484e+02	-1.745731e-02
3.131467e+02	-1.765914e-02
3.149554e+02	-1.786331e-02
3.167746e+02	-1.806983e-02
3.186043e+02	-1.827873e-02
3.204445e+02	-1.849004e-02
3.222954e+02	-1.870379e-02
3.241570e+02	-1.892000e-02
3.260293e+02	-1.913871e-02
3.279124e+02	-1.935994e-02
3.298064e+02	-1.958373e-02
3.317114e+02	-1.981009e-02
3.336273e+02	-2.003906e-02
3.355544e+02	-2.027068e-02
3.374925e+02	-2.050496e-02
3.394418e+02	-2.074195e-02
3.414024e+02	-2.098167e-02
3.433744e+02	-2.122415e-02
3.453577e+02	-2.146943e-02
3.473525e+02	-2.171753e-02
3.493588e+02	-2.196850e-02
3.513766e+02	-2.222235e-02
3.534062e+02	-2.247914e-02
3.554474e+02	-2.273888e-02
3.575005e+02	-2.300161e-02
3.595654e+02	-2.326738e-02
3.616422e+02	-2.353620e-02
3.637311e+02	-2.380813e-02
3.658320e+02	-2.408318e-02
3.679450e+02	-2.436141e-02
3.700702e+02	-2.464284e-02
3.722077e+02	-2.492751e-02
3.743576e+02	-2.521546e-02
3.765199e+02	-2.550673e-02
3.786946e+02	-2.580135e-02
3.808820e+02	-2.609936e-02
3.830819e+02	-2.640081e-02
3.852946e+02	-2.670573e-02
3.875200e+02	-2.701415e-02
3.897583e+02	-2.732613e-02
3.920096e+02	-2.764170e-02
3.942738e+02	-2.796090e-02
3.965511e+02	-2.828378e-02
3.988416e+02	-2.861037e-02
4.011452e+02	-2.894072e-02
4.034622e+02	-2.927487e-02
4.057926e+02	-2.961287e-02
4.081365e+02	-2.995476e-02
4.104938e+02	-3.030058e-02
4.128648e+02	-3.065037e-02
4.152495e+02	-3.100420e-02
4.176480e+02	-3.136209e-02
4.200603e+02	-3.172409e-02
4.224866e+02	-3.209026e-02
4.249268e+02	-3.246065e-02
4.273812e+02	-3.283528e-02
4.298497e+02	-3.321423e-02
4.323325e+02	-3.359753e-02
4.348297e+02	-3.398524e-02
4.373412e+02	-3.437741e-02
4.398673e+02	-3.477408e-02
4.424079e+02	-3.517531e-02
4.449633e+02	-3.558115e-02
4.475334e+02	-3.599166e-02
4.501183e+02	-3.640688e-02
4.527182e+02	-3.682687e-02
4.553330e+02	-3.725168e-02
4.579630e+02	-3.768138e-02
4.606082e+02	-3.811600e-02
4.632687e+02	-3.855562e-02
4.659445e+02	-3.900029e-02
4.686358e+02	-3.945006e-02
4.713426e+02	-3.990500e-02
4.740650e+02	-4.036515e-02
4.768032e+02	-4.083059e-02
4.795572e+02	-4.130137e-02
4.823271e+02	-4.177755e-02
4.851130e+02	-4.225919e-02
4.879150e+02	-4.274636e-02
4.907332e+02	-4.323912e-02
4.935676e+02	-4.373753e-02
4.964185e+02	-4.424165e-02
4.992858e+02	-4.475156e-02
5.021696e+02	-4.526731e-02
5.050701e+02	-4.578897e-02
5.079874e+02	-4.631661e-02
5.109215e+02	-4.685030e-02
5.138726e+02	-4.739011e-02
5.168407e+02	-4.793610e-02
5.198259e+02	-4.848835e-02
5.228284e+02	-4.904692e-02
5.258482e+02	-4.961189e-02
5.288855e+02	-5.018333e-02
5.319403e+02	-5.076132e-02
5.350128e+02	-5.134592e-02
5.381030e+02	-5.193721e-02
5.412111e+02	-5.253527e-02
5.443371e+02	-5.314018e-02
5.474812e+02	-5.375200e-02
5.506434e+02	-5.437083e-02
5.538239e+02	-5.499674e-02
5.570228e+02	-5.562980e-02
5.602401e+02	-5.627011e-02
5.634760e+02	-5.691774e-02
5.667306e+02	-5.757277e-02
5.700040e+02	-5.823529e-02
5.732964e+02	-5.890538e-02
5.766077e+02	-5.958313e-02
5.799382e+02	-6.026862e-02
5.832879e+02	-6.096194e-02
5.866569e+02	-6.166318e-02
5.900454e+02	-6.237243e-02
5.934535e+02	-6.308978e-02
5.968813e+02	-6.381532e-02
6.003288e+02	-6.454914e-02
6.037963e+02	-6.529133e-02
6.072838e+02	-6.604199e-02
6.107914e+02	-6.680122e-02
6.143194e+02	-6.756911e-02
6.178676e+02	-6.834575e-02
6.214364e+02	-6.913125e-02
6.250258e+02	-6.992570e-02
6.286359e+02	-7.072921e-02
6.322669e+02	-7.154188e-02
6.359189e+02	-7.236381e-02
6.395919e+02	-7.319510e-02
6.432862e+02	-7.403585e-02
6.470017e+02	-7.488618e-02
6.507388e+02	-7.574619e-02
6.544974e+02	-7.661599e-02
6.582778e+02	-7.749569e-02
6.620800e+02	-7.838540e-02
6.659041e+02	-7.928523e-02
6.697504e+02	-8.019530e-02
6.736188e+02	-8.111571e-02
6.775096e+02	-8.204658e-02
6.814229e+02	-8.298804e-02
6.853587e+02	-8.394019e-02
6.893173e+02	-8.490316e-02
6.932988e+02	-8.587707e-02
6.973033e+02	-8.686204e-02
7.013309e+02	-8.785819e-02
