Frequency(Hz)	Magnitude(dB)
1.000000e+01	-1.930811e+00
1.005776e+01	-1.948602e+00
1.011585e+01	-1.966850e+00
1.017428e+01	-1.985192e+00
1.023305e+01	-2.003541e+00
1.029215e+01	-2.022233e+00
1.035160e+01	-2.040873e+00
1.041139e+01	-2.059628e+00
1.047153e+01	-2.078510e+00
1.053201e+01	-2.097460e+00
1.059284e+01	-2.117018e+00
1.065403e+01	-2.136253e+00
1.071556e+01	-2.155787e+00
1.077746e+01	-2.175591e+00
1.083971e+01	-2.195218e+00
1.090232e+01	-2.215103e+00
1.096529e+01	-2.234936e+00
1.102862e+01	-2.255337e+00
1.109232e+01	-2.275795e+00
1.115639e+01	-2.296042e+00
1.122083e+01	-2.316745e+00
1.128564e+01	-2.337514e+00
1.135083e+01	-2.358415e+00
1.141639e+01	-2.379566e+00
1.148233e+01	-2.400604e+00
1.154865e+01	-2.421804e+00
1.161536e+01	-2.443721e+00
1.168245e+01	-2.465001e+00
1.174992e+01	-2.486697e+00
1.181779e+01	-2.508434e+00
1.188605e+01	-2.530691e+00
1.195470e+01	-2.552967e+00
1.202375e+01	-2.575366e+00
1.209320e+01	-2.597590e+00
1.216305e+01	-2.620143e+00
1.223330e+01	-2.642874e+00
1.230396e+01	-2.665641e+00
1.237503e+01	-2.688995e+00
1.244651e+01	-2.712095e+00
1.251840e+01	-2.735416e+00
1.259070e+01	-2.758959e+00
1.266343e+01	-2.782326e+00
1.273657e+01	-2.806103e+00
1.281014e+01	-2.829755e+00
1.288413e+01	-2.854105e+00
1.295855e+01	-2.878389e+00
1.303339e+01	-2.902484e+00
1.310867e+01	-2.926742e+00
1.318439e+01	-2.951348e+00
1.326054e+01	-2.976317e+00
1.333713e+01	-3.000970e+00
1.341417e+01	-3.026279e+00
1.349165e+01	-3.051353e+00
1.356958e+01	-3.076801e+00
1.364795e+01	-3.102199e+00
1.372678e+01	-3.127535e+00
1.380607e+01	-3.153571e+00
1.388581e+01	-3.179338e+00
1.396602e+01	-3.205344e+00
1.404668e+01	-3.231528e+00
1.412782e+01	-3.258002e+00
1.420942e+01	-3.284536e+00
1.429149e+01	-3.311322e+00
1.437404e+01	-3.338033e+00
1.445706e+01	-3.364572e+00
1.454057e+01	-3.391776e+00
1.462455e+01	-3.418872e+00
1.470902e+01	-3.446076e+00
1.479398e+01	-3.473780e+00
1.487943e+01	-3.501428e+00
1.496537e+01	-3.529139e+00
1.505181e+01	-3.557016e+00
1.513875e+01	-3.584755e+00
1.522619e+01	-3.613340e+00
1.531414e+01	-3.641545e+00
1.540259e+01	-3.670077e+00
1.549156e+01	-3.698753e+00
1.558103e+01	-3.727453e+00
1.567103e+01	-3.756133e+00
1.576155e+01	-3.785276e+00
1.585258e+01	-3.814659e+00
1.594415e+01	-3.843735e+00
1.603624e+01	-3.873027e+00
1.612886e+01	-3.902861e+00
1.622202e+01	-3.932812e+00
1.631572e+01	-3.962348e+00
1.640996e+01	-3.992383e+00
1.650474e+01	-4.022638e+00
1.660008e+01	-4.053031e+00
1.669596e+01	-4.083260e+00
1.679239e+01	-4.113810e+00
1.688938e+01	-4.144310e+00
1.698694e+01	-4.175601e+00
1.708505e+01	-4.206072e+00
1.718373e+01	-4.237384e+00
1.728299e+01	-4.268582e+00
1.738281e+01	-4.300014e+00
1.748322e+01	-4.331578e+00
1.758420e+01	-4.363096e+00
1.768576e+01	-4.394993e+00
1.778792e+01	-4.427036e+00
1.789066e+01	-4.459178e+00
1.799399e+01	-4.490845e+00
1.809793e+01	-4.523171e+00
1.820246e+01	-4.555706e+00
1.830760e+01	-4.588232e+00
1.841334e+01	-4.621088e+00
1.851969e+01	-4.653727e+00
1.862666e+01	-4.686929e+00
1.873425e+01	-4.719755e+00
1.884246e+01	-4.753269e+00
1.895129e+01	-4.786500e+00
1.906075e+01	-4.820027e+00
1.917085e+01	-4.853674e+00
1.928158e+01	-4.887323e+00
1.939295e+01	-4.920965e+00
1.950496e+01	-4.955100e+00
1.961762e+01	-4.989333e+00
1.973093e+01	-5.023507e+00
1.984490e+01	-5.057824e+00
1.995952e+01	-5.092206e+00
2.007480e+01	-5.127010e+00
2.019076e+01	-5.161510e+00
2.030738e+01	-5.196449e+00
2.042467e+01	-5.231426e+00
2.054264e+01	-5.266475e+00
2.066130e+01	-5.301794e+00
2.078064e+01	-5.337135e+00
2.090066e+01	-5.372441e+00
2.102139e+01	-5.408154e+00
2.114280e+01	-5.443776e+00
2.126492e+01	-5.479595e+00
2.138775e+01	-5.515082e+00
2.151128e+01	-5.551363e+00
2.163553e+01	-5.587457e+00
2.176050e+01	-5.623737e+00
2.188619e+01	-5.660348e+00
2.201260e+01	-5.696489e+00
2.213974e+01	-5.733623e+00
2.226762e+01	-5.770117e+00
2.239624e+01	-5.806934e+00
2.252560e+01	-5.844016e+00
2.265571e+01	-5.880737e+00
2.278656e+01	-5.918054e+00
2.291818e+01	-5.955319e+00
2.305055e+01	-5.992843e+00
2.318369e+01	-6.029882e+00
2.331760e+01	-6.068078e+00
2.345228e+01	-6.105736e+00
2.358774e+01	-6.143355e+00
2.372398e+01	-6.181434e+00
2.386101e+01	-6.218942e+00
2.399883e+01	-6.257329e+00
2.413745e+01	-6.295484e+00
2.427686e+01	-6.334012e+00
2.441709e+01	-6.372459e+00
2.455812e+01	-6.411123e+00
2.469997e+01	-6.449422e+00
2.484263e+01	-6.488694e+00
2.498612e+01	-6.526668e+00
2.513044e+01	-6.566277e+00
2.527559e+01	-6.605331e+00
2.542158e+01	-6.644297e+00
2.556842e+01	-6.683592e+00
2.571610e+01	-6.722615e+00
2.586463e+01	-6.762533e+00
2.601403e+01	-6.801858e+00
2.616428e+01	-6.841558e+00
2.631541e+01	-6.881025e+00
2.646740e+01	-6.921001e+00
2.662028e+01	-6.960841e+00
2.677404e+01	-7.000989e+00
2.692868e+01	-7.040948e+00
2.708422e+01	-7.081263e+00
2.724066e+01	-7.121478e+00
2.739800e+01	-7.162027e+00
2.755625e+01	-7.202801e+00
2.771541e+01	-7.242393e+00
2.787550e+01	-7.283146e+00
2.803650e+01	-7.324396e+00
2.819844e+01	-7.365011e+00
2.836131e+01	-7.406022e+00
2.852513e+01	-7.446841e+00
2.868989e+01	-7.488226e+00
2.885560e+01	-7.529371e+00
2.902227e+01	-7.570441e+00
2.918990e+01	-7.611398e+00
2.935850e+01	-7.652975e+00
2.952807e+01	-7.694502e+00
2.969863e+01	-7.735863e+00
2.987016e+01	-7.777826e+00
3.004269e+01	-7.819637e+00
3.021622e+01	-7.861340e+00
3.039075e+01	-7.902852e+00
3.056628e+01	-7.944900e+00
3.074283e+01	-7.987354e+00
3.092040e+01	-8.028881e+00
3.109900e+01	-8.071722e+00
3.127862e+01	-8.113828e+00
3.145929e+01	-8.155987e+00
3.164099e+01	-8.198277e+00
3.182375e+01	-8.240773e+00
3.200756e+01	-8.283375e+00
3.219244e+01	-8.326155e+00
3.237838e+01	-8.368688e+00
3.256540e+01	-8.411516e+00
3.275349e+01	-8.454695e+00
3.294268e+01	-8.497905e+00
3.313295e+01	-8.540615e+00
3.332433e+01	-8.583428e+00
3.351681e+01	-8.626741e+00
3.371040e+01	-8.670139e+00
3.390511e+01	-8.713140e+00
3.410094e+01	-8.756273e+00
3.429791e+01	-8.799961e+00
3.449601e+01	-8.843432e+00
3.469526e+01	-8.886726e+00
3.489566e+01	-8.930109e+00
3.509721e+01	-8.973636e+00
3.529993e+01	-9.017469e+00
3.550382e+01	-9.061764e+00
3.570889e+01	-9.105218e+00
3.591515e+01	-9.149314e+00
3.612259e+01	-9.193307e+00
3.633123e+01	-9.237602e+00
3.654108e+01	-9.281554e+00
3.675214e+01	-9.325078e+00
3.696442e+01	-9.369556e+00
3.717792e+01	-9.413872e+00
3.739266e+01	-9.458420e+00
3.760864e+01	-9.502737e+00
3.782587e+01	-9.546974e+00
3.804435e+01	-9.591766e+00
3.826409e+01	-9.636456e+00
3.848510e+01	-9.681460e+00
3.870739e+01	-9.725147e+00
3.893096e+01	-9.770084e+00
3.915583e+01	-9.815369e+00
3.938199e+01	-9.860068e+00
3.960946e+01	-9.904694e+00
3.983824e+01	-9.950085e+00
4.006834e+01	-9.994547e+00
4.029978e+01	-1.003950e+01
4.053255e+01	-1.008466e+01
4.076666e+01	-1.013012e+01
4.100213e+01	-1.017493e+01
4.123896e+01	-1.022078e+01
4.147715e+01	-1.026627e+01
4.171672e+01	-1.031119e+01
4.195767e+01	-1.035594e+01
4.220002e+01	-1.040183e+01
4.244377e+01	-1.044762e+01
4.268892e+01	-1.049311e+01
4.293549e+01	-1.053818e+01
4.318348e+01	-1.058400e+01
4.343291e+01	-1.063020e+01
4.368377e+01	-1.067507e+01
4.393609e+01	-1.072119e+01
4.418986e+01	-1.076735e+01
4.444510e+01	-1.081340e+01
4.470182e+01	-1.085857e+01
4.496001e+01	-1.090433e+01
4.521970e+01	-1.095119e+01
4.548089e+01	-1.099722e+01
4.574358e+01	-1.104323e+01
4.600779e+01	-1.108843e+01
4.627353e+01	-1.113508e+01
4.654081e+01	-1.118093e+01
4.680963e+01	-1.122734e+01
4.708000e+01	-1.127365e+01
4.735193e+01	-1.131977e+01
4.762543e+01	-1.136639e+01
4.790051e+01	-1.141295e+01
4.817719e+01	-1.145922e+01
4.845545e+01	-1.150563e+01
4.873533e+01	-1.155228e+01
4.901682e+01	-1.159855e+01
4.929994e+01	-1.164554e+01
4.958470e+01	-1.169216e+01
4.987110e+01	-1.173888e+01
5.015915e+01	-1.178621e+01
5.044887e+01	-1.183170e+01
5.074026e+01	-1.187944e+01
5.103333e+01	-1.192537e+01
5.132810e+01	-1.197224e+01
5.162457e+01	-1.202027e+01
5.192275e+01	-1.206594e+01
5.222265e+01	-1.211275e+01
5.252429e+01	-1.216049e+01
5.282767e+01	-1.220769e+01
5.313280e+01	-1.225435e+01
5.343969e+01	-1.230083e+01
5.374836e+01	-1.234869e+01
5.405880e+01	-1.239548e+01
5.437105e+01	-1.244279e+01
5.468509e+01	-1.248964e+01
5.500095e+01	-1.253630e+01
5.531863e+01	-1.258375e+01
5.563815e+01	-1.263144e+01
5.595951e+01	-1.267872e+01
5.628273e+01	-1.272607e+01
5.660782e+01	-1.277370e+01
5.693479e+01	-1.282130e+01
5.726364e+01	-1.286857e+01
5.759439e+01	-1.291570e+01
5.792705e+01	-1.296318e+01
5.826164e+01	-1.301059e+01
5.859815e+01	-1.305856e+01
5.893662e+01	-1.310561e+01
5.927703e+01	-1.315344e+01
5.961941e+01	-1.320112e+01
5.996377e+01	-1.324810e+01
6.031012e+01	-1.329722e+01
6.065847e+01	-1.334408e+01
6.100883e+01	-1.339212e+01
6.136121e+01	-1.343998e+01
6.171563e+01	-1.348752e+01
6.207210e+01	-1.353475e+01
6.243063e+01	-1.358250e+01
6.279122e+01	-1.363090e+01
6.315390e+01	-1.367934e+01
6.351868e+01	-1.372615e+01
6.388556e+01	-1.377422e+01
6.425456e+01	-1.382269e+01
6.462569e+01	-1.387049e+01
6.499897e+01	-1.391896e+01
6.537440e+01	-1.396680e+01
6.575200e+01	-1.401452e+01
6.613178e+01	-1.406349e+01
6.651375e+01	-1.411026e+01
6.689793e+01	-1.415841e+01
6.728433e+01	-1.420715e+01
6.767297e+01	-1.425488e+01
6.806384e+01	-1.430335e+01
6.845698e+01	-1.435196e+01
6.885238e+01	-1.439933e+01
6.925007e+01	-1.444770e+01
6.965005e+01	-1.449590e+01
7.005235e+01	-1.454398e+01
7.045697e+01	-1.459253e+01
7.086393e+01	-1.464146e+01
7.127323e+01	-1.468912e+01
7.168490e+01	-1.473817e+01
7.209895e+01	-1.478558e+01
7.251539e+01	-1.483416e+01
7.293424e+01	-1.488386e+01
7.335551e+01	-1.493118e+01
7.377920e+01	-1.497911e+01
7.420535e+01	-1.502899e+01
7.463396e+01	-1.507660e+01
7.506504e+01	-1.512485e+01
7.549861e+01	-1.517325e+01
7.593469e+01	-1.522188e+01
7.637328e+01	-1.527025e+01
7.681441e+01	-1.531917e+01
7.725809e+01	-1.536712e+01
7.770433e+01	-1.541571e+01
7.815315e+01	-1.546458e+01
7.860456e+01	-1.551274e+01
7.905857e+01	-1.556261e+01
7.951521e+01	-1.561105e+01
7.997449e+01	-1.566057e+01
8.043642e+01	-1.570852e+01
8.090102e+01	-1.575717e+01
8.136830e+01	-1.580535e+01
8.183828e+01	-1.585455e+01
8.231097e+01	-1.590329e+01
8.278640e+01	-1.595107e+01
8.326457e+01	-1.600000e+01
8.374550e+01	-1.604917e+01
8.422921e+01	-1.609822e+01
8.471572e+01	-1.614637e+01
8.520503e+01	-1.619621e+01
8.569717e+01	-1.624411e+01
8.619215e+01	-1.629223e+01
8.669000e+01	-1.634193e+01
8.719071e+01	-1.639043e+01
8.769432e+01	-1.644049e+01
8.820084e+01	-1.648825e+01
8.871029e+01	-1.653691e+01
8.922267e+01	-1.658711e+01
8.973802e+01	-1.663465e+01
9.025634e+01	-1.668482e+01
9.077766e+01	-1.673389e+01
9.130199e+01	-1.678165e+01
9.182935e+01	-1.683149e+01
9.235975e+01	-1.688040e+01
9.289321e+01	-1.692867e+01
9.342976e+01	-1.697869e+01
9.396941e+01	-1.702750e+01
9.451217e+01	-1.707742e+01
9.505807e+01	-1.712470e+01
9.560712e+01	-1.717439e+01
9.615934e+01	-1.722352e+01
9.671476e+01	-1.727218e+01
9.727338e+01	-1.732197e+01
9.783522e+01	-1.737039e+01
9.840032e+01	-1.742117e+01
9.896867e+01	-1.746898e+01
9.954031e+01	-1.751930e+01
1.001153e+02	-1.756828e+01
1.006935e+02	-1.761656e+01
1.012751e+02	-1.766599e+01
1.018601e+02	-1.771489e+01
1.024484e+02	-1.776438e+01
1.030402e+02	-1.781332e+01
1.036353e+02	-1.786393e+01
1.042339e+02	-1.791264e+01
1.048360e+02	-1.796037e+01
1.054415e+02	-1.800959e+01
1.060505e+02	-1.806019e+01
1.066631e+02	-1.811062e+01
1.072791e+02	-1.815811e+01
1.078988e+02	-1.820675e+01
1.085220e+02	-1.825609e+01
1.091488e+02	-1.830742e+01
1.097793e+02	-1.835610e+01
1.104133e+02	-1.840391e+01
1.110511e+02	-1.845408e+01
1.116925e+02	-1.850318e+01
1.123376e+02	-1.855317e+01
1.129865e+02	-1.860175e+01
1.136391e+02	-1.865200e+01
1.142955e+02	-1.870048e+01
1.149556e+02	-1.874981e+01
1.156196e+02	-1.880062e+01
1.162874e+02	-1.884831e+01
1.169591e+02	-1.889784e+01
1.176347e+02	-1.894623e+01
1.183141e+02	-1.899721e+01
1.189975e+02	-1.904674e+01
1.196848e+02	-1.909620e+01
1.203761e+02	-1.914626e+01
1.210714e+02	-1.919480e+01
1.217707e+02	-1.924346e+01
1.224740e+02	-1.929511e+01
1.231814e+02	-1.934264e+01
1.238929e+02	-1.939134e+01
1.246085e+02	-1.944278e+01
1.253283e+02	-1.949119e+01
1.260522e+02	-1.954018e+01
1.267802e+02	-1.959175e+01
1.275125e+02	-1.963900e+01
1.282490e+02	-1.968943e+01
1.289898e+02	-1.973920e+01
1.297348e+02	-1.978755e+01
1.304842e+02	-1.983813e+01
1.312378e+02	-1.988700e+01
1.319959e+02	-1.993750e+01
1.327583e+02	-1.998635e+01
1.335251e+02	-2.003443e+01
1.342963e+02	-2.008521e+01
1.350720e+02	-2.013438e+01
1.358522e+02	-2.018604e+01
1.366368e+02	-2.023600e+01
1.374260e+02	-2.028363e+01
1.382198e+02	-2.033266e+01
1.390182e+02	-2.038423e+01
1.398211e+02	-2.043076e+01
1.406287e+02	-2.048199e+01
1.414410e+02	-2.053044e+01
1.422579e+02	-2.058223e+01
1.430796e+02	-2.063073e+01
1.439060e+02	-2.068035e+01
1.447372e+02	-2.072952e+01
1.455732e+02	-2.078014e+01
1.464141e+02	-2.082714e+01
1.472597e+02	-2.087987e+01
1.481103e+02	-2.092971e+01
1.489658e+02	-2.097836e+01
1.498262e+02	-2.102745e+01
1.506916e+02	-2.107748e+01
1.515620e+02	-2.112573e+01
1.524374e+02	-2.117557e+01
1.533179e+02	-2.122661e+01
1.542034e+02	-2.127632e+01
1.550941e+02	-2.132795e+01
1.559899e+02	-2.137685e+01
1.568909e+02	-2.142522e+01
1.577971e+02	-2.147657e+01
1.587085e+02	-2.152491e+01
1.596252e+02	-2.157407e+01
1.605472e+02	-2.162296e+01
1.614745e+02	-2.167500e+01
1.624072e+02	-2.172249e+01
1.633453e+02	-2.177295e+01
1.642887e+02	-2.182296e+01
1.652377e+02	-2.187243e+01
1.661921e+02	-2.192216e+01
1.671520e+02	-2.197283e+01
1.681175e+02	-2.202123e+01
1.690885e+02	-2.207177e+01
1.700651e+02	-2.212340e+01
1.710474e+02	-2.217032e+01
1.720354e+02	-2.221949e+01
1.730291e+02	-2.226942e+01
1.740285e+02	-2.232086e+01
1.750337e+02	-2.236878e+01
1.760446e+02	-2.242005e+01
1.770615e+02	-2.246974e+01
1.780842e+02	-2.252132e+01
1.791128e+02	-2.256779e+01
1.801473e+02	-2.261727e+01
1.811878e+02	-2.266648e+01
1.822344e+02	-2.271506e+01
1.832870e+02	-2.276718e+01
1.843456e+02	-2.281753e+01
1.854104e+02	-2.286940e+01
1.864813e+02	-2.291912e+01
1.875584e+02	-2.296557e+01
1.886418e+02	-2.301697e+01
1.897313e+02	-2.306793e+01
1.908272e+02	-2.311591e+01
1.919294e+02	-2.316483e+01
1.930380e+02	-2.321607e+01
1.941530e+02	-2.326535e+01
1.952744e+02	-2.331648e+01
1.964023e+02	-2.336550e+01
1.975367e+02	-2.341480e+01
1.986777e+02	-2.346597e+01
1.998252e+02	-2.351505e+01
2.009794e+02	-2.356510e+01
2.021403e+02	-2.361327e+01
2.033078e+02	-2.366476e+01
2.044821e+02	-2.371343e+01
2.056632e+02	-2.376347e+01
2.068511e+02	-2.381373e+01
2.080459e+02	-2.386309e+01
2.092475e+02	-2.391662e+01
2.104561e+02	-2.396381e+01
2.116717e+02	-2.401464e+01
2.128943e+02	-2.406391e+01
2.141240e+02	-2.411424e+01
2.153608e+02	-2.416392e+01
2.166047e+02	-2.421131e+01
2.178558e+02	-2.426205e+01
2.191141e+02	-2.431381e+01
2.203797e+02	-2.436178e+01
2.216526e+02	-2.441240e+01
2.229329e+02	-2.446368e+01
2.242205e+02	-2.451261e+01
2.255156e+02	-2.456220e+01
2.268182e+02	-2.460965e+01
2.281283e+02	-2.466202e+01
2.294459e+02	-2.471331e+01
2.307712e+02	-2.476494e+01
2.321041e+02	-2.480903e+01
2.334447e+02	-2.486124e+01
2.347931e+02	-2.491103e+01
2.361493e+02	-2.495945e+01
2.375133e+02	-2.501187e+01
2.388851e+02	-2.506029e+01
2.402649e+02	-2.511220e+01
2.416527e+02	-2.516457e+01
2.430484e+02	-2.521161e+01
2.444523e+02	-2.525799e+01
2.458642e+02	-2.530798e+01
2.472843e+02	-2.536304e+01
2.487126e+02	-2.541277e+01
2.501492e+02	-2.545932e+01
2.515940e+02	-2.550961e+01
2.530472e+02	-2.556191e+01
2.545088e+02	-2.561349e+01
2.559789e+02	-2.565897e+01
2.574574e+02	-2.571231e+01
2.589444e+02	-2.575724e+01
2.604401e+02	-2.581127e+01
2.619444e+02	-2.585721e+01
2.634574e+02	-2.590885e+01
2.649791e+02	-2.596106e+01
2.665096e+02	-2.600942e+01
2.680489e+02	-2.606097e+01
2.695972e+02	-2.610988e+01
2.711544e+02	-2.615679e+01
2.727205e+02	-2.620981e+01
2.742958e+02	-2.625929e+01
2.758801e+02	-2.631238e+01
2.774736e+02	-2.635964e+01
2.790762e+02	-2.641098e+01
2.806882e+02	-2.645904e+01
2.823094e+02	-2.650665e+01
2.839400e+02	-2.655832e+01
2.855800e+02	-2.660615e+01
2.872295e+02	-2.666147e+01
2.888886e+02	-2.670964e+01
2.905572e+02	-2.675981e+01
2.922354e+02	-2.680844e+01
2.939234e+02	-2.686028e+01
2.956211e+02	-2.690980e+01
2.973286e+02	-2.696074e+01
2.990459e+02	-2.700916e+01
3.007732e+02	-2.705944e+01
3.025104e+02	-2.710774e+01
3.042577e+02	-2.716061e+01
3.060151e+02	-2.720805e+01
3.077826e+02	-2.725784e+01
3.095604e+02	-2.730907e+01
3.113484e+02	-2.735723e+01
3.131467e+02	-2.740974e+01
3.149554e+02	-2.746260e+01
3.167746e+02	-2.751034e+01
3.186043e+02	-2.756210e+01
3.204445e+02	-2.760472e+01
3.222954e+02	-2.765896e+01
3.241570e+02	-2.771119e+01
3.260293e+02	-2.775815e+01
3.279124e+02	-2.780902e+01
3.298064e+02	-2.786185e+01
3.317114e+02	-2.791056e+01
3.336273e+02	-2.795868e+01
3.355544e+02	-2.800894e+01
3.374925e+02	-2.806244e+01
3.394418e+02	-2.810809e+01
3.414024e+02	-2.815689e+01
3.433744e+02	-2.821022e+01
3.453577e+02	-2.825996e+01
3.473525e+02	-2.831058e+01
3.493588e+02	-2.836127e+01
3.513766e+02	-2.840933e+01
3.534062e+02	-2.846016e+01
3.554474e+02	-2.851017e+01
3.575005e+02	-2.855897e+01
3.595654e+02	-2.860740e+01
3.616422e+02	-2.866212e+01
3.637311e+02	-2.870815e+01
3.658320e+02	-2.876271e+01
3.679450e+02	-2.881544e+01
3.700702e+02	-2.885928e+01
3.722077e+02	-2.891448e+01
3.743576e+02	-2.896164e+01
3.765199e+02	-2.900960e+01
3.786946e+02	-2.906305e+01
3.808820e+02	-2.911353e+01
3.830819e+02	-2.915638e+01
3.852946e+02	-2.921537e+01
3.875200e+02	-2.926360e+01
3.897583e+02	-2.931040e+01
3.920096e+02	-2.935966e+01
3.942738e+02	-2.941096e+01
3.965511e+02	-2.946166e+01
3.988416e+02	-2.951201e+01
4.011452e+02	-2.956395e+01
4.034622e+02	-2.961063e+01
4.057926e+02	-2.966319e+01
4.081365e+02	-2.970933e+01
4.104938e+02	-2.975998e+01
4.128648e+02	-2.981176e+01
4.152495e+02	-2.986784e+01
4.176480e+02	-2.991262e+01
4.200603e+02	-2.995839e+01
4.224866e+02	-3.001037e+01
4.249268e+02	-3.006409e+01
4.273812e+02	-3.010935e+01
4.298497e+02	-3.016229e+01
4.323325e+02	-3.021496e+01
4.348297e+02	-3.026019e+01
4.373412e+02	-3.031193e+01
4.398673e+02	-3.036514e+01
4.424079e+02	-3.041270e+01
4.449633e+02	-3.046162e+01
4.475334e+02	-3.050979e+01
4.501183e+02	-3.056351e+01
4.527182e+02	-3.061357e+01
4.553330e+02	-3.066348e+01
4.579630e+02	-3.071583e+01
4.606082e+02	-3.076420e+01
4.632687e+02	-3.080872e+01
4.659445e+02	-3.086981e+01
4.686358e+02	-3.091671e+01
4.713426e+02	-3.096790e+01
4.740650e+02	-3.100696e+01
4.768032e+02	-3.106380e+01
4.795572e+02	-3.111360e+01
4.823271e+02	-3.116553e+01
4.851130e+02	-3.121261e+01
4.879150e+02	-3.126311e+01
4.907332e+02	-3.132474e+01
4.935676e+02	-3.136519e+01
4.964185e+02	-3.141315e+01
4.992858e+02	-3.146650e+01
5.021696e+02	-3.151815e+01
5.050701e+02	-3.156633e+01
5.079874e+02	-3.162010e+01
5.109215e+02	-3.166728e+01
5.138726e+02	-3.171886e+01
5.168407e+02	-3.176932e+01
5.198259e+02	-3.181642e+01
5.228284e+02	-3.186880e+01
5.258482e+02	-3.191709e+01
5.288855e+02	-3.197182e+01
5.319403e+02	-3.202166e+01
5.350128e+02	-3.206723e+01
5.381030e+02	-3.212753e+01
5.412111e+02	-3.217061e+01
5.443371e+02	-3.222133e+01
5.474812e+02	-3.226907e+01
5.506434e+02	-3.231731e+01
5.538239e+02	-3.237111e+01
5.570228e+02	-3.241766e+01
5.602401e+02	-3.247208e+01
5.634760e+02	-3.251942e+01
5.667306e+02	-3.256879e+01
5.700040e+02	-3.262153e+01
5.732964e+02	-3.266895e+01
5.766077e+02	-3.272637e+01
5.799382e+02	-3.277578e+01
5.832879e+02	-3.281851e+01
5.866569e+02	-3.287063e+01
5.900454e+02	-3.291858e+01
5.934535e+02	-3.297832e+01
5.968813e+02	-3.301844e+01
6.003288e+02	-3.306900e+01
6.037963e+02	-3.312485e+01
6.072838e+02	-3.317072e+01
6.107914e+02	-3.322619e+01
6.143194e+02	-3.327621e+01
6.178676e+02	-3.332926e+01
6.214364e+02	-3.336889e+01
6.250258e+02	-3.342444e+01
6.286359e+02	-3.347657e+01
6.322669e+02	-3.352787e+01
6.359189e+02	-3.357567e+01
6.395919e+02	-3.362549e+01
6.432862e+02	-3.367571e+01
6.470017e+02	-3.373281e+01
6.507388e+02	-3.378245e+01
6.544974e+02	-3.382780e+01
6.582778e+02	-3.388593e+01
6.620800e+02	-3.392631e+01
6.659041e+02	-3.397190e+01
6.697504e+02	-3.403292e+01
6.736188e+02	-3.408555e+01
6.775096e+02	-3.413862e+01
6.814229e+02	-3.417175e+01
6.853587e+02	-3.423190e+01
6.893173e+02	-3.427746e+01
6.932988e+02	-3.433484e+01
6.973033e+02	-3.438521e+01
7.013309e+02	-3.443452e+01
