Frequency(Hz)	Magnitude(dB)
1.000000e+01	-1.628817e-05
1.005776e+01	-1.647688e-05
1.011585e+01	-1.666777e-05
1.017428e+01	-1.686087e-05
1.023305e+01	-1.705620e-05
1.029215e+01	-1.725380e-05
1.035160e+01	-1.745369e-05
1.041139e+01	-1.765590e-05
1.047153e+01	-1.786045e-05
1.053201e+01	-1.806737e-05
1.059284e+01	-1.827668e-05
1.065403e+01	-1.848842e-05
1.071556e+01	-1.870261e-05
1.077746e+01	-1.891929e-05
1.083971e+01	-1.913847e-05
1.090232e+01	-1.936020e-05
1.096529e+01	-1.958449e-05
1.102862e+01	-1.981138e-05
1.109232e+01	-2.004090e-05
1.115639e+01	-2.027308e-05
1.122083e+01	-2.050795e-05
1.128564e+01	-2.074554e-05
1.135083e+01	-2.098588e-05
1.141639e+01	-2.122901e-05
1.148233e+01	-2.147495e-05
1.154865e+01	-2.172374e-05
1.161536e+01	-2.197542e-05
1.168245e+01	-2.223001e-05
1.174992e+01	-2.248755e-05
1.181779e+01	-2.274807e-05
1.188605e+01	-2.301162e-05
1.195470e+01	-2.327821e-05
1.202375e+01	-2.354789e-05
1.209320e+01	-2.382070e-05
1.216305e+01	-2.409667e-05
1.223330e+01	-2.437584e-05
1.230396e+01	-2.465824e-05
1.237503e+01	-2.494391e-05
1.244651e+01	-2.523289e-05
1.251840e+01	-2.552522e-05
1.259070e+01	-2.582094e-05
1.266343e+01	-2.612008e-05
1.273657e+01	-2.642269e-05
1.281014e+01	-2.672880e-05
1.288413e+01	-2.703846e-05
1.295855e+01	-2.735171e-05
1.303339e+01	-2.766858e-05
1.310867e+01	-2.798913e-05
1.318439e+01	-2.831339e-05
1.326054e+01	-2.864141e-05
1.333713e+01	-2.897322e-05
1.341417e+01	-2.930889e-05
1.349165e+01	-2.964844e-05
1.356958e+01	-2.999192e-05
1.364795e+01	-3.033938e-05
1.372678e+01	-3.069087e-05
1.380607e+01	-3.104643e-05
1.388581e+01	-3.140612e-05
1.396602e+01	-3.176996e-05
1.404668e+01	-3.213803e-05
1.412782e+01	-3.251035e-05
1.420942e+01	-3.288699e-05
1.429149e+01	-3.326800e-05
1.437404e+01	-3.365341e-05
1.445706e+01	-3.404330e-05
1.454057e+01	-3.443770e-05
1.462455e+01	-3.483666e-05
1.470902e+01	-3.524025e-05
1.479398e+01	-3.564852e-05
1.487943e+01	-3.606152e-05
1.496537e+01	-3.647930e-05
1.505181e+01	-3.690192e-05
1.513875e+01	-3.732944e-05
1.522619e+01	-3.776191e-05
1.531414e+01	-3.819939e-05
1.540259e+01	-3.864194e-05
1.549156e+01	-3.908961e-05
1.558103e+01	-3.954247e-05
1.567103e+01	-4.000058e-05
1.576155e+01	-4.046400e-05
1.585258e+01	-4.093278e-05
1.594415e+01	-4.140700e-05
1.603624e+01	-4.188671e-05
1.612886e+01	-4.237197e-05
1.622202e+01	-4.286286e-05
1.631572e+01	-4.335944e-05
1.640996e+01	-4.386177e-05
1.650474e+01	-4.436992e-05
1.660008e+01	-4.488395e-05
1.669596e+01	-4.540394e-05
1.679239e+01	-4.592996e-05
1.688938e+01	-4.646206e-05
1.698694e+01	-4.700034e-05
1.708505e+01	-4.754485e-05
1.718373e+01	-4.809566e-05
1.728299e+01	-4.865286e-05
1.738281e+01	-4.921652e-05
1.748322e+01	-4.978670e-05
1.758420e+01	-5.036349e-05
1.768576e+01	-5.094696e-05
1.778792e+01	-5.153719e-05
1.789066e+01	-5.213426e-05
1.799399e+01	-5.273825e-05
1.809793e+01	-5.334923e-05
1.820246e+01	-5.396729e-05
1.830760e+01	-5.459252e-05
1.841334e+01	-5.522498e-05
1.851969e+01	-5.586477e-05
1.862666e+01	-5.651198e-05
1.873425e+01	-5.716668e-05
1.884246e+01	-5.782897e-05
1.895129e+01	-5.849893e-05
1.906075e+01	-5.917665e-05
1.917085e+01	-5.986223e-05
1.928158e+01	-6.055574e-05
1.939295e+01	-6.125729e-05
1.950496e+01	-6.196697e-05
1.961762e+01	-6.268487e-05
1.973093e+01	-6.341109e-05
1.984490e+01	-6.414571e-05
1.995952e+01	-6.488886e-05
2.007480e+01	-6.564061e-05
2.019076e+01	-6.640106e-05
2.030738e+01	-6.717033e-05
2.042467e+01	-6.794851e-05
2.054264e+01	-6.873571e-05
2.066130e+01	-6.953203e-05
2.078064e+01	-7.033757e-05
2.090066e+01	-7.115244e-05
2.102139e+01	-7.197676e-05
2.114280e+01	-7.281062e-05
2.126492e+01	-7.365414e-05
2.138775e+01	-7.450744e-05
2.151128e+01	-7.537062e-05
2.163553e+01	-7.624380e-05
2.176050e+01	-7.712710e-05
2.188619e+01	-7.802063e-05
2.201260e+01	-7.892452e-05
2.213974e+01	-7.983887e-05
2.226762e+01	-8.076382e-05
2.239624e+01	-8.169948e-05
2.252560e+01	-8.264598e-05
2.265571e+01	-8.360345e-05
2.278656e+01	-8.457201e-05
2.291818e+01	-8.555179e-05
2.305055e+01	-8.654292e-05
2.318369e+01	-8.754554e-05
2.331760e+01	-8.855977e-05
2.345228e+01	-8.958574e-05
2.358774e+01	-9.062361e-05
2.372398e+01	-9.167350e-05
2.386101e+01	-9.273555e-05
2.399883e+01	-9.380991e-05
2.413745e+01	-9.489671e-05
2.427686e+01	-9.599610e-05
2.441709e+01	-9.710823e-05
2.455812e+01	-9.823324e-05
2.469997e+01	-9.937129e-05
2.484263e+01	-1.005225e-04
2.498612e+01	-1.016871e-04
2.513044e+01	-1.028651e-04
2.527559e+01	-1.040569e-04
2.542158e+01	-1.052624e-04
2.556842e+01	-1.064818e-04
2.571610e+01	-1.077155e-04
2.586463e+01	-1.089634e-04
2.601403e+01	-1.102257e-04
2.616428e+01	-1.115027e-04
2.631541e+01	-1.127945e-04
2.646740e+01	-1.141012e-04
2.662028e+01	-1.154231e-04
2.677404e+01	-1.167603e-04
2.692868e+01	-1.181129e-04
2.708422e+01	-1.194813e-04
2.724066e+01	-1.208655e-04
2.739800e+01	-1.222657e-04
2.755625e+01	-1.236822e-04
2.771541e+01	-1.251151e-04
2.787550e+01	-1.265646e-04
2.803650e+01	-1.280308e-04
2.819844e+01	-1.295141e-04
2.836131e+01	-1.310145e-04
2.852513e+01	-1.325323e-04
2.868989e+01	-1.340677e-04
2.885560e+01	-1.356209e-04
2.902227e+01	-1.371921e-04
2.918990e+01	-1.387815e-04
2.935850e+01	-1.403893e-04
2.952807e+01	-1.420157e-04
2.969863e+01	-1.436610e-04
2.987016e+01	-1.453253e-04
3.004269e+01	-1.470089e-04
3.021622e+01	-1.487120e-04
3.039075e+01	-1.504348e-04
3.056628e+01	-1.521776e-04
3.074283e+01	-1.539406e-04
3.092040e+01	-1.557240e-04
3.109900e+01	-1.575281e-04
3.127862e+01	-1.593531e-04
3.145929e+01	-1.611992e-04
3.164099e+01	-1.630667e-04
3.182375e+01	-1.649558e-04
3.200756e+01	-1.668669e-04
3.219244e+01	-1.688000e-04
3.237838e+01	-1.707556e-04
3.256540e+01	-1.727338e-04
3.275349e+01	-1.747349e-04
3.294268e+01	-1.767592e-04
3.313295e+01	-1.788070e-04
3.332433e+01	-1.808785e-04
3.351681e+01	-1.829740e-04
3.371040e+01	-1.850937e-04
3.390511e+01	-1.872380e-04
3.410094e+01	-1.894072e-04
3.429791e+01	-1.916015e-04
3.449601e+01	-1.938212e-04
3.469526e+01	-1.960666e-04
3.489566e+01	-1.983380e-04
3.509721e+01	-2.006358e-04
3.529993e+01	-2.029602e-04
3.550382e+01	-2.053115e-04
3.570889e+01	-2.076900e-04
3.591515e+01	-2.100961e-04
3.612259e+01	-2.125300e-04
3.633123e+01	-2.149922e-04
3.654108e+01	-2.174829e-04
3.675214e+01	-2.200024e-04
3.696442e+01	-2.225511e-04
3.717792e+01	-2.251294e-04
3.739266e+01	-2.277375e-04
3.760864e+01	-2.303758e-04
3.782587e+01	-2.330447e-04
3.804435e+01	-2.357445e-04
3.826409e+01	-2.384756e-04
3.848510e+01	-2.412384e-04
3.870739e+01	-2.440331e-04
3.893096e+01	-2.468602e-04
3.915583e+01	-2.497201e-04
3.938199e+01	-2.526131e-04
3.960946e+01	-2.555396e-04
3.983824e+01	-2.585000e-04
4.006834e+01	-2.614947e-04
4.029978e+01	-2.645241e-04
4.053255e+01	-2.675886e-04
4.076666e+01	-2.706886e-04
4.100213e+01	-2.738245e-04
4.123896e+01	-2.769967e-04
4.147715e+01	-2.802057e-04
4.171672e+01	-2.834518e-04
4.195767e+01	-2.867356e-04
4.220002e+01	-2.900574e-04
4.244377e+01	-2.934177e-04
4.268892e+01	-2.968169e-04
4.293549e+01	-3.002555e-04
4.318348e+01	-3.037339e-04
4.343291e+01	-3.072526e-04
4.368377e+01	-3.108121e-04
4.393609e+01	-3.144128e-04
4.418986e+01	-3.180552e-04
4.444510e+01	-3.217399e-04
4.470182e+01	-3.254672e-04
4.496001e+01	-3.292376e-04
4.521970e+01	-3.330518e-04
4.548089e+01	-3.369102e-04
4.574358e+01	-3.408132e-04
4.600779e+01	-3.447615e-04
4.627353e+01	-3.487555e-04
4.654081e+01	-3.527957e-04
4.680963e+01	-3.568828e-04
4.708000e+01	-3.610172e-04
4.735193e+01	-3.651995e-04
4.762543e+01	-3.694303e-04
4.790051e+01	-3.737100e-04
4.817719e+01	-3.780394e-04
4.845545e+01	-3.824189e-04
4.873533e+01	-3.868491e-04
4.901682e+01	-3.913307e-04
4.929994e+01	-3.958641e-04
4.958470e+01	-4.004501e-04
4.987110e+01	-4.050892e-04
5.015915e+01	-4.097821e-04
5.044887e+01	-4.145293e-04
5.074026e+01	-4.193315e-04
5.103333e+01	-4.241893e-04
5.132810e+01	-4.291034e-04
5.162457e+01	-4.340745e-04
5.192275e+01	-4.391031e-04
5.222265e+01	-4.441900e-04
5.252429e+01	-4.493358e-04
5.282767e+01	-4.545412e-04
5.313280e+01	-4.598069e-04
5.343969e+01	-4.651336e-04
5.374836e+01	-4.705220e-04
5.405880e+01	-4.759728e-04
5.437105e+01	-4.814868e-04
5.468509e+01	-4.870646e-04
5.500095e+01	-4.927071e-04
5.531863e+01	-4.984149e-04
5.563815e+01	-5.041888e-04
5.595951e+01	-5.100297e-04
5.628273e+01	-5.159382e-04
5.660782e+01	-5.219151e-04
5.693479e+01	-5.279612e-04
5.726364e+01	-5.340774e-04
5.759439e+01	-5.402645e-04
5.792705e+01	-5.465232e-04
5.826164e+01	-5.528544e-04
5.859815e+01	-5.592590e-04
5.893662e+01	-5.657377e-04
5.927703e+01	-5.722915e-04
5.961941e+01	-5.789213e-04
5.996377e+01	-5.856278e-04
6.031012e+01	-5.924120e-04
6.065847e+01	-5.992747e-04
6.100883e+01	-6.062170e-04
6.136121e+01	-6.132397e-04
6.171563e+01	-6.203438e-04
6.207210e+01	-6.275301e-04
6.243063e+01	-6.347997e-04
6.279122e+01	-6.421535e-04
6.315390e+01	-6.495924e-04
6.351868e+01	-6.571176e-04
6.388556e+01	-6.647299e-04
6.425456e+01	-6.724303e-04
6.462569e+01	-6.802200e-04
6.499897e+01	-6.880999e-04
6.537440e+01	-6.960711e-04
6.575200e+01	-7.041346e-04
6.613178e+01	-7.122916e-04
6.651375e+01	-7.205430e-04
6.689793e+01	-7.288900e-04
6.728433e+01	-7.373336e-04
6.767297e+01	-7.458751e-04
6.806384e+01	-7.545155e-04
6.845698e+01	-7.632560e-04
6.885238e+01	-7.720978e-04
6.925007e+01	-7.810419e-04
6.965005e+01	-7.900897e-04
7.005235e+01	-7.992423e-04
7.045697e+01	-8.085008e-04
7.086393e+01	-8.178667e-04
7.127323e+01	-8.273410e-04
7.168490e+01	-8.369250e-04
7.209895e+01	-8.466201e-04
7.251539e+01	-8.564274e-04
7.293424e+01	-8.663484e-04
7.335551e+01	-8.763843e-04
7.377920e+01	-8.865364e-04
7.420535e+01	-8.968061e-04
7.463396e+01	-9.071947e-04
7.506504e+01	-9.177037e-04
7.549861e+01	-9.283344e-04
7.593469e+01	-9.390883e-04
7.637328e+01	-9.499667e-04
7.681441e+01	-9.609711e-04
7.725809e+01	-9.721030e-04
7.770433e+01	-9.833638e-04
7.815315e+01	-9.947550e-04
7.860456e+01	-1.006278e-03
7.905857e+01	-1.017935e-03
7.951521e+01	-1.029726e-03
7.997449e+01	-1.041655e-03
8.043642e+01	-1.053721e-03
8.090102e+01	-1.065927e-03
8.136830e+01	-1.078275e-03
8.183828e+01	-1.090765e-03
8.231097e+01	-1.103401e-03
8.278640e+01	-1.116182e-03
8.326457e+01	-1.129112e-03
8.374550e+01	-1.142191e-03
8.422921e+01	-1.155422e-03
8.471572e+01	-1.168806e-03
8.520503e+01	-1.182345e-03
8.569717e+01	-1.196041e-03
8.619215e+01	-1.209895e-03
8.669000e+01	-1.223910e-03
8.719071e+01	-1.238088e-03
8.769432e+01	-1.252429e-03
8.820084e+01	-1.266937e-03
8.871029e+01	-1.281612e-03
8.922267e+01	-1.296458e-03
8.973802e+01	-1.311476e-03
9.025634e+01	-1.326667e-03
9.077766e+01	-1.342035e-03
9.130199e+01	-1.357580e-03
9.182935e+01	-1.373305e-03
9.235975e+01	-1.389213e-03
9.289321e+01	-1.405305e-03
9.342976e+01	-1.421583e-03
9.396941e+01	-1.438050e-03
9.451217e+01	-1.454707e-03
9.505807e+01	-1.471557e-03
9.560712e+01	-1.488603e-03
9.615934e+01	-1.505846e-03
9.671476e+01	-1.523288e-03
9.727338e+01	-1.540933e-03
9.783522e+01	-1.558782e-03
9.840032e+01	-1.576837e-03
9.896867e+01	-1.595102e-03
9.954031e+01	-1.613578e-03
1.001153e+02	-1.632269e-03
1.006935e+02	-1.651175e-03
1.012751e+02	-1.670301e-03
1.018601e+02	-1.689648e-03
1.024484e+02	-1.709219e-03
1.030402e+02	-1.729017e-03
1.036353e+02	-1.749044e-03
1.042339e+02	-1.769303e-03
1.048360e+02	-1.789797e-03
1.054415e+02	-1.810528e-03
1.060505e+02	-1.831499e-03
1.066631e+02	-1.852713e-03
1.072791e+02	-1.874172e-03
1.078988e+02	-1.895880e-03
1.085220e+02	-1.917840e-03
1.091488e+02	-1.940053e-03
1.097793e+02	-1.962524e-03
1.104133e+02	-1.985255e-03
1.110511e+02	-2.008250e-03
1.116925e+02	-2.031510e-03
1.123376e+02	-2.055040e-03
1.129865e+02	-2.078843e-03
1.136391e+02	-2.102921e-03
1.142955e+02	-2.127278e-03
1.149556e+02	-2.151917e-03
1.156196e+02	-2.176841e-03
1.162874e+02	-2.202054e-03
1.169591e+02	-2.227559e-03
1.176347e+02	-2.253359e-03
1.183141e+02	-2.279458e-03
1.189975e+02	-2.305859e-03
1.196848e+02	-2.332566e-03
1.203761e+02	-2.359582e-03
1.210714e+02	-2.386911e-03
1.217707e+02	-2.414556e-03
1.224740e+02	-2.442521e-03
1.231814e+02	-2.470811e-03
1.238929e+02	-2.499427e-03
1.246085e+02	-2.528376e-03
1.253283e+02	-2.557659e-03
1.260522e+02	-2.587281e-03
1.267802e+02	-2.617246e-03
1.275125e+02	-2.647559e-03
1.282490e+02	-2.678222e-03
1.289898e+02	-2.709240e-03
1.297348e+02	-2.740617e-03
1.304842e+02	-2.772358e-03
1.312378e+02	-2.804466e-03
1.319959e+02	-2.836946e-03
1.327583e+02	-2.869802e-03
1.335251e+02	-2.903038e-03
1.342963e+02	-2.936659e-03
1.350720e+02	-2.970670e-03
1.358522e+02	-3.005074e-03
1.366368e+02	-3.039876e-03
1.374260e+02	-3.075081e-03
1.382198e+02	-3.110694e-03
1.390182e+02	-3.146719e-03
1.398211e+02	-3.183161e-03
1.406287e+02	-3.220025e-03
1.414410e+02	-3.257316e-03
1.422579e+02	-3.295039e-03
1.430796e+02	-3.333198e-03
1.439060e+02	-3.371799e-03
1.447372e+02	-3.410847e-03
1.455732e+02	-3.450347e-03
1.464141e+02	-3.490304e-03
1.472597e+02	-3.530723e-03
1.481103e+02	-3.571611e-03
1.489658e+02	-3.612972e-03
1.498262e+02	-3.654811e-03
1.506916e+02	-3.697135e-03
1.515620e+02	-3.739949e-03
1.524374e+02	-3.783258e-03
1.533179e+02	-3.827069e-03
1.542034e+02	-3.871387e-03
1.550941e+02	-3.916217e-03
1.559899e+02	-3.961567e-03
1.568909e+02	-4.007442e-03
1.577971e+02	-4.053847e-03
1.587085e+02	-4.100790e-03
1.596252e+02	-4.148276e-03
1.605472e+02	-4.196311e-03
1.614745e+02	-4.244903e-03
1.624072e+02	-4.294057e-03
1.633453e+02	-4.343780e-03
1.642887e+02	-4.394078e-03
1.652377e+02	-4.444958e-03
1.661921e+02	-4.496428e-03
1.671520e+02	-4.548493e-03
1.681175e+02	-4.601160e-03
1.690885e+02	-4.654437e-03
1.700651e+02	-4.708331e-03
1.710474e+02	-4.762848e-03
1.720354e+02	-4.817996e-03
1.730291e+02	-4.873782e-03
1.740285e+02	-4.930214e-03
1.750337e+02	-4.987299e-03
1.760446e+02	-5.045045e-03
1.770615e+02	-5.103459e-03
1.780842e+02	-5.162548e-03
1.791128e+02	-5.222322e-03
1.801473e+02	-5.282787e-03
1.811878e+02	-5.343951e-03
1.822344e+02	-5.405824e-03
1.832870e+02	-5.468412e-03
1.843456e+02	-5.531725e-03
1.854104e+02	-5.595770e-03
1.864813e+02	-5.660556e-03
1.875584e+02	-5.726091e-03
1.886418e+02	-5.792385e-03
1.897313e+02	-5.859446e-03
1.908272e+02	-5.927283e-03
1.919294e+02	-5.995904e-03
1.930380e+02	-6.065320e-03
1.941530e+02	-6.135538e-03
1.952744e+02	-6.206569e-03
1.964023e+02	-6.278422e-03
1.975367e+02	-6.351106e-03
1.986777e+02	-6.424630e-03
1.998252e+02	-6.499005e-03
2.009794e+02	-6.574241e-03
2.021403e+02	-6.650347e-03
2.033078e+02	-6.727333e-03
2.044821e+02	-6.805209e-03
2.056632e+02	-6.883987e-03
2.068511e+02	-6.963675e-03
2.080459e+02	-7.044286e-03
2.092475e+02	-7.125829e-03
2.104561e+02	-7.208314e-03
2.116717e+02	-7.291754e-03
2.128943e+02	-7.376159e-03
2.141240e+02	-7.461540e-03
2.153608e+02	-7.547909e-03
2.166047e+02	-7.635276e-03
2.178558e+02	-7.723654e-03
2.191141e+02	-7.813053e-03
2.203797e+02	-7.903487e-03
2.216526e+02	-7.994966e-03
2.229329e+02	-8.087504e-03
2.242205e+02	-8.181111e-03
2.255156e+02	-8.275801e-03
2.268182e+02	-8.371585e-03
2.281283e+02	-8.468477e-03
2.294459e+02	-8.566490e-03
2.307712e+02	-8.665635e-03
2.321041e+02	-8.765927e-03
2.334447e+02	-8.867379e-03
2.347931e+02	-8.970003e-03
2.361493e+02	-9.073814e-03
2.375133e+02	-9.178825e-03
2.388851e+02	-9.285050e-03
2.402649e+02	-9.392503e-03
2.416527e+02	-9.501198e-03
2.430484e+02	-9.611149e-03
2.444523e+02	-9.722372e-03
2.458642e+02	-9.834880e-03
2.472843e+02	-9.948689e-03
2.487126e+02	-1.006381e-02
2.501492e+02	-1.018027e-02
2.515940e+02	-1.029807e-02
2.530472e+02	-1.041723e-02
2.545088e+02	-1.053777e-02
2.559789e+02	-1.065970e-02
2.574574e+02	-1.078304e-02
2.589444e+02	-1.090781e-02
2.604401e+02	-1.103402e-02
2.619444e+02	-1.116169e-02
2.634574e+02	-1.129083e-02
2.649791e+02	-1.142146e-02
2.665096e+02	-1.155361e-02
2.680489e+02	-1.168728e-02
2.695972e+02	-1.182249e-02
2.711544e+02	-1.195927e-02
2.727205e+02	-1.209763e-02
2.742958e+02	-1.223758e-02
2.758801e+02	-1.237916e-02
2.774736e+02	-1.252236e-02
2.790762e+02	-1.266723e-02
2.806882e+02	-1.281376e-02
2.823094e+02	-1.296199e-02
2.839400e+02	-1.311193e-02
2.855800e+02	-1.326360e-02
2.872295e+02	-1.341703e-02
2.888886e+02	-1.357222e-02
2.905572e+02	-1.372921e-02
2.922354e+02	-1.388801e-02
2.939234e+02	-1.404865e-02
2.956211e+02	-1.421114e-02
2.973286e+02	-1.437550e-02
2.990459e+02	-1.454177e-02
3.007732e+02	-1.470995e-02
3.025104e+02	-1.488008e-02
3.042577e+02	-1.505217e-02
3.060151e+02	-1.522624e-02
3.077826e+02	-1.540233e-02
3.095604e+02	-1.558045e-02
3.113484e+02	-1.576062e-02
3.131467e+02	-1.594288e-02
3.149554e+02	-1.612724e-02
3.167746e+02	-1.631372e-02
3.186043e+02	-1.650236e-02
3.204445e+02	-1.669317e-02
3.222954e+02	-1.688619e-02
3.241570e+02	-1.708144e-02
3.260293e+02	-1.727893e-02
3.279124e+02	-1.747871e-02
3.298064e+02	-1.768079e-02
3.317114e+02	-1.788521e-02
3.336273e+02	-1.809198e-02
3.355544e+02	-1.830113e-02
3.374925e+02	-1.851270e-02
3.394418e+02	-1.872671e-02
3.414024e+02	-1.894319e-02
3.433744e+02	-1.916217e-02
3.453577e+02	-1.938367e-02
3.473525e+02	-1.960773e-02
3.493588e+02	-1.983437e-02
3.513766e+02	-2.006362e-02
3.534062e+02	-2.029552e-02
3.554474e+02	-2.053009e-02
3.575005e+02	-2.076736e-02
3.595654e+02	-2.100737e-02
3.616422e+02	-2.125015e-02
3.637311e+02	-2.149573e-02
3.658320e+02	-2.174414e-02
3.679450e+02	-2.199541e-02
3.700702e+02	-2.224958e-02
3.722077e+02	-2.250667e-02
3.743576e+02	-2.276673e-02
3.765199e+02	-2.302979e-02
3.786946e+02	-2.329588e-02
3.808820e+02	-2.356503e-02
3.830819e+02	-2.383729e-02
3.852946e+02	-2.411268e-02
3.875200e+02	-2.439124e-02
3.897583e+02	-2.467301e-02
3.920096e+02	-2.495803e-02
3.942738e+02	-2.524634e-02
3.965511e+02	-2.553796e-02
3.988416e+02	-2.583294e-02
4.011452e+02	-2.613132e-02
4.034622e+02	-2.643313e-02
4.057926e+02	-2.673842e-02
4.081365e+02	-2.704722e-02
4.104938e+02	-2.735958e-02
4.128648e+02	-2.767554e-02
4.152495e+02	-2.799513e-02
4.176480e+02	-2.831840e-02
4.200603e+02	-2.864539e-02
4.224866e+02	-2.897614e-02
4.249268e+02	-2.931070e-02
4.273812e+02	-2.964911e-02
4.298497e+02	-2.999141e-02
4.323325e+02	-3.033765e-02
4.348297e+02	-3.068788e-02
4.373412e+02	-3.104213e-02
4.398673e+02	-3.140045e-02
4.424079e+02	-3.176290e-02
4.449633e+02	-3.212952e-02
4.475334e+02	-3.250035e-02
4.501183e+02	-3.287545e-02
4.527182e+02	-3.325485e-02
4.553330e+02	-3.363862e-02
4.579630e+02	-3.402680e-02
4.606082e+02	-3.441945e-02
4.632687e+02	-3.481660e-02
4.659445e+02	-3.521832e-02
4.686358e+02	-3.562466e-02
4.713426e+02	-3.603566e-02
4.740650e+02	-3.645138e-02
4.768032e+02	-3.687189e-02
4.795572e+02	-3.729722e-02
4.823271e+02	-3.772743e-02
4.851130e+02	-3.816259e-02
4.879150e+02	-3.860274e-02
4.907332e+02	-3.904795e-02
4.935676e+02	-3.949827e-02
4.964185e+02	-3.995375e-02
4.992858e+02	-4.041447e-02
5.021696e+02	-4.088047e-02
5.050701e+02	-4.135182e-02
5.079874e+02	-4.182858e-02
5.109215e+02	-4.231081e-02
5.138726e+02	-4.279857e-02
5.168407e+02	-4.329192e-02
5.198259e+02	-4.379094e-02
5.228284e+02	-4.429567e-02
5.258482e+02	-4.480620e-02
5.288855e+02	-4.532257e-02
5.319403e+02	-4.584487e-02
5.350128e+02	-4.637315e-02
5.381030e+02	-4.690749e-02
5.412111e+02	-4.744795e-02
5.443371e+02	-4.799460e-02
5.474812e+02	-4.854752e-02
5.506434e+02	-4.910677e-02
5.538239e+02	-4.967242e-02
5.570228e+02	-5.024455e-02
5.602401e+02	-5.082324e-02
5.634760e+02	-5.140855e-02
5.667306e+02	-5.200056e-02
5.700040e+02	-5.259934e-02
5.732964e+02	-5.320498e-02
5.766077e+02	-5.381755e-02
5.799382e+02	-5.443712e-02
5.832879e+02	-5.506379e-02
5.866569e+02	-5.569762e-02
5.900454e+02	-5.633870e-02
5.934535e+02	-5.698711e-02
5.968813e+02	-5.764293e-02
6.003288e+02	-5.830625e-02
6.037963e+02	-5.897715e-02
6.072838e+02	-5.965571e-02
6.107914e+02	-6.034203e-02
6.143194e+02	-6.103619e-02
6.178676e+02	-6.173828e-02
6.214364e+02	-6.244839e-02
6.250258e+02	-6.316660e-02
6.286359e+02	-6.389301e-02
6.322669e+02	-6.462772e-02
6.359189e+02	-6.537081e-02
6.395919e+02	-6.612237e-02
6.432862e+02	-6.688252e-02
6.470017e+02	-6.765133e-02
6.507388e+02	-6.842891e-02
6.544974e+02	-6.921535e-02
6.582778e+02	-7.001076e-02
6.620800e+02	-7.081524e-02
6.659041e+02	-7.162888e-02
6.697504e+02	-7.245180e-02
6.736188e+02	-7.328409e-02
6.775096e+02	-7.412585e-02
6.814229e+02	-7.497721e-02
6.853587e+02	-7.583825e-02
6.893173e+02	-7.670910e-02
6.932988e+02	-7.758985e-02
6.973033e+02	-7.848063e-02
7.013309e+02	-7.938154e-02
