Frequency(Hz)	Magnitude(dB)
1.000000e+01	-2.252693e+00
1.005776e+01	-2.273119e+00
1.011585e+01	-2.293303e+00
1.017428e+01	-2.313954e+00
1.023305e+01	-2.334889e+00
1.029215e+01	-2.355747e+00
1.035160e+01	-2.376616e+00
1.041139e+01	-2.397639e+00
1.047153e+01	-2.419227e+00
1.053201e+01	-2.440811e+00
1.059284e+01	-2.462112e+00
1.065403e+01	-2.483784e+00
1.071556e+01	-2.505883e+00
1.077746e+01	-2.527633e+00
1.083971e+01	-2.550081e+00
1.090232e+01	-2.572118e+00
1.096529e+01	-2.594559e+00
1.102862e+01	-2.617225e+00
1.109232e+01	-2.639848e+00
1.115639e+01	-2.662810e+00
1.122083e+01	-2.685605e+00
1.128564e+01	-2.709027e+00
1.135083e+01	-2.732159e+00
1.141639e+01	-2.755556e+00
1.148233e+01	-2.779063e+00
1.154865e+01	-2.803016e+00
1.161536e+01	-2.826731e+00
1.168245e+01	-2.850557e+00
1.174992e+01	-2.874879e+00
1.181779e+01	-2.899345e+00
1.188605e+01	-2.923781e+00
1.195470e+01	-2.948086e+00
1.202375e+01	-2.972934e+00
1.209320e+01	-2.997933e+00
1.216305e+01	-3.022841e+00
1.223330e+01	-3.047840e+00
1.230396e+01	-3.073464e+00
1.237503e+01	-3.099005e+00
1.244651e+01	-3.124394e+00
1.251840e+01	-3.150011e+00
1.259070e+01	-3.176048e+00
1.266343e+01	-3.201877e+00
1.273657e+01	-3.227950e+00
1.281014e+01	-3.254381e+00
1.288413e+01	-3.280966e+00
1.295855e+01	-3.307627e+00
1.303339e+01	-3.334280e+00
1.310867e+01	-3.361008e+00
1.318439e+01	-3.388046e+00
1.326054e+01	-3.415276e+00
1.333713e+01	-3.442415e+00
1.341417e+01	-3.470155e+00
1.349165e+01	-3.497497e+00
1.356958e+01	-3.525536e+00
1.364795e+01	-3.553154e+00
1.372678e+01	-3.581119e+00
1.380607e+01	-3.609536e+00
1.388581e+01	-3.637845e+00
1.396602e+01	-3.666257e+00
1.404668e+01	-3.694846e+00
1.412782e+01	-3.723375e+00
1.420942e+01	-3.752484e+00
1.429149e+01	-3.781408e+00
1.437404e+01	-3.810643e+00
1.445706e+01	-3.839799e+00
1.454057e+01	-3.869099e+00
1.462455e+01	-3.898824e+00
1.470902e+01	-3.928765e+00
1.479398e+01	-3.958234e+00
1.487943e+01	-3.988424e+00
1.496537e+01	-4.018456e+00
1.505181e+01	-4.048778e+00
1.513875e+01	-4.079233e+00
1.522619e+01	-4.109849e+00
1.531414e+01	-4.140517e+00
1.540259e+01	-4.171290e+00
1.549156e+01	-4.202040e+00
1.558103e+01	-4.233390e+00
1.567103e+01	-4.264272e+00
1.576155e+01	-4.295646e+00
1.585258e+01	-4.327399e+00
1.594415e+01	-4.359147e+00
1.603624e+01	-4.390858e+00
1.612886e+01	-4.422379e+00
1.622202e+01	-4.454842e+00
1.631572e+01	-4.487071e+00
1.640996e+01	-4.519198e+00
1.650474e+01	-4.551242e+00
1.660008e+01	-4.584016e+00
1.669596e+01	-4.616648e+00
1.679239e+01	-4.649502e+00
1.688938e+01	-4.682407e+00
1.698694e+01	-4.715692e+00
1.708505e+01	-4.748751e+00
1.718373e+01	-4.782157e+00
1.728299e+01	-4.815658e+00
1.738281e+01	-4.848821e+00
1.748322e+01	-4.882606e+00
1.758420e+01	-4.916518e+00
1.768576e+01	-4.950617e+00
1.778792e+01	-4.984652e+00
1.789066e+01	-5.018784e+00
1.799399e+01	-5.053535e+00
1.809793e+01	-5.087636e+00
1.820246e+01	-5.122351e+00
1.830760e+01	-5.156902e+00
1.841334e+01	-5.191719e+00
1.851969e+01	-5.226764e+00
1.862666e+01	-5.261843e+00
1.873425e+01	-5.297027e+00
1.884246e+01	-5.332358e+00
1.895129e+01	-5.367563e+00
1.906075e+01	-5.403162e+00
1.917085e+01	-5.439106e+00
1.928158e+01	-5.474957e+00
1.939295e+01	-5.510949e+00
1.950496e+01	-5.546650e+00
1.961762e+01	-5.582882e+00
1.973093e+01	-5.619147e+00
1.984490e+01	-5.655899e+00
1.995952e+01	-5.691672e+00
2.007480e+01	-5.728836e+00
2.019076e+01	-5.765192e+00
2.030738e+01	-5.802126e+00
2.042467e+01	-5.838992e+00
2.054264e+01	-5.875872e+00
2.066130e+01	-5.913024e+00
2.078064e+01	-5.950788e+00
2.090066e+01	-5.987679e+00
2.102139e+01	-6.025078e+00
2.114280e+01	-6.062567e+00
2.126492e+01	-6.100369e+00
2.138775e+01	-6.138528e+00
2.151128e+01	-6.176001e+00
2.163553e+01	-6.213960e+00
2.176050e+01	-6.252093e+00
2.188619e+01	-6.290423e+00
2.201260e+01	-6.328754e+00
2.213974e+01	-6.367184e+00
2.226762e+01	-6.405955e+00
2.239624e+01	-6.444555e+00
2.252560e+01	-6.483223e+00
2.265571e+01	-6.522354e+00
2.278656e+01	-6.560753e+00
2.291818e+01	-6.600146e+00
2.305055e+01	-6.639034e+00
2.318369e+01	-6.678433e+00
2.331760e+01	-6.717512e+00
2.345228e+01	-6.757196e+00
2.358774e+01	-6.796803e+00
2.372398e+01	-6.836224e+00
2.386101e+01	-6.875925e+00
2.399883e+01	-6.915884e+00
2.413745e+01	-6.955499e+00
2.427686e+01	-6.995957e+00
2.441709e+01	-7.035806e+00
2.455812e+01	-7.075850e+00
2.469997e+01	-7.116048e+00
2.484263e+01	-7.156820e+00
2.498612e+01	-7.196689e+00
2.513044e+01	-7.237263e+00
2.527559e+01	-7.278355e+00
2.542158e+01	-7.318697e+00
2.556842e+01	-7.360120e+00
2.571610e+01	-7.400747e+00
2.586463e+01	-7.441570e+00
2.601403e+01	-7.482391e+00
2.616428e+01	-7.523760e+00
2.631541e+01	-7.565029e+00
2.646740e+01	-7.606246e+00
2.662028e+01	-7.647817e+00
2.677404e+01	-7.689214e+00
2.692868e+01	-7.730630e+00
2.708422e+01	-7.772143e+00
2.724066e+01	-7.813836e+00
2.739800e+01	-7.856013e+00
2.755625e+01	-7.897566e+00
2.771541e+01	-7.939520e+00
2.787550e+01	-7.981546e+00
2.803650e+01	-8.023349e+00
2.819844e+01	-8.065883e+00
2.836131e+01	-8.107996e+00
2.852513e+01	-8.150577e+00
2.868989e+01	-8.192971e+00
2.885560e+01	-8.235407e+00
2.902227e+01	-8.277943e+00
2.918990e+01	-8.320397e+00
2.935850e+01	-8.363468e+00
2.952807e+01	-8.405544e+00
2.969863e+01	-8.448787e+00
2.987016e+01	-8.491825e+00
3.004269e+01	-8.534674e+00
3.021622e+01	-8.578118e+00
3.039075e+01	-8.620879e+00
3.056628e+01	-8.663652e+00
3.074283e+01	-8.707332e+00
3.092040e+01	-8.750891e+00
3.109900e+01	-8.793794e+00
3.127862e+01	-8.837457e+00
3.145929e+01	-8.881039e+00
3.164099e+01	-8.924897e+00
3.182375e+01	-8.968311e+00
3.200756e+01	-9.011826e+00
3.219244e+01	-9.055274e+00
3.237838e+01	-9.099448e+00
3.256540e+01	-9.143514e+00
3.275349e+01	-9.187284e+00
3.294268e+01	-9.231104e+00
3.313295e+01	-9.275648e+00
3.332433e+01	-9.319931e+00
3.351681e+01	-9.363873e+00
3.371040e+01	-9.407864e+00
3.390511e+01	-9.452510e+00
3.410094e+01	-9.497273e+00
3.429791e+01	-9.541005e+00
3.449601e+01	-9.586008e+00
3.469526e+01	-9.630194e+00
3.489566e+01	-9.675003e+00
3.509721e+01	-9.719879e+00
3.529993e+01	-9.764304e+00
3.550382e+01	-9.809068e+00
3.570889e+01	-9.853689e+00
3.591515e+01	-9.898547e+00
3.612259e+01	-9.943157e+00
3.633123e+01	-9.988868e+00
3.654108e+01	-1.003361e+01
3.675214e+01	-1.007909e+01
3.696442e+01	-1.012421e+01
3.717792e+01	-1.016909e+01
3.739266e+01	-1.021449e+01
3.760864e+01	-1.025957e+01
3.782587e+01	-1.030520e+01
3.804435e+01	-1.035053e+01
3.826409e+01	-1.039584e+01
3.848510e+01	-1.044095e+01
3.870739e+01	-1.048729e+01
3.893096e+01	-1.053229e+01
3.915583e+01	-1.057782e+01
3.938199e+01	-1.062331e+01
3.960946e+01	-1.066971e+01
3.983824e+01	-1.071554e+01
4.006834e+01	-1.076087e+01
4.029978e+01	-1.080677e+01
4.053255e+01	-1.085274e+01
4.076666e+01	-1.089874e+01
4.100213e+01	-1.094450e+01
4.123896e+01	-1.099093e+01
4.147715e+01	-1.103652e+01
4.171672e+01	-1.108211e+01
4.195767e+01	-1.112945e+01
4.220002e+01	-1.117528e+01
4.244377e+01	-1.122201e+01
4.268892e+01	-1.126776e+01
4.293549e+01	-1.131387e+01
4.318348e+01	-1.136023e+01
4.343291e+01	-1.140691e+01
4.368377e+01	-1.145347e+01
4.393609e+01	-1.149962e+01
4.418986e+01	-1.154624e+01
4.444510e+01	-1.159262e+01
4.470182e+01	-1.163880e+01
4.496001e+01	-1.168567e+01
4.521970e+01	-1.173208e+01
4.548089e+01	-1.177861e+01
4.574358e+01	-1.182598e+01
4.600779e+01	-1.187217e+01
4.627353e+01	-1.192004e+01
4.654081e+01	-1.196576e+01
4.680963e+01	-1.201316e+01
4.708000e+01	-1.206041e+01
4.735193e+01	-1.210760e+01
4.762543e+01	-1.215453e+01
4.790051e+01	-1.220080e+01
4.817719e+01	-1.224831e+01
4.845545e+01	-1.229510e+01
4.873533e+01	-1.234202e+01
4.901682e+01	-1.238964e+01
4.929994e+01	-1.243600e+01
4.958470e+01	-1.248378e+01
4.987110e+01	-1.253064e+01
5.015915e+01	-1.257812e+01
5.044887e+01	-1.262568e+01
5.074026e+01	-1.267201e+01
5.103333e+01	-1.272015e+01
5.132810e+01	-1.276743e+01
5.162457e+01	-1.281376e+01
5.192275e+01	-1.286223e+01
5.222265e+01	-1.290986e+01
5.252429e+01	-1.295686e+01
5.282767e+01	-1.300443e+01
5.313280e+01	-1.305176e+01
5.343969e+01	-1.309913e+01
5.374836e+01	-1.314698e+01
5.405880e+01	-1.319498e+01
5.437105e+01	-1.324301e+01
5.468509e+01	-1.329056e+01
5.500095e+01	-1.333824e+01
5.531863e+01	-1.338554e+01
5.563815e+01	-1.343402e+01
5.595951e+01	-1.348082e+01
5.628273e+01	-1.352967e+01
5.660782e+01	-1.357664e+01
5.693479e+01	-1.362508e+01
5.726364e+01	-1.367252e+01
5.759439e+01	-1.372120e+01
5.792705e+01	-1.376898e+01
5.826164e+01	-1.381540e+01
5.859815e+01	-1.386505e+01
5.893662e+01	-1.391223e+01
5.927703e+01	-1.396040e+01
5.961941e+01	-1.400778e+01
5.996377e+01	-1.405634e+01
6.031012e+01	-1.410415e+01
6.065847e+01	-1.415146e+01
6.100883e+01	-1.420127e+01
6.136121e+01	-1.424799e+01
6.171563e+01	-1.429696e+01
6.207210e+01	-1.434528e+01
6.243063e+01	-1.439270e+01
6.279122e+01	-1.444246e+01
6.315390e+01	-1.449015e+01
6.351868e+01	-1.453847e+01
6.388556e+01	-1.458622e+01
6.425456e+01	-1.463436e+01
6.462569e+01	-1.468226e+01
6.499897e+01	-1.473079e+01
6.537440e+01	-1.477963e+01
6.575200e+01	-1.482752e+01
6.613178e+01	-1.487577e+01
6.651375e+01	-1.492447e+01
6.689793e+01	-1.497282e+01
6.728433e+01	-1.502205e+01
6.767297e+01	-1.506948e+01
6.806384e+01	-1.511880e+01
6.845698e+01	-1.516677e+01
6.885238e+01	-1.521606e+01
6.925007e+01	-1.526477e+01
6.965005e+01	-1.531298e+01
7.005235e+01	-1.536231e+01
7.045697e+01	-1.541009e+01
7.086393e+01	-1.545887e+01
7.127323e+01	-1.550696e+01
7.168490e+01	-1.555498e+01
7.209895e+01	-1.560410e+01
7.251539e+01	-1.565256e+01
7.293424e+01	-1.570219e+01
7.335551e+01	-1.575099e+01
7.377920e+01	-1.579972e+01
7.420535e+01	-1.584817e+01
7.463396e+01	-1.589676e+01
7.506504e+01	-1.594569e+01
7.549861e+01	-1.599347e+01
7.593469e+01	-1.604309e+01
7.637328e+01	-1.609175e+01
7.681441e+01	-1.614126e+01
7.725809e+01	-1.618972e+01
7.770433e+01	-1.623930e+01
7.815315e+01	-1.628665e+01
7.860456e+01	-1.633595e+01
7.905857e+01	-1.638494e+01
7.951521e+01	-1.643281e+01
7.997449e+01	-1.648284e+01
8.043642e+01	-1.652964e+01
8.090102e+01	-1.658044e+01
8.136830e+01	-1.662917e+01
8.183828e+01	-1.667796e+01
8.231097e+01	-1.672793e+01
8.278640e+01	-1.677617e+01
8.326457e+01	-1.682446e+01
8.374550e+01	-1.687448e+01
8.422921e+01	-1.692345e+01
8.471572e+01	-1.697171e+01
8.520503e+01	-1.702070e+01
8.569717e+01	-1.706977e+01
8.619215e+01	-1.712045e+01
8.669000e+01	-1.716763e+01
8.719071e+01	-1.721744e+01
8.769432e+01	-1.726659e+01
8.820084e+01	-1.731686e+01
8.871029e+01	-1.736524e+01
8.922267e+01	-1.741372e+01
8.973802e+01	-1.746231e+01
9.025634e+01	-1.751246e+01
9.077766e+01	-1.756093e+01
9.130199e+01	-1.761123e+01
9.182935e+01	-1.765925e+01
9.235975e+01	-1.770865e+01
9.289321e+01	-1.775877e+01
9.342976e+01	-1.780657e+01
9.396941e+01	-1.785644e+01
9.451217e+01	-1.790463e+01
9.505807e+01	-1.795565e+01
9.560712e+01	-1.800373e+01
9.615934e+01	-1.805248e+01
9.671476e+01	-1.810269e+01
9.727338e+01	-1.815216e+01
9.783522e+01	-1.820126e+01
9.840032e+01	-1.824998e+01
9.896867e+01	-1.830059e+01
9.954031e+01	-1.834829e+01
1.001153e+02	-1.839919e+01
1.006935e+02	-1.844706e+01
1.012751e+02	-1.849587e+01
1.018601e+02	-1.854516e+01
1.024484e+02	-1.859537e+01
1.030402e+02	-1.864481e+01
1.036353e+02	-1.869312e+01
1.042339e+02	-1.874340e+01
1.048360e+02	-1.879400e+01
1.054415e+02	-1.884175e+01
1.060505e+02	-1.889239e+01
1.066631e+02	-1.893910e+01
1.072791e+02	-1.898990e+01
1.078988e+02	-1.903974e+01
1.085220e+02	-1.909140e+01
1.091488e+02	-1.913819e+01
1.097793e+02	-1.918878e+01
1.104133e+02	-1.923810e+01
1.110511e+02	-1.928665e+01
1.116925e+02	-1.933636e+01
1.123376e+02	-1.938621e+01
1.129865e+02	-1.943399e+01
1.136391e+02	-1.948498e+01
1.142955e+02	-1.953519e+01
1.149556e+02	-1.958277e+01
1.156196e+02	-1.963310e+01
1.162874e+02	-1.968340e+01
1.169591e+02	-1.973203e+01
1.176347e+02	-1.978298e+01
1.183141e+02	-1.983013e+01
1.189975e+02	-1.988166e+01
1.196848e+02	-1.993043e+01
1.203761e+02	-1.997893e+01
1.210714e+02	-2.002895e+01
1.217707e+02	-2.007878e+01
1.224740e+02	-2.012860e+01
1.231814e+02	-2.017835e+01
1.238929e+02	-2.022843e+01
1.246085e+02	-2.027418e+01
1.253283e+02	-2.032646e+01
1.260522e+02	-2.037641e+01
1.267802e+02	-2.042521e+01
1.275125e+02	-2.047475e+01
1.282490e+02	-2.052517e+01
1.289898e+02	-2.057524e+01
1.297348e+02	-2.062589e+01
1.304842e+02	-2.067438e+01
1.312378e+02	-2.072272e+01
1.319959e+02	-2.077332e+01
1.327583e+02	-2.082135e+01
1.335251e+02	-2.087170e+01
1.342963e+02	-2.092157e+01
1.350720e+02	-2.097098e+01
1.358522e+02	-2.102181e+01
1.366368e+02	-2.107230e+01
1.374260e+02	-2.112214e+01
1.382198e+02	-2.117097e+01
1.390182e+02	-2.122006e+01
1.398211e+02	-2.126866e+01
1.406287e+02	-2.131849e+01
1.414410e+02	-2.136735e+01
1.422579e+02	-2.142020e+01
1.430796e+02	-2.146955e+01
1.439060e+02	-2.151685e+01
1.447372e+02	-2.156729e+01
1.455732e+02	-2.161637e+01
1.464141e+02	-2.166722e+01
1.472597e+02	-2.171590e+01
1.481103e+02	-2.176526e+01
1.489658e+02	-2.181665e+01
1.498262e+02	-2.186721e+01
1.506916e+02	-2.191600e+01
1.515620e+02	-2.196699e+01
1.524374e+02	-2.201444e+01
1.533179e+02	-2.206592e+01
1.542034e+02	-2.211370e+01
1.550941e+02	-2.216440e+01
1.559899e+02	-2.221322e+01
1.568909e+02	-2.226348e+01
1.577971e+02	-2.231453e+01
1.587085e+02	-2.236309e+01
1.596252e+02	-2.241350e+01
1.605472e+02	-2.246230e+01
1.614745e+02	-2.251423e+01
1.624072e+02	-2.256252e+01
1.633453e+02	-2.261115e+01
1.642887e+02	-2.266201e+01
1.652377e+02	-2.271413e+01
1.661921e+02	-2.276100e+01
1.671520e+02	-2.281242e+01
1.681175e+02	-2.285938e+01
1.690885e+02	-2.291011e+01
1.700651e+02	-2.296071e+01
1.710474e+02	-2.300997e+01
1.720354e+02	-2.305887e+01
1.730291e+02	-2.311115e+01
1.740285e+02	-2.316033e+01
1.750337e+02	-2.320905e+01
1.760446e+02	-2.325916e+01
1.770615e+02	-2.331029e+01
1.780842e+02	-2.335932e+01
1.791128e+02	-2.340978e+01
1.801473e+02	-2.345984e+01
1.811878e+02	-2.350930e+01
1.822344e+02	-2.355705e+01
1.832870e+02	-2.360964e+01
1.843456e+02	-2.365888e+01
1.854104e+02	-2.370623e+01
1.864813e+02	-2.375962e+01
1.875584e+02	-2.380707e+01
1.886418e+02	-2.385466e+01
1.897313e+02	-2.390780e+01
1.908272e+02	-2.395746e+01
1.919294e+02	-2.400741e+01
1.930380e+02	-2.405749e+01
1.941530e+02	-2.410531e+01
1.952744e+02	-2.415303e+01
1.964023e+02	-2.420870e+01
1.975367e+02	-2.425668e+01
1.986777e+02	-2.430397e+01
1.998252e+02	-2.435587e+01
2.009794e+02	-2.440480e+01
2.021403e+02	-2.445729e+01
2.033078e+02	-2.450589e+01
2.044821e+02	-2.455607e+01
2.056632e+02	-2.460470e+01
2.068511e+02	-2.465568e+01
2.080459e+02	-2.470416e+01
2.092475e+02	-2.475472e+01
2.104561e+02	-2.480698e+01
2.116717e+02	-2.485487e+01
2.128943e+02	-2.490597e+01
2.141240e+02	-2.495429e+01
2.153608e+02	-2.500296e+01
2.166047e+02	-2.505479e+01
2.178558e+02	-2.510458e+01
2.191141e+02	-2.515514e+01
2.203797e+02	-2.520144e+01
2.216526e+02	-2.525469e+01
2.229329e+02	-2.530371e+01
2.242205e+02	-2.535551e+01
2.255156e+02	-2.540213e+01
2.268182e+02	-2.545399e+01
2.281283e+02	-2.550093e+01
2.294459e+02	-2.555416e+01
2.307712e+02	-2.560313e+01
2.321041e+02	-2.565422e+01
2.334447e+02	-2.570155e+01
2.347931e+02	-2.575586e+01
2.361493e+02	-2.580387e+01
2.375133e+02	-2.585419e+01
2.388851e+02	-2.590157e+01
2.402649e+02	-2.595422e+01
2.416527e+02	-2.600501e+01
2.430484e+02	-2.605620e+01
2.444523e+02	-2.610438e+01
2.458642e+02	-2.615531e+01
2.472843e+02	-2.620193e+01
2.487126e+02	-2.625454e+01
2.501492e+02	-2.630401e+01
2.515940e+02	-2.635073e+01
2.530472e+02	-2.640622e+01
2.545088e+02	-2.645264e+01
2.559789e+02	-2.650445e+01
2.574574e+02	-2.655121e+01
2.589444e+02	-2.660134e+01
2.604401e+02	-2.665481e+01
2.619444e+02	-2.670093e+01
2.634574e+02	-2.675038e+01
2.649791e+02	-2.680294e+01
2.665096e+02	-2.685351e+01
2.680489e+02	-2.690101e+01
2.695972e+02	-2.695542e+01
2.711544e+02	-2.700321e+01
2.727205e+02	-2.705588e+01
2.742958e+02	-2.710749e+01
2.758801e+02	-2.715540e+01
2.774736e+02	-2.720569e+01
2.790762e+02	-2.725213e+01
2.806882e+02	-2.730312e+01
2.823094e+02	-2.734844e+01
2.839400e+02	-2.740199e+01
2.855800e+02	-2.745400e+01
2.872295e+02	-2.750238e+01
2.888886e+02	-2.754738e+01
2.905572e+02	-2.760218e+01
2.922354e+02	-2.765767e+01
2.939234e+02	-2.770109e+01
2.956211e+02	-2.775134e+01
2.973286e+02	-2.780034e+01
2.990459e+02	-2.785416e+01
3.007732e+02	-2.790321e+01
3.025104e+02	-2.795132e+01
3.042577e+02	-2.800103e+01
3.060151e+02	-2.805021e+01
3.077826e+02	-2.810439e+01
3.095604e+02	-2.815183e+01
3.113484e+02	-2.820172e+01
3.131467e+02	-2.825187e+01
3.149554e+02	-2.830596e+01
3.167746e+02	-2.835183e+01
3.186043e+02	-2.840049e+01
3.204445e+02	-2.845751e+01
3.222954e+02	-2.850249e+01
3.241570e+02	-2.855128e+01
3.260293e+02	-2.860413e+01
3.279124e+02	-2.865722e+01
3.298064e+02	-2.870344e+01
3.317114e+02	-2.875229e+01
3.336273e+02	-2.880421e+01
3.355544e+02	-2.884860e+01
3.374925e+02	-2.890462e+01
3.394418e+02	-2.895562e+01
3.414024e+02	-2.900491e+01
3.433744e+02	-2.905610e+01
3.453577e+02	-2.910265e+01
3.473525e+02	-2.915527e+01
3.493588e+02	-2.920445e+01
3.513766e+02	-2.925481e+01
3.534062e+02	-2.930368e+01
3.554474e+02	-2.935345e+01
3.575005e+02	-2.940401e+01
3.595654e+02	-2.945261e+01
3.616422e+02	-2.950746e+01
3.637311e+02	-2.955081e+01
3.658320e+02	-2.960333e+01
3.679450e+02	-2.965297e+01
3.700702e+02	-2.970757e+01
3.722077e+02	-2.974953e+01
3.743576e+02	-2.980564e+01
3.765199e+02	-2.985568e+01
3.786946e+02	-2.991109e+01
3.808820e+02	-2.995461e+01
3.830819e+02	-3.000577e+01
3.852946e+02	-3.005632e+01
3.875200e+02	-3.010896e+01
3.897583e+02	-3.015718e+01
3.920096e+02	-3.020426e+01
3.942738e+02	-3.025306e+01
3.965511e+02	-3.030823e+01
3.988416e+02	-3.035809e+01
4.011452e+02	-3.040490e+01
4.034622e+02	-3.045684e+01
4.057926e+02	-3.050563e+01
4.081365e+02	-3.055881e+01
4.104938e+02	-3.060635e+01
4.128648e+02	-3.065287e+01
4.152495e+02	-3.070444e+01
4.176480e+02	-3.075903e+01
4.200603e+02	-3.080913e+01
4.224866e+02	-3.085717e+01
4.249268e+02	-3.090642e+01
4.273812e+02	-3.095527e+01
4.298497e+02	-3.100418e+01
4.323325e+02	-3.106049e+01
4.348297e+02	-3.110436e+01
4.373412e+02	-3.115451e+01
4.398673e+02	-3.120736e+01
4.424079e+02	-3.125788e+01
4.449633e+02	-3.130325e+01
4.475334e+02	-3.136506e+01
4.501183e+02	-3.140629e+01
4.527182e+02	-3.145755e+01
4.553330e+02	-3.151158e+01
4.579630e+02	-3.156010e+01
4.606082e+02	-3.160563e+01
4.632687e+02	-3.165839e+01
4.659445e+02	-3.171313e+01
4.686358e+02	-3.175515e+01
4.713426e+02	-3.180841e+01
4.740650e+02	-3.186140e+01
4.768032e+02	-3.191269e+01
4.795572e+02	-3.195916e+01
4.823271e+02	-3.201518e+01
4.851130e+02	-3.205769e+01
4.879150e+02	-3.211683e+01
4.907332e+02	-3.216049e+01
4.935676e+02	-3.221060e+01
4.964185e+02	-3.226120e+01
4.992858e+02	-3.231349e+01
5.021696e+02	-3.235982e+01
5.050701e+02	-3.241064e+01
5.079874e+02	-3.246757e+01
5.109215e+02	-3.251137e+01
5.138726e+02	-3.256309e+01
5.168407e+02	-3.261105e+01
5.198259e+02	-3.266836e+01
5.228284e+02	-3.271296e+01
5.258482e+02	-3.276441e+01
5.288855e+02	-3.282056e+01
5.319403e+02	-3.286393e+01
5.350128e+02	-3.291113e+01
5.381030e+02	-3.296195e+01
5.412111e+02	-3.301483e+01
5.443371e+02	-3.305887e+01
5.474812e+02	-3.311446e+01
5.506434e+02	-3.316800e+01
5.538239e+02	-3.321766e+01
5.570228e+02	-3.326139e+01
5.602401e+02	-3.330764e+01
5.634760e+02	-3.336423e+01
5.667306e+02	-3.341557e+01
5.700040e+02	-3.347235e+01
5.732964e+02	-3.352616e+01
5.766077e+02	-3.356505e+01
5.799382e+02	-3.362209e+01
5.832879e+02	-3.367424e+01
5.866569e+02	-3.372010e+01
5.900454e+02	-3.377142e+01
5.934535e+02	-3.382020e+01
5.968813e+02	-3.386999e+01
6.003288e+02	-3.392075e+01
6.037963e+02	-3.397076e+01
6.072838e+02	-3.402323e+01
6.107914e+02	-3.407416e+01
6.143194e+02	-3.412086e+01
6.178676e+02	-3.417270e+01
6.214364e+02	-3.422589e+01
6.250258e+02	-3.427470e+01
6.286359e+02	-3.432849e+01
6.322669e+02	-3.436841e+01
6.359189e+02	-3.442165e+01
6.395919e+02	-3.447453e+01
6.432862e+02	-3.452616e+01
6.470017e+02	-3.457056e+01
6.507388e+02	-3.462727e+01
6.544974e+02	-3.466904e+01
6.582778e+02	-3.472462e+01
6.620800e+02	-3.477501e+01
6.659041e+02	-3.482210e+01
6.697504e+02	-3.488115e+01
6.736188e+02	-3.493246e+01
6.775096e+02	-3.497987e+01
6.814229e+02	-3.503566e+01
6.853587e+02	-3.507744e+01
6.893173e+02	-3.512964e+01
6.932988e+02	-3.518393e+01
6.973033e+02	-3.523287e+01
7.013309e+02	-3.528161e+01
