Frequency(Hz)	Magnitude(dB)
1.000000e+01	-2.082902e+00
1.005776e+01	-2.102410e+00
1.011585e+01	-2.121511e+00
1.017428e+01	-2.140827e+00
1.023305e+01	-2.160409e+00
1.029215e+01	-2.180067e+00
1.035160e+01	-2.199862e+00
1.041139e+01	-2.219908e+00
1.047153e+01	-2.239847e+00
1.053201e+01	-2.260057e+00
1.059284e+01	-2.280410e+00
1.065403e+01	-2.300900e+00
1.071556e+01	-2.321899e+00
1.077746e+01	-2.342234e+00
1.083971e+01	-2.363229e+00
1.090232e+01	-2.384688e+00
1.096529e+01	-2.405726e+00
1.102862e+01	-2.427132e+00
1.109232e+01	-2.448549e+00
1.115639e+01	-2.470167e+00
1.122083e+01	-2.491868e+00
1.128564e+01	-2.513500e+00
1.135083e+01	-2.535955e+00
1.141639e+01	-2.558162e+00
1.148233e+01	-2.580267e+00
1.154865e+01	-2.602749e+00
1.161536e+01	-2.625281e+00
1.168245e+01	-2.648257e+00
1.174992e+01	-2.671067e+00
1.181779e+01	-2.694177e+00
1.188605e+01	-2.717381e+00
1.195470e+01	-2.740700e+00
1.202375e+01	-2.764227e+00
1.209320e+01	-2.787893e+00
1.216305e+01	-2.811456e+00
1.223330e+01	-2.835432e+00
1.230396e+01	-2.859587e+00
1.237503e+01	-2.883765e+00
1.244651e+01	-2.908272e+00
1.251840e+01	-2.932619e+00
1.259070e+01	-2.957146e+00
1.266343e+01	-2.982185e+00
1.273657e+01	-3.006985e+00
1.281014e+01	-3.032021e+00
1.288413e+01	-3.057083e+00
1.295855e+01	-3.082499e+00
1.303339e+01	-3.108247e+00
1.310867e+01	-3.133955e+00
1.318439e+01	-3.159379e+00
1.326054e+01	-3.185606e+00
1.333713e+01	-3.211452e+00
1.341417e+01	-3.238044e+00
1.349165e+01	-3.264137e+00
1.356958e+01	-3.290583e+00
1.364795e+01	-3.317192e+00
1.372678e+01	-3.344093e+00
1.380607e+01	-3.370927e+00
1.388581e+01	-3.397930e+00
1.396602e+01	-3.425321e+00
1.404668e+01	-3.452637e+00
1.412782e+01	-3.480308e+00
1.420942e+01	-3.507686e+00
1.429149e+01	-3.535576e+00
1.437404e+01	-3.563443e+00
1.445706e+01	-3.591638e+00
1.454057e+01	-3.619764e+00
1.462455e+01	-3.648083e+00
1.470902e+01	-3.676484e+00
1.479398e+01	-3.705194e+00
1.487943e+01	-3.733925e+00
1.496537e+01	-3.763325e+00
1.505181e+01	-3.792334e+00
1.513875e+01	-3.821056e+00
1.522619e+01	-3.850634e+00
1.531414e+01	-3.880060e+00
1.540259e+01	-3.909857e+00
1.549156e+01	-3.939368e+00
1.558103e+01	-3.969556e+00
1.567103e+01	-3.999726e+00
1.576155e+01	-4.029456e+00
1.585258e+01	-4.060003e+00
1.594415e+01	-4.090114e+00
1.603624e+01	-4.120600e+00
1.612886e+01	-4.151635e+00
1.622202e+01	-4.182438e+00
1.631572e+01	-4.213569e+00
1.640996e+01	-4.244867e+00
1.650474e+01	-4.275732e+00
1.660008e+01	-4.307149e+00
1.669596e+01	-4.338917e+00
1.679239e+01	-4.370556e+00
1.688938e+01	-4.402525e+00
1.698694e+01	-4.434258e+00
1.708505e+01	-4.466398e+00
1.718373e+01	-4.498624e+00
1.728299e+01	-4.530967e+00
1.738281e+01	-4.563485e+00
1.748322e+01	-4.595912e+00
1.758420e+01	-4.628547e+00
1.768576e+01	-4.661689e+00
1.778792e+01	-4.694957e+00
1.789066e+01	-4.727931e+00
1.799399e+01	-4.761000e+00
1.809793e+01	-4.794217e+00
1.820246e+01	-4.827770e+00
1.830760e+01	-4.861340e+00
1.841334e+01	-4.895434e+00
1.851969e+01	-4.929053e+00
1.862666e+01	-4.963194e+00
1.873425e+01	-4.997263e+00
1.884246e+01	-5.031700e+00
1.895129e+01	-5.065671e+00
1.906075e+01	-5.100375e+00
1.917085e+01	-5.135073e+00
1.928158e+01	-5.169736e+00
1.939295e+01	-5.204512e+00
1.950496e+01	-5.239371e+00
1.961762e+01	-5.274899e+00
1.973093e+01	-5.309907e+00
1.984490e+01	-5.345439e+00
1.995952e+01	-5.380974e+00
2.007480e+01	-5.416397e+00
2.019076e+01	-5.451777e+00
2.030738e+01	-5.487855e+00
2.042467e+01	-5.524063e+00
2.054264e+01	-5.560115e+00
2.066130e+01	-5.596124e+00
2.078064e+01	-5.632424e+00
2.090066e+01	-5.668806e+00
2.102139e+01	-5.705424e+00
2.114280e+01	-5.741918e+00
2.126492e+01	-5.778735e+00
2.138775e+01	-5.815225e+00
2.151128e+01	-5.852587e+00
2.163553e+01	-5.889621e+00
2.176050e+01	-5.926660e+00
2.188619e+01	-5.964471e+00
2.201260e+01	-6.001740e+00
2.213974e+01	-6.039264e+00
2.226762e+01	-6.076968e+00
2.239624e+01	-6.114523e+00
2.252560e+01	-6.152462e+00
2.265571e+01	-6.190116e+00
2.278656e+01	-6.228198e+00
2.291818e+01	-6.266749e+00
2.305055e+01	-6.304509e+00
2.318369e+01	-6.343014e+00
2.331760e+01	-6.381642e+00
2.345228e+01	-6.419942e+00
2.358774e+01	-6.458524e+00
2.372398e+01	-6.497664e+00
2.386101e+01	-6.536481e+00
2.399883e+01	-6.575590e+00
2.413745e+01	-6.614141e+00
2.427686e+01	-6.653305e+00
2.441709e+01	-6.692369e+00
2.455812e+01	-6.731801e+00
2.469997e+01	-6.771505e+00
2.484263e+01	-6.811213e+00
2.498612e+01	-6.850922e+00
2.513044e+01	-6.890919e+00
2.527559e+01	-6.930271e+00
2.542158e+01	-6.970637e+00
2.556842e+01	-7.010437e+00
2.571610e+01	-7.050427e+00
2.586463e+01	-7.090619e+00
2.601403e+01	-7.131167e+00
2.616428e+01	-7.171172e+00
2.631541e+01	-7.212008e+00
2.646740e+01	-7.252420e+00
2.662028e+01	-7.293032e+00
2.677404e+01	-7.333675e+00
2.692868e+01	-7.374179e+00
2.708422e+01	-7.415655e+00
2.724066e+01	-7.456297e+00
2.739800e+01	-7.497294e+00
2.755625e+01	-7.538739e+00
2.771541e+01	-7.579552e+00
2.787550e+01	-7.621318e+00
2.803650e+01	-7.662738e+00
2.819844e+01	-7.704252e+00
2.836131e+01	-7.745797e+00
2.852513e+01	-7.787128e+00
2.868989e+01	-7.829053e+00
2.885560e+01	-7.870893e+00
2.902227e+01	-7.913181e+00
2.918990e+01	-7.955062e+00
2.935850e+01	-7.996626e+00
2.952807e+01	-8.039043e+00
2.969863e+01	-8.081410e+00
2.987016e+01	-8.123510e+00
3.004269e+01	-8.165590e+00
3.021622e+01	-8.208025e+00
3.039075e+01	-8.251032e+00
3.056628e+01	-8.293736e+00
3.074283e+01	-8.336051e+00
3.092040e+01	-8.378626e+00
3.109900e+01	-8.422028e+00
3.127862e+01	-8.464869e+00
3.145929e+01	-8.507311e+00
3.164099e+01	-8.550638e+00
3.182375e+01	-8.594327e+00
3.200756e+01	-8.636382e+00
3.219244e+01	-8.679721e+00
3.237838e+01	-8.723199e+00
3.256540e+01	-8.766106e+00
3.275349e+01	-8.810001e+00
3.294268e+01	-8.853492e+00
3.313295e+01	-8.896920e+00
3.332433e+01	-8.941170e+00
3.351681e+01	-8.984319e+00
3.371040e+01	-9.028292e+00
3.390511e+01	-9.071536e+00
3.410094e+01	-9.115298e+00
3.429791e+01	-9.159551e+00
3.449601e+01	-9.203460e+00
3.469526e+01	-9.247404e+00
3.489566e+01	-9.291764e+00
3.509721e+01	-9.335991e+00
3.529993e+01	-9.380027e+00
3.550382e+01	-9.423969e+00
3.570889e+01	-9.468577e+00
3.591515e+01	-9.512863e+00
3.612259e+01	-9.557253e+00
3.633123e+01	-9.601763e+00
3.654108e+01	-9.646701e+00
3.675214e+01	-9.691573e+00
3.696442e+01	-9.735611e+00
3.717792e+01	-9.780893e+00
3.739266e+01	-9.825461e+00
3.760864e+01	-9.870520e+00
3.782587e+01	-9.915397e+00
3.804435e+01	-9.960052e+00
3.826409e+01	-1.000529e+01
3.848510e+01	-1.005023e+01
3.870739e+01	-1.009531e+01
3.893096e+01	-1.014041e+01
3.915583e+01	-1.018581e+01
3.938199e+01	-1.023111e+01
3.960946e+01	-1.027646e+01
3.983824e+01	-1.032173e+01
4.006834e+01	-1.036680e+01
4.029978e+01	-1.041255e+01
4.053255e+01	-1.045825e+01
4.076666e+01	-1.050349e+01
4.100213e+01	-1.054909e+01
4.123896e+01	-1.059495e+01
4.147715e+01	-1.064108e+01
4.171672e+01	-1.068552e+01
4.195767e+01	-1.073117e+01
4.220002e+01	-1.077780e+01
4.244377e+01	-1.082364e+01
4.268892e+01	-1.086954e+01
4.293549e+01	-1.091566e+01
4.318348e+01	-1.096165e+01
4.343291e+01	-1.100723e+01
4.368377e+01	-1.105351e+01
4.393609e+01	-1.109986e+01
4.418986e+01	-1.114545e+01
4.444510e+01	-1.119255e+01
4.470182e+01	-1.123860e+01
4.496001e+01	-1.128472e+01
4.521970e+01	-1.133035e+01
4.548089e+01	-1.137727e+01
4.574358e+01	-1.142356e+01
4.600779e+01	-1.146993e+01
4.627353e+01	-1.151637e+01
4.654081e+01	-1.156369e+01
4.680963e+01	-1.160979e+01
4.708000e+01	-1.165652e+01
4.735193e+01	-1.170273e+01
4.762543e+01	-1.174957e+01
4.790051e+01	-1.179600e+01
4.817719e+01	-1.184335e+01
4.845545e+01	-1.189032e+01
4.873533e+01	-1.193684e+01
4.901682e+01	-1.198322e+01
4.929994e+01	-1.203049e+01
4.958470e+01	-1.207718e+01
4.987110e+01	-1.212485e+01
5.015915e+01	-1.217073e+01
5.044887e+01	-1.221790e+01
5.074026e+01	-1.226558e+01
5.103333e+01	-1.231271e+01
5.132810e+01	-1.235953e+01
5.162457e+01	-1.240677e+01
5.192275e+01	-1.245328e+01
5.222265e+01	-1.250112e+01
5.252429e+01	-1.254877e+01
5.282767e+01	-1.259525e+01
5.313280e+01	-1.264207e+01
5.343969e+01	-1.268940e+01
5.374836e+01	-1.273739e+01
5.405880e+01	-1.278536e+01
5.437105e+01	-1.283196e+01
5.468509e+01	-1.287993e+01
5.500095e+01	-1.292749e+01
5.531863e+01	-1.297426e+01
5.563815e+01	-1.302156e+01
5.595951e+01	-1.306953e+01
5.628273e+01	-1.311708e+01
5.660782e+01	-1.316446e+01
5.693479e+01	-1.321246e+01
5.726364e+01	-1.326060e+01
5.759439e+01	-1.330827e+01
5.792705e+01	-1.335576e+01
5.826164e+01	-1.340306e+01
5.859815e+01	-1.345078e+01
5.893662e+01	-1.349861e+01
5.927703e+01	-1.354591e+01
5.961941e+01	-1.359446e+01
5.996377e+01	-1.364220e+01
6.031012e+01	-1.369016e+01
6.065847e+01	-1.373761e+01
6.100883e+01	-1.378568e+01
6.136121e+01	-1.383338e+01
6.171563e+01	-1.388188e+01
6.207210e+01	-1.392931e+01
6.243063e+01	-1.397827e+01
6.279122e+01	-1.402648e+01
6.315390e+01	-1.407307e+01
6.351868e+01	-1.412167e+01
6.388556e+01	-1.417021e+01
6.425456e+01	-1.421832e+01
6.462569e+01	-1.426631e+01
6.499897e+01	-1.431423e+01
6.537440e+01	-1.436266e+01
6.575200e+01	-1.441064e+01
6.613178e+01	-1.445945e+01
6.651375e+01	-1.450800e+01
6.689793e+01	-1.455586e+01
6.728433e+01	-1.460419e+01
6.767297e+01	-1.465189e+01
6.806384e+01	-1.470108e+01
6.845698e+01	-1.474898e+01
6.885238e+01	-1.479673e+01
6.925007e+01	-1.484571e+01
6.965005e+01	-1.489433e+01
7.005235e+01	-1.494225e+01
7.045697e+01	-1.499072e+01
7.086393e+01	-1.503881e+01
7.127323e+01	-1.508778e+01
7.168490e+01	-1.513672e+01
7.209895e+01	-1.518481e+01
7.251539e+01	-1.523320e+01
7.293424e+01	-1.528312e+01
7.335551e+01	-1.533022e+01
7.377920e+01	-1.537970e+01
7.420535e+01	-1.542796e+01
7.463396e+01	-1.547652e+01
7.506504e+01	-1.552434e+01
7.549861e+01	-1.557305e+01
7.593469e+01	-1.562207e+01
7.637328e+01	-1.567068e+01
7.681441e+01	-1.571914e+01
7.725809e+01	-1.576729e+01
7.770433e+01	-1.581610e+01
7.815315e+01	-1.586575e+01
7.860456e+01	-1.591492e+01
7.905857e+01	-1.596391e+01
7.951521e+01	-1.601234e+01
7.997449e+01	-1.606056e+01
8.043642e+01	-1.610951e+01
8.090102e+01	-1.615803e+01
8.136830e+01	-1.620732e+01
8.183828e+01	-1.625506e+01
8.231097e+01	-1.630469e+01
8.278640e+01	-1.635435e+01
8.326457e+01	-1.640145e+01
8.374550e+01	-1.645118e+01
8.422921e+01	-1.650041e+01
8.471572e+01	-1.655161e+01
8.520503e+01	-1.659778e+01
8.569717e+01	-1.664679e+01
8.619215e+01	-1.669534e+01
8.669000e+01	-1.674515e+01
8.719071e+01	-1.679413e+01
8.769432e+01	-1.684320e+01
8.820084e+01	-1.689200e+01
8.871029e+01	-1.694158e+01
8.922267e+01	-1.699113e+01
8.973802e+01	-1.703931e+01
9.025634e+01	-1.708820e+01
9.077766e+01	-1.713602e+01
9.130199e+01	-1.718577e+01
9.182935e+01	-1.723553e+01
9.235975e+01	-1.728417e+01
9.289321e+01	-1.733424e+01
9.342976e+01	-1.738224e+01
9.396941e+01	-1.743216e+01
9.451217e+01	-1.748219e+01
9.505807e+01	-1.752921e+01
9.560712e+01	-1.757873e+01
9.615934e+01	-1.762952e+01
9.671476e+01	-1.767723e+01
9.727338e+01	-1.772595e+01
9.783522e+01	-1.777619e+01
9.840032e+01	-1.782559e+01
9.896867e+01	-1.787472e+01
9.954031e+01	-1.792277e+01
1.001153e+02	-1.797272e+01
1.006935e+02	-1.802210e+01
1.012751e+02	-1.807124e+01
1.018601e+02	-1.812040e+01
1.024484e+02	-1.816957e+01
1.030402e+02	-1.821951e+01
1.036353e+02	-1.826825e+01
1.042339e+02	-1.831774e+01
1.048360e+02	-1.836761e+01
1.054415e+02	-1.841621e+01
1.060505e+02	-1.846423e+01
1.066631e+02	-1.851476e+01
1.072791e+02	-1.856478e+01
1.078988e+02	-1.861400e+01
1.085220e+02	-1.866204e+01
1.091488e+02	-1.871246e+01
1.097793e+02	-1.876124e+01
1.104133e+02	-1.881133e+01
1.110511e+02	-1.886014e+01
1.116925e+02	-1.890954e+01
1.123376e+02	-1.895966e+01
1.129865e+02	-1.900895e+01
1.136391e+02	-1.905702e+01
1.142955e+02	-1.910755e+01
1.149556e+02	-1.915588e+01
1.156196e+02	-1.920655e+01
1.162874e+02	-1.925615e+01
1.169591e+02	-1.930607e+01
1.176347e+02	-1.935376e+01
1.183141e+02	-1.940496e+01
1.189975e+02	-1.945450e+01
1.196848e+02	-1.950383e+01
1.203761e+02	-1.955422e+01
1.210714e+02	-1.960168e+01
1.217707e+02	-1.964922e+01
1.224740e+02	-1.970028e+01
1.231814e+02	-1.974957e+01
1.238929e+02	-1.979994e+01
1.246085e+02	-1.985021e+01
1.253283e+02	-1.989803e+01
1.260522e+02	-1.994814e+01
1.267802e+02	-1.999873e+01
1.275125e+02	-2.004850e+01
1.282490e+02	-2.009680e+01
1.289898e+02	-2.014696e+01
1.297348e+02	-2.019782e+01
1.304842e+02	-2.024579e+01
1.312378e+02	-2.029473e+01
1.319959e+02	-2.034422e+01
1.327583e+02	-2.039308e+01
1.335251e+02	-2.044604e+01
1.342963e+02	-2.049221e+01
1.350720e+02	-2.054451e+01
1.358522e+02	-2.059484e+01
1.366368e+02	-2.064244e+01
1.374260e+02	-2.069121e+01
1.382198e+02	-2.074198e+01
1.390182e+02	-2.079106e+01
1.398211e+02	-2.084054e+01
1.406287e+02	-2.089142e+01
1.414410e+02	-2.094004e+01
1.422579e+02	-2.098749e+01
1.430796e+02	-2.103896e+01
1.439060e+02	-2.108909e+01
1.447372e+02	-2.113783e+01
1.455732e+02	-2.119044e+01
1.464141e+02	-2.123791e+01
1.472597e+02	-2.128745e+01
1.481103e+02	-2.133722e+01
1.489658e+02	-2.138791e+01
1.498262e+02	-2.143499e+01
1.506916e+02	-2.148699e+01
1.515620e+02	-2.153703e+01
1.524374e+02	-2.158618e+01
1.533179e+02	-2.163470e+01
1.542034e+02	-2.168662e+01
1.550941e+02	-2.173535e+01
1.559899e+02	-2.178610e+01
1.568909e+02	-2.183441e+01
1.577971e+02	-2.188496e+01
1.587085e+02	-2.193390e+01
1.596252e+02	-2.198374e+01
1.605472e+02	-2.203296e+01
1.614745e+02	-2.208337e+01
1.624072e+02	-2.213237e+01
1.633453e+02	-2.218259e+01
1.642887e+02	-2.223143e+01
1.652377e+02	-2.228118e+01
1.661921e+02	-2.233282e+01
1.671520e+02	-2.238156e+01
1.681175e+02	-2.243176e+01
1.690885e+02	-2.248005e+01
1.700651e+02	-2.252944e+01
1.710474e+02	-2.257979e+01
1.720354e+02	-2.263038e+01
1.730291e+02	-2.268125e+01
1.740285e+02	-2.273009e+01
1.750337e+02	-2.277789e+01
1.760446e+02	-2.282878e+01
1.770615e+02	-2.287745e+01
1.780842e+02	-2.292991e+01
1.791128e+02	-2.297880e+01
1.801473e+02	-2.302813e+01
1.811878e+02	-2.307929e+01
1.822344e+02	-2.312837e+01
1.832870e+02	-2.317775e+01
1.843456e+02	-2.322808e+01
1.854104e+02	-2.327920e+01
1.864813e+02	-2.333061e+01
1.875584e+02	-2.337623e+01
1.886418e+02	-2.342893e+01
1.897313e+02	-2.347550e+01
1.908272e+02	-2.352806e+01
1.919294e+02	-2.357657e+01
1.930380e+02	-2.362769e+01
1.941530e+02	-2.367475e+01
1.952744e+02	-2.372690e+01
1.964023e+02	-2.377539e+01
1.975367e+02	-2.382503e+01
1.986777e+02	-2.387609e+01
1.998252e+02	-2.392857e+01
2.009794e+02	-2.397651e+01
2.021403e+02	-2.402413e+01
2.033078e+02	-2.407295e+01
2.044821e+02	-2.412539e+01
2.056632e+02	-2.417054e+01
2.068511e+02	-2.422453e+01
2.080459e+02	-2.427295e+01
2.092475e+02	-2.432613e+01
2.104561e+02	-2.437577e+01
2.116717e+02	-2.442271e+01
2.128943e+02	-2.447376e+01
2.141240e+02	-2.452553e+01
2.153608e+02	-2.457635e+01
2.166047e+02	-2.462188e+01
2.178558e+02	-2.467301e+01
2.191141e+02	-2.472285e+01
2.203797e+02	-2.477329e+01
2.216526e+02	-2.482478e+01
2.229329e+02	-2.487154e+01
2.242205e+02	-2.492258e+01
2.255156e+02	-2.497143e+01
2.268182e+02	-2.502495e+01
2.281283e+02	-2.507260e+01
2.294459e+02	-2.512321e+01
2.307712e+02	-2.517204e+01
2.321041e+02	-2.522173e+01
2.334447e+02	-2.527426e+01
2.347931e+02	-2.532577e+01
2.361493e+02	-2.537193e+01
2.375133e+02	-2.542371e+01
2.388851e+02	-2.547347e+01
2.402649e+02	-2.552320e+01
2.416527e+02	-2.557034e+01
2.430484e+02	-2.561873e+01
2.444523e+02	-2.567129e+01
2.458642e+02	-2.572391e+01
2.472843e+02	-2.577433e+01
2.487126e+02	-2.582028e+01
2.501492e+02	-2.587072e+01
2.515940e+02	-2.592360e+01
2.530472e+02	-2.597231e+01
2.545088e+02	-2.601941e+01
2.559789e+02	-2.607116e+01
2.574574e+02	-2.612092e+01
2.589444e+02	-2.617206e+01
2.604401e+02	-2.621965e+01
2.619444e+02	-2.627303e+01
2.634574e+02	-2.631682e+01
2.649791e+02	-2.637306e+01
2.665096e+02	-2.642436e+01
2.680489e+02	-2.647010e+01
2.695972e+02	-2.652334e+01
2.711544e+02	-2.657067e+01
2.727205e+02	-2.661623e+01
2.742958e+02	-2.667223e+01
2.758801e+02	-2.672134e+01
2.774736e+02	-2.677160e+01
2.790762e+02	-2.681983e+01
2.806882e+02	-2.687016e+01
2.823094e+02	-2.691780e+01
2.839400e+02	-2.696921e+01
2.855800e+02	-2.702274e+01
2.872295e+02	-2.707152e+01
2.888886e+02	-2.712074e+01
2.905572e+02	-2.717293e+01
2.922354e+02	-2.722462e+01
2.939234e+02	-2.726902e+01
2.956211e+02	-2.732211e+01
2.973286e+02	-2.737284e+01
2.990459e+02	-2.742190e+01
3.007732e+02	-2.747066e+01
3.025104e+02	-2.751962e+01
3.042577e+02	-2.756782e+01
3.060151e+02	-2.762165e+01
3.077826e+02	-2.767101e+01
3.095604e+02	-2.772121e+01
3.113484e+02	-2.777343e+01
3.131467e+02	-2.781811e+01
3.149554e+02	-2.786716e+01
3.167746e+02	-2.791985e+01
3.186043e+02	-2.796932e+01
3.204445e+02	-2.802174e+01
3.222954e+02	-2.807079e+01
3.241570e+02	-2.812005e+01
3.260293e+02	-2.817042e+01
3.279124e+02	-2.821979e+01
3.298064e+02	-2.827198e+01
3.317114e+02	-2.832600e+01
3.336273e+02	-2.837066e+01
3.355544e+02	-2.841934e+01
3.374925e+02	-2.847187e+01
3.394418e+02	-2.852118e+01
3.414024e+02	-2.856919e+01
3.433744e+02	-2.862558e+01
3.453577e+02	-2.867232e+01
3.473525e+02	-2.871815e+01
3.493588e+02	-2.877405e+01
3.513766e+02	-2.882220e+01
3.534062e+02	-2.886948e+01
3.554474e+02	-2.892604e+01
3.575005e+02	-2.896983e+01
3.595654e+02	-2.902739e+01
3.616422e+02	-2.907556e+01
3.637311e+02	-2.912761e+01
3.658320e+02	-2.917179e+01
3.679450e+02	-2.922305e+01
3.700702e+02	-2.927157e+01
3.722077e+02	-2.932309e+01
3.743576e+02	-2.937334e+01
3.765199e+02	-2.941832e+01
3.786946e+02	-2.947665e+01
3.808820e+02	-2.952113e+01
3.830819e+02	-2.958003e+01
3.852946e+02	-2.962296e+01
3.875200e+02	-2.967108e+01
3.897583e+02	-2.972391e+01
3.920096e+02	-2.977530e+01
3.942738e+02	-2.982778e+01
3.965511e+02	-2.987593e+01
3.988416e+02	-2.992203e+01
4.011452e+02	-2.996774e+01
4.034622e+02	-3.002198e+01
4.057926e+02	-3.007560e+01
4.081365e+02	-3.011990e+01
4.104938e+02	-3.017130e+01
4.128648e+02	-3.022339e+01
4.152495e+02	-3.027356e+01
4.176480e+02	-3.032461e+01
4.200603e+02	-3.037412e+01
4.224866e+02	-3.042195e+01
4.249268e+02	-3.047176e+01
4.273812e+02	-3.052372e+01
4.298497e+02	-3.057543e+01
4.323325e+02	-3.062789e+01
4.348297e+02	-3.067443e+01
4.373412e+02	-3.072420e+01
4.398673e+02	-3.077363e+01
4.424079e+02	-3.082020e+01
4.449633e+02	-3.086867e+01
4.475334e+02	-3.092866e+01
4.501183e+02	-3.097795e+01
4.527182e+02	-3.102873e+01
4.553330e+02	-3.107854e+01
4.579630e+02	-3.112513e+01
4.606082e+02	-3.117831e+01
4.632687e+02	-3.122752e+01
4.659445e+02	-3.127677e+01
4.686358e+02	-3.133004e+01
4.713426e+02	-3.137756e+01
4.740650e+02	-3.142709e+01
4.768032e+02	-3.147912e+01
4.795572e+02	-3.152889e+01
4.823271e+02	-3.157831e+01
4.851130e+02	-3.162641e+01
4.879150e+02	-3.167825e+01
4.907332e+02	-3.172403e+01
4.935676e+02	-3.177993e+01
4.964185e+02	-3.183058e+01
4.992858e+02	-3.187784e+01
5.021696e+02	-3.193018e+01
5.050701e+02	-3.197719e+01
5.079874e+02	-3.202902e+01
5.109215e+02	-3.207976e+01
5.138726e+02	-3.213300e+01
5.168407e+02	-3.218028e+01
5.198259e+02	-3.222956e+01
5.228284e+02	-3.227547e+01
5.258482e+02	-3.233098e+01
5.288855e+02	-3.238469e+01
5.319403e+02	-3.243629e+01
5.350128e+02	-3.248224e+01
5.381030e+02	-3.253089e+01
5.412111e+02	-3.257821e+01
5.443371e+02	-3.263797e+01
5.474812e+02	-3.267622e+01
5.506434e+02	-3.273091e+01
5.538239e+02	-3.278472e+01
5.570228e+02	-3.283212e+01
5.602401e+02	-3.288109e+01
5.634760e+02	-3.292691e+01
5.667306e+02	-3.297413e+01
5.700040e+02	-3.303367e+01
5.732964e+02	-3.308246e+01
5.766077e+02	-3.313333e+01
5.799382e+02	-3.318260e+01
5.832879e+02	-3.323649e+01
5.866569e+02	-3.328554e+01
5.900454e+02	-3.333873e+01
5.934535e+02	-3.338100e+01
5.968813e+02	-3.343484e+01
6.003288e+02	-3.348044e+01
6.037963e+02	-3.354196e+01
6.072838e+02	-3.358541e+01
6.107914e+02	-3.362995e+01
6.143194e+02	-3.368120e+01
6.178676e+02	-3.372892e+01
6.214364e+02	-3.378032e+01
6.250258e+02	-3.383707e+01
6.286359e+02	-3.388129e+01
6.322669e+02	-3.393037e+01
6.359189e+02	-3.399003e+01
6.395919e+02	-3.403813e+01
6.432862e+02	-3.408277e+01
6.470017e+02	-3.413761e+01
6.507388e+02	-3.419117e+01
6.544974e+02	-3.423087e+01
6.582778e+02	-3.429651e+01
6.620800e+02	-3.433764e+01
6.659041e+02	-3.439215e+01
6.697504e+02	-3.444046e+01
6.736188e+02	-3.449414e+01
6.775096e+02	-3.454396e+01
6.814229e+02	-3.459386e+01
6.853587e+02	-3.464795e+01
6.893173e+02	-3.469838e+01
6.932988e+02	-3.474323e+01
6.973033e+02	-3.479545e+01
7.013309e+02	-3.484308e+01
