Frequency(Hz)	Magnitude(dB)
1.000000e+01	-1.458253e-05
1.005776e+01	-1.475147e-05
1.011585e+01	-1.492237e-05
1.017428e+01	-1.509525e-05
1.023305e+01	-1.527013e-05
1.029215e+01	-1.544704e-05
1.035160e+01	-1.562600e-05
1.041139e+01	-1.580703e-05
1.047153e+01	-1.599016e-05
1.053201e+01	-1.617541e-05
1.059284e+01	-1.636281e-05
1.065403e+01	-1.655237e-05
1.071556e+01	-1.674414e-05
1.077746e+01	-1.693812e-05
1.083971e+01	-1.713436e-05
1.090232e+01	-1.733286e-05
1.096529e+01	-1.753367e-05
1.102862e+01	-1.773680e-05
1.109232e+01	-1.794228e-05
1.115639e+01	-1.815015e-05
1.122083e+01	-1.836042e-05
1.128564e+01	-1.857313e-05
1.135083e+01	-1.878831e-05
1.141639e+01	-1.900598e-05
1.148233e+01	-1.922617e-05
1.154865e+01	-1.944891e-05
1.161536e+01	-1.967423e-05
1.168245e+01	-1.990216e-05
1.174992e+01	-2.013273e-05
1.181779e+01	-2.036597e-05
1.188605e+01	-2.060192e-05
1.195470e+01	-2.084059e-05
1.202375e+01	-2.108204e-05
1.209320e+01	-2.132628e-05
1.216305e+01	-2.157335e-05
1.223330e+01	-2.182328e-05
1.230396e+01	-2.207611e-05
1.237503e+01	-2.233187e-05
1.244651e+01	-2.259059e-05
1.251840e+01	-2.285230e-05
1.259070e+01	-2.311705e-05
1.266343e+01	-2.338487e-05
1.273657e+01	-2.365579e-05
1.281014e+01	-2.392985e-05
1.288413e+01	-2.420708e-05
1.295855e+01	-2.448753e-05
1.303339e+01	-2.477122e-05
1.310867e+01	-2.505820e-05
1.318439e+01	-2.534851e-05
1.326054e+01	-2.564218e-05
1.333713e+01	-2.593925e-05
1.341417e+01	-2.623976e-05
1.349165e+01	-2.654375e-05
1.356958e+01	-2.685127e-05
1.364795e+01	-2.716235e-05
1.372678e+01	-2.747703e-05
1.380607e+01	-2.779536e-05
1.388581e+01	-2.811737e-05
1.396602e+01	-2.844312e-05
1.404668e+01	-2.877264e-05
1.412782e+01	-2.910598e-05
1.420942e+01	-2.944318e-05
1.429149e+01	-2.978429e-05
1.437404e+01	-3.012934e-05
1.445706e+01	-3.047840e-05
1.454057e+01	-3.083150e-05
1.462455e+01	-3.118869e-05
1.470902e+01	-3.155002e-05
1.479398e+01	-3.191553e-05
1.487943e+01	-3.228528e-05
1.496537e+01	-3.265931e-05
1.505181e+01	-3.303768e-05
1.513875e+01	-3.342043e-05
1.522619e+01	-3.380761e-05
1.531414e+01	-3.419928e-05
1.540259e+01	-3.459549e-05
1.549156e+01	-3.499629e-05
1.558103e+01	-3.540173e-05
1.567103e+01	-3.581186e-05
1.576155e+01	-3.622675e-05
1.585258e+01	-3.664645e-05
1.594415e+01	-3.707100e-05
1.603624e+01	-3.750048e-05
1.612886e+01	-3.793493e-05
1.622202e+01	-3.837442e-05
1.631572e+01	-3.881899e-05
1.640996e+01	-3.926872e-05
1.650474e+01	-3.972366e-05
1.660008e+01	-4.018386e-05
1.669596e+01	-4.064940e-05
1.679239e+01	-4.112034e-05
1.688938e+01	-4.159672e-05
1.698694e+01	-4.207863e-05
1.708505e+01	-4.256612e-05
1.718373e+01	-4.305926e-05
1.728299e+01	-4.355811e-05
1.738281e+01	-4.406274e-05
1.748322e+01	-4.457322e-05
1.758420e+01	-4.508961e-05
1.768576e+01	-4.561198e-05
1.778792e+01	-4.614041e-05
1.789066e+01	-4.667495e-05
1.799399e+01	-4.721569e-05
1.809793e+01	-4.776270e-05
1.820246e+01	-4.831604e-05
1.830760e+01	-4.887579e-05
1.841334e+01	-4.944203e-05
1.851969e+01	-5.001482e-05
1.862666e+01	-5.059425e-05
1.873425e+01	-5.118040e-05
1.884246e+01	-5.177334e-05
1.895129e+01	-5.237314e-05
1.906075e+01	-5.297989e-05
1.917085e+01	-5.359368e-05
1.928158e+01	-5.421457e-05
1.939295e+01	-5.484266e-05
1.950496e+01	-5.547802e-05
1.961762e+01	-5.612075e-05
1.973093e+01	-5.677092e-05
1.984490e+01	-5.742862e-05
1.995952e+01	-5.809394e-05
2.007480e+01	-5.876697e-05
2.019076e+01	-5.944780e-05
2.030738e+01	-6.013651e-05
2.042467e+01	-6.083321e-05
2.054264e+01	-6.153797e-05
2.066130e+01	-6.225090e-05
2.078064e+01	-6.297209e-05
2.090066e+01	-6.370163e-05
2.102139e+01	-6.443963e-05
2.114280e+01	-6.518617e-05
2.126492e+01	-6.594137e-05
2.138775e+01	-6.670531e-05
2.151128e+01	-6.747811e-05
2.163553e+01	-6.825985e-05
2.176050e+01	-6.905066e-05
2.188619e+01	-6.985062e-05
2.201260e+01	-7.065985e-05
2.213974e+01	-7.147846e-05
2.226762e+01	-7.230655e-05
2.239624e+01	-7.314424e-05
2.252560e+01	-7.399163e-05
2.265571e+01	-7.484883e-05
2.278656e+01	-7.571597e-05
2.291818e+01	-7.659315e-05
2.305055e+01	-7.748050e-05
2.318369e+01	-7.837812e-05
2.331760e+01	-7.928615e-05
2.345228e+01	-8.020469e-05
2.358774e+01	-8.113388e-05
2.372398e+01	-8.207382e-05
2.386101e+01	-8.302466e-05
2.399883e+01	-8.398652e-05
2.413745e+01	-8.495952e-05
2.427686e+01	-8.594379e-05
2.441709e+01	-8.693946e-05
2.455812e+01	-8.794667e-05
2.469997e+01	-8.896554e-05
2.484263e+01	-8.999622e-05
2.498612e+01	-9.103884e-05
2.513044e+01	-9.209354e-05
2.527559e+01	-9.316046e-05
2.542158e+01	-9.423974e-05
2.556842e+01	-9.533152e-05
2.571610e+01	-9.643595e-05
2.586463e+01	-9.755318e-05
2.601403e+01	-9.868334e-05
2.616428e+01	-9.982660e-05
2.631541e+01	-1.009831e-04
2.646740e+01	-1.021530e-04
2.662028e+01	-1.033365e-04
2.677404e+01	-1.045336e-04
2.692868e+01	-1.057447e-04
2.708422e+01	-1.069697e-04
2.724066e+01	-1.082090e-04
2.739800e+01	-1.094626e-04
2.755625e+01	-1.107308e-04
2.771541e+01	-1.120136e-04
2.787550e+01	-1.133113e-04
2.803650e+01	-1.146240e-04
2.819844e+01	-1.159519e-04
2.836131e+01	-1.172953e-04
2.852513e+01	-1.186541e-04
2.868989e+01	-1.200288e-04
2.885560e+01	-1.214193e-04
2.902227e+01	-1.228260e-04
2.918990e+01	-1.242489e-04
2.935850e+01	-1.256883e-04
2.952807e+01	-1.271445e-04
2.969863e+01	-1.286174e-04
2.987016e+01	-1.301075e-04
3.004269e+01	-1.316148e-04
3.021622e+01	-1.331396e-04
3.039075e+01	-1.346820e-04
3.056628e+01	-1.362423e-04
3.074283e+01	-1.378207e-04
3.092040e+01	-1.394174e-04
3.109900e+01	-1.410325e-04
3.127862e+01	-1.426664e-04
3.145929e+01	-1.443192e-04
3.164099e+01	-1.459911e-04
3.182375e+01	-1.476825e-04
3.200756e+01	-1.493934e-04
3.219244e+01	-1.511241e-04
3.237838e+01	-1.528749e-04
3.256540e+01	-1.546460e-04
3.275349e+01	-1.564375e-04
3.294268e+01	-1.582499e-04
3.313295e+01	-1.600832e-04
3.332433e+01	-1.619378e-04
3.351681e+01	-1.638139e-04
3.371040e+01	-1.657116e-04
3.390511e+01	-1.676314e-04
3.410094e+01	-1.695734e-04
3.429791e+01	-1.715380e-04
3.449601e+01	-1.735252e-04
3.469526e+01	-1.755355e-04
3.489566e+01	-1.775691e-04
3.509721e+01	-1.796263e-04
3.529993e+01	-1.817072e-04
3.550382e+01	-1.838123e-04
3.570889e+01	-1.859418e-04
3.591515e+01	-1.880959e-04
3.612259e+01	-1.902750e-04
3.633123e+01	-1.924794e-04
3.654108e+01	-1.947093e-04
3.675214e+01	-1.969650e-04
3.696442e+01	-1.992468e-04
3.717792e+01	-2.015551e-04
3.739266e+01	-2.038901e-04
3.760864e+01	-2.062522e-04
3.782587e+01	-2.086416e-04
3.804435e+01	-2.110587e-04
3.826409e+01	-2.135038e-04
3.848510e+01	-2.159773e-04
3.870739e+01	-2.184794e-04
3.893096e+01	-2.210104e-04
3.915583e+01	-2.235708e-04
3.938199e+01	-2.261609e-04
3.960946e+01	-2.287810e-04
3.983824e+01	-2.314314e-04
4.006834e+01	-2.341125e-04
4.029978e+01	-2.368247e-04
4.053255e+01	-2.395683e-04
4.076666e+01	-2.423437e-04
4.100213e+01	-2.451512e-04
4.123896e+01	-2.479913e-04
4.147715e+01	-2.508643e-04
4.171672e+01	-2.537705e-04
4.195767e+01	-2.567104e-04
4.220002e+01	-2.596844e-04
4.244377e+01	-2.626928e-04
4.268892e+01	-2.657361e-04
4.293549e+01	-2.688146e-04
4.318348e+01	-2.719288e-04
4.343291e+01	-2.750791e-04
4.368377e+01	-2.782659e-04
4.393609e+01	-2.814895e-04
4.418986e+01	-2.847506e-04
4.444510e+01	-2.880494e-04
4.470182e+01	-2.913864e-04
4.496001e+01	-2.947621e-04
4.521970e+01	-2.981769e-04
4.548089e+01	-3.016312e-04
4.574358e+01	-3.051256e-04
4.600779e+01	-3.086604e-04
4.627353e+01	-3.122362e-04
4.654081e+01	-3.158534e-04
4.680963e+01	-3.195125e-04
4.708000e+01	-3.232140e-04
4.735193e+01	-3.269584e-04
4.762543e+01	-3.307462e-04
4.790051e+01	-3.345778e-04
4.817719e+01	-3.384538e-04
4.845545e+01	-3.423747e-04
4.873533e+01	-3.463411e-04
4.901682e+01	-3.503534e-04
4.929994e+01	-3.544122e-04
4.958470e+01	-3.585180e-04
4.987110e+01	-3.626713e-04
5.015915e+01	-3.668728e-04
5.044887e+01	-3.711229e-04
5.074026e+01	-3.754223e-04
5.103333e+01	-3.797715e-04
5.132810e+01	-3.841711e-04
5.162457e+01	-3.886216e-04
5.192275e+01	-3.931237e-04
5.222265e+01	-3.976779e-04
5.252429e+01	-4.022849e-04
5.282767e+01	-4.069453e-04
5.313280e+01	-4.116596e-04
5.343969e+01	-4.164286e-04
5.374836e+01	-4.212528e-04
5.405880e+01	-4.261329e-04
5.437105e+01	-4.310695e-04
5.468509e+01	-4.360633e-04
5.500095e+01	-4.411150e-04
5.531863e+01	-4.462251e-04
5.563815e+01	-4.513945e-04
5.595951e+01	-4.566238e-04
5.628273e+01	-4.619136e-04
5.660782e+01	-4.672647e-04
5.693479e+01	-4.726778e-04
5.726364e+01	-4.781536e-04
5.759439e+01	-4.836928e-04
5.792705e+01	-4.892962e-04
5.826164e+01	-4.949645e-04
5.859815e+01	-5.006985e-04
5.893662e+01	-5.064989e-04
5.927703e+01	-5.123665e-04
5.961941e+01	-5.183020e-04
5.996377e+01	-5.243063e-04
6.031012e+01	-5.303802e-04
6.065847e+01	-5.365244e-04
6.100883e+01	-5.427398e-04
6.136121e+01	-5.490272e-04
6.171563e+01	-5.553874e-04
6.207210e+01	-5.618213e-04
6.243063e+01	-5.683298e-04
6.279122e+01	-5.749136e-04
6.315390e+01	-5.815737e-04
6.351868e+01	-5.883109e-04
6.388556e+01	-5.951262e-04
6.425456e+01	-6.020204e-04
6.462569e+01	-6.089945e-04
6.499897e+01	-6.160494e-04
6.537440e+01	-6.231860e-04
6.575200e+01	-6.304052e-04
6.613178e+01	-6.377081e-04
6.651375e+01	-6.450956e-04
6.689793e+01	-6.525686e-04
6.728433e+01	-6.601282e-04
6.767297e+01	-6.677754e-04
6.806384e+01	-6.755112e-04
6.845698e+01	-6.833365e-04
6.885238e+01	-6.912525e-04
6.925007e+01	-6.992603e-04
6.965005e+01	-7.073607e-04
7.005235e+01	-7.155550e-04
7.045697e+01	-7.238442e-04
7.086393e+01	-7.322294e-04
7.127323e+01	-7.407118e-04
7.168490e+01	-7.492924e-04
7.209895e+01	-7.579724e-04
7.251539e+01	-7.667529e-04
7.293424e+01	-7.756352e-04
7.335551e+01	-7.846203e-04
7.377920e+01	-7.937095e-04
7.420535e+01	-8.029040e-04
7.463396e+01	-8.122050e-04
7.506504e+01	-8.216138e-04
7.549861e+01	-8.311315e-04
7.593469e+01	-8.407594e-04
7.637328e+01	-8.504989e-04
7.681441e+01	-8.603512e-04
7.725809e+01	-8.703176e-04
7.770433e+01	-8.803994e-04
7.815315e+01	-8.905980e-04
7.860456e+01	-9.009148e-04
7.905857e+01	-9.113510e-04
7.951521e+01	-9.219082e-04
7.997449e+01	-9.325876e-04
8.043642e+01	-9.433907e-04
8.090102e+01	-9.543189e-04
8.136830e+01	-9.653737e-04
8.183828e+01	-9.765566e-04
8.231097e+01	-9.878690e-04
8.278640e+01	-9.993124e-04
8.326457e+01	-1.010888e-03
8.374550e+01	-1.022598e-03
8.422921e+01	-1.034444e-03
8.471572e+01	-1.046427e-03
8.520503e+01	-1.058549e-03
8.569717e+01	-1.070811e-03
8.619215e+01	-1.083215e-03
8.669000e+01	-1.095763e-03
8.719071e+01	-1.108456e-03
8.769432e+01	-1.121296e-03
8.820084e+01	-1.134285e-03
8.871029e+01	-1.147424e-03
8.922267e+01	-1.160715e-03
8.973802e+01	-1.174161e-03
9.025634e+01	-1.187762e-03
9.077766e+01	-1.201520e-03
9.130199e+01	-1.215438e-03
9.182935e+01	-1.229518e-03
9.235975e+01	-1.243760e-03
9.289321e+01	-1.258167e-03
9.342976e+01	-1.272741e-03
9.396941e+01	-1.287484e-03
9.451217e+01	-1.302397e-03
9.505807e+01	-1.317484e-03
9.560712e+01	-1.332745e-03
9.615934e+01	-1.348183e-03
9.671476e+01	-1.363799e-03
9.727338e+01	-1.379597e-03
9.783522e+01	-1.395577e-03
9.840032e+01	-1.411743e-03
9.896867e+01	-1.428095e-03
9.954031e+01	-1.444638e-03
1.001153e+02	-1.461371e-03
1.006935e+02	-1.478299e-03
1.012751e+02	-1.495422e-03
1.018601e+02	-1.512744e-03
1.024484e+02	-1.530267e-03
1.030402e+02	-1.547992e-03
1.036353e+02	-1.565923e-03
1.042339e+02	-1.584061e-03
1.048360e+02	-1.602409e-03
1.054415e+02	-1.620970e-03
1.060505e+02	-1.639746e-03
1.066631e+02	-1.658739e-03
1.072791e+02	-1.677953e-03
1.078988e+02	-1.697388e-03
1.085220e+02	-1.717049e-03
1.091488e+02	-1.736938e-03
1.097793e+02	-1.757056e-03
1.104133e+02	-1.777408e-03
1.110511e+02	-1.797996e-03
1.116925e+02	-1.818822e-03
1.123376e+02	-1.839889e-03
1.129865e+02	-1.861200e-03
1.136391e+02	-1.882757e-03
1.142955e+02	-1.904565e-03
1.149556e+02	-1.926625e-03
1.156196e+02	-1.948940e-03
1.162874e+02	-1.971514e-03
1.169591e+02	-1.994350e-03
1.176347e+02	-2.017449e-03
1.183141e+02	-2.040816e-03
1.189975e+02	-2.064454e-03
1.196848e+02	-2.088366e-03
1.203761e+02	-2.112554e-03
1.210714e+02	-2.137023e-03
1.217707e+02	-2.161774e-03
1.224740e+02	-2.186813e-03
1.231814e+02	-2.212141e-03
1.238929e+02	-2.237763e-03
1.246085e+02	-2.263681e-03
1.253283e+02	-2.289899e-03
1.260522e+02	-2.316421e-03
1.267802e+02	-2.343251e-03
1.275125e+02	-2.370390e-03
1.282490e+02	-2.397844e-03
1.289898e+02	-2.425616e-03
1.297348e+02	-2.453710e-03
1.304842e+02	-2.482128e-03
1.312378e+02	-2.510876e-03
1.319959e+02	-2.539957e-03
1.327583e+02	-2.569374e-03
1.335251e+02	-2.599132e-03
1.342963e+02	-2.629235e-03
1.350720e+02	-2.659686e-03
1.358522e+02	-2.690489e-03
1.366368e+02	-2.721650e-03
1.374260e+02	-2.753171e-03
1.382198e+02	-2.785056e-03
1.390182e+02	-2.817312e-03
1.398211e+02	-2.849940e-03
1.406287e+02	-2.882947e-03
1.414410e+02	-2.916335e-03
1.422579e+02	-2.950110e-03
1.430796e+02	-2.984276e-03
1.439060e+02	-3.018838e-03
1.447372e+02	-3.053799e-03
1.455732e+02	-3.089166e-03
1.464141e+02	-3.124942e-03
1.472597e+02	-3.161132e-03
1.481103e+02	-3.197741e-03
1.489658e+02	-3.234774e-03
1.498262e+02	-3.272235e-03
1.506916e+02	-3.310130e-03
1.515620e+02	-3.348464e-03
1.524374e+02	-3.387242e-03
1.533179e+02	-3.426469e-03
1.542034e+02	-3.466149e-03
1.550941e+02	-3.506289e-03
1.559899e+02	-3.546894e-03
1.568909e+02	-3.587968e-03
1.577971e+02	-3.629519e-03
1.587085e+02	-3.671550e-03
1.596252e+02	-3.714067e-03
1.605472e+02	-3.757077e-03
1.614745e+02	-3.800585e-03
1.624072e+02	-3.844596e-03
1.633453e+02	-3.889117e-03
1.642887e+02	-3.934153e-03
1.652377e+02	-3.979710e-03
1.661921e+02	-4.025794e-03
1.671520e+02	-4.072412e-03
1.681175e+02	-4.119570e-03
1.690885e+02	-4.167273e-03
1.700651e+02	-4.215529e-03
1.710474e+02	-4.264343e-03
1.720354e+02	-4.313722e-03
1.730291e+02	-4.363672e-03
1.740285e+02	-4.414200e-03
1.750337e+02	-4.465314e-03
1.760446e+02	-4.517019e-03
1.770615e+02	-4.569322e-03
1.780842e+02	-4.622230e-03
1.791128e+02	-4.675751e-03
1.801473e+02	-4.729891e-03
1.811878e+02	-4.784658e-03
1.822344e+02	-4.840059e-03
1.832870e+02	-4.896100e-03
1.843456e+02	-4.952790e-03
1.854104e+02	-5.010137e-03
1.864813e+02	-5.068146e-03
1.875584e+02	-5.126827e-03
1.886418e+02	-5.186187e-03
1.897313e+02	-5.246234e-03
1.908272e+02	-5.306976e-03
1.919294e+02	-5.368421e-03
1.930380e+02	-5.430576e-03
1.941530e+02	-5.493451e-03
1.952744e+02	-5.557053e-03
1.964023e+02	-5.621391e-03
1.975367e+02	-5.686474e-03
1.986777e+02	-5.752309e-03
1.998252e+02	-5.818906e-03
2.009794e+02	-5.886274e-03
2.021403e+02	-5.954421e-03
2.033078e+02	-6.023357e-03
2.044821e+02	-6.093090e-03
2.056632e+02	-6.163629e-03
2.068511e+02	-6.234985e-03
2.080459e+02	-6.307167e-03
2.092475e+02	-6.380183e-03
2.104561e+02	-6.454044e-03
2.116717e+02	-6.528759e-03
2.128943e+02	-6.604339e-03
2.141240e+02	-6.680793e-03
2.153608e+02	-6.758131e-03
2.166047e+02	-6.836364e-03
2.178558e+02	-6.915502e-03
2.191141e+02	-6.995555e-03
2.203797e+02	-7.076534e-03
2.216526e+02	-7.158449e-03
2.229329e+02	-7.241312e-03
2.242205e+02	-7.325134e-03
2.255156e+02	-7.409925e-03
2.268182e+02	-7.495696e-03
2.281283e+02	-7.582460e-03
2.294459e+02	-7.670227e-03
2.307712e+02	-7.759009e-03
2.321041e+02	-7.848817e-03
2.334447e+02	-7.939664e-03
2.347931e+02	-8.031562e-03
2.361493e+02	-8.124522e-03
2.375133e+02	-8.218558e-03
2.388851e+02	-8.313680e-03
2.402649e+02	-8.409903e-03
2.416527e+02	-8.507238e-03
2.430484e+02	-8.605698e-03
2.444523e+02	-8.705297e-03
2.458642e+02	-8.806048e-03
2.472843e+02	-8.907963e-03
2.487126e+02	-9.011056e-03
2.501492e+02	-9.115342e-03
2.515940e+02	-9.220833e-03
2.530472e+02	-9.327543e-03
2.545088e+02	-9.435488e-03
2.559789e+02	-9.544680e-03
2.574574e+02	-9.655134e-03
2.589444e+02	-9.766865e-03
2.604401e+02	-9.879887e-03
2.619444e+02	-9.994216e-03
2.634574e+02	-1.010987e-02
2.649791e+02	-1.022685e-02
2.665096e+02	-1.034519e-02
2.680489e+02	-1.046490e-02
2.695972e+02	-1.058599e-02
2.711544e+02	-1.070848e-02
2.727205e+02	-1.083238e-02
2.742958e+02	-1.095772e-02
2.758801e+02	-1.108451e-02
2.774736e+02	-1.121276e-02
2.790762e+02	-1.134249e-02
2.806882e+02	-1.147372e-02
2.823094e+02	-1.160647e-02
2.839400e+02	-1.174075e-02
2.855800e+02	-1.187658e-02
2.872295e+02	-1.201398e-02
2.888886e+02	-1.215297e-02
2.905572e+02	-1.229357e-02
2.922354e+02	-1.243579e-02
2.939234e+02	-1.257965e-02
2.956211e+02	-1.272517e-02
2.973286e+02	-1.287238e-02
2.990459e+02	-1.302128e-02
3.007732e+02	-1.317191e-02
3.025104e+02	-1.332427e-02
3.042577e+02	-1.347840e-02
3.060151e+02	-1.363430e-02
3.077826e+02	-1.379201e-02
3.095604e+02	-1.395154e-02
3.113484e+02	-1.411290e-02
3.131467e+02	-1.427614e-02
3.149554e+02	-1.444125e-02
3.167746e+02	-1.460827e-02
3.186043e+02	-1.477723e-02
3.204445e+02	-1.494813e-02
3.222954e+02	-1.512100e-02
3.241570e+02	-1.529587e-02
3.260293e+02	-1.547276e-02
3.279124e+02	-1.565170e-02
3.298064e+02	-1.583269e-02
3.317114e+02	-1.601578e-02
3.336273e+02	-1.620098e-02
3.355544e+02	-1.638831e-02
3.374925e+02	-1.657781e-02
3.394418e+02	-1.676950e-02
3.414024e+02	-1.696340e-02
3.433744e+02	-1.715953e-02
3.453577e+02	-1.735793e-02
3.473525e+02	-1.755862e-02
3.493588e+02	-1.776162e-02
3.513766e+02	-1.796697e-02
3.534062e+02	-1.817468e-02
3.554474e+02	-1.838479e-02
3.575005e+02	-1.859733e-02
3.595654e+02	-1.881231e-02
3.616422e+02	-1.902978e-02
3.637311e+02	-1.924975e-02
3.658320e+02	-1.947227e-02
3.679450e+02	-1.969734e-02
3.700702e+02	-1.992502e-02
3.722077e+02	-2.015531e-02
3.743576e+02	-2.038827e-02
3.765199e+02	-2.062391e-02
3.786946e+02	-2.086227e-02
3.808820e+02	-2.110337e-02
3.830819e+02	-2.134726e-02
3.852946e+02	-2.159395e-02
3.875200e+02	-2.184349e-02
3.897583e+02	-2.209591e-02
3.920096e+02	-2.235123e-02
3.942738e+02	-2.260950e-02
3.965511e+02	-2.287075e-02
3.988416e+02	-2.313500e-02
4.011452e+02	-2.340230e-02
4.034622e+02	-2.367268e-02
4.057926e+02	-2.394617e-02
4.081365e+02	-2.422282e-02
4.104938e+02	-2.450265e-02
4.128648e+02	-2.478571e-02
4.152495e+02	-2.507203e-02
4.176480e+02	-2.536164e-02
4.200603e+02	-2.565459e-02
4.224866e+02	-2.595091e-02
4.249268e+02	-2.625065e-02
4.273812e+02	-2.655384e-02
4.298497e+02	-2.686052e-02
4.323325e+02	-2.717072e-02
4.348297e+02	-2.748450e-02
4.373412e+02	-2.780190e-02
4.398673e+02	-2.812294e-02
4.424079e+02	-2.844768e-02
4.449633e+02	-2.877616e-02
4.475334e+02	-2.910842e-02
4.501183e+02	-2.944450e-02
4.527182e+02	-2.978445e-02
4.553330e+02	-3.012830e-02
4.579630e+02	-3.047612e-02
4.606082e+02	-3.082794e-02
4.632687e+02	-3.118380e-02
4.659445e+02	-3.154375e-02
4.686358e+02	-3.190785e-02
4.713426e+02	-3.227613e-02
4.740650e+02	-3.264865e-02
4.768032e+02	-3.302545e-02
4.795572e+02	-3.340658e-02
4.823271e+02	-3.379209e-02
4.851130e+02	-3.418204e-02
4.879150e+02	-3.457646e-02
4.907332e+02	-3.497542e-02
4.935676e+02	-3.537896e-02
4.964185e+02	-3.578714e-02
4.992858e+02	-3.620001e-02
5.021696e+02	-3.661763e-02
5.050701e+02	-3.704004e-02
5.079874e+02	-3.746730e-02
5.109215e+02	-3.789946e-02
5.138726e+02	-3.833660e-02
5.168407e+02	-3.877875e-02
5.198259e+02	-3.922597e-02
5.228284e+02	-3.967833e-02
5.258482e+02	-4.013589e-02
5.288855e+02	-4.059869e-02
5.319403e+02	-4.106681e-02
5.350128e+02	-4.154029e-02
5.381030e+02	-4.201921e-02
5.412111e+02	-4.250363e-02
5.443371e+02	-4.299360e-02
5.474812e+02	-4.348919e-02
5.506434e+02	-4.399046e-02
5.538239e+02	-4.449749e-02
5.570228e+02	-4.501032e-02
5.602401e+02	-4.552904e-02
5.634760e+02	-4.605370e-02
5.667306e+02	-4.658437e-02
5.700040e+02	-4.712113e-02
5.732964e+02	-4.766404e-02
5.766077e+02	-4.821316e-02
5.799382e+02	-4.876858e-02
5.832879e+02	-4.933036e-02
5.866569e+02	-4.989858e-02
5.900454e+02	-5.047330e-02
5.934535e+02	-5.105460e-02
5.968813e+02	-5.164255e-02
6.003288e+02	-5.223724e-02
6.037963e+02	-5.283873e-02
6.072838e+02	-5.344711e-02
6.107914e+02	-5.406244e-02
6.143194e+02	-5.468482e-02
6.178676e+02	-5.531431e-02
6.214364e+02	-5.595101e-02
6.250258e+02	-5.659498e-02
6.286359e+02	-5.724632e-02
6.322669e+02	-5.790510e-02
6.359189e+02	-5.857142e-02
6.395919e+02	-5.924534e-02
6.432862e+02	-5.992697e-02
6.470017e+02	-6.061639e-02
6.507388e+02	-6.131368e-02
6.544974e+02	-6.201893e-02
6.582778e+02	-6.273224e-02
6.620800e+02	-6.345369e-02
6.659041e+02	-6.418338e-02
6.697504e+02	-6.492140e-02
6.736188e+02	-6.566783e-02
6.775096e+02	-6.642279e-02
6.814229e+02	-6.718635e-02
6.853587e+02	-6.795863e-02
6.893173e+02	-6.873971e-02
6.932988e+02	-6.952969e-02
6.973033e+02	-7.032868e-02
7.013309e+02	-7.113678e-02
