Frequency(Hz)	Magnitude(dB)
1.000000e+01	-1.618709e-05
1.005776e+01	-1.637462e-05
1.011585e+01	-1.656432e-05
1.017428e+01	-1.675623e-05
1.023305e+01	-1.695035e-05
1.029215e+01	-1.714673e-05
1.035160e+01	-1.734537e-05
1.041139e+01	-1.754633e-05
1.047153e+01	-1.774960e-05
1.053201e+01	-1.795524e-05
1.059284e+01	-1.816325e-05
1.065403e+01	-1.837368e-05
1.071556e+01	-1.858654e-05
1.077746e+01	-1.880187e-05
1.083971e+01	-1.901970e-05
1.090232e+01	-1.924005e-05
1.096529e+01	-1.946295e-05
1.102862e+01	-1.968843e-05
1.109232e+01	-1.991653e-05
1.115639e+01	-2.014726e-05
1.122083e+01	-2.038067e-05
1.128564e+01	-2.061679e-05
1.135083e+01	-2.085564e-05
1.141639e+01	-2.109726e-05
1.148233e+01	-2.134167e-05
1.154865e+01	-2.158892e-05
1.161536e+01	-2.183904e-05
1.168245e+01	-2.209205e-05
1.174992e+01	-2.234799e-05
1.181779e+01	-2.260690e-05
1.188605e+01	-2.286880e-05
1.195470e+01	-2.313374e-05
1.202375e+01	-2.340175e-05
1.209320e+01	-2.367287e-05
1.216305e+01	-2.394713e-05
1.223330e+01	-2.422456e-05
1.230396e+01	-2.450521e-05
1.237503e+01	-2.478910e-05
1.244651e+01	-2.507629e-05
1.251840e+01	-2.536681e-05
1.259070e+01	-2.566069e-05
1.266343e+01	-2.595797e-05
1.273657e+01	-2.625870e-05
1.281014e+01	-2.656292e-05
1.288413e+01	-2.687065e-05
1.295855e+01	-2.718196e-05
1.303339e+01	-2.749687e-05
1.310867e+01	-2.781543e-05
1.318439e+01	-2.813767e-05
1.326054e+01	-2.846366e-05
1.333713e+01	-2.879341e-05
1.341417e+01	-2.912699e-05
1.349165e+01	-2.946444e-05
1.356958e+01	-2.980579e-05
1.364795e+01	-3.015110e-05
1.372678e+01	-3.050040e-05
1.380607e+01	-3.085376e-05
1.388581e+01	-3.121121e-05
1.396602e+01	-3.157280e-05
1.404668e+01	-3.193857e-05
1.412782e+01	-3.230859e-05
1.420942e+01	-3.268289e-05
1.429149e+01	-3.306153e-05
1.437404e+01	-3.344456e-05
1.445706e+01	-3.383202e-05
1.454057e+01	-3.422397e-05
1.462455e+01	-3.462046e-05
1.470902e+01	-3.502155e-05
1.479398e+01	-3.542728e-05
1.487943e+01	-3.583772e-05
1.496537e+01	-3.625290e-05
1.505181e+01	-3.667290e-05
1.513875e+01	-3.709777e-05
1.522619e+01	-3.752755e-05
1.531414e+01	-3.796232e-05
1.540259e+01	-3.840212e-05
1.549156e+01	-3.884702e-05
1.558103e+01	-3.929707e-05
1.567103e+01	-3.975234e-05
1.576155e+01	-4.021288e-05
1.585258e+01	-4.067875e-05
1.594415e+01	-4.115002e-05
1.603624e+01	-4.162676e-05
1.612886e+01	-4.210901e-05
1.622202e+01	-4.259685e-05
1.631572e+01	-4.309035e-05
1.640996e+01	-4.358956e-05
1.650474e+01	-4.409455e-05
1.660008e+01	-4.460540e-05
1.669596e+01	-4.512216e-05
1.679239e+01	-4.564491e-05
1.688938e+01	-4.617372e-05
1.698694e+01	-4.670865e-05
1.708505e+01	-4.724978e-05
1.718373e+01	-4.779718e-05
1.728299e+01	-4.835092e-05
1.738281e+01	-4.891108e-05
1.748322e+01	-4.947772e-05
1.758420e+01	-5.005093e-05
1.768576e+01	-5.063078e-05
1.778792e+01	-5.121735e-05
1.789066e+01	-5.181071e-05
1.799399e+01	-5.241095e-05
1.809793e+01	-5.301814e-05
1.820246e+01	-5.363237e-05
1.830760e+01	-5.425371e-05
1.841334e+01	-5.488225e-05
1.851969e+01	-5.551807e-05
1.862666e+01	-5.616126e-05
1.873425e+01	-5.681190e-05
1.884246e+01	-5.747008e-05
1.895129e+01	-5.813588e-05
1.906075e+01	-5.880940e-05
1.917085e+01	-5.949072e-05
1.928158e+01	-6.017993e-05
1.939295e+01	-6.087712e-05
1.950496e+01	-6.158240e-05
1.961762e+01	-6.229584e-05
1.973093e+01	-6.301755e-05
1.984490e+01	-6.374762e-05
1.995952e+01	-6.448615e-05
2.007480e+01	-6.523324e-05
2.019076e+01	-6.598897e-05
2.030738e+01	-6.675347e-05
2.042467e+01	-6.752682e-05
2.054264e+01	-6.830913e-05
2.066130e+01	-6.910051e-05
2.078064e+01	-6.990105e-05
2.090066e+01	-7.071087e-05
2.102139e+01	-7.153006e-05
2.114280e+01	-7.235875e-05
2.126492e+01	-7.319704e-05
2.138775e+01	-7.404504e-05
2.151128e+01	-7.490287e-05
2.163553e+01	-7.577063e-05
2.176050e+01	-7.664845e-05
2.188619e+01	-7.753643e-05
2.201260e+01	-7.843471e-05
2.213974e+01	-7.934339e-05
2.226762e+01	-8.026259e-05
2.239624e+01	-8.119245e-05
2.252560e+01	-8.213308e-05
2.265571e+01	-8.308460e-05
2.278656e+01	-8.404715e-05
2.291818e+01	-8.502085e-05
2.305055e+01	-8.600583e-05
2.318369e+01	-8.700222e-05
2.331760e+01	-8.801016e-05
2.345228e+01	-8.902977e-05
2.358774e+01	-9.006119e-05
2.372398e+01	-9.110457e-05
2.386101e+01	-9.216003e-05
2.399883e+01	-9.322772e-05
2.413745e+01	-9.430777e-05
2.427686e+01	-9.540034e-05
2.441709e+01	-9.650557e-05
2.455812e+01	-9.762360e-05
2.469997e+01	-9.875459e-05
2.484263e+01	-9.989867e-05
2.498612e+01	-1.010560e-04
2.513044e+01	-1.022268e-04
2.527559e+01	-1.034111e-04
2.542158e+01	-1.046091e-04
2.556842e+01	-1.058210e-04
2.571610e+01	-1.070470e-04
2.586463e+01	-1.082871e-04
2.601403e+01	-1.095416e-04
2.616428e+01	-1.108107e-04
2.631541e+01	-1.120945e-04
2.646740e+01	-1.133931e-04
2.662028e+01	-1.147068e-04
2.677404e+01	-1.160356e-04
2.692868e+01	-1.173799e-04
2.708422e+01	-1.187398e-04
2.724066e+01	-1.201154e-04
2.739800e+01	-1.215070e-04
2.755625e+01	-1.229146e-04
2.771541e+01	-1.243386e-04
2.787550e+01	-1.257791e-04
2.803650e+01	-1.272363e-04
2.819844e+01	-1.287103e-04
2.836131e+01	-1.302014e-04
2.852513e+01	-1.317098e-04
2.868989e+01	-1.332357e-04
2.885560e+01	-1.347792e-04
2.902227e+01	-1.363407e-04
2.918990e+01	-1.379202e-04
2.935850e+01	-1.395180e-04
2.952807e+01	-1.411343e-04
2.969863e+01	-1.427694e-04
2.987016e+01	-1.444234e-04
3.004269e+01	-1.460965e-04
3.021622e+01	-1.477891e-04
3.039075e+01	-1.495012e-04
3.056628e+01	-1.512332e-04
3.074283e+01	-1.529853e-04
3.092040e+01	-1.547576e-04
3.109900e+01	-1.565505e-04
3.127862e+01	-1.583641e-04
3.145929e+01	-1.601988e-04
3.164099e+01	-1.620547e-04
3.182375e+01	-1.639321e-04
3.200756e+01	-1.658313e-04
3.219244e+01	-1.677524e-04
3.237838e+01	-1.696959e-04
3.256540e+01	-1.716618e-04
3.275349e+01	-1.736505e-04
3.294268e+01	-1.756623e-04
3.313295e+01	-1.776973e-04
3.332433e+01	-1.797559e-04
3.351681e+01	-1.818384e-04
3.371040e+01	-1.839450e-04
3.390511e+01	-1.860760e-04
3.410094e+01	-1.882317e-04
3.429791e+01	-1.904124e-04
3.449601e+01	-1.926183e-04
3.469526e+01	-1.948498e-04
3.489566e+01	-1.971072e-04
3.509721e+01	-1.993907e-04
3.529993e+01	-2.017006e-04
3.550382e+01	-2.040373e-04
3.570889e+01	-2.064011e-04
3.591515e+01	-2.087922e-04
3.612259e+01	-2.112111e-04
3.633123e+01	-2.136580e-04
3.654108e+01	-2.161332e-04
3.675214e+01	-2.186371e-04
3.696442e+01	-2.211700e-04
3.717792e+01	-2.237322e-04
3.739266e+01	-2.263242e-04
3.760864e+01	-2.289461e-04
3.782587e+01	-2.315985e-04
3.804435e+01	-2.342815e-04
3.826409e+01	-2.369957e-04
3.848510e+01	-2.397413e-04
3.870739e+01	-2.425187e-04
3.893096e+01	-2.453282e-04
3.915583e+01	-2.481703e-04
3.938199e+01	-2.510454e-04
3.960946e+01	-2.539537e-04
3.983824e+01	-2.568958e-04
4.006834e+01	-2.598719e-04
4.029978e+01	-2.628825e-04
4.053255e+01	-2.659279e-04
4.076666e+01	-2.690087e-04
4.100213e+01	-2.721251e-04
4.123896e+01	-2.752777e-04
4.147715e+01	-2.784668e-04
4.171672e+01	-2.816928e-04
4.195767e+01	-2.849561e-04
4.220002e+01	-2.882573e-04
4.244377e+01	-2.915968e-04
4.268892e+01	-2.949749e-04
4.293549e+01	-2.983921e-04
4.318348e+01	-3.018490e-04
4.343291e+01	-3.053458e-04
4.368377e+01	-3.088832e-04
4.393609e+01	-3.124616e-04
4.418986e+01	-3.160814e-04
4.444510e+01	-3.197432e-04
4.470182e+01	-3.234474e-04
4.496001e+01	-3.271944e-04
4.521970e+01	-3.309849e-04
4.548089e+01	-3.348193e-04
4.574358e+01	-3.386982e-04
4.600779e+01	-3.426219e-04
4.627353e+01	-3.465911e-04
4.654081e+01	-3.506063e-04
4.680963e+01	-3.546680e-04
4.708000e+01	-3.587768e-04
4.735193e+01	-3.629331e-04
4.762543e+01	-3.671376e-04
4.790051e+01	-3.713909e-04
4.817719e+01	-3.756933e-04
4.845545e+01	-3.800457e-04
4.873533e+01	-3.844484e-04
4.901682e+01	-3.889021e-04
4.929994e+01	-3.934075e-04
4.958470e+01	-3.979650e-04
4.987110e+01	-4.025753e-04
5.015915e+01	-4.072391e-04
5.044887e+01	-4.119568e-04
5.074026e+01	-4.167292e-04
5.103333e+01	-4.215569e-04
5.132810e+01	-4.264405e-04
5.162457e+01	-4.313807e-04
5.192275e+01	-4.363781e-04
5.222265e+01	-4.414334e-04
5.252429e+01	-4.465473e-04
5.282767e+01	-4.517204e-04
5.313280e+01	-4.569534e-04
5.343969e+01	-4.622471e-04
5.374836e+01	-4.676020e-04
5.405880e+01	-4.730190e-04
5.437105e+01	-4.784988e-04
5.468509e+01	-4.840420e-04
5.500095e+01	-4.896495e-04
5.531863e+01	-4.953219e-04
5.563815e+01	-5.010600e-04
5.595951e+01	-5.068646e-04
5.628273e+01	-5.127364e-04
5.660782e+01	-5.186762e-04
5.693479e+01	-5.246849e-04
5.726364e+01	-5.307631e-04
5.759439e+01	-5.369118e-04
5.792705e+01	-5.431317e-04
5.826164e+01	-5.494236e-04
5.859815e+01	-5.557884e-04
5.893662e+01	-5.622269e-04
5.927703e+01	-5.687401e-04
5.961941e+01	-5.753287e-04
5.996377e+01	-5.819935e-04
6.031012e+01	-5.887356e-04
6.065847e+01	-5.955558e-04
6.100883e+01	-6.024550e-04
6.136121e+01	-6.094342e-04
6.171563e+01	-6.164941e-04
6.207210e+01	-6.236359e-04
6.243063e+01	-6.308603e-04
6.279122e+01	-6.381685e-04
6.315390e+01	-6.455613e-04
6.351868e+01	-6.530397e-04
6.388556e+01	-6.606048e-04
6.425456e+01	-6.682575e-04
6.462569e+01	-6.759988e-04
6.499897e+01	-6.838299e-04
6.537440e+01	-6.917516e-04
6.575200e+01	-6.997651e-04
6.613178e+01	-7.078714e-04
6.651375e+01	-7.160716e-04
6.689793e+01	-7.243668e-04
6.728433e+01	-7.327581e-04
6.767297e+01	-7.412465e-04
6.806384e+01	-7.498334e-04
6.845698e+01	-7.585196e-04
6.885238e+01	-7.673065e-04
6.925007e+01	-7.761952e-04
6.965005e+01	-7.851868e-04
7.005235e+01	-7.942826e-04
7.045697e+01	-8.034837e-04
7.086393e+01	-8.127914e-04
7.127323e+01	-8.222069e-04
7.168490e+01	-8.317315e-04
7.209895e+01	-8.413664e-04
7.251539e+01	-8.511129e-04
7.293424e+01	-8.609723e-04
7.335551e+01	-8.709459e-04
7.377920e+01	-8.810350e-04
7.420535e+01	-8.912410e-04
7.463396e+01	-9.015652e-04
7.506504e+01	-9.120090e-04
7.549861e+01	-9.225737e-04
7.593469e+01	-9.332609e-04
7.637328e+01	-9.440718e-04
7.681441e+01	-9.550079e-04
7.725809e+01	-9.660707e-04
7.770433e+01	-9.772616e-04
7.815315e+01	-9.885822e-04
7.860456e+01	-1.000034e-03
7.905857e+01	-1.011618e-03
7.951521e+01	-1.023337e-03
7.997449e+01	-1.035191e-03
8.043642e+01	-1.047182e-03
8.090102e+01	-1.059313e-03
8.136830e+01	-1.071584e-03
8.183828e+01	-1.083997e-03
8.231097e+01	-1.096554e-03
8.278640e+01	-1.109256e-03
8.326457e+01	-1.122105e-03
8.374550e+01	-1.135103e-03
8.422921e+01	-1.148252e-03
8.471572e+01	-1.161553e-03
8.520503e+01	-1.175008e-03
8.569717e+01	-1.188619e-03
8.619215e+01	-1.202388e-03
8.669000e+01	-1.216316e-03
8.719071e+01	-1.230405e-03
8.769432e+01	-1.244658e-03
8.820084e+01	-1.259075e-03
8.871029e+01	-1.273660e-03
8.922267e+01	-1.288413e-03
8.973802e+01	-1.303338e-03
9.025634e+01	-1.318435e-03
9.077766e+01	-1.333707e-03
9.130199e+01	-1.349156e-03
9.182935e+01	-1.364784e-03
9.235975e+01	-1.380593e-03
9.289321e+01	-1.396585e-03
9.342976e+01	-1.412762e-03
9.396941e+01	-1.429126e-03
9.451217e+01	-1.445681e-03
9.505807e+01	-1.462426e-03
9.560712e+01	-1.479366e-03
9.615934e+01	-1.496502e-03
9.671476e+01	-1.513836e-03
9.727338e+01	-1.531371e-03
9.783522e+01	-1.549110e-03
9.840032e+01	-1.567053e-03
9.896867e+01	-1.585205e-03
9.954031e+01	-1.603566e-03
1.001153e+02	-1.622140e-03
1.006935e+02	-1.640930e-03
1.012751e+02	-1.659937e-03
1.018601e+02	-1.679164e-03
1.024484e+02	-1.698614e-03
1.030402e+02	-1.718289e-03
1.036353e+02	-1.738192e-03
1.042339e+02	-1.758325e-03
1.048360e+02	-1.778691e-03
1.054415e+02	-1.799294e-03
1.060505e+02	-1.820135e-03
1.066631e+02	-1.841217e-03
1.072791e+02	-1.862543e-03
1.078988e+02	-1.884117e-03
1.085220e+02	-1.905940e-03
1.091488e+02	-1.928016e-03
1.097793e+02	-1.950347e-03
1.104133e+02	-1.972938e-03
1.110511e+02	-1.995789e-03
1.116925e+02	-2.018906e-03
1.123376e+02	-2.042290e-03
1.129865e+02	-2.065945e-03
1.136391e+02	-2.089873e-03
1.142955e+02	-2.114079e-03
1.149556e+02	-2.138565e-03
1.156196e+02	-2.163335e-03
1.162874e+02	-2.188392e-03
1.169591e+02	-2.213738e-03
1.176347e+02	-2.239378e-03
1.183141e+02	-2.265315e-03
1.189975e+02	-2.291553e-03
1.196848e+02	-2.318094e-03
1.203761e+02	-2.344942e-03
1.210714e+02	-2.372102e-03
1.217707e+02	-2.399575e-03
1.224740e+02	-2.427367e-03
1.231814e+02	-2.455481e-03
1.238929e+02	-2.483920e-03
1.246085e+02	-2.512689e-03
1.253283e+02	-2.541791e-03
1.260522e+02	-2.571229e-03
1.267802e+02	-2.601009e-03
1.275125e+02	-2.631133e-03
1.282490e+02	-2.661606e-03
1.289898e+02	-2.692432e-03
1.297348e+02	-2.723614e-03
1.304842e+02	-2.755158e-03
1.312378e+02	-2.787067e-03
1.319959e+02	-2.819346e-03
1.327583e+02	-2.851998e-03
1.335251e+02	-2.885028e-03
1.342963e+02	-2.918440e-03
1.350720e+02	-2.952240e-03
1.358522e+02	-2.986431e-03
1.366368e+02	-3.021017e-03
1.374260e+02	-3.056004e-03
1.382198e+02	-3.091396e-03
1.390182e+02	-3.127198e-03
1.398211e+02	-3.163414e-03
1.406287e+02	-3.200049e-03
1.414410e+02	-3.237109e-03
1.422579e+02	-3.274598e-03
1.430796e+02	-3.312520e-03
1.439060e+02	-3.350882e-03
1.447372e+02	-3.389687e-03
1.455732e+02	-3.428942e-03
1.464141e+02	-3.468652e-03
1.472597e+02	-3.508821e-03
1.481103e+02	-3.549455e-03
1.489658e+02	-3.590559e-03
1.498262e+02	-3.632139e-03
1.506916e+02	-3.674200e-03
1.515620e+02	-3.716749e-03
1.524374e+02	-3.759790e-03
1.533179e+02	-3.803329e-03
1.542034e+02	-3.847372e-03
1.550941e+02	-3.891924e-03
1.559899e+02	-3.936993e-03
1.568909e+02	-3.982583e-03
1.577971e+02	-4.028701e-03
1.587085e+02	-4.075353e-03
1.596252e+02	-4.122544e-03
1.605472e+02	-4.170282e-03
1.614745e+02	-4.218572e-03
1.624072e+02	-4.267421e-03
1.633453e+02	-4.316836e-03
1.642887e+02	-4.366822e-03
1.652377e+02	-4.417387e-03
1.661921e+02	-4.468538e-03
1.671520e+02	-4.520280e-03
1.681175e+02	-4.572621e-03
1.690885e+02	-4.625567e-03
1.700651e+02	-4.679127e-03
1.710474e+02	-4.733306e-03
1.720354e+02	-4.788113e-03
1.730291e+02	-4.843553e-03
1.740285e+02	-4.899635e-03
1.750337e+02	-4.956366e-03
1.760446e+02	-5.013754e-03
1.770615e+02	-5.071805e-03
1.780842e+02	-5.130529e-03
1.791128e+02	-5.189932e-03
1.801473e+02	-5.250022e-03
1.811878e+02	-5.310808e-03
1.822344e+02	-5.372297e-03
1.832870e+02	-5.434497e-03
1.843456e+02	-5.497417e-03
1.854104e+02	-5.561065e-03
1.864813e+02	-5.625450e-03
1.875584e+02	-5.690579e-03
1.886418e+02	-5.756462e-03
1.897313e+02	-5.823107e-03
1.908272e+02	-5.890524e-03
1.919294e+02	-5.958720e-03
1.930380e+02	-6.027705e-03
1.941530e+02	-6.097489e-03
1.952744e+02	-6.168079e-03
1.964023e+02	-6.239487e-03
1.975367e+02	-6.311720e-03
1.986777e+02	-6.384789e-03
1.998252e+02	-6.458703e-03
2.009794e+02	-6.533473e-03
2.021403e+02	-6.609107e-03
2.033078e+02	-6.685616e-03
2.044821e+02	-6.763010e-03
2.056632e+02	-6.841300e-03
2.068511e+02	-6.920494e-03
2.080459e+02	-7.000605e-03
2.092475e+02	-7.081643e-03
2.104561e+02	-7.163618e-03
2.116717e+02	-7.246541e-03
2.128943e+02	-7.330423e-03
2.141240e+02	-7.415275e-03
2.153608e+02	-7.501108e-03
2.166047e+02	-7.587934e-03
2.178558e+02	-7.675764e-03
2.191141e+02	-7.764610e-03
2.203797e+02	-7.854484e-03
2.216526e+02	-7.945397e-03
2.229329e+02	-8.037361e-03
2.242205e+02	-8.130388e-03
2.255156e+02	-8.224491e-03
2.268182e+02	-8.319683e-03
2.281283e+02	-8.415975e-03
2.294459e+02	-8.513380e-03
2.307712e+02	-8.611912e-03
2.321041e+02	-8.711582e-03
2.334447e+02	-8.812406e-03
2.347931e+02	-8.914394e-03
2.361493e+02	-9.017562e-03
2.375133e+02	-9.121923e-03
2.388851e+02	-9.227490e-03
2.402649e+02	-9.334278e-03
2.416527e+02	-9.442300e-03
2.430484e+02	-9.551571e-03
2.444523e+02	-9.662105e-03
2.458642e+02	-9.773916e-03
2.472843e+02	-9.887020e-03
2.487126e+02	-1.000143e-02
2.501492e+02	-1.011717e-02
2.515940e+02	-1.023424e-02
2.530472e+02	-1.035266e-02
2.545088e+02	-1.047245e-02
2.559789e+02	-1.059363e-02
2.574574e+02	-1.071621e-02
2.589444e+02	-1.084020e-02
2.604401e+02	-1.096563e-02
2.619444e+02	-1.109251e-02
2.634574e+02	-1.122085e-02
2.649791e+02	-1.135068e-02
2.665096e+02	-1.148200e-02
2.680489e+02	-1.161485e-02
2.695972e+02	-1.174923e-02
2.711544e+02	-1.188516e-02
2.727205e+02	-1.202266e-02
2.742958e+02	-1.216175e-02
2.758801e+02	-1.230244e-02
2.774736e+02	-1.244477e-02
2.790762e+02	-1.258873e-02
2.806882e+02	-1.273436e-02
2.823094e+02	-1.288167e-02
2.839400e+02	-1.303069e-02
2.855800e+02	-1.318142e-02
2.872295e+02	-1.333390e-02
2.888886e+02	-1.348813e-02
2.905572e+02	-1.364415e-02
2.922354e+02	-1.380197e-02
2.939234e+02	-1.396161e-02
2.956211e+02	-1.412309e-02
2.973286e+02	-1.428644e-02
2.990459e+02	-1.445168e-02
3.007732e+02	-1.461882e-02
3.025104e+02	-1.478790e-02
3.042577e+02	-1.495892e-02
3.060151e+02	-1.513192e-02
3.077826e+02	-1.530692e-02
3.095604e+02	-1.548394e-02
3.113484e+02	-1.566300e-02
3.131467e+02	-1.584412e-02
3.149554e+02	-1.602734e-02
3.167746e+02	-1.621268e-02
3.186043e+02	-1.640015e-02
3.204445e+02	-1.658978e-02
3.222954e+02	-1.678161e-02
3.241570e+02	-1.697565e-02
3.260293e+02	-1.717192e-02
3.279124e+02	-1.737046e-02
3.298064e+02	-1.757130e-02
3.317114e+02	-1.777445e-02
3.336273e+02	-1.797994e-02
3.355544e+02	-1.818781e-02
3.374925e+02	-1.839807e-02
3.394418e+02	-1.861076e-02
3.414024e+02	-1.882590e-02
3.433744e+02	-1.904352e-02
3.453577e+02	-1.926365e-02
3.473525e+02	-1.948633e-02
3.493588e+02	-1.971157e-02
3.513766e+02	-1.993940e-02
3.534062e+02	-2.016987e-02
3.554474e+02	-2.040299e-02
3.575005e+02	-2.063880e-02
3.595654e+02	-2.087733e-02
3.616422e+02	-2.111861e-02
3.637311e+02	-2.136267e-02
3.658320e+02	-2.160954e-02
3.679450e+02	-2.185926e-02
3.700702e+02	-2.211186e-02
3.722077e+02	-2.236737e-02
3.743576e+02	-2.262583e-02
3.765199e+02	-2.288726e-02
3.786946e+02	-2.315171e-02
3.808820e+02	-2.341920e-02
3.830819e+02	-2.368977e-02
3.852946e+02	-2.396347e-02
3.875200e+02	-2.424031e-02
3.897583e+02	-2.452035e-02
3.920096e+02	-2.480361e-02
3.942738e+02	-2.509013e-02
3.965511e+02	-2.537995e-02
3.988416e+02	-2.567312e-02
4.011452e+02	-2.596965e-02
4.034622e+02	-2.626961e-02
4.057926e+02	-2.657301e-02
4.081365e+02	-2.687991e-02
4.104938e+02	-2.719034e-02
4.128648e+02	-2.750435e-02
4.152495e+02	-2.782197e-02
4.176480e+02	-2.814325e-02
4.200603e+02	-2.846822e-02
4.224866e+02	-2.879694e-02
4.249268e+02	-2.912944e-02
4.273812e+02	-2.946576e-02
4.298497e+02	-2.980595e-02
4.323325e+02	-3.015006e-02
4.348297e+02	-3.049813e-02
4.373412e+02	-3.085020e-02
4.398673e+02	-3.120632e-02
4.424079e+02	-3.156653e-02
4.449633e+02	-3.193089e-02
4.475334e+02	-3.229944e-02
4.501183e+02	-3.267222e-02
4.527182e+02	-3.304930e-02
4.553330e+02	-3.343070e-02
4.579630e+02	-3.381650e-02
4.606082e+02	-3.420672e-02
4.632687e+02	-3.460143e-02
4.659445e+02	-3.500068e-02
4.686358e+02	-3.540451e-02
4.713426e+02	-3.581299e-02
4.740650e+02	-3.622616e-02
4.768032e+02	-3.664407e-02
4.795572e+02	-3.706678e-02
4.823271e+02	-3.749435e-02
4.851130e+02	-3.792683e-02
4.879150e+02	-3.836428e-02
4.907332e+02	-3.880675e-02
4.935676e+02	-3.925430e-02
4.964185e+02	-3.970699e-02
4.992858e+02	-4.016487e-02
5.021696e+02	-4.062801e-02
5.050701e+02	-4.109646e-02
5.079874e+02	-4.157029e-02
5.109215e+02	-4.204956e-02
5.138726e+02	-4.253432e-02
5.168407e+02	-4.302465e-02
5.198259e+02	-4.352060e-02
5.228284e+02	-4.402223e-02
5.258482e+02	-4.452962e-02
5.288855e+02	-4.504283e-02
5.319403e+02	-4.556192e-02
5.350128e+02	-4.608696e-02
5.381030e+02	-4.661802e-02
5.412111e+02	-4.715516e-02
5.443371e+02	-4.769846e-02
5.474812e+02	-4.824799e-02
5.506434e+02	-4.880380e-02
5.538239e+02	-4.936599e-02
5.570228e+02	-4.993461e-02
5.602401e+02	-5.050975e-02
5.634760e+02	-5.109147e-02
5.667306e+02	-5.167985e-02
5.700040e+02	-5.227497e-02
5.732964e+02	-5.287689e-02
5.766077e+02	-5.348571e-02
5.799382e+02	-5.410149e-02
5.832879e+02	-5.472432e-02
5.866569e+02	-5.535427e-02
5.900454e+02	-5.599142e-02
5.934535e+02	-5.663586e-02
5.968813e+02	-5.728767e-02
6.003288e+02	-5.794693e-02
6.037963e+02	-5.861372e-02
6.072838e+02	-5.928814e-02
6.107914e+02	-5.997026e-02
6.143194e+02	-6.066017e-02
6.178676e+02	-6.135797e-02
6.214364e+02	-6.206373e-02
6.250258e+02	-6.277756e-02
6.286359e+02	-6.349953e-02
6.322669e+02	-6.422975e-02
6.359189e+02	-6.496829e-02
6.395919e+02	-6.571527e-02
6.432862e+02	-6.647077e-02
6.470017e+02	-6.723489e-02
6.507388e+02	-6.800772e-02
6.544974e+02	-6.878937e-02
6.582778e+02	-6.957992e-02
6.620800e+02	-7.037949e-02
6.659041e+02	-7.118817e-02
6.697504e+02	-7.200607e-02
6.736188e+02	-7.283328e-02
6.775096e+02	-7.366992e-02
6.814229e+02	-7.451608e-02
6.853587e+02	-7.537188e-02
6.893173e+02	-7.623742e-02
6.932988e+02	-7.711281e-02
6.973033e+02	-7.799816e-02
7.013309e+02	-7.889358e-02
