Frequency(Hz)	Magnitude(dB)
1.000000e+01	-2.327598e+00
1.005776e+01	-2.348400e+00
1.011585e+01	-2.369247e+00
1.017428e+01	-2.390491e+00
1.023305e+01	-2.411755e+00
1.029215e+01	-2.433352e+00
1.035160e+01	-2.454833e+00
1.041139e+01	-2.476210e+00
1.047153e+01	-2.498383e+00
1.053201e+01	-2.520193e+00
1.059284e+01	-2.542285e+00
1.065403e+01	-2.564354e+00
1.071556e+01	-2.586807e+00
1.077746e+01	-2.609499e+00
1.083971e+01	-2.632008e+00
1.090232e+01	-2.654947e+00
1.096529e+01	-2.677672e+00
1.102862e+01	-2.700895e+00
1.109232e+01	-2.724249e+00
1.115639e+01	-2.747350e+00
1.122083e+01	-2.770831e+00
1.128564e+01	-2.794888e+00
1.135083e+01	-2.818698e+00
1.141639e+01	-2.842359e+00
1.148233e+01	-2.866513e+00
1.154865e+01	-2.890746e+00
1.161536e+01	-2.915300e+00
1.168245e+01	-2.939766e+00
1.174992e+01	-2.964318e+00
1.181779e+01	-2.989234e+00
1.188605e+01	-3.014168e+00
1.195470e+01	-3.039181e+00
1.202375e+01	-3.064423e+00
1.209320e+01	-3.089868e+00
1.216305e+01	-3.115537e+00
1.223330e+01	-3.141493e+00
1.230396e+01	-3.166981e+00
1.237503e+01	-3.192777e+00
1.244651e+01	-3.219027e+00
1.251840e+01	-3.245201e+00
1.259070e+01	-3.271814e+00
1.266343e+01	-3.298231e+00
1.273657e+01	-3.325125e+00
1.281014e+01	-3.351621e+00
1.288413e+01	-3.378822e+00
1.295855e+01	-3.406027e+00
1.303339e+01	-3.433176e+00
1.310867e+01	-3.460294e+00
1.318439e+01	-3.488188e+00
1.326054e+01	-3.515851e+00
1.333713e+01	-3.543424e+00
1.341417e+01	-3.571611e+00
1.349165e+01	-3.599500e+00
1.356958e+01	-3.628119e+00
1.364795e+01	-3.656028e+00
1.372678e+01	-3.684876e+00
1.380607e+01	-3.713692e+00
1.388581e+01	-3.742320e+00
1.396602e+01	-3.771155e+00
1.404668e+01	-3.800439e+00
1.412782e+01	-3.829651e+00
1.420942e+01	-3.859263e+00
1.429149e+01	-3.888721e+00
1.437404e+01	-3.918206e+00
1.445706e+01	-3.948083e+00
1.454057e+01	-3.978337e+00
1.462455e+01	-4.008032e+00
1.470902e+01	-4.038430e+00
1.479398e+01	-4.068650e+00
1.487943e+01	-4.099133e+00
1.496537e+01	-4.129782e+00
1.505181e+01	-4.160500e+00
1.513875e+01	-4.191580e+00
1.522619e+01	-4.222365e+00
1.531414e+01	-4.253471e+00
1.540259e+01	-4.284971e+00
1.549156e+01	-4.316212e+00
1.558103e+01	-4.348126e+00
1.567103e+01	-4.379816e+00
1.576155e+01	-4.411300e+00
1.585258e+01	-4.443366e+00
1.594415e+01	-4.475555e+00
1.603624e+01	-4.507515e+00
1.612886e+01	-4.540257e+00
1.622202e+01	-4.572870e+00
1.631572e+01	-4.605300e+00
1.640996e+01	-4.638341e+00
1.650474e+01	-4.671174e+00
1.660008e+01	-4.704271e+00
1.669596e+01	-4.737485e+00
1.679239e+01	-4.770509e+00
1.688938e+01	-4.804125e+00
1.698694e+01	-4.837351e+00
1.708505e+01	-4.871244e+00
1.718373e+01	-4.905271e+00
1.728299e+01	-4.938728e+00
1.738281e+01	-4.972867e+00
1.748322e+01	-5.007023e+00
1.758420e+01	-5.041501e+00
1.768576e+01	-5.075963e+00
1.778792e+01	-5.110503e+00
1.789066e+01	-5.144850e+00
1.799399e+01	-5.179671e+00
1.809793e+01	-5.214767e+00
1.820246e+01	-5.249817e+00
1.830760e+01	-5.284774e+00
1.841334e+01	-5.320303e+00
1.851969e+01	-5.355332e+00
1.862666e+01	-5.391251e+00
1.873425e+01	-5.426410e+00
1.884246e+01	-5.462484e+00
1.895129e+01	-5.498521e+00
1.906075e+01	-5.534291e+00
1.917085e+01	-5.570475e+00
1.928158e+01	-5.606660e+00
1.939295e+01	-5.642871e+00
1.950496e+01	-5.679425e+00
1.961762e+01	-5.715683e+00
1.973093e+01	-5.752530e+00
1.984490e+01	-5.789141e+00
1.995952e+01	-5.826314e+00
2.007480e+01	-5.863019e+00
2.019076e+01	-5.900415e+00
2.030738e+01	-5.937434e+00
2.042467e+01	-5.974756e+00
2.054264e+01	-6.012120e+00
2.066130e+01	-6.050070e+00
2.078064e+01	-6.087554e+00
2.090066e+01	-6.125488e+00
2.102139e+01	-6.163399e+00
2.114280e+01	-6.201383e+00
2.126492e+01	-6.239273e+00
2.138775e+01	-6.277022e+00
2.151128e+01	-6.315648e+00
2.163553e+01	-6.354004e+00
2.176050e+01	-6.392761e+00
2.188619e+01	-6.431439e+00
2.201260e+01	-6.469682e+00
2.213974e+01	-6.508592e+00
2.226762e+01	-6.547333e+00
2.239624e+01	-6.586919e+00
2.252560e+01	-6.625798e+00
2.265571e+01	-6.664758e+00
2.278656e+01	-6.704082e+00
2.291818e+01	-6.743518e+00
2.305055e+01	-6.783068e+00
2.318369e+01	-6.822782e+00
2.331760e+01	-6.862204e+00
2.345228e+01	-6.901895e+00
2.358774e+01	-6.942182e+00
2.372398e+01	-6.981865e+00
2.386101e+01	-7.022015e+00
2.399883e+01	-7.062107e+00
2.413745e+01	-7.102442e+00
2.427686e+01	-7.142892e+00
2.441709e+01	-7.183009e+00
2.455812e+01	-7.223495e+00
2.469997e+01	-7.263889e+00
2.484263e+01	-7.304456e+00
2.498612e+01	-7.345855e+00
2.513044e+01	-7.386394e+00
2.527559e+01	-7.427306e+00
2.542158e+01	-7.468320e+00
2.556842e+01	-7.509042e+00
2.571610e+01	-7.551097e+00
2.586463e+01	-7.592010e+00
2.601403e+01	-7.633278e+00
2.616428e+01	-7.674976e+00
2.631541e+01	-7.715913e+00
2.646740e+01	-7.757906e+00
2.662028e+01	-7.799586e+00
2.677404e+01	-7.841488e+00
2.692868e+01	-7.882973e+00
2.708422e+01	-7.924992e+00
2.724066e+01	-7.967144e+00
2.739800e+01	-8.008942e+00
2.755625e+01	-8.051317e+00
2.771541e+01	-8.094058e+00
2.787550e+01	-8.135833e+00
2.803650e+01	-8.177761e+00
2.819844e+01	-8.220683e+00
2.836131e+01	-8.263400e+00
2.852513e+01	-8.306048e+00
2.868989e+01	-8.348327e+00
2.885560e+01	-8.391370e+00
2.902227e+01	-8.434173e+00
2.918990e+01	-8.477282e+00
2.935850e+01	-8.519569e+00
2.952807e+01	-8.562575e+00
2.969863e+01	-8.605490e+00
2.987016e+01	-8.649062e+00
3.004269e+01	-8.692111e+00
3.021622e+01	-8.735659e+00
3.039075e+01	-8.778891e+00
3.056628e+01	-8.822132e+00
3.074283e+01	-8.866204e+00
3.092040e+01	-8.909312e+00
3.109900e+01	-8.953199e+00
3.127862e+01	-8.996745e+00
3.145929e+01	-9.040732e+00
3.164099e+01	-9.084016e+00
3.182375e+01	-9.128481e+00
3.200756e+01	-9.171910e+00
3.219244e+01	-9.216343e+00
3.237838e+01	-9.260325e+00
3.256540e+01	-9.304062e+00
3.275349e+01	-9.348809e+00
3.294268e+01	-9.392771e+00
3.313295e+01	-9.437101e+00
3.332433e+01	-9.481231e+00
3.351681e+01	-9.526207e+00
3.371040e+01	-9.570823e+00
3.390511e+01	-9.614702e+00
3.410094e+01	-9.660142e+00
3.429791e+01	-9.704263e+00
3.449601e+01	-9.748711e+00
3.469526e+01	-9.793837e+00
3.489566e+01	-9.838222e+00
3.509721e+01	-9.882965e+00
3.529993e+01	-9.928195e+00
3.550382e+01	-9.972957e+00
3.570889e+01	-1.001800e+01
3.591515e+01	-1.006319e+01
3.612259e+01	-1.010825e+01
3.633123e+01	-1.015356e+01
3.654108e+01	-1.019883e+01
3.675214e+01	-1.024383e+01
3.696442e+01	-1.028936e+01
3.717792e+01	-1.033467e+01
3.739266e+01	-1.038021e+01
3.760864e+01	-1.042522e+01
3.782587e+01	-1.047127e+01
3.804435e+01	-1.051666e+01
3.826409e+01	-1.056252e+01
3.848510e+01	-1.060818e+01
3.870739e+01	-1.065304e+01
3.893096e+01	-1.069947e+01
3.915583e+01	-1.074532e+01
3.938199e+01	-1.079167e+01
3.960946e+01	-1.083681e+01
3.983824e+01	-1.088306e+01
4.006834e+01	-1.092848e+01
4.029978e+01	-1.097490e+01
4.053255e+01	-1.102024e+01
4.076666e+01	-1.106693e+01
4.100213e+01	-1.111345e+01
4.123896e+01	-1.115964e+01
4.147715e+01	-1.120518e+01
4.171672e+01	-1.125196e+01
4.195767e+01	-1.129787e+01
4.220002e+01	-1.134478e+01
4.244377e+01	-1.139096e+01
4.268892e+01	-1.143757e+01
4.293549e+01	-1.148374e+01
4.318348e+01	-1.153032e+01
4.343291e+01	-1.157659e+01
4.368377e+01	-1.162308e+01
4.393609e+01	-1.166952e+01
4.418986e+01	-1.171588e+01
4.444510e+01	-1.176330e+01
4.470182e+01	-1.180924e+01
4.496001e+01	-1.185667e+01
4.521970e+01	-1.190336e+01
4.548089e+01	-1.195043e+01
4.574358e+01	-1.199657e+01
4.600779e+01	-1.204399e+01
4.627353e+01	-1.209095e+01
4.654081e+01	-1.213712e+01
4.680963e+01	-1.218538e+01
4.708000e+01	-1.223195e+01
4.735193e+01	-1.227863e+01
4.762543e+01	-1.232557e+01
4.790051e+01	-1.237304e+01
4.817719e+01	-1.242078e+01
4.845545e+01	-1.246740e+01
4.873533e+01	-1.251560e+01
4.901682e+01	-1.256133e+01
4.929994e+01	-1.260895e+01
4.958470e+01	-1.265610e+01
4.987110e+01	-1.270387e+01
5.015915e+01	-1.275106e+01
5.044887e+01	-1.279844e+01
5.074026e+01	-1.284551e+01
5.103333e+01	-1.289351e+01
5.132810e+01	-1.294117e+01
5.162457e+01	-1.298924e+01
5.192275e+01	-1.303645e+01
5.222265e+01	-1.308363e+01
5.252429e+01	-1.313066e+01
5.282767e+01	-1.317819e+01
5.313280e+01	-1.322636e+01
5.343969e+01	-1.327327e+01
5.374836e+01	-1.332157e+01
5.405880e+01	-1.336930e+01
5.437105e+01	-1.341691e+01
5.468509e+01	-1.346485e+01
5.500095e+01	-1.351314e+01
5.531863e+01	-1.356053e+01
5.563815e+01	-1.360929e+01
5.595951e+01	-1.365608e+01
5.628273e+01	-1.370404e+01
5.660782e+01	-1.375265e+01
5.693479e+01	-1.379946e+01
5.726364e+01	-1.384770e+01
5.759439e+01	-1.389535e+01
5.792705e+01	-1.394378e+01
5.826164e+01	-1.399168e+01
5.859815e+01	-1.403988e+01
5.893662e+01	-1.408832e+01
5.927703e+01	-1.413551e+01
5.961941e+01	-1.418367e+01
5.996377e+01	-1.423167e+01
6.031012e+01	-1.427915e+01
6.065847e+01	-1.432851e+01
6.100883e+01	-1.437646e+01
6.136121e+01	-1.442463e+01
6.171563e+01	-1.447252e+01
6.207210e+01	-1.452177e+01
6.243063e+01	-1.456900e+01
6.279122e+01	-1.461801e+01
6.315390e+01	-1.466628e+01
6.351868e+01	-1.471354e+01
6.388556e+01	-1.476204e+01
6.425456e+01	-1.481074e+01
6.462569e+01	-1.486038e+01
6.499897e+01	-1.490853e+01
6.537440e+01	-1.495540e+01
6.575200e+01	-1.500480e+01
6.613178e+01	-1.505448e+01
6.651375e+01	-1.510181e+01
6.689793e+01	-1.515013e+01
6.728433e+01	-1.519864e+01
6.767297e+01	-1.524664e+01
6.806384e+01	-1.529577e+01
6.845698e+01	-1.534495e+01
6.885238e+01	-1.539356e+01
6.925007e+01	-1.544175e+01
6.965005e+01	-1.548992e+01
7.005235e+01	-1.553943e+01
7.045697e+01	-1.558722e+01
7.086393e+01	-1.563688e+01
7.127323e+01	-1.568435e+01
7.168490e+01	-1.573414e+01
7.209895e+01	-1.578213e+01
7.251539e+01	-1.583172e+01
7.293424e+01	-1.587795e+01
7.335551e+01	-1.592791e+01
7.377920e+01	-1.597686e+01
7.420535e+01	-1.602542e+01
7.463396e+01	-1.607397e+01
7.506504e+01	-1.612325e+01
7.549861e+01	-1.617252e+01
7.593469e+01	-1.622144e+01
7.637328e+01	-1.626991e+01
7.681441e+01	-1.631938e+01
7.725809e+01	-1.636755e+01
7.770433e+01	-1.641602e+01
7.815315e+01	-1.646591e+01
7.860456e+01	-1.651470e+01
7.905857e+01	-1.656388e+01
7.951521e+01	-1.661160e+01
7.997449e+01	-1.666172e+01
8.043642e+01	-1.671089e+01
8.090102e+01	-1.675809e+01
8.136830e+01	-1.680839e+01
8.183828e+01	-1.685789e+01
8.231097e+01	-1.690503e+01
8.278640e+01	-1.695487e+01
8.326457e+01	-1.700401e+01
8.374550e+01	-1.705215e+01
8.422921e+01	-1.710255e+01
8.471572e+01	-1.715080e+01
8.520503e+01	-1.719953e+01
8.569717e+01	-1.724807e+01
8.619215e+01	-1.729821e+01
8.669000e+01	-1.734735e+01
8.719071e+01	-1.739674e+01
8.769432e+01	-1.744599e+01
8.820084e+01	-1.749457e+01
8.871029e+01	-1.754316e+01
8.922267e+01	-1.759365e+01
8.973802e+01	-1.764303e+01
9.025634e+01	-1.769196e+01
9.077766e+01	-1.774008e+01
9.130199e+01	-1.779039e+01
9.182935e+01	-1.784071e+01
9.235975e+01	-1.788775e+01
9.289321e+01	-1.793647e+01
9.342976e+01	-1.798691e+01
9.396941e+01	-1.803638e+01
9.451217e+01	-1.808601e+01
9.505807e+01	-1.813511e+01
9.560712e+01	-1.818453e+01
9.615934e+01	-1.823278e+01
9.671476e+01	-1.828293e+01
9.727338e+01	-1.833234e+01
9.783522e+01	-1.838086e+01
9.840032e+01	-1.843015e+01
9.896867e+01	-1.847889e+01
9.954031e+01	-1.853000e+01
1.001153e+02	-1.857833e+01
1.006935e+02	-1.862776e+01
1.012751e+02	-1.867803e+01
1.018601e+02	-1.872728e+01
1.024484e+02	-1.877616e+01
1.030402e+02	-1.882507e+01
1.036353e+02	-1.887344e+01
1.042339e+02	-1.892451e+01
1.048360e+02	-1.897321e+01
1.054415e+02	-1.902394e+01
1.060505e+02	-1.907268e+01
1.066631e+02	-1.912166e+01
1.072791e+02	-1.917037e+01
1.078988e+02	-1.921889e+01
1.085220e+02	-1.926913e+01
1.091488e+02	-1.931910e+01
1.097793e+02	-1.936890e+01
1.104133e+02	-1.941752e+01
1.110511e+02	-1.946649e+01
1.116925e+02	-1.951811e+01
1.123376e+02	-1.956693e+01
1.129865e+02	-1.961612e+01
1.136391e+02	-1.966627e+01
1.142955e+02	-1.971478e+01
1.149556e+02	-1.976549e+01
1.156196e+02	-1.981365e+01
1.162874e+02	-1.986509e+01
1.169591e+02	-1.991248e+01
1.176347e+02	-1.996234e+01
1.183141e+02	-2.001328e+01
1.189975e+02	-2.006166e+01
1.196848e+02	-2.011125e+01
1.203761e+02	-2.016020e+01
1.210714e+02	-2.021055e+01
1.217707e+02	-2.025981e+01
1.224740e+02	-2.030868e+01
1.231814e+02	-2.035798e+01
1.238929e+02	-2.040860e+01
1.246085e+02	-2.045751e+01
1.253283e+02	-2.050861e+01
1.260522e+02	-2.055781e+01
1.267802e+02	-2.060658e+01
1.275125e+02	-2.065713e+01
1.282490e+02	-2.070689e+01
1.289898e+02	-2.075621e+01
1.297348e+02	-2.080602e+01
1.304842e+02	-2.085301e+01
1.312378e+02	-2.090439e+01
1.319959e+02	-2.095389e+01
1.327583e+02	-2.100399e+01
1.335251e+02	-2.105439e+01
1.342963e+02	-2.110243e+01
1.350720e+02	-2.115323e+01
1.358522e+02	-2.120479e+01
1.366368e+02	-2.125233e+01
1.374260e+02	-2.130073e+01
1.382198e+02	-2.135178e+01
1.390182e+02	-2.140075e+01
1.398211e+02	-2.145041e+01
1.406287e+02	-2.150133e+01
1.414410e+02	-2.155130e+01
1.422579e+02	-2.159948e+01
1.430796e+02	-2.164922e+01
1.439060e+02	-2.169930e+01
1.447372e+02	-2.174824e+01
1.455732e+02	-2.179873e+01
1.464141e+02	-2.184965e+01
1.472597e+02	-2.190029e+01
1.481103e+02	-2.194852e+01
1.489658e+02	-2.199729e+01
1.498262e+02	-2.204818e+01
1.506916e+02	-2.209774e+01
1.515620e+02	-2.214567e+01
1.524374e+02	-2.219802e+01
1.533179e+02	-2.224600e+01
1.542034e+02	-2.229560e+01
1.550941e+02	-2.234392e+01
1.559899e+02	-2.239439e+01
1.568909e+02	-2.244533e+01
1.577971e+02	-2.249529e+01
1.587085e+02	-2.254421e+01
1.596252e+02	-2.259691e+01
1.605472e+02	-2.264369e+01
1.614745e+02	-2.269226e+01
1.624072e+02	-2.274501e+01
1.633453e+02	-2.279503e+01
1.642887e+02	-2.284323e+01
1.652377e+02	-2.289192e+01
1.661921e+02	-2.294282e+01
1.671520e+02	-2.299066e+01
1.681175e+02	-2.304359e+01
1.690885e+02	-2.309335e+01
1.700651e+02	-2.314195e+01
1.710474e+02	-2.319053e+01
1.720354e+02	-2.324276e+01
1.730291e+02	-2.329321e+01
1.740285e+02	-2.334069e+01
1.750337e+02	-2.339262e+01
1.760446e+02	-2.344349e+01
1.770615e+02	-2.349038e+01
1.780842e+02	-2.354016e+01
1.791128e+02	-2.359099e+01
1.801473e+02	-2.364015e+01
1.811878e+02	-2.369079e+01
1.822344e+02	-2.374013e+01
1.832870e+02	-2.378744e+01
1.843456e+02	-2.384154e+01
1.854104e+02	-2.389032e+01
1.864813e+02	-2.393666e+01
1.875584e+02	-2.398987e+01
1.886418e+02	-2.404081e+01
1.897313e+02	-2.408852e+01
1.908272e+02	-2.413852e+01
1.919294e+02	-2.418883e+01
1.930380e+02	-2.423639e+01
1.941530e+02	-2.428957e+01
1.952744e+02	-2.433845e+01
1.964023e+02	-2.438728e+01
1.975367e+02	-2.443531e+01
1.986777e+02	-2.448702e+01
1.998252e+02	-2.453798e+01
2.009794e+02	-2.458607e+01
2.021403e+02	-2.463921e+01
2.033078e+02	-2.468732e+01
2.044821e+02	-2.473909e+01
2.056632e+02	-2.478588e+01
2.068511e+02	-2.483751e+01
2.080459e+02	-2.488915e+01
2.092475e+02	-2.493667e+01
2.104561e+02	-2.498545e+01
2.116717e+02	-2.503971e+01
2.128943e+02	-2.508443e+01
2.141240e+02	-2.513318e+01
2.153608e+02	-2.518929e+01
2.166047e+02	-2.523467e+01
2.178558e+02	-2.528688e+01
2.191141e+02	-2.533653e+01
2.203797e+02	-2.538335e+01
2.216526e+02	-2.543510e+01
2.229329e+02	-2.548501e+01
2.242205e+02	-2.553696e+01
2.255156e+02	-2.558945e+01
2.268182e+02	-2.563491e+01
2.281283e+02	-2.568567e+01
2.294459e+02	-2.573569e+01
2.307712e+02	-2.578609e+01
2.321041e+02	-2.583757e+01
2.334447e+02	-2.588687e+01
2.347931e+02	-2.593455e+01
2.361493e+02	-2.598521e+01
2.375133e+02	-2.603295e+01
2.388851e+02	-2.608674e+01
2.402649e+02	-2.613786e+01
2.416527e+02	-2.618553e+01
2.430484e+02	-2.623573e+01
2.444523e+02	-2.628660e+01
2.458642e+02	-2.633539e+01
2.472843e+02	-2.638585e+01
2.487126e+02	-2.643697e+01
2.501492e+02	-2.648169e+01
2.515940e+02	-2.653446e+01
2.530472e+02	-2.658844e+01
2.545088e+02	-2.663279e+01
2.559789e+02	-2.668560e+01
2.574574e+02	-2.673268e+01
2.589444e+02	-2.678901e+01
2.604401e+02	-2.683452e+01
2.619444e+02	-2.688633e+01
2.634574e+02	-2.693668e+01
2.649791e+02	-2.698537e+01
2.665096e+02	-2.703688e+01
2.680489e+02	-2.708257e+01
2.695972e+02	-2.713526e+01
2.711544e+02	-2.718635e+01
2.727205e+02	-2.723594e+01
2.742958e+02	-2.728286e+01
2.758801e+02	-2.733223e+01
2.774736e+02	-2.738470e+01
2.790762e+02	-2.743738e+01
2.806882e+02	-2.748732e+01
2.823094e+02	-2.753632e+01
2.839400e+02	-2.758390e+01
2.855800e+02	-2.763625e+01
2.872295e+02	-2.768737e+01
2.888886e+02	-2.773829e+01
2.905572e+02	-2.778690e+01
2.922354e+02	-2.783889e+01
2.939234e+02	-2.788663e+01
2.956211e+02	-2.794049e+01
2.973286e+02	-2.798521e+01
2.990459e+02	-2.803222e+01
3.007732e+02	-2.808659e+01
3.025104e+02	-2.813835e+01
3.042577e+02	-2.818756e+01
3.060151e+02	-2.823368e+01
3.077826e+02	-2.828687e+01
3.095604e+02	-2.833732e+01
3.113484e+02	-2.838140e+01
3.131467e+02	-2.843307e+01
3.149554e+02	-2.848355e+01
3.167746e+02	-2.853090e+01
3.186043e+02	-2.858422e+01
3.204445e+02	-2.863622e+01
3.222954e+02	-2.868340e+01
3.241570e+02	-2.873530e+01
3.260293e+02	-2.878588e+01
3.279124e+02	-2.883857e+01
3.298064e+02	-2.888629e+01
3.317114e+02	-2.893584e+01
3.336273e+02	-2.898625e+01
3.355544e+02	-2.903452e+01
3.374925e+02	-2.908185e+01
3.394418e+02	-2.913432e+01
3.414024e+02	-2.919093e+01
3.433744e+02	-2.923712e+01
3.453577e+02	-2.928736e+01
3.473525e+02	-2.933466e+01
3.493588e+02	-2.938468e+01
3.513766e+02	-2.943956e+01
3.534062e+02	-2.948730e+01
3.554474e+02	-2.953177e+01
3.575005e+02	-2.958429e+01
3.595654e+02	-2.963622e+01
3.616422e+02	-2.968809e+01
3.637311e+02	-2.973901e+01
3.658320e+02	-2.978645e+01
3.679450e+02	-2.984003e+01
3.700702e+02	-2.989081e+01
3.722077e+02	-2.993351e+01
3.743576e+02	-2.998244e+01
3.765199e+02	-3.003753e+01
3.786946e+02	-3.008795e+01
3.808820e+02	-3.014038e+01
3.830819e+02	-3.018564e+01
3.852946e+02	-3.023838e+01
3.875200e+02	-3.028548e+01
3.897583e+02	-3.034144e+01
3.920096e+02	-3.039005e+01
3.942738e+02	-3.043706e+01
3.965511e+02	-3.048851e+01
3.988416e+02	-3.054416e+01
4.011452e+02	-3.058563e+01
4.034622e+02	-3.063989e+01
4.057926e+02	-3.068943e+01
4.081365e+02	-3.074286e+01
4.104938e+02	-3.078820e+01
4.128648e+02	-3.084069e+01
4.152495e+02	-3.089587e+01
4.176480e+02	-3.094282e+01
4.200603e+02	-3.099167e+01
4.224866e+02	-3.104033e+01
4.249268e+02	-3.108760e+01
4.273812e+02	-3.113999e+01
4.298497e+02	-3.119143e+01
4.323325e+02	-3.123606e+01
4.348297e+02	-3.129449e+01
4.373412e+02	-3.133921e+01
4.398673e+02	-3.139221e+01
4.424079e+02	-3.143927e+01
4.449633e+02	-3.149903e+01
4.475334e+02	-3.153785e+01
4.501183e+02	-3.159423e+01
4.527182e+02	-3.164199e+01
4.553330e+02	-3.168967e+01
4.579630e+02	-3.174365e+01
4.606082e+02	-3.179273e+01
4.632687e+02	-3.183640e+01
4.659445e+02	-3.190072e+01
4.686358e+02	-3.194133e+01
4.713426e+02	-3.199742e+01
4.740650e+02	-3.203797e+01
4.768032e+02	-3.209457e+01
4.795572e+02	-3.214548e+01
4.823271e+02	-3.219266e+01
4.851130e+02	-3.224158e+01
4.879150e+02	-3.229720e+01
4.907332e+02	-3.234272e+01
4.935676e+02	-3.239995e+01
4.964185e+02	-3.244433e+01
4.992858e+02	-3.249415e+01
5.021696e+02	-3.254712e+01
5.050701e+02	-3.259424e+01
5.079874e+02	-3.264830e+01
5.109215e+02	-3.269090e+01
5.138726e+02	-3.274508e+01
5.168407e+02	-3.279253e+01
5.198259e+02	-3.284848e+01
5.228284e+02	-3.289306e+01
5.258482e+02	-3.295200e+01
5.288855e+02	-3.299956e+01
5.319403e+02	-3.304286e+01
5.350128e+02	-3.309595e+01
5.381030e+02	-3.314628e+01
5.412111e+02	-3.319632e+01
5.443371e+02	-3.324242e+01
5.474812e+02	-3.329437e+01
5.506434e+02	-3.334266e+01
5.538239e+02	-3.339313e+01
5.570228e+02	-3.344083e+01
5.602401e+02	-3.350075e+01
5.634760e+02	-3.355390e+01
5.667306e+02	-3.359909e+01
5.700040e+02	-3.365197e+01
5.732964e+02	-3.369972e+01
5.766077e+02	-3.374106e+01
5.799382e+02	-3.380547e+01
5.832879e+02	-3.385498e+01
5.866569e+02	-3.390052e+01
5.900454e+02	-3.396351e+01
5.934535e+02	-3.400448e+01
5.968813e+02	-3.405376e+01
6.003288e+02	-3.410979e+01
6.037963e+02	-3.415614e+01
6.072838e+02	-3.419653e+01
6.107914e+02	-3.425219e+01
6.143194e+02	-3.430412e+01
6.178676e+02	-3.435068e+01
6.214364e+02	-3.440663e+01
6.250258e+02	-3.445867e+01
6.286359e+02	-3.450474e+01
6.322669e+02	-3.454920e+01
6.359189e+02	-3.460186e+01
6.395919e+02	-3.465281e+01
6.432862e+02	-3.469790e+01
6.470017e+02	-3.475961e+01
6.507388e+02	-3.480352e+01
6.544974e+02	-3.486065e+01
6.582778e+02	-3.490538e+01
6.620800e+02	-3.495377e+01
6.659041e+02	-3.500945e+01
6.697504e+02	-3.506657e+01
6.736188e+02	-3.511094e+01
6.775096e+02	-3.515685e+01
6.814229e+02	-3.520596e+01
6.853587e+02	-3.525542e+01
6.893173e+02	-3.531438e+01
6.932988e+02	-3.535690e+01
6.973033e+02	-3.541422e+01
7.013309e+02	-3.546736e+01
