Frequency(Hz)	Magnitude(dB)
1.000000e+01	-2.136091e+00
1.005776e+01	-2.155459e+00
1.011585e+01	-2.175162e+00
1.017428e+01	-2.194943e+00
1.023305e+01	-2.215036e+00
1.029215e+01	-2.234920e+00
1.035160e+01	-2.255059e+00
1.041139e+01	-2.275551e+00
1.047153e+01	-2.295833e+00
1.053201e+01	-2.316550e+00
1.059284e+01	-2.337156e+00
1.065403e+01	-2.358206e+00
1.071556e+01	-2.379363e+00
1.077746e+01	-2.400284e+00
1.083971e+01	-2.421772e+00
1.090232e+01	-2.443073e+00
1.096529e+01	-2.464764e+00
1.102862e+01	-2.486477e+00
1.109232e+01	-2.508293e+00
1.115639e+01	-2.530404e+00
1.122083e+01	-2.552413e+00
1.128564e+01	-2.574804e+00
1.135083e+01	-2.597247e+00
1.141639e+01	-2.620105e+00
1.148233e+01	-2.642730e+00
1.154865e+01	-2.665553e+00
1.161536e+01	-2.688591e+00
1.168245e+01	-2.711488e+00
1.174992e+01	-2.734969e+00
1.181779e+01	-2.758568e+00
1.188605e+01	-2.782190e+00
1.195470e+01	-2.805620e+00
1.202375e+01	-2.829651e+00
1.209320e+01	-2.853514e+00
1.216305e+01	-2.877914e+00
1.223330e+01	-2.901995e+00
1.230396e+01	-2.926690e+00
1.237503e+01	-2.951271e+00
1.244651e+01	-2.976153e+00
1.251840e+01	-3.000706e+00
1.259070e+01	-3.025563e+00
1.266343e+01	-3.050943e+00
1.273657e+01	-3.076333e+00
1.281014e+01	-3.101834e+00
1.288413e+01	-3.127240e+00
1.295855e+01	-3.153076e+00
1.303339e+01	-3.179079e+00
1.310867e+01	-3.204981e+00
1.318439e+01	-3.231313e+00
1.326054e+01	-3.257399e+00
1.333713e+01	-3.283943e+00
1.341417e+01	-3.310532e+00
1.349165e+01	-3.337462e+00
1.356958e+01	-3.364233e+00
1.364795e+01	-3.391226e+00
1.372678e+01	-3.418270e+00
1.380607e+01	-3.446034e+00
1.388581e+01	-3.473156e+00
1.396602e+01	-3.500839e+00
1.404668e+01	-3.528685e+00
1.412782e+01	-3.556628e+00
1.420942e+01	-3.584575e+00
1.429149e+01	-3.612659e+00
1.437404e+01	-3.641193e+00
1.445706e+01	-3.669544e+00
1.454057e+01	-3.698157e+00
1.462455e+01	-3.727210e+00
1.470902e+01	-3.755822e+00
1.479398e+01	-3.784855e+00
1.487943e+01	-3.813923e+00
1.496537e+01	-3.843335e+00
1.505181e+01	-3.872669e+00
1.513875e+01	-3.902472e+00
1.522619e+01	-3.931926e+00
1.531414e+01	-3.962047e+00
1.540259e+01	-3.992161e+00
1.549156e+01	-4.022018e+00
1.558103e+01	-4.052441e+00
1.567103e+01	-4.082723e+00
1.576155e+01	-4.113571e+00
1.585258e+01	-4.143979e+00
1.594415e+01	-4.174802e+00
1.603624e+01	-4.205782e+00
1.612886e+01	-4.236972e+00
1.622202e+01	-4.268270e+00
1.631572e+01	-4.299564e+00
1.640996e+01	-4.331018e+00
1.650474e+01	-4.362745e+00
1.660008e+01	-4.394309e+00
1.669596e+01	-4.426394e+00
1.679239e+01	-4.458230e+00
1.688938e+01	-4.490620e+00
1.698694e+01	-4.522988e+00
1.708505e+01	-4.555244e+00
1.718373e+01	-4.587881e+00
1.728299e+01	-4.620435e+00
1.738281e+01	-4.653322e+00
1.748322e+01	-4.686090e+00
1.758420e+01	-4.719514e+00
1.768576e+01	-4.752562e+00
1.778792e+01	-4.786082e+00
1.789066e+01	-4.819504e+00
1.799399e+01	-4.853040e+00
1.809793e+01	-4.886738e+00
1.820246e+01	-4.920682e+00
1.830760e+01	-4.954564e+00
1.841334e+01	-4.988566e+00
1.851969e+01	-5.023020e+00
1.862666e+01	-5.057364e+00
1.873425e+01	-5.092028e+00
1.884246e+01	-5.126426e+00
1.895129e+01	-5.161402e+00
1.906075e+01	-5.196119e+00
1.917085e+01	-5.231115e+00
1.928158e+01	-5.265913e+00
1.939295e+01	-5.301124e+00
1.950496e+01	-5.336685e+00
1.961762e+01	-5.372031e+00
1.973093e+01	-5.407907e+00
1.984490e+01	-5.443315e+00
1.995952e+01	-5.479161e+00
2.007480e+01	-5.514825e+00
2.019076e+01	-5.550997e+00
2.030738e+01	-5.587144e+00
2.042467e+01	-5.623506e+00
2.054264e+01	-5.659806e+00
2.066130e+01	-5.696228e+00
2.078064e+01	-5.732644e+00
2.090066e+01	-5.769286e+00
2.102139e+01	-5.806498e+00
2.114280e+01	-5.843408e+00
2.126492e+01	-5.880294e+00
2.138775e+01	-5.917614e+00
2.151128e+01	-5.955158e+00
2.163553e+01	-5.992145e+00
2.176050e+01	-6.029821e+00
2.188619e+01	-6.067379e+00
2.201260e+01	-6.105060e+00
2.213974e+01	-6.143112e+00
2.226762e+01	-6.180710e+00
2.239624e+01	-6.218705e+00
2.252560e+01	-6.256621e+00
2.265571e+01	-6.295086e+00
2.278656e+01	-6.333731e+00
2.291818e+01	-6.371611e+00
2.305055e+01	-6.410519e+00
2.318369e+01	-6.449014e+00
2.331760e+01	-6.487448e+00
2.345228e+01	-6.526601e+00
2.358774e+01	-6.565412e+00
2.372398e+01	-6.604773e+00
2.386101e+01	-6.643868e+00
2.399883e+01	-6.683131e+00
2.413745e+01	-6.722389e+00
2.427686e+01	-6.761484e+00
2.441709e+01	-6.801092e+00
2.455812e+01	-6.840996e+00
2.469997e+01	-6.880729e+00
2.484263e+01	-6.920571e+00
2.498612e+01	-6.960341e+00
2.513044e+01	-7.000713e+00
2.527559e+01	-7.040710e+00
2.542158e+01	-7.080268e+00
2.556842e+01	-7.120856e+00
2.571610e+01	-7.161482e+00
2.586463e+01	-7.201690e+00
2.601403e+01	-7.242192e+00
2.616428e+01	-7.282715e+00
2.631541e+01	-7.323632e+00
2.646740e+01	-7.364551e+00
2.662028e+01	-7.405249e+00
2.677404e+01	-7.446551e+00
2.692868e+01	-7.487387e+00
2.708422e+01	-7.528466e+00
2.724066e+01	-7.569786e+00
2.739800e+01	-7.611280e+00
2.755625e+01	-7.652474e+00
2.771541e+01	-7.694250e+00
2.787550e+01	-7.735471e+00
2.803650e+01	-7.776998e+00
2.819844e+01	-7.818580e+00
2.836131e+01	-7.860721e+00
2.852513e+01	-7.902606e+00
2.868989e+01	-7.944308e+00
2.885560e+01	-7.986388e+00
2.902227e+01	-8.028373e+00
2.918990e+01	-8.070597e+00
2.935850e+01	-8.112963e+00
2.952807e+01	-8.155581e+00
2.969863e+01	-8.197817e+00
2.987016e+01	-8.240384e+00
3.004269e+01	-8.282524e+00
3.021622e+01	-8.325440e+00
3.039075e+01	-8.368282e+00
3.056628e+01	-8.411110e+00
3.074283e+01	-8.453721e+00
3.092040e+01	-8.496901e+00
3.109900e+01	-8.539465e+00
3.127862e+01	-8.582907e+00
3.145929e+01	-8.625980e+00
3.164099e+01	-8.668746e+00
3.182375e+01	-8.712457e+00
3.200756e+01	-8.756137e+00
3.219244e+01	-8.799128e+00
3.237838e+01	-8.842770e+00
3.256540e+01	-8.885675e+00
3.275349e+01	-8.929771e+00
3.294268e+01	-8.973441e+00
3.313295e+01	-9.017192e+00
3.332433e+01	-9.060854e+00
3.351681e+01	-9.105091e+00
3.371040e+01	-9.148754e+00
3.390511e+01	-9.192173e+00
3.410094e+01	-9.236384e+00
3.429791e+01	-9.280712e+00
3.449601e+01	-9.325290e+00
3.469526e+01	-9.368989e+00
3.489566e+01	-9.413544e+00
3.509721e+01	-9.457777e+00
3.529993e+01	-9.502158e+00
3.550382e+01	-9.546837e+00
3.570889e+01	-9.591022e+00
3.591515e+01	-9.635473e+00
3.612259e+01	-9.679783e+00
3.633123e+01	-9.724512e+00
3.654108e+01	-9.769121e+00
3.675214e+01	-9.814033e+00
3.696442e+01	-9.858975e+00
3.717792e+01	-9.904503e+00
3.739266e+01	-9.949086e+00
3.760864e+01	-9.994118e+00
3.782587e+01	-1.003878e+01
3.804435e+01	-1.008437e+01
3.826409e+01	-1.012943e+01
3.848510e+01	-1.017468e+01
3.870739e+01	-1.022008e+01
3.893096e+01	-1.026472e+01
3.915583e+01	-1.031046e+01
3.938199e+01	-1.035580e+01
3.960946e+01	-1.040088e+01
3.983824e+01	-1.044582e+01
4.006834e+01	-1.049215e+01
4.029978e+01	-1.053821e+01
4.053255e+01	-1.058342e+01
4.076666e+01	-1.062890e+01
4.100213e+01	-1.067494e+01
4.123896e+01	-1.072089e+01
4.147715e+01	-1.076648e+01
4.171672e+01	-1.081247e+01
4.195767e+01	-1.085865e+01
4.220002e+01	-1.090410e+01
4.244377e+01	-1.095000e+01
4.268892e+01	-1.099632e+01
4.293549e+01	-1.104196e+01
4.318348e+01	-1.108833e+01
4.343291e+01	-1.113462e+01
4.368377e+01	-1.117992e+01
4.393609e+01	-1.122671e+01
4.418986e+01	-1.127352e+01
4.444510e+01	-1.131895e+01
4.470182e+01	-1.136578e+01
4.496001e+01	-1.141146e+01
4.521970e+01	-1.145899e+01
4.548089e+01	-1.150552e+01
4.574358e+01	-1.155175e+01
4.600779e+01	-1.159798e+01
4.627353e+01	-1.164494e+01
4.654081e+01	-1.169175e+01
4.680963e+01	-1.173742e+01
4.708000e+01	-1.178503e+01
4.735193e+01	-1.183124e+01
4.762543e+01	-1.187879e+01
4.790051e+01	-1.192468e+01
4.817719e+01	-1.197230e+01
4.845545e+01	-1.201907e+01
4.873533e+01	-1.206527e+01
4.901682e+01	-1.211281e+01
4.929994e+01	-1.215963e+01
4.958470e+01	-1.220628e+01
4.987110e+01	-1.225309e+01
5.015915e+01	-1.230151e+01
5.044887e+01	-1.234821e+01
5.074026e+01	-1.239483e+01
5.103333e+01	-1.244144e+01
5.132810e+01	-1.248895e+01
5.162457e+01	-1.253666e+01
5.192275e+01	-1.258361e+01
5.222265e+01	-1.263059e+01
5.252429e+01	-1.267858e+01
5.282767e+01	-1.272503e+01
5.313280e+01	-1.277286e+01
5.343969e+01	-1.282031e+01
5.374836e+01	-1.286824e+01
5.405880e+01	-1.291509e+01
5.437105e+01	-1.296265e+01
5.468509e+01	-1.301108e+01
5.500095e+01	-1.305788e+01
5.531863e+01	-1.310502e+01
5.563815e+01	-1.315217e+01
5.595951e+01	-1.320097e+01
5.628273e+01	-1.324909e+01
5.660782e+01	-1.329605e+01
5.693479e+01	-1.334409e+01
5.726364e+01	-1.339140e+01
5.759439e+01	-1.343897e+01
5.792705e+01	-1.348721e+01
5.826164e+01	-1.353521e+01
5.859815e+01	-1.358216e+01
5.893662e+01	-1.363048e+01
5.927703e+01	-1.367779e+01
5.961941e+01	-1.372614e+01
5.996377e+01	-1.377303e+01
6.031012e+01	-1.382179e+01
6.065847e+01	-1.387048e+01
6.100883e+01	-1.391800e+01
6.136121e+01	-1.396549e+01
6.171563e+01	-1.401365e+01
6.207210e+01	-1.406205e+01
6.243063e+01	-1.411054e+01
6.279122e+01	-1.415804e+01
6.315390e+01	-1.420611e+01
6.351868e+01	-1.425431e+01
6.388556e+01	-1.430215e+01
6.425456e+01	-1.435013e+01
6.462569e+01	-1.439939e+01
6.499897e+01	-1.444754e+01
6.537440e+01	-1.449527e+01
6.575200e+01	-1.454431e+01
6.613178e+01	-1.459161e+01
6.651375e+01	-1.464047e+01
6.689793e+01	-1.468867e+01
6.728433e+01	-1.473731e+01
6.767297e+01	-1.478405e+01
6.806384e+01	-1.483353e+01
6.845698e+01	-1.488140e+01
6.885238e+01	-1.493008e+01
6.925007e+01	-1.497865e+01
6.965005e+01	-1.502661e+01
7.005235e+01	-1.507621e+01
7.045697e+01	-1.512460e+01
7.086393e+01	-1.517344e+01
7.127323e+01	-1.522116e+01
7.168490e+01	-1.526986e+01
7.209895e+01	-1.531853e+01
7.251539e+01	-1.536699e+01
7.293424e+01	-1.541521e+01
7.335551e+01	-1.546395e+01
7.377920e+01	-1.551302e+01
7.420535e+01	-1.556167e+01
7.463396e+01	-1.561063e+01
7.506504e+01	-1.565947e+01
7.549861e+01	-1.570715e+01
7.593469e+01	-1.575687e+01
7.637328e+01	-1.580558e+01
7.681441e+01	-1.585296e+01
7.725809e+01	-1.590267e+01
7.770433e+01	-1.595037e+01
7.815315e+01	-1.599952e+01
7.860456e+01	-1.604926e+01
7.905857e+01	-1.609684e+01
7.951521e+01	-1.614502e+01
7.997449e+01	-1.619362e+01
8.043642e+01	-1.624256e+01
8.090102e+01	-1.629346e+01
8.136830e+01	-1.634254e+01
8.183828e+01	-1.639002e+01
8.231097e+01	-1.643936e+01
8.278640e+01	-1.648698e+01
8.326457e+01	-1.653731e+01
8.374550e+01	-1.658560e+01
8.422921e+01	-1.663490e+01
8.471572e+01	-1.668401e+01
8.520503e+01	-1.673204e+01
8.569717e+01	-1.678188e+01
8.619215e+01	-1.683171e+01
8.669000e+01	-1.687939e+01
8.719071e+01	-1.692756e+01
8.769432e+01	-1.697697e+01
8.820084e+01	-1.702629e+01
8.871029e+01	-1.707561e+01
8.922267e+01	-1.712554e+01
8.973802e+01	-1.717409e+01
9.025634e+01	-1.722226e+01
9.077766e+01	-1.727235e+01
9.130199e+01	-1.732168e+01
9.182935e+01	-1.736989e+01
9.235975e+01	-1.741825e+01
9.289321e+01	-1.746839e+01
9.342976e+01	-1.751730e+01
9.396941e+01	-1.756644e+01
9.451217e+01	-1.761546e+01
9.505807e+01	-1.766450e+01
9.560712e+01	-1.771427e+01
9.615934e+01	-1.776361e+01
9.671476e+01	-1.781319e+01
9.727338e+01	-1.786168e+01
9.783522e+01	-1.791163e+01
9.840032e+01	-1.796122e+01
9.896867e+01	-1.801007e+01
9.954031e+01	-1.805993e+01
1.001153e+02	-1.810715e+01
1.006935e+02	-1.815770e+01
1.012751e+02	-1.820632e+01
1.018601e+02	-1.825699e+01
1.024484e+02	-1.830628e+01
1.030402e+02	-1.835510e+01
1.036353e+02	-1.840348e+01
1.042339e+02	-1.845275e+01
1.048360e+02	-1.850250e+01
1.054415e+02	-1.855096e+01
1.060505e+02	-1.860183e+01
1.066631e+02	-1.864978e+01
1.072791e+02	-1.869920e+01
1.078988e+02	-1.874808e+01
1.085220e+02	-1.879946e+01
1.091488e+02	-1.884857e+01
1.097793e+02	-1.889606e+01
1.104133e+02	-1.894630e+01
1.110511e+02	-1.899578e+01
1.116925e+02	-1.904566e+01
1.123376e+02	-1.909528e+01
1.129865e+02	-1.914339e+01
1.136391e+02	-1.919348e+01
1.142955e+02	-1.924227e+01
1.149556e+02	-1.929386e+01
1.156196e+02	-1.934269e+01
1.162874e+02	-1.939195e+01
1.169591e+02	-1.944120e+01
1.176347e+02	-1.949140e+01
1.183141e+02	-1.953923e+01
1.189975e+02	-1.958766e+01
1.196848e+02	-1.963959e+01
1.203761e+02	-1.968928e+01
1.210714e+02	-1.973715e+01
1.217707e+02	-1.978780e+01
1.224740e+02	-1.983781e+01
1.231814e+02	-1.988785e+01
1.238929e+02	-1.993685e+01
1.246085e+02	-1.998694e+01
1.253283e+02	-2.003513e+01
1.260522e+02	-2.008443e+01
1.267802e+02	-2.013373e+01
1.275125e+02	-2.018407e+01
1.282490e+02	-2.023371e+01
1.289898e+02	-2.028434e+01
1.297348e+02	-2.033171e+01
1.304842e+02	-2.038243e+01
1.312378e+02	-2.043199e+01
1.319959e+02	-2.048095e+01
1.327583e+02	-2.052852e+01
1.335251e+02	-2.058122e+01
1.342963e+02	-2.062947e+01
1.350720e+02	-2.068066e+01
1.358522e+02	-2.072948e+01
1.366368e+02	-2.077894e+01
1.374260e+02	-2.082971e+01
1.382198e+02	-2.087702e+01
1.390182e+02	-2.092571e+01
1.398211e+02	-2.097779e+01
1.406287e+02	-2.102781e+01
1.414410e+02	-2.107654e+01
1.422579e+02	-2.112613e+01
1.430796e+02	-2.117735e+01
1.439060e+02	-2.122625e+01
1.447372e+02	-2.127555e+01
1.455732e+02	-2.132657e+01
1.464141e+02	-2.137419e+01
1.472597e+02	-2.142275e+01
1.481103e+02	-2.147581e+01
1.489658e+02	-2.152291e+01
1.498262e+02	-2.157290e+01
1.506916e+02	-2.162295e+01
1.515620e+02	-2.167313e+01
1.524374e+02	-2.172300e+01
1.533179e+02	-2.177178e+01
1.542034e+02	-2.182144e+01
1.550941e+02	-2.187131e+01
1.559899e+02	-2.192034e+01
1.568909e+02	-2.196992e+01
1.577971e+02	-2.202137e+01
1.587085e+02	-2.207067e+01
1.596252e+02	-2.211960e+01
1.605472e+02	-2.216871e+01
1.614745e+02	-2.222021e+01
1.624072e+02	-2.226851e+01
1.633453e+02	-2.232088e+01
1.642887e+02	-2.236973e+01
1.652377e+02	-2.241926e+01
1.661921e+02	-2.246906e+01
1.671520e+02	-2.251779e+01
1.681175e+02	-2.256622e+01
1.690885e+02	-2.261753e+01
1.700651e+02	-2.266895e+01
1.710474e+02	-2.271847e+01
1.720354e+02	-2.276631e+01
1.730291e+02	-2.281749e+01
1.740285e+02	-2.286675e+01
1.750337e+02	-2.291607e+01
1.760446e+02	-2.296766e+01
1.770615e+02	-2.301456e+01
1.780842e+02	-2.306401e+01
1.791128e+02	-2.311543e+01
1.801473e+02	-2.316322e+01
1.811878e+02	-2.321746e+01
1.822344e+02	-2.326390e+01
1.832870e+02	-2.331497e+01
1.843456e+02	-2.336285e+01
1.854104e+02	-2.341586e+01
1.864813e+02	-2.346244e+01
1.875584e+02	-2.351490e+01
1.886418e+02	-2.356570e+01
1.897313e+02	-2.361256e+01
1.908272e+02	-2.366385e+01
1.919294e+02	-2.371313e+01
1.930380e+02	-2.376382e+01
1.941530e+02	-2.381197e+01
1.952744e+02	-2.386250e+01
1.964023e+02	-2.391401e+01
1.975367e+02	-2.396218e+01
1.986777e+02	-2.401122e+01
1.998252e+02	-2.406185e+01
2.009794e+02	-2.410997e+01
2.021403e+02	-2.416230e+01
2.033078e+02	-2.421104e+01
2.044821e+02	-2.426239e+01
2.056632e+02	-2.431217e+01
2.068511e+02	-2.435975e+01
2.080459e+02	-2.441244e+01
2.092475e+02	-2.446208e+01
2.104561e+02	-2.451229e+01
2.116717e+02	-2.456287e+01
2.128943e+02	-2.461167e+01
2.141240e+02	-2.466217e+01
2.153608e+02	-2.471130e+01
2.166047e+02	-2.475963e+01
2.178558e+02	-2.480971e+01
2.191141e+02	-2.486313e+01
2.203797e+02	-2.491341e+01
2.216526e+02	-2.495783e+01
2.229329e+02	-2.500995e+01
2.242205e+02	-2.506070e+01
2.255156e+02	-2.511006e+01
2.268182e+02	-2.516117e+01
2.281283e+02	-2.521025e+01
2.294459e+02	-2.526041e+01
2.307712e+02	-2.530889e+01
2.321041e+02	-2.535865e+01
2.334447e+02	-2.540855e+01
2.347931e+02	-2.546026e+01
2.361493e+02	-2.550871e+01
2.375133e+02	-2.555859e+01
2.388851e+02	-2.561070e+01
2.402649e+02	-2.565906e+01
2.416527e+02	-2.570927e+01
2.430484e+02	-2.575860e+01
2.444523e+02	-2.580821e+01
2.458642e+02	-2.585955e+01
2.472843e+02	-2.590974e+01
2.487126e+02	-2.595925e+01
2.501492e+02	-2.601048e+01
2.515940e+02	-2.605612e+01
2.530472e+02	-2.610811e+01
2.545088e+02	-2.615635e+01
2.559789e+02	-2.620616e+01
2.574574e+02	-2.625910e+01
2.589444e+02	-2.631004e+01
2.604401e+02	-2.635806e+01
2.619444e+02	-2.640827e+01
2.634574e+02	-2.645828e+01
2.649791e+02	-2.650924e+01
2.665096e+02	-2.656128e+01
2.680489e+02	-2.660946e+01
2.695972e+02	-2.665597e+01
2.711544e+02	-2.670737e+01
2.727205e+02	-2.675839e+01
2.742958e+02	-2.680890e+01
2.758801e+02	-2.685624e+01
2.774736e+02	-2.690868e+01
2.790762e+02	-2.695829e+01
2.806882e+02	-2.701022e+01
2.823094e+02	-2.705560e+01
2.839400e+02	-2.710845e+01
2.855800e+02	-2.715560e+01
2.872295e+02	-2.720332e+01
2.888886e+02	-2.725828e+01
2.905572e+02	-2.730460e+01
2.922354e+02	-2.735717e+01
2.939234e+02	-2.740642e+01
2.956211e+02	-2.745588e+01
2.973286e+02	-2.750734e+01
2.990459e+02	-2.755670e+01
3.007732e+02	-2.760913e+01
3.025104e+02	-2.765714e+01
3.042577e+02	-2.770954e+01
3.060151e+02	-2.775776e+01
3.077826e+02	-2.780701e+01
3.095604e+02	-2.785503e+01
3.113484e+02	-2.790462e+01
3.131467e+02	-2.795770e+01
3.149554e+02	-2.801016e+01
3.167746e+02	-2.805892e+01
3.186043e+02	-2.810857e+01
3.204445e+02	-2.816094e+01
3.222954e+02	-2.821041e+01
3.241570e+02	-2.825697e+01
3.260293e+02	-2.830980e+01
3.279124e+02	-2.836019e+01
3.298064e+02	-2.840791e+01
3.317114e+02	-2.845410e+01
3.336273e+02	-2.851196e+01
3.355544e+02	-2.855775e+01
3.374925e+02	-2.860711e+01
3.394418e+02	-2.865833e+01
3.414024e+02	-2.870616e+01
3.433744e+02	-2.876014e+01
3.453577e+02	-2.880761e+01
3.473525e+02	-2.886084e+01
3.493588e+02	-2.890996e+01
3.513766e+02	-2.895564e+01
3.534062e+02	-2.900973e+01
3.554474e+02	-2.905526e+01
3.575005e+02	-2.910859e+01
3.595654e+02	-2.915807e+01
3.616422e+02	-2.921073e+01
3.637311e+02	-2.926252e+01
3.658320e+02	-2.931140e+01
3.679450e+02	-2.935857e+01
3.700702e+02	-2.940903e+01
3.722077e+02	-2.946320e+01
3.743576e+02	-2.951047e+01
3.765199e+02	-2.956026e+01
3.786946e+02	-2.960493e+01
3.808820e+02	-2.966085e+01
3.830819e+02	-2.970610e+01
3.852946e+02	-2.975526e+01
3.875200e+02	-2.981207e+01
3.897583e+02	-2.986506e+01
3.920096e+02	-2.991403e+01
3.942738e+02	-2.995826e+01
3.965511e+02	-3.000684e+01
3.988416e+02	-3.006034e+01
4.011452e+02	-3.011029e+01
4.034622e+02	-3.015811e+01
4.057926e+02	-3.020690e+01
4.081365e+02	-3.026363e+01
4.104938e+02	-3.031348e+01
4.128648e+02	-3.035658e+01
4.152495e+02	-3.041262e+01
4.176480e+02	-3.045352e+01
4.200603e+02	-3.051089e+01
4.224866e+02	-3.056770e+01
4.249268e+02	-3.061391e+01
4.273812e+02	-3.066056e+01
4.298497e+02	-3.070936e+01
4.323325e+02	-3.075892e+01
4.348297e+02	-3.080683e+01
4.373412e+02	-3.086008e+01
4.398673e+02	-3.091290e+01
4.424079e+02	-3.095977e+01
4.449633e+02	-3.101177e+01
4.475334e+02	-3.106050e+01
4.501183e+02	-3.111238e+01
4.527182e+02	-3.115889e+01
4.553330e+02	-3.121416e+01
4.579630e+02	-3.126221e+01
4.606082e+02	-3.131068e+01
4.632687e+02	-3.137104e+01
4.659445e+02	-3.140639e+01
4.686358e+02	-3.146440e+01
4.713426e+02	-3.151242e+01
4.740650e+02	-3.156386e+01
4.768032e+02	-3.161439e+01
4.795572e+02	-3.166923e+01
4.823271e+02	-3.171462e+01
4.851130e+02	-3.176727e+01
4.879150e+02	-3.181236e+01
4.907332e+02	-3.185664e+01
4.935676e+02	-3.191825e+01
4.964185e+02	-3.196827e+01
4.992858e+02	-3.201994e+01
5.021696e+02	-3.206610e+01
5.050701e+02	-3.211652e+01
5.079874e+02	-3.216881e+01
5.109215e+02	-3.221856e+01
5.138726e+02	-3.226994e+01
5.168407e+02	-3.231055e+01
5.198259e+02	-3.236115e+01
5.228284e+02	-3.241623e+01
5.258482e+02	-3.247000e+01
5.288855e+02	-3.251405e+01
5.319403e+02	-3.256179e+01
5.350128e+02	-3.262149e+01
5.381030e+02	-3.266501e+01
5.412111e+02	-3.271415e+01
5.443371e+02	-3.276579e+01
5.474812e+02	-3.281501e+01
5.506434e+02	-3.286857e+01
5.538239e+02	-3.292134e+01
5.570228e+02	-3.296583e+01
5.602401e+02	-3.302020e+01
5.634760e+02	-3.306866e+01
5.667306e+02	-3.311816e+01
5.700040e+02	-3.317044e+01
5.732964e+02	-3.321353e+01
5.766077e+02	-3.327406e+01
5.799382e+02	-3.331719e+01
5.832879e+02	-3.337665e+01
5.866569e+02	-3.342057e+01
5.900454e+02	-3.347582e+01
5.934535e+02	-3.351519e+01
5.968813e+02	-3.356648e+01
6.003288e+02	-3.362292e+01
6.037963e+02	-3.366834e+01
6.072838e+02	-3.372359e+01
6.107914e+02	-3.378147e+01
6.143194e+02	-3.382437e+01
6.178676e+02	-3.386668e+01
6.214364e+02	-3.392757e+01
6.250258e+02	-3.397766e+01
6.286359e+02	-3.402833e+01
6.322669e+02	-3.408157e+01
6.359189e+02	-3.412541e+01
6.395919e+02	-3.417022e+01
6.432862e+02	-3.422477e+01
6.470017e+02	-3.427087e+01
6.507388e+02	-3.432695e+01
6.544974e+02	-3.437409e+01
6.582778e+02	-3.442652e+01
6.620800e+02	-3.446990e+01
6.659041e+02	-3.451962e+01
6.697504e+02	-3.457720e+01
6.736188e+02	-3.463354e+01
6.775096e+02	-3.467520e+01
6.814229e+02	-3.472354e+01
6.853587e+02	-3.478515e+01
6.893173e+02	-3.482100e+01
6.932988e+02	-3.487649e+01
6.973033e+02	-3.493006e+01
7.013309e+02	-3.497250e+01
