Frequency(Hz)	Magnitude(dB)
1.000000e+01	-2.157992e+00
1.005776e+01	-2.177305e+00
1.011585e+01	-2.197164e+00
1.017428e+01	-2.217006e+00
1.023305e+01	-2.237172e+00
1.029215e+01	-2.257310e+00
1.035160e+01	-2.277822e+00
1.041139e+01	-2.298205e+00
1.047153e+01	-2.318825e+00
1.053201e+01	-2.339683e+00
1.059284e+01	-2.360487e+00
1.065403e+01	-2.381613e+00
1.071556e+01	-2.402597e+00
1.077746e+01	-2.423906e+00
1.083971e+01	-2.445506e+00
1.090232e+01	-2.467038e+00
1.096529e+01	-2.488787e+00
1.102862e+01	-2.510590e+00
1.109232e+01	-2.532675e+00
1.115639e+01	-2.554867e+00
1.122083e+01	-2.577163e+00
1.128564e+01	-2.599664e+00
1.135083e+01	-2.622224e+00
1.141639e+01	-2.645029e+00
1.148233e+01	-2.667843e+00
1.154865e+01	-2.690870e+00
1.161536e+01	-2.713810e+00
1.168245e+01	-2.737418e+00
1.174992e+01	-2.760863e+00
1.181779e+01	-2.784439e+00
1.188605e+01	-2.808322e+00
1.195470e+01	-2.832196e+00
1.202375e+01	-2.856034e+00
1.209320e+01	-2.880609e+00
1.216305e+01	-2.904703e+00
1.223330e+01	-2.929240e+00
1.230396e+01	-2.953725e+00
1.237503e+01	-2.978492e+00
1.244651e+01	-3.003482e+00
1.251840e+01	-3.028383e+00
1.259070e+01	-3.053666e+00
1.266343e+01	-3.079088e+00
1.273657e+01	-3.104454e+00
1.281014e+01	-3.130085e+00
1.288413e+01	-3.155833e+00
1.295855e+01	-3.181784e+00
1.303339e+01	-3.207782e+00
1.310867e+01	-3.234072e+00
1.318439e+01	-3.260263e+00
1.326054e+01	-3.286912e+00
1.333713e+01	-3.313420e+00
1.341417e+01	-3.340338e+00
1.349165e+01	-3.367039e+00
1.356958e+01	-3.394209e+00
1.364795e+01	-3.421467e+00
1.372678e+01	-3.448745e+00
1.380607e+01	-3.476414e+00
1.388581e+01	-3.503801e+00
1.396602e+01	-3.531791e+00
1.404668e+01	-3.559759e+00
1.412782e+01	-3.587606e+00
1.420942e+01	-3.615842e+00
1.429149e+01	-3.644267e+00
1.437404e+01	-3.672684e+00
1.445706e+01	-3.701064e+00
1.454057e+01	-3.730140e+00
1.462455e+01	-3.758680e+00
1.470902e+01	-3.787919e+00
1.479398e+01	-3.817171e+00
1.487943e+01	-3.846437e+00
1.496537e+01	-3.876073e+00
1.505181e+01	-3.905654e+00
1.513875e+01	-3.935191e+00
1.522619e+01	-3.964987e+00
1.531414e+01	-3.995284e+00
1.540259e+01	-4.025304e+00
1.549156e+01	-4.055802e+00
1.558103e+01	-4.085994e+00
1.567103e+01	-4.116531e+00
1.576155e+01	-4.147280e+00
1.585258e+01	-4.178112e+00
1.594415e+01	-4.209059e+00
1.603624e+01	-4.240255e+00
1.612886e+01	-4.271325e+00
1.622202e+01	-4.302667e+00
1.631572e+01	-4.334393e+00
1.640996e+01	-4.365881e+00
1.650474e+01	-4.397860e+00
1.660008e+01	-4.429743e+00
1.669596e+01	-4.462041e+00
1.679239e+01	-4.493751e+00
1.688938e+01	-4.526421e+00
1.698694e+01	-4.558615e+00
1.708505e+01	-4.591342e+00
1.718373e+01	-4.624202e+00
1.728299e+01	-4.656746e+00
1.738281e+01	-4.689773e+00
1.748322e+01	-4.723055e+00
1.758420e+01	-4.756011e+00
1.768576e+01	-4.789702e+00
1.778792e+01	-4.822922e+00
1.789066e+01	-4.856608e+00
1.799399e+01	-4.890310e+00
1.809793e+01	-4.924399e+00
1.820246e+01	-4.958185e+00
1.830760e+01	-4.992394e+00
1.841334e+01	-5.027005e+00
1.851969e+01	-5.060859e+00
1.862666e+01	-5.095342e+00
1.873425e+01	-5.130243e+00
1.884246e+01	-5.164816e+00
1.895129e+01	-5.199509e+00
1.906075e+01	-5.234868e+00
1.917085e+01	-5.269897e+00
1.928158e+01	-5.304978e+00
1.939295e+01	-5.339920e+00
1.950496e+01	-5.375682e+00
1.961762e+01	-5.411423e+00
1.973093e+01	-5.447161e+00
1.984490e+01	-5.482678e+00
1.995952e+01	-5.518850e+00
2.007480e+01	-5.554718e+00
2.019076e+01	-5.590757e+00
2.030738e+01	-5.627341e+00
2.042467e+01	-5.663929e+00
2.054264e+01	-5.700286e+00
2.066130e+01	-5.736808e+00
2.078064e+01	-5.773389e+00
2.090066e+01	-5.810449e+00
2.102139e+01	-5.847219e+00
2.114280e+01	-5.884340e+00
2.126492e+01	-5.921492e+00
2.138775e+01	-5.958644e+00
2.151128e+01	-5.996123e+00
2.163553e+01	-6.033913e+00
2.176050e+01	-6.071359e+00
2.188619e+01	-6.109399e+00
2.201260e+01	-6.146589e+00
2.213974e+01	-6.185159e+00
2.226762e+01	-6.223180e+00
2.239624e+01	-6.261012e+00
2.252560e+01	-6.299702e+00
2.265571e+01	-6.337481e+00
2.278656e+01	-6.375764e+00
2.291818e+01	-6.414884e+00
2.305055e+01	-6.453260e+00
2.318369e+01	-6.492091e+00
2.331760e+01	-6.531007e+00
2.345228e+01	-6.569899e+00
2.358774e+01	-6.609003e+00
2.372398e+01	-6.647913e+00
2.386101e+01	-6.687419e+00
2.399883e+01	-6.726646e+00
2.413745e+01	-6.765978e+00
2.427686e+01	-6.805306e+00
2.441709e+01	-6.845361e+00
2.455812e+01	-6.884657e+00
2.469997e+01	-6.924626e+00
2.484263e+01	-6.964219e+00
2.498612e+01	-7.004498e+00
2.513044e+01	-7.044265e+00
2.527559e+01	-7.084788e+00
2.542158e+01	-7.125094e+00
2.556842e+01	-7.165508e+00
2.571610e+01	-7.205999e+00
2.586463e+01	-7.246818e+00
2.601403e+01	-7.287104e+00
2.616428e+01	-7.328251e+00
2.631541e+01	-7.368813e+00
2.646740e+01	-7.409936e+00
2.662028e+01	-7.451233e+00
2.677404e+01	-7.492202e+00
2.692868e+01	-7.532773e+00
2.708422e+01	-7.574383e+00
2.724066e+01	-7.615534e+00
2.739800e+01	-7.656785e+00
2.755625e+01	-7.698731e+00
2.771541e+01	-7.740026e+00
2.787550e+01	-7.781529e+00
2.803650e+01	-7.822750e+00
2.819844e+01	-7.865242e+00
2.836131e+01	-7.906987e+00
2.852513e+01	-7.948553e+00
2.868989e+01	-7.990617e+00
2.885560e+01	-8.033102e+00
2.902227e+01	-8.075173e+00
2.918990e+01	-8.117653e+00
2.935850e+01	-8.159627e+00
2.952807e+01	-8.202265e+00
2.969863e+01	-8.244582e+00
2.987016e+01	-8.287726e+00
3.004269e+01	-8.330295e+00
3.021622e+01	-8.372975e+00
3.039075e+01	-8.415404e+00
3.056628e+01	-8.458263e+00
3.074283e+01	-8.501295e+00
3.092040e+01	-8.544669e+00
3.109900e+01	-8.587581e+00
3.127862e+01	-8.630471e+00
3.145929e+01	-8.673636e+00
3.164099e+01	-8.717164e+00
3.182375e+01	-8.760278e+00
3.200756e+01	-8.803938e+00
3.219244e+01	-8.847117e+00
3.237838e+01	-8.890846e+00
3.256540e+01	-8.934455e+00
3.275349e+01	-8.977698e+00
3.294268e+01	-9.021660e+00
3.313295e+01	-9.065434e+00
3.332433e+01	-9.109220e+00
3.351681e+01	-9.153231e+00
3.371040e+01	-9.197707e+00
3.390511e+01	-9.241448e+00
3.410094e+01	-9.285409e+00
3.429791e+01	-9.329390e+00
3.449601e+01	-9.373763e+00
3.469526e+01	-9.418182e+00
3.489566e+01	-9.462420e+00
3.509721e+01	-9.506835e+00
3.529993e+01	-9.551441e+00
3.550382e+01	-9.595376e+00
3.570889e+01	-9.640371e+00
3.591515e+01	-9.684713e+00
3.612259e+01	-9.729932e+00
3.633123e+01	-9.774361e+00
3.654108e+01	-9.819656e+00
3.675214e+01	-9.863742e+00
3.696442e+01	-9.908840e+00
3.717792e+01	-9.953750e+00
3.739266e+01	-9.998964e+00
3.760864e+01	-1.004377e+01
3.782587e+01	-1.008912e+01
3.804435e+01	-1.013399e+01
3.826409e+01	-1.017938e+01
3.848510e+01	-1.022455e+01
3.870739e+01	-1.026997e+01
3.893096e+01	-1.031529e+01
3.915583e+01	-1.036091e+01
3.938199e+01	-1.040584e+01
3.960946e+01	-1.045157e+01
3.983824e+01	-1.049721e+01
4.006834e+01	-1.054277e+01
4.029978e+01	-1.058829e+01
4.053255e+01	-1.063402e+01
4.076666e+01	-1.067955e+01
4.100213e+01	-1.072527e+01
4.123896e+01	-1.077114e+01
4.147715e+01	-1.081745e+01
4.171672e+01	-1.086310e+01
4.195767e+01	-1.090879e+01
4.220002e+01	-1.095524e+01
4.244377e+01	-1.100069e+01
4.268892e+01	-1.104719e+01
4.293549e+01	-1.109259e+01
4.318348e+01	-1.113926e+01
4.343291e+01	-1.118548e+01
4.368377e+01	-1.123155e+01
4.393609e+01	-1.127807e+01
4.418986e+01	-1.132460e+01
4.444510e+01	-1.137055e+01
4.470182e+01	-1.141723e+01
4.496001e+01	-1.146353e+01
4.521970e+01	-1.150980e+01
4.548089e+01	-1.155697e+01
4.574358e+01	-1.160294e+01
4.600779e+01	-1.164943e+01
4.627353e+01	-1.169596e+01
4.654081e+01	-1.174273e+01
4.680963e+01	-1.178984e+01
4.708000e+01	-1.183676e+01
4.735193e+01	-1.188259e+01
4.762543e+01	-1.193018e+01
4.790051e+01	-1.197715e+01
4.817719e+01	-1.202307e+01
4.845545e+01	-1.207109e+01
4.873533e+01	-1.211758e+01
4.901682e+01	-1.216515e+01
4.929994e+01	-1.221147e+01
4.958470e+01	-1.225898e+01
4.987110e+01	-1.230574e+01
5.015915e+01	-1.235299e+01
5.044887e+01	-1.240019e+01
5.074026e+01	-1.244708e+01
5.103333e+01	-1.249391e+01
5.132810e+01	-1.254086e+01
5.162457e+01	-1.258858e+01
5.192275e+01	-1.263586e+01
5.222265e+01	-1.268376e+01
5.252429e+01	-1.273061e+01
5.282767e+01	-1.277862e+01
5.313280e+01	-1.282569e+01
5.343969e+01	-1.287319e+01
5.374836e+01	-1.292056e+01
5.405880e+01	-1.296695e+01
5.437105e+01	-1.301591e+01
5.468509e+01	-1.306356e+01
5.500095e+01	-1.311027e+01
5.531863e+01	-1.315824e+01
5.563815e+01	-1.320595e+01
5.595951e+01	-1.325312e+01
5.628273e+01	-1.330171e+01
5.660782e+01	-1.334854e+01
5.693479e+01	-1.339665e+01
5.726364e+01	-1.344462e+01
5.759439e+01	-1.349189e+01
5.792705e+01	-1.354015e+01
5.826164e+01	-1.358782e+01
5.859815e+01	-1.363628e+01
5.893662e+01	-1.368345e+01
5.927703e+01	-1.373104e+01
5.961941e+01	-1.377992e+01
5.996377e+01	-1.382737e+01
6.031012e+01	-1.387510e+01
6.065847e+01	-1.392261e+01
6.100883e+01	-1.397111e+01
6.136121e+01	-1.401929e+01
6.171563e+01	-1.406796e+01
6.207210e+01	-1.411506e+01
6.243063e+01	-1.416322e+01
6.279122e+01	-1.421186e+01
6.315390e+01	-1.425954e+01
6.351868e+01	-1.430769e+01
6.388556e+01	-1.435623e+01
6.425456e+01	-1.440412e+01
6.462569e+01	-1.445153e+01
6.499897e+01	-1.450018e+01
6.537440e+01	-1.454886e+01
6.575200e+01	-1.459713e+01
6.613178e+01	-1.464583e+01
6.651375e+01	-1.469459e+01
6.689793e+01	-1.474168e+01
6.728433e+01	-1.479058e+01
6.767297e+01	-1.483888e+01
6.806384e+01	-1.488666e+01
6.845698e+01	-1.493506e+01
6.885238e+01	-1.498368e+01
6.925007e+01	-1.503278e+01
6.965005e+01	-1.508060e+01
7.005235e+01	-1.513047e+01
7.045697e+01	-1.517751e+01
7.086393e+01	-1.522647e+01
7.127323e+01	-1.527436e+01
7.168490e+01	-1.532399e+01
7.209895e+01	-1.537210e+01
7.251539e+01	-1.541977e+01
7.293424e+01	-1.546899e+01
7.335551e+01	-1.551852e+01
7.377920e+01	-1.556556e+01
7.420535e+01	-1.561464e+01
7.463396e+01	-1.566418e+01
7.506504e+01	-1.571229e+01
7.549861e+01	-1.576172e+01
7.593469e+01	-1.580994e+01
7.637328e+01	-1.585909e+01
7.681441e+01	-1.590678e+01
7.725809e+01	-1.595637e+01
7.770433e+01	-1.600502e+01
7.815315e+01	-1.605362e+01
7.860456e+01	-1.610242e+01
7.905857e+01	-1.615145e+01
7.951521e+01	-1.620023e+01
7.997449e+01	-1.624918e+01
8.043642e+01	-1.629748e+01
8.090102e+01	-1.634596e+01
8.136830e+01	-1.639511e+01
8.183828e+01	-1.644357e+01
8.231097e+01	-1.649295e+01
8.278640e+01	-1.654224e+01
8.326457e+01	-1.659111e+01
8.374550e+01	-1.663986e+01
8.422921e+01	-1.668917e+01
8.471572e+01	-1.673759e+01
8.520503e+01	-1.678719e+01
8.569717e+01	-1.683604e+01
8.619215e+01	-1.688532e+01
8.669000e+01	-1.693309e+01
8.719071e+01	-1.698234e+01
8.769432e+01	-1.703161e+01
8.820084e+01	-1.708088e+01
8.871029e+01	-1.713039e+01
8.922267e+01	-1.717896e+01
8.973802e+01	-1.722780e+01
9.025634e+01	-1.727638e+01
9.077766e+01	-1.732655e+01
9.130199e+01	-1.737502e+01
9.182935e+01	-1.742610e+01
9.235975e+01	-1.747510e+01
9.289321e+01	-1.752215e+01
9.342976e+01	-1.757114e+01
9.396941e+01	-1.762095e+01
9.451217e+01	-1.767096e+01
9.505807e+01	-1.771962e+01
9.560712e+01	-1.776915e+01
9.615934e+01	-1.781699e+01
9.671476e+01	-1.786684e+01
9.727338e+01	-1.791754e+01
9.783522e+01	-1.796515e+01
9.840032e+01	-1.801454e+01
9.896867e+01	-1.806459e+01
9.954031e+01	-1.811354e+01
1.001153e+02	-1.816232e+01
1.006935e+02	-1.821182e+01
1.012751e+02	-1.826226e+01
1.018601e+02	-1.831035e+01
1.024484e+02	-1.836009e+01
1.030402e+02	-1.840935e+01
1.036353e+02	-1.845788e+01
1.042339e+02	-1.850811e+01
1.048360e+02	-1.855611e+01
1.054415e+02	-1.860641e+01
1.060505e+02	-1.865615e+01
1.066631e+02	-1.870472e+01
1.072791e+02	-1.875321e+01
1.078988e+02	-1.880526e+01
1.085220e+02	-1.885352e+01
1.091488e+02	-1.890282e+01
1.097793e+02	-1.895156e+01
1.104133e+02	-1.900147e+01
1.110511e+02	-1.905021e+01
1.116925e+02	-1.910023e+01
1.123376e+02	-1.914964e+01
1.129865e+02	-1.919913e+01
1.136391e+02	-1.924838e+01
1.142955e+02	-1.929665e+01
1.149556e+02	-1.934708e+01
1.156196e+02	-1.939686e+01
1.162874e+02	-1.944626e+01
1.169591e+02	-1.949571e+01
1.176347e+02	-1.954540e+01
1.183141e+02	-1.959402e+01
1.189975e+02	-1.964493e+01
1.196848e+02	-1.969435e+01
1.203761e+02	-1.974277e+01
1.210714e+02	-1.979404e+01
1.217707e+02	-1.984416e+01
1.224740e+02	-1.989100e+01
1.231814e+02	-1.994189e+01
1.238929e+02	-1.998959e+01
1.246085e+02	-2.004049e+01
1.253283e+02	-2.009006e+01
1.260522e+02	-2.014058e+01
1.267802e+02	-2.018848e+01
1.275125e+02	-2.023925e+01
1.282490e+02	-2.028616e+01
1.289898e+02	-2.033892e+01
1.297348e+02	-2.038780e+01
1.304842e+02	-2.043626e+01
1.312378e+02	-2.048660e+01
1.319959e+02	-2.053574e+01
1.327583e+02	-2.058547e+01
1.335251e+02	-2.063437e+01
1.342963e+02	-2.068563e+01
1.350720e+02	-2.073524e+01
1.358522e+02	-2.078508e+01
1.366368e+02	-2.083455e+01
1.374260e+02	-2.088360e+01
1.382198e+02	-2.093111e+01
1.390182e+02	-2.098164e+01
1.398211e+02	-2.103297e+01
1.406287e+02	-2.108112e+01
1.414410e+02	-2.113162e+01
1.422579e+02	-2.117996e+01
1.430796e+02	-2.123082e+01
1.439060e+02	-2.127955e+01
1.447372e+02	-2.132823e+01
1.455732e+02	-2.137891e+01
1.464141e+02	-2.143124e+01
1.472597e+02	-2.147960e+01
1.481103e+02	-2.152947e+01
1.489658e+02	-2.157790e+01
1.498262e+02	-2.162863e+01
1.506916e+02	-2.167761e+01
1.515620e+02	-2.172873e+01
1.524374e+02	-2.177587e+01
1.533179e+02	-2.182655e+01
1.542034e+02	-2.187772e+01
1.550941e+02	-2.192704e+01
1.559899e+02	-2.197684e+01
1.568909e+02	-2.202561e+01
1.577971e+02	-2.207521e+01
1.587085e+02	-2.212519e+01
1.596252e+02	-2.217439e+01
1.605472e+02	-2.222444e+01
1.614745e+02	-2.227509e+01
1.624072e+02	-2.232458e+01
1.633453e+02	-2.237435e+01
1.642887e+02	-2.242298e+01
1.652377e+02	-2.247580e+01
1.661921e+02	-2.252486e+01
1.671520e+02	-2.257411e+01
1.681175e+02	-2.262105e+01
1.690885e+02	-2.267402e+01
1.700651e+02	-2.272151e+01
1.710474e+02	-2.277126e+01
1.720354e+02	-2.282319e+01
1.730291e+02	-2.287329e+01
1.740285e+02	-2.292426e+01
1.750337e+02	-2.297101e+01
1.760446e+02	-2.302155e+01
1.770615e+02	-2.307045e+01
1.780842e+02	-2.312250e+01
1.791128e+02	-2.316995e+01
1.801473e+02	-2.322169e+01
1.811878e+02	-2.326857e+01
1.822344e+02	-2.331900e+01
1.832870e+02	-2.337065e+01
1.843456e+02	-2.342105e+01
1.854104e+02	-2.346808e+01
1.864813e+02	-2.351933e+01
1.875584e+02	-2.356854e+01
1.886418e+02	-2.361690e+01
1.897313e+02	-2.366941e+01
1.908272e+02	-2.371903e+01
1.919294e+02	-2.376661e+01
1.930380e+02	-2.381629e+01
1.941530e+02	-2.386837e+01
1.952744e+02	-2.391781e+01
1.964023e+02	-2.396725e+01
1.975367e+02	-2.401540e+01
1.986777e+02	-2.406680e+01
1.998252e+02	-2.411879e+01
2.009794e+02	-2.416680e+01
2.021403e+02	-2.421826e+01
2.033078e+02	-2.426876e+01
2.044821e+02	-2.431438e+01
2.056632e+02	-2.436688e+01
2.068511e+02	-2.441609e+01
2.080459e+02	-2.446708e+01
2.092475e+02	-2.451812e+01
2.104561e+02	-2.456550e+01
2.116717e+02	-2.461581e+01
2.128943e+02	-2.466681e+01
2.141240e+02	-2.471576e+01
2.153608e+02	-2.476555e+01
2.166047e+02	-2.481424e+01
2.178558e+02	-2.486814e+01
2.191141e+02	-2.491552e+01
2.203797e+02	-2.496476e+01
2.216526e+02	-2.501461e+01
2.229329e+02	-2.506296e+01
2.242205e+02	-2.511378e+01
2.255156e+02	-2.516464e+01
2.268182e+02	-2.521468e+01
2.281283e+02	-2.526480e+01
2.294459e+02	-2.531460e+01
2.307712e+02	-2.536457e+01
2.321041e+02	-2.541384e+01
2.334447e+02	-2.546610e+01
2.347931e+02	-2.551464e+01
2.361493e+02	-2.556444e+01
2.375133e+02	-2.561385e+01
2.388851e+02	-2.566558e+01
2.402649e+02	-2.571212e+01
2.416527e+02	-2.576579e+01
2.430484e+02	-2.581571e+01
2.444523e+02	-2.586714e+01
2.458642e+02	-2.591462e+01
2.472843e+02	-2.596662e+01
2.487126e+02	-2.601320e+01
2.501492e+02	-2.606047e+01
2.515940e+02	-2.611065e+01
2.530472e+02	-2.616405e+01
2.545088e+02	-2.621411e+01
2.559789e+02	-2.626517e+01
2.574574e+02	-2.631481e+01
2.589444e+02	-2.636379e+01
2.604401e+02	-2.641458e+01
2.619444e+02	-2.646233e+01
2.634574e+02	-2.651425e+01
2.649791e+02	-2.656198e+01
2.665096e+02	-2.661350e+01
2.680489e+02	-2.666261e+01
2.695972e+02	-2.671339e+01
2.711544e+02	-2.676189e+01
2.727205e+02	-2.681561e+01
2.742958e+02	-2.686330e+01
2.758801e+02	-2.691081e+01
2.774736e+02	-2.696344e+01
2.790762e+02	-2.701122e+01
2.806882e+02	-2.705971e+01
2.823094e+02	-2.711334e+01
2.839400e+02	-2.716372e+01
2.855800e+02	-2.721455e+01
2.872295e+02	-2.726413e+01
2.888886e+02	-2.731397e+01
2.905572e+02	-2.736429e+01
2.922354e+02	-2.741271e+01
2.939234e+02	-2.746273e+01
2.956211e+02	-2.751384e+01
2.973286e+02	-2.756469e+01
2.990459e+02	-2.761423e+01
3.007732e+02	-2.766222e+01
3.025104e+02	-2.771417e+01
3.042577e+02	-2.776454e+01
3.060151e+02	-2.781326e+01
3.077826e+02	-2.786584e+01
3.095604e+02	-2.791053e+01
3.113484e+02	-2.796568e+01
3.131467e+02	-2.801223e+01
3.149554e+02	-2.806241e+01
3.167746e+02	-2.811280e+01
3.186043e+02	-2.816453e+01
3.204445e+02	-2.821627e+01
3.222954e+02	-2.826232e+01
3.241570e+02	-2.831524e+01
3.260293e+02	-2.836577e+01
3.279124e+02	-2.841188e+01
3.298064e+02	-2.846787e+01
3.317114e+02	-2.851824e+01
3.336273e+02	-2.856485e+01
3.355544e+02	-2.861016e+01
3.374925e+02	-2.866320e+01
3.394418e+02	-2.871252e+01
3.414024e+02	-2.876534e+01
3.433744e+02	-2.881654e+01
3.453577e+02	-2.886160e+01
3.473525e+02	-2.891313e+01
3.493588e+02	-2.896523e+01
3.513766e+02	-2.901464e+01
3.534062e+02	-2.906120e+01
3.554474e+02	-2.911658e+01
3.575005e+02	-2.916539e+01
3.595654e+02	-2.921484e+01
3.616422e+02	-2.926161e+01
3.637311e+02	-2.931451e+01
3.658320e+02	-2.936682e+01
3.679450e+02	-2.941542e+01
3.700702e+02	-2.946596e+01
3.722077e+02	-2.951506e+01
3.743576e+02	-2.956805e+01
3.765199e+02	-2.961699e+01
3.786946e+02	-2.966775e+01
3.808820e+02	-2.971016e+01
3.830819e+02	-2.976622e+01
3.852946e+02	-2.981581e+01
3.875200e+02	-2.986545e+01
3.897583e+02	-2.991847e+01
3.920096e+02	-2.996594e+01
3.942738e+02	-3.001416e+01
3.965511e+02	-3.006669e+01
3.988416e+02	-3.011259e+01
4.011452e+02	-3.016420e+01
4.034622e+02	-3.021890e+01
4.057926e+02	-3.026622e+01
4.081365e+02	-3.031791e+01
4.104938e+02	-3.037139e+01
4.128648e+02	-3.041679e+01
4.152495e+02	-3.046818e+01
4.176480e+02	-3.051864e+01
4.200603e+02	-3.056472e+01
4.224866e+02	-3.061411e+01
4.249268e+02	-3.067259e+01
4.273812e+02	-3.071339e+01
4.298497e+02	-3.076276e+01
4.323325e+02	-3.081880e+01
4.348297e+02	-3.086618e+01
4.373412e+02	-3.091657e+01
4.398673e+02	-3.096688e+01
4.424079e+02	-3.101410e+01
4.449633e+02	-3.106719e+01
4.475334e+02	-3.111554e+01
4.501183e+02	-3.116597e+01
4.527182e+02	-3.121919e+01
4.553330e+02	-3.126218e+01
4.579630e+02	-3.132352e+01
4.606082e+02	-3.137085e+01
4.632687e+02	-3.141592e+01
4.659445e+02	-3.146687e+01
4.686358e+02	-3.152060e+01
4.713426e+02	-3.156902e+01
4.740650e+02	-3.161854e+01
4.768032e+02	-3.166420e+01
4.795572e+02	-3.172091e+01
4.823271e+02	-3.176624e+01
4.851130e+02	-3.182382e+01
4.879150e+02	-3.186735e+01
4.907332e+02	-3.191698e+01
4.935676e+02	-3.196910e+01
4.964185e+02	-3.202754e+01
4.992858e+02	-3.207031e+01
5.021696e+02	-3.211844e+01
5.050701e+02	-3.217603e+01
5.079874e+02	-3.222448e+01
5.109215e+02	-3.226887e+01
5.138726e+02	-3.232527e+01
5.168407e+02	-3.237226e+01
5.198259e+02	-3.242297e+01
5.228284e+02	-3.247709e+01
5.258482e+02	-3.252230e+01
5.288855e+02	-3.257461e+01
5.319403e+02	-3.262400e+01
5.350128e+02	-3.267155e+01
5.381030e+02	-3.271911e+01
5.412111e+02	-3.277537e+01
5.443371e+02	-3.282441e+01
5.474812e+02	-3.287991e+01
5.506434e+02	-3.292206e+01
5.538239e+02	-3.297167e+01
5.570228e+02	-3.302528e+01
5.602401e+02	-3.307126e+01
5.634760e+02	-3.312979e+01
5.667306e+02	-3.317851e+01
5.700040e+02	-3.322533e+01
5.732964e+02	-3.327842e+01
5.766077e+02	-3.332696e+01
5.799382e+02	-3.337359e+01
5.832879e+02	-3.342891e+01
5.866569e+02	-3.348280e+01
5.900454e+02	-3.352206e+01
5.934535e+02	-3.358093e+01
5.968813e+02	-3.361813e+01
6.003288e+02	-3.367797e+01
6.037963e+02	-3.372688e+01
6.072838e+02	-3.377466e+01
6.107914e+02	-3.382729e+01
6.143194e+02	-3.388182e+01
6.178676e+02	-3.393332e+01
6.214364e+02	-3.397386e+01
6.250258e+02	-3.403691e+01
6.286359e+02	-3.407753e+01
6.322669e+02	-3.412790e+01
6.359189e+02	-3.417771e+01
6.395919e+02	-3.423381e+01
6.432862e+02	-3.428309e+01
6.470017e+02	-3.433359e+01
6.507388e+02	-3.438473e+01
6.544974e+02	-3.443640e+01
6.582778e+02	-3.447985e+01
6.620800e+02	-3.453168e+01
6.659041e+02	-3.458406e+01
6.697504e+02	-3.463174e+01
6.736188e+02	-3.468673e+01
6.775096e+02	-3.472950e+01
6.814229e+02	-3.478837e+01
6.853587e+02	-3.483150e+01
6.893173e+02	-3.488611e+01
6.932988e+02	-3.493560e+01
6.973033e+02	-3.497672e+01
7.013309e+02	-3.503560e+01
