Frequency(Hz)	Magnitude(dB)
1.000000e+01	-1.565182e-05
1.005776e+01	-1.583315e-05
1.011585e+01	-1.601658e-05
1.017428e+01	-1.620214e-05
1.023305e+01	-1.638984e-05
1.029215e+01	-1.657972e-05
1.035160e+01	-1.677180e-05
1.041139e+01	-1.696611e-05
1.047153e+01	-1.716267e-05
1.053201e+01	-1.736150e-05
1.059284e+01	-1.756264e-05
1.065403e+01	-1.776610e-05
1.071556e+01	-1.797193e-05
1.077746e+01	-1.818014e-05
1.083971e+01	-1.839076e-05
1.090232e+01	-1.860382e-05
1.096529e+01	-1.881935e-05
1.102862e+01	-1.903738e-05
1.109232e+01	-1.925793e-05
1.115639e+01	-1.948104e-05
1.122083e+01	-1.970673e-05
1.128564e+01	-1.993504e-05
1.135083e+01	-2.016599e-05
1.141639e+01	-2.039962e-05
1.148233e+01	-2.063596e-05
1.154865e+01	-2.087503e-05
1.161536e+01	-2.111687e-05
1.168245e+01	-2.136152e-05
1.174992e+01	-2.160899e-05
1.181779e+01	-2.185934e-05
1.188605e+01	-2.211259e-05
1.195470e+01	-2.236877e-05
1.202375e+01	-2.262791e-05
1.209320e+01	-2.289006e-05
1.216305e+01	-2.315525e-05
1.223330e+01	-2.342351e-05
1.230396e+01	-2.369488e-05
1.237503e+01	-2.396939e-05
1.244651e+01	-2.424708e-05
1.251840e+01	-2.452799e-05
1.259070e+01	-2.481215e-05
1.266343e+01	-2.509961e-05
1.273657e+01	-2.539039e-05
1.281014e+01	-2.568454e-05
1.288413e+01	-2.598211e-05
1.295855e+01	-2.628312e-05
1.303339e+01	-2.658761e-05
1.310867e+01	-2.689564e-05
1.318439e+01	-2.720723e-05
1.326054e+01	-2.752243e-05
1.333713e+01	-2.784128e-05
1.341417e+01	-2.816383e-05
1.349165e+01	-2.849012e-05
1.356958e+01	-2.882018e-05
1.364795e+01	-2.915407e-05
1.372678e+01	-2.949183e-05
1.380607e+01	-2.983350e-05
1.388581e+01	-3.017913e-05
1.396602e+01	-3.052876e-05
1.404668e+01	-3.088244e-05
1.412782e+01	-3.124022e-05
1.420942e+01	-3.160215e-05
1.429149e+01	-3.196827e-05
1.437404e+01	-3.233863e-05
1.445706e+01	-3.271328e-05
1.454057e+01	-3.309227e-05
1.462455e+01	-3.347565e-05
1.470902e+01	-3.386347e-05
1.479398e+01	-3.425579e-05
1.487943e+01	-3.465265e-05
1.496537e+01	-3.505411e-05
1.505181e+01	-3.546022e-05
1.513875e+01	-3.587103e-05
1.522619e+01	-3.628661e-05
1.531414e+01	-3.670700e-05
1.540259e+01	-3.713226e-05
1.549156e+01	-3.756244e-05
1.558103e+01	-3.799761e-05
1.567103e+01	-3.843782e-05
1.576155e+01	-3.888313e-05
1.585258e+01	-3.933360e-05
1.594415e+01	-3.978929e-05
1.603624e+01	-4.025026e-05
1.612886e+01	-4.071657e-05
1.622202e+01	-4.118828e-05
1.631572e+01	-4.166545e-05
1.640996e+01	-4.214816e-05
1.650474e+01	-4.263645e-05
1.660008e+01	-4.313041e-05
1.669596e+01	-4.363008e-05
1.679239e+01	-4.413555e-05
1.688938e+01	-4.464687e-05
1.698694e+01	-4.516411e-05
1.708505e+01	-4.568735e-05
1.718373e+01	-4.621664e-05
1.728299e+01	-4.675207e-05
1.738281e+01	-4.729371e-05
1.748322e+01	-4.784161e-05
1.758420e+01	-4.839587e-05
1.768576e+01	-4.895655e-05
1.778792e+01	-4.952372e-05
1.789066e+01	-5.009746e-05
1.799399e+01	-5.067785e-05
1.809793e+01	-5.126496e-05
1.820246e+01	-5.185888e-05
1.830760e+01	-5.245968e-05
1.841334e+01	-5.306743e-05
1.851969e+01	-5.368223e-05
1.862666e+01	-5.430415e-05
1.873425e+01	-5.493327e-05
1.884246e+01	-5.556969e-05
1.895129e+01	-5.621347e-05
1.906075e+01	-5.686472e-05
1.917085e+01	-5.752351e-05
1.928158e+01	-5.818993e-05
1.939295e+01	-5.886407e-05
1.950496e+01	-5.954602e-05
1.961762e+01	-6.023587e-05
1.973093e+01	-6.093372e-05
1.984490e+01	-6.163965e-05
1.995952e+01	-6.235376e-05
2.007480e+01	-6.307614e-05
2.019076e+01	-6.380689e-05
2.030738e+01	-6.454610e-05
2.042467e+01	-6.529388e-05
2.054264e+01	-6.605032e-05
2.066130e+01	-6.681553e-05
2.078064e+01	-6.758960e-05
2.090066e+01	-6.837264e-05
2.102139e+01	-6.916475e-05
2.114280e+01	-6.996603e-05
2.126492e+01	-7.077660e-05
2.138775e+01	-7.159656e-05
2.151128e+01	-7.242602e-05
2.163553e+01	-7.326509e-05
2.176050e+01	-7.411388e-05
2.188619e+01	-7.497250e-05
2.201260e+01	-7.584107e-05
2.213974e+01	-7.671970e-05
2.226762e+01	-7.760852e-05
2.239624e+01	-7.850762e-05
2.252560e+01	-7.941715e-05
2.265571e+01	-8.033721e-05
2.278656e+01	-8.126793e-05
2.291818e+01	-8.220943e-05
2.305055e+01	-8.316184e-05
2.318369e+01	-8.412529e-05
2.331760e+01	-8.509989e-05
2.345228e+01	-8.608579e-05
2.358774e+01	-8.708311e-05
2.372398e+01	-8.809198e-05
2.386101e+01	-8.911254e-05
2.399883e+01	-9.014492e-05
2.413745e+01	-9.118926e-05
2.427686e+01	-9.224571e-05
2.441709e+01	-9.331439e-05
2.455812e+01	-9.439545e-05
2.469997e+01	-9.548903e-05
2.484263e+01	-9.659529e-05
2.498612e+01	-9.771436e-05
2.513044e+01	-9.884639e-05
2.527559e+01	-9.999154e-05
2.542158e+01	-1.011500e-04
2.556842e+01	-1.023218e-04
2.571610e+01	-1.035072e-04
2.586463e+01	-1.047064e-04
2.601403e+01	-1.059194e-04
2.616428e+01	-1.071465e-04
2.631541e+01	-1.083878e-04
2.646740e+01	-1.096435e-04
2.662028e+01	-1.109137e-04
2.677404e+01	-1.121987e-04
2.692868e+01	-1.134985e-04
2.708422e+01	-1.148134e-04
2.724066e+01	-1.161435e-04
2.739800e+01	-1.174891e-04
2.755625e+01	-1.188502e-04
2.771541e+01	-1.202271e-04
2.787550e+01	-1.216199e-04
2.803650e+01	-1.230289e-04
2.819844e+01	-1.244542e-04
2.836131e+01	-1.258960e-04
2.852513e+01	-1.273545e-04
2.868989e+01	-1.288300e-04
2.885560e+01	-1.303225e-04
2.902227e+01	-1.318323e-04
2.918990e+01	-1.333596e-04
2.935850e+01	-1.349045e-04
2.952807e+01	-1.364674e-04
2.969863e+01	-1.380484e-04
2.987016e+01	-1.396477e-04
3.004269e+01	-1.412655e-04
3.021622e+01	-1.429021e-04
3.039075e+01	-1.445576e-04
3.056628e+01	-1.462324e-04
3.074283e+01	-1.479265e-04
3.092040e+01	-1.496402e-04
3.109900e+01	-1.513738e-04
3.127862e+01	-1.531275e-04
3.145929e+01	-1.549015e-04
3.164099e+01	-1.566960e-04
3.182375e+01	-1.585114e-04
3.200756e+01	-1.603477e-04
3.219244e+01	-1.622054e-04
3.237838e+01	-1.640845e-04
3.256540e+01	-1.659854e-04
3.275349e+01	-1.679084e-04
3.294268e+01	-1.698536e-04
3.313295e+01	-1.718214e-04
3.332433e+01	-1.738119e-04
3.351681e+01	-1.758256e-04
3.371040e+01	-1.778625e-04
3.390511e+01	-1.799231e-04
3.410094e+01	-1.820075e-04
3.429791e+01	-1.841160e-04
3.449601e+01	-1.862490e-04
3.469526e+01	-1.884067e-04
3.489566e+01	-1.905894e-04
3.509721e+01	-1.927974e-04
3.529993e+01	-1.950310e-04
3.550382e+01	-1.972904e-04
3.570889e+01	-1.995760e-04
3.591515e+01	-2.018881e-04
3.612259e+01	-2.042270e-04
3.633123e+01	-2.065929e-04
3.654108e+01	-2.089863e-04
3.675214e+01	-2.114074e-04
3.696442e+01	-2.138566e-04
3.717792e+01	-2.163341e-04
3.739266e+01	-2.188403e-04
3.760864e+01	-2.213756e-04
3.782587e+01	-2.239402e-04
3.804435e+01	-2.265346e-04
3.826409e+01	-2.291590e-04
3.848510e+01	-2.318138e-04
3.870739e+01	-2.344993e-04
3.893096e+01	-2.372160e-04
3.915583e+01	-2.399641e-04
3.938199e+01	-2.427441e-04
3.960946e+01	-2.455563e-04
3.983824e+01	-2.484010e-04
4.006834e+01	-2.512788e-04
4.029978e+01	-2.541898e-04
4.053255e+01	-2.571346e-04
4.076666e+01	-2.601135e-04
4.100213e+01	-2.631269e-04
4.123896e+01	-2.661752e-04
4.147715e+01	-2.692588e-04
4.171672e+01	-2.723781e-04
4.195767e+01	-2.755336e-04
4.220002e+01	-2.787256e-04
4.244377e+01	-2.819546e-04
4.268892e+01	-2.852211e-04
4.293549e+01	-2.885253e-04
4.318348e+01	-2.918678e-04
4.343291e+01	-2.952491e-04
4.368377e+01	-2.986695e-04
4.393609e+01	-3.021296e-04
4.418986e+01	-3.056297e-04
4.444510e+01	-3.091704e-04
4.470182e+01	-3.127521e-04
4.496001e+01	-3.163753e-04
4.521970e+01	-3.200404e-04
4.548089e+01	-3.237480e-04
4.574358e+01	-3.274986e-04
4.600779e+01	-3.312926e-04
4.627353e+01	-3.351306e-04
4.654081e+01	-3.390130e-04
4.680963e+01	-3.429404e-04
4.708000e+01	-3.469133e-04
4.735193e+01	-3.509323e-04
4.762543e+01	-3.549977e-04
4.790051e+01	-3.591103e-04
4.817719e+01	-3.632705e-04
4.845545e+01	-3.674789e-04
4.873533e+01	-3.717361e-04
4.901682e+01	-3.760426e-04
4.929994e+01	-3.803990e-04
4.958470e+01	-3.848058e-04
4.987110e+01	-3.892637e-04
5.015915e+01	-3.937732e-04
5.044887e+01	-3.983350e-04
5.074026e+01	-4.029496e-04
5.103333e+01	-4.076176e-04
5.132810e+01	-4.123398e-04
5.162457e+01	-4.171166e-04
5.192275e+01	-4.219488e-04
5.222265e+01	-4.268369e-04
5.252429e+01	-4.317817e-04
5.282767e+01	-4.367838e-04
5.313280e+01	-4.418438e-04
5.343969e+01	-4.469624e-04
5.374836e+01	-4.521403e-04
5.405880e+01	-4.573782e-04
5.437105e+01	-4.626768e-04
5.468509e+01	-4.680367e-04
5.500095e+01	-4.734588e-04
5.531863e+01	-4.789436e-04
5.563815e+01	-4.844920e-04
5.595951e+01	-4.901047e-04
5.628273e+01	-4.957823e-04
5.660782e+01	-5.015258e-04
5.693479e+01	-5.073357e-04
5.726364e+01	-5.132130e-04
5.759439e+01	-5.191584e-04
5.792705e+01	-5.251726e-04
5.826164e+01	-5.312565e-04
5.859815e+01	-5.374109e-04
5.893662e+01	-5.436365e-04
5.927703e+01	-5.499343e-04
5.961941e+01	-5.563051e-04
5.996377e+01	-5.627496e-04
6.031012e+01	-5.692688e-04
6.065847e+01	-5.758635e-04
6.100883e+01	-5.825346e-04
6.136121e+01	-5.892829e-04
6.171563e+01	-5.961095e-04
6.207210e+01	-6.030151e-04
6.243063e+01	-6.100007e-04
6.279122e+01	-6.170672e-04
6.315390e+01	-6.242156e-04
6.351868e+01	-6.314468e-04
6.388556e+01	-6.387617e-04
6.425456e+01	-6.461614e-04
6.462569e+01	-6.536468e-04
6.499897e+01	-6.612189e-04
6.537440e+01	-6.688787e-04
6.575200e+01	-6.766272e-04
6.613178e+01	-6.844655e-04
6.651375e+01	-6.923946e-04
6.689793e+01	-7.004156e-04
6.728433e+01	-7.085294e-04
6.767297e+01	-7.167372e-04
6.806384e+01	-7.250401e-04
6.845698e+01	-7.334392e-04
6.885238e+01	-7.419356e-04
6.925007e+01	-7.505304e-04
6.965005e+01	-7.592247e-04
7.005235e+01	-7.680198e-04
7.045697e+01	-7.769167e-04
7.086393e+01	-7.859167e-04
7.127323e+01	-7.950209e-04
7.168490e+01	-8.042306e-04
7.209895e+01	-8.135469e-04
7.251539e+01	-8.229712e-04
7.293424e+01	-8.325046e-04
7.335551e+01	-8.421485e-04
7.377920e+01	-8.519041e-04
7.420535e+01	-8.617726e-04
7.463396e+01	-8.717555e-04
7.506504e+01	-8.818540e-04
7.549861e+01	-8.920695e-04
7.593469e+01	-9.024033e-04
7.637328e+01	-9.128568e-04
7.681441e+01	-9.234313e-04
7.725809e+01	-9.341284e-04
7.770433e+01	-9.449493e-04
7.815315e+01	-9.558956e-04
7.860456e+01	-9.669687e-04
7.905857e+01	-9.781700e-04
7.951521e+01	-9.895011e-04
7.997449e+01	-1.000963e-03
8.043642e+01	-1.012559e-03
8.090102e+01	-1.024288e-03
8.136830e+01	-1.036153e-03
8.183828e+01	-1.048156e-03
8.231097e+01	-1.060297e-03
8.278640e+01	-1.072580e-03
8.326457e+01	-1.085004e-03
8.374550e+01	-1.097573e-03
8.422921e+01	-1.110287e-03
8.471572e+01	-1.123148e-03
8.520503e+01	-1.136159e-03
8.569717e+01	-1.149319e-03
8.619215e+01	-1.162633e-03
8.669000e+01	-1.176100e-03
8.719071e+01	-1.189724e-03
8.769432e+01	-1.203505e-03
8.820084e+01	-1.217446e-03
8.871029e+01	-1.231549e-03
8.922267e+01	-1.245815e-03
8.973802e+01	-1.260246e-03
9.025634e+01	-1.274844e-03
9.077766e+01	-1.289611e-03
9.130199e+01	-1.304549e-03
9.182935e+01	-1.319660e-03
9.235975e+01	-1.334947e-03
9.289321e+01	-1.350410e-03
9.342976e+01	-1.366052e-03
9.396941e+01	-1.381876e-03
9.451217e+01	-1.397883e-03
9.505807e+01	-1.414075e-03
9.560712e+01	-1.430455e-03
9.615934e+01	-1.447024e-03
9.671476e+01	-1.463786e-03
9.727338e+01	-1.480741e-03
9.783522e+01	-1.497893e-03
9.840032e+01	-1.515243e-03
9.896867e+01	-1.532795e-03
9.954031e+01	-1.550549e-03
1.001153e+02	-1.568510e-03
1.006935e+02	-1.586678e-03
1.012751e+02	-1.605057e-03
1.018601e+02	-1.623648e-03
1.024484e+02	-1.642455e-03
1.030402e+02	-1.661480e-03
1.036353e+02	-1.680725e-03
1.042339e+02	-1.700193e-03
1.048360e+02	-1.719886e-03
1.054415e+02	-1.739807e-03
1.060505e+02	-1.759959e-03
1.066631e+02	-1.780345e-03
1.072791e+02	-1.800966e-03
1.078988e+02	-1.821826e-03
1.085220e+02	-1.842928e-03
1.091488e+02	-1.864274e-03
1.097793e+02	-1.885868e-03
1.104133e+02	-1.907711e-03
1.110511e+02	-1.929808e-03
1.116925e+02	-1.952160e-03
1.123376e+02	-1.974771e-03
1.129865e+02	-1.997644e-03
1.136391e+02	-2.020782e-03
1.142955e+02	-2.044188e-03
1.149556e+02	-2.067865e-03
1.156196e+02	-2.091816e-03
1.162874e+02	-2.116044e-03
1.169591e+02	-2.140553e-03
1.176347e+02	-2.165346e-03
1.183141e+02	-2.190425e-03
1.189975e+02	-2.215796e-03
1.196848e+02	-2.241460e-03
1.203761e+02	-2.267421e-03
1.210714e+02	-2.293682e-03
1.217707e+02	-2.320248e-03
1.224740e+02	-2.347122e-03
1.231814e+02	-2.374306e-03
1.238929e+02	-2.401806e-03
1.246085e+02	-2.429623e-03
1.253283e+02	-2.457763e-03
1.260522e+02	-2.486229e-03
1.267802e+02	-2.515024e-03
1.275125e+02	-2.544153e-03
1.282490e+02	-2.573619e-03
1.289898e+02	-2.603426e-03
1.297348e+02	-2.633578e-03
1.304842e+02	-2.664079e-03
1.312378e+02	-2.694934e-03
1.319959e+02	-2.726146e-03
1.327583e+02	-2.757719e-03
1.335251e+02	-2.789657e-03
1.342963e+02	-2.821966e-03
1.350720e+02	-2.854648e-03
1.358522e+02	-2.887709e-03
1.366368e+02	-2.921153e-03
1.374260e+02	-2.954983e-03
1.382198e+02	-2.989206e-03
1.390182e+02	-3.023825e-03
1.398211e+02	-3.058844e-03
1.406287e+02	-3.094269e-03
1.414410e+02	-3.130104e-03
1.422579e+02	-3.166354e-03
1.430796e+02	-3.203023e-03
1.439060e+02	-3.240117e-03
1.447372e+02	-3.277641e-03
1.455732e+02	-3.315598e-03
1.464141e+02	-3.353996e-03
1.472597e+02	-3.392837e-03
1.481103e+02	-3.432129e-03
1.489658e+02	-3.471875e-03
1.498262e+02	-3.512081e-03
1.506916e+02	-3.552753e-03
1.515620e+02	-3.593895e-03
1.524374e+02	-3.635514e-03
1.533179e+02	-3.677615e-03
1.542034e+02	-3.720202e-03
1.550941e+02	-3.763283e-03
1.559899e+02	-3.806863e-03
1.568909e+02	-3.850947e-03
1.577971e+02	-3.895541e-03
1.587085e+02	-3.940651e-03
1.596252e+02	-3.986284e-03
1.605472e+02	-4.032444e-03
1.614745e+02	-4.079139e-03
1.624072e+02	-4.126375e-03
1.633453e+02	-4.174157e-03
1.642887e+02	-4.222492e-03
1.652377e+02	-4.271386e-03
1.661921e+02	-4.320847e-03
1.671520e+02	-4.370880e-03
1.681175e+02	-4.421492e-03
1.690885e+02	-4.472689e-03
1.700651e+02	-4.524480e-03
1.710474e+02	-4.576869e-03
1.720354e+02	-4.629865e-03
1.730291e+02	-4.683474e-03
1.740285e+02	-4.737704e-03
1.750337e+02	-4.792561e-03
1.760446e+02	-4.848053e-03
1.770615e+02	-4.904187e-03
1.780842e+02	-4.960971e-03
1.791128e+02	-5.018412e-03
1.801473e+02	-5.076517e-03
1.811878e+02	-5.135295e-03
1.822344e+02	-5.194753e-03
1.832870e+02	-5.254900e-03
1.843456e+02	-5.315742e-03
1.854104e+02	-5.377288e-03
1.864813e+02	-5.439546e-03
1.875584e+02	-5.502524e-03
1.886418e+02	-5.566231e-03
1.897313e+02	-5.630676e-03
1.908272e+02	-5.695866e-03
1.919294e+02	-5.761810e-03
1.930380e+02	-5.828517e-03
1.941530e+02	-5.895996e-03
1.952744e+02	-5.964256e-03
1.964023e+02	-6.033305e-03
1.975367e+02	-6.103153e-03
1.986777e+02	-6.173809e-03
1.998252e+02	-6.245283e-03
2.009794e+02	-6.317583e-03
2.021403e+02	-6.390720e-03
2.033078e+02	-6.464703e-03
2.044821e+02	-6.539542e-03
2.056632e+02	-6.615246e-03
2.068511e+02	-6.691826e-03
2.080459e+02	-6.769292e-03
2.092475e+02	-6.847654e-03
2.104561e+02	-6.926923e-03
2.116717e+02	-7.007108e-03
2.128943e+02	-7.088221e-03
2.141240e+02	-7.170271e-03
2.153608e+02	-7.253271e-03
2.166047e+02	-7.337231e-03
2.178558e+02	-7.422162e-03
2.191141e+02	-7.508075e-03
2.203797e+02	-7.594982e-03
2.216526e+02	-7.682893e-03
2.229329e+02	-7.771822e-03
2.242205e+02	-7.861779e-03
2.255156e+02	-7.952776e-03
2.268182e+02	-8.044825e-03
2.281283e+02	-8.137939e-03
2.294459e+02	-8.232129e-03
2.307712e+02	-8.327409e-03
2.321041e+02	-8.423790e-03
2.334447e+02	-8.521286e-03
2.347931e+02	-8.619909e-03
2.361493e+02	-8.719672e-03
2.375133e+02	-8.820589e-03
2.388851e+02	-8.922673e-03
2.402649e+02	-9.025936e-03
2.416527e+02	-9.130394e-03
2.430484e+02	-9.236059e-03
2.444523e+02	-9.342945e-03
2.458642e+02	-9.451068e-03
2.472843e+02	-9.560440e-03
2.487126e+02	-9.671076e-03
2.501492e+02	-9.782992e-03
2.515940e+02	-9.896200e-03
2.530472e+02	-1.001072e-02
2.545088e+02	-1.012656e-02
2.559789e+02	-1.024374e-02
2.574574e+02	-1.036227e-02
2.589444e+02	-1.048218e-02
2.604401e+02	-1.060347e-02
2.619444e+02	-1.072616e-02
2.634574e+02	-1.085027e-02
2.649791e+02	-1.097581e-02
2.665096e+02	-1.110281e-02
2.680489e+02	-1.123127e-02
2.695972e+02	-1.136122e-02
2.711544e+02	-1.149266e-02
2.727205e+02	-1.162563e-02
2.742958e+02	-1.176013e-02
2.758801e+02	-1.189619e-02
2.774736e+02	-1.203382e-02
2.790762e+02	-1.217304e-02
2.806882e+02	-1.231386e-02
2.823094e+02	-1.245632e-02
2.839400e+02	-1.260042e-02
2.855800e+02	-1.274618e-02
2.872295e+02	-1.289363e-02
2.888886e+02	-1.304278e-02
2.905572e+02	-1.319365e-02
2.922354e+02	-1.334627e-02
2.939234e+02	-1.350065e-02
2.956211e+02	-1.365681e-02
2.973286e+02	-1.381478e-02
2.990459e+02	-1.397457e-02
3.007732e+02	-1.413620e-02
3.025104e+02	-1.429970e-02
3.042577e+02	-1.446509e-02
3.060151e+02	-1.463239e-02
3.077826e+02	-1.480162e-02
3.095604e+02	-1.497280e-02
3.113484e+02	-1.514596e-02
3.131467e+02	-1.532112e-02
3.149554e+02	-1.549830e-02
3.167746e+02	-1.567753e-02
3.186043e+02	-1.585882e-02
3.204445e+02	-1.604221e-02
3.222954e+02	-1.622772e-02
3.241570e+02	-1.641536e-02
3.260293e+02	-1.660517e-02
3.279124e+02	-1.679718e-02
3.298064e+02	-1.699139e-02
3.317114e+02	-1.718785e-02
3.336273e+02	-1.738658e-02
3.355544e+02	-1.758760e-02
3.374925e+02	-1.779093e-02
3.394418e+02	-1.799662e-02
3.414024e+02	-1.820468e-02
3.433744e+02	-1.841513e-02
3.453577e+02	-1.862802e-02
3.473525e+02	-1.884336e-02
3.493588e+02	-1.906118e-02
3.513766e+02	-1.928152e-02
3.534062e+02	-1.950440e-02
3.554474e+02	-1.972985e-02
3.575005e+02	-1.995789e-02
3.595654e+02	-2.018857e-02
3.616422e+02	-2.042191e-02
3.637311e+02	-2.065794e-02
3.658320e+02	-2.089669e-02
3.679450e+02	-2.113819e-02
3.700702e+02	-2.138248e-02
3.722077e+02	-2.162958e-02
3.743576e+02	-2.187953e-02
3.765199e+02	-2.213236e-02
3.786946e+02	-2.238811e-02
3.808820e+02	-2.264680e-02
3.830819e+02	-2.290848e-02
3.852946e+02	-2.317317e-02
3.875200e+02	-2.344091e-02
3.897583e+02	-2.371173e-02
3.920096e+02	-2.398568e-02
3.942738e+02	-2.426278e-02
3.965511e+02	-2.454307e-02
3.988416e+02	-2.482659e-02
4.011452e+02	-2.511338e-02
4.034622e+02	-2.540347e-02
4.057926e+02	-2.569691e-02
4.081365e+02	-2.599372e-02
4.104938e+02	-2.629395e-02
4.128648e+02	-2.659763e-02
4.152495e+02	-2.690482e-02
4.176480e+02	-2.721554e-02
4.200603e+02	-2.752983e-02
4.224866e+02	-2.784775e-02
4.249268e+02	-2.816932e-02
4.273812e+02	-2.849460e-02
4.298497e+02	-2.882361e-02
4.323325e+02	-2.915642e-02
4.348297e+02	-2.949305e-02
4.373412e+02	-2.983356e-02
4.398673e+02	-3.017799e-02
4.424079e+02	-3.052637e-02
4.449633e+02	-3.087877e-02
4.475334e+02	-3.123522e-02
4.501183e+02	-3.159576e-02
4.527182e+02	-3.196046e-02
4.553330e+02	-3.232935e-02
4.579630e+02	-3.270248e-02
4.606082e+02	-3.307989e-02
4.632687e+02	-3.346165e-02
4.659445e+02	-3.384780e-02
4.686358e+02	-3.423839e-02
4.713426e+02	-3.463346e-02
4.740650e+02	-3.503308e-02
4.768032e+02	-3.543728e-02
4.795572e+02	-3.584613e-02
4.823271e+02	-3.625968e-02
4.851130e+02	-3.667798e-02
4.879150e+02	-3.710108e-02
4.907332e+02	-3.752905e-02
4.935676e+02	-3.796193e-02
4.964185e+02	-3.839978e-02
4.992858e+02	-3.884265e-02
5.021696e+02	-3.929062e-02
5.050701e+02	-3.974372e-02
5.079874e+02	-4.020202e-02
5.109215e+02	-4.066559e-02
5.138726e+02	-4.113447e-02
5.168407e+02	-4.160874e-02
5.198259e+02	-4.208845e-02
5.228284e+02	-4.257366e-02
5.258482e+02	-4.306443e-02
5.288855e+02	-4.356084e-02
5.319403e+02	-4.406294e-02
5.350128e+02	-4.457079e-02
5.381030e+02	-4.508447e-02
5.412111e+02	-4.560404e-02
5.443371e+02	-4.612956e-02
5.474812e+02	-4.666111e-02
5.506434e+02	-4.719874e-02
5.538239e+02	-4.774254e-02
5.570228e+02	-4.829257e-02
5.602401e+02	-4.884890e-02
5.634760e+02	-4.941160e-02
5.667306e+02	-4.998075e-02
5.700040e+02	-5.055641e-02
5.732964e+02	-5.113867e-02
5.766077e+02	-5.172759e-02
5.799382e+02	-5.232325e-02
5.832879e+02	-5.292573e-02
5.866569e+02	-5.353510e-02
5.900454e+02	-5.415145e-02
5.934535e+02	-5.477484e-02
5.968813e+02	-5.540537e-02
6.003288e+02	-5.604311e-02
6.037963e+02	-5.668814e-02
6.072838e+02	-5.734055e-02
6.107914e+02	-5.800041e-02
6.143194e+02	-5.866782e-02
6.178676e+02	-5.934285e-02
6.214364e+02	-6.002560e-02
6.250258e+02	-6.071614e-02
6.286359e+02	-6.141458e-02
6.322669e+02	-6.212099e-02
6.359189e+02	-6.283546e-02
6.395919e+02	-6.355810e-02
6.432862e+02	-6.428898e-02
6.470017e+02	-6.502820e-02
6.507388e+02	-6.577586e-02
6.544974e+02	-6.653205e-02
6.582778e+02	-6.729687e-02
6.620800e+02	-6.807041e-02
6.659041e+02	-6.885277e-02
6.697504e+02	-6.964405e-02
6.736188e+02	-7.044435e-02
6.775096e+02	-7.125376e-02
6.814229e+02	-7.207241e-02
6.853587e+02	-7.290038e-02
6.893173e+02	-7.373778e-02
6.932988e+02	-7.458471e-02
6.973033e+02	-7.544129e-02
7.013309e+02	-7.630762e-02
