Frequency(Hz)	Magnitude(dB)
1.000000e+01	-2.011764e+00
1.005776e+01	-2.030528e+00
1.011585e+01	-2.049168e+00
1.017428e+01	-2.067871e+00
1.023305e+01	-2.086976e+00
1.029215e+01	-2.106235e+00
1.035160e+01	-2.125537e+00
1.041139e+01	-2.144964e+00
1.047153e+01	-2.164428e+00
1.053201e+01	-2.184008e+00
1.059284e+01	-2.204005e+00
1.065403e+01	-2.224067e+00
1.071556e+01	-2.244224e+00
1.077746e+01	-2.264293e+00
1.083971e+01	-2.284744e+00
1.090232e+01	-2.305249e+00
1.096529e+01	-2.325916e+00
1.102862e+01	-2.346796e+00
1.109232e+01	-2.367752e+00
1.115639e+01	-2.388796e+00
1.122083e+01	-2.410126e+00
1.128564e+01	-2.431376e+00
1.135083e+01	-2.452749e+00
1.141639e+01	-2.474713e+00
1.148233e+01	-2.496360e+00
1.154865e+01	-2.518347e+00
1.161536e+01	-2.540359e+00
1.168245e+01	-2.562647e+00
1.174992e+01	-2.585115e+00
1.181779e+01	-2.607436e+00
1.188605e+01	-2.630237e+00
1.195470e+01	-2.652843e+00
1.202375e+01	-2.675962e+00
1.209320e+01	-2.699094e+00
1.216305e+01	-2.722304e+00
1.223330e+01	-2.745713e+00
1.230396e+01	-2.769111e+00
1.237503e+01	-2.792648e+00
1.244651e+01	-2.816434e+00
1.251840e+01	-2.840471e+00
1.259070e+01	-2.864568e+00
1.266343e+01	-2.888956e+00
1.273657e+01	-2.913379e+00
1.281014e+01	-2.937641e+00
1.288413e+01	-2.962336e+00
1.295855e+01	-2.987222e+00
1.303339e+01	-3.011968e+00
1.310867e+01	-3.037083e+00
1.318439e+01	-3.062675e+00
1.326054e+01	-3.087920e+00
1.333713e+01	-3.113407e+00
1.341417e+01	-3.139161e+00
1.349165e+01	-3.165140e+00
1.356958e+01	-3.190853e+00
1.364795e+01	-3.216914e+00
1.372678e+01	-3.243368e+00
1.380607e+01	-3.269681e+00
1.388581e+01	-3.295985e+00
1.396602e+01	-3.322828e+00
1.404668e+01	-3.349495e+00
1.412782e+01	-3.376388e+00
1.420942e+01	-3.403257e+00
1.429149e+01	-3.430928e+00
1.437404e+01	-3.458260e+00
1.445706e+01	-3.485783e+00
1.454057e+01	-3.513368e+00
1.462455e+01	-3.541295e+00
1.470902e+01	-3.569701e+00
1.479398e+01	-3.597213e+00
1.487943e+01	-3.625541e+00
1.496537e+01	-3.654210e+00
1.505181e+01	-3.682598e+00
1.513875e+01	-3.710977e+00
1.522619e+01	-3.739998e+00
1.531414e+01	-3.768947e+00
1.540259e+01	-3.798008e+00
1.549156e+01	-3.827250e+00
1.558103e+01	-3.856992e+00
1.567103e+01	-3.886049e+00
1.576155e+01	-3.915641e+00
1.585258e+01	-3.945628e+00
1.594415e+01	-3.975707e+00
1.603624e+01	-4.005817e+00
1.612886e+01	-4.035857e+00
1.622202e+01	-4.065900e+00
1.631572e+01	-4.096563e+00
1.640996e+01	-4.127338e+00
1.650474e+01	-4.158308e+00
1.660008e+01	-4.189074e+00
1.669596e+01	-4.220103e+00
1.679239e+01	-4.251393e+00
1.688938e+01	-4.282323e+00
1.698694e+01	-4.313743e+00
1.708505e+01	-4.345285e+00
1.718373e+01	-4.377072e+00
1.728299e+01	-4.409115e+00
1.738281e+01	-4.440834e+00
1.748322e+01	-4.473086e+00
1.758420e+01	-4.505191e+00
1.768576e+01	-4.537813e+00
1.778792e+01	-4.569968e+00
1.789066e+01	-4.602647e+00
1.799399e+01	-4.635553e+00
1.809793e+01	-4.668385e+00
1.820246e+01	-4.701406e+00
1.830760e+01	-4.734609e+00
1.841334e+01	-4.767865e+00
1.851969e+01	-4.801236e+00
1.862666e+01	-4.834586e+00
1.873425e+01	-4.868448e+00
1.884246e+01	-4.902215e+00
1.895129e+01	-4.936096e+00
1.906075e+01	-4.970231e+00
1.917085e+01	-5.004494e+00
1.928158e+01	-5.038913e+00
1.939295e+01	-5.072920e+00
1.950496e+01	-5.107722e+00
1.961762e+01	-5.142306e+00
1.973093e+01	-5.176871e+00
1.984490e+01	-5.211855e+00
1.995952e+01	-5.246706e+00
2.007480e+01	-5.282148e+00
2.019076e+01	-5.317313e+00
2.030738e+01	-5.352673e+00
2.042467e+01	-5.388168e+00
2.054264e+01	-5.423662e+00
2.066130e+01	-5.459483e+00
2.078064e+01	-5.495369e+00
2.090066e+01	-5.531101e+00
2.102139e+01	-5.567272e+00
2.114280e+01	-5.603235e+00
2.126492e+01	-5.639688e+00
2.138775e+01	-5.676265e+00
2.151128e+01	-5.712931e+00
2.163553e+01	-5.749526e+00
2.176050e+01	-5.786143e+00
2.188619e+01	-5.823101e+00
2.201260e+01	-5.860095e+00
2.213974e+01	-5.897493e+00
2.226762e+01	-5.934550e+00
2.239624e+01	-5.971747e+00
2.252560e+01	-6.009203e+00
2.265571e+01	-6.046988e+00
2.278656e+01	-6.084528e+00
2.291818e+01	-6.122113e+00
2.305055e+01	-6.160032e+00
2.318369e+01	-6.197873e+00
2.331760e+01	-6.236172e+00
2.345228e+01	-6.274067e+00
2.358774e+01	-6.312755e+00
2.372398e+01	-6.350796e+00
2.386101e+01	-6.389087e+00
2.399883e+01	-6.427945e+00
2.413745e+01	-6.466770e+00
2.427686e+01	-6.505365e+00
2.441709e+01	-6.544474e+00
2.455812e+01	-6.583658e+00
2.469997e+01	-6.622037e+00
2.484263e+01	-6.661713e+00
2.498612e+01	-6.700915e+00
2.513044e+01	-6.739985e+00
2.527559e+01	-6.779673e+00
2.542158e+01	-6.819213e+00
2.556842e+01	-6.858956e+00
2.571610e+01	-6.898854e+00
2.586463e+01	-6.938615e+00
2.601403e+01	-6.978636e+00
2.616428e+01	-7.018387e+00
2.631541e+01	-7.058651e+00
2.646740e+01	-7.099010e+00
2.662028e+01	-7.139421e+00
2.677404e+01	-7.179961e+00
2.692868e+01	-7.219813e+00
2.708422e+01	-7.260505e+00
2.724066e+01	-7.301431e+00
2.739800e+01	-7.342080e+00
2.755625e+01	-7.382960e+00
2.771541e+01	-7.423382e+00
2.787550e+01	-7.464705e+00
2.803650e+01	-7.506023e+00
2.819844e+01	-7.547238e+00
2.836131e+01	-7.588609e+00
2.852513e+01	-7.630087e+00
2.868989e+01	-7.671534e+00
2.885560e+01	-7.712838e+00
2.902227e+01	-7.754298e+00
2.918990e+01	-7.796248e+00
2.935850e+01	-7.838316e+00
2.952807e+01	-7.879787e+00
2.969863e+01	-7.921074e+00
2.987016e+01	-7.963812e+00
3.004269e+01	-8.005429e+00
3.021622e+01	-8.047284e+00
3.039075e+01	-8.090421e+00
3.056628e+01	-8.132280e+00
3.074283e+01	-8.174497e+00
3.092040e+01	-8.217293e+00
3.109900e+01	-8.259678e+00
3.127862e+01	-8.302646e+00
3.145929e+01	-8.345563e+00
3.164099e+01	-8.388029e+00
3.182375e+01	-8.430569e+00
3.200756e+01	-8.473806e+00
3.219244e+01	-8.516375e+00
3.237838e+01	-8.559546e+00
3.256540e+01	-8.602578e+00
3.275349e+01	-8.645449e+00
3.294268e+01	-8.688696e+00
3.313295e+01	-8.732010e+00
3.332433e+01	-8.775639e+00
3.351681e+01	-8.818636e+00
3.371040e+01	-8.862395e+00
3.390511e+01	-8.905932e+00
3.410094e+01	-8.950037e+00
3.429791e+01	-8.993401e+00
3.449601e+01	-9.037098e+00
3.469526e+01	-9.081008e+00
3.489566e+01	-9.125031e+00
3.509721e+01	-9.168790e+00
3.529993e+01	-9.212954e+00
3.550382e+01	-9.256585e+00
3.570889e+01	-9.300302e+00
3.591515e+01	-9.344567e+00
3.612259e+01	-9.389063e+00
3.633123e+01	-9.433313e+00
3.654108e+01	-9.478125e+00
3.675214e+01	-9.522195e+00
3.696442e+01	-9.566788e+00
3.717792e+01	-9.611505e+00
3.739266e+01	-9.655723e+00
3.760864e+01	-9.700284e+00
3.782587e+01	-9.745295e+00
3.804435e+01	-9.789671e+00
3.826409e+01	-9.834574e+00
3.848510e+01	-9.879686e+00
3.870739e+01	-9.924470e+00
3.893096e+01	-9.969871e+00
3.915583e+01	-1.001450e+01
3.938199e+01	-1.005951e+01
3.960946e+01	-1.010488e+01
3.983824e+01	-1.015004e+01
4.006834e+01	-1.019496e+01
4.029978e+01	-1.024083e+01
4.053255e+01	-1.028571e+01
4.076666e+01	-1.033145e+01
4.100213e+01	-1.037673e+01
4.123896e+01	-1.042199e+01
4.147715e+01	-1.046698e+01
4.171672e+01	-1.051291e+01
4.195767e+01	-1.055787e+01
4.220002e+01	-1.060404e+01
4.244377e+01	-1.065019e+01
4.268892e+01	-1.069544e+01
4.293549e+01	-1.074188e+01
4.318348e+01	-1.078778e+01
4.343291e+01	-1.083314e+01
4.368377e+01	-1.087962e+01
4.393609e+01	-1.092457e+01
4.418986e+01	-1.097094e+01
4.444510e+01	-1.101679e+01
4.470182e+01	-1.106315e+01
4.496001e+01	-1.110916e+01
4.521970e+01	-1.115527e+01
4.548089e+01	-1.120156e+01
4.574358e+01	-1.124763e+01
4.600779e+01	-1.129363e+01
4.627353e+01	-1.134060e+01
4.654081e+01	-1.138671e+01
4.680963e+01	-1.143333e+01
4.708000e+01	-1.148023e+01
4.735193e+01	-1.152689e+01
4.762543e+01	-1.157299e+01
4.790051e+01	-1.161950e+01
4.817719e+01	-1.166620e+01
4.845545e+01	-1.171262e+01
4.873533e+01	-1.175988e+01
4.901682e+01	-1.180579e+01
4.929994e+01	-1.185199e+01
4.958470e+01	-1.189876e+01
4.987110e+01	-1.194620e+01
5.015915e+01	-1.199286e+01
5.044887e+01	-1.204009e+01
5.074026e+01	-1.208667e+01
5.103333e+01	-1.213308e+01
5.132810e+01	-1.218141e+01
5.162457e+01	-1.222774e+01
5.192275e+01	-1.227492e+01
5.222265e+01	-1.232172e+01
5.252429e+01	-1.236874e+01
5.282767e+01	-1.241571e+01
5.313280e+01	-1.246360e+01
5.343969e+01	-1.251108e+01
5.374836e+01	-1.255737e+01
5.405880e+01	-1.260559e+01
5.437105e+01	-1.265257e+01
5.468509e+01	-1.270010e+01
5.500095e+01	-1.274733e+01
5.531863e+01	-1.279438e+01
5.563815e+01	-1.284222e+01
5.595951e+01	-1.288929e+01
5.628273e+01	-1.293684e+01
5.660782e+01	-1.298497e+01
5.693479e+01	-1.303218e+01
5.726364e+01	-1.307937e+01
5.759439e+01	-1.312635e+01
5.792705e+01	-1.317486e+01
5.826164e+01	-1.322273e+01
5.859815e+01	-1.326963e+01
5.893662e+01	-1.331770e+01
5.927703e+01	-1.336491e+01
5.961941e+01	-1.341211e+01
5.996377e+01	-1.346031e+01
6.031012e+01	-1.350898e+01
6.065847e+01	-1.355608e+01
6.100883e+01	-1.360437e+01
6.136121e+01	-1.365239e+01
6.171563e+01	-1.369999e+01
6.207210e+01	-1.374792e+01
6.243063e+01	-1.379620e+01
6.279122e+01	-1.384301e+01
6.315390e+01	-1.389197e+01
6.351868e+01	-1.393960e+01
6.388556e+01	-1.398838e+01
6.425456e+01	-1.403588e+01
6.462569e+01	-1.408388e+01
6.499897e+01	-1.413251e+01
6.537440e+01	-1.417925e+01
6.575200e+01	-1.422794e+01
6.613178e+01	-1.427638e+01
6.651375e+01	-1.432370e+01
6.689793e+01	-1.437214e+01
6.728433e+01	-1.442061e+01
6.767297e+01	-1.446959e+01
6.806384e+01	-1.451782e+01
6.845698e+01	-1.456577e+01
6.885238e+01	-1.461429e+01
6.925007e+01	-1.466207e+01
6.965005e+01	-1.471091e+01
7.005235e+01	-1.475901e+01
7.045697e+01	-1.480727e+01
7.086393e+01	-1.485585e+01
7.127323e+01	-1.490378e+01
7.168490e+01	-1.495298e+01
7.209895e+01	-1.500167e+01
7.251539e+01	-1.504997e+01
7.293424e+01	-1.509862e+01
7.335551e+01	-1.514733e+01
7.377920e+01	-1.519463e+01
7.420535e+01	-1.524252e+01
7.463396e+01	-1.529215e+01
7.506504e+01	-1.534042e+01
7.549861e+01	-1.538917e+01
7.593469e+01	-1.543731e+01
7.637328e+01	-1.548658e+01
7.681441e+01	-1.553536e+01
7.725809e+01	-1.558322e+01
7.770433e+01	-1.563231e+01
7.815315e+01	-1.568091e+01
7.860456e+01	-1.572948e+01
7.905857e+01	-1.577889e+01
7.951521e+01	-1.582612e+01
7.997449e+01	-1.587498e+01
8.043642e+01	-1.592427e+01
8.090102e+01	-1.597262e+01
8.136830e+01	-1.602166e+01
8.183828e+01	-1.607068e+01
8.231097e+01	-1.611931e+01
8.278640e+01	-1.616846e+01
8.326457e+01	-1.621691e+01
8.374550e+01	-1.626615e+01
8.422921e+01	-1.631563e+01
8.471572e+01	-1.636426e+01
8.520503e+01	-1.641209e+01
8.569717e+01	-1.646174e+01
8.619215e+01	-1.651067e+01
8.669000e+01	-1.655863e+01
8.719071e+01	-1.660791e+01
8.769432e+01	-1.665783e+01
8.820084e+01	-1.670686e+01
8.871029e+01	-1.675543e+01
8.922267e+01	-1.680370e+01
8.973802e+01	-1.685305e+01
9.025634e+01	-1.690251e+01
9.077766e+01	-1.695130e+01
9.130199e+01	-1.699962e+01
9.182935e+01	-1.704890e+01
9.235975e+01	-1.709825e+01
9.289321e+01	-1.714687e+01
9.342976e+01	-1.719695e+01
9.396941e+01	-1.724526e+01
9.451217e+01	-1.729474e+01
9.505807e+01	-1.734447e+01
9.560712e+01	-1.739283e+01
9.615934e+01	-1.744212e+01
9.671476e+01	-1.749009e+01
9.727338e+01	-1.753944e+01
9.783522e+01	-1.758929e+01
9.840032e+01	-1.763840e+01
9.896867e+01	-1.768729e+01
9.954031e+01	-1.773740e+01
1.001153e+02	-1.778622e+01
1.006935e+02	-1.783441e+01
1.012751e+02	-1.788559e+01
1.018601e+02	-1.793290e+01
1.024484e+02	-1.798332e+01
1.030402e+02	-1.803127e+01
1.036353e+02	-1.808261e+01
1.042339e+02	-1.813164e+01
1.048360e+02	-1.818090e+01
1.054415e+02	-1.822861e+01
1.060505e+02	-1.827891e+01
1.066631e+02	-1.832780e+01
1.072791e+02	-1.837839e+01
1.078988e+02	-1.842599e+01
1.085220e+02	-1.847465e+01
1.091488e+02	-1.852459e+01
1.097793e+02	-1.857557e+01
1.104133e+02	-1.862348e+01
1.110511e+02	-1.867267e+01
1.116925e+02	-1.872288e+01
1.123376e+02	-1.877158e+01
1.129865e+02	-1.882216e+01
1.136391e+02	-1.887058e+01
1.142955e+02	-1.892042e+01
1.149556e+02	-1.896961e+01
1.156196e+02	-1.901772e+01
1.162874e+02	-1.906779e+01
1.169591e+02	-1.911709e+01
1.176347e+02	-1.916693e+01
1.183141e+02	-1.921608e+01
1.189975e+02	-1.926576e+01
1.196848e+02	-1.931449e+01
1.203761e+02	-1.936584e+01
1.210714e+02	-1.941479e+01
1.217707e+02	-1.946325e+01
1.224740e+02	-1.951230e+01
1.231814e+02	-1.956379e+01
1.238929e+02	-1.961251e+01
1.246085e+02	-1.966060e+01
1.253283e+02	-1.971098e+01
1.260522e+02	-1.975987e+01
1.267802e+02	-1.980951e+01
1.275125e+02	-1.985905e+01
1.282490e+02	-1.991042e+01
1.289898e+02	-1.995916e+01
1.297348e+02	-2.000806e+01
1.304842e+02	-2.005774e+01
1.312378e+02	-2.010810e+01
1.319959e+02	-2.015736e+01
1.327583e+02	-2.020460e+01
1.335251e+02	-2.025512e+01
1.342963e+02	-2.030436e+01
1.350720e+02	-2.035602e+01
1.358522e+02	-2.040380e+01
1.366368e+02	-2.045529e+01
1.374260e+02	-2.050355e+01
1.382198e+02	-2.055327e+01
1.390182e+02	-2.060208e+01
1.398211e+02	-2.065230e+01
1.406287e+02	-2.070358e+01
1.414410e+02	-2.075258e+01
1.422579e+02	-2.080160e+01
1.430796e+02	-2.085254e+01
1.439060e+02	-2.089994e+01
1.447372e+02	-2.094990e+01
1.455732e+02	-2.099981e+01
1.464141e+02	-2.105022e+01
1.472597e+02	-2.109949e+01
1.481103e+02	-2.114765e+01
1.489658e+02	-2.119911e+01
1.498262e+02	-2.124868e+01
1.506916e+02	-2.129686e+01
1.515620e+02	-2.134642e+01
1.524374e+02	-2.139705e+01
1.533179e+02	-2.144920e+01
1.542034e+02	-2.149632e+01
1.550941e+02	-2.154621e+01
1.559899e+02	-2.159659e+01
1.568909e+02	-2.164698e+01
1.577971e+02	-2.169563e+01
1.587085e+02	-2.174721e+01
1.596252e+02	-2.179494e+01
1.605472e+02	-2.184617e+01
1.614745e+02	-2.189473e+01
1.624072e+02	-2.194378e+01
1.633453e+02	-2.199516e+01
1.642887e+02	-2.204145e+01
1.652377e+02	-2.209259e+01
1.661921e+02	-2.214282e+01
1.671520e+02	-2.219219e+01
1.681175e+02	-2.224248e+01
1.690885e+02	-2.229111e+01
1.700651e+02	-2.234261e+01
1.710474e+02	-2.239217e+01
1.720354e+02	-2.244184e+01
1.730291e+02	-2.249224e+01
1.740285e+02	-2.254189e+01
1.750337e+02	-2.258922e+01
1.760446e+02	-2.264008e+01
1.770615e+02	-2.268807e+01
1.780842e+02	-2.274176e+01
1.791128e+02	-2.278921e+01
1.801473e+02	-2.283972e+01
1.811878e+02	-2.288923e+01
1.822344e+02	-2.293806e+01
1.832870e+02	-2.299046e+01
1.843456e+02	-2.304066e+01
1.854104e+02	-2.308858e+01
1.864813e+02	-2.313847e+01
1.875584e+02	-2.318764e+01
1.886418e+02	-2.323693e+01
1.897313e+02	-2.328782e+01
1.908272e+02	-2.333798e+01
1.919294e+02	-2.338710e+01
1.930380e+02	-2.343687e+01
1.941530e+02	-2.348757e+01
1.952744e+02	-2.353815e+01
1.964023e+02	-2.358734e+01
1.975367e+02	-2.363524e+01
1.986777e+02	-2.368573e+01
1.998252e+02	-2.373744e+01
2.009794e+02	-2.378870e+01
2.021403e+02	-2.383729e+01
2.033078e+02	-2.388386e+01
2.044821e+02	-2.393644e+01
2.056632e+02	-2.398384e+01
2.068511e+02	-2.403540e+01
2.080459e+02	-2.408565e+01
2.092475e+02	-2.413266e+01
2.104561e+02	-2.418591e+01
2.116717e+02	-2.423645e+01
2.128943e+02	-2.428505e+01
2.141240e+02	-2.433403e+01
2.153608e+02	-2.438551e+01
2.166047e+02	-2.443593e+01
2.178558e+02	-2.448045e+01
2.191141e+02	-2.453494e+01
2.203797e+02	-2.458732e+01
2.216526e+02	-2.463433e+01
2.229329e+02	-2.468175e+01
2.242205e+02	-2.473658e+01
2.255156e+02	-2.478424e+01
2.268182e+02	-2.483508e+01
2.281283e+02	-2.488156e+01
2.294459e+02	-2.493424e+01
2.307712e+02	-2.498326e+01
2.321041e+02	-2.503724e+01
2.334447e+02	-2.508277e+01
2.347931e+02	-2.513306e+01
2.361493e+02	-2.518276e+01
2.375133e+02	-2.523145e+01
2.388851e+02	-2.528437e+01
2.402649e+02	-2.533090e+01
2.416527e+02	-2.538118e+01
2.430484e+02	-2.543334e+01
2.444523e+02	-2.548142e+01
2.458642e+02	-2.553246e+01
2.472843e+02	-2.558250e+01
2.487126e+02	-2.563423e+01
2.501492e+02	-2.568005e+01
2.515940e+02	-2.573329e+01
2.530472e+02	-2.578522e+01
2.545088e+02	-2.583169e+01
2.559789e+02	-2.588150e+01
2.574574e+02	-2.592869e+01
2.589444e+02	-2.597860e+01
2.604401e+02	-2.603373e+01
2.619444e+02	-2.608042e+01
2.634574e+02	-2.612813e+01
2.649791e+02	-2.618380e+01
2.665096e+02	-2.623053e+01
2.680489e+02	-2.628140e+01
2.695972e+02	-2.633228e+01
2.711544e+02	-2.637930e+01
2.727205e+02	-2.643136e+01
2.742958e+02	-2.648062e+01
2.758801e+02	-2.653317e+01
2.774736e+02	-2.658317e+01
2.790762e+02	-2.663070e+01
2.806882e+02	-2.668162e+01
2.823094e+02	-2.673312e+01
2.839400e+02	-2.678387e+01
2.855800e+02	-2.682885e+01
2.872295e+02	-2.687880e+01
2.888886e+02	-2.693242e+01
2.905572e+02	-2.698580e+01
2.922354e+02	-2.703074e+01
2.939234e+02	-2.708447e+01
2.956211e+02	-2.713347e+01
2.973286e+02	-2.718220e+01
2.990459e+02	-2.723213e+01
3.007732e+02	-2.728128e+01
3.025104e+02	-2.732833e+01
3.042577e+02	-2.738274e+01
3.060151e+02	-2.743455e+01
3.077826e+02	-2.748079e+01
3.095604e+02	-2.753268e+01
3.113484e+02	-2.758082e+01
3.131467e+02	-2.763192e+01
3.149554e+02	-2.768387e+01
3.167746e+02	-2.773205e+01
3.186043e+02	-2.778129e+01
3.204445e+02	-2.783351e+01
3.222954e+02	-2.787902e+01
3.241570e+02	-2.793305e+01
3.260293e+02	-2.798291e+01
3.279124e+02	-2.803149e+01
3.298064e+02	-2.808627e+01
3.317114e+02	-2.813519e+01
3.336273e+02	-2.817877e+01
3.355544e+02	-2.823371e+01
3.374925e+02	-2.827779e+01
3.394418e+02	-2.832948e+01
3.414024e+02	-2.837876e+01
3.433744e+02	-2.843322e+01
3.453577e+02	-2.848334e+01
3.473525e+02	-2.853061e+01
3.493588e+02	-2.858327e+01
3.513766e+02	-2.862784e+01
3.534062e+02	-2.867849e+01
3.554474e+02	-2.873200e+01
3.575005e+02	-2.878019e+01
3.595654e+02	-2.883251e+01
3.616422e+02	-2.887883e+01
3.637311e+02	-2.892958e+01
3.658320e+02	-2.897849e+01
3.679450e+02	-2.902728e+01
3.700702e+02	-2.908358e+01
3.722077e+02	-2.913166e+01
3.743576e+02	-2.917983e+01
3.765199e+02	-2.923504e+01
3.786946e+02	-2.928408e+01
3.808820e+02	-2.933326e+01
3.830819e+02	-2.938503e+01
3.852946e+02	-2.943161e+01
3.875200e+02	-2.948089e+01
3.897583e+02	-2.953478e+01
3.920096e+02	-2.958791e+01
3.942738e+02	-2.963715e+01
3.965511e+02	-2.969117e+01
3.988416e+02	-2.973410e+01
4.011452e+02	-2.978312e+01
4.034622e+02	-2.983546e+01
4.057926e+02	-2.988549e+01
4.081365e+02	-2.993150e+01
4.104938e+02	-2.998335e+01
4.128648e+02	-3.002955e+01
4.152495e+02	-3.008407e+01
4.176480e+02	-3.013905e+01
4.200603e+02	-3.017925e+01
4.224866e+02	-3.023290e+01
4.249268e+02	-3.028552e+01
4.273812e+02	-3.033859e+01
4.298497e+02	-3.038915e+01
4.323325e+02	-3.043975e+01
4.348297e+02	-3.048017e+01
4.373412e+02	-3.053236e+01
4.398673e+02	-3.058616e+01
4.424079e+02	-3.063629e+01
4.449633e+02	-3.068272e+01
4.475334e+02	-3.073392e+01
4.501183e+02	-3.078623e+01
4.527182e+02	-3.083448e+01
4.553330e+02	-3.088576e+01
4.579630e+02	-3.093413e+01
4.606082e+02	-3.098449e+01
4.632687e+02	-3.103649e+01
4.659445e+02	-3.108994e+01
4.686358e+02	-3.114281e+01
4.713426e+02	-3.119023e+01
4.740650e+02	-3.123380e+01
4.768032e+02	-3.128283e+01
4.795572e+02	-3.133791e+01
4.823271e+02	-3.138652e+01
4.851130e+02	-3.143405e+01
4.879150e+02	-3.148920e+01
4.907332e+02	-3.153878e+01
4.935676e+02	-3.158558e+01
4.964185e+02	-3.163831e+01
4.992858e+02	-3.168874e+01
5.021696e+02	-3.173376e+01
5.050701e+02	-3.179149e+01
5.079874e+02	-3.184625e+01
5.109215e+02	-3.188792e+01
5.138726e+02	-3.194371e+01
5.168407e+02	-3.198482e+01
5.198259e+02	-3.204035e+01
5.228284e+02	-3.208706e+01
5.258482e+02	-3.213753e+01
5.288855e+02	-3.218764e+01
5.319403e+02	-3.223756e+01
5.350128e+02	-3.228850e+01
5.381030e+02	-3.234025e+01
5.412111e+02	-3.239065e+01
5.443371e+02	-3.244386e+01
5.474812e+02	-3.249343e+01
5.506434e+02	-3.254009e+01
5.538239e+02	-3.259439e+01
5.570228e+02	-3.265402e+01
5.602401e+02	-3.269977e+01
5.634760e+02	-3.273910e+01
5.667306e+02	-3.278570e+01
5.700040e+02	-3.283903e+01
5.732964e+02	-3.289955e+01
5.766077e+02	-3.294548e+01
5.799382e+02	-3.299101e+01
5.832879e+02	-3.304761e+01
5.866569e+02	-3.309555e+01
5.900454e+02	-3.313947e+01
5.934535e+02	-3.319235e+01
5.968813e+02	-3.324465e+01
6.003288e+02	-3.329250e+01
6.037963e+02	-3.333823e+01
6.072838e+02	-3.339644e+01
6.107914e+02	-3.345012e+01
6.143194e+02	-3.349964e+01
6.178676e+02	-3.354990e+01
6.214364e+02	-3.359923e+01
6.250258e+02	-3.364721e+01
6.286359e+02	-3.370086e+01
6.322669e+02	-3.375261e+01
6.359189e+02	-3.379510e+01
6.395919e+02	-3.384304e+01
6.432862e+02	-3.390338e+01
6.470017e+02	-3.395195e+01
6.507388e+02	-3.399871e+01
6.544974e+02	-3.405300e+01
6.582778e+02	-3.409920e+01
6.620800e+02	-3.414996e+01
6.659041e+02	-3.420293e+01
6.697504e+02	-3.425596e+01
6.736188e+02	-3.430056e+01
6.775096e+02	-3.435002e+01
6.814229e+02	-3.439797e+01
6.853587e+02	-3.445416e+01
6.893173e+02	-3.449908e+01
6.932988e+02	-3.455309e+01
6.973033e+02	-3.461148e+01
7.013309e+02	-3.465472e+01
