Frequency(Hz)	Magnitude(dB)
1.000000e+01	-2.268172e+00
1.005776e+01	-2.288562e+00
1.011585e+01	-2.309177e+00
1.017428e+01	-2.329636e+00
1.023305e+01	-2.350551e+00
1.029215e+01	-2.371415e+00
1.035160e+01	-2.392583e+00
1.041139e+01	-2.413885e+00
1.047153e+01	-2.435439e+00
1.053201e+01	-2.456951e+00
1.059284e+01	-2.478661e+00
1.065403e+01	-2.500444e+00
1.071556e+01	-2.522559e+00
1.077746e+01	-2.544595e+00
1.083971e+01	-2.566652e+00
1.090232e+01	-2.589130e+00
1.096529e+01	-2.611649e+00
1.102862e+01	-2.634688e+00
1.109232e+01	-2.657164e+00
1.115639e+01	-2.680066e+00
1.122083e+01	-2.703376e+00
1.128564e+01	-2.726545e+00
1.135083e+01	-2.749910e+00
1.141639e+01	-2.773430e+00
1.148233e+01	-2.797179e+00
1.154865e+01	-2.821213e+00
1.161536e+01	-2.844762e+00
1.168245e+01	-2.868825e+00
1.174992e+01	-2.893376e+00
1.181779e+01	-2.917863e+00
1.188605e+01	-2.942337e+00
1.195470e+01	-2.966970e+00
1.202375e+01	-2.991759e+00
1.209320e+01	-3.016472e+00
1.216305e+01	-3.041803e+00
1.223330e+01	-3.067278e+00
1.230396e+01	-3.092745e+00
1.237503e+01	-3.118130e+00
1.244651e+01	-3.143926e+00
1.251840e+01	-3.169745e+00
1.259070e+01	-3.195855e+00
1.266343e+01	-3.221589e+00
1.273657e+01	-3.247974e+00
1.281014e+01	-3.274417e+00
1.288413e+01	-3.301014e+00
1.295855e+01	-3.327882e+00
1.303339e+01	-3.354632e+00
1.310867e+01	-3.381683e+00
1.318439e+01	-3.408676e+00
1.326054e+01	-3.435846e+00
1.333713e+01	-3.463523e+00
1.341417e+01	-3.490795e+00
1.349165e+01	-3.518668e+00
1.356958e+01	-3.546491e+00
1.364795e+01	-3.574614e+00
1.372678e+01	-3.602718e+00
1.380607e+01	-3.631020e+00
1.388581e+01	-3.659211e+00
1.396602e+01	-3.688101e+00
1.404668e+01	-3.716685e+00
1.412782e+01	-3.745413e+00
1.420942e+01	-3.774430e+00
1.429149e+01	-3.803557e+00
1.437404e+01	-3.832720e+00
1.445706e+01	-3.862226e+00
1.454057e+01	-3.891766e+00
1.462455e+01	-3.921252e+00
1.470902e+01	-3.951119e+00
1.479398e+01	-3.981012e+00
1.487943e+01	-4.011247e+00
1.496537e+01	-4.041348e+00
1.505181e+01	-4.072037e+00
1.513875e+01	-4.102257e+00
1.522619e+01	-4.133141e+00
1.531414e+01	-4.163658e+00
1.540259e+01	-4.194463e+00
1.549156e+01	-4.225738e+00
1.558103e+01	-4.256882e+00
1.567103e+01	-4.288169e+00
1.576155e+01	-4.319576e+00
1.585258e+01	-4.351358e+00
1.594415e+01	-4.382996e+00
1.603624e+01	-4.415173e+00
1.612886e+01	-4.446993e+00
1.622202e+01	-4.478837e+00
1.631572e+01	-4.511118e+00
1.640996e+01	-4.543584e+00
1.650474e+01	-4.575946e+00
1.660008e+01	-4.609085e+00
1.669596e+01	-4.641810e+00
1.679239e+01	-4.674479e+00
1.688938e+01	-4.707423e+00
1.698694e+01	-4.740958e+00
1.708505e+01	-4.774183e+00
1.718373e+01	-4.807440e+00
1.728299e+01	-4.841148e+00
1.738281e+01	-4.874605e+00
1.748322e+01	-4.908134e+00
1.758420e+01	-4.942636e+00
1.768576e+01	-4.975990e+00
1.778792e+01	-5.010453e+00
1.789066e+01	-5.044697e+00
1.799399e+01	-5.079231e+00
1.809793e+01	-5.113845e+00
1.820246e+01	-5.148444e+00
1.830760e+01	-5.183346e+00
1.841334e+01	-5.218257e+00
1.851969e+01	-5.253326e+00
1.862666e+01	-5.288493e+00
1.873425e+01	-5.323730e+00
1.884246e+01	-5.359261e+00
1.895129e+01	-5.394525e+00
1.906075e+01	-5.430375e+00
1.917085e+01	-5.465860e+00
1.928158e+01	-5.501751e+00
1.939295e+01	-5.537793e+00
1.950496e+01	-5.574125e+00
1.961762e+01	-5.610407e+00
1.973093e+01	-5.646457e+00
1.984490e+01	-5.683120e+00
1.995952e+01	-5.719610e+00
2.007480e+01	-5.756387e+00
2.019076e+01	-5.792917e+00
2.030738e+01	-5.830060e+00
2.042467e+01	-5.867120e+00
2.054264e+01	-5.904082e+00
2.066130e+01	-5.941850e+00
2.078064e+01	-5.978818e+00
2.090066e+01	-6.016056e+00
2.102139e+01	-6.053721e+00
2.114280e+01	-6.091682e+00
2.126492e+01	-6.129321e+00
2.138775e+01	-6.167219e+00
2.151128e+01	-6.205281e+00
2.163553e+01	-6.243372e+00
2.176050e+01	-6.281340e+00
2.188619e+01	-6.319659e+00
2.201260e+01	-6.358200e+00
2.213974e+01	-6.396615e+00
2.226762e+01	-6.435290e+00
2.239624e+01	-6.473955e+00
2.252560e+01	-6.512282e+00
2.265571e+01	-6.551561e+00
2.278656e+01	-6.590438e+00
2.291818e+01	-6.629617e+00
2.305055e+01	-6.668795e+00
2.318369e+01	-6.708388e+00
2.331760e+01	-6.747638e+00
2.345228e+01	-6.787165e+00
2.358774e+01	-6.826611e+00
2.372398e+01	-6.866381e+00
2.386101e+01	-6.906018e+00
2.399883e+01	-6.946062e+00
2.413745e+01	-6.985788e+00
2.427686e+01	-7.026068e+00
2.441709e+01	-7.066075e+00
2.455812e+01	-7.106481e+00
2.469997e+01	-7.146757e+00
2.484263e+01	-7.187154e+00
2.498612e+01	-7.227932e+00
2.513044e+01	-7.268410e+00
2.527559e+01	-7.309052e+00
2.542158e+01	-7.349561e+00
2.556842e+01	-7.391045e+00
2.571610e+01	-7.431411e+00
2.586463e+01	-7.472882e+00
2.601403e+01	-7.514063e+00
2.616428e+01	-7.554987e+00
2.631541e+01	-7.596512e+00
2.646740e+01	-7.637587e+00
2.662028e+01	-7.679322e+00
2.677404e+01	-7.720844e+00
2.692868e+01	-7.762304e+00
2.708422e+01	-7.803553e+00
2.724066e+01	-7.846004e+00
2.739800e+01	-7.887575e+00
2.755625e+01	-7.929386e+00
2.771541e+01	-7.971140e+00
2.787550e+01	-8.013561e+00
2.803650e+01	-8.055502e+00
2.819844e+01	-8.097219e+00
2.836131e+01	-8.140060e+00
2.852513e+01	-8.182804e+00
2.868989e+01	-8.224976e+00
2.885560e+01	-8.267499e+00
2.902227e+01	-8.310138e+00
2.918990e+01	-8.352773e+00
2.935850e+01	-8.395575e+00
2.952807e+01	-8.438975e+00
2.969863e+01	-8.481411e+00
2.987016e+01	-8.524966e+00
3.004269e+01	-8.567043e+00
3.021622e+01	-8.610295e+00
3.039075e+01	-8.653385e+00
3.056628e+01	-8.696917e+00
3.074283e+01	-8.739708e+00
3.092040e+01	-8.783258e+00
3.109900e+01	-8.827087e+00
3.127862e+01	-8.870962e+00
3.145929e+01	-8.913853e+00
3.164099e+01	-8.957927e+00
3.182375e+01	-9.001573e+00
3.200756e+01	-9.044891e+00
3.219244e+01	-9.088775e+00
3.237838e+01	-9.132771e+00
3.256540e+01	-9.176539e+00
3.275349e+01	-9.221027e+00
3.294268e+01	-9.265077e+00
3.313295e+01	-9.308955e+00
3.332433e+01	-9.352947e+00
3.351681e+01	-9.397848e+00
3.371040e+01	-9.441569e+00
3.390511e+01	-9.486339e+00
3.410094e+01	-9.530683e+00
3.429791e+01	-9.574879e+00
3.449601e+01	-9.619467e+00
3.469526e+01	-9.663695e+00
3.489566e+01	-9.708844e+00
3.509721e+01	-9.753936e+00
3.529993e+01	-9.798706e+00
3.550382e+01	-9.843566e+00
3.570889e+01	-9.887972e+00
3.591515e+01	-9.933278e+00
3.612259e+01	-9.977526e+00
3.633123e+01	-1.002302e+01
3.654108e+01	-1.006802e+01
3.675214e+01	-1.011334e+01
3.696442e+01	-1.015850e+01
3.717792e+01	-1.020314e+01
3.739266e+01	-1.024870e+01
3.760864e+01	-1.029404e+01
3.782587e+01	-1.033912e+01
3.804435e+01	-1.038483e+01
3.826409e+01	-1.043042e+01
3.848510e+01	-1.047599e+01
3.870739e+01	-1.052102e+01
3.893096e+01	-1.056773e+01
3.915583e+01	-1.061290e+01
3.938199e+01	-1.065841e+01
3.960946e+01	-1.070373e+01
3.983824e+01	-1.074995e+01
4.006834e+01	-1.079536e+01
4.029978e+01	-1.084179e+01
4.053255e+01	-1.088760e+01
4.076666e+01	-1.093328e+01
4.100213e+01	-1.097962e+01
4.123896e+01	-1.102574e+01
4.147715e+01	-1.107235e+01
4.171672e+01	-1.111819e+01
4.195767e+01	-1.116385e+01
4.220002e+01	-1.121025e+01
4.244377e+01	-1.125597e+01
4.268892e+01	-1.130249e+01
4.293549e+01	-1.134918e+01
4.318348e+01	-1.139519e+01
4.343291e+01	-1.144191e+01
4.368377e+01	-1.148803e+01
4.393609e+01	-1.153495e+01
4.418986e+01	-1.158174e+01
4.444510e+01	-1.162817e+01
4.470182e+01	-1.167505e+01
4.496001e+01	-1.172101e+01
4.521970e+01	-1.176844e+01
4.548089e+01	-1.181432e+01
4.574358e+01	-1.186131e+01
4.600779e+01	-1.190811e+01
4.627353e+01	-1.195463e+01
4.654081e+01	-1.200208e+01
4.680963e+01	-1.204920e+01
4.708000e+01	-1.209612e+01
4.735193e+01	-1.214284e+01
4.762543e+01	-1.218972e+01
4.790051e+01	-1.223652e+01
4.817719e+01	-1.228402e+01
4.845545e+01	-1.233001e+01
4.873533e+01	-1.237751e+01
4.901682e+01	-1.242517e+01
4.929994e+01	-1.247173e+01
4.958470e+01	-1.251903e+01
4.987110e+01	-1.256628e+01
5.015915e+01	-1.261383e+01
5.044887e+01	-1.266193e+01
5.074026e+01	-1.270876e+01
5.103333e+01	-1.275653e+01
5.132810e+01	-1.280325e+01
5.162457e+01	-1.285081e+01
5.192275e+01	-1.289778e+01
5.222265e+01	-1.294627e+01
5.252429e+01	-1.299288e+01
5.282767e+01	-1.304043e+01
5.313280e+01	-1.308826e+01
5.343969e+01	-1.313511e+01
5.374836e+01	-1.318418e+01
5.405880e+01	-1.323158e+01
5.437105e+01	-1.327900e+01
5.468509e+01	-1.332597e+01
5.500095e+01	-1.337401e+01
5.531863e+01	-1.342283e+01
5.563815e+01	-1.346995e+01
5.595951e+01	-1.351737e+01
5.628273e+01	-1.356527e+01
5.660782e+01	-1.361300e+01
5.693479e+01	-1.366112e+01
5.726364e+01	-1.370876e+01
5.759439e+01	-1.375706e+01
5.792705e+01	-1.380500e+01
5.826164e+01	-1.385279e+01
5.859815e+01	-1.390028e+01
5.893662e+01	-1.394758e+01
5.927703e+01	-1.399677e+01
5.961941e+01	-1.404440e+01
5.996377e+01	-1.409251e+01
6.031012e+01	-1.414115e+01
6.065847e+01	-1.418957e+01
6.100883e+01	-1.423703e+01
6.136121e+01	-1.428547e+01
6.171563e+01	-1.433326e+01
6.207210e+01	-1.438138e+01
6.243063e+01	-1.443070e+01
6.279122e+01	-1.447782e+01
6.315390e+01	-1.452595e+01
6.351868e+01	-1.457454e+01
6.388556e+01	-1.462239e+01
6.425456e+01	-1.467089e+01
6.462569e+01	-1.471977e+01
6.499897e+01	-1.476794e+01
6.537440e+01	-1.481633e+01
6.575200e+01	-1.486554e+01
6.613178e+01	-1.491351e+01
6.651375e+01	-1.496198e+01
6.689793e+01	-1.500926e+01
6.728433e+01	-1.505854e+01
6.767297e+01	-1.510690e+01
6.806384e+01	-1.515448e+01
6.845698e+01	-1.520411e+01
6.885238e+01	-1.525246e+01
6.925007e+01	-1.530074e+01
6.965005e+01	-1.534993e+01
7.005235e+01	-1.539749e+01
7.045697e+01	-1.544563e+01
7.086393e+01	-1.549521e+01
7.127323e+01	-1.554398e+01
7.168490e+01	-1.559261e+01
7.209895e+01	-1.564102e+01
7.251539e+01	-1.568964e+01
7.293424e+01	-1.573854e+01
7.335551e+01	-1.578706e+01
7.377920e+01	-1.583654e+01
7.420535e+01	-1.588498e+01
7.463396e+01	-1.593335e+01
7.506504e+01	-1.598177e+01
7.549861e+01	-1.603108e+01
7.593469e+01	-1.608042e+01
7.637328e+01	-1.612844e+01
7.681441e+01	-1.617694e+01
7.725809e+01	-1.622577e+01
7.770433e+01	-1.627527e+01
7.815315e+01	-1.632399e+01
7.860456e+01	-1.637333e+01
7.905857e+01	-1.642233e+01
7.951521e+01	-1.646988e+01
7.997449e+01	-1.651828e+01
8.043642e+01	-1.656716e+01
8.090102e+01	-1.661691e+01
8.136830e+01	-1.666715e+01
8.183828e+01	-1.671635e+01
8.231097e+01	-1.676420e+01
8.278640e+01	-1.681156e+01
8.326457e+01	-1.686284e+01
8.374550e+01	-1.691063e+01
8.422921e+01	-1.695964e+01
8.471572e+01	-1.700909e+01
8.520503e+01	-1.705902e+01
8.569717e+01	-1.710819e+01
8.619215e+01	-1.715710e+01
8.669000e+01	-1.720523e+01
8.719071e+01	-1.725566e+01
8.769432e+01	-1.730497e+01
8.820084e+01	-1.735136e+01
8.871029e+01	-1.740169e+01
8.922267e+01	-1.745074e+01
8.973802e+01	-1.749913e+01
9.025634e+01	-1.754875e+01
9.077766e+01	-1.759948e+01
9.130199e+01	-1.764703e+01
9.182935e+01	-1.769683e+01
9.235975e+01	-1.774549e+01
9.289321e+01	-1.779467e+01
9.342976e+01	-1.784453e+01
9.396941e+01	-1.789331e+01
9.451217e+01	-1.794246e+01
9.505807e+01	-1.799254e+01
9.560712e+01	-1.804016e+01
9.615934e+01	-1.809116e+01
9.671476e+01	-1.814072e+01
9.727338e+01	-1.819008e+01
9.783522e+01	-1.823942e+01
9.840032e+01	-1.828713e+01
9.896867e+01	-1.833645e+01
9.954031e+01	-1.838655e+01
1.001153e+02	-1.843496e+01
1.006935e+02	-1.848482e+01
1.012751e+02	-1.853464e+01
1.018601e+02	-1.858354e+01
1.024484e+02	-1.863280e+01
1.030402e+02	-1.868201e+01
1.036353e+02	-1.873219e+01
1.042339e+02	-1.878135e+01
1.048360e+02	-1.883061e+01
1.054415e+02	-1.887951e+01
1.060505e+02	-1.892805e+01
1.066631e+02	-1.897770e+01
1.072791e+02	-1.902749e+01
1.078988e+02	-1.907806e+01
1.085220e+02	-1.912647e+01
1.091488e+02	-1.917755e+01
1.097793e+02	-1.922630e+01
1.104133e+02	-1.927565e+01
1.110511e+02	-1.932340e+01
1.116925e+02	-1.937333e+01
1.123376e+02	-1.942433e+01
1.129865e+02	-1.947367e+01
1.136391e+02	-1.952136e+01
1.142955e+02	-1.957282e+01
1.149556e+02	-1.962138e+01
1.156196e+02	-1.966928e+01
1.162874e+02	-1.972128e+01
1.169591e+02	-1.977020e+01
1.176347e+02	-1.981933e+01
1.183141e+02	-1.986977e+01
1.189975e+02	-1.991633e+01
1.196848e+02	-1.996773e+01
1.203761e+02	-2.001690e+01
1.210714e+02	-2.006543e+01
1.217707e+02	-2.011771e+01
1.224740e+02	-2.016631e+01
1.231814e+02	-2.021575e+01
1.238929e+02	-2.026622e+01
1.246085e+02	-2.031461e+01
1.253283e+02	-2.036374e+01
1.260522e+02	-2.041374e+01
1.267802e+02	-2.046220e+01
1.275125e+02	-2.051215e+01
1.282490e+02	-2.056249e+01
1.289898e+02	-2.061175e+01
1.297348e+02	-2.066082e+01
1.304842e+02	-2.071135e+01
1.312378e+02	-2.076210e+01
1.319959e+02	-2.081236e+01
1.327583e+02	-2.086038e+01
1.335251e+02	-2.091034e+01
1.342963e+02	-2.095892e+01
1.350720e+02	-2.100815e+01
1.358522e+02	-2.105856e+01
1.366368e+02	-2.110989e+01
1.374260e+02	-2.115809e+01
1.382198e+02	-2.120890e+01
1.390182e+02	-2.125832e+01
1.398211e+02	-2.130688e+01
1.406287e+02	-2.135713e+01
1.414410e+02	-2.140721e+01
1.422579e+02	-2.145751e+01
1.430796e+02	-2.150778e+01
1.439060e+02	-2.155492e+01
1.447372e+02	-2.160464e+01
1.455732e+02	-2.165695e+01
1.464141e+02	-2.170369e+01
1.472597e+02	-2.175426e+01
1.481103e+02	-2.180502e+01
1.489658e+02	-2.185263e+01
1.498262e+02	-2.190386e+01
1.506916e+02	-2.195402e+01
1.515620e+02	-2.200421e+01
1.524374e+02	-2.205228e+01
1.533179e+02	-2.210402e+01
1.542034e+02	-2.215237e+01
1.550941e+02	-2.220193e+01
1.559899e+02	-2.225156e+01
1.568909e+02	-2.230117e+01
1.577971e+02	-2.235301e+01
1.587085e+02	-2.240275e+01
1.596252e+02	-2.244921e+01
1.605472e+02	-2.250212e+01
1.614745e+02	-2.254982e+01
1.624072e+02	-2.260183e+01
1.633453e+02	-2.264956e+01
1.642887e+02	-2.270120e+01
1.652377e+02	-2.274697e+01
1.661921e+02	-2.279994e+01
1.671520e+02	-2.284947e+01
1.681175e+02	-2.290019e+01
1.690885e+02	-2.294850e+01
1.700651e+02	-2.299863e+01
1.710474e+02	-2.304803e+01
1.720354e+02	-2.309694e+01
1.730291e+02	-2.314889e+01
1.740285e+02	-2.319654e+01
1.750337e+02	-2.324591e+01
1.760446e+02	-2.329934e+01
1.770615e+02	-2.334748e+01
1.780842e+02	-2.339639e+01
1.791128e+02	-2.344789e+01
1.801473e+02	-2.349871e+01
1.811878e+02	-2.354483e+01
1.822344e+02	-2.359610e+01
1.832870e+02	-2.364614e+01
1.843456e+02	-2.369520e+01
1.854104e+02	-2.374654e+01
1.864813e+02	-2.379431e+01
1.875584e+02	-2.384583e+01
1.886418e+02	-2.389788e+01
1.897313e+02	-2.394539e+01
1.908272e+02	-2.399506e+01
1.919294e+02	-2.404471e+01
1.930380e+02	-2.409722e+01
1.941530e+02	-2.414434e+01
1.952744e+02	-2.419387e+01
1.964023e+02	-2.424135e+01
1.975367e+02	-2.429561e+01
1.986777e+02	-2.434451e+01
1.998252e+02	-2.439376e+01
2.009794e+02	-2.444388e+01
2.021403e+02	-2.449193e+01
2.033078e+02	-2.454617e+01
2.044821e+02	-2.459189e+01
2.056632e+02	-2.464479e+01
2.068511e+02	-2.469188e+01
2.080459e+02	-2.474377e+01
2.092475e+02	-2.479430e+01
2.104561e+02	-2.484325e+01
2.116717e+02	-2.489304e+01
2.128943e+02	-2.494058e+01
2.141240e+02	-2.499413e+01
2.153608e+02	-2.504254e+01
2.166047e+02	-2.509090e+01
2.178558e+02	-2.514135e+01
2.191141e+02	-2.519406e+01
2.203797e+02	-2.524142e+01
2.216526e+02	-2.529543e+01
2.229329e+02	-2.534179e+01
2.242205e+02	-2.539371e+01
2.255156e+02	-2.544499e+01
2.268182e+02	-2.549200e+01
2.281283e+02	-2.554340e+01
2.294459e+02	-2.558962e+01
2.307712e+02	-2.564178e+01
2.321041e+02	-2.569149e+01
2.334447e+02	-2.573754e+01
2.347931e+02	-2.579481e+01
2.361493e+02	-2.584164e+01
2.375133e+02	-2.589253e+01
2.388851e+02	-2.594020e+01
2.402649e+02	-2.599132e+01
2.416527e+02	-2.604007e+01
2.430484e+02	-2.609045e+01
2.444523e+02	-2.614320e+01
2.458642e+02	-2.619206e+01
2.472843e+02	-2.623920e+01
2.487126e+02	-2.629297e+01
2.501492e+02	-2.633996e+01
2.515940e+02	-2.639084e+01
2.530472e+02	-2.643890e+01
2.545088e+02	-2.648954e+01
2.559789e+02	-2.654000e+01
2.574574e+02	-2.659236e+01
2.589444e+02	-2.663919e+01
2.604401e+02	-2.668846e+01
2.619444e+02	-2.674172e+01
2.634574e+02	-2.678836e+01
2.649791e+02	-2.683892e+01
2.665096e+02	-2.689051e+01
2.680489e+02	-2.694089e+01
2.695972e+02	-2.698959e+01
2.711544e+02	-2.704184e+01
2.727205e+02	-2.708707e+01
2.742958e+02	-2.714153e+01
2.758801e+02	-2.719077e+01
2.774736e+02	-2.723901e+01
2.790762e+02	-2.728635e+01
2.806882e+02	-2.734240e+01
2.823094e+02	-2.739094e+01
2.839400e+02	-2.744057e+01
2.855800e+02	-2.748786e+01
2.872295e+02	-2.754126e+01
2.888886e+02	-2.759103e+01
2.905572e+02	-2.764359e+01
2.922354e+02	-2.769119e+01
2.939234e+02	-2.773865e+01
2.956211e+02	-2.778774e+01
2.973286e+02	-2.783978e+01
2.990459e+02	-2.789328e+01
3.007732e+02	-2.793953e+01
3.025104e+02	-2.799118e+01
3.042577e+02	-2.803978e+01
3.060151e+02	-2.809224e+01
3.077826e+02	-2.814504e+01
3.095604e+02	-2.819039e+01
3.113484e+02	-2.823944e+01
3.131467e+02	-2.829408e+01
3.149554e+02	-2.834064e+01
3.167746e+02	-2.838768e+01
3.186043e+02	-2.844371e+01
3.204445e+02	-2.849181e+01
3.222954e+02	-2.854008e+01
3.241570e+02	-2.859264e+01
3.260293e+02	-2.864058e+01
3.279124e+02	-2.869098e+01
3.298064e+02	-2.873971e+01
3.317114e+02	-2.879106e+01
3.336273e+02	-2.883960e+01
3.355544e+02	-2.889276e+01
3.374925e+02	-2.894008e+01
3.394418e+02	-2.899496e+01
3.414024e+02	-2.904267e+01
3.433744e+02	-2.909019e+01
3.453577e+02	-2.914192e+01
3.473525e+02	-2.918553e+01
3.493588e+02	-2.924135e+01
3.513766e+02	-2.929514e+01
3.534062e+02	-2.933999e+01
3.554474e+02	-2.939629e+01
3.575005e+02	-2.944522e+01
3.595654e+02	-2.948781e+01
3.616422e+02	-2.954520e+01
3.637311e+02	-2.959060e+01
3.658320e+02	-2.964409e+01
3.679450e+02	-2.969988e+01
3.700702e+02	-2.973924e+01
3.722077e+02	-2.979345e+01
3.743576e+02	-2.984076e+01
3.765199e+02	-2.989176e+01
3.786946e+02	-2.994181e+01
3.808820e+02	-2.999580e+01
3.830819e+02	-3.003941e+01
3.852946e+02	-3.009374e+01
3.875200e+02	-3.014584e+01
3.897583e+02	-3.019288e+01
3.920096e+02	-3.024359e+01
3.942738e+02	-3.029069e+01
3.965511e+02	-3.034426e+01
3.988416e+02	-3.039182e+01
4.011452e+02	-3.044407e+01
4.034622e+02	-3.049609e+01
4.057926e+02	-3.054147e+01
4.081365e+02	-3.059680e+01
4.104938e+02	-3.063982e+01
4.128648e+02	-3.069357e+01
4.152495e+02	-3.074117e+01
4.176480e+02	-3.079641e+01
4.200603e+02	-3.084827e+01
4.224866e+02	-3.089585e+01
4.249268e+02	-3.094747e+01
4.273812e+02	-3.099768e+01
4.298497e+02	-3.104602e+01
4.323325e+02	-3.109834e+01
4.348297e+02	-3.114459e+01
4.373412e+02	-3.119824e+01
4.398673e+02	-3.124514e+01
4.424079e+02	-3.130178e+01
4.449633e+02	-3.135261e+01
4.475334e+02	-3.139006e+01
4.501183e+02	-3.144640e+01
4.527182e+02	-3.149783e+01
4.553330e+02	-3.154126e+01
4.579630e+02	-3.159654e+01
4.606082e+02	-3.164093e+01
4.632687e+02	-3.170066e+01
4.659445e+02	-3.174089e+01
4.686358e+02	-3.179791e+01
4.713426e+02	-3.184845e+01
4.740650e+02	-3.189592e+01
4.768032e+02	-3.194773e+01
4.795572e+02	-3.199548e+01
4.823271e+02	-3.204560e+01
4.851130e+02	-3.209928e+01
4.879150e+02	-3.215342e+01
4.907332e+02	-3.219993e+01
4.935676e+02	-3.223671e+01
4.964185e+02	-3.229841e+01
4.992858e+02	-3.235583e+01
5.021696e+02	-3.240039e+01
5.050701e+02	-3.244960e+01
5.079874e+02	-3.250581e+01
5.109215e+02	-3.255048e+01
5.138726e+02	-3.260037e+01
5.168407e+02	-3.264772e+01
5.198259e+02	-3.269698e+01
5.228284e+02	-3.275267e+01
5.258482e+02	-3.279592e+01
5.288855e+02	-3.285216e+01
5.319403e+02	-3.290184e+01
5.350128e+02	-3.294475e+01
5.381030e+02	-3.300176e+01
5.412111e+02	-3.305094e+01
5.443371e+02	-3.309706e+01
5.474812e+02	-3.315475e+01
5.506434e+02	-3.320407e+01
5.538239e+02	-3.325242e+01
5.570228e+02	-3.330524e+01
5.602401e+02	-3.335767e+01
5.634760e+02	-3.340027e+01
5.667306e+02	-3.344866e+01
5.700040e+02	-3.350422e+01
5.732964e+02	-3.355246e+01
5.766077e+02	-3.360333e+01
5.799382e+02	-3.365124e+01
5.832879e+02	-3.370493e+01
5.866569e+02	-3.375169e+01
5.900454e+02	-3.381337e+01
5.934535e+02	-3.385859e+01
5.968813e+02	-3.390788e+01
6.003288e+02	-3.396133e+01
6.037963e+02	-3.400874e+01
6.072838e+02	-3.406055e+01
6.107914e+02	-3.411115e+01
6.143194e+02	-3.415783e+01
6.178676e+02	-3.420996e+01
6.214364e+02	-3.426463e+01
6.250258e+02	-3.431834e+01
6.286359e+02	-3.435705e+01
6.322669e+02	-3.440461e+01
6.359189e+02	-3.446415e+01
6.395919e+02	-3.451275e+01
6.432862e+02	-3.456051e+01
6.470017e+02	-3.461061e+01
6.507388e+02	-3.466843e+01
6.544974e+02	-3.471233e+01
6.582778e+02	-3.475758e+01
6.620800e+02	-3.480574e+01
6.659041e+02	-3.486086e+01
6.697504e+02	-3.490542e+01
6.736188e+02	-3.496553e+01
6.775096e+02	-3.502013e+01
6.814229e+02	-3.506675e+01
6.853587e+02	-3.510924e+01
6.893173e+02	-3.516625e+01
6.932988e+02	-3.521588e+01
6.973033e+02	-3.527870e+01
7.013309e+02	-3.531341e+01
