Frequency(Hz)	Magnitude(dB)
1.000000e+01	-2.254215e+00
1.005776e+01	-2.274445e+00
1.011585e+01	-2.295135e+00
1.017428e+01	-2.315638e+00
1.023305e+01	-2.336172e+00
1.029215e+01	-2.357123e+00
1.035160e+01	-2.378222e+00
1.041139e+01	-2.399311e+00
1.047153e+01	-2.420575e+00
1.053201e+01	-2.442310e+00
1.059284e+01	-2.463602e+00
1.065403e+01	-2.485346e+00
1.071556e+01	-2.507168e+00
1.077746e+01	-2.529169e+00
1.083971e+01	-2.551424e+00
1.090232e+01	-2.573699e+00
1.096529e+01	-2.596104e+00
1.102862e+01	-2.618678e+00
1.109232e+01	-2.641453e+00
1.115639e+01	-2.664293e+00
1.122083e+01	-2.687324e+00
1.128564e+01	-2.710656e+00
1.135083e+01	-2.734080e+00
1.141639e+01	-2.757124e+00
1.148233e+01	-2.780683e+00
1.154865e+01	-2.804537e+00
1.161536e+01	-2.828652e+00
1.168245e+01	-2.852541e+00
1.174992e+01	-2.876268e+00
1.181779e+01	-2.900617e+00
1.188605e+01	-2.925186e+00
1.195470e+01	-2.950092e+00
1.202375e+01	-2.974707e+00
1.209320e+01	-2.999523e+00
1.216305e+01	-3.024417e+00
1.223330e+01	-3.049685e+00
1.230396e+01	-3.075126e+00
1.237503e+01	-3.100569e+00
1.244651e+01	-3.126069e+00
1.251840e+01	-3.151957e+00
1.259070e+01	-3.177790e+00
1.266343e+01	-3.203531e+00
1.273657e+01	-3.229889e+00
1.281014e+01	-3.256349e+00
1.288413e+01	-3.282950e+00
1.295855e+01	-3.309280e+00
1.303339e+01	-3.336042e+00
1.310867e+01	-3.362848e+00
1.318439e+01	-3.390250e+00
1.326054e+01	-3.417187e+00
1.333713e+01	-3.444507e+00
1.341417e+01	-3.472029e+00
1.349165e+01	-3.499554e+00
1.356958e+01	-3.527275e+00
1.364795e+01	-3.555127e+00
1.372678e+01	-3.583205e+00
1.380607e+01	-3.611314e+00
1.388581e+01	-3.639586e+00
1.396602e+01	-3.668257e+00
1.404668e+01	-3.696987e+00
1.412782e+01	-3.725358e+00
1.420942e+01	-3.754298e+00
1.429149e+01	-3.783485e+00
1.437404e+01	-3.812574e+00
1.445706e+01	-3.842044e+00
1.454057e+01	-3.871672e+00
1.462455e+01	-3.900946e+00
1.470902e+01	-3.930782e+00
1.479398e+01	-3.960397e+00
1.487943e+01	-3.990610e+00
1.496537e+01	-4.020710e+00
1.505181e+01	-4.050681e+00
1.513875e+01	-4.081219e+00
1.522619e+01	-4.112009e+00
1.531414e+01	-4.142528e+00
1.540259e+01	-4.173293e+00
1.549156e+01	-4.204222e+00
1.558103e+01	-4.235200e+00
1.567103e+01	-4.266376e+00
1.576155e+01	-4.297765e+00
1.585258e+01	-4.329478e+00
1.594415e+01	-4.360895e+00
1.603624e+01	-4.392950e+00
1.612886e+01	-4.425111e+00
1.622202e+01	-4.456477e+00
1.631572e+01	-4.489124e+00
1.640996e+01	-4.521297e+00
1.650474e+01	-4.554093e+00
1.660008e+01	-4.586198e+00
1.669596e+01	-4.619024e+00
1.679239e+01	-4.651847e+00
1.688938e+01	-4.684814e+00
1.698694e+01	-4.717743e+00
1.708505e+01	-4.751106e+00
1.718373e+01	-4.784385e+00
1.728299e+01	-4.818094e+00
1.738281e+01	-4.851568e+00
1.748322e+01	-4.885067e+00
1.758420e+01	-4.919218e+00
1.768576e+01	-4.953128e+00
1.778792e+01	-4.986977e+00
1.789066e+01	-5.021186e+00
1.799399e+01	-5.055681e+00
1.809793e+01	-5.090015e+00
1.820246e+01	-5.124548e+00
1.830760e+01	-5.159336e+00
1.841334e+01	-5.194185e+00
1.851969e+01	-5.229302e+00
1.862666e+01	-5.264291e+00
1.873425e+01	-5.299615e+00
1.884246e+01	-5.334797e+00
1.895129e+01	-5.370166e+00
1.906075e+01	-5.405612e+00
1.917085e+01	-5.441439e+00
1.928158e+01	-5.477215e+00
1.939295e+01	-5.513070e+00
1.950496e+01	-5.549150e+00
1.961762e+01	-5.585207e+00
1.973093e+01	-5.621740e+00
1.984490e+01	-5.658046e+00
1.995952e+01	-5.694669e+00
2.007480e+01	-5.731110e+00
2.019076e+01	-5.767556e+00
2.030738e+01	-5.804620e+00
2.042467e+01	-5.841519e+00
2.054264e+01	-5.878228e+00
2.066130e+01	-5.915541e+00
2.078064e+01	-5.953259e+00
2.090066e+01	-5.990299e+00
2.102139e+01	-6.028218e+00
2.114280e+01	-6.065334e+00
2.126492e+01	-6.103006e+00
2.138775e+01	-6.140905e+00
2.151128e+01	-6.178822e+00
2.163553e+01	-6.217016e+00
2.176050e+01	-6.254953e+00
2.188619e+01	-6.293046e+00
2.201260e+01	-6.331492e+00
2.213974e+01	-6.370253e+00
2.226762e+01	-6.408470e+00
2.239624e+01	-6.446989e+00
2.252560e+01	-6.486234e+00
2.265571e+01	-6.524706e+00
2.278656e+01	-6.563879e+00
2.291818e+01	-6.602680e+00
2.305055e+01	-6.641829e+00
2.318369e+01	-6.680864e+00
2.331760e+01	-6.720332e+00
2.345228e+01	-6.759596e+00
2.358774e+01	-6.799447e+00
2.372398e+01	-6.838976e+00
2.386101e+01	-6.878794e+00
2.399883e+01	-6.918639e+00
2.413745e+01	-6.958590e+00
2.427686e+01	-6.998298e+00
2.441709e+01	-7.038947e+00
2.455812e+01	-7.078491e+00
2.469997e+01	-7.119008e+00
2.484263e+01	-7.159329e+00
2.498612e+01	-7.199735e+00
2.513044e+01	-7.240346e+00
2.527559e+01	-7.280742e+00
2.542158e+01	-7.321597e+00
2.556842e+01	-7.362419e+00
2.571610e+01	-7.403158e+00
2.586463e+01	-7.444540e+00
2.601403e+01	-7.485377e+00
2.616428e+01	-7.526304e+00
2.631541e+01	-7.567525e+00
2.646740e+01	-7.609088e+00
2.662028e+01	-7.650472e+00
2.677404e+01	-7.691900e+00
2.692868e+01	-7.733856e+00
2.708422e+01	-7.774949e+00
2.724066e+01	-7.816864e+00
2.739800e+01	-7.858462e+00
2.755625e+01	-7.900431e+00
2.771541e+01	-7.942632e+00
2.787550e+01	-7.984468e+00
2.803650e+01	-8.026399e+00
2.819844e+01	-8.068804e+00
2.836131e+01	-8.110942e+00
2.852513e+01	-8.153516e+00
2.868989e+01	-8.195600e+00
2.885560e+01	-8.237994e+00
2.902227e+01	-8.281156e+00
2.918990e+01	-8.323225e+00
2.935850e+01	-8.366108e+00
2.952807e+01	-8.409390e+00
2.969863e+01	-8.451623e+00
2.987016e+01	-8.495136e+00
3.004269e+01	-8.537921e+00
3.021622e+01	-8.581153e+00
3.039075e+01	-8.623768e+00
3.056628e+01	-8.666967e+00
3.074283e+01	-8.710632e+00
3.092040e+01	-8.753928e+00
3.109900e+01	-8.797238e+00
3.127862e+01	-8.840211e+00
3.145929e+01	-8.883909e+00
3.164099e+01	-8.927742e+00
3.182375e+01	-8.971013e+00
3.200756e+01	-9.015193e+00
3.219244e+01	-9.058925e+00
3.237838e+01	-9.102890e+00
3.256540e+01	-9.146623e+00
3.275349e+01	-9.190810e+00
3.294268e+01	-9.234874e+00
3.313295e+01	-9.278394e+00
3.332433e+01	-9.323083e+00
3.351681e+01	-9.367169e+00
3.371040e+01	-9.411493e+00
3.390511e+01	-9.455860e+00
3.410094e+01	-9.500134e+00
3.429791e+01	-9.544110e+00
3.449601e+01	-9.588598e+00
3.469526e+01	-9.633210e+00
3.489566e+01	-9.678329e+00
3.509721e+01	-9.722741e+00
3.529993e+01	-9.767506e+00
3.550382e+01	-9.812188e+00
3.570889e+01	-9.856798e+00
3.591515e+01	-9.901628e+00
3.612259e+01	-9.947126e+00
3.633123e+01	-9.991773e+00
3.654108e+01	-1.003665e+01
3.675214e+01	-1.008170e+01
3.696442e+01	-1.012715e+01
3.717792e+01	-1.017230e+01
3.739266e+01	-1.021752e+01
3.760864e+01	-1.026277e+01
3.782587e+01	-1.030824e+01
3.804435e+01	-1.035393e+01
3.826409e+01	-1.039871e+01
3.848510e+01	-1.044494e+01
3.870739e+01	-1.048996e+01
3.893096e+01	-1.053566e+01
3.915583e+01	-1.058107e+01
3.938199e+01	-1.062707e+01
3.960946e+01	-1.067286e+01
3.983824e+01	-1.071795e+01
4.006834e+01	-1.076480e+01
4.029978e+01	-1.080997e+01
4.053255e+01	-1.085603e+01
4.076666e+01	-1.090240e+01
4.100213e+01	-1.094750e+01
4.123896e+01	-1.099393e+01
4.147715e+01	-1.104029e+01
4.171672e+01	-1.108598e+01
4.195767e+01	-1.113198e+01
4.220002e+01	-1.117829e+01
4.244377e+01	-1.122472e+01
4.268892e+01	-1.127086e+01
4.293549e+01	-1.131723e+01
4.318348e+01	-1.136376e+01
4.343291e+01	-1.140976e+01
4.368377e+01	-1.145649e+01
4.393609e+01	-1.150233e+01
4.418986e+01	-1.154892e+01
4.444510e+01	-1.159641e+01
4.470182e+01	-1.164353e+01
4.496001e+01	-1.168961e+01
4.521970e+01	-1.173562e+01
4.548089e+01	-1.178246e+01
4.574358e+01	-1.182849e+01
4.600779e+01	-1.187603e+01
4.627353e+01	-1.192238e+01
4.654081e+01	-1.196934e+01
4.680963e+01	-1.201693e+01
4.708000e+01	-1.206327e+01
4.735193e+01	-1.211023e+01
4.762543e+01	-1.215714e+01
4.790051e+01	-1.220419e+01
4.817719e+01	-1.225100e+01
4.845545e+01	-1.229824e+01
4.873533e+01	-1.234554e+01
4.901682e+01	-1.239309e+01
4.929994e+01	-1.243959e+01
4.958470e+01	-1.248680e+01
4.987110e+01	-1.253454e+01
5.015915e+01	-1.258089e+01
5.044887e+01	-1.262851e+01
5.074026e+01	-1.267584e+01
5.103333e+01	-1.272339e+01
5.132810e+01	-1.277028e+01
5.162457e+01	-1.281838e+01
5.192275e+01	-1.286570e+01
5.222265e+01	-1.291304e+01
5.252429e+01	-1.296018e+01
5.282767e+01	-1.300789e+01
5.313280e+01	-1.305541e+01
5.343969e+01	-1.310382e+01
5.374836e+01	-1.315056e+01
5.405880e+01	-1.319796e+01
5.437105e+01	-1.324505e+01
5.468509e+01	-1.329310e+01
5.500095e+01	-1.334097e+01
5.531863e+01	-1.338862e+01
5.563815e+01	-1.343686e+01
5.595951e+01	-1.348409e+01
5.628273e+01	-1.353161e+01
5.660782e+01	-1.358028e+01
5.693479e+01	-1.362774e+01
5.726364e+01	-1.367535e+01
5.759439e+01	-1.372339e+01
5.792705e+01	-1.377190e+01
5.826164e+01	-1.382028e+01
5.859815e+01	-1.386669e+01
5.893662e+01	-1.391544e+01
5.927703e+01	-1.396484e+01
5.961941e+01	-1.401152e+01
5.996377e+01	-1.405918e+01
6.031012e+01	-1.410731e+01
6.065847e+01	-1.415595e+01
6.100883e+01	-1.420375e+01
6.136121e+01	-1.425186e+01
6.171563e+01	-1.430085e+01
6.207210e+01	-1.434858e+01
6.243063e+01	-1.439689e+01
6.279122e+01	-1.444540e+01
6.315390e+01	-1.449303e+01
6.351868e+01	-1.454063e+01
6.388556e+01	-1.459026e+01
6.425456e+01	-1.463757e+01
6.462569e+01	-1.468619e+01
6.499897e+01	-1.473446e+01
6.537440e+01	-1.478317e+01
6.575200e+01	-1.483197e+01
6.613178e+01	-1.488017e+01
6.651375e+01	-1.492777e+01
6.689793e+01	-1.497680e+01
6.728433e+01	-1.502504e+01
6.767297e+01	-1.507327e+01
6.806384e+01	-1.512300e+01
6.845698e+01	-1.516998e+01
6.885238e+01	-1.521998e+01
6.925007e+01	-1.526689e+01
6.965005e+01	-1.531585e+01
7.005235e+01	-1.536501e+01
7.045697e+01	-1.541346e+01
7.086393e+01	-1.546254e+01
7.127323e+01	-1.550988e+01
7.168490e+01	-1.555856e+01
7.209895e+01	-1.560784e+01
7.251539e+01	-1.565615e+01
7.293424e+01	-1.570518e+01
7.335551e+01	-1.575401e+01
7.377920e+01	-1.580290e+01
7.420535e+01	-1.585061e+01
7.463396e+01	-1.590096e+01
7.506504e+01	-1.594816e+01
7.549861e+01	-1.599767e+01
7.593469e+01	-1.604609e+01
7.637328e+01	-1.609498e+01
7.681441e+01	-1.614346e+01
7.725809e+01	-1.619236e+01
7.770433e+01	-1.624182e+01
7.815315e+01	-1.628995e+01
7.860456e+01	-1.633963e+01
7.905857e+01	-1.638856e+01
7.951521e+01	-1.643613e+01
7.997449e+01	-1.648585e+01
8.043642e+01	-1.653525e+01
8.090102e+01	-1.658345e+01
8.136830e+01	-1.663359e+01
8.183828e+01	-1.668277e+01
8.231097e+01	-1.673194e+01
8.278640e+01	-1.677957e+01
8.326457e+01	-1.682922e+01
8.374550e+01	-1.687829e+01
8.422921e+01	-1.692549e+01
8.471572e+01	-1.697445e+01
8.520503e+01	-1.702463e+01
8.569717e+01	-1.707328e+01
8.619215e+01	-1.712270e+01
8.669000e+01	-1.717198e+01
8.719071e+01	-1.722095e+01
8.769432e+01	-1.726983e+01
8.820084e+01	-1.731941e+01
8.871029e+01	-1.736811e+01
8.922267e+01	-1.741779e+01
8.973802e+01	-1.746701e+01
9.025634e+01	-1.751589e+01
9.077766e+01	-1.756482e+01
9.130199e+01	-1.761395e+01
9.182935e+01	-1.766381e+01
9.235975e+01	-1.771158e+01
9.289321e+01	-1.776214e+01
9.342976e+01	-1.781046e+01
9.396941e+01	-1.786033e+01
9.451217e+01	-1.790937e+01
9.505807e+01	-1.795774e+01
9.560712e+01	-1.800865e+01
9.615934e+01	-1.805653e+01
9.671476e+01	-1.810627e+01
9.727338e+01	-1.815471e+01
9.783522e+01	-1.820593e+01
9.840032e+01	-1.825293e+01
9.896867e+01	-1.830254e+01
9.954031e+01	-1.835216e+01
1.001153e+02	-1.840268e+01
1.006935e+02	-1.845066e+01
1.012751e+02	-1.849991e+01
1.018601e+02	-1.854852e+01
1.024484e+02	-1.859852e+01
1.030402e+02	-1.864847e+01
1.036353e+02	-1.869695e+01
1.042339e+02	-1.874775e+01
1.048360e+02	-1.879644e+01
1.054415e+02	-1.884652e+01
1.060505e+02	-1.889474e+01
1.066631e+02	-1.894374e+01
1.072791e+02	-1.899432e+01
1.078988e+02	-1.904323e+01
1.085220e+02	-1.909284e+01
1.091488e+02	-1.914257e+01
1.097793e+02	-1.919209e+01
1.104133e+02	-1.924090e+01
1.110511e+02	-1.929102e+01
1.116925e+02	-1.934043e+01
1.123376e+02	-1.938913e+01
1.129865e+02	-1.944019e+01
1.136391e+02	-1.948662e+01
1.142955e+02	-1.953704e+01
1.149556e+02	-1.958791e+01
1.156196e+02	-1.963460e+01
1.162874e+02	-1.968585e+01
1.169591e+02	-1.973502e+01
1.176347e+02	-1.978528e+01
1.183141e+02	-1.983504e+01
1.189975e+02	-1.988442e+01
1.196848e+02	-1.993350e+01
1.203761e+02	-1.998350e+01
1.210714e+02	-2.003276e+01
1.217707e+02	-2.008458e+01
1.224740e+02	-2.013052e+01
1.231814e+02	-2.018241e+01
1.238929e+02	-2.023195e+01
1.246085e+02	-2.028123e+01
1.253283e+02	-2.032992e+01
1.260522e+02	-2.037953e+01
1.267802e+02	-2.042786e+01
1.275125e+02	-2.047686e+01
1.282490e+02	-2.052822e+01
1.289898e+02	-2.057909e+01
1.297348e+02	-2.062677e+01
1.304842e+02	-2.067750e+01
1.312378e+02	-2.072793e+01
1.319959e+02	-2.077693e+01
1.327583e+02	-2.082540e+01
1.335251e+02	-2.087428e+01
1.342963e+02	-2.092537e+01
1.350720e+02	-2.097469e+01
1.358522e+02	-2.102488e+01
1.366368e+02	-2.107454e+01
1.374260e+02	-2.112640e+01
1.382198e+02	-2.117266e+01
1.390182e+02	-2.122202e+01
1.398211e+02	-2.127434e+01
1.406287e+02	-2.132234e+01
1.414410e+02	-2.137344e+01
1.422579e+02	-2.142186e+01
1.430796e+02	-2.147050e+01
1.439060e+02	-2.152204e+01
1.447372e+02	-2.157135e+01
1.455732e+02	-2.162085e+01
1.464141e+02	-2.167208e+01
1.472597e+02	-2.171888e+01
1.481103e+02	-2.177023e+01
1.489658e+02	-2.181751e+01
1.498262e+02	-2.187006e+01
1.506916e+02	-2.192044e+01
1.515620e+02	-2.196773e+01
1.524374e+02	-2.201936e+01
1.533179e+02	-2.206891e+01
1.542034e+02	-2.211902e+01
1.550941e+02	-2.216910e+01
1.559899e+02	-2.221917e+01
1.568909e+02	-2.226751e+01
1.577971e+02	-2.231878e+01
1.587085e+02	-2.236630e+01
1.596252e+02	-2.241654e+01
1.605472e+02	-2.246533e+01
1.614745e+02	-2.251587e+01
1.624072e+02	-2.256527e+01
1.633453e+02	-2.261308e+01
1.642887e+02	-2.266284e+01
1.652377e+02	-2.271406e+01
1.661921e+02	-2.276480e+01
1.671520e+02	-2.281403e+01
1.681175e+02	-2.286577e+01
1.690885e+02	-2.291564e+01
1.700651e+02	-2.296355e+01
1.710474e+02	-2.301319e+01
1.720354e+02	-2.306341e+01
1.730291e+02	-2.311388e+01
1.740285e+02	-2.316435e+01
1.750337e+02	-2.321463e+01
1.760446e+02	-2.326462e+01
1.770615e+02	-2.331108e+01
1.780842e+02	-2.336206e+01
1.791128e+02	-2.341534e+01
1.801473e+02	-2.346415e+01
1.811878e+02	-2.351306e+01
1.822344e+02	-2.356303e+01
1.832870e+02	-2.361099e+01
1.843456e+02	-2.366113e+01
1.854104e+02	-2.371285e+01
1.864813e+02	-2.376462e+01
1.875584e+02	-2.381332e+01
1.886418e+02	-2.385962e+01
1.897313e+02	-2.390967e+01
1.908272e+02	-2.396128e+01
1.919294e+02	-2.400752e+01
1.930380e+02	-2.406027e+01
1.941530e+02	-2.410942e+01
1.952744e+02	-2.415806e+01
1.964023e+02	-2.421081e+01
1.975367e+02	-2.425866e+01
1.986777e+02	-2.431068e+01
1.998252e+02	-2.435776e+01
2.009794e+02	-2.441078e+01
2.021403e+02	-2.445938e+01
2.033078e+02	-2.451122e+01
2.044821e+02	-2.456144e+01
2.056632e+02	-2.460727e+01
2.068511e+02	-2.465848e+01
2.080459e+02	-2.470760e+01
2.092475e+02	-2.475817e+01
2.104561e+02	-2.480716e+01
2.116717e+02	-2.485885e+01
2.128943e+02	-2.490788e+01
2.141240e+02	-2.495799e+01
2.153608e+02	-2.501053e+01
2.166047e+02	-2.506123e+01
2.178558e+02	-2.510544e+01
2.191141e+02	-2.516042e+01
2.203797e+02	-2.520690e+01
2.216526e+02	-2.525648e+01
2.229329e+02	-2.530524e+01
2.242205e+02	-2.535870e+01
2.255156e+02	-2.541072e+01
2.268182e+02	-2.545736e+01
2.281283e+02	-2.550658e+01
2.294459e+02	-2.556045e+01
2.307712e+02	-2.560411e+01
2.321041e+02	-2.565727e+01
2.334447e+02	-2.570674e+01
2.347931e+02	-2.575664e+01
2.361493e+02	-2.580795e+01
2.375133e+02	-2.585699e+01
2.388851e+02	-2.590707e+01
2.402649e+02	-2.595754e+01
2.416527e+02	-2.600838e+01
2.430484e+02	-2.605821e+01
2.444523e+02	-2.610538e+01
2.458642e+02	-2.615793e+01
2.472843e+02	-2.621049e+01
2.487126e+02	-2.625392e+01
2.501492e+02	-2.630910e+01
2.515940e+02	-2.635500e+01
2.530472e+02	-2.640737e+01
2.545088e+02	-2.645931e+01
2.559789e+02	-2.650832e+01
2.574574e+02	-2.655519e+01
2.589444e+02	-2.660883e+01
2.604401e+02	-2.665635e+01
2.619444e+02	-2.670406e+01
2.634574e+02	-2.675303e+01
2.649791e+02	-2.680703e+01
2.665096e+02	-2.685891e+01
2.680489e+02	-2.690695e+01
2.695972e+02	-2.695453e+01
2.711544e+02	-2.700972e+01
2.727205e+02	-2.705547e+01
2.742958e+02	-2.710265e+01
2.758801e+02	-2.716026e+01
2.774736e+02	-2.720853e+01
2.790762e+02	-2.725685e+01
2.806882e+02	-2.730797e+01
2.823094e+02	-2.735456e+01
2.839400e+02	-2.740908e+01
2.855800e+02	-2.745608e+01
2.872295e+02	-2.750467e+01
2.888886e+02	-2.755608e+01
2.905572e+02	-2.760757e+01
2.922354e+02	-2.765648e+01
2.939234e+02	-2.770479e+01
2.956211e+02	-2.775776e+01
2.973286e+02	-2.780790e+01
2.990459e+02	-2.785760e+01
3.007732e+02	-2.790788e+01
3.025104e+02	-2.795549e+01
3.042577e+02	-2.800653e+01
3.060151e+02	-2.805687e+01
3.077826e+02	-2.810648e+01
3.095604e+02	-2.815537e+01
3.113484e+02	-2.820755e+01
3.131467e+02	-2.826040e+01
3.149554e+02	-2.830372e+01
3.167746e+02	-2.835817e+01
3.186043e+02	-2.840652e+01
3.204445e+02	-2.845799e+01
3.222954e+02	-2.850436e+01
3.241570e+02	-2.855611e+01
3.260293e+02	-2.860442e+01
3.279124e+02	-2.865758e+01
3.298064e+02	-2.870656e+01
3.317114e+02	-2.875952e+01
3.336273e+02	-2.881048e+01
3.355544e+02	-2.886059e+01
3.374925e+02	-2.890607e+01
3.394418e+02	-2.895715e+01
3.414024e+02	-2.900966e+01
3.433744e+02	-2.905677e+01
3.453577e+02	-2.910329e+01
3.473525e+02	-2.915911e+01
3.493588e+02	-2.920358e+01
3.513766e+02	-2.925793e+01
3.534062e+02	-2.930537e+01
3.554474e+02	-2.936056e+01
3.575005e+02	-2.940627e+01
3.595654e+02	-2.945503e+01
3.616422e+02	-2.950449e+01
3.637311e+02	-2.955802e+01
3.658320e+02	-2.960565e+01
3.679450e+02	-2.965545e+01
3.700702e+02	-2.971083e+01
3.722077e+02	-2.975784e+01
3.743576e+02	-2.981035e+01
3.765199e+02	-2.985689e+01
3.786946e+02	-2.990902e+01
3.808820e+02	-2.995521e+01
3.830819e+02	-3.000921e+01
3.852946e+02	-3.006034e+01
3.875200e+02	-3.010751e+01
3.897583e+02	-3.015892e+01
3.920096e+02	-3.020684e+01
3.942738e+02	-3.026004e+01
3.965511e+02	-3.030714e+01
3.988416e+02	-3.036336e+01
4.011452e+02	-3.040842e+01
4.034622e+02	-3.046081e+01
4.057926e+02	-3.050532e+01
4.081365e+02	-3.055854e+01
4.104938e+02	-3.061136e+01
4.128648e+02	-3.065761e+01
4.152495e+02	-3.070761e+01
4.176480e+02	-3.076570e+01
4.200603e+02	-3.081224e+01
4.224866e+02	-3.086333e+01
4.249268e+02	-3.091054e+01
4.273812e+02	-3.095980e+01
4.298497e+02	-3.101779e+01
4.323325e+02	-3.106093e+01
4.348297e+02	-3.111554e+01
4.373412e+02	-3.116105e+01
4.398673e+02	-3.121331e+01
4.424079e+02	-3.126361e+01
4.449633e+02	-3.131330e+01
4.475334e+02	-3.135760e+01
4.501183e+02	-3.141473e+01
4.527182e+02	-3.146610e+01
4.553330e+02	-3.150724e+01
4.579630e+02	-3.155742e+01
4.606082e+02	-3.161827e+01
4.632687e+02	-3.165686e+01
4.659445e+02	-3.171402e+01
4.686358e+02	-3.176268e+01
4.713426e+02	-3.181508e+01
4.740650e+02	-3.186822e+01
4.768032e+02	-3.191489e+01
4.795572e+02	-3.196314e+01
4.823271e+02	-3.201616e+01
4.851130e+02	-3.206943e+01
4.879150e+02	-3.211284e+01
4.907332e+02	-3.216712e+01
4.935676e+02	-3.221892e+01
4.964185e+02	-3.226473e+01
4.992858e+02	-3.231903e+01
5.021696e+02	-3.236361e+01
5.050701e+02	-3.241679e+01
5.079874e+02	-3.246764e+01
5.109215e+02	-3.251139e+01
5.138726e+02	-3.257134e+01
5.168407e+02	-3.261952e+01
5.198259e+02	-3.267049e+01
5.228284e+02	-3.272433e+01
5.258482e+02	-3.276680e+01
5.288855e+02	-3.282205e+01
5.319403e+02	-3.286640e+01
5.350128e+02	-3.291988e+01
5.381030e+02	-3.296765e+01
5.412111e+02	-3.302363e+01
5.443371e+02	-3.307825e+01
5.474812e+02	-3.312345e+01
5.506434e+02	-3.317704e+01
5.538239e+02	-3.322324e+01
5.570228e+02	-3.326909e+01
5.602401e+02	-3.332695e+01
5.634760e+02	-3.337582e+01
5.667306e+02	-3.342467e+01
5.700040e+02	-3.347659e+01
5.732964e+02	-3.352132e+01
5.766077e+02	-3.357142e+01
5.799382e+02	-3.362790e+01
5.832879e+02	-3.367632e+01
5.866569e+02	-3.373075e+01
5.900454e+02	-3.377373e+01
5.934535e+02	-3.382479e+01
5.968813e+02	-3.387577e+01
6.003288e+02	-3.393349e+01
6.037963e+02	-3.398154e+01
6.072838e+02	-3.402057e+01
6.107914e+02	-3.406891e+01
6.143194e+02	-3.413786e+01
6.178676e+02	-3.417680e+01
6.214364e+02	-3.422287e+01
6.250258e+02	-3.427969e+01
6.286359e+02	-3.433258e+01
6.322669e+02	-3.437048e+01
6.359189e+02	-3.442563e+01
6.395919e+02	-3.448175e+01
6.432862e+02	-3.452640e+01
6.470017e+02	-3.458135e+01
6.507388e+02	-3.463594e+01
6.544974e+02	-3.467599e+01
6.582778e+02	-3.473293e+01
6.620800e+02	-3.477982e+01
6.659041e+02	-3.483600e+01
6.697504e+02	-3.488860e+01
6.736188e+02	-3.492895e+01
6.775096e+02	-3.498410e+01
6.814229e+02	-3.503475e+01
6.853587e+02	-3.508018e+01
6.893173e+02	-3.513789e+01
6.932988e+02	-3.519415e+01
6.973033e+02	-3.523674e+01
7.013309e+02	-3.528490e+01
