Frequency(Hz)	Magnitude(dB)
1.000000e+01	-2.166110e+00
1.005776e+01	-2.186030e+00
1.011585e+01	-2.205710e+00
1.017428e+01	-2.225762e+00
1.023305e+01	-2.245895e+00
1.029215e+01	-2.266158e+00
1.035160e+01	-2.286758e+00
1.041139e+01	-2.306922e+00
1.047153e+01	-2.327878e+00
1.053201e+01	-2.348539e+00
1.059284e+01	-2.369460e+00
1.065403e+01	-2.390684e+00
1.071556e+01	-2.412065e+00
1.077746e+01	-2.433331e+00
1.083971e+01	-2.454772e+00
1.090232e+01	-2.476575e+00
1.096529e+01	-2.498399e+00
1.102862e+01	-2.520383e+00
1.109232e+01	-2.542480e+00
1.115639e+01	-2.564596e+00
1.122083e+01	-2.587066e+00
1.128564e+01	-2.609570e+00
1.135083e+01	-2.632210e+00
1.141639e+01	-2.654977e+00
1.148233e+01	-2.678113e+00
1.154865e+01	-2.701106e+00
1.161536e+01	-2.724201e+00
1.168245e+01	-2.747932e+00
1.174992e+01	-2.771219e+00
1.181779e+01	-2.794791e+00
1.188605e+01	-2.818827e+00
1.195470e+01	-2.842577e+00
1.202375e+01	-2.866802e+00
1.209320e+01	-2.890782e+00
1.216305e+01	-2.915271e+00
1.223330e+01	-2.940134e+00
1.230396e+01	-2.964684e+00
1.237503e+01	-2.989444e+00
1.244651e+01	-3.014501e+00
1.251840e+01	-3.039616e+00
1.259070e+01	-3.064650e+00
1.266343e+01	-3.089975e+00
1.273657e+01	-3.115796e+00
1.281014e+01	-3.141373e+00
1.288413e+01	-3.166911e+00
1.295855e+01	-3.193288e+00
1.303339e+01	-3.219202e+00
1.310867e+01	-3.245472e+00
1.318439e+01	-3.271895e+00
1.326054e+01	-3.298483e+00
1.333713e+01	-3.325425e+00
1.341417e+01	-3.352024e+00
1.349165e+01	-3.379107e+00
1.356958e+01	-3.406230e+00
1.364795e+01	-3.433240e+00
1.372678e+01	-3.460776e+00
1.380607e+01	-3.488136e+00
1.388581e+01	-3.516141e+00
1.396602e+01	-3.543760e+00
1.404668e+01	-3.571836e+00
1.412782e+01	-3.600155e+00
1.420942e+01	-3.628217e+00
1.429149e+01	-3.656649e+00
1.437404e+01	-3.685393e+00
1.445706e+01	-3.713672e+00
1.454057e+01	-3.742641e+00
1.462455e+01	-3.771506e+00
1.470902e+01	-3.800728e+00
1.479398e+01	-3.829906e+00
1.487943e+01	-3.859319e+00
1.496537e+01	-3.888673e+00
1.505181e+01	-3.918619e+00
1.513875e+01	-3.948291e+00
1.522619e+01	-3.977995e+00
1.531414e+01	-4.008473e+00
1.540259e+01	-4.038657e+00
1.549156e+01	-4.069049e+00
1.558103e+01	-4.099361e+00
1.567103e+01	-4.130041e+00
1.576155e+01	-4.160856e+00
1.585258e+01	-4.191684e+00
1.594415e+01	-4.222605e+00
1.603624e+01	-4.253748e+00
1.612886e+01	-4.285171e+00
1.622202e+01	-4.316771e+00
1.631572e+01	-4.348146e+00
1.640996e+01	-4.379896e+00
1.650474e+01	-4.411992e+00
1.660008e+01	-4.443694e+00
1.669596e+01	-4.475886e+00
1.679239e+01	-4.508198e+00
1.688938e+01	-4.540685e+00
1.698694e+01	-4.572837e+00
1.708505e+01	-4.605823e+00
1.718373e+01	-4.638328e+00
1.728299e+01	-4.671447e+00
1.738281e+01	-4.704167e+00
1.748322e+01	-4.737591e+00
1.758420e+01	-4.770717e+00
1.768576e+01	-4.804291e+00
1.778792e+01	-4.837863e+00
1.789066e+01	-4.871240e+00
1.799399e+01	-4.905221e+00
1.809793e+01	-4.938904e+00
1.820246e+01	-4.973084e+00
1.830760e+01	-5.007313e+00
1.841334e+01	-5.041807e+00
1.851969e+01	-5.076082e+00
1.862666e+01	-5.110417e+00
1.873425e+01	-5.145349e+00
1.884246e+01	-5.180337e+00
1.895129e+01	-5.215135e+00
1.906075e+01	-5.249991e+00
1.917085e+01	-5.284946e+00
1.928158e+01	-5.320311e+00
1.939295e+01	-5.355704e+00
1.950496e+01	-5.390984e+00
1.961762e+01	-5.426868e+00
1.973093e+01	-5.462894e+00
1.984490e+01	-5.498471e+00
1.995952e+01	-5.534610e+00
2.007480e+01	-5.570739e+00
2.019076e+01	-5.606723e+00
2.030738e+01	-5.642782e+00
2.042467e+01	-5.679514e+00
2.054264e+01	-5.715998e+00
2.066130e+01	-5.752961e+00
2.078064e+01	-5.789327e+00
2.090066e+01	-5.826153e+00
2.102139e+01	-5.863397e+00
2.114280e+01	-5.900693e+00
2.126492e+01	-5.937836e+00
2.138775e+01	-5.975460e+00
2.151128e+01	-6.012816e+00
2.163553e+01	-6.050273e+00
2.176050e+01	-6.087447e+00
2.188619e+01	-6.125451e+00
2.201260e+01	-6.163601e+00
2.213974e+01	-6.201250e+00
2.226762e+01	-6.239499e+00
2.239624e+01	-6.278208e+00
2.252560e+01	-6.316272e+00
2.265571e+01	-6.354538e+00
2.278656e+01	-6.392492e+00
2.291818e+01	-6.431220e+00
2.305055e+01	-6.470116e+00
2.318369e+01	-6.508872e+00
2.331760e+01	-6.547904e+00
2.345228e+01	-6.586943e+00
2.358774e+01	-6.625647e+00
2.372398e+01	-6.665137e+00
2.386101e+01	-6.704486e+00
2.399883e+01	-6.744076e+00
2.413745e+01	-6.783337e+00
2.427686e+01	-6.822786e+00
2.441709e+01	-6.862944e+00
2.455812e+01	-6.902291e+00
2.469997e+01	-6.942081e+00
2.484263e+01	-6.982464e+00
2.498612e+01	-7.022363e+00
2.513044e+01	-7.062197e+00
2.527559e+01	-7.102577e+00
2.542158e+01	-7.142771e+00
2.556842e+01	-7.183319e+00
2.571610e+01	-7.223728e+00
2.586463e+01	-7.264258e+00
2.601403e+01	-7.304784e+00
2.616428e+01	-7.345539e+00
2.631541e+01	-7.386676e+00
2.646740e+01	-7.427719e+00
2.662028e+01	-7.468377e+00
2.677404e+01	-7.509624e+00
2.692868e+01	-7.550892e+00
2.708422e+01	-7.592471e+00
2.724066e+01	-7.633581e+00
2.739800e+01	-7.674899e+00
2.755625e+01	-7.716688e+00
2.771541e+01	-7.757931e+00
2.787550e+01	-7.800023e+00
2.803650e+01	-7.841581e+00
2.819844e+01	-7.883568e+00
2.836131e+01	-7.925366e+00
2.852513e+01	-7.967692e+00
2.868989e+01	-8.009257e+00
2.885560e+01	-8.051351e+00
2.902227e+01	-8.093586e+00
2.918990e+01	-8.136067e+00
2.935850e+01	-8.178762e+00
2.952807e+01	-8.220893e+00
2.969863e+01	-8.263412e+00
2.987016e+01	-8.306051e+00
3.004269e+01	-8.348715e+00
3.021622e+01	-8.391856e+00
3.039075e+01	-8.434214e+00
3.056628e+01	-8.477485e+00
3.074283e+01	-8.520329e+00
3.092040e+01	-8.563404e+00
3.109900e+01	-8.606366e+00
3.127862e+01	-8.649410e+00
3.145929e+01	-8.692574e+00
3.164099e+01	-8.736395e+00
3.182375e+01	-8.779604e+00
3.200756e+01	-8.822629e+00
3.219244e+01	-8.866194e+00
3.237838e+01	-8.909576e+00
3.256540e+01	-8.953270e+00
3.275349e+01	-8.997160e+00
3.294268e+01	-9.040692e+00
3.313295e+01	-9.084951e+00
3.332433e+01	-9.128687e+00
3.351681e+01	-9.172566e+00
3.371040e+01	-9.216810e+00
3.390511e+01	-9.260784e+00
3.410094e+01	-9.304461e+00
3.429791e+01	-9.349686e+00
3.449601e+01	-9.393591e+00
3.469526e+01	-9.437594e+00
3.489566e+01	-9.481811e+00
3.509721e+01	-9.526800e+00
3.529993e+01	-9.570679e+00
3.550382e+01	-9.615394e+00
3.570889e+01	-9.660139e+00
3.591515e+01	-9.704626e+00
3.612259e+01	-9.748764e+00
3.633123e+01	-9.794239e+00
3.654108e+01	-9.838600e+00
3.675214e+01	-9.884228e+00
3.696442e+01	-9.928918e+00
3.717792e+01	-9.973497e+00
3.739266e+01	-1.001900e+01
3.760864e+01	-1.006381e+01
3.782587e+01	-1.010814e+01
3.804435e+01	-1.015400e+01
3.826409e+01	-1.019887e+01
3.848510e+01	-1.024448e+01
3.870739e+01	-1.028993e+01
3.893096e+01	-1.033503e+01
3.915583e+01	-1.038069e+01
3.938199e+01	-1.042572e+01
3.960946e+01	-1.047137e+01
3.983824e+01	-1.051724e+01
4.006834e+01	-1.056262e+01
4.029978e+01	-1.060859e+01
4.053255e+01	-1.065438e+01
4.076666e+01	-1.069989e+01
4.100213e+01	-1.074558e+01
4.123896e+01	-1.079181e+01
4.147715e+01	-1.083766e+01
4.171672e+01	-1.088335e+01
4.195767e+01	-1.092927e+01
4.220002e+01	-1.097509e+01
4.244377e+01	-1.102152e+01
4.268892e+01	-1.106702e+01
4.293549e+01	-1.111345e+01
4.318348e+01	-1.115885e+01
4.343291e+01	-1.120581e+01
4.368377e+01	-1.125214e+01
4.393609e+01	-1.129862e+01
4.418986e+01	-1.134539e+01
4.444510e+01	-1.139132e+01
4.470182e+01	-1.143701e+01
4.496001e+01	-1.148403e+01
4.521970e+01	-1.153033e+01
4.548089e+01	-1.157719e+01
4.574358e+01	-1.162387e+01
4.600779e+01	-1.166955e+01
4.627353e+01	-1.171712e+01
4.654081e+01	-1.176326e+01
4.680963e+01	-1.180981e+01
4.708000e+01	-1.185676e+01
4.735193e+01	-1.190329e+01
4.762543e+01	-1.195027e+01
4.790051e+01	-1.199750e+01
4.817719e+01	-1.204429e+01
4.845545e+01	-1.209119e+01
4.873533e+01	-1.213810e+01
4.901682e+01	-1.218487e+01
4.929994e+01	-1.223157e+01
4.958470e+01	-1.227892e+01
4.987110e+01	-1.232718e+01
5.015915e+01	-1.237398e+01
5.044887e+01	-1.242053e+01
5.074026e+01	-1.246731e+01
5.103333e+01	-1.251453e+01
5.132810e+01	-1.256211e+01
5.162457e+01	-1.260985e+01
5.192275e+01	-1.265703e+01
5.222265e+01	-1.270401e+01
5.252429e+01	-1.275117e+01
5.282767e+01	-1.279877e+01
5.313280e+01	-1.284578e+01
5.343969e+01	-1.289361e+01
5.374836e+01	-1.294088e+01
5.405880e+01	-1.298832e+01
5.437105e+01	-1.303629e+01
5.468509e+01	-1.308346e+01
5.500095e+01	-1.313146e+01
5.531863e+01	-1.317917e+01
5.563815e+01	-1.322679e+01
5.595951e+01	-1.327433e+01
5.628273e+01	-1.332245e+01
5.660782e+01	-1.336982e+01
5.693479e+01	-1.341734e+01
5.726364e+01	-1.346474e+01
5.759439e+01	-1.351263e+01
5.792705e+01	-1.356153e+01
5.826164e+01	-1.360812e+01
5.859815e+01	-1.365649e+01
5.893662e+01	-1.370413e+01
5.927703e+01	-1.375198e+01
5.961941e+01	-1.379945e+01
5.996377e+01	-1.384875e+01
6.031012e+01	-1.389650e+01
6.065847e+01	-1.394398e+01
6.100883e+01	-1.399168e+01
6.136121e+01	-1.403970e+01
6.171563e+01	-1.408870e+01
6.207210e+01	-1.413632e+01
6.243063e+01	-1.418432e+01
6.279122e+01	-1.423246e+01
6.315390e+01	-1.428097e+01
6.351868e+01	-1.432849e+01
6.388556e+01	-1.437681e+01
6.425456e+01	-1.442484e+01
6.462569e+01	-1.447398e+01
6.499897e+01	-1.452113e+01
6.537440e+01	-1.456917e+01
6.575200e+01	-1.461860e+01
6.613178e+01	-1.466733e+01
6.651375e+01	-1.471494e+01
6.689793e+01	-1.476283e+01
6.728433e+01	-1.481162e+01
6.767297e+01	-1.486041e+01
6.806384e+01	-1.490977e+01
6.845698e+01	-1.495701e+01
6.885238e+01	-1.500484e+01
6.925007e+01	-1.505419e+01
6.965005e+01	-1.510259e+01
7.005235e+01	-1.515099e+01
7.045697e+01	-1.519937e+01
7.086393e+01	-1.524863e+01
7.127323e+01	-1.529680e+01
7.168490e+01	-1.534544e+01
7.209895e+01	-1.539397e+01
7.251539e+01	-1.544235e+01
7.293424e+01	-1.549076e+01
7.335551e+01	-1.553918e+01
7.377920e+01	-1.558836e+01
7.420535e+01	-1.563722e+01
7.463396e+01	-1.568391e+01
7.506504e+01	-1.573368e+01
7.549861e+01	-1.578207e+01
7.593469e+01	-1.583108e+01
7.637328e+01	-1.587992e+01
7.681441e+01	-1.592796e+01
7.725809e+01	-1.597753e+01
7.770433e+01	-1.602669e+01
7.815315e+01	-1.607520e+01
7.860456e+01	-1.612346e+01
7.905857e+01	-1.617329e+01
7.951521e+01	-1.622200e+01
7.997449e+01	-1.626972e+01
8.043642e+01	-1.632006e+01
8.090102e+01	-1.636878e+01
8.136830e+01	-1.641776e+01
8.183828e+01	-1.646555e+01
8.231097e+01	-1.651527e+01
8.278640e+01	-1.656279e+01
8.326457e+01	-1.661226e+01
8.374550e+01	-1.666206e+01
8.422921e+01	-1.670993e+01
8.471572e+01	-1.675924e+01
8.520503e+01	-1.680747e+01
8.569717e+01	-1.685842e+01
8.619215e+01	-1.690557e+01
8.669000e+01	-1.695527e+01
8.719071e+01	-1.700478e+01
8.769432e+01	-1.705348e+01
8.820084e+01	-1.710186e+01
8.871029e+01	-1.715173e+01
8.922267e+01	-1.720006e+01
8.973802e+01	-1.724930e+01
9.025634e+01	-1.729954e+01
9.077766e+01	-1.734780e+01
9.130199e+01	-1.739753e+01
9.182935e+01	-1.744729e+01
9.235975e+01	-1.749352e+01
9.289321e+01	-1.754401e+01
9.342976e+01	-1.759334e+01
9.396941e+01	-1.764314e+01
9.451217e+01	-1.769248e+01
9.505807e+01	-1.774301e+01
9.560712e+01	-1.779041e+01
9.615934e+01	-1.783941e+01
9.671476e+01	-1.788887e+01
9.727338e+01	-1.793763e+01
9.783522e+01	-1.798784e+01
9.840032e+01	-1.803731e+01
9.896867e+01	-1.808620e+01
9.954031e+01	-1.813415e+01
1.001153e+02	-1.818409e+01
1.006935e+02	-1.823309e+01
1.012751e+02	-1.828359e+01
1.018601e+02	-1.833286e+01
1.024484e+02	-1.838248e+01
1.030402e+02	-1.843102e+01
1.036353e+02	-1.848048e+01
1.042339e+02	-1.852992e+01
1.048360e+02	-1.857864e+01
1.054415e+02	-1.862720e+01
1.060505e+02	-1.867728e+01
1.066631e+02	-1.872589e+01
1.072791e+02	-1.877745e+01
1.078988e+02	-1.882472e+01
1.085220e+02	-1.887574e+01
1.091488e+02	-1.892558e+01
1.097793e+02	-1.897332e+01
1.104133e+02	-1.902222e+01
1.110511e+02	-1.907170e+01
1.116925e+02	-1.912266e+01
1.123376e+02	-1.917127e+01
1.129865e+02	-1.922041e+01
1.136391e+02	-1.926950e+01
1.142955e+02	-1.931958e+01
1.149556e+02	-1.936863e+01
1.156196e+02	-1.941784e+01
1.162874e+02	-1.946841e+01
1.169591e+02	-1.951860e+01
1.176347e+02	-1.956892e+01
1.183141e+02	-1.961630e+01
1.189975e+02	-1.966608e+01
1.196848e+02	-1.971479e+01
1.203761e+02	-1.976603e+01
1.210714e+02	-1.981450e+01
1.217707e+02	-1.986140e+01
1.224740e+02	-1.991375e+01
1.231814e+02	-1.996255e+01
1.238929e+02	-2.001349e+01
1.246085e+02	-2.006202e+01
1.253283e+02	-2.011148e+01
1.260522e+02	-2.016295e+01
1.267802e+02	-2.021128e+01
1.275125e+02	-2.026019e+01
1.282490e+02	-2.031244e+01
1.289898e+02	-2.035909e+01
1.297348e+02	-2.040955e+01
1.304842e+02	-2.045848e+01
1.312378e+02	-2.050822e+01
1.319959e+02	-2.055770e+01
1.327583e+02	-2.060716e+01
1.335251e+02	-2.065728e+01
1.342963e+02	-2.070725e+01
1.350720e+02	-2.075534e+01
1.358522e+02	-2.080658e+01
1.366368e+02	-2.085561e+01
1.374260e+02	-2.090435e+01
1.382198e+02	-2.095556e+01
1.390182e+02	-2.100248e+01
1.398211e+02	-2.105496e+01
1.406287e+02	-2.110328e+01
1.414410e+02	-2.115258e+01
1.422579e+02	-2.120384e+01
1.430796e+02	-2.125195e+01
1.439060e+02	-2.130323e+01
1.447372e+02	-2.135445e+01
1.455732e+02	-2.140073e+01
1.464141e+02	-2.145143e+01
1.472597e+02	-2.150230e+01
1.481103e+02	-2.155023e+01
1.489658e+02	-2.160077e+01
1.498262e+02	-2.165265e+01
1.506916e+02	-2.170028e+01
1.515620e+02	-2.175081e+01
1.524374e+02	-2.179868e+01
1.533179e+02	-2.184779e+01
1.542034e+02	-2.189803e+01
1.550941e+02	-2.194979e+01
1.559899e+02	-2.199891e+01
1.568909e+02	-2.204846e+01
1.577971e+02	-2.209801e+01
1.587085e+02	-2.214635e+01
1.596252e+02	-2.219781e+01
1.605472e+02	-2.224715e+01
1.614745e+02	-2.229558e+01
1.624072e+02	-2.234666e+01
1.633453e+02	-2.239596e+01
1.642887e+02	-2.244487e+01
1.652377e+02	-2.249772e+01
1.661921e+02	-2.254612e+01
1.671520e+02	-2.259448e+01
1.681175e+02	-2.264484e+01
1.690885e+02	-2.269651e+01
1.700651e+02	-2.274401e+01
1.710474e+02	-2.279227e+01
1.720354e+02	-2.284263e+01
1.730291e+02	-2.289234e+01
1.740285e+02	-2.294427e+01
1.750337e+02	-2.299497e+01
1.760446e+02	-2.304109e+01
1.770615e+02	-2.309264e+01
1.780842e+02	-2.314380e+01
1.791128e+02	-2.319105e+01
1.801473e+02	-2.324369e+01
1.811878e+02	-2.329255e+01
1.822344e+02	-2.334239e+01
1.832870e+02	-2.339202e+01
1.843456e+02	-2.344256e+01
1.854104e+02	-2.348950e+01
1.864813e+02	-2.354144e+01
1.875584e+02	-2.358955e+01
1.886418e+02	-2.364110e+01
1.897313e+02	-2.369305e+01
1.908272e+02	-2.374372e+01
1.919294e+02	-2.379223e+01
1.930380e+02	-2.384158e+01
1.941530e+02	-2.388848e+01
1.952744e+02	-2.394017e+01
1.964023e+02	-2.398941e+01
1.975367e+02	-2.404066e+01
1.986777e+02	-2.408926e+01
1.998252e+02	-2.413645e+01
2.009794e+02	-2.418983e+01
2.021403e+02	-2.423923e+01
2.033078e+02	-2.428891e+01
2.044821e+02	-2.433948e+01
2.056632e+02	-2.438932e+01
2.068511e+02	-2.443875e+01
2.080459e+02	-2.448747e+01
2.092475e+02	-2.453665e+01
2.104561e+02	-2.458881e+01
2.116717e+02	-2.463845e+01
2.128943e+02	-2.468847e+01
2.141240e+02	-2.473966e+01
2.153608e+02	-2.479082e+01
2.166047e+02	-2.484103e+01
2.178558e+02	-2.489009e+01
2.191141e+02	-2.493839e+01
2.203797e+02	-2.498988e+01
2.216526e+02	-2.503754e+01
2.229329e+02	-2.508864e+01
2.242205e+02	-2.513780e+01
2.255156e+02	-2.519107e+01
2.268182e+02	-2.524037e+01
2.281283e+02	-2.528798e+01
2.294459e+02	-2.533815e+01
2.307712e+02	-2.538503e+01
2.321041e+02	-2.543763e+01
2.334447e+02	-2.548820e+01
2.347931e+02	-2.553538e+01
2.361493e+02	-2.558809e+01
2.375133e+02	-2.563429e+01
2.388851e+02	-2.568777e+01
2.402649e+02	-2.573776e+01
2.416527e+02	-2.578407e+01
2.430484e+02	-2.583752e+01
2.444523e+02	-2.588705e+01
2.458642e+02	-2.593344e+01
2.472843e+02	-2.598585e+01
2.487126e+02	-2.603627e+01
2.501492e+02	-2.608851e+01
2.515940e+02	-2.613662e+01
2.530472e+02	-2.618581e+01
2.545088e+02	-2.624168e+01
2.559789e+02	-2.628684e+01
2.574574e+02	-2.633527e+01
2.589444e+02	-2.638315e+01
2.604401e+02	-2.643268e+01
2.619444e+02	-2.648905e+01
2.634574e+02	-2.653974e+01
2.649791e+02	-2.658596e+01
2.665096e+02	-2.663612e+01
2.680489e+02	-2.668748e+01
2.695972e+02	-2.673460e+01
2.711544e+02	-2.678463e+01
2.727205e+02	-2.683653e+01
2.742958e+02	-2.688661e+01
2.758801e+02	-2.693726e+01
2.774736e+02	-2.698809e+01
2.790762e+02	-2.703482e+01
2.806882e+02	-2.708818e+01
2.823094e+02	-2.713450e+01
2.839400e+02	-2.718732e+01
2.855800e+02	-2.723641e+01
2.872295e+02	-2.728604e+01
2.888886e+02	-2.733500e+01
2.905572e+02	-2.738387e+01
2.922354e+02	-2.743988e+01
2.939234e+02	-2.748210e+01
2.956211e+02	-2.753519e+01
2.973286e+02	-2.758686e+01
2.990459e+02	-2.763656e+01
3.007732e+02	-2.768598e+01
3.025104e+02	-2.773523e+01
3.042577e+02	-2.778296e+01
3.060151e+02	-2.783711e+01
3.077826e+02	-2.788458e+01
3.095604e+02	-2.793242e+01
3.113484e+02	-2.798183e+01
3.131467e+02	-2.803754e+01
3.149554e+02	-2.808654e+01
3.167746e+02	-2.813925e+01
3.186043e+02	-2.818734e+01
3.204445e+02	-2.823107e+01
3.222954e+02	-2.828992e+01
3.241570e+02	-2.833543e+01
3.260293e+02	-2.838698e+01
3.279124e+02	-2.843776e+01
3.298064e+02	-2.848730e+01
3.317114e+02	-2.853769e+01
3.336273e+02	-2.858757e+01
3.355544e+02	-2.863632e+01
3.374925e+02	-2.869015e+01
3.394418e+02	-2.873568e+01
3.414024e+02	-2.878601e+01
3.433744e+02	-2.883374e+01
3.453577e+02	-2.888405e+01
3.473525e+02	-2.893746e+01
3.493588e+02	-2.898839e+01
3.513766e+02	-2.903849e+01
3.534062e+02	-2.908771e+01
3.554474e+02	-2.913574e+01
3.575005e+02	-2.918623e+01
3.595654e+02	-2.923514e+01
3.616422e+02	-2.928793e+01
3.637311e+02	-2.934295e+01
3.658320e+02	-2.938586e+01
3.679450e+02	-2.943852e+01
3.700702e+02	-2.948810e+01
3.722077e+02	-2.953754e+01
3.743576e+02	-2.958666e+01
3.765199e+02	-2.964286e+01
3.786946e+02	-2.968873e+01
3.808820e+02	-2.973992e+01
3.830819e+02	-2.978565e+01
3.852946e+02	-2.984319e+01
3.875200e+02	-2.988539e+01
3.897583e+02	-2.993359e+01
3.920096e+02	-2.998923e+01
3.942738e+02	-3.003991e+01
3.965511e+02	-3.008692e+01
3.988416e+02	-3.014147e+01
4.011452e+02	-3.018845e+01
4.034622e+02	-3.024350e+01
4.057926e+02	-3.028835e+01
4.081365e+02	-3.033963e+01
4.104938e+02	-3.039067e+01
4.128648e+02	-3.043571e+01
4.152495e+02	-3.049013e+01
4.176480e+02	-3.053374e+01
4.200603e+02	-3.058974e+01
4.224866e+02	-3.064437e+01
4.249268e+02	-3.069436e+01
4.273812e+02	-3.073873e+01
4.298497e+02	-3.079357e+01
4.323325e+02	-3.083836e+01
4.348297e+02	-3.089051e+01
4.373412e+02	-3.093968e+01
4.398673e+02	-3.099506e+01
4.424079e+02	-3.104055e+01
4.449633e+02	-3.109161e+01
4.475334e+02	-3.114172e+01
4.501183e+02	-3.119229e+01
4.527182e+02	-3.124619e+01
4.553330e+02	-3.129181e+01
4.579630e+02	-3.133385e+01
4.606082e+02	-3.138754e+01
4.632687e+02	-3.144672e+01
4.659445e+02	-3.149136e+01
4.686358e+02	-3.154443e+01
4.713426e+02	-3.159693e+01
4.740650e+02	-3.164320e+01
4.768032e+02	-3.169225e+01
4.795572e+02	-3.174761e+01
4.823271e+02	-3.179194e+01
4.851130e+02	-3.184478e+01
4.879150e+02	-3.189308e+01
4.907332e+02	-3.194363e+01
4.935676e+02	-3.199636e+01
4.964185e+02	-3.204729e+01
4.992858e+02	-3.210032e+01
5.021696e+02	-3.214743e+01
5.050701e+02	-3.219251e+01
5.079874e+02	-3.224816e+01
5.109215e+02	-3.229731e+01
5.138726e+02	-3.234867e+01
5.168407e+02	-3.238786e+01
5.198259e+02	-3.244352e+01
5.228284e+02	-3.249004e+01
5.258482e+02	-3.254572e+01
5.288855e+02	-3.259525e+01
5.319403e+02	-3.264388e+01
5.350128e+02	-3.268929e+01
5.381030e+02	-3.274673e+01
5.412111e+02	-3.279588e+01
5.443371e+02	-3.284347e+01
5.474812e+02	-3.289719e+01
5.506434e+02	-3.294792e+01
5.538239e+02	-3.300372e+01
5.570228e+02	-3.304620e+01
5.602401e+02	-3.310195e+01
5.634760e+02	-3.315089e+01
5.667306e+02	-3.320585e+01
5.700040e+02	-3.325147e+01
5.732964e+02	-3.330794e+01
5.766077e+02	-3.335148e+01
5.799382e+02	-3.340134e+01
5.832879e+02	-3.344990e+01
5.866569e+02	-3.350109e+01
5.900454e+02	-3.355241e+01
5.934535e+02	-3.360638e+01
5.968813e+02	-3.364697e+01
6.003288e+02	-3.370581e+01
6.037963e+02	-3.375338e+01
6.072838e+02	-3.379760e+01
6.107914e+02	-3.385398e+01
6.143194e+02	-3.390475e+01
6.178676e+02	-3.396267e+01
6.214364e+02	-3.400167e+01
6.250258e+02	-3.405297e+01
6.286359e+02	-3.410489e+01
6.322669e+02	-3.415693e+01
6.359189e+02	-3.420821e+01
6.395919e+02	-3.426328e+01
6.432862e+02	-3.430828e+01
6.470017e+02	-3.434919e+01
6.507388e+02	-3.440592e+01
6.544974e+02	-3.446210e+01
6.582778e+02	-3.450600e+01
6.620800e+02	-3.455249e+01
6.659041e+02	-3.460507e+01
6.697504e+02	-3.465844e+01
6.736188e+02	-3.471081e+01
6.775096e+02	-3.476764e+01
6.814229e+02	-3.481171e+01
6.853587e+02	-3.485674e+01
6.893173e+02	-3.491111e+01
6.932988e+02	-3.495903e+01
6.973033e+02	-3.500050e+01
7.013309e+02	-3.505567e+01
