Frequency(Hz)	Magnitude(dB)
1.000000e+01	-2.211669e+00
1.005776e+01	-2.231825e+00
1.011585e+01	-2.251767e+00
1.017428e+01	-2.272166e+00
1.023305e+01	-2.292807e+00
1.029215e+01	-2.313482e+00
1.035160e+01	-2.334005e+00
1.041139e+01	-2.354810e+00
1.047153e+01	-2.375873e+00
1.053201e+01	-2.397023e+00
1.059284e+01	-2.418552e+00
1.065403e+01	-2.439688e+00
1.071556e+01	-2.461345e+00
1.077746e+01	-2.483070e+00
1.083971e+01	-2.505204e+00
1.090232e+01	-2.526775e+00
1.096529e+01	-2.549019e+00
1.102862e+01	-2.571373e+00
1.109232e+01	-2.593597e+00
1.115639e+01	-2.616246e+00
1.122083e+01	-2.638885e+00
1.128564e+01	-2.661774e+00
1.135083e+01	-2.684874e+00
1.141639e+01	-2.707849e+00
1.148233e+01	-2.731351e+00
1.154865e+01	-2.754864e+00
1.161536e+01	-2.778183e+00
1.168245e+01	-2.801902e+00
1.174992e+01	-2.825717e+00
1.181779e+01	-2.849850e+00
1.188605e+01	-2.874003e+00
1.195470e+01	-2.898200e+00
1.202375e+01	-2.922744e+00
1.209320e+01	-2.947143e+00
1.216305e+01	-2.972021e+00
1.223330e+01	-2.996700e+00
1.230396e+01	-3.021990e+00
1.237503e+01	-3.046996e+00
1.244651e+01	-3.072201e+00
1.251840e+01	-3.097717e+00
1.259070e+01	-3.123120e+00
1.266343e+01	-3.148852e+00
1.273657e+01	-3.174886e+00
1.281014e+01	-3.201010e+00
1.288413e+01	-3.227142e+00
1.295855e+01	-3.253258e+00
1.303339e+01	-3.279731e+00
1.310867e+01	-3.306558e+00
1.318439e+01	-3.333167e+00
1.326054e+01	-3.359916e+00
1.333713e+01	-3.386994e+00
1.341417e+01	-3.414338e+00
1.349165e+01	-3.441339e+00
1.356958e+01	-3.468783e+00
1.364795e+01	-3.496823e+00
1.372678e+01	-3.524409e+00
1.380607e+01	-3.552179e+00
1.388581e+01	-3.580050e+00
1.396602e+01	-3.608194e+00
1.404668e+01	-3.636608e+00
1.412782e+01	-3.664956e+00
1.420942e+01	-3.693610e+00
1.429149e+01	-3.722254e+00
1.437404e+01	-3.751380e+00
1.445706e+01	-3.780307e+00
1.454057e+01	-3.809455e+00
1.462455e+01	-3.838737e+00
1.470902e+01	-3.868141e+00
1.479398e+01	-3.897774e+00
1.487943e+01	-3.927502e+00
1.496537e+01	-3.957346e+00
1.505181e+01	-3.987022e+00
1.513875e+01	-4.017347e+00
1.522619e+01	-4.047301e+00
1.531414e+01	-4.077855e+00
1.540259e+01	-4.108235e+00
1.549156e+01	-4.139248e+00
1.558103e+01	-4.170029e+00
1.567103e+01	-4.200869e+00
1.576155e+01	-4.232070e+00
1.585258e+01	-4.263207e+00
1.594415e+01	-4.294724e+00
1.603624e+01	-4.326014e+00
1.612886e+01	-4.357567e+00
1.622202e+01	-4.389438e+00
1.631572e+01	-4.421263e+00
1.640996e+01	-4.452995e+00
1.650474e+01	-4.485285e+00
1.660008e+01	-4.518019e+00
1.669596e+01	-4.549975e+00
1.679239e+01	-4.582473e+00
1.688938e+01	-4.615241e+00
1.698694e+01	-4.648204e+00
1.708505e+01	-4.681365e+00
1.718373e+01	-4.713997e+00
1.728299e+01	-4.747458e+00
1.738281e+01	-4.781043e+00
1.748322e+01	-4.814098e+00
1.758420e+01	-4.847825e+00
1.768576e+01	-4.881362e+00
1.778792e+01	-4.915221e+00
1.789066e+01	-4.948951e+00
1.799399e+01	-4.983287e+00
1.809793e+01	-5.017437e+00
1.820246e+01	-5.051985e+00
1.830760e+01	-5.086182e+00
1.841334e+01	-5.120885e+00
1.851969e+01	-5.155636e+00
1.862666e+01	-5.190184e+00
1.873425e+01	-5.225569e+00
1.884246e+01	-5.260636e+00
1.895129e+01	-5.295649e+00
1.906075e+01	-5.331024e+00
1.917085e+01	-5.366579e+00
1.928158e+01	-5.401786e+00
1.939295e+01	-5.437541e+00
1.950496e+01	-5.473379e+00
1.961762e+01	-5.509004e+00
1.973093e+01	-5.544799e+00
1.984490e+01	-5.581457e+00
1.995952e+01	-5.617768e+00
2.007480e+01	-5.653851e+00
2.019076e+01	-5.690543e+00
2.030738e+01	-5.726839e+00
2.042467e+01	-5.764072e+00
2.054264e+01	-5.800778e+00
2.066130e+01	-5.837365e+00
2.078064e+01	-5.874685e+00
2.090066e+01	-5.912074e+00
2.102139e+01	-5.949115e+00
2.114280e+01	-5.986229e+00
2.126492e+01	-6.023730e+00
2.138775e+01	-6.061195e+00
2.151128e+01	-6.099006e+00
2.163553e+01	-6.136609e+00
2.176050e+01	-6.174930e+00
2.188619e+01	-6.212598e+00
2.201260e+01	-6.250955e+00
2.213974e+01	-6.288965e+00
2.226762e+01	-6.327295e+00
2.239624e+01	-6.365785e+00
2.252560e+01	-6.404119e+00
2.265571e+01	-6.442998e+00
2.278656e+01	-6.481605e+00
2.291818e+01	-6.520570e+00
2.305055e+01	-6.559404e+00
2.318369e+01	-6.598750e+00
2.331760e+01	-6.637606e+00
2.345228e+01	-6.676802e+00
2.358774e+01	-6.715787e+00
2.372398e+01	-6.755353e+00
2.386101e+01	-6.794664e+00
2.399883e+01	-6.834763e+00
2.413745e+01	-6.874307e+00
2.427686e+01	-6.913843e+00
2.441709e+01	-6.954441e+00
2.455812e+01	-6.993939e+00
2.469997e+01	-7.034163e+00
2.484263e+01	-7.074162e+00
2.498612e+01	-7.114779e+00
2.513044e+01	-7.155069e+00
2.527559e+01	-7.195363e+00
2.542158e+01	-7.235851e+00
2.556842e+01	-7.276371e+00
2.571610e+01	-7.317172e+00
2.586463e+01	-7.358196e+00
2.601403e+01	-7.398863e+00
2.616428e+01	-7.440226e+00
2.631541e+01	-7.480760e+00
2.646740e+01	-7.521899e+00
2.662028e+01	-7.563294e+00
2.677404e+01	-7.604783e+00
2.692868e+01	-7.645916e+00
2.708422e+01	-7.687397e+00
2.724066e+01	-7.728649e+00
2.739800e+01	-7.770128e+00
2.755625e+01	-7.812251e+00
2.771541e+01	-7.854009e+00
2.787550e+01	-7.896113e+00
2.803650e+01	-7.937506e+00
2.819844e+01	-7.979446e+00
2.836131e+01	-8.021729e+00
2.852513e+01	-8.064313e+00
2.868989e+01	-8.106295e+00
2.885560e+01	-8.148854e+00
2.902227e+01	-8.191537e+00
2.918990e+01	-8.233756e+00
2.935850e+01	-8.276360e+00
2.952807e+01	-8.319261e+00
2.969863e+01	-8.361398e+00
2.987016e+01	-8.404152e+00
3.004269e+01	-8.446898e+00
3.021622e+01	-8.490060e+00
3.039075e+01	-8.532851e+00
3.056628e+01	-8.576243e+00
3.074283e+01	-8.619001e+00
3.092040e+01	-8.662153e+00
3.109900e+01	-8.705636e+00
3.127862e+01	-8.749120e+00
3.145929e+01	-8.792350e+00
3.164099e+01	-8.835731e+00
3.182375e+01	-8.879005e+00
3.200756e+01	-8.922714e+00
3.219244e+01	-8.966351e+00
3.237838e+01	-9.010171e+00
3.256540e+01	-9.054234e+00
3.275349e+01	-9.097884e+00
3.294268e+01	-9.141804e+00
3.313295e+01	-9.185766e+00
3.332433e+01	-9.229003e+00
3.351681e+01	-9.273976e+00
3.371040e+01	-9.317473e+00
3.390511e+01	-9.362227e+00
3.410094e+01	-9.406457e+00
3.429791e+01	-9.450518e+00
3.449601e+01	-9.495042e+00
3.469526e+01	-9.538860e+00
3.489566e+01	-9.583832e+00
3.509721e+01	-9.628421e+00
3.529993e+01	-9.673220e+00
3.550382e+01	-9.717147e+00
3.570889e+01	-9.762078e+00
3.591515e+01	-9.807536e+00
3.612259e+01	-9.852428e+00
3.633123e+01	-9.896862e+00
3.654108e+01	-9.941714e+00
3.675214e+01	-9.987088e+00
3.696442e+01	-1.003161e+01
3.717792e+01	-1.007740e+01
3.739266e+01	-1.012220e+01
3.760864e+01	-1.016760e+01
3.782587e+01	-1.021274e+01
3.804435e+01	-1.025829e+01
3.826409e+01	-1.030299e+01
3.848510e+01	-1.034870e+01
3.870739e+01	-1.039405e+01
3.893096e+01	-1.043968e+01
3.915583e+01	-1.048554e+01
3.938199e+01	-1.053096e+01
3.960946e+01	-1.057597e+01
3.983824e+01	-1.062227e+01
4.006834e+01	-1.066772e+01
4.029978e+01	-1.071334e+01
4.053255e+01	-1.075894e+01
4.076666e+01	-1.080461e+01
4.100213e+01	-1.085076e+01
4.123896e+01	-1.089726e+01
4.147715e+01	-1.094263e+01
4.171672e+01	-1.098907e+01
4.195767e+01	-1.103500e+01
4.220002e+01	-1.108119e+01
4.244377e+01	-1.112726e+01
4.268892e+01	-1.117342e+01
4.293549e+01	-1.122009e+01
4.318348e+01	-1.126547e+01
4.343291e+01	-1.131223e+01
4.368377e+01	-1.135844e+01
4.393609e+01	-1.140483e+01
4.418986e+01	-1.145030e+01
4.444510e+01	-1.149836e+01
4.470182e+01	-1.154389e+01
4.496001e+01	-1.159056e+01
4.521970e+01	-1.163716e+01
4.548089e+01	-1.168422e+01
4.574358e+01	-1.173050e+01
4.600779e+01	-1.177741e+01
4.627353e+01	-1.182376e+01
4.654081e+01	-1.187047e+01
4.680963e+01	-1.191814e+01
4.708000e+01	-1.196487e+01
4.735193e+01	-1.201087e+01
4.762543e+01	-1.205796e+01
4.790051e+01	-1.210554e+01
4.817719e+01	-1.215196e+01
4.845545e+01	-1.219971e+01
4.873533e+01	-1.224614e+01
4.901682e+01	-1.229329e+01
4.929994e+01	-1.234019e+01
4.958470e+01	-1.238730e+01
4.987110e+01	-1.243446e+01
5.015915e+01	-1.248202e+01
5.044887e+01	-1.252903e+01
5.074026e+01	-1.257570e+01
5.103333e+01	-1.262361e+01
5.132810e+01	-1.267147e+01
5.162457e+01	-1.271818e+01
5.192275e+01	-1.276641e+01
5.222265e+01	-1.281248e+01
5.252429e+01	-1.286021e+01
5.282767e+01	-1.290825e+01
5.313280e+01	-1.295478e+01
5.343969e+01	-1.300293e+01
5.374836e+01	-1.304962e+01
5.405880e+01	-1.309776e+01
5.437105e+01	-1.314623e+01
5.468509e+01	-1.319322e+01
5.500095e+01	-1.324070e+01
5.531863e+01	-1.328878e+01
5.563815e+01	-1.333562e+01
5.595951e+01	-1.338370e+01
5.628273e+01	-1.343117e+01
5.660782e+01	-1.347965e+01
5.693479e+01	-1.352731e+01
5.726364e+01	-1.357530e+01
5.759439e+01	-1.362311e+01
5.792705e+01	-1.367132e+01
5.826164e+01	-1.371873e+01
5.859815e+01	-1.376683e+01
5.893662e+01	-1.381471e+01
5.927703e+01	-1.386255e+01
5.961941e+01	-1.391043e+01
5.996377e+01	-1.395878e+01
6.031012e+01	-1.400620e+01
6.065847e+01	-1.405454e+01
6.100883e+01	-1.410284e+01
6.136121e+01	-1.415004e+01
6.171563e+01	-1.419822e+01
6.207210e+01	-1.424688e+01
6.243063e+01	-1.429481e+01
6.279122e+01	-1.434323e+01
6.315390e+01	-1.439159e+01
6.351868e+01	-1.443940e+01
6.388556e+01	-1.448707e+01
6.425456e+01	-1.453621e+01
6.462569e+01	-1.458352e+01
6.499897e+01	-1.463216e+01
6.537440e+01	-1.468067e+01
6.575200e+01	-1.472879e+01
6.613178e+01	-1.477751e+01
6.651375e+01	-1.482528e+01
6.689793e+01	-1.487396e+01
6.728433e+01	-1.492237e+01
6.767297e+01	-1.497071e+01
6.806384e+01	-1.501998e+01
6.845698e+01	-1.506857e+01
6.885238e+01	-1.511604e+01
6.925007e+01	-1.516549e+01
6.965005e+01	-1.521413e+01
7.005235e+01	-1.526152e+01
7.045697e+01	-1.531171e+01
7.086393e+01	-1.535858e+01
7.127323e+01	-1.540806e+01
7.168490e+01	-1.545685e+01
7.209895e+01	-1.550514e+01
7.251539e+01	-1.555375e+01
7.293424e+01	-1.560199e+01
7.335551e+01	-1.565110e+01
7.377920e+01	-1.569925e+01
7.420535e+01	-1.574767e+01
7.463396e+01	-1.579675e+01
7.506504e+01	-1.584619e+01
7.549861e+01	-1.589433e+01
7.593469e+01	-1.594416e+01
7.637328e+01	-1.599215e+01
7.681441e+01	-1.604132e+01
7.725809e+01	-1.608999e+01
7.770433e+01	-1.613996e+01
7.815315e+01	-1.618684e+01
7.860456e+01	-1.623562e+01
7.905857e+01	-1.628441e+01
7.951521e+01	-1.633331e+01
7.997449e+01	-1.638255e+01
8.043642e+01	-1.643063e+01
8.090102e+01	-1.648096e+01
8.136830e+01	-1.652973e+01
8.183828e+01	-1.657763e+01
8.231097e+01	-1.662769e+01
8.278640e+01	-1.667624e+01
8.326457e+01	-1.672643e+01
8.374550e+01	-1.677484e+01
8.422921e+01	-1.682329e+01
8.471572e+01	-1.687280e+01
8.520503e+01	-1.692167e+01
8.569717e+01	-1.697011e+01
8.619215e+01	-1.702005e+01
8.669000e+01	-1.706873e+01
8.719071e+01	-1.711637e+01
8.769432e+01	-1.716635e+01
8.820084e+01	-1.721539e+01
8.871029e+01	-1.726451e+01
8.922267e+01	-1.731320e+01
8.973802e+01	-1.736221e+01
9.025634e+01	-1.741056e+01
9.077766e+01	-1.746100e+01
9.130199e+01	-1.751008e+01
9.182935e+01	-1.755972e+01
9.235975e+01	-1.760855e+01
9.289321e+01	-1.765771e+01
9.342976e+01	-1.770631e+01
9.396941e+01	-1.775478e+01
9.451217e+01	-1.780605e+01
9.505807e+01	-1.785501e+01
9.560712e+01	-1.790384e+01
9.615934e+01	-1.795144e+01
9.671476e+01	-1.800323e+01
9.727338e+01	-1.805024e+01
9.783522e+01	-1.810072e+01
9.840032e+01	-1.815031e+01
9.896867e+01	-1.819832e+01
9.954031e+01	-1.824858e+01
1.001153e+02	-1.829882e+01
1.006935e+02	-1.834807e+01
1.012751e+02	-1.839721e+01
1.018601e+02	-1.844501e+01
1.024484e+02	-1.849497e+01
1.030402e+02	-1.854421e+01
1.036353e+02	-1.859383e+01
1.042339e+02	-1.864185e+01
1.048360e+02	-1.869263e+01
1.054415e+02	-1.874122e+01
1.060505e+02	-1.879083e+01
1.066631e+02	-1.883909e+01
1.072791e+02	-1.889091e+01
1.078988e+02	-1.893788e+01
1.085220e+02	-1.898914e+01
1.091488e+02	-1.903910e+01
1.097793e+02	-1.908638e+01
1.104133e+02	-1.913544e+01
1.110511e+02	-1.918605e+01
1.116925e+02	-1.923549e+01
1.123376e+02	-1.928474e+01
1.129865e+02	-1.933531e+01
1.136391e+02	-1.938423e+01
1.142955e+02	-1.943407e+01
1.149556e+02	-1.948255e+01
1.156196e+02	-1.953187e+01
1.162874e+02	-1.958229e+01
1.169591e+02	-1.963187e+01
1.176347e+02	-1.967991e+01
1.183141e+02	-1.973080e+01
1.189975e+02	-1.978044e+01
1.196848e+02	-1.983064e+01
1.203761e+02	-1.987852e+01
1.210714e+02	-1.992854e+01
1.217707e+02	-1.997908e+01
1.224740e+02	-2.002816e+01
1.231814e+02	-2.007755e+01
1.238929e+02	-2.012679e+01
1.246085e+02	-2.017355e+01
1.253283e+02	-2.022577e+01
1.260522e+02	-2.027659e+01
1.267802e+02	-2.032562e+01
1.275125e+02	-2.037568e+01
1.282490e+02	-2.042381e+01
1.289898e+02	-2.047347e+01
1.297348e+02	-2.052384e+01
1.304842e+02	-2.057153e+01
1.312378e+02	-2.062208e+01
1.319959e+02	-2.067338e+01
1.327583e+02	-2.072189e+01
1.335251e+02	-2.077106e+01
1.342963e+02	-2.081870e+01
1.350720e+02	-2.087013e+01
1.358522e+02	-2.092115e+01
1.366368e+02	-2.097062e+01
1.374260e+02	-2.101797e+01
1.382198e+02	-2.107123e+01
1.390182e+02	-2.111921e+01
1.398211e+02	-2.116868e+01
1.406287e+02	-2.121967e+01
1.414410e+02	-2.126856e+01
1.422579e+02	-2.131772e+01
1.430796e+02	-2.136742e+01
1.439060e+02	-2.141672e+01
1.447372e+02	-2.146591e+01
1.455732e+02	-2.151842e+01
1.464141e+02	-2.156622e+01
1.472597e+02	-2.161516e+01
1.481103e+02	-2.166532e+01
1.489658e+02	-2.171267e+01
1.498262e+02	-2.176554e+01
1.506916e+02	-2.181207e+01
1.515620e+02	-2.186520e+01
1.524374e+02	-2.191487e+01
1.533179e+02	-2.196308e+01
1.542034e+02	-2.201327e+01
1.550941e+02	-2.206362e+01
1.559899e+02	-2.211234e+01
1.568909e+02	-2.216187e+01
1.577971e+02	-2.221141e+01
1.587085e+02	-2.226232e+01
1.596252e+02	-2.231075e+01
1.605472e+02	-2.236051e+01
1.614745e+02	-2.241162e+01
1.624072e+02	-2.246163e+01
1.633453e+02	-2.250971e+01
1.642887e+02	-2.255866e+01
1.652377e+02	-2.261014e+01
1.661921e+02	-2.266112e+01
1.671520e+02	-2.270959e+01
1.681175e+02	-2.275830e+01
1.690885e+02	-2.281001e+01
1.700651e+02	-2.285861e+01
1.710474e+02	-2.290836e+01
1.720354e+02	-2.295974e+01
1.730291e+02	-2.300760e+01
1.740285e+02	-2.305871e+01
1.750337e+02	-2.310773e+01
1.760446e+02	-2.315544e+01
1.770615e+02	-2.320636e+01
1.780842e+02	-2.325888e+01
1.791128e+02	-2.330947e+01
1.801473e+02	-2.335808e+01
1.811878e+02	-2.340703e+01
1.822344e+02	-2.345833e+01
1.832870e+02	-2.350696e+01
1.843456e+02	-2.356013e+01
1.854104e+02	-2.360862e+01
1.864813e+02	-2.365750e+01
1.875584e+02	-2.370667e+01
1.886418e+02	-2.375641e+01
1.897313e+02	-2.380458e+01
1.908272e+02	-2.385762e+01
1.919294e+02	-2.390563e+01
1.930380e+02	-2.395431e+01
1.941530e+02	-2.400786e+01
1.952744e+02	-2.405644e+01
1.964023e+02	-2.410381e+01
1.975367e+02	-2.415484e+01
1.986777e+02	-2.420394e+01
1.998252e+02	-2.425576e+01
2.009794e+02	-2.430367e+01
2.021403e+02	-2.435183e+01
2.033078e+02	-2.440468e+01
2.044821e+02	-2.445419e+01
2.056632e+02	-2.450606e+01
2.068511e+02	-2.455324e+01
2.080459e+02	-2.460525e+01
2.092475e+02	-2.465511e+01
2.104561e+02	-2.470236e+01
2.116717e+02	-2.475320e+01
2.128943e+02	-2.480279e+01
2.141240e+02	-2.485440e+01
2.153608e+02	-2.490489e+01
2.166047e+02	-2.495247e+01
2.178558e+02	-2.500094e+01
2.191141e+02	-2.505471e+01
2.203797e+02	-2.510234e+01
2.216526e+02	-2.515327e+01
2.229329e+02	-2.520296e+01
2.242205e+02	-2.525088e+01
2.255156e+02	-2.530146e+01
2.268182e+02	-2.535317e+01
2.281283e+02	-2.540224e+01
2.294459e+02	-2.545344e+01
2.307712e+02	-2.550198e+01
2.321041e+02	-2.555444e+01
2.334447e+02	-2.560347e+01
2.347931e+02	-2.565083e+01
2.361493e+02	-2.570405e+01
2.375133e+02	-2.575084e+01
2.388851e+02	-2.580228e+01
2.402649e+02	-2.585179e+01
2.416527e+02	-2.590181e+01
2.430484e+02	-2.595164e+01
2.444523e+02	-2.600271e+01
2.458642e+02	-2.605173e+01
2.472843e+02	-2.610297e+01
2.487126e+02	-2.615177e+01
2.501492e+02	-2.619738e+01
2.515940e+02	-2.625362e+01
2.530472e+02	-2.630202e+01
2.545088e+02	-2.635576e+01
2.559789e+02	-2.640224e+01
2.574574e+02	-2.644959e+01
2.589444e+02	-2.650175e+01
2.604401e+02	-2.655238e+01
2.619444e+02	-2.660000e+01
2.634574e+02	-2.665065e+01
2.649791e+02	-2.670170e+01
2.665096e+02	-2.675233e+01
2.680489e+02	-2.679752e+01
2.695972e+02	-2.685144e+01
2.711544e+02	-2.689959e+01
2.727205e+02	-2.694898e+01
2.742958e+02	-2.700418e+01
2.758801e+02	-2.704928e+01
2.774736e+02	-2.709786e+01
2.790762e+02	-2.714958e+01
2.806882e+02	-2.720238e+01
2.823094e+02	-2.724853e+01
2.839400e+02	-2.730231e+01
2.855800e+02	-2.735220e+01
2.872295e+02	-2.740311e+01
2.888886e+02	-2.744888e+01
2.905572e+02	-2.749926e+01
2.922354e+02	-2.754897e+01
2.939234e+02	-2.759661e+01
2.956211e+02	-2.765514e+01
2.973286e+02	-2.770159e+01
2.990459e+02	-2.774811e+01
3.007732e+02	-2.779922e+01
3.025104e+02	-2.784799e+01
3.042577e+02	-2.789957e+01
3.060151e+02	-2.795012e+01
3.077826e+02	-2.800017e+01
3.095604e+02	-2.805280e+01
3.113484e+02	-2.810051e+01
3.131467e+02	-2.815149e+01
3.149554e+02	-2.820082e+01
3.167746e+02	-2.825293e+01
3.186043e+02	-2.829651e+01
3.204445e+02	-2.834967e+01
3.222954e+02	-2.840306e+01
3.241570e+02	-2.845165e+01
3.260293e+02	-2.850171e+01
3.279124e+02	-2.855382e+01
3.298064e+02	-2.860158e+01
3.317114e+02	-2.865209e+01
3.336273e+02	-2.869859e+01
3.355544e+02	-2.875067e+01
3.374925e+02	-2.880097e+01
3.394418e+02	-2.884996e+01
3.414024e+02	-2.890063e+01
3.433744e+02	-2.895472e+01
3.453577e+02	-2.900296e+01
3.473525e+02	-2.905256e+01
3.493588e+02	-2.910566e+01
3.513766e+02	-2.914631e+01
3.534062e+02	-2.920649e+01
3.554474e+02	-2.925144e+01
3.575005e+02	-2.930042e+01
3.595654e+02	-2.935451e+01
3.616422e+02	-2.940146e+01
3.637311e+02	-2.945248e+01
3.658320e+02	-2.950187e+01
3.679450e+02	-2.954707e+01
3.700702e+02	-2.960107e+01
3.722077e+02	-2.965827e+01
3.743576e+02	-2.970702e+01
3.765199e+02	-2.974952e+01
3.786946e+02	-2.980173e+01
3.808820e+02	-2.985421e+01
3.830819e+02	-2.990062e+01
3.852946e+02	-2.995108e+01
3.875200e+02	-3.000608e+01
3.897583e+02	-3.005699e+01
3.920096e+02	-3.010202e+01
3.942738e+02	-3.015520e+01
3.965511e+02	-3.020559e+01
3.988416e+02	-3.025217e+01
4.011452e+02	-3.030281e+01
4.034622e+02	-3.035487e+01
4.057926e+02	-3.040525e+01
4.081365e+02	-3.045932e+01
4.104938e+02	-3.050636e+01
4.128648e+02	-3.055597e+01
4.152495e+02	-3.060711e+01
4.176480e+02	-3.065962e+01
4.200603e+02	-3.071011e+01
4.224866e+02	-3.075579e+01
4.249268e+02	-3.080454e+01
4.273812e+02	-3.085297e+01
4.298497e+02	-3.090648e+01
4.323325e+02	-3.095800e+01
4.348297e+02	-3.100419e+01
4.373412e+02	-3.105199e+01
4.398673e+02	-3.110182e+01
4.424079e+02	-3.115856e+01
4.449633e+02	-3.120204e+01
4.475334e+02	-3.125765e+01
4.501183e+02	-3.131218e+01
4.527182e+02	-3.135713e+01
4.553330e+02	-3.140680e+01
4.579630e+02	-3.145689e+01
4.606082e+02	-3.151192e+01
4.632687e+02	-3.155614e+01
4.659445e+02	-3.160909e+01
4.686358e+02	-3.165586e+01
4.713426e+02	-3.170375e+01
4.740650e+02	-3.175811e+01
4.768032e+02	-3.181110e+01
4.795572e+02	-3.186268e+01
4.823271e+02	-3.190533e+01
4.851130e+02	-3.195447e+01
4.879150e+02	-3.200045e+01
4.907332e+02	-3.205646e+01
4.935676e+02	-3.210575e+01
4.964185e+02	-3.215767e+01
4.992858e+02	-3.220795e+01
5.021696e+02	-3.226115e+01
5.050701e+02	-3.230908e+01
5.079874e+02	-3.236281e+01
5.109215e+02	-3.240930e+01
5.138726e+02	-3.246211e+01
5.168407e+02	-3.251000e+01
5.198259e+02	-3.256011e+01
5.228284e+02	-3.261584e+01
5.258482e+02	-3.266159e+01
5.288855e+02	-3.270785e+01
5.319403e+02	-3.276589e+01
5.350128e+02	-3.281384e+01
5.381030e+02	-3.285949e+01
5.412111e+02	-3.291669e+01
5.443371e+02	-3.296728e+01
5.474812e+02	-3.301241e+01
5.506434e+02	-3.306816e+01
5.538239e+02	-3.311524e+01
5.570228e+02	-3.316529e+01
5.602401e+02	-3.322157e+01
5.634760e+02	-3.326612e+01
5.667306e+02	-3.330577e+01
5.700040e+02	-3.337154e+01
5.732964e+02	-3.340579e+01
5.766077e+02	-3.346419e+01
5.799382e+02	-3.351511e+01
5.832879e+02	-3.356266e+01
5.866569e+02	-3.360823e+01
5.900454e+02	-3.367084e+01
5.934535e+02	-3.371876e+01
5.968813e+02	-3.376377e+01
6.003288e+02	-3.381731e+01
6.037963e+02	-3.387166e+01
6.072838e+02	-3.392285e+01
6.107914e+02	-3.396543e+01
6.143194e+02	-3.402402e+01
6.178676e+02	-3.407493e+01
6.214364e+02	-3.411458e+01
6.250258e+02	-3.417490e+01
6.286359e+02	-3.421887e+01
6.322669e+02	-3.427195e+01
6.359189e+02	-3.431061e+01
6.395919e+02	-3.436700e+01
6.432862e+02	-3.442039e+01
6.470017e+02	-3.446922e+01
6.507388e+02	-3.452557e+01
6.544974e+02	-3.457495e+01
6.582778e+02	-3.462320e+01
6.620800e+02	-3.466725e+01
6.659041e+02	-3.472052e+01
6.697504e+02	-3.477534e+01
6.736188e+02	-3.483167e+01
6.775096e+02	-3.486987e+01
6.814229e+02	-3.492442e+01
6.853587e+02	-3.497334e+01
6.893173e+02	-3.502750e+01
6.932988e+02	-3.508138e+01
6.973033e+02	-3.512919e+01
7.013309e+02	-3.517880e+01
