Frequency(Hz)	Magnitude(dB)
1.000000e+01	-2.089891e+00
1.005776e+01	-2.108891e+00
1.011585e+01	-2.128301e+00
1.017428e+01	-2.147780e+00
1.023305e+01	-2.167233e+00
1.029215e+01	-2.187016e+00
1.035160e+01	-2.206551e+00
1.041139e+01	-2.226785e+00
1.047153e+01	-2.247057e+00
1.053201e+01	-2.267309e+00
1.059284e+01	-2.287632e+00
1.065403e+01	-2.308216e+00
1.071556e+01	-2.328886e+00
1.077746e+01	-2.349504e+00
1.083971e+01	-2.370780e+00
1.090232e+01	-2.391814e+00
1.096529e+01	-2.413177e+00
1.102862e+01	-2.434457e+00
1.109232e+01	-2.455794e+00
1.115639e+01	-2.477529e+00
1.122083e+01	-2.499489e+00
1.128564e+01	-2.521550e+00
1.135083e+01	-2.543408e+00
1.141639e+01	-2.566009e+00
1.148233e+01	-2.588430e+00
1.154865e+01	-2.610634e+00
1.161536e+01	-2.633401e+00
1.168245e+01	-2.656240e+00
1.174992e+01	-2.679189e+00
1.181779e+01	-2.702094e+00
1.188605e+01	-2.725278e+00
1.195470e+01	-2.749067e+00
1.202375e+01	-2.772259e+00
1.209320e+01	-2.796093e+00
1.216305e+01	-2.820070e+00
1.223330e+01	-2.844016e+00
1.230396e+01	-2.867919e+00
1.237503e+01	-2.892139e+00
1.244651e+01	-2.916589e+00
1.251840e+01	-2.941272e+00
1.259070e+01	-2.965782e+00
1.266343e+01	-2.990601e+00
1.273657e+01	-3.015853e+00
1.281014e+01	-3.040722e+00
1.288413e+01	-3.066197e+00
1.295855e+01	-3.091613e+00
1.303339e+01	-3.116860e+00
1.310867e+01	-3.142828e+00
1.318439e+01	-3.168639e+00
1.326054e+01	-3.194475e+00
1.333713e+01	-3.220842e+00
1.341417e+01	-3.246813e+00
1.349165e+01	-3.273206e+00
1.356958e+01	-3.299886e+00
1.364795e+01	-3.326623e+00
1.372678e+01	-3.353396e+00
1.380607e+01	-3.380220e+00
1.388581e+01	-3.407450e+00
1.396602e+01	-3.434901e+00
1.404668e+01	-3.462199e+00
1.412782e+01	-3.489926e+00
1.420942e+01	-3.517371e+00
1.429149e+01	-3.545156e+00
1.437404e+01	-3.573227e+00
1.445706e+01	-3.601353e+00
1.454057e+01	-3.629792e+00
1.462455e+01	-3.658032e+00
1.470902e+01	-3.686755e+00
1.479398e+01	-3.715419e+00
1.487943e+01	-3.743988e+00
1.496537e+01	-3.772896e+00
1.505181e+01	-3.802297e+00
1.513875e+01	-3.831513e+00
1.522619e+01	-3.860845e+00
1.531414e+01	-3.890264e+00
1.540259e+01	-3.919898e+00
1.549156e+01	-3.949760e+00
1.558103e+01	-3.979817e+00
1.567103e+01	-4.009883e+00
1.576155e+01	-4.040246e+00
1.585258e+01	-4.070596e+00
1.594415e+01	-4.101117e+00
1.603624e+01	-4.131465e+00
1.612886e+01	-4.162500e+00
1.622202e+01	-4.193055e+00
1.631572e+01	-4.224454e+00
1.640996e+01	-4.255656e+00
1.650474e+01	-4.286932e+00
1.660008e+01	-4.318137e+00
1.669596e+01	-4.349954e+00
1.679239e+01	-4.381561e+00
1.688938e+01	-4.413639e+00
1.698694e+01	-4.445474e+00
1.708505e+01	-4.477628e+00
1.718373e+01	-4.509649e+00
1.728299e+01	-4.541966e+00
1.738281e+01	-4.574681e+00
1.748322e+01	-4.607470e+00
1.758420e+01	-4.640602e+00
1.768576e+01	-4.673169e+00
1.778792e+01	-4.705844e+00
1.789066e+01	-4.739193e+00
1.799399e+01	-4.772514e+00
1.809793e+01	-4.805996e+00
1.820246e+01	-4.839437e+00
1.830760e+01	-4.873053e+00
1.841334e+01	-4.907030e+00
1.851969e+01	-4.941035e+00
1.862666e+01	-4.974611e+00
1.873425e+01	-5.009009e+00
1.884246e+01	-5.043309e+00
1.895129e+01	-5.077835e+00
1.906075e+01	-5.112301e+00
1.917085e+01	-5.147210e+00
1.928158e+01	-5.181816e+00
1.939295e+01	-5.216715e+00
1.950496e+01	-5.251891e+00
1.961762e+01	-5.287058e+00
1.973093e+01	-5.322260e+00
1.984490e+01	-5.357693e+00
1.995952e+01	-5.392930e+00
2.007480e+01	-5.429104e+00
2.019076e+01	-5.464859e+00
2.030738e+01	-5.500689e+00
2.042467e+01	-5.536279e+00
2.054264e+01	-5.572405e+00
2.066130e+01	-5.608787e+00
2.078064e+01	-5.645038e+00
2.090066e+01	-5.681655e+00
2.102139e+01	-5.718232e+00
2.114280e+01	-5.754689e+00
2.126492e+01	-5.791565e+00
2.138775e+01	-5.828345e+00
2.151128e+01	-5.865262e+00
2.163553e+01	-5.902520e+00
2.176050e+01	-5.939597e+00
2.188619e+01	-5.977307e+00
2.201260e+01	-6.014540e+00
2.213974e+01	-6.052126e+00
2.226762e+01	-6.089630e+00
2.239624e+01	-6.127554e+00
2.252560e+01	-6.165275e+00
2.265571e+01	-6.203210e+00
2.278656e+01	-6.241970e+00
2.291818e+01	-6.279929e+00
2.305055e+01	-6.318295e+00
2.318369e+01	-6.356344e+00
2.331760e+01	-6.394775e+00
2.345228e+01	-6.433332e+00
2.358774e+01	-6.472205e+00
2.372398e+01	-6.511131e+00
2.386101e+01	-6.549806e+00
2.399883e+01	-6.589156e+00
2.413745e+01	-6.628026e+00
2.427686e+01	-6.667228e+00
2.441709e+01	-6.706496e+00
2.455812e+01	-6.745661e+00
2.469997e+01	-6.785533e+00
2.484263e+01	-6.825267e+00
2.498612e+01	-6.864892e+00
2.513044e+01	-6.904422e+00
2.527559e+01	-6.944461e+00
2.542158e+01	-6.984216e+00
2.556842e+01	-7.024450e+00
2.571610e+01	-7.064251e+00
2.586463e+01	-7.104609e+00
2.601403e+01	-7.145133e+00
2.616428e+01	-7.185822e+00
2.631541e+01	-7.226260e+00
2.646740e+01	-7.266423e+00
2.662028e+01	-7.307245e+00
2.677404e+01	-7.348199e+00
2.692868e+01	-7.388488e+00
2.708422e+01	-7.429838e+00
2.724066e+01	-7.470332e+00
2.739800e+01	-7.511862e+00
2.755625e+01	-7.552803e+00
2.771541e+01	-7.594323e+00
2.787550e+01	-7.635759e+00
2.803650e+01	-7.676660e+00
2.819844e+01	-7.719032e+00
2.836131e+01	-7.759968e+00
2.852513e+01	-7.802080e+00
2.868989e+01	-7.844321e+00
2.885560e+01	-7.885755e+00
2.902227e+01	-7.927602e+00
2.918990e+01	-7.969597e+00
2.935850e+01	-8.011555e+00
2.952807e+01	-8.053558e+00
2.969863e+01	-8.096126e+00
2.987016e+01	-8.137807e+00
3.004269e+01	-8.180952e+00
3.021622e+01	-8.223126e+00
3.039075e+01	-8.265931e+00
3.056628e+01	-8.308604e+00
3.074283e+01	-8.350885e+00
3.092040e+01	-8.393891e+00
3.109900e+01	-8.436508e+00
3.127862e+01	-8.479401e+00
3.145929e+01	-8.522164e+00
3.164099e+01	-8.565324e+00
3.182375e+01	-8.608235e+00
3.200756e+01	-8.651676e+00
3.219244e+01	-8.694692e+00
3.237838e+01	-8.738303e+00
3.256540e+01	-8.781615e+00
3.275349e+01	-8.825167e+00
3.294268e+01	-8.868594e+00
3.313295e+01	-8.911913e+00
3.332433e+01	-8.955682e+00
3.351681e+01	-8.999731e+00
3.371040e+01	-9.042743e+00
3.390511e+01	-9.086533e+00
3.410094e+01	-9.130775e+00
3.429791e+01	-9.175135e+00
3.449601e+01	-9.219438e+00
3.469526e+01	-9.262719e+00
3.489566e+01	-9.306994e+00
3.509721e+01	-9.351527e+00
3.529993e+01	-9.395691e+00
3.550382e+01	-9.439646e+00
3.570889e+01	-9.484472e+00
3.591515e+01	-9.528199e+00
3.612259e+01	-9.572874e+00
3.633123e+01	-9.617686e+00
3.654108e+01	-9.662074e+00
3.675214e+01	-9.707025e+00
3.696442e+01	-9.751475e+00
3.717792e+01	-9.796633e+00
3.739266e+01	-9.840667e+00
3.760864e+01	-9.886122e+00
3.782587e+01	-9.930952e+00
3.804435e+01	-9.975217e+00
3.826409e+01	-1.002067e+01
3.848510e+01	-1.006641e+01
3.870739e+01	-1.011138e+01
3.893096e+01	-1.015668e+01
3.915583e+01	-1.020182e+01
3.938199e+01	-1.024737e+01
3.960946e+01	-1.029236e+01
3.983824e+01	-1.033744e+01
4.006834e+01	-1.038280e+01
4.029978e+01	-1.042856e+01
4.053255e+01	-1.047348e+01
4.076666e+01	-1.051957e+01
4.100213e+01	-1.056501e+01
4.123896e+01	-1.060997e+01
4.147715e+01	-1.065630e+01
4.171672e+01	-1.070254e+01
4.195767e+01	-1.074798e+01
4.220002e+01	-1.079423e+01
4.244377e+01	-1.083958e+01
4.268892e+01	-1.088499e+01
4.293549e+01	-1.093129e+01
4.318348e+01	-1.097737e+01
4.343291e+01	-1.102386e+01
4.368377e+01	-1.106970e+01
4.393609e+01	-1.111537e+01
4.418986e+01	-1.116252e+01
4.444510e+01	-1.120848e+01
4.470182e+01	-1.125484e+01
4.496001e+01	-1.130107e+01
4.521970e+01	-1.134702e+01
4.548089e+01	-1.139348e+01
4.574358e+01	-1.143992e+01
4.600779e+01	-1.148625e+01
4.627353e+01	-1.153210e+01
4.654081e+01	-1.157948e+01
4.680963e+01	-1.162602e+01
4.708000e+01	-1.167304e+01
4.735193e+01	-1.171872e+01
4.762543e+01	-1.176592e+01
4.790051e+01	-1.181304e+01
4.817719e+01	-1.185971e+01
4.845545e+01	-1.190620e+01
4.873533e+01	-1.195310e+01
4.901682e+01	-1.199910e+01
4.929994e+01	-1.204717e+01
4.958470e+01	-1.209346e+01
4.987110e+01	-1.214077e+01
5.015915e+01	-1.218791e+01
5.044887e+01	-1.223366e+01
5.074026e+01	-1.228171e+01
5.103333e+01	-1.232852e+01
5.132810e+01	-1.237619e+01
5.162457e+01	-1.242287e+01
5.192275e+01	-1.247006e+01
5.222265e+01	-1.251742e+01
5.252429e+01	-1.256457e+01
5.282767e+01	-1.261194e+01
5.313280e+01	-1.265904e+01
5.343969e+01	-1.270663e+01
5.374836e+01	-1.275436e+01
5.405880e+01	-1.280155e+01
5.437105e+01	-1.284916e+01
5.468509e+01	-1.289696e+01
5.500095e+01	-1.294278e+01
5.531863e+01	-1.299078e+01
5.563815e+01	-1.303878e+01
5.595951e+01	-1.308584e+01
5.628273e+01	-1.313330e+01
5.660782e+01	-1.318130e+01
5.693479e+01	-1.322850e+01
5.726364e+01	-1.327677e+01
5.759439e+01	-1.332441e+01
5.792705e+01	-1.337200e+01
5.826164e+01	-1.341965e+01
5.859815e+01	-1.346779e+01
5.893662e+01	-1.351530e+01
5.927703e+01	-1.356393e+01
5.961941e+01	-1.361125e+01
5.996377e+01	-1.365835e+01
6.031012e+01	-1.370636e+01
6.065847e+01	-1.375425e+01
6.100883e+01	-1.380203e+01
6.136121e+01	-1.385055e+01
6.171563e+01	-1.389839e+01
6.207210e+01	-1.394688e+01
6.243063e+01	-1.399486e+01
6.279122e+01	-1.404296e+01
6.315390e+01	-1.409062e+01
6.351868e+01	-1.413858e+01
6.388556e+01	-1.418730e+01
6.425456e+01	-1.423549e+01
6.462569e+01	-1.428341e+01
6.499897e+01	-1.433027e+01
6.537440e+01	-1.437925e+01
6.575200e+01	-1.442787e+01
6.613178e+01	-1.447563e+01
6.651375e+01	-1.452469e+01
6.689793e+01	-1.457189e+01
6.728433e+01	-1.462133e+01
6.767297e+01	-1.466951e+01
6.806384e+01	-1.471784e+01
6.845698e+01	-1.476602e+01
6.885238e+01	-1.481431e+01
6.925007e+01	-1.486217e+01
6.965005e+01	-1.491063e+01
7.005235e+01	-1.495916e+01
7.045697e+01	-1.500849e+01
7.086393e+01	-1.505554e+01
7.127323e+01	-1.510505e+01
7.168490e+01	-1.515255e+01
7.209895e+01	-1.520160e+01
7.251539e+01	-1.524978e+01
7.293424e+01	-1.529851e+01
7.335551e+01	-1.534732e+01
7.377920e+01	-1.539625e+01
7.420535e+01	-1.544513e+01
7.463396e+01	-1.549305e+01
7.506504e+01	-1.554212e+01
7.549861e+01	-1.559011e+01
7.593469e+01	-1.563939e+01
7.637328e+01	-1.568756e+01
7.681441e+01	-1.573659e+01
7.725809e+01	-1.578534e+01
7.770433e+01	-1.583319e+01
7.815315e+01	-1.588267e+01
7.860456e+01	-1.593191e+01
7.905857e+01	-1.598042e+01
7.951521e+01	-1.602899e+01
7.997449e+01	-1.607670e+01
8.043642e+01	-1.612623e+01
8.090102e+01	-1.617560e+01
8.136830e+01	-1.622473e+01
8.183828e+01	-1.627266e+01
8.231097e+01	-1.632163e+01
8.278640e+01	-1.637109e+01
8.326457e+01	-1.642063e+01
8.374550e+01	-1.646853e+01
8.422921e+01	-1.651685e+01
8.471572e+01	-1.656613e+01
8.520503e+01	-1.661469e+01
8.569717e+01	-1.666570e+01
8.619215e+01	-1.671235e+01
8.669000e+01	-1.676158e+01
8.719071e+01	-1.681141e+01
8.769432e+01	-1.685893e+01
8.820084e+01	-1.690833e+01
8.871029e+01	-1.695814e+01
8.922267e+01	-1.700709e+01
8.973802e+01	-1.705659e+01
9.025634e+01	-1.710410e+01
9.077766e+01	-1.715507e+01
9.130199e+01	-1.720361e+01
9.182935e+01	-1.725263e+01
9.235975e+01	-1.730164e+01
9.289321e+01	-1.735085e+01
9.342976e+01	-1.739987e+01
9.396941e+01	-1.744836e+01
9.451217e+01	-1.749809e+01
9.505807e+01	-1.754713e+01
9.560712e+01	-1.759662e+01
9.615934e+01	-1.764546e+01
9.671476e+01	-1.769463e+01
9.727338e+01	-1.774473e+01
9.783522e+01	-1.779198e+01
9.840032e+01	-1.784301e+01
9.896867e+01	-1.789187e+01
9.954031e+01	-1.794144e+01
1.001153e+02	-1.798982e+01
1.006935e+02	-1.803863e+01
1.012751e+02	-1.808772e+01
1.018601e+02	-1.813800e+01
1.024484e+02	-1.818694e+01
1.030402e+02	-1.823615e+01
1.036353e+02	-1.828500e+01
1.042339e+02	-1.833489e+01
1.048360e+02	-1.838507e+01
1.054415e+02	-1.843214e+01
1.060505e+02	-1.848307e+01
1.066631e+02	-1.853225e+01
1.072791e+02	-1.858315e+01
1.078988e+02	-1.863186e+01
1.085220e+02	-1.868017e+01
1.091488e+02	-1.873122e+01
1.097793e+02	-1.877961e+01
1.104133e+02	-1.882859e+01
1.110511e+02	-1.887749e+01
1.116925e+02	-1.892668e+01
1.123376e+02	-1.897540e+01
1.129865e+02	-1.902650e+01
1.136391e+02	-1.907549e+01
1.142955e+02	-1.912498e+01
1.149556e+02	-1.917463e+01
1.156196e+02	-1.922392e+01
1.162874e+02	-1.927315e+01
1.169591e+02	-1.932350e+01
1.176347e+02	-1.937303e+01
1.183141e+02	-1.942247e+01
1.189975e+02	-1.947063e+01
1.196848e+02	-1.952032e+01
1.203761e+02	-1.956894e+01
1.210714e+02	-1.962032e+01
1.217707e+02	-1.967006e+01
1.224740e+02	-1.971730e+01
1.231814e+02	-1.976581e+01
1.238929e+02	-1.981755e+01
1.246085e+02	-1.986604e+01
1.253283e+02	-1.991559e+01
1.260522e+02	-1.996578e+01
1.267802e+02	-2.001659e+01
1.275125e+02	-2.006639e+01
1.282490e+02	-2.011435e+01
1.289898e+02	-2.016470e+01
1.297348e+02	-2.021352e+01
1.304842e+02	-2.026328e+01
1.312378e+02	-2.031306e+01
1.319959e+02	-2.036145e+01
1.327583e+02	-2.041141e+01
1.335251e+02	-2.046074e+01
1.342963e+02	-2.051055e+01
1.350720e+02	-2.056045e+01
1.358522e+02	-2.061113e+01
1.366368e+02	-2.066076e+01
1.374260e+02	-2.070974e+01
1.382198e+02	-2.076015e+01
1.390182e+02	-2.080963e+01
1.398211e+02	-2.085821e+01
1.406287e+02	-2.090794e+01
1.414410e+02	-2.095646e+01
1.422579e+02	-2.100606e+01
1.430796e+02	-2.105664e+01
1.439060e+02	-2.110597e+01
1.447372e+02	-2.115512e+01
1.455732e+02	-2.120635e+01
1.464141e+02	-2.125561e+01
1.472597e+02	-2.130554e+01
1.481103e+02	-2.135594e+01
1.489658e+02	-2.140622e+01
1.498262e+02	-2.145559e+01
1.506916e+02	-2.150565e+01
1.515620e+02	-2.155329e+01
1.524374e+02	-2.160405e+01
1.533179e+02	-2.165308e+01
1.542034e+02	-2.170132e+01
1.550941e+02	-2.175279e+01
1.559899e+02	-2.180025e+01
1.568909e+02	-2.185334e+01
1.577971e+02	-2.190170e+01
1.587085e+02	-2.195186e+01
1.596252e+02	-2.200123e+01
1.605472e+02	-2.205330e+01
1.614745e+02	-2.210140e+01
1.624072e+02	-2.214953e+01
1.633453e+02	-2.219948e+01
1.642887e+02	-2.224932e+01
1.652377e+02	-2.229926e+01
1.661921e+02	-2.234911e+01
1.671520e+02	-2.240038e+01
1.681175e+02	-2.244859e+01
1.690885e+02	-2.249908e+01
1.700651e+02	-2.254831e+01
1.710474e+02	-2.259827e+01
1.720354e+02	-2.264913e+01
1.730291e+02	-2.269777e+01
1.740285e+02	-2.274846e+01
1.750337e+02	-2.279724e+01
1.760446e+02	-2.284777e+01
1.770615e+02	-2.289655e+01
1.780842e+02	-2.294692e+01
1.791128e+02	-2.299677e+01
1.801473e+02	-2.304815e+01
1.811878e+02	-2.309659e+01
1.822344e+02	-2.314531e+01
1.832870e+02	-2.319499e+01
1.843456e+02	-2.324646e+01
1.854104e+02	-2.329526e+01
1.864813e+02	-2.334572e+01
1.875584e+02	-2.339430e+01
1.886418e+02	-2.344487e+01
1.897313e+02	-2.349360e+01
1.908272e+02	-2.354489e+01
1.919294e+02	-2.359544e+01
1.930380e+02	-2.364232e+01
1.941530e+02	-2.369311e+01
1.952744e+02	-2.374424e+01
1.964023e+02	-2.379456e+01
1.975367e+02	-2.384135e+01
1.986777e+02	-2.389366e+01
1.998252e+02	-2.394603e+01
2.009794e+02	-2.399210e+01
2.021403e+02	-2.404382e+01
2.033078e+02	-2.409345e+01
2.044821e+02	-2.414113e+01
2.056632e+02	-2.419442e+01
2.068511e+02	-2.424328e+01
2.080459e+02	-2.429202e+01
2.092475e+02	-2.434005e+01
2.104561e+02	-2.439344e+01
2.116717e+02	-2.444075e+01
2.128943e+02	-2.449039e+01
2.141240e+02	-2.454309e+01
2.153608e+02	-2.459108e+01
2.166047e+02	-2.464046e+01
2.178558e+02	-2.468983e+01
2.191141e+02	-2.474041e+01
2.203797e+02	-2.479108e+01
2.216526e+02	-2.484254e+01
2.229329e+02	-2.489222e+01
2.242205e+02	-2.494223e+01
2.255156e+02	-2.499224e+01
2.268182e+02	-2.504166e+01
2.281283e+02	-2.508861e+01
2.294459e+02	-2.514127e+01
2.307712e+02	-2.519005e+01
2.321041e+02	-2.523985e+01
2.334447e+02	-2.529048e+01
2.347931e+02	-2.534004e+01
2.361493e+02	-2.538999e+01
2.375133e+02	-2.543922e+01
2.388851e+02	-2.549121e+01
2.402649e+02	-2.553892e+01
2.416527e+02	-2.558922e+01
2.430484e+02	-2.564124e+01
2.444523e+02	-2.568611e+01
2.458642e+02	-2.574070e+01
2.472843e+02	-2.579106e+01
2.487126e+02	-2.583754e+01
2.501492e+02	-2.588889e+01
2.515940e+02	-2.593942e+01
2.530472e+02	-2.598822e+01
2.545088e+02	-2.604027e+01
2.559789e+02	-2.608887e+01
2.574574e+02	-2.613812e+01
2.589444e+02	-2.619164e+01
2.604401e+02	-2.624287e+01
2.619444e+02	-2.628911e+01
2.634574e+02	-2.633787e+01
2.649791e+02	-2.639018e+01
2.665096e+02	-2.643828e+01
2.680489e+02	-2.648856e+01
2.695972e+02	-2.654046e+01
2.711544e+02	-2.658687e+01
2.727205e+02	-2.663851e+01
2.742958e+02	-2.668879e+01
2.758801e+02	-2.674189e+01
2.774736e+02	-2.678763e+01
2.790762e+02	-2.683565e+01
2.806882e+02	-2.688855e+01
2.823094e+02	-2.694054e+01
2.839400e+02	-2.699037e+01
2.855800e+02	-2.703973e+01
2.872295e+02	-2.708968e+01
2.888886e+02	-2.713540e+01
2.905572e+02	-2.719034e+01
2.922354e+02	-2.723625e+01
2.939234e+02	-2.728837e+01
2.956211e+02	-2.733561e+01
2.973286e+02	-2.738709e+01
2.990459e+02	-2.743556e+01
3.007732e+02	-2.749074e+01
3.025104e+02	-2.753788e+01
3.042577e+02	-2.758936e+01
3.060151e+02	-2.763466e+01
3.077826e+02	-2.769540e+01
3.095604e+02	-2.773779e+01
3.113484e+02	-2.779057e+01
3.131467e+02	-2.783553e+01
3.149554e+02	-2.789100e+01
3.167746e+02	-2.794263e+01
3.186043e+02	-2.798906e+01
3.204445e+02	-2.803852e+01
3.222954e+02	-2.808552e+01
3.241570e+02	-2.814152e+01
3.260293e+02	-2.819352e+01
3.279124e+02	-2.824107e+01
3.298064e+02	-2.828865e+01
3.317114e+02	-2.833855e+01
3.336273e+02	-2.839011e+01
3.355544e+02	-2.843772e+01
3.374925e+02	-2.848989e+01
3.394418e+02	-2.854224e+01
3.414024e+02	-2.858835e+01
3.433744e+02	-2.863666e+01
3.453577e+02	-2.868983e+01
3.473525e+02	-2.873760e+01
3.493588e+02	-2.879164e+01
3.513766e+02	-2.883745e+01
3.534062e+02	-2.889129e+01
3.554474e+02	-2.894147e+01
3.575005e+02	-2.898918e+01
3.595654e+02	-2.904153e+01
3.616422e+02	-2.909033e+01
3.637311e+02	-2.914076e+01
3.658320e+02	-2.919081e+01
3.679450e+02	-2.923920e+01
3.700702e+02	-2.929335e+01
3.722077e+02	-2.933889e+01
3.743576e+02	-2.938747e+01
3.765199e+02	-2.943886e+01
3.786946e+02	-2.948970e+01
3.808820e+02	-2.954091e+01
3.830819e+02	-2.959292e+01
3.852946e+02	-2.963993e+01
3.875200e+02	-2.968826e+01
3.897583e+02	-2.973818e+01
3.920096e+02	-2.979262e+01
3.942738e+02	-2.983995e+01
3.965511e+02	-2.989049e+01
3.988416e+02	-2.994475e+01
4.011452e+02	-2.999678e+01
4.034622e+02	-3.004214e+01
4.057926e+02	-3.009062e+01
4.081365e+02	-3.013975e+01
4.104938e+02	-3.019112e+01
4.128648e+02	-3.024548e+01
4.152495e+02	-3.028961e+01
4.176480e+02	-3.034550e+01
4.200603e+02	-3.039055e+01
4.224866e+02	-3.044300e+01
4.249268e+02	-3.049528e+01
4.273812e+02	-3.054086e+01
4.298497e+02	-3.058900e+01
4.323325e+02	-3.063968e+01
4.348297e+02	-3.069104e+01
4.373412e+02	-3.074702e+01
4.398673e+02	-3.079199e+01
4.424079e+02	-3.084582e+01
4.449633e+02	-3.089545e+01
4.475334e+02	-3.094393e+01
4.501183e+02	-3.099523e+01
4.527182e+02	-3.104269e+01
4.553330e+02	-3.109983e+01
4.579630e+02	-3.114304e+01
4.606082e+02	-3.119773e+01
4.632687e+02	-3.124983e+01
4.659445e+02	-3.129426e+01
4.686358e+02	-3.134051e+01
4.713426e+02	-3.139585e+01
4.740650e+02	-3.144499e+01
4.768032e+02	-3.149672e+01
4.795572e+02	-3.154849e+01
4.823271e+02	-3.159782e+01
4.851130e+02	-3.164824e+01
4.879150e+02	-3.169961e+01
4.907332e+02	-3.175487e+01
4.935676e+02	-3.180175e+01
4.964185e+02	-3.184849e+01
4.992858e+02	-3.190201e+01
5.021696e+02	-3.194509e+01
5.050701e+02	-3.199940e+01
5.079874e+02	-3.204935e+01
5.109215e+02	-3.209823e+01
5.138726e+02	-3.215369e+01
5.168407e+02	-3.219113e+01
5.198259e+02	-3.225065e+01
5.228284e+02	-3.229991e+01
5.258482e+02	-3.234675e+01
5.288855e+02	-3.239584e+01
5.319403e+02	-3.244865e+01
5.350128e+02	-3.249981e+01
5.381030e+02	-3.255284e+01
5.412111e+02	-3.260262e+01
5.443371e+02	-3.264522e+01
5.474812e+02	-3.270129e+01
5.506434e+02	-3.275236e+01
5.538239e+02	-3.280745e+01
5.570228e+02	-3.284658e+01
5.602401e+02	-3.290535e+01
5.634760e+02	-3.295518e+01
5.667306e+02	-3.300339e+01
5.700040e+02	-3.305057e+01
5.732964e+02	-3.310088e+01
5.766077e+02	-3.315332e+01
5.799382e+02	-3.320202e+01
5.832879e+02	-3.324633e+01
5.866569e+02	-3.329584e+01
5.900454e+02	-3.335810e+01
5.934535e+02	-3.340186e+01
5.968813e+02	-3.345469e+01
6.003288e+02	-3.350919e+01
6.037963e+02	-3.354978e+01
6.072838e+02	-3.360504e+01
6.107914e+02	-3.365458e+01
6.143194e+02	-3.370815e+01
6.178676e+02	-3.375666e+01
6.214364e+02	-3.380415e+01
6.250258e+02	-3.385767e+01
6.286359e+02	-3.390688e+01
6.322669e+02	-3.396013e+01
6.359189e+02	-3.401927e+01
6.395919e+02	-3.405721e+01
6.432862e+02	-3.410032e+01
6.470017e+02	-3.415563e+01
6.507388e+02	-3.421875e+01
6.544974e+02	-3.426558e+01
6.582778e+02	-3.431239e+01
6.620800e+02	-3.436191e+01
6.659041e+02	-3.441458e+01
6.697504e+02	-3.445865e+01
6.736188e+02	-3.450615e+01
6.775096e+02	-3.456847e+01
6.814229e+02	-3.461935e+01
6.853587e+02	-3.466964e+01
6.893173e+02	-3.472169e+01
6.932988e+02	-3.476773e+01
6.973033e+02	-3.480854e+01
7.013309e+02	-3.486164e+01
