Frequency(Hz)	Magnitude(dB)
1.000000e+01	-2.140241e+00
1.005776e+01	-2.159686e+00
1.011585e+01	-2.179267e+00
1.017428e+01	-2.199197e+00
1.023305e+01	-2.219207e+00
1.029215e+01	-2.239185e+00
1.035160e+01	-2.259338e+00
1.041139e+01	-2.279879e+00
1.047153e+01	-2.300232e+00
1.053201e+01	-2.320914e+00
1.059284e+01	-2.341626e+00
1.065403e+01	-2.362616e+00
1.071556e+01	-2.383876e+00
1.077746e+01	-2.405021e+00
1.083971e+01	-2.426325e+00
1.090232e+01	-2.447695e+00
1.096529e+01	-2.469183e+00
1.102862e+01	-2.491067e+00
1.109232e+01	-2.512976e+00
1.115639e+01	-2.535449e+00
1.122083e+01	-2.557277e+00
1.128564e+01	-2.579768e+00
1.135083e+01	-2.602237e+00
1.141639e+01	-2.624638e+00
1.148233e+01	-2.647535e+00
1.154865e+01	-2.670249e+00
1.161536e+01	-2.693449e+00
1.168245e+01	-2.716797e+00
1.174992e+01	-2.739876e+00
1.181779e+01	-2.763375e+00
1.188605e+01	-2.786893e+00
1.195470e+01	-2.810542e+00
1.202375e+01	-2.834556e+00
1.209320e+01	-2.858848e+00
1.216305e+01	-2.882872e+00
1.223330e+01	-2.907072e+00
1.230396e+01	-2.931798e+00
1.237503e+01	-2.956338e+00
1.244651e+01	-2.981329e+00
1.251840e+01	-3.005914e+00
1.259070e+01	-3.031079e+00
1.266343e+01	-3.056407e+00
1.273657e+01	-3.081760e+00
1.281014e+01	-3.107141e+00
1.288413e+01	-3.132778e+00
1.295855e+01	-3.158550e+00
1.303339e+01	-3.184486e+00
1.310867e+01	-3.210741e+00
1.318439e+01	-3.236807e+00
1.326054e+01	-3.263103e+00
1.333713e+01	-3.289722e+00
1.341417e+01	-3.316112e+00
1.349165e+01	-3.343292e+00
1.356958e+01	-3.369974e+00
1.364795e+01	-3.397149e+00
1.372678e+01	-3.424337e+00
1.380607e+01	-3.451743e+00
1.388581e+01	-3.479070e+00
1.396602e+01	-3.507007e+00
1.404668e+01	-3.534822e+00
1.412782e+01	-3.562342e+00
1.420942e+01	-3.590701e+00
1.429149e+01	-3.618936e+00
1.437404e+01	-3.647157e+00
1.445706e+01	-3.675843e+00
1.454057e+01	-3.704207e+00
1.462455e+01	-3.733004e+00
1.470902e+01	-3.762060e+00
1.479398e+01	-3.791089e+00
1.487943e+01	-3.820371e+00
1.496537e+01	-3.849556e+00
1.505181e+01	-3.879298e+00
1.513875e+01	-3.908725e+00
1.522619e+01	-3.938502e+00
1.531414e+01	-3.968253e+00
1.540259e+01	-3.998240e+00
1.549156e+01	-4.028376e+00
1.558103e+01	-4.058715e+00
1.567103e+01	-4.089373e+00
1.576155e+01	-4.119911e+00
1.585258e+01	-4.150741e+00
1.594415e+01	-4.181441e+00
1.603624e+01	-4.212280e+00
1.612886e+01	-4.243371e+00
1.622202e+01	-4.274698e+00
1.631572e+01	-4.306112e+00
1.640996e+01	-4.337584e+00
1.650474e+01	-4.369520e+00
1.660008e+01	-4.401250e+00
1.669596e+01	-4.433119e+00
1.679239e+01	-4.465382e+00
1.688938e+01	-4.497876e+00
1.698694e+01	-4.529615e+00
1.708505e+01	-4.562106e+00
1.718373e+01	-4.595016e+00
1.728299e+01	-4.627293e+00
1.738281e+01	-4.660482e+00
1.748322e+01	-4.693453e+00
1.758420e+01	-4.726477e+00
1.768576e+01	-4.759925e+00
1.778792e+01	-4.793174e+00
1.789066e+01	-4.826728e+00
1.799399e+01	-4.860371e+00
1.809793e+01	-4.893965e+00
1.820246e+01	-4.928062e+00
1.830760e+01	-4.961861e+00
1.841334e+01	-4.995876e+00
1.851969e+01	-5.030357e+00
1.862666e+01	-5.064582e+00
1.873425e+01	-5.099080e+00
1.884246e+01	-5.134074e+00
1.895129e+01	-5.168469e+00
1.906075e+01	-5.203712e+00
1.917085e+01	-5.238637e+00
1.928158e+01	-5.273406e+00
1.939295e+01	-5.308417e+00
1.950496e+01	-5.344014e+00
1.961762e+01	-5.379685e+00
1.973093e+01	-5.415140e+00
1.984490e+01	-5.450751e+00
1.995952e+01	-5.486757e+00
2.007480e+01	-5.522766e+00
2.019076e+01	-5.558864e+00
2.030738e+01	-5.594615e+00
2.042467e+01	-5.631022e+00
2.054264e+01	-5.667973e+00
2.066130e+01	-5.703883e+00
2.078064e+01	-5.740838e+00
2.090066e+01	-5.777234e+00
2.102139e+01	-5.814388e+00
2.114280e+01	-5.851585e+00
2.126492e+01	-5.888277e+00
2.138775e+01	-5.925523e+00
2.151128e+01	-5.962815e+00
2.163553e+01	-6.000165e+00
2.176050e+01	-6.037621e+00
2.188619e+01	-6.075132e+00
2.201260e+01	-6.112964e+00
2.213974e+01	-6.150776e+00
2.226762e+01	-6.188837e+00
2.239624e+01	-6.227028e+00
2.252560e+01	-6.264924e+00
2.265571e+01	-6.303074e+00
2.278656e+01	-6.341609e+00
2.291818e+01	-6.380233e+00
2.305055e+01	-6.419023e+00
2.318369e+01	-6.457232e+00
2.331760e+01	-6.496429e+00
2.345228e+01	-6.534861e+00
2.358774e+01	-6.573858e+00
2.372398e+01	-6.612866e+00
2.386101e+01	-6.652362e+00
2.399883e+01	-6.691218e+00
2.413745e+01	-6.730774e+00
2.427686e+01	-6.769730e+00
2.441709e+01	-6.809875e+00
2.455812e+01	-6.849269e+00
2.469997e+01	-6.889378e+00
2.484263e+01	-6.929051e+00
2.498612e+01	-6.969082e+00
2.513044e+01	-7.009073e+00
2.527559e+01	-7.049128e+00
2.542158e+01	-7.089362e+00
2.556842e+01	-7.129818e+00
2.571610e+01	-7.169831e+00
2.586463e+01	-7.210297e+00
2.601403e+01	-7.250859e+00
2.616428e+01	-7.291543e+00
2.631541e+01	-7.332392e+00
2.646740e+01	-7.372907e+00
2.662028e+01	-7.414013e+00
2.677404e+01	-7.454848e+00
2.692868e+01	-7.496053e+00
2.708422e+01	-7.537357e+00
2.724066e+01	-7.578762e+00
2.739800e+01	-7.619539e+00
2.755625e+01	-7.661014e+00
2.771541e+01	-7.702574e+00
2.787550e+01	-7.744795e+00
2.803650e+01	-7.786423e+00
2.819844e+01	-7.827819e+00
2.836131e+01	-7.869301e+00
2.852513e+01	-7.911643e+00
2.868989e+01	-7.953463e+00
2.885560e+01	-7.995352e+00
2.902227e+01	-8.037829e+00
2.918990e+01	-8.079491e+00
2.935850e+01	-8.122491e+00
2.952807e+01	-8.164586e+00
2.969863e+01	-8.206962e+00
2.987016e+01	-8.249344e+00
3.004269e+01	-8.292513e+00
3.021622e+01	-8.334786e+00
3.039075e+01	-8.377352e+00
3.056628e+01	-8.420485e+00
3.074283e+01	-8.462958e+00
3.092040e+01	-8.506029e+00
3.109900e+01	-8.549377e+00
3.127862e+01	-8.591801e+00
3.145929e+01	-8.635431e+00
3.164099e+01	-8.678624e+00
3.182375e+01	-8.721802e+00
3.200756e+01	-8.765213e+00
3.219244e+01	-8.808265e+00
3.237838e+01	-8.852055e+00
3.256540e+01	-8.895721e+00
3.275349e+01	-8.938669e+00
3.294268e+01	-8.982721e+00
3.313295e+01	-9.026470e+00
3.332433e+01	-9.070580e+00
3.351681e+01	-9.114137e+00
3.371040e+01	-9.158149e+00
3.390511e+01	-9.201813e+00
3.410094e+01	-9.246056e+00
3.429791e+01	-9.289835e+00
3.449601e+01	-9.334450e+00
3.469526e+01	-9.378619e+00
3.489566e+01	-9.422535e+00
3.509721e+01	-9.467698e+00
3.529993e+01	-9.512096e+00
3.550382e+01	-9.556014e+00
3.570889e+01	-9.600679e+00
3.591515e+01	-9.644892e+00
3.612259e+01	-9.689610e+00
3.633123e+01	-9.734380e+00
3.654108e+01	-9.778894e+00
3.675214e+01	-9.824011e+00
3.696442e+01	-9.868935e+00
3.717792e+01	-9.913378e+00
3.739266e+01	-9.959508e+00
3.760864e+01	-1.000330e+01
3.782587e+01	-1.004875e+01
3.804435e+01	-1.009351e+01
3.826409e+01	-1.013906e+01
3.848510e+01	-1.018432e+01
3.870739e+01	-1.022946e+01
3.893096e+01	-1.027415e+01
3.915583e+01	-1.031995e+01
3.938199e+01	-1.036548e+01
3.960946e+01	-1.041051e+01
3.983824e+01	-1.045583e+01
4.006834e+01	-1.050174e+01
4.029978e+01	-1.054807e+01
4.053255e+01	-1.059305e+01
4.076666e+01	-1.063843e+01
4.100213e+01	-1.068455e+01
4.123896e+01	-1.073035e+01
4.147715e+01	-1.077658e+01
4.171672e+01	-1.082247e+01
4.195767e+01	-1.086784e+01
4.220002e+01	-1.091377e+01
4.244377e+01	-1.095994e+01
4.268892e+01	-1.100574e+01
4.293549e+01	-1.105193e+01
4.318348e+01	-1.109858e+01
4.343291e+01	-1.114394e+01
4.368377e+01	-1.119052e+01
4.393609e+01	-1.123626e+01
4.418986e+01	-1.128329e+01
4.444510e+01	-1.132912e+01
4.470182e+01	-1.137534e+01
4.496001e+01	-1.142224e+01
4.521970e+01	-1.146867e+01
4.548089e+01	-1.151515e+01
4.574358e+01	-1.156198e+01
4.600779e+01	-1.160815e+01
4.627353e+01	-1.165457e+01
4.654081e+01	-1.170153e+01
4.680963e+01	-1.174788e+01
4.708000e+01	-1.179480e+01
4.735193e+01	-1.184107e+01
4.762543e+01	-1.188850e+01
4.790051e+01	-1.193427e+01
4.817719e+01	-1.198207e+01
4.845545e+01	-1.202879e+01
4.873533e+01	-1.207531e+01
4.901682e+01	-1.212268e+01
4.929994e+01	-1.217014e+01
4.958470e+01	-1.221636e+01
4.987110e+01	-1.226409e+01
5.015915e+01	-1.231073e+01
5.044887e+01	-1.235797e+01
5.074026e+01	-1.240450e+01
5.103333e+01	-1.245244e+01
5.132810e+01	-1.249913e+01
5.162457e+01	-1.254612e+01
5.192275e+01	-1.259357e+01
5.222265e+01	-1.264138e+01
5.252429e+01	-1.268872e+01
5.282767e+01	-1.273593e+01
5.313280e+01	-1.278325e+01
5.343969e+01	-1.283067e+01
5.374836e+01	-1.287830e+01
5.405880e+01	-1.292499e+01
5.437105e+01	-1.297235e+01
5.468509e+01	-1.302070e+01
5.500095e+01	-1.306801e+01
5.531863e+01	-1.311532e+01
5.563815e+01	-1.316306e+01
5.595951e+01	-1.321096e+01
5.628273e+01	-1.325857e+01
5.660782e+01	-1.330585e+01
5.693479e+01	-1.335396e+01
5.726364e+01	-1.340110e+01
5.759439e+01	-1.344879e+01
5.792705e+01	-1.349755e+01
5.826164e+01	-1.354512e+01
5.859815e+01	-1.359317e+01
5.893662e+01	-1.363962e+01
5.927703e+01	-1.368894e+01
5.961941e+01	-1.373645e+01
5.996377e+01	-1.378397e+01
6.031012e+01	-1.383208e+01
6.065847e+01	-1.388051e+01
6.100883e+01	-1.392832e+01
6.136121e+01	-1.397743e+01
6.171563e+01	-1.402359e+01
6.207210e+01	-1.407230e+01
6.243063e+01	-1.412075e+01
6.279122e+01	-1.416762e+01
6.315390e+01	-1.421690e+01
6.351868e+01	-1.426423e+01
6.388556e+01	-1.431284e+01
6.425456e+01	-1.436062e+01
6.462569e+01	-1.440862e+01
6.499897e+01	-1.445700e+01
6.537440e+01	-1.450605e+01
6.575200e+01	-1.455472e+01
6.613178e+01	-1.460184e+01
6.651375e+01	-1.465069e+01
6.689793e+01	-1.469851e+01
6.728433e+01	-1.474689e+01
6.767297e+01	-1.479585e+01
6.806384e+01	-1.484403e+01
6.845698e+01	-1.489191e+01
6.885238e+01	-1.493996e+01
6.925007e+01	-1.498920e+01
6.965005e+01	-1.503792e+01
7.005235e+01	-1.508615e+01
7.045697e+01	-1.513491e+01
7.086393e+01	-1.518417e+01
7.127323e+01	-1.523224e+01
7.168490e+01	-1.528041e+01
7.209895e+01	-1.532863e+01
7.251539e+01	-1.537680e+01
7.293424e+01	-1.542581e+01
7.335551e+01	-1.547366e+01
7.377920e+01	-1.552311e+01
7.420535e+01	-1.557258e+01
7.463396e+01	-1.562127e+01
7.506504e+01	-1.566891e+01
7.549861e+01	-1.571716e+01
7.593469e+01	-1.576645e+01
7.637328e+01	-1.581559e+01
7.681441e+01	-1.586344e+01
7.725809e+01	-1.591186e+01
7.770433e+01	-1.596125e+01
7.815315e+01	-1.600931e+01
7.860456e+01	-1.605949e+01
7.905857e+01	-1.610859e+01
7.951521e+01	-1.615657e+01
7.997449e+01	-1.620459e+01
8.043642e+01	-1.625431e+01
8.090102e+01	-1.630335e+01
8.136830e+01	-1.635168e+01
8.183828e+01	-1.640053e+01
8.231097e+01	-1.644970e+01
8.278640e+01	-1.649912e+01
8.326457e+01	-1.654694e+01
8.374550e+01	-1.659588e+01
8.422921e+01	-1.664567e+01
8.471572e+01	-1.669547e+01
8.520503e+01	-1.674358e+01
8.569717e+01	-1.679259e+01
8.619215e+01	-1.683993e+01
8.669000e+01	-1.689136e+01
8.719071e+01	-1.694007e+01
8.769432e+01	-1.698877e+01
8.820084e+01	-1.703671e+01
8.871029e+01	-1.708489e+01
8.922267e+01	-1.713576e+01
8.973802e+01	-1.718458e+01
9.025634e+01	-1.723453e+01
9.077766e+01	-1.728286e+01
9.130199e+01	-1.733162e+01
9.182935e+01	-1.738069e+01
9.235975e+01	-1.742901e+01
9.289321e+01	-1.748021e+01
9.342976e+01	-1.752798e+01
9.396941e+01	-1.757802e+01
9.451217e+01	-1.762600e+01
9.505807e+01	-1.767631e+01
9.560712e+01	-1.772599e+01
9.615934e+01	-1.777475e+01
9.671476e+01	-1.782268e+01
9.727338e+01	-1.787324e+01
9.783522e+01	-1.792197e+01
9.840032e+01	-1.797081e+01
9.896867e+01	-1.801975e+01
9.954031e+01	-1.806969e+01
1.001153e+02	-1.811910e+01
1.006935e+02	-1.816756e+01
1.012751e+02	-1.821694e+01
1.018601e+02	-1.826621e+01
1.024484e+02	-1.831499e+01
1.030402e+02	-1.836498e+01
1.036353e+02	-1.841432e+01
1.042339e+02	-1.846319e+01
1.048360e+02	-1.851330e+01
1.054415e+02	-1.856131e+01
1.060505e+02	-1.861307e+01
1.066631e+02	-1.866123e+01
1.072791e+02	-1.871098e+01
1.078988e+02	-1.876009e+01
1.085220e+02	-1.880876e+01
1.091488e+02	-1.885834e+01
1.097793e+02	-1.890873e+01
1.104133e+02	-1.895799e+01
1.110511e+02	-1.900631e+01
1.116925e+02	-1.905531e+01
1.123376e+02	-1.910490e+01
1.129865e+02	-1.915466e+01
1.136391e+02	-1.920440e+01
1.142955e+02	-1.925453e+01
1.149556e+02	-1.930268e+01
1.156196e+02	-1.935272e+01
1.162874e+02	-1.940376e+01
1.169591e+02	-1.945138e+01
1.176347e+02	-1.950273e+01
1.183141e+02	-1.955129e+01
1.189975e+02	-1.959949e+01
1.196848e+02	-1.964972e+01
1.203761e+02	-1.969931e+01
1.210714e+02	-1.974774e+01
1.217707e+02	-1.979755e+01
1.224740e+02	-1.984743e+01
1.231814e+02	-1.989605e+01
1.238929e+02	-1.994683e+01
1.246085e+02	-1.999687e+01
1.253283e+02	-2.004538e+01
1.260522e+02	-2.009658e+01
1.267802e+02	-2.014407e+01
1.275125e+02	-2.019491e+01
1.282490e+02	-2.024287e+01
1.289898e+02	-2.029375e+01
1.297348e+02	-2.034233e+01
1.304842e+02	-2.039361e+01
1.312378e+02	-2.044302e+01
1.319959e+02	-2.049197e+01
1.327583e+02	-2.054156e+01
1.335251e+02	-2.059033e+01
1.342963e+02	-2.064097e+01
1.350720e+02	-2.069025e+01
1.358522e+02	-2.074025e+01
1.366368e+02	-2.078883e+01
1.374260e+02	-2.083883e+01
1.382198e+02	-2.088835e+01
1.390182e+02	-2.093904e+01
1.398211e+02	-2.098792e+01
1.406287e+02	-2.103702e+01
1.414410e+02	-2.108596e+01
1.422579e+02	-2.113655e+01
1.430796e+02	-2.118868e+01
1.439060e+02	-2.123742e+01
1.447372e+02	-2.128465e+01
1.455732e+02	-2.133402e+01
1.464141e+02	-2.138628e+01
1.472597e+02	-2.143646e+01
1.481103e+02	-2.148416e+01
1.489658e+02	-2.153398e+01
1.498262e+02	-2.158406e+01
1.506916e+02	-2.163446e+01
1.515620e+02	-2.168465e+01
1.524374e+02	-2.173331e+01
1.533179e+02	-2.177982e+01
1.542034e+02	-2.183474e+01
1.550941e+02	-2.188223e+01
1.559899e+02	-2.193213e+01
1.568909e+02	-2.198147e+01
1.577971e+02	-2.203295e+01
1.587085e+02	-2.208000e+01
1.596252e+02	-2.212951e+01
1.605472e+02	-2.217993e+01
1.614745e+02	-2.223057e+01
1.624072e+02	-2.227998e+01
1.633453e+02	-2.233105e+01
1.642887e+02	-2.238092e+01
1.652377e+02	-2.243067e+01
1.661921e+02	-2.247874e+01
1.671520e+02	-2.252975e+01
1.681175e+02	-2.257926e+01
1.690885e+02	-2.262961e+01
1.700651e+02	-2.267741e+01
1.710474e+02	-2.272755e+01
1.720354e+02	-2.277867e+01
1.730291e+02	-2.282695e+01
1.740285e+02	-2.287756e+01
1.750337e+02	-2.292846e+01
1.760446e+02	-2.297748e+01
1.770615e+02	-2.302722e+01
1.780842e+02	-2.307678e+01
1.791128e+02	-2.312807e+01
1.801473e+02	-2.317630e+01
1.811878e+02	-2.322494e+01
1.822344e+02	-2.327532e+01
1.832870e+02	-2.332481e+01
1.843456e+02	-2.337524e+01
1.854104e+02	-2.342691e+01
1.864813e+02	-2.347575e+01
1.875584e+02	-2.352325e+01
1.886418e+02	-2.357268e+01
1.897313e+02	-2.362481e+01
1.908272e+02	-2.367554e+01
1.919294e+02	-2.372822e+01
1.930380e+02	-2.377588e+01
1.941530e+02	-2.382407e+01
1.952744e+02	-2.387481e+01
1.964023e+02	-2.392420e+01
1.975367e+02	-2.397489e+01
1.986777e+02	-2.402342e+01
1.998252e+02	-2.407444e+01
2.009794e+02	-2.412134e+01
2.021403e+02	-2.417019e+01
2.033078e+02	-2.422359e+01
2.044821e+02	-2.427202e+01
2.056632e+02	-2.432464e+01
2.068511e+02	-2.437282e+01
2.080459e+02	-2.442327e+01
2.092475e+02	-2.447338e+01
2.104561e+02	-2.452423e+01
2.116717e+02	-2.457054e+01
2.128943e+02	-2.461979e+01
2.141240e+02	-2.467091e+01
2.153608e+02	-2.472339e+01
2.166047e+02	-2.477203e+01
2.178558e+02	-2.482162e+01
2.191141e+02	-2.487432e+01
2.203797e+02	-2.492087e+01
2.216526e+02	-2.497217e+01
2.229329e+02	-2.502318e+01
2.242205e+02	-2.507239e+01
2.255156e+02	-2.512086e+01
2.268182e+02	-2.517356e+01
2.281283e+02	-2.522036e+01
2.294459e+02	-2.526903e+01
2.307712e+02	-2.532265e+01
2.321041e+02	-2.537061e+01
2.334447e+02	-2.542213e+01
2.347931e+02	-2.547030e+01
2.361493e+02	-2.551836e+01
2.375133e+02	-2.556822e+01
2.388851e+02	-2.562011e+01
2.402649e+02	-2.567031e+01
2.416527e+02	-2.571991e+01
2.430484e+02	-2.577062e+01
2.444523e+02	-2.582325e+01
2.458642e+02	-2.586973e+01
2.472843e+02	-2.591824e+01
2.487126e+02	-2.597003e+01
2.501492e+02	-2.601943e+01
2.515940e+02	-2.606990e+01
2.530472e+02	-2.612004e+01
2.545088e+02	-2.617093e+01
2.559789e+02	-2.622031e+01
2.574574e+02	-2.626917e+01
2.589444e+02	-2.632172e+01
2.604401e+02	-2.636698e+01
2.619444e+02	-2.641910e+01
2.634574e+02	-2.647044e+01
2.649791e+02	-2.652007e+01
2.665096e+02	-2.656769e+01
2.680489e+02	-2.661944e+01
2.695972e+02	-2.666803e+01
2.711544e+02	-2.671922e+01
2.727205e+02	-2.677332e+01
2.742958e+02	-2.682156e+01
2.758801e+02	-2.686712e+01
2.774736e+02	-2.691894e+01
2.790762e+02	-2.696761e+01
2.806882e+02	-2.701903e+01
2.823094e+02	-2.707010e+01
2.839400e+02	-2.712161e+01
2.855800e+02	-2.716836e+01
2.872295e+02	-2.721743e+01
2.888886e+02	-2.727010e+01
2.905572e+02	-2.731640e+01
2.922354e+02	-2.736851e+01
2.939234e+02	-2.742212e+01
2.956211e+02	-2.746971e+01
2.973286e+02	-2.751776e+01
2.990459e+02	-2.757201e+01
3.007732e+02	-2.762000e+01
3.025104e+02	-2.766868e+01
3.042577e+02	-2.771756e+01
3.060151e+02	-2.776926e+01
3.077826e+02	-2.781973e+01
3.095604e+02	-2.786896e+01
3.113484e+02	-2.791714e+01
3.131467e+02	-2.797017e+01
3.149554e+02	-2.801729e+01
3.167746e+02	-2.807214e+01
3.186043e+02	-2.811916e+01
3.204445e+02	-2.816954e+01
3.222954e+02	-2.821874e+01
3.241570e+02	-2.826629e+01
3.260293e+02	-2.832373e+01
3.279124e+02	-2.836618e+01
3.298064e+02	-2.842313e+01
3.317114e+02	-2.847404e+01
3.336273e+02	-2.852082e+01
3.355544e+02	-2.857059e+01
3.374925e+02	-2.861956e+01
3.394418e+02	-2.866942e+01
3.414024e+02	-2.872527e+01
3.433744e+02	-2.877000e+01
3.453577e+02	-2.882300e+01
3.473525e+02	-2.887062e+01
3.493588e+02	-2.891711e+01
3.513766e+02	-2.897067e+01
3.534062e+02	-2.902039e+01
3.554474e+02	-2.906849e+01
3.575005e+02	-2.911954e+01
3.595654e+02	-2.917254e+01
3.616422e+02	-2.922189e+01
3.637311e+02	-2.927027e+01
3.658320e+02	-2.932563e+01
3.679450e+02	-2.936970e+01
3.700702e+02	-2.942231e+01
3.722077e+02	-2.946917e+01
3.743576e+02	-2.951891e+01
3.765199e+02	-2.957082e+01
3.786946e+02	-2.962195e+01
3.808820e+02	-2.966891e+01
3.830819e+02	-2.972634e+01
3.852946e+02	-2.976945e+01
3.875200e+02	-2.982322e+01
3.897583e+02	-2.987017e+01
3.920096e+02	-2.991655e+01
3.942738e+02	-2.997558e+01
3.965511e+02	-3.001966e+01
3.988416e+02	-3.007206e+01
4.011452e+02	-3.011629e+01
4.034622e+02	-3.017130e+01
4.057926e+02	-3.021805e+01
4.081365e+02	-3.026924e+01
4.104938e+02	-3.032112e+01
4.128648e+02	-3.037358e+01
4.152495e+02	-3.042667e+01
4.176480e+02	-3.047243e+01
4.200603e+02	-3.052400e+01
4.224866e+02	-3.057445e+01
4.249268e+02	-3.062218e+01
4.273812e+02	-3.067491e+01
4.298497e+02	-3.072529e+01
4.323325e+02	-3.077106e+01
4.348297e+02	-3.082340e+01
4.373412e+02	-3.087375e+01
4.398673e+02	-3.092061e+01
4.424079e+02	-3.097867e+01
4.449633e+02	-3.102303e+01
4.475334e+02	-3.107791e+01
4.501183e+02	-3.112263e+01
4.527182e+02	-3.117442e+01
4.553330e+02	-3.122547e+01
4.579630e+02	-3.127879e+01
4.606082e+02	-3.132296e+01
4.632687e+02	-3.137680e+01
4.659445e+02	-3.142752e+01
4.686358e+02	-3.147599e+01
4.713426e+02	-3.152463e+01
4.740650e+02	-3.158030e+01
4.768032e+02	-3.162543e+01
4.795572e+02	-3.168039e+01
4.823271e+02	-3.172547e+01
4.851130e+02	-3.177879e+01
4.879150e+02	-3.182678e+01
4.907332e+02	-3.188222e+01
4.935676e+02	-3.192813e+01
4.964185e+02	-3.198114e+01
4.992858e+02	-3.202469e+01
5.021696e+02	-3.207579e+01
5.050701e+02	-3.212687e+01
5.079874e+02	-3.218222e+01
5.109215e+02	-3.223355e+01
5.138726e+02	-3.227717e+01
5.168407e+02	-3.232574e+01
5.198259e+02	-3.237711e+01
5.228284e+02	-3.243657e+01
5.258482e+02	-3.248101e+01
5.288855e+02	-3.252934e+01
5.319403e+02	-3.258284e+01
5.350128e+02	-3.263357e+01
5.381030e+02	-3.268101e+01
5.412111e+02	-3.272836e+01
5.443371e+02	-3.278359e+01
5.474812e+02	-3.282388e+01
5.506434e+02	-3.288996e+01
5.538239e+02	-3.293723e+01
5.570228e+02	-3.298243e+01
5.602401e+02	-3.303166e+01
5.634760e+02	-3.308705e+01
5.667306e+02	-3.313216e+01
5.700040e+02	-3.318621e+01
5.732964e+02	-3.323326e+01
5.766077e+02	-3.328588e+01
5.799382e+02	-3.333299e+01
5.832879e+02	-3.338069e+01
5.866569e+02	-3.343152e+01
5.900454e+02	-3.348305e+01
5.934535e+02	-3.353045e+01
5.968813e+02	-3.358688e+01
6.003288e+02	-3.363874e+01
6.037963e+02	-3.368379e+01
6.072838e+02	-3.373444e+01
6.107914e+02	-3.378263e+01
6.143194e+02	-3.384131e+01
6.178676e+02	-3.388953e+01
6.214364e+02	-3.393679e+01
6.250258e+02	-3.399329e+01
6.286359e+02	-3.404131e+01
6.322669e+02	-3.409772e+01
6.359189e+02	-3.413565e+01
6.395919e+02	-3.418349e+01
6.432862e+02	-3.423356e+01
6.470017e+02	-3.428913e+01
6.507388e+02	-3.434706e+01
6.544974e+02	-3.439505e+01
6.582778e+02	-3.443601e+01
6.620800e+02	-3.448981e+01
6.659041e+02	-3.454416e+01
6.697504e+02	-3.459713e+01
6.736188e+02	-3.464115e+01
6.775096e+02	-3.469812e+01
6.814229e+02	-3.473984e+01
6.853587e+02	-3.480382e+01
6.893173e+02	-3.484517e+01
6.932988e+02	-3.488889e+01
6.973033e+02	-3.494647e+01
7.013309e+02	-3.499415e+01
