Frequency(Hz)	Magnitude(dB)
1.000000e+01	-1.751742e-05
1.005776e+01	-1.772037e-05
1.011585e+01	-1.792566e-05
1.017428e+01	-1.813333e-05
1.023305e+01	-1.834341e-05
1.029215e+01	-1.855593e-05
1.035160e+01	-1.877090e-05
1.041139e+01	-1.898837e-05
1.047153e+01	-1.920835e-05
1.053201e+01	-1.943089e-05
1.059284e+01	-1.965600e-05
1.065403e+01	-1.988372e-05
1.071556e+01	-2.011408e-05
1.077746e+01	-2.034710e-05
1.083971e+01	-2.058283e-05
1.090232e+01	-2.082129e-05
1.096529e+01	-2.106251e-05
1.102862e+01	-2.130652e-05
1.109232e+01	-2.155336e-05
1.115639e+01	-2.180306e-05
1.122083e+01	-2.205566e-05
1.128564e+01	-2.231118e-05
1.135083e+01	-2.256966e-05
1.141639e+01	-2.283113e-05
1.148233e+01	-2.309564e-05
1.154865e+01	-2.336321e-05
1.161536e+01	-2.363387e-05
1.168245e+01	-2.390768e-05
1.174992e+01	-2.418465e-05
1.181779e+01	-2.446484e-05
1.188605e+01	-2.474827e-05
1.195470e+01	-2.503499e-05
1.202375e+01	-2.532502e-05
1.209320e+01	-2.561842e-05
1.216305e+01	-2.591521e-05
1.223330e+01	-2.621545e-05
1.230396e+01	-2.651916e-05
1.237503e+01	-2.682639e-05
1.244651e+01	-2.713718e-05
1.251840e+01	-2.745157e-05
1.259070e+01	-2.776961e-05
1.266343e+01	-2.809132e-05
1.273657e+01	-2.841677e-05
1.281014e+01	-2.874598e-05
1.288413e+01	-2.907901e-05
1.295855e+01	-2.941590e-05
1.303339e+01	-2.975669e-05
1.310867e+01	-3.010143e-05
1.318439e+01	-3.045016e-05
1.326054e+01	-3.080293e-05
1.333713e+01	-3.115979e-05
1.341417e+01	-3.152079e-05
1.349165e+01	-3.188596e-05
1.356958e+01	-3.225537e-05
1.364795e+01	-3.262905e-05
1.372678e+01	-3.300707e-05
1.380607e+01	-3.338947e-05
1.388581e+01	-3.377629e-05
1.396602e+01	-3.416760e-05
1.404668e+01	-3.456344e-05
1.412782e+01	-3.496386e-05
1.420942e+01	-3.536893e-05
1.429149e+01	-3.577868e-05
1.437404e+01	-3.619319e-05
1.445706e+01	-3.661249e-05
1.454057e+01	-3.703666e-05
1.462455e+01	-3.746574e-05
1.470902e+01	-3.789979e-05
1.479398e+01	-3.833886e-05
1.487943e+01	-3.878303e-05
1.496537e+01	-3.923234e-05
1.505181e+01	-3.968685e-05
1.513875e+01	-4.014663e-05
1.522619e+01	-4.061174e-05
1.531414e+01	-4.108224e-05
1.540259e+01	-4.155819e-05
1.549156e+01	-4.203965e-05
1.558103e+01	-4.252668e-05
1.567103e+01	-4.301937e-05
1.576155e+01	-4.351775e-05
1.585258e+01	-4.402192e-05
1.594415e+01	-4.453192e-05
1.603624e+01	-4.504783e-05
1.612886e+01	-4.556972e-05
1.622202e+01	-4.609766e-05
1.631572e+01	-4.663171e-05
1.640996e+01	-4.717195e-05
1.650474e+01	-4.771844e-05
1.660008e+01	-4.827127e-05
1.669596e+01	-4.883051e-05
1.679239e+01	-4.939622e-05
1.688938e+01	-4.996848e-05
1.698694e+01	-5.054738e-05
1.708505e+01	-5.113298e-05
1.718373e+01	-5.172537e-05
1.728299e+01	-5.232462e-05
1.738281e+01	-5.293081e-05
1.748322e+01	-5.354402e-05
1.758420e+01	-5.416434e-05
1.768576e+01	-5.479185e-05
1.778792e+01	-5.542662e-05
1.789066e+01	-5.606875e-05
1.799399e+01	-5.671832e-05
1.809793e+01	-5.737541e-05
1.820246e+01	-5.804012e-05
1.830760e+01	-5.871252e-05
1.841334e+01	-5.939272e-05
1.851969e+01	-6.008080e-05
1.862666e+01	-6.077684e-05
1.873425e+01	-6.148096e-05
1.884246e+01	-6.219323e-05
1.895129e+01	-6.291375e-05
1.906075e+01	-6.364261e-05
1.917085e+01	-6.437993e-05
1.928158e+01	-6.512578e-05
1.939295e+01	-6.588027e-05
1.950496e+01	-6.664351e-05
1.961762e+01	-6.741559e-05
1.973093e+01	-6.819661e-05
1.984490e+01	-6.898668e-05
1.995952e+01	-6.978590e-05
2.007480e+01	-7.059439e-05
2.019076e+01	-7.141224e-05
2.030738e+01	-7.223956e-05
2.042467e+01	-7.307647e-05
2.054264e+01	-7.392307e-05
2.066130e+01	-7.477948e-05
2.078064e+01	-7.564582e-05
2.090066e+01	-7.652219e-05
2.102139e+01	-7.740871e-05
2.114280e+01	-7.830551e-05
2.126492e+01	-7.921269e-05
2.138775e+01	-8.013038e-05
2.151128e+01	-8.105870e-05
2.163553e+01	-8.199778e-05
2.176050e+01	-8.294774e-05
2.188619e+01	-8.390871e-05
2.201260e+01	-8.488080e-05
2.213974e+01	-8.586416e-05
2.226762e+01	-8.685891e-05
2.239624e+01	-8.786518e-05
2.252560e+01	-8.888312e-05
2.265571e+01	-8.991284e-05
2.278656e+01	-9.095450e-05
2.291818e+01	-9.200822e-05
2.305055e+01	-9.307415e-05
2.318369e+01	-9.415243e-05
2.331760e+01	-9.524320e-05
2.345228e+01	-9.634660e-05
2.358774e+01	-9.746279e-05
2.372398e+01	-9.859191e-05
2.386101e+01	-9.973412e-05
2.399883e+01	-1.008896e-04
2.413745e+01	-1.020584e-04
2.427686e+01	-1.032407e-04
2.441709e+01	-1.044368e-04
2.455812e+01	-1.056467e-04
2.469997e+01	-1.068706e-04
2.484263e+01	-1.081087e-04
2.498612e+01	-1.093612e-04
2.513044e+01	-1.106282e-04
2.527559e+01	-1.119098e-04
2.542158e+01	-1.132063e-04
2.556842e+01	-1.145178e-04
2.571610e+01	-1.158445e-04
2.586463e+01	-1.171866e-04
2.601403e+01	-1.185442e-04
2.616428e+01	-1.199176e-04
2.631541e+01	-1.213068e-04
2.646740e+01	-1.227122e-04
2.662028e+01	-1.241338e-04
2.677404e+01	-1.255719e-04
2.692868e+01	-1.270267e-04
2.708422e+01	-1.284983e-04
2.724066e+01	-1.299869e-04
2.739800e+01	-1.314929e-04
2.755625e+01	-1.330162e-04
2.771541e+01	-1.345572e-04
2.787550e+01	-1.361161e-04
2.803650e+01	-1.376930e-04
2.819844e+01	-1.392882e-04
2.836131e+01	-1.409019e-04
2.852513e+01	-1.425342e-04
2.868989e+01	-1.441855e-04
2.885560e+01	-1.458559e-04
2.902227e+01	-1.475456e-04
2.918990e+01	-1.492550e-04
2.935850e+01	-1.509841e-04
2.952807e+01	-1.527333e-04
2.969863e+01	-1.545027e-04
2.987016e+01	-1.562926e-04
3.004269e+01	-1.581033e-04
3.021622e+01	-1.599349e-04
3.039075e+01	-1.617878e-04
3.056628e+01	-1.636621e-04
3.074283e+01	-1.655581e-04
3.092040e+01	-1.674761e-04
3.109900e+01	-1.694163e-04
3.127862e+01	-1.713790e-04
3.145929e+01	-1.733645e-04
3.164099e+01	-1.753729e-04
3.182375e+01	-1.774046e-04
3.200756e+01	-1.794598e-04
3.219244e+01	-1.815389e-04
3.237838e+01	-1.836420e-04
3.256540e+01	-1.857695e-04
3.275349e+01	-1.879217e-04
3.294268e+01	-1.900988e-04
3.313295e+01	-1.923011e-04
3.332433e+01	-1.945289e-04
3.351681e+01	-1.967825e-04
3.371040e+01	-1.990622e-04
3.390511e+01	-2.013683e-04
3.410094e+01	-2.037012e-04
3.429791e+01	-2.060611e-04
3.449601e+01	-2.084483e-04
3.469526e+01	-2.108632e-04
3.489566e+01	-2.133060e-04
3.509721e+01	-2.157772e-04
3.529993e+01	-2.182769e-04
3.550382e+01	-2.208057e-04
3.570889e+01	-2.233637e-04
3.591515e+01	-2.259514e-04
3.612259e+01	-2.285690e-04
3.633123e+01	-2.312170e-04
3.654108e+01	-2.338956e-04
3.675214e+01	-2.366053e-04
3.696442e+01	-2.393464e-04
3.717792e+01	-2.421192e-04
3.739266e+01	-2.449241e-04
3.760864e+01	-2.477615e-04
3.782587e+01	-2.506318e-04
3.804435e+01	-2.535354e-04
3.826409e+01	-2.564726e-04
3.848510e+01	-2.594438e-04
3.870739e+01	-2.624494e-04
3.893096e+01	-2.654899e-04
3.915583e+01	-2.685656e-04
3.938199e+01	-2.716769e-04
3.960946e+01	-2.748242e-04
3.983824e+01	-2.780081e-04
4.006834e+01	-2.812288e-04
4.029978e+01	-2.844868e-04
4.053255e+01	-2.877825e-04
4.076666e+01	-2.911164e-04
4.100213e+01	-2.944890e-04
4.123896e+01	-2.979006e-04
4.147715e+01	-3.013518e-04
4.171672e+01	-3.048429e-04
4.195767e+01	-3.083744e-04
4.220002e+01	-3.119469e-04
4.244377e+01	-3.155608e-04
4.268892e+01	-3.192165e-04
4.293549e+01	-3.229146e-04
4.318348e+01	-3.266555e-04
4.343291e+01	-3.304397e-04
4.368377e+01	-3.342678e-04
4.393609e+01	-3.381403e-04
4.418986e+01	-3.420576e-04
4.444510e+01	-3.460202e-04
4.470182e+01	-3.500288e-04
4.496001e+01	-3.540838e-04
4.521970e+01	-3.581858e-04
4.548089e+01	-3.623353e-04
4.574358e+01	-3.665329e-04
4.600779e+01	-3.707791e-04
4.627353e+01	-3.750745e-04
4.654081e+01	-3.794197e-04
4.680963e+01	-3.838151e-04
4.708000e+01	-3.882615e-04
4.735193e+01	-3.927595e-04
4.762543e+01	-3.973095e-04
4.790051e+01	-4.019122e-04
4.817719e+01	-4.065683e-04
4.845545e+01	-4.112782e-04
4.873533e+01	-4.160428e-04
4.901682e+01	-4.208625e-04
4.929994e+01	-4.257381e-04
4.958470e+01	-4.306701e-04
4.987110e+01	-4.356593e-04
5.015915e+01	-4.407063e-04
5.044887e+01	-4.458117e-04
5.074026e+01	-4.509763e-04
5.103333e+01	-4.562007e-04
5.132810e+01	-4.614857e-04
5.162457e+01	-4.668318e-04
5.192275e+01	-4.722399e-04
5.222265e+01	-4.777106e-04
5.252429e+01	-4.832447e-04
5.282767e+01	-4.888429e-04
5.313280e+01	-4.945060e-04
5.343969e+01	-5.002347e-04
5.374836e+01	-5.060297e-04
5.405880e+01	-5.118918e-04
5.437105e+01	-5.178219e-04
5.468509e+01	-5.238206e-04
5.500095e+01	-5.298889e-04
5.531863e+01	-5.360274e-04
5.563815e+01	-5.422370e-04
5.595951e+01	-5.485186e-04
5.628273e+01	-5.548729e-04
5.660782e+01	-5.613009e-04
5.693479e+01	-5.678033e-04
5.726364e+01	-5.743810e-04
5.759439e+01	-5.810349e-04
5.792705e+01	-5.877659e-04
5.826164e+01	-5.945749e-04
5.859815e+01	-6.014627e-04
5.893662e+01	-6.084303e-04
5.927703e+01	-6.154787e-04
5.961941e+01	-6.226086e-04
5.996377e+01	-6.298212e-04
6.031012e+01	-6.371173e-04
6.065847e+01	-6.444980e-04
6.100883e+01	-6.519641e-04
6.136121e+01	-6.595167e-04
6.171563e+01	-6.671568e-04
6.207210e+01	-6.748854e-04
6.243063e+01	-6.827035e-04
6.279122e+01	-6.906122e-04
6.315390e+01	-6.986125e-04
6.351868e+01	-7.067054e-04
6.388556e+01	-7.148921e-04
6.425456e+01	-7.231737e-04
6.462569e+01	-7.315511e-04
6.499897e+01	-7.400256e-04
6.537440e+01	-7.485983e-04
6.575200e+01	-7.572703e-04
6.613178e+01	-7.660427e-04
6.651375e+01	-7.749167e-04
6.689793e+01	-7.838935e-04
6.728433e+01	-7.929743e-04
6.767297e+01	-8.021603e-04
6.806384e+01	-8.114526e-04
6.845698e+01	-8.208527e-04
6.885238e+01	-8.303616e-04
6.925007e+01	-8.399806e-04
6.965005e+01	-8.497110e-04
7.005235e+01	-8.595542e-04
7.045697e+01	-8.695114e-04
7.086393e+01	-8.795839e-04
7.127323e+01	-8.897731e-04
7.168490e+01	-9.000803e-04
7.209895e+01	-9.105068e-04
7.251539e+01	-9.210542e-04
7.293424e+01	-9.317237e-04
7.335551e+01	-9.425168e-04
7.377920e+01	-9.534349e-04
7.420535e+01	-9.644795e-04
7.463396e+01	-9.756520e-04
7.506504e+01	-9.869539e-04
7.549861e+01	-9.983867e-04
7.593469e+01	-1.009952e-03
7.637328e+01	-1.021651e-03
7.681441e+01	-1.033486e-03
7.725809e+01	-1.045458e-03
7.770433e+01	-1.057568e-03
7.815315e+01	-1.069819e-03
7.860456e+01	-1.082211e-03
7.905857e+01	-1.094748e-03
7.951521e+01	-1.107429e-03
7.997449e+01	-1.120257e-03
8.043642e+01	-1.133234e-03
8.090102e+01	-1.146361e-03
8.136830e+01	-1.159640e-03
8.183828e+01	-1.173073e-03
8.231097e+01	-1.186662e-03
8.278640e+01	-1.200407e-03
8.326457e+01	-1.214313e-03
8.374550e+01	-1.228379e-03
8.422921e+01	-1.242608e-03
8.471572e+01	-1.257002e-03
8.520503e+01	-1.271562e-03
8.569717e+01	-1.286291e-03
8.619215e+01	-1.301191e-03
8.669000e+01	-1.316264e-03
8.719071e+01	-1.331510e-03
8.769432e+01	-1.346934e-03
8.820084e+01	-1.362536e-03
8.871029e+01	-1.378319e-03
8.922267e+01	-1.394285e-03
8.973802e+01	-1.410435e-03
9.025634e+01	-1.426773e-03
9.077766e+01	-1.443300e-03
9.130199e+01	-1.460018e-03
9.182935e+01	-1.476930e-03
9.235975e+01	-1.494037e-03
9.289321e+01	-1.511343e-03
9.342976e+01	-1.528849e-03
9.396941e+01	-1.546558e-03
9.451217e+01	-1.564472e-03
9.505807e+01	-1.582594e-03
9.560712e+01	-1.600925e-03
9.615934e+01	-1.619469e-03
9.671476e+01	-1.638227e-03
9.727338e+01	-1.657203e-03
9.783522e+01	-1.676399e-03
9.840032e+01	-1.695816e-03
9.896867e+01	-1.715459e-03
9.954031e+01	-1.735329e-03
1.001153e+02	-1.755429e-03
1.006935e+02	-1.775762e-03
1.012751e+02	-1.796330e-03
1.018601e+02	-1.817137e-03
1.024484e+02	-1.838185e-03
1.030402e+02	-1.859476e-03
1.036353e+02	-1.881014e-03
1.042339e+02	-1.902801e-03
1.048360e+02	-1.924841e-03
1.054415e+02	-1.947135e-03
1.060505e+02	-1.969688e-03
1.066631e+02	-1.992503e-03
1.072791e+02	-2.015581e-03
1.078988e+02	-2.038926e-03
1.085220e+02	-2.062542e-03
1.091488e+02	-2.086432e-03
1.097793e+02	-2.110598e-03
1.104133e+02	-2.135043e-03
1.110511e+02	-2.159772e-03
1.116925e+02	-2.184788e-03
1.123376e+02	-2.210093e-03
1.129865e+02	-2.235690e-03
1.136391e+02	-2.261585e-03
1.142955e+02	-2.287779e-03
1.149556e+02	-2.314276e-03
1.156196e+02	-2.341081e-03
1.162874e+02	-2.368195e-03
1.169591e+02	-2.395624e-03
1.176347e+02	-2.423370e-03
1.183141e+02	-2.451438e-03
1.189975e+02	-2.479830e-03
1.196848e+02	-2.508551e-03
1.203761e+02	-2.537605e-03
1.210714e+02	-2.566995e-03
1.217707e+02	-2.596725e-03
1.224740e+02	-2.626800e-03
1.231814e+02	-2.657223e-03
1.238929e+02	-2.687998e-03
1.246085e+02	-2.719129e-03
1.253283e+02	-2.750621e-03
1.260522e+02	-2.782478e-03
1.267802e+02	-2.814703e-03
1.275125e+02	-2.847301e-03
1.282490e+02	-2.880277e-03
1.289898e+02	-2.913635e-03
1.297348e+02	-2.947378e-03
1.304842e+02	-2.981513e-03
1.312378e+02	-3.016043e-03
1.319959e+02	-3.050972e-03
1.327583e+02	-3.086306e-03
1.335251e+02	-3.122048e-03
1.342963e+02	-3.158205e-03
1.350720e+02	-3.194780e-03
1.358522e+02	-3.231779e-03
1.366368e+02	-3.269206e-03
1.374260e+02	-3.307066e-03
1.382198e+02	-3.345364e-03
1.390182e+02	-3.384106e-03
1.398211e+02	-3.423296e-03
1.406287e+02	-3.462940e-03
1.414410e+02	-3.503043e-03
1.422579e+02	-3.543610e-03
1.430796e+02	-3.584647e-03
1.439060e+02	-3.626159e-03
1.447372e+02	-3.668151e-03
1.455732e+02	-3.710629e-03
1.464141e+02	-3.753599e-03
1.472597e+02	-3.797067e-03
1.481103e+02	-3.841037e-03
1.489658e+02	-3.885517e-03
1.498262e+02	-3.930511e-03
1.506916e+02	-3.976026e-03
1.515620e+02	-4.022068e-03
1.524374e+02	-4.068643e-03
1.533179e+02	-4.115757e-03
1.542034e+02	-4.163416e-03
1.550941e+02	-4.211627e-03
1.559899e+02	-4.260395e-03
1.568909e+02	-4.309729e-03
1.577971e+02	-4.359633e-03
1.587085e+02	-4.410115e-03
1.596252e+02	-4.461181e-03
1.605472e+02	-4.512838e-03
1.614745e+02	-4.565093e-03
1.624072e+02	-4.617952e-03
1.633453e+02	-4.671424e-03
1.642887e+02	-4.725514e-03
1.652377e+02	-4.780230e-03
1.661921e+02	-4.835579e-03
1.671520e+02	-4.891569e-03
1.681175e+02	-4.948207e-03
1.690885e+02	-5.005500e-03
1.700651e+02	-5.063456e-03
1.710474e+02	-5.122083e-03
1.720354e+02	-5.181388e-03
1.730291e+02	-5.241379e-03
1.740285e+02	-5.302065e-03
1.750337e+02	-5.363453e-03
1.760446e+02	-5.425551e-03
1.770615e+02	-5.488368e-03
1.780842e+02	-5.551911e-03
1.791128e+02	-5.616190e-03
1.801473e+02	-5.681212e-03
1.811878e+02	-5.746987e-03
1.822344e+02	-5.813522e-03
1.832870e+02	-5.880828e-03
1.843456e+02	-5.948912e-03
1.854104e+02	-6.017784e-03
1.864813e+02	-6.087452e-03
1.875584e+02	-6.157927e-03
1.886418e+02	-6.229217e-03
1.897313e+02	-6.301331e-03
1.908272e+02	-6.374280e-03
1.919294e+02	-6.448073e-03
1.930380e+02	-6.522719e-03
1.941530e+02	-6.598229e-03
1.952744e+02	-6.674612e-03
1.964023e+02	-6.751879e-03
1.975367e+02	-6.830040e-03
1.986777e+02	-6.909104e-03
1.998252e+02	-6.989084e-03
2.009794e+02	-7.069988e-03
2.021403e+02	-7.151828e-03
2.033078e+02	-7.234614e-03
2.044821e+02	-7.318358e-03
2.056632e+02	-7.403071e-03
2.068511e+02	-7.488763e-03
2.080459e+02	-7.575447e-03
2.092475e+02	-7.663133e-03
2.104561e+02	-7.751832e-03
2.116717e+02	-7.841558e-03
2.128943e+02	-7.932321e-03
2.141240e+02	-8.024134e-03
2.153608e+02	-8.117009e-03
2.166047e+02	-8.210957e-03
2.178558e+02	-8.305992e-03
2.191141e+02	-8.402126e-03
2.203797e+02	-8.499371e-03
2.216526e+02	-8.597741e-03
2.229329e+02	-8.697248e-03
2.242205e+02	-8.797905e-03
2.255156e+02	-8.899726e-03
2.268182e+02	-9.002725e-03
2.281283e+02	-9.106914e-03
2.294459e+02	-9.212308e-03
2.307712e+02	-9.318920e-03
2.321041e+02	-9.426764e-03
2.334447e+02	-9.535855e-03
2.347931e+02	-9.646208e-03
2.361493e+02	-9.757836e-03
2.375133e+02	-9.870754e-03
2.388851e+02	-9.984977e-03
2.402649e+02	-1.010052e-02
2.416527e+02	-1.021740e-02
2.430484e+02	-1.033563e-02
2.444523e+02	-1.045523e-02
2.458642e+02	-1.057620e-02
2.472843e+02	-1.069858e-02
2.487126e+02	-1.082237e-02
2.501492e+02	-1.094759e-02
2.515940e+02	-1.107426e-02
2.530472e+02	-1.120239e-02
2.545088e+02	-1.133201e-02
2.559789e+02	-1.146312e-02
2.574574e+02	-1.159574e-02
2.589444e+02	-1.172990e-02
2.604401e+02	-1.186561e-02
2.619444e+02	-1.200288e-02
2.634574e+02	-1.214174e-02
2.649791e+02	-1.228221e-02
2.665096e+02	-1.242430e-02
2.680489e+02	-1.256803e-02
2.695972e+02	-1.271342e-02
2.711544e+02	-1.286049e-02
2.727205e+02	-1.300926e-02
2.742958e+02	-1.315974e-02
2.758801e+02	-1.331197e-02
2.774736e+02	-1.346595e-02
2.790762e+02	-1.362171e-02
2.806882e+02	-1.377927e-02
2.823094e+02	-1.393865e-02
2.839400e+02	-1.409987e-02
2.855800e+02	-1.426295e-02
2.872295e+02	-1.442792e-02
2.888886e+02	-1.459478e-02
2.905572e+02	-1.476358e-02
2.922354e+02	-1.493433e-02
2.939234e+02	-1.510704e-02
2.956211e+02	-1.528175e-02
2.973286e+02	-1.545848e-02
2.990459e+02	-1.563725e-02
3.007732e+02	-1.581808e-02
3.025104e+02	-1.600099e-02
3.042577e+02	-1.618602e-02
3.060151e+02	-1.637319e-02
3.077826e+02	-1.656251e-02
3.095604e+02	-1.675402e-02
3.113484e+02	-1.694774e-02
3.131467e+02	-1.714370e-02
3.149554e+02	-1.734191e-02
3.167746e+02	-1.754242e-02
3.186043e+02	-1.774523e-02
3.204445e+02	-1.795039e-02
3.222954e+02	-1.815791e-02
3.241570e+02	-1.836783e-02
3.260293e+02	-1.858017e-02
3.279124e+02	-1.879496e-02
3.298064e+02	-1.901223e-02
3.317114e+02	-1.923200e-02
3.336273e+02	-1.945430e-02
3.355544e+02	-1.967918e-02
3.374925e+02	-1.990664e-02
3.394418e+02	-2.013673e-02
3.414024e+02	-2.036947e-02
3.433744e+02	-2.060489e-02
3.453577e+02	-2.084303e-02
3.473525e+02	-2.108391e-02
3.493588e+02	-2.132757e-02
3.513766e+02	-2.157404e-02
3.534062e+02	-2.182335e-02
3.554474e+02	-2.207554e-02
3.575005e+02	-2.233063e-02
3.595654e+02	-2.258866e-02
3.616422e+02	-2.284967e-02
3.637311e+02	-2.311368e-02
3.658320e+02	-2.338073e-02
3.679450e+02	-2.365086e-02
3.700702e+02	-2.392411e-02
3.722077e+02	-2.420050e-02
3.743576e+02	-2.448008e-02
3.765199e+02	-2.476287e-02
3.786946e+02	-2.504893e-02
3.808820e+02	-2.533828e-02
3.830819e+02	-2.563096e-02
3.852946e+02	-2.592701e-02
3.875200e+02	-2.622647e-02
3.897583e+02	-2.652938e-02
3.920096e+02	-2.683578e-02
3.942738e+02	-2.714571e-02
3.965511e+02	-2.745920e-02
3.988416e+02	-2.777630e-02
4.011452e+02	-2.809705e-02
4.034622e+02	-2.842149e-02
4.057926e+02	-2.874967e-02
4.081365e+02	-2.908163e-02
4.104938e+02	-2.941740e-02
4.128648e+02	-2.975704e-02
4.152495e+02	-3.010058e-02
4.176480e+02	-3.044808e-02
4.200603e+02	-3.079957e-02
4.224866e+02	-3.115511e-02
4.249268e+02	-3.151474e-02
4.273812e+02	-3.187850e-02
4.298497e+02	-3.224645e-02
4.323325e+02	-3.261862e-02
4.348297e+02	-3.299508e-02
4.373412e+02	-3.337586e-02
4.398673e+02	-3.376102e-02
4.424079e+02	-3.415061e-02
4.449633e+02	-3.454468e-02
4.475334e+02	-3.494327e-02
4.501183e+02	-3.534645e-02
4.527182e+02	-3.575426e-02
4.553330e+02	-3.616675e-02
4.579630e+02	-3.658398e-02
4.606082e+02	-3.700601e-02
4.632687e+02	-3.743288e-02
4.659445e+02	-3.786465e-02
4.686358e+02	-3.830139e-02
4.713426e+02	-3.874313e-02
4.740650e+02	-3.918995e-02
4.768032e+02	-3.964190e-02
4.795572e+02	-4.009904e-02
4.823271e+02	-4.056142e-02
4.851130e+02	-4.102911e-02
4.879150e+02	-4.150217e-02
4.907332e+02	-4.198065e-02
4.935676e+02	-4.246463e-02
4.964185e+02	-4.295415e-02
4.992858e+02	-4.344929e-02
5.021696e+02	-4.395011e-02
5.050701e+02	-4.445668e-02
5.079874e+02	-4.496905e-02
5.109215e+02	-4.548729e-02
5.138726e+02	-4.601148e-02
5.168407e+02	-4.654167e-02
5.198259e+02	-4.707794e-02
5.228284e+02	-4.762035e-02
5.258482e+02	-4.816898e-02
5.288855e+02	-4.872390e-02
5.319403e+02	-4.928517e-02
5.350128e+02	-4.985287e-02
5.381030e+02	-5.042707e-02
5.412111e+02	-5.100784e-02
5.443371e+02	-5.159527e-02
5.474812e+02	-5.218941e-02
5.506434e+02	-5.279036e-02
5.538239e+02	-5.339819e-02
5.570228e+02	-5.401297e-02
5.602401e+02	-5.463478e-02
5.634760e+02	-5.526371e-02
5.667306e+02	-5.589983e-02
5.700040e+02	-5.654322e-02
5.732964e+02	-5.719397e-02
5.766077e+02	-5.785216e-02
5.799382e+02	-5.851787e-02
5.832879e+02	-5.919119e-02
5.866569e+02	-5.987221e-02
5.900454e+02	-6.056100e-02
5.934535e+02	-6.125766e-02
5.968813e+02	-6.196228e-02
6.003288e+02	-6.267495e-02
6.037963e+02	-6.339575e-02
6.072838e+02	-6.412478e-02
6.107914e+02	-6.486213e-02
6.143194e+02	-6.560790e-02
6.178676e+02	-6.636218e-02
6.214364e+02	-6.712505e-02
6.250258e+02	-6.789664e-02
6.286359e+02	-6.867701e-02
6.322669e+02	-6.946629e-02
6.359189e+02	-7.026457e-02
6.395919e+02	-7.107194e-02
6.432862e+02	-7.188851e-02
6.470017e+02	-7.271438e-02
6.507388e+02	-7.354967e-02
6.544974e+02	-7.439446e-02
6.582778e+02	-7.524888e-02
6.620800e+02	-7.611302e-02
6.659041e+02	-7.698699e-02
6.697504e+02	-7.787091e-02
6.736188e+02	-7.876489e-02
6.775096e+02	-7.966904e-02
6.814229e+02	-8.058347e-02
6.853587e+02	-8.150829e-02
6.893173e+02	-8.244363e-02
6.932988e+02	-8.338960e-02
6.973033e+02	-8.434632e-02
7.013309e+02	-8.531390e-02
