Frequency(Hz)	Magnitude(dB)
1.000000e+01	-2.141162e+00
1.005776e+01	-2.160902e+00
1.011585e+01	-2.180353e+00
1.017428e+01	-2.200294e+00
1.023305e+01	-2.220287e+00
1.029215e+01	-2.240475e+00
1.035160e+01	-2.260548e+00
1.041139e+01	-2.281007e+00
1.047153e+01	-2.301358e+00
1.053201e+01	-2.321943e+00
1.059284e+01	-2.343121e+00
1.065403e+01	-2.363729e+00
1.071556e+01	-2.384900e+00
1.077746e+01	-2.406014e+00
1.083971e+01	-2.427443e+00
1.090232e+01	-2.449043e+00
1.096529e+01	-2.470437e+00
1.102862e+01	-2.492161e+00
1.109232e+01	-2.514322e+00
1.115639e+01	-2.536257e+00
1.122083e+01	-2.558808e+00
1.128564e+01	-2.580742e+00
1.135083e+01	-2.603450e+00
1.141639e+01	-2.625980e+00
1.148233e+01	-2.648686e+00
1.154865e+01	-2.671558e+00
1.161536e+01	-2.694766e+00
1.168245e+01	-2.717803e+00
1.174992e+01	-2.741224e+00
1.181779e+01	-2.764328e+00
1.188605e+01	-2.788216e+00
1.195470e+01	-2.811912e+00
1.202375e+01	-2.835914e+00
1.209320e+01	-2.860014e+00
1.216305e+01	-2.884149e+00
1.223330e+01	-2.908647e+00
1.230396e+01	-2.933104e+00
1.237503e+01	-2.957822e+00
1.244651e+01	-2.982634e+00
1.251840e+01	-3.007244e+00
1.259070e+01	-3.032540e+00
1.266343e+01	-3.057573e+00
1.273657e+01	-3.083004e+00
1.281014e+01	-3.108761e+00
1.288413e+01	-3.134331e+00
1.295855e+01	-3.159908e+00
1.303339e+01	-3.185896e+00
1.310867e+01	-3.212130e+00
1.318439e+01	-3.238302e+00
1.326054e+01	-3.264547e+00
1.333713e+01	-3.291221e+00
1.341417e+01	-3.317731e+00
1.349165e+01	-3.344530e+00
1.356958e+01	-3.371702e+00
1.364795e+01	-3.398335e+00
1.372678e+01	-3.425854e+00
1.380607e+01	-3.453225e+00
1.388581e+01	-3.480604e+00
1.396602e+01	-3.508419e+00
1.404668e+01	-3.536099e+00
1.412782e+01	-3.564169e+00
1.420942e+01	-3.592150e+00
1.429149e+01	-3.620318e+00
1.437404e+01	-3.648718e+00
1.445706e+01	-3.677012e+00
1.454057e+01	-3.705704e+00
1.462455e+01	-3.734664e+00
1.470902e+01	-3.763715e+00
1.479398e+01	-3.792462e+00
1.487943e+01	-3.821947e+00
1.496537e+01	-3.850994e+00
1.505181e+01	-3.880738e+00
1.513875e+01	-3.910342e+00
1.522619e+01	-3.940022e+00
1.531414e+01	-3.969766e+00
1.540259e+01	-4.000029e+00
1.549156e+01	-4.030058e+00
1.558103e+01	-4.060573e+00
1.567103e+01	-4.090850e+00
1.576155e+01	-4.121302e+00
1.585258e+01	-4.152407e+00
1.594415e+01	-4.183065e+00
1.603624e+01	-4.214118e+00
1.612886e+01	-4.245217e+00
1.622202e+01	-4.276586e+00
1.631572e+01	-4.308165e+00
1.640996e+01	-4.339236e+00
1.650474e+01	-4.371393e+00
1.660008e+01	-4.403016e+00
1.669596e+01	-4.435262e+00
1.679239e+01	-4.466875e+00
1.688938e+01	-4.499212e+00
1.698694e+01	-4.531440e+00
1.708505e+01	-4.564071e+00
1.718373e+01	-4.596689e+00
1.728299e+01	-4.629210e+00
1.738281e+01	-4.662125e+00
1.748322e+01	-4.695137e+00
1.758420e+01	-4.728218e+00
1.768576e+01	-4.761511e+00
1.778792e+01	-4.794790e+00
1.789066e+01	-4.828572e+00
1.799399e+01	-4.861984e+00
1.809793e+01	-4.896041e+00
1.820246e+01	-4.929579e+00
1.830760e+01	-4.963746e+00
1.841334e+01	-4.997677e+00
1.851969e+01	-5.032245e+00
1.862666e+01	-5.066592e+00
1.873425e+01	-5.101209e+00
1.884246e+01	-5.135702e+00
1.895129e+01	-5.170695e+00
1.906075e+01	-5.205428e+00
1.917085e+01	-5.240292e+00
1.928158e+01	-5.275219e+00
1.939295e+01	-5.310461e+00
1.950496e+01	-5.345922e+00
1.961762e+01	-5.381218e+00
1.973093e+01	-5.417063e+00
1.984490e+01	-5.452689e+00
1.995952e+01	-5.488570e+00
2.007480e+01	-5.524408e+00
2.019076e+01	-5.560573e+00
2.030738e+01	-5.596735e+00
2.042467e+01	-5.633161e+00
2.054264e+01	-5.669332e+00
2.066130e+01	-5.705987e+00
2.078064e+01	-5.742495e+00
2.090066e+01	-5.779380e+00
2.102139e+01	-5.816047e+00
2.114280e+01	-5.853492e+00
2.126492e+01	-5.890268e+00
2.138775e+01	-5.927652e+00
2.151128e+01	-5.964882e+00
2.163553e+01	-6.002146e+00
2.176050e+01	-6.039857e+00
2.188619e+01	-6.077270e+00
2.201260e+01	-6.115225e+00
2.213974e+01	-6.153187e+00
2.226762e+01	-6.190877e+00
2.239624e+01	-6.229064e+00
2.252560e+01	-6.267144e+00
2.265571e+01	-6.305751e+00
2.278656e+01	-6.343864e+00
2.291818e+01	-6.382385e+00
2.305055e+01	-6.420601e+00
2.318369e+01	-6.459403e+00
2.331760e+01	-6.498363e+00
2.345228e+01	-6.537144e+00
2.358774e+01	-6.575948e+00
2.372398e+01	-6.615364e+00
2.386101e+01	-6.654332e+00
2.399883e+01	-6.693638e+00
2.413745e+01	-6.732556e+00
2.427686e+01	-6.772298e+00
2.441709e+01	-6.812331e+00
2.455812e+01	-6.851689e+00
2.469997e+01	-6.891304e+00
2.484263e+01	-6.930979e+00
2.498612e+01	-6.971022e+00
2.513044e+01	-7.011100e+00
2.527559e+01	-7.051249e+00
2.542158e+01	-7.091590e+00
2.556842e+01	-7.131801e+00
2.571610e+01	-7.171993e+00
2.586463e+01	-7.212856e+00
2.601403e+01	-7.253370e+00
2.616428e+01	-7.293700e+00
2.631541e+01	-7.334426e+00
2.646740e+01	-7.375296e+00
2.662028e+01	-7.416337e+00
2.677404e+01	-7.457506e+00
2.692868e+01	-7.497999e+00
2.708422e+01	-7.539669e+00
2.724066e+01	-7.581018e+00
2.739800e+01	-7.622316e+00
2.755625e+01	-7.663666e+00
2.771541e+01	-7.704986e+00
2.787550e+01	-7.746610e+00
2.803650e+01	-7.788425e+00
2.819844e+01	-7.830284e+00
2.836131e+01	-7.871693e+00
2.852513e+01	-7.913454e+00
2.868989e+01	-7.955324e+00
2.885560e+01	-7.998100e+00
2.902227e+01	-8.040308e+00
2.918990e+01	-8.081888e+00
2.935850e+01	-8.124231e+00
2.952807e+01	-8.166902e+00
2.969863e+01	-8.209224e+00
2.987016e+01	-8.251586e+00
3.004269e+01	-8.294413e+00
3.021622e+01	-8.336968e+00
3.039075e+01	-8.379279e+00
3.056628e+01	-8.422839e+00
3.074283e+01	-8.465703e+00
3.092040e+01	-8.507901e+00
3.109900e+01	-8.551342e+00
3.127862e+01	-8.594267e+00
3.145929e+01	-8.637416e+00
3.164099e+01	-8.680926e+00
3.182375e+01	-8.724218e+00
3.200756e+01	-8.767162e+00
3.219244e+01	-8.810777e+00
3.237838e+01	-8.854485e+00
3.256540e+01	-8.897852e+00
3.275349e+01	-8.941603e+00
3.294268e+01	-8.985016e+00
3.313295e+01	-9.028780e+00
3.332433e+01	-9.072616e+00
3.351681e+01	-9.116162e+00
3.371040e+01	-9.160552e+00
3.390511e+01	-9.204162e+00
3.410094e+01	-9.248243e+00
3.429791e+01	-9.292489e+00
3.449601e+01	-9.336663e+00
3.469526e+01	-9.380883e+00
3.489566e+01	-9.425561e+00
3.509721e+01	-9.469752e+00
3.529993e+01	-9.514107e+00
3.550382e+01	-9.558034e+00
3.570889e+01	-9.602934e+00
3.591515e+01	-9.647142e+00
3.612259e+01	-9.692115e+00
3.633123e+01	-9.736271e+00
3.654108e+01	-9.781617e+00
3.675214e+01	-9.826509e+00
3.696442e+01	-9.871370e+00
3.717792e+01	-9.916166e+00
3.739266e+01	-9.960819e+00
3.760864e+01	-1.000612e+01
3.782587e+01	-1.005088e+01
3.804435e+01	-1.009614e+01
3.826409e+01	-1.014162e+01
3.848510e+01	-1.018686e+01
3.870739e+01	-1.023180e+01
3.893096e+01	-1.027768e+01
3.915583e+01	-1.032265e+01
3.938199e+01	-1.036769e+01
3.960946e+01	-1.041367e+01
3.983824e+01	-1.045844e+01
4.006834e+01	-1.050483e+01
4.029978e+01	-1.055033e+01
4.053255e+01	-1.059531e+01
4.076666e+01	-1.064151e+01
4.100213e+01	-1.068699e+01
4.123896e+01	-1.073287e+01
4.147715e+01	-1.077865e+01
4.171672e+01	-1.082492e+01
4.195767e+01	-1.087077e+01
4.220002e+01	-1.091708e+01
4.244377e+01	-1.096252e+01
4.268892e+01	-1.100816e+01
4.293549e+01	-1.105442e+01
4.318348e+01	-1.110047e+01
4.343291e+01	-1.114715e+01
4.368377e+01	-1.119260e+01
4.393609e+01	-1.123890e+01
4.418986e+01	-1.128561e+01
4.444510e+01	-1.133146e+01
4.470182e+01	-1.137820e+01
4.496001e+01	-1.142469e+01
4.521970e+01	-1.147078e+01
4.548089e+01	-1.151699e+01
4.574358e+01	-1.156429e+01
4.600779e+01	-1.161084e+01
4.627353e+01	-1.165730e+01
4.654081e+01	-1.170378e+01
4.680963e+01	-1.175038e+01
4.708000e+01	-1.179727e+01
4.735193e+01	-1.184352e+01
4.762543e+01	-1.189064e+01
4.790051e+01	-1.193756e+01
4.817719e+01	-1.198378e+01
4.845545e+01	-1.203103e+01
4.873533e+01	-1.207775e+01
4.901682e+01	-1.212594e+01
4.929994e+01	-1.217204e+01
4.958470e+01	-1.221949e+01
4.987110e+01	-1.226663e+01
5.015915e+01	-1.231284e+01
5.044887e+01	-1.236050e+01
5.074026e+01	-1.240791e+01
5.103333e+01	-1.245476e+01
5.132810e+01	-1.250235e+01
5.162457e+01	-1.254958e+01
5.192275e+01	-1.259685e+01
5.222265e+01	-1.264367e+01
5.252429e+01	-1.269052e+01
5.282767e+01	-1.273844e+01
5.313280e+01	-1.278525e+01
5.343969e+01	-1.283247e+01
5.374836e+01	-1.288066e+01
5.405880e+01	-1.292796e+01
5.437105e+01	-1.297500e+01
5.468509e+01	-1.302343e+01
5.500095e+01	-1.307101e+01
5.531863e+01	-1.311803e+01
5.563815e+01	-1.316584e+01
5.595951e+01	-1.321370e+01
5.628273e+01	-1.326072e+01
5.660782e+01	-1.330931e+01
5.693479e+01	-1.335648e+01
5.726364e+01	-1.340371e+01
5.759439e+01	-1.345173e+01
5.792705e+01	-1.349940e+01
5.826164e+01	-1.354716e+01
5.859815e+01	-1.359503e+01
5.893662e+01	-1.364276e+01
5.927703e+01	-1.369095e+01
5.961941e+01	-1.373924e+01
5.996377e+01	-1.378670e+01
6.031012e+01	-1.383467e+01
6.065847e+01	-1.388307e+01
6.100883e+01	-1.392994e+01
6.136121e+01	-1.397916e+01
6.171563e+01	-1.402668e+01
6.207210e+01	-1.407533e+01
6.243063e+01	-1.412256e+01
6.279122e+01	-1.417112e+01
6.315390e+01	-1.421906e+01
6.351868e+01	-1.426756e+01
6.388556e+01	-1.431604e+01
6.425456e+01	-1.436324e+01
6.462569e+01	-1.441150e+01
6.499897e+01	-1.445973e+01
6.537440e+01	-1.450934e+01
6.575200e+01	-1.455670e+01
6.613178e+01	-1.460420e+01
6.651375e+01	-1.465317e+01
6.689793e+01	-1.470276e+01
6.728433e+01	-1.474968e+01
6.767297e+01	-1.479793e+01
6.806384e+01	-1.484715e+01
6.845698e+01	-1.489489e+01
6.885238e+01	-1.494311e+01
6.925007e+01	-1.499199e+01
6.965005e+01	-1.503942e+01
7.005235e+01	-1.508904e+01
7.045697e+01	-1.513772e+01
7.086393e+01	-1.518602e+01
7.127323e+01	-1.523470e+01
7.168490e+01	-1.528316e+01
7.209895e+01	-1.533152e+01
7.251539e+01	-1.538019e+01
7.293424e+01	-1.542910e+01
7.335551e+01	-1.547662e+01
7.377920e+01	-1.552522e+01
7.420535e+01	-1.557472e+01
7.463396e+01	-1.562312e+01
7.506504e+01	-1.567209e+01
7.549861e+01	-1.572090e+01
7.593469e+01	-1.576925e+01
7.637328e+01	-1.581841e+01
7.681441e+01	-1.586570e+01
7.725809e+01	-1.591532e+01
7.770433e+01	-1.596414e+01
7.815315e+01	-1.601293e+01
7.860456e+01	-1.606151e+01
7.905857e+01	-1.611014e+01
7.951521e+01	-1.615952e+01
7.997449e+01	-1.620865e+01
8.043642e+01	-1.625634e+01
8.090102e+01	-1.630503e+01
8.136830e+01	-1.635344e+01
8.183828e+01	-1.640260e+01
8.231097e+01	-1.645152e+01
8.278640e+01	-1.650116e+01
8.326457e+01	-1.655078e+01
8.374550e+01	-1.660007e+01
8.422921e+01	-1.664812e+01
8.471572e+01	-1.669649e+01
8.520503e+01	-1.674575e+01
8.569717e+01	-1.679461e+01
8.619215e+01	-1.684472e+01
8.669000e+01	-1.689318e+01
8.719071e+01	-1.694217e+01
8.769432e+01	-1.699076e+01
8.820084e+01	-1.704018e+01
8.871029e+01	-1.708859e+01
8.922267e+01	-1.713928e+01
8.973802e+01	-1.718686e+01
9.025634e+01	-1.723621e+01
9.077766e+01	-1.728512e+01
9.130199e+01	-1.733490e+01
9.182935e+01	-1.738381e+01
9.235975e+01	-1.743285e+01
9.289321e+01	-1.748078e+01
9.342976e+01	-1.753150e+01
9.396941e+01	-1.757868e+01
9.451217e+01	-1.762908e+01
9.505807e+01	-1.767826e+01
9.560712e+01	-1.772808e+01
9.615934e+01	-1.777677e+01
9.671476e+01	-1.782660e+01
9.727338e+01	-1.787446e+01
9.783522e+01	-1.792422e+01
9.840032e+01	-1.797331e+01
9.896867e+01	-1.802260e+01
9.954031e+01	-1.807169e+01
1.001153e+02	-1.812106e+01
1.006935e+02	-1.817053e+01
1.012751e+02	-1.822119e+01
1.018601e+02	-1.826970e+01
1.024484e+02	-1.831892e+01
1.030402e+02	-1.836851e+01
1.036353e+02	-1.841842e+01
1.042339e+02	-1.846658e+01
1.048360e+02	-1.851585e+01
1.054415e+02	-1.856569e+01
1.060505e+02	-1.861444e+01
1.066631e+02	-1.866401e+01
1.072791e+02	-1.871250e+01
1.078988e+02	-1.876373e+01
1.085220e+02	-1.881121e+01
1.091488e+02	-1.886153e+01
1.097793e+02	-1.891122e+01
1.104133e+02	-1.895953e+01
1.110511e+02	-1.900916e+01
1.116925e+02	-1.905827e+01
1.123376e+02	-1.910720e+01
1.129865e+02	-1.915747e+01
1.136391e+02	-1.920743e+01
1.142955e+02	-1.925757e+01
1.149556e+02	-1.930504e+01
1.156196e+02	-1.935552e+01
1.162874e+02	-1.940467e+01
1.169591e+02	-1.945408e+01
1.176347e+02	-1.950376e+01
1.183141e+02	-1.955369e+01
1.189975e+02	-1.960162e+01
1.196848e+02	-1.965182e+01
1.203761e+02	-1.970223e+01
1.210714e+02	-1.975156e+01
1.217707e+02	-1.980055e+01
1.224740e+02	-1.984934e+01
1.231814e+02	-1.989909e+01
1.238929e+02	-1.994807e+01
1.246085e+02	-1.999970e+01
1.253283e+02	-2.004978e+01
1.260522e+02	-2.009853e+01
1.267802e+02	-2.014821e+01
1.275125e+02	-2.019806e+01
1.282490e+02	-2.024667e+01
1.289898e+02	-2.029579e+01
1.297348e+02	-2.034559e+01
1.304842e+02	-2.039765e+01
1.312378e+02	-2.044457e+01
1.319959e+02	-2.049545e+01
1.327583e+02	-2.054334e+01
1.335251e+02	-2.059455e+01
1.342963e+02	-2.064450e+01
1.350720e+02	-2.069364e+01
1.358522e+02	-2.074415e+01
1.366368e+02	-2.079166e+01
1.374260e+02	-2.084065e+01
1.382198e+02	-2.089031e+01
1.390182e+02	-2.094100e+01
1.398211e+02	-2.099049e+01
1.406287e+02	-2.104062e+01
1.414410e+02	-2.109104e+01
1.422579e+02	-2.113961e+01
1.430796e+02	-2.119178e+01
1.439060e+02	-2.124047e+01
1.447372e+02	-2.129063e+01
1.455732e+02	-2.133951e+01
1.464141e+02	-2.138851e+01
1.472597e+02	-2.143662e+01
1.481103e+02	-2.148869e+01
1.489658e+02	-2.153750e+01
1.498262e+02	-2.158764e+01
1.506916e+02	-2.163633e+01
1.515620e+02	-2.168559e+01
1.524374e+02	-2.173504e+01
1.533179e+02	-2.178665e+01
1.542034e+02	-2.183529e+01
1.550941e+02	-2.188470e+01
1.559899e+02	-2.193467e+01
1.568909e+02	-2.198410e+01
1.577971e+02	-2.203438e+01
1.587085e+02	-2.208488e+01
1.596252e+02	-2.213383e+01
1.605472e+02	-2.218407e+01
1.614745e+02	-2.223429e+01
1.624072e+02	-2.228274e+01
1.633453e+02	-2.233410e+01
1.642887e+02	-2.238161e+01
1.652377e+02	-2.243244e+01
1.661921e+02	-2.248187e+01
1.671520e+02	-2.253006e+01
1.681175e+02	-2.258246e+01
1.690885e+02	-2.263192e+01
1.700651e+02	-2.268054e+01
1.710474e+02	-2.273181e+01
1.720354e+02	-2.278121e+01
1.730291e+02	-2.283073e+01
1.740285e+02	-2.288136e+01
1.750337e+02	-2.292935e+01
1.760446e+02	-2.298041e+01
1.770615e+02	-2.302951e+01
1.780842e+02	-2.308210e+01
1.791128e+02	-2.312995e+01
1.801473e+02	-2.317872e+01
1.811878e+02	-2.322712e+01
1.822344e+02	-2.327742e+01
1.832870e+02	-2.332869e+01
1.843456e+02	-2.337857e+01
1.854104e+02	-2.343005e+01
1.864813e+02	-2.347646e+01
1.875584e+02	-2.352688e+01
1.886418e+02	-2.357595e+01
1.897313e+02	-2.362529e+01
1.908272e+02	-2.367554e+01
1.919294e+02	-2.372776e+01
1.930380e+02	-2.377836e+01
1.941530e+02	-2.382782e+01
1.952744e+02	-2.387628e+01
1.964023e+02	-2.392446e+01
1.975367e+02	-2.397735e+01
1.986777e+02	-2.402648e+01
1.998252e+02	-2.407762e+01
2.009794e+02	-2.412703e+01
2.021403e+02	-2.417612e+01
2.033078e+02	-2.422456e+01
2.044821e+02	-2.427720e+01
2.056632e+02	-2.432459e+01
2.068511e+02	-2.437542e+01
2.080459e+02	-2.442348e+01
2.092475e+02	-2.447543e+01
2.104561e+02	-2.452424e+01
2.116717e+02	-2.457594e+01
2.128943e+02	-2.462652e+01
2.141240e+02	-2.467590e+01
2.153608e+02	-2.472746e+01
2.166047e+02	-2.477327e+01
2.178558e+02	-2.482512e+01
2.191141e+02	-2.487523e+01
2.203797e+02	-2.492461e+01
2.216526e+02	-2.497596e+01
2.229329e+02	-2.502363e+01
2.242205e+02	-2.507476e+01
2.255156e+02	-2.512543e+01
2.268182e+02	-2.516937e+01
2.281283e+02	-2.522421e+01
2.294459e+02	-2.527353e+01
2.307712e+02	-2.532224e+01
2.321041e+02	-2.537500e+01
2.334447e+02	-2.542576e+01
2.347931e+02	-2.547570e+01
2.361493e+02	-2.552267e+01
2.375133e+02	-2.557311e+01
2.388851e+02	-2.562560e+01
2.402649e+02	-2.567556e+01
2.416527e+02	-2.572457e+01
2.430484e+02	-2.577328e+01
2.444523e+02	-2.582306e+01
2.458642e+02	-2.587181e+01
2.472843e+02	-2.592218e+01
2.487126e+02	-2.597262e+01
2.501492e+02	-2.602327e+01
2.515940e+02	-2.607251e+01
2.530472e+02	-2.612043e+01
2.545088e+02	-2.617198e+01
2.559789e+02	-2.622252e+01
2.574574e+02	-2.627385e+01
2.589444e+02	-2.632176e+01
2.604401e+02	-2.637139e+01
2.619444e+02	-2.642215e+01
2.634574e+02	-2.647309e+01
2.649791e+02	-2.652468e+01
2.665096e+02	-2.657158e+01
2.680489e+02	-2.662594e+01
2.695972e+02	-2.667393e+01
2.711544e+02	-2.672230e+01
2.727205e+02	-2.677345e+01
2.742958e+02	-2.682285e+01
2.758801e+02	-2.686983e+01
2.774736e+02	-2.691885e+01
2.790762e+02	-2.697033e+01
2.806882e+02	-2.701964e+01
2.823094e+02	-2.707457e+01
2.839400e+02	-2.712285e+01
2.855800e+02	-2.717008e+01
2.872295e+02	-2.722162e+01
2.888886e+02	-2.727260e+01
2.905572e+02	-2.732325e+01
2.922354e+02	-2.737530e+01
2.939234e+02	-2.742204e+01
2.956211e+02	-2.746838e+01
2.973286e+02	-2.752176e+01
2.990459e+02	-2.757389e+01
3.007732e+02	-2.762317e+01
3.025104e+02	-2.766991e+01
3.042577e+02	-2.772298e+01
3.060151e+02	-2.777295e+01
3.077826e+02	-2.782431e+01
3.095604e+02	-2.787446e+01
3.113484e+02	-2.792163e+01
3.131467e+02	-2.797213e+01
3.149554e+02	-2.802204e+01
3.167746e+02	-2.807088e+01
3.186043e+02	-2.812184e+01
3.204445e+02	-2.817080e+01
3.222954e+02	-2.822109e+01
3.241570e+02	-2.827208e+01
3.260293e+02	-2.831963e+01
3.279124e+02	-2.837236e+01
3.298064e+02	-2.842227e+01
3.317114e+02	-2.847168e+01
3.336273e+02	-2.852338e+01
3.355544e+02	-2.857236e+01
3.374925e+02	-2.862490e+01
3.394418e+02	-2.867571e+01
3.414024e+02	-2.872580e+01
3.433744e+02	-2.877216e+01
3.453577e+02	-2.882327e+01
3.473525e+02	-2.887091e+01
3.493588e+02	-2.892252e+01
3.513766e+02	-2.897521e+01
3.534062e+02	-2.902453e+01
3.554474e+02	-2.907360e+01
3.575005e+02	-2.912177e+01
3.595654e+02	-2.917390e+01
3.616422e+02	-2.922424e+01
3.637311e+02	-2.927537e+01
3.658320e+02	-2.932865e+01
3.679450e+02	-2.937316e+01
3.700702e+02	-2.942623e+01
3.722077e+02	-2.947583e+01
3.743576e+02	-2.952069e+01
3.765199e+02	-2.957526e+01
3.786946e+02	-2.962745e+01
3.808820e+02	-2.967524e+01
3.830819e+02	-2.972438e+01
3.852946e+02	-2.976709e+01
3.875200e+02	-2.982649e+01
3.897583e+02	-2.986879e+01
3.920096e+02	-2.992899e+01
3.942738e+02	-2.996988e+01
3.965511e+02	-3.002573e+01
3.988416e+02	-3.007028e+01
4.011452e+02	-3.012359e+01
4.034622e+02	-3.017806e+01
4.057926e+02	-3.022670e+01
4.081365e+02	-3.027229e+01
4.104938e+02	-3.032442e+01
4.128648e+02	-3.037431e+01
4.152495e+02	-3.042748e+01
4.176480e+02	-3.047995e+01
4.200603e+02	-3.053080e+01
4.224866e+02	-3.057379e+01
4.249268e+02	-3.062489e+01
4.273812e+02	-3.067475e+01
4.298497e+02	-3.072672e+01
4.323325e+02	-3.078056e+01
4.348297e+02	-3.082595e+01
4.373412e+02	-3.087937e+01
4.398673e+02	-3.092021e+01
4.424079e+02	-3.097561e+01
4.449633e+02	-3.103261e+01
4.475334e+02	-3.107564e+01
4.501183e+02	-3.112696e+01
4.527182e+02	-3.118488e+01
4.553330e+02	-3.123027e+01
4.579630e+02	-3.128270e+01
4.606082e+02	-3.133052e+01
4.632687e+02	-3.138640e+01
4.659445e+02	-3.142766e+01
4.686358e+02	-3.147926e+01
4.713426e+02	-3.153052e+01
4.740650e+02	-3.157994e+01
4.768032e+02	-3.163074e+01
4.795572e+02	-3.168399e+01
4.823271e+02	-3.172950e+01
4.851130e+02	-3.178136e+01
4.879150e+02	-3.183192e+01
4.907332e+02	-3.187957e+01
4.935676e+02	-3.193294e+01
4.964185e+02	-3.198045e+01
4.992858e+02	-3.202643e+01
5.021696e+02	-3.208292e+01
5.050701e+02	-3.213375e+01
5.079874e+02	-3.217858e+01
5.109215e+02	-3.223270e+01
5.138726e+02	-3.228268e+01
5.168407e+02	-3.232947e+01
5.198259e+02	-3.238112e+01
5.228284e+02	-3.243712e+01
5.258482e+02	-3.248108e+01
5.288855e+02	-3.253194e+01
5.319403e+02	-3.257920e+01
5.350128e+02	-3.263143e+01
5.381030e+02	-3.268354e+01
5.412111e+02	-3.273680e+01
5.443371e+02	-3.278352e+01
5.474812e+02	-3.283483e+01
5.506434e+02	-3.288323e+01
5.538239e+02	-3.293019e+01
5.570228e+02	-3.298739e+01
5.602401e+02	-3.303388e+01
5.634760e+02	-3.309108e+01
5.667306e+02	-3.313243e+01
5.700040e+02	-3.318812e+01
5.732964e+02	-3.324112e+01
5.766077e+02	-3.328997e+01
5.799382e+02	-3.333713e+01
5.832879e+02	-3.338213e+01
5.866569e+02	-3.343939e+01
5.900454e+02	-3.348678e+01
5.934535e+02	-3.353010e+01
5.968813e+02	-3.359623e+01
6.003288e+02	-3.363405e+01
6.037963e+02	-3.369513e+01
6.072838e+02	-3.374434e+01
6.107914e+02	-3.379208e+01
6.143194e+02	-3.383224e+01
6.178676e+02	-3.389163e+01
6.214364e+02	-3.394168e+01
6.250258e+02	-3.399100e+01
6.286359e+02	-3.404441e+01
6.322669e+02	-3.409290e+01
6.359189e+02	-3.413859e+01
6.395919e+02	-3.420073e+01
6.432862e+02	-3.424505e+01
6.470017e+02	-3.428848e+01
6.507388e+02	-3.434930e+01
6.544974e+02	-3.439688e+01
6.582778e+02	-3.444427e+01
6.620800e+02	-3.449107e+01
6.659041e+02	-3.454456e+01
6.697504e+02	-3.459271e+01
6.736188e+02	-3.464024e+01
6.775096e+02	-3.470029e+01
6.814229e+02	-3.474296e+01
6.853587e+02	-3.479659e+01
6.893173e+02	-3.484058e+01
6.932988e+02	-3.489814e+01
6.973033e+02	-3.495264e+01
7.013309e+02	-3.499464e+01
