Frequency(Hz)	Magnitude(dB)
1.000000e+01	-2.006155e-05
1.005776e+01	-2.029397e-05
1.011585e+01	-2.052908e-05
1.017428e+01	-2.076691e-05
1.023305e+01	-2.100750e-05
1.029215e+01	-2.125088e-05
1.035160e+01	-2.149707e-05
1.041139e+01	-2.174612e-05
1.047153e+01	-2.199806e-05
1.053201e+01	-2.225291e-05
1.059284e+01	-2.251072e-05
1.065403e+01	-2.277151e-05
1.071556e+01	-2.303532e-05
1.077746e+01	-2.330219e-05
1.083971e+01	-2.357215e-05
1.090232e+01	-2.384524e-05
1.096529e+01	-2.412150e-05
1.102862e+01	-2.440095e-05
1.109232e+01	-2.468364e-05
1.115639e+01	-2.496961e-05
1.122083e+01	-2.525889e-05
1.128564e+01	-2.555152e-05
1.135083e+01	-2.584754e-05
1.141639e+01	-2.614699e-05
1.148233e+01	-2.644991e-05
1.154865e+01	-2.675633e-05
1.161536e+01	-2.706631e-05
1.168245e+01	-2.737988e-05
1.174992e+01	-2.769709e-05
1.181779e+01	-2.801796e-05
1.188605e+01	-2.834256e-05
1.195470e+01	-2.867091e-05
1.202375e+01	-2.900307e-05
1.209320e+01	-2.933908e-05
1.216305e+01	-2.967898e-05
1.223330e+01	-3.002282e-05
1.230396e+01	-3.037064e-05
1.237503e+01	-3.072249e-05
1.244651e+01	-3.107842e-05
1.251840e+01	-3.143847e-05
1.259070e+01	-3.180269e-05
1.266343e+01	-3.217113e-05
1.273657e+01	-3.254384e-05
1.281014e+01	-3.292087e-05
1.288413e+01	-3.330227e-05
1.295855e+01	-3.368808e-05
1.303339e+01	-3.407837e-05
1.310867e+01	-3.447317e-05
1.318439e+01	-3.487255e-05
1.326054e+01	-3.527656e-05
1.333713e+01	-3.568525e-05
1.341417e+01	-3.609867e-05
1.349165e+01	-3.651688e-05
1.356958e+01	-3.693994e-05
1.364795e+01	-3.736789e-05
1.372678e+01	-3.780081e-05
1.380607e+01	-3.823874e-05
1.388581e+01	-3.868174e-05
1.396602e+01	-3.912988e-05
1.404668e+01	-3.958321e-05
1.412782e+01	-4.004179e-05
1.420942e+01	-4.050568e-05
1.429149e+01	-4.097495e-05
1.437404e+01	-4.144966e-05
1.445706e+01	-4.192986e-05
1.454057e+01	-4.241563e-05
1.462455e+01	-4.290702e-05
1.470902e+01	-4.340411e-05
1.479398e+01	-4.390695e-05
1.487943e+01	-4.441563e-05
1.496537e+01	-4.493019e-05
1.505181e+01	-4.545072e-05
1.513875e+01	-4.597727e-05
1.522619e+01	-4.650993e-05
1.531414e+01	-4.704876e-05
1.540259e+01	-4.759383e-05
1.549156e+01	-4.814521e-05
1.558103e+01	-4.870298e-05
1.567103e+01	-4.926722e-05
1.576155e+01	-4.983799e-05
1.585258e+01	-5.041537e-05
1.594415e+01	-5.099945e-05
1.603624e+01	-5.159029e-05
1.612886e+01	-5.218797e-05
1.622202e+01	-5.279258e-05
1.631572e+01	-5.340419e-05
1.640996e+01	-5.402289e-05
1.650474e+01	-5.464876e-05
1.660008e+01	-5.528187e-05
1.669596e+01	-5.592233e-05
1.679239e+01	-5.657020e-05
1.688938e+01	-5.722557e-05
1.698694e+01	-5.788854e-05
1.708505e+01	-5.855920e-05
1.718373e+01	-5.923762e-05
1.728299e+01	-5.992390e-05
1.738281e+01	-6.061813e-05
1.748322e+01	-6.132040e-05
1.758420e+01	-6.203081e-05
1.768576e+01	-6.274945e-05
1.778792e+01	-6.347641e-05
1.789066e+01	-6.421180e-05
1.799399e+01	-6.495570e-05
1.809793e+01	-6.570823e-05
1.820246e+01	-6.646947e-05
1.830760e+01	-6.723953e-05
1.841334e+01	-6.801851e-05
1.851969e+01	-6.880652e-05
1.862666e+01	-6.960366e-05
1.873425e+01	-7.041003e-05
1.884246e+01	-7.122574e-05
1.895129e+01	-7.205091e-05
1.906075e+01	-7.288563e-05
1.917085e+01	-7.373002e-05
1.928158e+01	-7.458420e-05
1.939295e+01	-7.544827e-05
1.950496e+01	-7.632235e-05
1.961762e+01	-7.720656e-05
1.973093e+01	-7.810101e-05
1.984490e+01	-7.900582e-05
1.995952e+01	-7.992112e-05
2.007480e+01	-8.084702e-05
2.019076e+01	-8.178365e-05
2.030738e+01	-8.273112e-05
2.042467e+01	-8.368958e-05
2.054264e+01	-8.465914e-05
2.066130e+01	-8.563993e-05
2.078064e+01	-8.663208e-05
2.090066e+01	-8.763572e-05
2.102139e+01	-8.865100e-05
2.114280e+01	-8.967803e-05
2.126492e+01	-9.071697e-05
2.138775e+01	-9.176794e-05
2.151128e+01	-9.283109e-05
2.163553e+01	-9.390655e-05
2.176050e+01	-9.499447e-05
2.188619e+01	-9.609499e-05
2.201260e+01	-9.720827e-05
2.213974e+01	-9.833444e-05
2.226762e+01	-9.947366e-05
2.239624e+01	-1.006261e-04
2.252560e+01	-1.017918e-04
2.265571e+01	-1.029711e-04
2.278656e+01	-1.041641e-04
2.291818e+01	-1.053708e-04
2.305055e+01	-1.065915e-04
2.318369e+01	-1.078264e-04
2.331760e+01	-1.090756e-04
2.345228e+01	-1.103393e-04
2.358774e+01	-1.116176e-04
2.372398e+01	-1.129107e-04
2.386101e+01	-1.142187e-04
2.399883e+01	-1.155420e-04
2.413745e+01	-1.168805e-04
2.427686e+01	-1.182346e-04
2.441709e+01	-1.196044e-04
2.455812e+01	-1.209900e-04
2.469997e+01	-1.223917e-04
2.484263e+01	-1.238096e-04
2.498612e+01	-1.252440e-04
2.513044e+01	-1.266949e-04
2.527559e+01	-1.281627e-04
2.542158e+01	-1.296475e-04
2.556842e+01	-1.311495e-04
2.571610e+01	-1.326689e-04
2.586463e+01	-1.342058e-04
2.601403e+01	-1.357606e-04
2.616428e+01	-1.373334e-04
2.631541e+01	-1.389244e-04
2.646740e+01	-1.405339e-04
2.662028e+01	-1.421620e-04
2.677404e+01	-1.438089e-04
2.692868e+01	-1.454750e-04
2.708422e+01	-1.471603e-04
2.724066e+01	-1.488652e-04
2.739800e+01	-1.505898e-04
2.755625e+01	-1.523344e-04
2.771541e+01	-1.540992e-04
2.787550e+01	-1.558845e-04
2.803650e+01	-1.576904e-04
2.819844e+01	-1.595172e-04
2.836131e+01	-1.613653e-04
2.852513e+01	-1.632347e-04
2.868989e+01	-1.651258e-04
2.885560e+01	-1.670388e-04
2.902227e+01	-1.689739e-04
2.918990e+01	-1.709315e-04
2.935850e+01	-1.729117e-04
2.952807e+01	-1.749149e-04
2.969863e+01	-1.769413e-04
2.987016e+01	-1.789912e-04
3.004269e+01	-1.810648e-04
3.021622e+01	-1.831625e-04
3.039075e+01	-1.852844e-04
3.056628e+01	-1.874309e-04
3.074283e+01	-1.896023e-04
3.092040e+01	-1.917989e-04
3.109900e+01	-1.940209e-04
3.127862e+01	-1.962686e-04
3.145929e+01	-1.985424e-04
3.164099e+01	-2.008425e-04
3.182375e+01	-2.031692e-04
3.200756e+01	-2.055230e-04
3.219244e+01	-2.079039e-04
3.237838e+01	-2.103125e-04
3.256540e+01	-2.127490e-04
3.275349e+01	-2.152137e-04
3.294268e+01	-2.177069e-04
3.313295e+01	-2.202291e-04
3.332433e+01	-2.227804e-04
3.351681e+01	-2.253613e-04
3.371040e+01	-2.279721e-04
3.390511e+01	-2.306132e-04
3.410094e+01	-2.332848e-04
3.429791e+01	-2.359874e-04
3.449601e+01	-2.387213e-04
3.469526e+01	-2.414869e-04
3.489566e+01	-2.442845e-04
3.509721e+01	-2.471145e-04
3.529993e+01	-2.499773e-04
3.550382e+01	-2.528733e-04
3.570889e+01	-2.558028e-04
3.591515e+01	-2.587663e-04
3.612259e+01	-2.617641e-04
3.633123e+01	-2.647966e-04
3.654108e+01	-2.678642e-04
3.675214e+01	-2.709674e-04
3.696442e+01	-2.741066e-04
3.717792e+01	-2.772821e-04
3.739266e+01	-2.804943e-04
3.760864e+01	-2.837438e-04
3.782587e+01	-2.870310e-04
3.804435e+01	-2.903562e-04
3.826409e+01	-2.937200e-04
3.848510e+01	-2.971227e-04
3.870739e+01	-3.005648e-04
3.893096e+01	-3.040468e-04
3.915583e+01	-3.075691e-04
3.938199e+01	-3.111323e-04
3.960946e+01	-3.147367e-04
3.983824e+01	-3.183829e-04
4.006834e+01	-3.220713e-04
4.029978e+01	-3.258025e-04
4.053255e+01	-3.295768e-04
4.076666e+01	-3.333949e-04
4.100213e+01	-3.372572e-04
4.123896e+01	-3.411643e-04
4.147715e+01	-3.451166e-04
4.171672e+01	-3.491147e-04
4.195767e+01	-3.531592e-04
4.220002e+01	-3.572505e-04
4.244377e+01	-3.613891e-04
4.268892e+01	-3.655757e-04
4.293549e+01	-3.698109e-04
4.318348e+01	-3.740950e-04
4.343291e+01	-3.784288e-04
4.368377e+01	-3.828129e-04
4.393609e+01	-3.872476e-04
4.418986e+01	-3.917338e-04
4.444510e+01	-3.962720e-04
4.470182e+01	-4.008627e-04
4.496001e+01	-4.055066e-04
4.521970e+01	-4.102042e-04
4.548089e+01	-4.149563e-04
4.574358e+01	-4.197635e-04
4.600779e+01	-4.246263e-04
4.627353e+01	-4.295455e-04
4.654081e+01	-4.345217e-04
4.680963e+01	-4.395555e-04
4.708000e+01	-4.446476e-04
4.735193e+01	-4.497987e-04
4.762543e+01	-4.550094e-04
4.790051e+01	-4.602806e-04
4.817719e+01	-4.656128e-04
4.845545e+01	-4.710067e-04
4.873533e+01	-4.764632e-04
4.901682e+01	-4.819828e-04
4.929994e+01	-4.875664e-04
4.958470e+01	-4.932147e-04
4.987110e+01	-4.989284e-04
5.015915e+01	-5.047083e-04
5.044887e+01	-5.105551e-04
5.074026e+01	-5.164697e-04
5.103333e+01	-5.224528e-04
5.132810e+01	-5.285051e-04
5.162457e+01	-5.346276e-04
5.192275e+01	-5.408211e-04
5.222265e+01	-5.470862e-04
5.252429e+01	-5.534240e-04
5.282767e+01	-5.598351e-04
5.313280e+01	-5.663206e-04
5.343969e+01	-5.728811e-04
5.374836e+01	-5.795176e-04
5.405880e+01	-5.862311e-04
5.437105e+01	-5.930223e-04
5.468509e+01	-5.998921e-04
5.500095e+01	-6.068415e-04
5.531863e+01	-6.138715e-04
5.563815e+01	-6.209828e-04
5.595951e+01	-6.281766e-04
5.628273e+01	-6.354536e-04
5.660782e+01	-6.428150e-04
5.693479e+01	-6.502616e-04
5.726364e+01	-6.577945e-04
5.759439e+01	-6.654147e-04
5.792705e+01	-6.731231e-04
5.826164e+01	-6.809208e-04
5.859815e+01	-6.888088e-04
5.893662e+01	-6.967882e-04
5.927703e+01	-7.048600e-04
5.961941e+01	-7.130254e-04
5.996377e+01	-7.212853e-04
6.031012e+01	-7.296409e-04
6.065847e+01	-7.380932e-04
6.100883e+01	-7.466435e-04
6.136121e+01	-7.552928e-04
6.171563e+01	-7.640423e-04
6.207210e+01	-7.728932e-04
6.243063e+01	-7.818466e-04
6.279122e+01	-7.909036e-04
6.315390e+01	-8.000656e-04
6.351868e+01	-8.093338e-04
6.388556e+01	-8.187092e-04
6.425456e+01	-8.281933e-04
6.462569e+01	-8.377872e-04
6.499897e+01	-8.474923e-04
6.537440e+01	-8.573097e-04
6.575200e+01	-8.672409e-04
6.613178e+01	-8.772871e-04
6.651375e+01	-8.874497e-04
6.689793e+01	-8.977300e-04
6.728433e+01	-9.081293e-04
6.767297e+01	-9.186491e-04
6.806384e+01	-9.292908e-04
6.845698e+01	-9.400557e-04
6.885238e+01	-9.509453e-04
6.925007e+01	-9.619611e-04
6.965005e+01	-9.731044e-04
7.005235e+01	-9.843768e-04
7.045697e+01	-9.957798e-04
7.086393e+01	-1.007315e-03
7.127323e+01	-1.018983e-03
7.168490e+01	-1.030787e-03
7.209895e+01	-1.042728e-03
7.251539e+01	-1.054807e-03
7.293424e+01	-1.067025e-03
7.335551e+01	-1.079386e-03
7.377920e+01	-1.091889e-03
7.420535e+01	-1.104537e-03
7.463396e+01	-1.117332e-03
7.506504e+01	-1.130275e-03
7.549861e+01	-1.143368e-03
7.593469e+01	-1.156612e-03
7.637328e+01	-1.170010e-03
7.681441e+01	-1.183563e-03
7.725809e+01	-1.197273e-03
7.770433e+01	-1.211142e-03
7.815315e+01	-1.225171e-03
7.860456e+01	-1.239363e-03
7.905857e+01	-1.253719e-03
7.951521e+01	-1.268242e-03
7.997449e+01	-1.282933e-03
8.043642e+01	-1.297794e-03
8.090102e+01	-1.312827e-03
8.136830e+01	-1.328034e-03
8.183828e+01	-1.343417e-03
8.231097e+01	-1.358978e-03
8.278640e+01	-1.374720e-03
8.326457e+01	-1.390644e-03
8.374550e+01	-1.406752e-03
8.422921e+01	-1.423047e-03
8.471572e+01	-1.439531e-03
8.520503e+01	-1.456206e-03
8.569717e+01	-1.473073e-03
8.619215e+01	-1.490136e-03
8.669000e+01	-1.507397e-03
8.719071e+01	-1.524857e-03
8.769432e+01	-1.542520e-03
8.820084e+01	-1.560388e-03
8.871029e+01	-1.578462e-03
8.922267e+01	-1.596745e-03
8.973802e+01	-1.615241e-03
9.025634e+01	-1.633950e-03
9.077766e+01	-1.652876e-03
9.130199e+01	-1.672022e-03
9.182935e+01	-1.691389e-03
9.235975e+01	-1.710980e-03
9.289321e+01	-1.730798e-03
9.342976e+01	-1.750846e-03
9.396941e+01	-1.771126e-03
9.451217e+01	-1.791640e-03
9.505807e+01	-1.812393e-03
9.560712e+01	-1.833385e-03
9.615934e+01	-1.854621e-03
9.671476e+01	-1.876103e-03
9.727338e+01	-1.897833e-03
9.783522e+01	-1.919815e-03
9.840032e+01	-1.942052e-03
9.896867e+01	-1.964546e-03
9.954031e+01	-1.987301e-03
1.001153e+02	-2.010319e-03
1.006935e+02	-2.033603e-03
1.012751e+02	-2.057157e-03
1.018601e+02	-2.080984e-03
1.024484e+02	-2.105087e-03
1.030402e+02	-2.129469e-03
1.036353e+02	-2.154134e-03
1.042339e+02	-2.179084e-03
1.048360e+02	-2.204323e-03
1.054415e+02	-2.229854e-03
1.060505e+02	-2.255680e-03
1.066631e+02	-2.281806e-03
1.072791e+02	-2.308235e-03
1.078988e+02	-2.334969e-03
1.085220e+02	-2.362013e-03
1.091488e+02	-2.389370e-03
1.097793e+02	-2.417044e-03
1.104133e+02	-2.445038e-03
1.110511e+02	-2.473356e-03
1.116925e+02	-2.502002e-03
1.123376e+02	-2.530980e-03
1.129865e+02	-2.560294e-03
1.136391e+02	-2.589946e-03
1.142955e+02	-2.619943e-03
1.149556e+02	-2.650286e-03
1.156196e+02	-2.680981e-03
1.162874e+02	-2.712031e-03
1.169591e+02	-2.743441e-03
1.176347e+02	-2.775214e-03
1.183141e+02	-2.807355e-03
1.189975e+02	-2.839869e-03
1.196848e+02	-2.872758e-03
1.203761e+02	-2.906029e-03
1.210714e+02	-2.939684e-03
1.217707e+02	-2.973730e-03
1.224740e+02	-3.008169e-03
1.231814e+02	-3.043008e-03
1.238929e+02	-3.078249e-03
1.246085e+02	-3.113899e-03
1.253283e+02	-3.149961e-03
1.260522e+02	-3.186441e-03
1.267802e+02	-3.223343e-03
1.275125e+02	-3.260672e-03
1.282490e+02	-3.298433e-03
1.289898e+02	-3.336632e-03
1.297348e+02	-3.375272e-03
1.304842e+02	-3.414361e-03
1.312378e+02	-3.453901e-03
1.319959e+02	-3.493899e-03
1.327583e+02	-3.534361e-03
1.335251e+02	-3.575290e-03
1.342963e+02	-3.616694e-03
1.350720e+02	-3.658576e-03
1.358522e+02	-3.700944e-03
1.366368e+02	-3.743802e-03
1.374260e+02	-3.787156e-03
1.382198e+02	-3.831011e-03
1.390182e+02	-3.875375e-03
1.398211e+02	-3.920252e-03
1.406287e+02	-3.965648e-03
1.414410e+02	-4.011570e-03
1.422579e+02	-4.058023e-03
1.430796e+02	-4.105014e-03
1.439060e+02	-4.152549e-03
1.447372e+02	-4.200634e-03
1.455732e+02	-4.249276e-03
1.464141e+02	-4.298481e-03
1.472597e+02	-4.348255e-03
1.481103e+02	-4.398605e-03
1.489658e+02	-4.449538e-03
1.498262e+02	-4.501060e-03
1.506916e+02	-4.553178e-03
1.515620e+02	-4.605900e-03
1.524374e+02	-4.659232e-03
1.533179e+02	-4.713181e-03
1.542034e+02	-4.767754e-03
1.550941e+02	-4.822959e-03
1.559899e+02	-4.878803e-03
1.568909e+02	-4.935293e-03
1.577971e+02	-4.992437e-03
1.587085e+02	-5.050242e-03
1.596252e+02	-5.108716e-03
1.605472e+02	-5.167866e-03
1.614745e+02	-5.227701e-03
1.624072e+02	-5.288229e-03
1.633453e+02	-5.349456e-03
1.642887e+02	-5.411393e-03
1.652377e+02	-5.474045e-03
1.661921e+02	-5.537423e-03
1.671520e+02	-5.601534e-03
1.681175e+02	-5.666387e-03
1.690885e+02	-5.731990e-03
1.700651e+02	-5.798352e-03
1.710474e+02	-5.865482e-03
1.720354e+02	-5.933389e-03
1.730291e+02	-6.002081e-03
1.740285e+02	-6.071568e-03
1.750337e+02	-6.141859e-03
1.760446e+02	-6.212963e-03
1.770615e+02	-6.284890e-03
1.780842e+02	-6.357648e-03
1.791128e+02	-6.431249e-03
1.801473e+02	-6.505700e-03
1.811878e+02	-6.581013e-03
1.822344e+02	-6.657197e-03
1.832870e+02	-6.734263e-03
1.843456e+02	-6.812220e-03
1.854104e+02	-6.891078e-03
1.864813e+02	-6.970849e-03
1.875584e+02	-7.051542e-03
1.886418e+02	-7.133169e-03
1.897313e+02	-7.215740e-03
1.908272e+02	-7.299266e-03
1.919294e+02	-7.383758e-03
1.930380e+02	-7.469227e-03
1.941530e+02	-7.555684e-03
1.952744e+02	-7.643141e-03
1.964023e+02	-7.731610e-03
1.975367e+02	-7.821102e-03
1.986777e+02	-7.911629e-03
1.998252e+02	-8.003202e-03
2.009794e+02	-8.095835e-03
2.021403e+02	-8.189538e-03
2.033078e+02	-8.284326e-03
2.044821e+02	-8.380209e-03
2.056632e+02	-8.477201e-03
2.068511e+02	-8.575314e-03
2.080459e+02	-8.674562e-03
2.092475e+02	-8.774957e-03
2.104561e+02	-8.876513e-03
2.116717e+02	-8.979243e-03
2.128943e+02	-9.083161e-03
2.141240e+02	-9.188280e-03
2.153608e+02	-9.294615e-03
2.166047e+02	-9.402178e-03
2.178558e+02	-9.510985e-03
2.191141e+02	-9.621050e-03
2.203797e+02	-9.732387e-03
2.216526e+02	-9.845011e-03
2.229329e+02	-9.958937e-03
2.242205e+02	-1.007418e-02
2.255156e+02	-1.019075e-02
2.268182e+02	-1.030868e-02
2.281283e+02	-1.042796e-02
2.294459e+02	-1.054862e-02
2.307712e+02	-1.067068e-02
2.321041e+02	-1.079415e-02
2.334447e+02	-1.091905e-02
2.347931e+02	-1.104539e-02
2.361493e+02	-1.117318e-02
2.375133e+02	-1.130246e-02
2.388851e+02	-1.143323e-02
2.402649e+02	-1.156551e-02
2.416527e+02	-1.169932e-02
2.430484e+02	-1.183467e-02
2.444523e+02	-1.197159e-02
2.458642e+02	-1.211009e-02
2.472843e+02	-1.225019e-02
2.487126e+02	-1.239191e-02
2.501492e+02	-1.253526e-02
2.515940e+02	-1.268028e-02
2.530472e+02	-1.282696e-02
2.545088e+02	-1.297534e-02
2.559789e+02	-1.312544e-02
2.574574e+02	-1.327727e-02
2.589444e+02	-1.343085e-02
2.604401e+02	-1.358620e-02
2.619444e+02	-1.374335e-02
2.634574e+02	-1.390232e-02
2.649791e+02	-1.406312e-02
2.665096e+02	-1.422578e-02
2.680489e+02	-1.439031e-02
2.695972e+02	-1.455675e-02
2.711544e+02	-1.472510e-02
2.727205e+02	-1.489541e-02
2.742958e+02	-1.506767e-02
2.758801e+02	-1.524193e-02
2.774736e+02	-1.541819e-02
2.790762e+02	-1.559650e-02
2.806882e+02	-1.577686e-02
2.823094e+02	-1.595930e-02
2.839400e+02	-1.614385e-02
2.855800e+02	-1.633053e-02
2.872295e+02	-1.651936e-02
2.888886e+02	-1.671037e-02
2.905572e+02	-1.690359e-02
2.922354e+02	-1.709903e-02
2.939234e+02	-1.729673e-02
2.956211e+02	-1.749672e-02
2.973286e+02	-1.769900e-02
2.990459e+02	-1.790363e-02
3.007732e+02	-1.811061e-02
3.025104e+02	-1.831999e-02
3.042577e+02	-1.853177e-02
3.060151e+02	-1.874600e-02
3.077826e+02	-1.896271e-02
3.095604e+02	-1.918191e-02
3.113484e+02	-1.940364e-02
3.131467e+02	-1.962792e-02
3.149554e+02	-1.985480e-02
3.167746e+02	-2.008429e-02
3.186043e+02	-2.031642e-02
3.204445e+02	-2.055123e-02
3.222954e+02	-2.078875e-02
3.241570e+02	-2.102901e-02
3.260293e+02	-2.127204e-02
3.279124e+02	-2.151787e-02
3.298064e+02	-2.176653e-02
3.317114e+02	-2.201806e-02
3.336273e+02	-2.227249e-02
3.355544e+02	-2.252985e-02
3.374925e+02	-2.279018e-02
3.394418e+02	-2.305351e-02
3.414024e+02	-2.331987e-02
3.433744e+02	-2.358930e-02
3.453577e+02	-2.386184e-02
3.473525e+02	-2.413751e-02
3.493588e+02	-2.441636e-02
3.513766e+02	-2.469843e-02
3.534062e+02	-2.498374e-02
3.554474e+02	-2.527234e-02
3.575005e+02	-2.556426e-02
3.595654e+02	-2.585955e-02
3.616422e+02	-2.615823e-02
3.637311e+02	-2.646036e-02
3.658320e+02	-2.676596e-02
3.679450e+02	-2.707508e-02
3.700702e+02	-2.738776e-02
3.722077e+02	-2.770404e-02
3.743576e+02	-2.802396e-02
3.765199e+02	-2.834756e-02
3.786946e+02	-2.867489e-02
3.808820e+02	-2.900598e-02
3.830819e+02	-2.934089e-02
3.852946e+02	-2.967965e-02
3.875200e+02	-3.002230e-02
3.897583e+02	-3.036890e-02
3.920096e+02	-3.071948e-02
3.942738e+02	-3.107410e-02
3.965511e+02	-3.143280e-02
3.988416e+02	-3.179562e-02
4.011452e+02	-3.216261e-02
4.034622e+02	-3.253382e-02
4.057926e+02	-3.290931e-02
4.081365e+02	-3.328910e-02
4.104938e+02	-3.367327e-02
4.128648e+02	-3.406185e-02
4.152495e+02	-3.445490e-02
4.176480e+02	-3.485246e-02
4.200603e+02	-3.525459e-02
4.224866e+02	-3.566135e-02
4.249268e+02	-3.607277e-02
4.273812e+02	-3.648893e-02
4.298497e+02	-3.690986e-02
4.323325e+02	-3.733563e-02
4.348297e+02	-3.776629e-02
4.373412e+02	-3.820189e-02
4.398673e+02	-3.864250e-02
4.424079e+02	-3.908816e-02
4.449633e+02	-3.953894e-02
4.475334e+02	-3.999490e-02
4.501183e+02	-4.045609e-02
4.527182e+02	-4.092257e-02
4.553330e+02	-4.139441e-02
4.579630e+02	-4.187166e-02
4.606082e+02	-4.235438e-02
4.632687e+02	-4.284265e-02
4.659445e+02	-4.333651e-02
4.686358e+02	-4.383604e-02
4.713426e+02	-4.434129e-02
4.740650e+02	-4.485234e-02
4.768032e+02	-4.536925e-02
4.795572e+02	-4.589208e-02
4.823271e+02	-4.642091e-02
4.851130e+02	-4.695580e-02
4.879150e+02	-4.749681e-02
4.907332e+02	-4.804403e-02
4.935676e+02	-4.859751e-02
4.964185e+02	-4.915734e-02
4.992858e+02	-4.972358e-02
5.021696e+02	-5.029630e-02
5.050701e+02	-5.087558e-02
5.079874e+02	-5.146149e-02
5.109215e+02	-5.205411e-02
5.138726e+02	-5.265351e-02
5.168407e+02	-5.325977e-02
5.198259e+02	-5.387297e-02
5.228284e+02	-5.449318e-02
5.258482e+02	-5.512049e-02
5.288855e+02	-5.575497e-02
5.319403e+02	-5.639671e-02
5.350128e+02	-5.704579e-02
5.381030e+02	-5.770229e-02
5.412111e+02	-5.836629e-02
5.443371e+02	-5.903788e-02
5.474812e+02	-5.971714e-02
5.506434e+02	-6.040417e-02
5.538239e+02	-6.109904e-02
5.570228e+02	-6.180186e-02
5.602401e+02	-6.251269e-02
5.634760e+02	-6.323165e-02
5.667306e+02	-6.395881e-02
5.700040e+02	-6.469427e-02
5.732964e+02	-6.543812e-02
5.766077e+02	-6.619046e-02
5.799382e+02	-6.695138e-02
5.832879e+02	-6.772099e-02
5.866569e+02	-6.849937e-02
5.900454e+02	-6.928662e-02
5.934535e+02	-7.008285e-02
5.968813e+02	-7.088816e-02
6.003288e+02	-7.170264e-02
6.037963e+02	-7.252640e-02
6.072838e+02	-7.335954e-02
6.107914e+02	-7.420218e-02
6.143194e+02	-7.505441e-02
6.178676e+02	-7.591634e-02
6.214364e+02	-7.678808e-02
6.250258e+02	-7.766974e-02
6.286359e+02	-7.856144e-02
6.322669e+02	-7.946327e-02
6.359189e+02	-8.037537e-02
6.395919e+02	-8.129783e-02
6.432862e+02	-8.223078e-02
6.470017e+02	-8.317434e-02
6.507388e+02	-8.412861e-02
6.544974e+02	-8.509373e-02
6.582778e+02	-8.606981e-02
6.620800e+02	-8.705698e-02
6.659041e+02	-8.805535e-02
6.697504e+02	-8.906505e-02
6.736188e+02	-9.008621e-02
6.775096e+02	-9.111895e-02
6.814229e+02	-9.216341e-02
6.853587e+02	-9.321971e-02
6.893173e+02	-9.428799e-02
6.932988e+02	-9.536837e-02
6.973033e+02	-9.646100e-02
7.013309e+02	-9.756600e-02
