Frequency(Hz)	Magnitude(dB)
1.000000e+01	-1.522455e-05
1.005776e+01	-1.540093e-05
1.011585e+01	-1.557935e-05
1.017428e+01	-1.575985e-05
1.023305e+01	-1.594243e-05
1.029215e+01	-1.612712e-05
1.035160e+01	-1.631396e-05
1.041139e+01	-1.650296e-05
1.047153e+01	-1.669415e-05
1.053201e+01	-1.688756e-05
1.059284e+01	-1.708321e-05
1.065403e+01	-1.728112e-05
1.071556e+01	-1.748133e-05
1.077746e+01	-1.768385e-05
1.083971e+01	-1.788872e-05
1.090232e+01	-1.809597e-05
1.096529e+01	-1.830562e-05
1.102862e+01	-1.851769e-05
1.109232e+01	-1.873222e-05
1.115639e+01	-1.894924e-05
1.122083e+01	-1.916877e-05
1.128564e+01	-1.939085e-05
1.135083e+01	-1.961550e-05
1.141639e+01	-1.984275e-05
1.148233e+01	-2.007263e-05
1.154865e+01	-2.030518e-05
1.161536e+01	-2.054042e-05
1.168245e+01	-2.077838e-05
1.174992e+01	-2.101911e-05
1.181779e+01	-2.126262e-05
1.188605e+01	-2.150895e-05
1.195470e+01	-2.175814e-05
1.202375e+01	-2.201021e-05
1.209320e+01	-2.226520e-05
1.216305e+01	-2.252315e-05
1.223330e+01	-2.278409e-05
1.230396e+01	-2.304805e-05
1.237503e+01	-2.331506e-05
1.244651e+01	-2.358518e-05
1.251840e+01	-2.385842e-05
1.259070e+01	-2.413482e-05
1.266343e+01	-2.441443e-05
1.273657e+01	-2.469728e-05
1.281014e+01	-2.498340e-05
1.288413e+01	-2.527284e-05
1.295855e+01	-2.556563e-05
1.303339e+01	-2.586181e-05
1.310867e+01	-2.616143e-05
1.318439e+01	-2.646452e-05
1.326054e+01	-2.677111e-05
1.333713e+01	-2.708126e-05
1.341417e+01	-2.739501e-05
1.349165e+01	-2.771239e-05
1.356958e+01	-2.803344e-05
1.364795e+01	-2.835821e-05
1.372678e+01	-2.868675e-05
1.380607e+01	-2.901909e-05
1.388581e+01	-2.935529e-05
1.396602e+01	-2.969538e-05
1.404668e+01	-3.003940e-05
1.412782e+01	-3.038742e-05
1.420942e+01	-3.073946e-05
1.429149e+01	-3.109559e-05
1.437404e+01	-3.145584e-05
1.445706e+01	-3.182026e-05
1.454057e+01	-3.218891e-05
1.462455e+01	-3.256182e-05
1.470902e+01	-3.293906e-05
1.479398e+01	-3.332066e-05
1.487943e+01	-3.370669e-05
1.496537e+01	-3.409719e-05
1.505181e+01	-3.449222e-05
1.513875e+01	-3.489182e-05
1.522619e+01	-3.529605e-05
1.531414e+01	-3.570496e-05
1.540259e+01	-3.611861e-05
1.549156e+01	-3.653705e-05
1.558103e+01	-3.696034e-05
1.567103e+01	-3.738854e-05
1.576155e+01	-3.782169e-05
1.585258e+01	-3.825986e-05
1.594415e+01	-3.870311e-05
1.603624e+01	-3.915150e-05
1.612886e+01	-3.960508e-05
1.622202e+01	-4.006391e-05
1.631572e+01	-4.052806e-05
1.640996e+01	-4.099759e-05
1.650474e+01	-4.147255e-05
1.660008e+01	-4.195302e-05
1.669596e+01	-4.243906e-05
1.679239e+01	-4.293072e-05
1.688938e+01	-4.342808e-05
1.698694e+01	-4.393121e-05
1.708505e+01	-4.444016e-05
1.718373e+01	-4.495501e-05
1.728299e+01	-4.547582e-05
1.738281e+01	-4.600267e-05
1.748322e+01	-4.653562e-05
1.758420e+01	-4.707475e-05
1.768576e+01	-4.762012e-05
1.778792e+01	-4.817181e-05
1.789066e+01	-4.872989e-05
1.799399e+01	-4.929443e-05
1.809793e+01	-4.986552e-05
1.820246e+01	-5.044322e-05
1.830760e+01	-5.102762e-05
1.841334e+01	-5.161879e-05
1.851969e+01	-5.221680e-05
1.862666e+01	-5.282174e-05
1.873425e+01	-5.343369e-05
1.884246e+01	-5.405273e-05
1.895129e+01	-5.467895e-05
1.906075e+01	-5.531241e-05
1.917085e+01	-5.595322e-05
1.928158e+01	-5.660145e-05
1.939295e+01	-5.725719e-05
1.950496e+01	-5.792052e-05
1.961762e+01	-5.859154e-05
1.973093e+01	-5.927034e-05
1.984490e+01	-5.995700e-05
1.995952e+01	-6.065161e-05
2.007480e+01	-6.135427e-05
2.019076e+01	-6.206507e-05
2.030738e+01	-6.278411e-05
2.042467e+01	-6.351148e-05
2.054264e+01	-6.424727e-05
2.066130e+01	-6.499159e-05
2.078064e+01	-6.574453e-05
2.090066e+01	-6.650619e-05
2.102139e+01	-6.727668e-05
2.114280e+01	-6.805609e-05
2.126492e+01	-6.884453e-05
2.138775e+01	-6.964211e-05
2.151128e+01	-7.044892e-05
2.163553e+01	-7.126509e-05
2.176050e+01	-7.209071e-05
2.188619e+01	-7.292589e-05
2.201260e+01	-7.377075e-05
2.213974e+01	-7.462540e-05
2.226762e+01	-7.548995e-05
2.239624e+01	-7.636451e-05
2.252560e+01	-7.724921e-05
2.265571e+01	-7.814415e-05
2.278656e+01	-7.904947e-05
2.291818e+01	-7.996527e-05
2.305055e+01	-8.089168e-05
2.318369e+01	-8.182882e-05
2.331760e+01	-8.277682e-05
2.345228e+01	-8.373581e-05
2.358774e+01	-8.470590e-05
2.372398e+01	-8.568723e-05
2.386101e+01	-8.667993e-05
2.399883e+01	-8.768414e-05
2.413745e+01	-8.869997e-05
2.427686e+01	-8.972757e-05
2.441709e+01	-9.076708e-05
2.455812e+01	-9.181863e-05
2.469997e+01	-9.288237e-05
2.484263e+01	-9.395842e-05
2.498612e+01	-9.504694e-05
2.513044e+01	-9.614808e-05
2.527559e+01	-9.726197e-05
2.542158e+01	-9.838876e-05
2.556842e+01	-9.952861e-05
2.571610e+01	-1.006817e-04
2.586463e+01	-1.018481e-04
2.601403e+01	-1.030280e-04
2.616428e+01	-1.042216e-04
2.631541e+01	-1.054290e-04
2.646740e+01	-1.066504e-04
2.662028e+01	-1.078860e-04
2.677404e+01	-1.091359e-04
2.692868e+01	-1.104002e-04
2.708422e+01	-1.116792e-04
2.724066e+01	-1.129730e-04
2.739800e+01	-1.142818e-04
2.755625e+01	-1.156058e-04
2.771541e+01	-1.169451e-04
2.787550e+01	-1.182999e-04
2.803650e+01	-1.196705e-04
2.819844e+01	-1.210569e-04
2.836131e+01	-1.224593e-04
2.852513e+01	-1.238780e-04
2.868989e+01	-1.253132e-04
2.885560e+01	-1.267649e-04
2.902227e+01	-1.282335e-04
2.918990e+01	-1.297191e-04
2.935850e+01	-1.312219e-04
2.952807e+01	-1.327421e-04
2.969863e+01	-1.342800e-04
2.987016e+01	-1.358356e-04
3.004269e+01	-1.374093e-04
3.021622e+01	-1.390012e-04
3.039075e+01	-1.406115e-04
3.056628e+01	-1.422405e-04
3.074283e+01	-1.438884e-04
3.092040e+01	-1.455553e-04
3.109900e+01	-1.472416e-04
3.127862e+01	-1.489474e-04
3.145929e+01	-1.506730e-04
3.164099e+01	-1.524186e-04
3.182375e+01	-1.541843e-04
3.200756e+01	-1.559706e-04
3.219244e+01	-1.577775e-04
3.237838e+01	-1.596054e-04
3.256540e+01	-1.614544e-04
3.275349e+01	-1.633249e-04
3.294268e+01	-1.652170e-04
3.313295e+01	-1.671310e-04
3.332433e+01	-1.690673e-04
3.351681e+01	-1.710259e-04
3.371040e+01	-1.730073e-04
3.390511e+01	-1.750115e-04
3.410094e+01	-1.770391e-04
3.429791e+01	-1.790901e-04
3.449601e+01	-1.811648e-04
3.469526e+01	-1.832636e-04
3.489566e+01	-1.853867e-04
3.509721e+01	-1.875345e-04
3.529993e+01	-1.897071e-04
3.550382e+01	-1.919048e-04
3.570889e+01	-1.941280e-04
3.591515e+01	-1.963770e-04
3.612259e+01	-1.986520e-04
3.633123e+01	-2.009534e-04
3.654108e+01	-2.032815e-04
3.675214e+01	-2.056365e-04
3.696442e+01	-2.080188e-04
3.717792e+01	-2.104287e-04
3.739266e+01	-2.128665e-04
3.760864e+01	-2.153326e-04
3.782587e+01	-2.178272e-04
3.804435e+01	-2.203507e-04
3.826409e+01	-2.229035e-04
3.848510e+01	-2.254858e-04
3.870739e+01	-2.280980e-04
3.893096e+01	-2.307406e-04
3.915583e+01	-2.334137e-04
3.938199e+01	-2.361178e-04
3.960946e+01	-2.388532e-04
3.983824e+01	-2.416203e-04
4.006834e+01	-2.444194e-04
4.029978e+01	-2.472510e-04
4.053255e+01	-2.501154e-04
4.076666e+01	-2.530130e-04
4.100213e+01	-2.559441e-04
4.123896e+01	-2.589092e-04
4.147715e+01	-2.619087e-04
4.171672e+01	-2.649429e-04
4.195767e+01	-2.680122e-04
4.220002e+01	-2.711171e-04
4.244377e+01	-2.742580e-04
4.268892e+01	-2.774352e-04
4.293549e+01	-2.806493e-04
4.318348e+01	-2.839006e-04
4.343291e+01	-2.871895e-04
4.368377e+01	-2.905166e-04
4.393609e+01	-2.938822e-04
4.418986e+01	-2.972868e-04
4.444510e+01	-3.007308e-04
4.470182e+01	-3.042147e-04
4.496001e+01	-3.077390e-04
4.521970e+01	-3.113042e-04
4.548089e+01	-3.149106e-04
4.574358e+01	-3.185588e-04
4.600779e+01	-3.222492e-04
4.627353e+01	-3.259824e-04
4.654081e+01	-3.297589e-04
4.680963e+01	-3.335791e-04
4.708000e+01	-3.374435e-04
4.735193e+01	-3.413528e-04
4.762543e+01	-3.453073e-04
4.790051e+01	-3.493076e-04
4.817719e+01	-3.533542e-04
4.845545e+01	-3.574478e-04
4.873533e+01	-3.615887e-04
4.901682e+01	-3.657777e-04
4.929994e+01	-3.700151e-04
4.958470e+01	-3.743017e-04
4.987110e+01	-3.786379e-04
5.015915e+01	-3.830243e-04
5.044887e+01	-3.874615e-04
5.074026e+01	-3.919502e-04
5.103333e+01	-3.964908e-04
5.132810e+01	-4.010841e-04
5.162457e+01	-4.057305e-04
5.192275e+01	-4.104308e-04
5.222265e+01	-4.151855e-04
5.252429e+01	-4.199953e-04
5.282767e+01	-4.248609e-04
5.313280e+01	-4.297828e-04
5.343969e+01	-4.347617e-04
5.374836e+01	-4.397982e-04
5.405880e+01	-4.448932e-04
5.437105e+01	-4.500471e-04
5.468509e+01	-4.552608e-04
5.500095e+01	-4.605348e-04
5.531863e+01	-4.658699e-04
5.563815e+01	-4.712669e-04
5.595951e+01	-4.767263e-04
5.628273e+01	-4.822490e-04
5.660782e+01	-4.878357e-04
5.693479e+01	-4.934871e-04
5.726364e+01	-4.992039e-04
5.759439e+01	-5.049870e-04
5.792705e+01	-5.108371e-04
5.826164e+01	-5.167549e-04
5.859815e+01	-5.227413e-04
5.893662e+01	-5.287971e-04
5.927703e+01	-5.349229e-04
5.961941e+01	-5.411198e-04
5.996377e+01	-5.473884e-04
6.031012e+01	-5.537297e-04
6.065847e+01	-5.601443e-04
6.100883e+01	-5.666334e-04
6.136121e+01	-5.731975e-04
6.171563e+01	-5.798377e-04
6.207210e+01	-5.865549e-04
6.243063e+01	-5.933498e-04
6.279122e+01	-6.002234e-04
6.315390e+01	-6.071767e-04
6.351868e+01	-6.142105e-04
6.388556e+01	-6.213258e-04
6.425456e+01	-6.285235e-04
6.462569e+01	-6.358046e-04
6.499897e+01	-6.431700e-04
6.537440e+01	-6.506208e-04
6.575200e+01	-6.581578e-04
6.613178e+01	-6.657822e-04
6.651375e+01	-6.734948e-04
6.689793e+01	-6.812969e-04
6.728433e+01	-6.891892e-04
6.767297e+01	-6.971730e-04
6.806384e+01	-7.052493e-04
6.845698e+01	-7.134192e-04
6.885238e+01	-7.216836e-04
6.925007e+01	-7.300438e-04
6.965005e+01	-7.385009e-04
7.005235e+01	-7.470559e-04
7.045697e+01	-7.557100e-04
7.086393e+01	-7.644643e-04
7.127323e+01	-7.733200e-04
7.168490e+01	-7.822784e-04
7.209895e+01	-7.913405e-04
7.251539e+01	-8.005075e-04
7.293424e+01	-8.097807e-04
7.335551e+01	-8.191614e-04
7.377920e+01	-8.286507e-04
7.420535e+01	-8.382499e-04
7.463396e+01	-8.479603e-04
7.506504e+01	-8.577832e-04
7.549861e+01	-8.677199e-04
7.593469e+01	-8.777716e-04
7.637328e+01	-8.879398e-04
7.681441e+01	-8.982258e-04
7.725809e+01	-9.086309e-04
7.770433e+01	-9.191565e-04
7.815315e+01	-9.298040e-04
7.860456e+01	-9.405749e-04
7.905857e+01	-9.514705e-04
7.951521e+01	-9.624923e-04
7.997449e+01	-9.736418e-04
8.043642e+01	-9.849204e-04
8.090102e+01	-9.963297e-04
8.136830e+01	-1.007871e-03
8.183828e+01	-1.019546e-03
8.231097e+01	-1.031357e-03
8.278640e+01	-1.043304e-03
8.326457e+01	-1.055389e-03
8.374550e+01	-1.067615e-03
8.422921e+01	-1.079982e-03
8.471572e+01	-1.092492e-03
8.520503e+01	-1.105147e-03
8.569717e+01	-1.117949e-03
8.619215e+01	-1.130899e-03
8.669000e+01	-1.143999e-03
8.719071e+01	-1.157251e-03
8.769432e+01	-1.170656e-03
8.820084e+01	-1.184217e-03
8.871029e+01	-1.197934e-03
8.922267e+01	-1.211811e-03
8.973802e+01	-1.225848e-03
9.025634e+01	-1.240048e-03
9.077766e+01	-1.254412e-03
9.130199e+01	-1.268942e-03
9.182935e+01	-1.283641e-03
9.235975e+01	-1.298510e-03
9.289321e+01	-1.313552e-03
9.342976e+01	-1.328767e-03
9.396941e+01	-1.344159e-03
9.451217e+01	-1.359729e-03
9.505807e+01	-1.375479e-03
9.560712e+01	-1.391412e-03
9.615934e+01	-1.407529e-03
9.671476e+01	-1.423833e-03
9.727338e+01	-1.440326e-03
9.783522e+01	-1.457010e-03
9.840032e+01	-1.473887e-03
9.896867e+01	-1.490959e-03
9.954031e+01	-1.508229e-03
1.001153e+02	-1.525699e-03
1.006935e+02	-1.543372e-03
1.012751e+02	-1.561249e-03
1.018601e+02	-1.579333e-03
1.024484e+02	-1.597627e-03
1.030402e+02	-1.616132e-03
1.036353e+02	-1.634852e-03
1.042339e+02	-1.653789e-03
1.048360e+02	-1.672945e-03
1.054415e+02	-1.692322e-03
1.060505e+02	-1.711925e-03
1.066631e+02	-1.731754e-03
1.072791e+02	-1.751813e-03
1.078988e+02	-1.772104e-03
1.085220e+02	-1.792630e-03
1.091488e+02	-1.813393e-03
1.097793e+02	-1.834398e-03
1.104133e+02	-1.855645e-03
1.110511e+02	-1.877139e-03
1.116925e+02	-1.898881e-03
1.123376e+02	-1.920875e-03
1.129865e+02	-1.943124e-03
1.136391e+02	-1.965631e-03
1.142955e+02	-1.988398e-03
1.149556e+02	-2.011428e-03
1.156196e+02	-2.034726e-03
1.162874e+02	-2.058293e-03
1.169591e+02	-2.082133e-03
1.176347e+02	-2.106250e-03
1.183141e+02	-2.130645e-03
1.189975e+02	-2.155323e-03
1.196848e+02	-2.180287e-03
1.203761e+02	-2.205539e-03
1.210714e+02	-2.231085e-03
1.217707e+02	-2.256926e-03
1.224740e+02	-2.283066e-03
1.231814e+02	-2.309509e-03
1.238929e+02	-2.336258e-03
1.246085e+02	-2.363317e-03
1.253283e+02	-2.390689e-03
1.260522e+02	-2.418378e-03
1.267802e+02	-2.446387e-03
1.275125e+02	-2.474721e-03
1.282490e+02	-2.503383e-03
1.289898e+02	-2.532377e-03
1.297348e+02	-2.561707e-03
1.304842e+02	-2.591376e-03
1.312378e+02	-2.621389e-03
1.319959e+02	-2.651749e-03
1.327583e+02	-2.682461e-03
1.335251e+02	-2.713528e-03
1.342963e+02	-2.744955e-03
1.350720e+02	-2.776746e-03
1.358522e+02	-2.808905e-03
1.366368e+02	-2.841436e-03
1.374260e+02	-2.874344e-03
1.382198e+02	-2.907633e-03
1.390182e+02	-2.941307e-03
1.398211e+02	-2.975371e-03
1.406287e+02	-3.009830e-03
1.414410e+02	-3.044687e-03
1.422579e+02	-3.079948e-03
1.430796e+02	-3.115617e-03
1.439060e+02	-3.151699e-03
1.447372e+02	-3.188199e-03
1.455732e+02	-3.225122e-03
1.464141e+02	-3.262471e-03
1.472597e+02	-3.300254e-03
1.481103e+02	-3.338473e-03
1.489658e+02	-3.377135e-03
1.498262e+02	-3.416245e-03
1.506916e+02	-3.455807e-03
1.515620e+02	-3.495827e-03
1.524374e+02	-3.536311e-03
1.533179e+02	-3.577263e-03
1.542034e+02	-3.618689e-03
1.550941e+02	-3.660595e-03
1.559899e+02	-3.702986e-03
1.568909e+02	-3.745867e-03
1.577971e+02	-3.789245e-03
1.587085e+02	-3.833125e-03
1.596252e+02	-3.877513e-03
1.605472e+02	-3.922415e-03
1.614745e+02	-3.967836e-03
1.624072e+02	-4.013783e-03
1.633453e+02	-4.060262e-03
1.642887e+02	-4.107279e-03
1.652377e+02	-4.154840e-03
1.661921e+02	-4.202952e-03
1.671520e+02	-4.251620e-03
1.681175e+02	-4.300852e-03
1.690885e+02	-4.350653e-03
1.700651e+02	-4.401031e-03
1.710474e+02	-4.451992e-03
1.720354e+02	-4.503543e-03
1.730291e+02	-4.555690e-03
1.740285e+02	-4.608441e-03
1.750337e+02	-4.661802e-03
1.760446e+02	-4.715781e-03
1.770615e+02	-4.770385e-03
1.780842e+02	-4.825620e-03
1.791128e+02	-4.881494e-03
1.801473e+02	-4.938016e-03
1.811878e+02	-4.995191e-03
1.822344e+02	-5.053028e-03
1.832870e+02	-5.111534e-03
1.843456e+02	-5.170717e-03
1.854104e+02	-5.230585e-03
1.864813e+02	-5.291145e-03
1.875584e+02	-5.352407e-03
1.886418e+02	-5.414377e-03
1.897313e+02	-5.477064e-03
1.908272e+02	-5.540477e-03
1.919294e+02	-5.604623e-03
1.930380e+02	-5.669512e-03
1.941530e+02	-5.735151e-03
1.952744e+02	-5.801550e-03
1.964023e+02	-5.868717e-03
1.975367e+02	-5.936661e-03
1.986777e+02	-6.005391e-03
1.998252e+02	-6.074916e-03
2.009794e+02	-6.145246e-03
2.021403e+02	-6.216389e-03
2.033078e+02	-6.288355e-03
2.044821e+02	-6.361154e-03
2.056632e+02	-6.434794e-03
2.068511e+02	-6.509287e-03
2.080459e+02	-6.584642e-03
2.092475e+02	-6.660868e-03
2.104561e+02	-6.737975e-03
2.116717e+02	-6.815975e-03
2.128943e+02	-6.894877e-03
2.141240e+02	-6.974692e-03
2.153608e+02	-7.055430e-03
2.166047e+02	-7.137101e-03
2.178558e+02	-7.219717e-03
2.191141e+02	-7.303289e-03
2.203797e+02	-7.387827e-03
2.216526e+02	-7.473343e-03
2.229329e+02	-7.559848e-03
2.242205e+02	-7.647354e-03
2.255156e+02	-7.735871e-03
2.268182e+02	-7.825412e-03
2.281283e+02	-7.915989e-03
2.294459e+02	-8.007613e-03
2.307712e+02	-8.100296e-03
2.321041e+02	-8.194051e-03
2.334447e+02	-8.288891e-03
2.347931e+02	-8.384827e-03
2.361493e+02	-8.481872e-03
2.375133e+02	-8.580039e-03
2.388851e+02	-8.679341e-03
2.402649e+02	-8.779792e-03
2.416527e+02	-8.881404e-03
2.430484e+02	-8.984190e-03
2.444523e+02	-9.088165e-03
2.458642e+02	-9.193342e-03
2.472843e+02	-9.299735e-03
2.487126e+02	-9.407357e-03
2.501492e+02	-9.516224e-03
2.515940e+02	-9.626350e-03
2.530472e+02	-9.737748e-03
2.545088e+02	-9.850434e-03
2.559789e+02	-9.964422e-03
2.574574e+02	-1.007973e-02
2.589444e+02	-1.019637e-02
2.604401e+02	-1.031435e-02
2.619444e+02	-1.043370e-02
2.634574e+02	-1.055443e-02
2.649791e+02	-1.067656e-02
2.665096e+02	-1.080009e-02
2.680489e+02	-1.092506e-02
2.695972e+02	-1.105147e-02
2.711544e+02	-1.117934e-02
2.727205e+02	-1.130868e-02
2.742958e+02	-1.143952e-02
2.758801e+02	-1.157188e-02
2.774736e+02	-1.170576e-02
2.790762e+02	-1.184119e-02
2.806882e+02	-1.197818e-02
2.823094e+02	-1.211675e-02
2.839400e+02	-1.225693e-02
2.855800e+02	-1.239873e-02
2.872295e+02	-1.254216e-02
2.888886e+02	-1.268725e-02
2.905572e+02	-1.283402e-02
2.922354e+02	-1.298248e-02
2.939234e+02	-1.313266e-02
2.956211e+02	-1.328457e-02
2.973286e+02	-1.343824e-02
2.990459e+02	-1.359368e-02
3.007732e+02	-1.375091e-02
3.025104e+02	-1.390997e-02
3.042577e+02	-1.407086e-02
3.060151e+02	-1.423360e-02
3.077826e+02	-1.439823e-02
3.095604e+02	-1.456475e-02
3.113484e+02	-1.473320e-02
3.131467e+02	-1.490360e-02
3.149554e+02	-1.507596e-02
3.167746e+02	-1.525031e-02
3.186043e+02	-1.542667e-02
3.204445e+02	-1.560507e-02
3.222954e+02	-1.578553e-02
3.241570e+02	-1.596807e-02
3.260293e+02	-1.615272e-02
3.279124e+02	-1.633950e-02
3.298064e+02	-1.652844e-02
3.317114e+02	-1.671955e-02
3.336273e+02	-1.691288e-02
3.355544e+02	-1.710843e-02
3.374925e+02	-1.730624e-02
3.394418e+02	-1.750633e-02
3.414024e+02	-1.770873e-02
3.433744e+02	-1.791347e-02
3.453577e+02	-1.812056e-02
3.473525e+02	-1.833005e-02
3.493588e+02	-1.854195e-02
3.513766e+02	-1.875630e-02
3.534062e+02	-1.897312e-02
3.554474e+02	-1.919244e-02
3.575005e+02	-1.941429e-02
3.595654e+02	-1.963870e-02
3.616422e+02	-1.986570e-02
3.637311e+02	-2.009531e-02
3.658320e+02	-2.032758e-02
3.679450e+02	-2.056252e-02
3.700702e+02	-2.080017e-02
3.722077e+02	-2.104056e-02
3.743576e+02	-2.128372e-02
3.765199e+02	-2.152968e-02
3.786946e+02	-2.177848e-02
3.808820e+02	-2.203015e-02
3.830819e+02	-2.228471e-02
3.852946e+02	-2.254222e-02
3.875200e+02	-2.280269e-02
3.897583e+02	-2.306616e-02
3.920096e+02	-2.333266e-02
3.942738e+02	-2.360224e-02
3.965511e+02	-2.387493e-02
3.988416e+02	-2.415075e-02
4.011452e+02	-2.442975e-02
4.034622e+02	-2.471197e-02
4.057926e+02	-2.499744e-02
4.081365e+02	-2.528619e-02
4.104938e+02	-2.557828e-02
4.128648e+02	-2.587372e-02
4.152495e+02	-2.617257e-02
4.176480e+02	-2.647486e-02
4.200603e+02	-2.678063e-02
4.224866e+02	-2.708992e-02
4.249268e+02	-2.740277e-02
4.273812e+02	-2.771922e-02
4.298497e+02	-2.803931e-02
4.323325e+02	-2.836309e-02
4.348297e+02	-2.869059e-02
4.373412e+02	-2.902187e-02
4.398673e+02	-2.935695e-02
4.424079e+02	-2.969590e-02
4.449633e+02	-3.003874e-02
4.475334e+02	-3.038552e-02
4.501183e+02	-3.073630e-02
4.527182e+02	-3.109111e-02
4.553330e+02	-3.145000e-02
4.579630e+02	-3.181301e-02
4.606082e+02	-3.218021e-02
4.632687e+02	-3.255162e-02
4.659445e+02	-3.292731e-02
4.686358e+02	-3.330731e-02
4.713426e+02	-3.369168e-02
4.740650e+02	-3.408047e-02
4.768032e+02	-3.447373e-02
4.795572e+02	-3.487151e-02
4.823271e+02	-3.527386e-02
4.851130e+02	-3.568083e-02
4.879150e+02	-3.609248e-02
4.907332e+02	-3.650886e-02
4.935676e+02	-3.693002e-02
4.964185e+02	-3.735602e-02
4.992858e+02	-3.778691e-02
5.021696e+02	-3.822275e-02
5.050701e+02	-3.866360e-02
5.079874e+02	-3.910950e-02
5.109215e+02	-3.956053e-02
5.138726e+02	-4.001673e-02
5.168407e+02	-4.047817e-02
5.198259e+02	-4.094490e-02
5.228284e+02	-4.141699e-02
5.258482e+02	-4.189450e-02
5.288855e+02	-4.237748e-02
5.319403e+02	-4.286601e-02
5.350128e+02	-4.336014e-02
5.381030e+02	-4.385993e-02
5.412111e+02	-4.436546e-02
5.443371e+02	-4.487678e-02
5.474812e+02	-4.539397e-02
5.506434e+02	-4.591708e-02
5.538239e+02	-4.644619e-02
5.570228e+02	-4.698137e-02
5.602401e+02	-4.752268e-02
5.634760e+02	-4.807019e-02
5.667306e+02	-4.862397e-02
5.700040e+02	-4.918409e-02
5.732964e+02	-4.975063e-02
5.766077e+02	-5.032366e-02
5.799382e+02	-5.090325e-02
5.832879e+02	-5.148948e-02
5.866569e+02	-5.208241e-02
5.900454e+02	-5.268213e-02
5.934535e+02	-5.328872e-02
5.968813e+02	-5.390224e-02
6.003288e+02	-5.452279e-02
6.037963e+02	-5.515043e-02
6.072838e+02	-5.578526e-02
6.107914e+02	-5.642734e-02
6.143194e+02	-5.707676e-02
6.178676e+02	-5.773361e-02
6.214364e+02	-5.839797e-02
6.250258e+02	-5.906991e-02
6.286359e+02	-5.974954e-02
6.322669e+02	-6.043693e-02
6.359189e+02	-6.113218e-02
6.395919e+02	-6.183536e-02
6.432862e+02	-6.254658e-02
6.470017e+02	-6.326591e-02
6.507388e+02	-6.399346e-02
6.544974e+02	-6.472931e-02
6.582778e+02	-6.547356e-02
6.620800e+02	-6.622630e-02
6.659041e+02	-6.698763e-02
6.697504e+02	-6.775764e-02
6.736188e+02	-6.853643e-02
6.775096e+02	-6.932410e-02
6.814229e+02	-7.012075e-02
6.853587e+02	-7.092648e-02
6.893173e+02	-7.174139e-02
6.932988e+02	-7.256559e-02
6.973033e+02	-7.339918e-02
7.013309e+02	-7.424225e-02
