Frequency(Hz)	Magnitude(dB)
1.000000e+01	-1.836311e-05
1.005776e+01	-1.857586e-05
1.011585e+01	-1.879106e-05
1.017428e+01	-1.900876e-05
1.023305e+01	-1.922898e-05
1.029215e+01	-1.945176e-05
1.035160e+01	-1.967711e-05
1.041139e+01	-1.990507e-05
1.047153e+01	-2.013568e-05
1.053201e+01	-2.036895e-05
1.059284e+01	-2.060493e-05
1.065403e+01	-2.084365e-05
1.071556e+01	-2.108513e-05
1.077746e+01	-2.132940e-05
1.083971e+01	-2.157651e-05
1.090232e+01	-2.182648e-05
1.096529e+01	-2.207934e-05
1.102862e+01	-2.233514e-05
1.109232e+01	-2.259390e-05
1.115639e+01	-2.285565e-05
1.122083e+01	-2.312044e-05
1.128564e+01	-2.338830e-05
1.135083e+01	-2.365926e-05
1.141639e+01	-2.393336e-05
1.148233e+01	-2.421063e-05
1.154865e+01	-2.449112e-05
1.161536e+01	-2.477485e-05
1.168245e+01	-2.506187e-05
1.174992e+01	-2.535222e-05
1.181779e+01	-2.564593e-05
1.188605e+01	-2.594305e-05
1.195470e+01	-2.624360e-05
1.202375e+01	-2.654764e-05
1.209320e+01	-2.685520e-05
1.216305e+01	-2.716633e-05
1.223330e+01	-2.748106e-05
1.230396e+01	-2.779943e-05
1.237503e+01	-2.812149e-05
1.244651e+01	-2.844729e-05
1.251840e+01	-2.877686e-05
1.259070e+01	-2.911024e-05
1.266343e+01	-2.944749e-05
1.273657e+01	-2.978865e-05
1.281014e+01	-3.013376e-05
1.288413e+01	-3.048287e-05
1.295855e+01	-3.083602e-05
1.303339e+01	-3.119326e-05
1.310867e+01	-3.155464e-05
1.318439e+01	-3.192021e-05
1.326054e+01	-3.229001e-05
1.333713e+01	-3.266410e-05
1.341417e+01	-3.304252e-05
1.349165e+01	-3.342533e-05
1.356958e+01	-3.381257e-05
1.364795e+01	-3.420429e-05
1.372678e+01	-3.460056e-05
1.380607e+01	-3.500141e-05
1.388581e+01	-3.540691e-05
1.396602e+01	-3.581711e-05
1.404668e+01	-3.623206e-05
1.412782e+01	-3.665182e-05
1.420942e+01	-3.707644e-05
1.429149e+01	-3.750597e-05
1.437404e+01	-3.794049e-05
1.445706e+01	-3.838004e-05
1.454057e+01	-3.882468e-05
1.462455e+01	-3.927447e-05
1.470902e+01	-3.972948e-05
1.479398e+01	-4.018975e-05
1.487943e+01	-4.065536e-05
1.496537e+01	-4.112636e-05
1.505181e+01	-4.160282e-05
1.513875e+01	-4.208480e-05
1.522619e+01	-4.257236e-05
1.531414e+01	-4.306557e-05
1.540259e+01	-4.356449e-05
1.549156e+01	-4.406920e-05
1.558103e+01	-4.457975e-05
1.567103e+01	-4.509621e-05
1.576155e+01	-4.561866e-05
1.585258e+01	-4.614717e-05
1.594415e+01	-4.668179e-05
1.603624e+01	-4.722261e-05
1.612886e+01	-4.776969e-05
1.622202e+01	-4.832312e-05
1.631572e+01	-4.888295e-05
1.640996e+01	-4.944927e-05
1.650474e+01	-5.002215e-05
1.660008e+01	-5.060167e-05
1.669596e+01	-5.118790e-05
1.679239e+01	-5.178092e-05
1.688938e+01	-5.238081e-05
1.698694e+01	-5.298766e-05
1.708505e+01	-5.360153e-05
1.718373e+01	-5.422251e-05
1.728299e+01	-5.485069e-05
1.738281e+01	-5.548615e-05
1.748322e+01	-5.612897e-05
1.758420e+01	-5.677923e-05
1.768576e+01	-5.743703e-05
1.778792e+01	-5.810245e-05
1.789066e+01	-5.877558e-05
1.799399e+01	-5.945651e-05
1.809793e+01	-6.014532e-05
1.820246e+01	-6.084212e-05
1.830760e+01	-6.154699e-05
1.841334e+01	-6.226002e-05
1.851969e+01	-6.298132e-05
1.862666e+01	-6.371097e-05
1.873425e+01	-6.444907e-05
1.884246e+01	-6.519573e-05
1.895129e+01	-6.595103e-05
1.906075e+01	-6.671509e-05
1.917085e+01	-6.748799e-05
1.928158e+01	-6.826985e-05
1.939295e+01	-6.906077e-05
1.950496e+01	-6.986085e-05
1.961762e+01	-7.067021e-05
1.973093e+01	-7.148893e-05
1.984490e+01	-7.231715e-05
1.995952e+01	-7.315495e-05
2.007480e+01	-7.400247e-05
2.019076e+01	-7.485980e-05
2.030738e+01	-7.572706e-05
2.042467e+01	-7.660437e-05
2.054264e+01	-7.749185e-05
2.066130e+01	-7.838961e-05
2.078064e+01	-7.929776e-05
2.090066e+01	-8.021644e-05
2.102139e+01	-8.114576e-05
2.114280e+01	-8.208585e-05
2.126492e+01	-8.303683e-05
2.138775e+01	-8.399882e-05
2.151128e+01	-8.497196e-05
2.163553e+01	-8.595638e-05
2.176050e+01	-8.695220e-05
2.188619e+01	-8.795955e-05
2.201260e+01	-8.897858e-05
2.213974e+01	-9.000941e-05
2.226762e+01	-9.105218e-05
2.239624e+01	-9.210704e-05
2.252560e+01	-9.317411e-05
2.265571e+01	-9.425355e-05
2.278656e+01	-9.534549e-05
2.291818e+01	-9.645008e-05
2.305055e+01	-9.756747e-05
2.318369e+01	-9.869780e-05
2.331760e+01	-9.984123e-05
2.345228e+01	-1.009979e-04
2.358774e+01	-1.021680e-04
2.372398e+01	-1.033516e-04
2.386101e+01	-1.045490e-04
2.399883e+01	-1.057602e-04
2.413745e+01	-1.069854e-04
2.427686e+01	-1.082249e-04
2.441709e+01	-1.094787e-04
2.455812e+01	-1.107470e-04
2.469997e+01	-1.120300e-04
2.484263e+01	-1.133279e-04
2.498612e+01	-1.146408e-04
2.513044e+01	-1.159689e-04
2.527559e+01	-1.173124e-04
2.542158e+01	-1.186715e-04
2.556842e+01	-1.200463e-04
2.571610e+01	-1.214371e-04
2.586463e+01	-1.228440e-04
2.601403e+01	-1.242671e-04
2.616428e+01	-1.257068e-04
2.631541e+01	-1.271631e-04
2.646740e+01	-1.286363e-04
2.662028e+01	-1.301266e-04
2.677404e+01	-1.316341e-04
2.692868e+01	-1.331591e-04
2.708422e+01	-1.347017e-04
2.724066e+01	-1.362623e-04
2.739800e+01	-1.378409e-04
2.755625e+01	-1.394378e-04
2.771541e+01	-1.410532e-04
2.787550e+01	-1.426873e-04
2.803650e+01	-1.443403e-04
2.819844e+01	-1.460125e-04
2.836131e+01	-1.477041e-04
2.852513e+01	-1.494153e-04
2.868989e+01	-1.511463e-04
2.885560e+01	-1.528973e-04
2.902227e+01	-1.546686e-04
2.918990e+01	-1.564605e-04
2.935850e+01	-1.582731e-04
2.952807e+01	-1.601067e-04
2.969863e+01	-1.619615e-04
2.987016e+01	-1.638379e-04
3.004269e+01	-1.657359e-04
3.021622e+01	-1.676560e-04
3.039075e+01	-1.695983e-04
3.056628e+01	-1.715631e-04
3.074283e+01	-1.735507e-04
3.092040e+01	-1.755613e-04
3.109900e+01	-1.775951e-04
3.127862e+01	-1.796526e-04
3.145929e+01	-1.817339e-04
3.164099e+01	-1.838393e-04
3.182375e+01	-1.859690e-04
3.200756e+01	-1.881235e-04
3.219244e+01	-1.903029e-04
3.237838e+01	-1.925076e-04
3.256540e+01	-1.947378e-04
3.275349e+01	-1.969938e-04
3.294268e+01	-1.992760e-04
3.313295e+01	-2.015846e-04
3.332433e+01	-2.039200e-04
3.351681e+01	-2.062824e-04
3.371040e+01	-2.086722e-04
3.390511e+01	-2.110896e-04
3.410094e+01	-2.135351e-04
3.429791e+01	-2.160089e-04
3.449601e+01	-2.185114e-04
3.469526e+01	-2.210428e-04
3.489566e+01	-2.236036e-04
3.509721e+01	-2.261940e-04
3.529993e+01	-2.288145e-04
3.550382e+01	-2.314653e-04
3.570889e+01	-2.341468e-04
3.591515e+01	-2.368594e-04
3.612259e+01	-2.396034e-04
3.633123e+01	-2.423792e-04
3.654108e+01	-2.451872e-04
3.675214e+01	-2.480276e-04
3.696442e+01	-2.509010e-04
3.717792e+01	-2.538077e-04
3.739266e+01	-2.567480e-04
3.760864e+01	-2.597224e-04
3.782587e+01	-2.627313e-04
3.804435e+01	-2.657750e-04
3.826409e+01	-2.688540e-04
3.848510e+01	-2.719687e-04
3.870739e+01	-2.751194e-04
3.893096e+01	-2.783066e-04
3.915583e+01	-2.815308e-04
3.938199e+01	-2.847923e-04
3.960946e+01	-2.880916e-04
3.983824e+01	-2.914291e-04
4.006834e+01	-2.948053e-04
4.029978e+01	-2.982206e-04
4.053255e+01	-3.016754e-04
4.076666e+01	-3.051703e-04
4.100213e+01	-3.087056e-04
4.123896e+01	-3.122819e-04
4.147715e+01	-3.158997e-04
4.171672e+01	-3.195593e-04
4.195767e+01	-3.232614e-04
4.220002e+01	-3.270063e-04
4.244377e+01	-3.307946e-04
4.268892e+01	-3.346268e-04
4.293549e+01	-3.385034e-04
4.318348e+01	-3.424249e-04
4.343291e+01	-3.463918e-04
4.368377e+01	-3.504047e-04
4.393609e+01	-3.544641e-04
4.418986e+01	-3.585705e-04
4.444510e+01	-3.627245e-04
4.470182e+01	-3.669265e-04
4.496001e+01	-3.711773e-04
4.521970e+01	-3.754773e-04
4.548089e+01	-3.798271e-04
4.574358e+01	-3.842273e-04
4.600779e+01	-3.886785e-04
4.627353e+01	-3.931813e-04
4.654081e+01	-3.977362e-04
4.680963e+01	-4.023438e-04
4.708000e+01	-4.070049e-04
4.735193e+01	-4.117199e-04
4.762543e+01	-4.164896e-04
4.790051e+01	-4.213145e-04
4.817719e+01	-4.261953e-04
4.845545e+01	-4.311327e-04
4.873533e+01	-4.361272e-04
4.901682e+01	-4.411796e-04
4.929994e+01	-4.462905e-04
4.958470e+01	-4.514607e-04
4.987110e+01	-4.566907e-04
5.015915e+01	-4.619813e-04
5.044887e+01	-4.673332e-04
5.074026e+01	-4.727471e-04
5.103333e+01	-4.782237e-04
5.132810e+01	-4.837637e-04
5.162457e+01	-4.893679e-04
5.192275e+01	-4.950371e-04
5.222265e+01	-5.007719e-04
5.252429e+01	-5.065731e-04
5.282767e+01	-5.124416e-04
5.313280e+01	-5.183780e-04
5.343969e+01	-5.243832e-04
5.374836e+01	-5.304579e-04
5.405880e+01	-5.366031e-04
5.437105e+01	-5.428194e-04
5.468509e+01	-5.491077e-04
5.500095e+01	-5.554688e-04
5.531863e+01	-5.619037e-04
5.563815e+01	-5.684131e-04
5.595951e+01	-5.749978e-04
5.628273e+01	-5.816589e-04
5.660782e+01	-5.883971e-04
5.693479e+01	-5.952134e-04
5.726364e+01	-6.021086e-04
5.759439e+01	-6.090837e-04
5.792705e+01	-6.161397e-04
5.826164e+01	-6.232773e-04
5.859815e+01	-6.304976e-04
5.893662e+01	-6.378016e-04
5.927703e+01	-6.451901e-04
5.961941e+01	-6.526643e-04
5.996377e+01	-6.602250e-04
6.031012e+01	-6.678733e-04
6.065847e+01	-6.756102e-04
6.100883e+01	-6.834367e-04
6.136121e+01	-6.913539e-04
6.171563e+01	-6.993627e-04
6.207210e+01	-7.074644e-04
6.243063e+01	-7.156599e-04
6.279122e+01	-7.239503e-04
6.315390e+01	-7.323368e-04
6.351868e+01	-7.408204e-04
6.388556e+01	-7.494022e-04
6.425456e+01	-7.580835e-04
6.462569e+01	-7.668653e-04
6.499897e+01	-7.757489e-04
6.537440e+01	-7.847353e-04
6.575200e+01	-7.938259e-04
6.613178e+01	-8.030217e-04
6.651375e+01	-8.123241e-04
6.689793e+01	-8.217342e-04
6.728433e+01	-8.312533e-04
6.767297e+01	-8.408826e-04
6.806384e+01	-8.506235e-04
6.845698e+01	-8.604773e-04
6.885238e+01	-8.704451e-04
6.925007e+01	-8.805285e-04
6.965005e+01	-8.907286e-04
7.005235e+01	-9.010468e-04
7.045697e+01	-9.114846e-04
7.086393e+01	-9.220433e-04
7.127323e+01	-9.327243e-04
7.168490e+01	-9.435290e-04
7.209895e+01	-9.544588e-04
7.251539e+01	-9.655152e-04
7.293424e+01	-9.766997e-04
7.335551e+01	-9.880138e-04
7.377920e+01	-9.994589e-04
7.420535e+01	-1.011037e-03
7.463396e+01	-1.022748e-03
7.506504e+01	-1.034596e-03
7.549861e+01	-1.046580e-03
7.593469e+01	-1.058704e-03
7.637328e+01	-1.070968e-03
7.681441e+01	-1.083374e-03
7.725809e+01	-1.095923e-03
7.770433e+01	-1.108618e-03
7.815315e+01	-1.121460e-03
7.860456e+01	-1.134451e-03
7.905857e+01	-1.147592e-03
7.951521e+01	-1.160885e-03
7.997449e+01	-1.174333e-03
8.043642e+01	-1.187936e-03
8.090102e+01	-1.201696e-03
8.136830e+01	-1.215616e-03
8.183828e+01	-1.229698e-03
8.231097e+01	-1.243942e-03
8.278640e+01	-1.258351e-03
8.326457e+01	-1.272928e-03
8.374550e+01	-1.287673e-03
8.422921e+01	-1.302588e-03
8.471572e+01	-1.317677e-03
8.520503e+01	-1.332940e-03
8.569717e+01	-1.348380e-03
8.619215e+01	-1.363999e-03
8.669000e+01	-1.379799e-03
8.719071e+01	-1.395782e-03
8.769432e+01	-1.411950e-03
8.820084e+01	-1.428305e-03
8.871029e+01	-1.444849e-03
8.922267e+01	-1.461586e-03
8.973802e+01	-1.478515e-03
9.025634e+01	-1.495642e-03
9.077766e+01	-1.512966e-03
9.130199e+01	-1.530491e-03
9.182935e+01	-1.548219e-03
9.235975e+01	-1.566152e-03
9.289321e+01	-1.584293e-03
9.342976e+01	-1.602644e-03
9.396941e+01	-1.621208e-03
9.451217e+01	-1.639986e-03
9.505807e+01	-1.658983e-03
9.560712e+01	-1.678199e-03
9.615934e+01	-1.697637e-03
9.671476e+01	-1.717301e-03
9.727338e+01	-1.737192e-03
9.783522e+01	-1.757314e-03
9.840032e+01	-1.777669e-03
9.896867e+01	-1.798259e-03
9.954031e+01	-1.819088e-03
1.001153e+02	-1.840158e-03
1.006935e+02	-1.861473e-03
1.012751e+02	-1.883034e-03
1.018601e+02	-1.904844e-03
1.024484e+02	-1.926907e-03
1.030402e+02	-1.949226e-03
1.036353e+02	-1.971803e-03
1.042339e+02	-1.994642e-03
1.048360e+02	-2.017745e-03
1.054415e+02	-2.041116e-03
1.060505e+02	-2.064757e-03
1.066631e+02	-2.088672e-03
1.072791e+02	-2.112864e-03
1.078988e+02	-2.137336e-03
1.085220e+02	-2.162091e-03
1.091488e+02	-2.187133e-03
1.097793e+02	-2.212466e-03
1.104133e+02	-2.238091e-03
1.110511e+02	-2.264013e-03
1.116925e+02	-2.290235e-03
1.123376e+02	-2.316761e-03
1.129865e+02	-2.343594e-03
1.136391e+02	-2.370738e-03
1.142955e+02	-2.398196e-03
1.149556e+02	-2.425972e-03
1.156196e+02	-2.454070e-03
1.162874e+02	-2.482492e-03
1.169591e+02	-2.511244e-03
1.176347e+02	-2.540329e-03
1.183141e+02	-2.569751e-03
1.189975e+02	-2.599513e-03
1.196848e+02	-2.629620e-03
1.203761e+02	-2.660076e-03
1.210714e+02	-2.690884e-03
1.217707e+02	-2.722049e-03
1.224740e+02	-2.753574e-03
1.231814e+02	-2.785465e-03
1.238929e+02	-2.817725e-03
1.246085e+02	-2.850358e-03
1.253283e+02	-2.883369e-03
1.260522e+02	-2.916763e-03
1.267802e+02	-2.950543e-03
1.275125e+02	-2.984714e-03
1.282490e+02	-3.019281e-03
1.289898e+02	-3.054247e-03
1.297348e+02	-3.089619e-03
1.304842e+02	-3.125400e-03
1.312378e+02	-3.161596e-03
1.319959e+02	-3.198210e-03
1.327583e+02	-3.235248e-03
1.335251e+02	-3.272715e-03
1.342963e+02	-3.310616e-03
1.350720e+02	-3.348956e-03
1.358522e+02	-3.387739e-03
1.366368e+02	-3.426971e-03
1.374260e+02	-3.466658e-03
1.382198e+02	-3.506804e-03
1.390182e+02	-3.547414e-03
1.398211e+02	-3.588495e-03
1.406287e+02	-3.630051e-03
1.414410e+02	-3.672089e-03
1.422579e+02	-3.714612e-03
1.430796e+02	-3.757629e-03
1.439060e+02	-3.801143e-03
1.447372e+02	-3.845160e-03
1.455732e+02	-3.889688e-03
1.464141e+02	-3.934730e-03
1.472597e+02	-3.980294e-03
1.481103e+02	-4.026385e-03
1.489658e+02	-4.073010e-03
1.498262e+02	-4.120175e-03
1.506916e+02	-4.167885e-03
1.515620e+02	-4.216148e-03
1.524374e+02	-4.264969e-03
1.533179e+02	-4.314355e-03
1.542034e+02	-4.364313e-03
1.550941e+02	-4.414849e-03
1.559899e+02	-4.465969e-03
1.568909e+02	-4.517682e-03
1.577971e+02	-4.569993e-03
1.587085e+02	-4.622909e-03
1.596252e+02	-4.676438e-03
1.605472e+02	-4.730586e-03
1.614745e+02	-4.785361e-03
1.624072e+02	-4.840769e-03
1.633453e+02	-4.896819e-03
1.642887e+02	-4.953518e-03
1.652377e+02	-5.010872e-03
1.661921e+02	-5.068891e-03
1.671520e+02	-5.127580e-03
1.681175e+02	-5.186949e-03
1.690885e+02	-5.247005e-03
1.700651e+02	-5.307756e-03
1.710474e+02	-5.369209e-03
1.720354e+02	-5.431374e-03
1.730291e+02	-5.494258e-03
1.740285e+02	-5.557869e-03
1.750337e+02	-5.622217e-03
1.760446e+02	-5.687309e-03
1.770615e+02	-5.753154e-03
1.780842e+02	-5.819761e-03
1.791128e+02	-5.887139e-03
1.801473e+02	-5.955296e-03
1.811878e+02	-6.024242e-03
1.822344e+02	-6.093985e-03
1.832870e+02	-6.164535e-03
1.843456e+02	-6.235902e-03
1.854104e+02	-6.308093e-03
1.864813e+02	-6.381120e-03
1.875584e+02	-6.454992e-03
1.886418e+02	-6.529719e-03
1.897313e+02	-6.605309e-03
1.908272e+02	-6.681775e-03
1.919294e+02	-6.759124e-03
1.930380e+02	-6.837369e-03
1.941530e+02	-6.916518e-03
1.952744e+02	-6.996583e-03
1.964023e+02	-7.077574e-03
1.975367e+02	-7.159502e-03
1.986777e+02	-7.242377e-03
1.998252e+02	-7.326211e-03
2.009794e+02	-7.411014e-03
2.021403e+02	-7.496799e-03
2.033078e+02	-7.583575e-03
2.044821e+02	-7.671355e-03
2.056632e+02	-7.760150e-03
2.068511e+02	-7.849971e-03
2.080459e+02	-7.940832e-03
2.092475e+02	-8.032743e-03
2.104561e+02	-8.125717e-03
2.116717e+02	-8.219766e-03
2.128943e+02	-8.314903e-03
2.141240e+02	-8.411140e-03
2.153608e+02	-8.508489e-03
2.166047e+02	-8.606964e-03
2.178558e+02	-8.706578e-03
2.191141e+02	-8.807343e-03
2.203797e+02	-8.909274e-03
2.216526e+02	-9.012382e-03
2.229329e+02	-9.116683e-03
2.242205e+02	-9.222190e-03
2.255156e+02	-9.328916e-03
2.268182e+02	-9.436876e-03
2.281283e+02	-9.546084e-03
2.294459e+02	-9.656555e-03
2.307712e+02	-9.768302e-03
2.321041e+02	-9.881341e-03
2.334447e+02	-9.995687e-03
2.347931e+02	-1.011135e-02
2.361493e+02	-1.022836e-02
2.375133e+02	-1.034672e-02
2.388851e+02	-1.046644e-02
2.402649e+02	-1.058755e-02
2.416527e+02	-1.071006e-02
2.430484e+02	-1.083398e-02
2.444523e+02	-1.095933e-02
2.458642e+02	-1.108614e-02
2.472843e+02	-1.121441e-02
2.487126e+02	-1.134416e-02
2.501492e+02	-1.147541e-02
2.515940e+02	-1.160818e-02
2.530472e+02	-1.174248e-02
2.545088e+02	-1.187833e-02
2.559789e+02	-1.201575e-02
2.574574e+02	-1.215476e-02
2.589444e+02	-1.229538e-02
2.604401e+02	-1.243762e-02
2.619444e+02	-1.258150e-02
2.634574e+02	-1.272705e-02
2.649791e+02	-1.287428e-02
2.665096e+02	-1.302320e-02
2.680489e+02	-1.317385e-02
2.695972e+02	-1.332624e-02
2.711544e+02	-1.348039e-02
2.727205e+02	-1.363631e-02
2.742958e+02	-1.379404e-02
2.758801e+02	-1.395359e-02
2.774736e+02	-1.411499e-02
2.790762e+02	-1.427824e-02
2.806882e+02	-1.444338e-02
2.823094e+02	-1.461043e-02
2.839400e+02	-1.477941e-02
2.855800e+02	-1.495033e-02
2.872295e+02	-1.512324e-02
2.888886e+02	-1.529813e-02
2.905572e+02	-1.547505e-02
2.922354e+02	-1.565401e-02
2.939234e+02	-1.583503e-02
2.956211e+02	-1.601814e-02
2.973286e+02	-1.620337e-02
2.990459e+02	-1.639073e-02
3.007732e+02	-1.658026e-02
3.025104e+02	-1.677198e-02
3.042577e+02	-1.696590e-02
3.060151e+02	-1.716207e-02
3.077826e+02	-1.736050e-02
3.095604e+02	-1.756121e-02
3.113484e+02	-1.776425e-02
3.131467e+02	-1.796962e-02
3.149554e+02	-1.817737e-02
3.167746e+02	-1.838751e-02
3.186043e+02	-1.860008e-02
3.204445e+02	-1.881510e-02
3.222954e+02	-1.903259e-02
3.241570e+02	-1.925260e-02
3.260293e+02	-1.947515e-02
3.279124e+02	-1.970026e-02
3.298064e+02	-1.992796e-02
3.317114e+02	-2.015830e-02
3.336273e+02	-2.039129e-02
3.355544e+02	-2.062696e-02
3.374925e+02	-2.086535e-02
3.394418e+02	-2.110649e-02
3.414024e+02	-2.135042e-02
3.433744e+02	-2.159715e-02
3.453577e+02	-2.184673e-02
3.473525e+02	-2.209918e-02
3.493588e+02	-2.235454e-02
3.513766e+02	-2.261285e-02
3.534062e+02	-2.287413e-02
3.554474e+02	-2.313843e-02
3.575005e+02	-2.340577e-02
3.595654e+02	-2.367619e-02
3.616422e+02	-2.394972e-02
3.637311e+02	-2.422641e-02
3.658320e+02	-2.450629e-02
3.679450e+02	-2.478938e-02
3.700702e+02	-2.507574e-02
3.722077e+02	-2.536540e-02
3.743576e+02	-2.565840e-02
3.765199e+02	-2.595476e-02
3.786946e+02	-2.625455e-02
3.808820e+02	-2.655778e-02
3.830819e+02	-2.686450e-02
3.852946e+02	-2.717476e-02
3.875200e+02	-2.748858e-02
3.897583e+02	-2.780602e-02
3.920096e+02	-2.812712e-02
3.942738e+02	-2.845191e-02
3.965511e+02	-2.878043e-02
3.988416e+02	-2.911274e-02
4.011452e+02	-2.944887e-02
4.034622e+02	-2.978887e-02
4.057926e+02	-3.013278e-02
4.081365e+02	-3.048065e-02
4.104938e+02	-3.083252e-02
4.128648e+02	-3.118844e-02
4.152495e+02	-3.154845e-02
4.176480e+02	-3.191260e-02
4.200603e+02	-3.228093e-02
4.224866e+02	-3.265351e-02
4.249268e+02	-3.303036e-02
4.273812e+02	-3.341155e-02
4.298497e+02	-3.379712e-02
4.323325e+02	-3.418713e-02
4.348297e+02	-3.458161e-02
4.373412e+02	-3.498063e-02
4.398673e+02	-3.538424e-02
4.424079e+02	-3.579248e-02
4.449633e+02	-3.620541e-02
4.475334e+02	-3.662309e-02
4.501183e+02	-3.704556e-02
4.527182e+02	-3.747289e-02
4.553330e+02	-3.790512e-02
4.579630e+02	-3.834232e-02
4.606082e+02	-3.878453e-02
4.632687e+02	-3.923183e-02
4.659445e+02	-3.968426e-02
4.686358e+02	-4.014188e-02
4.713426e+02	-4.060476e-02
4.740650e+02	-4.107294e-02
4.768032e+02	-4.154650e-02
4.795572e+02	-4.202550e-02
4.823271e+02	-4.250998e-02
4.851130e+02	-4.300003e-02
4.879150e+02	-4.349570e-02
4.907332e+02	-4.399705e-02
4.935676e+02	-4.450415e-02
4.964185e+02	-4.501706e-02
4.992858e+02	-4.553586e-02
5.021696e+02	-4.606060e-02
5.050701e+02	-4.659135e-02
5.079874e+02	-4.712819e-02
5.109215e+02	-4.767118e-02
5.138726e+02	-4.822039e-02
5.168407e+02	-4.877590e-02
5.198259e+02	-4.933776e-02
5.228284e+02	-4.990606e-02
5.258482e+02	-5.048087e-02
5.288855e+02	-5.106226e-02
5.319403e+02	-5.165031e-02
5.350128e+02	-5.224509e-02
5.381030e+02	-5.284667e-02
5.412111e+02	-5.345514e-02
5.443371e+02	-5.407057e-02
5.474812e+02	-5.469304e-02
5.506434e+02	-5.532264e-02
5.538239e+02	-5.595943e-02
5.570228e+02	-5.660350e-02
5.602401e+02	-5.725494e-02
5.634760e+02	-5.791383e-02
5.667306e+02	-5.858024e-02
5.700040e+02	-5.925428e-02
5.732964e+02	-5.993601e-02
5.766077e+02	-6.062553e-02
5.799382e+02	-6.132293e-02
5.832879e+02	-6.202830e-02
5.866569e+02	-6.274172e-02
5.900454e+02	-6.346328e-02
5.934535e+02	-6.419308e-02
5.968813e+02	-6.493121e-02
6.003288e+02	-6.567777e-02
6.037963e+02	-6.643284e-02
6.072838e+02	-6.719652e-02
6.107914e+02	-6.796892e-02
6.143194e+02	-6.875012e-02
6.178676e+02	-6.954023e-02
6.214364e+02	-7.033934e-02
6.250258e+02	-7.114757e-02
6.286359e+02	-7.196500e-02
6.322669e+02	-7.279174e-02
6.359189e+02	-7.362791e-02
6.395919e+02	-7.447359e-02
6.432862e+02	-7.532891e-02
6.470017e+02	-7.619396e-02
6.507388e+02	-7.706885e-02
6.544974e+02	-7.795371e-02
6.582778e+02	-7.884862e-02
6.620800e+02	-7.975372e-02
6.659041e+02	-8.066911e-02
6.697504e+02	-8.159491e-02
6.736188e+02	-8.253123e-02
6.775096e+02	-8.347820e-02
6.814229e+02	-8.443592e-02
6.853587e+02	-8.540452e-02
6.893173e+02	-8.638412e-02
6.932988e+02	-8.737485e-02
6.973033e+02	-8.837682e-02
7.013309e+02	-8.939016e-02
