Frequency(Hz)	Magnitude(dB)
1.000000e+01	-2.078932e+00
1.005776e+01	-2.098162e+00
1.011585e+01	-2.117321e+00
1.017428e+01	-2.136663e+00
1.023305e+01	-2.156112e+00
1.029215e+01	-2.175771e+00
1.035160e+01	-2.195598e+00
1.041139e+01	-2.215625e+00
1.047153e+01	-2.235488e+00
1.053201e+01	-2.255994e+00
1.059284e+01	-2.276163e+00
1.065403e+01	-2.296666e+00
1.071556e+01	-2.317296e+00
1.077746e+01	-2.337860e+00
1.083971e+01	-2.358942e+00
1.090232e+01	-2.379874e+00
1.096529e+01	-2.401316e+00
1.102862e+01	-2.422321e+00
1.109232e+01	-2.443690e+00
1.115639e+01	-2.465511e+00
1.122083e+01	-2.487284e+00
1.128564e+01	-2.509144e+00
1.135083e+01	-2.530990e+00
1.141639e+01	-2.553473e+00
1.148233e+01	-2.575656e+00
1.154865e+01	-2.598272e+00
1.161536e+01	-2.620655e+00
1.168245e+01	-2.643238e+00
1.174992e+01	-2.666318e+00
1.181779e+01	-2.689260e+00
1.188605e+01	-2.712394e+00
1.195470e+01	-2.735711e+00
1.202375e+01	-2.759209e+00
1.209320e+01	-2.782687e+00
1.216305e+01	-2.806453e+00
1.223330e+01	-2.830590e+00
1.230396e+01	-2.854503e+00
1.237503e+01	-2.878637e+00
1.244651e+01	-2.902997e+00
1.251840e+01	-2.927525e+00
1.259070e+01	-2.952071e+00
1.266343e+01	-2.976900e+00
1.273657e+01	-3.001641e+00
1.281014e+01	-3.026709e+00
1.288413e+01	-3.051781e+00
1.295855e+01	-3.077361e+00
1.303339e+01	-3.102772e+00
1.310867e+01	-3.128220e+00
1.318439e+01	-3.153839e+00
1.326054e+01	-3.179960e+00
1.333713e+01	-3.205971e+00
1.341417e+01	-3.232182e+00
1.349165e+01	-3.258603e+00
1.356958e+01	-3.284994e+00
1.364795e+01	-3.311620e+00
1.372678e+01	-3.338262e+00
1.380607e+01	-3.365374e+00
1.388581e+01	-3.392312e+00
1.396602e+01	-3.419521e+00
1.404668e+01	-3.446808e+00
1.412782e+01	-3.474348e+00
1.420942e+01	-3.501682e+00
1.429149e+01	-3.529857e+00
1.437404e+01	-3.557650e+00
1.445706e+01	-3.585522e+00
1.454057e+01	-3.613795e+00
1.462455e+01	-3.642239e+00
1.470902e+01	-3.670724e+00
1.479398e+01	-3.699216e+00
1.487943e+01	-3.728157e+00
1.496537e+01	-3.756675e+00
1.505181e+01	-3.786171e+00
1.513875e+01	-3.815149e+00
1.522619e+01	-3.844570e+00
1.531414e+01	-3.873848e+00
1.540259e+01	-3.903333e+00
1.549156e+01	-3.932947e+00
1.558103e+01	-3.963131e+00
1.567103e+01	-3.993114e+00
1.576155e+01	-4.023026e+00
1.585258e+01	-4.053410e+00
1.594415e+01	-4.083746e+00
1.603624e+01	-4.114534e+00
1.612886e+01	-4.145038e+00
1.622202e+01	-4.175920e+00
1.631572e+01	-4.206914e+00
1.640996e+01	-4.238270e+00
1.650474e+01	-4.269207e+00
1.660008e+01	-4.300660e+00
1.669596e+01	-4.332272e+00
1.679239e+01	-4.363737e+00
1.688938e+01	-4.395675e+00
1.698694e+01	-4.427312e+00
1.708505e+01	-4.459746e+00
1.718373e+01	-4.491673e+00
1.728299e+01	-4.524070e+00
1.738281e+01	-4.556702e+00
1.748322e+01	-4.588995e+00
1.758420e+01	-4.621689e+00
1.768576e+01	-4.654655e+00
1.778792e+01	-4.687443e+00
1.789066e+01	-4.720525e+00
1.799399e+01	-4.753930e+00
1.809793e+01	-4.787286e+00
1.820246e+01	-4.820542e+00
1.830760e+01	-4.854025e+00
1.841334e+01	-4.887862e+00
1.851969e+01	-4.921604e+00
1.862666e+01	-4.955962e+00
1.873425e+01	-4.990079e+00
1.884246e+01	-5.024141e+00
1.895129e+01	-5.058610e+00
1.906075e+01	-5.093005e+00
1.917085e+01	-5.127624e+00
1.928158e+01	-5.161960e+00
1.939295e+01	-5.196950e+00
1.950496e+01	-5.232069e+00
1.961762e+01	-5.267326e+00
1.973093e+01	-5.302395e+00
1.984490e+01	-5.337779e+00
1.995952e+01	-5.373472e+00
2.007480e+01	-5.408963e+00
2.019076e+01	-5.444323e+00
2.030738e+01	-5.480152e+00
2.042467e+01	-5.516290e+00
2.054264e+01	-5.552498e+00
2.066130e+01	-5.588413e+00
2.078064e+01	-5.624428e+00
2.090066e+01	-5.660876e+00
2.102139e+01	-5.697673e+00
2.114280e+01	-5.734301e+00
2.126492e+01	-5.771118e+00
2.138775e+01	-5.807746e+00
2.151128e+01	-5.844861e+00
2.163553e+01	-5.881841e+00
2.176050e+01	-5.918727e+00
2.188619e+01	-5.956326e+00
2.201260e+01	-5.993775e+00
2.213974e+01	-6.031220e+00
2.226762e+01	-6.068743e+00
2.239624e+01	-6.106279e+00
2.252560e+01	-6.144259e+00
2.265571e+01	-6.182035e+00
2.278656e+01	-6.220259e+00
2.291818e+01	-6.258171e+00
2.305055e+01	-6.296754e+00
2.318369e+01	-6.334864e+00
2.331760e+01	-6.373148e+00
2.345228e+01	-6.411916e+00
2.358774e+01	-6.450391e+00
2.372398e+01	-6.489405e+00
2.386101e+01	-6.528151e+00
2.399883e+01	-6.567129e+00
2.413745e+01	-6.606019e+00
2.427686e+01	-6.645111e+00
2.441709e+01	-6.684387e+00
2.455812e+01	-6.723796e+00
2.469997e+01	-6.763326e+00
2.484263e+01	-6.803161e+00
2.498612e+01	-6.842262e+00
2.513044e+01	-6.882121e+00
2.527559e+01	-6.921774e+00
2.542158e+01	-6.961982e+00
2.556842e+01	-7.001669e+00
2.571610e+01	-7.041876e+00
2.586463e+01	-7.082430e+00
2.601403e+01	-7.122610e+00
2.616428e+01	-7.162778e+00
2.631541e+01	-7.203331e+00
2.646740e+01	-7.244225e+00
2.662028e+01	-7.284325e+00
2.677404e+01	-7.324785e+00
2.692868e+01	-7.365764e+00
2.708422e+01	-7.406775e+00
2.724066e+01	-7.448047e+00
2.739800e+01	-7.488698e+00
2.755625e+01	-7.530147e+00
2.771541e+01	-7.571286e+00
2.787550e+01	-7.612423e+00
2.803650e+01	-7.654184e+00
2.819844e+01	-7.695638e+00
2.836131e+01	-7.736897e+00
2.852513e+01	-7.778693e+00
2.868989e+01	-7.820322e+00
2.885560e+01	-7.861821e+00
2.902227e+01	-7.903896e+00
2.918990e+01	-7.945859e+00
2.935850e+01	-7.988062e+00
2.952807e+01	-8.030037e+00
2.969863e+01	-8.072428e+00
2.987016e+01	-8.114448e+00
3.004269e+01	-8.156950e+00
3.021622e+01	-8.199487e+00
3.039075e+01	-8.242448e+00
3.056628e+01	-8.284504e+00
3.074283e+01	-8.327078e+00
3.092040e+01	-8.369716e+00
3.109900e+01	-8.412952e+00
3.127862e+01	-8.454961e+00
3.145929e+01	-8.498138e+00
3.164099e+01	-8.541465e+00
3.182375e+01	-8.584286e+00
3.200756e+01	-8.627590e+00
3.219244e+01	-8.670701e+00
3.237838e+01	-8.714240e+00
3.256540e+01	-8.756806e+00
3.275349e+01	-8.800817e+00
3.294268e+01	-8.844261e+00
3.313295e+01	-8.888084e+00
3.332433e+01	-8.931469e+00
3.351681e+01	-8.974986e+00
3.371040e+01	-9.018673e+00
3.390511e+01	-9.062445e+00
3.410094e+01	-9.106060e+00
3.429791e+01	-9.149908e+00
3.449601e+01	-9.193886e+00
3.469526e+01	-9.237784e+00
3.489566e+01	-9.281967e+00
3.509721e+01	-9.326543e+00
3.529993e+01	-9.370810e+00
3.550382e+01	-9.414890e+00
3.570889e+01	-9.459198e+00
3.591515e+01	-9.503882e+00
3.612259e+01	-9.547947e+00
3.633123e+01	-9.592552e+00
3.654108e+01	-9.636996e+00
3.675214e+01	-9.681705e+00
3.696442e+01	-9.726413e+00
3.717792e+01	-9.770988e+00
3.739266e+01	-9.816201e+00
3.760864e+01	-9.860929e+00
3.782587e+01	-9.905460e+00
3.804435e+01	-9.950746e+00
3.826409e+01	-9.995893e+00
3.848510e+01	-1.004082e+01
3.870739e+01	-1.008561e+01
3.893096e+01	-1.013091e+01
3.915583e+01	-1.017577e+01
3.938199e+01	-1.022116e+01
3.960946e+01	-1.026682e+01
3.983824e+01	-1.031171e+01
4.006834e+01	-1.035755e+01
4.029978e+01	-1.040243e+01
4.053255e+01	-1.044830e+01
4.076666e+01	-1.049317e+01
4.100213e+01	-1.053908e+01
4.123896e+01	-1.058518e+01
4.147715e+01	-1.063093e+01
4.171672e+01	-1.067664e+01
4.195767e+01	-1.072241e+01
4.220002e+01	-1.076822e+01
4.244377e+01	-1.081402e+01
4.268892e+01	-1.085977e+01
4.293549e+01	-1.090589e+01
4.318348e+01	-1.095162e+01
4.343291e+01	-1.099780e+01
4.368377e+01	-1.104402e+01
4.393609e+01	-1.108985e+01
4.418986e+01	-1.113680e+01
4.444510e+01	-1.118143e+01
4.470182e+01	-1.122866e+01
4.496001e+01	-1.127481e+01
4.521970e+01	-1.132054e+01
4.548089e+01	-1.136726e+01
4.574358e+01	-1.141355e+01
4.600779e+01	-1.146065e+01
4.627353e+01	-1.150681e+01
4.654081e+01	-1.155299e+01
4.680963e+01	-1.159968e+01
4.708000e+01	-1.164635e+01
4.735193e+01	-1.169309e+01
4.762543e+01	-1.173944e+01
4.790051e+01	-1.178637e+01
4.817719e+01	-1.183335e+01
4.845545e+01	-1.187968e+01
4.873533e+01	-1.192650e+01
4.901682e+01	-1.197326e+01
4.929994e+01	-1.202078e+01
4.958470e+01	-1.206675e+01
4.987110e+01	-1.211340e+01
5.015915e+01	-1.216179e+01
5.044887e+01	-1.220836e+01
5.074026e+01	-1.225557e+01
5.103333e+01	-1.230231e+01
5.132810e+01	-1.234924e+01
5.162457e+01	-1.239698e+01
5.192275e+01	-1.244411e+01
5.222265e+01	-1.249125e+01
5.252429e+01	-1.253835e+01
5.282767e+01	-1.258532e+01
5.313280e+01	-1.263210e+01
5.343969e+01	-1.267963e+01
5.374836e+01	-1.272747e+01
5.405880e+01	-1.277539e+01
5.437105e+01	-1.282242e+01
5.468509e+01	-1.286981e+01
5.500095e+01	-1.291710e+01
5.531863e+01	-1.296452e+01
5.563815e+01	-1.301244e+01
5.595951e+01	-1.305919e+01
5.628273e+01	-1.310721e+01
5.660782e+01	-1.315513e+01
5.693479e+01	-1.320207e+01
5.726364e+01	-1.324953e+01
5.759439e+01	-1.329766e+01
5.792705e+01	-1.334489e+01
5.826164e+01	-1.339304e+01
5.859815e+01	-1.344061e+01
5.893662e+01	-1.348880e+01
5.927703e+01	-1.353591e+01
5.961941e+01	-1.358441e+01
5.996377e+01	-1.363171e+01
6.031012e+01	-1.367963e+01
6.065847e+01	-1.372775e+01
6.100883e+01	-1.377577e+01
6.136121e+01	-1.382295e+01
6.171563e+01	-1.387197e+01
6.207210e+01	-1.391999e+01
6.243063e+01	-1.396713e+01
6.279122e+01	-1.401577e+01
6.315390e+01	-1.406374e+01
6.351868e+01	-1.411103e+01
6.388556e+01	-1.415995e+01
6.425456e+01	-1.420789e+01
6.462569e+01	-1.425675e+01
6.499897e+01	-1.430381e+01
6.537440e+01	-1.435323e+01
6.575200e+01	-1.440082e+01
6.613178e+01	-1.444824e+01
6.651375e+01	-1.449733e+01
6.689793e+01	-1.454503e+01
6.728433e+01	-1.459368e+01
6.767297e+01	-1.464225e+01
6.806384e+01	-1.469128e+01
6.845698e+01	-1.473870e+01
6.885238e+01	-1.478790e+01
6.925007e+01	-1.483593e+01
6.965005e+01	-1.488316e+01
7.005235e+01	-1.493153e+01
7.045697e+01	-1.498140e+01
7.086393e+01	-1.502921e+01
7.127323e+01	-1.507773e+01
7.168490e+01	-1.512616e+01
7.209895e+01	-1.517427e+01
7.251539e+01	-1.522243e+01
7.293424e+01	-1.527211e+01
7.335551e+01	-1.532021e+01
7.377920e+01	-1.536944e+01
7.420535e+01	-1.541750e+01
7.463396e+01	-1.546562e+01
7.506504e+01	-1.551509e+01
7.549861e+01	-1.556285e+01
7.593469e+01	-1.561298e+01
7.637328e+01	-1.566068e+01
7.681441e+01	-1.570911e+01
7.725809e+01	-1.575822e+01
7.770433e+01	-1.580768e+01
7.815315e+01	-1.585560e+01
7.860456e+01	-1.590462e+01
7.905857e+01	-1.595215e+01
7.951521e+01	-1.600192e+01
7.997449e+01	-1.604998e+01
8.043642e+01	-1.609957e+01
8.090102e+01	-1.614799e+01
8.136830e+01	-1.619553e+01
8.183828e+01	-1.624499e+01
8.231097e+01	-1.629445e+01
8.278640e+01	-1.634271e+01
8.326457e+01	-1.639178e+01
8.374550e+01	-1.644159e+01
8.422921e+01	-1.648986e+01
8.471572e+01	-1.653834e+01
8.520503e+01	-1.658782e+01
8.569717e+01	-1.663578e+01
8.619215e+01	-1.668595e+01
8.669000e+01	-1.673403e+01
8.719071e+01	-1.678397e+01
8.769432e+01	-1.683202e+01
8.820084e+01	-1.688133e+01
8.871029e+01	-1.693135e+01
8.922267e+01	-1.697871e+01
8.973802e+01	-1.702911e+01
9.025634e+01	-1.707836e+01
9.077766e+01	-1.712695e+01
9.130199e+01	-1.717562e+01
9.182935e+01	-1.722401e+01
9.235975e+01	-1.727384e+01
9.289321e+01	-1.732261e+01
9.342976e+01	-1.737223e+01
9.396941e+01	-1.742102e+01
9.451217e+01	-1.747101e+01
9.505807e+01	-1.752007e+01
9.560712e+01	-1.756872e+01
9.615934e+01	-1.761737e+01
9.671476e+01	-1.766716e+01
9.727338e+01	-1.771616e+01
9.783522e+01	-1.776584e+01
9.840032e+01	-1.781397e+01
9.896867e+01	-1.786375e+01
9.954031e+01	-1.791375e+01
1.001153e+02	-1.796308e+01
1.006935e+02	-1.801244e+01
1.012751e+02	-1.806032e+01
1.018601e+02	-1.811016e+01
1.024484e+02	-1.815894e+01
1.030402e+02	-1.820960e+01
1.036353e+02	-1.825741e+01
1.042339e+02	-1.830723e+01
1.048360e+02	-1.835610e+01
1.054415e+02	-1.840585e+01
1.060505e+02	-1.845599e+01
1.066631e+02	-1.850390e+01
1.072791e+02	-1.855324e+01
1.078988e+02	-1.860197e+01
1.085220e+02	-1.865287e+01
1.091488e+02	-1.870328e+01
1.097793e+02	-1.874906e+01
1.104133e+02	-1.880009e+01
1.110511e+02	-1.884974e+01
1.116925e+02	-1.889997e+01
1.123376e+02	-1.894859e+01
1.129865e+02	-1.899846e+01
1.136391e+02	-1.904653e+01
1.142955e+02	-1.909813e+01
1.149556e+02	-1.914636e+01
1.156196e+02	-1.919682e+01
1.162874e+02	-1.924303e+01
1.169591e+02	-1.929415e+01
1.176347e+02	-1.934318e+01
1.183141e+02	-1.939323e+01
1.189975e+02	-1.944227e+01
1.196848e+02	-1.949079e+01
1.203761e+02	-1.954166e+01
1.210714e+02	-1.959002e+01
1.217707e+02	-1.964015e+01
1.224740e+02	-1.969065e+01
1.231814e+02	-1.973833e+01
1.238929e+02	-1.978966e+01
1.246085e+02	-1.983999e+01
1.253283e+02	-1.988853e+01
1.260522e+02	-1.993793e+01
1.267802e+02	-1.998782e+01
1.275125e+02	-2.003828e+01
1.282490e+02	-2.008643e+01
1.289898e+02	-2.013673e+01
1.297348e+02	-2.018492e+01
1.304842e+02	-2.023498e+01
1.312378e+02	-2.028229e+01
1.319959e+02	-2.033487e+01
1.327583e+02	-2.038385e+01
1.335251e+02	-2.043440e+01
1.342963e+02	-2.048268e+01
1.350720e+02	-2.053225e+01
1.358522e+02	-2.058172e+01
1.366368e+02	-2.063150e+01
1.374260e+02	-2.068199e+01
1.382198e+02	-2.073211e+01
1.390182e+02	-2.078123e+01
1.398211e+02	-2.082956e+01
1.406287e+02	-2.088018e+01
1.414410e+02	-2.092920e+01
1.422579e+02	-2.097857e+01
1.430796e+02	-2.102952e+01
1.439060e+02	-2.107950e+01
1.447372e+02	-2.112838e+01
1.455732e+02	-2.117927e+01
1.464141e+02	-2.122885e+01
1.472597e+02	-2.127883e+01
1.481103e+02	-2.132664e+01
1.489658e+02	-2.137852e+01
1.498262e+02	-2.142810e+01
1.506916e+02	-2.147723e+01
1.515620e+02	-2.152496e+01
1.524374e+02	-2.157515e+01
1.533179e+02	-2.162699e+01
1.542034e+02	-2.167545e+01
1.550941e+02	-2.172502e+01
1.559899e+02	-2.177186e+01
1.568909e+02	-2.182343e+01
1.577971e+02	-2.187465e+01
1.587085e+02	-2.192337e+01
1.596252e+02	-2.197451e+01
1.605472e+02	-2.202485e+01
1.614745e+02	-2.207129e+01
1.624072e+02	-2.212412e+01
1.633453e+02	-2.217316e+01
1.642887e+02	-2.222373e+01
1.652377e+02	-2.227152e+01
1.661921e+02	-2.232004e+01
1.671520e+02	-2.237144e+01
1.681175e+02	-2.242062e+01
1.690885e+02	-2.247082e+01
1.700651e+02	-2.252065e+01
1.710474e+02	-2.257061e+01
1.720354e+02	-2.262085e+01
1.730291e+02	-2.267131e+01
1.740285e+02	-2.271970e+01
1.750337e+02	-2.276900e+01
1.760446e+02	-2.282101e+01
1.770615e+02	-2.286887e+01
1.780842e+02	-2.291997e+01
1.791128e+02	-2.296852e+01
1.801473e+02	-2.301950e+01
1.811878e+02	-2.306867e+01
1.822344e+02	-2.311881e+01
1.832870e+02	-2.316983e+01
1.843456e+02	-2.321820e+01
1.854104e+02	-2.326874e+01
1.864813e+02	-2.331670e+01
1.875584e+02	-2.336555e+01
1.886418e+02	-2.341656e+01
1.897313e+02	-2.346714e+01
1.908272e+02	-2.351639e+01
1.919294e+02	-2.356605e+01
1.930380e+02	-2.361535e+01
1.941530e+02	-2.366567e+01
1.952744e+02	-2.371464e+01
1.964023e+02	-2.376533e+01
1.975367e+02	-2.381339e+01
1.986777e+02	-2.386441e+01
1.998252e+02	-2.391512e+01
2.009794e+02	-2.396409e+01
2.021403e+02	-2.401615e+01
2.033078e+02	-2.406325e+01
2.044821e+02	-2.411499e+01
2.056632e+02	-2.416177e+01
2.068511e+02	-2.421548e+01
2.080459e+02	-2.426598e+01
2.092475e+02	-2.431414e+01
2.104561e+02	-2.436242e+01
2.116717e+02	-2.441347e+01
2.128943e+02	-2.446397e+01
2.141240e+02	-2.451638e+01
2.153608e+02	-2.456247e+01
2.166047e+02	-2.461307e+01
2.178558e+02	-2.466428e+01
2.191141e+02	-2.471145e+01
2.203797e+02	-2.476357e+01
2.216526e+02	-2.481155e+01
2.229329e+02	-2.486109e+01
2.242205e+02	-2.491121e+01
2.255156e+02	-2.496399e+01
2.268182e+02	-2.501256e+01
2.281283e+02	-2.506283e+01
2.294459e+02	-2.511258e+01
2.307712e+02	-2.516134e+01
2.321041e+02	-2.521099e+01
2.334447e+02	-2.525920e+01
2.347931e+02	-2.531166e+01
2.361493e+02	-2.536085e+01
2.375133e+02	-2.541105e+01
2.388851e+02	-2.546202e+01
2.402649e+02	-2.551239e+01
2.416527e+02	-2.555992e+01
2.430484e+02	-2.561064e+01
2.444523e+02	-2.566207e+01
2.458642e+02	-2.571358e+01
2.472843e+02	-2.576000e+01
2.487126e+02	-2.581165e+01
2.501492e+02	-2.586167e+01
2.515940e+02	-2.591149e+01
2.530472e+02	-2.595908e+01
2.545088e+02	-2.601058e+01
2.559789e+02	-2.606356e+01
2.574574e+02	-2.611279e+01
2.589444e+02	-2.615784e+01
2.604401e+02	-2.621074e+01
2.619444e+02	-2.626185e+01
2.634574e+02	-2.631294e+01
2.649791e+02	-2.636200e+01
2.665096e+02	-2.641159e+01
2.680489e+02	-2.646006e+01
2.695972e+02	-2.650914e+01
2.711544e+02	-2.656100e+01
2.727205e+02	-2.661136e+01
2.742958e+02	-2.665933e+01
2.758801e+02	-2.670905e+01
2.774736e+02	-2.675941e+01
2.790762e+02	-2.681064e+01
2.806882e+02	-2.685547e+01
2.823094e+02	-2.690917e+01
2.839400e+02	-2.696150e+01
2.855800e+02	-2.700887e+01
2.872295e+02	-2.706072e+01
2.888886e+02	-2.711329e+01
2.905572e+02	-2.715918e+01
2.922354e+02	-2.721251e+01
2.939234e+02	-2.725888e+01
2.956211e+02	-2.730781e+01
2.973286e+02	-2.736115e+01
2.990459e+02	-2.741496e+01
3.007732e+02	-2.746221e+01
3.025104e+02	-2.751087e+01
3.042577e+02	-2.756111e+01
3.060151e+02	-2.761038e+01
3.077826e+02	-2.766093e+01
3.095604e+02	-2.771373e+01
3.113484e+02	-2.776140e+01
3.131467e+02	-2.780660e+01
3.149554e+02	-2.785844e+01
3.167746e+02	-2.790599e+01
3.186043e+02	-2.795820e+01
3.204445e+02	-2.801020e+01
3.222954e+02	-2.806157e+01
3.241570e+02	-2.811265e+01
3.260293e+02	-2.816132e+01
3.279124e+02	-2.821138e+01
3.298064e+02	-2.826075e+01
3.317114e+02	-2.830876e+01
3.336273e+02	-2.835879e+01
3.355544e+02	-2.841212e+01
3.374925e+02	-2.845837e+01
3.394418e+02	-2.851110e+01
3.414024e+02	-2.855890e+01
3.433744e+02	-2.861027e+01
3.453577e+02	-2.866055e+01
3.473525e+02	-2.871186e+01
3.493588e+02	-2.876378e+01
3.513766e+02	-2.881078e+01
3.534062e+02	-2.885816e+01
3.554474e+02	-2.891079e+01
3.575005e+02	-2.896067e+01
3.595654e+02	-2.901052e+01
3.616422e+02	-2.906085e+01
3.637311e+02	-2.911274e+01
3.658320e+02	-2.915910e+01
3.679450e+02	-2.921273e+01
3.700702e+02	-2.926599e+01
3.722077e+02	-2.931510e+01
3.743576e+02	-2.936084e+01
3.765199e+02	-2.940904e+01
3.786946e+02	-2.946058e+01
3.808820e+02	-2.950988e+01
3.830819e+02	-2.956121e+01
3.852946e+02	-2.961715e+01
3.875200e+02	-2.966588e+01
3.897583e+02	-2.971118e+01
3.920096e+02	-2.976284e+01
3.942738e+02	-2.981604e+01
3.965511e+02	-2.985829e+01
3.988416e+02	-2.991010e+01
4.011452e+02	-2.996566e+01
4.034622e+02	-3.001278e+01
4.057926e+02	-3.006383e+01
4.081365e+02	-3.011727e+01
4.104938e+02	-3.016036e+01
4.128648e+02	-3.021176e+01
4.152495e+02	-3.026249e+01
4.176480e+02	-3.031559e+01
4.200603e+02	-3.036634e+01
4.224866e+02	-3.041315e+01
4.249268e+02	-3.046960e+01
4.273812e+02	-3.051527e+01
4.298497e+02	-3.056639e+01
4.323325e+02	-3.060997e+01
4.348297e+02	-3.066677e+01
4.373412e+02	-3.071189e+01
4.398673e+02	-3.076767e+01
4.424079e+02	-3.081328e+01
4.449633e+02	-3.086702e+01
4.475334e+02	-3.091583e+01
4.501183e+02	-3.096683e+01
4.527182e+02	-3.101854e+01
4.553330e+02	-3.107200e+01
4.579630e+02	-3.111349e+01
4.606082e+02	-3.116838e+01
4.632687e+02	-3.121136e+01
4.659445e+02	-3.126632e+01
4.686358e+02	-3.131863e+01
4.713426e+02	-3.136509e+01
4.740650e+02	-3.142128e+01
4.768032e+02	-3.146794e+01
4.795572e+02	-3.151740e+01
4.823271e+02	-3.157299e+01
4.851130e+02	-3.161219e+01
4.879150e+02	-3.166497e+01
4.907332e+02	-3.171394e+01
4.935676e+02	-3.177042e+01
4.964185e+02	-3.181641e+01
4.992858e+02	-3.186615e+01
5.021696e+02	-3.192132e+01
5.050701e+02	-3.196653e+01
5.079874e+02	-3.201454e+01
5.109215e+02	-3.206509e+01
5.138726e+02	-3.211982e+01
5.168407e+02	-3.216934e+01
5.198259e+02	-3.222104e+01
5.228284e+02	-3.227190e+01
5.258482e+02	-3.232588e+01
5.288855e+02	-3.237403e+01
5.319403e+02	-3.242522e+01
5.350128e+02	-3.246955e+01
5.381030e+02	-3.252182e+01
5.412111e+02	-3.256560e+01
5.443371e+02	-3.262174e+01
5.474812e+02	-3.266918e+01
5.506434e+02	-3.271835e+01
5.538239e+02	-3.277129e+01
5.570228e+02	-3.281915e+01
5.602401e+02	-3.286816e+01
5.634760e+02	-3.292888e+01
5.667306e+02	-3.297497e+01
5.700040e+02	-3.301908e+01
5.732964e+02	-3.307133e+01
5.766077e+02	-3.313079e+01
5.799382e+02	-3.317236e+01
5.832879e+02	-3.322550e+01
5.866569e+02	-3.327728e+01
5.900454e+02	-3.332044e+01
5.934535e+02	-3.337343e+01
5.968813e+02	-3.341856e+01
6.003288e+02	-3.347401e+01
6.037963e+02	-3.352512e+01
6.072838e+02	-3.357672e+01
6.107914e+02	-3.363159e+01
6.143194e+02	-3.367695e+01
6.178676e+02	-3.372220e+01
6.214364e+02	-3.377293e+01
6.250258e+02	-3.382602e+01
6.286359e+02	-3.387715e+01
6.322669e+02	-3.391866e+01
6.359189e+02	-3.398668e+01
6.395919e+02	-3.402332e+01
6.432862e+02	-3.408151e+01
6.470017e+02	-3.412534e+01
6.507388e+02	-3.418161e+01
6.544974e+02	-3.423002e+01
6.582778e+02	-3.428325e+01
6.620800e+02	-3.432631e+01
6.659041e+02	-3.438954e+01
6.697504e+02	-3.443679e+01
6.736188e+02	-3.447600e+01
6.775096e+02	-3.452390e+01
6.814229e+02	-3.458058e+01
6.853587e+02	-3.463477e+01
6.893173e+02	-3.468849e+01
6.932988e+02	-3.473534e+01
6.973033e+02	-3.478208e+01
7.013309e+02	-3.483322e+01
