Frequency(Hz)	Magnitude(dB)
1.000000e+01	-2.238048e+00
1.005776e+01	-2.258223e+00
1.011585e+01	-2.278366e+00
1.017428e+01	-2.299144e+00
1.023305e+01	-2.319463e+00
1.029215e+01	-2.340395e+00
1.035160e+01	-2.361261e+00
1.041139e+01	-2.382410e+00
1.047153e+01	-2.403513e+00
1.053201e+01	-2.425094e+00
1.059284e+01	-2.446342e+00
1.065403e+01	-2.468065e+00
1.071556e+01	-2.489549e+00
1.077746e+01	-2.511597e+00
1.083971e+01	-2.533622e+00
1.090232e+01	-2.555969e+00
1.096529e+01	-2.578130e+00
1.102862e+01	-2.600649e+00
1.109232e+01	-2.623239e+00
1.115639e+01	-2.646028e+00
1.122083e+01	-2.668876e+00
1.128564e+01	-2.692048e+00
1.135083e+01	-2.715090e+00
1.141639e+01	-2.738624e+00
1.148233e+01	-2.761790e+00
1.154865e+01	-2.785495e+00
1.161536e+01	-2.809186e+00
1.168245e+01	-2.833148e+00
1.174992e+01	-2.857173e+00
1.181779e+01	-2.881403e+00
1.188605e+01	-2.905828e+00
1.195470e+01	-2.930140e+00
1.202375e+01	-2.954878e+00
1.209320e+01	-2.979405e+00
1.216305e+01	-3.004658e+00
1.223330e+01	-3.029393e+00
1.230396e+01	-3.054565e+00
1.237503e+01	-3.080053e+00
1.244651e+01	-3.105360e+00
1.251840e+01	-3.131109e+00
1.259070e+01	-3.156942e+00
1.266343e+01	-3.182941e+00
1.273657e+01	-3.208953e+00
1.281014e+01	-3.235238e+00
1.288413e+01	-3.261301e+00
1.295855e+01	-3.287819e+00
1.303339e+01	-3.314382e+00
1.310867e+01	-3.341291e+00
1.318439e+01	-3.368389e+00
1.326054e+01	-3.395342e+00
1.333713e+01	-3.422723e+00
1.341417e+01	-3.450127e+00
1.349165e+01	-3.477379e+00
1.356958e+01	-3.504871e+00
1.364795e+01	-3.532891e+00
1.372678e+01	-3.560777e+00
1.380607e+01	-3.588925e+00
1.388581e+01	-3.617075e+00
1.396602e+01	-3.645291e+00
1.404668e+01	-3.673939e+00
1.412782e+01	-3.702479e+00
1.420942e+01	-3.730990e+00
1.429149e+01	-3.759993e+00
1.437404e+01	-3.789223e+00
1.445706e+01	-3.818309e+00
1.454057e+01	-3.847558e+00
1.462455e+01	-3.876813e+00
1.470902e+01	-3.906862e+00
1.479398e+01	-3.936783e+00
1.487943e+01	-3.966301e+00
1.496537e+01	-3.996471e+00
1.505181e+01	-4.026827e+00
1.513875e+01	-4.056889e+00
1.522619e+01	-4.087379e+00
1.531414e+01	-4.118129e+00
1.540259e+01	-4.148470e+00
1.549156e+01	-4.179592e+00
1.558103e+01	-4.210562e+00
1.567103e+01	-4.241646e+00
1.576155e+01	-4.272612e+00
1.585258e+01	-4.304336e+00
1.594415e+01	-4.335799e+00
1.603624e+01	-4.367408e+00
1.612886e+01	-4.399554e+00
1.622202e+01	-4.430928e+00
1.631572e+01	-4.463145e+00
1.640996e+01	-4.495551e+00
1.650474e+01	-4.527625e+00
1.660008e+01	-4.560224e+00
1.669596e+01	-4.592660e+00
1.679239e+01	-4.625544e+00
1.688938e+01	-4.658497e+00
1.698694e+01	-4.691240e+00
1.708505e+01	-4.724160e+00
1.718373e+01	-4.757407e+00
1.728299e+01	-4.791153e+00
1.738281e+01	-4.824494e+00
1.748322e+01	-4.857847e+00
1.758420e+01	-4.892007e+00
1.768576e+01	-4.925632e+00
1.778792e+01	-4.959759e+00
1.789066e+01	-4.993749e+00
1.799399e+01	-5.027980e+00
1.809793e+01	-5.062410e+00
1.820246e+01	-5.096994e+00
1.830760e+01	-5.131170e+00
1.841334e+01	-5.166109e+00
1.851969e+01	-5.201263e+00
1.862666e+01	-5.236079e+00
1.873425e+01	-5.271028e+00
1.884246e+01	-5.306588e+00
1.895129e+01	-5.341866e+00
1.906075e+01	-5.377443e+00
1.917085e+01	-5.412656e+00
1.928158e+01	-5.448381e+00
1.939295e+01	-5.484333e+00
1.950496e+01	-5.520411e+00
1.961762e+01	-5.556347e+00
1.973093e+01	-5.592154e+00
1.984490e+01	-5.628817e+00
1.995952e+01	-5.665052e+00
2.007480e+01	-5.701772e+00
2.019076e+01	-5.738150e+00
2.030738e+01	-5.775472e+00
2.042467e+01	-5.811881e+00
2.054264e+01	-5.849055e+00
2.066130e+01	-5.885878e+00
2.078064e+01	-5.922999e+00
2.090066e+01	-5.960397e+00
2.102139e+01	-5.997863e+00
2.114280e+01	-6.035284e+00
2.126492e+01	-6.072783e+00
2.138775e+01	-6.110348e+00
2.151128e+01	-6.148403e+00
2.163553e+01	-6.186400e+00
2.176050e+01	-6.224524e+00
2.188619e+01	-6.262547e+00
2.201260e+01	-6.300845e+00
2.213974e+01	-6.339244e+00
2.226762e+01	-6.377752e+00
2.239624e+01	-6.415842e+00
2.252560e+01	-6.454634e+00
2.265571e+01	-6.493380e+00
2.278656e+01	-6.532412e+00
2.291818e+01	-6.571305e+00
2.305055e+01	-6.610156e+00
2.318369e+01	-6.649356e+00
2.331760e+01	-6.688670e+00
2.345228e+01	-6.728242e+00
2.358774e+01	-6.767551e+00
2.372398e+01	-6.807889e+00
2.386101e+01	-6.846838e+00
2.399883e+01	-6.886611e+00
2.413745e+01	-6.926559e+00
2.427686e+01	-6.966118e+00
2.441709e+01	-7.006412e+00
2.455812e+01	-7.046627e+00
2.469997e+01	-7.086753e+00
2.484263e+01	-7.126855e+00
2.498612e+01	-7.167367e+00
2.513044e+01	-7.207672e+00
2.527559e+01	-7.248333e+00
2.542158e+01	-7.288768e+00
2.556842e+01	-7.329649e+00
2.571610e+01	-7.370548e+00
2.586463e+01	-7.411452e+00
2.601403e+01	-7.452577e+00
2.616428e+01	-7.493497e+00
2.631541e+01	-7.534968e+00
2.646740e+01	-7.575913e+00
2.662028e+01	-7.617023e+00
2.677404e+01	-7.658802e+00
2.692868e+01	-7.700120e+00
2.708422e+01	-7.741734e+00
2.724066e+01	-7.783482e+00
2.739800e+01	-7.824725e+00
2.755625e+01	-7.867106e+00
2.771541e+01	-7.908916e+00
2.787550e+01	-7.950649e+00
2.803650e+01	-7.992771e+00
2.819844e+01	-8.035094e+00
2.836131e+01	-8.076927e+00
2.852513e+01	-8.119575e+00
2.868989e+01	-8.161867e+00
2.885560e+01	-8.204143e+00
2.902227e+01	-8.246359e+00
2.918990e+01	-8.289125e+00
2.935850e+01	-8.331710e+00
2.952807e+01	-8.374358e+00
2.969863e+01	-8.417373e+00
2.987016e+01	-8.459911e+00
3.004269e+01	-8.503356e+00
3.021622e+01	-8.546219e+00
3.039075e+01	-8.589004e+00
3.056628e+01	-8.632703e+00
3.074283e+01	-8.675608e+00
3.092040e+01	-8.718920e+00
3.109900e+01	-8.762103e+00
3.127862e+01	-8.805426e+00
3.145929e+01	-8.849071e+00
3.164099e+01	-8.892416e+00
3.182375e+01	-8.936497e+00
3.200756e+01	-8.979995e+00
3.219244e+01	-9.023491e+00
3.237838e+01	-9.067130e+00
3.256540e+01	-9.111312e+00
3.275349e+01	-9.155154e+00
3.294268e+01	-9.198973e+00
3.313295e+01	-9.243366e+00
3.332433e+01	-9.287333e+00
3.351681e+01	-9.331498e+00
3.371040e+01	-9.375437e+00
3.390511e+01	-9.419688e+00
3.410094e+01	-9.464027e+00
3.429791e+01	-9.508670e+00
3.449601e+01	-9.552882e+00
3.469526e+01	-9.597979e+00
3.489566e+01	-9.642222e+00
3.509721e+01	-9.687009e+00
3.529993e+01	-9.731986e+00
3.550382e+01	-9.776566e+00
3.570889e+01	-9.821192e+00
3.591515e+01	-9.866130e+00
3.612259e+01	-9.910864e+00
3.633123e+01	-9.955369e+00
3.654108e+01	-1.000060e+01
3.675214e+01	-1.004580e+01
3.696442e+01	-1.009079e+01
3.717792e+01	-1.013599e+01
3.739266e+01	-1.018118e+01
3.760864e+01	-1.022682e+01
3.782587e+01	-1.027173e+01
3.804435e+01	-1.031741e+01
3.826409e+01	-1.036250e+01
3.848510e+01	-1.040853e+01
3.870739e+01	-1.045308e+01
3.893096e+01	-1.049924e+01
3.915583e+01	-1.054449e+01
3.938199e+01	-1.059025e+01
3.960946e+01	-1.063572e+01
3.983824e+01	-1.068161e+01
4.006834e+01	-1.072710e+01
4.029978e+01	-1.077346e+01
4.053255e+01	-1.081941e+01
4.076666e+01	-1.086542e+01
4.100213e+01	-1.091067e+01
4.123896e+01	-1.095722e+01
4.147715e+01	-1.100316e+01
4.171672e+01	-1.104895e+01
4.195767e+01	-1.109566e+01
4.220002e+01	-1.114177e+01
4.244377e+01	-1.118782e+01
4.268892e+01	-1.123393e+01
4.293549e+01	-1.128045e+01
4.318348e+01	-1.132600e+01
4.343291e+01	-1.137298e+01
4.368377e+01	-1.141973e+01
4.393609e+01	-1.146455e+01
4.418986e+01	-1.151164e+01
4.444510e+01	-1.155785e+01
4.470182e+01	-1.160568e+01
4.496001e+01	-1.165179e+01
4.521970e+01	-1.169842e+01
4.548089e+01	-1.174532e+01
4.574358e+01	-1.179123e+01
4.600779e+01	-1.183846e+01
4.627353e+01	-1.188537e+01
4.654081e+01	-1.193179e+01
4.680963e+01	-1.197862e+01
4.708000e+01	-1.202565e+01
4.735193e+01	-1.207242e+01
4.762543e+01	-1.211931e+01
4.790051e+01	-1.216584e+01
4.817719e+01	-1.221351e+01
4.845545e+01	-1.226111e+01
4.873533e+01	-1.230734e+01
4.901682e+01	-1.235479e+01
4.929994e+01	-1.240249e+01
4.958470e+01	-1.244932e+01
4.987110e+01	-1.249602e+01
5.015915e+01	-1.254346e+01
5.044887e+01	-1.259038e+01
5.074026e+01	-1.263774e+01
5.103333e+01	-1.268534e+01
5.132810e+01	-1.273275e+01
5.162457e+01	-1.277956e+01
5.192275e+01	-1.282807e+01
5.222265e+01	-1.287444e+01
5.252429e+01	-1.292236e+01
5.282767e+01	-1.297031e+01
5.313280e+01	-1.301712e+01
5.343969e+01	-1.306586e+01
5.374836e+01	-1.311258e+01
5.405880e+01	-1.316019e+01
5.437105e+01	-1.320708e+01
5.468509e+01	-1.325611e+01
5.500095e+01	-1.330322e+01
5.531863e+01	-1.335075e+01
5.563815e+01	-1.339841e+01
5.595951e+01	-1.344680e+01
5.628273e+01	-1.349376e+01
5.660782e+01	-1.354208e+01
5.693479e+01	-1.359001e+01
5.726364e+01	-1.363763e+01
5.759439e+01	-1.368544e+01
5.792705e+01	-1.373353e+01
5.826164e+01	-1.378050e+01
5.859815e+01	-1.382908e+01
5.893662e+01	-1.387731e+01
5.927703e+01	-1.392537e+01
5.961941e+01	-1.397311e+01
5.996377e+01	-1.402076e+01
6.031012e+01	-1.407001e+01
6.065847e+01	-1.411807e+01
6.100883e+01	-1.416527e+01
6.136121e+01	-1.421387e+01
6.171563e+01	-1.426227e+01
6.207210e+01	-1.430930e+01
6.243063e+01	-1.435787e+01
6.279122e+01	-1.440622e+01
6.315390e+01	-1.445411e+01
6.351868e+01	-1.450259e+01
6.388556e+01	-1.455113e+01
6.425456e+01	-1.459932e+01
6.462569e+01	-1.464732e+01
6.499897e+01	-1.469575e+01
6.537440e+01	-1.474412e+01
6.575200e+01	-1.479246e+01
6.613178e+01	-1.484115e+01
6.651375e+01	-1.488871e+01
6.689793e+01	-1.493779e+01
6.728433e+01	-1.498641e+01
6.767297e+01	-1.503444e+01
6.806384e+01	-1.508300e+01
6.845698e+01	-1.513141e+01
6.885238e+01	-1.518063e+01
6.925007e+01	-1.522812e+01
6.965005e+01	-1.527796e+01
7.005235e+01	-1.532590e+01
7.045697e+01	-1.537384e+01
7.086393e+01	-1.542298e+01
7.127323e+01	-1.547144e+01
7.168490e+01	-1.552057e+01
7.209895e+01	-1.556769e+01
7.251539e+01	-1.561818e+01
7.293424e+01	-1.566582e+01
7.335551e+01	-1.571370e+01
7.377920e+01	-1.576339e+01
7.420535e+01	-1.581179e+01
7.463396e+01	-1.586096e+01
7.506504e+01	-1.590871e+01
7.549861e+01	-1.595894e+01
7.593469e+01	-1.600629e+01
7.637328e+01	-1.605601e+01
7.681441e+01	-1.610467e+01
7.725809e+01	-1.615348e+01
7.770433e+01	-1.620409e+01
7.815315e+01	-1.625045e+01
7.860456e+01	-1.629990e+01
7.905857e+01	-1.634910e+01
7.951521e+01	-1.639805e+01
7.997449e+01	-1.644649e+01
8.043642e+01	-1.649486e+01
8.090102e+01	-1.654444e+01
8.136830e+01	-1.659306e+01
8.183828e+01	-1.664440e+01
8.231097e+01	-1.669058e+01
8.278640e+01	-1.673950e+01
8.326457e+01	-1.679027e+01
8.374550e+01	-1.683833e+01
8.422921e+01	-1.688771e+01
8.471572e+01	-1.693614e+01
8.520503e+01	-1.698501e+01
8.569717e+01	-1.703367e+01
8.619215e+01	-1.708369e+01
8.669000e+01	-1.713225e+01
8.719071e+01	-1.718085e+01
8.769432e+01	-1.723002e+01
8.820084e+01	-1.727880e+01
8.871029e+01	-1.732879e+01
8.922267e+01	-1.737880e+01
8.973802e+01	-1.742726e+01
9.025634e+01	-1.747600e+01
9.077766e+01	-1.752541e+01
9.130199e+01	-1.757408e+01
9.182935e+01	-1.762363e+01
9.235975e+01	-1.767310e+01
9.289321e+01	-1.772179e+01
9.342976e+01	-1.777071e+01
9.396941e+01	-1.781959e+01
9.451217e+01	-1.786852e+01
9.505807e+01	-1.791762e+01
9.560712e+01	-1.796777e+01
9.615934e+01	-1.801641e+01
9.671476e+01	-1.806735e+01
9.727338e+01	-1.811486e+01
9.783522e+01	-1.816477e+01
9.840032e+01	-1.821390e+01
9.896867e+01	-1.826415e+01
9.954031e+01	-1.831207e+01
1.001153e+02	-1.836221e+01
1.006935e+02	-1.841088e+01
1.012751e+02	-1.846056e+01
1.018601e+02	-1.851022e+01
1.024484e+02	-1.855798e+01
1.030402e+02	-1.860834e+01
1.036353e+02	-1.865758e+01
1.042339e+02	-1.870725e+01
1.048360e+02	-1.875629e+01
1.054415e+02	-1.880497e+01
1.060505e+02	-1.885675e+01
1.066631e+02	-1.890491e+01
1.072791e+02	-1.895374e+01
1.078988e+02	-1.900313e+01
1.085220e+02	-1.905364e+01
1.091488e+02	-1.910318e+01
1.097793e+02	-1.915186e+01
1.104133e+02	-1.920183e+01
1.110511e+02	-1.924937e+01
1.116925e+02	-1.929954e+01
1.123376e+02	-1.934874e+01
1.129865e+02	-1.939847e+01
1.136391e+02	-1.944885e+01
1.142955e+02	-1.949819e+01
1.149556e+02	-1.954803e+01
1.156196e+02	-1.959756e+01
1.162874e+02	-1.964644e+01
1.169591e+02	-1.969573e+01
1.176347e+02	-1.974510e+01
1.183141e+02	-1.979504e+01
1.189975e+02	-1.984518e+01
1.196848e+02	-1.989418e+01
1.203761e+02	-1.994364e+01
1.210714e+02	-1.999306e+01
1.217707e+02	-2.004301e+01
1.224740e+02	-2.009219e+01
1.231814e+02	-2.014200e+01
1.238929e+02	-2.019118e+01
1.246085e+02	-2.023988e+01
1.253283e+02	-2.029072e+01
1.260522e+02	-2.034070e+01
1.267802e+02	-2.038996e+01
1.275125e+02	-2.043838e+01
1.282490e+02	-2.049032e+01
1.289898e+02	-2.053775e+01
1.297348e+02	-2.058762e+01
1.304842e+02	-2.063467e+01
1.312378e+02	-2.068687e+01
1.319959e+02	-2.073660e+01
1.327583e+02	-2.078494e+01
1.335251e+02	-2.083449e+01
1.342963e+02	-2.088607e+01
1.350720e+02	-2.093585e+01
1.358522e+02	-2.098295e+01
1.366368e+02	-2.103322e+01
1.374260e+02	-2.108362e+01
1.382198e+02	-2.113318e+01
1.390182e+02	-2.118257e+01
1.398211e+02	-2.123167e+01
1.406287e+02	-2.128237e+01
1.414410e+02	-2.133273e+01
1.422579e+02	-2.138281e+01
1.430796e+02	-2.143246e+01
1.439060e+02	-2.148115e+01
1.447372e+02	-2.153229e+01
1.455732e+02	-2.158058e+01
1.464141e+02	-2.162966e+01
1.472597e+02	-2.168026e+01
1.481103e+02	-2.172951e+01
1.489658e+02	-2.178057e+01
1.498262e+02	-2.182950e+01
1.506916e+02	-2.187992e+01
1.515620e+02	-2.192811e+01
1.524374e+02	-2.197915e+01
1.533179e+02	-2.202838e+01
1.542034e+02	-2.207680e+01
1.550941e+02	-2.212925e+01
1.559899e+02	-2.217700e+01
1.568909e+02	-2.222809e+01
1.577971e+02	-2.227634e+01
1.587085e+02	-2.232622e+01
1.596252e+02	-2.237716e+01
1.605472e+02	-2.242731e+01
1.614745e+02	-2.247678e+01
1.624072e+02	-2.252497e+01
1.633453e+02	-2.257563e+01
1.642887e+02	-2.262642e+01
1.652377e+02	-2.267251e+01
1.661921e+02	-2.272295e+01
1.671520e+02	-2.277330e+01
1.681175e+02	-2.282377e+01
1.690885e+02	-2.287335e+01
1.700651e+02	-2.292415e+01
1.710474e+02	-2.297445e+01
1.720354e+02	-2.302366e+01
1.730291e+02	-2.307347e+01
1.740285e+02	-2.312397e+01
1.750337e+02	-2.317388e+01
1.760446e+02	-2.322520e+01
1.770615e+02	-2.327344e+01
1.780842e+02	-2.332156e+01
1.791128e+02	-2.337101e+01
1.801473e+02	-2.342569e+01
1.811878e+02	-2.347286e+01
1.822344e+02	-2.352413e+01
1.832870e+02	-2.357062e+01
1.843456e+02	-2.362195e+01
1.854104e+02	-2.367130e+01
1.864813e+02	-2.372252e+01
1.875584e+02	-2.377096e+01
1.886418e+02	-2.382152e+01
1.897313e+02	-2.387138e+01
1.908272e+02	-2.392073e+01
1.919294e+02	-2.397212e+01
1.930380e+02	-2.402066e+01
1.941530e+02	-2.406975e+01
1.952744e+02	-2.412000e+01
1.964023e+02	-2.416984e+01
1.975367e+02	-2.422075e+01
1.986777e+02	-2.427102e+01
1.998252e+02	-2.431913e+01
2.009794e+02	-2.436945e+01
2.021403e+02	-2.441787e+01
2.033078e+02	-2.446685e+01
2.044821e+02	-2.451792e+01
2.056632e+02	-2.456989e+01
2.068511e+02	-2.461971e+01
2.080459e+02	-2.466812e+01
2.092475e+02	-2.471971e+01
2.104561e+02	-2.476765e+01
2.116717e+02	-2.482139e+01
2.128943e+02	-2.486995e+01
2.141240e+02	-2.491998e+01
2.153608e+02	-2.497001e+01
2.166047e+02	-2.501896e+01
2.178558e+02	-2.506748e+01
2.191141e+02	-2.511836e+01
2.203797e+02	-2.516946e+01
2.216526e+02	-2.521954e+01
2.229329e+02	-2.526854e+01
2.242205e+02	-2.531642e+01
2.255156e+02	-2.536699e+01
2.268182e+02	-2.541937e+01
2.281283e+02	-2.546825e+01
2.294459e+02	-2.551667e+01
2.307712e+02	-2.556811e+01
2.321041e+02	-2.561912e+01
2.334447e+02	-2.566829e+01
2.347931e+02	-2.571523e+01
2.361493e+02	-2.576574e+01
2.375133e+02	-2.581389e+01
2.388851e+02	-2.586491e+01
2.402649e+02	-2.591641e+01
2.416527e+02	-2.596671e+01
2.430484e+02	-2.601609e+01
2.444523e+02	-2.606608e+01
2.458642e+02	-2.611724e+01
2.472843e+02	-2.616529e+01
2.487126e+02	-2.621483e+01
2.501492e+02	-2.626665e+01
2.515940e+02	-2.631617e+01
2.530472e+02	-2.636690e+01
2.545088e+02	-2.641606e+01
2.559789e+02	-2.646442e+01
2.574574e+02	-2.651484e+01
2.589444e+02	-2.656920e+01
2.604401e+02	-2.661665e+01
2.619444e+02	-2.666365e+01
2.634574e+02	-2.671749e+01
2.649791e+02	-2.676308e+01
2.665096e+02	-2.681609e+01
2.680489e+02	-2.686660e+01
2.695972e+02	-2.691776e+01
2.711544e+02	-2.696249e+01
2.727205e+02	-2.701939e+01
2.742958e+02	-2.706729e+01
2.758801e+02	-2.711701e+01
2.774736e+02	-2.716500e+01
2.790762e+02	-2.721747e+01
2.806882e+02	-2.726617e+01
2.823094e+02	-2.731600e+01
2.839400e+02	-2.736608e+01
2.855800e+02	-2.741579e+01
2.872295e+02	-2.746735e+01
2.888886e+02	-2.751526e+01
2.905572e+02	-2.756798e+01
2.922354e+02	-2.762017e+01
2.939234e+02	-2.766639e+01
2.956211e+02	-2.771315e+01
2.973286e+02	-2.776500e+01
2.990459e+02	-2.781535e+01
3.007732e+02	-2.786617e+01
3.025104e+02	-2.791442e+01
3.042577e+02	-2.796683e+01
3.060151e+02	-2.802032e+01
3.077826e+02	-2.806672e+01
3.095604e+02	-2.811439e+01
3.113484e+02	-2.816171e+01
3.131467e+02	-2.821482e+01
3.149554e+02	-2.826112e+01
3.167746e+02	-2.831128e+01
3.186043e+02	-2.836508e+01
3.204445e+02	-2.841841e+01
3.222954e+02	-2.846794e+01
3.241570e+02	-2.851415e+01
3.260293e+02	-2.856552e+01
3.279124e+02	-2.861631e+01
3.298064e+02	-2.866211e+01
3.317114e+02	-2.871829e+01
3.336273e+02	-2.876843e+01
3.355544e+02	-2.881478e+01
3.374925e+02	-2.886656e+01
3.394418e+02	-2.891996e+01
3.414024e+02	-2.896571e+01
3.433744e+02	-2.901920e+01
3.453577e+02	-2.906651e+01
3.473525e+02	-2.911541e+01
3.493588e+02	-2.916772e+01
3.513766e+02	-2.921913e+01
3.534062e+02	-2.927056e+01
3.554474e+02	-2.931788e+01
3.575005e+02	-2.936312e+01
3.595654e+02	-2.941571e+01
3.616422e+02	-2.946862e+01
3.637311e+02	-2.951424e+01
3.658320e+02	-2.956634e+01
3.679450e+02	-2.961499e+01
3.700702e+02	-2.966886e+01
3.722077e+02	-2.972202e+01
3.743576e+02	-2.977198e+01
3.765199e+02	-2.982030e+01
3.786946e+02	-2.986720e+01
3.808820e+02	-2.991944e+01
3.830819e+02	-2.997069e+01
3.852946e+02	-3.002119e+01
3.875200e+02	-3.006555e+01
3.897583e+02	-3.011312e+01
3.920096e+02	-3.017082e+01
3.942738e+02	-3.022077e+01
3.965511e+02	-3.027031e+01
3.988416e+02	-3.032480e+01
4.011452e+02	-3.036686e+01
4.034622e+02	-3.042018e+01
4.057926e+02	-3.046741e+01
4.081365e+02	-3.052095e+01
4.104938e+02	-3.056439e+01
4.128648e+02	-3.061584e+01
4.152495e+02	-3.067172e+01
4.176480e+02	-3.072285e+01
4.200603e+02	-3.077185e+01
4.224866e+02	-3.081754e+01
4.249268e+02	-3.087025e+01
4.273812e+02	-3.092109e+01
4.298497e+02	-3.096798e+01
4.323325e+02	-3.102028e+01
4.348297e+02	-3.107199e+01
4.373412e+02	-3.112036e+01
4.398673e+02	-3.117160e+01
4.424079e+02	-3.122742e+01
4.449633e+02	-3.126882e+01
4.475334e+02	-3.131943e+01
4.501183e+02	-3.137374e+01
4.527182e+02	-3.142752e+01
4.553330e+02	-3.147802e+01
4.579630e+02	-3.152632e+01
4.606082e+02	-3.156960e+01
4.632687e+02	-3.162401e+01
4.659445e+02	-3.168192e+01
4.686358e+02	-3.172686e+01
4.713426e+02	-3.177555e+01
4.740650e+02	-3.182091e+01
4.768032e+02	-3.187347e+01
4.795572e+02	-3.192431e+01
4.823271e+02	-3.197531e+01
4.851130e+02	-3.202183e+01
4.879150e+02	-3.207468e+01
4.907332e+02	-3.212217e+01
4.935676e+02	-3.218242e+01
4.964185e+02	-3.222413e+01
4.992858e+02	-3.227706e+01
5.021696e+02	-3.232222e+01
5.050701e+02	-3.237821e+01
5.079874e+02	-3.242024e+01
5.109215e+02	-3.247165e+01
5.138726e+02	-3.252144e+01
5.168407e+02	-3.257713e+01
5.198259e+02	-3.262787e+01
5.228284e+02	-3.267842e+01
5.258482e+02	-3.272368e+01
5.288855e+02	-3.277594e+01
5.319403e+02	-3.282623e+01
5.350128e+02	-3.287910e+01
5.381030e+02	-3.292962e+01
5.412111e+02	-3.297763e+01
5.443371e+02	-3.302555e+01
5.474812e+02	-3.307277e+01
5.506434e+02	-3.313110e+01
5.538239e+02	-3.317521e+01
5.570228e+02	-3.323063e+01
5.602401e+02	-3.327871e+01
5.634760e+02	-3.332624e+01
5.667306e+02	-3.338084e+01
5.700040e+02	-3.343052e+01
5.732964e+02	-3.347644e+01
5.766077e+02	-3.353445e+01
5.799382e+02	-3.357348e+01
5.832879e+02	-3.363315e+01
5.866569e+02	-3.368282e+01
5.900454e+02	-3.372274e+01
5.934535e+02	-3.377819e+01
5.968813e+02	-3.383613e+01
6.003288e+02	-3.388487e+01
6.037963e+02	-3.392545e+01
6.072838e+02	-3.398695e+01
6.107914e+02	-3.402891e+01
6.143194e+02	-3.408752e+01
6.178676e+02	-3.412879e+01
6.214364e+02	-3.418695e+01
6.250258e+02	-3.423637e+01
6.286359e+02	-3.428171e+01
6.322669e+02	-3.433888e+01
6.359189e+02	-3.438949e+01
6.395919e+02	-3.443200e+01
6.432862e+02	-3.448703e+01
6.470017e+02	-3.453321e+01
6.507388e+02	-3.458880e+01
6.544974e+02	-3.464166e+01
6.582778e+02	-3.468826e+01
6.620800e+02	-3.474339e+01
6.659041e+02	-3.478208e+01
6.697504e+02	-3.484645e+01
6.736188e+02	-3.488680e+01
6.775096e+02	-3.493486e+01
6.814229e+02	-3.498880e+01
6.853587e+02	-3.503919e+01
6.893173e+02	-3.509500e+01
6.932988e+02	-3.514053e+01
6.973033e+02	-3.519637e+01
7.013309e+02	-3.523967e+01
