Frequency(Hz)	Magnitude(dB)
1.000000e+01	-2.289804e+00
1.005776e+01	-2.310285e+00
1.011585e+01	-2.330896e+00
1.017428e+01	-2.351877e+00
1.023305e+01	-2.372805e+00
1.029215e+01	-2.394058e+00
1.035160e+01	-2.415346e+00
1.041139e+01	-2.436532e+00
1.047153e+01	-2.458201e+00
1.053201e+01	-2.479893e+00
1.059284e+01	-2.501591e+00
1.065403e+01	-2.523648e+00
1.071556e+01	-2.545773e+00
1.077746e+01	-2.568094e+00
1.083971e+01	-2.590449e+00
1.090232e+01	-2.612828e+00
1.096529e+01	-2.635674e+00
1.102862e+01	-2.658321e+00
1.109232e+01	-2.681315e+00
1.115639e+01	-2.704559e+00
1.122083e+01	-2.727817e+00
1.128564e+01	-2.751042e+00
1.135083e+01	-2.774559e+00
1.141639e+01	-2.798271e+00
1.148233e+01	-2.822271e+00
1.154865e+01	-2.846050e+00
1.161536e+01	-2.870325e+00
1.168245e+01	-2.894658e+00
1.174992e+01	-2.918983e+00
1.181779e+01	-2.943499e+00
1.188605e+01	-2.968194e+00
1.195470e+01	-2.993029e+00
1.202375e+01	-3.018151e+00
1.209320e+01	-3.043327e+00
1.216305e+01	-3.068628e+00
1.223330e+01	-3.093903e+00
1.230396e+01	-3.119503e+00
1.237503e+01	-3.145162e+00
1.244651e+01	-3.171129e+00
1.251840e+01	-3.196955e+00
1.259070e+01	-3.223308e+00
1.266343e+01	-3.249379e+00
1.273657e+01	-3.275696e+00
1.281014e+01	-3.302708e+00
1.288413e+01	-3.329187e+00
1.295855e+01	-3.355888e+00
1.303339e+01	-3.383059e+00
1.310867e+01	-3.410242e+00
1.318439e+01	-3.437453e+00
1.326054e+01	-3.464888e+00
1.333713e+01	-3.492601e+00
1.341417e+01	-3.520192e+00
1.349165e+01	-3.548022e+00
1.356958e+01	-3.576017e+00
1.364795e+01	-3.604157e+00
1.372678e+01	-3.632490e+00
1.380607e+01	-3.660703e+00
1.388581e+01	-3.689523e+00
1.396602e+01	-3.718028e+00
1.404668e+01	-3.746875e+00
1.412782e+01	-3.776148e+00
1.420942e+01	-3.804921e+00
1.429149e+01	-3.834533e+00
1.437404e+01	-3.863498e+00
1.445706e+01	-3.893212e+00
1.454057e+01	-3.922727e+00
1.462455e+01	-3.952461e+00
1.470902e+01	-3.982713e+00
1.479398e+01	-4.012564e+00
1.487943e+01	-4.043020e+00
1.496537e+01	-4.073831e+00
1.505181e+01	-4.103883e+00
1.513875e+01	-4.134765e+00
1.522619e+01	-4.165576e+00
1.531414e+01	-4.196348e+00
1.540259e+01	-4.227360e+00
1.549156e+01	-4.258700e+00
1.558103e+01	-4.290004e+00
1.567103e+01	-4.321555e+00
1.576155e+01	-4.353062e+00
1.585258e+01	-4.384671e+00
1.594415e+01	-4.416596e+00
1.603624e+01	-4.448697e+00
1.612886e+01	-4.480588e+00
1.622202e+01	-4.513010e+00
1.631572e+01	-4.545310e+00
1.640996e+01	-4.577610e+00
1.650474e+01	-4.610252e+00
1.660008e+01	-4.643553e+00
1.669596e+01	-4.676149e+00
1.679239e+01	-4.709244e+00
1.688938e+01	-4.742757e+00
1.698694e+01	-4.775984e+00
1.708505e+01	-4.809288e+00
1.718373e+01	-4.842580e+00
1.728299e+01	-4.876404e+00
1.738281e+01	-4.910369e+00
1.748322e+01	-4.944185e+00
1.758420e+01	-4.978019e+00
1.768576e+01	-5.012315e+00
1.778792e+01	-5.046728e+00
1.789066e+01	-5.080855e+00
1.799399e+01	-5.115722e+00
1.809793e+01	-5.150166e+00
1.820246e+01	-5.185201e+00
1.830760e+01	-5.220037e+00
1.841334e+01	-5.255305e+00
1.851969e+01	-5.290387e+00
1.862666e+01	-5.325911e+00
1.873425e+01	-5.361041e+00
1.884246e+01	-5.396570e+00
1.895129e+01	-5.432293e+00
1.906075e+01	-5.467969e+00
1.917085e+01	-5.503963e+00
1.928158e+01	-5.540087e+00
1.939295e+01	-5.575903e+00
1.950496e+01	-5.612358e+00
1.961762e+01	-5.648124e+00
1.973093e+01	-5.684817e+00
1.984490e+01	-5.721537e+00
1.995952e+01	-5.758065e+00
2.007480e+01	-5.795144e+00
2.019076e+01	-5.832237e+00
2.030738e+01	-5.868889e+00
2.042467e+01	-5.905943e+00
2.054264e+01	-5.943404e+00
2.066130e+01	-5.980616e+00
2.078064e+01	-6.018052e+00
2.090066e+01	-6.055540e+00
2.102139e+01	-6.093516e+00
2.114280e+01	-6.131105e+00
2.126492e+01	-6.169363e+00
2.138775e+01	-6.207009e+00
2.151128e+01	-6.245320e+00
2.163553e+01	-6.283121e+00
2.176050e+01	-6.321569e+00
2.188619e+01	-6.360409e+00
2.201260e+01	-6.398772e+00
2.213974e+01	-6.437332e+00
2.226762e+01	-6.475695e+00
2.239624e+01	-6.514905e+00
2.252560e+01	-6.553606e+00
2.265571e+01	-6.592715e+00
2.278656e+01	-6.631604e+00
2.291818e+01	-6.671216e+00
2.305055e+01	-6.710286e+00
2.318369e+01	-6.749849e+00
2.331760e+01	-6.788876e+00
2.345228e+01	-6.828698e+00
2.358774e+01	-6.868595e+00
2.372398e+01	-6.908022e+00
2.386101e+01	-6.948466e+00
2.399883e+01	-6.988042e+00
2.413745e+01	-7.027845e+00
2.427686e+01	-7.068469e+00
2.441709e+01	-7.108123e+00
2.455812e+01	-7.148642e+00
2.469997e+01	-7.189636e+00
2.484263e+01	-7.230402e+00
2.498612e+01	-7.270227e+00
2.513044e+01	-7.311494e+00
2.527559e+01	-7.351787e+00
2.542158e+01	-7.392919e+00
2.556842e+01	-7.433362e+00
2.571610e+01	-7.474612e+00
2.586463e+01	-7.515698e+00
2.601403e+01	-7.556861e+00
2.616428e+01	-7.598203e+00
2.631541e+01	-7.639722e+00
2.646740e+01	-7.681125e+00
2.662028e+01	-7.723011e+00
2.677404e+01	-7.764403e+00
2.692868e+01	-7.806269e+00
2.708422e+01	-7.847748e+00
2.724066e+01	-7.889874e+00
2.739800e+01	-7.931899e+00
2.755625e+01	-7.973642e+00
2.771541e+01	-8.015702e+00
2.787550e+01	-8.058332e+00
2.803650e+01	-8.100521e+00
2.819844e+01	-8.142557e+00
2.836131e+01	-8.184609e+00
2.852513e+01	-8.227352e+00
2.868989e+01	-8.270231e+00
2.885560e+01	-8.312979e+00
2.902227e+01	-8.355198e+00
2.918990e+01	-8.397471e+00
2.935850e+01	-8.440773e+00
2.952807e+01	-8.483749e+00
2.969863e+01	-8.526722e+00
2.987016e+01	-8.569625e+00
3.004269e+01	-8.612765e+00
3.021622e+01	-8.655862e+00
3.039075e+01	-8.699539e+00
3.056628e+01	-8.742292e+00
3.074283e+01	-8.786120e+00
3.092040e+01	-8.829315e+00
3.109900e+01	-8.872834e+00
3.127862e+01	-8.915963e+00
3.145929e+01	-8.959808e+00
3.164099e+01	-9.003865e+00
3.182375e+01	-9.047282e+00
3.200756e+01	-9.091229e+00
3.219244e+01	-9.134716e+00
3.237838e+01	-9.179170e+00
3.256540e+01	-9.223735e+00
3.275349e+01	-9.267503e+00
3.294268e+01	-9.311179e+00
3.313295e+01	-9.355583e+00
3.332433e+01	-9.399846e+00
3.351681e+01	-9.444322e+00
3.371040e+01	-9.488379e+00
3.390511e+01	-9.533140e+00
3.410094e+01	-9.577323e+00
3.429791e+01	-9.621563e+00
3.449601e+01	-9.666435e+00
3.469526e+01	-9.711232e+00
3.489566e+01	-9.755840e+00
3.509721e+01	-9.801238e+00
3.529993e+01	-9.845374e+00
3.550382e+01	-9.890623e+00
3.570889e+01	-9.935163e+00
3.591515e+01	-9.979912e+00
3.612259e+01	-1.002497e+01
3.633123e+01	-1.007034e+01
3.654108e+01	-1.011554e+01
3.675214e+01	-1.016069e+01
3.696442e+01	-1.020571e+01
3.717792e+01	-1.025088e+01
3.739266e+01	-1.029598e+01
3.760864e+01	-1.034235e+01
3.782587e+01	-1.038741e+01
3.804435e+01	-1.043291e+01
3.826409e+01	-1.047789e+01
3.848510e+01	-1.052391e+01
3.870739e+01	-1.056944e+01
3.893096e+01	-1.061459e+01
3.915583e+01	-1.066045e+01
3.938199e+01	-1.070654e+01
3.960946e+01	-1.075275e+01
3.983824e+01	-1.079838e+01
4.006834e+01	-1.084426e+01
4.029978e+01	-1.088991e+01
4.053255e+01	-1.093615e+01
4.076666e+01	-1.098229e+01
4.100213e+01	-1.102836e+01
4.123896e+01	-1.107400e+01
4.147715e+01	-1.111993e+01
4.171672e+01	-1.116664e+01
4.195767e+01	-1.121243e+01
4.220002e+01	-1.125860e+01
4.244377e+01	-1.130519e+01
4.268892e+01	-1.135124e+01
4.293549e+01	-1.139799e+01
4.318348e+01	-1.144459e+01
4.343291e+01	-1.149062e+01
4.368377e+01	-1.153689e+01
4.393609e+01	-1.158353e+01
4.418986e+01	-1.163078e+01
4.444510e+01	-1.167706e+01
4.470182e+01	-1.172364e+01
4.496001e+01	-1.177039e+01
4.521970e+01	-1.181736e+01
4.548089e+01	-1.186431e+01
4.574358e+01	-1.191113e+01
4.600779e+01	-1.195707e+01
4.627353e+01	-1.200434e+01
4.654081e+01	-1.205175e+01
4.680963e+01	-1.209852e+01
4.708000e+01	-1.214528e+01
4.735193e+01	-1.219166e+01
4.762543e+01	-1.223896e+01
4.790051e+01	-1.228617e+01
4.817719e+01	-1.233326e+01
4.845545e+01	-1.238012e+01
4.873533e+01	-1.242724e+01
4.901682e+01	-1.247466e+01
4.929994e+01	-1.252140e+01
4.958470e+01	-1.256958e+01
4.987110e+01	-1.261678e+01
5.015915e+01	-1.266404e+01
5.044887e+01	-1.271054e+01
5.074026e+01	-1.275813e+01
5.103333e+01	-1.280563e+01
5.132810e+01	-1.285372e+01
5.162457e+01	-1.290088e+01
5.192275e+01	-1.294779e+01
5.222265e+01	-1.299634e+01
5.252429e+01	-1.304305e+01
5.282767e+01	-1.309160e+01
5.313280e+01	-1.313781e+01
5.343969e+01	-1.318569e+01
5.374836e+01	-1.323380e+01
5.405880e+01	-1.328131e+01
5.437105e+01	-1.332915e+01
5.468509e+01	-1.337678e+01
5.500095e+01	-1.342488e+01
5.531863e+01	-1.347280e+01
5.563815e+01	-1.352001e+01
5.595951e+01	-1.356797e+01
5.628273e+01	-1.361570e+01
5.660782e+01	-1.366315e+01
5.693479e+01	-1.371161e+01
5.726364e+01	-1.375899e+01
5.759439e+01	-1.380669e+01
5.792705e+01	-1.385504e+01
5.826164e+01	-1.390303e+01
5.859815e+01	-1.395115e+01
5.893662e+01	-1.399920e+01
5.927703e+01	-1.404697e+01
5.961941e+01	-1.409494e+01
5.996377e+01	-1.414352e+01
6.031012e+01	-1.419132e+01
6.065847e+01	-1.423928e+01
6.100883e+01	-1.428799e+01
6.136121e+01	-1.433550e+01
6.171563e+01	-1.438388e+01
6.207210e+01	-1.443271e+01
6.243063e+01	-1.448080e+01
6.279122e+01	-1.452872e+01
6.315390e+01	-1.457711e+01
6.351868e+01	-1.462648e+01
6.388556e+01	-1.467311e+01
6.425456e+01	-1.472318e+01
6.462569e+01	-1.477023e+01
6.499897e+01	-1.481819e+01
6.537440e+01	-1.486758e+01
6.575200e+01	-1.491468e+01
6.613178e+01	-1.496408e+01
6.651375e+01	-1.501315e+01
6.689793e+01	-1.506148e+01
6.728433e+01	-1.510905e+01
6.767297e+01	-1.515826e+01
6.806384e+01	-1.520691e+01
6.845698e+01	-1.525465e+01
6.885238e+01	-1.530330e+01
6.925007e+01	-1.535088e+01
6.965005e+01	-1.540068e+01
7.005235e+01	-1.544911e+01
7.045697e+01	-1.549765e+01
7.086393e+01	-1.554643e+01
7.127323e+01	-1.559528e+01
7.168490e+01	-1.564336e+01
7.209895e+01	-1.569273e+01
7.251539e+01	-1.574097e+01
7.293424e+01	-1.579041e+01
7.335551e+01	-1.583870e+01
7.377920e+01	-1.588666e+01
7.420535e+01	-1.593572e+01
7.463396e+01	-1.598458e+01
7.506504e+01	-1.603537e+01
7.549861e+01	-1.608218e+01
7.593469e+01	-1.613120e+01
7.637328e+01	-1.617956e+01
7.681441e+01	-1.622943e+01
7.725809e+01	-1.627787e+01
7.770433e+01	-1.632640e+01
7.815315e+01	-1.637633e+01
7.860456e+01	-1.642323e+01
7.905857e+01	-1.647317e+01
7.951521e+01	-1.652125e+01
7.997449e+01	-1.657107e+01
8.043642e+01	-1.661822e+01
8.090102e+01	-1.666925e+01
8.136830e+01	-1.671650e+01
8.183828e+01	-1.676685e+01
8.231097e+01	-1.681681e+01
8.278640e+01	-1.686475e+01
8.326457e+01	-1.691344e+01
8.374550e+01	-1.696282e+01
8.422921e+01	-1.701162e+01
8.471572e+01	-1.706231e+01
8.520503e+01	-1.710997e+01
8.569717e+01	-1.715896e+01
8.619215e+01	-1.720869e+01
8.669000e+01	-1.725648e+01
8.719071e+01	-1.730704e+01
8.769432e+01	-1.735501e+01
8.820084e+01	-1.740469e+01
8.871029e+01	-1.745440e+01
8.922267e+01	-1.750302e+01
8.973802e+01	-1.755209e+01
9.025634e+01	-1.760049e+01
9.077766e+01	-1.764994e+01
9.130199e+01	-1.769957e+01
9.182935e+01	-1.774836e+01
9.235975e+01	-1.779828e+01
9.289321e+01	-1.784633e+01
9.342976e+01	-1.789665e+01
9.396941e+01	-1.794463e+01
9.451217e+01	-1.799357e+01
9.505807e+01	-1.804312e+01
9.560712e+01	-1.809292e+01
9.615934e+01	-1.814171e+01
9.671476e+01	-1.819283e+01
9.727338e+01	-1.824059e+01
9.783522e+01	-1.828879e+01
9.840032e+01	-1.833925e+01
9.896867e+01	-1.838870e+01
9.954031e+01	-1.843794e+01
1.001153e+02	-1.848665e+01
1.006935e+02	-1.853659e+01
1.012751e+02	-1.858731e+01
1.018601e+02	-1.863554e+01
1.024484e+02	-1.868468e+01
1.030402e+02	-1.873354e+01
1.036353e+02	-1.878428e+01
1.042339e+02	-1.883362e+01
1.048360e+02	-1.888209e+01
1.054415e+02	-1.893149e+01
1.060505e+02	-1.898150e+01
1.066631e+02	-1.902946e+01
1.072791e+02	-1.907864e+01
1.078988e+02	-1.912969e+01
1.085220e+02	-1.917713e+01
1.091488e+02	-1.922675e+01
1.097793e+02	-1.927708e+01
1.104133e+02	-1.932687e+01
1.110511e+02	-1.937586e+01
1.116925e+02	-1.942569e+01
1.123376e+02	-1.947521e+01
1.129865e+02	-1.952606e+01
1.136391e+02	-1.957479e+01
1.142955e+02	-1.962370e+01
1.149556e+02	-1.967193e+01
1.156196e+02	-1.972233e+01
1.162874e+02	-1.977326e+01
1.169591e+02	-1.982163e+01
1.176347e+02	-1.987184e+01
1.183141e+02	-1.991961e+01
1.189975e+02	-1.997076e+01
1.196848e+02	-2.001944e+01
1.203761e+02	-2.006995e+01
1.210714e+02	-2.011885e+01
1.217707e+02	-2.016947e+01
1.224740e+02	-2.021636e+01
1.231814e+02	-2.026879e+01
1.238929e+02	-2.031778e+01
1.246085e+02	-2.036754e+01
1.253283e+02	-2.041720e+01
1.260522e+02	-2.046709e+01
1.267802e+02	-2.051526e+01
1.275125e+02	-2.056581e+01
1.282490e+02	-2.061458e+01
1.289898e+02	-2.066360e+01
1.297348e+02	-2.071477e+01
1.304842e+02	-2.076417e+01
1.312378e+02	-2.081288e+01
1.319959e+02	-2.086317e+01
1.327583e+02	-2.091381e+01
1.335251e+02	-2.096376e+01
1.342963e+02	-2.101231e+01
1.350720e+02	-2.106147e+01
1.358522e+02	-2.111251e+01
1.366368e+02	-2.116052e+01
1.374260e+02	-2.121194e+01
1.382198e+02	-2.125993e+01
1.390182e+02	-2.131011e+01
1.398211e+02	-2.136060e+01
1.406287e+02	-2.140788e+01
1.414410e+02	-2.145796e+01
1.422579e+02	-2.150765e+01
1.430796e+02	-2.155735e+01
1.439060e+02	-2.160811e+01
1.447372e+02	-2.165833e+01
1.455732e+02	-2.170681e+01
1.464141e+02	-2.175819e+01
1.472597e+02	-2.180447e+01
1.481103e+02	-2.185561e+01
1.489658e+02	-2.190493e+01
1.498262e+02	-2.195665e+01
1.506916e+02	-2.200544e+01
1.515620e+02	-2.205625e+01
1.524374e+02	-2.210492e+01
1.533179e+02	-2.215508e+01
1.542034e+02	-2.220513e+01
1.550941e+02	-2.225421e+01
1.559899e+02	-2.230342e+01
1.568909e+02	-2.235364e+01
1.577971e+02	-2.240229e+01
1.587085e+02	-2.245261e+01
1.596252e+02	-2.250370e+01
1.605472e+02	-2.255036e+01
1.614745e+02	-2.260443e+01
1.624072e+02	-2.265198e+01
1.633453e+02	-2.270114e+01
1.642887e+02	-2.275320e+01
1.652377e+02	-2.280344e+01
1.661921e+02	-2.285122e+01
1.671520e+02	-2.290103e+01
1.681175e+02	-2.295084e+01
1.690885e+02	-2.299912e+01
1.700651e+02	-2.304938e+01
1.710474e+02	-2.310091e+01
1.720354e+02	-2.315122e+01
1.730291e+02	-2.320070e+01
1.740285e+02	-2.324773e+01
1.750337e+02	-2.329960e+01
1.760446e+02	-2.334891e+01
1.770615e+02	-2.339857e+01
1.780842e+02	-2.345144e+01
1.791128e+02	-2.349890e+01
1.801473e+02	-2.354785e+01
1.811878e+02	-2.359863e+01
1.822344e+02	-2.364811e+01
1.832870e+02	-2.369871e+01
1.843456e+02	-2.374772e+01
1.854104e+02	-2.380008e+01
1.864813e+02	-2.385090e+01
1.875584e+02	-2.389572e+01
1.886418e+02	-2.394969e+01
1.897313e+02	-2.399642e+01
1.908272e+02	-2.404781e+01
1.919294e+02	-2.409736e+01
1.930380e+02	-2.414675e+01
1.941530e+02	-2.419940e+01
1.952744e+02	-2.424546e+01
1.964023e+02	-2.429789e+01
1.975367e+02	-2.434571e+01
1.986777e+02	-2.439461e+01
1.998252e+02	-2.444754e+01
2.009794e+02	-2.449695e+01
2.021403e+02	-2.454589e+01
2.033078e+02	-2.459392e+01
2.044821e+02	-2.464361e+01
2.056632e+02	-2.469588e+01
2.068511e+02	-2.474615e+01
2.080459e+02	-2.479625e+01
2.092475e+02	-2.484496e+01
2.104561e+02	-2.489555e+01
2.116717e+02	-2.494576e+01
2.128943e+02	-2.499491e+01
2.141240e+02	-2.504700e+01
2.153608e+02	-2.509414e+01
2.166047e+02	-2.514349e+01
2.178558e+02	-2.519332e+01
2.191141e+02	-2.524706e+01
2.203797e+02	-2.529429e+01
2.216526e+02	-2.534531e+01
2.229329e+02	-2.539418e+01
2.242205e+02	-2.544273e+01
2.255156e+02	-2.549559e+01
2.268182e+02	-2.554444e+01
2.281283e+02	-2.559199e+01
2.294459e+02	-2.564035e+01
2.307712e+02	-2.569536e+01
2.321041e+02	-2.574212e+01
2.334447e+02	-2.579568e+01
2.347931e+02	-2.584458e+01
2.361493e+02	-2.589452e+01
2.375133e+02	-2.594208e+01
2.388851e+02	-2.599457e+01
2.402649e+02	-2.604153e+01
2.416527e+02	-2.609467e+01
2.430484e+02	-2.614419e+01
2.444523e+02	-2.619554e+01
2.458642e+02	-2.624454e+01
2.472843e+02	-2.629238e+01
2.487126e+02	-2.634003e+01
2.501492e+02	-2.639173e+01
2.515940e+02	-2.644218e+01
2.530472e+02	-2.649320e+01
2.545088e+02	-2.654275e+01
2.559789e+02	-2.659603e+01
2.574574e+02	-2.664231e+01
2.589444e+02	-2.669237e+01
2.604401e+02	-2.674260e+01
2.619444e+02	-2.679420e+01
2.634574e+02	-2.684209e+01
2.649791e+02	-2.689529e+01
2.665096e+02	-2.694138e+01
2.680489e+02	-2.699410e+01
2.695972e+02	-2.704260e+01
2.711544e+02	-2.709054e+01
2.727205e+02	-2.714355e+01
2.742958e+02	-2.718815e+01
2.758801e+02	-2.724158e+01
2.774736e+02	-2.729534e+01
2.790762e+02	-2.733920e+01
2.806882e+02	-2.739251e+01
2.823094e+02	-2.744265e+01
2.839400e+02	-2.749665e+01
2.855800e+02	-2.754639e+01
2.872295e+02	-2.759157e+01
2.888886e+02	-2.764189e+01
2.905572e+02	-2.769010e+01
2.922354e+02	-2.774085e+01
2.939234e+02	-2.779499e+01
2.956211e+02	-2.784055e+01
2.973286e+02	-2.789092e+01
2.990459e+02	-2.793735e+01
3.007732e+02	-2.799105e+01
3.025104e+02	-2.804528e+01
3.042577e+02	-2.809463e+01
3.060151e+02	-2.814263e+01
3.077826e+02	-2.819687e+01
3.095604e+02	-2.824565e+01
3.113484e+02	-2.829166e+01
3.131467e+02	-2.834094e+01
3.149554e+02	-2.839105e+01
3.167746e+02	-2.844666e+01
3.186043e+02	-2.849322e+01
3.204445e+02	-2.854451e+01
3.222954e+02	-2.859481e+01
3.241570e+02	-2.864270e+01
3.260293e+02	-2.869075e+01
3.279124e+02	-2.874494e+01
3.298064e+02	-2.879195e+01
3.317114e+02	-2.884758e+01
3.336273e+02	-2.889498e+01
3.355544e+02	-2.894456e+01
3.374925e+02	-2.899118e+01
3.394418e+02	-2.904571e+01
3.414024e+02	-2.909198e+01
3.433744e+02	-2.914576e+01
3.453577e+02	-2.918993e+01
3.473525e+02	-2.923974e+01
3.493588e+02	-2.929397e+01
3.513766e+02	-2.934922e+01
3.534062e+02	-2.938976e+01
3.554474e+02	-2.944510e+01
3.575005e+02	-2.949301e+01
3.595654e+02	-2.954437e+01
3.616422e+02	-2.959499e+01
3.637311e+02	-2.964296e+01
3.658320e+02	-2.969280e+01
3.679450e+02	-2.974639e+01
3.700702e+02	-2.979936e+01
3.722077e+02	-2.985117e+01
3.743576e+02	-2.989258e+01
3.765199e+02	-2.994409e+01
3.786946e+02	-2.999026e+01
3.808820e+02	-3.004613e+01
3.830819e+02	-3.009434e+01
3.852946e+02	-3.014427e+01
3.875200e+02	-3.019547e+01
3.897583e+02	-3.023721e+01
3.920096e+02	-3.029852e+01
3.942738e+02	-3.034573e+01
3.965511e+02	-3.039516e+01
3.988416e+02	-3.044152e+01
4.011452e+02	-3.050014e+01
4.034622e+02	-3.054435e+01
4.057926e+02	-3.060033e+01
4.081365e+02	-3.064614e+01
4.104938e+02	-3.069378e+01
4.128648e+02	-3.074561e+01
4.152495e+02	-3.079992e+01
4.176480e+02	-3.084441e+01
4.200603e+02	-3.089552e+01
4.224866e+02	-3.095394e+01
4.249268e+02	-3.099660e+01
4.273812e+02	-3.104259e+01
4.298497e+02	-3.109602e+01
4.323325e+02	-3.115109e+01
4.348297e+02	-3.120078e+01
4.373412e+02	-3.124754e+01
4.398673e+02	-3.129741e+01
4.424079e+02	-3.135134e+01
4.449633e+02	-3.140136e+01
4.475334e+02	-3.144655e+01
4.501183e+02	-3.149614e+01
4.527182e+02	-3.154897e+01
4.553330e+02	-3.160039e+01
4.579630e+02	-3.164954e+01
4.606082e+02	-3.169689e+01
4.632687e+02	-3.174672e+01
4.659445e+02	-3.180510e+01
4.686358e+02	-3.184994e+01
4.713426e+02	-3.190359e+01
4.740650e+02	-3.195017e+01
4.768032e+02	-3.200152e+01
4.795572e+02	-3.205590e+01
4.823271e+02	-3.210680e+01
4.851130e+02	-3.214815e+01
4.879150e+02	-3.220727e+01
4.907332e+02	-3.225614e+01
4.935676e+02	-3.230821e+01
4.964185e+02	-3.235183e+01
4.992858e+02	-3.240096e+01
5.021696e+02	-3.245380e+01
5.050701e+02	-3.250374e+01
5.079874e+02	-3.255131e+01
5.109215e+02	-3.260089e+01
5.138726e+02	-3.264820e+01
5.168407e+02	-3.270010e+01
5.198259e+02	-3.275766e+01
5.228284e+02	-3.280723e+01
5.258482e+02	-3.286657e+01
5.288855e+02	-3.290621e+01
5.319403e+02	-3.295469e+01
5.350128e+02	-3.300487e+01
5.381030e+02	-3.305339e+01
5.412111e+02	-3.310118e+01
5.443371e+02	-3.314658e+01
5.474812e+02	-3.320085e+01
5.506434e+02	-3.325631e+01
5.538239e+02	-3.331326e+01
5.570228e+02	-3.335291e+01
5.602401e+02	-3.341001e+01
5.634760e+02	-3.345872e+01
5.667306e+02	-3.351482e+01
5.700040e+02	-3.355575e+01
5.732964e+02	-3.361245e+01
5.766077e+02	-3.365904e+01
5.799382e+02	-3.371226e+01
5.832879e+02	-3.375728e+01
5.866569e+02	-3.381065e+01
5.900454e+02	-3.385838e+01
5.934535e+02	-3.390834e+01
5.968813e+02	-3.396088e+01
6.003288e+02	-3.401501e+01
6.037963e+02	-3.405880e+01
6.072838e+02	-3.411939e+01
6.107914e+02	-3.415988e+01
6.143194e+02	-3.420913e+01
6.178676e+02	-3.427211e+01
6.214364e+02	-3.431108e+01
6.250258e+02	-3.435514e+01
6.286359e+02	-3.441655e+01
6.322669e+02	-3.446305e+01
6.359189e+02	-3.451374e+01
6.395919e+02	-3.456331e+01
6.432862e+02	-3.461297e+01
6.470017e+02	-3.466619e+01
6.507388e+02	-3.472639e+01
6.544974e+02	-3.475835e+01
6.582778e+02	-3.481663e+01
6.620800e+02	-3.486802e+01
6.659041e+02	-3.491780e+01
6.697504e+02	-3.496027e+01
6.736188e+02	-3.501365e+01
6.775096e+02	-3.506249e+01
6.814229e+02	-3.512323e+01
6.853587e+02	-3.517417e+01
6.893173e+02	-3.521810e+01
6.932988e+02	-3.527017e+01
6.973033e+02	-3.532000e+01
7.013309e+02	-3.537401e+01
