Frequency(Hz)	Magnitude(dB)
1.000000e+01	-2.185178e+00
1.005776e+01	-2.205200e+00
1.011585e+01	-2.225173e+00
1.017428e+01	-2.245286e+00
1.023305e+01	-2.265347e+00
1.029215e+01	-2.285984e+00
1.035160e+01	-2.306505e+00
1.041139e+01	-2.327337e+00
1.047153e+01	-2.347981e+00
1.053201e+01	-2.368829e+00
1.059284e+01	-2.390251e+00
1.065403e+01	-2.411304e+00
1.071556e+01	-2.432444e+00
1.077746e+01	-2.454481e+00
1.083971e+01	-2.475654e+00
1.090232e+01	-2.497603e+00
1.096529e+01	-2.519586e+00
1.102862e+01	-2.541669e+00
1.109232e+01	-2.563944e+00
1.115639e+01	-2.586372e+00
1.122083e+01	-2.608808e+00
1.128564e+01	-2.631462e+00
1.135083e+01	-2.654395e+00
1.141639e+01	-2.677172e+00
1.148233e+01	-2.700206e+00
1.154865e+01	-2.723468e+00
1.161536e+01	-2.747038e+00
1.168245e+01	-2.770378e+00
1.174992e+01	-2.794107e+00
1.181779e+01	-2.817662e+00
1.188605e+01	-2.841735e+00
1.195470e+01	-2.866057e+00
1.202375e+01	-2.890142e+00
1.209320e+01	-2.914561e+00
1.216305e+01	-2.939129e+00
1.223330e+01	-2.963854e+00
1.230396e+01	-2.988773e+00
1.237503e+01	-3.013580e+00
1.244651e+01	-3.038706e+00
1.251840e+01	-3.063966e+00
1.259070e+01	-3.089400e+00
1.266343e+01	-3.114773e+00
1.273657e+01	-3.140741e+00
1.281014e+01	-3.166398e+00
1.288413e+01	-3.192401e+00
1.295855e+01	-3.218468e+00
1.303339e+01	-3.244558e+00
1.310867e+01	-3.271145e+00
1.318439e+01	-3.297581e+00
1.326054e+01	-3.324452e+00
1.333713e+01	-3.350909e+00
1.341417e+01	-3.378153e+00
1.349165e+01	-3.405046e+00
1.356958e+01	-3.432452e+00
1.364795e+01	-3.459905e+00
1.372678e+01	-3.487350e+00
1.380607e+01	-3.514954e+00
1.388581e+01	-3.543160e+00
1.396602e+01	-3.571005e+00
1.404668e+01	-3.598959e+00
1.412782e+01	-3.627187e+00
1.420942e+01	-3.655608e+00
1.429149e+01	-3.684237e+00
1.437404e+01	-3.712992e+00
1.445706e+01	-3.741709e+00
1.454057e+01	-3.770722e+00
1.462455e+01	-3.799856e+00
1.470902e+01	-3.828973e+00
1.479398e+01	-3.858290e+00
1.487943e+01	-3.888138e+00
1.496537e+01	-3.917759e+00
1.505181e+01	-3.947084e+00
1.513875e+01	-3.977201e+00
1.522619e+01	-4.007406e+00
1.531414e+01	-4.037610e+00
1.540259e+01	-4.067977e+00
1.549156e+01	-4.098351e+00
1.558103e+01	-4.129131e+00
1.567103e+01	-4.159824e+00
1.576155e+01	-4.190915e+00
1.585258e+01	-4.222104e+00
1.594415e+01	-4.252776e+00
1.603624e+01	-4.284218e+00
1.612886e+01	-4.315694e+00
1.622202e+01	-4.347000e+00
1.631572e+01	-4.378917e+00
1.640996e+01	-4.410891e+00
1.650474e+01	-4.442766e+00
1.660008e+01	-4.474846e+00
1.669596e+01	-4.506996e+00
1.679239e+01	-4.539311e+00
1.688938e+01	-4.571996e+00
1.698694e+01	-4.604681e+00
1.708505e+01	-4.637215e+00
1.718373e+01	-4.670433e+00
1.728299e+01	-4.703241e+00
1.738281e+01	-4.736502e+00
1.748322e+01	-4.769930e+00
1.758420e+01	-4.803122e+00
1.768576e+01	-4.836797e+00
1.778792e+01	-4.870299e+00
1.789066e+01	-4.904217e+00
1.799399e+01	-4.938000e+00
1.809793e+01	-4.972272e+00
1.820246e+01	-5.006029e+00
1.830760e+01	-5.040729e+00
1.841334e+01	-5.074968e+00
1.851969e+01	-5.109504e+00
1.862666e+01	-5.144194e+00
1.873425e+01	-5.179298e+00
1.884246e+01	-5.213890e+00
1.895129e+01	-5.248938e+00
1.906075e+01	-5.284025e+00
1.917085e+01	-5.319480e+00
1.928158e+01	-5.354494e+00
1.939295e+01	-5.390307e+00
1.950496e+01	-5.425792e+00
1.961762e+01	-5.461793e+00
1.973093e+01	-5.497303e+00
1.984490e+01	-5.533356e+00
1.995952e+01	-5.569583e+00
2.007480e+01	-5.605773e+00
2.019076e+01	-5.641604e+00
2.030738e+01	-5.678741e+00
2.042467e+01	-5.715270e+00
2.054264e+01	-5.751653e+00
2.066130e+01	-5.788464e+00
2.078064e+01	-5.825303e+00
2.090066e+01	-5.862222e+00
2.102139e+01	-5.899292e+00
2.114280e+01	-5.936844e+00
2.126492e+01	-5.973848e+00
2.138775e+01	-6.011463e+00
2.151128e+01	-6.049070e+00
2.163553e+01	-6.086851e+00
2.176050e+01	-6.124301e+00
2.188619e+01	-6.162171e+00
2.201260e+01	-6.200283e+00
2.213974e+01	-6.238095e+00
2.226762e+01	-6.276206e+00
2.239624e+01	-6.314799e+00
2.252560e+01	-6.353258e+00
2.265571e+01	-6.391840e+00
2.278656e+01	-6.430006e+00
2.291818e+01	-6.468925e+00
2.305055e+01	-6.507630e+00
2.318369e+01	-6.546616e+00
2.331760e+01	-6.585826e+00
2.345228e+01	-6.624586e+00
2.358774e+01	-6.663869e+00
2.372398e+01	-6.703090e+00
2.386101e+01	-6.742724e+00
2.399883e+01	-6.781834e+00
2.413745e+01	-6.821680e+00
2.427686e+01	-6.861054e+00
2.441709e+01	-6.901185e+00
2.455812e+01	-6.940831e+00
2.469997e+01	-6.981295e+00
2.484263e+01	-7.020966e+00
2.498612e+01	-7.060997e+00
2.513044e+01	-7.101450e+00
2.527559e+01	-7.141564e+00
2.542158e+01	-7.182232e+00
2.556842e+01	-7.222381e+00
2.571610e+01	-7.263325e+00
2.586463e+01	-7.303845e+00
2.601403e+01	-7.344843e+00
2.616428e+01	-7.385437e+00
2.631541e+01	-7.426529e+00
2.646740e+01	-7.467304e+00
2.662028e+01	-7.508484e+00
2.677404e+01	-7.549903e+00
2.692868e+01	-7.591033e+00
2.708422e+01	-7.632434e+00
2.724066e+01	-7.673740e+00
2.739800e+01	-7.715609e+00
2.755625e+01	-7.757198e+00
2.771541e+01	-7.798436e+00
2.787550e+01	-7.840139e+00
2.803650e+01	-7.882244e+00
2.819844e+01	-7.924066e+00
2.836131e+01	-7.966105e+00
2.852513e+01	-8.007751e+00
2.868989e+01	-8.050415e+00
2.885560e+01	-8.092468e+00
2.902227e+01	-8.134613e+00
2.918990e+01	-8.177268e+00
2.935850e+01	-8.219460e+00
2.952807e+01	-8.262018e+00
2.969863e+01	-8.304692e+00
2.987016e+01	-8.347800e+00
3.004269e+01	-8.390156e+00
3.021622e+01	-8.433046e+00
3.039075e+01	-8.475934e+00
3.056628e+01	-8.518635e+00
3.074283e+01	-8.561946e+00
3.092040e+01	-8.604910e+00
3.109900e+01	-8.647807e+00
3.127862e+01	-8.691272e+00
3.145929e+01	-8.734723e+00
3.164099e+01	-8.778438e+00
3.182375e+01	-8.821562e+00
3.200756e+01	-8.864830e+00
3.219244e+01	-8.908215e+00
3.237838e+01	-8.952028e+00
3.256540e+01	-8.995674e+00
3.275349e+01	-9.039309e+00
3.294268e+01	-9.083405e+00
3.313295e+01	-9.127040e+00
3.332433e+01	-9.170935e+00
3.351681e+01	-9.215366e+00
3.371040e+01	-9.259225e+00
3.390511e+01	-9.303620e+00
3.410094e+01	-9.347633e+00
3.429791e+01	-9.391596e+00
3.449601e+01	-9.436060e+00
3.469526e+01	-9.480731e+00
3.489566e+01	-9.524648e+00
3.509721e+01	-9.569051e+00
3.529993e+01	-9.613468e+00
3.550382e+01	-9.658253e+00
3.570889e+01	-9.703079e+00
3.591515e+01	-9.747899e+00
3.612259e+01	-9.792554e+00
3.633123e+01	-9.837347e+00
3.654108e+01	-9.882326e+00
3.675214e+01	-9.927089e+00
3.696442e+01	-9.972236e+00
3.717792e+01	-1.001705e+01
3.739266e+01	-1.006197e+01
3.760864e+01	-1.010723e+01
3.782587e+01	-1.015260e+01
3.804435e+01	-1.019751e+01
3.826409e+01	-1.024276e+01
3.848510e+01	-1.028837e+01
3.870739e+01	-1.033363e+01
3.893096e+01	-1.037892e+01
3.915583e+01	-1.042506e+01
3.938199e+01	-1.047031e+01
3.960946e+01	-1.051551e+01
3.983824e+01	-1.056084e+01
4.006834e+01	-1.060689e+01
4.029978e+01	-1.065199e+01
4.053255e+01	-1.069784e+01
4.076666e+01	-1.074391e+01
4.100213e+01	-1.078971e+01
4.123896e+01	-1.083564e+01
4.147715e+01	-1.088108e+01
4.171672e+01	-1.092792e+01
4.195767e+01	-1.097375e+01
4.220002e+01	-1.101935e+01
4.244377e+01	-1.106559e+01
4.268892e+01	-1.111142e+01
4.293549e+01	-1.115812e+01
4.318348e+01	-1.120371e+01
4.343291e+01	-1.125027e+01
4.368377e+01	-1.129707e+01
4.393609e+01	-1.134273e+01
4.418986e+01	-1.139008e+01
4.444510e+01	-1.143502e+01
4.470182e+01	-1.148182e+01
4.496001e+01	-1.152876e+01
4.521970e+01	-1.157487e+01
4.548089e+01	-1.162167e+01
4.574358e+01	-1.166860e+01
4.600779e+01	-1.171437e+01
4.627353e+01	-1.176268e+01
4.654081e+01	-1.180903e+01
4.680963e+01	-1.185590e+01
4.708000e+01	-1.190216e+01
4.735193e+01	-1.194873e+01
4.762543e+01	-1.199524e+01
4.790051e+01	-1.204257e+01
4.817719e+01	-1.208956e+01
4.845545e+01	-1.213724e+01
4.873533e+01	-1.218384e+01
4.901682e+01	-1.223077e+01
4.929994e+01	-1.227805e+01
4.958470e+01	-1.232494e+01
4.987110e+01	-1.237184e+01
5.015915e+01	-1.241974e+01
5.044887e+01	-1.246631e+01
5.074026e+01	-1.251355e+01
5.103333e+01	-1.256070e+01
5.132810e+01	-1.260790e+01
5.162457e+01	-1.265513e+01
5.192275e+01	-1.270192e+01
5.222265e+01	-1.274981e+01
5.252429e+01	-1.279734e+01
5.282767e+01	-1.284541e+01
5.313280e+01	-1.289240e+01
5.343969e+01	-1.294014e+01
5.374836e+01	-1.298697e+01
5.405880e+01	-1.303444e+01
5.437105e+01	-1.308268e+01
5.468509e+01	-1.312908e+01
5.500095e+01	-1.317729e+01
5.531863e+01	-1.322508e+01
5.563815e+01	-1.327251e+01
5.595951e+01	-1.332016e+01
5.628273e+01	-1.336795e+01
5.660782e+01	-1.341650e+01
5.693479e+01	-1.346346e+01
5.726364e+01	-1.351107e+01
5.759439e+01	-1.355874e+01
5.792705e+01	-1.360667e+01
5.826164e+01	-1.365450e+01
5.859815e+01	-1.370285e+01
5.893662e+01	-1.375070e+01
5.927703e+01	-1.379864e+01
5.961941e+01	-1.384771e+01
5.996377e+01	-1.389433e+01
6.031012e+01	-1.394204e+01
6.065847e+01	-1.399071e+01
6.100883e+01	-1.403826e+01
6.136121e+01	-1.408578e+01
6.171563e+01	-1.413511e+01
6.207210e+01	-1.418315e+01
6.243063e+01	-1.423114e+01
6.279122e+01	-1.427842e+01
6.315390e+01	-1.432738e+01
6.351868e+01	-1.437531e+01
6.388556e+01	-1.442443e+01
6.425456e+01	-1.447123e+01
6.462569e+01	-1.452013e+01
6.499897e+01	-1.456826e+01
6.537440e+01	-1.461679e+01
6.575200e+01	-1.466566e+01
6.613178e+01	-1.471346e+01
6.651375e+01	-1.476242e+01
6.689793e+01	-1.480938e+01
6.728433e+01	-1.485884e+01
6.767297e+01	-1.490624e+01
6.806384e+01	-1.495605e+01
6.845698e+01	-1.500345e+01
6.885238e+01	-1.505219e+01
6.925007e+01	-1.510015e+01
6.965005e+01	-1.514946e+01
7.005235e+01	-1.519802e+01
7.045697e+01	-1.524615e+01
7.086393e+01	-1.529420e+01
7.127323e+01	-1.534314e+01
7.168490e+01	-1.539300e+01
7.209895e+01	-1.543993e+01
7.251539e+01	-1.548902e+01
7.293424e+01	-1.553822e+01
7.335551e+01	-1.558589e+01
7.377920e+01	-1.563486e+01
7.420535e+01	-1.568359e+01
7.463396e+01	-1.573258e+01
7.506504e+01	-1.578074e+01
7.549861e+01	-1.583063e+01
7.593469e+01	-1.587777e+01
7.637328e+01	-1.592711e+01
7.681441e+01	-1.597633e+01
7.725809e+01	-1.602496e+01
7.770433e+01	-1.607406e+01
7.815315e+01	-1.612293e+01
7.860456e+01	-1.617098e+01
7.905857e+01	-1.621868e+01
7.951521e+01	-1.626797e+01
7.997449e+01	-1.631774e+01
8.043642e+01	-1.636737e+01
8.090102e+01	-1.641516e+01
8.136830e+01	-1.646366e+01
8.183828e+01	-1.651335e+01
8.231097e+01	-1.656295e+01
8.278640e+01	-1.661032e+01
8.326457e+01	-1.665887e+01
8.374550e+01	-1.670871e+01
8.422921e+01	-1.675675e+01
8.471572e+01	-1.680712e+01
8.520503e+01	-1.685634e+01
8.569717e+01	-1.690580e+01
8.619215e+01	-1.695326e+01
8.669000e+01	-1.700431e+01
8.719071e+01	-1.705199e+01
8.769432e+01	-1.710052e+01
8.820084e+01	-1.715014e+01
8.871029e+01	-1.719951e+01
8.922267e+01	-1.724789e+01
8.973802e+01	-1.729733e+01
9.025634e+01	-1.734578e+01
9.077766e+01	-1.739549e+01
9.130199e+01	-1.744429e+01
9.182935e+01	-1.749480e+01
9.235975e+01	-1.754221e+01
9.289321e+01	-1.759188e+01
9.342976e+01	-1.764219e+01
9.396941e+01	-1.769045e+01
9.451217e+01	-1.773856e+01
9.505807e+01	-1.778882e+01
9.560712e+01	-1.783909e+01
9.615934e+01	-1.788710e+01
9.671476e+01	-1.793601e+01
9.727338e+01	-1.798573e+01
9.783522e+01	-1.803525e+01
9.840032e+01	-1.808428e+01
9.896867e+01	-1.813355e+01
9.954031e+01	-1.818377e+01
1.001153e+02	-1.823200e+01
1.006935e+02	-1.828168e+01
1.012751e+02	-1.833233e+01
1.018601e+02	-1.837999e+01
1.024484e+02	-1.842907e+01
1.030402e+02	-1.847733e+01
1.036353e+02	-1.852813e+01
1.042339e+02	-1.857712e+01
1.048360e+02	-1.862725e+01
1.054415e+02	-1.867644e+01
1.060505e+02	-1.872563e+01
1.066631e+02	-1.877591e+01
1.072791e+02	-1.882351e+01
1.078988e+02	-1.887352e+01
1.085220e+02	-1.892265e+01
1.091488e+02	-1.897215e+01
1.097793e+02	-1.902137e+01
1.104133e+02	-1.907123e+01
1.110511e+02	-1.911994e+01
1.116925e+02	-1.917051e+01
1.123376e+02	-1.921818e+01
1.129865e+02	-1.926849e+01
1.136391e+02	-1.931852e+01
1.142955e+02	-1.936656e+01
1.149556e+02	-1.941572e+01
1.156196e+02	-1.946790e+01
1.162874e+02	-1.951753e+01
1.169591e+02	-1.956693e+01
1.176347e+02	-1.961477e+01
1.183141e+02	-1.966664e+01
1.189975e+02	-1.971393e+01
1.196848e+02	-1.976364e+01
1.203761e+02	-1.981264e+01
1.210714e+02	-1.986338e+01
1.217707e+02	-1.991183e+01
1.224740e+02	-1.996091e+01
1.231814e+02	-2.001203e+01
1.238929e+02	-2.006057e+01
1.246085e+02	-2.011067e+01
1.253283e+02	-2.015888e+01
1.260522e+02	-2.020929e+01
1.267802e+02	-2.025789e+01
1.275125e+02	-2.031029e+01
1.282490e+02	-2.035790e+01
1.289898e+02	-2.040769e+01
1.297348e+02	-2.045828e+01
1.304842e+02	-2.050562e+01
1.312378e+02	-2.055480e+01
1.319959e+02	-2.060605e+01
1.327583e+02	-2.065562e+01
1.335251e+02	-2.070547e+01
1.342963e+02	-2.075633e+01
1.350720e+02	-2.080433e+01
1.358522e+02	-2.085410e+01
1.366368e+02	-2.090399e+01
1.374260e+02	-2.095223e+01
1.382198e+02	-2.100260e+01
1.390182e+02	-2.105187e+01
1.398211e+02	-2.110127e+01
1.406287e+02	-2.115153e+01
1.414410e+02	-2.120082e+01
1.422579e+02	-2.125073e+01
1.430796e+02	-2.130065e+01
1.439060e+02	-2.135180e+01
1.447372e+02	-2.139728e+01
1.455732e+02	-2.145072e+01
1.464141e+02	-2.149849e+01
1.472597e+02	-2.154772e+01
1.481103e+02	-2.159909e+01
1.489658e+02	-2.164857e+01
1.498262e+02	-2.169586e+01
1.506916e+02	-2.174943e+01
1.515620e+02	-2.179823e+01
1.524374e+02	-2.184822e+01
1.533179e+02	-2.189866e+01
1.542034e+02	-2.194668e+01
1.550941e+02	-2.199869e+01
1.559899e+02	-2.204511e+01
1.568909e+02	-2.209755e+01
1.577971e+02	-2.214621e+01
1.587085e+02	-2.219465e+01
1.596252e+02	-2.224375e+01
1.605472e+02	-2.229585e+01
1.614745e+02	-2.234592e+01
1.624072e+02	-2.239484e+01
1.633453e+02	-2.244320e+01
1.642887e+02	-2.249566e+01
1.652377e+02	-2.254536e+01
1.661921e+02	-2.259481e+01
1.671520e+02	-2.264271e+01
1.681175e+02	-2.269410e+01
1.690885e+02	-2.274102e+01
1.700651e+02	-2.279214e+01
1.710474e+02	-2.284337e+01
1.720354e+02	-2.289326e+01
1.730291e+02	-2.294307e+01
1.740285e+02	-2.299067e+01
1.750337e+02	-2.304242e+01
1.760446e+02	-2.309224e+01
1.770615e+02	-2.314078e+01
1.780842e+02	-2.319090e+01
1.791128e+02	-2.323919e+01
1.801473e+02	-2.329118e+01
1.811878e+02	-2.334092e+01
1.822344e+02	-2.338932e+01
1.832870e+02	-2.343856e+01
1.843456e+02	-2.348936e+01
1.854104e+02	-2.353807e+01
1.864813e+02	-2.358751e+01
1.875584e+02	-2.363992e+01
1.886418e+02	-2.368952e+01
1.897313e+02	-2.373736e+01
1.908272e+02	-2.378949e+01
1.919294e+02	-2.383979e+01
1.930380e+02	-2.388993e+01
1.941530e+02	-2.393902e+01
1.952744e+02	-2.398828e+01
1.964023e+02	-2.403902e+01
1.975367e+02	-2.408719e+01
1.986777e+02	-2.414152e+01
1.998252e+02	-2.418778e+01
2.009794e+02	-2.423682e+01
2.021403e+02	-2.428946e+01
2.033078e+02	-2.434006e+01
2.044821e+02	-2.438811e+01
2.056632e+02	-2.443669e+01
2.068511e+02	-2.448893e+01
2.080459e+02	-2.453600e+01
2.092475e+02	-2.458755e+01
2.104561e+02	-2.463862e+01
2.116717e+02	-2.468352e+01
2.128943e+02	-2.473643e+01
2.141240e+02	-2.478663e+01
2.153608e+02	-2.483740e+01
2.166047e+02	-2.488576e+01
2.178558e+02	-2.493465e+01
2.191141e+02	-2.498666e+01
2.203797e+02	-2.503446e+01
2.216526e+02	-2.508641e+01
2.229329e+02	-2.513539e+01
2.242205e+02	-2.518819e+01
2.255156e+02	-2.523274e+01
2.268182e+02	-2.528538e+01
2.281283e+02	-2.533643e+01
2.294459e+02	-2.538376e+01
2.307712e+02	-2.543821e+01
2.321041e+02	-2.548694e+01
2.334447e+02	-2.553332e+01
2.347931e+02	-2.558493e+01
2.361493e+02	-2.563373e+01
2.375133e+02	-2.568652e+01
2.388851e+02	-2.573388e+01
2.402649e+02	-2.578448e+01
2.416527e+02	-2.583372e+01
2.430484e+02	-2.588656e+01
2.444523e+02	-2.593537e+01
2.458642e+02	-2.598091e+01
2.472843e+02	-2.603303e+01
2.487126e+02	-2.608466e+01
2.501492e+02	-2.613643e+01
2.515940e+02	-2.618569e+01
2.530472e+02	-2.623810e+01
2.545088e+02	-2.628606e+01
2.559789e+02	-2.633307e+01
2.574574e+02	-2.638557e+01
2.589444e+02	-2.643187e+01
2.604401e+02	-2.648557e+01
2.619444e+02	-2.653391e+01
2.634574e+02	-2.658579e+01
2.649791e+02	-2.663577e+01
2.665096e+02	-2.668465e+01
2.680489e+02	-2.673665e+01
2.695972e+02	-2.678416e+01
2.711544e+02	-2.683275e+01
2.727205e+02	-2.688535e+01
2.742958e+02	-2.692893e+01
2.758801e+02	-2.698226e+01
2.774736e+02	-2.703392e+01
2.790762e+02	-2.708353e+01
2.806882e+02	-2.713403e+01
2.823094e+02	-2.718718e+01
2.839400e+02	-2.723465e+01
2.855800e+02	-2.728235e+01
2.872295e+02	-2.733359e+01
2.888886e+02	-2.738612e+01
2.905572e+02	-2.743000e+01
2.922354e+02	-2.748123e+01
2.939234e+02	-2.753047e+01
2.956211e+02	-2.758365e+01
2.973286e+02	-2.763328e+01
2.990459e+02	-2.768094e+01
3.007732e+02	-2.773423e+01
3.025104e+02	-2.778752e+01
3.042577e+02	-2.783514e+01
3.060151e+02	-2.788448e+01
3.077826e+02	-2.793650e+01
3.095604e+02	-2.798751e+01
3.113484e+02	-2.803484e+01
3.131467e+02	-2.808642e+01
3.149554e+02	-2.813492e+01
3.167746e+02	-2.818615e+01
3.186043e+02	-2.823237e+01
3.204445e+02	-2.828565e+01
3.222954e+02	-2.833560e+01
3.241570e+02	-2.838926e+01
3.260293e+02	-2.843485e+01
3.279124e+02	-2.848020e+01
3.298064e+02	-2.853641e+01
3.317114e+02	-2.858151e+01
3.336273e+02	-2.863477e+01
3.355544e+02	-2.867920e+01
3.374925e+02	-2.873582e+01
3.394418e+02	-2.878428e+01
3.414024e+02	-2.883188e+01
3.433744e+02	-2.888248e+01
3.453577e+02	-2.893134e+01
3.473525e+02	-2.898767e+01
3.493588e+02	-2.903342e+01
3.513766e+02	-2.908352e+01
3.534062e+02	-2.913528e+01
3.554474e+02	-2.918504e+01
3.575005e+02	-2.923576e+01
3.595654e+02	-2.927926e+01
3.616422e+02	-2.933302e+01
3.637311e+02	-2.938540e+01
3.658320e+02	-2.943577e+01
3.679450e+02	-2.948302e+01
3.700702e+02	-2.953156e+01
3.722077e+02	-2.958949e+01
3.743576e+02	-2.963843e+01
3.765199e+02	-2.968389e+01
3.786946e+02	-2.974154e+01
3.808820e+02	-2.978492e+01
3.830819e+02	-2.983886e+01
3.852946e+02	-2.988887e+01
3.875200e+02	-2.993521e+01
3.897583e+02	-2.998225e+01
3.920096e+02	-3.003576e+01
3.942738e+02	-3.008494e+01
3.965511e+02	-3.013169e+01
3.988416e+02	-3.018604e+01
4.011452e+02	-3.023716e+01
4.034622e+02	-3.028719e+01
4.057926e+02	-3.033685e+01
4.081365e+02	-3.039073e+01
4.104938e+02	-3.043421e+01
4.128648e+02	-3.048607e+01
4.152495e+02	-3.054085e+01
4.176480e+02	-3.058897e+01
4.200603e+02	-3.064008e+01
4.224866e+02	-3.068571e+01
4.249268e+02	-3.073872e+01
4.273812e+02	-3.078937e+01
4.298497e+02	-3.083687e+01
4.323325e+02	-3.088892e+01
4.348297e+02	-3.093816e+01
4.373412e+02	-3.099103e+01
4.398673e+02	-3.103953e+01
4.424079e+02	-3.108470e+01
4.449633e+02	-3.113821e+01
4.475334e+02	-3.119117e+01
4.501183e+02	-3.123858e+01
4.527182e+02	-3.128995e+01
4.553330e+02	-3.134183e+01
4.579630e+02	-3.138857e+01
4.606082e+02	-3.143667e+01
4.632687e+02	-3.149073e+01
4.659445e+02	-3.153304e+01
4.686358e+02	-3.159158e+01
4.713426e+02	-3.164302e+01
4.740650e+02	-3.169012e+01
4.768032e+02	-3.173926e+01
4.795572e+02	-3.179299e+01
4.823271e+02	-3.183937e+01
4.851130e+02	-3.188715e+01
4.879150e+02	-3.193535e+01
4.907332e+02	-3.199277e+01
4.935676e+02	-3.203825e+01
4.964185e+02	-3.208987e+01
4.992858e+02	-3.214265e+01
5.021696e+02	-3.219309e+01
5.050701e+02	-3.223937e+01
5.079874e+02	-3.229640e+01
5.109215e+02	-3.234251e+01
5.138726e+02	-3.239246e+01
5.168407e+02	-3.244199e+01
5.198259e+02	-3.249873e+01
5.228284e+02	-3.254420e+01
5.258482e+02	-3.259799e+01
5.288855e+02	-3.264675e+01
5.319403e+02	-3.270052e+01
5.350128e+02	-3.274347e+01
5.381030e+02	-3.279249e+01
5.412111e+02	-3.284033e+01
5.443371e+02	-3.289478e+01
5.474812e+02	-3.294360e+01
5.506434e+02	-3.299161e+01
5.538239e+02	-3.304995e+01
5.570228e+02	-3.309235e+01
5.602401e+02	-3.314069e+01
5.634760e+02	-3.319409e+01
5.667306e+02	-3.324211e+01
5.700040e+02	-3.329662e+01
5.732964e+02	-3.334532e+01
5.766077e+02	-3.339615e+01
5.799382e+02	-3.345255e+01
5.832879e+02	-3.349658e+01
5.866569e+02	-3.355009e+01
5.900454e+02	-3.360254e+01
5.934535e+02	-3.364249e+01
5.968813e+02	-3.369709e+01
6.003288e+02	-3.374680e+01
6.037963e+02	-3.379735e+01
6.072838e+02	-3.384516e+01
6.107914e+02	-3.389546e+01
6.143194e+02	-3.394605e+01
6.178676e+02	-3.400040e+01
6.214364e+02	-3.404568e+01
6.250258e+02	-3.410336e+01
6.286359e+02	-3.415331e+01
6.322669e+02	-3.419875e+01
6.359189e+02	-3.425376e+01
6.395919e+02	-3.430914e+01
6.432862e+02	-3.435651e+01
6.470017e+02	-3.440370e+01
6.507388e+02	-3.445141e+01
6.544974e+02	-3.450563e+01
6.582778e+02	-3.454805e+01
6.620800e+02	-3.460285e+01
6.659041e+02	-3.466012e+01
6.697504e+02	-3.469787e+01
6.736188e+02	-3.475594e+01
6.775096e+02	-3.481048e+01
6.814229e+02	-3.485876e+01
6.853587e+02	-3.490731e+01
6.893173e+02	-3.494923e+01
6.932988e+02	-3.500983e+01
6.973033e+02	-3.505823e+01
7.013309e+02	-3.511549e+01
