Frequency(Hz)	Magnitude(dB)
1.000000e+01	-2.156821e+00
1.005776e+01	-2.176445e+00
1.011585e+01	-2.196378e+00
1.017428e+01	-2.216051e+00
1.023305e+01	-2.236088e+00
1.029215e+01	-2.256636e+00
1.035160e+01	-2.276685e+00
1.041139e+01	-2.297433e+00
1.047153e+01	-2.317861e+00
1.053201e+01	-2.338598e+00
1.059284e+01	-2.359661e+00
1.065403e+01	-2.380685e+00
1.071556e+01	-2.401720e+00
1.077746e+01	-2.423098e+00
1.083971e+01	-2.444545e+00
1.090232e+01	-2.466228e+00
1.096529e+01	-2.487829e+00
1.102862e+01	-2.509658e+00
1.109232e+01	-2.531799e+00
1.115639e+01	-2.553973e+00
1.122083e+01	-2.576391e+00
1.128564e+01	-2.598794e+00
1.135083e+01	-2.621325e+00
1.141639e+01	-2.644202e+00
1.148233e+01	-2.666888e+00
1.154865e+01	-2.689991e+00
1.161536e+01	-2.713264e+00
1.168245e+01	-2.736395e+00
1.174992e+01	-2.759939e+00
1.181779e+01	-2.783453e+00
1.188605e+01	-2.807225e+00
1.195470e+01	-2.831253e+00
1.202375e+01	-2.855378e+00
1.209320e+01	-2.879274e+00
1.216305e+01	-2.903948e+00
1.223330e+01	-2.928248e+00
1.230396e+01	-2.952893e+00
1.237503e+01	-2.977555e+00
1.244651e+01	-3.002392e+00
1.251840e+01	-3.027474e+00
1.259070e+01	-3.052619e+00
1.266343e+01	-3.078039e+00
1.273657e+01	-3.103511e+00
1.281014e+01	-3.128854e+00
1.288413e+01	-3.154952e+00
1.295855e+01	-3.180684e+00
1.303339e+01	-3.206685e+00
1.310867e+01	-3.232859e+00
1.318439e+01	-3.259157e+00
1.326054e+01	-3.285780e+00
1.333713e+01	-3.312075e+00
1.341417e+01	-3.339245e+00
1.349165e+01	-3.366078e+00
1.356958e+01	-3.393278e+00
1.364795e+01	-3.420491e+00
1.372678e+01	-3.447837e+00
1.380607e+01	-3.474911e+00
1.388581e+01	-3.502730e+00
1.396602e+01	-3.530556e+00
1.404668e+01	-3.558303e+00
1.412782e+01	-3.586555e+00
1.420942e+01	-3.614386e+00
1.429149e+01	-3.642917e+00
1.437404e+01	-3.671533e+00
1.445706e+01	-3.700092e+00
1.454057e+01	-3.728847e+00
1.462455e+01	-3.757735e+00
1.470902e+01	-3.786712e+00
1.479398e+01	-3.815976e+00
1.487943e+01	-3.845067e+00
1.496537e+01	-3.874639e+00
1.505181e+01	-3.904387e+00
1.513875e+01	-3.934162e+00
1.522619e+01	-3.964000e+00
1.531414e+01	-3.994087e+00
1.540259e+01	-4.024017e+00
1.549156e+01	-4.054294e+00
1.558103e+01	-4.084725e+00
1.567103e+01	-4.115415e+00
1.576155e+01	-4.146131e+00
1.585258e+01	-4.176858e+00
1.594415e+01	-4.207865e+00
1.603624e+01	-4.238888e+00
1.612886e+01	-4.270118e+00
1.622202e+01	-4.301473e+00
1.631572e+01	-4.333204e+00
1.640996e+01	-4.365047e+00
1.650474e+01	-4.396429e+00
1.660008e+01	-4.428558e+00
1.669596e+01	-4.460327e+00
1.679239e+01	-4.492587e+00
1.688938e+01	-4.525122e+00
1.698694e+01	-4.557559e+00
1.708505e+01	-4.589974e+00
1.718373e+01	-4.622691e+00
1.728299e+01	-4.655500e+00
1.738281e+01	-4.688130e+00
1.748322e+01	-4.721588e+00
1.758420e+01	-4.754628e+00
1.768576e+01	-4.788307e+00
1.778792e+01	-4.821614e+00
1.789066e+01	-4.855486e+00
1.799399e+01	-4.889114e+00
1.809793e+01	-4.923017e+00
1.820246e+01	-4.956878e+00
1.830760e+01	-4.990819e+00
1.841334e+01	-5.025225e+00
1.851969e+01	-5.059333e+00
1.862666e+01	-5.093906e+00
1.873425e+01	-5.128524e+00
1.884246e+01	-5.163352e+00
1.895129e+01	-5.198268e+00
1.906075e+01	-5.233070e+00
1.917085e+01	-5.268241e+00
1.928158e+01	-5.303552e+00
1.939295e+01	-5.339151e+00
1.950496e+01	-5.374323e+00
1.961762e+01	-5.409615e+00
1.973093e+01	-5.445535e+00
1.984490e+01	-5.481326e+00
1.995952e+01	-5.517497e+00
2.007480e+01	-5.553410e+00
2.019076e+01	-5.589704e+00
2.030738e+01	-5.625729e+00
2.042467e+01	-5.661988e+00
2.054264e+01	-5.698677e+00
2.066130e+01	-5.735263e+00
2.078064e+01	-5.771956e+00
2.090066e+01	-5.808972e+00
2.102139e+01	-5.845842e+00
2.114280e+01	-5.882685e+00
2.126492e+01	-5.919917e+00
2.138775e+01	-5.957334e+00
2.151128e+01	-5.994551e+00
2.163553e+01	-6.032022e+00
2.176050e+01	-6.069718e+00
2.188619e+01	-6.107767e+00
2.201260e+01	-6.145523e+00
2.213974e+01	-6.183490e+00
2.226762e+01	-6.221234e+00
2.239624e+01	-6.259371e+00
2.252560e+01	-6.297757e+00
2.265571e+01	-6.335788e+00
2.278656e+01	-6.374235e+00
2.291818e+01	-6.412978e+00
2.305055e+01	-6.451902e+00
2.318369e+01	-6.490253e+00
2.331760e+01	-6.529388e+00
2.345228e+01	-6.568302e+00
2.358774e+01	-6.607329e+00
2.372398e+01	-6.646195e+00
2.386101e+01	-6.685316e+00
2.399883e+01	-6.725063e+00
2.413745e+01	-6.764625e+00
2.427686e+01	-6.803882e+00
2.441709e+01	-6.843586e+00
2.455812e+01	-6.883237e+00
2.469997e+01	-6.923076e+00
2.484263e+01	-6.963102e+00
2.498612e+01	-7.003298e+00
2.513044e+01	-7.043012e+00
2.527559e+01	-7.083418e+00
2.542158e+01	-7.124079e+00
2.556842e+01	-7.163858e+00
2.571610e+01	-7.204461e+00
2.586463e+01	-7.244976e+00
2.601403e+01	-7.285590e+00
2.616428e+01	-7.326002e+00
2.631541e+01	-7.367391e+00
2.646740e+01	-7.407941e+00
2.662028e+01	-7.449203e+00
2.677404e+01	-7.490167e+00
2.692868e+01	-7.531024e+00
2.708422e+01	-7.571782e+00
2.724066e+01	-7.613796e+00
2.739800e+01	-7.655067e+00
2.755625e+01	-7.697043e+00
2.771541e+01	-7.738404e+00
2.787550e+01	-7.779674e+00
2.803650e+01	-7.821588e+00
2.819844e+01	-7.863734e+00
2.836131e+01	-7.905214e+00
2.852513e+01	-7.947335e+00
2.868989e+01	-7.989335e+00
2.885560e+01	-8.031163e+00
2.902227e+01	-8.073334e+00
2.918990e+01	-8.116386e+00
2.935850e+01	-8.158194e+00
2.952807e+01	-8.200260e+00
2.969863e+01	-8.242590e+00
2.987016e+01	-8.285621e+00
3.004269e+01	-8.328189e+00
3.021622e+01	-8.371424e+00
3.039075e+01	-8.414249e+00
3.056628e+01	-8.457237e+00
3.074283e+01	-8.499788e+00
3.092040e+01	-8.542525e+00
3.109900e+01	-8.585835e+00
3.127862e+01	-8.628890e+00
3.145929e+01	-8.671743e+00
3.164099e+01	-8.715196e+00
3.182375e+01	-8.758593e+00
3.200756e+01	-8.801679e+00
3.219244e+01	-8.845054e+00
3.237838e+01	-8.888907e+00
3.256540e+01	-8.932551e+00
3.275349e+01	-8.976206e+00
3.294268e+01	-9.020540e+00
3.313295e+01	-9.063730e+00
3.332433e+01	-9.108077e+00
3.351681e+01	-9.151703e+00
3.371040e+01	-9.195417e+00
3.390511e+01	-9.239529e+00
3.410094e+01	-9.283201e+00
3.429791e+01	-9.327720e+00
3.449601e+01	-9.372007e+00
3.469526e+01	-9.416423e+00
3.489566e+01	-9.460391e+00
3.509721e+01	-9.504964e+00
3.529993e+01	-9.549259e+00
3.550382e+01	-9.594127e+00
3.570889e+01	-9.638441e+00
3.591515e+01	-9.682992e+00
3.612259e+01	-9.727789e+00
3.633123e+01	-9.772435e+00
3.654108e+01	-9.817149e+00
3.675214e+01	-9.862603e+00
3.696442e+01	-9.907262e+00
3.717792e+01	-9.952192e+00
3.739266e+01	-9.997317e+00
3.760864e+01	-1.004230e+01
3.782587e+01	-1.008667e+01
3.804435e+01	-1.013213e+01
3.826409e+01	-1.017717e+01
3.848510e+01	-1.022315e+01
3.870739e+01	-1.026748e+01
3.893096e+01	-1.031322e+01
3.915583e+01	-1.035909e+01
3.938199e+01	-1.040381e+01
3.960946e+01	-1.044983e+01
3.983824e+01	-1.049551e+01
4.006834e+01	-1.054110e+01
4.029978e+01	-1.058606e+01
4.053255e+01	-1.063286e+01
4.076666e+01	-1.067718e+01
4.100213e+01	-1.072386e+01
4.123896e+01	-1.076978e+01
4.147715e+01	-1.081529e+01
4.171672e+01	-1.086130e+01
4.195767e+01	-1.090699e+01
4.220002e+01	-1.095339e+01
4.244377e+01	-1.099920e+01
4.268892e+01	-1.104548e+01
4.293549e+01	-1.109104e+01
4.318348e+01	-1.113709e+01
4.343291e+01	-1.118366e+01
4.368377e+01	-1.122984e+01
4.393609e+01	-1.127639e+01
4.418986e+01	-1.132219e+01
4.444510e+01	-1.136927e+01
4.470182e+01	-1.141525e+01
4.496001e+01	-1.146160e+01
4.521970e+01	-1.150804e+01
4.548089e+01	-1.155445e+01
4.574358e+01	-1.160134e+01
4.600779e+01	-1.164746e+01
4.627353e+01	-1.169452e+01
4.654081e+01	-1.174055e+01
4.680963e+01	-1.178835e+01
4.708000e+01	-1.183461e+01
4.735193e+01	-1.188161e+01
4.762543e+01	-1.192808e+01
4.790051e+01	-1.197438e+01
4.817719e+01	-1.202195e+01
4.845545e+01	-1.206855e+01
4.873533e+01	-1.211596e+01
4.901682e+01	-1.216285e+01
4.929994e+01	-1.221002e+01
4.958470e+01	-1.225656e+01
4.987110e+01	-1.230386e+01
5.015915e+01	-1.235043e+01
5.044887e+01	-1.239773e+01
5.074026e+01	-1.244487e+01
5.103333e+01	-1.249236e+01
5.132810e+01	-1.253950e+01
5.162457e+01	-1.258661e+01
5.192275e+01	-1.263383e+01
5.222265e+01	-1.268189e+01
5.252429e+01	-1.272882e+01
5.282767e+01	-1.277645e+01
5.313280e+01	-1.282361e+01
5.343969e+01	-1.287149e+01
5.374836e+01	-1.291789e+01
5.405880e+01	-1.296588e+01
5.437105e+01	-1.301363e+01
5.468509e+01	-1.306088e+01
5.500095e+01	-1.310849e+01
5.531863e+01	-1.315664e+01
5.563815e+01	-1.320387e+01
5.595951e+01	-1.325135e+01
5.628273e+01	-1.329889e+01
5.660782e+01	-1.334638e+01
5.693479e+01	-1.339433e+01
5.726364e+01	-1.344209e+01
5.759439e+01	-1.348977e+01
5.792705e+01	-1.353718e+01
5.826164e+01	-1.358597e+01
5.859815e+01	-1.363433e+01
5.893662e+01	-1.368139e+01
5.927703e+01	-1.372939e+01
5.961941e+01	-1.377781e+01
5.996377e+01	-1.382536e+01
6.031012e+01	-1.387274e+01
6.065847e+01	-1.392123e+01
6.100883e+01	-1.396993e+01
6.136121e+01	-1.401696e+01
6.171563e+01	-1.406519e+01
6.207210e+01	-1.411289e+01
6.243063e+01	-1.416110e+01
6.279122e+01	-1.421008e+01
6.315390e+01	-1.425731e+01
6.351868e+01	-1.430543e+01
6.388556e+01	-1.435425e+01
6.425456e+01	-1.440257e+01
6.462569e+01	-1.445047e+01
6.499897e+01	-1.449812e+01
6.537440e+01	-1.454744e+01
6.575200e+01	-1.459489e+01
6.613178e+01	-1.464344e+01
6.651375e+01	-1.469207e+01
6.689793e+01	-1.473961e+01
6.728433e+01	-1.478839e+01
6.767297e+01	-1.483576e+01
6.806384e+01	-1.488603e+01
6.845698e+01	-1.493338e+01
6.885238e+01	-1.498206e+01
6.925007e+01	-1.503082e+01
6.965005e+01	-1.507951e+01
7.005235e+01	-1.512701e+01
7.045697e+01	-1.517572e+01
7.086393e+01	-1.522500e+01
7.127323e+01	-1.527397e+01
7.168490e+01	-1.532107e+01
7.209895e+01	-1.537087e+01
7.251539e+01	-1.541814e+01
7.293424e+01	-1.546685e+01
7.335551e+01	-1.551618e+01
7.377920e+01	-1.556444e+01
7.420535e+01	-1.561475e+01
7.463396e+01	-1.566206e+01
7.506504e+01	-1.571092e+01
7.549861e+01	-1.575901e+01
7.593469e+01	-1.580690e+01
7.637328e+01	-1.585721e+01
7.681441e+01	-1.590515e+01
7.725809e+01	-1.595519e+01
7.770433e+01	-1.600309e+01
7.815315e+01	-1.605208e+01
7.860456e+01	-1.610051e+01
7.905857e+01	-1.614926e+01
7.951521e+01	-1.619758e+01
7.997449e+01	-1.624658e+01
8.043642e+01	-1.629537e+01
8.090102e+01	-1.634492e+01
8.136830e+01	-1.639439e+01
8.183828e+01	-1.644292e+01
8.231097e+01	-1.649161e+01
8.278640e+01	-1.653992e+01
8.326457e+01	-1.658967e+01
8.374550e+01	-1.663856e+01
8.422921e+01	-1.668516e+01
8.471572e+01	-1.673622e+01
8.520503e+01	-1.678538e+01
8.569717e+01	-1.683363e+01
8.619215e+01	-1.688209e+01
8.669000e+01	-1.693179e+01
8.719071e+01	-1.698024e+01
8.769432e+01	-1.703085e+01
8.820084e+01	-1.707848e+01
8.871029e+01	-1.712814e+01
8.922267e+01	-1.717683e+01
8.973802e+01	-1.722611e+01
9.025634e+01	-1.727624e+01
9.077766e+01	-1.732434e+01
9.130199e+01	-1.737259e+01
9.182935e+01	-1.742290e+01
9.235975e+01	-1.747147e+01
9.289321e+01	-1.751929e+01
9.342976e+01	-1.756997e+01
9.396941e+01	-1.761904e+01
9.451217e+01	-1.766774e+01
9.505807e+01	-1.771835e+01
9.560712e+01	-1.776603e+01
9.615934e+01	-1.781637e+01
9.671476e+01	-1.786523e+01
9.727338e+01	-1.791537e+01
9.783522e+01	-1.796411e+01
9.840032e+01	-1.801286e+01
9.896867e+01	-1.806259e+01
9.954031e+01	-1.811195e+01
1.001153e+02	-1.816007e+01
1.006935e+02	-1.821126e+01
1.012751e+02	-1.826010e+01
1.018601e+02	-1.830820e+01
1.024484e+02	-1.835876e+01
1.030402e+02	-1.840680e+01
1.036353e+02	-1.845643e+01
1.042339e+02	-1.850532e+01
1.048360e+02	-1.855489e+01
1.054415e+02	-1.860372e+01
1.060505e+02	-1.865373e+01
1.066631e+02	-1.870313e+01
1.072791e+02	-1.875186e+01
1.078988e+02	-1.880303e+01
1.085220e+02	-1.885253e+01
1.091488e+02	-1.889889e+01
1.097793e+02	-1.894921e+01
1.104133e+02	-1.899947e+01
1.110511e+02	-1.904852e+01
1.116925e+02	-1.909847e+01
1.123376e+02	-1.914745e+01
1.129865e+02	-1.919703e+01
1.136391e+02	-1.924785e+01
1.142955e+02	-1.929711e+01
1.149556e+02	-1.934557e+01
1.156196e+02	-1.939468e+01
1.162874e+02	-1.944469e+01
1.169591e+02	-1.949427e+01
1.176347e+02	-1.954385e+01
1.183141e+02	-1.959352e+01
1.189975e+02	-1.964255e+01
1.196848e+02	-1.969163e+01
1.203761e+02	-1.974256e+01
1.210714e+02	-1.979120e+01
1.217707e+02	-1.983928e+01
1.224740e+02	-1.988827e+01
1.231814e+02	-1.993877e+01
1.238929e+02	-1.998887e+01
1.246085e+02	-2.003670e+01
1.253283e+02	-2.008740e+01
1.260522e+02	-2.013900e+01
1.267802e+02	-2.018812e+01
1.275125e+02	-2.023643e+01
1.282490e+02	-2.028502e+01
1.289898e+02	-2.033638e+01
1.297348e+02	-2.038583e+01
1.304842e+02	-2.043506e+01
1.312378e+02	-2.048473e+01
1.319959e+02	-2.053554e+01
1.327583e+02	-2.058503e+01
1.335251e+02	-2.063596e+01
1.342963e+02	-2.068349e+01
1.350720e+02	-2.073356e+01
1.358522e+02	-2.078282e+01
1.366368e+02	-2.083117e+01
1.374260e+02	-2.088211e+01
1.382198e+02	-2.093034e+01
1.390182e+02	-2.098048e+01
1.398211e+02	-2.103012e+01
1.406287e+02	-2.107982e+01
1.414410e+02	-2.112900e+01
1.422579e+02	-2.118034e+01
1.430796e+02	-2.122775e+01
1.439060e+02	-2.127674e+01
1.447372e+02	-2.132961e+01
1.455732e+02	-2.137667e+01
1.464141e+02	-2.142662e+01
1.472597e+02	-2.147493e+01
1.481103e+02	-2.152520e+01
1.489658e+02	-2.157804e+01
1.498262e+02	-2.162536e+01
1.506916e+02	-2.167596e+01
1.515620e+02	-2.172500e+01
1.524374e+02	-2.177579e+01
1.533179e+02	-2.182498e+01
1.542034e+02	-2.187625e+01
1.550941e+02	-2.192531e+01
1.559899e+02	-2.197399e+01
1.568909e+02	-2.202511e+01
1.577971e+02	-2.207364e+01
1.587085e+02	-2.212450e+01
1.596252e+02	-2.217351e+01
1.605472e+02	-2.222358e+01
1.614745e+02	-2.227327e+01
1.624072e+02	-2.232164e+01
1.633453e+02	-2.237067e+01
1.642887e+02	-2.242195e+01
1.652377e+02	-2.247174e+01
1.661921e+02	-2.252242e+01
1.671520e+02	-2.257075e+01
1.681175e+02	-2.262139e+01
1.690885e+02	-2.267247e+01
1.700651e+02	-2.272104e+01
1.710474e+02	-2.276974e+01
1.720354e+02	-2.282029e+01
1.730291e+02	-2.287134e+01
1.740285e+02	-2.291914e+01
1.750337e+02	-2.296943e+01
1.760446e+02	-2.301918e+01
1.770615e+02	-2.306755e+01
1.780842e+02	-2.311877e+01
1.791128e+02	-2.316882e+01
1.801473e+02	-2.321817e+01
1.811878e+02	-2.326703e+01
1.822344e+02	-2.331758e+01
1.832870e+02	-2.336682e+01
1.843456e+02	-2.341847e+01
1.854104e+02	-2.346690e+01
1.864813e+02	-2.351856e+01
1.875584e+02	-2.356683e+01
1.886418e+02	-2.361740e+01
1.897313e+02	-2.366796e+01
1.908272e+02	-2.371891e+01
1.919294e+02	-2.376780e+01
1.930380e+02	-2.381677e+01
1.941530e+02	-2.386579e+01
1.952744e+02	-2.391831e+01
1.964023e+02	-2.396598e+01
1.975367e+02	-2.401742e+01
1.986777e+02	-2.406657e+01
1.998252e+02	-2.411622e+01
2.009794e+02	-2.416349e+01
2.021403e+02	-2.421522e+01
2.033078e+02	-2.426718e+01
2.044821e+02	-2.431543e+01
2.056632e+02	-2.436201e+01
2.068511e+02	-2.441818e+01
2.080459e+02	-2.446443e+01
2.092475e+02	-2.451426e+01
2.104561e+02	-2.456420e+01
2.116717e+02	-2.461467e+01
2.128943e+02	-2.466486e+01
2.141240e+02	-2.471276e+01
2.153608e+02	-2.476598e+01
2.166047e+02	-2.481469e+01
2.178558e+02	-2.486264e+01
2.191141e+02	-2.491516e+01
2.203797e+02	-2.496311e+01
2.216526e+02	-2.501434e+01
2.229329e+02	-2.506355e+01
2.242205e+02	-2.511070e+01
2.255156e+02	-2.516152e+01
2.268182e+02	-2.521535e+01
2.281283e+02	-2.526241e+01
2.294459e+02	-2.531242e+01
2.307712e+02	-2.536751e+01
2.321041e+02	-2.541229e+01
2.334447e+02	-2.546437e+01
2.347931e+02	-2.551418e+01
2.361493e+02	-2.556123e+01
2.375133e+02	-2.561167e+01
2.388851e+02	-2.566239e+01
2.402649e+02	-2.571468e+01
2.416527e+02	-2.576022e+01
2.430484e+02	-2.581472e+01
2.444523e+02	-2.586134e+01
2.458642e+02	-2.591480e+01
2.472843e+02	-2.596436e+01
2.487126e+02	-2.601007e+01
2.501492e+02	-2.605943e+01
2.515940e+02	-2.611610e+01
2.530472e+02	-2.616343e+01
2.545088e+02	-2.621325e+01
2.559789e+02	-2.625823e+01
2.574574e+02	-2.631204e+01
2.589444e+02	-2.635920e+01
2.604401e+02	-2.640987e+01
2.619444e+02	-2.646089e+01
2.634574e+02	-2.651430e+01
2.649791e+02	-2.656258e+01
2.665096e+02	-2.661442e+01
2.680489e+02	-2.666405e+01
2.695972e+02	-2.671080e+01
2.711544e+02	-2.675777e+01
2.727205e+02	-2.681303e+01
2.742958e+02	-2.686092e+01
2.758801e+02	-2.691138e+01
2.774736e+02	-2.696295e+01
2.790762e+02	-2.701381e+01
2.806882e+02	-2.705998e+01
2.823094e+02	-2.711377e+01
2.839400e+02	-2.716104e+01
2.855800e+02	-2.720824e+01
2.872295e+02	-2.725987e+01
2.888886e+02	-2.730977e+01
2.905572e+02	-2.736312e+01
2.922354e+02	-2.741153e+01
2.939234e+02	-2.746053e+01
2.956211e+02	-2.751666e+01
2.973286e+02	-2.755668e+01
2.990459e+02	-2.761160e+01
3.007732e+02	-2.766187e+01
3.025104e+02	-2.771581e+01
3.042577e+02	-2.776426e+01
3.060151e+02	-2.781518e+01
3.077826e+02	-2.786203e+01
3.095604e+02	-2.791467e+01
3.113484e+02	-2.796483e+01
3.131467e+02	-2.800884e+01
3.149554e+02	-2.806276e+01
3.167746e+02	-2.811483e+01
3.186043e+02	-2.816054e+01
3.204445e+02	-2.820843e+01
3.222954e+02	-2.825896e+01
3.241570e+02	-2.831232e+01
3.260293e+02	-2.836127e+01
3.279124e+02	-2.841272e+01
3.298064e+02	-2.846154e+01
3.317114e+02	-2.851178e+01
3.336273e+02	-2.856143e+01
3.355544e+02	-2.861260e+01
3.374925e+02	-2.866250e+01
3.394418e+02	-2.871264e+01
3.414024e+02	-2.876207e+01
3.433744e+02	-2.881433e+01
3.453577e+02	-2.886280e+01
3.473525e+02	-2.891303e+01
3.493588e+02	-2.896238e+01
3.513766e+02	-2.901208e+01
3.534062e+02	-2.905973e+01
3.554474e+02	-2.911473e+01
3.575005e+02	-2.916790e+01
3.595654e+02	-2.921101e+01
3.616422e+02	-2.926462e+01
3.637311e+02	-2.931398e+01
3.658320e+02	-2.936543e+01
3.679450e+02	-2.941086e+01
3.700702e+02	-2.946422e+01
3.722077e+02	-2.951096e+01
3.743576e+02	-2.956764e+01
3.765199e+02	-2.960732e+01
3.786946e+02	-2.966139e+01
3.808820e+02	-2.971438e+01
3.830819e+02	-2.976261e+01
3.852946e+02	-2.981584e+01
3.875200e+02	-2.986293e+01
3.897583e+02	-2.990997e+01
3.920096e+02	-2.996442e+01
3.942738e+02	-3.001826e+01
3.965511e+02	-3.006200e+01
3.988416e+02	-3.011433e+01
4.011452e+02	-3.016831e+01
4.034622e+02	-3.021864e+01
4.057926e+02	-3.026613e+01
4.081365e+02	-3.031597e+01
4.104938e+02	-3.036453e+01
4.128648e+02	-3.041546e+01
4.152495e+02	-3.046367e+01
4.176480e+02	-3.051963e+01
4.200603e+02	-3.056948e+01
4.224866e+02	-3.061673e+01
4.249268e+02	-3.066439e+01
4.273812e+02	-3.071768e+01
4.298497e+02	-3.076658e+01
4.323325e+02	-3.081480e+01
4.348297e+02	-3.086870e+01
4.373412e+02	-3.091729e+01
4.398673e+02	-3.097160e+01
4.424079e+02	-3.101887e+01
4.449633e+02	-3.106519e+01
4.475334e+02	-3.111484e+01
4.501183e+02	-3.116747e+01
4.527182e+02	-3.121524e+01
4.553330e+02	-3.127191e+01
4.579630e+02	-3.131124e+01
4.606082e+02	-3.136807e+01
4.632687e+02	-3.141633e+01
4.659445e+02	-3.146912e+01
4.686358e+02	-3.151575e+01
4.713426e+02	-3.156234e+01
4.740650e+02	-3.161671e+01
4.768032e+02	-3.166812e+01
4.795572e+02	-3.172009e+01
4.823271e+02	-3.176760e+01
4.851130e+02	-3.181952e+01
4.879150e+02	-3.187549e+01
4.907332e+02	-3.191379e+01
4.935676e+02	-3.196983e+01
4.964185e+02	-3.201858e+01
4.992858e+02	-3.207068e+01
5.021696e+02	-3.211915e+01
5.050701e+02	-3.217099e+01
5.079874e+02	-3.221363e+01
5.109215e+02	-3.226609e+01
5.138726e+02	-3.232093e+01
5.168407e+02	-3.237591e+01
5.198259e+02	-3.241936e+01
5.228284e+02	-3.247998e+01
5.258482e+02	-3.252635e+01
5.288855e+02	-3.256666e+01
5.319403e+02	-3.261780e+01
5.350128e+02	-3.267167e+01
5.381030e+02	-3.272097e+01
5.412111e+02	-3.277299e+01
5.443371e+02	-3.281926e+01
5.474812e+02	-3.287012e+01
5.506434e+02	-3.292538e+01
5.538239e+02	-3.297058e+01
5.570228e+02	-3.302020e+01
5.602401e+02	-3.308236e+01
5.634760e+02	-3.312993e+01
5.667306e+02	-3.317799e+01
5.700040e+02	-3.322768e+01
5.732964e+02	-3.327476e+01
5.766077e+02	-3.333221e+01
5.799382e+02	-3.337949e+01
5.832879e+02	-3.342647e+01
5.866569e+02	-3.347174e+01
5.900454e+02	-3.352551e+01
5.934535e+02	-3.357206e+01
5.968813e+02	-3.362651e+01
6.003288e+02	-3.367419e+01
6.037963e+02	-3.372737e+01
6.072838e+02	-3.377573e+01
6.107914e+02	-3.383593e+01
6.143194e+02	-3.388370e+01
6.178676e+02	-3.392873e+01
6.214364e+02	-3.398019e+01
6.250258e+02	-3.403726e+01
6.286359e+02	-3.407478e+01
6.322669e+02	-3.413615e+01
6.359189e+02	-3.417535e+01
6.395919e+02	-3.422948e+01
6.432862e+02	-3.428753e+01
6.470017e+02	-3.432704e+01
6.507388e+02	-3.438385e+01
6.544974e+02	-3.443179e+01
6.582778e+02	-3.447983e+01
6.620800e+02	-3.452445e+01
6.659041e+02	-3.458839e+01
6.697504e+02	-3.462768e+01
6.736188e+02	-3.467649e+01
6.775096e+02	-3.474164e+01
6.814229e+02	-3.478878e+01
6.853587e+02	-3.483538e+01
6.893173e+02	-3.488425e+01
6.932988e+02	-3.493436e+01
6.973033e+02	-3.498352e+01
7.013309e+02	-3.503703e+01
