Frequency(Hz)	Magnitude(dB)
1.000000e+01	-2.107223e+00
1.005776e+01	-2.126495e+00
1.011585e+01	-2.146032e+00
1.017428e+01	-2.165735e+00
1.023305e+01	-2.185232e+00
1.029215e+01	-2.205057e+00
1.035160e+01	-2.225245e+00
1.041139e+01	-2.245106e+00
1.047153e+01	-2.265398e+00
1.053201e+01	-2.285669e+00
1.059284e+01	-2.306356e+00
1.065403e+01	-2.327098e+00
1.071556e+01	-2.347920e+00
1.077746e+01	-2.368941e+00
1.083971e+01	-2.389813e+00
1.090232e+01	-2.411309e+00
1.096529e+01	-2.432561e+00
1.102862e+01	-2.453905e+00
1.109232e+01	-2.475875e+00
1.115639e+01	-2.497571e+00
1.122083e+01	-2.519665e+00
1.128564e+01	-2.541773e+00
1.135083e+01	-2.563900e+00
1.141639e+01	-2.586171e+00
1.148233e+01	-2.608791e+00
1.154865e+01	-2.631326e+00
1.161536e+01	-2.654491e+00
1.168245e+01	-2.677182e+00
1.174992e+01	-2.700282e+00
1.181779e+01	-2.723319e+00
1.188605e+01	-2.747054e+00
1.195470e+01	-2.770506e+00
1.202375e+01	-2.794238e+00
1.209320e+01	-2.817955e+00
1.216305e+01	-2.841637e+00
1.223330e+01	-2.866159e+00
1.230396e+01	-2.890194e+00
1.237503e+01	-2.914765e+00
1.244651e+01	-2.939030e+00
1.251840e+01	-2.963987e+00
1.259070e+01	-2.988725e+00
1.266343e+01	-3.013525e+00
1.273657e+01	-3.038910e+00
1.281014e+01	-3.063951e+00
1.288413e+01	-3.089300e+00
1.295855e+01	-3.114963e+00
1.303339e+01	-3.140498e+00
1.310867e+01	-3.166401e+00
1.318439e+01	-3.192385e+00
1.326054e+01	-3.218341e+00
1.333713e+01	-3.244670e+00
1.341417e+01	-3.271154e+00
1.349165e+01	-3.297591e+00
1.356958e+01	-3.324336e+00
1.364795e+01	-3.351137e+00
1.372678e+01	-3.378133e+00
1.380607e+01	-3.405023e+00
1.388581e+01	-3.432467e+00
1.396602e+01	-3.459960e+00
1.404668e+01	-3.487398e+00
1.412782e+01	-3.515009e+00
1.420942e+01	-3.543118e+00
1.429149e+01	-3.570889e+00
1.437404e+01	-3.598958e+00
1.445706e+01	-3.627203e+00
1.454057e+01	-3.655633e+00
1.462455e+01	-3.684167e+00
1.470902e+01	-3.712929e+00
1.479398e+01	-3.741696e+00
1.487943e+01	-3.770849e+00
1.496537e+01	-3.799762e+00
1.505181e+01	-3.828962e+00
1.513875e+01	-3.858488e+00
1.522619e+01	-3.887894e+00
1.531414e+01	-3.917495e+00
1.540259e+01	-3.947499e+00
1.549156e+01	-3.977299e+00
1.558103e+01	-4.007232e+00
1.567103e+01	-4.037467e+00
1.576155e+01	-4.067927e+00
1.585258e+01	-4.098054e+00
1.594415e+01	-4.128909e+00
1.603624e+01	-4.159932e+00
1.612886e+01	-4.190989e+00
1.622202e+01	-4.221653e+00
1.631572e+01	-4.252848e+00
1.640996e+01	-4.284145e+00
1.650474e+01	-4.315610e+00
1.660008e+01	-4.347429e+00
1.669596e+01	-4.378978e+00
1.679239e+01	-4.410626e+00
1.688938e+01	-4.442644e+00
1.698694e+01	-4.474697e+00
1.708505e+01	-4.507104e+00
1.718373e+01	-4.539673e+00
1.728299e+01	-4.571963e+00
1.738281e+01	-4.604439e+00
1.748322e+01	-4.637152e+00
1.758420e+01	-4.670065e+00
1.768576e+01	-4.703385e+00
1.778792e+01	-4.736497e+00
1.789066e+01	-4.769553e+00
1.799399e+01	-4.803108e+00
1.809793e+01	-4.836619e+00
1.820246e+01	-4.870529e+00
1.830760e+01	-4.903958e+00
1.841334e+01	-4.937899e+00
1.851969e+01	-4.972206e+00
1.862666e+01	-5.006445e+00
1.873425e+01	-5.040622e+00
1.884246e+01	-5.075166e+00
1.895129e+01	-5.109638e+00
1.906075e+01	-5.144298e+00
1.917085e+01	-5.179014e+00
1.928158e+01	-5.213683e+00
1.939295e+01	-5.248969e+00
1.950496e+01	-5.283990e+00
1.961762e+01	-5.318999e+00
1.973093e+01	-5.354684e+00
1.984490e+01	-5.390086e+00
1.995952e+01	-5.425759e+00
2.007480e+01	-5.461444e+00
2.019076e+01	-5.497300e+00
2.030738e+01	-5.533120e+00
2.042467e+01	-5.569394e+00
2.054264e+01	-5.605804e+00
2.066130e+01	-5.641968e+00
2.078064e+01	-5.678280e+00
2.090066e+01	-5.715158e+00
2.102139e+01	-5.751599e+00
2.114280e+01	-5.788434e+00
2.126492e+01	-5.825252e+00
2.138775e+01	-5.862185e+00
2.151128e+01	-5.899584e+00
2.163553e+01	-5.936564e+00
2.176050e+01	-5.974000e+00
2.188619e+01	-6.011484e+00
2.201260e+01	-6.048864e+00
2.213974e+01	-6.086465e+00
2.226762e+01	-6.124234e+00
2.239624e+01	-6.162191e+00
2.252560e+01	-6.199926e+00
2.265571e+01	-6.238231e+00
2.278656e+01	-6.276450e+00
2.291818e+01	-6.314263e+00
2.305055e+01	-6.353184e+00
2.318369e+01	-6.391653e+00
2.331760e+01	-6.430034e+00
2.345228e+01	-6.468967e+00
2.358774e+01	-6.507609e+00
2.372398e+01	-6.546583e+00
2.386101e+01	-6.585558e+00
2.399883e+01	-6.624702e+00
2.413745e+01	-6.663685e+00
2.427686e+01	-6.703048e+00
2.441709e+01	-6.742424e+00
2.455812e+01	-6.782191e+00
2.469997e+01	-6.821600e+00
2.484263e+01	-6.861280e+00
2.498612e+01	-6.900894e+00
2.513044e+01	-6.940809e+00
2.527559e+01	-6.980878e+00
2.542158e+01	-7.020931e+00
2.556842e+01	-7.060923e+00
2.571610e+01	-7.101247e+00
2.586463e+01	-7.141492e+00
2.601403e+01	-7.182309e+00
2.616428e+01	-7.222540e+00
2.631541e+01	-7.263003e+00
2.646740e+01	-7.303844e+00
2.662028e+01	-7.344754e+00
2.677404e+01	-7.385670e+00
2.692868e+01	-7.426400e+00
2.708422e+01	-7.467538e+00
2.724066e+01	-7.508520e+00
2.739800e+01	-7.549861e+00
2.755625e+01	-7.590971e+00
2.771541e+01	-7.632068e+00
2.787550e+01	-7.673779e+00
2.803650e+01	-7.714723e+00
2.819844e+01	-7.756808e+00
2.836131e+01	-7.798718e+00
2.852513e+01	-7.840520e+00
2.868989e+01	-7.882077e+00
2.885560e+01	-7.923621e+00
2.902227e+01	-7.965725e+00
2.918990e+01	-8.008494e+00
2.935850e+01	-8.050103e+00
2.952807e+01	-8.092584e+00
2.969863e+01	-8.134991e+00
2.987016e+01	-8.177190e+00
3.004269e+01	-8.219361e+00
3.021622e+01	-8.261895e+00
3.039075e+01	-8.304845e+00
3.056628e+01	-8.347216e+00
3.074283e+01	-8.389913e+00
3.092040e+01	-8.433021e+00
3.109900e+01	-8.475626e+00
3.127862e+01	-8.519100e+00
3.145929e+01	-8.561729e+00
3.164099e+01	-8.604919e+00
3.182375e+01	-8.647934e+00
3.200756e+01	-8.691708e+00
3.219244e+01	-8.734470e+00
3.237838e+01	-8.777695e+00
3.256540e+01	-8.821506e+00
3.275349e+01	-8.864494e+00
3.294268e+01	-8.907956e+00
3.313295e+01	-8.952148e+00
3.332433e+01	-8.995281e+00
3.351681e+01	-9.039051e+00
3.371040e+01	-9.083262e+00
3.390511e+01	-9.127398e+00
3.410094e+01	-9.171277e+00
3.429791e+01	-9.215276e+00
3.449601e+01	-9.258798e+00
3.469526e+01	-9.303275e+00
3.489566e+01	-9.347746e+00
3.509721e+01	-9.391359e+00
3.529993e+01	-9.436213e+00
3.550382e+01	-9.480541e+00
3.570889e+01	-9.524972e+00
3.591515e+01	-9.569355e+00
3.612259e+01	-9.614032e+00
3.633123e+01	-9.658779e+00
3.654108e+01	-9.702853e+00
3.675214e+01	-9.747937e+00
3.696442e+01	-9.792568e+00
3.717792e+01	-9.837722e+00
3.739266e+01	-9.881781e+00
3.760864e+01	-9.926698e+00
3.782587e+01	-9.972828e+00
3.804435e+01	-1.001715e+01
3.826409e+01	-1.006205e+01
3.848510e+01	-1.010706e+01
3.870739e+01	-1.015238e+01
3.893096e+01	-1.019775e+01
3.915583e+01	-1.024295e+01
3.938199e+01	-1.028864e+01
3.960946e+01	-1.033393e+01
3.983824e+01	-1.037883e+01
4.006834e+01	-1.042446e+01
4.029978e+01	-1.046983e+01
4.053255e+01	-1.051545e+01
4.076666e+01	-1.056122e+01
4.100213e+01	-1.060661e+01
4.123896e+01	-1.065258e+01
4.147715e+01	-1.069799e+01
4.171672e+01	-1.074401e+01
4.195767e+01	-1.078949e+01
4.220002e+01	-1.083558e+01
4.244377e+01	-1.088178e+01
4.268892e+01	-1.092805e+01
4.293549e+01	-1.097322e+01
4.318348e+01	-1.101994e+01
4.343291e+01	-1.106523e+01
4.368377e+01	-1.111198e+01
4.393609e+01	-1.115825e+01
4.418986e+01	-1.120431e+01
4.444510e+01	-1.125033e+01
4.470182e+01	-1.129716e+01
4.496001e+01	-1.134325e+01
4.521970e+01	-1.138995e+01
4.548089e+01	-1.143625e+01
4.574358e+01	-1.148251e+01
4.600779e+01	-1.152943e+01
4.627353e+01	-1.157558e+01
4.654081e+01	-1.162271e+01
4.680963e+01	-1.166888e+01
4.708000e+01	-1.171556e+01
4.735193e+01	-1.176280e+01
4.762543e+01	-1.180890e+01
4.790051e+01	-1.185558e+01
4.817719e+01	-1.190261e+01
4.845545e+01	-1.194901e+01
4.873533e+01	-1.199570e+01
4.901682e+01	-1.204247e+01
4.929994e+01	-1.208941e+01
4.958470e+01	-1.213626e+01
4.987110e+01	-1.218349e+01
5.015915e+01	-1.223024e+01
5.044887e+01	-1.227760e+01
5.074026e+01	-1.232463e+01
5.103333e+01	-1.237161e+01
5.132810e+01	-1.241910e+01
5.162457e+01	-1.246611e+01
5.192275e+01	-1.251334e+01
5.222265e+01	-1.256012e+01
5.252429e+01	-1.260744e+01
5.282767e+01	-1.265571e+01
5.313280e+01	-1.270178e+01
5.343969e+01	-1.274931e+01
5.374836e+01	-1.279687e+01
5.405880e+01	-1.284500e+01
5.437105e+01	-1.289165e+01
5.468509e+01	-1.293953e+01
5.500095e+01	-1.298744e+01
5.531863e+01	-1.303400e+01
5.563815e+01	-1.308217e+01
5.595951e+01	-1.312978e+01
5.628273e+01	-1.317780e+01
5.660782e+01	-1.322542e+01
5.693479e+01	-1.327202e+01
5.726364e+01	-1.332051e+01
5.759439e+01	-1.336797e+01
5.792705e+01	-1.341679e+01
5.826164e+01	-1.346269e+01
5.859815e+01	-1.351176e+01
5.893662e+01	-1.355912e+01
5.927703e+01	-1.360658e+01
5.961941e+01	-1.365399e+01
5.996377e+01	-1.370264e+01
6.031012e+01	-1.375104e+01
6.065847e+01	-1.379823e+01
6.100883e+01	-1.384654e+01
6.136121e+01	-1.389431e+01
6.171563e+01	-1.394256e+01
6.207210e+01	-1.399011e+01
6.243063e+01	-1.403881e+01
6.279122e+01	-1.408697e+01
6.315390e+01	-1.413449e+01
6.351868e+01	-1.418229e+01
6.388556e+01	-1.423064e+01
6.425456e+01	-1.427948e+01
6.462569e+01	-1.432800e+01
6.499897e+01	-1.437606e+01
6.537440e+01	-1.442396e+01
6.575200e+01	-1.447247e+01
6.613178e+01	-1.452010e+01
6.651375e+01	-1.456841e+01
6.689793e+01	-1.461592e+01
6.728433e+01	-1.466480e+01
6.767297e+01	-1.471278e+01
6.806384e+01	-1.476162e+01
6.845698e+01	-1.481024e+01
6.885238e+01	-1.485799e+01
6.925007e+01	-1.490620e+01
6.965005e+01	-1.495580e+01
7.005235e+01	-1.500406e+01
7.045697e+01	-1.505120e+01
7.086393e+01	-1.510025e+01
7.127323e+01	-1.514900e+01
7.168490e+01	-1.519777e+01
7.209895e+01	-1.524656e+01
7.251539e+01	-1.529466e+01
7.293424e+01	-1.534324e+01
7.335551e+01	-1.539185e+01
7.377920e+01	-1.544084e+01
7.420535e+01	-1.548911e+01
7.463396e+01	-1.553739e+01
7.506504e+01	-1.558540e+01
7.549861e+01	-1.563614e+01
7.593469e+01	-1.568337e+01
7.637328e+01	-1.573253e+01
7.681441e+01	-1.578104e+01
7.725809e+01	-1.582951e+01
7.770433e+01	-1.587877e+01
7.815315e+01	-1.592784e+01
7.860456e+01	-1.597647e+01
7.905857e+01	-1.602515e+01
7.951521e+01	-1.607412e+01
7.997449e+01	-1.612181e+01
8.043642e+01	-1.617142e+01
8.090102e+01	-1.622105e+01
8.136830e+01	-1.626888e+01
8.183828e+01	-1.631825e+01
8.231097e+01	-1.636592e+01
8.278640e+01	-1.641605e+01
8.326457e+01	-1.646289e+01
8.374550e+01	-1.651406e+01
8.422921e+01	-1.656245e+01
8.471572e+01	-1.660942e+01
8.520503e+01	-1.666016e+01
8.569717e+01	-1.670904e+01
8.619215e+01	-1.675780e+01
8.669000e+01	-1.680753e+01
8.719071e+01	-1.685616e+01
8.769432e+01	-1.690429e+01
8.820084e+01	-1.695387e+01
8.871029e+01	-1.700392e+01
8.922267e+01	-1.705199e+01
8.973802e+01	-1.710095e+01
9.025634e+01	-1.715017e+01
9.077766e+01	-1.719857e+01
9.130199e+01	-1.724736e+01
9.182935e+01	-1.729591e+01
9.235975e+01	-1.734617e+01
9.289321e+01	-1.739533e+01
9.342976e+01	-1.744442e+01
9.396941e+01	-1.749452e+01
9.451217e+01	-1.754289e+01
9.505807e+01	-1.759236e+01
9.560712e+01	-1.764099e+01
9.615934e+01	-1.768978e+01
9.671476e+01	-1.774013e+01
9.727338e+01	-1.778871e+01
9.783522e+01	-1.783781e+01
9.840032e+01	-1.788828e+01
9.896867e+01	-1.793662e+01
9.954031e+01	-1.798569e+01
1.001153e+02	-1.803387e+01
1.006935e+02	-1.808394e+01
1.012751e+02	-1.813286e+01
1.018601e+02	-1.818229e+01
1.024484e+02	-1.823260e+01
1.030402e+02	-1.828268e+01
1.036353e+02	-1.832919e+01
1.042339e+02	-1.837926e+01
1.048360e+02	-1.843028e+01
1.054415e+02	-1.847832e+01
1.060505e+02	-1.852748e+01
1.066631e+02	-1.857559e+01
1.072791e+02	-1.862635e+01
1.078988e+02	-1.867489e+01
1.085220e+02	-1.872618e+01
1.091488e+02	-1.877441e+01
1.097793e+02	-1.882362e+01
1.104133e+02	-1.887316e+01
1.110511e+02	-1.892322e+01
1.116925e+02	-1.897218e+01
1.123376e+02	-1.902262e+01
1.129865e+02	-1.907087e+01
1.136391e+02	-1.912044e+01
1.142955e+02	-1.916922e+01
1.149556e+02	-1.921766e+01
1.156196e+02	-1.926818e+01
1.162874e+02	-1.931787e+01
1.169591e+02	-1.936617e+01
1.176347e+02	-1.941662e+01
1.183141e+02	-1.946720e+01
1.189975e+02	-1.951612e+01
1.196848e+02	-1.956552e+01
1.203761e+02	-1.961535e+01
1.210714e+02	-1.966363e+01
1.217707e+02	-1.971483e+01
1.224740e+02	-1.976444e+01
1.231814e+02	-1.981268e+01
1.238929e+02	-1.986224e+01
1.246085e+02	-1.991155e+01
1.253283e+02	-1.996131e+01
1.260522e+02	-2.001182e+01
1.267802e+02	-2.005901e+01
1.275125e+02	-2.010882e+01
1.282490e+02	-2.015917e+01
1.289898e+02	-2.020989e+01
1.297348e+02	-2.026124e+01
1.304842e+02	-2.030809e+01
1.312378e+02	-2.035852e+01
1.319959e+02	-2.040602e+01
1.327583e+02	-2.045576e+01
1.335251e+02	-2.050682e+01
1.342963e+02	-2.055653e+01
1.350720e+02	-2.060626e+01
1.358522e+02	-2.065699e+01
1.366368e+02	-2.070463e+01
1.374260e+02	-2.075423e+01
1.382198e+02	-2.080447e+01
1.390182e+02	-2.085305e+01
1.398211e+02	-2.090347e+01
1.406287e+02	-2.095476e+01
1.414410e+02	-2.100447e+01
1.422579e+02	-2.105270e+01
1.430796e+02	-2.110105e+01
1.439060e+02	-2.115108e+01
1.447372e+02	-2.120152e+01
1.455732e+02	-2.125342e+01
1.464141e+02	-2.130156e+01
1.472597e+02	-2.134935e+01
1.481103e+02	-2.140326e+01
1.489658e+02	-2.145017e+01
1.498262e+02	-2.149965e+01
1.506916e+02	-2.155118e+01
1.515620e+02	-2.159786e+01
1.524374e+02	-2.164743e+01
1.533179e+02	-2.169859e+01
1.542034e+02	-2.174810e+01
1.550941e+02	-2.179689e+01
1.559899e+02	-2.184683e+01
1.568909e+02	-2.189791e+01
1.577971e+02	-2.194698e+01
1.587085e+02	-2.199758e+01
1.596252e+02	-2.204362e+01
1.605472e+02	-2.209541e+01
1.614745e+02	-2.214732e+01
1.624072e+02	-2.219520e+01
1.633453e+02	-2.224500e+01
1.642887e+02	-2.229478e+01
1.652377e+02	-2.234472e+01
1.661921e+02	-2.239286e+01
1.671520e+02	-2.244288e+01
1.681175e+02	-2.249477e+01
1.690885e+02	-2.254440e+01
1.700651e+02	-2.259322e+01
1.710474e+02	-2.264480e+01
1.720354e+02	-2.269513e+01
1.730291e+02	-2.274232e+01
1.740285e+02	-2.279253e+01
1.750337e+02	-2.284380e+01
1.760446e+02	-2.289201e+01
1.770615e+02	-2.294115e+01
1.780842e+02	-2.299188e+01
1.791128e+02	-2.304205e+01
1.801473e+02	-2.309237e+01
1.811878e+02	-2.314128e+01
1.822344e+02	-2.318899e+01
1.832870e+02	-2.324185e+01
1.843456e+02	-2.328929e+01
1.854104e+02	-2.333957e+01
1.864813e+02	-2.339030e+01
1.875584e+02	-2.344097e+01
1.886418e+02	-2.349001e+01
1.897313e+02	-2.353992e+01
1.908272e+02	-2.359000e+01
1.919294e+02	-2.363841e+01
1.930380e+02	-2.368786e+01
1.941530e+02	-2.374045e+01
1.952744e+02	-2.378823e+01
1.964023e+02	-2.383930e+01
1.975367e+02	-2.388709e+01
1.986777e+02	-2.393824e+01
1.998252e+02	-2.398845e+01
2.009794e+02	-2.403969e+01
2.021403e+02	-2.408849e+01
2.033078e+02	-2.414119e+01
2.044821e+02	-2.418740e+01
2.056632e+02	-2.423571e+01
2.068511e+02	-2.428824e+01
2.080459e+02	-2.433735e+01
2.092475e+02	-2.438817e+01
2.104561e+02	-2.443599e+01
2.116717e+02	-2.448574e+01
2.128943e+02	-2.453878e+01
2.141240e+02	-2.458517e+01
2.153608e+02	-2.463875e+01
2.166047e+02	-2.468488e+01
2.178558e+02	-2.473408e+01
2.191141e+02	-2.478719e+01
2.203797e+02	-2.483732e+01
2.216526e+02	-2.488695e+01
2.229329e+02	-2.493652e+01
2.242205e+02	-2.498693e+01
2.255156e+02	-2.503794e+01
2.268182e+02	-2.508758e+01
2.281283e+02	-2.513466e+01
2.294459e+02	-2.518393e+01
2.307712e+02	-2.523565e+01
2.321041e+02	-2.528711e+01
2.334447e+02	-2.533266e+01
2.347931e+02	-2.538509e+01
2.361493e+02	-2.543826e+01
2.375133e+02	-2.548816e+01
2.388851e+02	-2.553656e+01
2.402649e+02	-2.558266e+01
2.416527e+02	-2.563558e+01
2.430484e+02	-2.568455e+01
2.444523e+02	-2.573607e+01
2.458642e+02	-2.578297e+01
2.472843e+02	-2.583437e+01
2.487126e+02	-2.588471e+01
2.501492e+02	-2.593638e+01
2.515940e+02	-2.598615e+01
2.530472e+02	-2.603093e+01
2.545088e+02	-2.608411e+01
2.559789e+02	-2.613370e+01
2.574574e+02	-2.618635e+01
2.589444e+02	-2.623559e+01
2.604401e+02	-2.628132e+01
2.619444e+02	-2.633623e+01
2.634574e+02	-2.638471e+01
2.649791e+02	-2.643268e+01
2.665096e+02	-2.648214e+01
2.680489e+02	-2.653523e+01
2.695972e+02	-2.658133e+01
2.711544e+02	-2.663809e+01
2.727205e+02	-2.668151e+01
2.742958e+02	-2.673195e+01
2.758801e+02	-2.678252e+01
2.774736e+02	-2.683596e+01
2.790762e+02	-2.688305e+01
2.806882e+02	-2.693336e+01
2.823094e+02	-2.698247e+01
2.839400e+02	-2.703668e+01
2.855800e+02	-2.708185e+01
2.872295e+02	-2.713241e+01
2.888886e+02	-2.718368e+01
2.905572e+02	-2.723517e+01
2.922354e+02	-2.728223e+01
2.939234e+02	-2.733484e+01
2.956211e+02	-2.738409e+01
2.973286e+02	-2.743173e+01
2.990459e+02	-2.748440e+01
3.007732e+02	-2.753488e+01
3.025104e+02	-2.758770e+01
3.042577e+02	-2.763528e+01
3.060151e+02	-2.768357e+01
3.077826e+02	-2.773302e+01
3.095604e+02	-2.778159e+01
3.113484e+02	-2.783703e+01
3.131467e+02	-2.788190e+01
3.149554e+02	-2.793555e+01
3.167746e+02	-2.798297e+01
3.186043e+02	-2.803220e+01
3.204445e+02	-2.808144e+01
3.222954e+02	-2.813622e+01
3.241570e+02	-2.818414e+01
3.260293e+02	-2.823641e+01
3.279124e+02	-2.828282e+01
3.298064e+02	-2.833002e+01
3.317114e+02	-2.837933e+01
3.336273e+02	-2.843644e+01
3.355544e+02	-2.848647e+01
3.374925e+02	-2.853795e+01
3.394418e+02	-2.858590e+01
3.414024e+02	-2.863647e+01
3.433744e+02	-2.868594e+01
3.453577e+02	-2.873644e+01
3.473525e+02	-2.878268e+01
3.493588e+02	-2.883511e+01
3.513766e+02	-2.888600e+01
3.534062e+02	-2.893627e+01
3.554474e+02	-2.898464e+01
3.575005e+02	-2.903953e+01
3.595654e+02	-2.908439e+01
3.616422e+02	-2.913653e+01
3.637311e+02	-2.918995e+01
3.658320e+02	-2.923263e+01
3.679450e+02	-2.928476e+01
3.700702e+02	-2.933520e+01
3.722077e+02	-2.938490e+01
3.743576e+02	-2.944008e+01
3.765199e+02	-2.948872e+01
3.786946e+02	-2.953635e+01
3.808820e+02	-2.958359e+01
3.830819e+02	-2.963329e+01
3.852946e+02	-2.968786e+01
3.875200e+02	-2.973708e+01
3.897583e+02	-2.978599e+01
3.920096e+02	-2.983799e+01
3.942738e+02	-2.989012e+01
3.965511e+02	-2.993817e+01
3.988416e+02	-2.998463e+01
4.011452e+02	-3.003219e+01
4.034622e+02	-3.008218e+01
4.057926e+02	-3.013746e+01
4.081365e+02	-3.018470e+01
4.104938e+02	-3.023855e+01
4.128648e+02	-3.029135e+01
4.152495e+02	-3.034130e+01
4.176480e+02	-3.039241e+01
4.200603e+02	-3.043829e+01
4.224866e+02	-3.048472e+01
4.249268e+02	-3.053952e+01
4.273812e+02	-3.059299e+01
4.298497e+02	-3.064150e+01
4.323325e+02	-3.068808e+01
4.348297e+02	-3.073895e+01
4.373412e+02	-3.079148e+01
4.398673e+02	-3.083896e+01
4.424079e+02	-3.088642e+01
4.449633e+02	-3.094012e+01
4.475334e+02	-3.098763e+01
4.501183e+02	-3.104045e+01
4.527182e+02	-3.109151e+01
4.553330e+02	-3.113427e+01
4.579630e+02	-3.119180e+01
4.606082e+02	-3.124499e+01
4.632687e+02	-3.129007e+01
4.659445e+02	-3.134275e+01
4.686358e+02	-3.138953e+01
4.713426e+02	-3.144763e+01
4.740650e+02	-3.149812e+01
4.768032e+02	-3.154522e+01
4.795572e+02	-3.159108e+01
4.823271e+02	-3.164263e+01
4.851130e+02	-3.168764e+01
4.879150e+02	-3.173796e+01
4.907332e+02	-3.178315e+01
4.935676e+02	-3.183947e+01
4.964185e+02	-3.189794e+01
4.992858e+02	-3.194020e+01
5.021696e+02	-3.198943e+01
5.050701e+02	-3.204193e+01
5.079874e+02	-3.209459e+01
5.109215e+02	-3.214161e+01
5.138726e+02	-3.218935e+01
5.168407e+02	-3.224269e+01
5.198259e+02	-3.229198e+01
5.228284e+02	-3.234806e+01
5.258482e+02	-3.239719e+01
5.288855e+02	-3.244203e+01
5.319403e+02	-3.250250e+01
5.350128e+02	-3.254117e+01
5.381030e+02	-3.259978e+01
5.412111e+02	-3.264619e+01
5.443371e+02	-3.270036e+01
5.474812e+02	-3.274576e+01
5.506434e+02	-3.279001e+01
5.538239e+02	-3.284170e+01
5.570228e+02	-3.289334e+01
5.602401e+02	-3.294918e+01
5.634760e+02	-3.299484e+01
5.667306e+02	-3.304384e+01
5.700040e+02	-3.309472e+01
5.732964e+02	-3.315084e+01
5.766077e+02	-3.320061e+01
5.799382e+02	-3.324904e+01
5.832879e+02	-3.329570e+01
5.866569e+02	-3.334801e+01
5.900454e+02	-3.339735e+01
5.934535e+02	-3.345107e+01
5.968813e+02	-3.350241e+01
6.003288e+02	-3.355121e+01
6.037963e+02	-3.359613e+01
6.072838e+02	-3.365238e+01
6.107914e+02	-3.371007e+01
6.143194e+02	-3.375345e+01
6.178676e+02	-3.380584e+01
6.214364e+02	-3.385312e+01
6.250258e+02	-3.389895e+01
6.286359e+02	-3.396657e+01
6.322669e+02	-3.400488e+01
6.359189e+02	-3.404641e+01
6.395919e+02	-3.409895e+01
6.432862e+02	-3.415300e+01
6.470017e+02	-3.420191e+01
6.507388e+02	-3.425237e+01
6.544974e+02	-3.430980e+01
6.582778e+02	-3.435412e+01
6.620800e+02	-3.440560e+01
6.659041e+02	-3.445741e+01
6.697504e+02	-3.450753e+01
6.736188e+02	-3.456052e+01
6.775096e+02	-3.460613e+01
6.814229e+02	-3.466016e+01
6.853587e+02	-3.470676e+01
6.893173e+02	-3.477055e+01
6.932988e+02	-3.481635e+01
6.973033e+02	-3.485536e+01
7.013309e+02	-3.490228e+01
