Frequency(Hz)	Magnitude(dB)
1.000000e+01	-2.104633e+00
1.005776e+01	-2.123814e+00
1.011585e+01	-2.143110e+00
1.017428e+01	-2.162731e+00
1.023305e+01	-2.182611e+00
1.029215e+01	-2.202463e+00
1.035160e+01	-2.222344e+00
1.041139e+01	-2.242366e+00
1.047153e+01	-2.262618e+00
1.053201e+01	-2.282978e+00
1.059284e+01	-2.303630e+00
1.065403e+01	-2.324338e+00
1.071556e+01	-2.345016e+00
1.077746e+01	-2.365936e+00
1.083971e+01	-2.386961e+00
1.090232e+01	-2.408166e+00
1.096529e+01	-2.429754e+00
1.102862e+01	-2.451357e+00
1.109232e+01	-2.472901e+00
1.115639e+01	-2.494624e+00
1.122083e+01	-2.516673e+00
1.128564e+01	-2.538581e+00
1.135083e+01	-2.560802e+00
1.141639e+01	-2.583358e+00
1.148233e+01	-2.605541e+00
1.154865e+01	-2.628346e+00
1.161536e+01	-2.651093e+00
1.168245e+01	-2.673820e+00
1.174992e+01	-2.697050e+00
1.181779e+01	-2.720161e+00
1.188605e+01	-2.743824e+00
1.195470e+01	-2.766884e+00
1.202375e+01	-2.790757e+00
1.209320e+01	-2.814389e+00
1.216305e+01	-2.838466e+00
1.223330e+01	-2.862485e+00
1.230396e+01	-2.886778e+00
1.237503e+01	-2.911004e+00
1.244651e+01	-2.935643e+00
1.251840e+01	-2.960295e+00
1.259070e+01	-2.985029e+00
1.266343e+01	-3.009977e+00
1.273657e+01	-3.035061e+00
1.281014e+01	-3.060243e+00
1.288413e+01	-3.085725e+00
1.295855e+01	-3.111345e+00
1.303339e+01	-3.136993e+00
1.310867e+01	-3.162561e+00
1.318439e+01	-3.188813e+00
1.326054e+01	-3.214843e+00
1.333713e+01	-3.241023e+00
1.341417e+01	-3.267362e+00
1.349165e+01	-3.293646e+00
1.356958e+01	-3.320819e+00
1.364795e+01	-3.347391e+00
1.372678e+01	-3.374378e+00
1.380607e+01	-3.401265e+00
1.388581e+01	-3.428655e+00
1.396602e+01	-3.456121e+00
1.404668e+01	-3.483561e+00
1.412782e+01	-3.511101e+00
1.420942e+01	-3.538979e+00
1.429149e+01	-3.566945e+00
1.437404e+01	-3.594966e+00
1.445706e+01	-3.623430e+00
1.454057e+01	-3.651804e+00
1.462455e+01	-3.680162e+00
1.470902e+01	-3.708995e+00
1.479398e+01	-3.737717e+00
1.487943e+01	-3.766419e+00
1.496537e+01	-3.795511e+00
1.505181e+01	-3.824853e+00
1.513875e+01	-3.854144e+00
1.522619e+01	-3.883589e+00
1.531414e+01	-3.913227e+00
1.540259e+01	-3.943249e+00
1.549156e+01	-3.973004e+00
1.558103e+01	-4.003131e+00
1.567103e+01	-4.033410e+00
1.576155e+01	-4.063545e+00
1.585258e+01	-4.094326e+00
1.594415e+01	-4.124738e+00
1.603624e+01	-4.155498e+00
1.612886e+01	-4.186437e+00
1.622202e+01	-4.217389e+00
1.631572e+01	-4.248600e+00
1.640996e+01	-4.279975e+00
1.650474e+01	-4.311248e+00
1.660008e+01	-4.342860e+00
1.669596e+01	-4.374492e+00
1.679239e+01	-4.406299e+00
1.688938e+01	-4.438394e+00
1.698694e+01	-4.470452e+00
1.708505e+01	-4.502402e+00
1.718373e+01	-4.534831e+00
1.728299e+01	-4.567424e+00
1.738281e+01	-4.599885e+00
1.748322e+01	-4.632712e+00
1.758420e+01	-4.665709e+00
1.768576e+01	-4.698204e+00
1.778792e+01	-4.731531e+00
1.789066e+01	-4.764975e+00
1.799399e+01	-4.798394e+00
1.809793e+01	-4.831771e+00
1.820246e+01	-4.865746e+00
1.830760e+01	-4.899257e+00
1.841334e+01	-4.933338e+00
1.851969e+01	-4.967197e+00
1.862666e+01	-5.001602e+00
1.873425e+01	-5.035661e+00
1.884246e+01	-5.070193e+00
1.895129e+01	-5.105009e+00
1.906075e+01	-5.139087e+00
1.917085e+01	-5.174068e+00
1.928158e+01	-5.209011e+00
1.939295e+01	-5.244000e+00
1.950496e+01	-5.278927e+00
1.961762e+01	-5.314399e+00
1.973093e+01	-5.349690e+00
1.984490e+01	-5.385502e+00
1.995952e+01	-5.420782e+00
2.007480e+01	-5.456676e+00
2.019076e+01	-5.492023e+00
2.030738e+01	-5.528318e+00
2.042467e+01	-5.564264e+00
2.054264e+01	-5.600476e+00
2.066130e+01	-5.636888e+00
2.078064e+01	-5.673099e+00
2.090066e+01	-5.709858e+00
2.102139e+01	-5.746286e+00
2.114280e+01	-5.783172e+00
2.126492e+01	-5.820191e+00
2.138775e+01	-5.857365e+00
2.151128e+01	-5.894136e+00
2.163553e+01	-5.931430e+00
2.176050e+01	-5.968707e+00
2.188619e+01	-6.005842e+00
2.201260e+01	-6.043515e+00
2.213974e+01	-6.081491e+00
2.226762e+01	-6.118970e+00
2.239624e+01	-6.156781e+00
2.252560e+01	-6.194623e+00
2.265571e+01	-6.233142e+00
2.278656e+01	-6.270963e+00
2.291818e+01	-6.309632e+00
2.305055e+01	-6.347435e+00
2.318369e+01	-6.386053e+00
2.331760e+01	-6.424608e+00
2.345228e+01	-6.463636e+00
2.358774e+01	-6.502234e+00
2.372398e+01	-6.540765e+00
2.386101e+01	-6.580195e+00
2.399883e+01	-6.619200e+00
2.413745e+01	-6.658162e+00
2.427686e+01	-6.697755e+00
2.441709e+01	-6.737175e+00
2.455812e+01	-6.776484e+00
2.469997e+01	-6.816075e+00
2.484263e+01	-6.855703e+00
2.498612e+01	-6.895284e+00
2.513044e+01	-6.935724e+00
2.527559e+01	-6.975288e+00
2.542158e+01	-7.014900e+00
2.556842e+01	-7.055374e+00
2.571610e+01	-7.095405e+00
2.586463e+01	-7.135929e+00
2.601403e+01	-7.176386e+00
2.616428e+01	-7.216964e+00
2.631541e+01	-7.257493e+00
2.646740e+01	-7.298216e+00
2.662028e+01	-7.338828e+00
2.677404e+01	-7.379447e+00
2.692868e+01	-7.420283e+00
2.708422e+01	-7.461221e+00
2.724066e+01	-7.502748e+00
2.739800e+01	-7.543956e+00
2.755625e+01	-7.584996e+00
2.771541e+01	-7.626488e+00
2.787550e+01	-7.667814e+00
2.803650e+01	-7.709636e+00
2.819844e+01	-7.751437e+00
2.836131e+01	-7.792356e+00
2.852513e+01	-7.834327e+00
2.868989e+01	-7.876322e+00
2.885560e+01	-7.918097e+00
2.902227e+01	-7.959914e+00
2.918990e+01	-8.002094e+00
2.935850e+01	-8.044136e+00
2.952807e+01	-8.086772e+00
2.969863e+01	-8.128717e+00
2.987016e+01	-8.171098e+00
3.004269e+01	-8.213388e+00
3.021622e+01	-8.255937e+00
3.039075e+01	-8.298791e+00
3.056628e+01	-8.341028e+00
3.074283e+01	-8.384074e+00
3.092040e+01	-8.426848e+00
3.109900e+01	-8.469634e+00
3.127862e+01	-8.512841e+00
3.145929e+01	-8.555841e+00
3.164099e+01	-8.599050e+00
3.182375e+01	-8.641723e+00
3.200756e+01	-8.685504e+00
3.219244e+01	-8.728763e+00
3.237838e+01	-8.771855e+00
3.256540e+01	-8.815394e+00
3.275349e+01	-8.858687e+00
3.294268e+01	-8.902750e+00
3.313295e+01	-8.945877e+00
3.332433e+01	-8.989528e+00
3.351681e+01	-9.033593e+00
3.371040e+01	-9.076960e+00
3.390511e+01	-9.120835e+00
3.410094e+01	-9.164345e+00
3.429791e+01	-9.209045e+00
3.449601e+01	-9.252885e+00
3.469526e+01	-9.296958e+00
3.489566e+01	-9.341147e+00
3.509721e+01	-9.385810e+00
3.529993e+01	-9.429747e+00
3.550382e+01	-9.474319e+00
3.570889e+01	-9.518867e+00
3.591515e+01	-9.563011e+00
3.612259e+01	-9.607729e+00
3.633123e+01	-9.652171e+00
3.654108e+01	-9.696730e+00
3.675214e+01	-9.741600e+00
3.696442e+01	-9.786278e+00
3.717792e+01	-9.830777e+00
3.739266e+01	-9.875642e+00
3.760864e+01	-9.921002e+00
3.782587e+01	-9.965895e+00
3.804435e+01	-1.001090e+01
3.826409e+01	-1.005542e+01
3.848510e+01	-1.010094e+01
3.870739e+01	-1.014594e+01
3.893096e+01	-1.019132e+01
3.915583e+01	-1.023686e+01
3.938199e+01	-1.028159e+01
3.960946e+01	-1.032672e+01
3.983824e+01	-1.037271e+01
4.006834e+01	-1.041844e+01
4.029978e+01	-1.046348e+01
4.053255e+01	-1.050952e+01
4.076666e+01	-1.055504e+01
4.100213e+01	-1.060046e+01
4.123896e+01	-1.064599e+01
4.147715e+01	-1.069205e+01
4.171672e+01	-1.073784e+01
4.195767e+01	-1.078335e+01
4.220002e+01	-1.082888e+01
4.244377e+01	-1.087475e+01
4.268892e+01	-1.092122e+01
4.293549e+01	-1.096654e+01
4.318348e+01	-1.101320e+01
4.343291e+01	-1.105909e+01
4.368377e+01	-1.110489e+01
4.393609e+01	-1.115114e+01
4.418986e+01	-1.119807e+01
4.444510e+01	-1.124347e+01
4.470182e+01	-1.129023e+01
4.496001e+01	-1.133679e+01
4.521970e+01	-1.138328e+01
4.548089e+01	-1.142956e+01
4.574358e+01	-1.147559e+01
4.600779e+01	-1.152245e+01
4.627353e+01	-1.156984e+01
4.654081e+01	-1.161563e+01
4.680963e+01	-1.166213e+01
4.708000e+01	-1.170876e+01
4.735193e+01	-1.175579e+01
4.762543e+01	-1.180191e+01
4.790051e+01	-1.184926e+01
4.817719e+01	-1.189485e+01
4.845545e+01	-1.194253e+01
4.873533e+01	-1.198924e+01
4.901682e+01	-1.203648e+01
4.929994e+01	-1.208305e+01
4.958470e+01	-1.213047e+01
4.987110e+01	-1.217686e+01
5.015915e+01	-1.222411e+01
5.044887e+01	-1.227151e+01
5.074026e+01	-1.231821e+01
5.103333e+01	-1.236544e+01
5.132810e+01	-1.241263e+01
5.162457e+01	-1.245945e+01
5.192275e+01	-1.250591e+01
5.222265e+01	-1.255401e+01
5.252429e+01	-1.260098e+01
5.282767e+01	-1.264929e+01
5.313280e+01	-1.269631e+01
5.343969e+01	-1.274245e+01
5.374836e+01	-1.279061e+01
5.405880e+01	-1.283788e+01
5.437105e+01	-1.288552e+01
5.468509e+01	-1.293315e+01
5.500095e+01	-1.297994e+01
5.531863e+01	-1.302828e+01
5.563815e+01	-1.307568e+01
5.595951e+01	-1.312318e+01
5.628273e+01	-1.317104e+01
5.660782e+01	-1.321835e+01
5.693479e+01	-1.326571e+01
5.726364e+01	-1.331311e+01
5.759439e+01	-1.336137e+01
5.792705e+01	-1.340913e+01
5.826164e+01	-1.345671e+01
5.859815e+01	-1.350444e+01
5.893662e+01	-1.355218e+01
5.927703e+01	-1.360053e+01
5.961941e+01	-1.364784e+01
5.996377e+01	-1.369590e+01
6.031012e+01	-1.374489e+01
6.065847e+01	-1.379168e+01
6.100883e+01	-1.383883e+01
6.136121e+01	-1.388755e+01
6.171563e+01	-1.393557e+01
6.207210e+01	-1.398373e+01
6.243063e+01	-1.403143e+01
6.279122e+01	-1.408016e+01
6.315390e+01	-1.412761e+01
6.351868e+01	-1.417600e+01
6.388556e+01	-1.422456e+01
6.425456e+01	-1.427108e+01
6.462569e+01	-1.432041e+01
6.499897e+01	-1.436916e+01
6.537440e+01	-1.441694e+01
6.575200e+01	-1.446533e+01
6.613178e+01	-1.451366e+01
6.651375e+01	-1.456197e+01
6.689793e+01	-1.460940e+01
6.728433e+01	-1.465776e+01
6.767297e+01	-1.470640e+01
6.806384e+01	-1.475498e+01
6.845698e+01	-1.480270e+01
6.885238e+01	-1.485188e+01
6.925007e+01	-1.490003e+01
6.965005e+01	-1.494811e+01
7.005235e+01	-1.499695e+01
7.045697e+01	-1.504540e+01
7.086393e+01	-1.509348e+01
7.127323e+01	-1.514192e+01
7.168490e+01	-1.519105e+01
7.209895e+01	-1.523965e+01
7.251539e+01	-1.528721e+01
7.293424e+01	-1.533671e+01
7.335551e+01	-1.538521e+01
7.377920e+01	-1.543409e+01
7.420535e+01	-1.548193e+01
7.463396e+01	-1.553230e+01
7.506504e+01	-1.558039e+01
7.549861e+01	-1.562894e+01
7.593469e+01	-1.567665e+01
7.637328e+01	-1.572552e+01
7.681441e+01	-1.577395e+01
7.725809e+01	-1.582227e+01
7.770433e+01	-1.587108e+01
7.815315e+01	-1.592141e+01
7.860456e+01	-1.596868e+01
7.905857e+01	-1.601789e+01
7.951521e+01	-1.606625e+01
7.997449e+01	-1.611604e+01
8.043642e+01	-1.616350e+01
8.090102e+01	-1.621346e+01
8.136830e+01	-1.626168e+01
8.183828e+01	-1.631038e+01
8.231097e+01	-1.635926e+01
8.278640e+01	-1.640843e+01
8.326457e+01	-1.645834e+01
8.374550e+01	-1.650602e+01
8.422921e+01	-1.655418e+01
8.471572e+01	-1.660412e+01
8.520503e+01	-1.665338e+01
8.569717e+01	-1.670190e+01
8.619215e+01	-1.675046e+01
8.669000e+01	-1.680044e+01
8.719071e+01	-1.684906e+01
8.769432e+01	-1.689819e+01
8.820084e+01	-1.694798e+01
8.871029e+01	-1.699584e+01
8.922267e+01	-1.704540e+01
8.973802e+01	-1.709363e+01
9.025634e+01	-1.714486e+01
9.077766e+01	-1.719178e+01
9.130199e+01	-1.724187e+01
9.182935e+01	-1.728980e+01
9.235975e+01	-1.733850e+01
9.289321e+01	-1.738867e+01
9.342976e+01	-1.743647e+01
9.396941e+01	-1.748782e+01
9.451217e+01	-1.753637e+01
9.505807e+01	-1.758418e+01
9.560712e+01	-1.763464e+01
9.615934e+01	-1.768310e+01
9.671476e+01	-1.773382e+01
9.727338e+01	-1.778153e+01
9.783522e+01	-1.783089e+01
9.840032e+01	-1.787947e+01
9.896867e+01	-1.792985e+01
9.954031e+01	-1.797947e+01
1.001153e+02	-1.802807e+01
1.006935e+02	-1.807736e+01
1.012751e+02	-1.812718e+01
1.018601e+02	-1.817633e+01
1.024484e+02	-1.822403e+01
1.030402e+02	-1.827318e+01
1.036353e+02	-1.832255e+01
1.042339e+02	-1.837337e+01
1.048360e+02	-1.842226e+01
1.054415e+02	-1.847252e+01
1.060505e+02	-1.852115e+01
1.066631e+02	-1.857106e+01
1.072791e+02	-1.861904e+01
1.078988e+02	-1.866887e+01
1.085220e+02	-1.871969e+01
1.091488e+02	-1.876761e+01
1.097793e+02	-1.881667e+01
1.104133e+02	-1.886751e+01
1.110511e+02	-1.891395e+01
1.116925e+02	-1.896684e+01
1.123376e+02	-1.901493e+01
1.129865e+02	-1.906424e+01
1.136391e+02	-1.911344e+01
1.142955e+02	-1.916363e+01
1.149556e+02	-1.921168e+01
1.156196e+02	-1.926129e+01
1.162874e+02	-1.931037e+01
1.169591e+02	-1.936195e+01
1.176347e+02	-1.941063e+01
1.183141e+02	-1.946019e+01
1.189975e+02	-1.950800e+01
1.196848e+02	-1.955859e+01
1.203761e+02	-1.960848e+01
1.210714e+02	-1.965911e+01
1.217707e+02	-1.970761e+01
1.224740e+02	-1.975619e+01
1.231814e+02	-1.980712e+01
1.238929e+02	-1.985520e+01
1.246085e+02	-1.990504e+01
1.253283e+02	-1.995395e+01
1.260522e+02	-2.000576e+01
1.267802e+02	-2.005395e+01
1.275125e+02	-2.010324e+01
1.282490e+02	-2.015171e+01
1.289898e+02	-2.020200e+01
1.297348e+02	-2.025116e+01
1.304842e+02	-2.030359e+01
1.312378e+02	-2.035036e+01
1.319959e+02	-2.039980e+01
1.327583e+02	-2.045019e+01
1.335251e+02	-2.050082e+01
1.342963e+02	-2.055033e+01
1.350720e+02	-2.059800e+01
1.358522e+02	-2.064948e+01
1.366368e+02	-2.069691e+01
1.374260e+02	-2.074851e+01
1.382198e+02	-2.079864e+01
1.390182e+02	-2.084755e+01
1.398211e+02	-2.089652e+01
1.406287e+02	-2.094621e+01
1.414410e+02	-2.099685e+01
1.422579e+02	-2.104530e+01
1.430796e+02	-2.109755e+01
1.439060e+02	-2.114688e+01
1.447372e+02	-2.119410e+01
1.455732e+02	-2.124284e+01
1.464141e+02	-2.129341e+01
1.472597e+02	-2.134468e+01
1.481103e+02	-2.139570e+01
1.489658e+02	-2.144253e+01
1.498262e+02	-2.149280e+01
1.506916e+02	-2.154217e+01
1.515620e+02	-2.159192e+01
1.524374e+02	-2.164173e+01
1.533179e+02	-2.169235e+01
1.542034e+02	-2.173860e+01
1.550941e+02	-2.179113e+01
1.559899e+02	-2.184149e+01
1.568909e+02	-2.189337e+01
1.577971e+02	-2.194051e+01
1.587085e+02	-2.199086e+01
1.596252e+02	-2.203943e+01
1.605472e+02	-2.208914e+01
1.614745e+02	-2.214096e+01
1.624072e+02	-2.218929e+01
1.633453e+02	-2.223933e+01
1.642887e+02	-2.228688e+01
1.652377e+02	-2.233856e+01
1.661921e+02	-2.238682e+01
1.671520e+02	-2.243517e+01
1.681175e+02	-2.248782e+01
1.690885e+02	-2.253660e+01
1.700651e+02	-2.258722e+01
1.710474e+02	-2.263646e+01
1.720354e+02	-2.268478e+01
1.730291e+02	-2.273627e+01
1.740285e+02	-2.278740e+01
1.750337e+02	-2.283677e+01
1.760446e+02	-2.288447e+01
1.770615e+02	-2.293389e+01
1.780842e+02	-2.298609e+01
1.791128e+02	-2.303548e+01
1.801473e+02	-2.308568e+01
1.811878e+02	-2.313477e+01
1.822344e+02	-2.318473e+01
1.832870e+02	-2.323361e+01
1.843456e+02	-2.328424e+01
1.854104e+02	-2.333495e+01
1.864813e+02	-2.338488e+01
1.875584e+02	-2.343499e+01
1.886418e+02	-2.348116e+01
1.897313e+02	-2.353650e+01
1.908272e+02	-2.358404e+01
1.919294e+02	-2.363291e+01
1.930380e+02	-2.368360e+01
1.941530e+02	-2.373316e+01
1.952744e+02	-2.377937e+01
1.964023e+02	-2.383128e+01
1.975367e+02	-2.388248e+01
1.986777e+02	-2.393068e+01
1.998252e+02	-2.398241e+01
2.009794e+02	-2.403136e+01
2.021403e+02	-2.408263e+01
2.033078e+02	-2.413195e+01
2.044821e+02	-2.418077e+01
2.056632e+02	-2.422992e+01
2.068511e+02	-2.428488e+01
2.080459e+02	-2.432902e+01
2.092475e+02	-2.438168e+01
2.104561e+02	-2.443121e+01
2.116717e+02	-2.448021e+01
2.128943e+02	-2.453048e+01
2.141240e+02	-2.457873e+01
2.153608e+02	-2.463005e+01
2.166047e+02	-2.468205e+01
2.178558e+02	-2.472845e+01
2.191141e+02	-2.478036e+01
2.203797e+02	-2.483088e+01
2.216526e+02	-2.488066e+01
2.229329e+02	-2.493216e+01
2.242205e+02	-2.497873e+01
2.255156e+02	-2.503039e+01
2.268182e+02	-2.508029e+01
2.281283e+02	-2.513174e+01
2.294459e+02	-2.517917e+01
2.307712e+02	-2.522811e+01
2.321041e+02	-2.527904e+01
2.334447e+02	-2.532716e+01
2.347931e+02	-2.537803e+01
2.361493e+02	-2.542616e+01
2.375133e+02	-2.547807e+01
2.388851e+02	-2.552748e+01
2.402649e+02	-2.558124e+01
2.416527e+02	-2.562713e+01
2.430484e+02	-2.567769e+01
2.444523e+02	-2.572859e+01
2.458642e+02	-2.577992e+01
2.472843e+02	-2.582891e+01
2.487126e+02	-2.587669e+01
2.501492e+02	-2.592794e+01
2.515940e+02	-2.598187e+01
2.530472e+02	-2.602677e+01
2.545088e+02	-2.608152e+01
2.559789e+02	-2.612785e+01
2.574574e+02	-2.617704e+01
2.589444e+02	-2.622505e+01
2.604401e+02	-2.627823e+01
2.619444e+02	-2.633177e+01
2.634574e+02	-2.637660e+01
2.649791e+02	-2.642495e+01
2.665096e+02	-2.647479e+01
2.680489e+02	-2.652984e+01
2.695972e+02	-2.657791e+01
2.711544e+02	-2.662927e+01
2.727205e+02	-2.667395e+01
2.742958e+02	-2.673061e+01
2.758801e+02	-2.677870e+01
2.774736e+02	-2.682738e+01
2.790762e+02	-2.687442e+01
2.806882e+02	-2.692647e+01
2.823094e+02	-2.697886e+01
2.839400e+02	-2.702626e+01
2.855800e+02	-2.707773e+01
2.872295e+02	-2.712692e+01
2.888886e+02	-2.717651e+01
2.905572e+02	-2.722879e+01
2.922354e+02	-2.727878e+01
2.939234e+02	-2.732566e+01
2.956211e+02	-2.737349e+01
2.973286e+02	-2.742673e+01
2.990459e+02	-2.747709e+01
3.007732e+02	-2.752465e+01
3.025104e+02	-2.757509e+01
3.042577e+02	-2.762637e+01
3.060151e+02	-2.767949e+01
3.077826e+02	-2.772520e+01
3.095604e+02	-2.777579e+01
3.113484e+02	-2.782890e+01
3.131467e+02	-2.787879e+01
3.149554e+02	-2.792576e+01
3.167746e+02	-2.797567e+01
3.186043e+02	-2.802858e+01
3.204445e+02	-2.807889e+01
3.222954e+02	-2.812624e+01
3.241570e+02	-2.818075e+01
3.260293e+02	-2.823120e+01
3.279124e+02	-2.827633e+01
3.298064e+02	-2.832594e+01
3.317114e+02	-2.837559e+01
3.336273e+02	-2.842673e+01
3.355544e+02	-2.847212e+01
3.374925e+02	-2.853062e+01
3.394418e+02	-2.857794e+01
3.414024e+02	-2.862621e+01
3.433744e+02	-2.867953e+01
3.453577e+02	-2.872474e+01
3.473525e+02	-2.877469e+01
3.493588e+02	-2.882868e+01
3.513766e+02	-2.887868e+01
3.534062e+02	-2.892904e+01
3.554474e+02	-2.897861e+01
3.575005e+02	-2.902886e+01
3.595654e+02	-2.907840e+01
3.616422e+02	-2.912607e+01
3.637311e+02	-2.917743e+01
3.658320e+02	-2.923211e+01
3.679450e+02	-2.927788e+01
3.700702e+02	-2.932855e+01
3.722077e+02	-2.937984e+01
3.743576e+02	-2.942758e+01
3.765199e+02	-2.947758e+01
3.786946e+02	-2.952852e+01
3.808820e+02	-2.957574e+01
3.830819e+02	-2.963136e+01
3.852946e+02	-2.967869e+01
3.875200e+02	-2.973184e+01
3.897583e+02	-2.977850e+01
3.920096e+02	-2.982913e+01
3.942738e+02	-2.987985e+01
3.965511e+02	-2.992649e+01
3.988416e+02	-2.998192e+01
4.011452e+02	-3.002990e+01
4.034622e+02	-3.007955e+01
4.057926e+02	-3.013086e+01
4.081365e+02	-3.018365e+01
4.104938e+02	-3.022809e+01
4.128648e+02	-3.027876e+01
4.152495e+02	-3.033175e+01
4.176480e+02	-3.038403e+01
4.200603e+02	-3.043137e+01
4.224866e+02	-3.048119e+01
4.249268e+02	-3.052588e+01
4.273812e+02	-3.057645e+01
4.298497e+02	-3.063011e+01
4.323325e+02	-3.068333e+01
4.348297e+02	-3.073439e+01
4.373412e+02	-3.078081e+01
4.398673e+02	-3.083106e+01
4.424079e+02	-3.088114e+01
4.449633e+02	-3.092920e+01
4.475334e+02	-3.098376e+01
4.501183e+02	-3.103043e+01
4.527182e+02	-3.108209e+01
4.553330e+02	-3.113521e+01
4.579630e+02	-3.118464e+01
4.606082e+02	-3.123570e+01
4.632687e+02	-3.128359e+01
4.659445e+02	-3.133670e+01
4.686358e+02	-3.138059e+01
4.713426e+02	-3.143233e+01
4.740650e+02	-3.148271e+01
4.768032e+02	-3.153627e+01
4.795572e+02	-3.157860e+01
4.823271e+02	-3.163260e+01
4.851130e+02	-3.167733e+01
4.879150e+02	-3.173132e+01
4.907332e+02	-3.179529e+01
4.935676e+02	-3.183838e+01
4.964185e+02	-3.188448e+01
4.992858e+02	-3.193470e+01
5.021696e+02	-3.198092e+01
5.050701e+02	-3.203563e+01
5.079874e+02	-3.208509e+01
5.109215e+02	-3.213499e+01
5.138726e+02	-3.218562e+01
5.168407e+02	-3.223619e+01
5.198259e+02	-3.228731e+01
5.228284e+02	-3.233928e+01
5.258482e+02	-3.238304e+01
5.288855e+02	-3.243913e+01
5.319403e+02	-3.248453e+01
5.350128e+02	-3.253392e+01
5.381030e+02	-3.258999e+01
5.412111e+02	-3.263425e+01
5.443371e+02	-3.268688e+01
5.474812e+02	-3.273918e+01
5.506434e+02	-3.279181e+01
5.538239e+02	-3.283784e+01
5.570228e+02	-3.289338e+01
5.602401e+02	-3.294594e+01
5.634760e+02	-3.299026e+01
5.667306e+02	-3.303988e+01
5.700040e+02	-3.309673e+01
5.732964e+02	-3.313911e+01
5.766077e+02	-3.319129e+01
5.799382e+02	-3.324110e+01
5.832879e+02	-3.329296e+01
5.866569e+02	-3.334098e+01
5.900454e+02	-3.340480e+01
5.934535e+02	-3.344285e+01
5.968813e+02	-3.349112e+01
6.003288e+02	-3.353969e+01
6.037963e+02	-3.359782e+01
6.072838e+02	-3.363683e+01
6.107914e+02	-3.369045e+01
6.143194e+02	-3.374435e+01
6.178676e+02	-3.379669e+01
6.214364e+02	-3.383870e+01
6.250258e+02	-3.390010e+01
6.286359e+02	-3.394491e+01
6.322669e+02	-3.399211e+01
6.359189e+02	-3.405014e+01
6.395919e+02	-3.409823e+01
6.432862e+02	-3.414323e+01
6.470017e+02	-3.420391e+01
6.507388e+02	-3.424380e+01
6.544974e+02	-3.429913e+01
6.582778e+02	-3.436065e+01
6.620800e+02	-3.439799e+01
6.659041e+02	-3.445040e+01
6.697504e+02	-3.450226e+01
6.736188e+02	-3.454953e+01
6.775096e+02	-3.459635e+01
6.814229e+02	-3.465728e+01
6.853587e+02	-3.469324e+01
6.893173e+02	-3.475033e+01
6.932988e+02	-3.479900e+01
6.973033e+02	-3.484496e+01
7.013309e+02	-3.490400e+01
