Frequency(Hz)	Magnitude(dB)
1.000000e+01	-2.230674e+00
1.005776e+01	-2.250756e+00
1.011585e+01	-2.271294e+00
1.017428e+01	-2.291450e+00
1.023305e+01	-2.312160e+00
1.029215e+01	-2.332966e+00
1.035160e+01	-2.353579e+00
1.041139e+01	-2.374683e+00
1.047153e+01	-2.395876e+00
1.053201e+01	-2.417169e+00
1.059284e+01	-2.438661e+00
1.065403e+01	-2.460161e+00
1.071556e+01	-2.481659e+00
1.077746e+01	-2.503599e+00
1.083971e+01	-2.525553e+00
1.090232e+01	-2.547830e+00
1.096529e+01	-2.570188e+00
1.102862e+01	-2.592519e+00
1.109232e+01	-2.614818e+00
1.115639e+01	-2.637551e+00
1.122083e+01	-2.660390e+00
1.128564e+01	-2.683600e+00
1.135083e+01	-2.706693e+00
1.141639e+01	-2.729922e+00
1.148233e+01	-2.753252e+00
1.154865e+01	-2.777036e+00
1.161536e+01	-2.800623e+00
1.168245e+01	-2.824319e+00
1.174992e+01	-2.848372e+00
1.181779e+01	-2.872432e+00
1.188605e+01	-2.896790e+00
1.195470e+01	-2.921244e+00
1.202375e+01	-2.945831e+00
1.209320e+01	-2.970528e+00
1.216305e+01	-2.995247e+00
1.223330e+01	-3.020547e+00
1.230396e+01	-3.045574e+00
1.237503e+01	-3.070804e+00
1.244651e+01	-3.096307e+00
1.251840e+01	-3.121596e+00
1.259070e+01	-3.147783e+00
1.266343e+01	-3.173375e+00
1.273657e+01	-3.199494e+00
1.281014e+01	-3.225465e+00
1.288413e+01	-3.251829e+00
1.295855e+01	-3.278457e+00
1.303339e+01	-3.304873e+00
1.310867e+01	-3.331768e+00
1.318439e+01	-3.358562e+00
1.326054e+01	-3.385582e+00
1.333713e+01	-3.412871e+00
1.341417e+01	-3.439814e+00
1.349165e+01	-3.467362e+00
1.356958e+01	-3.495015e+00
1.364795e+01	-3.522828e+00
1.372678e+01	-3.550582e+00
1.380607e+01	-3.578409e+00
1.388581e+01	-3.606984e+00
1.396602e+01	-3.634971e+00
1.404668e+01	-3.663556e+00
1.412782e+01	-3.691933e+00
1.420942e+01	-3.720872e+00
1.429149e+01	-3.749348e+00
1.437404e+01	-3.778501e+00
1.445706e+01	-3.807580e+00
1.454057e+01	-3.837323e+00
1.462455e+01	-3.866593e+00
1.470902e+01	-3.895984e+00
1.479398e+01	-3.925715e+00
1.487943e+01	-3.955455e+00
1.496537e+01	-3.985682e+00
1.505181e+01	-4.015778e+00
1.513875e+01	-4.045711e+00
1.522619e+01	-4.076100e+00
1.531414e+01	-4.106742e+00
1.540259e+01	-4.137554e+00
1.549156e+01	-4.168182e+00
1.558103e+01	-4.199249e+00
1.567103e+01	-4.230062e+00
1.576155e+01	-4.261352e+00
1.585258e+01	-4.292507e+00
1.594415e+01	-4.324489e+00
1.603624e+01	-4.355866e+00
1.612886e+01	-4.387619e+00
1.622202e+01	-4.419455e+00
1.631572e+01	-4.451314e+00
1.640996e+01	-4.483637e+00
1.650474e+01	-4.516209e+00
1.660008e+01	-4.548633e+00
1.669596e+01	-4.580867e+00
1.679239e+01	-4.613116e+00
1.688938e+01	-4.646145e+00
1.698694e+01	-4.679455e+00
1.708505e+01	-4.712421e+00
1.718373e+01	-4.745362e+00
1.728299e+01	-4.778855e+00
1.738281e+01	-4.812363e+00
1.748322e+01	-4.845826e+00
1.758420e+01	-4.879827e+00
1.768576e+01	-4.913371e+00
1.778792e+01	-4.947549e+00
1.789066e+01	-4.981353e+00
1.799399e+01	-5.015543e+00
1.809793e+01	-5.050255e+00
1.820246e+01	-5.084242e+00
1.830760e+01	-5.119047e+00
1.841334e+01	-5.153799e+00
1.851969e+01	-5.188668e+00
1.862666e+01	-5.223297e+00
1.873425e+01	-5.258309e+00
1.884246e+01	-5.293656e+00
1.895129e+01	-5.328963e+00
1.906075e+01	-5.364464e+00
1.917085e+01	-5.400035e+00
1.928158e+01	-5.435459e+00
1.939295e+01	-5.471312e+00
1.950496e+01	-5.507183e+00
1.961762e+01	-5.543142e+00
1.973093e+01	-5.579221e+00
1.984490e+01	-5.615584e+00
1.995952e+01	-5.651912e+00
2.007480e+01	-5.688322e+00
2.019076e+01	-5.725177e+00
2.030738e+01	-5.761455e+00
2.042467e+01	-5.798533e+00
2.054264e+01	-5.835365e+00
2.066130e+01	-5.872415e+00
2.078064e+01	-5.909712e+00
2.090066e+01	-5.946762e+00
2.102139e+01	-5.984337e+00
2.114280e+01	-6.021671e+00
2.126492e+01	-6.059196e+00
2.138775e+01	-6.097252e+00
2.151128e+01	-6.134814e+00
2.163553e+01	-6.172599e+00
2.176050e+01	-6.210716e+00
2.188619e+01	-6.248651e+00
2.201260e+01	-6.287147e+00
2.213974e+01	-6.325146e+00
2.226762e+01	-6.363454e+00
2.239624e+01	-6.402325e+00
2.252560e+01	-6.441068e+00
2.265571e+01	-6.479491e+00
2.278656e+01	-6.518367e+00
2.291818e+01	-6.557620e+00
2.305055e+01	-6.596418e+00
2.318369e+01	-6.635406e+00
2.331760e+01	-6.674560e+00
2.345228e+01	-6.713893e+00
2.358774e+01	-6.753164e+00
2.372398e+01	-6.793065e+00
2.386101e+01	-6.832482e+00
2.399883e+01	-6.872198e+00
2.413745e+01	-6.911882e+00
2.427686e+01	-6.951822e+00
2.441709e+01	-6.992022e+00
2.455812e+01	-7.031711e+00
2.469997e+01	-7.071871e+00
2.484263e+01	-7.112509e+00
2.498612e+01	-7.152624e+00
2.513044e+01	-7.192893e+00
2.527559e+01	-7.233524e+00
2.542158e+01	-7.274596e+00
2.556842e+01	-7.314985e+00
2.571610e+01	-7.355630e+00
2.586463e+01	-7.396272e+00
2.601403e+01	-7.437396e+00
2.616428e+01	-7.478637e+00
2.631541e+01	-7.519586e+00
2.646740e+01	-7.561169e+00
2.662028e+01	-7.601920e+00
2.677404e+01	-7.643240e+00
2.692868e+01	-7.685166e+00
2.708422e+01	-7.726579e+00
2.724066e+01	-7.768302e+00
2.739800e+01	-7.809615e+00
2.755625e+01	-7.851538e+00
2.771541e+01	-7.893708e+00
2.787550e+01	-7.935380e+00
2.803650e+01	-7.977306e+00
2.819844e+01	-8.020059e+00
2.836131e+01	-8.061605e+00
2.852513e+01	-8.104290e+00
2.868989e+01	-8.146419e+00
2.885560e+01	-8.189179e+00
2.902227e+01	-8.231434e+00
2.918990e+01	-8.273407e+00
2.935850e+01	-8.316261e+00
2.952807e+01	-8.359117e+00
2.969863e+01	-8.402061e+00
2.987016e+01	-8.444718e+00
3.004269e+01	-8.487391e+00
3.021622e+01	-8.530586e+00
3.039075e+01	-8.573569e+00
3.056628e+01	-8.616600e+00
3.074283e+01	-8.659740e+00
3.092040e+01	-8.703436e+00
3.109900e+01	-8.746593e+00
3.127862e+01	-8.789595e+00
3.145929e+01	-8.833334e+00
3.164099e+01	-8.876762e+00
3.182375e+01	-8.920336e+00
3.200756e+01	-8.963957e+00
3.219244e+01	-9.008027e+00
3.237838e+01	-9.051573e+00
3.256540e+01	-9.095639e+00
3.275349e+01	-9.139291e+00
3.294268e+01	-9.182982e+00
3.313295e+01	-9.227172e+00
3.332433e+01	-9.270995e+00
3.351681e+01	-9.315330e+00
3.371040e+01	-9.359451e+00
3.390511e+01	-9.403748e+00
3.410094e+01	-9.448749e+00
3.429791e+01	-9.492229e+00
3.449601e+01	-9.537076e+00
3.469526e+01	-9.581954e+00
3.489566e+01	-9.626190e+00
3.509721e+01	-9.670785e+00
3.529993e+01	-9.714596e+00
3.550382e+01	-9.760175e+00
3.570889e+01	-9.803908e+00
3.591515e+01	-9.849951e+00
3.612259e+01	-9.893993e+00
3.633123e+01	-9.939360e+00
3.654108e+01	-9.984700e+00
3.675214e+01	-1.002996e+01
3.696442e+01	-1.007477e+01
3.717792e+01	-1.011966e+01
3.739266e+01	-1.016476e+01
3.760864e+01	-1.021040e+01
3.782587e+01	-1.025568e+01
3.804435e+01	-1.030061e+01
3.826409e+01	-1.034585e+01
3.848510e+01	-1.039159e+01
3.870739e+01	-1.043738e+01
3.893096e+01	-1.048256e+01
3.915583e+01	-1.052789e+01
3.938199e+01	-1.057373e+01
3.960946e+01	-1.061919e+01
3.983824e+01	-1.066481e+01
4.006834e+01	-1.071059e+01
4.029978e+01	-1.075643e+01
4.053255e+01	-1.080212e+01
4.076666e+01	-1.084814e+01
4.100213e+01	-1.089487e+01
4.123896e+01	-1.094030e+01
4.147715e+01	-1.098661e+01
4.171672e+01	-1.103218e+01
4.195767e+01	-1.107842e+01
4.220002e+01	-1.112389e+01
4.244377e+01	-1.117088e+01
4.268892e+01	-1.121699e+01
4.293549e+01	-1.126316e+01
4.318348e+01	-1.130960e+01
4.343291e+01	-1.135596e+01
4.368377e+01	-1.140180e+01
4.393609e+01	-1.144943e+01
4.418986e+01	-1.149469e+01
4.444510e+01	-1.154167e+01
4.470182e+01	-1.158822e+01
4.496001e+01	-1.163515e+01
4.521970e+01	-1.168133e+01
4.548089e+01	-1.172739e+01
4.574358e+01	-1.177508e+01
4.600779e+01	-1.182106e+01
4.627353e+01	-1.186865e+01
4.654081e+01	-1.191449e+01
4.680963e+01	-1.196128e+01
4.708000e+01	-1.200853e+01
4.735193e+01	-1.205584e+01
4.762543e+01	-1.210232e+01
4.790051e+01	-1.214920e+01
4.817719e+01	-1.219695e+01
4.845545e+01	-1.224358e+01
4.873533e+01	-1.229108e+01
4.901682e+01	-1.233738e+01
4.929994e+01	-1.238492e+01
4.958470e+01	-1.243193e+01
4.987110e+01	-1.247910e+01
5.015915e+01	-1.252733e+01
5.044887e+01	-1.257369e+01
5.074026e+01	-1.262126e+01
5.103333e+01	-1.266825e+01
5.132810e+01	-1.271541e+01
5.162457e+01	-1.276230e+01
5.192275e+01	-1.281069e+01
5.222265e+01	-1.285791e+01
5.252429e+01	-1.290484e+01
5.282767e+01	-1.295349e+01
5.313280e+01	-1.300067e+01
5.343969e+01	-1.304781e+01
5.374836e+01	-1.309467e+01
5.405880e+01	-1.314336e+01
5.437105e+01	-1.319031e+01
5.468509e+01	-1.323751e+01
5.500095e+01	-1.328547e+01
5.531863e+01	-1.333337e+01
5.563815e+01	-1.338073e+01
5.595951e+01	-1.342797e+01
5.628273e+01	-1.347634e+01
5.660782e+01	-1.352496e+01
5.693479e+01	-1.357234e+01
5.726364e+01	-1.362012e+01
5.759439e+01	-1.366877e+01
5.792705e+01	-1.371609e+01
5.826164e+01	-1.376258e+01
5.859815e+01	-1.381174e+01
5.893662e+01	-1.385961e+01
5.927703e+01	-1.390771e+01
5.961941e+01	-1.395593e+01
5.996377e+01	-1.400364e+01
6.031012e+01	-1.405200e+01
6.065847e+01	-1.410013e+01
6.100883e+01	-1.414765e+01
6.136121e+01	-1.419650e+01
6.171563e+01	-1.424394e+01
6.207210e+01	-1.429197e+01
6.243063e+01	-1.434057e+01
6.279122e+01	-1.438890e+01
6.315390e+01	-1.443677e+01
6.351868e+01	-1.448514e+01
6.388556e+01	-1.453312e+01
6.425456e+01	-1.458151e+01
6.462569e+01	-1.463048e+01
6.499897e+01	-1.467804e+01
6.537440e+01	-1.472593e+01
6.575200e+01	-1.477420e+01
6.613178e+01	-1.482403e+01
6.651375e+01	-1.487151e+01
6.689793e+01	-1.492024e+01
6.728433e+01	-1.496788e+01
6.767297e+01	-1.501749e+01
6.806384e+01	-1.506492e+01
6.845698e+01	-1.511400e+01
6.885238e+01	-1.516273e+01
6.925007e+01	-1.521076e+01
6.965005e+01	-1.525940e+01
7.005235e+01	-1.530776e+01
7.045697e+01	-1.535617e+01
7.086393e+01	-1.540497e+01
7.127323e+01	-1.545419e+01
7.168490e+01	-1.550292e+01
7.209895e+01	-1.555097e+01
7.251539e+01	-1.559893e+01
7.293424e+01	-1.564823e+01
7.335551e+01	-1.569674e+01
7.377920e+01	-1.574614e+01
7.420535e+01	-1.579486e+01
7.463396e+01	-1.584241e+01
7.506504e+01	-1.589151e+01
7.549861e+01	-1.594067e+01
7.593469e+01	-1.598896e+01
7.637328e+01	-1.603820e+01
7.681441e+01	-1.608574e+01
7.725809e+01	-1.613559e+01
7.770433e+01	-1.618336e+01
7.815315e+01	-1.623258e+01
7.860456e+01	-1.628200e+01
7.905857e+01	-1.633018e+01
7.951521e+01	-1.637956e+01
7.997449e+01	-1.642839e+01
8.043642e+01	-1.647693e+01
8.090102e+01	-1.652523e+01
8.136830e+01	-1.657560e+01
8.183828e+01	-1.662520e+01
8.231097e+01	-1.667365e+01
8.278640e+01	-1.672298e+01
8.326457e+01	-1.677131e+01
8.374550e+01	-1.682047e+01
8.422921e+01	-1.686951e+01
8.471572e+01	-1.691903e+01
8.520503e+01	-1.696796e+01
8.569717e+01	-1.701578e+01
8.619215e+01	-1.706454e+01
8.669000e+01	-1.711558e+01
8.719071e+01	-1.716366e+01
8.769432e+01	-1.721243e+01
8.820084e+01	-1.726205e+01
8.871029e+01	-1.730995e+01
8.922267e+01	-1.735850e+01
8.973802e+01	-1.740790e+01
9.025634e+01	-1.745791e+01
9.077766e+01	-1.750681e+01
9.130199e+01	-1.755672e+01
9.182935e+01	-1.760553e+01
9.235975e+01	-1.765531e+01
9.289321e+01	-1.770252e+01
9.342976e+01	-1.775266e+01
9.396941e+01	-1.780284e+01
9.451217e+01	-1.785159e+01
9.505807e+01	-1.790148e+01
9.560712e+01	-1.794940e+01
9.615934e+01	-1.799965e+01
9.671476e+01	-1.804995e+01
9.727338e+01	-1.809683e+01
9.783522e+01	-1.814856e+01
9.840032e+01	-1.819485e+01
9.896867e+01	-1.824553e+01
9.954031e+01	-1.829448e+01
1.001153e+02	-1.834368e+01
1.006935e+02	-1.839346e+01
1.012751e+02	-1.844288e+01
1.018601e+02	-1.849235e+01
1.024484e+02	-1.854130e+01
1.030402e+02	-1.858996e+01
1.036353e+02	-1.863941e+01
1.042339e+02	-1.868940e+01
1.048360e+02	-1.873890e+01
1.054415e+02	-1.878769e+01
1.060505e+02	-1.883735e+01
1.066631e+02	-1.888782e+01
1.072791e+02	-1.893789e+01
1.078988e+02	-1.898468e+01
1.085220e+02	-1.903499e+01
1.091488e+02	-1.908500e+01
1.097793e+02	-1.913331e+01
1.104133e+02	-1.918258e+01
1.110511e+02	-1.923426e+01
1.116925e+02	-1.928297e+01
1.123376e+02	-1.933229e+01
1.129865e+02	-1.938184e+01
1.136391e+02	-1.943052e+01
1.142955e+02	-1.947963e+01
1.149556e+02	-1.952978e+01
1.156196e+02	-1.957926e+01
1.162874e+02	-1.962862e+01
1.169591e+02	-1.967796e+01
1.176347e+02	-1.972764e+01
1.183141e+02	-1.977636e+01
1.189975e+02	-1.982583e+01
1.196848e+02	-1.987532e+01
1.203761e+02	-1.992453e+01
1.210714e+02	-1.997485e+01
1.217707e+02	-2.002485e+01
1.224740e+02	-2.007548e+01
1.231814e+02	-2.012483e+01
1.238929e+02	-2.017477e+01
1.246085e+02	-2.022209e+01
1.253283e+02	-2.027256e+01
1.260522e+02	-2.032277e+01
1.267802e+02	-2.037107e+01
1.275125e+02	-2.042141e+01
1.282490e+02	-2.047120e+01
1.289898e+02	-2.052005e+01
1.297348e+02	-2.057048e+01
1.304842e+02	-2.061993e+01
1.312378e+02	-2.067097e+01
1.319959e+02	-2.071855e+01
1.327583e+02	-2.076927e+01
1.335251e+02	-2.081877e+01
1.342963e+02	-2.086837e+01
1.350720e+02	-2.091827e+01
1.358522e+02	-2.096831e+01
1.366368e+02	-2.101569e+01
1.374260e+02	-2.106709e+01
1.382198e+02	-2.111586e+01
1.390182e+02	-2.116487e+01
1.398211e+02	-2.121356e+01
1.406287e+02	-2.126549e+01
1.414410e+02	-2.131420e+01
1.422579e+02	-2.136246e+01
1.430796e+02	-2.141379e+01
1.439060e+02	-2.146381e+01
1.447372e+02	-2.151422e+01
1.455732e+02	-2.156174e+01
1.464141e+02	-2.161318e+01
1.472597e+02	-2.166406e+01
1.481103e+02	-2.171205e+01
1.489658e+02	-2.176230e+01
1.498262e+02	-2.181262e+01
1.506916e+02	-2.186149e+01
1.515620e+02	-2.191109e+01
1.524374e+02	-2.196097e+01
1.533179e+02	-2.200924e+01
1.542034e+02	-2.206100e+01
1.550941e+02	-2.211088e+01
1.559899e+02	-2.216052e+01
1.568909e+02	-2.220940e+01
1.577971e+02	-2.225953e+01
1.587085e+02	-2.230993e+01
1.596252e+02	-2.235836e+01
1.605472e+02	-2.240795e+01
1.614745e+02	-2.245623e+01
1.624072e+02	-2.250765e+01
1.633453e+02	-2.255788e+01
1.642887e+02	-2.260748e+01
1.652377e+02	-2.265787e+01
1.661921e+02	-2.270758e+01
1.671520e+02	-2.275789e+01
1.681175e+02	-2.280830e+01
1.690885e+02	-2.285770e+01
1.700651e+02	-2.290667e+01
1.710474e+02	-2.295347e+01
1.720354e+02	-2.300459e+01
1.730291e+02	-2.305578e+01
1.740285e+02	-2.310642e+01
1.750337e+02	-2.315672e+01
1.760446e+02	-2.320375e+01
1.770615e+02	-2.325448e+01
1.780842e+02	-2.330577e+01
1.791128e+02	-2.335424e+01
1.801473e+02	-2.340527e+01
1.811878e+02	-2.345441e+01
1.822344e+02	-2.350553e+01
1.832870e+02	-2.355375e+01
1.843456e+02	-2.360526e+01
1.854104e+02	-2.365267e+01
1.864813e+02	-2.370445e+01
1.875584e+02	-2.375226e+01
1.886418e+02	-2.380210e+01
1.897313e+02	-2.385379e+01
1.908272e+02	-2.390217e+01
1.919294e+02	-2.395418e+01
1.930380e+02	-2.400153e+01
1.941530e+02	-2.405251e+01
1.952744e+02	-2.410238e+01
1.964023e+02	-2.415291e+01
1.975367e+02	-2.419798e+01
1.986777e+02	-2.425012e+01
1.998252e+02	-2.429963e+01
2.009794e+02	-2.435222e+01
2.021403e+02	-2.440459e+01
2.033078e+02	-2.445002e+01
2.044821e+02	-2.450119e+01
2.056632e+02	-2.455201e+01
2.068511e+02	-2.460124e+01
2.080459e+02	-2.465008e+01
2.092475e+02	-2.469741e+01
2.104561e+02	-2.475011e+01
2.116717e+02	-2.480281e+01
2.128943e+02	-2.485205e+01
2.141240e+02	-2.490197e+01
2.153608e+02	-2.495345e+01
2.166047e+02	-2.499886e+01
2.178558e+02	-2.504892e+01
2.191141e+02	-2.510110e+01
2.203797e+02	-2.515014e+01
2.216526e+02	-2.519809e+01
2.229329e+02	-2.524996e+01
2.242205e+02	-2.529583e+01
2.255156e+02	-2.534744e+01
2.268182e+02	-2.539670e+01
2.281283e+02	-2.544690e+01
2.294459e+02	-2.550362e+01
2.307712e+02	-2.555058e+01
2.321041e+02	-2.559714e+01
2.334447e+02	-2.564842e+01
2.347931e+02	-2.569961e+01
2.361493e+02	-2.574874e+01
2.375133e+02	-2.580050e+01
2.388851e+02	-2.584841e+01
2.402649e+02	-2.589915e+01
2.416527e+02	-2.594666e+01
2.430484e+02	-2.599727e+01
2.444523e+02	-2.604679e+01
2.458642e+02	-2.609730e+01
2.472843e+02	-2.614689e+01
2.487126e+02	-2.619772e+01
2.501492e+02	-2.624702e+01
2.515940e+02	-2.629977e+01
2.530472e+02	-2.634825e+01
2.545088e+02	-2.639681e+01
2.559789e+02	-2.644431e+01
2.574574e+02	-2.650097e+01
2.589444e+02	-2.655034e+01
2.604401e+02	-2.659704e+01
2.619444e+02	-2.664602e+01
2.634574e+02	-2.670085e+01
2.649791e+02	-2.674768e+01
2.665096e+02	-2.679940e+01
2.680489e+02	-2.684730e+01
2.695972e+02	-2.689783e+01
2.711544e+02	-2.694826e+01
2.727205e+02	-2.699746e+01
2.742958e+02	-2.704914e+01
2.758801e+02	-2.709309e+01
2.774736e+02	-2.714564e+01
2.790762e+02	-2.720018e+01
2.806882e+02	-2.724847e+01
2.823094e+02	-2.729784e+01
2.839400e+02	-2.734499e+01
2.855800e+02	-2.739897e+01
2.872295e+02	-2.744758e+01
2.888886e+02	-2.750093e+01
2.905572e+02	-2.754814e+01
2.922354e+02	-2.760160e+01
2.939234e+02	-2.764629e+01
2.956211e+02	-2.769609e+01
2.973286e+02	-2.774501e+01
2.990459e+02	-2.779899e+01
3.007732e+02	-2.785101e+01
3.025104e+02	-2.789890e+01
3.042577e+02	-2.794845e+01
3.060151e+02	-2.799951e+01
3.077826e+02	-2.804983e+01
3.095604e+02	-2.809637e+01
3.113484e+02	-2.814841e+01
3.131467e+02	-2.820020e+01
3.149554e+02	-2.824672e+01
3.167746e+02	-2.829888e+01
3.186043e+02	-2.834656e+01
3.204445e+02	-2.840448e+01
3.222954e+02	-2.844771e+01
3.241570e+02	-2.850289e+01
3.260293e+02	-2.854920e+01
3.279124e+02	-2.859937e+01
3.298064e+02	-2.865051e+01
3.317114e+02	-2.869745e+01
3.336273e+02	-2.874848e+01
3.355544e+02	-2.879344e+01
3.374925e+02	-2.885050e+01
3.394418e+02	-2.889587e+01
3.414024e+02	-2.894785e+01
3.433744e+02	-2.899758e+01
3.453577e+02	-2.904737e+01
3.473525e+02	-2.910102e+01
3.493588e+02	-2.914774e+01
3.513766e+02	-2.920078e+01
3.534062e+02	-2.924891e+01
3.554474e+02	-2.930119e+01
3.575005e+02	-2.935468e+01
3.595654e+02	-2.939891e+01
3.616422e+02	-2.945430e+01
3.637311e+02	-2.949760e+01
3.658320e+02	-2.955511e+01
3.679450e+02	-2.959819e+01
3.700702e+02	-2.965280e+01
3.722077e+02	-2.970028e+01
3.743576e+02	-2.975051e+01
3.765199e+02	-2.980136e+01
3.786946e+02	-2.984953e+01
3.808820e+02	-2.990402e+01
3.830819e+02	-2.994808e+01
3.852946e+02	-2.999923e+01
3.875200e+02	-3.005057e+01
3.897583e+02	-3.010992e+01
3.920096e+02	-3.015213e+01
3.942738e+02	-3.020526e+01
3.965511e+02	-3.025564e+01
3.988416e+02	-3.030913e+01
4.011452e+02	-3.035117e+01
4.034622e+02	-3.040436e+01
4.057926e+02	-3.044596e+01
4.081365e+02	-3.050308e+01
4.104938e+02	-3.055011e+01
4.128648e+02	-3.060207e+01
4.152495e+02	-3.065227e+01
4.176480e+02	-3.070127e+01
4.200603e+02	-3.075446e+01
4.224866e+02	-3.080101e+01
4.249268e+02	-3.084937e+01
4.273812e+02	-3.090280e+01
4.298497e+02	-3.095493e+01
4.323325e+02	-3.100240e+01
4.348297e+02	-3.105867e+01
4.373412e+02	-3.110606e+01
4.398673e+02	-3.114737e+01
4.424079e+02	-3.120326e+01
4.449633e+02	-3.125496e+01
4.475334e+02	-3.130375e+01
4.501183e+02	-3.135967e+01
4.527182e+02	-3.139847e+01
4.553330e+02	-3.145470e+01
4.579630e+02	-3.151045e+01
4.606082e+02	-3.155418e+01
4.632687e+02	-3.160149e+01
4.659445e+02	-3.165370e+01
4.686358e+02	-3.170943e+01
4.713426e+02	-3.176273e+01
4.740650e+02	-3.180081e+01
4.768032e+02	-3.185562e+01
4.795572e+02	-3.191122e+01
4.823271e+02	-3.195659e+01
4.851130e+02	-3.200330e+01
4.879150e+02	-3.206238e+01
4.907332e+02	-3.210625e+01
4.935676e+02	-3.215927e+01
4.964185e+02	-3.220338e+01
4.992858e+02	-3.225854e+01
5.021696e+02	-3.230792e+01
5.050701e+02	-3.235195e+01
5.079874e+02	-3.240885e+01
5.109215e+02	-3.245479e+01
5.138726e+02	-3.251027e+01
5.168407e+02	-3.256123e+01
5.198259e+02	-3.261340e+01
5.228284e+02	-3.265713e+01
5.258482e+02	-3.270028e+01
5.288855e+02	-3.275851e+01
5.319403e+02	-3.281186e+01
5.350128e+02	-3.286928e+01
5.381030e+02	-3.291078e+01
5.412111e+02	-3.296332e+01
5.443371e+02	-3.301525e+01
5.474812e+02	-3.305826e+01
5.506434e+02	-3.311569e+01
5.538239e+02	-3.315595e+01
5.570228e+02	-3.321599e+01
5.602401e+02	-3.325838e+01
5.634760e+02	-3.330928e+01
5.667306e+02	-3.336564e+01
5.700040e+02	-3.341576e+01
5.732964e+02	-3.346191e+01
5.766077e+02	-3.351737e+01
5.799382e+02	-3.356364e+01
5.832879e+02	-3.362277e+01
5.866569e+02	-3.366496e+01
5.900454e+02	-3.371357e+01
5.934535e+02	-3.377181e+01
5.968813e+02	-3.381512e+01
6.003288e+02	-3.386912e+01
6.037963e+02	-3.391707e+01
6.072838e+02	-3.396908e+01
6.107914e+02	-3.401355e+01
6.143194e+02	-3.407507e+01
6.178676e+02	-3.412075e+01
6.214364e+02	-3.417240e+01
6.250258e+02	-3.421746e+01
6.286359e+02	-3.426915e+01
6.322669e+02	-3.431347e+01
6.359189e+02	-3.437379e+01
6.395919e+02	-3.442515e+01
6.432862e+02	-3.447370e+01
6.470017e+02	-3.451771e+01
6.507388e+02	-3.456920e+01
6.544974e+02	-3.461471e+01
6.582778e+02	-3.467380e+01
6.620800e+02	-3.472383e+01
6.659041e+02	-3.477849e+01
6.697504e+02	-3.482417e+01
6.736188e+02	-3.487253e+01
6.775096e+02	-3.492764e+01
6.814229e+02	-3.498344e+01
6.853587e+02	-3.502667e+01
6.893173e+02	-3.508217e+01
6.932988e+02	-3.512769e+01
6.973033e+02	-3.517046e+01
7.013309e+02	-3.523001e+01
