Frequency(Hz)	Magnitude(dB)
1.000000e+01	-2.379866e+00
1.005776e+01	-2.400885e+00
1.011585e+01	-2.422436e+00
1.017428e+01	-2.443754e+00
1.023305e+01	-2.465189e+00
1.029215e+01	-2.487268e+00
1.035160e+01	-2.509042e+00
1.041139e+01	-2.530977e+00
1.047153e+01	-2.553205e+00
1.053201e+01	-2.575581e+00
1.059284e+01	-2.597943e+00
1.065403e+01	-2.620810e+00
1.071556e+01	-2.643171e+00
1.077746e+01	-2.666368e+00
1.083971e+01	-2.689056e+00
1.090232e+01	-2.712516e+00
1.096529e+01	-2.735598e+00
1.102862e+01	-2.759092e+00
1.109232e+01	-2.782750e+00
1.115639e+01	-2.806422e+00
1.122083e+01	-2.830237e+00
1.128564e+01	-2.854206e+00
1.135083e+01	-2.878431e+00
1.141639e+01	-2.902994e+00
1.148233e+01	-2.927314e+00
1.154865e+01	-2.951886e+00
1.161536e+01	-2.976678e+00
1.168245e+01	-3.001681e+00
1.174992e+01	-3.026550e+00
1.181779e+01	-3.051681e+00
1.188605e+01	-3.076899e+00
1.195470e+01	-3.102515e+00
1.202375e+01	-3.128384e+00
1.209320e+01	-3.154049e+00
1.216305e+01	-3.179649e+00
1.223330e+01	-3.205791e+00
1.230396e+01	-3.231806e+00
1.237503e+01	-3.258437e+00
1.244651e+01	-3.284831e+00
1.251840e+01	-3.311336e+00
1.259070e+01	-3.338062e+00
1.266343e+01	-3.364941e+00
1.273657e+01	-3.392171e+00
1.281014e+01	-3.419533e+00
1.288413e+01	-3.446752e+00
1.295855e+01	-3.474136e+00
1.303339e+01	-3.501892e+00
1.310867e+01	-3.529620e+00
1.318439e+01	-3.557148e+00
1.326054e+01	-3.585311e+00
1.333713e+01	-3.613778e+00
1.341417e+01	-3.641907e+00
1.349165e+01	-3.670392e+00
1.356958e+01	-3.698997e+00
1.364795e+01	-3.727752e+00
1.372678e+01	-3.756524e+00
1.380607e+01	-3.785733e+00
1.388581e+01	-3.814892e+00
1.396602e+01	-3.844174e+00
1.404668e+01	-3.873749e+00
1.412782e+01	-3.903289e+00
1.420942e+01	-3.933057e+00
1.429149e+01	-3.962716e+00
1.437404e+01	-3.992740e+00
1.445706e+01	-4.022990e+00
1.454057e+01	-4.053328e+00
1.462455e+01	-4.083958e+00
1.470902e+01	-4.114194e+00
1.479398e+01	-4.144975e+00
1.487943e+01	-4.176032e+00
1.496537e+01	-4.206686e+00
1.505181e+01	-4.237862e+00
1.513875e+01	-4.268994e+00
1.522619e+01	-4.300578e+00
1.531414e+01	-4.331834e+00
1.540259e+01	-4.363647e+00
1.549156e+01	-4.395573e+00
1.558103e+01	-4.427256e+00
1.567103e+01	-4.459343e+00
1.576155e+01	-4.491708e+00
1.585258e+01	-4.523577e+00
1.594415e+01	-4.556374e+00
1.603624e+01	-4.589233e+00
1.612886e+01	-4.621766e+00
1.622202e+01	-4.654434e+00
1.631572e+01	-4.687086e+00
1.640996e+01	-4.720795e+00
1.650474e+01	-4.753755e+00
1.660008e+01	-4.786833e+00
1.669596e+01	-4.820173e+00
1.679239e+01	-4.854134e+00
1.688938e+01	-4.887705e+00
1.698694e+01	-4.921931e+00
1.708505e+01	-4.955496e+00
1.718373e+01	-4.989686e+00
1.728299e+01	-5.024004e+00
1.738281e+01	-5.058196e+00
1.748322e+01	-5.092802e+00
1.758420e+01	-5.127309e+00
1.768576e+01	-5.161905e+00
1.778792e+01	-5.197045e+00
1.789066e+01	-5.232233e+00
1.799399e+01	-5.267450e+00
1.809793e+01	-5.302398e+00
1.820246e+01	-5.337897e+00
1.830760e+01	-5.372946e+00
1.841334e+01	-5.408562e+00
1.851969e+01	-5.444258e+00
1.862666e+01	-5.479848e+00
1.873425e+01	-5.516000e+00
1.884246e+01	-5.552007e+00
1.895129e+01	-5.588104e+00
1.906075e+01	-5.624198e+00
1.917085e+01	-5.660977e+00
1.928158e+01	-5.697175e+00
1.939295e+01	-5.734102e+00
1.950496e+01	-5.770877e+00
1.961762e+01	-5.807418e+00
1.973093e+01	-5.844590e+00
1.984490e+01	-5.881385e+00
1.995952e+01	-5.918731e+00
2.007480e+01	-5.956029e+00
2.019076e+01	-5.993691e+00
2.030738e+01	-6.030659e+00
2.042467e+01	-6.068702e+00
2.054264e+01	-6.106043e+00
2.066130e+01	-6.144008e+00
2.078064e+01	-6.181552e+00
2.090066e+01	-6.219935e+00
2.102139e+01	-6.258081e+00
2.114280e+01	-6.296313e+00
2.126492e+01	-6.334555e+00
2.138775e+01	-6.373071e+00
2.151128e+01	-6.411822e+00
2.163553e+01	-6.450275e+00
2.176050e+01	-6.489391e+00
2.188619e+01	-6.527785e+00
2.201260e+01	-6.566877e+00
2.213974e+01	-6.606044e+00
2.226762e+01	-6.645034e+00
2.239624e+01	-6.684412e+00
2.252560e+01	-6.723667e+00
2.265571e+01	-6.763118e+00
2.278656e+01	-6.802665e+00
2.291818e+01	-6.842168e+00
2.305055e+01	-6.881969e+00
2.318369e+01	-6.921701e+00
2.331760e+01	-6.962085e+00
2.345228e+01	-7.001520e+00
2.358774e+01	-7.042005e+00
2.372398e+01	-7.082246e+00
2.386101e+01	-7.122370e+00
2.399883e+01	-7.162652e+00
2.413745e+01	-7.202737e+00
2.427686e+01	-7.243501e+00
2.441709e+01	-7.284562e+00
2.455812e+01	-7.324879e+00
2.469997e+01	-7.365602e+00
2.484263e+01	-7.406754e+00
2.498612e+01	-7.447709e+00
2.513044e+01	-7.488712e+00
2.527559e+01	-7.529960e+00
2.542158e+01	-7.570912e+00
2.556842e+01	-7.612390e+00
2.571610e+01	-7.653850e+00
2.586463e+01	-7.695230e+00
2.601403e+01	-7.736913e+00
2.616428e+01	-7.778784e+00
2.631541e+01	-7.819891e+00
2.646740e+01	-7.861754e+00
2.662028e+01	-7.904168e+00
2.677404e+01	-7.946011e+00
2.692868e+01	-7.988181e+00
2.708422e+01	-8.029793e+00
2.724066e+01	-8.072211e+00
2.739800e+01	-8.114525e+00
2.755625e+01	-8.156892e+00
2.771541e+01	-8.199233e+00
2.787550e+01	-8.241612e+00
2.803650e+01	-8.284614e+00
2.819844e+01	-8.326968e+00
2.836131e+01	-8.369464e+00
2.852513e+01	-8.412470e+00
2.868989e+01	-8.454989e+00
2.885560e+01	-8.498303e+00
2.902227e+01	-8.540883e+00
2.918990e+01	-8.584289e+00
2.935850e+01	-8.626917e+00
2.952807e+01	-8.670237e+00
2.969863e+01	-8.713666e+00
2.987016e+01	-8.756854e+00
3.004269e+01	-8.800268e+00
3.021622e+01	-8.844024e+00
3.039075e+01	-8.887206e+00
3.056628e+01	-8.931518e+00
3.074283e+01	-8.974889e+00
3.092040e+01	-9.018687e+00
3.109900e+01	-9.062152e+00
3.127862e+01	-9.106028e+00
3.145929e+01	-9.150098e+00
3.164099e+01	-9.194058e+00
3.182375e+01	-9.237962e+00
3.200756e+01	-9.282183e+00
3.219244e+01	-9.325813e+00
3.237838e+01	-9.370459e+00
3.256540e+01	-9.414675e+00
3.275349e+01	-9.458768e+00
3.294268e+01	-9.503577e+00
3.313295e+01	-9.547464e+00
3.332433e+01	-9.592707e+00
3.351681e+01	-9.636806e+00
3.371040e+01	-9.681218e+00
3.390511e+01	-9.726290e+00
3.410094e+01	-9.770819e+00
3.429791e+01	-9.815826e+00
3.449601e+01	-9.860228e+00
3.469526e+01	-9.905158e+00
3.489566e+01	-9.950395e+00
3.509721e+01	-9.994750e+00
3.529993e+01	-1.004014e+01
3.550382e+01	-1.008531e+01
3.570889e+01	-1.013075e+01
3.591515e+01	-1.017598e+01
3.612259e+01	-1.022115e+01
3.633123e+01	-1.026607e+01
3.654108e+01	-1.031215e+01
3.675214e+01	-1.035743e+01
3.696442e+01	-1.040252e+01
3.717792e+01	-1.044801e+01
3.739266e+01	-1.049311e+01
3.760864e+01	-1.053907e+01
3.782587e+01	-1.058472e+01
3.804435e+01	-1.063055e+01
3.826409e+01	-1.067655e+01
3.848510e+01	-1.072215e+01
3.870739e+01	-1.076752e+01
3.893096e+01	-1.081344e+01
3.915583e+01	-1.085954e+01
3.938199e+01	-1.090517e+01
3.960946e+01	-1.095185e+01
3.983824e+01	-1.099786e+01
4.006834e+01	-1.104352e+01
4.029978e+01	-1.108980e+01
4.053255e+01	-1.113595e+01
4.076666e+01	-1.118187e+01
4.100213e+01	-1.122875e+01
4.123896e+01	-1.127460e+01
4.147715e+01	-1.132129e+01
4.171672e+01	-1.136699e+01
4.195767e+01	-1.141383e+01
4.220002e+01	-1.146006e+01
4.244377e+01	-1.150685e+01
4.268892e+01	-1.155297e+01
4.293549e+01	-1.159935e+01
4.318348e+01	-1.164583e+01
4.343291e+01	-1.169284e+01
4.368377e+01	-1.174002e+01
4.393609e+01	-1.178638e+01
4.418986e+01	-1.183304e+01
4.444510e+01	-1.187950e+01
4.470182e+01	-1.192692e+01
4.496001e+01	-1.197364e+01
4.521970e+01	-1.202008e+01
4.548089e+01	-1.206667e+01
4.574358e+01	-1.211478e+01
4.600779e+01	-1.216089e+01
4.627353e+01	-1.220802e+01
4.654081e+01	-1.225457e+01
4.680963e+01	-1.230230e+01
4.708000e+01	-1.234867e+01
4.735193e+01	-1.239620e+01
4.762543e+01	-1.244319e+01
4.790051e+01	-1.249042e+01
4.817719e+01	-1.253757e+01
4.845545e+01	-1.258425e+01
4.873533e+01	-1.263212e+01
4.901682e+01	-1.267930e+01
4.929994e+01	-1.272745e+01
4.958470e+01	-1.277471e+01
4.987110e+01	-1.282211e+01
5.015915e+01	-1.286928e+01
5.044887e+01	-1.291634e+01
5.074026e+01	-1.296404e+01
5.103333e+01	-1.301176e+01
5.132810e+01	-1.305957e+01
5.162457e+01	-1.310658e+01
5.192275e+01	-1.315405e+01
5.222265e+01	-1.320229e+01
5.252429e+01	-1.325022e+01
5.282767e+01	-1.329630e+01
5.313280e+01	-1.334578e+01
5.343969e+01	-1.339211e+01
5.374836e+01	-1.343982e+01
5.405880e+01	-1.348826e+01
5.437105e+01	-1.353637e+01
5.468509e+01	-1.358358e+01
5.500095e+01	-1.363108e+01
5.531863e+01	-1.367987e+01
5.563815e+01	-1.372751e+01
5.595951e+01	-1.377519e+01
5.628273e+01	-1.382304e+01
5.660782e+01	-1.387126e+01
5.693479e+01	-1.392015e+01
5.726364e+01	-1.396807e+01
5.759439e+01	-1.401592e+01
5.792705e+01	-1.406365e+01
5.826164e+01	-1.411146e+01
5.859815e+01	-1.415992e+01
5.893662e+01	-1.420706e+01
5.927703e+01	-1.425548e+01
5.961941e+01	-1.430474e+01
5.996377e+01	-1.435235e+01
6.031012e+01	-1.440019e+01
6.065847e+01	-1.444837e+01
6.100883e+01	-1.449710e+01
6.136121e+01	-1.454540e+01
6.171563e+01	-1.459317e+01
6.207210e+01	-1.464195e+01
6.243063e+01	-1.468982e+01
6.279122e+01	-1.473842e+01
6.315390e+01	-1.478704e+01
6.351868e+01	-1.483471e+01
6.388556e+01	-1.488331e+01
6.425456e+01	-1.493300e+01
6.462569e+01	-1.498041e+01
6.499897e+01	-1.502873e+01
6.537440e+01	-1.507668e+01
6.575200e+01	-1.512640e+01
6.613178e+01	-1.517450e+01
6.651375e+01	-1.522238e+01
6.689793e+01	-1.527073e+01
6.728433e+01	-1.531994e+01
6.767297e+01	-1.536844e+01
6.806384e+01	-1.541639e+01
6.845698e+01	-1.546523e+01
6.885238e+01	-1.551381e+01
6.925007e+01	-1.556365e+01
6.965005e+01	-1.561108e+01
7.005235e+01	-1.566028e+01
7.045697e+01	-1.570961e+01
7.086393e+01	-1.575788e+01
7.127323e+01	-1.580637e+01
7.168490e+01	-1.585545e+01
7.209895e+01	-1.590273e+01
7.251539e+01	-1.595284e+01
7.293424e+01	-1.600087e+01
7.335551e+01	-1.604934e+01
7.377920e+01	-1.609931e+01
7.420535e+01	-1.614747e+01
7.463396e+01	-1.619572e+01
7.506504e+01	-1.624432e+01
7.549861e+01	-1.629393e+01
7.593469e+01	-1.634344e+01
7.637328e+01	-1.639132e+01
7.681441e+01	-1.643999e+01
7.725809e+01	-1.648987e+01
7.770433e+01	-1.653802e+01
7.815315e+01	-1.658822e+01
7.860456e+01	-1.663704e+01
7.905857e+01	-1.668576e+01
7.951521e+01	-1.673488e+01
7.997449e+01	-1.678392e+01
8.043642e+01	-1.683268e+01
8.090102e+01	-1.688227e+01
8.136830e+01	-1.693014e+01
8.183828e+01	-1.697974e+01
8.231097e+01	-1.702919e+01
8.278640e+01	-1.707786e+01
8.326457e+01	-1.712601e+01
8.374550e+01	-1.717491e+01
8.422921e+01	-1.722346e+01
8.471572e+01	-1.727340e+01
8.520503e+01	-1.732326e+01
8.569717e+01	-1.737138e+01
8.619215e+01	-1.742143e+01
8.669000e+01	-1.747016e+01
8.719071e+01	-1.751977e+01
8.769432e+01	-1.756702e+01
8.820084e+01	-1.761759e+01
8.871029e+01	-1.766516e+01
8.922267e+01	-1.771626e+01
8.973802e+01	-1.776450e+01
9.025634e+01	-1.781405e+01
9.077766e+01	-1.786353e+01
9.130199e+01	-1.791145e+01
9.182935e+01	-1.796182e+01
9.235975e+01	-1.801097e+01
9.289321e+01	-1.806043e+01
9.342976e+01	-1.811016e+01
9.396941e+01	-1.815984e+01
9.451217e+01	-1.820728e+01
9.505807e+01	-1.825767e+01
9.560712e+01	-1.830749e+01
9.615934e+01	-1.835598e+01
9.671476e+01	-1.840551e+01
9.727338e+01	-1.845481e+01
9.783522e+01	-1.850487e+01
9.840032e+01	-1.855463e+01
9.896867e+01	-1.860325e+01
9.954031e+01	-1.865219e+01
1.001153e+02	-1.870051e+01
1.006935e+02	-1.875045e+01
1.012751e+02	-1.879889e+01
1.018601e+02	-1.884940e+01
1.024484e+02	-1.889877e+01
1.030402e+02	-1.894906e+01
1.036353e+02	-1.899691e+01
1.042339e+02	-1.904627e+01
1.048360e+02	-1.909771e+01
1.054415e+02	-1.914584e+01
1.060505e+02	-1.919649e+01
1.066631e+02	-1.924426e+01
1.072791e+02	-1.929369e+01
1.078988e+02	-1.934321e+01
1.085220e+02	-1.939350e+01
1.091488e+02	-1.944281e+01
1.097793e+02	-1.949302e+01
1.104133e+02	-1.954197e+01
1.110511e+02	-1.959013e+01
1.116925e+02	-1.964039e+01
1.123376e+02	-1.969214e+01
1.129865e+02	-1.973876e+01
1.136391e+02	-1.978779e+01
1.142955e+02	-1.983976e+01
1.149556e+02	-1.988924e+01
1.156196e+02	-1.993752e+01
1.162874e+02	-1.998708e+01
1.169591e+02	-2.003712e+01
1.176347e+02	-2.008680e+01
1.183141e+02	-2.013539e+01
1.189975e+02	-2.018649e+01
1.196848e+02	-2.023250e+01
1.203761e+02	-2.028430e+01
1.210714e+02	-2.033243e+01
1.217707e+02	-2.038411e+01
1.224740e+02	-2.043366e+01
1.231814e+02	-2.048292e+01
1.238929e+02	-2.053281e+01
1.246085e+02	-2.058229e+01
1.253283e+02	-2.063345e+01
1.260522e+02	-2.068020e+01
1.267802e+02	-2.072932e+01
1.275125e+02	-2.077939e+01
1.282490e+02	-2.082818e+01
1.289898e+02	-2.088115e+01
1.297348e+02	-2.092952e+01
1.304842e+02	-2.097900e+01
1.312378e+02	-2.102922e+01
1.319959e+02	-2.108004e+01
1.327583e+02	-2.112802e+01
1.335251e+02	-2.117706e+01
1.342963e+02	-2.122747e+01
1.350720e+02	-2.127753e+01
1.358522e+02	-2.132765e+01
1.366368e+02	-2.137743e+01
1.374260e+02	-2.142582e+01
1.382198e+02	-2.147558e+01
1.390182e+02	-2.152419e+01
1.398211e+02	-2.157347e+01
1.406287e+02	-2.162548e+01
1.414410e+02	-2.167346e+01
1.422579e+02	-2.172308e+01
1.430796e+02	-2.177300e+01
1.439060e+02	-2.182193e+01
1.447372e+02	-2.187261e+01
1.455732e+02	-2.192310e+01
1.464141e+02	-2.197244e+01
1.472597e+02	-2.202378e+01
1.481103e+02	-2.207151e+01
1.489658e+02	-2.212113e+01
1.498262e+02	-2.217245e+01
1.506916e+02	-2.222061e+01
1.515620e+02	-2.227251e+01
1.524374e+02	-2.232300e+01
1.533179e+02	-2.237199e+01
1.542034e+02	-2.242098e+01
1.550941e+02	-2.246934e+01
1.559899e+02	-2.251957e+01
1.568909e+02	-2.257046e+01
1.577971e+02	-2.261820e+01
1.587085e+02	-2.266933e+01
1.596252e+02	-2.272083e+01
1.605472e+02	-2.276668e+01
1.614745e+02	-2.281974e+01
1.624072e+02	-2.286773e+01
1.633453e+02	-2.291959e+01
1.642887e+02	-2.296687e+01
1.652377e+02	-2.301732e+01
1.661921e+02	-2.306856e+01
1.671520e+02	-2.311835e+01
1.681175e+02	-2.316689e+01
1.690885e+02	-2.321617e+01
1.700651e+02	-2.326778e+01
1.710474e+02	-2.331802e+01
1.720354e+02	-2.336641e+01
1.730291e+02	-2.341489e+01
1.740285e+02	-2.346506e+01
1.750337e+02	-2.351289e+01
1.760446e+02	-2.356875e+01
1.770615e+02	-2.361466e+01
1.780842e+02	-2.366375e+01
1.791128e+02	-2.371477e+01
1.801473e+02	-2.376302e+01
1.811878e+02	-2.381462e+01
1.822344e+02	-2.386467e+01
1.832870e+02	-2.391373e+01
1.843456e+02	-2.396305e+01
1.854104e+02	-2.401548e+01
1.864813e+02	-2.406371e+01
1.875584e+02	-2.411506e+01
1.886418e+02	-2.416306e+01
1.897313e+02	-2.421488e+01
1.908272e+02	-2.426428e+01
1.919294e+02	-2.431335e+01
1.930380e+02	-2.436333e+01
1.941530e+02	-2.441222e+01
1.952744e+02	-2.446499e+01
1.964023e+02	-2.451264e+01
1.975367e+02	-2.456086e+01
1.986777e+02	-2.461406e+01
1.998252e+02	-2.466449e+01
2.009794e+02	-2.471313e+01
2.021403e+02	-2.476326e+01
2.033078e+02	-2.481283e+01
2.044821e+02	-2.486245e+01
2.056632e+02	-2.490888e+01
2.068511e+02	-2.496241e+01
2.080459e+02	-2.501390e+01
2.092475e+02	-2.506467e+01
2.104561e+02	-2.511148e+01
2.116717e+02	-2.515910e+01
2.128943e+02	-2.521371e+01
2.141240e+02	-2.526194e+01
2.153608e+02	-2.531043e+01
2.166047e+02	-2.535926e+01
2.178558e+02	-2.541379e+01
2.191141e+02	-2.545982e+01
2.203797e+02	-2.550970e+01
2.216526e+02	-2.556191e+01
2.229329e+02	-2.561096e+01
2.242205e+02	-2.566094e+01
2.255156e+02	-2.571430e+01
2.268182e+02	-2.576298e+01
2.281283e+02	-2.581193e+01
2.294459e+02	-2.586258e+01
2.307712e+02	-2.591121e+01
2.321041e+02	-2.596313e+01
2.334447e+02	-2.601310e+01
2.347931e+02	-2.605896e+01
2.361493e+02	-2.611071e+01
2.375133e+02	-2.615949e+01
2.388851e+02	-2.621081e+01
2.402649e+02	-2.626157e+01
2.416527e+02	-2.630829e+01
2.430484e+02	-2.635904e+01
2.444523e+02	-2.641085e+01
2.458642e+02	-2.645996e+01
2.472843e+02	-2.650673e+01
2.487126e+02	-2.656167e+01
2.501492e+02	-2.660799e+01
2.515940e+02	-2.666461e+01
2.530472e+02	-2.670738e+01
2.545088e+02	-2.676124e+01
2.559789e+02	-2.680977e+01
2.574574e+02	-2.686150e+01
2.589444e+02	-2.690941e+01
2.604401e+02	-2.695896e+01
2.619444e+02	-2.701207e+01
2.634574e+02	-2.706217e+01
2.649791e+02	-2.711105e+01
2.665096e+02	-2.715757e+01
2.680489e+02	-2.720964e+01
2.695972e+02	-2.726043e+01
2.711544e+02	-2.730769e+01
2.727205e+02	-2.735938e+01
2.742958e+02	-2.741005e+01
2.758801e+02	-2.746018e+01
2.774736e+02	-2.750905e+01
2.790762e+02	-2.756011e+01
2.806882e+02	-2.761112e+01
2.823094e+02	-2.766483e+01
2.839400e+02	-2.770918e+01
2.855800e+02	-2.775967e+01
2.872295e+02	-2.780884e+01
2.888886e+02	-2.785706e+01
2.905572e+02	-2.790855e+01
2.922354e+02	-2.795845e+01
2.939234e+02	-2.800909e+01
2.956211e+02	-2.805953e+01
2.973286e+02	-2.810594e+01
2.990459e+02	-2.815830e+01
3.007732e+02	-2.820911e+01
3.025104e+02	-2.826174e+01
3.042577e+02	-2.831080e+01
3.060151e+02	-2.835927e+01
3.077826e+02	-2.840904e+01
3.095604e+02	-2.845961e+01
3.113484e+02	-2.850835e+01
3.131467e+02	-2.855848e+01
3.149554e+02	-2.861207e+01
3.167746e+02	-2.865692e+01
3.186043e+02	-2.870933e+01
3.204445e+02	-2.876138e+01
3.222954e+02	-2.881736e+01
3.241570e+02	-2.885838e+01
3.260293e+02	-2.891200e+01
3.279124e+02	-2.896439e+01
3.298064e+02	-2.900284e+01
3.317114e+02	-2.905929e+01
3.336273e+02	-2.910850e+01
3.355544e+02	-2.916320e+01
3.374925e+02	-2.921458e+01
3.394418e+02	-2.926255e+01
3.414024e+02	-2.931302e+01
3.433744e+02	-2.935884e+01
3.453577e+02	-2.940695e+01
3.473525e+02	-2.946339e+01
3.493588e+02	-2.951254e+01
3.513766e+02	-2.956284e+01
3.534062e+02	-2.961140e+01
3.554474e+02	-2.966345e+01
3.575005e+02	-2.971003e+01
3.595654e+02	-2.975870e+01
3.616422e+02	-2.981717e+01
3.637311e+02	-2.986271e+01
3.658320e+02	-2.991183e+01
3.679450e+02	-2.995478e+01
3.700702e+02	-3.001335e+01
3.722077e+02	-3.006274e+01
3.743576e+02	-3.011063e+01
3.765199e+02	-3.016054e+01
3.786946e+02	-3.021141e+01
3.808820e+02	-3.026816e+01
3.830819e+02	-3.031426e+01
3.852946e+02	-3.035823e+01
3.875200e+02	-3.041213e+01
3.897583e+02	-3.046431e+01
3.920096e+02	-3.051575e+01
3.942738e+02	-3.056727e+01
3.965511e+02	-3.061498e+01
3.988416e+02	-3.066585e+01
4.011452e+02	-3.071701e+01
4.034622e+02	-3.076066e+01
4.057926e+02	-3.081428e+01
4.081365e+02	-3.086183e+01
4.104938e+02	-3.091339e+01
4.128648e+02	-3.096957e+01
4.152495e+02	-3.101210e+01
4.176480e+02	-3.106636e+01
4.200603e+02	-3.111486e+01
4.224866e+02	-3.116349e+01
4.249268e+02	-3.121510e+01
4.273812e+02	-3.126345e+01
4.298497e+02	-3.132064e+01
4.323325e+02	-3.136998e+01
4.348297e+02	-3.141012e+01
4.373412e+02	-3.146387e+01
4.398673e+02	-3.151563e+01
4.424079e+02	-3.156909e+01
4.449633e+02	-3.161358e+01
4.475334e+02	-3.166030e+01
4.501183e+02	-3.171175e+01
4.527182e+02	-3.177272e+01
4.553330e+02	-3.181879e+01
4.579630e+02	-3.186771e+01
4.606082e+02	-3.192026e+01
4.632687e+02	-3.196722e+01
4.659445e+02	-3.201763e+01
4.686358e+02	-3.206454e+01
4.713426e+02	-3.211673e+01
4.740650e+02	-3.216996e+01
4.768032e+02	-3.222096e+01
4.795572e+02	-3.226907e+01
4.823271e+02	-3.231279e+01
4.851130e+02	-3.236852e+01
4.879150e+02	-3.241144e+01
4.907332e+02	-3.247270e+01
4.935676e+02	-3.251719e+01
4.964185e+02	-3.256618e+01
4.992858e+02	-3.261609e+01
5.021696e+02	-3.266532e+01
5.050701e+02	-3.271828e+01
5.079874e+02	-3.276831e+01
5.109215e+02	-3.282077e+01
5.138726e+02	-3.287166e+01
5.168407e+02	-3.292111e+01
5.198259e+02	-3.296913e+01
5.228284e+02	-3.302204e+01
5.258482e+02	-3.307781e+01
5.288855e+02	-3.312006e+01
5.319403e+02	-3.317754e+01
5.350128e+02	-3.322281e+01
5.381030e+02	-3.327458e+01
5.412111e+02	-3.332241e+01
5.443371e+02	-3.336953e+01
5.474812e+02	-3.342785e+01
5.506434e+02	-3.346889e+01
5.538239e+02	-3.353077e+01
5.570228e+02	-3.357330e+01
5.602401e+02	-3.362216e+01
5.634760e+02	-3.368137e+01
5.667306e+02	-3.372624e+01
5.700040e+02	-3.377387e+01
5.732964e+02	-3.382385e+01
5.766077e+02	-3.386940e+01
5.799382e+02	-3.392352e+01
5.832879e+02	-3.397889e+01
5.866569e+02	-3.402754e+01
5.900454e+02	-3.407160e+01
5.934535e+02	-3.412269e+01
5.968813e+02	-3.417860e+01
6.003288e+02	-3.422849e+01
6.037963e+02	-3.428418e+01
6.072838e+02	-3.432943e+01
6.107914e+02	-3.437973e+01
6.143194e+02	-3.442348e+01
6.178676e+02	-3.447951e+01
6.214364e+02	-3.453590e+01
6.250258e+02	-3.458046e+01
6.286359e+02	-3.462439e+01
6.322669e+02	-3.467111e+01
6.359189e+02	-3.473098e+01
6.395919e+02	-3.478518e+01
6.432862e+02	-3.482937e+01
6.470017e+02	-3.488841e+01
6.507388e+02	-3.493038e+01
6.544974e+02	-3.499354e+01
6.582778e+02	-3.504196e+01
6.620800e+02	-3.508209e+01
6.659041e+02	-3.513148e+01
6.697504e+02	-3.518382e+01
6.736188e+02	-3.523065e+01
6.775096e+02	-3.528956e+01
6.814229e+02	-3.533864e+01
6.853587e+02	-3.538690e+01
6.893173e+02	-3.543872e+01
6.932988e+02	-3.547826e+01
6.973033e+02	-3.554033e+01
7.013309e+02	-3.558598e+01
