Frequency(Hz)	Magnitude(dB)
1.000000e+01	-2.149559e+00
1.005776e+01	-2.168908e+00
1.011585e+01	-2.188432e+00
1.017428e+01	-2.208572e+00
1.023305e+01	-2.228587e+00
1.029215e+01	-2.248671e+00
1.035160e+01	-2.269028e+00
1.041139e+01	-2.289580e+00
1.047153e+01	-2.309845e+00
1.053201e+01	-2.330732e+00
1.059284e+01	-2.351763e+00
1.065403e+01	-2.372580e+00
1.071556e+01	-2.393653e+00
1.077746e+01	-2.414758e+00
1.083971e+01	-2.436688e+00
1.090232e+01	-2.458131e+00
1.096529e+01	-2.479639e+00
1.102862e+01	-2.501379e+00
1.109232e+01	-2.523359e+00
1.115639e+01	-2.545759e+00
1.122083e+01	-2.567592e+00
1.128564e+01	-2.590382e+00
1.135083e+01	-2.612750e+00
1.141639e+01	-2.635522e+00
1.148233e+01	-2.658140e+00
1.154865e+01	-2.681261e+00
1.161536e+01	-2.704532e+00
1.168245e+01	-2.727663e+00
1.174992e+01	-2.751195e+00
1.181779e+01	-2.774518e+00
1.188605e+01	-2.798212e+00
1.195470e+01	-2.822023e+00
1.202375e+01	-2.846219e+00
1.209320e+01	-2.870315e+00
1.216305e+01	-2.894585e+00
1.223330e+01	-2.918707e+00
1.230396e+01	-2.943371e+00
1.237503e+01	-2.968136e+00
1.244651e+01	-2.993040e+00
1.251840e+01	-3.018041e+00
1.259070e+01	-3.043061e+00
1.266343e+01	-3.068451e+00
1.273657e+01	-3.093740e+00
1.281014e+01	-3.119319e+00
1.288413e+01	-3.145295e+00
1.295855e+01	-3.170734e+00
1.303339e+01	-3.196905e+00
1.310867e+01	-3.223209e+00
1.318439e+01	-3.249295e+00
1.326054e+01	-3.275606e+00
1.333713e+01	-3.302192e+00
1.341417e+01	-3.328832e+00
1.349165e+01	-3.355754e+00
1.356958e+01	-3.382863e+00
1.364795e+01	-3.409826e+00
1.372678e+01	-3.437394e+00
1.380607e+01	-3.464665e+00
1.388581e+01	-3.492295e+00
1.396602e+01	-3.520027e+00
1.404668e+01	-3.548103e+00
1.412782e+01	-3.575874e+00
1.420942e+01	-3.604291e+00
1.429149e+01	-3.632077e+00
1.437404e+01	-3.660722e+00
1.445706e+01	-3.689194e+00
1.454057e+01	-3.718009e+00
1.462455e+01	-3.746656e+00
1.470902e+01	-3.775774e+00
1.479398e+01	-3.804635e+00
1.487943e+01	-3.834333e+00
1.496537e+01	-3.863811e+00
1.505181e+01	-3.893115e+00
1.513875e+01	-3.922832e+00
1.522619e+01	-3.952588e+00
1.531414e+01	-3.982615e+00
1.540259e+01	-4.012857e+00
1.549156e+01	-4.042896e+00
1.558103e+01	-4.073331e+00
1.567103e+01	-4.103751e+00
1.576155e+01	-4.134122e+00
1.585258e+01	-4.165053e+00
1.594415e+01	-4.196149e+00
1.603624e+01	-4.227134e+00
1.612886e+01	-4.258643e+00
1.622202e+01	-4.289795e+00
1.631572e+01	-4.321216e+00
1.640996e+01	-4.352702e+00
1.650474e+01	-4.384463e+00
1.660008e+01	-4.416319e+00
1.669596e+01	-4.448344e+00
1.679239e+01	-4.480508e+00
1.688938e+01	-4.512679e+00
1.698694e+01	-4.545182e+00
1.708505e+01	-4.577719e+00
1.718373e+01	-4.610214e+00
1.728299e+01	-4.643178e+00
1.738281e+01	-4.676166e+00
1.748322e+01	-4.708912e+00
1.758420e+01	-4.742141e+00
1.768576e+01	-4.775718e+00
1.778792e+01	-4.809010e+00
1.789066e+01	-4.842794e+00
1.799399e+01	-4.876114e+00
1.809793e+01	-4.909959e+00
1.820246e+01	-4.944144e+00
1.830760e+01	-4.977953e+00
1.841334e+01	-5.012185e+00
1.851969e+01	-5.046422e+00
1.862666e+01	-5.080966e+00
1.873425e+01	-5.115452e+00
1.884246e+01	-5.150538e+00
1.895129e+01	-5.185246e+00
1.906075e+01	-5.219922e+00
1.917085e+01	-5.254954e+00
1.928158e+01	-5.290011e+00
1.939295e+01	-5.325496e+00
1.950496e+01	-5.360636e+00
1.961762e+01	-5.396371e+00
1.973093e+01	-5.431991e+00
1.984490e+01	-5.467702e+00
1.995952e+01	-5.503678e+00
2.007480e+01	-5.539618e+00
2.019076e+01	-5.575505e+00
2.030738e+01	-5.612216e+00
2.042467e+01	-5.648305e+00
2.054264e+01	-5.684838e+00
2.066130e+01	-5.721414e+00
2.078064e+01	-5.758300e+00
2.090066e+01	-5.795129e+00
2.102139e+01	-5.831844e+00
2.114280e+01	-5.868952e+00
2.126492e+01	-5.905778e+00
2.138775e+01	-5.943204e+00
2.151128e+01	-5.980382e+00
2.163553e+01	-6.018170e+00
2.176050e+01	-6.055556e+00
2.188619e+01	-6.093199e+00
2.201260e+01	-6.131108e+00
2.213974e+01	-6.168979e+00
2.226762e+01	-6.206794e+00
2.239624e+01	-6.245133e+00
2.252560e+01	-6.283213e+00
2.265571e+01	-6.321340e+00
2.278656e+01	-6.360146e+00
2.291818e+01	-6.398369e+00
2.305055e+01	-6.437095e+00
2.318369e+01	-6.475586e+00
2.331760e+01	-6.514681e+00
2.345228e+01	-6.553397e+00
2.358774e+01	-6.592745e+00
2.372398e+01	-6.631841e+00
2.386101e+01	-6.670737e+00
2.399883e+01	-6.709699e+00
2.413745e+01	-6.749495e+00
2.427686e+01	-6.789137e+00
2.441709e+01	-6.828610e+00
2.455812e+01	-6.867878e+00
2.469997e+01	-6.908031e+00
2.484263e+01	-6.947846e+00
2.498612e+01	-6.987779e+00
2.513044e+01	-7.028032e+00
2.527559e+01	-7.068239e+00
2.542158e+01	-7.108182e+00
2.556842e+01	-7.148610e+00
2.571610e+01	-7.189193e+00
2.586463e+01	-7.229693e+00
2.601403e+01	-7.270200e+00
2.616428e+01	-7.311105e+00
2.631541e+01	-7.351371e+00
2.646740e+01	-7.392385e+00
2.662028e+01	-7.433670e+00
2.677404e+01	-7.474226e+00
2.692868e+01	-7.515902e+00
2.708422e+01	-7.556902e+00
2.724066e+01	-7.598534e+00
2.739800e+01	-7.639467e+00
2.755625e+01	-7.680976e+00
2.771541e+01	-7.722502e+00
2.787550e+01	-7.764259e+00
2.803650e+01	-7.805629e+00
2.819844e+01	-7.847557e+00
2.836131e+01	-7.889316e+00
2.852513e+01	-7.931207e+00
2.868989e+01	-7.973414e+00
2.885560e+01	-8.014985e+00
2.902227e+01	-8.057254e+00
2.918990e+01	-8.099961e+00
2.935850e+01	-8.142476e+00
2.952807e+01	-8.184698e+00
2.969863e+01	-8.226979e+00
2.987016e+01	-8.269476e+00
3.004269e+01	-8.311570e+00
3.021622e+01	-8.354961e+00
3.039075e+01	-8.397810e+00
3.056628e+01	-8.440052e+00
3.074283e+01	-8.483425e+00
3.092040e+01	-8.526114e+00
3.109900e+01	-8.569234e+00
3.127862e+01	-8.612067e+00
3.145929e+01	-8.655672e+00
3.164099e+01	-8.698739e+00
3.182375e+01	-8.741626e+00
3.200756e+01	-8.785667e+00
3.219244e+01	-8.829324e+00
3.237838e+01	-8.872930e+00
3.256540e+01	-8.915901e+00
3.275349e+01	-8.959479e+00
3.294268e+01	-9.003047e+00
3.313295e+01	-9.047181e+00
3.332433e+01	-9.091218e+00
3.351681e+01	-9.135181e+00
3.371040e+01	-9.178673e+00
3.390511e+01	-9.222851e+00
3.410094e+01	-9.266655e+00
3.429791e+01	-9.311161e+00
3.449601e+01	-9.355062e+00
3.469526e+01	-9.399522e+00
3.489566e+01	-9.443768e+00
3.509721e+01	-9.488426e+00
3.529993e+01	-9.532974e+00
3.550382e+01	-9.577258e+00
3.570889e+01	-9.621632e+00
3.591515e+01	-9.666214e+00
3.612259e+01	-9.711191e+00
3.633123e+01	-9.755439e+00
3.654108e+01	-9.800489e+00
3.675214e+01	-9.845210e+00
3.696442e+01	-9.889966e+00
3.717792e+01	-9.935242e+00
3.739266e+01	-9.979705e+00
3.760864e+01	-1.002548e+01
3.782587e+01	-1.007015e+01
3.804435e+01	-1.011485e+01
3.826409e+01	-1.016001e+01
3.848510e+01	-1.020522e+01
3.870739e+01	-1.025110e+01
3.893096e+01	-1.029628e+01
3.915583e+01	-1.034158e+01
3.938199e+01	-1.038680e+01
3.960946e+01	-1.043201e+01
3.983824e+01	-1.047762e+01
4.006834e+01	-1.052376e+01
4.029978e+01	-1.056894e+01
4.053255e+01	-1.061521e+01
4.076666e+01	-1.066015e+01
4.100213e+01	-1.070678e+01
4.123896e+01	-1.075187e+01
4.147715e+01	-1.079828e+01
4.171672e+01	-1.084318e+01
4.195767e+01	-1.088979e+01
4.220002e+01	-1.093536e+01
4.244377e+01	-1.098196e+01
4.268892e+01	-1.102811e+01
4.293549e+01	-1.107357e+01
4.318348e+01	-1.112012e+01
4.343291e+01	-1.116630e+01
4.368377e+01	-1.121254e+01
4.393609e+01	-1.125898e+01
4.418986e+01	-1.130503e+01
4.444510e+01	-1.135104e+01
4.470182e+01	-1.139827e+01
4.496001e+01	-1.144482e+01
4.521970e+01	-1.149037e+01
4.548089e+01	-1.153705e+01
4.574358e+01	-1.158390e+01
4.600779e+01	-1.163023e+01
4.627353e+01	-1.167702e+01
4.654081e+01	-1.172285e+01
4.680963e+01	-1.177000e+01
4.708000e+01	-1.181715e+01
4.735193e+01	-1.186353e+01
4.762543e+01	-1.190991e+01
4.790051e+01	-1.195677e+01
4.817719e+01	-1.200406e+01
4.845545e+01	-1.205049e+01
4.873533e+01	-1.209735e+01
4.901682e+01	-1.214438e+01
4.929994e+01	-1.219231e+01
4.958470e+01	-1.223881e+01
4.987110e+01	-1.228615e+01
5.015915e+01	-1.233271e+01
5.044887e+01	-1.237989e+01
5.074026e+01	-1.242733e+01
5.103333e+01	-1.247399e+01
5.132810e+01	-1.252196e+01
5.162457e+01	-1.256946e+01
5.192275e+01	-1.261601e+01
5.222265e+01	-1.266321e+01
5.252429e+01	-1.271081e+01
5.282767e+01	-1.275812e+01
5.313280e+01	-1.280584e+01
5.343969e+01	-1.285319e+01
5.374836e+01	-1.290041e+01
5.405880e+01	-1.294777e+01
5.437105e+01	-1.299485e+01
5.468509e+01	-1.304241e+01
5.500095e+01	-1.309076e+01
5.531863e+01	-1.313828e+01
5.563815e+01	-1.318536e+01
5.595951e+01	-1.323319e+01
5.628273e+01	-1.328047e+01
5.660782e+01	-1.332916e+01
5.693479e+01	-1.337612e+01
5.726364e+01	-1.342377e+01
5.759439e+01	-1.347217e+01
5.792705e+01	-1.351961e+01
5.826164e+01	-1.356753e+01
5.859815e+01	-1.361575e+01
5.893662e+01	-1.366358e+01
5.927703e+01	-1.371150e+01
5.961941e+01	-1.375903e+01
5.996377e+01	-1.380722e+01
6.031012e+01	-1.385521e+01
6.065847e+01	-1.390276e+01
6.100883e+01	-1.395160e+01
6.136121e+01	-1.399871e+01
6.171563e+01	-1.404685e+01
6.207210e+01	-1.409549e+01
6.243063e+01	-1.414313e+01
6.279122e+01	-1.419127e+01
6.315390e+01	-1.423814e+01
6.351868e+01	-1.428706e+01
6.388556e+01	-1.433585e+01
6.425456e+01	-1.438372e+01
6.462569e+01	-1.443241e+01
6.499897e+01	-1.448031e+01
6.537440e+01	-1.452846e+01
6.575200e+01	-1.457686e+01
6.613178e+01	-1.462488e+01
6.651375e+01	-1.467374e+01
6.689793e+01	-1.472175e+01
6.728433e+01	-1.477071e+01
6.767297e+01	-1.481900e+01
6.806384e+01	-1.486690e+01
6.845698e+01	-1.491477e+01
6.885238e+01	-1.496275e+01
6.925007e+01	-1.501229e+01
6.965005e+01	-1.506108e+01
7.005235e+01	-1.510990e+01
7.045697e+01	-1.515745e+01
7.086393e+01	-1.520640e+01
7.127323e+01	-1.525499e+01
7.168490e+01	-1.530296e+01
7.209895e+01	-1.535059e+01
7.251539e+01	-1.540004e+01
7.293424e+01	-1.544901e+01
7.335551e+01	-1.549736e+01
7.377920e+01	-1.554595e+01
7.420535e+01	-1.559599e+01
7.463396e+01	-1.564363e+01
7.506504e+01	-1.569189e+01
7.549861e+01	-1.574143e+01
7.593469e+01	-1.578887e+01
7.637328e+01	-1.583845e+01
7.681441e+01	-1.588656e+01
7.725809e+01	-1.593661e+01
7.770433e+01	-1.598400e+01
7.815315e+01	-1.603428e+01
7.860456e+01	-1.608147e+01
7.905857e+01	-1.613073e+01
7.951521e+01	-1.617988e+01
7.997449e+01	-1.622811e+01
8.043642e+01	-1.627707e+01
8.090102e+01	-1.632642e+01
8.136830e+01	-1.637543e+01
8.183828e+01	-1.642465e+01
8.231097e+01	-1.647230e+01
8.278640e+01	-1.652099e+01
8.326457e+01	-1.657086e+01
8.374550e+01	-1.661946e+01
8.422921e+01	-1.666812e+01
8.471572e+01	-1.671787e+01
8.520503e+01	-1.676726e+01
8.569717e+01	-1.681585e+01
8.619215e+01	-1.686515e+01
8.669000e+01	-1.691415e+01
8.719071e+01	-1.696304e+01
8.769432e+01	-1.701091e+01
8.820084e+01	-1.706011e+01
8.871029e+01	-1.710895e+01
8.922267e+01	-1.715907e+01
8.973802e+01	-1.720797e+01
9.025634e+01	-1.725708e+01
9.077766e+01	-1.730571e+01
9.130199e+01	-1.735431e+01
9.182935e+01	-1.740516e+01
9.235975e+01	-1.745294e+01
9.289321e+01	-1.750209e+01
9.342976e+01	-1.755099e+01
9.396941e+01	-1.760023e+01
9.451217e+01	-1.765153e+01
9.505807e+01	-1.769852e+01
9.560712e+01	-1.774728e+01
9.615934e+01	-1.779646e+01
9.671476e+01	-1.784561e+01
9.727338e+01	-1.789464e+01
9.783522e+01	-1.794592e+01
9.840032e+01	-1.799361e+01
9.896867e+01	-1.804397e+01
9.954031e+01	-1.809334e+01
1.001153e+02	-1.814287e+01
1.006935e+02	-1.819223e+01
1.012751e+02	-1.824065e+01
1.018601e+02	-1.829044e+01
1.024484e+02	-1.833929e+01
1.030402e+02	-1.838861e+01
1.036353e+02	-1.843870e+01
1.042339e+02	-1.848745e+01
1.048360e+02	-1.853567e+01
1.054415e+02	-1.858577e+01
1.060505e+02	-1.863524e+01
1.066631e+02	-1.868417e+01
1.072791e+02	-1.873422e+01
1.078988e+02	-1.878318e+01
1.085220e+02	-1.883237e+01
1.091488e+02	-1.888181e+01
1.097793e+02	-1.893187e+01
1.104133e+02	-1.898094e+01
1.110511e+02	-1.903139e+01
1.116925e+02	-1.907974e+01
1.123376e+02	-1.912829e+01
1.129865e+02	-1.917754e+01
1.136391e+02	-1.922722e+01
1.142955e+02	-1.927730e+01
1.149556e+02	-1.932757e+01
1.156196e+02	-1.937589e+01
1.162874e+02	-1.942471e+01
1.169591e+02	-1.947567e+01
1.176347e+02	-1.952308e+01
1.183141e+02	-1.957349e+01
1.189975e+02	-1.962229e+01
1.196848e+02	-1.967277e+01
1.203761e+02	-1.972258e+01
1.210714e+02	-1.977245e+01
1.217707e+02	-1.982112e+01
1.224740e+02	-1.987258e+01
1.231814e+02	-1.992062e+01
1.238929e+02	-1.997040e+01
1.246085e+02	-2.001943e+01
1.253283e+02	-2.006954e+01
1.260522e+02	-2.011781e+01
1.267802e+02	-2.016883e+01
1.275125e+02	-2.021620e+01
1.282490e+02	-2.026733e+01
1.289898e+02	-2.031698e+01
1.297348e+02	-2.036624e+01
1.304842e+02	-2.041661e+01
1.312378e+02	-2.046514e+01
1.319959e+02	-2.051534e+01
1.327583e+02	-2.056638e+01
1.335251e+02	-2.061475e+01
1.342963e+02	-2.066500e+01
1.350720e+02	-2.071401e+01
1.358522e+02	-2.076376e+01
1.366368e+02	-2.081219e+01
1.374260e+02	-2.086466e+01
1.382198e+02	-2.091315e+01
1.390182e+02	-2.096304e+01
1.398211e+02	-2.101158e+01
1.406287e+02	-2.105940e+01
1.414410e+02	-2.111096e+01
1.422579e+02	-2.116291e+01
1.430796e+02	-2.120887e+01
1.439060e+02	-2.125784e+01
1.447372e+02	-2.130978e+01
1.455732e+02	-2.135773e+01
1.464141e+02	-2.140894e+01
1.472597e+02	-2.146125e+01
1.481103e+02	-2.150744e+01
1.489658e+02	-2.155931e+01
1.498262e+02	-2.160853e+01
1.506916e+02	-2.165806e+01
1.515620e+02	-2.170678e+01
1.524374e+02	-2.175699e+01
1.533179e+02	-2.180659e+01
1.542034e+02	-2.185866e+01
1.550941e+02	-2.190611e+01
1.559899e+02	-2.195399e+01
1.568909e+02	-2.200476e+01
1.577971e+02	-2.205474e+01
1.587085e+02	-2.210409e+01
1.596252e+02	-2.215376e+01
1.605472e+02	-2.220624e+01
1.614745e+02	-2.225315e+01
1.624072e+02	-2.230400e+01
1.633453e+02	-2.235232e+01
1.642887e+02	-2.240353e+01
1.652377e+02	-2.245172e+01
1.661921e+02	-2.250323e+01
1.671520e+02	-2.255026e+01
1.681175e+02	-2.260113e+01
1.690885e+02	-2.265232e+01
1.700651e+02	-2.270159e+01
1.710474e+02	-2.275210e+01
1.720354e+02	-2.280283e+01
1.730291e+02	-2.285224e+01
1.740285e+02	-2.289915e+01
1.750337e+02	-2.295228e+01
1.760446e+02	-2.300028e+01
1.770615e+02	-2.305021e+01
1.780842e+02	-2.309933e+01
1.791128e+02	-2.315138e+01
1.801473e+02	-2.319764e+01
1.811878e+02	-2.324629e+01
1.822344e+02	-2.329946e+01
1.832870e+02	-2.335290e+01
1.843456e+02	-2.339998e+01
1.854104e+02	-2.344701e+01
1.864813e+02	-2.349870e+01
1.875584e+02	-2.355079e+01
1.886418e+02	-2.359716e+01
1.897313e+02	-2.364885e+01
1.908272e+02	-2.369733e+01
1.919294e+02	-2.374938e+01
1.930380e+02	-2.379681e+01
1.941530e+02	-2.384921e+01
1.952744e+02	-2.389698e+01
1.964023e+02	-2.395018e+01
1.975367e+02	-2.399699e+01
1.986777e+02	-2.404572e+01
1.998252e+02	-2.409586e+01
2.009794e+02	-2.414720e+01
2.021403e+02	-2.419880e+01
2.033078e+02	-2.424767e+01
2.044821e+02	-2.429731e+01
2.056632e+02	-2.434702e+01
2.068511e+02	-2.439529e+01
2.080459e+02	-2.444757e+01
2.092475e+02	-2.449678e+01
2.104561e+02	-2.454625e+01
2.116717e+02	-2.459627e+01
2.128943e+02	-2.464629e+01
2.141240e+02	-2.469551e+01
2.153608e+02	-2.474834e+01
2.166047e+02	-2.479516e+01
2.178558e+02	-2.484348e+01
2.191141e+02	-2.489370e+01
2.203797e+02	-2.494387e+01
2.216526e+02	-2.499580e+01
2.229329e+02	-2.504459e+01
2.242205e+02	-2.509511e+01
2.255156e+02	-2.514606e+01
2.268182e+02	-2.519383e+01
2.281283e+02	-2.524620e+01
2.294459e+02	-2.529714e+01
2.307712e+02	-2.534465e+01
2.321041e+02	-2.539364e+01
2.334447e+02	-2.544691e+01
2.347931e+02	-2.549507e+01
2.361493e+02	-2.554353e+01
2.375133e+02	-2.559255e+01
2.388851e+02	-2.563992e+01
2.402649e+02	-2.569596e+01
2.416527e+02	-2.574409e+01
2.430484e+02	-2.579300e+01
2.444523e+02	-2.584576e+01
2.458642e+02	-2.588917e+01
2.472843e+02	-2.594359e+01
2.487126e+02	-2.599170e+01
2.501492e+02	-2.604365e+01
2.515940e+02	-2.609304e+01
2.530472e+02	-2.614033e+01
2.545088e+02	-2.619084e+01
2.559789e+02	-2.624439e+01
2.574574e+02	-2.629376e+01
2.589444e+02	-2.634329e+01
2.604401e+02	-2.639224e+01
2.619444e+02	-2.644507e+01
2.634574e+02	-2.649284e+01
2.649791e+02	-2.654158e+01
2.665096e+02	-2.659296e+01
2.680489e+02	-2.664468e+01
2.695972e+02	-2.669590e+01
2.711544e+02	-2.674252e+01
2.727205e+02	-2.679461e+01
2.742958e+02	-2.684166e+01
2.758801e+02	-2.689558e+01
2.774736e+02	-2.694304e+01
2.790762e+02	-2.699625e+01
2.806882e+02	-2.704370e+01
2.823094e+02	-2.709201e+01
2.839400e+02	-2.714573e+01
2.855800e+02	-2.719099e+01
2.872295e+02	-2.724412e+01
2.888886e+02	-2.729098e+01
2.905572e+02	-2.734499e+01
2.922354e+02	-2.739475e+01
2.939234e+02	-2.744096e+01
2.956211e+02	-2.749276e+01
2.973286e+02	-2.754130e+01
2.990459e+02	-2.759618e+01
3.007732e+02	-2.764134e+01
3.025104e+02	-2.768911e+01
3.042577e+02	-2.774366e+01
3.060151e+02	-2.779598e+01
3.077826e+02	-2.784232e+01
3.095604e+02	-2.788906e+01
3.113484e+02	-2.794380e+01
3.131467e+02	-2.799231e+01
3.149554e+02	-2.804475e+01
3.167746e+02	-2.809196e+01
3.186043e+02	-2.814192e+01
3.204445e+02	-2.819647e+01
3.222954e+02	-2.824311e+01
3.241570e+02	-2.829109e+01
3.260293e+02	-2.834405e+01
3.279124e+02	-2.839529e+01
3.298064e+02	-2.844095e+01
3.317114e+02	-2.849390e+01
3.336273e+02	-2.854393e+01
3.355544e+02	-2.859419e+01
3.374925e+02	-2.864471e+01
3.394418e+02	-2.869255e+01
3.414024e+02	-2.874396e+01
3.433744e+02	-2.879297e+01
3.453577e+02	-2.884456e+01
3.473525e+02	-2.889269e+01
3.493588e+02	-2.894244e+01
3.513766e+02	-2.899705e+01
3.534062e+02	-2.904137e+01
3.554474e+02	-2.909069e+01
3.575005e+02	-2.914585e+01
3.595654e+02	-2.919286e+01
3.616422e+02	-2.924333e+01
3.637311e+02	-2.929167e+01
3.658320e+02	-2.934519e+01
3.679450e+02	-2.939443e+01
3.700702e+02	-2.944016e+01
3.722077e+02	-2.949558e+01
3.743576e+02	-2.954304e+01
3.765199e+02	-2.959112e+01
3.786946e+02	-2.964743e+01
3.808820e+02	-2.969074e+01
3.830819e+02	-2.974633e+01
3.852946e+02	-2.979826e+01
3.875200e+02	-2.984464e+01
3.897583e+02	-2.989545e+01
3.920096e+02	-2.994894e+01
3.942738e+02	-2.999336e+01
3.965511e+02	-3.004704e+01
3.988416e+02	-3.009223e+01
4.011452e+02	-3.014378e+01
4.034622e+02	-3.019611e+01
4.057926e+02	-3.024426e+01
4.081365e+02	-3.029629e+01
4.104938e+02	-3.034719e+01
4.128648e+02	-3.039624e+01
4.152495e+02	-3.044387e+01
4.176480e+02	-3.049281e+01
4.200603e+02	-3.054506e+01
4.224866e+02	-3.059784e+01
4.249268e+02	-3.064090e+01
4.273812e+02	-3.069922e+01
4.298497e+02	-3.074726e+01
4.323325e+02	-3.079486e+01
4.348297e+02	-3.084412e+01
4.373412e+02	-3.090052e+01
4.398673e+02	-3.094605e+01
4.424079e+02	-3.099682e+01
4.449633e+02	-3.104856e+01
4.475334e+02	-3.109597e+01
4.501183e+02	-3.114452e+01
4.527182e+02	-3.119562e+01
4.553330e+02	-3.125503e+01
4.579630e+02	-3.129751e+01
4.606082e+02	-3.135337e+01
4.632687e+02	-3.140042e+01
4.659445e+02	-3.144325e+01
4.686358e+02	-3.149800e+01
4.713426e+02	-3.155109e+01
4.740650e+02	-3.159720e+01
4.768032e+02	-3.164862e+01
4.795572e+02	-3.169202e+01
4.823271e+02	-3.175151e+01
4.851130e+02	-3.180281e+01
4.879150e+02	-3.185061e+01
4.907332e+02	-3.190477e+01
4.935676e+02	-3.194817e+01
4.964185e+02	-3.199662e+01
4.992858e+02	-3.205362e+01
5.021696e+02	-3.210176e+01
5.050701e+02	-3.214960e+01
5.079874e+02	-3.219719e+01
5.109215e+02	-3.224979e+01
5.138726e+02	-3.230209e+01
5.168407e+02	-3.234930e+01
5.198259e+02	-3.240242e+01
5.228284e+02	-3.244582e+01
5.258482e+02	-3.250388e+01
5.288855e+02	-3.255395e+01
5.319403e+02	-3.260368e+01
5.350128e+02	-3.265587e+01
5.381030e+02	-3.270844e+01
5.412111e+02	-3.275417e+01
5.443371e+02	-3.279876e+01
5.474812e+02	-3.285892e+01
5.506434e+02	-3.289981e+01
5.538239e+02	-3.295098e+01
5.570228e+02	-3.300544e+01
5.602401e+02	-3.305942e+01
5.634760e+02	-3.310028e+01
5.667306e+02	-3.315561e+01
5.700040e+02	-3.320785e+01
5.732964e+02	-3.324877e+01
5.766077e+02	-3.330307e+01
5.799382e+02	-3.335498e+01
5.832879e+02	-3.341219e+01
5.866569e+02	-3.346136e+01
5.900454e+02	-3.350936e+01
5.934535e+02	-3.355896e+01
5.968813e+02	-3.360812e+01
6.003288e+02	-3.366149e+01
6.037963e+02	-3.370595e+01
6.072838e+02	-3.375380e+01
6.107914e+02	-3.380708e+01
6.143194e+02	-3.386444e+01
6.178676e+02	-3.390999e+01
6.214364e+02	-3.395728e+01
6.250258e+02	-3.401039e+01
6.286359e+02	-3.405865e+01
6.322669e+02	-3.411533e+01
6.359189e+02	-3.415847e+01
6.395919e+02	-3.421178e+01
6.432862e+02	-3.426010e+01
6.470017e+02	-3.430798e+01
6.507388e+02	-3.436293e+01
6.544974e+02	-3.442196e+01
6.582778e+02	-3.445997e+01
6.620800e+02	-3.451177e+01
6.659041e+02	-3.455442e+01
6.697504e+02	-3.461334e+01
6.736188e+02	-3.466566e+01
6.775096e+02	-3.472143e+01
6.814229e+02	-3.477002e+01
6.853587e+02	-3.482456e+01
6.893173e+02	-3.486346e+01
6.932988e+02	-3.491338e+01
6.973033e+02	-3.497397e+01
7.013309e+02	-3.501924e+01
