Frequency(Hz)	Magnitude(dB)
1.000000e+01	-2.176156e+00
1.005776e+01	-2.196148e+00
1.011585e+01	-2.216095e+00
1.017428e+01	-2.236080e+00
1.023305e+01	-2.256235e+00
1.029215e+01	-2.276757e+00
1.035160e+01	-2.297343e+00
1.041139e+01	-2.317876e+00
1.047153e+01	-2.338428e+00
1.053201e+01	-2.359503e+00
1.059284e+01	-2.380420e+00
1.065403e+01	-2.401642e+00
1.071556e+01	-2.423098e+00
1.077746e+01	-2.444423e+00
1.083971e+01	-2.466032e+00
1.090232e+01	-2.488113e+00
1.096529e+01	-2.509673e+00
1.102862e+01	-2.531713e+00
1.109232e+01	-2.553959e+00
1.115639e+01	-2.576148e+00
1.122083e+01	-2.598471e+00
1.128564e+01	-2.621138e+00
1.135083e+01	-2.643979e+00
1.141639e+01	-2.666889e+00
1.148233e+01	-2.689777e+00
1.154865e+01	-2.712916e+00
1.161536e+01	-2.736290e+00
1.168245e+01	-2.759833e+00
1.174992e+01	-2.783442e+00
1.181779e+01	-2.806929e+00
1.188605e+01	-2.831200e+00
1.195470e+01	-2.855155e+00
1.202375e+01	-2.879138e+00
1.209320e+01	-2.903629e+00
1.216305e+01	-2.928235e+00
1.223330e+01	-2.952527e+00
1.230396e+01	-2.977537e+00
1.237503e+01	-3.002226e+00
1.244651e+01	-3.027369e+00
1.251840e+01	-3.052717e+00
1.259070e+01	-3.077685e+00
1.266343e+01	-3.103453e+00
1.273657e+01	-3.128805e+00
1.281014e+01	-3.154396e+00
1.288413e+01	-3.180428e+00
1.295855e+01	-3.206597e+00
1.303339e+01	-3.232743e+00
1.310867e+01	-3.258932e+00
1.318439e+01	-3.285484e+00
1.326054e+01	-3.312086e+00
1.333713e+01	-3.339194e+00
1.341417e+01	-3.365974e+00
1.349165e+01	-3.392921e+00
1.356958e+01	-3.419996e+00
1.364795e+01	-3.447410e+00
1.372678e+01	-3.474940e+00
1.380607e+01	-3.502368e+00
1.388581e+01	-3.530354e+00
1.396602e+01	-3.558017e+00
1.404668e+01	-3.586421e+00
1.412782e+01	-3.614450e+00
1.420942e+01	-3.642804e+00
1.429149e+01	-3.671321e+00
1.437404e+01	-3.699734e+00
1.445706e+01	-3.728645e+00
1.454057e+01	-3.757596e+00
1.462455e+01	-3.786445e+00
1.470902e+01	-3.815703e+00
1.479398e+01	-3.844917e+00
1.487943e+01	-3.874861e+00
1.496537e+01	-3.904261e+00
1.505181e+01	-3.934052e+00
1.513875e+01	-3.963822e+00
1.522619e+01	-3.993683e+00
1.531414e+01	-4.023876e+00
1.540259e+01	-4.053999e+00
1.549156e+01	-4.084350e+00
1.558103e+01	-4.115244e+00
1.567103e+01	-4.145829e+00
1.576155e+01	-4.176871e+00
1.585258e+01	-4.207659e+00
1.594415e+01	-4.238560e+00
1.603624e+01	-4.269894e+00
1.612886e+01	-4.301487e+00
1.622202e+01	-4.332982e+00
1.631572e+01	-4.364494e+00
1.640996e+01	-4.396531e+00
1.650474e+01	-4.428114e+00
1.660008e+01	-4.460395e+00
1.669596e+01	-4.492691e+00
1.679239e+01	-4.524854e+00
1.688938e+01	-4.557414e+00
1.698694e+01	-4.589747e+00
1.708505e+01	-4.622600e+00
1.718373e+01	-4.655408e+00
1.728299e+01	-4.688300e+00
1.738281e+01	-4.721599e+00
1.748322e+01	-4.754342e+00
1.758420e+01	-4.788019e+00
1.768576e+01	-4.821480e+00
1.778792e+01	-4.855160e+00
1.789066e+01	-4.888829e+00
1.799399e+01	-4.922524e+00
1.809793e+01	-4.956762e+00
1.820246e+01	-4.990597e+00
1.830760e+01	-5.025102e+00
1.841334e+01	-5.059147e+00
1.851969e+01	-5.093690e+00
1.862666e+01	-5.128578e+00
1.873425e+01	-5.163106e+00
1.884246e+01	-5.198178e+00
1.895129e+01	-5.233079e+00
1.906075e+01	-5.267976e+00
1.917085e+01	-5.303539e+00
1.928158e+01	-5.338366e+00
1.939295e+01	-5.373813e+00
1.950496e+01	-5.409401e+00
1.961762e+01	-5.445257e+00
1.973093e+01	-5.481128e+00
1.984490e+01	-5.517218e+00
1.995952e+01	-5.552995e+00
2.007480e+01	-5.589174e+00
2.019076e+01	-5.625619e+00
2.030738e+01	-5.661928e+00
2.042467e+01	-5.698403e+00
2.054264e+01	-5.735002e+00
2.066130e+01	-5.771616e+00
2.078064e+01	-5.808594e+00
2.090066e+01	-5.845298e+00
2.102139e+01	-5.882832e+00
2.114280e+01	-5.919852e+00
2.126492e+01	-5.956999e+00
2.138775e+01	-5.994705e+00
2.151128e+01	-6.032107e+00
2.163553e+01	-6.069697e+00
2.176050e+01	-6.107331e+00
2.188619e+01	-6.145096e+00
2.201260e+01	-6.182860e+00
2.213974e+01	-6.221077e+00
2.226762e+01	-6.258985e+00
2.239624e+01	-6.297404e+00
2.252560e+01	-6.335330e+00
2.265571e+01	-6.373945e+00
2.278656e+01	-6.412787e+00
2.291818e+01	-6.451350e+00
2.305055e+01	-6.490060e+00
2.318369e+01	-6.529083e+00
2.331760e+01	-6.568090e+00
2.345228e+01	-6.607075e+00
2.358774e+01	-6.646141e+00
2.372398e+01	-6.685131e+00
2.386101e+01	-6.724799e+00
2.399883e+01	-6.764339e+00
2.413745e+01	-6.803531e+00
2.427686e+01	-6.843527e+00
2.441709e+01	-6.883438e+00
2.455812e+01	-6.922852e+00
2.469997e+01	-6.963175e+00
2.484263e+01	-7.002654e+00
2.498612e+01	-7.043012e+00
2.513044e+01	-7.083458e+00
2.527559e+01	-7.123845e+00
2.542158e+01	-7.163678e+00
2.556842e+01	-7.204486e+00
2.571610e+01	-7.244810e+00
2.586463e+01	-7.285648e+00
2.601403e+01	-7.325930e+00
2.616428e+01	-7.366943e+00
2.631541e+01	-7.407689e+00
2.646740e+01	-7.448779e+00
2.662028e+01	-7.489868e+00
2.677404e+01	-7.530719e+00
2.692868e+01	-7.572186e+00
2.708422e+01	-7.613310e+00
2.724066e+01	-7.654811e+00
2.739800e+01	-7.696694e+00
2.755625e+01	-7.738130e+00
2.771541e+01	-7.779746e+00
2.787550e+01	-7.820956e+00
2.803650e+01	-7.862968e+00
2.819844e+01	-7.905399e+00
2.836131e+01	-7.947151e+00
2.852513e+01	-7.989072e+00
2.868989e+01	-8.030943e+00
2.885560e+01	-8.073463e+00
2.902227e+01	-8.115583e+00
2.918990e+01	-8.157690e+00
2.935850e+01	-8.200426e+00
2.952807e+01	-8.243032e+00
2.969863e+01	-8.285348e+00
2.987016e+01	-8.328089e+00
3.004269e+01	-8.371258e+00
3.021622e+01	-8.413591e+00
3.039075e+01	-8.456418e+00
3.056628e+01	-8.499187e+00
3.074283e+01	-8.542592e+00
3.092040e+01	-8.585176e+00
3.109900e+01	-8.628101e+00
3.127862e+01	-8.671707e+00
3.145929e+01	-8.714769e+00
3.164099e+01	-8.758714e+00
3.182375e+01	-8.801508e+00
3.200756e+01	-8.844865e+00
3.219244e+01	-8.888539e+00
3.237838e+01	-8.932428e+00
3.256540e+01	-8.975748e+00
3.275349e+01	-9.019681e+00
3.294268e+01	-9.063638e+00
3.313295e+01	-9.107404e+00
3.332433e+01	-9.151292e+00
3.351681e+01	-9.195338e+00
3.371040e+01	-9.239149e+00
3.390511e+01	-9.283489e+00
3.410094e+01	-9.327370e+00
3.429791e+01	-9.371944e+00
3.449601e+01	-9.416010e+00
3.469526e+01	-9.460619e+00
3.489566e+01	-9.504035e+00
3.509721e+01	-9.549367e+00
3.529993e+01	-9.593461e+00
3.550382e+01	-9.638359e+00
3.570889e+01	-9.682715e+00
3.591515e+01	-9.727605e+00
3.612259e+01	-9.772415e+00
3.633123e+01	-9.817292e+00
3.654108e+01	-9.861622e+00
3.675214e+01	-9.906337e+00
3.696442e+01	-9.952101e+00
3.717792e+01	-9.996500e+00
3.739266e+01	-1.004193e+01
3.760864e+01	-1.008690e+01
3.782587e+01	-1.013227e+01
3.804435e+01	-1.017681e+01
3.826409e+01	-1.022324e+01
3.848510e+01	-1.026763e+01
3.870739e+01	-1.031276e+01
3.893096e+01	-1.035909e+01
3.915583e+01	-1.040367e+01
3.938199e+01	-1.044945e+01
3.960946e+01	-1.049496e+01
3.983824e+01	-1.054031e+01
4.006834e+01	-1.058620e+01
4.029978e+01	-1.063153e+01
4.053255e+01	-1.067738e+01
4.076666e+01	-1.072283e+01
4.100213e+01	-1.076878e+01
4.123896e+01	-1.081512e+01
4.147715e+01	-1.086078e+01
4.171672e+01	-1.090672e+01
4.195767e+01	-1.095246e+01
4.220002e+01	-1.099859e+01
4.244377e+01	-1.104519e+01
4.268892e+01	-1.109089e+01
4.293549e+01	-1.113768e+01
4.318348e+01	-1.118326e+01
4.343291e+01	-1.122983e+01
4.368377e+01	-1.127595e+01
4.393609e+01	-1.132245e+01
4.418986e+01	-1.136866e+01
4.444510e+01	-1.141538e+01
4.470182e+01	-1.146117e+01
4.496001e+01	-1.150841e+01
4.521970e+01	-1.155415e+01
4.548089e+01	-1.160021e+01
4.574358e+01	-1.164770e+01
4.600779e+01	-1.169379e+01
4.627353e+01	-1.173998e+01
4.654081e+01	-1.178717e+01
4.680963e+01	-1.183424e+01
4.708000e+01	-1.188100e+01
4.735193e+01	-1.192774e+01
4.762543e+01	-1.197481e+01
4.790051e+01	-1.202104e+01
4.817719e+01	-1.206869e+01
4.845545e+01	-1.211574e+01
4.873533e+01	-1.216236e+01
4.901682e+01	-1.220901e+01
4.929994e+01	-1.225648e+01
4.958470e+01	-1.230378e+01
4.987110e+01	-1.235145e+01
5.015915e+01	-1.239740e+01
5.044887e+01	-1.244502e+01
5.074026e+01	-1.249178e+01
5.103333e+01	-1.253997e+01
5.132810e+01	-1.258626e+01
5.162457e+01	-1.263385e+01
5.192275e+01	-1.268167e+01
5.222265e+01	-1.272840e+01
5.252429e+01	-1.277567e+01
5.282767e+01	-1.282314e+01
5.313280e+01	-1.287116e+01
5.343969e+01	-1.291798e+01
5.374836e+01	-1.296573e+01
5.405880e+01	-1.301276e+01
5.437105e+01	-1.306027e+01
5.468509e+01	-1.310802e+01
5.500095e+01	-1.315626e+01
5.531863e+01	-1.320344e+01
5.563815e+01	-1.325111e+01
5.595951e+01	-1.329880e+01
5.628273e+01	-1.334645e+01
5.660782e+01	-1.339445e+01
5.693479e+01	-1.344216e+01
5.726364e+01	-1.348971e+01
5.759439e+01	-1.353768e+01
5.792705e+01	-1.358469e+01
5.826164e+01	-1.363200e+01
5.859815e+01	-1.368117e+01
5.893662e+01	-1.372888e+01
5.927703e+01	-1.377760e+01
5.961941e+01	-1.382548e+01
5.996377e+01	-1.387340e+01
6.031012e+01	-1.392162e+01
6.065847e+01	-1.396829e+01
6.100883e+01	-1.401807e+01
6.136121e+01	-1.406512e+01
6.171563e+01	-1.411239e+01
6.207210e+01	-1.416136e+01
6.243063e+01	-1.420867e+01
6.279122e+01	-1.425719e+01
6.315390e+01	-1.430508e+01
6.351868e+01	-1.435329e+01
6.388556e+01	-1.440133e+01
6.425456e+01	-1.445038e+01
6.462569e+01	-1.449932e+01
6.499897e+01	-1.454689e+01
6.537440e+01	-1.459434e+01
6.575200e+01	-1.464292e+01
6.613178e+01	-1.469137e+01
6.651375e+01	-1.473902e+01
6.689793e+01	-1.478745e+01
6.728433e+01	-1.483659e+01
6.767297e+01	-1.488456e+01
6.806384e+01	-1.493329e+01
6.845698e+01	-1.498192e+01
6.885238e+01	-1.502971e+01
6.925007e+01	-1.507848e+01
6.965005e+01	-1.512693e+01
7.005235e+01	-1.517498e+01
7.045697e+01	-1.522332e+01
7.086393e+01	-1.527325e+01
7.127323e+01	-1.532138e+01
7.168490e+01	-1.536961e+01
7.209895e+01	-1.541898e+01
7.251539e+01	-1.546651e+01
7.293424e+01	-1.551470e+01
7.335551e+01	-1.556447e+01
7.377920e+01	-1.561305e+01
7.420535e+01	-1.566161e+01
7.463396e+01	-1.571034e+01
7.506504e+01	-1.575873e+01
7.549861e+01	-1.580756e+01
7.593469e+01	-1.585663e+01
7.637328e+01	-1.590510e+01
7.681441e+01	-1.595424e+01
7.725809e+01	-1.600219e+01
7.770433e+01	-1.605112e+01
7.815315e+01	-1.610007e+01
7.860456e+01	-1.614812e+01
7.905857e+01	-1.619760e+01
7.951521e+01	-1.624655e+01
7.997449e+01	-1.629635e+01
8.043642e+01	-1.634445e+01
8.090102e+01	-1.639229e+01
8.136830e+01	-1.644310e+01
8.183828e+01	-1.649109e+01
8.231097e+01	-1.653938e+01
8.278640e+01	-1.658840e+01
8.326457e+01	-1.663723e+01
8.374550e+01	-1.668683e+01
8.422921e+01	-1.673694e+01
8.471572e+01	-1.678564e+01
8.520503e+01	-1.683378e+01
8.569717e+01	-1.688325e+01
8.619215e+01	-1.693176e+01
8.669000e+01	-1.698012e+01
8.719071e+01	-1.702948e+01
8.769432e+01	-1.707774e+01
8.820084e+01	-1.712900e+01
8.871029e+01	-1.717765e+01
8.922267e+01	-1.722538e+01
8.973802e+01	-1.727595e+01
9.025634e+01	-1.732395e+01
9.077766e+01	-1.737425e+01
9.130199e+01	-1.742274e+01
9.182935e+01	-1.747285e+01
9.235975e+01	-1.752076e+01
9.289321e+01	-1.756998e+01
9.342976e+01	-1.761845e+01
9.396941e+01	-1.766826e+01
9.451217e+01	-1.771772e+01
9.505807e+01	-1.776722e+01
9.560712e+01	-1.781535e+01
9.615934e+01	-1.786434e+01
9.671476e+01	-1.791436e+01
9.727338e+01	-1.796208e+01
9.783522e+01	-1.801276e+01
9.840032e+01	-1.806151e+01
9.896867e+01	-1.811174e+01
9.954031e+01	-1.815996e+01
1.001153e+02	-1.820806e+01
1.006935e+02	-1.825913e+01
1.012751e+02	-1.830738e+01
1.018601e+02	-1.835766e+01
1.024484e+02	-1.840606e+01
1.030402e+02	-1.845646e+01
1.036353e+02	-1.850584e+01
1.042339e+02	-1.855480e+01
1.048360e+02	-1.860320e+01
1.054415e+02	-1.865330e+01
1.060505e+02	-1.870175e+01
1.066631e+02	-1.875290e+01
1.072791e+02	-1.880229e+01
1.078988e+02	-1.885091e+01
1.085220e+02	-1.890070e+01
1.091488e+02	-1.895010e+01
1.097793e+02	-1.899874e+01
1.104133e+02	-1.904804e+01
1.110511e+02	-1.909869e+01
1.116925e+02	-1.914844e+01
1.123376e+02	-1.919676e+01
1.129865e+02	-1.924557e+01
1.136391e+02	-1.929759e+01
1.142955e+02	-1.934560e+01
1.149556e+02	-1.939294e+01
1.156196e+02	-1.944521e+01
1.162874e+02	-1.949283e+01
1.169591e+02	-1.954260e+01
1.176347e+02	-1.959235e+01
1.183141e+02	-1.964207e+01
1.189975e+02	-1.969104e+01
1.196848e+02	-1.974095e+01
1.203761e+02	-1.979135e+01
1.210714e+02	-1.984039e+01
1.217707e+02	-1.989067e+01
1.224740e+02	-1.993930e+01
1.231814e+02	-1.998956e+01
1.238929e+02	-2.003778e+01
1.246085e+02	-2.008899e+01
1.253283e+02	-2.013744e+01
1.260522e+02	-2.018755e+01
1.267802e+02	-2.023650e+01
1.275125e+02	-2.028543e+01
1.282490e+02	-2.033447e+01
1.289898e+02	-2.038374e+01
1.297348e+02	-2.043409e+01
1.304842e+02	-2.048515e+01
1.312378e+02	-2.053495e+01
1.319959e+02	-2.058470e+01
1.327583e+02	-2.063385e+01
1.335251e+02	-2.068349e+01
1.342963e+02	-2.073318e+01
1.350720e+02	-2.078078e+01
1.358522e+02	-2.083281e+01
1.366368e+02	-2.087945e+01
1.374260e+02	-2.093071e+01
1.382198e+02	-2.098137e+01
1.390182e+02	-2.103027e+01
1.398211e+02	-2.107848e+01
1.406287e+02	-2.113011e+01
1.414410e+02	-2.117918e+01
1.422579e+02	-2.122951e+01
1.430796e+02	-2.127732e+01
1.439060e+02	-2.132731e+01
1.447372e+02	-2.137686e+01
1.455732e+02	-2.142794e+01
1.464141e+02	-2.147759e+01
1.472597e+02	-2.152671e+01
1.481103e+02	-2.157673e+01
1.489658e+02	-2.162612e+01
1.498262e+02	-2.167655e+01
1.506916e+02	-2.172415e+01
1.515620e+02	-2.177536e+01
1.524374e+02	-2.182690e+01
1.533179e+02	-2.187483e+01
1.542034e+02	-2.192482e+01
1.550941e+02	-2.197455e+01
1.559899e+02	-2.202457e+01
1.568909e+02	-2.207494e+01
1.577971e+02	-2.212302e+01
1.587085e+02	-2.217340e+01
1.596252e+02	-2.222286e+01
1.605472e+02	-2.227242e+01
1.614745e+02	-2.232437e+01
1.624072e+02	-2.237206e+01
1.633453e+02	-2.242265e+01
1.642887e+02	-2.247142e+01
1.652377e+02	-2.252239e+01
1.661921e+02	-2.257138e+01
1.671520e+02	-2.262202e+01
1.681175e+02	-2.266975e+01
1.690885e+02	-2.272137e+01
1.700651e+02	-2.277283e+01
1.710474e+02	-2.282138e+01
1.720354e+02	-2.287053e+01
1.730291e+02	-2.292049e+01
1.740285e+02	-2.296839e+01
1.750337e+02	-2.301910e+01
1.760446e+02	-2.306961e+01
1.770615e+02	-2.311906e+01
1.780842e+02	-2.316685e+01
1.791128e+02	-2.322023e+01
1.801473e+02	-2.326871e+01
1.811878e+02	-2.331989e+01
1.822344e+02	-2.336773e+01
1.832870e+02	-2.341823e+01
1.843456e+02	-2.346706e+01
1.854104e+02	-2.351879e+01
1.864813e+02	-2.356771e+01
1.875584e+02	-2.361892e+01
1.886418e+02	-2.366636e+01
1.897313e+02	-2.371651e+01
1.908272e+02	-2.376790e+01
1.919294e+02	-2.381692e+01
1.930380e+02	-2.386821e+01
1.941530e+02	-2.391260e+01
1.952744e+02	-2.396848e+01
1.964023e+02	-2.401364e+01
1.975367e+02	-2.406373e+01
1.986777e+02	-2.411430e+01
1.998252e+02	-2.416450e+01
2.009794e+02	-2.421334e+01
2.021403e+02	-2.426643e+01
2.033078e+02	-2.431438e+01
2.044821e+02	-2.436506e+01
2.056632e+02	-2.441394e+01
2.068511e+02	-2.446671e+01
2.080459e+02	-2.451528e+01
2.092475e+02	-2.456443e+01
2.104561e+02	-2.461239e+01
2.116717e+02	-2.466671e+01
2.128943e+02	-2.471522e+01
2.141240e+02	-2.476521e+01
2.153608e+02	-2.481289e+01
2.166047e+02	-2.486357e+01
2.178558e+02	-2.491327e+01
2.191141e+02	-2.496310e+01
2.203797e+02	-2.501503e+01
2.216526e+02	-2.506455e+01
2.229329e+02	-2.511296e+01
2.242205e+02	-2.516423e+01
2.255156e+02	-2.521408e+01
2.268182e+02	-2.526513e+01
2.281283e+02	-2.531534e+01
2.294459e+02	-2.536246e+01
2.307712e+02	-2.541165e+01
2.321041e+02	-2.546410e+01
2.334447e+02	-2.551163e+01
2.347931e+02	-2.556320e+01
2.361493e+02	-2.561308e+01
2.375133e+02	-2.566026e+01
2.388851e+02	-2.571277e+01
2.402649e+02	-2.576347e+01
2.416527e+02	-2.581236e+01
2.430484e+02	-2.586265e+01
2.444523e+02	-2.591139e+01
2.458642e+02	-2.596581e+01
2.472843e+02	-2.601311e+01
2.487126e+02	-2.606323e+01
2.501492e+02	-2.611200e+01
2.515940e+02	-2.616315e+01
2.530472e+02	-2.621662e+01
2.545088e+02	-2.626441e+01
2.559789e+02	-2.631124e+01
2.574574e+02	-2.636472e+01
2.589444e+02	-2.640905e+01
2.604401e+02	-2.646070e+01
2.619444e+02	-2.650963e+01
2.634574e+02	-2.656412e+01
2.649791e+02	-2.661463e+01
2.665096e+02	-2.666286e+01
2.680489e+02	-2.670906e+01
2.695972e+02	-2.676248e+01
2.711544e+02	-2.681507e+01
2.727205e+02	-2.685865e+01
2.742958e+02	-2.690867e+01
2.758801e+02	-2.696100e+01
2.774736e+02	-2.701241e+01
2.790762e+02	-2.706305e+01
2.806882e+02	-2.711359e+01
2.823094e+02	-2.716095e+01
2.839400e+02	-2.721093e+01
2.855800e+02	-2.725995e+01
2.872295e+02	-2.731190e+01
2.888886e+02	-2.736049e+01
2.905572e+02	-2.741157e+01
2.922354e+02	-2.746097e+01
2.939234e+02	-2.751382e+01
2.956211e+02	-2.755989e+01
2.973286e+02	-2.760854e+01
2.990459e+02	-2.766377e+01
3.007732e+02	-2.770880e+01
3.025104e+02	-2.776328e+01
3.042577e+02	-2.781366e+01
3.060151e+02	-2.785987e+01
3.077826e+02	-2.791123e+01
3.095604e+02	-2.796109e+01
3.113484e+02	-2.801120e+01
3.131467e+02	-2.806096e+01
3.149554e+02	-2.811140e+01
3.167746e+02	-2.816392e+01
3.186043e+02	-2.821115e+01
3.204445e+02	-2.826434e+01
3.222954e+02	-2.831408e+01
3.241570e+02	-2.836517e+01
3.260293e+02	-2.841389e+01
3.279124e+02	-2.846412e+01
3.298064e+02	-2.851431e+01
3.317114e+02	-2.856321e+01
3.336273e+02	-2.861256e+01
3.355544e+02	-2.866236e+01
3.374925e+02	-2.871066e+01
3.394418e+02	-2.875994e+01
3.414024e+02	-2.881387e+01
3.433744e+02	-2.885950e+01
3.453577e+02	-2.891747e+01
3.473525e+02	-2.896205e+01
3.493588e+02	-2.900858e+01
3.513766e+02	-2.906319e+01
3.534062e+02	-2.911277e+01
3.554474e+02	-2.916530e+01
3.575005e+02	-2.921446e+01
3.595654e+02	-2.926429e+01
3.616422e+02	-2.931449e+01
3.637311e+02	-2.936599e+01
3.658320e+02	-2.941597e+01
3.679450e+02	-2.946106e+01
3.700702e+02	-2.951391e+01
3.722077e+02	-2.956135e+01
3.743576e+02	-2.961143e+01
3.765199e+02	-2.966453e+01
3.786946e+02	-2.971801e+01
3.808820e+02	-2.976364e+01
3.830819e+02	-2.981772e+01
3.852946e+02	-2.985902e+01
3.875200e+02	-2.991576e+01
3.897583e+02	-2.996770e+01
3.920096e+02	-3.001380e+01
3.942738e+02	-3.006447e+01
3.965511e+02	-3.011089e+01
3.988416e+02	-3.016297e+01
4.011452e+02	-3.021810e+01
4.034622e+02	-3.026688e+01
4.057926e+02	-3.031634e+01
4.081365e+02	-3.036986e+01
4.104938e+02	-3.041683e+01
4.128648e+02	-3.046993e+01
4.152495e+02	-3.051986e+01
4.176480e+02	-3.056341e+01
4.200603e+02	-3.061583e+01
4.224866e+02	-3.066351e+01
4.249268e+02	-3.071711e+01
4.273812e+02	-3.076636e+01
4.298497e+02	-3.081790e+01
4.323325e+02	-3.086767e+01
4.348297e+02	-3.092086e+01
4.373412e+02	-3.097587e+01
4.398673e+02	-3.101584e+01
4.424079e+02	-3.106599e+01
4.449633e+02	-3.110971e+01
4.475334e+02	-3.117038e+01
4.501183e+02	-3.121728e+01
4.527182e+02	-3.126982e+01
4.553330e+02	-3.131559e+01
4.579630e+02	-3.136470e+01
4.606082e+02	-3.141805e+01
4.632687e+02	-3.146644e+01
4.659445e+02	-3.151506e+01
4.686358e+02	-3.156698e+01
4.713426e+02	-3.161597e+01
4.740650e+02	-3.167052e+01
4.768032e+02	-3.171587e+01
4.795572e+02	-3.176631e+01
4.823271e+02	-3.182051e+01
4.851130e+02	-3.187122e+01
4.879150e+02	-3.192377e+01
4.907332e+02	-3.197704e+01
4.935676e+02	-3.201831e+01
4.964185e+02	-3.207064e+01
4.992858e+02	-3.211736e+01
5.021696e+02	-3.216553e+01
5.050701e+02	-3.222267e+01
5.079874e+02	-3.227021e+01
5.109215e+02	-3.232806e+01
5.138726e+02	-3.237636e+01
5.168407e+02	-3.242457e+01
5.198259e+02	-3.246667e+01
5.228284e+02	-3.253194e+01
5.258482e+02	-3.257846e+01
5.288855e+02	-3.262080e+01
5.319403e+02	-3.267276e+01
5.350128e+02	-3.272287e+01
5.381030e+02	-3.276950e+01
5.412111e+02	-3.282032e+01
5.443371e+02	-3.287509e+01
5.474812e+02	-3.292871e+01
5.506434e+02	-3.297690e+01
5.538239e+02	-3.302424e+01
5.570228e+02	-3.308335e+01
5.602401e+02	-3.312915e+01
5.634760e+02	-3.317113e+01
5.667306e+02	-3.322295e+01
5.700040e+02	-3.327592e+01
5.732964e+02	-3.331845e+01
5.766077e+02	-3.337442e+01
5.799382e+02	-3.343205e+01
5.832879e+02	-3.347550e+01
5.866569e+02	-3.353677e+01
5.900454e+02	-3.358095e+01
5.934535e+02	-3.363332e+01
5.968813e+02	-3.367922e+01
6.003288e+02	-3.373142e+01
6.037963e+02	-3.377874e+01
6.072838e+02	-3.382861e+01
6.107914e+02	-3.388316e+01
6.143194e+02	-3.392613e+01
6.178676e+02	-3.397616e+01
6.214364e+02	-3.403115e+01
6.250258e+02	-3.407595e+01
6.286359e+02	-3.412848e+01
6.322669e+02	-3.418570e+01
6.359189e+02	-3.422783e+01
6.395919e+02	-3.428298e+01
6.432862e+02	-3.433078e+01
6.470017e+02	-3.438979e+01
6.507388e+02	-3.443220e+01
6.544974e+02	-3.448726e+01
6.582778e+02	-3.453825e+01
6.620800e+02	-3.458333e+01
6.659041e+02	-3.463323e+01
6.697504e+02	-3.468413e+01
6.736188e+02	-3.473783e+01
6.775096e+02	-3.478968e+01
6.814229e+02	-3.483556e+01
6.853587e+02	-3.488734e+01
6.893173e+02	-3.493806e+01
6.932988e+02	-3.500120e+01
6.973033e+02	-3.504051e+01
7.013309e+02	-3.507945e+01
