Frequency(Hz)	Magnitude(dB)
1.000000e+01	-1.557285e-05
1.005776e+01	-1.575326e-05
1.011585e+01	-1.593577e-05
1.017428e+01	-1.612039e-05
1.023305e+01	-1.630715e-05
1.029215e+01	-1.649607e-05
1.035160e+01	-1.668718e-05
1.041139e+01	-1.688050e-05
1.047153e+01	-1.707607e-05
1.053201e+01	-1.727390e-05
1.059284e+01	-1.747402e-05
1.065403e+01	-1.767646e-05
1.071556e+01	-1.788125e-05
1.077746e+01	-1.808841e-05
1.083971e+01	-1.829797e-05
1.090232e+01	-1.850995e-05
1.096529e+01	-1.872440e-05
1.102862e+01	-1.894132e-05
1.109232e+01	-1.916076e-05
1.115639e+01	-1.938275e-05
1.122083e+01	-1.960730e-05
1.128564e+01	-1.983446e-05
1.135083e+01	-2.006424e-05
1.141639e+01	-2.029669e-05
1.148233e+01	-2.053183e-05
1.154865e+01	-2.076970e-05
1.161536e+01	-2.101032e-05
1.168245e+01	-2.125373e-05
1.174992e+01	-2.149996e-05
1.181779e+01	-2.174905e-05
1.188605e+01	-2.200101e-05
1.195470e+01	-2.225590e-05
1.202375e+01	-2.251374e-05
1.209320e+01	-2.277457e-05
1.216305e+01	-2.303842e-05
1.223330e+01	-2.330532e-05
1.230396e+01	-2.357532e-05
1.237503e+01	-2.384845e-05
1.244651e+01	-2.412474e-05
1.251840e+01	-2.440423e-05
1.259070e+01	-2.468696e-05
1.266343e+01	-2.497296e-05
1.273657e+01	-2.526228e-05
1.281014e+01	-2.555495e-05
1.288413e+01	-2.585101e-05
1.295855e+01	-2.615050e-05
1.303339e+01	-2.645346e-05
1.310867e+01	-2.675993e-05
1.318439e+01	-2.706995e-05
1.326054e+01	-2.738356e-05
1.333713e+01	-2.770081e-05
1.341417e+01	-2.802173e-05
1.349165e+01	-2.834637e-05
1.356958e+01	-2.867477e-05
1.364795e+01	-2.900697e-05
1.372678e+01	-2.934302e-05
1.380607e+01	-2.968297e-05
1.388581e+01	-3.002685e-05
1.396602e+01	-3.037472e-05
1.404668e+01	-3.072662e-05
1.412782e+01	-3.108260e-05
1.420942e+01	-3.144269e-05
1.429149e+01	-3.180697e-05
1.437404e+01	-3.217546e-05
1.445706e+01	-3.254822e-05
1.454057e+01	-3.292530e-05
1.462455e+01	-3.330674e-05
1.470902e+01	-3.369261e-05
1.479398e+01	-3.408295e-05
1.487943e+01	-3.447781e-05
1.496537e+01	-3.487724e-05
1.505181e+01	-3.528130e-05
1.513875e+01	-3.569004e-05
1.522619e+01	-3.610352e-05
1.531414e+01	-3.652179e-05
1.540259e+01	-3.694490e-05
1.549156e+01	-3.737292e-05
1.558103e+01	-3.780589e-05
1.567103e+01	-3.824388e-05
1.576155e+01	-3.868694e-05
1.585258e+01	-3.913514e-05
1.594415e+01	-3.958853e-05
1.603624e+01	-4.004717e-05
1.612886e+01	-4.051113e-05
1.622202e+01	-4.098046e-05
1.631572e+01	-4.145523e-05
1.640996e+01	-4.193549e-05
1.650474e+01	-4.242133e-05
1.660008e+01	-4.291279e-05
1.669596e+01	-4.340994e-05
1.679239e+01	-4.391285e-05
1.688938e+01	-4.442159e-05
1.698694e+01	-4.493623e-05
1.708505e+01	-4.545682e-05
1.718373e+01	-4.598345e-05
1.728299e+01	-4.651618e-05
1.738281e+01	-4.705508e-05
1.748322e+01	-4.760022e-05
1.758420e+01	-4.815168e-05
1.768576e+01	-4.870953e-05
1.778792e+01	-4.927384e-05
1.789066e+01	-4.984469e-05
1.799399e+01	-5.042215e-05
1.809793e+01	-5.100630e-05
1.820246e+01	-5.159722e-05
1.830760e+01	-5.219498e-05
1.841334e+01	-5.279967e-05
1.851969e+01	-5.341137e-05
1.862666e+01	-5.403015e-05
1.873425e+01	-5.465610e-05
1.884246e+01	-5.528930e-05
1.895129e+01	-5.592984e-05
1.906075e+01	-5.657780e-05
1.917085e+01	-5.723327e-05
1.928158e+01	-5.789632e-05
1.939295e+01	-5.856706e-05
1.950496e+01	-5.924558e-05
1.961762e+01	-5.993195e-05
1.973093e+01	-6.062627e-05
1.984490e+01	-6.132864e-05
1.995952e+01	-6.203914e-05
2.007480e+01	-6.275788e-05
2.019076e+01	-6.348494e-05
2.030738e+01	-6.422043e-05
2.042467e+01	-6.496443e-05
2.054264e+01	-6.571706e-05
2.066130e+01	-6.647840e-05
2.078064e+01	-6.724857e-05
2.090066e+01	-6.802766e-05
2.102139e+01	-6.881577e-05
2.114280e+01	-6.961301e-05
2.126492e+01	-7.041949e-05
2.138775e+01	-7.123531e-05
2.151128e+01	-7.206059e-05
2.163553e+01	-7.289542e-05
2.176050e+01	-7.373993e-05
2.188619e+01	-7.459422e-05
2.201260e+01	-7.545841e-05
2.213974e+01	-7.633261e-05
2.226762e+01	-7.721693e-05
2.239624e+01	-7.811151e-05
2.252560e+01	-7.901644e-05
2.265571e+01	-7.993186e-05
2.278656e+01	-8.085788e-05
2.291818e+01	-8.179464e-05
2.305055e+01	-8.274224e-05
2.318369e+01	-8.370082e-05
2.331760e+01	-8.467051e-05
2.345228e+01	-8.565143e-05
2.358774e+01	-8.664372e-05
2.372398e+01	-8.764750e-05
2.386101e+01	-8.866291e-05
2.399883e+01	-8.969009e-05
2.413745e+01	-9.072916e-05
2.427686e+01	-9.178027e-05
2.441709e+01	-9.284356e-05
2.455812e+01	-9.391917e-05
2.469997e+01	-9.500724e-05
2.484263e+01	-9.610791e-05
2.498612e+01	-9.722133e-05
2.513044e+01	-9.834766e-05
2.527559e+01	-9.948703e-05
2.542158e+01	-1.006396e-04
2.556842e+01	-1.018055e-04
2.571610e+01	-1.029850e-04
2.586463e+01	-1.041781e-04
2.601403e+01	-1.053850e-04
2.616428e+01	-1.066059e-04
2.631541e+01	-1.078409e-04
2.646740e+01	-1.090903e-04
2.662028e+01	-1.103541e-04
2.677404e+01	-1.116326e-04
2.692868e+01	-1.129258e-04
2.708422e+01	-1.142341e-04
2.724066e+01	-1.155575e-04
2.739800e+01	-1.168963e-04
2.755625e+01	-1.182505e-04
2.771541e+01	-1.196205e-04
2.787550e+01	-1.210063e-04
2.803650e+01	-1.224081e-04
2.819844e+01	-1.238263e-04
2.836131e+01	-1.252608e-04
2.852513e+01	-1.267120e-04
2.868989e+01	-1.281799e-04
2.885560e+01	-1.296649e-04
2.902227e+01	-1.311671e-04
2.918990e+01	-1.326867e-04
2.935850e+01	-1.342239e-04
2.952807e+01	-1.357789e-04
2.969863e+01	-1.373519e-04
2.987016e+01	-1.389431e-04
3.004269e+01	-1.405528e-04
3.021622e+01	-1.421811e-04
3.039075e+01	-1.438283e-04
3.056628e+01	-1.454945e-04
3.074283e+01	-1.471801e-04
3.092040e+01	-1.488852e-04
3.109900e+01	-1.506100e-04
3.127862e+01	-1.523549e-04
3.145929e+01	-1.541199e-04
3.164099e+01	-1.559054e-04
3.182375e+01	-1.577116e-04
3.200756e+01	-1.595387e-04
3.219244e+01	-1.613869e-04
3.237838e+01	-1.632566e-04
3.256540e+01	-1.651480e-04
3.275349e+01	-1.670612e-04
3.294268e+01	-1.689966e-04
3.313295e+01	-1.709545e-04
3.332433e+01	-1.729350e-04
3.351681e+01	-1.749384e-04
3.371040e+01	-1.769651e-04
3.390511e+01	-1.790152e-04
3.410094e+01	-1.810891e-04
3.429791e+01	-1.831871e-04
3.449601e+01	-1.853093e-04
3.469526e+01	-1.874561e-04
3.489566e+01	-1.896278e-04
3.509721e+01	-1.918246e-04
3.529993e+01	-1.940469e-04
3.550382e+01	-1.962950e-04
3.570889e+01	-1.985690e-04
3.591515e+01	-2.008695e-04
3.612259e+01	-2.031965e-04
3.633123e+01	-2.055506e-04
3.654108e+01	-2.079319e-04
3.675214e+01	-2.103408e-04
3.696442e+01	-2.127776e-04
3.717792e+01	-2.152426e-04
3.739266e+01	-2.177362e-04
3.760864e+01	-2.202586e-04
3.782587e+01	-2.228103e-04
3.804435e+01	-2.253916e-04
3.826409e+01	-2.280027e-04
3.848510e+01	-2.306442e-04
3.870739e+01	-2.333162e-04
3.893096e+01	-2.360191e-04
3.915583e+01	-2.387534e-04
3.938199e+01	-2.415193e-04
3.960946e+01	-2.443173e-04
3.983824e+01	-2.471477e-04
4.006834e+01	-2.500109e-04
4.029978e+01	-2.529073e-04
4.053255e+01	-2.558372e-04
4.076666e+01	-2.588011e-04
4.100213e+01	-2.617993e-04
4.123896e+01	-2.648322e-04
4.147715e+01	-2.679002e-04
4.171672e+01	-2.710038e-04
4.195767e+01	-2.741434e-04
4.220002e+01	-2.773193e-04
4.244377e+01	-2.805320e-04
4.268892e+01	-2.837820e-04
4.293549e+01	-2.870696e-04
4.318348e+01	-2.903952e-04
4.343291e+01	-2.937594e-04
4.368377e+01	-2.971626e-04
4.393609e+01	-3.006052e-04
4.418986e+01	-3.040877e-04
4.444510e+01	-3.076105e-04
4.470182e+01	-3.111741e-04
4.496001e+01	-3.147790e-04
4.521970e+01	-3.184257e-04
4.548089e+01	-3.221146e-04
4.574358e+01	-3.258462e-04
4.600779e+01	-3.296211e-04
4.627353e+01	-3.334397e-04
4.654081e+01	-3.373026e-04
4.680963e+01	-3.412101e-04
4.708000e+01	-3.451630e-04
4.735193e+01	-3.491616e-04
4.762543e+01	-3.532066e-04
4.790051e+01	-3.572984e-04
4.817719e+01	-3.614377e-04
4.845545e+01	-3.656249e-04
4.873533e+01	-3.698605e-04
4.901682e+01	-3.741453e-04
4.929994e+01	-3.784797e-04
4.958470e+01	-3.828643e-04
4.987110e+01	-3.872997e-04
5.015915e+01	-3.917864e-04
5.044887e+01	-3.963252e-04
5.074026e+01	-4.009165e-04
5.103333e+01	-4.055610e-04
5.132810e+01	-4.102593e-04
5.162457e+01	-4.150121e-04
5.192275e+01	-4.198199e-04
5.222265e+01	-4.246834e-04
5.252429e+01	-4.296032e-04
5.282767e+01	-4.345800e-04
5.313280e+01	-4.396145e-04
5.343969e+01	-4.447073e-04
5.374836e+01	-4.498591e-04
5.405880e+01	-4.550706e-04
5.437105e+01	-4.603424e-04
5.468509e+01	-4.656753e-04
5.500095e+01	-4.710700e-04
5.531863e+01	-4.765272e-04
5.563815e+01	-4.820476e-04
5.595951e+01	-4.876319e-04
5.628273e+01	-4.932809e-04
5.660782e+01	-4.989954e-04
5.693479e+01	-5.047761e-04
5.726364e+01	-5.106237e-04
5.759439e+01	-5.165390e-04
5.792705e+01	-5.225229e-04
5.826164e+01	-5.285761e-04
5.859815e+01	-5.346995e-04
5.893662e+01	-5.408937e-04
5.927703e+01	-5.471597e-04
5.961941e+01	-5.534983e-04
5.996377e+01	-5.599103e-04
6.031012e+01	-5.663966e-04
6.065847e+01	-5.729581e-04
6.100883e+01	-5.795955e-04
6.136121e+01	-5.863098e-04
6.171563e+01	-5.931019e-04
6.207210e+01	-5.999727e-04
6.243063e+01	-6.069230e-04
6.279122e+01	-6.139539e-04
6.315390e+01	-6.210662e-04
6.351868e+01	-6.282609e-04
6.388556e+01	-6.355390e-04
6.425456e+01	-6.429013e-04
6.462569e+01	-6.503490e-04
6.499897e+01	-6.578829e-04
6.537440e+01	-6.655040e-04
6.575200e+01	-6.732135e-04
6.613178e+01	-6.810122e-04
6.651375e+01	-6.889013e-04
6.689793e+01	-6.968818e-04
6.728433e+01	-7.049547e-04
6.767297e+01	-7.131211e-04
6.806384e+01	-7.213821e-04
6.845698e+01	-7.297389e-04
6.885238e+01	-7.381924e-04
6.925007e+01	-7.467438e-04
6.965005e+01	-7.553943e-04
7.005235e+01	-7.641449e-04
7.045697e+01	-7.729970e-04
7.086393e+01	-7.819516e-04
7.127323e+01	-7.910099e-04
7.168490e+01	-8.001731e-04
7.209895e+01	-8.094424e-04
7.251539e+01	-8.188192e-04
7.293424e+01	-8.283045e-04
7.335551e+01	-8.378997e-04
7.377920e+01	-8.476061e-04
7.420535e+01	-8.574248e-04
7.463396e+01	-8.673574e-04
7.506504e+01	-8.774049e-04
7.549861e+01	-8.875688e-04
7.593469e+01	-8.978505e-04
7.637328e+01	-9.082513e-04
7.681441e+01	-9.187725e-04
7.725809e+01	-9.294156e-04
7.770433e+01	-9.401819e-04
7.815315e+01	-9.510730e-04
7.860456e+01	-9.620902e-04
7.905857e+01	-9.732351e-04
7.951521e+01	-9.845090e-04
7.997449e+01	-9.959135e-04
8.043642e+01	-1.007450e-03
8.090102e+01	-1.019120e-03
8.136830e+01	-1.030926e-03
8.183828e+01	-1.042868e-03
8.231097e+01	-1.054948e-03
8.278640e+01	-1.067169e-03
8.326457e+01	-1.079530e-03
8.374550e+01	-1.092036e-03
8.422921e+01	-1.104685e-03
8.471572e+01	-1.117482e-03
8.520503e+01	-1.130427e-03
8.569717e+01	-1.143521e-03
8.619215e+01	-1.156767e-03
8.669000e+01	-1.170167e-03
8.719071e+01	-1.183722e-03
8.769432e+01	-1.197434e-03
8.820084e+01	-1.211304e-03
8.871029e+01	-1.225336e-03
8.922267e+01	-1.239530e-03
8.973802e+01	-1.253888e-03
9.025634e+01	-1.268412e-03
9.077766e+01	-1.283105e-03
9.130199e+01	-1.297968e-03
9.182935e+01	-1.313003e-03
9.235975e+01	-1.328212e-03
9.289321e+01	-1.343597e-03
9.342976e+01	-1.359161e-03
9.396941e+01	-1.374905e-03
9.451217e+01	-1.390831e-03
9.505807e+01	-1.406941e-03
9.560712e+01	-1.423238e-03
9.615934e+01	-1.439724e-03
9.671476e+01	-1.456401e-03
9.727338e+01	-1.473271e-03
9.783522e+01	-1.490336e-03
9.840032e+01	-1.507599e-03
9.896867e+01	-1.525062e-03
9.954031e+01	-1.542727e-03
1.001153e+02	-1.560597e-03
1.006935e+02	-1.578674e-03
1.012751e+02	-1.596960e-03
1.018601e+02	-1.615457e-03
1.024484e+02	-1.634169e-03
1.030402e+02	-1.653098e-03
1.036353e+02	-1.672246e-03
1.042339e+02	-1.691616e-03
1.048360e+02	-1.711209e-03
1.054415e+02	-1.731030e-03
1.060505e+02	-1.751081e-03
1.066631e+02	-1.771363e-03
1.072791e+02	-1.791881e-03
1.078988e+02	-1.812636e-03
1.085220e+02	-1.833631e-03
1.091488e+02	-1.854870e-03
1.097793e+02	-1.876354e-03
1.104133e+02	-1.898088e-03
1.110511e+02	-1.920073e-03
1.116925e+02	-1.942312e-03
1.123376e+02	-1.964809e-03
1.129865e+02	-1.987567e-03
1.136391e+02	-2.010588e-03
1.142955e+02	-2.033876e-03
1.149556e+02	-2.057433e-03
1.156196e+02	-2.081264e-03
1.162874e+02	-2.105370e-03
1.169591e+02	-2.129755e-03
1.176347e+02	-2.154423e-03
1.183141e+02	-2.179376e-03
1.189975e+02	-2.204618e-03
1.196848e+02	-2.230153e-03
1.203761e+02	-2.255983e-03
1.210714e+02	-2.282112e-03
1.217707e+02	-2.308544e-03
1.224740e+02	-2.335282e-03
1.231814e+02	-2.362329e-03
1.238929e+02	-2.389690e-03
1.246085e+02	-2.417368e-03
1.253283e+02	-2.445366e-03
1.260522e+02	-2.473688e-03
1.267802e+02	-2.502338e-03
1.275125e+02	-2.531319e-03
1.282490e+02	-2.560637e-03
1.289898e+02	-2.590294e-03
1.297348e+02	-2.620294e-03
1.304842e+02	-2.650641e-03
1.312378e+02	-2.681340e-03
1.319959e+02	-2.712395e-03
1.327583e+02	-2.743808e-03
1.335251e+02	-2.775586e-03
1.342963e+02	-2.807731e-03
1.350720e+02	-2.840249e-03
1.358522e+02	-2.873143e-03
1.366368e+02	-2.906418e-03
1.374260e+02	-2.940078e-03
1.382198e+02	-2.974128e-03
1.390182e+02	-3.008572e-03
1.398211e+02	-3.043415e-03
1.406287e+02	-3.078662e-03
1.414410e+02	-3.114316e-03
1.422579e+02	-3.150383e-03
1.430796e+02	-3.186867e-03
1.439060e+02	-3.223774e-03
1.447372e+02	-3.261109e-03
1.455732e+02	-3.298875e-03
1.464141e+02	-3.337079e-03
1.472597e+02	-3.375725e-03
1.481103e+02	-3.414818e-03
1.489658e+02	-3.454364e-03
1.498262e+02	-3.494367e-03
1.506916e+02	-3.534834e-03
1.515620e+02	-3.575769e-03
1.524374e+02	-3.617178e-03
1.533179e+02	-3.659066e-03
1.542034e+02	-3.701439e-03
1.550941e+02	-3.744303e-03
1.559899e+02	-3.787663e-03
1.568909e+02	-3.831524e-03
1.577971e+02	-3.875894e-03
1.587085e+02	-3.920777e-03
1.596252e+02	-3.966179e-03
1.605472e+02	-4.012107e-03
1.614745e+02	-4.058567e-03
1.624072e+02	-4.105564e-03
1.633453e+02	-4.153105e-03
1.642887e+02	-4.201196e-03
1.652377e+02	-4.249845e-03
1.661921e+02	-4.299056e-03
1.671520e+02	-4.348836e-03
1.681175e+02	-4.399193e-03
1.690885e+02	-4.450133e-03
1.700651e+02	-4.501662e-03
1.710474e+02	-4.553788e-03
1.720354e+02	-4.606516e-03
1.730291e+02	-4.659855e-03
1.740285e+02	-4.713812e-03
1.750337e+02	-4.768392e-03
1.760446e+02	-4.823604e-03
1.770615e+02	-4.879456e-03
1.780842e+02	-4.935953e-03
1.791128e+02	-4.993105e-03
1.801473e+02	-5.050917e-03
1.811878e+02	-5.109399e-03
1.822344e+02	-5.168557e-03
1.832870e+02	-5.228400e-03
1.843456e+02	-5.288936e-03
1.854104e+02	-5.350172e-03
1.864813e+02	-5.412116e-03
1.875584e+02	-5.474777e-03
1.886418e+02	-5.538163e-03
1.897313e+02	-5.602283e-03
1.908272e+02	-5.667144e-03
1.919294e+02	-5.732756e-03
1.930380e+02	-5.799127e-03
1.941530e+02	-5.866266e-03
1.952744e+02	-5.934182e-03
1.964023e+02	-6.002883e-03
1.975367e+02	-6.072379e-03
1.986777e+02	-6.142679e-03
1.998252e+02	-6.213793e-03
2.009794e+02	-6.285729e-03
2.021403e+02	-6.358497e-03
2.033078e+02	-6.432107e-03
2.044821e+02	-6.506569e-03
2.056632e+02	-6.581892e-03
2.068511e+02	-6.658086e-03
2.080459e+02	-6.735162e-03
2.092475e+02	-6.813129e-03
2.104561e+02	-6.891998e-03
2.116717e+02	-6.971779e-03
2.128943e+02	-7.052483e-03
2.141240e+02	-7.134121e-03
2.153608e+02	-7.216703e-03
2.166047e+02	-7.300239e-03
2.178558e+02	-7.384742e-03
2.191141e+02	-7.470223e-03
2.203797e+02	-7.556692e-03
2.216526e+02	-7.644161e-03
2.229329e+02	-7.732641e-03
2.242205e+02	-7.822145e-03
2.255156e+02	-7.912684e-03
2.268182e+02	-8.004269e-03
2.281283e+02	-8.096914e-03
2.294459e+02	-8.190630e-03
2.307712e+02	-8.285430e-03
2.321041e+02	-8.381326e-03
2.334447e+02	-8.478330e-03
2.347931e+02	-8.576457e-03
2.361493e+02	-8.675718e-03
2.375133e+02	-8.776126e-03
2.388851e+02	-8.877695e-03
2.402649e+02	-8.980439e-03
2.416527e+02	-9.084371e-03
2.430484e+02	-9.189504e-03
2.444523e+02	-9.295852e-03
2.458642e+02	-9.403430e-03
2.472843e+02	-9.512251e-03
2.487126e+02	-9.622331e-03
2.501492e+02	-9.733682e-03
2.515940e+02	-9.846321e-03
2.530472e+02	-9.960262e-03
2.545088e+02	-1.007552e-02
2.559789e+02	-1.019211e-02
2.574574e+02	-1.031005e-02
2.589444e+02	-1.042935e-02
2.604401e+02	-1.055003e-02
2.619444e+02	-1.067210e-02
2.634574e+02	-1.079559e-02
2.649791e+02	-1.092050e-02
2.665096e+02	-1.104685e-02
2.680489e+02	-1.117467e-02
2.695972e+02	-1.130396e-02
2.711544e+02	-1.143475e-02
2.727205e+02	-1.156704e-02
2.742958e+02	-1.170087e-02
2.758801e+02	-1.183624e-02
2.774736e+02	-1.197318e-02
2.790762e+02	-1.211170e-02
2.806882e+02	-1.225182e-02
2.823094e+02	-1.239355e-02
2.839400e+02	-1.253693e-02
2.855800e+02	-1.268196e-02
2.872295e+02	-1.282866e-02
2.888886e+02	-1.297706e-02
2.905572e+02	-1.312718e-02
2.922354e+02	-1.327903e-02
2.939234e+02	-1.343263e-02
2.956211e+02	-1.358801e-02
2.973286e+02	-1.374518e-02
2.990459e+02	-1.390416e-02
3.007732e+02	-1.406498e-02
3.025104e+02	-1.422766e-02
3.042577e+02	-1.439222e-02
3.060151e+02	-1.455868e-02
3.077826e+02	-1.472705e-02
3.095604e+02	-1.489738e-02
3.113484e+02	-1.506967e-02
3.131467e+02	-1.524394e-02
3.149554e+02	-1.542023e-02
3.167746e+02	-1.559856e-02
3.186043e+02	-1.577894e-02
3.204445e+02	-1.596141e-02
3.222954e+02	-1.614598e-02
3.241570e+02	-1.633268e-02
3.260293e+02	-1.652154e-02
3.279124e+02	-1.671258e-02
3.298064e+02	-1.690582e-02
3.317114e+02	-1.710129e-02
3.336273e+02	-1.729902e-02
3.355544e+02	-1.749903e-02
3.374925e+02	-1.770134e-02
3.394418e+02	-1.790599e-02
3.414024e+02	-1.811300e-02
3.433744e+02	-1.832240e-02
3.453577e+02	-1.853422e-02
3.473525e+02	-1.874848e-02
3.493588e+02	-1.896521e-02
3.513766e+02	-1.918443e-02
3.534062e+02	-1.940619e-02
3.554474e+02	-1.963051e-02
3.575005e+02	-1.985741e-02
3.595654e+02	-2.008693e-02
3.616422e+02	-2.031910e-02
3.637311e+02	-2.055394e-02
3.658320e+02	-2.079149e-02
3.679450e+02	-2.103178e-02
3.700702e+02	-2.127484e-02
3.722077e+02	-2.152070e-02
3.743576e+02	-2.176940e-02
3.765199e+02	-2.202096e-02
3.786946e+02	-2.227542e-02
3.808820e+02	-2.253281e-02
3.830819e+02	-2.279317e-02
3.852946e+02	-2.305654e-02
3.875200e+02	-2.332293e-02
3.897583e+02	-2.359240e-02
3.920096e+02	-2.386497e-02
3.942738e+02	-2.414068e-02
3.965511e+02	-2.441957e-02
3.988416e+02	-2.470167e-02
4.011452e+02	-2.498701e-02
4.034622e+02	-2.527565e-02
4.057926e+02	-2.556761e-02
4.081365e+02	-2.586293e-02
4.104938e+02	-2.616165e-02
4.128648e+02	-2.646382e-02
4.152495e+02	-2.676946e-02
4.176480e+02	-2.707862e-02
4.200603e+02	-2.739134e-02
4.224866e+02	-2.770766e-02
4.249268e+02	-2.802762e-02
4.273812e+02	-2.835126e-02
4.298497e+02	-2.867863e-02
4.323325e+02	-2.900977e-02
4.348297e+02	-2.934472e-02
4.373412e+02	-2.968352e-02
4.398673e+02	-3.002621e-02
4.424079e+02	-3.037286e-02
4.449633e+02	-3.072348e-02
4.475334e+02	-3.107815e-02
4.501183e+02	-3.143689e-02
4.527182e+02	-3.179975e-02
4.553330e+02	-3.216679e-02
4.579630e+02	-3.253805e-02
4.606082e+02	-3.291358e-02
4.632687e+02	-3.329343e-02
4.659445e+02	-3.367764e-02
4.686358e+02	-3.406627e-02
4.713426e+02	-3.445937e-02
4.740650e+02	-3.485698e-02
4.768032e+02	-3.525916e-02
4.795572e+02	-3.566597e-02
4.823271e+02	-3.607744e-02
4.851130e+02	-3.649365e-02
4.879150e+02	-3.691464e-02
4.907332e+02	-3.734046e-02
4.935676e+02	-3.777117e-02
4.964185e+02	-3.820683e-02
4.992858e+02	-3.864749e-02
5.021696e+02	-3.909321e-02
5.050701e+02	-3.954405e-02
5.079874e+02	-4.000006e-02
5.109215e+02	-4.046131e-02
5.138726e+02	-4.092785e-02
5.168407e+02	-4.139974e-02
5.198259e+02	-4.187705e-02
5.228284e+02	-4.235983e-02
5.258482e+02	-4.284815e-02
5.288855e+02	-4.334208e-02
5.319403e+02	-4.384167e-02
5.350128e+02	-4.434698e-02
5.381030e+02	-4.485810e-02
5.412111e+02	-4.537507e-02
5.443371e+02	-4.589796e-02
5.474812e+02	-4.642686e-02
5.506434e+02	-4.696181e-02
5.538239e+02	-4.750289e-02
5.570228e+02	-4.805017e-02
5.602401e+02	-4.860373e-02
5.634760e+02	-4.916362e-02
5.667306e+02	-4.972992e-02
5.700040e+02	-5.030271e-02
5.732964e+02	-5.088206e-02
5.766077e+02	-5.146805e-02
5.799382e+02	-5.206074e-02
5.832879e+02	-5.266021e-02
5.866569e+02	-5.326654e-02
5.900454e+02	-5.387981e-02
5.934535e+02	-5.450010e-02
5.968813e+02	-5.512749e-02
6.003288e+02	-5.576205e-02
6.037963e+02	-5.640386e-02
6.072838e+02	-5.705302e-02
6.107914e+02	-5.770959e-02
6.143194e+02	-5.837367e-02
6.178676e+02	-5.904534e-02
6.214364e+02	-5.972469e-02
6.250258e+02	-6.041179e-02
6.286359e+02	-6.110675e-02
6.322669e+02	-6.180964e-02
6.359189e+02	-6.252056e-02
6.395919e+02	-6.323960e-02
6.432862e+02	-6.396685e-02
6.470017e+02	-6.470239e-02
6.507388e+02	-6.544634e-02
6.544974e+02	-6.619876e-02
6.582778e+02	-6.695978e-02
6.620800e+02	-6.772947e-02
6.659041e+02	-6.850794e-02
6.697504e+02	-6.929528e-02
6.736188e+02	-7.009161e-02
6.775096e+02	-7.089700e-02
6.814229e+02	-7.171158e-02
6.853587e+02	-7.253544e-02
6.893173e+02	-7.336868e-02
6.932988e+02	-7.421141e-02
6.973033e+02	-7.506373e-02
7.013309e+02	-7.592576e-02
