Frequency(Hz)	Magnitude(dB)
1.000000e+01	-2.100847e+00
1.005776e+01	-2.119944e+00
1.011585e+01	-2.139146e+00
1.017428e+01	-2.158948e+00
1.023305e+01	-2.178503e+00
1.029215e+01	-2.198294e+00
1.035160e+01	-2.218203e+00
1.041139e+01	-2.238263e+00
1.047153e+01	-2.258659e+00
1.053201e+01	-2.278790e+00
1.059284e+01	-2.299314e+00
1.065403e+01	-2.320203e+00
1.071556e+01	-2.340574e+00
1.077746e+01	-2.361423e+00
1.083971e+01	-2.382598e+00
1.090232e+01	-2.403922e+00
1.096529e+01	-2.425207e+00
1.102862e+01	-2.446639e+00
1.109232e+01	-2.468220e+00
1.115639e+01	-2.489908e+00
1.122083e+01	-2.511838e+00
1.128564e+01	-2.534011e+00
1.135083e+01	-2.556202e+00
1.141639e+01	-2.578355e+00
1.148233e+01	-2.601076e+00
1.154865e+01	-2.623535e+00
1.161536e+01	-2.646188e+00
1.168245e+01	-2.669404e+00
1.174992e+01	-2.692392e+00
1.181779e+01	-2.715451e+00
1.188605e+01	-2.738710e+00
1.195470e+01	-2.762129e+00
1.202375e+01	-2.785783e+00
1.209320e+01	-2.809693e+00
1.216305e+01	-2.833687e+00
1.223330e+01	-2.857541e+00
1.230396e+01	-2.881528e+00
1.237503e+01	-2.906122e+00
1.244651e+01	-2.930685e+00
1.251840e+01	-2.955320e+00
1.259070e+01	-2.980040e+00
1.266343e+01	-3.004677e+00
1.273657e+01	-3.029923e+00
1.281014e+01	-3.055020e+00
1.288413e+01	-3.080542e+00
1.295855e+01	-3.105929e+00
1.303339e+01	-3.131652e+00
1.310867e+01	-3.157386e+00
1.318439e+01	-3.183323e+00
1.326054e+01	-3.209118e+00
1.333713e+01	-3.235621e+00
1.341417e+01	-3.261880e+00
1.349165e+01	-3.288346e+00
1.356958e+01	-3.314987e+00
1.364795e+01	-3.341599e+00
1.372678e+01	-3.368813e+00
1.380607e+01	-3.395919e+00
1.388581e+01	-3.423034e+00
1.396602e+01	-3.450369e+00
1.404668e+01	-3.477833e+00
1.412782e+01	-3.505562e+00
1.420942e+01	-3.533172e+00
1.429149e+01	-3.561153e+00
1.437404e+01	-3.589229e+00
1.445706e+01	-3.617395e+00
1.454057e+01	-3.646114e+00
1.462455e+01	-3.674557e+00
1.470902e+01	-3.703037e+00
1.479398e+01	-3.731681e+00
1.487943e+01	-3.760544e+00
1.496537e+01	-3.789783e+00
1.505181e+01	-3.818992e+00
1.513875e+01	-3.848148e+00
1.522619e+01	-3.877815e+00
1.531414e+01	-3.907040e+00
1.540259e+01	-3.937055e+00
1.549156e+01	-3.967088e+00
1.558103e+01	-3.997052e+00
1.567103e+01	-4.027153e+00
1.576155e+01	-4.057458e+00
1.585258e+01	-4.087880e+00
1.594415e+01	-4.118639e+00
1.603624e+01	-4.149089e+00
1.612886e+01	-4.180179e+00
1.622202e+01	-4.210943e+00
1.631572e+01	-4.241912e+00
1.640996e+01	-4.273334e+00
1.650474e+01	-4.304510e+00
1.660008e+01	-4.336387e+00
1.669596e+01	-4.367975e+00
1.679239e+01	-4.399834e+00
1.688938e+01	-4.431456e+00
1.698694e+01	-4.463715e+00
1.708505e+01	-4.495931e+00
1.718373e+01	-4.528256e+00
1.728299e+01	-4.560766e+00
1.738281e+01	-4.593381e+00
1.748322e+01	-4.626007e+00
1.758420e+01	-4.658766e+00
1.768576e+01	-4.691628e+00
1.778792e+01	-4.724810e+00
1.789066e+01	-4.758275e+00
1.799399e+01	-4.791631e+00
1.809793e+01	-4.824995e+00
1.820246e+01	-4.858682e+00
1.830760e+01	-4.892289e+00
1.841334e+01	-4.926394e+00
1.851969e+01	-4.960131e+00
1.862666e+01	-4.994650e+00
1.873425e+01	-5.028721e+00
1.884246e+01	-5.062939e+00
1.895129e+01	-5.097510e+00
1.906075e+01	-5.132206e+00
1.917085e+01	-5.166811e+00
1.928158e+01	-5.201633e+00
1.939295e+01	-5.236856e+00
1.950496e+01	-5.271841e+00
1.961762e+01	-5.307086e+00
1.973093e+01	-5.342622e+00
1.984490e+01	-5.377788e+00
1.995952e+01	-5.413219e+00
2.007480e+01	-5.448979e+00
2.019076e+01	-5.485028e+00
2.030738e+01	-5.521124e+00
2.042467e+01	-5.556694e+00
2.054264e+01	-5.593069e+00
2.066130e+01	-5.629638e+00
2.078064e+01	-5.665775e+00
2.090066e+01	-5.702323e+00
2.102139e+01	-5.738896e+00
2.114280e+01	-5.775713e+00
2.126492e+01	-5.812610e+00
2.138775e+01	-5.849282e+00
2.151128e+01	-5.886556e+00
2.163553e+01	-5.923620e+00
2.176050e+01	-5.960818e+00
2.188619e+01	-5.998495e+00
2.201260e+01	-6.035885e+00
2.213974e+01	-6.074052e+00
2.226762e+01	-6.111157e+00
2.239624e+01	-6.148993e+00
2.252560e+01	-6.187170e+00
2.265571e+01	-6.225075e+00
2.278656e+01	-6.262987e+00
2.291818e+01	-6.301245e+00
2.305055e+01	-6.339781e+00
2.318369e+01	-6.378421e+00
2.331760e+01	-6.416746e+00
2.345228e+01	-6.455488e+00
2.358774e+01	-6.494180e+00
2.372398e+01	-6.533220e+00
2.386101e+01	-6.571905e+00
2.399883e+01	-6.611516e+00
2.413745e+01	-6.649982e+00
2.427686e+01	-6.689373e+00
2.441709e+01	-6.728875e+00
2.455812e+01	-6.768044e+00
2.469997e+01	-6.807854e+00
2.484263e+01	-6.847252e+00
2.498612e+01	-6.887552e+00
2.513044e+01	-6.927300e+00
2.527559e+01	-6.967239e+00
2.542158e+01	-7.006981e+00
2.556842e+01	-7.047199e+00
2.571610e+01	-7.087360e+00
2.586463e+01	-7.127349e+00
2.601403e+01	-7.167943e+00
2.616428e+01	-7.208207e+00
2.631541e+01	-7.249127e+00
2.646740e+01	-7.289316e+00
2.662028e+01	-7.330495e+00
2.677404e+01	-7.371273e+00
2.692868e+01	-7.412297e+00
2.708422e+01	-7.453130e+00
2.724066e+01	-7.493824e+00
2.739800e+01	-7.535007e+00
2.755625e+01	-7.576673e+00
2.771541e+01	-7.617788e+00
2.787550e+01	-7.659225e+00
2.803650e+01	-7.700726e+00
2.819844e+01	-7.742300e+00
2.836131e+01	-7.784021e+00
2.852513e+01	-7.825653e+00
2.868989e+01	-7.867519e+00
2.885560e+01	-7.909202e+00
2.902227e+01	-7.951304e+00
2.918990e+01	-7.993362e+00
2.935850e+01	-8.035409e+00
2.952807e+01	-8.077993e+00
2.969863e+01	-8.120210e+00
2.987016e+01	-8.162696e+00
3.004269e+01	-8.204733e+00
3.021622e+01	-8.247633e+00
3.039075e+01	-8.290145e+00
3.056628e+01	-8.332468e+00
3.074283e+01	-8.375434e+00
3.092040e+01	-8.418257e+00
3.109900e+01	-8.461185e+00
3.127862e+01	-8.503910e+00
3.145929e+01	-8.546911e+00
3.164099e+01	-8.589850e+00
3.182375e+01	-8.633223e+00
3.200756e+01	-8.676726e+00
3.219244e+01	-8.719722e+00
3.237838e+01	-8.762994e+00
3.256540e+01	-8.806597e+00
3.275349e+01	-8.849737e+00
3.294268e+01	-8.893662e+00
3.313295e+01	-8.936896e+00
3.332433e+01	-8.980972e+00
3.351681e+01	-9.024600e+00
3.371040e+01	-9.067692e+00
3.390511e+01	-9.112052e+00
3.410094e+01	-9.156061e+00
3.429791e+01	-9.200093e+00
3.449601e+01	-9.243710e+00
3.469526e+01	-9.288874e+00
3.489566e+01	-9.332318e+00
3.509721e+01	-9.376157e+00
3.529993e+01	-9.420594e+00
3.550382e+01	-9.465223e+00
3.570889e+01	-9.509773e+00
3.591515e+01	-9.554007e+00
3.612259e+01	-9.598442e+00
3.633123e+01	-9.642434e+00
3.654108e+01	-9.686645e+00
3.675214e+01	-9.732203e+00
3.696442e+01	-9.777424e+00
3.717792e+01	-9.821360e+00
3.739266e+01	-9.866648e+00
3.760864e+01	-9.911376e+00
3.782587e+01	-9.956987e+00
3.804435e+01	-1.000113e+01
3.826409e+01	-1.004639e+01
3.848510e+01	-1.009168e+01
3.870739e+01	-1.013693e+01
3.893096e+01	-1.018182e+01
3.915583e+01	-1.022728e+01
3.938199e+01	-1.027291e+01
3.960946e+01	-1.031796e+01
3.983824e+01	-1.036331e+01
4.006834e+01	-1.040847e+01
4.029978e+01	-1.045436e+01
4.053255e+01	-1.049974e+01
4.076666e+01	-1.054577e+01
4.100213e+01	-1.059148e+01
4.123896e+01	-1.063673e+01
4.147715e+01	-1.068282e+01
4.171672e+01	-1.072808e+01
4.195767e+01	-1.077466e+01
4.220002e+01	-1.081990e+01
4.244377e+01	-1.086582e+01
4.268892e+01	-1.091155e+01
4.293549e+01	-1.095721e+01
4.318348e+01	-1.100445e+01
4.343291e+01	-1.104995e+01
4.368377e+01	-1.109558e+01
4.393609e+01	-1.114278e+01
4.418986e+01	-1.118820e+01
4.444510e+01	-1.123460e+01
4.470182e+01	-1.128076e+01
4.496001e+01	-1.132708e+01
4.521970e+01	-1.137354e+01
4.548089e+01	-1.142008e+01
4.574358e+01	-1.146677e+01
4.600779e+01	-1.151320e+01
4.627353e+01	-1.155934e+01
4.654081e+01	-1.160611e+01
4.680963e+01	-1.165239e+01
4.708000e+01	-1.169911e+01
4.735193e+01	-1.174625e+01
4.762543e+01	-1.179240e+01
4.790051e+01	-1.183888e+01
4.817719e+01	-1.188568e+01
4.845545e+01	-1.193353e+01
4.873533e+01	-1.198012e+01
4.901682e+01	-1.202626e+01
4.929994e+01	-1.207341e+01
4.958470e+01	-1.212011e+01
4.987110e+01	-1.216733e+01
5.015915e+01	-1.221466e+01
5.044887e+01	-1.226077e+01
5.074026e+01	-1.230847e+01
5.103333e+01	-1.235534e+01
5.132810e+01	-1.240255e+01
5.162457e+01	-1.244929e+01
5.192275e+01	-1.249653e+01
5.222265e+01	-1.254439e+01
5.252429e+01	-1.259135e+01
5.282767e+01	-1.263840e+01
5.313280e+01	-1.268604e+01
5.343969e+01	-1.273341e+01
5.374836e+01	-1.278122e+01
5.405880e+01	-1.282779e+01
5.437105e+01	-1.287606e+01
5.468509e+01	-1.292208e+01
5.500095e+01	-1.297102e+01
5.531863e+01	-1.301794e+01
5.563815e+01	-1.306557e+01
5.595951e+01	-1.311247e+01
5.628273e+01	-1.316075e+01
5.660782e+01	-1.320857e+01
5.693479e+01	-1.325608e+01
5.726364e+01	-1.330377e+01
5.759439e+01	-1.335146e+01
5.792705e+01	-1.339960e+01
5.826164e+01	-1.344692e+01
5.859815e+01	-1.349456e+01
5.893662e+01	-1.354268e+01
5.927703e+01	-1.359082e+01
5.961941e+01	-1.363878e+01
5.996377e+01	-1.368605e+01
6.031012e+01	-1.373397e+01
6.065847e+01	-1.378244e+01
6.100883e+01	-1.382951e+01
6.136121e+01	-1.387695e+01
6.171563e+01	-1.392536e+01
6.207210e+01	-1.397362e+01
6.243063e+01	-1.402208e+01
6.279122e+01	-1.407018e+01
6.315390e+01	-1.411781e+01
6.351868e+01	-1.416624e+01
6.388556e+01	-1.421450e+01
6.425456e+01	-1.426290e+01
6.462569e+01	-1.431087e+01
6.499897e+01	-1.435843e+01
6.537440e+01	-1.440649e+01
6.575200e+01	-1.445576e+01
6.613178e+01	-1.450296e+01
6.651375e+01	-1.455188e+01
6.689793e+01	-1.460057e+01
6.728433e+01	-1.464822e+01
6.767297e+01	-1.469685e+01
6.806384e+01	-1.474448e+01
6.845698e+01	-1.479324e+01
6.885238e+01	-1.484206e+01
6.925007e+01	-1.488963e+01
6.965005e+01	-1.493788e+01
7.005235e+01	-1.498739e+01
7.045697e+01	-1.503546e+01
7.086393e+01	-1.508335e+01
7.127323e+01	-1.513193e+01
7.168490e+01	-1.518113e+01
7.209895e+01	-1.522956e+01
7.251539e+01	-1.527835e+01
7.293424e+01	-1.532606e+01
7.335551e+01	-1.537595e+01
7.377920e+01	-1.542340e+01
7.420535e+01	-1.547208e+01
7.463396e+01	-1.552075e+01
7.506504e+01	-1.556975e+01
7.549861e+01	-1.561856e+01
7.593469e+01	-1.566792e+01
7.637328e+01	-1.571638e+01
7.681441e+01	-1.576451e+01
7.725809e+01	-1.581314e+01
7.770433e+01	-1.586168e+01
7.815315e+01	-1.591018e+01
7.860456e+01	-1.595950e+01
7.905857e+01	-1.600793e+01
7.951521e+01	-1.605611e+01
7.997449e+01	-1.610565e+01
8.043642e+01	-1.615417e+01
8.090102e+01	-1.620308e+01
8.136830e+01	-1.625204e+01
8.183828e+01	-1.630081e+01
8.231097e+01	-1.634990e+01
8.278640e+01	-1.639936e+01
8.326457e+01	-1.644777e+01
8.374550e+01	-1.649488e+01
8.422921e+01	-1.654500e+01
8.471572e+01	-1.659355e+01
8.520503e+01	-1.664309e+01
8.569717e+01	-1.669166e+01
8.619215e+01	-1.674082e+01
8.669000e+01	-1.678971e+01
8.719071e+01	-1.683823e+01
8.769432e+01	-1.688826e+01
8.820084e+01	-1.693727e+01
8.871029e+01	-1.698584e+01
8.922267e+01	-1.703640e+01
8.973802e+01	-1.708370e+01
9.025634e+01	-1.713296e+01
9.077766e+01	-1.718213e+01
9.130199e+01	-1.723132e+01
9.182935e+01	-1.727972e+01
9.235975e+01	-1.732933e+01
9.289321e+01	-1.737835e+01
9.342976e+01	-1.742764e+01
9.396941e+01	-1.747673e+01
9.451217e+01	-1.752531e+01
9.505807e+01	-1.757569e+01
9.560712e+01	-1.762334e+01
9.615934e+01	-1.767313e+01
9.671476e+01	-1.772245e+01
9.727338e+01	-1.777147e+01
9.783522e+01	-1.782039e+01
9.840032e+01	-1.787001e+01
9.896867e+01	-1.791979e+01
9.954031e+01	-1.796820e+01
1.001153e+02	-1.801783e+01
1.006935e+02	-1.806646e+01
1.012751e+02	-1.811601e+01
1.018601e+02	-1.816521e+01
1.024484e+02	-1.821588e+01
1.030402e+02	-1.826433e+01
1.036353e+02	-1.831277e+01
1.042339e+02	-1.836248e+01
1.048360e+02	-1.841195e+01
1.054415e+02	-1.846219e+01
1.060505e+02	-1.851072e+01
1.066631e+02	-1.856022e+01
1.072791e+02	-1.860890e+01
1.078988e+02	-1.865966e+01
1.085220e+02	-1.870883e+01
1.091488e+02	-1.875814e+01
1.097793e+02	-1.880627e+01
1.104133e+02	-1.885723e+01
1.110511e+02	-1.890537e+01
1.116925e+02	-1.895499e+01
1.123376e+02	-1.900439e+01
1.129865e+02	-1.905269e+01
1.136391e+02	-1.910260e+01
1.142955e+02	-1.915222e+01
1.149556e+02	-1.920124e+01
1.156196e+02	-1.925199e+01
1.162874e+02	-1.930126e+01
1.169591e+02	-1.935063e+01
1.176347e+02	-1.939934e+01
1.183141e+02	-1.944962e+01
1.189975e+02	-1.949994e+01
1.196848e+02	-1.954691e+01
1.203761e+02	-1.959803e+01
1.210714e+02	-1.964816e+01
1.217707e+02	-1.969747e+01
1.224740e+02	-1.974499e+01
1.231814e+02	-1.979389e+01
1.238929e+02	-1.984610e+01
1.246085e+02	-1.989472e+01
1.253283e+02	-1.994421e+01
1.260522e+02	-1.999383e+01
1.267802e+02	-2.004248e+01
1.275125e+02	-2.009517e+01
1.282490e+02	-2.014257e+01
1.289898e+02	-2.019218e+01
1.297348e+02	-2.024428e+01
1.304842e+02	-2.029153e+01
1.312378e+02	-2.034053e+01
1.319959e+02	-2.039220e+01
1.327583e+02	-2.044106e+01
1.335251e+02	-2.049074e+01
1.342963e+02	-2.053885e+01
1.350720e+02	-2.058809e+01
1.358522e+02	-2.063841e+01
1.366368e+02	-2.068711e+01
1.374260e+02	-2.073713e+01
1.382198e+02	-2.078694e+01
1.390182e+02	-2.083800e+01
1.398211e+02	-2.088560e+01
1.406287e+02	-2.093649e+01
1.414410e+02	-2.098370e+01
1.422579e+02	-2.103520e+01
1.430796e+02	-2.108514e+01
1.439060e+02	-2.113214e+01
1.447372e+02	-2.118482e+01
1.455732e+02	-2.123295e+01
1.464141e+02	-2.128409e+01
1.472597e+02	-2.133312e+01
1.481103e+02	-2.138159e+01
1.489658e+02	-2.143300e+01
1.498262e+02	-2.148251e+01
1.506916e+02	-2.153360e+01
1.515620e+02	-2.158087e+01
1.524374e+02	-2.162991e+01
1.533179e+02	-2.168247e+01
1.542034e+02	-2.173090e+01
1.550941e+02	-2.178058e+01
1.559899e+02	-2.182868e+01
1.568909e+02	-2.188107e+01
1.577971e+02	-2.192841e+01
1.587085e+02	-2.197940e+01
1.596252e+02	-2.202971e+01
1.605472e+02	-2.207789e+01
1.614745e+02	-2.213079e+01
1.624072e+02	-2.217782e+01
1.633453e+02	-2.222834e+01
1.642887e+02	-2.227912e+01
1.652377e+02	-2.232577e+01
1.661921e+02	-2.237483e+01
1.671520e+02	-2.243028e+01
1.681175e+02	-2.247681e+01
1.690885e+02	-2.252743e+01
1.700651e+02	-2.257741e+01
1.710474e+02	-2.262606e+01
1.720354e+02	-2.267614e+01
1.730291e+02	-2.272676e+01
1.740285e+02	-2.277815e+01
1.750337e+02	-2.282512e+01
1.760446e+02	-2.287465e+01
1.770615e+02	-2.292426e+01
1.780842e+02	-2.297524e+01
1.791128e+02	-2.302663e+01
1.801473e+02	-2.307517e+01
1.811878e+02	-2.312269e+01
1.822344e+02	-2.317499e+01
1.832870e+02	-2.322278e+01
1.843456e+02	-2.327488e+01
1.854104e+02	-2.332404e+01
1.864813e+02	-2.337511e+01
1.875584e+02	-2.342242e+01
1.886418e+02	-2.347389e+01
1.897313e+02	-2.352372e+01
1.908272e+02	-2.357274e+01
1.919294e+02	-2.362445e+01
1.930380e+02	-2.367271e+01
1.941530e+02	-2.372252e+01
1.952744e+02	-2.377049e+01
1.964023e+02	-2.382232e+01
1.975367e+02	-2.387162e+01
1.986777e+02	-2.392127e+01
1.998252e+02	-2.396881e+01
2.009794e+02	-2.402013e+01
2.021403e+02	-2.407233e+01
2.033078e+02	-2.412089e+01
2.044821e+02	-2.416979e+01
2.056632e+02	-2.422219e+01
2.068511e+02	-2.427144e+01
2.080459e+02	-2.432219e+01
2.092475e+02	-2.437110e+01
2.104561e+02	-2.441704e+01
2.116717e+02	-2.446890e+01
2.128943e+02	-2.452244e+01
2.141240e+02	-2.457023e+01
2.153608e+02	-2.461988e+01
2.166047e+02	-2.466940e+01
2.178558e+02	-2.471969e+01
2.191141e+02	-2.477139e+01
2.203797e+02	-2.482008e+01
2.216526e+02	-2.487039e+01
2.229329e+02	-2.491823e+01
2.242205e+02	-2.496904e+01
2.255156e+02	-2.501557e+01
2.268182e+02	-2.506675e+01
2.281283e+02	-2.511840e+01
2.294459e+02	-2.516856e+01
2.307712e+02	-2.522019e+01
2.321041e+02	-2.526931e+01
2.334447e+02	-2.531865e+01
2.347931e+02	-2.536921e+01
2.361493e+02	-2.541850e+01
2.375133e+02	-2.546697e+01
2.388851e+02	-2.551655e+01
2.402649e+02	-2.556854e+01
2.416527e+02	-2.561718e+01
2.430484e+02	-2.566885e+01
2.444523e+02	-2.571758e+01
2.458642e+02	-2.576698e+01
2.472843e+02	-2.581700e+01
2.487126e+02	-2.586529e+01
2.501492e+02	-2.591621e+01
2.515940e+02	-2.596671e+01
2.530472e+02	-2.601931e+01
2.545088e+02	-2.606703e+01
2.559789e+02	-2.611592e+01
2.574574e+02	-2.616486e+01
2.589444e+02	-2.621634e+01
2.604401e+02	-2.626421e+01
2.619444e+02	-2.631652e+01
2.634574e+02	-2.636696e+01
2.649791e+02	-2.641903e+01
2.665096e+02	-2.646535e+01
2.680489e+02	-2.651547e+01
2.695972e+02	-2.657055e+01
2.711544e+02	-2.661800e+01
2.727205e+02	-2.666638e+01
2.742958e+02	-2.671565e+01
2.758801e+02	-2.676315e+01
2.774736e+02	-2.681661e+01
2.790762e+02	-2.686735e+01
2.806882e+02	-2.691090e+01
2.823094e+02	-2.696601e+01
2.839400e+02	-2.701585e+01
2.855800e+02	-2.706486e+01
2.872295e+02	-2.711888e+01
2.888886e+02	-2.716816e+01
2.905572e+02	-2.721903e+01
2.922354e+02	-2.726644e+01
2.939234e+02	-2.731479e+01
2.956211e+02	-2.736750e+01
2.973286e+02	-2.741631e+01
2.990459e+02	-2.746600e+01
3.007732e+02	-2.751711e+01
3.025104e+02	-2.756867e+01
3.042577e+02	-2.761906e+01
3.060151e+02	-2.766654e+01
3.077826e+02	-2.771868e+01
3.095604e+02	-2.776943e+01
3.113484e+02	-2.781804e+01
3.131467e+02	-2.786724e+01
3.149554e+02	-2.791562e+01
3.167746e+02	-2.796358e+01
3.186043e+02	-2.801966e+01
3.204445e+02	-2.806981e+01
3.222954e+02	-2.811774e+01
3.241570e+02	-2.816870e+01
3.260293e+02	-2.821611e+01
3.279124e+02	-2.827072e+01
3.298064e+02	-2.831643e+01
3.317114e+02	-2.836667e+01
3.336273e+02	-2.841908e+01
3.355544e+02	-2.846516e+01
3.374925e+02	-2.851781e+01
3.394418e+02	-2.856974e+01
3.414024e+02	-2.861710e+01
3.433744e+02	-2.867325e+01
3.453577e+02	-2.871911e+01
3.473525e+02	-2.876883e+01
3.493588e+02	-2.881975e+01
3.513766e+02	-2.886822e+01
3.534062e+02	-2.891725e+01
3.554474e+02	-2.896654e+01
3.575005e+02	-2.901612e+01
3.595654e+02	-2.906645e+01
3.616422e+02	-2.911789e+01
3.637311e+02	-2.916404e+01
3.658320e+02	-2.921808e+01
3.679450e+02	-2.926754e+01
3.700702e+02	-2.931692e+01
3.722077e+02	-2.936324e+01
3.743576e+02	-2.942022e+01
3.765199e+02	-2.947121e+01
3.786946e+02	-2.952054e+01
3.808820e+02	-2.956987e+01
3.830819e+02	-2.962334e+01
3.852946e+02	-2.967290e+01
3.875200e+02	-2.971843e+01
3.897583e+02	-2.977348e+01
3.920096e+02	-2.981848e+01
3.942738e+02	-2.987060e+01
3.965511e+02	-2.991803e+01
3.988416e+02	-2.996661e+01
4.011452e+02	-3.002431e+01
4.034622e+02	-3.006523e+01
4.057926e+02	-3.011734e+01
4.081365e+02	-3.017423e+01
4.104938e+02	-3.022059e+01
4.128648e+02	-3.027298e+01
4.152495e+02	-3.031895e+01
4.176480e+02	-3.036751e+01
4.200603e+02	-3.042064e+01
4.224866e+02	-3.047046e+01
4.249268e+02	-3.052614e+01
4.273812e+02	-3.057394e+01
4.298497e+02	-3.062215e+01
4.323325e+02	-3.067154e+01
4.348297e+02	-3.072000e+01
4.373412e+02	-3.076764e+01
4.398673e+02	-3.081990e+01
4.424079e+02	-3.087599e+01
4.449633e+02	-3.091672e+01
4.475334e+02	-3.097019e+01
4.501183e+02	-3.101778e+01
4.527182e+02	-3.106969e+01
4.553330e+02	-3.112186e+01
4.579630e+02	-3.117189e+01
4.606082e+02	-3.121912e+01
4.632687e+02	-3.126742e+01
4.659445e+02	-3.132491e+01
4.686358e+02	-3.137160e+01
4.713426e+02	-3.142208e+01
4.740650e+02	-3.147302e+01
4.768032e+02	-3.152684e+01
4.795572e+02	-3.157888e+01
4.823271e+02	-3.162406e+01
4.851130e+02	-3.167471e+01
4.879150e+02	-3.172430e+01
4.907332e+02	-3.177029e+01
4.935676e+02	-3.182018e+01
4.964185e+02	-3.186860e+01
4.992858e+02	-3.193160e+01
5.021696e+02	-3.197636e+01
5.050701e+02	-3.202660e+01
5.079874e+02	-3.207291e+01
5.109215e+02	-3.213088e+01
5.138726e+02	-3.217236e+01
5.168407e+02	-3.222853e+01
5.198259e+02	-3.227993e+01
5.228284e+02	-3.233126e+01
5.258482e+02	-3.237449e+01
5.288855e+02	-3.242158e+01
5.319403e+02	-3.248254e+01
5.350128e+02	-3.252076e+01
5.381030e+02	-3.257866e+01
5.412111e+02	-3.263506e+01
5.443371e+02	-3.267538e+01
5.474812e+02	-3.273103e+01
5.506434e+02	-3.277578e+01
5.538239e+02	-3.283024e+01
5.570228e+02	-3.287540e+01
5.602401e+02	-3.292613e+01
5.634760e+02	-3.298323e+01
5.667306e+02	-3.303340e+01
5.700040e+02	-3.307995e+01
5.732964e+02	-3.313116e+01
5.766077e+02	-3.318315e+01
5.799382e+02	-3.322876e+01
5.832879e+02	-3.328782e+01
5.866569e+02	-3.333035e+01
5.900454e+02	-3.338655e+01
5.934535e+02	-3.344060e+01
5.968813e+02	-3.348796e+01
6.003288e+02	-3.352506e+01
6.037963e+02	-3.358832e+01
6.072838e+02	-3.363652e+01
6.107914e+02	-3.368569e+01
6.143194e+02	-3.372985e+01
6.178676e+02	-3.377424e+01
6.214364e+02	-3.383773e+01
6.250258e+02	-3.388997e+01
6.286359e+02	-3.392770e+01
6.322669e+02	-3.398651e+01
6.359189e+02	-3.404439e+01
6.395919e+02	-3.407969e+01
6.432862e+02	-3.413991e+01
6.470017e+02	-3.418399e+01
6.507388e+02	-3.424016e+01
6.544974e+02	-3.428342e+01
6.582778e+02	-3.434779e+01
6.620800e+02	-3.438221e+01
6.659041e+02	-3.444285e+01
6.697504e+02	-3.449141e+01
6.736188e+02	-3.453652e+01
6.775096e+02	-3.458971e+01
6.814229e+02	-3.463714e+01
6.853587e+02	-3.469126e+01
6.893173e+02	-3.474891e+01
6.932988e+02	-3.479225e+01
6.973033e+02	-3.484396e+01
7.013309e+02	-3.488499e+01
