Frequency(Hz)	Magnitude(dB)
1.000000e+01	-2.118300e+00
1.005776e+01	-2.137546e+00
1.011585e+01	-2.157322e+00
1.017428e+01	-2.176900e+00
1.023305e+01	-2.196723e+00
1.029215e+01	-2.216574e+00
1.035160e+01	-2.236583e+00
1.041139e+01	-2.256721e+00
1.047153e+01	-2.276989e+00
1.053201e+01	-2.297597e+00
1.059284e+01	-2.318108e+00
1.065403e+01	-2.339023e+00
1.071556e+01	-2.360111e+00
1.077746e+01	-2.380983e+00
1.083971e+01	-2.402098e+00
1.090232e+01	-2.423330e+00
1.096529e+01	-2.444845e+00
1.102862e+01	-2.466436e+00
1.109232e+01	-2.488085e+00
1.115639e+01	-2.510000e+00
1.122083e+01	-2.532281e+00
1.128564e+01	-2.554431e+00
1.135083e+01	-2.576835e+00
1.141639e+01	-2.599075e+00
1.148233e+01	-2.621940e+00
1.154865e+01	-2.644489e+00
1.161536e+01	-2.667423e+00
1.168245e+01	-2.690463e+00
1.174992e+01	-2.713640e+00
1.181779e+01	-2.736868e+00
1.188605e+01	-2.760276e+00
1.195470e+01	-2.783972e+00
1.202375e+01	-2.807984e+00
1.209320e+01	-2.831678e+00
1.216305e+01	-2.855514e+00
1.223330e+01	-2.879786e+00
1.230396e+01	-2.904044e+00
1.237503e+01	-2.928788e+00
1.244651e+01	-2.953312e+00
1.251840e+01	-2.977902e+00
1.259070e+01	-3.002739e+00
1.266343e+01	-3.027829e+00
1.273657e+01	-3.053267e+00
1.281014e+01	-3.078727e+00
1.288413e+01	-3.103942e+00
1.295855e+01	-3.129528e+00
1.303339e+01	-3.155248e+00
1.310867e+01	-3.181030e+00
1.318439e+01	-3.207171e+00
1.326054e+01	-3.233613e+00
1.333713e+01	-3.259624e+00
1.341417e+01	-3.286332e+00
1.349165e+01	-3.313112e+00
1.356958e+01	-3.339822e+00
1.364795e+01	-3.366528e+00
1.372678e+01	-3.393616e+00
1.380607e+01	-3.420857e+00
1.388581e+01	-3.447949e+00
1.396602e+01	-3.475567e+00
1.404668e+01	-3.503241e+00
1.412782e+01	-3.530856e+00
1.420942e+01	-3.558626e+00
1.429149e+01	-3.587088e+00
1.437404e+01	-3.615106e+00
1.445706e+01	-3.643312e+00
1.454057e+01	-3.671803e+00
1.462455e+01	-3.700592e+00
1.470902e+01	-3.729475e+00
1.479398e+01	-3.758318e+00
1.487943e+01	-3.787360e+00
1.496537e+01	-3.816671e+00
1.505181e+01	-3.845869e+00
1.513875e+01	-3.875314e+00
1.522619e+01	-3.904775e+00
1.531414e+01	-3.934821e+00
1.540259e+01	-3.964387e+00
1.549156e+01	-3.994222e+00
1.558103e+01	-4.024681e+00
1.567103e+01	-4.054904e+00
1.576155e+01	-4.085570e+00
1.585258e+01	-4.115868e+00
1.594415e+01	-4.146642e+00
1.603624e+01	-4.177649e+00
1.612886e+01	-4.208181e+00
1.622202e+01	-4.239391e+00
1.631572e+01	-4.270945e+00
1.640996e+01	-4.302179e+00
1.650474e+01	-4.334066e+00
1.660008e+01	-4.365357e+00
1.669596e+01	-4.397240e+00
1.679239e+01	-4.429021e+00
1.688938e+01	-4.461134e+00
1.698694e+01	-4.493197e+00
1.708505e+01	-4.525580e+00
1.718373e+01	-4.558144e+00
1.728299e+01	-4.590738e+00
1.738281e+01	-4.623416e+00
1.748322e+01	-4.656154e+00
1.758420e+01	-4.689017e+00
1.768576e+01	-4.722417e+00
1.778792e+01	-4.755316e+00
1.789066e+01	-4.788619e+00
1.799399e+01	-4.822310e+00
1.809793e+01	-4.855814e+00
1.820246e+01	-4.889592e+00
1.830760e+01	-4.923482e+00
1.841334e+01	-4.957578e+00
1.851969e+01	-4.991377e+00
1.862666e+01	-5.026010e+00
1.873425e+01	-5.060256e+00
1.884246e+01	-5.094670e+00
1.895129e+01	-5.128894e+00
1.906075e+01	-5.164027e+00
1.917085e+01	-5.199118e+00
1.928158e+01	-5.233668e+00
1.939295e+01	-5.269077e+00
1.950496e+01	-5.304121e+00
1.961762e+01	-5.339543e+00
1.973093e+01	-5.374783e+00
1.984490e+01	-5.410571e+00
1.995952e+01	-5.446256e+00
2.007480e+01	-5.482010e+00
2.019076e+01	-5.517848e+00
2.030738e+01	-5.554072e+00
2.042467e+01	-5.590141e+00
2.054264e+01	-5.626496e+00
2.066130e+01	-5.663115e+00
2.078064e+01	-5.699433e+00
2.090066e+01	-5.735954e+00
2.102139e+01	-5.772927e+00
2.114280e+01	-5.809951e+00
2.126492e+01	-5.846660e+00
2.138775e+01	-5.883515e+00
2.151128e+01	-5.920501e+00
2.163553e+01	-5.957849e+00
2.176050e+01	-5.995224e+00
2.188619e+01	-6.032820e+00
2.201260e+01	-6.070433e+00
2.213974e+01	-6.108288e+00
2.226762e+01	-6.145843e+00
2.239624e+01	-6.183530e+00
2.252560e+01	-6.221727e+00
2.265571e+01	-6.260308e+00
2.278656e+01	-6.298366e+00
2.291818e+01	-6.336759e+00
2.305055e+01	-6.375358e+00
2.318369e+01	-6.413548e+00
2.331760e+01	-6.452557e+00
2.345228e+01	-6.490626e+00
2.358774e+01	-6.529740e+00
2.372398e+01	-6.568669e+00
2.386101e+01	-6.608009e+00
2.399883e+01	-6.647032e+00
2.413745e+01	-6.686310e+00
2.427686e+01	-6.725995e+00
2.441709e+01	-6.765287e+00
2.455812e+01	-6.804672e+00
2.469997e+01	-6.844401e+00
2.484263e+01	-6.884222e+00
2.498612e+01	-6.923849e+00
2.513044e+01	-6.963975e+00
2.527559e+01	-7.003986e+00
2.542158e+01	-7.044156e+00
2.556842e+01	-7.084097e+00
2.571610e+01	-7.124607e+00
2.586463e+01	-7.164816e+00
2.601403e+01	-7.205350e+00
2.616428e+01	-7.245543e+00
2.631541e+01	-7.286653e+00
2.646740e+01	-7.327069e+00
2.662028e+01	-7.367683e+00
2.677404e+01	-7.408612e+00
2.692868e+01	-7.449901e+00
2.708422e+01	-7.491276e+00
2.724066e+01	-7.531727e+00
2.739800e+01	-7.573410e+00
2.755625e+01	-7.614408e+00
2.771541e+01	-7.656426e+00
2.787550e+01	-7.697065e+00
2.803650e+01	-7.738829e+00
2.819844e+01	-7.780384e+00
2.836131e+01	-7.822123e+00
2.852513e+01	-7.863878e+00
2.868989e+01	-7.906038e+00
2.885560e+01	-7.948117e+00
2.902227e+01	-7.990135e+00
2.918990e+01	-8.031834e+00
2.935850e+01	-8.074294e+00
2.952807e+01	-8.116751e+00
2.969863e+01	-8.158998e+00
2.987016e+01	-8.201256e+00
3.004269e+01	-8.243987e+00
3.021622e+01	-8.286098e+00
3.039075e+01	-8.329064e+00
3.056628e+01	-8.372246e+00
3.074283e+01	-8.414964e+00
3.092040e+01	-8.457427e+00
3.109900e+01	-8.500384e+00
3.127862e+01	-8.543534e+00
3.145929e+01	-8.586183e+00
3.164099e+01	-8.629633e+00
3.182375e+01	-8.672464e+00
3.200756e+01	-8.716173e+00
3.219244e+01	-8.759311e+00
3.237838e+01	-8.802450e+00
3.256540e+01	-8.846421e+00
3.275349e+01	-8.889951e+00
3.294268e+01	-8.933132e+00
3.313295e+01	-8.976783e+00
3.332433e+01	-9.021264e+00
3.351681e+01	-9.064711e+00
3.371040e+01	-9.108330e+00
3.390511e+01	-9.152200e+00
3.410094e+01	-9.196223e+00
3.429791e+01	-9.240509e+00
3.449601e+01	-9.284469e+00
3.469526e+01	-9.328504e+00
3.489566e+01	-9.372753e+00
3.509721e+01	-9.416847e+00
3.529993e+01	-9.461648e+00
3.550382e+01	-9.505618e+00
3.570889e+01	-9.550184e+00
3.591515e+01	-9.594809e+00
3.612259e+01	-9.639037e+00
3.633123e+01	-9.683540e+00
3.654108e+01	-9.728524e+00
3.675214e+01	-9.773376e+00
3.696442e+01	-9.817902e+00
3.717792e+01	-9.863505e+00
3.739266e+01	-9.908008e+00
3.760864e+01	-9.952669e+00
3.782587e+01	-9.997495e+00
3.804435e+01	-1.004252e+01
3.826409e+01	-1.008807e+01
3.848510e+01	-1.013330e+01
3.870739e+01	-1.017792e+01
3.893096e+01	-1.022358e+01
3.915583e+01	-1.026891e+01
3.938199e+01	-1.031402e+01
3.960946e+01	-1.035975e+01
3.983824e+01	-1.040530e+01
4.006834e+01	-1.045088e+01
4.029978e+01	-1.049632e+01
4.053255e+01	-1.054208e+01
4.076666e+01	-1.058719e+01
4.100213e+01	-1.063342e+01
4.123896e+01	-1.067879e+01
4.147715e+01	-1.072471e+01
4.171672e+01	-1.076979e+01
4.195767e+01	-1.081594e+01
4.220002e+01	-1.086204e+01
4.244377e+01	-1.090797e+01
4.268892e+01	-1.095421e+01
4.293549e+01	-1.100019e+01
4.318348e+01	-1.104641e+01
4.343291e+01	-1.109223e+01
4.368377e+01	-1.113815e+01
4.393609e+01	-1.118439e+01
4.418986e+01	-1.123097e+01
4.444510e+01	-1.127697e+01
4.470182e+01	-1.132318e+01
4.496001e+01	-1.137001e+01
4.521970e+01	-1.141635e+01
4.548089e+01	-1.146286e+01
4.574358e+01	-1.150897e+01
4.600779e+01	-1.155540e+01
4.627353e+01	-1.160211e+01
4.654081e+01	-1.164829e+01
4.680963e+01	-1.169599e+01
4.708000e+01	-1.174198e+01
4.735193e+01	-1.178831e+01
4.762543e+01	-1.183542e+01
4.790051e+01	-1.188187e+01
4.817719e+01	-1.192951e+01
4.845545e+01	-1.197566e+01
4.873533e+01	-1.202279e+01
4.901682e+01	-1.206888e+01
4.929994e+01	-1.211591e+01
4.958470e+01	-1.216357e+01
4.987110e+01	-1.221056e+01
5.015915e+01	-1.225764e+01
5.044887e+01	-1.230539e+01
5.074026e+01	-1.235144e+01
5.103333e+01	-1.239918e+01
5.132810e+01	-1.244621e+01
5.162457e+01	-1.249302e+01
5.192275e+01	-1.254059e+01
5.222265e+01	-1.258768e+01
5.252429e+01	-1.263425e+01
5.282767e+01	-1.268238e+01
5.313280e+01	-1.272942e+01
5.343969e+01	-1.277695e+01
5.374836e+01	-1.282472e+01
5.405880e+01	-1.287222e+01
5.437105e+01	-1.291877e+01
5.468509e+01	-1.296692e+01
5.500095e+01	-1.301441e+01
5.531863e+01	-1.306210e+01
5.563815e+01	-1.310903e+01
5.595951e+01	-1.315677e+01
5.628273e+01	-1.320432e+01
5.660782e+01	-1.325293e+01
5.693479e+01	-1.330037e+01
5.726364e+01	-1.334726e+01
5.759439e+01	-1.339522e+01
5.792705e+01	-1.344309e+01
5.826164e+01	-1.349121e+01
5.859815e+01	-1.353827e+01
5.893662e+01	-1.358640e+01
5.927703e+01	-1.363416e+01
5.961941e+01	-1.368243e+01
5.996377e+01	-1.372978e+01
6.031012e+01	-1.377869e+01
6.065847e+01	-1.382604e+01
6.100883e+01	-1.387298e+01
6.136121e+01	-1.392228e+01
6.171563e+01	-1.396941e+01
6.207210e+01	-1.401855e+01
6.243063e+01	-1.406566e+01
6.279122e+01	-1.411483e+01
6.315390e+01	-1.416179e+01
6.351868e+01	-1.421065e+01
6.388556e+01	-1.425810e+01
6.425456e+01	-1.430721e+01
6.462569e+01	-1.435465e+01
6.499897e+01	-1.440309e+01
6.537440e+01	-1.445105e+01
6.575200e+01	-1.449977e+01
6.613178e+01	-1.454806e+01
6.651375e+01	-1.459671e+01
6.689793e+01	-1.464397e+01
6.728433e+01	-1.469350e+01
6.767297e+01	-1.474053e+01
6.806384e+01	-1.478852e+01
6.845698e+01	-1.483746e+01
6.885238e+01	-1.488629e+01
6.925007e+01	-1.493449e+01
6.965005e+01	-1.498301e+01
7.005235e+01	-1.503187e+01
7.045697e+01	-1.507921e+01
7.086393e+01	-1.512839e+01
7.127323e+01	-1.517631e+01
7.168490e+01	-1.522570e+01
7.209895e+01	-1.527402e+01
7.251539e+01	-1.532240e+01
7.293424e+01	-1.537150e+01
7.335551e+01	-1.541978e+01
7.377920e+01	-1.546817e+01
7.420535e+01	-1.551632e+01
7.463396e+01	-1.556532e+01
7.506504e+01	-1.561436e+01
7.549861e+01	-1.566288e+01
7.593469e+01	-1.571114e+01
7.637328e+01	-1.575986e+01
7.681441e+01	-1.580911e+01
7.725809e+01	-1.585729e+01
7.770433e+01	-1.590590e+01
7.815315e+01	-1.595387e+01
7.860456e+01	-1.600383e+01
7.905857e+01	-1.605299e+01
7.951521e+01	-1.610084e+01
7.997449e+01	-1.615148e+01
8.043642e+01	-1.619961e+01
8.090102e+01	-1.624837e+01
8.136830e+01	-1.629554e+01
8.183828e+01	-1.634542e+01
8.231097e+01	-1.639526e+01
8.278640e+01	-1.644312e+01
8.326457e+01	-1.649327e+01
8.374550e+01	-1.654194e+01
8.422921e+01	-1.658882e+01
8.471572e+01	-1.663963e+01
8.520503e+01	-1.668877e+01
8.569717e+01	-1.673660e+01
8.619215e+01	-1.678584e+01
8.669000e+01	-1.683476e+01
8.719071e+01	-1.688423e+01
8.769432e+01	-1.693160e+01
8.820084e+01	-1.698229e+01
8.871029e+01	-1.703132e+01
8.922267e+01	-1.707831e+01
8.973802e+01	-1.712854e+01
9.025634e+01	-1.717874e+01
9.077766e+01	-1.722595e+01
9.130199e+01	-1.727660e+01
9.182935e+01	-1.732575e+01
9.235975e+01	-1.737482e+01
9.289321e+01	-1.742448e+01
9.342976e+01	-1.747311e+01
9.396941e+01	-1.752212e+01
9.451217e+01	-1.757197e+01
9.505807e+01	-1.761936e+01
9.560712e+01	-1.767020e+01
9.615934e+01	-1.771770e+01
9.671476e+01	-1.776742e+01
9.727338e+01	-1.781589e+01
9.783522e+01	-1.786585e+01
9.840032e+01	-1.791496e+01
9.896867e+01	-1.796559e+01
9.954031e+01	-1.801287e+01
1.001153e+02	-1.806407e+01
1.006935e+02	-1.811247e+01
1.012751e+02	-1.816196e+01
1.018601e+02	-1.821084e+01
1.024484e+02	-1.826006e+01
1.030402e+02	-1.830907e+01
1.036353e+02	-1.835913e+01
1.042339e+02	-1.840877e+01
1.048360e+02	-1.845904e+01
1.054415e+02	-1.850652e+01
1.060505e+02	-1.855506e+01
1.066631e+02	-1.860520e+01
1.072791e+02	-1.865454e+01
1.078988e+02	-1.870362e+01
1.085220e+02	-1.875267e+01
1.091488e+02	-1.880264e+01
1.097793e+02	-1.885229e+01
1.104133e+02	-1.890170e+01
1.110511e+02	-1.895133e+01
1.116925e+02	-1.899990e+01
1.123376e+02	-1.904907e+01
1.129865e+02	-1.909957e+01
1.136391e+02	-1.914697e+01
1.142955e+02	-1.919753e+01
1.149556e+02	-1.924820e+01
1.156196e+02	-1.929827e+01
1.162874e+02	-1.934667e+01
1.169591e+02	-1.939520e+01
1.176347e+02	-1.944437e+01
1.183141e+02	-1.949390e+01
1.189975e+02	-1.954394e+01
1.196848e+02	-1.959565e+01
1.203761e+02	-1.964377e+01
1.210714e+02	-1.969351e+01
1.217707e+02	-1.974334e+01
1.224740e+02	-1.979205e+01
1.231814e+02	-1.984129e+01
1.238929e+02	-1.989189e+01
1.246085e+02	-1.994149e+01
1.253283e+02	-1.999023e+01
1.260522e+02	-2.004021e+01
1.267802e+02	-2.008996e+01
1.275125e+02	-2.013771e+01
1.282490e+02	-2.018847e+01
1.289898e+02	-2.023745e+01
1.297348e+02	-2.028650e+01
1.304842e+02	-2.033766e+01
1.312378e+02	-2.038732e+01
1.319959e+02	-2.043669e+01
1.327583e+02	-2.048546e+01
1.335251e+02	-2.053338e+01
1.342963e+02	-2.058417e+01
1.350720e+02	-2.063426e+01
1.358522e+02	-2.068476e+01
1.366368e+02	-2.073263e+01
1.374260e+02	-2.078535e+01
1.382198e+02	-2.083278e+01
1.390182e+02	-2.088347e+01
1.398211e+02	-2.093388e+01
1.406287e+02	-2.098329e+01
1.414410e+02	-2.103200e+01
1.422579e+02	-2.108065e+01
1.430796e+02	-2.113148e+01
1.439060e+02	-2.117981e+01
1.447372e+02	-2.122959e+01
1.455732e+02	-2.127821e+01
1.464141e+02	-2.132856e+01
1.472597e+02	-2.137825e+01
1.481103e+02	-2.142971e+01
1.489658e+02	-2.147729e+01
1.498262e+02	-2.152768e+01
1.506916e+02	-2.157536e+01
1.515620e+02	-2.162750e+01
1.524374e+02	-2.167652e+01
1.533179e+02	-2.172745e+01
1.542034e+02	-2.177594e+01
1.550941e+02	-2.182748e+01
1.559899e+02	-2.187738e+01
1.568909e+02	-2.192506e+01
1.577971e+02	-2.197543e+01
1.587085e+02	-2.202598e+01
1.596252e+02	-2.207506e+01
1.605472e+02	-2.212373e+01
1.614745e+02	-2.217652e+01
1.624072e+02	-2.222264e+01
1.633453e+02	-2.227335e+01
1.642887e+02	-2.232449e+01
1.652377e+02	-2.237363e+01
1.661921e+02	-2.242287e+01
1.671520e+02	-2.247169e+01
1.681175e+02	-2.252273e+01
1.690885e+02	-2.257421e+01
1.700651e+02	-2.262233e+01
1.710474e+02	-2.267231e+01
1.720354e+02	-2.272329e+01
1.730291e+02	-2.277098e+01
1.740285e+02	-2.282143e+01
1.750337e+02	-2.287261e+01
1.760446e+02	-2.292033e+01
1.770615e+02	-2.297111e+01
1.780842e+02	-2.302251e+01
1.791128e+02	-2.307121e+01
1.801473e+02	-2.311823e+01
1.811878e+02	-2.316671e+01
1.822344e+02	-2.322169e+01
1.832870e+02	-2.326858e+01
1.843456e+02	-2.331860e+01
1.854104e+02	-2.337004e+01
1.864813e+02	-2.341994e+01
1.875584e+02	-2.346652e+01
1.886418e+02	-2.351795e+01
1.897313e+02	-2.356869e+01
1.908272e+02	-2.361647e+01
1.919294e+02	-2.366810e+01
1.930380e+02	-2.371699e+01
1.941530e+02	-2.376814e+01
1.952744e+02	-2.381791e+01
1.964023e+02	-2.386684e+01
1.975367e+02	-2.391648e+01
1.986777e+02	-2.396663e+01
1.998252e+02	-2.401865e+01
2.009794e+02	-2.406710e+01
2.021403e+02	-2.411691e+01
2.033078e+02	-2.416739e+01
2.044821e+02	-2.421513e+01
2.056632e+02	-2.426491e+01
2.068511e+02	-2.431593e+01
2.080459e+02	-2.436824e+01
2.092475e+02	-2.441567e+01
2.104561e+02	-2.446532e+01
2.116717e+02	-2.451452e+01
2.128943e+02	-2.456661e+01
2.141240e+02	-2.461569e+01
2.153608e+02	-2.466482e+01
2.166047e+02	-2.471549e+01
2.178558e+02	-2.476584e+01
2.191141e+02	-2.481733e+01
2.203797e+02	-2.486583e+01
2.216526e+02	-2.491425e+01
2.229329e+02	-2.496345e+01
2.242205e+02	-2.501432e+01
2.255156e+02	-2.506380e+01
2.268182e+02	-2.511386e+01
2.281283e+02	-2.516302e+01
2.294459e+02	-2.521563e+01
2.307712e+02	-2.526578e+01
2.321041e+02	-2.531578e+01
2.334447e+02	-2.536292e+01
2.347931e+02	-2.541395e+01
2.361493e+02	-2.546618e+01
2.375133e+02	-2.551613e+01
2.388851e+02	-2.556431e+01
2.402649e+02	-2.561326e+01
2.416527e+02	-2.566593e+01
2.430484e+02	-2.571307e+01
2.444523e+02	-2.576722e+01
2.458642e+02	-2.581431e+01
2.472843e+02	-2.586223e+01
2.487126e+02	-2.591505e+01
2.501492e+02	-2.596191e+01
2.515940e+02	-2.601306e+01
2.530472e+02	-2.606455e+01
2.545088e+02	-2.611302e+01
2.559789e+02	-2.616266e+01
2.574574e+02	-2.621299e+01
2.589444e+02	-2.626494e+01
2.604401e+02	-2.631034e+01
2.619444e+02	-2.635942e+01
2.634574e+02	-2.641199e+01
2.649791e+02	-2.646356e+01
2.665096e+02	-2.651424e+01
2.680489e+02	-2.656491e+01
2.695972e+02	-2.661006e+01
2.711544e+02	-2.666488e+01
2.727205e+02	-2.671200e+01
2.742958e+02	-2.676271e+01
2.758801e+02	-2.680821e+01
2.774736e+02	-2.685810e+01
2.790762e+02	-2.691499e+01
2.806882e+02	-2.696048e+01
2.823094e+02	-2.701566e+01
2.839400e+02	-2.706255e+01
2.855800e+02	-2.711352e+01
2.872295e+02	-2.716220e+01
2.888886e+02	-2.720926e+01
2.905572e+02	-2.726068e+01
2.922354e+02	-2.731161e+01
2.939234e+02	-2.735941e+01
2.956211e+02	-2.741052e+01
2.973286e+02	-2.746029e+01
2.990459e+02	-2.750940e+01
3.007732e+02	-2.756534e+01
3.025104e+02	-2.760981e+01
3.042577e+02	-2.766303e+01
3.060151e+02	-2.771436e+01
3.077826e+02	-2.776021e+01
3.095604e+02	-2.781624e+01
3.113484e+02	-2.786038e+01
3.131467e+02	-2.791118e+01
3.149554e+02	-2.795954e+01
3.167746e+02	-2.800910e+01
3.186043e+02	-2.806289e+01
3.204445e+02	-2.811256e+01
3.222954e+02	-2.815912e+01
3.241570e+02	-2.821174e+01
3.260293e+02	-2.826122e+01
3.279124e+02	-2.831498e+01
3.298064e+02	-2.836137e+01
3.317114e+02	-2.841259e+01
3.336273e+02	-2.846159e+01
3.355544e+02	-2.851778e+01
3.374925e+02	-2.856301e+01
3.394418e+02	-2.861156e+01
3.414024e+02	-2.866395e+01
3.433744e+02	-2.871315e+01
3.453577e+02	-2.876133e+01
3.473525e+02	-2.880920e+01
3.493588e+02	-2.886476e+01
3.513766e+02	-2.891770e+01
3.534062e+02	-2.896360e+01
3.554474e+02	-2.901220e+01
3.575005e+02	-2.906325e+01
3.595654e+02	-2.911649e+01
3.616422e+02	-2.916075e+01
3.637311e+02	-2.921252e+01
3.658320e+02	-2.926235e+01
3.679450e+02	-2.931691e+01
3.700702e+02	-2.936559e+01
3.722077e+02	-2.941465e+01
3.743576e+02	-2.946007e+01
3.765199e+02	-2.951335e+01
3.786946e+02	-2.956058e+01
3.808820e+02	-2.961589e+01
3.830819e+02	-2.966530e+01
3.852946e+02	-2.971444e+01
3.875200e+02	-2.976895e+01
3.897583e+02	-2.981581e+01
3.920096e+02	-2.986941e+01
3.942738e+02	-2.991618e+01
3.965511e+02	-2.996694e+01
3.988416e+02	-3.001591e+01
4.011452e+02	-3.006425e+01
4.034622e+02	-3.011802e+01
4.057926e+02	-3.016850e+01
4.081365e+02	-3.021342e+01
4.104938e+02	-3.026264e+01
4.128648e+02	-3.031685e+01
4.152495e+02	-3.036533e+01
4.176480e+02	-3.041914e+01
4.200603e+02	-3.046604e+01
4.224866e+02	-3.051301e+01
4.249268e+02	-3.057563e+01
4.273812e+02	-3.061584e+01
4.298497e+02	-3.066389e+01
4.323325e+02	-3.071578e+01
4.348297e+02	-3.076440e+01
4.373412e+02	-3.082043e+01
4.398673e+02	-3.086578e+01
4.424079e+02	-3.091777e+01
4.449633e+02	-3.096670e+01
4.475334e+02	-3.101576e+01
4.501183e+02	-3.106648e+01
4.527182e+02	-3.111593e+01
4.553330e+02	-3.116611e+01
4.579630e+02	-3.121726e+01
4.606082e+02	-3.126938e+01
4.632687e+02	-3.131620e+01
4.659445e+02	-3.137281e+01
4.686358e+02	-3.142086e+01
4.713426e+02	-3.146749e+01
4.740650e+02	-3.151939e+01
4.768032e+02	-3.155736e+01
4.795572e+02	-3.161519e+01
4.823271e+02	-3.167175e+01
4.851130e+02	-3.171751e+01
4.879150e+02	-3.176831e+01
4.907332e+02	-3.182023e+01
4.935676e+02	-3.187245e+01
4.964185e+02	-3.192273e+01
4.992858e+02	-3.197157e+01
5.021696e+02	-3.201971e+01
5.050701e+02	-3.206379e+01
5.079874e+02	-3.212613e+01
5.109215e+02	-3.217120e+01
5.138726e+02	-3.222023e+01
5.168407e+02	-3.226874e+01
5.198259e+02	-3.231948e+01
5.228284e+02	-3.237717e+01
5.258482e+02	-3.242688e+01
5.288855e+02	-3.247811e+01
5.319403e+02	-3.252915e+01
5.350128e+02	-3.256865e+01
5.381030e+02	-3.262437e+01
5.412111e+02	-3.267319e+01
5.443371e+02	-3.272164e+01
5.474812e+02	-3.277541e+01
5.506434e+02	-3.282787e+01
5.538239e+02	-3.286842e+01
5.570228e+02	-3.292680e+01
5.602401e+02	-3.297285e+01
5.634760e+02	-3.302141e+01
5.667306e+02	-3.307004e+01
5.700040e+02	-3.312414e+01
5.732964e+02	-3.317987e+01
5.766077e+02	-3.321803e+01
5.799382e+02	-3.327552e+01
5.832879e+02	-3.332249e+01
5.866569e+02	-3.336888e+01
5.900454e+02	-3.342857e+01
5.934535e+02	-3.347008e+01
5.968813e+02	-3.352613e+01
6.003288e+02	-3.357867e+01
6.037963e+02	-3.362962e+01
6.072838e+02	-3.367788e+01
6.107914e+02	-3.373062e+01
6.143194e+02	-3.377941e+01
6.178676e+02	-3.383001e+01
6.214364e+02	-3.388200e+01
6.250258e+02	-3.392537e+01
6.286359e+02	-3.398647e+01
6.322669e+02	-3.403099e+01
6.359189e+02	-3.408119e+01
6.395919e+02	-3.413411e+01
6.432862e+02	-3.417755e+01
6.470017e+02	-3.423386e+01
6.507388e+02	-3.428476e+01
6.544974e+02	-3.432902e+01
6.582778e+02	-3.438003e+01
6.620800e+02	-3.443757e+01
6.659041e+02	-3.449793e+01
6.697504e+02	-3.453355e+01
6.736188e+02	-3.458678e+01
6.775096e+02	-3.463422e+01
6.814229e+02	-3.467790e+01
6.853587e+02	-3.474499e+01
6.893173e+02	-3.478397e+01
6.932988e+02	-3.483320e+01
6.973033e+02	-3.488252e+01
7.013309e+02	-3.494351e+01
