Frequency(Hz)	Magnitude(dB)
1.000000e+01	-1.849431e+00
1.005776e+01	-1.866729e+00
1.011585e+01	-1.884421e+00
1.017428e+01	-1.901859e+00
1.023305e+01	-1.919809e+00
1.029215e+01	-1.937826e+00
1.035160e+01	-1.955981e+00
1.041139e+01	-1.974020e+00
1.047153e+01	-1.992374e+00
1.053201e+01	-2.010966e+00
1.059284e+01	-2.029461e+00
1.065403e+01	-2.048178e+00
1.071556e+01	-2.067012e+00
1.077746e+01	-2.086106e+00
1.083971e+01	-2.105184e+00
1.090232e+01	-2.124516e+00
1.096529e+01	-2.143976e+00
1.102862e+01	-2.163482e+00
1.109232e+01	-2.183013e+00
1.115639e+01	-2.203080e+00
1.122083e+01	-2.222990e+00
1.128564e+01	-2.243179e+00
1.135083e+01	-2.263415e+00
1.141639e+01	-2.283701e+00
1.148233e+01	-2.304354e+00
1.154865e+01	-2.324788e+00
1.161536e+01	-2.345796e+00
1.168245e+01	-2.366824e+00
1.174992e+01	-2.387805e+00
1.181779e+01	-2.408970e+00
1.188605e+01	-2.430444e+00
1.195470e+01	-2.451959e+00
1.202375e+01	-2.473647e+00
1.209320e+01	-2.495419e+00
1.216305e+01	-2.517221e+00
1.223330e+01	-2.539442e+00
1.230396e+01	-2.561624e+00
1.237503e+01	-2.583978e+00
1.244651e+01	-2.606580e+00
1.251840e+01	-2.629064e+00
1.259070e+01	-2.651870e+00
1.266343e+01	-2.674794e+00
1.273657e+01	-2.697804e+00
1.281014e+01	-2.720997e+00
1.288413e+01	-2.744430e+00
1.295855e+01	-2.767840e+00
1.303339e+01	-2.791589e+00
1.310867e+01	-2.815309e+00
1.318439e+01	-2.839429e+00
1.326054e+01	-2.863214e+00
1.333713e+01	-2.887462e+00
1.341417e+01	-2.912075e+00
1.349165e+01	-2.936489e+00
1.356958e+01	-2.961319e+00
1.364795e+01	-2.986162e+00
1.372678e+01	-3.010829e+00
1.380607e+01	-3.036149e+00
1.388581e+01	-3.061256e+00
1.396602e+01	-3.086480e+00
1.404668e+01	-3.112511e+00
1.412782e+01	-3.137853e+00
1.420942e+01	-3.163639e+00
1.429149e+01	-3.189535e+00
1.437404e+01	-3.215585e+00
1.445706e+01	-3.241853e+00
1.454057e+01	-3.268122e+00
1.462455e+01	-3.295003e+00
1.470902e+01	-3.321534e+00
1.479398e+01	-3.348299e+00
1.487943e+01	-3.375176e+00
1.496537e+01	-3.402478e+00
1.505181e+01	-3.429643e+00
1.513875e+01	-3.456960e+00
1.522619e+01	-3.484416e+00
1.531414e+01	-3.512131e+00
1.540259e+01	-3.539914e+00
1.549156e+01	-3.568201e+00
1.558103e+01	-3.596098e+00
1.567103e+01	-3.624507e+00
1.576155e+01	-3.652748e+00
1.585258e+01	-3.681417e+00
1.594415e+01	-3.709847e+00
1.603624e+01	-3.738738e+00
1.612886e+01	-3.767751e+00
1.622202e+01	-3.796293e+00
1.631572e+01	-3.825770e+00
1.640996e+01	-3.855245e+00
1.650474e+01	-3.884987e+00
1.660008e+01	-3.914523e+00
1.669596e+01	-3.944252e+00
1.679239e+01	-3.974006e+00
1.688938e+01	-4.004086e+00
1.698694e+01	-4.034578e+00
1.708505e+01	-4.064750e+00
1.718373e+01	-4.095203e+00
1.728299e+01	-4.125820e+00
1.738281e+01	-4.156389e+00
1.748322e+01	-4.187621e+00
1.758420e+01	-4.218458e+00
1.768576e+01	-4.249576e+00
1.778792e+01	-4.280874e+00
1.789066e+01	-4.312425e+00
1.799399e+01	-4.343886e+00
1.809793e+01	-4.375584e+00
1.820246e+01	-4.407250e+00
1.830760e+01	-4.439409e+00
1.841334e+01	-4.471632e+00
1.851969e+01	-4.503683e+00
1.862666e+01	-4.536032e+00
1.873425e+01	-4.568539e+00
1.884246e+01	-4.601091e+00
1.895129e+01	-4.633873e+00
1.906075e+01	-4.666508e+00
1.917085e+01	-4.699824e+00
1.928158e+01	-4.732799e+00
1.939295e+01	-4.766324e+00
1.950496e+01	-4.799542e+00
1.961762e+01	-4.833143e+00
1.973093e+01	-4.866721e+00
1.984490e+01	-4.900543e+00
1.995952e+01	-4.934421e+00
2.007480e+01	-4.968162e+00
2.019076e+01	-5.002649e+00
2.030738e+01	-5.036858e+00
2.042467e+01	-5.071367e+00
2.054264e+01	-5.105969e+00
2.066130e+01	-5.140213e+00
2.078064e+01	-5.175078e+00
2.090066e+01	-5.210061e+00
2.102139e+01	-5.245094e+00
2.114280e+01	-5.279879e+00
2.126492e+01	-5.315503e+00
2.138775e+01	-5.351074e+00
2.151128e+01	-5.386501e+00
2.163553e+01	-5.422123e+00
2.176050e+01	-5.457670e+00
2.188619e+01	-5.493479e+00
2.201260e+01	-5.529575e+00
2.213974e+01	-5.565329e+00
2.226762e+01	-5.601665e+00
2.239624e+01	-5.638051e+00
2.252560e+01	-5.674691e+00
2.265571e+01	-5.711149e+00
2.278656e+01	-5.747801e+00
2.291818e+01	-5.784659e+00
2.305055e+01	-5.821497e+00
2.318369e+01	-5.858324e+00
2.331760e+01	-5.895415e+00
2.345228e+01	-5.932828e+00
2.358774e+01	-5.970016e+00
2.372398e+01	-6.007331e+00
2.386101e+01	-6.045039e+00
2.399883e+01	-6.082644e+00
2.413745e+01	-6.120400e+00
2.427686e+01	-6.158375e+00
2.441709e+01	-6.195877e+00
2.455812e+01	-6.234181e+00
2.469997e+01	-6.272454e+00
2.484263e+01	-6.310687e+00
2.498612e+01	-6.349214e+00
2.513044e+01	-6.387309e+00
2.527559e+01	-6.426065e+00
2.542158e+01	-6.464793e+00
2.556842e+01	-6.503616e+00
2.571610e+01	-6.542306e+00
2.586463e+01	-6.581606e+00
2.601403e+01	-6.620892e+00
2.616428e+01	-6.659768e+00
2.631541e+01	-6.699171e+00
2.646740e+01	-6.738668e+00
2.662028e+01	-6.778077e+00
2.677404e+01	-6.817289e+00
2.692868e+01	-6.857273e+00
2.708422e+01	-6.896670e+00
2.724066e+01	-6.936811e+00
2.739800e+01	-6.976995e+00
2.755625e+01	-7.016543e+00
2.771541e+01	-7.057055e+00
2.787550e+01	-7.096936e+00
2.803650e+01	-7.137234e+00
2.819844e+01	-7.177544e+00
2.836131e+01	-7.218037e+00
2.852513e+01	-7.258970e+00
2.868989e+01	-7.299504e+00
2.885560e+01	-7.340208e+00
2.902227e+01	-7.380982e+00
2.918990e+01	-7.422054e+00
2.935850e+01	-7.463125e+00
2.952807e+01	-7.503876e+00
2.969863e+01	-7.545306e+00
2.987016e+01	-7.586347e+00
3.004269e+01	-7.627608e+00
3.021622e+01	-7.669345e+00
3.039075e+01	-7.711100e+00
3.056628e+01	-7.752592e+00
3.074283e+01	-7.794089e+00
3.092040e+01	-7.835844e+00
3.109900e+01	-7.877429e+00
3.127862e+01	-7.919459e+00
3.145929e+01	-7.961068e+00
3.164099e+01	-8.003615e+00
3.182375e+01	-8.045534e+00
3.200756e+01	-8.087866e+00
3.219244e+01	-8.130134e+00
3.237838e+01	-8.172651e+00
3.256540e+01	-8.214984e+00
3.275349e+01	-8.257364e+00
3.294268e+01	-8.300012e+00
3.313295e+01	-8.342615e+00
3.332433e+01	-8.385909e+00
3.351681e+01	-8.428722e+00
3.371040e+01	-8.471183e+00
3.390511e+01	-8.514227e+00
3.410094e+01	-8.557512e+00
3.429791e+01	-8.600410e+00
3.449601e+01	-8.643805e+00
3.469526e+01	-8.686901e+00
3.489566e+01	-8.729626e+00
3.509721e+01	-8.773394e+00
3.529993e+01	-8.816795e+00
3.550382e+01	-8.860289e+00
3.570889e+01	-8.904045e+00
3.591515e+01	-8.947253e+00
3.612259e+01	-8.991108e+00
3.633123e+01	-9.035441e+00
3.654108e+01	-9.079078e+00
3.675214e+01	-9.123212e+00
3.696442e+01	-9.166716e+00
3.717792e+01	-9.210531e+00
3.739266e+01	-9.254537e+00
3.760864e+01	-9.298292e+00
3.782587e+01	-9.343057e+00
3.804435e+01	-9.386978e+00
3.826409e+01	-9.431560e+00
3.848510e+01	-9.475170e+00
3.870739e+01	-9.520027e+00
3.893096e+01	-9.564490e+00
3.915583e+01	-9.609205e+00
3.938199e+01	-9.653470e+00
3.960946e+01	-9.698023e+00
3.983824e+01	-9.743002e+00
4.006834e+01	-9.787394e+00
4.029978e+01	-9.832852e+00
4.053255e+01	-9.877961e+00
4.076666e+01	-9.922451e+00
4.100213e+01	-9.966829e+00
4.123896e+01	-1.001192e+01
4.147715e+01	-1.005774e+01
4.171672e+01	-1.010273e+01
4.195767e+01	-1.014799e+01
4.220002e+01	-1.019324e+01
4.244377e+01	-1.023803e+01
4.268892e+01	-1.028364e+01
4.293549e+01	-1.032911e+01
4.318348e+01	-1.037399e+01
4.343291e+01	-1.041969e+01
4.368377e+01	-1.046512e+01
4.393609e+01	-1.051067e+01
4.418986e+01	-1.055661e+01
4.444510e+01	-1.060208e+01
4.470182e+01	-1.064802e+01
4.496001e+01	-1.069368e+01
4.521970e+01	-1.073897e+01
4.548089e+01	-1.078518e+01
4.574358e+01	-1.083092e+01
4.600779e+01	-1.087707e+01
4.627353e+01	-1.092301e+01
4.654081e+01	-1.096908e+01
4.680963e+01	-1.101470e+01
4.708000e+01	-1.106182e+01
4.735193e+01	-1.110719e+01
4.762543e+01	-1.115351e+01
4.790051e+01	-1.120004e+01
4.817719e+01	-1.124561e+01
4.845545e+01	-1.129244e+01
4.873533e+01	-1.133877e+01
4.901682e+01	-1.138412e+01
4.929994e+01	-1.143178e+01
4.958470e+01	-1.147733e+01
4.987110e+01	-1.152410e+01
5.015915e+01	-1.157100e+01
5.044887e+01	-1.161711e+01
5.074026e+01	-1.166370e+01
5.103333e+01	-1.171039e+01
5.132810e+01	-1.175713e+01
5.162457e+01	-1.180410e+01
5.192275e+01	-1.185078e+01
5.222265e+01	-1.189728e+01
5.252429e+01	-1.194415e+01
5.282767e+01	-1.199109e+01
5.313280e+01	-1.203778e+01
5.343969e+01	-1.208461e+01
5.374836e+01	-1.213153e+01
5.405880e+01	-1.217897e+01
5.437105e+01	-1.222584e+01
5.468509e+01	-1.227198e+01
5.500095e+01	-1.231934e+01
5.531863e+01	-1.236677e+01
5.563815e+01	-1.241476e+01
5.595951e+01	-1.246168e+01
5.628273e+01	-1.250880e+01
5.660782e+01	-1.255497e+01
5.693479e+01	-1.260359e+01
5.726364e+01	-1.265028e+01
5.759439e+01	-1.269666e+01
5.792705e+01	-1.274435e+01
5.826164e+01	-1.279192e+01
5.859815e+01	-1.283984e+01
5.893662e+01	-1.288680e+01
5.927703e+01	-1.293455e+01
5.961941e+01	-1.298251e+01
5.996377e+01	-1.302955e+01
6.031012e+01	-1.307714e+01
6.065847e+01	-1.312533e+01
6.100883e+01	-1.317220e+01
6.136121e+01	-1.321975e+01
6.171563e+01	-1.326793e+01
6.207210e+01	-1.331550e+01
6.243063e+01	-1.336331e+01
6.279122e+01	-1.340962e+01
6.315390e+01	-1.345899e+01
6.351868e+01	-1.350633e+01
6.388556e+01	-1.355378e+01
6.425456e+01	-1.360207e+01
6.462569e+01	-1.364977e+01
6.499897e+01	-1.369751e+01
6.537440e+01	-1.374631e+01
6.575200e+01	-1.379246e+01
6.613178e+01	-1.384176e+01
6.651375e+01	-1.388985e+01
6.689793e+01	-1.393684e+01
6.728433e+01	-1.398525e+01
6.767297e+01	-1.403335e+01
6.806384e+01	-1.408180e+01
6.845698e+01	-1.413003e+01
6.885238e+01	-1.417698e+01
6.925007e+01	-1.422602e+01
6.965005e+01	-1.427451e+01
7.005235e+01	-1.432116e+01
7.045697e+01	-1.436975e+01
7.086393e+01	-1.441907e+01
7.127323e+01	-1.446692e+01
7.168490e+01	-1.451509e+01
7.209895e+01	-1.456342e+01
7.251539e+01	-1.461056e+01
7.293424e+01	-1.465940e+01
7.335551e+01	-1.470935e+01
7.377920e+01	-1.475688e+01
7.420535e+01	-1.480535e+01
7.463396e+01	-1.485284e+01
7.506504e+01	-1.490102e+01
7.549861e+01	-1.495016e+01
7.593469e+01	-1.499879e+01
7.637328e+01	-1.504667e+01
7.681441e+01	-1.509528e+01
7.725809e+01	-1.514453e+01
7.770433e+01	-1.519289e+01
7.815315e+01	-1.524033e+01
7.860456e+01	-1.528940e+01
7.905857e+01	-1.533808e+01
7.951521e+01	-1.538714e+01
7.997449e+01	-1.543577e+01
8.043642e+01	-1.548457e+01
8.090102e+01	-1.553261e+01
8.136830e+01	-1.558126e+01
8.183828e+01	-1.562979e+01
8.231097e+01	-1.567890e+01
8.278640e+01	-1.572723e+01
8.326457e+01	-1.577565e+01
8.374550e+01	-1.582425e+01
8.422921e+01	-1.587389e+01
8.471572e+01	-1.592190e+01
8.520503e+01	-1.597131e+01
8.569717e+01	-1.601890e+01
8.619215e+01	-1.606751e+01
8.669000e+01	-1.611681e+01
8.719071e+01	-1.616452e+01
8.769432e+01	-1.621425e+01
8.820084e+01	-1.626305e+01
8.871029e+01	-1.631239e+01
8.922267e+01	-1.636233e+01
8.973802e+01	-1.641039e+01
9.025634e+01	-1.645955e+01
9.077766e+01	-1.650880e+01
9.130199e+01	-1.655644e+01
9.182935e+01	-1.660586e+01
9.235975e+01	-1.665483e+01
9.289321e+01	-1.670330e+01
9.342976e+01	-1.675324e+01
9.396941e+01	-1.680159e+01
9.451217e+01	-1.685065e+01
9.505807e+01	-1.689986e+01
9.560712e+01	-1.694877e+01
9.615934e+01	-1.699722e+01
9.671476e+01	-1.704735e+01
9.727338e+01	-1.709666e+01
9.783522e+01	-1.714549e+01
9.840032e+01	-1.719383e+01
9.896867e+01	-1.724265e+01
9.954031e+01	-1.729265e+01
1.001153e+02	-1.734281e+01
1.006935e+02	-1.739124e+01
1.012751e+02	-1.743940e+01
1.018601e+02	-1.748886e+01
1.024484e+02	-1.753694e+01
1.030402e+02	-1.758718e+01
1.036353e+02	-1.763571e+01
1.042339e+02	-1.768511e+01
1.048360e+02	-1.773382e+01
1.054415e+02	-1.778264e+01
1.060505e+02	-1.783358e+01
1.066631e+02	-1.788168e+01
1.072791e+02	-1.793208e+01
1.078988e+02	-1.798041e+01
1.085220e+02	-1.802876e+01
1.091488e+02	-1.807822e+01
1.097793e+02	-1.812846e+01
1.104133e+02	-1.817725e+01
1.110511e+02	-1.822667e+01
1.116925e+02	-1.827696e+01
1.123376e+02	-1.832538e+01
1.129865e+02	-1.837448e+01
1.136391e+02	-1.842492e+01
1.142955e+02	-1.847446e+01
1.149556e+02	-1.852300e+01
1.156196e+02	-1.857193e+01
1.162874e+02	-1.862104e+01
1.169591e+02	-1.866955e+01
1.176347e+02	-1.872185e+01
1.183141e+02	-1.877048e+01
1.189975e+02	-1.881789e+01
1.196848e+02	-1.886919e+01
1.203761e+02	-1.891724e+01
1.210714e+02	-1.896710e+01
1.217707e+02	-1.901464e+01
1.224740e+02	-1.906689e+01
1.231814e+02	-1.911450e+01
1.238929e+02	-1.916445e+01
1.246085e+02	-1.921431e+01
1.253283e+02	-1.926542e+01
1.260522e+02	-1.931097e+01
1.267802e+02	-1.936315e+01
1.275125e+02	-1.941158e+01
1.282490e+02	-1.946069e+01
1.289898e+02	-1.951130e+01
1.297348e+02	-1.955928e+01
1.304842e+02	-1.960936e+01
1.312378e+02	-1.965871e+01
1.319959e+02	-1.970728e+01
1.327583e+02	-1.975896e+01
1.335251e+02	-1.980966e+01
1.342963e+02	-1.985674e+01
1.350720e+02	-1.990792e+01
1.358522e+02	-1.995698e+01
1.366368e+02	-2.000498e+01
1.374260e+02	-2.005640e+01
1.382198e+02	-2.010534e+01
1.390182e+02	-2.015368e+01
1.398211e+02	-2.020438e+01
1.406287e+02	-2.025263e+01
1.414410e+02	-2.030085e+01
1.422579e+02	-2.035220e+01
1.430796e+02	-2.040158e+01
1.439060e+02	-2.045274e+01
1.447372e+02	-2.050103e+01
1.455732e+02	-2.055023e+01
1.464141e+02	-2.060088e+01
1.472597e+02	-2.065098e+01
1.481103e+02	-2.070015e+01
1.489658e+02	-2.074915e+01
1.498262e+02	-2.079823e+01
1.506916e+02	-2.084956e+01
1.515620e+02	-2.089880e+01
1.524374e+02	-2.094801e+01
1.533179e+02	-2.099758e+01
1.542034e+02	-2.104781e+01
1.550941e+02	-2.109756e+01
1.559899e+02	-2.114679e+01
1.568909e+02	-2.119453e+01
1.577971e+02	-2.124525e+01
1.587085e+02	-2.129604e+01
1.596252e+02	-2.134536e+01
1.605472e+02	-2.139546e+01
1.614745e+02	-2.144326e+01
1.624072e+02	-2.149393e+01
1.633453e+02	-2.154502e+01
1.642887e+02	-2.159453e+01
1.652377e+02	-2.164257e+01
1.661921e+02	-2.169200e+01
1.671520e+02	-2.174362e+01
1.681175e+02	-2.179328e+01
1.690885e+02	-2.184150e+01
1.700651e+02	-2.189343e+01
1.710474e+02	-2.194210e+01
1.720354e+02	-2.199289e+01
1.730291e+02	-2.204047e+01
1.740285e+02	-2.209058e+01
1.750337e+02	-2.214305e+01
1.760446e+02	-2.218909e+01
1.770615e+02	-2.223956e+01
1.780842e+02	-2.228824e+01
1.791128e+02	-2.234114e+01
1.801473e+02	-2.238964e+01
1.811878e+02	-2.243920e+01
1.822344e+02	-2.249025e+01
1.832870e+02	-2.253837e+01
1.843456e+02	-2.258885e+01
1.854104e+02	-2.263901e+01
1.864813e+02	-2.268724e+01
1.875584e+02	-2.273787e+01
1.886418e+02	-2.278834e+01
1.897313e+02	-2.283852e+01
1.908272e+02	-2.288459e+01
1.919294e+02	-2.293713e+01
1.930380e+02	-2.298856e+01
1.941530e+02	-2.303654e+01
1.952744e+02	-2.308724e+01
1.964023e+02	-2.313618e+01
1.975367e+02	-2.318526e+01
1.986777e+02	-2.323521e+01
1.998252e+02	-2.328460e+01
2.009794e+02	-2.333605e+01
2.021403e+02	-2.338583e+01
2.033078e+02	-2.343588e+01
2.044821e+02	-2.348439e+01
2.056632e+02	-2.353488e+01
2.068511e+02	-2.358270e+01
2.080459e+02	-2.363584e+01
2.092475e+02	-2.368393e+01
2.104561e+02	-2.373555e+01
2.116717e+02	-2.378334e+01
2.128943e+02	-2.383428e+01
2.141240e+02	-2.388233e+01
2.153608e+02	-2.393256e+01
2.166047e+02	-2.398279e+01
2.178558e+02	-2.403370e+01
2.191141e+02	-2.408340e+01
2.203797e+02	-2.413302e+01
2.216526e+02	-2.418336e+01
2.229329e+02	-2.423231e+01
2.242205e+02	-2.428337e+01
2.255156e+02	-2.433335e+01
2.268182e+02	-2.438037e+01
2.281283e+02	-2.442976e+01
2.294459e+02	-2.448312e+01
2.307712e+02	-2.453075e+01
2.321041e+02	-2.458422e+01
2.334447e+02	-2.463281e+01
2.347931e+02	-2.468171e+01
2.361493e+02	-2.473233e+01
2.375133e+02	-2.478068e+01
2.388851e+02	-2.483175e+01
2.402649e+02	-2.488104e+01
2.416527e+02	-2.493205e+01
2.430484e+02	-2.498300e+01
2.444523e+02	-2.503042e+01
2.458642e+02	-2.508114e+01
2.472843e+02	-2.513005e+01
2.487126e+02	-2.518263e+01
2.501492e+02	-2.523138e+01
2.515940e+02	-2.527981e+01
2.530472e+02	-2.533230e+01
2.545088e+02	-2.538127e+01
2.559789e+02	-2.543314e+01
2.574574e+02	-2.547798e+01
2.589444e+02	-2.552830e+01
2.604401e+02	-2.558146e+01
2.619444e+02	-2.563097e+01
2.634574e+02	-2.568232e+01
2.649791e+02	-2.572736e+01
2.665096e+02	-2.577940e+01
2.680489e+02	-2.582677e+01
2.695972e+02	-2.587974e+01
2.711544e+02	-2.593003e+01
2.727205e+02	-2.597950e+01
2.742958e+02	-2.602987e+01
2.758801e+02	-2.607986e+01
2.774736e+02	-2.613091e+01
2.790762e+02	-2.617638e+01
2.806882e+02	-2.622765e+01
2.823094e+02	-2.627911e+01
2.839400e+02	-2.633130e+01
2.855800e+02	-2.638018e+01
2.872295e+02	-2.642749e+01
2.888886e+02	-2.648104e+01
2.905572e+02	-2.652912e+01
2.922354e+02	-2.657933e+01
2.939234e+02	-2.663048e+01
2.956211e+02	-2.667892e+01
2.973286e+02	-2.672745e+01
2.990459e+02	-2.677867e+01
3.007732e+02	-2.683319e+01
3.025104e+02	-2.687559e+01
3.042577e+02	-2.692939e+01
3.060151e+02	-2.698073e+01
3.077826e+02	-2.702752e+01
3.095604e+02	-2.708025e+01
3.113484e+02	-2.712653e+01
3.131467e+02	-2.717837e+01
3.149554e+02	-2.722953e+01
3.167746e+02	-2.727683e+01
3.186043e+02	-2.732796e+01
3.204445e+02	-2.737602e+01
3.222954e+02	-2.743122e+01
3.241570e+02	-2.747669e+01
3.260293e+02	-2.752782e+01
3.279124e+02	-2.757934e+01
3.298064e+02	-2.762968e+01
3.317114e+02	-2.768043e+01
3.336273e+02	-2.773064e+01
3.355544e+02	-2.777864e+01
3.374925e+02	-2.783196e+01
3.394418e+02	-2.787682e+01
3.414024e+02	-2.792808e+01
3.433744e+02	-2.797701e+01
3.453577e+02	-2.802578e+01
3.473525e+02	-2.808003e+01
3.493588e+02	-2.812801e+01
3.513766e+02	-2.818039e+01
3.534062e+02	-2.822999e+01
3.554474e+02	-2.828028e+01
3.575005e+02	-2.833273e+01
3.595654e+02	-2.838663e+01
3.616422e+02	-2.843245e+01
3.637311e+02	-2.847572e+01
3.658320e+02	-2.853052e+01
3.679450e+02	-2.857769e+01
3.700702e+02	-2.862630e+01
3.722077e+02	-2.867906e+01
3.743576e+02	-2.872723e+01
3.765199e+02	-2.878077e+01
3.786946e+02	-2.882829e+01
3.808820e+02	-2.887774e+01
3.830819e+02	-2.892878e+01
3.852946e+02	-2.897760e+01
3.875200e+02	-2.903221e+01
3.897583e+02	-2.907974e+01
3.920096e+02	-2.912944e+01
3.942738e+02	-2.917774e+01
3.965511e+02	-2.922917e+01
3.988416e+02	-2.927859e+01
4.011452e+02	-2.932879e+01
4.034622e+02	-2.938073e+01
4.057926e+02	-2.943412e+01
4.081365e+02	-2.947713e+01
4.104938e+02	-2.952648e+01
4.128648e+02	-2.958630e+01
4.152495e+02	-2.963137e+01
4.176480e+02	-2.967688e+01
4.200603e+02	-2.973916e+01
4.224866e+02	-2.977654e+01
4.249268e+02	-2.983497e+01
4.273812e+02	-2.987669e+01
4.298497e+02	-2.993163e+01
4.323325e+02	-2.998128e+01
4.348297e+02	-3.002947e+01
4.373412e+02	-3.008269e+01
4.398673e+02	-3.013367e+01
4.424079e+02	-3.018099e+01
4.449633e+02	-3.023000e+01
4.475334e+02	-3.028276e+01
4.501183e+02	-3.032737e+01
4.527182e+02	-3.038348e+01
4.553330e+02	-3.043204e+01
4.579630e+02	-3.048141e+01
4.606082e+02	-3.053779e+01
4.632687e+02	-3.058446e+01
4.659445e+02	-3.063545e+01
4.686358e+02	-3.068545e+01
4.713426e+02	-3.073248e+01
4.740650e+02	-3.078250e+01
4.768032e+02	-3.083468e+01
4.795572e+02	-3.088245e+01
4.823271e+02	-3.093595e+01
4.851130e+02	-3.098319e+01
4.879150e+02	-3.103945e+01
4.907332e+02	-3.108844e+01
4.935676e+02	-3.113663e+01
4.964185e+02	-3.118545e+01
4.992858e+02	-3.122615e+01
5.021696e+02	-3.128359e+01
5.050701e+02	-3.133410e+01
5.079874e+02	-3.137876e+01
5.109215e+02	-3.143198e+01
5.138726e+02	-3.148202e+01
5.168407e+02	-3.153253e+01
5.198259e+02	-3.158534e+01
5.228284e+02	-3.164045e+01
5.258482e+02	-3.168667e+01
5.288855e+02	-3.173456e+01
5.319403e+02	-3.178132e+01
5.350128e+02	-3.183695e+01
5.381030e+02	-3.188043e+01
5.412111e+02	-3.193631e+01
5.443371e+02	-3.198081e+01
5.474812e+02	-3.203508e+01
5.506434e+02	-3.208741e+01
5.538239e+02	-3.213456e+01
5.570228e+02	-3.218711e+01
5.602401e+02	-3.224190e+01
5.634760e+02	-3.228774e+01
5.667306e+02	-3.233986e+01
5.700040e+02	-3.238542e+01
5.732964e+02	-3.243633e+01
5.766077e+02	-3.249431e+01
5.799382e+02	-3.252969e+01
5.832879e+02	-3.258746e+01
5.866569e+02	-3.263886e+01
5.900454e+02	-3.268151e+01
5.934535e+02	-3.273435e+01
5.968813e+02	-3.278598e+01
6.003288e+02	-3.283955e+01
6.037963e+02	-3.289555e+01
6.072838e+02	-3.294481e+01
6.107914e+02	-3.299417e+01
6.143194e+02	-3.304553e+01
6.178676e+02	-3.309367e+01
6.214364e+02	-3.313876e+01
6.250258e+02	-3.318998e+01
6.286359e+02	-3.324685e+01
6.322669e+02	-3.328439e+01
6.359189e+02	-3.334046e+01
6.395919e+02	-3.339216e+01
6.432862e+02	-3.344427e+01
6.470017e+02	-3.349550e+01
6.507388e+02	-3.354704e+01
6.544974e+02	-3.358824e+01
6.582778e+02	-3.364286e+01
6.620800e+02	-3.369427e+01
6.659041e+02	-3.374051e+01
6.697504e+02	-3.379237e+01
6.736188e+02	-3.385065e+01
6.775096e+02	-3.388502e+01
6.814229e+02	-3.394984e+01
6.853587e+02	-3.399058e+01
6.893173e+02	-3.404668e+01
6.932988e+02	-3.409316e+01
6.973033e+02	-3.413766e+01
7.013309e+02	-3.420937e+01
