Frequency(Hz)	Magnitude(dB)
1.000000e+01	-2.053475e+00
1.005776e+01	-2.072452e+00
1.011585e+01	-2.091540e+00
1.017428e+01	-2.110939e+00
1.023305e+01	-2.130193e+00
1.029215e+01	-2.149598e+00
1.035160e+01	-2.169077e+00
1.041139e+01	-2.188808e+00
1.047153e+01	-2.208593e+00
1.053201e+01	-2.228764e+00
1.059284e+01	-2.248919e+00
1.065403e+01	-2.268897e+00
1.071556e+01	-2.289567e+00
1.077746e+01	-2.310126e+00
1.083971e+01	-2.330774e+00
1.090232e+01	-2.351857e+00
1.096529e+01	-2.372444e+00
1.102862e+01	-2.393559e+00
1.109232e+01	-2.415036e+00
1.115639e+01	-2.436393e+00
1.122083e+01	-2.458149e+00
1.128564e+01	-2.479643e+00
1.135083e+01	-2.501332e+00
1.141639e+01	-2.523653e+00
1.148233e+01	-2.545394e+00
1.154865e+01	-2.567870e+00
1.161536e+01	-2.590264e+00
1.168245e+01	-2.612901e+00
1.174992e+01	-2.635420e+00
1.181779e+01	-2.658310e+00
1.188605e+01	-2.681519e+00
1.195470e+01	-2.704283e+00
1.202375e+01	-2.727572e+00
1.209320e+01	-2.751126e+00
1.216305e+01	-2.774436e+00
1.223330e+01	-2.798328e+00
1.230396e+01	-2.822161e+00
1.237503e+01	-2.846222e+00
1.244651e+01	-2.870136e+00
1.251840e+01	-2.894547e+00
1.259070e+01	-2.919266e+00
1.266343e+01	-2.943397e+00
1.273657e+01	-2.968099e+00
1.281014e+01	-2.993100e+00
1.288413e+01	-3.018078e+00
1.295855e+01	-3.043202e+00
1.303339e+01	-3.068301e+00
1.310867e+01	-3.093952e+00
1.318439e+01	-3.119327e+00
1.326054e+01	-3.145067e+00
1.333713e+01	-3.171149e+00
1.341417e+01	-3.196845e+00
1.349165e+01	-3.223112e+00
1.356958e+01	-3.249201e+00
1.364795e+01	-3.275575e+00
1.372678e+01	-3.302262e+00
1.380607e+01	-3.328923e+00
1.388581e+01	-3.355924e+00
1.396602e+01	-3.383089e+00
1.404668e+01	-3.410211e+00
1.412782e+01	-3.437304e+00
1.420942e+01	-3.464841e+00
1.429149e+01	-3.492258e+00
1.437404e+01	-3.519893e+00
1.445706e+01	-3.548087e+00
1.454057e+01	-3.575832e+00
1.462455e+01	-3.603850e+00
1.470902e+01	-3.632108e+00
1.479398e+01	-3.660769e+00
1.487943e+01	-3.689457e+00
1.496537e+01	-3.718011e+00
1.505181e+01	-3.746766e+00
1.513875e+01	-3.775814e+00
1.522619e+01	-3.804955e+00
1.531414e+01	-3.834377e+00
1.540259e+01	-3.863810e+00
1.549156e+01	-3.892966e+00
1.558103e+01	-3.922442e+00
1.567103e+01	-3.952697e+00
1.576155e+01	-3.982627e+00
1.585258e+01	-4.012567e+00
1.594415e+01	-4.042844e+00
1.603624e+01	-4.073423e+00
1.612886e+01	-4.103865e+00
1.622202e+01	-4.134772e+00
1.631572e+01	-4.165190e+00
1.640996e+01	-4.196356e+00
1.650474e+01	-4.227420e+00
1.660008e+01	-4.258537e+00
1.669596e+01	-4.289556e+00
1.679239e+01	-4.321003e+00
1.688938e+01	-4.352816e+00
1.698694e+01	-4.384392e+00
1.708505e+01	-4.416494e+00
1.718373e+01	-4.448330e+00
1.728299e+01	-4.480300e+00
1.738281e+01	-4.513010e+00
1.748322e+01	-4.545276e+00
1.758420e+01	-4.578014e+00
1.768576e+01	-4.610281e+00
1.778792e+01	-4.643206e+00
1.789066e+01	-4.676005e+00
1.799399e+01	-4.709244e+00
1.809793e+01	-4.742226e+00
1.820246e+01	-4.775644e+00
1.830760e+01	-4.808822e+00
1.841334e+01	-4.842358e+00
1.851969e+01	-4.876427e+00
1.862666e+01	-4.909872e+00
1.873425e+01	-4.943822e+00
1.884246e+01	-4.977965e+00
1.895129e+01	-5.012210e+00
1.906075e+01	-5.046774e+00
1.917085e+01	-5.081013e+00
1.928158e+01	-5.115278e+00
1.939295e+01	-5.150509e+00
1.950496e+01	-5.185189e+00
1.961762e+01	-5.220094e+00
1.973093e+01	-5.255177e+00
1.984490e+01	-5.289970e+00
1.995952e+01	-5.325436e+00
2.007480e+01	-5.361171e+00
2.019076e+01	-5.396403e+00
2.030738e+01	-5.432177e+00
2.042467e+01	-5.467781e+00
2.054264e+01	-5.503618e+00
2.066130e+01	-5.539851e+00
2.078064e+01	-5.575847e+00
2.090066e+01	-5.612090e+00
2.102139e+01	-5.648450e+00
2.114280e+01	-5.684792e+00
2.126492e+01	-5.721738e+00
2.138775e+01	-5.758047e+00
2.151128e+01	-5.794713e+00
2.163553e+01	-5.831886e+00
2.176050e+01	-5.868695e+00
2.188619e+01	-5.906172e+00
2.201260e+01	-5.943278e+00
2.213974e+01	-5.980255e+00
2.226762e+01	-6.017865e+00
2.239624e+01	-6.055506e+00
2.252560e+01	-6.093030e+00
2.265571e+01	-6.131138e+00
2.278656e+01	-6.169156e+00
2.291818e+01	-6.206936e+00
2.305055e+01	-6.245040e+00
2.318369e+01	-6.283449e+00
2.331760e+01	-6.321444e+00
2.345228e+01	-6.360015e+00
2.358774e+01	-6.398714e+00
2.372398e+01	-6.437079e+00
2.386101e+01	-6.475798e+00
2.399883e+01	-6.514632e+00
2.413745e+01	-6.553406e+00
2.427686e+01	-6.592672e+00
2.441709e+01	-6.631582e+00
2.455812e+01	-6.670659e+00
2.469997e+01	-6.710492e+00
2.484263e+01	-6.749400e+00
2.498612e+01	-6.788974e+00
2.513044e+01	-6.828633e+00
2.527559e+01	-6.868713e+00
2.542158e+01	-6.908066e+00
2.556842e+01	-6.948130e+00
2.571610e+01	-6.987685e+00
2.586463e+01	-7.027903e+00
2.601403e+01	-7.068225e+00
2.616428e+01	-7.108293e+00
2.631541e+01	-7.149263e+00
2.646740e+01	-7.189505e+00
2.662028e+01	-7.229930e+00
2.677404e+01	-7.270309e+00
2.692868e+01	-7.310724e+00
2.708422e+01	-7.351860e+00
2.724066e+01	-7.392833e+00
2.739800e+01	-7.433423e+00
2.755625e+01	-7.475022e+00
2.771541e+01	-7.515602e+00
2.787550e+01	-7.556665e+00
2.803650e+01	-7.598144e+00
2.819844e+01	-7.639514e+00
2.836131e+01	-7.680680e+00
2.852513e+01	-7.722356e+00
2.868989e+01	-7.764197e+00
2.885560e+01	-7.805951e+00
2.902227e+01	-7.847559e+00
2.918990e+01	-7.889848e+00
2.935850e+01	-7.931181e+00
2.952807e+01	-7.973281e+00
2.969863e+01	-8.015704e+00
2.987016e+01	-8.057705e+00
3.004269e+01	-8.100151e+00
3.021622e+01	-8.142051e+00
3.039075e+01	-8.184541e+00
3.056628e+01	-8.227577e+00
3.074283e+01	-8.269525e+00
3.092040e+01	-8.311964e+00
3.109900e+01	-8.355130e+00
3.127862e+01	-8.397848e+00
3.145929e+01	-8.440477e+00
3.164099e+01	-8.483527e+00
3.182375e+01	-8.526041e+00
3.200756e+01	-8.569472e+00
3.219244e+01	-8.612580e+00
3.237838e+01	-8.656108e+00
3.256540e+01	-8.698644e+00
3.275349e+01	-8.742454e+00
3.294268e+01	-8.785416e+00
3.313295e+01	-8.829214e+00
3.332433e+01	-8.872670e+00
3.351681e+01	-8.916296e+00
3.371040e+01	-8.960249e+00
3.390511e+01	-9.003565e+00
3.410094e+01	-9.047377e+00
3.429791e+01	-9.091527e+00
3.449601e+01	-9.135199e+00
3.469526e+01	-9.178619e+00
3.489566e+01	-9.222858e+00
3.509721e+01	-9.267341e+00
3.529993e+01	-9.311410e+00
3.550382e+01	-9.355371e+00
3.570889e+01	-9.399395e+00
3.591515e+01	-9.443957e+00
3.612259e+01	-9.488302e+00
3.633123e+01	-9.532696e+00
3.654108e+01	-9.577259e+00
3.675214e+01	-9.621115e+00
3.696442e+01	-9.666295e+00
3.717792e+01	-9.710927e+00
3.739266e+01	-9.755708e+00
3.760864e+01	-9.800246e+00
3.782587e+01	-9.844950e+00
3.804435e+01	-9.890170e+00
3.826409e+01	-9.935009e+00
3.848510e+01	-9.980147e+00
3.870739e+01	-1.002517e+01
3.893096e+01	-1.007032e+01
3.915583e+01	-1.011547e+01
3.938199e+01	-1.016056e+01
3.960946e+01	-1.020544e+01
3.983824e+01	-1.025072e+01
4.006834e+01	-1.029621e+01
4.029978e+01	-1.034161e+01
4.053255e+01	-1.038660e+01
4.076666e+01	-1.043254e+01
4.100213e+01	-1.047858e+01
4.123896e+01	-1.052395e+01
4.147715e+01	-1.056935e+01
4.171672e+01	-1.061467e+01
4.195767e+01	-1.066056e+01
4.220002e+01	-1.070645e+01
4.244377e+01	-1.075210e+01
4.268892e+01	-1.079778e+01
4.293549e+01	-1.084410e+01
4.318348e+01	-1.088939e+01
4.343291e+01	-1.093524e+01
4.368377e+01	-1.098166e+01
4.393609e+01	-1.102814e+01
4.418986e+01	-1.107350e+01
4.444510e+01	-1.111975e+01
4.470182e+01	-1.116696e+01
4.496001e+01	-1.121277e+01
4.521970e+01	-1.125881e+01
4.548089e+01	-1.130517e+01
4.574358e+01	-1.135120e+01
4.600779e+01	-1.139770e+01
4.627353e+01	-1.144444e+01
4.654081e+01	-1.149117e+01
4.680963e+01	-1.153679e+01
4.708000e+01	-1.158397e+01
4.735193e+01	-1.163038e+01
4.762543e+01	-1.167600e+01
4.790051e+01	-1.172380e+01
4.817719e+01	-1.177074e+01
4.845545e+01	-1.181750e+01
4.873533e+01	-1.186360e+01
4.901682e+01	-1.191053e+01
4.929994e+01	-1.195725e+01
4.958470e+01	-1.200453e+01
4.987110e+01	-1.205049e+01
5.015915e+01	-1.209751e+01
5.044887e+01	-1.214526e+01
5.074026e+01	-1.219225e+01
5.103333e+01	-1.223884e+01
5.132810e+01	-1.228627e+01
5.162457e+01	-1.233253e+01
5.192275e+01	-1.237972e+01
5.222265e+01	-1.242681e+01
5.252429e+01	-1.247419e+01
5.282767e+01	-1.252098e+01
5.313280e+01	-1.256878e+01
5.343969e+01	-1.261609e+01
5.374836e+01	-1.266400e+01
5.405880e+01	-1.271071e+01
5.437105e+01	-1.275802e+01
5.468509e+01	-1.280599e+01
5.500095e+01	-1.285287e+01
5.531863e+01	-1.290064e+01
5.563815e+01	-1.294803e+01
5.595951e+01	-1.299549e+01
5.628273e+01	-1.304263e+01
5.660782e+01	-1.309040e+01
5.693479e+01	-1.313787e+01
5.726364e+01	-1.318597e+01
5.759439e+01	-1.323281e+01
5.792705e+01	-1.328183e+01
5.826164e+01	-1.332907e+01
5.859815e+01	-1.337733e+01
5.893662e+01	-1.342346e+01
5.927703e+01	-1.347186e+01
5.961941e+01	-1.352002e+01
5.996377e+01	-1.356806e+01
6.031012e+01	-1.361559e+01
6.065847e+01	-1.366320e+01
6.100883e+01	-1.371130e+01
6.136121e+01	-1.375960e+01
6.171563e+01	-1.380727e+01
6.207210e+01	-1.385506e+01
6.243063e+01	-1.390309e+01
6.279122e+01	-1.395046e+01
6.315390e+01	-1.399915e+01
6.351868e+01	-1.404653e+01
6.388556e+01	-1.409430e+01
6.425456e+01	-1.414389e+01
6.462569e+01	-1.419120e+01
6.499897e+01	-1.423985e+01
6.537440e+01	-1.428754e+01
6.575200e+01	-1.433571e+01
6.613178e+01	-1.438329e+01
6.651375e+01	-1.443217e+01
6.689793e+01	-1.448017e+01
6.728433e+01	-1.452956e+01
6.767297e+01	-1.457726e+01
6.806384e+01	-1.462493e+01
6.845698e+01	-1.467438e+01
6.885238e+01	-1.472185e+01
6.925007e+01	-1.477005e+01
6.965005e+01	-1.481910e+01
7.005235e+01	-1.486688e+01
7.045697e+01	-1.491552e+01
7.086393e+01	-1.496335e+01
7.127323e+01	-1.501216e+01
7.168490e+01	-1.506040e+01
7.209895e+01	-1.510811e+01
7.251539e+01	-1.515740e+01
7.293424e+01	-1.520557e+01
7.335551e+01	-1.525479e+01
7.377920e+01	-1.530294e+01
7.420535e+01	-1.535192e+01
7.463396e+01	-1.540037e+01
7.506504e+01	-1.544783e+01
7.549861e+01	-1.549740e+01
7.593469e+01	-1.554575e+01
7.637328e+01	-1.559474e+01
7.681441e+01	-1.564360e+01
7.725809e+01	-1.569210e+01
7.770433e+01	-1.573989e+01
7.815315e+01	-1.578986e+01
7.860456e+01	-1.583765e+01
7.905857e+01	-1.588712e+01
7.951521e+01	-1.593669e+01
7.997449e+01	-1.598438e+01
8.043642e+01	-1.603335e+01
8.090102e+01	-1.608152e+01
8.136830e+01	-1.613101e+01
8.183828e+01	-1.617987e+01
8.231097e+01	-1.622911e+01
8.278640e+01	-1.627688e+01
8.326457e+01	-1.632687e+01
8.374550e+01	-1.637614e+01
8.422921e+01	-1.642447e+01
8.471572e+01	-1.647296e+01
8.520503e+01	-1.652150e+01
8.569717e+01	-1.657051e+01
8.619215e+01	-1.661869e+01
8.669000e+01	-1.666832e+01
8.719071e+01	-1.671721e+01
8.769432e+01	-1.676663e+01
8.820084e+01	-1.681470e+01
8.871029e+01	-1.686539e+01
8.922267e+01	-1.691441e+01
8.973802e+01	-1.696334e+01
9.025634e+01	-1.701100e+01
9.077766e+01	-1.706082e+01
9.130199e+01	-1.711059e+01
9.182935e+01	-1.715988e+01
9.235975e+01	-1.720830e+01
9.289321e+01	-1.725769e+01
9.342976e+01	-1.730627e+01
9.396941e+01	-1.735462e+01
9.451217e+01	-1.740425e+01
9.505807e+01	-1.745308e+01
9.560712e+01	-1.750234e+01
9.615934e+01	-1.755111e+01
9.671476e+01	-1.760067e+01
9.727338e+01	-1.765040e+01
9.783522e+01	-1.769792e+01
9.840032e+01	-1.774770e+01
9.896867e+01	-1.779752e+01
9.954031e+01	-1.784701e+01
1.001153e+02	-1.789581e+01
1.006935e+02	-1.794586e+01
1.012751e+02	-1.799357e+01
1.018601e+02	-1.804452e+01
1.024484e+02	-1.809363e+01
1.030402e+02	-1.814102e+01
1.036353e+02	-1.819015e+01
1.042339e+02	-1.824053e+01
1.048360e+02	-1.829177e+01
1.054415e+02	-1.833927e+01
1.060505e+02	-1.838946e+01
1.066631e+02	-1.843811e+01
1.072791e+02	-1.848671e+01
1.078988e+02	-1.853682e+01
1.085220e+02	-1.858630e+01
1.091488e+02	-1.863499e+01
1.097793e+02	-1.868451e+01
1.104133e+02	-1.873500e+01
1.110511e+02	-1.878359e+01
1.116925e+02	-1.883286e+01
1.123376e+02	-1.888220e+01
1.129865e+02	-1.893097e+01
1.136391e+02	-1.898050e+01
1.142955e+02	-1.903133e+01
1.149556e+02	-1.907995e+01
1.156196e+02	-1.912822e+01
1.162874e+02	-1.917674e+01
1.169591e+02	-1.922887e+01
1.176347e+02	-1.927656e+01
1.183141e+02	-1.932661e+01
1.189975e+02	-1.937687e+01
1.196848e+02	-1.942704e+01
1.203761e+02	-1.947605e+01
1.210714e+02	-1.952543e+01
1.217707e+02	-1.957360e+01
1.224740e+02	-1.962350e+01
1.231814e+02	-1.967315e+01
1.238929e+02	-1.972254e+01
1.246085e+02	-1.977135e+01
1.253283e+02	-1.982302e+01
1.260522e+02	-1.987261e+01
1.267802e+02	-1.992090e+01
1.275125e+02	-1.996952e+01
1.282490e+02	-2.001981e+01
1.289898e+02	-2.006841e+01
1.297348e+02	-2.011825e+01
1.304842e+02	-2.016716e+01
1.312378e+02	-2.021785e+01
1.319959e+02	-2.026686e+01
1.327583e+02	-2.031787e+01
1.335251e+02	-2.036673e+01
1.342963e+02	-2.041544e+01
1.350720e+02	-2.046638e+01
1.358522e+02	-2.051357e+01
1.366368e+02	-2.056452e+01
1.374260e+02	-2.061451e+01
1.382198e+02	-2.066617e+01
1.390182e+02	-2.071325e+01
1.398211e+02	-2.076322e+01
1.406287e+02	-2.081178e+01
1.414410e+02	-2.086339e+01
1.422579e+02	-2.091525e+01
1.430796e+02	-2.096294e+01
1.439060e+02	-2.101022e+01
1.447372e+02	-2.106028e+01
1.455732e+02	-2.111219e+01
1.464141e+02	-2.116087e+01
1.472597e+02	-2.121001e+01
1.481103e+02	-2.126205e+01
1.489658e+02	-2.130967e+01
1.498262e+02	-2.135835e+01
1.506916e+02	-2.140999e+01
1.515620e+02	-2.145913e+01
1.524374e+02	-2.150953e+01
1.533179e+02	-2.155713e+01
1.542034e+02	-2.160698e+01
1.550941e+02	-2.165881e+01
1.559899e+02	-2.170665e+01
1.568909e+02	-2.175621e+01
1.577971e+02	-2.180790e+01
1.587085e+02	-2.185668e+01
1.596252e+02	-2.190582e+01
1.605472e+02	-2.195540e+01
1.614745e+02	-2.200519e+01
1.624072e+02	-2.205614e+01
1.633453e+02	-2.210569e+01
1.642887e+02	-2.215491e+01
1.652377e+02	-2.220412e+01
1.661921e+02	-2.225311e+01
1.671520e+02	-2.230239e+01
1.681175e+02	-2.235371e+01
1.690885e+02	-2.240310e+01
1.700651e+02	-2.245165e+01
1.710474e+02	-2.250242e+01
1.720354e+02	-2.255321e+01
1.730291e+02	-2.260246e+01
1.740285e+02	-2.265118e+01
1.750337e+02	-2.270208e+01
1.760446e+02	-2.275038e+01
1.770615e+02	-2.280181e+01
1.780842e+02	-2.285182e+01
1.791128e+02	-2.290127e+01
1.801473e+02	-2.294988e+01
1.811878e+02	-2.300072e+01
1.822344e+02	-2.304915e+01
1.832870e+02	-2.310079e+01
1.843456e+02	-2.314967e+01
1.854104e+02	-2.320050e+01
1.864813e+02	-2.324927e+01
1.875584e+02	-2.330058e+01
1.886418e+02	-2.335098e+01
1.897313e+02	-2.339908e+01
1.908272e+02	-2.344809e+01
1.919294e+02	-2.349821e+01
1.930380e+02	-2.354791e+01
1.941530e+02	-2.359985e+01
1.952744e+02	-2.364861e+01
1.964023e+02	-2.369837e+01
1.975367e+02	-2.374788e+01
1.986777e+02	-2.379664e+01
1.998252e+02	-2.384640e+01
2.009794e+02	-2.389811e+01
2.021403e+02	-2.394758e+01
2.033078e+02	-2.399752e+01
2.044821e+02	-2.404567e+01
2.056632e+02	-2.409505e+01
2.068511e+02	-2.414765e+01
2.080459e+02	-2.419636e+01
2.092475e+02	-2.424684e+01
2.104561e+02	-2.429740e+01
2.116717e+02	-2.434695e+01
2.128943e+02	-2.439619e+01
2.141240e+02	-2.444714e+01
2.153608e+02	-2.449519e+01
2.166047e+02	-2.454521e+01
2.178558e+02	-2.459585e+01
2.191141e+02	-2.464686e+01
2.203797e+02	-2.469908e+01
2.216526e+02	-2.474629e+01
2.229329e+02	-2.479429e+01
2.242205e+02	-2.484263e+01
2.255156e+02	-2.489552e+01
2.268182e+02	-2.494577e+01
2.281283e+02	-2.499603e+01
2.294459e+02	-2.504410e+01
2.307712e+02	-2.509374e+01
2.321041e+02	-2.514295e+01
2.334447e+02	-2.519486e+01
2.347931e+02	-2.524510e+01
2.361493e+02	-2.529180e+01
2.375133e+02	-2.534384e+01
2.388851e+02	-2.539502e+01
2.402649e+02	-2.543977e+01
2.416527e+02	-2.549345e+01
2.430484e+02	-2.554736e+01
2.444523e+02	-2.559518e+01
2.458642e+02	-2.564391e+01
2.472843e+02	-2.569554e+01
2.487126e+02	-2.574330e+01
2.501492e+02	-2.579462e+01
2.515940e+02	-2.584289e+01
2.530472e+02	-2.589332e+01
2.545088e+02	-2.594077e+01
2.559789e+02	-2.599722e+01
2.574574e+02	-2.604488e+01
2.589444e+02	-2.609262e+01
2.604401e+02	-2.614139e+01
2.619444e+02	-2.619299e+01
2.634574e+02	-2.624204e+01
2.649791e+02	-2.629415e+01
2.665096e+02	-2.633975e+01
2.680489e+02	-2.639397e+01
2.695972e+02	-2.644315e+01
2.711544e+02	-2.648753e+01
2.727205e+02	-2.654270e+01
2.742958e+02	-2.659553e+01
2.758801e+02	-2.664383e+01
2.774736e+02	-2.669054e+01
2.790762e+02	-2.674182e+01
2.806882e+02	-2.679289e+01
2.823094e+02	-2.684175e+01
2.839400e+02	-2.688976e+01
2.855800e+02	-2.694063e+01
2.872295e+02	-2.699178e+01
2.888886e+02	-2.703869e+01
2.905572e+02	-2.709337e+01
2.922354e+02	-2.714410e+01
2.939234e+02	-2.719217e+01
2.956211e+02	-2.723836e+01
2.973286e+02	-2.729124e+01
2.990459e+02	-2.734084e+01
3.007732e+02	-2.739095e+01
3.025104e+02	-2.744609e+01
3.042577e+02	-2.749171e+01
3.060151e+02	-2.754433e+01
3.077826e+02	-2.758923e+01
3.095604e+02	-2.764490e+01
3.113484e+02	-2.769152e+01
3.131467e+02	-2.774267e+01
3.149554e+02	-2.779599e+01
3.167746e+02	-2.784353e+01
3.186043e+02	-2.788633e+01
3.204445e+02	-2.794422e+01
3.222954e+02	-2.799637e+01
3.241570e+02	-2.804060e+01
3.260293e+02	-2.809113e+01
3.279124e+02	-2.814205e+01
3.298064e+02	-2.819344e+01
3.317114e+02	-2.824416e+01
3.336273e+02	-2.829114e+01
3.355544e+02	-2.834127e+01
3.374925e+02	-2.839046e+01
3.394418e+02	-2.844315e+01
3.414024e+02	-2.849286e+01
3.433744e+02	-2.854220e+01
3.453577e+02	-2.859558e+01
3.473525e+02	-2.864227e+01
3.493588e+02	-2.868901e+01
3.513766e+02	-2.874026e+01
3.534062e+02	-2.878988e+01
3.554474e+02	-2.884146e+01
3.575005e+02	-2.889068e+01
3.595654e+02	-2.894228e+01
3.616422e+02	-2.899128e+01
3.637311e+02	-2.904717e+01
3.658320e+02	-2.909442e+01
3.679450e+02	-2.914114e+01
3.700702e+02	-2.919302e+01
3.722077e+02	-2.924353e+01
3.743576e+02	-2.929302e+01
3.765199e+02	-2.934535e+01
3.786946e+02	-2.939279e+01
3.808820e+02	-2.944198e+01
3.830819e+02	-2.949370e+01
3.852946e+02	-2.954647e+01
3.875200e+02	-2.959504e+01
3.897583e+02	-2.964615e+01
3.920096e+02	-2.969951e+01
3.942738e+02	-2.974296e+01
3.965511e+02	-2.979175e+01
3.988416e+02	-2.984364e+01
4.011452e+02	-2.989529e+01
4.034622e+02	-2.994598e+01
4.057926e+02	-2.999226e+01
4.081365e+02	-3.004267e+01
4.104938e+02	-3.009841e+01
4.128648e+02	-3.014171e+01
4.152495e+02	-3.019368e+01
4.176480e+02	-3.024835e+01
4.200603e+02	-3.029524e+01
4.224866e+02	-3.034580e+01
4.249268e+02	-3.039852e+01
4.273812e+02	-3.045091e+01
4.298497e+02	-3.049312e+01
4.323325e+02	-3.054681e+01
4.348297e+02	-3.059621e+01
4.373412e+02	-3.064306e+01
4.398673e+02	-3.069636e+01
4.424079e+02	-3.074507e+01
4.449633e+02	-3.079113e+01
4.475334e+02	-3.084334e+01
4.501183e+02	-3.089810e+01
4.527182e+02	-3.094698e+01
4.553330e+02	-3.099717e+01
4.579630e+02	-3.104636e+01
4.606082e+02	-3.109176e+01
4.632687e+02	-3.114645e+01
4.659445e+02	-3.119847e+01
4.686358e+02	-3.124894e+01
4.713426e+02	-3.129852e+01
4.740650e+02	-3.134367e+01
4.768032e+02	-3.140183e+01
4.795572e+02	-3.144652e+01
4.823271e+02	-3.149506e+01
4.851130e+02	-3.154908e+01
4.879150e+02	-3.160292e+01
4.907332e+02	-3.165018e+01
4.935676e+02	-3.170137e+01
4.964185e+02	-3.174264e+01
4.992858e+02	-3.179230e+01
5.021696e+02	-3.184826e+01
5.050701e+02	-3.189610e+01
5.079874e+02	-3.195353e+01
5.109215e+02	-3.200097e+01
5.138726e+02	-3.205053e+01
5.168407e+02	-3.209227e+01
5.198259e+02	-3.215815e+01
5.228284e+02	-3.219523e+01
5.258482e+02	-3.225048e+01
5.288855e+02	-3.230092e+01
5.319403e+02	-3.234958e+01
5.350128e+02	-3.239519e+01
5.381030e+02	-3.245444e+01
5.412111e+02	-3.250113e+01
5.443371e+02	-3.255588e+01
5.474812e+02	-3.259860e+01
5.506434e+02	-3.264728e+01
5.538239e+02	-3.270401e+01
5.570228e+02	-3.275795e+01
5.602401e+02	-3.279831e+01
5.634760e+02	-3.286007e+01
5.667306e+02	-3.289816e+01
5.700040e+02	-3.296351e+01
5.732964e+02	-3.300105e+01
5.766077e+02	-3.305150e+01
5.799382e+02	-3.310471e+01
5.832879e+02	-3.315148e+01
5.866569e+02	-3.320335e+01
5.900454e+02	-3.326032e+01
5.934535e+02	-3.330801e+01
5.968813e+02	-3.335921e+01
6.003288e+02	-3.340076e+01
6.037963e+02	-3.345304e+01
6.072838e+02	-3.350265e+01
6.107914e+02	-3.355627e+01
6.143194e+02	-3.361377e+01
6.178676e+02	-3.366062e+01
6.214364e+02	-3.371105e+01
6.250258e+02	-3.375499e+01
6.286359e+02	-3.382084e+01
6.322669e+02	-3.385286e+01
6.359189e+02	-3.390425e+01
6.395919e+02	-3.395951e+01
6.432862e+02	-3.400885e+01
6.470017e+02	-3.405693e+01
6.507388e+02	-3.411181e+01
6.544974e+02	-3.415364e+01
6.582778e+02	-3.421218e+01
6.620800e+02	-3.426663e+01
6.659041e+02	-3.431376e+01
6.697504e+02	-3.436132e+01
6.736188e+02	-3.440697e+01
6.775096e+02	-3.445668e+01
6.814229e+02	-3.451482e+01
6.853587e+02	-3.456311e+01
6.893173e+02	-3.461411e+01
6.932988e+02	-3.466974e+01
6.973033e+02	-3.470802e+01
7.013309e+02	-3.476313e+01
