Frequency(Hz)	Magnitude(dB)
1.000000e+01	-2.045499e+00
1.005776e+01	-2.064516e+00
1.011585e+01	-2.083594e+00
1.017428e+01	-2.102555e+00
1.023305e+01	-2.121861e+00
1.029215e+01	-2.141238e+00
1.035160e+01	-2.160884e+00
1.041139e+01	-2.180418e+00
1.047153e+01	-2.200429e+00
1.053201e+01	-2.220120e+00
1.059284e+01	-2.240229e+00
1.065403e+01	-2.260565e+00
1.071556e+01	-2.281008e+00
1.077746e+01	-2.301456e+00
1.083971e+01	-2.322246e+00
1.090232e+01	-2.342909e+00
1.096529e+01	-2.363667e+00
1.102862e+01	-2.384872e+00
1.109232e+01	-2.406210e+00
1.115639e+01	-2.427403e+00
1.122083e+01	-2.449093e+00
1.128564e+01	-2.470811e+00
1.135083e+01	-2.492511e+00
1.141639e+01	-2.514315e+00
1.148233e+01	-2.536387e+00
1.154865e+01	-2.558623e+00
1.161536e+01	-2.580916e+00
1.168245e+01	-2.603236e+00
1.174992e+01	-2.626055e+00
1.181779e+01	-2.648686e+00
1.188605e+01	-2.671627e+00
1.195470e+01	-2.694787e+00
1.202375e+01	-2.717828e+00
1.209320e+01	-2.741412e+00
1.216305e+01	-2.764832e+00
1.223330e+01	-2.788185e+00
1.230396e+01	-2.812018e+00
1.237503e+01	-2.835957e+00
1.244651e+01	-2.860152e+00
1.251840e+01	-2.884314e+00
1.259070e+01	-2.908714e+00
1.266343e+01	-2.933302e+00
1.273657e+01	-2.957880e+00
1.281014e+01	-2.982746e+00
1.288413e+01	-3.007674e+00
1.295855e+01	-3.032472e+00
1.303339e+01	-3.057668e+00
1.310867e+01	-3.083205e+00
1.318439e+01	-3.108827e+00
1.326054e+01	-3.134316e+00
1.333713e+01	-3.160171e+00
1.341417e+01	-3.185852e+00
1.349165e+01	-3.212271e+00
1.356958e+01	-3.238453e+00
1.364795e+01	-3.264842e+00
1.372678e+01	-3.291272e+00
1.380607e+01	-3.317884e+00
1.388581e+01	-3.344691e+00
1.396602e+01	-3.371652e+00
1.404668e+01	-3.398783e+00
1.412782e+01	-3.426188e+00
1.420942e+01	-3.453582e+00
1.429149e+01	-3.480811e+00
1.437404e+01	-3.508291e+00
1.445706e+01	-3.536240e+00
1.454057e+01	-3.564007e+00
1.462455e+01	-3.592266e+00
1.470902e+01	-3.620396e+00
1.479398e+01	-3.648923e+00
1.487943e+01	-3.677456e+00
1.496537e+01	-3.706095e+00
1.505181e+01	-3.735042e+00
1.513875e+01	-3.763770e+00
1.522619e+01	-3.792867e+00
1.531414e+01	-3.822110e+00
1.540259e+01	-3.851121e+00
1.549156e+01	-3.880632e+00
1.558103e+01	-3.910200e+00
1.567103e+01	-3.940393e+00
1.576155e+01	-3.970061e+00
1.585258e+01	-4.000425e+00
1.594415e+01	-4.030098e+00
1.603624e+01	-4.060574e+00
1.612886e+01	-4.091296e+00
1.622202e+01	-4.121634e+00
1.631572e+01	-4.152449e+00
1.640996e+01	-4.183362e+00
1.650474e+01	-4.214210e+00
1.660008e+01	-4.245436e+00
1.669596e+01	-4.276715e+00
1.679239e+01	-4.308159e+00
1.688938e+01	-4.339592e+00
1.698694e+01	-4.371420e+00
1.708505e+01	-4.403096e+00
1.718373e+01	-4.435092e+00
1.728299e+01	-4.467059e+00
1.738281e+01	-4.499475e+00
1.748322e+01	-4.531596e+00
1.758420e+01	-4.564191e+00
1.768576e+01	-4.596888e+00
1.778792e+01	-4.629508e+00
1.789066e+01	-4.662208e+00
1.799399e+01	-4.695370e+00
1.809793e+01	-4.728751e+00
1.820246e+01	-4.761496e+00
1.830760e+01	-4.794953e+00
1.841334e+01	-4.828815e+00
1.851969e+01	-4.862318e+00
1.862666e+01	-4.896085e+00
1.873425e+01	-4.929573e+00
1.884246e+01	-4.964191e+00
1.895129e+01	-4.998112e+00
1.906075e+01	-5.032451e+00
1.917085e+01	-5.066742e+00
1.928158e+01	-5.101065e+00
1.939295e+01	-5.135798e+00
1.950496e+01	-5.170668e+00
1.961762e+01	-5.205379e+00
1.973093e+01	-5.240596e+00
1.984490e+01	-5.275632e+00
1.995952e+01	-5.310468e+00
2.007480e+01	-5.346254e+00
2.019076e+01	-5.381800e+00
2.030738e+01	-5.417261e+00
2.042467e+01	-5.452975e+00
2.054264e+01	-5.488760e+00
2.066130e+01	-5.524613e+00
2.078064e+01	-5.560850e+00
2.090066e+01	-5.597006e+00
2.102139e+01	-5.633050e+00
2.114280e+01	-5.669396e+00
2.126492e+01	-5.706277e+00
2.138775e+01	-5.743036e+00
2.151128e+01	-5.779892e+00
2.163553e+01	-5.816269e+00
2.176050e+01	-5.853641e+00
2.188619e+01	-5.890565e+00
2.201260e+01	-5.927639e+00
2.213974e+01	-5.965154e+00
2.226762e+01	-6.002801e+00
2.239624e+01	-6.040145e+00
2.252560e+01	-6.077580e+00
2.265571e+01	-6.115403e+00
2.278656e+01	-6.153075e+00
2.291818e+01	-6.190946e+00
2.305055e+01	-6.229009e+00
2.318369e+01	-6.267195e+00
2.331760e+01	-6.305495e+00
2.345228e+01	-6.343826e+00
2.358774e+01	-6.382374e+00
2.372398e+01	-6.421154e+00
2.386101e+01	-6.459715e+00
2.399883e+01	-6.498293e+00
2.413745e+01	-6.537198e+00
2.427686e+01	-6.575918e+00
2.441709e+01	-6.615443e+00
2.455812e+01	-6.654451e+00
2.469997e+01	-6.693746e+00
2.484263e+01	-6.732822e+00
2.498612e+01	-6.772771e+00
2.513044e+01	-6.812436e+00
2.527559e+01	-6.852055e+00
2.542158e+01	-6.891406e+00
2.556842e+01	-6.931423e+00
2.571610e+01	-6.971528e+00
2.586463e+01	-7.011391e+00
2.601403e+01	-7.051181e+00
2.616428e+01	-7.091628e+00
2.631541e+01	-7.132030e+00
2.646740e+01	-7.172297e+00
2.662028e+01	-7.212986e+00
2.677404e+01	-7.253218e+00
2.692868e+01	-7.294482e+00
2.708422e+01	-7.334566e+00
2.724066e+01	-7.375674e+00
2.739800e+01	-7.416471e+00
2.755625e+01	-7.457236e+00
2.771541e+01	-7.498791e+00
2.787550e+01	-7.539788e+00
2.803650e+01	-7.580978e+00
2.819844e+01	-7.622206e+00
2.836131e+01	-7.663975e+00
2.852513e+01	-7.705436e+00
2.868989e+01	-7.746769e+00
2.885560e+01	-7.788427e+00
2.902227e+01	-7.830668e+00
2.918990e+01	-7.872429e+00
2.935850e+01	-7.914245e+00
2.952807e+01	-7.956052e+00
2.969863e+01	-7.998255e+00
2.987016e+01	-8.039887e+00
3.004269e+01	-8.082137e+00
3.021622e+01	-8.124767e+00
3.039075e+01	-8.166983e+00
3.056628e+01	-8.209599e+00
3.074283e+01	-8.251956e+00
3.092040e+01	-8.294445e+00
3.109900e+01	-8.337089e+00
3.127862e+01	-8.379687e+00
3.145929e+01	-8.422261e+00
3.164099e+01	-8.465752e+00
3.182375e+01	-8.508362e+00
3.200756e+01	-8.551574e+00
3.219244e+01	-8.594494e+00
3.237838e+01	-8.637659e+00
3.256540e+01	-8.680926e+00
3.275349e+01	-8.724484e+00
3.294268e+01	-8.767526e+00
3.313295e+01	-8.810912e+00
3.332433e+01	-8.854518e+00
3.351681e+01	-8.897974e+00
3.371040e+01	-8.941529e+00
3.390511e+01	-8.985384e+00
3.410094e+01	-9.028938e+00
3.429791e+01	-9.072949e+00
3.449601e+01	-9.117190e+00
3.469526e+01	-9.160494e+00
3.489566e+01	-9.204655e+00
3.509721e+01	-9.248642e+00
3.529993e+01	-9.292710e+00
3.550382e+01	-9.337010e+00
3.570889e+01	-9.381311e+00
3.591515e+01	-9.425360e+00
3.612259e+01	-9.470014e+00
3.633123e+01	-9.514139e+00
3.654108e+01	-9.558454e+00
3.675214e+01	-9.603188e+00
3.696442e+01	-9.648206e+00
3.717792e+01	-9.692217e+00
3.739266e+01	-9.737013e+00
3.760864e+01	-9.782162e+00
3.782587e+01	-9.826594e+00
3.804435e+01	-9.871371e+00
3.826409e+01	-9.916473e+00
3.848510e+01	-9.961287e+00
3.870739e+01	-1.000636e+01
3.893096e+01	-1.005095e+01
3.915583e+01	-1.009655e+01
3.938199e+01	-1.014159e+01
3.960946e+01	-1.018649e+01
3.983824e+01	-1.023192e+01
4.006834e+01	-1.027730e+01
4.029978e+01	-1.032321e+01
4.053255e+01	-1.036793e+01
4.076666e+01	-1.041407e+01
4.100213e+01	-1.045890e+01
4.123896e+01	-1.050522e+01
4.147715e+01	-1.055007e+01
4.171672e+01	-1.059589e+01
4.195767e+01	-1.064178e+01
4.220002e+01	-1.068772e+01
4.244377e+01	-1.073335e+01
4.268892e+01	-1.077914e+01
4.293549e+01	-1.082490e+01
4.318348e+01	-1.087087e+01
4.343291e+01	-1.091707e+01
4.368377e+01	-1.096260e+01
4.393609e+01	-1.100900e+01
4.418986e+01	-1.105424e+01
4.444510e+01	-1.110054e+01
4.470182e+01	-1.114726e+01
4.496001e+01	-1.119315e+01
4.521970e+01	-1.123980e+01
4.548089e+01	-1.128589e+01
4.574358e+01	-1.133224e+01
4.600779e+01	-1.137809e+01
4.627353e+01	-1.142480e+01
4.654081e+01	-1.147142e+01
4.680963e+01	-1.151768e+01
4.708000e+01	-1.156465e+01
4.735193e+01	-1.161102e+01
4.762543e+01	-1.165776e+01
4.790051e+01	-1.170372e+01
4.817719e+01	-1.175036e+01
4.845545e+01	-1.179727e+01
4.873533e+01	-1.184323e+01
4.901682e+01	-1.189117e+01
4.929994e+01	-1.193775e+01
4.958470e+01	-1.198454e+01
4.987110e+01	-1.203125e+01
5.015915e+01	-1.207900e+01
5.044887e+01	-1.212527e+01
5.074026e+01	-1.217228e+01
5.103333e+01	-1.221939e+01
5.132810e+01	-1.226710e+01
5.162457e+01	-1.231345e+01
5.192275e+01	-1.236099e+01
5.222265e+01	-1.240744e+01
5.252429e+01	-1.245479e+01
5.282767e+01	-1.250239e+01
5.313280e+01	-1.254907e+01
5.343969e+01	-1.259595e+01
5.374836e+01	-1.264430e+01
5.405880e+01	-1.269115e+01
5.437105e+01	-1.273850e+01
5.468509e+01	-1.278598e+01
5.500095e+01	-1.283208e+01
5.531863e+01	-1.288041e+01
5.563815e+01	-1.292805e+01
5.595951e+01	-1.297544e+01
5.628273e+01	-1.302305e+01
5.660782e+01	-1.307072e+01
5.693479e+01	-1.311779e+01
5.726364e+01	-1.316662e+01
5.759439e+01	-1.321417e+01
5.792705e+01	-1.326179e+01
5.826164e+01	-1.330942e+01
5.859815e+01	-1.335698e+01
5.893662e+01	-1.340408e+01
5.927703e+01	-1.345271e+01
5.961941e+01	-1.349964e+01
5.996377e+01	-1.354776e+01
6.031012e+01	-1.359531e+01
6.065847e+01	-1.364331e+01
6.100883e+01	-1.369048e+01
6.136121e+01	-1.373899e+01
6.171563e+01	-1.378737e+01
6.207210e+01	-1.383481e+01
6.243063e+01	-1.388280e+01
6.279122e+01	-1.393034e+01
6.315390e+01	-1.397923e+01
6.351868e+01	-1.402700e+01
6.388556e+01	-1.407455e+01
6.425456e+01	-1.412287e+01
6.462569e+01	-1.417133e+01
6.499897e+01	-1.421954e+01
6.537440e+01	-1.426739e+01
6.575200e+01	-1.431595e+01
6.613178e+01	-1.436321e+01
6.651375e+01	-1.441203e+01
6.689793e+01	-1.446000e+01
6.728433e+01	-1.450853e+01
6.767297e+01	-1.455588e+01
6.806384e+01	-1.460489e+01
6.845698e+01	-1.465227e+01
6.885238e+01	-1.470146e+01
6.925007e+01	-1.475018e+01
6.965005e+01	-1.479850e+01
7.005235e+01	-1.484654e+01
7.045697e+01	-1.489564e+01
7.086393e+01	-1.494382e+01
7.127323e+01	-1.499183e+01
7.168490e+01	-1.504020e+01
7.209895e+01	-1.508892e+01
7.251539e+01	-1.513710e+01
7.293424e+01	-1.518619e+01
7.335551e+01	-1.523428e+01
7.377920e+01	-1.528333e+01
7.420535e+01	-1.533109e+01
7.463396e+01	-1.538061e+01
7.506504e+01	-1.542890e+01
7.549861e+01	-1.547785e+01
7.593469e+01	-1.552630e+01
7.637328e+01	-1.557435e+01
7.681441e+01	-1.562347e+01
7.725809e+01	-1.567219e+01
7.770433e+01	-1.572116e+01
7.815315e+01	-1.576897e+01
7.860456e+01	-1.581809e+01
7.905857e+01	-1.586695e+01
7.951521e+01	-1.591505e+01
7.997449e+01	-1.596397e+01
8.043642e+01	-1.601331e+01
8.090102e+01	-1.606162e+01
8.136830e+01	-1.611072e+01
8.183828e+01	-1.615876e+01
8.231097e+01	-1.620860e+01
8.278640e+01	-1.625675e+01
8.326457e+01	-1.630554e+01
8.374550e+01	-1.635401e+01
8.422921e+01	-1.640282e+01
8.471572e+01	-1.645322e+01
8.520503e+01	-1.650092e+01
8.569717e+01	-1.655086e+01
8.619215e+01	-1.659881e+01
8.669000e+01	-1.664922e+01
8.719071e+01	-1.669614e+01
8.769432e+01	-1.674706e+01
8.820084e+01	-1.679460e+01
8.871029e+01	-1.684389e+01
8.922267e+01	-1.689269e+01
8.973802e+01	-1.694239e+01
9.025634e+01	-1.699105e+01
9.077766e+01	-1.704115e+01
9.130199e+01	-1.708991e+01
9.182935e+01	-1.713755e+01
9.235975e+01	-1.718753e+01
9.289321e+01	-1.723521e+01
9.342976e+01	-1.728460e+01
9.396941e+01	-1.733531e+01
9.451217e+01	-1.738402e+01
9.505807e+01	-1.743273e+01
9.560712e+01	-1.748282e+01
9.615934e+01	-1.753185e+01
9.671476e+01	-1.758097e+01
9.727338e+01	-1.762965e+01
9.783522e+01	-1.767783e+01
9.840032e+01	-1.772735e+01
9.896867e+01	-1.777631e+01
9.954031e+01	-1.782544e+01
1.001153e+02	-1.787673e+01
1.006935e+02	-1.792468e+01
1.012751e+02	-1.797414e+01
1.018601e+02	-1.802383e+01
1.024484e+02	-1.807237e+01
1.030402e+02	-1.812090e+01
1.036353e+02	-1.817195e+01
1.042339e+02	-1.821948e+01
1.048360e+02	-1.826877e+01
1.054415e+02	-1.831906e+01
1.060505e+02	-1.836745e+01
1.066631e+02	-1.841627e+01
1.072791e+02	-1.846685e+01
1.078988e+02	-1.851564e+01
1.085220e+02	-1.856466e+01
1.091488e+02	-1.861451e+01
1.097793e+02	-1.866404e+01
1.104133e+02	-1.871215e+01
1.110511e+02	-1.876331e+01
1.116925e+02	-1.881185e+01
1.123376e+02	-1.886272e+01
1.129865e+02	-1.891191e+01
1.136391e+02	-1.895984e+01
1.142955e+02	-1.900964e+01
1.149556e+02	-1.906049e+01
1.156196e+02	-1.910737e+01
1.162874e+02	-1.915811e+01
1.169591e+02	-1.920801e+01
1.176347e+02	-1.925671e+01
1.183141e+02	-1.930668e+01
1.189975e+02	-1.935520e+01
1.196848e+02	-1.940554e+01
1.203761e+02	-1.945560e+01
1.210714e+02	-1.950477e+01
1.217707e+02	-1.955298e+01
1.224740e+02	-1.960326e+01
1.231814e+02	-1.965261e+01
1.238929e+02	-1.970239e+01
1.246085e+02	-1.975033e+01
1.253283e+02	-1.980076e+01
1.260522e+02	-1.985131e+01
1.267802e+02	-1.990047e+01
1.275125e+02	-1.994977e+01
1.282490e+02	-2.000028e+01
1.289898e+02	-2.004920e+01
1.297348e+02	-2.009911e+01
1.304842e+02	-2.014858e+01
1.312378e+02	-2.019649e+01
1.319959e+02	-2.024519e+01
1.327583e+02	-2.029743e+01
1.335251e+02	-2.034568e+01
1.342963e+02	-2.039558e+01
1.350720e+02	-2.044493e+01
1.358522e+02	-2.049379e+01
1.366368e+02	-2.054430e+01
1.374260e+02	-2.059320e+01
1.382198e+02	-2.064503e+01
1.390182e+02	-2.069208e+01
1.398211e+02	-2.074270e+01
1.406287e+02	-2.079336e+01
1.414410e+02	-2.084123e+01
1.422579e+02	-2.089253e+01
1.430796e+02	-2.094183e+01
1.439060e+02	-2.098991e+01
1.447372e+02	-2.104076e+01
1.455732e+02	-2.108934e+01
1.464141e+02	-2.114039e+01
1.472597e+02	-2.118762e+01
1.481103e+02	-2.123795e+01
1.489658e+02	-2.128800e+01
1.498262e+02	-2.133779e+01
1.506916e+02	-2.138826e+01
1.515620e+02	-2.143860e+01
1.524374e+02	-2.148619e+01
1.533179e+02	-2.153754e+01
1.542034e+02	-2.158707e+01
1.550941e+02	-2.163634e+01
1.559899e+02	-2.168871e+01
1.568909e+02	-2.173672e+01
1.577971e+02	-2.178643e+01
1.587085e+02	-2.183481e+01
1.596252e+02	-2.188562e+01
1.605472e+02	-2.193340e+01
1.614745e+02	-2.198373e+01
1.624072e+02	-2.203401e+01
1.633453e+02	-2.208388e+01
1.642887e+02	-2.213268e+01
1.652377e+02	-2.218293e+01
1.661921e+02	-2.223451e+01
1.671520e+02	-2.228190e+01
1.681175e+02	-2.233360e+01
1.690885e+02	-2.238482e+01
1.700651e+02	-2.243127e+01
1.710474e+02	-2.248281e+01
1.720354e+02	-2.253345e+01
1.730291e+02	-2.258227e+01
1.740285e+02	-2.263093e+01
1.750337e+02	-2.268346e+01
1.760446e+02	-2.273235e+01
1.770615e+02	-2.278113e+01
1.780842e+02	-2.282985e+01
1.791128e+02	-2.287941e+01
1.801473e+02	-2.292926e+01
1.811878e+02	-2.298060e+01
1.822344e+02	-2.302770e+01
1.832870e+02	-2.308267e+01
1.843456e+02	-2.312853e+01
1.854104e+02	-2.317998e+01
1.864813e+02	-2.322901e+01
1.875584e+02	-2.327849e+01
1.886418e+02	-2.333028e+01
1.897313e+02	-2.337664e+01
1.908272e+02	-2.342762e+01
1.919294e+02	-2.347916e+01
1.930380e+02	-2.352507e+01
1.941530e+02	-2.357835e+01
1.952744e+02	-2.362734e+01
1.964023e+02	-2.367828e+01
1.975367e+02	-2.372784e+01
1.986777e+02	-2.377690e+01
1.998252e+02	-2.382770e+01
2.009794e+02	-2.387789e+01
2.021403e+02	-2.392729e+01
2.033078e+02	-2.397671e+01
2.044821e+02	-2.402759e+01
2.056632e+02	-2.407739e+01
2.068511e+02	-2.412689e+01
2.080459e+02	-2.417883e+01
2.092475e+02	-2.422560e+01
2.104561e+02	-2.427603e+01
2.116717e+02	-2.432635e+01
2.128943e+02	-2.437738e+01
2.141240e+02	-2.442385e+01
2.153608e+02	-2.447616e+01
2.166047e+02	-2.452518e+01
2.178558e+02	-2.457244e+01
2.191141e+02	-2.462575e+01
2.203797e+02	-2.467616e+01
2.216526e+02	-2.472439e+01
2.229329e+02	-2.477272e+01
2.242205e+02	-2.482506e+01
2.255156e+02	-2.487597e+01
2.268182e+02	-2.492425e+01
2.281283e+02	-2.497233e+01
2.294459e+02	-2.502351e+01
2.307712e+02	-2.507527e+01
2.321041e+02	-2.512444e+01
2.334447e+02	-2.517264e+01
2.347931e+02	-2.522630e+01
2.361493e+02	-2.527222e+01
2.375133e+02	-2.532351e+01
2.388851e+02	-2.537206e+01
2.402649e+02	-2.542409e+01
2.416527e+02	-2.547280e+01
2.430484e+02	-2.552068e+01
2.444523e+02	-2.557486e+01
2.458642e+02	-2.562476e+01
2.472843e+02	-2.567115e+01
2.487126e+02	-2.572468e+01
2.501492e+02	-2.576908e+01
2.515940e+02	-2.582146e+01
2.530472e+02	-2.587302e+01
2.545088e+02	-2.592357e+01
2.559789e+02	-2.597231e+01
2.574574e+02	-2.602445e+01
2.589444e+02	-2.607036e+01
2.604401e+02	-2.612365e+01
2.619444e+02	-2.616917e+01
2.634574e+02	-2.622100e+01
2.649791e+02	-2.627411e+01
2.665096e+02	-2.632239e+01
2.680489e+02	-2.637062e+01
2.695972e+02	-2.642384e+01
2.711544e+02	-2.646992e+01
2.727205e+02	-2.651801e+01
2.742958e+02	-2.657368e+01
2.758801e+02	-2.662428e+01
2.774736e+02	-2.667365e+01
2.790762e+02	-2.671941e+01
2.806882e+02	-2.677132e+01
2.823094e+02	-2.682422e+01
2.839400e+02	-2.687452e+01
2.855800e+02	-2.692123e+01
2.872295e+02	-2.697228e+01
2.888886e+02	-2.702320e+01
2.905572e+02	-2.706974e+01
2.922354e+02	-2.712426e+01
2.939234e+02	-2.717083e+01
2.956211e+02	-2.721870e+01
2.973286e+02	-2.727004e+01
2.990459e+02	-2.732278e+01
3.007732e+02	-2.737241e+01
3.025104e+02	-2.741803e+01
3.042577e+02	-2.747234e+01
3.060151e+02	-2.751842e+01
3.077826e+02	-2.757388e+01
3.095604e+02	-2.762099e+01
3.113484e+02	-2.767302e+01
3.131467e+02	-2.771786e+01
3.149554e+02	-2.777407e+01
3.167746e+02	-2.782075e+01
3.186043e+02	-2.787699e+01
3.204445e+02	-2.792329e+01
3.222954e+02	-2.797405e+01
3.241570e+02	-2.801996e+01
3.260293e+02	-2.807169e+01
3.279124e+02	-2.811884e+01
3.298064e+02	-2.817315e+01
3.317114e+02	-2.822153e+01
3.336273e+02	-2.826952e+01
3.355544e+02	-2.832170e+01
3.374925e+02	-2.837084e+01
3.394418e+02	-2.842107e+01
3.414024e+02	-2.847199e+01
3.433744e+02	-2.851928e+01
3.453577e+02	-2.857191e+01
3.473525e+02	-2.862054e+01
3.493588e+02	-2.867208e+01
3.513766e+02	-2.872401e+01
3.534062e+02	-2.877214e+01
3.554474e+02	-2.882405e+01
3.575005e+02	-2.887443e+01
3.595654e+02	-2.892364e+01
3.616422e+02	-2.897313e+01
3.637311e+02	-2.902481e+01
3.658320e+02	-2.907479e+01
3.679450e+02	-2.912267e+01
3.700702e+02	-2.917198e+01
3.722077e+02	-2.922672e+01
3.743576e+02	-2.927147e+01
3.765199e+02	-2.932132e+01
3.786946e+02	-2.937280e+01
3.808820e+02	-2.942298e+01
3.830819e+02	-2.947320e+01
3.852946e+02	-2.952229e+01
3.875200e+02	-2.957453e+01
3.897583e+02	-2.962597e+01
3.920096e+02	-2.967653e+01
3.942738e+02	-2.972416e+01
3.965511e+02	-2.977393e+01
3.988416e+02	-2.982251e+01
4.011452e+02	-2.987604e+01
4.034622e+02	-2.992175e+01
4.057926e+02	-2.997232e+01
4.081365e+02	-3.002159e+01
4.104938e+02	-3.007059e+01
4.128648e+02	-3.012112e+01
4.152495e+02	-3.017831e+01
4.176480e+02	-3.022154e+01
4.200603e+02	-3.027654e+01
4.224866e+02	-3.032427e+01
4.249268e+02	-3.037905e+01
4.273812e+02	-3.042727e+01
4.298497e+02	-3.047572e+01
4.323325e+02	-3.052503e+01
4.348297e+02	-3.057697e+01
4.373412e+02	-3.062498e+01
4.398673e+02	-3.067409e+01
4.424079e+02	-3.072310e+01
4.449633e+02	-3.077213e+01
4.475334e+02	-3.082603e+01
4.501183e+02	-3.087655e+01
4.527182e+02	-3.092936e+01
4.553330e+02	-3.098179e+01
4.579630e+02	-3.103026e+01
4.606082e+02	-3.107175e+01
4.632687e+02	-3.112500e+01
4.659445e+02	-3.117030e+01
4.686358e+02	-3.122521e+01
4.713426e+02	-3.127295e+01
4.740650e+02	-3.132703e+01
4.768032e+02	-3.137645e+01
4.795572e+02	-3.142745e+01
4.823271e+02	-3.147790e+01
4.851130e+02	-3.152818e+01
4.879150e+02	-3.157769e+01
4.907332e+02	-3.162515e+01
4.935676e+02	-3.168181e+01
4.964185e+02	-3.172750e+01
4.992858e+02	-3.177900e+01
5.021696e+02	-3.183197e+01
5.050701e+02	-3.187867e+01
5.079874e+02	-3.193173e+01
5.109215e+02	-3.197409e+01
5.138726e+02	-3.203064e+01
5.168407e+02	-3.208655e+01
5.198259e+02	-3.213101e+01
5.228284e+02	-3.217635e+01
5.258482e+02	-3.222860e+01
5.288855e+02	-3.227997e+01
5.319403e+02	-3.233568e+01
5.350128e+02	-3.238365e+01
5.381030e+02	-3.242936e+01
5.412111e+02	-3.247835e+01
5.443371e+02	-3.253024e+01
5.474812e+02	-3.258766e+01
5.506434e+02	-3.263174e+01
5.538239e+02	-3.268559e+01
5.570228e+02	-3.272996e+01
5.602401e+02	-3.278776e+01
5.634760e+02	-3.283650e+01
5.667306e+02	-3.288561e+01
5.700040e+02	-3.292843e+01
5.732964e+02	-3.297554e+01
5.766077e+02	-3.303336e+01
5.799382e+02	-3.308579e+01
5.832879e+02	-3.312666e+01
5.866569e+02	-3.317626e+01
5.900454e+02	-3.322520e+01
5.934535e+02	-3.328831e+01
5.968813e+02	-3.333192e+01
6.003288e+02	-3.339499e+01
6.037963e+02	-3.342911e+01
6.072838e+02	-3.347928e+01
6.107914e+02	-3.353152e+01
6.143194e+02	-3.358691e+01
6.178676e+02	-3.363120e+01
6.214364e+02	-3.368332e+01
6.250258e+02	-3.373776e+01
6.286359e+02	-3.378544e+01
6.322669e+02	-3.383738e+01
6.359189e+02	-3.388064e+01
6.395919e+02	-3.393570e+01
6.432862e+02	-3.399188e+01
6.470017e+02	-3.403928e+01
6.507388e+02	-3.408567e+01
6.544974e+02	-3.413599e+01
6.582778e+02	-3.419264e+01
6.620800e+02	-3.423877e+01
6.659041e+02	-3.428305e+01
6.697504e+02	-3.433341e+01
6.736188e+02	-3.439174e+01
6.775096e+02	-3.444097e+01
6.814229e+02	-3.449012e+01
6.853587e+02	-3.454270e+01
6.893173e+02	-3.458550e+01
6.932988e+02	-3.464291e+01
6.973033e+02	-3.469833e+01
7.013309e+02	-3.474585e+01
