Frequency(Hz)	Magnitude(dB)
1.000000e+01	-2.057782e+00
1.005776e+01	-2.076794e+00
1.011585e+01	-2.095881e+00
1.017428e+01	-2.115147e+00
1.023305e+01	-2.134597e+00
1.029215e+01	-2.153920e+00
1.035160e+01	-2.173724e+00
1.041139e+01	-2.193270e+00
1.047153e+01	-2.213446e+00
1.053201e+01	-2.233319e+00
1.059284e+01	-2.253630e+00
1.065403e+01	-2.273932e+00
1.071556e+01	-2.294088e+00
1.077746e+01	-2.314771e+00
1.083971e+01	-2.335583e+00
1.090232e+01	-2.356430e+00
1.096529e+01	-2.377448e+00
1.102862e+01	-2.398880e+00
1.109232e+01	-2.420018e+00
1.115639e+01	-2.441387e+00
1.122083e+01	-2.462896e+00
1.128564e+01	-2.484594e+00
1.135083e+01	-2.506801e+00
1.141639e+01	-2.528691e+00
1.148233e+01	-2.550931e+00
1.154865e+01	-2.573097e+00
1.161536e+01	-2.595463e+00
1.168245e+01	-2.618117e+00
1.174992e+01	-2.640798e+00
1.181779e+01	-2.663734e+00
1.188605e+01	-2.686482e+00
1.195470e+01	-2.709642e+00
1.202375e+01	-2.732930e+00
1.209320e+01	-2.756489e+00
1.216305e+01	-2.779959e+00
1.223330e+01	-2.803857e+00
1.230396e+01	-2.827718e+00
1.237503e+01	-2.851653e+00
1.244651e+01	-2.875824e+00
1.251840e+01	-2.900091e+00
1.259070e+01	-2.924558e+00
1.266343e+01	-2.948999e+00
1.273657e+01	-2.973865e+00
1.281014e+01	-2.998758e+00
1.288413e+01	-3.023842e+00
1.295855e+01	-3.048805e+00
1.303339e+01	-3.074313e+00
1.310867e+01	-3.099770e+00
1.318439e+01	-3.125369e+00
1.326054e+01	-3.151132e+00
1.333713e+01	-3.177031e+00
1.341417e+01	-3.203042e+00
1.349165e+01	-3.229063e+00
1.356958e+01	-3.255570e+00
1.364795e+01	-3.281817e+00
1.372678e+01	-3.308445e+00
1.380607e+01	-3.335222e+00
1.388581e+01	-3.361892e+00
1.396602e+01	-3.389330e+00
1.404668e+01	-3.416321e+00
1.412782e+01	-3.443694e+00
1.420942e+01	-3.471015e+00
1.429149e+01	-3.498607e+00
1.437404e+01	-3.526397e+00
1.445706e+01	-3.554353e+00
1.454057e+01	-3.582427e+00
1.462455e+01	-3.610309e+00
1.470902e+01	-3.638818e+00
1.479398e+01	-3.667160e+00
1.487943e+01	-3.696246e+00
1.496537e+01	-3.724765e+00
1.505181e+01	-3.753514e+00
1.513875e+01	-3.782512e+00
1.522619e+01	-3.811652e+00
1.531414e+01	-3.840823e+00
1.540259e+01	-3.870375e+00
1.549156e+01	-3.899997e+00
1.558103e+01	-3.929789e+00
1.567103e+01	-3.959543e+00
1.576155e+01	-3.989645e+00
1.585258e+01	-4.019546e+00
1.594415e+01	-4.050037e+00
1.603624e+01	-4.080648e+00
1.612886e+01	-4.110909e+00
1.622202e+01	-4.141674e+00
1.631572e+01	-4.172401e+00
1.640996e+01	-4.203642e+00
1.650474e+01	-4.234482e+00
1.660008e+01	-4.265487e+00
1.669596e+01	-4.297278e+00
1.679239e+01	-4.328643e+00
1.688938e+01	-4.360240e+00
1.698694e+01	-4.391869e+00
1.708505e+01	-4.423949e+00
1.718373e+01	-4.455709e+00
1.728299e+01	-4.487897e+00
1.738281e+01	-4.520471e+00
1.748322e+01	-4.552763e+00
1.758420e+01	-4.585312e+00
1.768576e+01	-4.617975e+00
1.778792e+01	-4.650933e+00
1.789066e+01	-4.683741e+00
1.799399e+01	-4.716849e+00
1.809793e+01	-4.749911e+00
1.820246e+01	-4.783365e+00
1.830760e+01	-4.816631e+00
1.841334e+01	-4.850312e+00
1.851969e+01	-4.884126e+00
1.862666e+01	-4.918215e+00
1.873425e+01	-4.952077e+00
1.884246e+01	-4.986035e+00
1.895129e+01	-5.020267e+00
1.906075e+01	-5.054661e+00
1.917085e+01	-5.088908e+00
1.928158e+01	-5.123763e+00
1.939295e+01	-5.158586e+00
1.950496e+01	-5.193143e+00
1.961762e+01	-5.228120e+00
1.973093e+01	-5.263386e+00
1.984490e+01	-5.298425e+00
1.995952e+01	-5.333861e+00
2.007480e+01	-5.368961e+00
2.019076e+01	-5.404524e+00
2.030738e+01	-5.440240e+00
2.042467e+01	-5.476146e+00
2.054264e+01	-5.512034e+00
2.066130e+01	-5.547940e+00
2.078064e+01	-5.584271e+00
2.090066e+01	-5.620488e+00
2.102139e+01	-5.656801e+00
2.114280e+01	-5.693361e+00
2.126492e+01	-5.729801e+00
2.138775e+01	-5.766640e+00
2.151128e+01	-5.803239e+00
2.163553e+01	-5.840294e+00
2.176050e+01	-5.877306e+00
2.188619e+01	-5.914596e+00
2.201260e+01	-5.951801e+00
2.213974e+01	-5.989072e+00
2.226762e+01	-6.026792e+00
2.239624e+01	-6.064518e+00
2.252560e+01	-6.101947e+00
2.265571e+01	-6.139944e+00
2.278656e+01	-6.177920e+00
2.291818e+01	-6.216085e+00
2.305055e+01	-6.254180e+00
2.318369e+01	-6.291816e+00
2.331760e+01	-6.330434e+00
2.345228e+01	-6.369036e+00
2.358774e+01	-6.407354e+00
2.372398e+01	-6.445927e+00
2.386101e+01	-6.484535e+00
2.399883e+01	-6.523501e+00
2.413745e+01	-6.562650e+00
2.427686e+01	-6.601351e+00
2.441709e+01	-6.640908e+00
2.455812e+01	-6.679925e+00
2.469997e+01	-6.719038e+00
2.484263e+01	-6.758951e+00
2.498612e+01	-6.798328e+00
2.513044e+01	-6.837859e+00
2.527559e+01	-6.877988e+00
2.542158e+01	-6.917607e+00
2.556842e+01	-6.957160e+00
2.571610e+01	-6.997195e+00
2.586463e+01	-7.037447e+00
2.601403e+01	-7.077708e+00
2.616428e+01	-7.117823e+00
2.631541e+01	-7.158126e+00
2.646740e+01	-7.198462e+00
2.662028e+01	-7.238674e+00
2.677404e+01	-7.279452e+00
2.692868e+01	-7.320300e+00
2.708422e+01	-7.361328e+00
2.724066e+01	-7.402231e+00
2.739800e+01	-7.442773e+00
2.755625e+01	-7.483904e+00
2.771541e+01	-7.525432e+00
2.787550e+01	-7.566183e+00
2.803650e+01	-7.607710e+00
2.819844e+01	-7.649562e+00
2.836131e+01	-7.690520e+00
2.852513e+01	-7.732059e+00
2.868989e+01	-7.773741e+00
2.885560e+01	-7.815906e+00
2.902227e+01	-7.857356e+00
2.918990e+01	-7.899368e+00
2.935850e+01	-7.941000e+00
2.952807e+01	-7.983209e+00
2.969863e+01	-8.025281e+00
2.987016e+01	-8.067534e+00
3.004269e+01	-8.109713e+00
3.021622e+01	-8.152049e+00
3.039075e+01	-8.194427e+00
3.056628e+01	-8.236953e+00
3.074283e+01	-8.279084e+00
3.092040e+01	-8.322505e+00
3.109900e+01	-8.365122e+00
3.127862e+01	-8.407661e+00
3.145929e+01	-8.450273e+00
3.164099e+01	-8.493461e+00
3.182375e+01	-8.536616e+00
3.200756e+01	-8.579312e+00
3.219244e+01	-8.622078e+00
3.237838e+01	-8.666135e+00
3.256540e+01	-8.709187e+00
3.275349e+01	-8.752636e+00
3.294268e+01	-8.795709e+00
3.313295e+01	-8.838971e+00
3.332433e+01	-8.882575e+00
3.351681e+01	-8.926310e+00
3.371040e+01	-8.969738e+00
3.390511e+01	-9.013684e+00
3.410094e+01	-9.057283e+00
3.429791e+01	-9.101169e+00
3.449601e+01	-9.145196e+00
3.469526e+01	-9.188715e+00
3.489566e+01	-9.232979e+00
3.509721e+01	-9.277545e+00
3.529993e+01	-9.321484e+00
3.550382e+01	-9.365375e+00
3.570889e+01	-9.410281e+00
3.591515e+01	-9.454202e+00
3.612259e+01	-9.498437e+00
3.633123e+01	-9.543091e+00
3.654108e+01	-9.587927e+00
3.675214e+01	-9.632368e+00
3.696442e+01	-9.677016e+00
3.717792e+01	-9.721503e+00
3.739266e+01	-9.765812e+00
3.760864e+01	-9.810978e+00
3.782587e+01	-9.855673e+00
3.804435e+01	-9.900453e+00
3.826409e+01	-9.945590e+00
3.848510e+01	-9.990516e+00
3.870739e+01	-1.003520e+01
3.893096e+01	-1.008055e+01
3.915583e+01	-1.012624e+01
3.938199e+01	-1.017089e+01
3.960946e+01	-1.021603e+01
3.983824e+01	-1.026157e+01
4.006834e+01	-1.030676e+01
4.029978e+01	-1.035254e+01
4.053255e+01	-1.039756e+01
4.076666e+01	-1.044340e+01
4.100213e+01	-1.048842e+01
4.123896e+01	-1.053453e+01
4.147715e+01	-1.058060e+01
4.171672e+01	-1.062557e+01
4.195767e+01	-1.067120e+01
4.220002e+01	-1.071731e+01
4.244377e+01	-1.076265e+01
4.268892e+01	-1.080861e+01
4.293549e+01	-1.085454e+01
4.318348e+01	-1.090049e+01
4.343291e+01	-1.094677e+01
4.368377e+01	-1.099290e+01
4.393609e+01	-1.103835e+01
4.418986e+01	-1.108513e+01
4.444510e+01	-1.113114e+01
4.470182e+01	-1.117667e+01
4.496001e+01	-1.122286e+01
4.521970e+01	-1.126984e+01
4.548089e+01	-1.131573e+01
4.574358e+01	-1.136228e+01
4.600779e+01	-1.140945e+01
4.627353e+01	-1.145468e+01
4.654081e+01	-1.150143e+01
4.680963e+01	-1.154764e+01
4.708000e+01	-1.159443e+01
4.735193e+01	-1.164150e+01
4.762543e+01	-1.168775e+01
4.790051e+01	-1.173422e+01
4.817719e+01	-1.178161e+01
4.845545e+01	-1.182769e+01
4.873533e+01	-1.187441e+01
4.901682e+01	-1.192158e+01
4.929994e+01	-1.196810e+01
4.958470e+01	-1.201490e+01
4.987110e+01	-1.206199e+01
5.015915e+01	-1.210874e+01
5.044887e+01	-1.215610e+01
5.074026e+01	-1.220362e+01
5.103333e+01	-1.224953e+01
5.132810e+01	-1.229690e+01
5.162457e+01	-1.234442e+01
5.192275e+01	-1.239119e+01
5.222265e+01	-1.243888e+01
5.252429e+01	-1.248540e+01
5.282767e+01	-1.253199e+01
5.313280e+01	-1.258044e+01
5.343969e+01	-1.262685e+01
5.374836e+01	-1.267452e+01
5.405880e+01	-1.272159e+01
5.437105e+01	-1.276880e+01
5.468509e+01	-1.281662e+01
5.500095e+01	-1.286406e+01
5.531863e+01	-1.291211e+01
5.563815e+01	-1.295883e+01
5.595951e+01	-1.300639e+01
5.628273e+01	-1.305381e+01
5.660782e+01	-1.310158e+01
5.693479e+01	-1.314922e+01
5.726364e+01	-1.319716e+01
5.759439e+01	-1.324441e+01
5.792705e+01	-1.329264e+01
5.826164e+01	-1.334012e+01
5.859815e+01	-1.338661e+01
5.893662e+01	-1.343506e+01
5.927703e+01	-1.348300e+01
5.961941e+01	-1.353162e+01
5.996377e+01	-1.357918e+01
6.031012e+01	-1.362674e+01
6.065847e+01	-1.367439e+01
6.100883e+01	-1.372228e+01
6.136121e+01	-1.377016e+01
6.171563e+01	-1.381825e+01
6.207210e+01	-1.386703e+01
6.243063e+01	-1.391491e+01
6.279122e+01	-1.396183e+01
6.315390e+01	-1.400996e+01
6.351868e+01	-1.405798e+01
6.388556e+01	-1.410618e+01
6.425456e+01	-1.415446e+01
6.462569e+01	-1.420229e+01
6.499897e+01	-1.425113e+01
6.537440e+01	-1.429875e+01
6.575200e+01	-1.434733e+01
6.613178e+01	-1.439538e+01
6.651375e+01	-1.444385e+01
6.689793e+01	-1.449138e+01
6.728433e+01	-1.454001e+01
6.767297e+01	-1.458801e+01
6.806384e+01	-1.463608e+01
6.845698e+01	-1.468454e+01
6.885238e+01	-1.473398e+01
6.925007e+01	-1.478193e+01
6.965005e+01	-1.483047e+01
7.005235e+01	-1.487809e+01
7.045697e+01	-1.492704e+01
7.086393e+01	-1.497531e+01
7.127323e+01	-1.502453e+01
7.168490e+01	-1.507255e+01
7.209895e+01	-1.512047e+01
7.251539e+01	-1.516961e+01
7.293424e+01	-1.521763e+01
7.335551e+01	-1.526662e+01
7.377920e+01	-1.531429e+01
7.420535e+01	-1.536372e+01
7.463396e+01	-1.541140e+01
7.506504e+01	-1.545950e+01
7.549861e+01	-1.550841e+01
7.593469e+01	-1.555736e+01
7.637328e+01	-1.560687e+01
7.681441e+01	-1.565452e+01
7.725809e+01	-1.570394e+01
7.770433e+01	-1.575265e+01
7.815315e+01	-1.580173e+01
7.860456e+01	-1.584965e+01
7.905857e+01	-1.589880e+01
7.951521e+01	-1.594766e+01
7.997449e+01	-1.599626e+01
8.043642e+01	-1.604462e+01
8.090102e+01	-1.609415e+01
8.136830e+01	-1.614209e+01
8.183828e+01	-1.619035e+01
8.231097e+01	-1.624018e+01
8.278640e+01	-1.628951e+01
8.326457e+01	-1.633840e+01
8.374550e+01	-1.638577e+01
8.422921e+01	-1.643542e+01
8.471572e+01	-1.648400e+01
8.520503e+01	-1.653182e+01
8.569717e+01	-1.658153e+01
8.619215e+01	-1.663110e+01
8.669000e+01	-1.667927e+01
8.719071e+01	-1.672785e+01
8.769432e+01	-1.677862e+01
8.820084e+01	-1.682734e+01
8.871029e+01	-1.687565e+01
8.922267e+01	-1.692563e+01
8.973802e+01	-1.697362e+01
9.025634e+01	-1.702259e+01
9.077766e+01	-1.707217e+01
9.130199e+01	-1.712085e+01
9.182935e+01	-1.717067e+01
9.235975e+01	-1.721974e+01
9.289321e+01	-1.726805e+01
9.342976e+01	-1.731886e+01
9.396941e+01	-1.736789e+01
9.451217e+01	-1.741457e+01
9.505807e+01	-1.746523e+01
9.560712e+01	-1.751458e+01
9.615934e+01	-1.756395e+01
9.671476e+01	-1.761276e+01
9.727338e+01	-1.766099e+01
9.783522e+01	-1.771063e+01
9.840032e+01	-1.775945e+01
9.896867e+01	-1.780799e+01
9.954031e+01	-1.785821e+01
1.001153e+02	-1.790663e+01
1.006935e+02	-1.795650e+01
1.012751e+02	-1.800557e+01
1.018601e+02	-1.805381e+01
1.024484e+02	-1.810406e+01
1.030402e+02	-1.815473e+01
1.036353e+02	-1.820276e+01
1.042339e+02	-1.825191e+01
1.048360e+02	-1.830164e+01
1.054415e+02	-1.835144e+01
1.060505e+02	-1.840131e+01
1.066631e+02	-1.844948e+01
1.072791e+02	-1.849985e+01
1.078988e+02	-1.854716e+01
1.085220e+02	-1.859717e+01
1.091488e+02	-1.864616e+01
1.097793e+02	-1.869594e+01
1.104133e+02	-1.874509e+01
1.110511e+02	-1.879395e+01
1.116925e+02	-1.884418e+01
1.123376e+02	-1.889302e+01
1.129865e+02	-1.894295e+01
1.136391e+02	-1.899258e+01
1.142955e+02	-1.904153e+01
1.149556e+02	-1.909195e+01
1.156196e+02	-1.914150e+01
1.162874e+02	-1.919020e+01
1.169591e+02	-1.923977e+01
1.176347e+02	-1.928750e+01
1.183141e+02	-1.933716e+01
1.189975e+02	-1.938812e+01
1.196848e+02	-1.943731e+01
1.203761e+02	-1.948550e+01
1.210714e+02	-1.953603e+01
1.217707e+02	-1.958555e+01
1.224740e+02	-1.963470e+01
1.231814e+02	-1.968494e+01
1.238929e+02	-1.973362e+01
1.246085e+02	-1.978371e+01
1.253283e+02	-1.983173e+01
1.260522e+02	-1.988139e+01
1.267802e+02	-1.993394e+01
1.275125e+02	-1.998015e+01
1.282490e+02	-2.003186e+01
1.289898e+02	-2.008049e+01
1.297348e+02	-2.013163e+01
1.304842e+02	-2.018055e+01
1.312378e+02	-2.023078e+01
1.319959e+02	-2.027832e+01
1.327583e+02	-2.033059e+01
1.335251e+02	-2.037874e+01
1.342963e+02	-2.042905e+01
1.350720e+02	-2.047664e+01
1.358522e+02	-2.052694e+01
1.366368e+02	-2.057519e+01
1.374260e+02	-2.062765e+01
1.382198e+02	-2.067530e+01
1.390182e+02	-2.072667e+01
1.398211e+02	-2.077506e+01
1.406287e+02	-2.082637e+01
1.414410e+02	-2.087369e+01
1.422579e+02	-2.092468e+01
1.430796e+02	-2.097410e+01
1.439060e+02	-2.102432e+01
1.447372e+02	-2.107244e+01
1.455732e+02	-2.112163e+01
1.464141e+02	-2.117190e+01
1.472597e+02	-2.122329e+01
1.481103e+02	-2.126988e+01
1.489658e+02	-2.132194e+01
1.498262e+02	-2.137192e+01
1.506916e+02	-2.142091e+01
1.515620e+02	-2.147224e+01
1.524374e+02	-2.151971e+01
1.533179e+02	-2.157042e+01
1.542034e+02	-2.162000e+01
1.550941e+02	-2.166883e+01
1.559899e+02	-2.171798e+01
1.568909e+02	-2.176793e+01
1.577971e+02	-2.181820e+01
1.587085e+02	-2.186760e+01
1.596252e+02	-2.191684e+01
1.605472e+02	-2.196632e+01
1.614745e+02	-2.201749e+01
1.624072e+02	-2.206761e+01
1.633453e+02	-2.211825e+01
1.642887e+02	-2.216661e+01
1.652377e+02	-2.221604e+01
1.661921e+02	-2.226580e+01
1.671520e+02	-2.231516e+01
1.681175e+02	-2.236569e+01
1.690885e+02	-2.241465e+01
1.700651e+02	-2.246531e+01
1.710474e+02	-2.251377e+01
1.720354e+02	-2.256337e+01
1.730291e+02	-2.261486e+01
1.740285e+02	-2.266566e+01
1.750337e+02	-2.271426e+01
1.760446e+02	-2.276611e+01
1.770615e+02	-2.281269e+01
1.780842e+02	-2.286220e+01
1.791128e+02	-2.291471e+01
1.801473e+02	-2.296219e+01
1.811878e+02	-2.301196e+01
1.822344e+02	-2.305980e+01
1.832870e+02	-2.311255e+01
1.843456e+02	-2.316271e+01
1.854104e+02	-2.321041e+01
1.864813e+02	-2.326291e+01
1.875584e+02	-2.331043e+01
1.886418e+02	-2.336067e+01
1.897313e+02	-2.341086e+01
1.908272e+02	-2.345932e+01
1.919294e+02	-2.351099e+01
1.930380e+02	-2.356135e+01
1.941530e+02	-2.361035e+01
1.952744e+02	-2.365923e+01
1.964023e+02	-2.370953e+01
1.975367e+02	-2.375989e+01
1.986777e+02	-2.381090e+01
1.998252e+02	-2.385846e+01
2.009794e+02	-2.390773e+01
2.021403e+02	-2.396023e+01
2.033078e+02	-2.400860e+01
2.044821e+02	-2.405499e+01
2.056632e+02	-2.410880e+01
2.068511e+02	-2.416098e+01
2.080459e+02	-2.420816e+01
2.092475e+02	-2.425761e+01
2.104561e+02	-2.430939e+01
2.116717e+02	-2.435762e+01
2.128943e+02	-2.440753e+01
2.141240e+02	-2.445849e+01
2.153608e+02	-2.450701e+01
2.166047e+02	-2.455861e+01
2.178558e+02	-2.460958e+01
2.191141e+02	-2.465668e+01
2.203797e+02	-2.470767e+01
2.216526e+02	-2.475734e+01
2.229329e+02	-2.480516e+01
2.242205e+02	-2.485914e+01
2.255156e+02	-2.490799e+01
2.268182e+02	-2.495644e+01
2.281283e+02	-2.500460e+01
2.294459e+02	-2.505967e+01
2.307712e+02	-2.510454e+01
2.321041e+02	-2.515555e+01
2.334447e+02	-2.520725e+01
2.347931e+02	-2.525476e+01
2.361493e+02	-2.530525e+01
2.375133e+02	-2.535606e+01
2.388851e+02	-2.540887e+01
2.402649e+02	-2.545453e+01
2.416527e+02	-2.550911e+01
2.430484e+02	-2.555832e+01
2.444523e+02	-2.560700e+01
2.458642e+02	-2.565870e+01
2.472843e+02	-2.570434e+01
2.487126e+02	-2.575704e+01
2.501492e+02	-2.580484e+01
2.515940e+02	-2.585539e+01
2.530472e+02	-2.590404e+01
2.545088e+02	-2.595561e+01
2.559789e+02	-2.600626e+01
2.574574e+02	-2.605570e+01
2.589444e+02	-2.610572e+01
2.604401e+02	-2.615513e+01
2.619444e+02	-2.620469e+01
2.634574e+02	-2.625524e+01
2.649791e+02	-2.630346e+01
2.665096e+02	-2.635426e+01
2.680489e+02	-2.640692e+01
2.695972e+02	-2.645053e+01
2.711544e+02	-2.650722e+01
2.727205e+02	-2.655357e+01
2.742958e+02	-2.660523e+01
2.758801e+02	-2.665318e+01
2.774736e+02	-2.670572e+01
2.790762e+02	-2.675551e+01
2.806882e+02	-2.680348e+01
2.823094e+02	-2.685648e+01
2.839400e+02	-2.690303e+01
2.855800e+02	-2.695110e+01
2.872295e+02	-2.700556e+01
2.888886e+02	-2.705479e+01
2.905572e+02	-2.710555e+01
2.922354e+02	-2.715778e+01
2.939234e+02	-2.720422e+01
2.956211e+02	-2.725293e+01
2.973286e+02	-2.730055e+01
2.990459e+02	-2.735789e+01
3.007732e+02	-2.740418e+01
3.025104e+02	-2.745543e+01
3.042577e+02	-2.750714e+01
3.060151e+02	-2.755393e+01
3.077826e+02	-2.760504e+01
3.095604e+02	-2.765309e+01
3.113484e+02	-2.770746e+01
3.131467e+02	-2.775792e+01
3.149554e+02	-2.780115e+01
3.167746e+02	-2.785632e+01
3.186043e+02	-2.790231e+01
3.204445e+02	-2.795444e+01
3.222954e+02	-2.800555e+01
3.241570e+02	-2.805106e+01
3.260293e+02	-2.810484e+01
3.279124e+02	-2.815978e+01
3.298064e+02	-2.820315e+01
3.317114e+02	-2.825545e+01
3.336273e+02	-2.830541e+01
3.355544e+02	-2.835332e+01
3.374925e+02	-2.840393e+01
3.394418e+02	-2.845586e+01
3.414024e+02	-2.850099e+01
3.433744e+02	-2.855506e+01
3.453577e+02	-2.860746e+01
3.473525e+02	-2.865483e+01
3.493588e+02	-2.870732e+01
3.513766e+02	-2.875319e+01
3.534062e+02	-2.880376e+01
3.554474e+02	-2.885657e+01
3.575005e+02	-2.889852e+01
3.595654e+02	-2.895567e+01
3.616422e+02	-2.900656e+01
3.637311e+02	-2.905566e+01
3.658320e+02	-2.910327e+01
3.679450e+02	-2.915947e+01
3.700702e+02	-2.920532e+01
3.722077e+02	-2.925306e+01
3.743576e+02	-2.930919e+01
3.765199e+02	-2.935639e+01
3.786946e+02	-2.940779e+01
3.808820e+02	-2.945355e+01
3.830819e+02	-2.950362e+01
3.852946e+02	-2.955911e+01
3.875200e+02	-2.960553e+01
3.897583e+02	-2.965566e+01
3.920096e+02	-2.970404e+01
3.942738e+02	-2.975186e+01
3.965511e+02	-2.980682e+01
3.988416e+02	-2.985870e+01
4.011452e+02	-2.991071e+01
4.034622e+02	-2.995722e+01
4.057926e+02	-3.000413e+01
4.081365e+02	-3.005059e+01
4.104938e+02	-3.010693e+01
4.128648e+02	-3.015618e+01
4.152495e+02	-3.020222e+01
4.176480e+02	-3.025830e+01
4.200603e+02	-3.030641e+01
4.224866e+02	-3.036272e+01
4.249268e+02	-3.040734e+01
4.273812e+02	-3.046041e+01
4.298497e+02	-3.051289e+01
4.323325e+02	-3.055852e+01
4.348297e+02	-3.060736e+01
4.373412e+02	-3.065911e+01
4.398673e+02	-3.071571e+01
4.424079e+02	-3.075918e+01
4.449633e+02	-3.081298e+01
4.475334e+02	-3.085935e+01
4.501183e+02	-3.091084e+01
4.527182e+02	-3.095883e+01
4.553330e+02	-3.101096e+01
4.579630e+02	-3.106013e+01
4.606082e+02	-3.111498e+01
4.632687e+02	-3.115759e+01
4.659445e+02	-3.121447e+01
4.686358e+02	-3.126600e+01
4.713426e+02	-3.130582e+01
4.740650e+02	-3.136829e+01
4.768032e+02	-3.140831e+01
4.795572e+02	-3.145881e+01
4.823271e+02	-3.151195e+01
4.851130e+02	-3.156045e+01
4.879150e+02	-3.161820e+01
4.907332e+02	-3.166339e+01
4.935676e+02	-3.170853e+01
4.964185e+02	-3.176439e+01
4.992858e+02	-3.181545e+01
5.021696e+02	-3.185984e+01
5.050701e+02	-3.190670e+01
5.079874e+02	-3.196202e+01
5.109215e+02	-3.201883e+01
5.138726e+02	-3.206414e+01
5.168407e+02	-3.211355e+01
5.198259e+02	-3.216169e+01
5.228284e+02	-3.220857e+01
5.258482e+02	-3.226381e+01
5.288855e+02	-3.231140e+01
5.319403e+02	-3.235953e+01
5.350128e+02	-3.241752e+01
5.381030e+02	-3.246915e+01
5.412111e+02	-3.251135e+01
5.443371e+02	-3.256275e+01
5.474812e+02	-3.261849e+01
5.506434e+02	-3.266942e+01
5.538239e+02	-3.271933e+01
5.570228e+02	-3.276834e+01
5.602401e+02	-3.282092e+01
5.634760e+02	-3.286828e+01
5.667306e+02	-3.292295e+01
5.700040e+02	-3.296203e+01
5.732964e+02	-3.301731e+01
5.766077e+02	-3.307177e+01
5.799382e+02	-3.311994e+01
5.832879e+02	-3.316726e+01
5.866569e+02	-3.321399e+01
5.900454e+02	-3.327223e+01
5.934535e+02	-3.331767e+01
5.968813e+02	-3.337049e+01
6.003288e+02	-3.341841e+01
6.037963e+02	-3.346342e+01
6.072838e+02	-3.352527e+01
6.107914e+02	-3.357232e+01
6.143194e+02	-3.362605e+01
6.178676e+02	-3.367118e+01
6.214364e+02	-3.372946e+01
6.250258e+02	-3.377339e+01
6.286359e+02	-3.382802e+01
6.322669e+02	-3.387761e+01
6.359189e+02	-3.392268e+01
6.395919e+02	-3.397975e+01
6.432862e+02	-3.402437e+01
6.470017e+02	-3.407267e+01
6.507388e+02	-3.412274e+01
6.544974e+02	-3.417370e+01
6.582778e+02	-3.422713e+01
6.620800e+02	-3.427639e+01
6.659041e+02	-3.432633e+01
6.697504e+02	-3.437035e+01
6.736188e+02	-3.442462e+01
6.775096e+02	-3.447870e+01
6.814229e+02	-3.453311e+01
6.853587e+02	-3.457808e+01
6.893173e+02	-3.462239e+01
6.932988e+02	-3.467905e+01
6.973033e+02	-3.472592e+01
7.013309e+02	-3.477670e+01
