Frequency(Hz)	Magnitude(dB)
1.000000e+01	-2.082641e+00
1.005776e+01	-2.101548e+00
1.011585e+01	-2.120715e+00
1.017428e+01	-2.140540e+00
1.023305e+01	-2.159578e+00
1.029215e+01	-2.179617e+00
1.035160e+01	-2.199176e+00
1.041139e+01	-2.219038e+00
1.047153e+01	-2.239441e+00
1.053201e+01	-2.259653e+00
1.059284e+01	-2.279961e+00
1.065403e+01	-2.300489e+00
1.071556e+01	-2.320937e+00
1.077746e+01	-2.341776e+00
1.083971e+01	-2.362655e+00
1.090232e+01	-2.383714e+00
1.096529e+01	-2.404690e+00
1.102862e+01	-2.426566e+00
1.109232e+01	-2.447711e+00
1.115639e+01	-2.469446e+00
1.122083e+01	-2.491316e+00
1.128564e+01	-2.513202e+00
1.135083e+01	-2.535066e+00
1.141639e+01	-2.557549e+00
1.148233e+01	-2.579604e+00
1.154865e+01	-2.602109e+00
1.161536e+01	-2.624727e+00
1.168245e+01	-2.647674e+00
1.174992e+01	-2.670435e+00
1.181779e+01	-2.693451e+00
1.188605e+01	-2.716700e+00
1.195470e+01	-2.740033e+00
1.202375e+01	-2.763668e+00
1.209320e+01	-2.786950e+00
1.216305e+01	-2.810951e+00
1.223330e+01	-2.834826e+00
1.230396e+01	-2.858708e+00
1.237503e+01	-2.883124e+00
1.244651e+01	-2.907397e+00
1.251840e+01	-2.931828e+00
1.259070e+01	-2.956655e+00
1.266343e+01	-2.981303e+00
1.273657e+01	-3.006055e+00
1.281014e+01	-3.031316e+00
1.288413e+01	-3.056454e+00
1.295855e+01	-3.081769e+00
1.303339e+01	-3.107414e+00
1.310867e+01	-3.132981e+00
1.318439e+01	-3.158604e+00
1.326054e+01	-3.184476e+00
1.333713e+01	-3.210676e+00
1.341417e+01	-3.236961e+00
1.349165e+01	-3.263381e+00
1.356958e+01	-3.289813e+00
1.364795e+01	-3.316126e+00
1.372678e+01	-3.343268e+00
1.380607e+01	-3.370258e+00
1.388581e+01	-3.397228e+00
1.396602e+01	-3.424427e+00
1.404668e+01	-3.451960e+00
1.412782e+01	-3.479102e+00
1.420942e+01	-3.507020e+00
1.429149e+01	-3.534558e+00
1.437404e+01	-3.562446e+00
1.445706e+01	-3.590848e+00
1.454057e+01	-3.619448e+00
1.462455e+01	-3.647355e+00
1.470902e+01	-3.675839e+00
1.479398e+01	-3.704453e+00
1.487943e+01	-3.733375e+00
1.496537e+01	-3.762042e+00
1.505181e+01	-3.791305e+00
1.513875e+01	-3.820336e+00
1.522619e+01	-3.849665e+00
1.531414e+01	-3.879049e+00
1.540259e+01	-3.908770e+00
1.549156e+01	-3.938743e+00
1.558103e+01	-3.968524e+00
1.567103e+01	-3.998454e+00
1.576155e+01	-4.028747e+00
1.585258e+01	-4.058815e+00
1.594415e+01	-4.089316e+00
1.603624e+01	-4.120023e+00
1.612886e+01	-4.150594e+00
1.622202e+01	-4.181482e+00
1.631572e+01	-4.212693e+00
1.640996e+01	-4.243703e+00
1.650474e+01	-4.274996e+00
1.660008e+01	-4.306610e+00
1.669596e+01	-4.337564e+00
1.679239e+01	-4.369756e+00
1.688938e+01	-4.401191e+00
1.698694e+01	-4.432958e+00
1.708505e+01	-4.465326e+00
1.718373e+01	-4.497352e+00
1.728299e+01	-4.529753e+00
1.738281e+01	-4.562581e+00
1.748322e+01	-4.594851e+00
1.758420e+01	-4.627727e+00
1.768576e+01	-4.660613e+00
1.778792e+01	-4.693655e+00
1.789066e+01	-4.726286e+00
1.799399e+01	-4.759795e+00
1.809793e+01	-4.793167e+00
1.820246e+01	-4.826736e+00
1.830760e+01	-4.860198e+00
1.841334e+01	-4.894310e+00
1.851969e+01	-4.927960e+00
1.862666e+01	-4.961897e+00
1.873425e+01	-4.995873e+00
1.884246e+01	-5.030330e+00
1.895129e+01	-5.064669e+00
1.906075e+01	-5.099082e+00
1.917085e+01	-5.133873e+00
1.928158e+01	-5.168452e+00
1.939295e+01	-5.203620e+00
1.950496e+01	-5.238562e+00
1.961762e+01	-5.273770e+00
1.973093e+01	-5.309285e+00
1.984490e+01	-5.344199e+00
1.995952e+01	-5.379668e+00
2.007480e+01	-5.415487e+00
2.019076e+01	-5.451178e+00
2.030738e+01	-5.486720e+00
2.042467e+01	-5.522776e+00
2.054264e+01	-5.559006e+00
2.066130e+01	-5.595003e+00
2.078064e+01	-5.630999e+00
2.090066e+01	-5.667740e+00
2.102139e+01	-5.703956e+00
2.114280e+01	-5.740786e+00
2.126492e+01	-5.777626e+00
2.138775e+01	-5.814492e+00
2.151128e+01	-5.851259e+00
2.163553e+01	-5.888382e+00
2.176050e+01	-5.925767e+00
2.188619e+01	-5.962938e+00
2.201260e+01	-6.000184e+00
2.213974e+01	-6.037609e+00
2.226762e+01	-6.075468e+00
2.239624e+01	-6.113162e+00
2.252560e+01	-6.151390e+00
2.265571e+01	-6.189014e+00
2.278656e+01	-6.227054e+00
2.291818e+01	-6.265145e+00
2.305055e+01	-6.303602e+00
2.318369e+01	-6.341795e+00
2.331760e+01	-6.380616e+00
2.345228e+01	-6.418742e+00
2.358774e+01	-6.457253e+00
2.372398e+01	-6.496327e+00
2.386101e+01	-6.534932e+00
2.399883e+01	-6.573979e+00
2.413745e+01	-6.613221e+00
2.427686e+01	-6.652056e+00
2.441709e+01	-6.691620e+00
2.455812e+01	-6.730787e+00
2.469997e+01	-6.770419e+00
2.484263e+01	-6.809842e+00
2.498612e+01	-6.849370e+00
2.513044e+01	-6.889121e+00
2.527559e+01	-6.929055e+00
2.542158e+01	-6.968806e+00
2.556842e+01	-7.008952e+00
2.571610e+01	-7.049069e+00
2.586463e+01	-7.089264e+00
2.601403e+01	-7.129592e+00
2.616428e+01	-7.170175e+00
2.631541e+01	-7.210298e+00
2.646740e+01	-7.250906e+00
2.662028e+01	-7.291586e+00
2.677404e+01	-7.332538e+00
2.692868e+01	-7.373058e+00
2.708422e+01	-7.413973e+00
2.724066e+01	-7.455349e+00
2.739800e+01	-7.495896e+00
2.755625e+01	-7.537368e+00
2.771541e+01	-7.578854e+00
2.787550e+01	-7.620164e+00
2.803650e+01	-7.661268e+00
2.819844e+01	-7.703147e+00
2.836131e+01	-7.744614e+00
2.852513e+01	-7.786289e+00
2.868989e+01	-7.827716e+00
2.885560e+01	-7.869806e+00
2.902227e+01	-7.911935e+00
2.918990e+01	-7.953064e+00
2.935850e+01	-7.995570e+00
2.952807e+01	-8.037843e+00
2.969863e+01	-8.080200e+00
2.987016e+01	-8.122515e+00
3.004269e+01	-8.164469e+00
3.021622e+01	-8.206981e+00
3.039075e+01	-8.249507e+00
3.056628e+01	-8.292157e+00
3.074283e+01	-8.334569e+00
3.092040e+01	-8.377549e+00
3.109900e+01	-8.420382e+00
3.127862e+01	-8.463014e+00
3.145929e+01	-8.506026e+00
3.164099e+01	-8.549651e+00
3.182375e+01	-8.592181e+00
3.200756e+01	-8.635286e+00
3.219244e+01	-8.678626e+00
3.237838e+01	-8.721755e+00
3.256540e+01	-8.765301e+00
3.275349e+01	-8.808354e+00
3.294268e+01	-8.852736e+00
3.313295e+01	-8.895440e+00
3.332433e+01	-8.939228e+00
3.351681e+01	-8.982912e+00
3.371040e+01	-9.026618e+00
3.390511e+01	-9.070159e+00
3.410094e+01	-9.114304e+00
3.429791e+01	-9.158060e+00
3.449601e+01	-9.201927e+00
3.469526e+01	-9.245941e+00
3.489566e+01	-9.290559e+00
3.509721e+01	-9.334697e+00
3.529993e+01	-9.378561e+00
3.550382e+01	-9.422766e+00
3.570889e+01	-9.467817e+00
3.591515e+01	-9.512103e+00
3.612259e+01	-9.555969e+00
3.633123e+01	-9.600586e+00
3.654108e+01	-9.644881e+00
3.675214e+01	-9.689450e+00
3.696442e+01	-9.734915e+00
3.717792e+01	-9.779010e+00
3.739266e+01	-9.824132e+00
3.760864e+01	-9.868987e+00
3.782587e+01	-9.913570e+00
3.804435e+01	-9.958888e+00
3.826409e+01	-1.000459e+01
3.848510e+01	-1.004875e+01
3.870739e+01	-1.009356e+01
3.893096e+01	-1.013915e+01
3.915583e+01	-1.018444e+01
3.938199e+01	-1.022951e+01
3.960946e+01	-1.027464e+01
3.983824e+01	-1.032021e+01
4.006834e+01	-1.036517e+01
4.029978e+01	-1.041081e+01
4.053255e+01	-1.045658e+01
4.076666e+01	-1.050193e+01
4.100213e+01	-1.054819e+01
4.123896e+01	-1.059354e+01
4.147715e+01	-1.063887e+01
4.171672e+01	-1.068506e+01
4.195767e+01	-1.073101e+01
4.220002e+01	-1.077637e+01
4.244377e+01	-1.082252e+01
4.268892e+01	-1.086810e+01
4.293549e+01	-1.091416e+01
4.318348e+01	-1.096032e+01
4.343291e+01	-1.100558e+01
4.368377e+01	-1.105256e+01
4.393609e+01	-1.109831e+01
4.418986e+01	-1.114419e+01
4.444510e+01	-1.119098e+01
4.470182e+01	-1.123681e+01
4.496001e+01	-1.128344e+01
4.521970e+01	-1.132968e+01
4.548089e+01	-1.137601e+01
4.574358e+01	-1.142250e+01
4.600779e+01	-1.146898e+01
4.627353e+01	-1.151573e+01
4.654081e+01	-1.156177e+01
4.680963e+01	-1.160769e+01
4.708000e+01	-1.165501e+01
4.735193e+01	-1.170176e+01
4.762543e+01	-1.174838e+01
4.790051e+01	-1.179504e+01
4.817719e+01	-1.184168e+01
4.845545e+01	-1.188813e+01
4.873533e+01	-1.193476e+01
4.901682e+01	-1.198265e+01
4.929994e+01	-1.202942e+01
4.958470e+01	-1.207617e+01
4.987110e+01	-1.212332e+01
5.015915e+01	-1.216919e+01
5.044887e+01	-1.221646e+01
5.074026e+01	-1.226326e+01
5.103333e+01	-1.231056e+01
5.132810e+01	-1.235856e+01
5.162457e+01	-1.240492e+01
5.192275e+01	-1.245198e+01
5.222265e+01	-1.249917e+01
5.252429e+01	-1.254658e+01
5.282767e+01	-1.259397e+01
5.313280e+01	-1.264076e+01
5.343969e+01	-1.268883e+01
5.374836e+01	-1.273569e+01
5.405880e+01	-1.278335e+01
5.437105e+01	-1.283056e+01
5.468509e+01	-1.287852e+01
5.500095e+01	-1.292545e+01
5.531863e+01	-1.297298e+01
5.563815e+01	-1.302024e+01
5.595951e+01	-1.306779e+01
5.628273e+01	-1.311496e+01
5.660782e+01	-1.316420e+01
5.693479e+01	-1.321109e+01
5.726364e+01	-1.325863e+01
5.759439e+01	-1.330664e+01
5.792705e+01	-1.335338e+01
5.826164e+01	-1.340160e+01
5.859815e+01	-1.344952e+01
5.893662e+01	-1.349683e+01
5.927703e+01	-1.354519e+01
5.961941e+01	-1.359262e+01
5.996377e+01	-1.364078e+01
6.031012e+01	-1.368862e+01
6.065847e+01	-1.373515e+01
6.100883e+01	-1.378417e+01
6.136121e+01	-1.383325e+01
6.171563e+01	-1.388052e+01
6.207210e+01	-1.392923e+01
6.243063e+01	-1.397605e+01
6.279122e+01	-1.402425e+01
6.315390e+01	-1.407239e+01
6.351868e+01	-1.412058e+01
6.388556e+01	-1.416886e+01
6.425456e+01	-1.421635e+01
6.462569e+01	-1.426500e+01
6.499897e+01	-1.431305e+01
6.537440e+01	-1.436132e+01
6.575200e+01	-1.440913e+01
6.613178e+01	-1.445750e+01
6.651375e+01	-1.450632e+01
6.689793e+01	-1.455521e+01
6.728433e+01	-1.460263e+01
6.767297e+01	-1.464982e+01
6.806384e+01	-1.469927e+01
6.845698e+01	-1.474703e+01
6.885238e+01	-1.479656e+01
6.925007e+01	-1.484382e+01
6.965005e+01	-1.489288e+01
7.005235e+01	-1.494058e+01
7.045697e+01	-1.498949e+01
7.086393e+01	-1.503772e+01
7.127323e+01	-1.508730e+01
7.168490e+01	-1.513488e+01
7.209895e+01	-1.518282e+01
7.251539e+01	-1.523245e+01
7.293424e+01	-1.528089e+01
7.335551e+01	-1.532808e+01
7.377920e+01	-1.537792e+01
7.420535e+01	-1.542650e+01
7.463396e+01	-1.547454e+01
7.506504e+01	-1.552384e+01
7.549861e+01	-1.557237e+01
7.593469e+01	-1.562032e+01
7.637328e+01	-1.566918e+01
7.681441e+01	-1.571779e+01
7.725809e+01	-1.576692e+01
7.770433e+01	-1.581505e+01
7.815315e+01	-1.586414e+01
7.860456e+01	-1.591340e+01
7.905857e+01	-1.596168e+01
7.951521e+01	-1.601083e+01
7.997449e+01	-1.605956e+01
8.043642e+01	-1.610781e+01
8.090102e+01	-1.615749e+01
8.136830e+01	-1.620546e+01
8.183828e+01	-1.625397e+01
8.231097e+01	-1.630321e+01
8.278640e+01	-1.635167e+01
8.326457e+01	-1.640047e+01
8.374550e+01	-1.645121e+01
8.422921e+01	-1.649960e+01
8.471572e+01	-1.654755e+01
8.520503e+01	-1.659720e+01
8.569717e+01	-1.664482e+01
8.619215e+01	-1.669544e+01
8.669000e+01	-1.674335e+01
8.719071e+01	-1.679292e+01
8.769432e+01	-1.684165e+01
8.820084e+01	-1.689068e+01
8.871029e+01	-1.693945e+01
8.922267e+01	-1.698957e+01
8.973802e+01	-1.703827e+01
9.025634e+01	-1.708570e+01
9.077766e+01	-1.713587e+01
9.130199e+01	-1.718539e+01
9.182935e+01	-1.723354e+01
9.235975e+01	-1.728253e+01
9.289321e+01	-1.733195e+01
9.342976e+01	-1.738014e+01
9.396941e+01	-1.743091e+01
9.451217e+01	-1.747867e+01
9.505807e+01	-1.752792e+01
9.560712e+01	-1.757835e+01
9.615934e+01	-1.762719e+01
9.671476e+01	-1.767569e+01
9.727338e+01	-1.772483e+01
9.783522e+01	-1.777438e+01
9.840032e+01	-1.782389e+01
9.896867e+01	-1.787315e+01
9.954031e+01	-1.792264e+01
1.001153e+02	-1.797229e+01
1.006935e+02	-1.801927e+01
1.012751e+02	-1.806961e+01
1.018601e+02	-1.811847e+01
1.024484e+02	-1.816896e+01
1.030402e+02	-1.821902e+01
1.036353e+02	-1.826649e+01
1.042339e+02	-1.831681e+01
1.048360e+02	-1.836568e+01
1.054415e+02	-1.841497e+01
1.060505e+02	-1.846467e+01
1.066631e+02	-1.851329e+01
1.072791e+02	-1.856232e+01
1.078988e+02	-1.861213e+01
1.085220e+02	-1.866082e+01
1.091488e+02	-1.870970e+01
1.097793e+02	-1.875996e+01
1.104133e+02	-1.880886e+01
1.110511e+02	-1.885917e+01
1.116925e+02	-1.890762e+01
1.123376e+02	-1.895808e+01
1.129865e+02	-1.900749e+01
1.136391e+02	-1.905590e+01
1.142955e+02	-1.910555e+01
1.149556e+02	-1.915492e+01
1.156196e+02	-1.920401e+01
1.162874e+02	-1.925480e+01
1.169591e+02	-1.930493e+01
1.176347e+02	-1.935232e+01
1.183141e+02	-1.940405e+01
1.189975e+02	-1.945270e+01
1.196848e+02	-1.950035e+01
1.203761e+02	-1.954967e+01
1.210714e+02	-1.960073e+01
1.217707e+02	-1.964969e+01
1.224740e+02	-1.969881e+01
1.231814e+02	-1.974857e+01
1.238929e+02	-1.979770e+01
1.246085e+02	-1.984829e+01
1.253283e+02	-1.989819e+01
1.260522e+02	-1.994557e+01
1.267802e+02	-1.999640e+01
1.275125e+02	-2.004534e+01
1.282490e+02	-2.009419e+01
1.289898e+02	-2.014525e+01
1.297348e+02	-2.019412e+01
1.304842e+02	-2.024661e+01
1.312378e+02	-2.029440e+01
1.319959e+02	-2.034503e+01
1.327583e+02	-2.039170e+01
1.335251e+02	-2.044420e+01
1.342963e+02	-2.049085e+01
1.350720e+02	-2.054060e+01
1.358522e+02	-2.059190e+01
1.366368e+02	-2.064121e+01
1.374260e+02	-2.068861e+01
1.382198e+02	-2.074060e+01
1.390182e+02	-2.078942e+01
1.398211e+02	-2.083955e+01
1.406287e+02	-2.089015e+01
1.414410e+02	-2.093842e+01
1.422579e+02	-2.098828e+01
1.430796e+02	-2.103838e+01
1.439060e+02	-2.108909e+01
1.447372e+02	-2.113722e+01
1.455732e+02	-2.118734e+01
1.464141e+02	-2.123637e+01
1.472597e+02	-2.128577e+01
1.481103e+02	-2.133604e+01
1.489658e+02	-2.138756e+01
1.498262e+02	-2.143299e+01
1.506916e+02	-2.148501e+01
1.515620e+02	-2.153545e+01
1.524374e+02	-2.158496e+01
1.533179e+02	-2.163517e+01
1.542034e+02	-2.168333e+01
1.550941e+02	-2.173219e+01
1.559899e+02	-2.178390e+01
1.568909e+02	-2.183300e+01
1.577971e+02	-2.188329e+01
1.587085e+02	-2.193138e+01
1.596252e+02	-2.198202e+01
1.605472e+02	-2.203077e+01
1.614745e+02	-2.208168e+01
1.624072e+02	-2.213021e+01
1.633453e+02	-2.218029e+01
1.642887e+02	-2.223211e+01
1.652377e+02	-2.228106e+01
1.661921e+02	-2.233035e+01
1.671520e+02	-2.237974e+01
1.681175e+02	-2.243078e+01
1.690885e+02	-2.248104e+01
1.700651e+02	-2.252958e+01
1.710474e+02	-2.257781e+01
1.720354e+02	-2.262772e+01
1.730291e+02	-2.267900e+01
1.740285e+02	-2.272696e+01
1.750337e+02	-2.277944e+01
1.760446e+02	-2.282856e+01
1.770615e+02	-2.287593e+01
1.780842e+02	-2.292968e+01
1.791128e+02	-2.297619e+01
1.801473e+02	-2.302719e+01
1.811878e+02	-2.307607e+01
1.822344e+02	-2.312805e+01
1.832870e+02	-2.317730e+01
1.843456e+02	-2.322770e+01
1.854104e+02	-2.327641e+01
1.864813e+02	-2.332553e+01
1.875584e+02	-2.337579e+01
1.886418e+02	-2.342684e+01
1.897313e+02	-2.347468e+01
1.908272e+02	-2.352518e+01
1.919294e+02	-2.357365e+01
1.930380e+02	-2.362369e+01
1.941530e+02	-2.367455e+01
1.952744e+02	-2.372486e+01
1.964023e+02	-2.377451e+01
1.975367e+02	-2.382366e+01
1.986777e+02	-2.387571e+01
1.998252e+02	-2.392487e+01
2.009794e+02	-2.397444e+01
2.021403e+02	-2.402507e+01
2.033078e+02	-2.407234e+01
2.044821e+02	-2.412302e+01
2.056632e+02	-2.417499e+01
2.068511e+02	-2.422550e+01
2.080459e+02	-2.427362e+01
2.092475e+02	-2.432365e+01
2.104561e+02	-2.436998e+01
2.116717e+02	-2.442133e+01
2.128943e+02	-2.447178e+01
2.141240e+02	-2.452255e+01
2.153608e+02	-2.457462e+01
2.166047e+02	-2.462380e+01
2.178558e+02	-2.467150e+01
2.191141e+02	-2.472209e+01
2.203797e+02	-2.477134e+01
2.216526e+02	-2.482233e+01
2.229329e+02	-2.487246e+01
2.242205e+02	-2.492029e+01
2.255156e+02	-2.497308e+01
2.268182e+02	-2.501940e+01
2.281283e+02	-2.507475e+01
2.294459e+02	-2.512135e+01
2.307712e+02	-2.516997e+01
2.321041e+02	-2.522180e+01
2.334447e+02	-2.526977e+01
2.347931e+02	-2.531719e+01
2.361493e+02	-2.537155e+01
2.375133e+02	-2.542131e+01
2.388851e+02	-2.547288e+01
2.402649e+02	-2.551999e+01
2.416527e+02	-2.557472e+01
2.430484e+02	-2.561926e+01
2.444523e+02	-2.566795e+01
2.458642e+02	-2.571895e+01
2.472843e+02	-2.577019e+01
2.487126e+02	-2.582019e+01
2.501492e+02	-2.586947e+01
2.515940e+02	-2.591643e+01
2.530472e+02	-2.596987e+01
2.545088e+02	-2.601769e+01
2.559789e+02	-2.607122e+01
2.574574e+02	-2.611977e+01
2.589444e+02	-2.616765e+01
2.604401e+02	-2.622184e+01
2.619444e+02	-2.626960e+01
2.634574e+02	-2.631918e+01
2.649791e+02	-2.637228e+01
2.665096e+02	-2.642209e+01
2.680489e+02	-2.647097e+01
2.695972e+02	-2.651834e+01
2.711544e+02	-2.656891e+01
2.727205e+02	-2.661604e+01
2.742958e+02	-2.666639e+01
2.758801e+02	-2.672058e+01
2.774736e+02	-2.676928e+01
2.790762e+02	-2.681992e+01
2.806882e+02	-2.686754e+01
2.823094e+02	-2.692555e+01
2.839400e+02	-2.696964e+01
2.855800e+02	-2.701976e+01
2.872295e+02	-2.706872e+01
2.888886e+02	-2.712170e+01
2.905572e+02	-2.716829e+01
2.922354e+02	-2.721986e+01
2.939234e+02	-2.726916e+01
2.956211e+02	-2.732276e+01
2.973286e+02	-2.736841e+01
2.990459e+02	-2.742002e+01
3.007732e+02	-2.747016e+01
3.025104e+02	-2.751954e+01
3.042577e+02	-2.756966e+01
3.060151e+02	-2.761489e+01
3.077826e+02	-2.767239e+01
3.095604e+02	-2.771802e+01
3.113484e+02	-2.776654e+01
3.131467e+02	-2.781900e+01
3.149554e+02	-2.787292e+01
3.167746e+02	-2.792079e+01
3.186043e+02	-2.797010e+01
3.204445e+02	-2.801887e+01
3.222954e+02	-2.807142e+01
3.241570e+02	-2.811747e+01
3.260293e+02	-2.816996e+01
3.279124e+02	-2.821553e+01
3.298064e+02	-2.827079e+01
3.317114e+02	-2.831793e+01
3.336273e+02	-2.836890e+01
3.355544e+02	-2.841715e+01
3.374925e+02	-2.847260e+01
3.394418e+02	-2.851747e+01
3.414024e+02	-2.856626e+01
3.433744e+02	-2.861922e+01
3.453577e+02	-2.866429e+01
3.473525e+02	-2.872354e+01
3.493588e+02	-2.876991e+01
3.513766e+02	-2.881983e+01
3.534062e+02	-2.886769e+01
3.554474e+02	-2.891260e+01
3.575005e+02	-2.897192e+01
3.595654e+02	-2.901815e+01
3.616422e+02	-2.906808e+01
3.637311e+02	-2.911672e+01
3.658320e+02	-2.916913e+01
3.679450e+02	-2.922155e+01
3.700702e+02	-2.927292e+01
3.722077e+02	-2.931806e+01
3.743576e+02	-2.936719e+01
3.765199e+02	-2.942103e+01
3.786946e+02	-2.946976e+01
3.808820e+02	-2.951614e+01
3.830819e+02	-2.957417e+01
3.852946e+02	-2.962268e+01
3.875200e+02	-2.967089e+01
3.897583e+02	-2.972183e+01
3.920096e+02	-2.976888e+01
3.942738e+02	-2.981933e+01
3.965511e+02	-2.987149e+01
3.988416e+02	-2.991932e+01
4.011452e+02	-2.996930e+01
4.034622e+02	-3.001443e+01
4.057926e+02	-3.006890e+01
4.081365e+02	-3.012758e+01
4.104938e+02	-3.016930e+01
4.128648e+02	-3.022213e+01
4.152495e+02	-3.027204e+01
4.176480e+02	-3.031494e+01
4.200603e+02	-3.037606e+01
4.224866e+02	-3.042105e+01
4.249268e+02	-3.047273e+01
4.273812e+02	-3.052301e+01
4.298497e+02	-3.057327e+01
4.323325e+02	-3.061872e+01
4.348297e+02	-3.067798e+01
4.373412e+02	-3.072212e+01
4.398673e+02	-3.077151e+01
4.424079e+02	-3.082638e+01
4.449633e+02	-3.086694e+01
4.475334e+02	-3.092304e+01
4.501183e+02	-3.097485e+01
4.527182e+02	-3.102545e+01
4.553330e+02	-3.107555e+01
4.579630e+02	-3.112245e+01
4.606082e+02	-3.117267e+01
4.632687e+02	-3.122887e+01
4.659445e+02	-3.127448e+01
4.686358e+02	-3.132141e+01
4.713426e+02	-3.137479e+01
4.740650e+02	-3.142918e+01
4.768032e+02	-3.147207e+01
4.795572e+02	-3.151754e+01
4.823271e+02	-3.157582e+01
4.851130e+02	-3.162581e+01
4.879150e+02	-3.167736e+01
4.907332e+02	-3.172799e+01
4.935676e+02	-3.178040e+01
4.964185e+02	-3.182472e+01
4.992858e+02	-3.187742e+01
5.021696e+02	-3.192693e+01
5.050701e+02	-3.197399e+01
5.079874e+02	-3.202741e+01
5.109215e+02	-3.208364e+01
5.138726e+02	-3.212557e+01
5.168407e+02	-3.217774e+01
5.198259e+02	-3.223166e+01
5.228284e+02	-3.227578e+01
5.258482e+02	-3.232849e+01
5.288855e+02	-3.237283e+01
5.319403e+02	-3.243504e+01
5.350128e+02	-3.247519e+01
5.381030e+02	-3.252901e+01
5.412111e+02	-3.257983e+01
5.443371e+02	-3.262602e+01
5.474812e+02	-3.267543e+01
5.506434e+02	-3.273508e+01
5.538239e+02	-3.278460e+01
5.570228e+02	-3.282762e+01
5.602401e+02	-3.287431e+01
5.634760e+02	-3.292542e+01
5.667306e+02	-3.298091e+01
5.700040e+02	-3.303091e+01
5.732964e+02	-3.307419e+01
5.766077e+02	-3.313476e+01
5.799382e+02	-3.318520e+01
5.832879e+02	-3.322949e+01
5.866569e+02	-3.329100e+01
5.900454e+02	-3.332900e+01
5.934535e+02	-3.338536e+01
5.968813e+02	-3.343937e+01
6.003288e+02	-3.348678e+01
6.037963e+02	-3.353182e+01
6.072838e+02	-3.358107e+01
6.107914e+02	-3.363502e+01
6.143194e+02	-3.369502e+01
6.178676e+02	-3.374079e+01
6.214364e+02	-3.378952e+01
6.250258e+02	-3.383861e+01
6.286359e+02	-3.388364e+01
6.322669e+02	-3.393496e+01
6.359189e+02	-3.398391e+01
6.395919e+02	-3.403687e+01
6.432862e+02	-3.408415e+01
6.470017e+02	-3.413933e+01
6.507388e+02	-3.418577e+01
6.544974e+02	-3.424159e+01
6.582778e+02	-3.429405e+01
6.620800e+02	-3.433400e+01
6.659041e+02	-3.438904e+01
6.697504e+02	-3.443445e+01
6.736188e+02	-3.448515e+01
6.775096e+02	-3.454742e+01
6.814229e+02	-3.458722e+01
6.853587e+02	-3.463836e+01
6.893173e+02	-3.468354e+01
6.932988e+02	-3.473951e+01
6.973033e+02	-3.479537e+01
7.013309e+02	-3.484388e+01
