Frequency(Hz)	Magnitude(dB)
1.000000e+01	-1.629801e-05
1.005776e+01	-1.648683e-05
1.011585e+01	-1.667783e-05
1.017428e+01	-1.687105e-05
1.023305e+01	-1.706651e-05
1.029215e+01	-1.726423e-05
1.035160e+01	-1.746424e-05
1.041139e+01	-1.766656e-05
1.047153e+01	-1.787124e-05
1.053201e+01	-1.807828e-05
1.059284e+01	-1.828772e-05
1.065403e+01	-1.849959e-05
1.071556e+01	-1.871391e-05
1.077746e+01	-1.893072e-05
1.083971e+01	-1.915003e-05
1.090232e+01	-1.937189e-05
1.096529e+01	-1.959632e-05
1.102862e+01	-1.982335e-05
1.109232e+01	-2.005301e-05
1.115639e+01	-2.028532e-05
1.122083e+01	-2.052033e-05
1.128564e+01	-2.075807e-05
1.135083e+01	-2.099856e-05
1.141639e+01	-2.124183e-05
1.148233e+01	-2.148792e-05
1.154865e+01	-2.173686e-05
1.161536e+01	-2.198869e-05
1.168245e+01	-2.224344e-05
1.174992e+01	-2.250113e-05
1.181779e+01	-2.276181e-05
1.188605e+01	-2.302551e-05
1.195470e+01	-2.329227e-05
1.202375e+01	-2.356212e-05
1.209320e+01	-2.383509e-05
1.216305e+01	-2.411123e-05
1.223330e+01	-2.439056e-05
1.230396e+01	-2.467313e-05
1.237503e+01	-2.495897e-05
1.244651e+01	-2.524813e-05
1.251840e+01	-2.554064e-05
1.259070e+01	-2.583653e-05
1.266343e+01	-2.613585e-05
1.273657e+01	-2.643864e-05
1.281014e+01	-2.674494e-05
1.288413e+01	-2.705479e-05
1.295855e+01	-2.736823e-05
1.303339e+01	-2.768529e-05
1.310867e+01	-2.800603e-05
1.318439e+01	-2.833049e-05
1.326054e+01	-2.865871e-05
1.333713e+01	-2.899072e-05
1.341417e+01	-2.932659e-05
1.349165e+01	-2.966634e-05
1.356958e+01	-3.001004e-05
1.364795e+01	-3.035771e-05
1.372678e+01	-3.070941e-05
1.380607e+01	-3.106519e-05
1.388581e+01	-3.142508e-05
1.396602e+01	-3.178915e-05
1.404668e+01	-3.215744e-05
1.412782e+01	-3.252999e-05
1.420942e+01	-3.290685e-05
1.429149e+01	-3.328809e-05
1.437404e+01	-3.367374e-05
1.445706e+01	-3.406386e-05
1.454057e+01	-3.445849e-05
1.462455e+01	-3.485770e-05
1.470902e+01	-3.526154e-05
1.479398e+01	-3.567005e-05
1.487943e+01	-3.608330e-05
1.496537e+01	-3.650133e-05
1.505181e+01	-3.692421e-05
1.513875e+01	-3.735198e-05
1.522619e+01	-3.778471e-05
1.531414e+01	-3.822246e-05
1.540259e+01	-3.866528e-05
1.549156e+01	-3.911322e-05
1.558103e+01	-3.956636e-05
1.567103e+01	-4.002474e-05
1.576155e+01	-4.048844e-05
1.585258e+01	-4.095751e-05
1.594415e+01	-4.143201e-05
1.603624e+01	-4.191201e-05
1.612886e+01	-4.239757e-05
1.622202e+01	-4.288875e-05
1.631572e+01	-4.338563e-05
1.640996e+01	-4.388826e-05
1.650474e+01	-4.439671e-05
1.660008e+01	-4.491106e-05
1.669596e+01	-4.543136e-05
1.679239e+01	-4.595770e-05
1.688938e+01	-4.649013e-05
1.698694e+01	-4.702873e-05
1.708505e+01	-4.757356e-05
1.718373e+01	-4.812471e-05
1.728299e+01	-4.868225e-05
1.738281e+01	-4.924624e-05
1.748322e+01	-4.981677e-05
1.758420e+01	-5.039391e-05
1.768576e+01	-5.097773e-05
1.778792e+01	-5.156832e-05
1.789066e+01	-5.216575e-05
1.799399e+01	-5.277010e-05
1.809793e+01	-5.338145e-05
1.820246e+01	-5.399989e-05
1.830760e+01	-5.462549e-05
1.841334e+01	-5.525834e-05
1.851969e+01	-5.589852e-05
1.862666e+01	-5.654611e-05
1.873425e+01	-5.720121e-05
1.884246e+01	-5.786390e-05
1.895129e+01	-5.853426e-05
1.906075e+01	-5.921239e-05
1.917085e+01	-5.989838e-05
1.928158e+01	-6.059232e-05
1.939295e+01	-6.129429e-05
1.950496e+01	-6.200440e-05
1.961762e+01	-6.272273e-05
1.973093e+01	-6.344938e-05
1.984490e+01	-6.418446e-05
1.995952e+01	-6.492805e-05
2.007480e+01	-6.568025e-05
2.019076e+01	-6.644117e-05
2.030738e+01	-6.721090e-05
2.042467e+01	-6.798955e-05
2.054264e+01	-6.877723e-05
2.066130e+01	-6.957402e-05
2.078064e+01	-7.038005e-05
2.090066e+01	-7.119542e-05
2.102139e+01	-7.202023e-05
2.114280e+01	-7.285460e-05
2.126492e+01	-7.369863e-05
2.138775e+01	-7.455244e-05
2.151128e+01	-7.541615e-05
2.163553e+01	-7.628985e-05
2.176050e+01	-7.717369e-05
2.188619e+01	-7.806776e-05
2.201260e+01	-7.897219e-05
2.213974e+01	-7.988709e-05
2.226762e+01	-8.081260e-05
2.239624e+01	-8.174882e-05
2.252560e+01	-8.269590e-05
2.265571e+01	-8.365394e-05
2.278656e+01	-8.462309e-05
2.291818e+01	-8.560346e-05
2.305055e+01	-8.659519e-05
2.318369e+01	-8.759841e-05
2.331760e+01	-8.861325e-05
2.345228e+01	-8.963985e-05
2.358774e+01	-9.067834e-05
2.372398e+01	-9.172887e-05
2.386101e+01	-9.279156e-05
2.399883e+01	-9.386656e-05
2.413745e+01	-9.495402e-05
2.427686e+01	-9.605408e-05
2.441709e+01	-9.716688e-05
2.455812e+01	-9.829257e-05
2.469997e+01	-9.943131e-05
2.484263e+01	-1.005832e-04
2.498612e+01	-1.017485e-04
2.513044e+01	-1.029273e-04
2.527559e+01	-1.041197e-04
2.542158e+01	-1.053259e-04
2.556842e+01	-1.065462e-04
2.571610e+01	-1.077805e-04
2.586463e+01	-1.090292e-04
2.601403e+01	-1.102923e-04
2.616428e+01	-1.115700e-04
2.631541e+01	-1.128626e-04
2.646740e+01	-1.141701e-04
2.662028e+01	-1.154928e-04
2.677404e+01	-1.168308e-04
2.692868e+01	-1.181843e-04
2.708422e+01	-1.195535e-04
2.724066e+01	-1.209385e-04
2.739800e+01	-1.223396e-04
2.755625e+01	-1.237569e-04
2.771541e+01	-1.251906e-04
2.787550e+01	-1.266410e-04
2.803650e+01	-1.281081e-04
2.819844e+01	-1.295923e-04
2.836131e+01	-1.310936e-04
2.852513e+01	-1.326124e-04
2.868989e+01	-1.341487e-04
2.885560e+01	-1.357028e-04
2.902227e+01	-1.372749e-04
2.918990e+01	-1.388653e-04
2.935850e+01	-1.404741e-04
2.952807e+01	-1.421015e-04
2.969863e+01	-1.437477e-04
2.987016e+01	-1.454130e-04
3.004269e+01	-1.470977e-04
3.021622e+01	-1.488018e-04
3.039075e+01	-1.505257e-04
3.056628e+01	-1.522695e-04
3.074283e+01	-1.540336e-04
3.092040e+01	-1.558181e-04
3.109900e+01	-1.576232e-04
3.127862e+01	-1.594493e-04
3.145929e+01	-1.612966e-04
3.164099e+01	-1.631652e-04
3.182375e+01	-1.650555e-04
3.200756e+01	-1.669676e-04
3.219244e+01	-1.689020e-04
3.237838e+01	-1.708587e-04
3.256540e+01	-1.728381e-04
3.275349e+01	-1.748405e-04
3.294268e+01	-1.768660e-04
3.313295e+01	-1.789150e-04
3.332433e+01	-1.809877e-04
3.351681e+01	-1.830845e-04
3.371040e+01	-1.852055e-04
3.390511e+01	-1.873511e-04
3.410094e+01	-1.895216e-04
3.429791e+01	-1.917172e-04
3.449601e+01	-1.939382e-04
3.469526e+01	-1.961850e-04
3.489566e+01	-1.984578e-04
3.509721e+01	-2.007570e-04
3.529993e+01	-2.030827e-04
3.550382e+01	-2.054355e-04
3.570889e+01	-2.078154e-04
3.591515e+01	-2.102230e-04
3.612259e+01	-2.126584e-04
3.633123e+01	-2.151220e-04
3.654108e+01	-2.176142e-04
3.675214e+01	-2.201353e-04
3.696442e+01	-2.226856e-04
3.717792e+01	-2.252654e-04
3.739266e+01	-2.278751e-04
3.760864e+01	-2.305150e-04
3.782587e+01	-2.331855e-04
3.804435e+01	-2.358869e-04
3.826409e+01	-2.386197e-04
3.848510e+01	-2.413841e-04
3.870739e+01	-2.441805e-04
3.893096e+01	-2.470093e-04
3.915583e+01	-2.498709e-04
3.938199e+01	-2.527656e-04
3.960946e+01	-2.556939e-04
3.983824e+01	-2.586561e-04
4.006834e+01	-2.616526e-04
4.029978e+01	-2.646839e-04
4.053255e+01	-2.677502e-04
4.076666e+01	-2.708521e-04
4.100213e+01	-2.739899e-04
4.123896e+01	-2.771640e-04
4.147715e+01	-2.803749e-04
4.171672e+01	-2.836230e-04
4.195767e+01	-2.869088e-04
4.220002e+01	-2.902326e-04
4.244377e+01	-2.935949e-04
4.268892e+01	-2.969962e-04
4.293549e+01	-3.004368e-04
4.318348e+01	-3.039173e-04
4.343291e+01	-3.074382e-04
4.368377e+01	-3.109998e-04
4.393609e+01	-3.146027e-04
4.418986e+01	-3.182473e-04
4.444510e+01	-3.219342e-04
4.470182e+01	-3.256637e-04
4.496001e+01	-3.294365e-04
4.521970e+01	-3.332530e-04
4.548089e+01	-3.371136e-04
4.574358e+01	-3.410190e-04
4.600779e+01	-3.449697e-04
4.627353e+01	-3.489661e-04
4.654081e+01	-3.530088e-04
4.680963e+01	-3.570983e-04
4.708000e+01	-3.612352e-04
4.735193e+01	-3.654201e-04
4.762543e+01	-3.696534e-04
4.790051e+01	-3.739357e-04
4.817719e+01	-3.782677e-04
4.845545e+01	-3.826499e-04
4.873533e+01	-3.870828e-04
4.901682e+01	-3.915670e-04
4.929994e+01	-3.961032e-04
4.958470e+01	-4.006920e-04
4.987110e+01	-4.053339e-04
5.015915e+01	-4.100296e-04
5.044887e+01	-4.147797e-04
5.074026e+01	-4.195848e-04
5.103333e+01	-4.244455e-04
5.132810e+01	-4.293626e-04
5.162457e+01	-4.343366e-04
5.192275e+01	-4.393683e-04
5.222265e+01	-4.444582e-04
5.252429e+01	-4.496071e-04
5.282767e+01	-4.548157e-04
5.313280e+01	-4.600846e-04
5.343969e+01	-4.654145e-04
5.374836e+01	-4.708062e-04
5.405880e+01	-4.762603e-04
5.437105e+01	-4.817776e-04
5.468509e+01	-4.873588e-04
5.500095e+01	-4.930047e-04
5.531863e+01	-4.987159e-04
5.563815e+01	-5.044934e-04
5.595951e+01	-5.103377e-04
5.628273e+01	-5.162498e-04
5.660782e+01	-5.222303e-04
5.693479e+01	-5.282801e-04
5.726364e+01	-5.344000e-04
5.759439e+01	-5.405908e-04
5.792705e+01	-5.468533e-04
5.826164e+01	-5.531883e-04
5.859815e+01	-5.595968e-04
5.893662e+01	-5.660794e-04
5.927703e+01	-5.726372e-04
5.961941e+01	-5.792709e-04
5.996377e+01	-5.859814e-04
6.031012e+01	-5.927697e-04
6.065847e+01	-5.996367e-04
6.100883e+01	-6.065831e-04
6.136121e+01	-6.136101e-04
6.171563e+01	-6.207184e-04
6.207210e+01	-6.279091e-04
6.243063e+01	-6.351831e-04
6.279122e+01	-6.425413e-04
6.315390e+01	-6.499847e-04
6.351868e+01	-6.575144e-04
6.388556e+01	-6.651313e-04
6.425456e+01	-6.728365e-04
6.462569e+01	-6.806308e-04
6.499897e+01	-6.885155e-04
6.537440e+01	-6.964915e-04
6.575200e+01	-7.045599e-04
6.613178e+01	-7.127218e-04
6.651375e+01	-7.209781e-04
6.689793e+01	-7.293302e-04
6.728433e+01	-7.377789e-04
6.767297e+01	-7.463256e-04
6.806384e+01	-7.549712e-04
6.845698e+01	-7.637170e-04
6.885238e+01	-7.725641e-04
6.925007e+01	-7.815136e-04
6.965005e+01	-7.905669e-04
7.005235e+01	-7.997250e-04
7.045697e+01	-8.089891e-04
7.086393e+01	-8.183606e-04
7.127323e+01	-8.278406e-04
7.168490e+01	-8.374305e-04
7.209895e+01	-8.471314e-04
7.251539e+01	-8.569447e-04
7.293424e+01	-8.668716e-04
7.335551e+01	-8.769135e-04
7.377920e+01	-8.870718e-04
7.420535e+01	-8.973477e-04
7.463396e+01	-9.077426e-04
7.506504e+01	-9.182580e-04
7.549861e+01	-9.288951e-04
7.593469e+01	-9.396554e-04
7.637328e+01	-9.505404e-04
7.681441e+01	-9.615515e-04
7.725809e+01	-9.726900e-04
7.770433e+01	-9.839576e-04
7.815315e+01	-9.953558e-04
7.860456e+01	-1.006886e-03
7.905857e+01	-1.018550e-03
7.951521e+01	-1.030348e-03
7.997449e+01	-1.042284e-03
8.043642e+01	-1.054357e-03
8.090102e+01	-1.066571e-03
8.136830e+01	-1.078926e-03
8.183828e+01	-1.091424e-03
8.231097e+01	-1.104067e-03
8.278640e+01	-1.116856e-03
8.326457e+01	-1.129794e-03
8.374550e+01	-1.142881e-03
8.422921e+01	-1.156120e-03
8.471572e+01	-1.169512e-03
8.520503e+01	-1.183059e-03
8.569717e+01	-1.196763e-03
8.619215e+01	-1.210626e-03
8.669000e+01	-1.224650e-03
8.719071e+01	-1.238835e-03
8.769432e+01	-1.253186e-03
8.820084e+01	-1.267702e-03
8.871029e+01	-1.282386e-03
8.922267e+01	-1.297241e-03
8.973802e+01	-1.312268e-03
9.025634e+01	-1.327468e-03
9.077766e+01	-1.342845e-03
9.130199e+01	-1.358400e-03
9.182935e+01	-1.374135e-03
9.235975e+01	-1.390052e-03
9.289321e+01	-1.406153e-03
9.342976e+01	-1.422441e-03
9.396941e+01	-1.438918e-03
9.451217e+01	-1.455585e-03
9.505807e+01	-1.472446e-03
9.560712e+01	-1.489502e-03
9.615934e+01	-1.506755e-03
9.671476e+01	-1.524208e-03
9.727338e+01	-1.541863e-03
9.783522e+01	-1.559723e-03
9.840032e+01	-1.577790e-03
9.896867e+01	-1.596065e-03
9.954031e+01	-1.614553e-03
1.001153e+02	-1.633254e-03
1.006935e+02	-1.652172e-03
1.012751e+02	-1.671310e-03
1.018601e+02	-1.690668e-03
1.024484e+02	-1.710251e-03
1.030402e+02	-1.730061e-03
1.036353e+02	-1.750100e-03
1.042339e+02	-1.770371e-03
1.048360e+02	-1.790877e-03
1.054415e+02	-1.811621e-03
1.060505e+02	-1.832605e-03
1.066631e+02	-1.853831e-03
1.072791e+02	-1.875304e-03
1.078988e+02	-1.897025e-03
1.085220e+02	-1.918998e-03
1.091488e+02	-1.941225e-03
1.097793e+02	-1.963709e-03
1.104133e+02	-1.986454e-03
1.110511e+02	-2.009462e-03
1.116925e+02	-2.032737e-03
1.123376e+02	-2.056281e-03
1.129865e+02	-2.080098e-03
1.136391e+02	-2.104191e-03
1.142955e+02	-2.128562e-03
1.149556e+02	-2.153216e-03
1.156196e+02	-2.178156e-03
1.162874e+02	-2.203384e-03
1.169591e+02	-2.228904e-03
1.176347e+02	-2.254720e-03
1.183141e+02	-2.280834e-03
1.189975e+02	-2.307251e-03
1.196848e+02	-2.333974e-03
1.203761e+02	-2.361007e-03
1.210714e+02	-2.388352e-03
1.217707e+02	-2.416014e-03
1.224740e+02	-2.443996e-03
1.231814e+02	-2.472303e-03
1.238929e+02	-2.500937e-03
1.246085e+02	-2.529902e-03
1.253283e+02	-2.559203e-03
1.260522e+02	-2.588843e-03
1.267802e+02	-2.618827e-03
1.275125e+02	-2.649157e-03
1.282490e+02	-2.679839e-03
1.289898e+02	-2.710876e-03
1.297348e+02	-2.742272e-03
1.304842e+02	-2.774032e-03
1.312378e+02	-2.806159e-03
1.319959e+02	-2.838659e-03
1.327583e+02	-2.871535e-03
1.335251e+02	-2.904791e-03
1.342963e+02	-2.938432e-03
1.350720e+02	-2.972463e-03
1.358522e+02	-3.006888e-03
1.366368e+02	-3.041711e-03
1.374260e+02	-3.076938e-03
1.382198e+02	-3.112572e-03
1.390182e+02	-3.148619e-03
1.398211e+02	-3.185083e-03
1.406287e+02	-3.221970e-03
1.414410e+02	-3.259283e-03
1.422579e+02	-3.297028e-03
1.430796e+02	-3.335211e-03
1.439060e+02	-3.373835e-03
1.447372e+02	-3.412906e-03
1.455732e+02	-3.452430e-03
1.464141e+02	-3.492411e-03
1.472597e+02	-3.532855e-03
1.481103e+02	-3.573767e-03
1.489658e+02	-3.615153e-03
1.498262e+02	-3.657018e-03
1.506916e+02	-3.699367e-03
1.515620e+02	-3.742207e-03
1.524374e+02	-3.785542e-03
1.533179e+02	-3.829379e-03
1.542034e+02	-3.873724e-03
1.550941e+02	-3.918582e-03
1.559899e+02	-3.963959e-03
1.568909e+02	-4.009861e-03
1.577971e+02	-4.056295e-03
1.587085e+02	-4.103266e-03
1.596252e+02	-4.150780e-03
1.605472e+02	-4.198845e-03
1.614745e+02	-4.247466e-03
1.624072e+02	-4.296649e-03
1.633453e+02	-4.346402e-03
1.642887e+02	-4.396731e-03
1.652377e+02	-4.447642e-03
1.661921e+02	-4.499142e-03
1.671520e+02	-4.551239e-03
1.681175e+02	-4.603938e-03
1.690885e+02	-4.657247e-03
1.700651e+02	-4.711173e-03
1.710474e+02	-4.765723e-03
1.720354e+02	-4.820905e-03
1.730291e+02	-4.876725e-03
1.740285e+02	-4.933191e-03
1.750337e+02	-4.990310e-03
1.760446e+02	-5.048090e-03
1.770615e+02	-5.106539e-03
1.780842e+02	-5.165665e-03
1.791128e+02	-5.225474e-03
1.801473e+02	-5.285976e-03
1.811878e+02	-5.347177e-03
1.822344e+02	-5.409087e-03
1.832870e+02	-5.471713e-03
1.843456e+02	-5.535064e-03
1.854104e+02	-5.599147e-03
1.864813e+02	-5.663973e-03
1.875584e+02	-5.729548e-03
1.886418e+02	-5.795882e-03
1.897313e+02	-5.862983e-03
1.908272e+02	-5.930861e-03
1.919294e+02	-5.999524e-03
1.930380e+02	-6.068981e-03
1.941530e+02	-6.139242e-03
1.952744e+02	-6.210315e-03
1.964023e+02	-6.282211e-03
1.975367e+02	-6.354939e-03
1.986777e+02	-6.428508e-03
1.998252e+02	-6.502928e-03
2.009794e+02	-6.578209e-03
2.021403e+02	-6.654361e-03
2.033078e+02	-6.731393e-03
2.044821e+02	-6.809317e-03
2.056632e+02	-6.888142e-03
2.068511e+02	-6.967878e-03
2.080459e+02	-7.048537e-03
2.092475e+02	-7.130129e-03
2.104561e+02	-7.212665e-03
2.116717e+02	-7.296155e-03
2.128943e+02	-7.380611e-03
2.141240e+02	-7.466043e-03
2.153608e+02	-7.552464e-03
2.166047e+02	-7.639884e-03
2.178558e+02	-7.728315e-03
2.191141e+02	-7.817768e-03
2.203797e+02	-7.908257e-03
2.216526e+02	-7.999791e-03
2.229329e+02	-8.092384e-03
2.242205e+02	-8.186048e-03
2.255156e+02	-8.280795e-03
2.268182e+02	-8.376637e-03
2.281283e+02	-8.473587e-03
2.294459e+02	-8.571659e-03
2.307712e+02	-8.670864e-03
2.321041e+02	-8.771217e-03
2.334447e+02	-8.872729e-03
2.347931e+02	-8.975416e-03
2.361493e+02	-9.079289e-03
2.375133e+02	-9.184363e-03
2.388851e+02	-9.290652e-03
2.402649e+02	-9.398170e-03
2.416527e+02	-9.506931e-03
2.430484e+02	-9.616949e-03
2.444523e+02	-9.728238e-03
2.458642e+02	-9.840814e-03
2.472843e+02	-9.954691e-03
2.487126e+02	-1.006988e-02
2.501492e+02	-1.018641e-02
2.515940e+02	-1.030428e-02
2.530472e+02	-1.042352e-02
2.545088e+02	-1.054413e-02
2.559789e+02	-1.066613e-02
2.574574e+02	-1.078955e-02
2.589444e+02	-1.091439e-02
2.604401e+02	-1.104068e-02
2.619444e+02	-1.116842e-02
2.634574e+02	-1.129764e-02
2.649791e+02	-1.142835e-02
2.665096e+02	-1.156058e-02
2.680489e+02	-1.169433e-02
2.695972e+02	-1.182962e-02
2.711544e+02	-1.196648e-02
2.727205e+02	-1.210493e-02
2.742958e+02	-1.224497e-02
2.758801e+02	-1.238662e-02
2.774736e+02	-1.252992e-02
2.790762e+02	-1.267487e-02
2.806882e+02	-1.282149e-02
2.823094e+02	-1.296981e-02
2.839400e+02	-1.311984e-02
2.855800e+02	-1.327160e-02
2.872295e+02	-1.342512e-02
2.888886e+02	-1.358041e-02
2.905572e+02	-1.373749e-02
2.922354e+02	-1.389639e-02
2.939234e+02	-1.405712e-02
2.956211e+02	-1.421971e-02
2.973286e+02	-1.438417e-02
2.990459e+02	-1.455054e-02
3.007732e+02	-1.471882e-02
3.025104e+02	-1.488905e-02
3.042577e+02	-1.506124e-02
3.060151e+02	-1.523543e-02
3.077826e+02	-1.541162e-02
3.095604e+02	-1.558984e-02
3.113484e+02	-1.577013e-02
3.131467e+02	-1.595249e-02
3.149554e+02	-1.613696e-02
3.167746e+02	-1.632356e-02
3.186043e+02	-1.651231e-02
3.204445e+02	-1.670324e-02
3.222954e+02	-1.689637e-02
3.241570e+02	-1.709173e-02
3.260293e+02	-1.728935e-02
3.279124e+02	-1.748925e-02
3.298064e+02	-1.769145e-02
3.317114e+02	-1.789599e-02
3.336273e+02	-1.810288e-02
3.355544e+02	-1.831217e-02
3.374925e+02	-1.852386e-02
3.394418e+02	-1.873800e-02
3.414024e+02	-1.895461e-02
3.433744e+02	-1.917372e-02
3.453577e+02	-1.939535e-02
3.473525e+02	-1.961954e-02
3.493588e+02	-1.984632e-02
3.513766e+02	-2.007571e-02
3.534062e+02	-2.030775e-02
3.554474e+02	-2.054246e-02
3.575005e+02	-2.077988e-02
3.595654e+02	-2.102003e-02
3.616422e+02	-2.126296e-02
3.637311e+02	-2.150868e-02
3.658320e+02	-2.175724e-02
3.679450e+02	-2.200866e-02
3.700702e+02	-2.226298e-02
3.722077e+02	-2.252023e-02
3.743576e+02	-2.278045e-02
3.765199e+02	-2.304366e-02
3.786946e+02	-2.330991e-02
3.808820e+02	-2.357923e-02
3.830819e+02	-2.385165e-02
3.852946e+02	-2.412720e-02
3.875200e+02	-2.440594e-02
3.897583e+02	-2.468788e-02
3.920096e+02	-2.497307e-02
3.942738e+02	-2.526154e-02
3.965511e+02	-2.555334e-02
3.988416e+02	-2.584850e-02
4.011452e+02	-2.614706e-02
4.034622e+02	-2.644905e-02
4.057926e+02	-2.675452e-02
4.081365e+02	-2.706351e-02
4.104938e+02	-2.737606e-02
4.128648e+02	-2.769220e-02
4.152495e+02	-2.801199e-02
4.176480e+02	-2.833545e-02
4.200603e+02	-2.866264e-02
4.224866e+02	-2.899359e-02
4.249268e+02	-2.932835e-02
4.273812e+02	-2.966696e-02
4.298497e+02	-3.000947e-02
4.323325e+02	-3.035592e-02
4.348297e+02	-3.070635e-02
4.373412e+02	-3.106082e-02
4.398673e+02	-3.141936e-02
4.424079e+02	-3.178202e-02
4.449633e+02	-3.214886e-02
4.475334e+02	-3.251991e-02
4.501183e+02	-3.289523e-02
4.527182e+02	-3.327487e-02
4.553330e+02	-3.365887e-02
4.579630e+02	-3.404728e-02
4.606082e+02	-3.444016e-02
4.632687e+02	-3.483755e-02
4.659445e+02	-3.523951e-02
4.686358e+02	-3.564609e-02
4.713426e+02	-3.605734e-02
4.740650e+02	-3.647332e-02
4.768032e+02	-3.689407e-02
4.795572e+02	-3.731965e-02
4.823271e+02	-3.775013e-02
4.851130e+02	-3.818554e-02
4.879150e+02	-3.862596e-02
4.907332e+02	-3.907143e-02
4.935676e+02	-3.952202e-02
4.964185e+02	-3.997778e-02
4.992858e+02	-4.043877e-02
5.021696e+02	-4.090505e-02
5.050701e+02	-4.137669e-02
5.079874e+02	-4.185373e-02
5.109215e+02	-4.233625e-02
5.138726e+02	-4.282430e-02
5.168407e+02	-4.331795e-02
5.198259e+02	-4.381726e-02
5.228284e+02	-4.432230e-02
5.258482e+02	-4.483313e-02
5.288855e+02	-4.534982e-02
5.319403e+02	-4.587242e-02
5.350128e+02	-4.640102e-02
5.381030e+02	-4.693568e-02
5.412111e+02	-4.747646e-02
5.443371e+02	-4.802344e-02
5.474812e+02	-4.857669e-02
5.506434e+02	-4.913627e-02
5.538239e+02	-4.970226e-02
5.570228e+02	-5.027474e-02
5.602401e+02	-5.085377e-02
5.634760e+02	-5.143943e-02
5.667306e+02	-5.203179e-02
5.700040e+02	-5.263093e-02
5.732964e+02	-5.323693e-02
5.766077e+02	-5.384987e-02
5.799382e+02	-5.446981e-02
5.832879e+02	-5.509685e-02
5.866569e+02	-5.573106e-02
5.900454e+02	-5.637252e-02
5.934535e+02	-5.702132e-02
5.968813e+02	-5.767753e-02
6.003288e+02	-5.834125e-02
6.037963e+02	-5.901255e-02
6.072838e+02	-5.969152e-02
6.107914e+02	-6.037825e-02
6.143194e+02	-6.107282e-02
6.178676e+02	-6.177533e-02
6.214364e+02	-6.248586e-02
6.250258e+02	-6.320450e-02
6.286359e+02	-6.393134e-02
6.322669e+02	-6.466648e-02
6.359189e+02	-6.541002e-02
6.395919e+02	-6.616203e-02
6.432862e+02	-6.692263e-02
6.470017e+02	-6.769190e-02
6.507388e+02	-6.846994e-02
6.544974e+02	-6.925685e-02
6.582778e+02	-7.005273e-02
6.620800e+02	-7.085769e-02
6.659041e+02	-7.167182e-02
6.697504e+02	-7.249522e-02
6.736188e+02	-7.332801e-02
6.775096e+02	-7.417027e-02
6.814229e+02	-7.502213e-02
6.853587e+02	-7.588369e-02
6.893173e+02	-7.675505e-02
6.932988e+02	-7.763633e-02
6.973033e+02	-7.852764e-02
7.013309e+02	-7.942908e-02
