Frequency(Hz)	Magnitude(dB)
1.000000e+01	-2.255245e+00
1.005776e+01	-2.275664e+00
1.011585e+01	-2.295918e+00
1.017428e+01	-2.316703e+00
1.023305e+01	-2.337398e+00
1.029215e+01	-2.358303e+00
1.035160e+01	-2.379271e+00
1.041139e+01	-2.400412e+00
1.047153e+01	-2.421844e+00
1.053201e+01	-2.443207e+00
1.059284e+01	-2.464937e+00
1.065403e+01	-2.486712e+00
1.071556e+01	-2.508475e+00
1.077746e+01	-2.530684e+00
1.083971e+01	-2.552777e+00
1.090232e+01	-2.574848e+00
1.096529e+01	-2.597284e+00
1.102862e+01	-2.619830e+00
1.109232e+01	-2.642667e+00
1.115639e+01	-2.665787e+00
1.122083e+01	-2.688738e+00
1.128564e+01	-2.711947e+00
1.135083e+01	-2.735332e+00
1.141639e+01	-2.758437e+00
1.148233e+01	-2.782184e+00
1.154865e+01	-2.806009e+00
1.161536e+01	-2.829781e+00
1.168245e+01	-2.853738e+00
1.174992e+01	-2.878126e+00
1.181779e+01	-2.902318e+00
1.188605e+01	-2.926851e+00
1.195470e+01	-2.951330e+00
1.202375e+01	-2.976049e+00
1.209320e+01	-3.000909e+00
1.216305e+01	-3.025714e+00
1.223330e+01	-3.051273e+00
1.230396e+01	-3.076368e+00
1.237503e+01	-3.101884e+00
1.244651e+01	-3.127333e+00
1.251840e+01	-3.153172e+00
1.259070e+01	-3.178886e+00
1.266343e+01	-3.205120e+00
1.273657e+01	-3.231470e+00
1.281014e+01	-3.257803e+00
1.288413e+01	-3.284193e+00
1.295855e+01	-3.310863e+00
1.303339e+01	-3.337440e+00
1.310867e+01	-3.364361e+00
1.318439e+01	-3.391464e+00
1.326054e+01	-3.418891e+00
1.333713e+01	-3.445811e+00
1.341417e+01	-3.473320e+00
1.349165e+01	-3.501036e+00
1.356958e+01	-3.528590e+00
1.364795e+01	-3.556797e+00
1.372678e+01	-3.584959e+00
1.380607e+01	-3.612924e+00
1.388581e+01	-3.641363e+00
1.396602e+01	-3.669831e+00
1.404668e+01	-3.698702e+00
1.412782e+01	-3.727080e+00
1.420942e+01	-3.755978e+00
1.429149e+01	-3.784871e+00
1.437404e+01	-3.814320e+00
1.445706e+01	-3.843405e+00
1.454057e+01	-3.873055e+00
1.462455e+01	-3.902551e+00
1.470902e+01	-3.932178e+00
1.479398e+01	-3.961949e+00
1.487943e+01	-3.992247e+00
1.496537e+01	-4.022307e+00
1.505181e+01	-4.052804e+00
1.513875e+01	-4.083012e+00
1.522619e+01	-4.113535e+00
1.531414e+01	-4.144485e+00
1.540259e+01	-4.175080e+00
1.549156e+01	-4.205839e+00
1.558103e+01	-4.237019e+00
1.567103e+01	-4.268229e+00
1.576155e+01	-4.299476e+00
1.585258e+01	-4.331381e+00
1.594415e+01	-4.362758e+00
1.603624e+01	-4.394465e+00
1.612886e+01	-4.426713e+00
1.622202e+01	-4.458519e+00
1.631572e+01	-4.490836e+00
1.640996e+01	-4.523114e+00
1.650474e+01	-4.555585e+00
1.660008e+01	-4.587827e+00
1.669596e+01	-4.620904e+00
1.679239e+01	-4.653353e+00
1.688938e+01	-4.686610e+00
1.698694e+01	-4.719959e+00
1.708505e+01	-4.752992e+00
1.718373e+01	-4.786230e+00
1.728299e+01	-4.819470e+00
1.738281e+01	-4.853095e+00
1.748322e+01	-4.887037e+00
1.758420e+01	-4.921194e+00
1.768576e+01	-4.954893e+00
1.778792e+01	-4.988921e+00
1.789066e+01	-5.022944e+00
1.799399e+01	-5.057400e+00
1.809793e+01	-5.091897e+00
1.820246e+01	-5.126347e+00
1.830760e+01	-5.161389e+00
1.841334e+01	-5.196099e+00
1.851969e+01	-5.231028e+00
1.862666e+01	-5.266295e+00
1.873425e+01	-5.301337e+00
1.884246e+01	-5.336269e+00
1.895129e+01	-5.372179e+00
1.906075e+01	-5.407650e+00
1.917085e+01	-5.443608e+00
1.928158e+01	-5.479092e+00
1.939295e+01	-5.514834e+00
1.950496e+01	-5.551064e+00
1.961762e+01	-5.587267e+00
1.973093e+01	-5.623515e+00
1.984490e+01	-5.660242e+00
1.995952e+01	-5.696710e+00
2.007480e+01	-5.732804e+00
2.019076e+01	-5.769674e+00
2.030738e+01	-5.806525e+00
2.042467e+01	-5.843580e+00
2.054264e+01	-5.880625e+00
2.066130e+01	-5.917621e+00
2.078064e+01	-5.955103e+00
2.090066e+01	-5.992673e+00
2.102139e+01	-6.029525e+00
2.114280e+01	-6.067907e+00
2.126492e+01	-6.105293e+00
2.138775e+01	-6.143035e+00
2.151128e+01	-6.180897e+00
2.163553e+01	-6.219061e+00
2.176050e+01	-6.257070e+00
2.188619e+01	-6.295484e+00
2.201260e+01	-6.333536e+00
2.213974e+01	-6.372009e+00
2.226762e+01	-6.410626e+00
2.239624e+01	-6.449075e+00
2.252560e+01	-6.487908e+00
2.265571e+01	-6.526942e+00
2.278656e+01	-6.565707e+00
2.291818e+01	-6.605177e+00
2.305055e+01	-6.644379e+00
2.318369e+01	-6.683135e+00
2.331760e+01	-6.722804e+00
2.345228e+01	-6.762376e+00
2.358774e+01	-6.801849e+00
2.372398e+01	-6.841473e+00
2.386101e+01	-6.881276e+00
2.399883e+01	-6.920800e+00
2.413745e+01	-6.960443e+00
2.427686e+01	-7.000954e+00
2.441709e+01	-7.040894e+00
2.455812e+01	-7.080667e+00
2.469997e+01	-7.121026e+00
2.484263e+01	-7.161338e+00
2.498612e+01	-7.202289e+00
2.513044e+01	-7.242333e+00
2.527559e+01	-7.283180e+00
2.542158e+01	-7.323778e+00
2.556842e+01	-7.365057e+00
2.571610e+01	-7.405453e+00
2.586463e+01	-7.446297e+00
2.601403e+01	-7.487741e+00
2.616428e+01	-7.528936e+00
2.631541e+01	-7.569962e+00
2.646740e+01	-7.611435e+00
2.662028e+01	-7.652825e+00
2.677404e+01	-7.693897e+00
2.692868e+01	-7.735498e+00
2.708422e+01	-7.777451e+00
2.724066e+01	-7.819173e+00
2.739800e+01	-7.861038e+00
2.755625e+01	-7.902913e+00
2.771541e+01	-7.944855e+00
2.787550e+01	-7.986706e+00
2.803650e+01	-8.028997e+00
2.819844e+01	-8.070941e+00
2.836131e+01	-8.113007e+00
2.852513e+01	-8.155607e+00
2.868989e+01	-8.198312e+00
2.885560e+01	-8.240593e+00
2.902227e+01	-8.283221e+00
2.918990e+01	-8.325475e+00
2.935850e+01	-8.368543e+00
2.952807e+01	-8.411325e+00
2.969863e+01	-8.454387e+00
2.987016e+01	-8.497045e+00
3.004269e+01	-8.539736e+00
3.021622e+01	-8.583222e+00
3.039075e+01	-8.626676e+00
3.056628e+01	-8.669345e+00
3.074283e+01	-8.712708e+00
3.092040e+01	-8.755929e+00
3.109900e+01	-8.799596e+00
3.127862e+01	-8.842819e+00
3.145929e+01	-8.886139e+00
3.164099e+01	-8.929830e+00
3.182375e+01	-8.973255e+00
3.200756e+01	-9.017232e+00
3.219244e+01	-9.061256e+00
3.237838e+01	-9.104687e+00
3.256540e+01	-9.148667e+00
3.275349e+01	-9.193005e+00
3.294268e+01	-9.237163e+00
3.313295e+01	-9.281197e+00
3.332433e+01	-9.325032e+00
3.351681e+01	-9.369468e+00
3.371040e+01	-9.413489e+00
3.390511e+01	-9.457863e+00
3.410094e+01	-9.502434e+00
3.429791e+01	-9.546473e+00
3.449601e+01	-9.590769e+00
3.469526e+01	-9.636126e+00
3.489566e+01	-9.680978e+00
3.509721e+01	-9.724909e+00
3.529993e+01	-9.769895e+00
3.550382e+01	-9.814784e+00
3.570889e+01	-9.859607e+00
3.591515e+01	-9.904173e+00
3.612259e+01	-9.949224e+00
3.633123e+01	-9.993632e+00
3.654108e+01	-1.003903e+01
3.675214e+01	-1.008425e+01
3.696442e+01	-1.012936e+01
3.717792e+01	-1.017461e+01
3.739266e+01	-1.021966e+01
3.760864e+01	-1.026499e+01
3.782587e+01	-1.031105e+01
3.804435e+01	-1.035538e+01
3.826409e+01	-1.040132e+01
3.848510e+01	-1.044647e+01
3.870739e+01	-1.049230e+01
3.893096e+01	-1.053760e+01
3.915583e+01	-1.058370e+01
3.938199e+01	-1.062977e+01
3.960946e+01	-1.067557e+01
3.983824e+01	-1.072059e+01
4.006834e+01	-1.076666e+01
4.029978e+01	-1.081245e+01
4.053255e+01	-1.085821e+01
4.076666e+01	-1.090426e+01
4.100213e+01	-1.095039e+01
4.123896e+01	-1.099609e+01
4.147715e+01	-1.104272e+01
4.171672e+01	-1.108749e+01
4.195767e+01	-1.113477e+01
4.220002e+01	-1.118093e+01
4.244377e+01	-1.122726e+01
4.268892e+01	-1.127354e+01
4.293549e+01	-1.131974e+01
4.318348e+01	-1.136584e+01
4.343291e+01	-1.141198e+01
4.368377e+01	-1.145877e+01
4.393609e+01	-1.150606e+01
4.418986e+01	-1.155130e+01
4.444510e+01	-1.159825e+01
4.470182e+01	-1.164490e+01
4.496001e+01	-1.169143e+01
4.521970e+01	-1.173823e+01
4.548089e+01	-1.178447e+01
4.574358e+01	-1.183256e+01
4.600779e+01	-1.187847e+01
4.627353e+01	-1.192538e+01
4.654081e+01	-1.197240e+01
4.680963e+01	-1.201894e+01
4.708000e+01	-1.206609e+01
4.735193e+01	-1.211316e+01
4.762543e+01	-1.215981e+01
4.790051e+01	-1.220709e+01
4.817719e+01	-1.225396e+01
4.845545e+01	-1.230111e+01
4.873533e+01	-1.234771e+01
4.901682e+01	-1.239545e+01
4.929994e+01	-1.244217e+01
4.958470e+01	-1.248906e+01
4.987110e+01	-1.253681e+01
5.015915e+01	-1.258407e+01
5.044887e+01	-1.263113e+01
5.074026e+01	-1.267909e+01
5.103333e+01	-1.272576e+01
5.132810e+01	-1.277323e+01
5.162457e+01	-1.282023e+01
5.192275e+01	-1.286794e+01
5.222265e+01	-1.291602e+01
5.252429e+01	-1.296288e+01
5.282767e+01	-1.301104e+01
5.313280e+01	-1.305902e+01
5.343969e+01	-1.310556e+01
5.374836e+01	-1.315402e+01
5.405880e+01	-1.320118e+01
5.437105e+01	-1.324864e+01
5.468509e+01	-1.329548e+01
5.500095e+01	-1.334369e+01
5.531863e+01	-1.339227e+01
5.563815e+01	-1.343963e+01
5.595951e+01	-1.348719e+01
5.628273e+01	-1.353505e+01
5.660782e+01	-1.358286e+01
5.693479e+01	-1.363061e+01
5.726364e+01	-1.367884e+01
5.759439e+01	-1.372676e+01
5.792705e+01	-1.377426e+01
5.826164e+01	-1.382227e+01
5.859815e+01	-1.387028e+01
5.893662e+01	-1.391798e+01
5.927703e+01	-1.396597e+01
5.961941e+01	-1.401340e+01
5.996377e+01	-1.406213e+01
6.031012e+01	-1.411082e+01
6.065847e+01	-1.415832e+01
6.100883e+01	-1.420623e+01
6.136121e+01	-1.425439e+01
6.171563e+01	-1.430304e+01
6.207210e+01	-1.435005e+01
6.243063e+01	-1.439900e+01
6.279122e+01	-1.444734e+01
6.315390e+01	-1.449573e+01
6.351868e+01	-1.454376e+01
6.388556e+01	-1.459223e+01
6.425456e+01	-1.464048e+01
6.462569e+01	-1.468905e+01
6.499897e+01	-1.473689e+01
6.537440e+01	-1.478521e+01
6.575200e+01	-1.483431e+01
6.613178e+01	-1.488209e+01
6.651375e+01	-1.493070e+01
6.689793e+01	-1.497892e+01
6.728433e+01	-1.502786e+01
6.767297e+01	-1.507597e+01
6.806384e+01	-1.512418e+01
6.845698e+01	-1.517266e+01
6.885238e+01	-1.522154e+01
6.925007e+01	-1.526967e+01
6.965005e+01	-1.531904e+01
7.005235e+01	-1.536797e+01
7.045697e+01	-1.541522e+01
7.086393e+01	-1.546395e+01
7.127323e+01	-1.551219e+01
7.168490e+01	-1.556311e+01
7.209895e+01	-1.560942e+01
7.251539e+01	-1.565923e+01
7.293424e+01	-1.570743e+01
7.335551e+01	-1.575757e+01
7.377920e+01	-1.580513e+01
7.420535e+01	-1.585455e+01
7.463396e+01	-1.590278e+01
7.506504e+01	-1.595149e+01
7.549861e+01	-1.599811e+01
7.593469e+01	-1.604941e+01
7.637328e+01	-1.609866e+01
7.681441e+01	-1.614634e+01
7.725809e+01	-1.619458e+01
7.770433e+01	-1.624304e+01
7.815315e+01	-1.629329e+01
7.860456e+01	-1.634148e+01
7.905857e+01	-1.639147e+01
7.951521e+01	-1.643959e+01
7.997449e+01	-1.648768e+01
8.043642e+01	-1.653720e+01
8.090102e+01	-1.658625e+01
8.136830e+01	-1.663504e+01
8.183828e+01	-1.668440e+01
8.231097e+01	-1.673296e+01
8.278640e+01	-1.678301e+01
8.326457e+01	-1.683168e+01
8.374550e+01	-1.688088e+01
8.422921e+01	-1.692996e+01
8.471572e+01	-1.697751e+01
8.520503e+01	-1.702745e+01
8.569717e+01	-1.707741e+01
8.619215e+01	-1.712570e+01
8.669000e+01	-1.717398e+01
8.719071e+01	-1.722391e+01
8.769432e+01	-1.727320e+01
8.820084e+01	-1.732142e+01
8.871029e+01	-1.737093e+01
8.922267e+01	-1.741885e+01
8.973802e+01	-1.746863e+01
9.025634e+01	-1.751784e+01
9.077766e+01	-1.756636e+01
9.130199e+01	-1.761597e+01
9.182935e+01	-1.766532e+01
9.235975e+01	-1.771402e+01
9.289321e+01	-1.776384e+01
9.342976e+01	-1.781359e+01
9.396941e+01	-1.786247e+01
9.451217e+01	-1.791245e+01
9.505807e+01	-1.796054e+01
9.560712e+01	-1.800988e+01
9.615934e+01	-1.805886e+01
9.671476e+01	-1.810870e+01
9.727338e+01	-1.815831e+01
9.783522e+01	-1.820572e+01
9.840032e+01	-1.825617e+01
9.896867e+01	-1.830528e+01
9.954031e+01	-1.835565e+01
1.001153e+02	-1.840434e+01
1.006935e+02	-1.845420e+01
1.012751e+02	-1.850291e+01
1.018601e+02	-1.855142e+01
1.024484e+02	-1.860070e+01
1.030402e+02	-1.865032e+01
1.036353e+02	-1.870041e+01
1.042339e+02	-1.875006e+01
1.048360e+02	-1.879877e+01
1.054415e+02	-1.884768e+01
1.060505e+02	-1.889888e+01
1.066631e+02	-1.894632e+01
1.072791e+02	-1.899767e+01
1.078988e+02	-1.904750e+01
1.085220e+02	-1.909473e+01
1.091488e+02	-1.914514e+01
1.097793e+02	-1.919446e+01
1.104133e+02	-1.924433e+01
1.110511e+02	-1.929253e+01
1.116925e+02	-1.934263e+01
1.123376e+02	-1.939228e+01
1.129865e+02	-1.944156e+01
1.136391e+02	-1.949067e+01
1.142955e+02	-1.954041e+01
1.149556e+02	-1.959038e+01
1.156196e+02	-1.963909e+01
1.162874e+02	-1.968927e+01
1.169591e+02	-1.973856e+01
1.176347e+02	-1.978922e+01
1.183141e+02	-1.983780e+01
1.189975e+02	-1.988755e+01
1.196848e+02	-1.993719e+01
1.203761e+02	-1.998637e+01
1.210714e+02	-2.003634e+01
1.217707e+02	-2.008453e+01
1.224740e+02	-2.013469e+01
1.231814e+02	-2.018667e+01
1.238929e+02	-2.023245e+01
1.246085e+02	-2.028315e+01
1.253283e+02	-2.033362e+01
1.260522e+02	-2.038275e+01
1.267802e+02	-2.043167e+01
1.275125e+02	-2.048176e+01
1.282490e+02	-2.053126e+01
1.289898e+02	-2.058182e+01
1.297348e+02	-2.063103e+01
1.304842e+02	-2.068019e+01
1.312378e+02	-2.072821e+01
1.319959e+02	-2.077803e+01
1.327583e+02	-2.082858e+01
1.335251e+02	-2.087651e+01
1.342963e+02	-2.092845e+01
1.350720e+02	-2.097839e+01
1.358522e+02	-2.102826e+01
1.366368e+02	-2.107709e+01
1.374260e+02	-2.112675e+01
1.382198e+02	-2.117618e+01
1.390182e+02	-2.122679e+01
1.398211e+02	-2.127526e+01
1.406287e+02	-2.132667e+01
1.414410e+02	-2.137506e+01
1.422579e+02	-2.142546e+01
1.430796e+02	-2.147417e+01
1.439060e+02	-2.152437e+01
1.447372e+02	-2.157346e+01
1.455732e+02	-2.162376e+01
1.464141e+02	-2.167293e+01
1.472597e+02	-2.172138e+01
1.481103e+02	-2.177248e+01
1.489658e+02	-2.182256e+01
1.498262e+02	-2.187281e+01
1.506916e+02	-2.192419e+01
1.515620e+02	-2.197217e+01
1.524374e+02	-2.202202e+01
1.533179e+02	-2.207015e+01
1.542034e+02	-2.211861e+01
1.550941e+02	-2.217043e+01
1.559899e+02	-2.221889e+01
1.568909e+02	-2.227012e+01
1.577971e+02	-2.231868e+01
1.587085e+02	-2.236906e+01
1.596252e+02	-2.242019e+01
1.605472e+02	-2.247006e+01
1.614745e+02	-2.251808e+01
1.624072e+02	-2.256721e+01
1.633453e+02	-2.261556e+01
1.642887e+02	-2.266739e+01
1.652377e+02	-2.271912e+01
1.661921e+02	-2.276822e+01
1.671520e+02	-2.281581e+01
1.681175e+02	-2.286757e+01
1.690885e+02	-2.291899e+01
1.700651e+02	-2.296686e+01
1.710474e+02	-2.301516e+01
1.720354e+02	-2.306762e+01
1.730291e+02	-2.311589e+01
1.740285e+02	-2.316405e+01
1.750337e+02	-2.321575e+01
1.760446e+02	-2.326320e+01
1.770615e+02	-2.331522e+01
1.780842e+02	-2.336365e+01
1.791128e+02	-2.341471e+01
1.801473e+02	-2.346501e+01
1.811878e+02	-2.351438e+01
1.822344e+02	-2.356320e+01
1.832870e+02	-2.361421e+01
1.843456e+02	-2.366467e+01
1.854104e+02	-2.371562e+01
1.864813e+02	-2.376318e+01
1.875584e+02	-2.381267e+01
1.886418e+02	-2.386271e+01
1.897313e+02	-2.391238e+01
1.908272e+02	-2.396348e+01
1.919294e+02	-2.401183e+01
1.930380e+02	-2.406327e+01
1.941530e+02	-2.411216e+01
1.952744e+02	-2.416337e+01
1.964023e+02	-2.421295e+01
1.975367e+02	-2.426269e+01
1.986777e+02	-2.430981e+01
1.998252e+02	-2.436159e+01
2.009794e+02	-2.441272e+01
2.021403e+02	-2.446013e+01
2.033078e+02	-2.450929e+01
2.044821e+02	-2.456133e+01
2.056632e+02	-2.460900e+01
2.068511e+02	-2.466048e+01
2.080459e+02	-2.470935e+01
2.092475e+02	-2.476103e+01
2.104561e+02	-2.481026e+01
2.116717e+02	-2.486021e+01
2.128943e+02	-2.491179e+01
2.141240e+02	-2.495953e+01
2.153608e+02	-2.501300e+01
2.166047e+02	-2.505842e+01
2.178558e+02	-2.511314e+01
2.191141e+02	-2.516140e+01
2.203797e+02	-2.521226e+01
2.216526e+02	-2.526075e+01
2.229329e+02	-2.531037e+01
2.242205e+02	-2.536148e+01
2.255156e+02	-2.540913e+01
2.268182e+02	-2.545774e+01
2.281283e+02	-2.550768e+01
2.294459e+02	-2.555965e+01
2.307712e+02	-2.560928e+01
2.321041e+02	-2.565813e+01
2.334447e+02	-2.570726e+01
2.347931e+02	-2.576074e+01
2.361493e+02	-2.580753e+01
2.375133e+02	-2.585696e+01
2.388851e+02	-2.590949e+01
2.402649e+02	-2.596141e+01
2.416527e+02	-2.600805e+01
2.430484e+02	-2.605778e+01
2.444523e+02	-2.610784e+01
2.458642e+02	-2.616230e+01
2.472843e+02	-2.620727e+01
2.487126e+02	-2.625806e+01
2.501492e+02	-2.630923e+01
2.515940e+02	-2.635779e+01
2.530472e+02	-2.640726e+01
2.545088e+02	-2.645870e+01
2.559789e+02	-2.650936e+01
2.574574e+02	-2.655816e+01
2.589444e+02	-2.660694e+01
2.604401e+02	-2.665620e+01
2.619444e+02	-2.670826e+01
2.634574e+02	-2.676012e+01
2.649791e+02	-2.680777e+01
2.665096e+02	-2.685814e+01
2.680489e+02	-2.690892e+01
2.695972e+02	-2.695879e+01
2.711544e+02	-2.700924e+01
2.727205e+02	-2.705830e+01
2.742958e+02	-2.710545e+01
2.758801e+02	-2.715677e+01
2.774736e+02	-2.720830e+01
2.790762e+02	-2.725754e+01
2.806882e+02	-2.730675e+01
2.823094e+02	-2.735623e+01
2.839400e+02	-2.740974e+01
2.855800e+02	-2.745299e+01
2.872295e+02	-2.751049e+01
2.888886e+02	-2.755584e+01
2.905572e+02	-2.760916e+01
2.922354e+02	-2.765723e+01
2.939234e+02	-2.770691e+01
2.956211e+02	-2.775694e+01
2.973286e+02	-2.780778e+01
2.990459e+02	-2.786141e+01
3.007732e+02	-2.791083e+01
3.025104e+02	-2.795874e+01
3.042577e+02	-2.800904e+01
3.060151e+02	-2.805969e+01
3.077826e+02	-2.810331e+01
3.095604e+02	-2.815822e+01
3.113484e+02	-2.821059e+01
3.131467e+02	-2.825711e+01
3.149554e+02	-2.830839e+01
3.167746e+02	-2.835603e+01
3.186043e+02	-2.840818e+01
3.204445e+02	-2.845960e+01
3.222954e+02	-2.850799e+01
3.241570e+02	-2.855732e+01
3.260293e+02	-2.861124e+01
3.279124e+02	-2.866083e+01
3.298064e+02	-2.871059e+01
3.317114e+02	-2.875566e+01
3.336273e+02	-2.880853e+01
3.355544e+02	-2.885597e+01
3.374925e+02	-2.890801e+01
3.394418e+02	-2.895977e+01
3.414024e+02	-2.900947e+01
3.433744e+02	-2.905944e+01
3.453577e+02	-2.910487e+01
3.473525e+02	-2.915458e+01
3.493588e+02	-2.920986e+01
3.513766e+02	-2.926243e+01
3.534062e+02	-2.931271e+01
3.554474e+02	-2.936047e+01
3.575005e+02	-2.940773e+01
3.595654e+02	-2.946285e+01
3.616422e+02	-2.951107e+01
3.637311e+02	-2.955946e+01
3.658320e+02	-2.960618e+01
3.679450e+02	-2.966240e+01
3.700702e+02	-2.971065e+01
3.722077e+02	-2.976016e+01
3.743576e+02	-2.981074e+01
3.765199e+02	-2.985997e+01
3.786946e+02	-2.990640e+01
3.808820e+02	-2.996285e+01
3.830819e+02	-3.000874e+01
3.852946e+02	-3.006292e+01
3.875200e+02	-3.011016e+01
3.897583e+02	-3.016026e+01
3.920096e+02	-3.021243e+01
3.942738e+02	-3.025998e+01
3.965511e+02	-3.031198e+01
3.988416e+02	-3.036084e+01
4.011452e+02	-3.041183e+01
4.034622e+02	-3.045631e+01
4.057926e+02	-3.050923e+01
4.081365e+02	-3.055964e+01
4.104938e+02	-3.061199e+01
4.128648e+02	-3.066561e+01
4.152495e+02	-3.070983e+01
4.176480e+02	-3.076655e+01
4.200603e+02	-3.080958e+01
4.224866e+02	-3.086238e+01
4.249268e+02	-3.090864e+01
4.273812e+02	-3.095940e+01
4.298497e+02	-3.101399e+01
4.323325e+02	-3.105780e+01
4.348297e+02	-3.110967e+01
4.373412e+02	-3.115917e+01
4.398673e+02	-3.120904e+01
4.424079e+02	-3.126366e+01
4.449633e+02	-3.131493e+01
4.475334e+02	-3.136605e+01
4.501183e+02	-3.141462e+01
4.527182e+02	-3.146432e+01
4.553330e+02	-3.150656e+01
4.579630e+02	-3.156691e+01
4.606082e+02	-3.161793e+01
4.632687e+02	-3.166732e+01
4.659445e+02	-3.171091e+01
4.686358e+02	-3.176839e+01
4.713426e+02	-3.181862e+01
4.740650e+02	-3.186622e+01
4.768032e+02	-3.191908e+01
4.795572e+02	-3.197002e+01
4.823271e+02	-3.201824e+01
4.851130e+02	-3.206803e+01
4.879150e+02	-3.211429e+01
4.907332e+02	-3.216712e+01
4.935676e+02	-3.221601e+01
4.964185e+02	-3.227051e+01
4.992858e+02	-3.231798e+01
5.021696e+02	-3.236918e+01
5.050701e+02	-3.241998e+01
5.079874e+02	-3.246712e+01
5.109215e+02	-3.251505e+01
5.138726e+02	-3.256928e+01
5.168407e+02	-3.261774e+01
5.198259e+02	-3.266928e+01
5.228284e+02	-3.272148e+01
5.258482e+02	-3.277388e+01
5.288855e+02	-3.282382e+01
5.319403e+02	-3.286886e+01
5.350128e+02	-3.291771e+01
5.381030e+02	-3.296567e+01
5.412111e+02	-3.302407e+01
5.443371e+02	-3.306839e+01
5.474812e+02	-3.312406e+01
5.506434e+02	-3.316997e+01
5.538239e+02	-3.322666e+01
5.570228e+02	-3.327164e+01
5.602401e+02	-3.331670e+01
5.634760e+02	-3.336997e+01
5.667306e+02	-3.341787e+01
5.700040e+02	-3.347491e+01
5.732964e+02	-3.351896e+01
5.766077e+02	-3.357950e+01
5.799382e+02	-3.362246e+01
5.832879e+02	-3.367169e+01
5.866569e+02	-3.371938e+01
5.900454e+02	-3.377180e+01
5.934535e+02	-3.381881e+01
5.968813e+02	-3.387538e+01
6.003288e+02	-3.392863e+01
6.037963e+02	-3.397274e+01
6.072838e+02	-3.402738e+01
6.107914e+02	-3.407278e+01
6.143194e+02	-3.412015e+01
6.178676e+02	-3.416980e+01
6.214364e+02	-3.423066e+01
6.250258e+02	-3.427914e+01
6.286359e+02	-3.432706e+01
6.322669e+02	-3.437452e+01
6.359189e+02	-3.443172e+01
6.395919e+02	-3.448946e+01
6.432862e+02	-3.452863e+01
6.470017e+02	-3.457843e+01
6.507388e+02	-3.462989e+01
6.544974e+02	-3.467433e+01
6.582778e+02	-3.472028e+01
6.620800e+02	-3.478132e+01
6.659041e+02	-3.482883e+01
6.697504e+02	-3.487441e+01
6.736188e+02	-3.493545e+01
6.775096e+02	-3.498816e+01
6.814229e+02	-3.502955e+01
6.853587e+02	-3.508560e+01
6.893173e+02	-3.514461e+01
6.932988e+02	-3.518000e+01
6.973033e+02	-3.523032e+01
7.013309e+02	-3.528811e+01
