Frequency(Hz)	Magnitude(dB)
1.000000e+01	-2.169607e+00
1.005776e+01	-2.189159e+00
1.011585e+01	-2.209038e+00
1.017428e+01	-2.229140e+00
1.023305e+01	-2.249056e+00
1.029215e+01	-2.269419e+00
1.035160e+01	-2.290068e+00
1.041139e+01	-2.310594e+00
1.047153e+01	-2.331256e+00
1.053201e+01	-2.352015e+00
1.059284e+01	-2.373072e+00
1.065403e+01	-2.394525e+00
1.071556e+01	-2.415386e+00
1.077746e+01	-2.436851e+00
1.083971e+01	-2.458595e+00
1.090232e+01	-2.480184e+00
1.096529e+01	-2.501850e+00
1.102862e+01	-2.523816e+00
1.109232e+01	-2.545802e+00
1.115639e+01	-2.568350e+00
1.122083e+01	-2.590855e+00
1.128564e+01	-2.613148e+00
1.135083e+01	-2.635837e+00
1.141639e+01	-2.658803e+00
1.148233e+01	-2.681464e+00
1.154865e+01	-2.704930e+00
1.161536e+01	-2.728149e+00
1.168245e+01	-2.751372e+00
1.174992e+01	-2.774985e+00
1.181779e+01	-2.798756e+00
1.188605e+01	-2.822201e+00
1.195470e+01	-2.846797e+00
1.202375e+01	-2.870616e+00
1.209320e+01	-2.894939e+00
1.216305e+01	-2.919389e+00
1.223330e+01	-2.943866e+00
1.230396e+01	-2.968947e+00
1.237503e+01	-2.993711e+00
1.244651e+01	-3.018418e+00
1.251840e+01	-3.043635e+00
1.259070e+01	-3.068744e+00
1.266343e+01	-3.094175e+00
1.273657e+01	-3.119776e+00
1.281014e+01	-3.145826e+00
1.288413e+01	-3.171423e+00
1.295855e+01	-3.197440e+00
1.303339e+01	-3.223491e+00
1.310867e+01	-3.249861e+00
1.318439e+01	-3.276208e+00
1.326054e+01	-3.302775e+00
1.333713e+01	-3.329429e+00
1.341417e+01	-3.356264e+00
1.349165e+01	-3.383187e+00
1.356958e+01	-3.410747e+00
1.364795e+01	-3.437739e+00
1.372678e+01	-3.465225e+00
1.380607e+01	-3.492811e+00
1.388581e+01	-3.520425e+00
1.396602e+01	-3.548390e+00
1.404668e+01	-3.576567e+00
1.412782e+01	-3.604619e+00
1.420942e+01	-3.632687e+00
1.429149e+01	-3.661191e+00
1.437404e+01	-3.689865e+00
1.445706e+01	-3.718770e+00
1.454057e+01	-3.747390e+00
1.462455e+01	-3.776405e+00
1.470902e+01	-3.805626e+00
1.479398e+01	-3.834891e+00
1.487943e+01	-3.864242e+00
1.496537e+01	-3.893551e+00
1.505181e+01	-3.923235e+00
1.513875e+01	-3.953178e+00
1.522619e+01	-3.982960e+00
1.531414e+01	-4.013180e+00
1.540259e+01	-4.043631e+00
1.549156e+01	-4.074063e+00
1.558103e+01	-4.104336e+00
1.567103e+01	-4.135235e+00
1.576155e+01	-4.165870e+00
1.585258e+01	-4.196810e+00
1.594415e+01	-4.227922e+00
1.603624e+01	-4.259085e+00
1.612886e+01	-4.290441e+00
1.622202e+01	-4.321728e+00
1.631572e+01	-4.353385e+00
1.640996e+01	-4.385370e+00
1.650474e+01	-4.416989e+00
1.660008e+01	-4.448902e+00
1.669596e+01	-4.481185e+00
1.679239e+01	-4.513300e+00
1.688938e+01	-4.545908e+00
1.698694e+01	-4.578313e+00
1.708505e+01	-4.611123e+00
1.718373e+01	-4.643956e+00
1.728299e+01	-4.676851e+00
1.738281e+01	-4.709674e+00
1.748322e+01	-4.742875e+00
1.758420e+01	-4.776264e+00
1.768576e+01	-4.809578e+00
1.778792e+01	-4.843234e+00
1.789066e+01	-4.876901e+00
1.799399e+01	-4.910644e+00
1.809793e+01	-4.944790e+00
1.820246e+01	-4.978718e+00
1.830760e+01	-5.013201e+00
1.841334e+01	-5.047387e+00
1.851969e+01	-5.081404e+00
1.862666e+01	-5.116452e+00
1.873425e+01	-5.150936e+00
1.884246e+01	-5.185528e+00
1.895129e+01	-5.220748e+00
1.906075e+01	-5.255902e+00
1.917085e+01	-5.291084e+00
1.928158e+01	-5.326231e+00
1.939295e+01	-5.361829e+00
1.950496e+01	-5.397204e+00
1.961762e+01	-5.432713e+00
1.973093e+01	-5.468728e+00
1.984490e+01	-5.504355e+00
1.995952e+01	-5.540272e+00
2.007480e+01	-5.576261e+00
2.019076e+01	-5.612432e+00
2.030738e+01	-5.649063e+00
2.042467e+01	-5.685605e+00
2.054264e+01	-5.722160e+00
2.066130e+01	-5.758555e+00
2.078064e+01	-5.795417e+00
2.090066e+01	-5.832418e+00
2.102139e+01	-5.869539e+00
2.114280e+01	-5.906637e+00
2.126492e+01	-5.943798e+00
2.138775e+01	-5.981431e+00
2.151128e+01	-6.018888e+00
2.163553e+01	-6.056333e+00
2.176050e+01	-6.093834e+00
2.188619e+01	-6.131903e+00
2.201260e+01	-6.169545e+00
2.213974e+01	-6.207616e+00
2.226762e+01	-6.245634e+00
2.239624e+01	-6.283858e+00
2.252560e+01	-6.322200e+00
2.265571e+01	-6.360478e+00
2.278656e+01	-6.399276e+00
2.291818e+01	-6.437495e+00
2.305055e+01	-6.476503e+00
2.318369e+01	-6.515122e+00
2.331760e+01	-6.554086e+00
2.345228e+01	-6.592972e+00
2.358774e+01	-6.632137e+00
2.372398e+01	-6.671409e+00
2.386101e+01	-6.710978e+00
2.399883e+01	-6.750475e+00
2.413745e+01	-6.789776e+00
2.427686e+01	-6.829530e+00
2.441709e+01	-6.869121e+00
2.455812e+01	-6.908421e+00
2.469997e+01	-6.948796e+00
2.484263e+01	-6.988910e+00
2.498612e+01	-7.028770e+00
2.513044e+01	-7.068936e+00
2.527559e+01	-7.108929e+00
2.542158e+01	-7.149705e+00
2.556842e+01	-7.189943e+00
2.571610e+01	-7.230670e+00
2.586463e+01	-7.271191e+00
2.601403e+01	-7.311795e+00
2.616428e+01	-7.352314e+00
2.631541e+01	-7.393604e+00
2.646740e+01	-7.434576e+00
2.662028e+01	-7.475461e+00
2.677404e+01	-7.516611e+00
2.692868e+01	-7.557878e+00
2.708422e+01	-7.598917e+00
2.724066e+01	-7.640366e+00
2.739800e+01	-7.681391e+00
2.755625e+01	-7.723519e+00
2.771541e+01	-7.764986e+00
2.787550e+01	-7.806751e+00
2.803650e+01	-7.848115e+00
2.819844e+01	-7.890500e+00
2.836131e+01	-7.932141e+00
2.852513e+01	-7.974259e+00
2.868989e+01	-8.016218e+00
2.885560e+01	-8.058468e+00
2.902227e+01	-8.101081e+00
2.918990e+01	-8.143257e+00
2.935850e+01	-8.185858e+00
2.952807e+01	-8.227753e+00
2.969863e+01	-8.270438e+00
2.987016e+01	-8.313545e+00
3.004269e+01	-8.355808e+00
3.021622e+01	-8.398562e+00
3.039075e+01	-8.441164e+00
3.056628e+01	-8.484513e+00
3.074283e+01	-8.527128e+00
3.092040e+01	-8.569986e+00
3.109900e+01	-8.612843e+00
3.127862e+01	-8.655956e+00
3.145929e+01	-8.699436e+00
3.164099e+01	-8.743126e+00
3.182375e+01	-8.786746e+00
3.200756e+01	-8.829568e+00
3.219244e+01	-8.873735e+00
3.237838e+01	-8.917033e+00
3.256540e+01	-8.960490e+00
3.275349e+01	-9.004073e+00
3.294268e+01	-9.048024e+00
3.313295e+01	-9.091522e+00
3.332433e+01	-9.135941e+00
3.351681e+01	-9.180173e+00
3.371040e+01	-9.223760e+00
3.390511e+01	-9.267803e+00
3.410094e+01	-9.312090e+00
3.429791e+01	-9.356149e+00
3.449601e+01	-9.400798e+00
3.469526e+01	-9.444279e+00
3.489566e+01	-9.488780e+00
3.509721e+01	-9.533708e+00
3.529993e+01	-9.577799e+00
3.550382e+01	-9.622762e+00
3.570889e+01	-9.667314e+00
3.591515e+01	-9.711952e+00
3.612259e+01	-9.756603e+00
3.633123e+01	-9.801255e+00
3.654108e+01	-9.846540e+00
3.675214e+01	-9.891215e+00
3.696442e+01	-9.935636e+00
3.717792e+01	-9.980924e+00
3.739266e+01	-1.002637e+01
3.760864e+01	-1.007093e+01
3.782587e+01	-1.011609e+01
3.804435e+01	-1.016092e+01
3.826409e+01	-1.020687e+01
3.848510e+01	-1.025156e+01
3.870739e+01	-1.029699e+01
3.893096e+01	-1.034240e+01
3.915583e+01	-1.038789e+01
3.938199e+01	-1.043346e+01
3.960946e+01	-1.047875e+01
3.983824e+01	-1.052467e+01
4.006834e+01	-1.056998e+01
4.029978e+01	-1.061583e+01
4.053255e+01	-1.066148e+01
4.076666e+01	-1.070726e+01
4.100213e+01	-1.075299e+01
4.123896e+01	-1.079937e+01
4.147715e+01	-1.084434e+01
4.171672e+01	-1.089069e+01
4.195767e+01	-1.093620e+01
4.220002e+01	-1.098275e+01
4.244377e+01	-1.102899e+01
4.268892e+01	-1.107526e+01
4.293549e+01	-1.112058e+01
4.318348e+01	-1.116735e+01
4.343291e+01	-1.121334e+01
4.368377e+01	-1.125931e+01
4.393609e+01	-1.130608e+01
4.418986e+01	-1.135249e+01
4.444510e+01	-1.139847e+01
4.470182e+01	-1.144493e+01
4.496001e+01	-1.149151e+01
4.521970e+01	-1.153806e+01
4.548089e+01	-1.158457e+01
4.574358e+01	-1.163135e+01
4.600779e+01	-1.167743e+01
4.627353e+01	-1.172480e+01
4.654081e+01	-1.177158e+01
4.680963e+01	-1.181783e+01
4.708000e+01	-1.186499e+01
4.735193e+01	-1.191089e+01
4.762543e+01	-1.195768e+01
4.790051e+01	-1.200560e+01
4.817719e+01	-1.205152e+01
4.845545e+01	-1.209891e+01
4.873533e+01	-1.214585e+01
4.901682e+01	-1.219276e+01
4.929994e+01	-1.223998e+01
4.958470e+01	-1.228683e+01
4.987110e+01	-1.233383e+01
5.015915e+01	-1.238064e+01
5.044887e+01	-1.242815e+01
5.074026e+01	-1.247497e+01
5.103333e+01	-1.252228e+01
5.132810e+01	-1.257025e+01
5.162457e+01	-1.261708e+01
5.192275e+01	-1.266371e+01
5.222265e+01	-1.271229e+01
5.252429e+01	-1.275904e+01
5.282767e+01	-1.280735e+01
5.313280e+01	-1.285423e+01
5.343969e+01	-1.290186e+01
5.374836e+01	-1.294966e+01
5.405880e+01	-1.299558e+01
5.437105e+01	-1.304405e+01
5.468509e+01	-1.309106e+01
5.500095e+01	-1.313888e+01
5.531863e+01	-1.318635e+01
5.563815e+01	-1.323449e+01
5.595951e+01	-1.328128e+01
5.628273e+01	-1.332947e+01
5.660782e+01	-1.337745e+01
5.693479e+01	-1.342546e+01
5.726364e+01	-1.347291e+01
5.759439e+01	-1.352116e+01
5.792705e+01	-1.356790e+01
5.826164e+01	-1.361674e+01
5.859815e+01	-1.366416e+01
5.893662e+01	-1.371152e+01
5.927703e+01	-1.376013e+01
5.961941e+01	-1.380757e+01
5.996377e+01	-1.385508e+01
6.031012e+01	-1.390410e+01
6.065847e+01	-1.395156e+01
6.100883e+01	-1.399944e+01
6.136121e+01	-1.404855e+01
6.171563e+01	-1.409691e+01
6.207210e+01	-1.414414e+01
6.243063e+01	-1.419267e+01
6.279122e+01	-1.424036e+01
6.315390e+01	-1.428885e+01
6.351868e+01	-1.433624e+01
6.388556e+01	-1.438483e+01
6.425456e+01	-1.443345e+01
6.462569e+01	-1.448169e+01
6.499897e+01	-1.452992e+01
6.537440e+01	-1.457786e+01
6.575200e+01	-1.462548e+01
6.613178e+01	-1.467505e+01
6.651375e+01	-1.472367e+01
6.689793e+01	-1.477126e+01
6.728433e+01	-1.481947e+01
6.767297e+01	-1.486767e+01
6.806384e+01	-1.491620e+01
6.845698e+01	-1.496469e+01
6.885238e+01	-1.501295e+01
6.925007e+01	-1.506219e+01
6.965005e+01	-1.511106e+01
7.005235e+01	-1.515890e+01
7.045697e+01	-1.520717e+01
7.086393e+01	-1.525520e+01
7.127323e+01	-1.530444e+01
7.168490e+01	-1.535238e+01
7.209895e+01	-1.540113e+01
7.251539e+01	-1.545101e+01
7.293424e+01	-1.549940e+01
7.335551e+01	-1.554727e+01
7.377920e+01	-1.559658e+01
7.420535e+01	-1.564508e+01
7.463396e+01	-1.569364e+01
7.506504e+01	-1.574224e+01
7.549861e+01	-1.578970e+01
7.593469e+01	-1.583971e+01
7.637328e+01	-1.588811e+01
7.681441e+01	-1.593729e+01
7.725809e+01	-1.598527e+01
7.770433e+01	-1.603387e+01
7.815315e+01	-1.608282e+01
7.860456e+01	-1.613254e+01
7.905857e+01	-1.618028e+01
7.951521e+01	-1.622890e+01
7.997449e+01	-1.627934e+01
8.043642e+01	-1.632771e+01
8.090102e+01	-1.637681e+01
8.136830e+01	-1.642422e+01
8.183828e+01	-1.647371e+01
8.231097e+01	-1.652279e+01
8.278640e+01	-1.657183e+01
8.326457e+01	-1.662105e+01
8.374550e+01	-1.666963e+01
8.422921e+01	-1.671852e+01
8.471572e+01	-1.676736e+01
8.520503e+01	-1.681580e+01
8.569717e+01	-1.686526e+01
8.619215e+01	-1.691418e+01
8.669000e+01	-1.696376e+01
8.719071e+01	-1.701244e+01
8.769432e+01	-1.706156e+01
8.820084e+01	-1.710958e+01
8.871029e+01	-1.715964e+01
8.922267e+01	-1.720812e+01
8.973802e+01	-1.725737e+01
9.025634e+01	-1.730815e+01
9.077766e+01	-1.735654e+01
9.130199e+01	-1.740502e+01
9.182935e+01	-1.745368e+01
9.235975e+01	-1.750430e+01
9.289321e+01	-1.755165e+01
9.342976e+01	-1.760215e+01
9.396941e+01	-1.765025e+01
9.451217e+01	-1.769995e+01
9.505807e+01	-1.774930e+01
9.560712e+01	-1.779878e+01
9.615934e+01	-1.784784e+01
9.671476e+01	-1.789766e+01
9.727338e+01	-1.794619e+01
9.783522e+01	-1.799491e+01
9.840032e+01	-1.804419e+01
9.896867e+01	-1.809468e+01
9.954031e+01	-1.814387e+01
1.001153e+02	-1.819292e+01
1.006935e+02	-1.824178e+01
1.012751e+02	-1.829145e+01
1.018601e+02	-1.834053e+01
1.024484e+02	-1.838967e+01
1.030402e+02	-1.843834e+01
1.036353e+02	-1.848931e+01
1.042339e+02	-1.853814e+01
1.048360e+02	-1.858484e+01
1.054415e+02	-1.863533e+01
1.060505e+02	-1.868607e+01
1.066631e+02	-1.873417e+01
1.072791e+02	-1.878501e+01
1.078988e+02	-1.883342e+01
1.085220e+02	-1.888260e+01
1.091488e+02	-1.893442e+01
1.097793e+02	-1.898197e+01
1.104133e+02	-1.903272e+01
1.110511e+02	-1.908050e+01
1.116925e+02	-1.913090e+01
1.123376e+02	-1.917887e+01
1.129865e+02	-1.922753e+01
1.136391e+02	-1.927835e+01
1.142955e+02	-1.932817e+01
1.149556e+02	-1.937707e+01
1.156196e+02	-1.942789e+01
1.162874e+02	-1.947737e+01
1.169591e+02	-1.952550e+01
1.176347e+02	-1.957501e+01
1.183141e+02	-1.962409e+01
1.189975e+02	-1.967391e+01
1.196848e+02	-1.972440e+01
1.203761e+02	-1.977322e+01
1.210714e+02	-1.982228e+01
1.217707e+02	-1.987174e+01
1.224740e+02	-1.992089e+01
1.231814e+02	-1.997193e+01
1.238929e+02	-2.002213e+01
1.246085e+02	-2.006949e+01
1.253283e+02	-2.012041e+01
1.260522e+02	-2.017082e+01
1.267802e+02	-2.021827e+01
1.275125e+02	-2.026852e+01
1.282490e+02	-2.031941e+01
1.289898e+02	-2.036638e+01
1.297348e+02	-2.041814e+01
1.304842e+02	-2.046677e+01
1.312378e+02	-2.051639e+01
1.319959e+02	-2.056707e+01
1.327583e+02	-2.061605e+01
1.335251e+02	-2.066715e+01
1.342963e+02	-2.071352e+01
1.350720e+02	-2.076522e+01
1.358522e+02	-2.081256e+01
1.366368e+02	-2.086352e+01
1.374260e+02	-2.091292e+01
1.382198e+02	-2.096449e+01
1.390182e+02	-2.101275e+01
1.398211e+02	-2.106259e+01
1.406287e+02	-2.111273e+01
1.414410e+02	-2.116060e+01
1.422579e+02	-2.121106e+01
1.430796e+02	-2.126173e+01
1.439060e+02	-2.131152e+01
1.447372e+02	-2.136135e+01
1.455732e+02	-2.140939e+01
1.464141e+02	-2.145992e+01
1.472597e+02	-2.150919e+01
1.481103e+02	-2.155792e+01
1.489658e+02	-2.160758e+01
1.498262e+02	-2.166019e+01
1.506916e+02	-2.171115e+01
1.515620e+02	-2.175777e+01
1.524374e+02	-2.180766e+01
1.533179e+02	-2.185805e+01
1.542034e+02	-2.190752e+01
1.550941e+02	-2.195454e+01
1.559899e+02	-2.200542e+01
1.568909e+02	-2.205379e+01
1.577971e+02	-2.210717e+01
1.587085e+02	-2.215373e+01
1.596252e+02	-2.220323e+01
1.605472e+02	-2.225617e+01
1.614745e+02	-2.230449e+01
1.624072e+02	-2.235436e+01
1.633453e+02	-2.240542e+01
1.642887e+02	-2.245388e+01
1.652377e+02	-2.250340e+01
1.661921e+02	-2.255461e+01
1.671520e+02	-2.260286e+01
1.681175e+02	-2.265357e+01
1.690885e+02	-2.270352e+01
1.700651e+02	-2.275305e+01
1.710474e+02	-2.280157e+01
1.720354e+02	-2.285491e+01
1.730291e+02	-2.290272e+01
1.740285e+02	-2.295108e+01
1.750337e+02	-2.300015e+01
1.760446e+02	-2.305127e+01
1.770615e+02	-2.310051e+01
1.780842e+02	-2.315009e+01
1.791128e+02	-2.319958e+01
1.801473e+02	-2.325060e+01
1.811878e+02	-2.330161e+01
1.822344e+02	-2.334725e+01
1.832870e+02	-2.339974e+01
1.843456e+02	-2.345084e+01
1.854104e+02	-2.349941e+01
1.864813e+02	-2.354736e+01
1.875584e+02	-2.360008e+01
1.886418e+02	-2.364866e+01
1.897313e+02	-2.369803e+01
1.908272e+02	-2.375168e+01
1.919294e+02	-2.379685e+01
1.930380e+02	-2.384950e+01
1.941530e+02	-2.389930e+01
1.952744e+02	-2.394763e+01
1.964023e+02	-2.399935e+01
1.975367e+02	-2.405041e+01
1.986777e+02	-2.409664e+01
1.998252e+02	-2.414845e+01
2.009794e+02	-2.419625e+01
2.021403e+02	-2.424579e+01
2.033078e+02	-2.429614e+01
2.044821e+02	-2.434804e+01
2.056632e+02	-2.439685e+01
2.068511e+02	-2.444538e+01
2.080459e+02	-2.449616e+01
2.092475e+02	-2.454224e+01
2.104561e+02	-2.459819e+01
2.116717e+02	-2.464910e+01
2.128943e+02	-2.469726e+01
2.141240e+02	-2.474466e+01
2.153608e+02	-2.479744e+01
2.166047e+02	-2.484803e+01
2.178558e+02	-2.489454e+01
2.191141e+02	-2.494473e+01
2.203797e+02	-2.499530e+01
2.216526e+02	-2.504659e+01
2.229329e+02	-2.509679e+01
2.242205e+02	-2.514742e+01
2.255156e+02	-2.519642e+01
2.268182e+02	-2.524776e+01
2.281283e+02	-2.529616e+01
2.294459e+02	-2.534733e+01
2.307712e+02	-2.539395e+01
2.321041e+02	-2.544552e+01
2.334447e+02	-2.549683e+01
2.347931e+02	-2.554577e+01
2.361493e+02	-2.559470e+01
2.375133e+02	-2.564217e+01
2.388851e+02	-2.569483e+01
2.402649e+02	-2.574639e+01
2.416527e+02	-2.579417e+01
2.430484e+02	-2.584562e+01
2.444523e+02	-2.589405e+01
2.458642e+02	-2.594239e+01
2.472843e+02	-2.599432e+01
2.487126e+02	-2.604663e+01
2.501492e+02	-2.609413e+01
2.515940e+02	-2.614394e+01
2.530472e+02	-2.619479e+01
2.545088e+02	-2.624745e+01
2.559789e+02	-2.629280e+01
2.574574e+02	-2.634438e+01
2.589444e+02	-2.639308e+01
2.604401e+02	-2.644105e+01
2.619444e+02	-2.649028e+01
2.634574e+02	-2.654309e+01
2.649791e+02	-2.659694e+01
2.665096e+02	-2.664086e+01
2.680489e+02	-2.669519e+01
2.695972e+02	-2.674590e+01
2.711544e+02	-2.679553e+01
2.727205e+02	-2.684493e+01
2.742958e+02	-2.689138e+01
2.758801e+02	-2.694357e+01
2.774736e+02	-2.699184e+01
2.790762e+02	-2.704501e+01
2.806882e+02	-2.708996e+01
2.823094e+02	-2.714270e+01
2.839400e+02	-2.719369e+01
2.855800e+02	-2.724864e+01
2.872295e+02	-2.728993e+01
2.888886e+02	-2.734499e+01
2.905572e+02	-2.739853e+01
2.922354e+02	-2.744413e+01
2.939234e+02	-2.749621e+01
2.956211e+02	-2.754621e+01
2.973286e+02	-2.759556e+01
2.990459e+02	-2.764719e+01
3.007732e+02	-2.768924e+01
3.025104e+02	-2.774539e+01
3.042577e+02	-2.779445e+01
3.060151e+02	-2.784565e+01
3.077826e+02	-2.789065e+01
3.095604e+02	-2.794100e+01
3.113484e+02	-2.799671e+01
3.131467e+02	-2.804404e+01
3.149554e+02	-2.809642e+01
3.167746e+02	-2.814412e+01
3.186043e+02	-2.819332e+01
3.204445e+02	-2.824092e+01
3.222954e+02	-2.829820e+01
3.241570e+02	-2.834819e+01
3.260293e+02	-2.839830e+01
3.279124e+02	-2.844446e+01
3.298064e+02	-2.849543e+01
3.317114e+02	-2.854189e+01
3.336273e+02	-2.859472e+01
3.355544e+02	-2.864328e+01
3.374925e+02	-2.869045e+01
3.394418e+02	-2.874489e+01
3.414024e+02	-2.879291e+01
3.433744e+02	-2.884527e+01
3.453577e+02	-2.889546e+01
3.473525e+02	-2.894470e+01
3.493588e+02	-2.899206e+01
3.513766e+02	-2.904539e+01
3.534062e+02	-2.909171e+01
3.554474e+02	-2.914649e+01
3.575005e+02	-2.919786e+01
3.595654e+02	-2.924962e+01
3.616422e+02	-2.929911e+01
3.637311e+02	-2.934341e+01
3.658320e+02	-2.939509e+01
3.679450e+02	-2.944102e+01
3.700702e+02	-2.949900e+01
3.722077e+02	-2.954735e+01
3.743576e+02	-2.959776e+01
3.765199e+02	-2.964914e+01
3.786946e+02	-2.969905e+01
3.808820e+02	-2.974453e+01
3.830819e+02	-2.979730e+01
3.852946e+02	-2.984527e+01
3.875200e+02	-2.989313e+01
3.897583e+02	-2.995023e+01
3.920096e+02	-2.999470e+01
3.942738e+02	-3.004998e+01
3.965511e+02	-3.009913e+01
3.988416e+02	-3.014629e+01
4.011452e+02	-3.019769e+01
4.034622e+02	-3.024431e+01
4.057926e+02	-3.029693e+01
4.081365e+02	-3.034576e+01
4.104938e+02	-3.039683e+01
4.128648e+02	-3.044292e+01
4.152495e+02	-3.049452e+01
4.176480e+02	-3.054662e+01
4.200603e+02	-3.060002e+01
4.224866e+02	-3.065185e+01
4.249268e+02	-3.070328e+01
4.273812e+02	-3.075578e+01
4.298497e+02	-3.079895e+01
4.323325e+02	-3.084333e+01
4.348297e+02	-3.089327e+01
4.373412e+02	-3.094478e+01
4.398673e+02	-3.099926e+01
4.424079e+02	-3.105072e+01
4.449633e+02	-3.109554e+01
4.475334e+02	-3.115354e+01
4.501183e+02	-3.120019e+01
4.527182e+02	-3.124877e+01
4.553330e+02	-3.129444e+01
4.579630e+02	-3.135314e+01
4.606082e+02	-3.139927e+01
4.632687e+02	-3.145028e+01
4.659445e+02	-3.150300e+01
4.686358e+02	-3.154981e+01
4.713426e+02	-3.159918e+01
4.740650e+02	-3.164522e+01
4.768032e+02	-3.169428e+01
4.795572e+02	-3.175053e+01
4.823271e+02	-3.179585e+01
4.851130e+02	-3.185172e+01
4.879150e+02	-3.190369e+01
4.907332e+02	-3.194742e+01
4.935676e+02	-3.199522e+01
4.964185e+02	-3.205318e+01
4.992858e+02	-3.209808e+01
5.021696e+02	-3.215267e+01
5.050701e+02	-3.220944e+01
5.079874e+02	-3.225602e+01
5.109215e+02	-3.230549e+01
5.138726e+02	-3.235742e+01
5.168407e+02	-3.240337e+01
5.198259e+02	-3.245255e+01
5.228284e+02	-3.250064e+01
5.258482e+02	-3.255235e+01
5.288855e+02	-3.260577e+01
5.319403e+02	-3.265625e+01
5.350128e+02	-3.270682e+01
5.381030e+02	-3.275453e+01
5.412111e+02	-3.280527e+01
5.443371e+02	-3.285383e+01
5.474812e+02	-3.291421e+01
5.506434e+02	-3.295604e+01
5.538239e+02	-3.300491e+01
5.570228e+02	-3.305369e+01
5.602401e+02	-3.311012e+01
5.634760e+02	-3.315966e+01
5.667306e+02	-3.320503e+01
5.700040e+02	-3.326463e+01
5.732964e+02	-3.330885e+01
5.766077e+02	-3.335881e+01
5.799382e+02	-3.340538e+01
5.832879e+02	-3.345534e+01
5.866569e+02	-3.350729e+01
5.900454e+02	-3.355548e+01
5.934535e+02	-3.360908e+01
5.968813e+02	-3.366309e+01
6.003288e+02	-3.370464e+01
6.037963e+02	-3.376256e+01
6.072838e+02	-3.381372e+01
6.107914e+02	-3.385851e+01
6.143194e+02	-3.391267e+01
6.178676e+02	-3.396453e+01
6.214364e+02	-3.401335e+01
6.250258e+02	-3.406538e+01
6.286359e+02	-3.410820e+01
6.322669e+02	-3.416583e+01
6.359189e+02	-3.420990e+01
6.395919e+02	-3.425516e+01
6.432862e+02	-3.431690e+01
6.470017e+02	-3.436090e+01
6.507388e+02	-3.441198e+01
6.544974e+02	-3.445981e+01
6.582778e+02	-3.451451e+01
6.620800e+02	-3.456727e+01
6.659041e+02	-3.460794e+01
6.697504e+02	-3.465888e+01
6.736188e+02	-3.471676e+01
6.775096e+02	-3.477127e+01
6.814229e+02	-3.481171e+01
6.853587e+02	-3.487011e+01
6.893173e+02	-3.491744e+01
6.932988e+02	-3.498158e+01
6.973033e+02	-3.502409e+01
7.013309e+02	-3.508005e+01
