Frequency(Hz)	Magnitude(dB)
1.000000e+01	-2.079060e+00
1.005776e+01	-2.098277e+00
1.011585e+01	-2.117214e+00
1.017428e+01	-2.136693e+00
1.023305e+01	-2.156329e+00
1.029215e+01	-2.175849e+00
1.035160e+01	-2.195654e+00
1.041139e+01	-2.215802e+00
1.047153e+01	-2.235683e+00
1.053201e+01	-2.255772e+00
1.059284e+01	-2.276151e+00
1.065403e+01	-2.296842e+00
1.071556e+01	-2.317166e+00
1.077746e+01	-2.338107e+00
1.083971e+01	-2.358979e+00
1.090232e+01	-2.379838e+00
1.096529e+01	-2.401075e+00
1.102862e+01	-2.422496e+00
1.109232e+01	-2.443893e+00
1.115639e+01	-2.465428e+00
1.122083e+01	-2.487203e+00
1.128564e+01	-2.509064e+00
1.135083e+01	-2.531173e+00
1.141639e+01	-2.553500e+00
1.148233e+01	-2.575612e+00
1.154865e+01	-2.598310e+00
1.161536e+01	-2.620735e+00
1.168245e+01	-2.643644e+00
1.174992e+01	-2.666434e+00
1.181779e+01	-2.689380e+00
1.188605e+01	-2.712338e+00
1.195470e+01	-2.735623e+00
1.202375e+01	-2.759298e+00
1.209320e+01	-2.782893e+00
1.216305e+01	-2.806742e+00
1.223330e+01	-2.830408e+00
1.230396e+01	-2.854817e+00
1.237503e+01	-2.878704e+00
1.244651e+01	-2.902828e+00
1.251840e+01	-2.927316e+00
1.259070e+01	-2.952067e+00
1.266343e+01	-2.976699e+00
1.273657e+01	-3.001760e+00
1.281014e+01	-3.026800e+00
1.288413e+01	-3.052003e+00
1.295855e+01	-3.077184e+00
1.303339e+01	-3.102855e+00
1.310867e+01	-3.128346e+00
1.318439e+01	-3.154171e+00
1.326054e+01	-3.180108e+00
1.333713e+01	-3.206089e+00
1.341417e+01	-3.232054e+00
1.349165e+01	-3.258444e+00
1.356958e+01	-3.285098e+00
1.364795e+01	-3.311823e+00
1.372678e+01	-3.338273e+00
1.380607e+01	-3.365264e+00
1.388581e+01	-3.392557e+00
1.396602e+01	-3.419442e+00
1.404668e+01	-3.447024e+00
1.412782e+01	-3.474235e+00
1.420942e+01	-3.501795e+00
1.429149e+01	-3.529629e+00
1.437404e+01	-3.557697e+00
1.445706e+01	-3.585443e+00
1.454057e+01	-3.613839e+00
1.462455e+01	-3.642149e+00
1.470902e+01	-3.670550e+00
1.479398e+01	-3.699395e+00
1.487943e+01	-3.727924e+00
1.496537e+01	-3.756917e+00
1.505181e+01	-3.785994e+00
1.513875e+01	-3.815193e+00
1.522619e+01	-3.844438e+00
1.531414e+01	-3.873620e+00
1.540259e+01	-3.903471e+00
1.549156e+01	-3.933031e+00
1.558103e+01	-3.963098e+00
1.567103e+01	-3.993245e+00
1.576155e+01	-4.022970e+00
1.585258e+01	-4.053489e+00
1.594415e+01	-4.083858e+00
1.603624e+01	-4.114338e+00
1.612886e+01	-4.145301e+00
1.622202e+01	-4.175953e+00
1.631572e+01	-4.206917e+00
1.640996e+01	-4.237964e+00
1.650474e+01	-4.269386e+00
1.660008e+01	-4.300579e+00
1.669596e+01	-4.332472e+00
1.679239e+01	-4.363862e+00
1.688938e+01	-4.395397e+00
1.698694e+01	-4.427548e+00
1.708505e+01	-4.459646e+00
1.718373e+01	-4.491825e+00
1.728299e+01	-4.524115e+00
1.738281e+01	-4.556363e+00
1.748322e+01	-4.589055e+00
1.758420e+01	-4.621968e+00
1.768576e+01	-4.654458e+00
1.778792e+01	-4.687501e+00
1.789066e+01	-4.720605e+00
1.799399e+01	-4.754108e+00
1.809793e+01	-4.787158e+00
1.820246e+01	-4.820889e+00
1.830760e+01	-4.854190e+00
1.841334e+01	-4.887646e+00
1.851969e+01	-4.922001e+00
1.862666e+01	-4.955693e+00
1.873425e+01	-4.989829e+00
1.884246e+01	-5.024016e+00
1.895129e+01	-5.058724e+00
1.906075e+01	-5.093042e+00
1.917085e+01	-5.127647e+00
1.928158e+01	-5.162204e+00
1.939295e+01	-5.197261e+00
1.950496e+01	-5.231833e+00
1.961762e+01	-5.267113e+00
1.973093e+01	-5.302542e+00
1.984490e+01	-5.337901e+00
1.995952e+01	-5.373347e+00
2.007480e+01	-5.408471e+00
2.019076e+01	-5.444332e+00
2.030738e+01	-5.480284e+00
2.042467e+01	-5.516156e+00
2.054264e+01	-5.552322e+00
2.066130e+01	-5.588440e+00
2.078064e+01	-5.624753e+00
2.090066e+01	-5.660966e+00
2.102139e+01	-5.697491e+00
2.114280e+01	-5.734099e+00
2.126492e+01	-5.770824e+00
2.138775e+01	-5.807876e+00
2.151128e+01	-5.844574e+00
2.163553e+01	-5.881542e+00
2.176050e+01	-5.918923e+00
2.188619e+01	-5.956243e+00
2.201260e+01	-5.993664e+00
2.213974e+01	-6.030887e+00
2.226762e+01	-6.068840e+00
2.239624e+01	-6.106490e+00
2.252560e+01	-6.144604e+00
2.265571e+01	-6.182089e+00
2.278656e+01	-6.220013e+00
2.291818e+01	-6.258225e+00
2.305055e+01	-6.296860e+00
2.318369e+01	-6.334963e+00
2.331760e+01	-6.373458e+00
2.345228e+01	-6.411427e+00
2.358774e+01	-6.450458e+00
2.372398e+01	-6.488755e+00
2.386101e+01	-6.527871e+00
2.399883e+01	-6.567374e+00
2.413745e+01	-6.606255e+00
2.427686e+01	-6.645470e+00
2.441709e+01	-6.684523e+00
2.455812e+01	-6.723947e+00
2.469997e+01	-6.763339e+00
2.484263e+01	-6.802500e+00
2.498612e+01	-6.842177e+00
2.513044e+01	-6.882638e+00
2.527559e+01	-6.921961e+00
2.542158e+01	-6.961663e+00
2.556842e+01	-7.001844e+00
2.571610e+01	-7.042049e+00
2.586463e+01	-7.082095e+00
2.601403e+01	-7.122962e+00
2.616428e+01	-7.162900e+00
2.631541e+01	-7.203300e+00
2.646740e+01	-7.243798e+00
2.662028e+01	-7.284142e+00
2.677404e+01	-7.324875e+00
2.692868e+01	-7.366061e+00
2.708422e+01	-7.406645e+00
2.724066e+01	-7.447504e+00
2.739800e+01	-7.488649e+00
2.755625e+01	-7.529900e+00
2.771541e+01	-7.571175e+00
2.787550e+01	-7.612215e+00
2.803650e+01	-7.654236e+00
2.819844e+01	-7.695646e+00
2.836131e+01	-7.736828e+00
2.852513e+01	-7.778701e+00
2.868989e+01	-7.820696e+00
2.885560e+01	-7.862434e+00
2.902227e+01	-7.904147e+00
2.918990e+01	-7.946256e+00
2.935850e+01	-7.987877e+00
2.952807e+01	-8.030108e+00
2.969863e+01	-8.072816e+00
2.987016e+01	-8.114672e+00
3.004269e+01	-8.156543e+00
3.021622e+01	-8.199595e+00
3.039075e+01	-8.241929e+00
3.056628e+01	-8.284521e+00
3.074283e+01	-8.327038e+00
3.092040e+01	-8.369562e+00
3.109900e+01	-8.412605e+00
3.127862e+01	-8.455219e+00
3.145929e+01	-8.498690e+00
3.164099e+01	-8.541652e+00
3.182375e+01	-8.584385e+00
3.200756e+01	-8.627890e+00
3.219244e+01	-8.671032e+00
3.237838e+01	-8.713952e+00
3.256540e+01	-8.757357e+00
3.275349e+01	-8.800733e+00
3.294268e+01	-8.844366e+00
3.313295e+01	-8.887891e+00
3.332433e+01	-8.931243e+00
3.351681e+01	-8.974688e+00
3.371040e+01	-9.018330e+00
3.390511e+01	-9.062100e+00
3.410094e+01	-9.106317e+00
3.429791e+01	-9.149874e+00
3.449601e+01	-9.194078e+00
3.469526e+01	-9.237963e+00
3.489566e+01	-9.282058e+00
3.509721e+01	-9.326437e+00
3.529993e+01	-9.370593e+00
3.550382e+01	-9.415202e+00
3.570889e+01	-9.459378e+00
3.591515e+01	-9.503787e+00
3.612259e+01	-9.547980e+00
3.633123e+01	-9.592822e+00
3.654108e+01	-9.637400e+00
3.675214e+01	-9.682119e+00
3.696442e+01	-9.726821e+00
3.717792e+01	-9.771058e+00
3.739266e+01	-9.815929e+00
3.760864e+01	-9.861055e+00
3.782587e+01	-9.905725e+00
3.804435e+01	-9.950344e+00
3.826409e+01	-9.995936e+00
3.848510e+01	-1.004066e+01
3.870739e+01	-1.008571e+01
3.893096e+01	-1.013074e+01
3.915583e+01	-1.017567e+01
3.938199e+01	-1.022157e+01
3.960946e+01	-1.026670e+01
3.983824e+01	-1.031204e+01
4.006834e+01	-1.035761e+01
4.029978e+01	-1.040300e+01
4.053255e+01	-1.044808e+01
4.076666e+01	-1.049396e+01
4.100213e+01	-1.053938e+01
4.123896e+01	-1.058507e+01
4.147715e+01	-1.063110e+01
4.171672e+01	-1.067679e+01
4.195767e+01	-1.072237e+01
4.220002e+01	-1.076826e+01
4.244377e+01	-1.081409e+01
4.268892e+01	-1.085998e+01
4.293549e+01	-1.090555e+01
4.318348e+01	-1.095238e+01
4.343291e+01	-1.099821e+01
4.368377e+01	-1.104382e+01
4.393609e+01	-1.109059e+01
4.418986e+01	-1.113619e+01
4.444510e+01	-1.118237e+01
4.470182e+01	-1.122865e+01
4.496001e+01	-1.127436e+01
4.521970e+01	-1.132077e+01
4.548089e+01	-1.136826e+01
4.574358e+01	-1.141382e+01
4.600779e+01	-1.146027e+01
4.627353e+01	-1.150661e+01
4.654081e+01	-1.155361e+01
4.680963e+01	-1.160039e+01
4.708000e+01	-1.164605e+01
4.735193e+01	-1.169355e+01
4.762543e+01	-1.173983e+01
4.790051e+01	-1.178611e+01
4.817719e+01	-1.183305e+01
4.845545e+01	-1.187979e+01
4.873533e+01	-1.192661e+01
4.901682e+01	-1.197372e+01
4.929994e+01	-1.201987e+01
4.958470e+01	-1.206736e+01
4.987110e+01	-1.211365e+01
5.015915e+01	-1.216135e+01
5.044887e+01	-1.220820e+01
5.074026e+01	-1.225489e+01
5.103333e+01	-1.230232e+01
5.132810e+01	-1.234980e+01
5.162457e+01	-1.239735e+01
5.192275e+01	-1.244401e+01
5.222265e+01	-1.249064e+01
5.252429e+01	-1.253806e+01
5.282767e+01	-1.258558e+01
5.313280e+01	-1.263196e+01
5.343969e+01	-1.268000e+01
5.374836e+01	-1.272723e+01
5.405880e+01	-1.277429e+01
5.437105e+01	-1.282341e+01
5.468509e+01	-1.286945e+01
5.500095e+01	-1.291693e+01
5.531863e+01	-1.296423e+01
5.563815e+01	-1.301216e+01
5.595951e+01	-1.305968e+01
5.628273e+01	-1.310699e+01
5.660782e+01	-1.315503e+01
5.693479e+01	-1.320297e+01
5.726364e+01	-1.324984e+01
5.759439e+01	-1.329756e+01
5.792705e+01	-1.334522e+01
5.826164e+01	-1.339377e+01
5.859815e+01	-1.344038e+01
5.893662e+01	-1.348852e+01
5.927703e+01	-1.353553e+01
5.961941e+01	-1.358401e+01
5.996377e+01	-1.363298e+01
6.031012e+01	-1.367988e+01
6.065847e+01	-1.372810e+01
6.100883e+01	-1.377614e+01
6.136121e+01	-1.382354e+01
6.171563e+01	-1.387133e+01
6.207210e+01	-1.391989e+01
6.243063e+01	-1.396806e+01
6.279122e+01	-1.401494e+01
6.315390e+01	-1.406418e+01
6.351868e+01	-1.411166e+01
6.388556e+01	-1.416016e+01
6.425456e+01	-1.420845e+01
6.462569e+01	-1.425628e+01
6.499897e+01	-1.430394e+01
6.537440e+01	-1.435260e+01
6.575200e+01	-1.440076e+01
6.613178e+01	-1.444884e+01
6.651375e+01	-1.449709e+01
6.689793e+01	-1.454522e+01
6.728433e+01	-1.459397e+01
6.767297e+01	-1.464193e+01
6.806384e+01	-1.468974e+01
6.845698e+01	-1.473927e+01
6.885238e+01	-1.478690e+01
6.925007e+01	-1.483467e+01
6.965005e+01	-1.488371e+01
7.005235e+01	-1.493242e+01
7.045697e+01	-1.498084e+01
7.086393e+01	-1.502918e+01
7.127323e+01	-1.507755e+01
7.168490e+01	-1.512525e+01
7.209895e+01	-1.517504e+01
7.251539e+01	-1.522300e+01
7.293424e+01	-1.527142e+01
7.335551e+01	-1.531959e+01
7.377920e+01	-1.536873e+01
7.420535e+01	-1.541779e+01
7.463396e+01	-1.546541e+01
7.506504e+01	-1.551492e+01
7.549861e+01	-1.556421e+01
7.593469e+01	-1.561183e+01
7.637328e+01	-1.566002e+01
7.681441e+01	-1.570848e+01
7.725809e+01	-1.575757e+01
7.770433e+01	-1.580639e+01
7.815315e+01	-1.585547e+01
7.860456e+01	-1.590377e+01
7.905857e+01	-1.595212e+01
7.951521e+01	-1.600094e+01
7.997449e+01	-1.605133e+01
8.043642e+01	-1.609943e+01
8.090102e+01	-1.614795e+01
8.136830e+01	-1.619743e+01
8.183828e+01	-1.624588e+01
8.231097e+01	-1.629491e+01
8.278640e+01	-1.634332e+01
8.326457e+01	-1.639154e+01
8.374550e+01	-1.644124e+01
8.422921e+01	-1.648854e+01
8.471572e+01	-1.653950e+01
8.520503e+01	-1.658851e+01
8.569717e+01	-1.663575e+01
8.619215e+01	-1.668472e+01
8.669000e+01	-1.673391e+01
8.719071e+01	-1.678459e+01
8.769432e+01	-1.683363e+01
8.820084e+01	-1.688181e+01
8.871029e+01	-1.693091e+01
8.922267e+01	-1.697910e+01
8.973802e+01	-1.702918e+01
9.025634e+01	-1.707825e+01
9.077766e+01	-1.712845e+01
9.130199e+01	-1.717651e+01
9.182935e+01	-1.722450e+01
9.235975e+01	-1.727295e+01
9.289321e+01	-1.732402e+01
9.342976e+01	-1.737220e+01
9.396941e+01	-1.742134e+01
9.451217e+01	-1.747044e+01
9.505807e+01	-1.751931e+01
9.560712e+01	-1.756925e+01
9.615934e+01	-1.761816e+01
9.671476e+01	-1.766724e+01
9.727338e+01	-1.771662e+01
9.783522e+01	-1.776547e+01
9.840032e+01	-1.781388e+01
9.896867e+01	-1.786305e+01
9.954031e+01	-1.791378e+01
1.001153e+02	-1.796191e+01
1.006935e+02	-1.801162e+01
1.012751e+02	-1.806084e+01
1.018601e+02	-1.811064e+01
1.024484e+02	-1.815899e+01
1.030402e+02	-1.820778e+01
1.036353e+02	-1.825861e+01
1.042339e+02	-1.830703e+01
1.048360e+02	-1.835695e+01
1.054415e+02	-1.840477e+01
1.060505e+02	-1.845512e+01
1.066631e+02	-1.850459e+01
1.072791e+02	-1.855380e+01
1.078988e+02	-1.860267e+01
1.085220e+02	-1.865264e+01
1.091488e+02	-1.870205e+01
1.097793e+02	-1.875175e+01
1.104133e+02	-1.880019e+01
1.110511e+02	-1.884978e+01
1.116925e+02	-1.889952e+01
1.123376e+02	-1.895036e+01
1.129865e+02	-1.899739e+01
1.136391e+02	-1.904717e+01
1.142955e+02	-1.909774e+01
1.149556e+02	-1.914697e+01
1.156196e+02	-1.919523e+01
1.162874e+02	-1.924340e+01
1.169591e+02	-1.929529e+01
1.176347e+02	-1.934368e+01
1.183141e+02	-1.939376e+01
1.189975e+02	-1.944289e+01
1.196848e+02	-1.949327e+01
1.203761e+02	-1.954113e+01
1.210714e+02	-1.959046e+01
1.217707e+02	-1.964076e+01
1.224740e+02	-1.968980e+01
1.231814e+02	-1.973992e+01
1.238929e+02	-1.978960e+01
1.246085e+02	-1.983853e+01
1.253283e+02	-1.988772e+01
1.260522e+02	-1.993720e+01
1.267802e+02	-1.998677e+01
1.275125e+02	-2.003598e+01
1.282490e+02	-2.008558e+01
1.289898e+02	-2.013654e+01
1.297348e+02	-2.018531e+01
1.304842e+02	-2.023624e+01
1.312378e+02	-2.028521e+01
1.319959e+02	-2.033519e+01
1.327583e+02	-2.038431e+01
1.335251e+02	-2.043287e+01
1.342963e+02	-2.048474e+01
1.350720e+02	-2.053342e+01
1.358522e+02	-2.058327e+01
1.366368e+02	-2.063097e+01
1.374260e+02	-2.068030e+01
1.382198e+02	-2.073139e+01
1.390182e+02	-2.078008e+01
1.398211e+02	-2.082828e+01
1.406287e+02	-2.087926e+01
1.414410e+02	-2.092841e+01
1.422579e+02	-2.097897e+01
1.430796e+02	-2.102905e+01
1.439060e+02	-2.107855e+01
1.447372e+02	-2.112823e+01
1.455732e+02	-2.117699e+01
1.464141e+02	-2.122912e+01
1.472597e+02	-2.127657e+01
1.481103e+02	-2.132748e+01
1.489658e+02	-2.137442e+01
1.498262e+02	-2.142445e+01
1.506916e+02	-2.147530e+01
1.515620e+02	-2.152537e+01
1.524374e+02	-2.157575e+01
1.533179e+02	-2.162289e+01
1.542034e+02	-2.167585e+01
1.550941e+02	-2.172363e+01
1.559899e+02	-2.177441e+01
1.568909e+02	-2.182440e+01
1.577971e+02	-2.187212e+01
1.587085e+02	-2.192286e+01
1.596252e+02	-2.197309e+01
1.605472e+02	-2.202268e+01
1.614745e+02	-2.207041e+01
1.624072e+02	-2.212229e+01
1.633453e+02	-2.217025e+01
1.642887e+02	-2.222026e+01
1.652377e+02	-2.227257e+01
1.661921e+02	-2.232028e+01
1.671520e+02	-2.237234e+01
1.681175e+02	-2.241896e+01
1.690885e+02	-2.247257e+01
1.700651e+02	-2.251843e+01
1.710474e+02	-2.256878e+01
1.720354e+02	-2.261854e+01
1.730291e+02	-2.266993e+01
1.740285e+02	-2.272026e+01
1.750337e+02	-2.276992e+01
1.760446e+02	-2.281897e+01
1.770615e+02	-2.286833e+01
1.780842e+02	-2.291696e+01
1.791128e+02	-2.296894e+01
1.801473e+02	-2.301849e+01
1.811878e+02	-2.306782e+01
1.822344e+02	-2.311941e+01
1.832870e+02	-2.316656e+01
1.843456e+02	-2.321630e+01
1.854104e+02	-2.326766e+01
1.864813e+02	-2.331604e+01
1.875584e+02	-2.336439e+01
1.886418e+02	-2.341607e+01
1.897313e+02	-2.346498e+01
1.908272e+02	-2.351676e+01
1.919294e+02	-2.356692e+01
1.930380e+02	-2.361801e+01
1.941530e+02	-2.366368e+01
1.952744e+02	-2.371634e+01
1.964023e+02	-2.376639e+01
1.975367e+02	-2.381649e+01
1.986777e+02	-2.386417e+01
1.998252e+02	-2.391377e+01
2.009794e+02	-2.396506e+01
2.021403e+02	-2.401560e+01
2.033078e+02	-2.406430e+01
2.044821e+02	-2.411267e+01
2.056632e+02	-2.416310e+01
2.068511e+02	-2.421476e+01
2.080459e+02	-2.426533e+01
2.092475e+02	-2.431354e+01
2.104561e+02	-2.436226e+01
2.116717e+02	-2.441142e+01
2.128943e+02	-2.446393e+01
2.141240e+02	-2.451428e+01
2.153608e+02	-2.456138e+01
2.166047e+02	-2.461403e+01
2.178558e+02	-2.466211e+01
2.191141e+02	-2.471483e+01
2.203797e+02	-2.476232e+01
2.216526e+02	-2.481226e+01
2.229329e+02	-2.486066e+01
2.242205e+02	-2.491207e+01
2.255156e+02	-2.496424e+01
2.268182e+02	-2.500974e+01
2.281283e+02	-2.505911e+01
2.294459e+02	-2.511227e+01
2.307712e+02	-2.516235e+01
2.321041e+02	-2.521443e+01
2.334447e+02	-2.526085e+01
2.347931e+02	-2.531135e+01
2.361493e+02	-2.536138e+01
2.375133e+02	-2.540984e+01
2.388851e+02	-2.546300e+01
2.402649e+02	-2.551206e+01
2.416527e+02	-2.556254e+01
2.430484e+02	-2.561016e+01
2.444523e+02	-2.565955e+01
2.458642e+02	-2.570858e+01
2.472843e+02	-2.576191e+01
2.487126e+02	-2.581029e+01
2.501492e+02	-2.586141e+01
2.515940e+02	-2.591304e+01
2.530472e+02	-2.595922e+01
2.545088e+02	-2.600884e+01
2.559789e+02	-2.605871e+01
2.574574e+02	-2.611055e+01
2.589444e+02	-2.615986e+01
2.604401e+02	-2.620967e+01
2.619444e+02	-2.626135e+01
2.634574e+02	-2.630839e+01
2.649791e+02	-2.636004e+01
2.665096e+02	-2.640774e+01
2.680489e+02	-2.645817e+01
2.695972e+02	-2.650905e+01
2.711544e+02	-2.656372e+01
2.727205e+02	-2.661188e+01
2.742958e+02	-2.665960e+01
2.758801e+02	-2.671030e+01
2.774736e+02	-2.675653e+01
2.790762e+02	-2.680765e+01
2.806882e+02	-2.686083e+01
2.823094e+02	-2.690811e+01
2.839400e+02	-2.696331e+01
2.855800e+02	-2.701154e+01
2.872295e+02	-2.705881e+01
2.888886e+02	-2.711086e+01
2.905572e+02	-2.716198e+01
2.922354e+02	-2.721188e+01
2.939234e+02	-2.725745e+01
2.956211e+02	-2.731005e+01
2.973286e+02	-2.735952e+01
2.990459e+02	-2.740925e+01
3.007732e+02	-2.746092e+01
3.025104e+02	-2.750732e+01
3.042577e+02	-2.756216e+01
3.060151e+02	-2.760919e+01
3.077826e+02	-2.765820e+01
3.095604e+02	-2.771283e+01
3.113484e+02	-2.775968e+01
3.131467e+02	-2.781039e+01
3.149554e+02	-2.785931e+01
3.167746e+02	-2.790934e+01
3.186043e+02	-2.795452e+01
3.204445e+02	-2.800914e+01
3.222954e+02	-2.806194e+01
3.241570e+02	-2.811013e+01
3.260293e+02	-2.815494e+01
3.279124e+02	-2.820869e+01
3.298064e+02	-2.825761e+01
3.317114e+02	-2.830434e+01
3.336273e+02	-2.836174e+01
3.355544e+02	-2.840829e+01
3.374925e+02	-2.845903e+01
3.394418e+02	-2.851149e+01
3.414024e+02	-2.855909e+01
3.433744e+02	-2.861235e+01
3.453577e+02	-2.866081e+01
3.473525e+02	-2.870943e+01
3.493588e+02	-2.876447e+01
3.513766e+02	-2.881348e+01
3.534062e+02	-2.886112e+01
3.554474e+02	-2.891184e+01
3.575005e+02	-2.895784e+01
3.595654e+02	-2.901132e+01
3.616422e+02	-2.905985e+01
3.637311e+02	-2.910943e+01
3.658320e+02	-2.915906e+01
3.679450e+02	-2.921101e+01
3.700702e+02	-2.925909e+01
3.722077e+02	-2.931120e+01
3.743576e+02	-2.936018e+01
3.765199e+02	-2.941226e+01
3.786946e+02	-2.945719e+01
3.808820e+02	-2.950591e+01
3.830819e+02	-2.955927e+01
3.852946e+02	-2.960514e+01
3.875200e+02	-2.966874e+01
3.897583e+02	-2.971333e+01
3.920096e+02	-2.976242e+01
3.942738e+02	-2.981196e+01
3.965511e+02	-2.985682e+01
3.988416e+02	-2.991476e+01
4.011452e+02	-2.996228e+01
4.034622e+02	-3.001368e+01
4.057926e+02	-3.006242e+01
4.081365e+02	-3.011101e+01
4.104938e+02	-3.016046e+01
4.128648e+02	-3.020870e+01
4.152495e+02	-3.025829e+01
4.176480e+02	-3.030858e+01
4.200603e+02	-3.036735e+01
4.224866e+02	-3.041726e+01
4.249268e+02	-3.046008e+01
4.273812e+02	-3.051993e+01
4.298497e+02	-3.056208e+01
4.323325e+02	-3.061388e+01
4.348297e+02	-3.065675e+01
4.373412e+02	-3.071283e+01
4.398673e+02	-3.076132e+01
4.424079e+02	-3.080987e+01
4.449633e+02	-3.086395e+01
4.475334e+02	-3.090831e+01
4.501183e+02	-3.096209e+01
4.527182e+02	-3.101936e+01
4.553330e+02	-3.105590e+01
4.579630e+02	-3.111925e+01
4.606082e+02	-3.116770e+01
4.632687e+02	-3.121604e+01
4.659445e+02	-3.126568e+01
4.686358e+02	-3.131784e+01
4.713426e+02	-3.136052e+01
4.740650e+02	-3.141525e+01
4.768032e+02	-3.146849e+01
4.795572e+02	-3.151817e+01
4.823271e+02	-3.156585e+01
4.851130e+02	-3.161941e+01
4.879150e+02	-3.166723e+01
4.907332e+02	-3.171442e+01
4.935676e+02	-3.176987e+01
4.964185e+02	-3.181296e+01
4.992858e+02	-3.187247e+01
5.021696e+02	-3.191012e+01
5.050701e+02	-3.197001e+01
5.079874e+02	-3.201336e+01
5.109215e+02	-3.206345e+01
5.138726e+02	-3.211963e+01
5.168407e+02	-3.216458e+01
5.198259e+02	-3.221441e+01
5.228284e+02	-3.226575e+01
5.258482e+02	-3.231907e+01
5.288855e+02	-3.237083e+01
5.319403e+02	-3.241704e+01
5.350128e+02	-3.247190e+01
5.381030e+02	-3.251829e+01
5.412111e+02	-3.256503e+01
5.443371e+02	-3.262551e+01
5.474812e+02	-3.266973e+01
5.506434e+02	-3.271892e+01
5.538239e+02	-3.277441e+01
5.570228e+02	-3.281436e+01
5.602401e+02	-3.286904e+01
5.634760e+02	-3.292398e+01
5.667306e+02	-3.296704e+01
5.700040e+02	-3.301933e+01
5.732964e+02	-3.307046e+01
5.766077e+02	-3.312516e+01
5.799382e+02	-3.317966e+01
5.832879e+02	-3.321728e+01
5.866569e+02	-3.326791e+01
5.900454e+02	-3.332284e+01
5.934535e+02	-3.336596e+01
5.968813e+02	-3.342629e+01
6.003288e+02	-3.347589e+01
6.037963e+02	-3.352916e+01
6.072838e+02	-3.357689e+01
6.107914e+02	-3.361978e+01
6.143194e+02	-3.367333e+01
6.178676e+02	-3.372390e+01
6.214364e+02	-3.376707e+01
6.250258e+02	-3.382167e+01
6.286359e+02	-3.387727e+01
6.322669e+02	-3.392149e+01
6.359189e+02	-3.397277e+01
6.395919e+02	-3.402293e+01
6.432862e+02	-3.407635e+01
6.470017e+02	-3.413340e+01
6.507388e+02	-3.417161e+01
6.544974e+02	-3.423151e+01
6.582778e+02	-3.427731e+01
6.620800e+02	-3.432728e+01
6.659041e+02	-3.437436e+01
6.697504e+02	-3.442717e+01
6.736188e+02	-3.447484e+01
6.775096e+02	-3.453101e+01
6.814229e+02	-3.457986e+01
6.853587e+02	-3.463661e+01
6.893173e+02	-3.468434e+01
6.932988e+02	-3.473105e+01
6.973033e+02	-3.477765e+01
7.013309e+02	-3.482239e+01
