Frequency(Hz)	Magnitude(dB)
1.000000e+01	-2.252419e+00
1.005776e+01	-2.272948e+00
1.011585e+01	-2.293356e+00
1.017428e+01	-2.314009e+00
1.023305e+01	-2.334635e+00
1.029215e+01	-2.355396e+00
1.035160e+01	-2.376487e+00
1.041139e+01	-2.397653e+00
1.047153e+01	-2.419104e+00
1.053201e+01	-2.440554e+00
1.059284e+01	-2.462021e+00
1.065403e+01	-2.483505e+00
1.071556e+01	-2.505590e+00
1.077746e+01	-2.527723e+00
1.083971e+01	-2.549680e+00
1.090232e+01	-2.571996e+00
1.096529e+01	-2.594407e+00
1.102862e+01	-2.617043e+00
1.109232e+01	-2.639608e+00
1.115639e+01	-2.662319e+00
1.122083e+01	-2.685403e+00
1.128564e+01	-2.708733e+00
1.135083e+01	-2.732078e+00
1.141639e+01	-2.755607e+00
1.148233e+01	-2.778986e+00
1.154865e+01	-2.802542e+00
1.161536e+01	-2.826509e+00
1.168245e+01	-2.850483e+00
1.174992e+01	-2.874727e+00
1.181779e+01	-2.898831e+00
1.188605e+01	-2.923308e+00
1.195470e+01	-2.948109e+00
1.202375e+01	-2.972606e+00
1.209320e+01	-2.997644e+00
1.216305e+01	-3.022806e+00
1.223330e+01	-3.047773e+00
1.230396e+01	-3.073332e+00
1.237503e+01	-3.098553e+00
1.244651e+01	-3.124178e+00
1.251840e+01	-3.149950e+00
1.259070e+01	-3.175654e+00
1.266343e+01	-3.201791e+00
1.273657e+01	-3.227749e+00
1.281014e+01	-3.253969e+00
1.288413e+01	-3.280545e+00
1.295855e+01	-3.307344e+00
1.303339e+01	-3.334051e+00
1.310867e+01	-3.361101e+00
1.318439e+01	-3.387708e+00
1.326054e+01	-3.414965e+00
1.333713e+01	-3.442430e+00
1.341417e+01	-3.469808e+00
1.349165e+01	-3.497477e+00
1.356958e+01	-3.525059e+00
1.364795e+01	-3.553015e+00
1.372678e+01	-3.581149e+00
1.380607e+01	-3.609343e+00
1.388581e+01	-3.637136e+00
1.396602e+01	-3.665861e+00
1.404668e+01	-3.694520e+00
1.412782e+01	-3.723394e+00
1.420942e+01	-3.751997e+00
1.429149e+01	-3.781073e+00
1.437404e+01	-3.810315e+00
1.445706e+01	-3.839348e+00
1.454057e+01	-3.869168e+00
1.462455e+01	-3.898422e+00
1.470902e+01	-3.928313e+00
1.479398e+01	-3.958051e+00
1.487943e+01	-3.988178e+00
1.496537e+01	-4.018179e+00
1.505181e+01	-4.048581e+00
1.513875e+01	-4.078760e+00
1.522619e+01	-4.109338e+00
1.531414e+01	-4.140349e+00
1.540259e+01	-4.171053e+00
1.549156e+01	-4.201753e+00
1.558103e+01	-4.233041e+00
1.567103e+01	-4.264253e+00
1.576155e+01	-4.295815e+00
1.585258e+01	-4.327051e+00
1.594415e+01	-4.358591e+00
1.603624e+01	-4.390421e+00
1.612886e+01	-4.422572e+00
1.622202e+01	-4.454400e+00
1.631572e+01	-4.486473e+00
1.640996e+01	-4.518955e+00
1.650474e+01	-4.551037e+00
1.660008e+01	-4.583808e+00
1.669596e+01	-4.616571e+00
1.679239e+01	-4.649612e+00
1.688938e+01	-4.681857e+00
1.698694e+01	-4.715477e+00
1.708505e+01	-4.748488e+00
1.718373e+01	-4.781582e+00
1.728299e+01	-4.815650e+00
1.738281e+01	-4.848726e+00
1.748322e+01	-4.882485e+00
1.758420e+01	-4.916019e+00
1.768576e+01	-4.950239e+00
1.778792e+01	-4.984334e+00
1.789066e+01	-5.018639e+00
1.799399e+01	-5.053148e+00
1.809793e+01	-5.087485e+00
1.820246e+01	-5.122012e+00
1.830760e+01	-5.156715e+00
1.841334e+01	-5.191774e+00
1.851969e+01	-5.226370e+00
1.862666e+01	-5.261778e+00
1.873425e+01	-5.296816e+00
1.884246e+01	-5.332148e+00
1.895129e+01	-5.367395e+00
1.906075e+01	-5.403186e+00
1.917085e+01	-5.438757e+00
1.928158e+01	-5.474545e+00
1.939295e+01	-5.510272e+00
1.950496e+01	-5.546343e+00
1.961762e+01	-5.582470e+00
1.973093e+01	-5.618705e+00
1.984490e+01	-5.655247e+00
1.995952e+01	-5.691820e+00
2.007480e+01	-5.728426e+00
2.019076e+01	-5.764910e+00
2.030738e+01	-5.802017e+00
2.042467e+01	-5.838472e+00
2.054264e+01	-5.875558e+00
2.066130e+01	-5.912722e+00
2.078064e+01	-5.950245e+00
2.090066e+01	-5.987447e+00
2.102139e+01	-6.024937e+00
2.114280e+01	-6.062894e+00
2.126492e+01	-6.100324e+00
2.138775e+01	-6.137821e+00
2.151128e+01	-6.175943e+00
2.163553e+01	-6.213841e+00
2.176050e+01	-6.251979e+00
2.188619e+01	-6.290046e+00
2.201260e+01	-6.328891e+00
2.213974e+01	-6.367197e+00
2.226762e+01	-6.405665e+00
2.239624e+01	-6.444426e+00
2.252560e+01	-6.483262e+00
2.265571e+01	-6.521725e+00
2.278656e+01	-6.560823e+00
2.291818e+01	-6.599887e+00
2.305055e+01	-6.638917e+00
2.318369e+01	-6.678355e+00
2.331760e+01	-6.717411e+00
2.345228e+01	-6.756865e+00
2.358774e+01	-6.796065e+00
2.372398e+01	-6.835844e+00
2.386101e+01	-6.875782e+00
2.399883e+01	-6.915261e+00
2.413745e+01	-6.955410e+00
2.427686e+01	-6.995106e+00
2.441709e+01	-7.035345e+00
2.455812e+01	-7.075557e+00
2.469997e+01	-7.116194e+00
2.484263e+01	-7.156260e+00
2.498612e+01	-7.196484e+00
2.513044e+01	-7.237323e+00
2.527559e+01	-7.277566e+00
2.542158e+01	-7.318678e+00
2.556842e+01	-7.359305e+00
2.571610e+01	-7.400318e+00
2.586463e+01	-7.441320e+00
2.601403e+01	-7.482179e+00
2.616428e+01	-7.522991e+00
2.631541e+01	-7.564657e+00
2.646740e+01	-7.605918e+00
2.662028e+01	-7.647041e+00
2.677404e+01	-7.688793e+00
2.692868e+01	-7.730285e+00
2.708422e+01	-7.771376e+00
2.724066e+01	-7.813669e+00
2.739800e+01	-7.855397e+00
2.755625e+01	-7.897531e+00
2.771541e+01	-7.939357e+00
2.787550e+01	-7.981236e+00
2.803650e+01	-8.023606e+00
2.819844e+01	-8.065378e+00
2.836131e+01	-8.108043e+00
2.852513e+01	-8.150081e+00
2.868989e+01	-8.192289e+00
2.885560e+01	-8.235161e+00
2.902227e+01	-8.277496e+00
2.918990e+01	-8.320121e+00
2.935850e+01	-8.362908e+00
2.952807e+01	-8.405785e+00
2.969863e+01	-8.448322e+00
2.987016e+01	-8.491417e+00
3.004269e+01	-8.533971e+00
3.021622e+01	-8.577331e+00
3.039075e+01	-8.620765e+00
3.056628e+01	-8.663241e+00
3.074283e+01	-8.707176e+00
3.092040e+01	-8.750400e+00
3.109900e+01	-8.793910e+00
3.127862e+01	-8.837392e+00
3.145929e+01	-8.880343e+00
3.164099e+01	-8.923978e+00
3.182375e+01	-8.967974e+00
3.200756e+01	-9.011889e+00
3.219244e+01	-9.055093e+00
3.237838e+01	-9.099219e+00
3.256540e+01	-9.143151e+00
3.275349e+01	-9.187429e+00
3.294268e+01	-9.231243e+00
3.313295e+01	-9.274960e+00
3.332433e+01	-9.319362e+00
3.351681e+01	-9.363546e+00
3.371040e+01	-9.407755e+00
3.390511e+01	-9.452599e+00
3.410094e+01	-9.496114e+00
3.429791e+01	-9.540739e+00
3.449601e+01	-9.585540e+00
3.469526e+01	-9.629789e+00
3.489566e+01	-9.674558e+00
3.509721e+01	-9.719274e+00
3.529993e+01	-9.763843e+00
3.550382e+01	-9.809104e+00
3.570889e+01	-9.854445e+00
3.591515e+01	-9.898896e+00
3.612259e+01	-9.943571e+00
3.633123e+01	-9.987937e+00
3.654108e+01	-1.003354e+01
3.675214e+01	-1.007835e+01
3.696442e+01	-1.012338e+01
3.717792e+01	-1.016891e+01
3.739266e+01	-1.021404e+01
3.760864e+01	-1.025893e+01
3.782587e+01	-1.030484e+01
3.804435e+01	-1.035008e+01
3.826409e+01	-1.039569e+01
3.848510e+01	-1.044116e+01
3.870739e+01	-1.048672e+01
3.893096e+01	-1.053242e+01
3.915583e+01	-1.057760e+01
3.938199e+01	-1.062329e+01
3.960946e+01	-1.066896e+01
3.983824e+01	-1.071569e+01
4.006834e+01	-1.076089e+01
4.029978e+01	-1.080605e+01
4.053255e+01	-1.085231e+01
4.076666e+01	-1.089850e+01
4.100213e+01	-1.094397e+01
4.123896e+01	-1.099021e+01
4.147715e+01	-1.103680e+01
4.171672e+01	-1.108267e+01
4.195767e+01	-1.112875e+01
4.220002e+01	-1.117511e+01
4.244377e+01	-1.122064e+01
4.268892e+01	-1.126712e+01
4.293549e+01	-1.131389e+01
4.318348e+01	-1.135968e+01
4.343291e+01	-1.140617e+01
4.368377e+01	-1.145273e+01
4.393609e+01	-1.149942e+01
4.418986e+01	-1.154608e+01
4.444510e+01	-1.159264e+01
4.470182e+01	-1.163852e+01
4.496001e+01	-1.168559e+01
4.521970e+01	-1.173262e+01
4.548089e+01	-1.177896e+01
4.574358e+01	-1.182538e+01
4.600779e+01	-1.187242e+01
4.627353e+01	-1.191944e+01
4.654081e+01	-1.196614e+01
4.680963e+01	-1.201329e+01
4.708000e+01	-1.205956e+01
4.735193e+01	-1.210672e+01
4.762543e+01	-1.215376e+01
4.790051e+01	-1.220091e+01
4.817719e+01	-1.224761e+01
4.845545e+01	-1.229471e+01
4.873533e+01	-1.234146e+01
4.901682e+01	-1.238876e+01
4.929994e+01	-1.243638e+01
4.958470e+01	-1.248373e+01
4.987110e+01	-1.253009e+01
5.015915e+01	-1.257798e+01
5.044887e+01	-1.262539e+01
5.074026e+01	-1.267212e+01
5.103333e+01	-1.271946e+01
5.132810e+01	-1.276688e+01
5.162457e+01	-1.281427e+01
5.192275e+01	-1.286189e+01
5.222265e+01	-1.290963e+01
5.252429e+01	-1.295680e+01
5.282767e+01	-1.300465e+01
5.313280e+01	-1.305201e+01
5.343969e+01	-1.309994e+01
5.374836e+01	-1.314644e+01
5.405880e+01	-1.319460e+01
5.437105e+01	-1.324215e+01
5.468509e+01	-1.329012e+01
5.500095e+01	-1.333782e+01
5.531863e+01	-1.338557e+01
5.563815e+01	-1.343294e+01
5.595951e+01	-1.348115e+01
5.628273e+01	-1.352867e+01
5.660782e+01	-1.357619e+01
5.693479e+01	-1.362447e+01
5.726364e+01	-1.367218e+01
5.759439e+01	-1.371989e+01
5.792705e+01	-1.376784e+01
5.826164e+01	-1.381620e+01
5.859815e+01	-1.386415e+01
5.893662e+01	-1.391192e+01
5.927703e+01	-1.396044e+01
5.961941e+01	-1.400818e+01
5.996377e+01	-1.405625e+01
6.031012e+01	-1.410392e+01
6.065847e+01	-1.415226e+01
6.100883e+01	-1.420026e+01
6.136121e+01	-1.424824e+01
6.171563e+01	-1.429712e+01
6.207210e+01	-1.434480e+01
6.243063e+01	-1.439340e+01
6.279122e+01	-1.444081e+01
6.315390e+01	-1.448956e+01
6.351868e+01	-1.453744e+01
6.388556e+01	-1.458626e+01
6.425456e+01	-1.463369e+01
6.462569e+01	-1.468224e+01
6.499897e+01	-1.473087e+01
6.537440e+01	-1.477923e+01
6.575200e+01	-1.482791e+01
6.613178e+01	-1.487619e+01
6.651375e+01	-1.492450e+01
6.689793e+01	-1.497350e+01
6.728433e+01	-1.502188e+01
6.767297e+01	-1.506911e+01
6.806384e+01	-1.511842e+01
6.845698e+01	-1.516631e+01
6.885238e+01	-1.521513e+01
6.925007e+01	-1.526376e+01
6.965005e+01	-1.531210e+01
7.005235e+01	-1.536015e+01
7.045697e+01	-1.540951e+01
7.086393e+01	-1.545676e+01
7.127323e+01	-1.550626e+01
7.168490e+01	-1.555523e+01
7.209895e+01	-1.560428e+01
7.251539e+01	-1.565315e+01
7.293424e+01	-1.570073e+01
7.335551e+01	-1.574961e+01
7.377920e+01	-1.579904e+01
7.420535e+01	-1.584750e+01
7.463396e+01	-1.589582e+01
7.506504e+01	-1.594463e+01
7.549861e+01	-1.599355e+01
7.593469e+01	-1.604297e+01
7.637328e+01	-1.609169e+01
7.681441e+01	-1.613994e+01
7.725809e+01	-1.618953e+01
7.770433e+01	-1.623811e+01
7.815315e+01	-1.628670e+01
7.860456e+01	-1.633579e+01
7.905857e+01	-1.638334e+01
7.951521e+01	-1.643218e+01
7.997449e+01	-1.648194e+01
8.043642e+01	-1.653088e+01
8.090102e+01	-1.658028e+01
8.136830e+01	-1.662866e+01
8.183828e+01	-1.667680e+01
8.231097e+01	-1.672639e+01
8.278640e+01	-1.677638e+01
8.326457e+01	-1.682471e+01
8.374550e+01	-1.687346e+01
8.422921e+01	-1.692184e+01
8.471572e+01	-1.697224e+01
8.520503e+01	-1.702102e+01
8.569717e+01	-1.706996e+01
8.619215e+01	-1.711782e+01
8.669000e+01	-1.716829e+01
8.719071e+01	-1.721620e+01
8.769432e+01	-1.726732e+01
8.820084e+01	-1.731551e+01
8.871029e+01	-1.736452e+01
8.922267e+01	-1.741396e+01
8.973802e+01	-1.746292e+01
9.025634e+01	-1.751205e+01
9.077766e+01	-1.756065e+01
9.130199e+01	-1.760956e+01
9.182935e+01	-1.765935e+01
9.235975e+01	-1.770757e+01
9.289321e+01	-1.775671e+01
9.342976e+01	-1.780646e+01
9.396941e+01	-1.785564e+01
9.451217e+01	-1.790530e+01
9.505807e+01	-1.795593e+01
9.560712e+01	-1.800164e+01
9.615934e+01	-1.805294e+01
9.671476e+01	-1.810229e+01
9.727338e+01	-1.815105e+01
9.783522e+01	-1.820035e+01
9.840032e+01	-1.825060e+01
9.896867e+01	-1.829797e+01
9.954031e+01	-1.834852e+01
1.001153e+02	-1.839836e+01
1.006935e+02	-1.844725e+01
1.012751e+02	-1.849698e+01
1.018601e+02	-1.854497e+01
1.024484e+02	-1.859323e+01
1.030402e+02	-1.864406e+01
1.036353e+02	-1.869410e+01
1.042339e+02	-1.874364e+01
1.048360e+02	-1.879184e+01
1.054415e+02	-1.884214e+01
1.060505e+02	-1.889021e+01
1.066631e+02	-1.894068e+01
1.072791e+02	-1.898974e+01
1.078988e+02	-1.903978e+01
1.085220e+02	-1.908869e+01
1.091488e+02	-1.913762e+01
1.097793e+02	-1.918803e+01
1.104133e+02	-1.923814e+01
1.110511e+02	-1.928542e+01
1.116925e+02	-1.933707e+01
1.123376e+02	-1.938607e+01
1.129865e+02	-1.943540e+01
1.136391e+02	-1.948391e+01
1.142955e+02	-1.953489e+01
1.149556e+02	-1.958408e+01
1.156196e+02	-1.963133e+01
1.162874e+02	-1.968210e+01
1.169591e+02	-1.973245e+01
1.176347e+02	-1.978176e+01
1.183141e+02	-1.983100e+01
1.189975e+02	-1.987948e+01
1.196848e+02	-1.992926e+01
1.203761e+02	-1.997927e+01
1.210714e+02	-2.002945e+01
1.217707e+02	-2.007876e+01
1.224740e+02	-2.012700e+01
1.231814e+02	-2.017675e+01
1.238929e+02	-2.022653e+01
1.246085e+02	-2.027671e+01
1.253283e+02	-2.032534e+01
1.260522e+02	-2.037704e+01
1.267802e+02	-2.042584e+01
1.275125e+02	-2.047491e+01
1.282490e+02	-2.052311e+01
1.289898e+02	-2.057479e+01
1.297348e+02	-2.062378e+01
1.304842e+02	-2.067307e+01
1.312378e+02	-2.072375e+01
1.319959e+02	-2.077408e+01
1.327583e+02	-2.082274e+01
1.335251e+02	-2.087243e+01
1.342963e+02	-2.092177e+01
1.350720e+02	-2.097152e+01
1.358522e+02	-2.102054e+01
1.366368e+02	-2.107058e+01
1.374260e+02	-2.112090e+01
1.382198e+02	-2.116912e+01
1.390182e+02	-2.121888e+01
1.398211e+02	-2.126984e+01
1.406287e+02	-2.131932e+01
1.414410e+02	-2.136975e+01
1.422579e+02	-2.141783e+01
1.430796e+02	-2.146955e+01
1.439060e+02	-2.151823e+01
1.447372e+02	-2.156775e+01
1.455732e+02	-2.161644e+01
1.464141e+02	-2.166759e+01
1.472597e+02	-2.171800e+01
1.481103e+02	-2.176492e+01
1.489658e+02	-2.181620e+01
1.498262e+02	-2.186518e+01
1.506916e+02	-2.191587e+01
1.515620e+02	-2.196429e+01
1.524374e+02	-2.201278e+01
1.533179e+02	-2.206430e+01
1.542034e+02	-2.211365e+01
1.550941e+02	-2.216424e+01
1.559899e+02	-2.221364e+01
1.568909e+02	-2.226522e+01
1.577971e+02	-2.231378e+01
1.587085e+02	-2.236312e+01
1.596252e+02	-2.241213e+01
1.605472e+02	-2.246214e+01
1.614745e+02	-2.251141e+01
1.624072e+02	-2.256160e+01
1.633453e+02	-2.261107e+01
1.642887e+02	-2.266280e+01
1.652377e+02	-2.271078e+01
1.661921e+02	-2.276174e+01
1.671520e+02	-2.281264e+01
1.681175e+02	-2.286148e+01
1.690885e+02	-2.291071e+01
1.700651e+02	-2.296160e+01
1.710474e+02	-2.300879e+01
1.720354e+02	-2.306121e+01
1.730291e+02	-2.311122e+01
1.740285e+02	-2.316033e+01
1.750337e+02	-2.320813e+01
1.760446e+02	-2.325782e+01
1.770615e+02	-2.330977e+01
1.780842e+02	-2.335949e+01
1.791128e+02	-2.340712e+01
1.801473e+02	-2.345784e+01
1.811878e+02	-2.351015e+01
1.822344e+02	-2.355722e+01
1.832870e+02	-2.360739e+01
1.843456e+02	-2.365464e+01
1.854104e+02	-2.370777e+01
1.864813e+02	-2.375817e+01
1.875584e+02	-2.380730e+01
1.886418e+02	-2.385551e+01
1.897313e+02	-2.390705e+01
1.908272e+02	-2.395758e+01
1.919294e+02	-2.400814e+01
1.930380e+02	-2.405805e+01
1.941530e+02	-2.410733e+01
1.952744e+02	-2.415659e+01
1.964023e+02	-2.420784e+01
1.975367e+02	-2.425394e+01
1.986777e+02	-2.430377e+01
1.998252e+02	-2.435537e+01
2.009794e+02	-2.440608e+01
2.021403e+02	-2.445622e+01
2.033078e+02	-2.450655e+01
2.044821e+02	-2.455524e+01
2.056632e+02	-2.460373e+01
2.068511e+02	-2.465729e+01
2.080459e+02	-2.470230e+01
2.092475e+02	-2.475447e+01
2.104561e+02	-2.480386e+01
2.116717e+02	-2.485510e+01
2.128943e+02	-2.490531e+01
2.141240e+02	-2.495422e+01
2.153608e+02	-2.500482e+01
2.166047e+02	-2.505133e+01
2.178558e+02	-2.510616e+01
2.191141e+02	-2.515458e+01
2.203797e+02	-2.520301e+01
2.216526e+02	-2.525248e+01
2.229329e+02	-2.530393e+01
2.242205e+02	-2.535065e+01
2.255156e+02	-2.540285e+01
2.268182e+02	-2.545598e+01
2.281283e+02	-2.550136e+01
2.294459e+02	-2.555407e+01
2.307712e+02	-2.560220e+01
2.321041e+02	-2.565332e+01
2.334447e+02	-2.570532e+01
2.347931e+02	-2.575622e+01
2.361493e+02	-2.580389e+01
2.375133e+02	-2.585485e+01
2.388851e+02	-2.590277e+01
2.402649e+02	-2.595291e+01
2.416527e+02	-2.600332e+01
2.430484e+02	-2.605116e+01
2.444523e+02	-2.610276e+01
2.458642e+02	-2.615227e+01
2.472843e+02	-2.620306e+01
2.487126e+02	-2.625835e+01
2.501492e+02	-2.630383e+01
2.515940e+02	-2.635054e+01
2.530472e+02	-2.640238e+01
2.545088e+02	-2.645282e+01
2.559789e+02	-2.650101e+01
2.574574e+02	-2.655127e+01
2.589444e+02	-2.660264e+01
2.604401e+02	-2.665300e+01
2.619444e+02	-2.670246e+01
2.634574e+02	-2.675335e+01
2.649791e+02	-2.680081e+01
2.665096e+02	-2.685094e+01
2.680489e+02	-2.690256e+01
2.695972e+02	-2.695166e+01
2.711544e+02	-2.700213e+01
2.727205e+02	-2.705316e+01
2.742958e+02	-2.710472e+01
2.758801e+02	-2.715220e+01
2.774736e+02	-2.720257e+01
2.790762e+02	-2.725155e+01
2.806882e+02	-2.729862e+01
2.823094e+02	-2.734900e+01
2.839400e+02	-2.739735e+01
2.855800e+02	-2.745326e+01
2.872295e+02	-2.750520e+01
2.888886e+02	-2.755046e+01
2.905572e+02	-2.759983e+01
2.922354e+02	-2.764933e+01
2.939234e+02	-2.770154e+01
2.956211e+02	-2.775110e+01
2.973286e+02	-2.780538e+01
2.990459e+02	-2.785223e+01
3.007732e+02	-2.790114e+01
3.025104e+02	-2.795204e+01
3.042577e+02	-2.800086e+01
3.060151e+02	-2.805201e+01
3.077826e+02	-2.810088e+01
3.095604e+02	-2.814913e+01
3.113484e+02	-2.820452e+01
3.131467e+02	-2.825061e+01
3.149554e+02	-2.830559e+01
3.167746e+02	-2.835632e+01
3.186043e+02	-2.839956e+01
3.204445e+02	-2.845178e+01
3.222954e+02	-2.850617e+01
3.241570e+02	-2.854996e+01
3.260293e+02	-2.860362e+01
3.279124e+02	-2.865865e+01
3.298064e+02	-2.870393e+01
3.317114e+02	-2.875499e+01
3.336273e+02	-2.880671e+01
3.355544e+02	-2.885391e+01
3.374925e+02	-2.890577e+01
3.394418e+02	-2.895507e+01
3.414024e+02	-2.899966e+01
3.433744e+02	-2.905278e+01
3.453577e+02	-2.910019e+01
3.473525e+02	-2.914664e+01
3.493588e+02	-2.920158e+01
3.513766e+02	-2.925173e+01
3.534062e+02	-2.930333e+01
3.554474e+02	-2.935211e+01
3.575005e+02	-2.940118e+01
3.595654e+02	-2.945454e+01
3.616422e+02	-2.950119e+01
3.637311e+02	-2.955416e+01
3.658320e+02	-2.960370e+01
3.679450e+02	-2.965227e+01
3.700702e+02	-2.970243e+01
3.722077e+02	-2.975879e+01
3.743576e+02	-2.980067e+01
3.765199e+02	-2.985714e+01
3.786946e+02	-2.990259e+01
3.808820e+02	-2.995941e+01
3.830819e+02	-3.000506e+01
3.852946e+02	-3.005256e+01
3.875200e+02	-3.010228e+01
3.897583e+02	-3.015508e+01
3.920096e+02	-3.020225e+01
3.942738e+02	-3.025662e+01
3.965511e+02	-3.030242e+01
3.988416e+02	-3.034959e+01
4.011452e+02	-3.040634e+01
4.034622e+02	-3.045065e+01
4.057926e+02	-3.050683e+01
4.081365e+02	-3.054904e+01
4.104938e+02	-3.060258e+01
4.128648e+02	-3.065378e+01
4.152495e+02	-3.070601e+01
4.176480e+02	-3.075089e+01
4.200603e+02	-3.080679e+01
4.224866e+02	-3.084901e+01
4.249268e+02	-3.089980e+01
4.273812e+02	-3.095912e+01
4.298497e+02	-3.100926e+01
4.323325e+02	-3.105529e+01
4.348297e+02	-3.110603e+01
4.373412e+02	-3.115512e+01
4.398673e+02	-3.120950e+01
4.424079e+02	-3.125729e+01
4.449633e+02	-3.130521e+01
4.475334e+02	-3.135690e+01
4.501183e+02	-3.141193e+01
4.527182e+02	-3.145984e+01
4.553330e+02	-3.151023e+01
4.579630e+02	-3.155968e+01
4.606082e+02	-3.160404e+01
4.632687e+02	-3.166493e+01
4.659445e+02	-3.171202e+01
4.686358e+02	-3.175655e+01
4.713426e+02	-3.180954e+01
4.740650e+02	-3.186137e+01
4.768032e+02	-3.190541e+01
4.795572e+02	-3.196208e+01
4.823271e+02	-3.200905e+01
4.851130e+02	-3.206167e+01
4.879150e+02	-3.210999e+01
4.907332e+02	-3.216097e+01
4.935676e+02	-3.221203e+01
4.964185e+02	-3.226182e+01
4.992858e+02	-3.231094e+01
5.021696e+02	-3.235941e+01
5.050701e+02	-3.241631e+01
5.079874e+02	-3.247145e+01
5.109215e+02	-3.251349e+01
5.138726e+02	-3.256503e+01
5.168407e+02	-3.261173e+01
5.198259e+02	-3.266036e+01
5.228284e+02	-3.270902e+01
5.258482e+02	-3.276652e+01
5.288855e+02	-3.281114e+01
5.319403e+02	-3.286217e+01
5.350128e+02	-3.291593e+01
5.381030e+02	-3.297049e+01
5.412111e+02	-3.301556e+01
5.443371e+02	-3.306373e+01
5.474812e+02	-3.312093e+01
5.506434e+02	-3.315872e+01
5.538239e+02	-3.322233e+01
5.570228e+02	-3.326676e+01
5.602401e+02	-3.331645e+01
5.634760e+02	-3.336683e+01
5.667306e+02	-3.341823e+01
5.700040e+02	-3.346404e+01
5.732964e+02	-3.352030e+01
5.766077e+02	-3.357311e+01
5.799382e+02	-3.361360e+01
5.832879e+02	-3.366502e+01
5.866569e+02	-3.371815e+01
5.900454e+02	-3.377117e+01
5.934535e+02	-3.382059e+01
5.968813e+02	-3.386917e+01
6.003288e+02	-3.391757e+01
6.037963e+02	-3.396454e+01
6.072838e+02	-3.402010e+01
6.107914e+02	-3.407902e+01
6.143194e+02	-3.412074e+01
6.178676e+02	-3.415945e+01
6.214364e+02	-3.421981e+01
6.250258e+02	-3.427410e+01
6.286359e+02	-3.432162e+01
6.322669e+02	-3.437789e+01
6.359189e+02	-3.442999e+01
6.395919e+02	-3.447494e+01
6.432862e+02	-3.451547e+01
6.470017e+02	-3.457266e+01
6.507388e+02	-3.462810e+01
6.544974e+02	-3.467578e+01
6.582778e+02	-3.472946e+01
6.620800e+02	-3.477905e+01
6.659041e+02	-3.483237e+01
6.697504e+02	-3.487080e+01
6.736188e+02	-3.492925e+01
6.775096e+02	-3.497378e+01
6.814229e+02	-3.502501e+01
6.853587e+02	-3.508389e+01
6.893173e+02	-3.512923e+01
6.932988e+02	-3.517914e+01
6.973033e+02	-3.522938e+01
7.013309e+02	-3.527728e+01
