Frequency(Hz)	Magnitude(dB)
1.000000e+01	-2.256502e+00
1.005776e+01	-2.277078e+00
1.011585e+01	-2.297454e+00
1.017428e+01	-2.318069e+00
1.023305e+01	-2.338650e+00
1.029215e+01	-2.359616e+00
1.035160e+01	-2.380634e+00
1.041139e+01	-2.401901e+00
1.047153e+01	-2.423207e+00
1.053201e+01	-2.444506e+00
1.059284e+01	-2.466380e+00
1.065403e+01	-2.487846e+00
1.071556e+01	-2.509878e+00
1.077746e+01	-2.531892e+00
1.083971e+01	-2.553997e+00
1.090232e+01	-2.576737e+00
1.096529e+01	-2.598959e+00
1.102862e+01	-2.621447e+00
1.109232e+01	-2.644368e+00
1.115639e+01	-2.667148e+00
1.122083e+01	-2.690145e+00
1.128564e+01	-2.713383e+00
1.135083e+01	-2.736603e+00
1.141639e+01	-2.760143e+00
1.148233e+01	-2.783836e+00
1.154865e+01	-2.807365e+00
1.161536e+01	-2.831145e+00
1.168245e+01	-2.855275e+00
1.174992e+01	-2.879472e+00
1.181779e+01	-2.903840e+00
1.188605e+01	-2.928371e+00
1.195470e+01	-2.953007e+00
1.202375e+01	-2.977604e+00
1.209320e+01	-3.002410e+00
1.216305e+01	-3.027618e+00
1.223330e+01	-3.052922e+00
1.230396e+01	-3.077834e+00
1.237503e+01	-3.103687e+00
1.244651e+01	-3.129134e+00
1.251840e+01	-3.154907e+00
1.259070e+01	-3.180864e+00
1.266343e+01	-3.206721e+00
1.273657e+01	-3.232971e+00
1.281014e+01	-3.259317e+00
1.288413e+01	-3.285881e+00
1.295855e+01	-3.312376e+00
1.303339e+01	-3.339293e+00
1.310867e+01	-3.366185e+00
1.318439e+01	-3.393310e+00
1.326054e+01	-3.420545e+00
1.333713e+01	-3.447927e+00
1.341417e+01	-3.475343e+00
1.349165e+01	-3.502897e+00
1.356958e+01	-3.530528e+00
1.364795e+01	-3.558615e+00
1.372678e+01	-3.586670e+00
1.380607e+01	-3.614670e+00
1.388581e+01	-3.643086e+00
1.396602e+01	-3.671572e+00
1.404668e+01	-3.700272e+00
1.412782e+01	-3.728884e+00
1.420942e+01	-3.757793e+00
1.429149e+01	-3.786954e+00
1.437404e+01	-3.815981e+00
1.445706e+01	-3.845245e+00
1.454057e+01	-3.874878e+00
1.462455e+01	-3.904551e+00
1.470902e+01	-3.934194e+00
1.479398e+01	-3.964084e+00
1.487943e+01	-3.994170e+00
1.496537e+01	-4.024567e+00
1.505181e+01	-4.054808e+00
1.513875e+01	-4.084814e+00
1.522619e+01	-4.115668e+00
1.531414e+01	-4.146176e+00
1.540259e+01	-4.177224e+00
1.549156e+01	-4.207797e+00
1.558103e+01	-4.239045e+00
1.567103e+01	-4.270184e+00
1.576155e+01	-4.301799e+00
1.585258e+01	-4.333162e+00
1.594415e+01	-4.364967e+00
1.603624e+01	-4.396859e+00
1.612886e+01	-4.428807e+00
1.622202e+01	-4.460580e+00
1.631572e+01	-4.492804e+00
1.640996e+01	-4.525203e+00
1.650474e+01	-4.557820e+00
1.660008e+01	-4.590069e+00
1.669596e+01	-4.622859e+00
1.679239e+01	-4.655940e+00
1.688938e+01	-4.688842e+00
1.698694e+01	-4.721927e+00
1.708505e+01	-4.755003e+00
1.718373e+01	-4.788312e+00
1.728299e+01	-4.821596e+00
1.738281e+01	-4.855590e+00
1.748322e+01	-4.889260e+00
1.758420e+01	-4.922956e+00
1.768576e+01	-4.956858e+00
1.778792e+01	-4.991224e+00
1.789066e+01	-5.025082e+00
1.799399e+01	-5.059939e+00
1.809793e+01	-5.094230e+00
1.820246e+01	-5.129100e+00
1.830760e+01	-5.163418e+00
1.841334e+01	-5.198232e+00
1.851969e+01	-5.233201e+00
1.862666e+01	-5.268293e+00
1.873425e+01	-5.303740e+00
1.884246e+01	-5.339057e+00
1.895129e+01	-5.374206e+00
1.906075e+01	-5.409714e+00
1.917085e+01	-5.445679e+00
1.928158e+01	-5.481493e+00
1.939295e+01	-5.517248e+00
1.950496e+01	-5.553317e+00
1.961762e+01	-5.589609e+00
1.973093e+01	-5.626099e+00
1.984490e+01	-5.662564e+00
1.995952e+01	-5.698985e+00
2.007480e+01	-5.735818e+00
2.019076e+01	-5.772027e+00
2.030738e+01	-5.809063e+00
2.042467e+01	-5.845943e+00
2.054264e+01	-5.883160e+00
2.066130e+01	-5.920085e+00
2.078064e+01	-5.957610e+00
2.090066e+01	-5.994698e+00
2.102139e+01	-6.032570e+00
2.114280e+01	-6.070194e+00
2.126492e+01	-6.107799e+00
2.138775e+01	-6.145059e+00
2.151128e+01	-6.183386e+00
2.163553e+01	-6.221325e+00
2.176050e+01	-6.259829e+00
2.188619e+01	-6.297958e+00
2.201260e+01	-6.336363e+00
2.213974e+01	-6.374561e+00
2.226762e+01	-6.413005e+00
2.239624e+01	-6.451881e+00
2.252560e+01	-6.490677e+00
2.265571e+01	-6.529589e+00
2.278656e+01	-6.568385e+00
2.291818e+01	-6.607481e+00
2.305055e+01	-6.646637e+00
2.318369e+01	-6.685928e+00
2.331760e+01	-6.725146e+00
2.345228e+01	-6.764333e+00
2.358774e+01	-6.804021e+00
2.372398e+01	-6.843516e+00
2.386101e+01	-6.883479e+00
2.399883e+01	-6.923433e+00
2.413745e+01	-6.963258e+00
2.427686e+01	-7.003440e+00
2.441709e+01	-7.043096e+00
2.455812e+01	-7.083736e+00
2.469997e+01	-7.123426e+00
2.484263e+01	-7.164318e+00
2.498612e+01	-7.204489e+00
2.513044e+01	-7.245066e+00
2.527559e+01	-7.285997e+00
2.542158e+01	-7.326625e+00
2.556842e+01	-7.367496e+00
2.571610e+01	-7.407918e+00
2.586463e+01	-7.449396e+00
2.601403e+01	-7.490400e+00
2.616428e+01	-7.531254e+00
2.631541e+01	-7.572634e+00
2.646740e+01	-7.613839e+00
2.662028e+01	-7.655291e+00
2.677404e+01	-7.696554e+00
2.692868e+01	-7.738029e+00
2.708422e+01	-7.780056e+00
2.724066e+01	-7.821979e+00
2.739800e+01	-7.863838e+00
2.755625e+01	-7.905301e+00
2.771541e+01	-7.947407e+00
2.787550e+01	-7.989531e+00
2.803650e+01	-8.031638e+00
2.819844e+01	-8.073863e+00
2.836131e+01	-8.116206e+00
2.852513e+01	-8.158204e+00
2.868989e+01	-8.201185e+00
2.885560e+01	-8.243593e+00
2.902227e+01	-8.286037e+00
2.918990e+01	-8.328668e+00
2.935850e+01	-8.371139e+00
2.952807e+01	-8.414380e+00
2.969863e+01	-8.456821e+00
2.987016e+01	-8.499601e+00
3.004269e+01	-8.542697e+00
3.021622e+01	-8.586289e+00
3.039075e+01	-8.628744e+00
3.056628e+01	-8.672573e+00
3.074283e+01	-8.715497e+00
3.092040e+01	-8.758920e+00
3.109900e+01	-8.801811e+00
3.127862e+01	-8.845417e+00
3.145929e+01	-8.889514e+00
3.164099e+01	-8.932793e+00
3.182375e+01	-8.976851e+00
3.200756e+01	-9.019908e+00
3.219244e+01	-9.063851e+00
3.237838e+01	-9.107935e+00
3.256540e+01	-9.151789e+00
3.275349e+01	-9.195754e+00
3.294268e+01	-9.239777e+00
3.313295e+01	-9.284196e+00
3.332433e+01	-9.327734e+00
3.351681e+01	-9.371917e+00
3.371040e+01	-9.416679e+00
3.390511e+01	-9.460792e+00
3.410094e+01	-9.505147e+00
3.429791e+01	-9.549653e+00
3.449601e+01	-9.594387e+00
3.469526e+01	-9.639158e+00
3.489566e+01	-9.683089e+00
3.509721e+01	-9.727861e+00
3.529993e+01	-9.773080e+00
3.550382e+01	-9.817275e+00
3.570889e+01	-9.862305e+00
3.591515e+01	-9.907258e+00
3.612259e+01	-9.951934e+00
3.633123e+01	-9.997690e+00
3.654108e+01	-1.004258e+01
3.675214e+01	-1.008693e+01
3.696442e+01	-1.013220e+01
3.717792e+01	-1.017791e+01
3.739266e+01	-1.022324e+01
3.760864e+01	-1.026835e+01
3.782587e+01	-1.031366e+01
3.804435e+01	-1.035942e+01
3.826409e+01	-1.040481e+01
3.848510e+01	-1.044948e+01
3.870739e+01	-1.049634e+01
3.893096e+01	-1.054095e+01
3.915583e+01	-1.058716e+01
3.938199e+01	-1.063195e+01
3.960946e+01	-1.067773e+01
3.983824e+01	-1.072372e+01
4.006834e+01	-1.076954e+01
4.029978e+01	-1.081569e+01
4.053255e+01	-1.086184e+01
4.076666e+01	-1.090725e+01
4.100213e+01	-1.095338e+01
4.123896e+01	-1.099943e+01
4.147715e+01	-1.104530e+01
4.171672e+01	-1.109166e+01
4.195767e+01	-1.113768e+01
4.220002e+01	-1.118429e+01
4.244377e+01	-1.123058e+01
4.268892e+01	-1.127615e+01
4.293549e+01	-1.132289e+01
4.318348e+01	-1.136878e+01
4.343291e+01	-1.141539e+01
4.368377e+01	-1.146198e+01
4.393609e+01	-1.150837e+01
4.418986e+01	-1.155424e+01
4.444510e+01	-1.160164e+01
4.470182e+01	-1.164790e+01
4.496001e+01	-1.169436e+01
4.521970e+01	-1.174100e+01
4.548089e+01	-1.178800e+01
4.574358e+01	-1.183463e+01
4.600779e+01	-1.188136e+01
4.627353e+01	-1.192904e+01
4.654081e+01	-1.197514e+01
4.680963e+01	-1.202145e+01
4.708000e+01	-1.206932e+01
4.735193e+01	-1.211586e+01
4.762543e+01	-1.216316e+01
4.790051e+01	-1.221009e+01
4.817719e+01	-1.225636e+01
4.845545e+01	-1.230322e+01
4.873533e+01	-1.235135e+01
4.901682e+01	-1.239789e+01
4.929994e+01	-1.244575e+01
4.958470e+01	-1.249263e+01
4.987110e+01	-1.254007e+01
5.015915e+01	-1.258720e+01
5.044887e+01	-1.263458e+01
5.074026e+01	-1.268184e+01
5.103333e+01	-1.272903e+01
5.132810e+01	-1.277660e+01
5.162457e+01	-1.282350e+01
5.192275e+01	-1.287102e+01
5.222265e+01	-1.291811e+01
5.252429e+01	-1.296586e+01
5.282767e+01	-1.301325e+01
5.313280e+01	-1.306128e+01
5.343969e+01	-1.310833e+01
5.374836e+01	-1.315637e+01
5.405880e+01	-1.320368e+01
5.437105e+01	-1.325238e+01
5.468509e+01	-1.329848e+01
5.500095e+01	-1.334699e+01
5.531863e+01	-1.339416e+01
5.563815e+01	-1.344245e+01
5.595951e+01	-1.348971e+01
5.628273e+01	-1.353861e+01
5.660782e+01	-1.358569e+01
5.693479e+01	-1.363407e+01
5.726364e+01	-1.368180e+01
5.759439e+01	-1.372978e+01
5.792705e+01	-1.377713e+01
5.826164e+01	-1.382560e+01
5.859815e+01	-1.387428e+01
5.893662e+01	-1.392143e+01
5.927703e+01	-1.396916e+01
5.961941e+01	-1.401786e+01
5.996377e+01	-1.406567e+01
6.031012e+01	-1.411305e+01
6.065847e+01	-1.416151e+01
6.100883e+01	-1.420967e+01
6.136121e+01	-1.425804e+01
6.171563e+01	-1.430528e+01
6.207210e+01	-1.435395e+01
6.243063e+01	-1.440265e+01
6.279122e+01	-1.445094e+01
6.315390e+01	-1.449947e+01
6.351868e+01	-1.454684e+01
6.388556e+01	-1.459458e+01
6.425456e+01	-1.464363e+01
6.462569e+01	-1.469157e+01
6.499897e+01	-1.473971e+01
6.537440e+01	-1.478868e+01
6.575200e+01	-1.483738e+01
6.613178e+01	-1.488509e+01
6.651375e+01	-1.493452e+01
6.689793e+01	-1.498224e+01
6.728433e+01	-1.502978e+01
6.767297e+01	-1.507921e+01
6.806384e+01	-1.512738e+01
6.845698e+01	-1.517691e+01
6.885238e+01	-1.522548e+01
6.925007e+01	-1.527360e+01
6.965005e+01	-1.532175e+01
7.005235e+01	-1.537028e+01
7.045697e+01	-1.541903e+01
7.086393e+01	-1.546769e+01
7.127323e+01	-1.551588e+01
7.168490e+01	-1.556474e+01
7.209895e+01	-1.561355e+01
7.251539e+01	-1.566178e+01
7.293424e+01	-1.571161e+01
7.335551e+01	-1.575983e+01
7.377920e+01	-1.580928e+01
7.420535e+01	-1.585730e+01
7.463396e+01	-1.590526e+01
7.506504e+01	-1.595531e+01
7.549861e+01	-1.600240e+01
7.593469e+01	-1.605101e+01
7.637328e+01	-1.610105e+01
7.681441e+01	-1.615030e+01
7.725809e+01	-1.619818e+01
7.770433e+01	-1.624733e+01
7.815315e+01	-1.629673e+01
7.860456e+01	-1.634362e+01
7.905857e+01	-1.639324e+01
7.951521e+01	-1.644259e+01
7.997449e+01	-1.649176e+01
8.043642e+01	-1.654050e+01
8.090102e+01	-1.658938e+01
8.136830e+01	-1.663969e+01
8.183828e+01	-1.668637e+01
8.231097e+01	-1.673723e+01
8.278640e+01	-1.678579e+01
8.326457e+01	-1.683380e+01
8.374550e+01	-1.688366e+01
8.422921e+01	-1.693251e+01
8.471572e+01	-1.698094e+01
8.520503e+01	-1.702954e+01
8.569717e+01	-1.707934e+01
8.619215e+01	-1.712803e+01
8.669000e+01	-1.717743e+01
8.719071e+01	-1.722781e+01
8.769432e+01	-1.727497e+01
8.820084e+01	-1.732461e+01
8.871029e+01	-1.737419e+01
8.922267e+01	-1.742217e+01
8.973802e+01	-1.747271e+01
9.025634e+01	-1.752049e+01
9.077766e+01	-1.756994e+01
9.130199e+01	-1.762023e+01
9.182935e+01	-1.766771e+01
9.235975e+01	-1.771800e+01
9.289321e+01	-1.776807e+01
9.342976e+01	-1.781638e+01
9.396941e+01	-1.786605e+01
9.451217e+01	-1.791448e+01
9.505807e+01	-1.796323e+01
9.560712e+01	-1.801319e+01
9.615934e+01	-1.806103e+01
9.671476e+01	-1.811066e+01
9.727338e+01	-1.816150e+01
9.783522e+01	-1.821153e+01
9.840032e+01	-1.825912e+01
9.896867e+01	-1.830926e+01
9.954031e+01	-1.835719e+01
1.001153e+02	-1.840767e+01
1.006935e+02	-1.845658e+01
1.012751e+02	-1.850646e+01
1.018601e+02	-1.855499e+01
1.024484e+02	-1.860369e+01
1.030402e+02	-1.865395e+01
1.036353e+02	-1.870366e+01
1.042339e+02	-1.875066e+01
1.048360e+02	-1.880239e+01
1.054415e+02	-1.885183e+01
1.060505e+02	-1.890084e+01
1.066631e+02	-1.895135e+01
1.072791e+02	-1.900010e+01
1.078988e+02	-1.904880e+01
1.085220e+02	-1.909809e+01
1.091488e+02	-1.914739e+01
1.097793e+02	-1.919765e+01
1.104133e+02	-1.924590e+01
1.110511e+02	-1.929530e+01
1.116925e+02	-1.934577e+01
1.123376e+02	-1.939423e+01
1.129865e+02	-1.944432e+01
1.136391e+02	-1.949503e+01
1.142955e+02	-1.954329e+01
1.149556e+02	-1.959223e+01
1.156196e+02	-1.964156e+01
1.162874e+02	-1.969042e+01
1.169591e+02	-1.974250e+01
1.176347e+02	-1.978994e+01
1.183141e+02	-1.984017e+01
1.189975e+02	-1.989082e+01
1.196848e+02	-1.994015e+01
1.203761e+02	-1.998884e+01
1.210714e+02	-2.004005e+01
1.217707e+02	-2.008808e+01
1.224740e+02	-2.013758e+01
1.231814e+02	-2.018747e+01
1.238929e+02	-2.023686e+01
1.246085e+02	-2.028581e+01
1.253283e+02	-2.033645e+01
1.260522e+02	-2.038567e+01
1.267802e+02	-2.043551e+01
1.275125e+02	-2.048490e+01
1.282490e+02	-2.053411e+01
1.289898e+02	-2.058336e+01
1.297348e+02	-2.063356e+01
1.304842e+02	-2.068391e+01
1.312378e+02	-2.073345e+01
1.319959e+02	-2.078220e+01
1.327583e+02	-2.083309e+01
1.335251e+02	-2.088042e+01
1.342963e+02	-2.093137e+01
1.350720e+02	-2.098006e+01
1.358522e+02	-2.103056e+01
1.366368e+02	-2.107806e+01
1.374260e+02	-2.112932e+01
1.382198e+02	-2.118048e+01
1.390182e+02	-2.122707e+01
1.398211e+02	-2.127917e+01
1.406287e+02	-2.132789e+01
1.414410e+02	-2.137950e+01
1.422579e+02	-2.142610e+01
1.430796e+02	-2.147722e+01
1.439060e+02	-2.152784e+01
1.447372e+02	-2.157663e+01
1.455732e+02	-2.162641e+01
1.464141e+02	-2.167778e+01
1.472597e+02	-2.172673e+01
1.481103e+02	-2.177671e+01
1.489658e+02	-2.182489e+01
1.498262e+02	-2.187440e+01
1.506916e+02	-2.192507e+01
1.515620e+02	-2.197428e+01
1.524374e+02	-2.202468e+01
1.533179e+02	-2.207483e+01
1.542034e+02	-2.212269e+01
1.550941e+02	-2.217337e+01
1.559899e+02	-2.222437e+01
1.568909e+02	-2.227261e+01
1.577971e+02	-2.232483e+01
1.587085e+02	-2.237338e+01
1.596252e+02	-2.242216e+01
1.605472e+02	-2.247135e+01
1.614745e+02	-2.252104e+01
1.624072e+02	-2.257108e+01
1.633453e+02	-2.262031e+01
1.642887e+02	-2.267096e+01
1.652377e+02	-2.271978e+01
1.661921e+02	-2.277037e+01
1.671520e+02	-2.281988e+01
1.681175e+02	-2.286851e+01
1.690885e+02	-2.291898e+01
1.700651e+02	-2.296868e+01
1.710474e+02	-2.302154e+01
1.720354e+02	-2.306985e+01
1.730291e+02	-2.311866e+01
1.740285e+02	-2.316897e+01
1.750337e+02	-2.321750e+01
1.760446e+02	-2.326950e+01
1.770615e+02	-2.331754e+01
1.780842e+02	-2.336637e+01
1.791128e+02	-2.341814e+01
1.801473e+02	-2.346814e+01
1.811878e+02	-2.351838e+01
1.822344e+02	-2.356702e+01
1.832870e+02	-2.361713e+01
1.843456e+02	-2.366604e+01
1.854104e+02	-2.371705e+01
1.864813e+02	-2.376785e+01
1.875584e+02	-2.381779e+01
1.886418e+02	-2.386563e+01
1.897313e+02	-2.391745e+01
1.908272e+02	-2.396800e+01
1.919294e+02	-2.401762e+01
1.930380e+02	-2.406581e+01
1.941530e+02	-2.411376e+01
1.952744e+02	-2.416526e+01
1.964023e+02	-2.421719e+01
1.975367e+02	-2.426483e+01
1.986777e+02	-2.431480e+01
1.998252e+02	-2.436659e+01
2.009794e+02	-2.441412e+01
2.021403e+02	-2.446568e+01
2.033078e+02	-2.451605e+01
2.044821e+02	-2.456382e+01
2.056632e+02	-2.461292e+01
2.068511e+02	-2.466489e+01
2.080459e+02	-2.471137e+01
2.092475e+02	-2.476307e+01
2.104561e+02	-2.481291e+01
2.116717e+02	-2.486368e+01
2.128943e+02	-2.491267e+01
2.141240e+02	-2.496222e+01
2.153608e+02	-2.501132e+01
2.166047e+02	-2.506485e+01
2.178558e+02	-2.511268e+01
2.191141e+02	-2.516392e+01
2.203797e+02	-2.521102e+01
2.216526e+02	-2.526345e+01
2.229329e+02	-2.531507e+01
2.242205e+02	-2.536479e+01
2.255156e+02	-2.541442e+01
2.268182e+02	-2.546179e+01
2.281283e+02	-2.551208e+01
2.294459e+02	-2.556368e+01
2.307712e+02	-2.561488e+01
2.321041e+02	-2.566360e+01
2.334447e+02	-2.571535e+01
2.347931e+02	-2.576185e+01
2.361493e+02	-2.581318e+01
2.375133e+02	-2.586404e+01
2.388851e+02	-2.591272e+01
2.402649e+02	-2.596367e+01
2.416527e+02	-2.601271e+01
2.430484e+02	-2.605961e+01
2.444523e+02	-2.611065e+01
2.458642e+02	-2.615848e+01
2.472843e+02	-2.621185e+01
2.487126e+02	-2.626396e+01
2.501492e+02	-2.631313e+01
2.515940e+02	-2.636069e+01
2.530472e+02	-2.641278e+01
2.545088e+02	-2.646189e+01
2.559789e+02	-2.650938e+01
2.574574e+02	-2.656343e+01
2.589444e+02	-2.661356e+01
2.604401e+02	-2.666105e+01
2.619444e+02	-2.671406e+01
2.634574e+02	-2.676070e+01
2.649791e+02	-2.681386e+01
2.665096e+02	-2.686113e+01
2.680489e+02	-2.691250e+01
2.695972e+02	-2.696191e+01
2.711544e+02	-2.701545e+01
2.727205e+02	-2.706328e+01
2.742958e+02	-2.711111e+01
2.758801e+02	-2.716002e+01
2.774736e+02	-2.721082e+01
2.790762e+02	-2.725810e+01
2.806882e+02	-2.731211e+01
2.823094e+02	-2.736183e+01
2.839400e+02	-2.741158e+01
2.855800e+02	-2.745637e+01
2.872295e+02	-2.750721e+01
2.888886e+02	-2.756190e+01
2.905572e+02	-2.761196e+01
2.922354e+02	-2.765664e+01
2.939234e+02	-2.771227e+01
2.956211e+02	-2.776005e+01
2.973286e+02	-2.781276e+01
2.990459e+02	-2.786311e+01
3.007732e+02	-2.791116e+01
3.025104e+02	-2.796757e+01
3.042577e+02	-2.801085e+01
3.060151e+02	-2.806148e+01
3.077826e+02	-2.811227e+01
3.095604e+02	-2.816492e+01
3.113484e+02	-2.821200e+01
3.131467e+02	-2.826548e+01
3.149554e+02	-2.831138e+01
3.167746e+02	-2.836637e+01
3.186043e+02	-2.840800e+01
3.204445e+02	-2.845881e+01
3.222954e+02	-2.851274e+01
3.241570e+02	-2.856139e+01
3.260293e+02	-2.861251e+01
3.279124e+02	-2.866713e+01
3.298064e+02	-2.871366e+01
3.317114e+02	-2.876448e+01
3.336273e+02	-2.881020e+01
3.355544e+02	-2.886131e+01
3.374925e+02	-2.891169e+01
3.394418e+02	-2.896195e+01
3.414024e+02	-2.901058e+01
3.433744e+02	-2.905994e+01
3.453577e+02	-2.911074e+01
3.473525e+02	-2.916151e+01
3.493588e+02	-2.921533e+01
3.513766e+02	-2.926100e+01
3.534062e+02	-2.931095e+01
3.554474e+02	-2.936664e+01
3.575005e+02	-2.941219e+01
3.595654e+02	-2.945924e+01
3.616422e+02	-2.951228e+01
3.637311e+02	-2.956305e+01
3.658320e+02	-2.961156e+01
3.679450e+02	-2.966318e+01
3.700702e+02	-2.971219e+01
3.722077e+02	-2.976293e+01
3.743576e+02	-2.981150e+01
3.765199e+02	-2.986209e+01
3.786946e+02	-2.991213e+01
3.808820e+02	-2.996511e+01
3.830819e+02	-3.001340e+01
3.852946e+02	-3.006233e+01
3.875200e+02	-3.010824e+01
3.897583e+02	-3.016508e+01
3.920096e+02	-3.021347e+01
3.942738e+02	-3.026491e+01
3.965511e+02	-3.031682e+01
3.988416e+02	-3.036774e+01
4.011452e+02	-3.041595e+01
4.034622e+02	-3.046774e+01
4.057926e+02	-3.051369e+01
4.081365e+02	-3.056693e+01
4.104938e+02	-3.062107e+01
4.128648e+02	-3.066557e+01
4.152495e+02	-3.071627e+01
4.176480e+02	-3.076098e+01
4.200603e+02	-3.081716e+01
4.224866e+02	-3.086846e+01
4.249268e+02	-3.091468e+01
4.273812e+02	-3.096664e+01
4.298497e+02	-3.101694e+01
4.323325e+02	-3.106642e+01
4.348297e+02	-3.111256e+01
4.373412e+02	-3.116858e+01
4.398673e+02	-3.121738e+01
4.424079e+02	-3.126418e+01
4.449633e+02	-3.131973e+01
4.475334e+02	-3.136707e+01
4.501183e+02	-3.141485e+01
4.527182e+02	-3.147594e+01
4.553330e+02	-3.151343e+01
4.579630e+02	-3.156429e+01
4.606082e+02	-3.161706e+01
4.632687e+02	-3.167023e+01
4.659445e+02	-3.172016e+01
4.686358e+02	-3.176571e+01
4.713426e+02	-3.181935e+01
4.740650e+02	-3.186734e+01
4.768032e+02	-3.192039e+01
4.795572e+02	-3.196490e+01
4.823271e+02	-3.201851e+01
4.851130e+02	-3.206406e+01
4.879150e+02	-3.212777e+01
4.907332e+02	-3.216855e+01
4.935676e+02	-3.221637e+01
4.964185e+02	-3.227337e+01
4.992858e+02	-3.231941e+01
5.021696e+02	-3.236750e+01
5.050701e+02	-3.242074e+01
5.079874e+02	-3.247405e+01
5.109215e+02	-3.251837e+01
5.138726e+02	-3.257365e+01
5.168407e+02	-3.262657e+01
5.198259e+02	-3.267461e+01
5.228284e+02	-3.272333e+01
5.258482e+02	-3.276257e+01
5.288855e+02	-3.281752e+01
5.319403e+02	-3.286720e+01
5.350128e+02	-3.292558e+01
5.381030e+02	-3.297393e+01
5.412111e+02	-3.302163e+01
5.443371e+02	-3.307665e+01
5.474812e+02	-3.312070e+01
5.506434e+02	-3.317154e+01
5.538239e+02	-3.322738e+01
5.570228e+02	-3.327481e+01
5.602401e+02	-3.332934e+01
5.634760e+02	-3.337492e+01
5.667306e+02	-3.342625e+01
5.700040e+02	-3.347095e+01
5.732964e+02	-3.352460e+01
5.766077e+02	-3.357546e+01
5.799382e+02	-3.362380e+01
5.832879e+02	-3.367517e+01
5.866569e+02	-3.372324e+01
5.900454e+02	-3.377802e+01
5.934535e+02	-3.382788e+01
5.968813e+02	-3.387572e+01
6.003288e+02	-3.392706e+01
6.037963e+02	-3.397647e+01
6.072838e+02	-3.402860e+01
6.107914e+02	-3.408050e+01
6.143194e+02	-3.411918e+01
6.178676e+02	-3.418179e+01
6.214364e+02	-3.422330e+01
6.250258e+02	-3.428025e+01
6.286359e+02	-3.433226e+01
6.322669e+02	-3.438294e+01
6.359189e+02	-3.443347e+01
6.395919e+02	-3.448034e+01
6.432862e+02	-3.453030e+01
6.470017e+02	-3.458601e+01
6.507388e+02	-3.463258e+01
6.544974e+02	-3.468321e+01
6.582778e+02	-3.473617e+01
6.620800e+02	-3.478823e+01
6.659041e+02	-3.483254e+01
6.697504e+02	-3.489342e+01
6.736188e+02	-3.493006e+01
6.775096e+02	-3.497674e+01
6.814229e+02	-3.503335e+01
6.853587e+02	-3.508330e+01
6.893173e+02	-3.513866e+01
6.932988e+02	-3.518707e+01
6.973033e+02	-3.522825e+01
7.013309e+02	-3.527906e+01
