Frequency(Hz)	Magnitude(dB)
1.000000e+01	-2.138667e+00
1.005776e+01	-2.158296e+00
1.011585e+01	-2.177912e+00
1.017428e+01	-2.197879e+00
1.023305e+01	-2.217488e+00
1.029215e+01	-2.237589e+00
1.035160e+01	-2.257881e+00
1.041139e+01	-2.278120e+00
1.047153e+01	-2.298765e+00
1.053201e+01	-2.319453e+00
1.059284e+01	-2.340303e+00
1.065403e+01	-2.361105e+00
1.071556e+01	-2.382072e+00
1.077746e+01	-2.403410e+00
1.083971e+01	-2.424677e+00
1.090232e+01	-2.446118e+00
1.096529e+01	-2.467688e+00
1.102862e+01	-2.489561e+00
1.109232e+01	-2.511345e+00
1.115639e+01	-2.533553e+00
1.122083e+01	-2.555652e+00
1.128564e+01	-2.577856e+00
1.135083e+01	-2.600436e+00
1.141639e+01	-2.622980e+00
1.148233e+01	-2.645876e+00
1.154865e+01	-2.668699e+00
1.161536e+01	-2.691452e+00
1.168245e+01	-2.714842e+00
1.174992e+01	-2.738030e+00
1.181779e+01	-2.761423e+00
1.188605e+01	-2.785231e+00
1.195470e+01	-2.808896e+00
1.202375e+01	-2.832931e+00
1.209320e+01	-2.857126e+00
1.216305e+01	-2.881145e+00
1.223330e+01	-2.905645e+00
1.230396e+01	-2.930059e+00
1.237503e+01	-2.954547e+00
1.244651e+01	-2.979007e+00
1.251840e+01	-3.004448e+00
1.259070e+01	-3.029223e+00
1.266343e+01	-3.054496e+00
1.273657e+01	-3.079396e+00
1.281014e+01	-3.105468e+00
1.288413e+01	-3.131148e+00
1.295855e+01	-3.156838e+00
1.303339e+01	-3.182724e+00
1.310867e+01	-3.208583e+00
1.318439e+01	-3.234752e+00
1.326054e+01	-3.261396e+00
1.333713e+01	-3.287658e+00
1.341417e+01	-3.314197e+00
1.349165e+01	-3.341055e+00
1.356958e+01	-3.367996e+00
1.364795e+01	-3.395181e+00
1.372678e+01	-3.422079e+00
1.380607e+01	-3.449609e+00
1.388581e+01	-3.477248e+00
1.396602e+01	-3.504717e+00
1.404668e+01	-3.532505e+00
1.412782e+01	-3.560357e+00
1.420942e+01	-3.588578e+00
1.429149e+01	-3.616638e+00
1.437404e+01	-3.645121e+00
1.445706e+01	-3.673482e+00
1.454057e+01	-3.702084e+00
1.462455e+01	-3.730651e+00
1.470902e+01	-3.759643e+00
1.479398e+01	-3.788936e+00
1.487943e+01	-3.818012e+00
1.496537e+01	-3.847313e+00
1.505181e+01	-3.876720e+00
1.513875e+01	-3.906435e+00
1.522619e+01	-3.936095e+00
1.531414e+01	-3.965977e+00
1.540259e+01	-3.996120e+00
1.549156e+01	-4.026233e+00
1.558103e+01	-4.056606e+00
1.567103e+01	-4.087232e+00
1.576155e+01	-4.117580e+00
1.585258e+01	-4.148230e+00
1.594415e+01	-4.179036e+00
1.603624e+01	-4.209992e+00
1.612886e+01	-4.241407e+00
1.622202e+01	-4.272572e+00
1.631572e+01	-4.303773e+00
1.640996e+01	-4.335571e+00
1.650474e+01	-4.367044e+00
1.660008e+01	-4.398862e+00
1.669596e+01	-4.430954e+00
1.679239e+01	-4.462874e+00
1.688938e+01	-4.495154e+00
1.698694e+01	-4.527273e+00
1.708505e+01	-4.559881e+00
1.718373e+01	-4.592248e+00
1.728299e+01	-4.624760e+00
1.738281e+01	-4.658191e+00
1.748322e+01	-4.690902e+00
1.758420e+01	-4.724147e+00
1.768576e+01	-4.757159e+00
1.778792e+01	-4.790683e+00
1.789066e+01	-4.824071e+00
1.799399e+01	-4.857687e+00
1.809793e+01	-4.891217e+00
1.820246e+01	-4.925295e+00
1.830760e+01	-4.959155e+00
1.841334e+01	-4.993676e+00
1.851969e+01	-5.027903e+00
1.862666e+01	-5.062232e+00
1.873425e+01	-5.096582e+00
1.884246e+01	-5.131328e+00
1.895129e+01	-5.166045e+00
1.906075e+01	-5.200686e+00
1.917085e+01	-5.236038e+00
1.928158e+01	-5.270764e+00
1.939295e+01	-5.305822e+00
1.950496e+01	-5.341339e+00
1.961762e+01	-5.377059e+00
1.973093e+01	-5.412498e+00
1.984490e+01	-5.448161e+00
1.995952e+01	-5.483980e+00
2.007480e+01	-5.519800e+00
2.019076e+01	-5.556095e+00
2.030738e+01	-5.592282e+00
2.042467e+01	-5.628404e+00
2.054264e+01	-5.664915e+00
2.066130e+01	-5.701257e+00
2.078064e+01	-5.738047e+00
2.090066e+01	-5.774819e+00
2.102139e+01	-5.811443e+00
2.114280e+01	-5.848607e+00
2.126492e+01	-5.885338e+00
2.138775e+01	-5.922791e+00
2.151128e+01	-5.960137e+00
2.163553e+01	-5.997415e+00
2.176050e+01	-6.034974e+00
2.188619e+01	-6.072417e+00
2.201260e+01	-6.110643e+00
2.213974e+01	-6.147941e+00
2.226762e+01	-6.185857e+00
2.239624e+01	-6.224137e+00
2.252560e+01	-6.261989e+00
2.265571e+01	-6.300372e+00
2.278656e+01	-6.339162e+00
2.291818e+01	-6.377425e+00
2.305055e+01	-6.416083e+00
2.318369e+01	-6.454524e+00
2.331760e+01	-6.493497e+00
2.345228e+01	-6.531874e+00
2.358774e+01	-6.571201e+00
2.372398e+01	-6.609821e+00
2.386101e+01	-6.649073e+00
2.399883e+01	-6.688659e+00
2.413745e+01	-6.728187e+00
2.427686e+01	-6.767501e+00
2.441709e+01	-6.807202e+00
2.455812e+01	-6.846560e+00
2.469997e+01	-6.886369e+00
2.484263e+01	-6.925974e+00
2.498612e+01	-6.966368e+00
2.513044e+01	-7.005976e+00
2.527559e+01	-7.045745e+00
2.542158e+01	-7.086098e+00
2.556842e+01	-7.126505e+00
2.571610e+01	-7.166738e+00
2.586463e+01	-7.207559e+00
2.601403e+01	-7.247675e+00
2.616428e+01	-7.288616e+00
2.631541e+01	-7.329334e+00
2.646740e+01	-7.370022e+00
2.662028e+01	-7.410927e+00
2.677404e+01	-7.452318e+00
2.692868e+01	-7.493334e+00
2.708422e+01	-7.534243e+00
2.724066e+01	-7.575376e+00
2.739800e+01	-7.616563e+00
2.755625e+01	-7.658102e+00
2.771541e+01	-7.699553e+00
2.787550e+01	-7.741370e+00
2.803650e+01	-7.782579e+00
2.819844e+01	-7.824739e+00
2.836131e+01	-7.866602e+00
2.852513e+01	-7.908098e+00
2.868989e+01	-7.950009e+00
2.885560e+01	-7.992231e+00
2.902227e+01	-8.034574e+00
2.918990e+01	-8.076416e+00
2.935850e+01	-8.119285e+00
2.952807e+01	-8.161544e+00
2.969863e+01	-8.203325e+00
2.987016e+01	-8.246360e+00
3.004269e+01	-8.288751e+00
3.021622e+01	-8.331172e+00
3.039075e+01	-8.374238e+00
3.056628e+01	-8.416733e+00
3.074283e+01	-8.460131e+00
3.092040e+01	-8.502985e+00
3.109900e+01	-8.545787e+00
3.127862e+01	-8.588939e+00
3.145929e+01	-8.631665e+00
3.164099e+01	-8.674768e+00
3.182375e+01	-8.718606e+00
3.200756e+01	-8.761591e+00
3.219244e+01	-8.805311e+00
3.237838e+01	-8.848297e+00
3.256540e+01	-8.892341e+00
3.275349e+01	-8.936088e+00
3.294268e+01	-8.979128e+00
3.313295e+01	-9.023344e+00
3.332433e+01	-9.067288e+00
3.351681e+01	-9.110630e+00
3.371040e+01	-9.155135e+00
3.390511e+01	-9.198832e+00
3.410094e+01	-9.242863e+00
3.429791e+01	-9.286693e+00
3.449601e+01	-9.331159e+00
3.469526e+01	-9.375125e+00
3.489566e+01	-9.419663e+00
3.509721e+01	-9.463830e+00
3.529993e+01	-9.508733e+00
3.550382e+01	-9.552587e+00
3.570889e+01	-9.597341e+00
3.591515e+01	-9.641835e+00
3.612259e+01	-9.686674e+00
3.633123e+01	-9.730894e+00
3.654108e+01	-9.776325e+00
3.675214e+01	-9.820776e+00
3.696442e+01	-9.865570e+00
3.717792e+01	-9.910550e+00
3.739266e+01	-9.955452e+00
3.760864e+01	-1.000014e+01
3.782587e+01	-1.004524e+01
3.804435e+01	-1.009010e+01
3.826409e+01	-1.013535e+01
3.848510e+01	-1.018076e+01
3.870739e+01	-1.022613e+01
3.893096e+01	-1.027175e+01
3.915583e+01	-1.031629e+01
3.938199e+01	-1.036191e+01
3.960946e+01	-1.040729e+01
3.983824e+01	-1.045248e+01
4.006834e+01	-1.049863e+01
4.029978e+01	-1.054368e+01
4.053255e+01	-1.058971e+01
4.076666e+01	-1.063528e+01
4.100213e+01	-1.068107e+01
4.123896e+01	-1.072722e+01
4.147715e+01	-1.077233e+01
4.171672e+01	-1.081868e+01
4.195767e+01	-1.086406e+01
4.220002e+01	-1.091052e+01
4.244377e+01	-1.095586e+01
4.268892e+01	-1.100220e+01
4.293549e+01	-1.104882e+01
4.318348e+01	-1.109477e+01
4.343291e+01	-1.114083e+01
4.368377e+01	-1.118699e+01
4.393609e+01	-1.123357e+01
4.418986e+01	-1.127956e+01
4.444510e+01	-1.132602e+01
4.470182e+01	-1.137300e+01
4.496001e+01	-1.141804e+01
4.521970e+01	-1.146491e+01
4.548089e+01	-1.151186e+01
4.574358e+01	-1.155836e+01
4.600779e+01	-1.160445e+01
4.627353e+01	-1.165077e+01
4.654081e+01	-1.169807e+01
4.680963e+01	-1.174482e+01
4.708000e+01	-1.179153e+01
4.735193e+01	-1.183776e+01
4.762543e+01	-1.188492e+01
4.790051e+01	-1.193132e+01
4.817719e+01	-1.197862e+01
4.845545e+01	-1.202488e+01
4.873533e+01	-1.207247e+01
4.901682e+01	-1.211906e+01
4.929994e+01	-1.216621e+01
4.958470e+01	-1.221339e+01
4.987110e+01	-1.225959e+01
5.015915e+01	-1.230701e+01
5.044887e+01	-1.235405e+01
5.074026e+01	-1.240162e+01
5.103333e+01	-1.244900e+01
5.132810e+01	-1.249580e+01
5.162457e+01	-1.254346e+01
5.192275e+01	-1.259014e+01
5.222265e+01	-1.263803e+01
5.252429e+01	-1.268507e+01
5.282767e+01	-1.273223e+01
5.313280e+01	-1.277935e+01
5.343969e+01	-1.282748e+01
5.374836e+01	-1.287435e+01
5.405880e+01	-1.292209e+01
5.437105e+01	-1.296942e+01
5.468509e+01	-1.301676e+01
5.500095e+01	-1.306450e+01
5.531863e+01	-1.311261e+01
5.563815e+01	-1.315966e+01
5.595951e+01	-1.320633e+01
5.628273e+01	-1.325534e+01
5.660782e+01	-1.330314e+01
5.693479e+01	-1.334988e+01
5.726364e+01	-1.339768e+01
5.759439e+01	-1.344664e+01
5.792705e+01	-1.349352e+01
5.826164e+01	-1.354205e+01
5.859815e+01	-1.358860e+01
5.893662e+01	-1.363632e+01
5.927703e+01	-1.368404e+01
5.961941e+01	-1.373236e+01
5.996377e+01	-1.378053e+01
6.031012e+01	-1.382868e+01
6.065847e+01	-1.387565e+01
6.100883e+01	-1.392519e+01
6.136121e+01	-1.397259e+01
6.171563e+01	-1.402109e+01
6.207210e+01	-1.406885e+01
6.243063e+01	-1.411670e+01
6.279122e+01	-1.416499e+01
6.315390e+01	-1.421255e+01
6.351868e+01	-1.426167e+01
6.388556e+01	-1.430966e+01
6.425456e+01	-1.435772e+01
6.462569e+01	-1.440526e+01
6.499897e+01	-1.445302e+01
6.537440e+01	-1.450242e+01
6.575200e+01	-1.455078e+01
6.613178e+01	-1.459767e+01
6.651375e+01	-1.464706e+01
6.689793e+01	-1.469499e+01
6.728433e+01	-1.474429e+01
6.767297e+01	-1.479248e+01
6.806384e+01	-1.484072e+01
6.845698e+01	-1.488876e+01
6.885238e+01	-1.493724e+01
6.925007e+01	-1.498584e+01
6.965005e+01	-1.503363e+01
7.005235e+01	-1.508222e+01
7.045697e+01	-1.513081e+01
7.086393e+01	-1.518122e+01
7.127323e+01	-1.522791e+01
7.168490e+01	-1.527751e+01
7.209895e+01	-1.532491e+01
7.251539e+01	-1.537464e+01
7.293424e+01	-1.542274e+01
7.335551e+01	-1.547122e+01
7.377920e+01	-1.551895e+01
7.420535e+01	-1.556830e+01
7.463396e+01	-1.561738e+01
7.506504e+01	-1.566578e+01
7.549861e+01	-1.571423e+01
7.593469e+01	-1.576306e+01
7.637328e+01	-1.581233e+01
7.681441e+01	-1.586069e+01
7.725809e+01	-1.590938e+01
7.770433e+01	-1.595766e+01
7.815315e+01	-1.600670e+01
7.860456e+01	-1.605605e+01
7.905857e+01	-1.610348e+01
7.951521e+01	-1.615285e+01
7.997449e+01	-1.620133e+01
8.043642e+01	-1.625091e+01
8.090102e+01	-1.629903e+01
8.136830e+01	-1.634830e+01
8.183828e+01	-1.639674e+01
8.231097e+01	-1.644623e+01
8.278640e+01	-1.649432e+01
8.326457e+01	-1.654388e+01
8.374550e+01	-1.659159e+01
8.422921e+01	-1.664195e+01
8.471572e+01	-1.669063e+01
8.520503e+01	-1.674017e+01
8.569717e+01	-1.678823e+01
8.619215e+01	-1.683791e+01
8.669000e+01	-1.688636e+01
8.719071e+01	-1.693609e+01
8.769432e+01	-1.698454e+01
8.820084e+01	-1.703389e+01
8.871029e+01	-1.708310e+01
8.922267e+01	-1.713136e+01
8.973802e+01	-1.718118e+01
9.025634e+01	-1.722978e+01
9.077766e+01	-1.727828e+01
9.130199e+01	-1.732759e+01
9.182935e+01	-1.737619e+01
9.235975e+01	-1.742748e+01
9.289321e+01	-1.747378e+01
9.342976e+01	-1.752544e+01
9.396941e+01	-1.757378e+01
9.451217e+01	-1.762344e+01
9.505807e+01	-1.767153e+01
9.560712e+01	-1.772169e+01
9.615934e+01	-1.776952e+01
9.671476e+01	-1.782076e+01
9.727338e+01	-1.786929e+01
9.783522e+01	-1.791693e+01
9.840032e+01	-1.796773e+01
9.896867e+01	-1.801691e+01
9.954031e+01	-1.806569e+01
1.001153e+02	-1.811558e+01
1.006935e+02	-1.816496e+01
1.012751e+02	-1.821361e+01
1.018601e+02	-1.826280e+01
1.024484e+02	-1.831229e+01
1.030402e+02	-1.836233e+01
1.036353e+02	-1.841127e+01
1.042339e+02	-1.846098e+01
1.048360e+02	-1.850910e+01
1.054415e+02	-1.855893e+01
1.060505e+02	-1.860697e+01
1.066631e+02	-1.865680e+01
1.072791e+02	-1.870730e+01
1.078988e+02	-1.875452e+01
1.085220e+02	-1.880399e+01
1.091488e+02	-1.885562e+01
1.097793e+02	-1.890279e+01
1.104133e+02	-1.895396e+01
1.110511e+02	-1.900278e+01
1.116925e+02	-1.905271e+01
1.123376e+02	-1.910199e+01
1.129865e+02	-1.915085e+01
1.136391e+02	-1.920068e+01
1.142955e+02	-1.925108e+01
1.149556e+02	-1.929939e+01
1.156196e+02	-1.934860e+01
1.162874e+02	-1.939774e+01
1.169591e+02	-1.944725e+01
1.176347e+02	-1.949835e+01
1.183141e+02	-1.954571e+01
1.189975e+02	-1.959622e+01
1.196848e+02	-1.964699e+01
1.203761e+02	-1.969508e+01
1.210714e+02	-1.974280e+01
1.217707e+02	-1.979567e+01
1.224740e+02	-1.984465e+01
1.231814e+02	-1.989279e+01
1.238929e+02	-1.994352e+01
1.246085e+02	-1.999393e+01
1.253283e+02	-2.004117e+01
1.260522e+02	-2.009237e+01
1.267802e+02	-2.013955e+01
1.275125e+02	-2.019129e+01
1.282490e+02	-2.024002e+01
1.289898e+02	-2.028981e+01
1.297348e+02	-2.033882e+01
1.304842e+02	-2.038934e+01
1.312378e+02	-2.043830e+01
1.319959e+02	-2.048794e+01
1.327583e+02	-2.053684e+01
1.335251e+02	-2.058613e+01
1.342963e+02	-2.063677e+01
1.350720e+02	-2.068734e+01
1.358522e+02	-2.073821e+01
1.366368e+02	-2.078645e+01
1.374260e+02	-2.083647e+01
1.382198e+02	-2.088641e+01
1.390182e+02	-2.093273e+01
1.398211e+02	-2.098378e+01
1.406287e+02	-2.103364e+01
1.414410e+02	-2.108259e+01
1.422579e+02	-2.113411e+01
1.430796e+02	-2.118164e+01
1.439060e+02	-2.123347e+01
1.447372e+02	-2.128296e+01
1.455732e+02	-2.132941e+01
1.464141e+02	-2.138078e+01
1.472597e+02	-2.143146e+01
1.481103e+02	-2.148108e+01
1.489658e+02	-2.153018e+01
1.498262e+02	-2.157908e+01
1.506916e+02	-2.163051e+01
1.515620e+02	-2.168038e+01
1.524374e+02	-2.173042e+01
1.533179e+02	-2.177948e+01
1.542034e+02	-2.182863e+01
1.550941e+02	-2.187662e+01
1.559899e+02	-2.192879e+01
1.568909e+02	-2.197861e+01
1.577971e+02	-2.202732e+01
1.587085e+02	-2.207626e+01
1.596252e+02	-2.212491e+01
1.605472e+02	-2.217691e+01
1.614745e+02	-2.222668e+01
1.624072e+02	-2.227730e+01
1.633453e+02	-2.232436e+01
1.642887e+02	-2.237540e+01
1.652377e+02	-2.242433e+01
1.661921e+02	-2.247497e+01
1.671520e+02	-2.252334e+01
1.681175e+02	-2.257649e+01
1.690885e+02	-2.262447e+01
1.700651e+02	-2.267365e+01
1.710474e+02	-2.272527e+01
1.720354e+02	-2.277192e+01
1.730291e+02	-2.282491e+01
1.740285e+02	-2.287404e+01
1.750337e+02	-2.292197e+01
1.760446e+02	-2.296994e+01
1.770615e+02	-2.302347e+01
1.780842e+02	-2.307172e+01
1.791128e+02	-2.312156e+01
1.801473e+02	-2.317533e+01
1.811878e+02	-2.322375e+01
1.822344e+02	-2.327190e+01
1.832870e+02	-2.332260e+01
1.843456e+02	-2.337198e+01
1.854104e+02	-2.342319e+01
1.864813e+02	-2.347103e+01
1.875584e+02	-2.352285e+01
1.886418e+02	-2.357272e+01
1.897313e+02	-2.362186e+01
1.908272e+02	-2.367036e+01
1.919294e+02	-2.372066e+01
1.930380e+02	-2.377229e+01
1.941530e+02	-2.382039e+01
1.952744e+02	-2.386999e+01
1.964023e+02	-2.392101e+01
1.975367e+02	-2.396999e+01
1.986777e+02	-2.401909e+01
1.998252e+02	-2.407097e+01
2.009794e+02	-2.411852e+01
2.021403e+02	-2.416570e+01
2.033078e+02	-2.421623e+01
2.044821e+02	-2.426844e+01
2.056632e+02	-2.432118e+01
2.068511e+02	-2.436897e+01
2.080459e+02	-2.442039e+01
2.092475e+02	-2.446715e+01
2.104561e+02	-2.451809e+01
2.116717e+02	-2.456694e+01
2.128943e+02	-2.461561e+01
2.141240e+02	-2.466785e+01
2.153608e+02	-2.471571e+01
2.166047e+02	-2.476891e+01
2.178558e+02	-2.481651e+01
2.191141e+02	-2.486782e+01
2.203797e+02	-2.491694e+01
2.216526e+02	-2.496837e+01
2.229329e+02	-2.501660e+01
2.242205e+02	-2.506836e+01
2.255156e+02	-2.511840e+01
2.268182e+02	-2.516648e+01
2.281283e+02	-2.521378e+01
2.294459e+02	-2.526811e+01
2.307712e+02	-2.531326e+01
2.321041e+02	-2.536459e+01
2.334447e+02	-2.541613e+01
2.347931e+02	-2.546468e+01
2.361493e+02	-2.551346e+01
2.375133e+02	-2.556555e+01
2.388851e+02	-2.561632e+01
2.402649e+02	-2.566563e+01
2.416527e+02	-2.571696e+01
2.430484e+02	-2.576539e+01
2.444523e+02	-2.581416e+01
2.458642e+02	-2.586738e+01
2.472843e+02	-2.591581e+01
2.487126e+02	-2.596668e+01
2.501492e+02	-2.601504e+01
2.515940e+02	-2.606652e+01
2.530472e+02	-2.611538e+01
2.545088e+02	-2.616703e+01
2.559789e+02	-2.621605e+01
2.574574e+02	-2.626142e+01
2.589444e+02	-2.631545e+01
2.604401e+02	-2.636526e+01
2.619444e+02	-2.641377e+01
2.634574e+02	-2.646507e+01
2.649791e+02	-2.651628e+01
2.665096e+02	-2.656241e+01
2.680489e+02	-2.661160e+01
2.695972e+02	-2.666498e+01
2.711544e+02	-2.671620e+01
2.727205e+02	-2.676314e+01
2.742958e+02	-2.681554e+01
2.758801e+02	-2.686404e+01
2.774736e+02	-2.691445e+01
2.790762e+02	-2.696189e+01
2.806882e+02	-2.701484e+01
2.823094e+02	-2.706642e+01
2.839400e+02	-2.711525e+01
2.855800e+02	-2.716560e+01
2.872295e+02	-2.721736e+01
2.888886e+02	-2.726459e+01
2.905572e+02	-2.730863e+01
2.922354e+02	-2.736320e+01
2.939234e+02	-2.741647e+01
2.956211e+02	-2.746596e+01
2.973286e+02	-2.751366e+01
2.990459e+02	-2.756203e+01
3.007732e+02	-2.761500e+01
3.025104e+02	-2.766521e+01
3.042577e+02	-2.771739e+01
3.060151e+02	-2.776424e+01
3.077826e+02	-2.781454e+01
3.095604e+02	-2.786278e+01
3.113484e+02	-2.791228e+01
3.131467e+02	-2.796063e+01
3.149554e+02	-2.801375e+01
3.167746e+02	-2.806260e+01
3.186043e+02	-2.811721e+01
3.204445e+02	-2.816467e+01
3.222954e+02	-2.821628e+01
3.241570e+02	-2.826692e+01
3.260293e+02	-2.831702e+01
3.279124e+02	-2.836433e+01
3.298064e+02	-2.841870e+01
3.317114e+02	-2.846579e+01
3.336273e+02	-2.851442e+01
3.355544e+02	-2.856714e+01
3.374925e+02	-2.861446e+01
3.394418e+02	-2.866547e+01
3.414024e+02	-2.871868e+01
3.433744e+02	-2.876438e+01
3.453577e+02	-2.881308e+01
3.473525e+02	-2.886582e+01
3.493588e+02	-2.891292e+01
3.513766e+02	-2.896413e+01
3.534062e+02	-2.901755e+01
3.554474e+02	-2.906560e+01
3.575005e+02	-2.911208e+01
3.595654e+02	-2.916381e+01
3.616422e+02	-2.921572e+01
3.637311e+02	-2.926662e+01
3.658320e+02	-2.931472e+01
3.679450e+02	-2.936616e+01
3.700702e+02	-2.941224e+01
3.722077e+02	-2.946981e+01
3.743576e+02	-2.951225e+01
3.765199e+02	-2.956363e+01
3.786946e+02	-2.961432e+01
3.808820e+02	-2.966604e+01
3.830819e+02	-2.971827e+01
3.852946e+02	-2.976722e+01
3.875200e+02	-2.981913e+01
3.897583e+02	-2.987040e+01
3.920096e+02	-2.991749e+01
3.942738e+02	-2.997123e+01
3.965511e+02	-3.001928e+01
3.988416e+02	-3.006851e+01
4.011452e+02	-3.011420e+01
4.034622e+02	-3.016535e+01
4.057926e+02	-3.021691e+01
4.081365e+02	-3.026548e+01
4.104938e+02	-3.031935e+01
4.128648e+02	-3.036861e+01
4.152495e+02	-3.041395e+01
4.176480e+02	-3.046987e+01
4.200603e+02	-3.052003e+01
4.224866e+02	-3.056889e+01
4.249268e+02	-3.061763e+01
4.273812e+02	-3.067124e+01
4.298497e+02	-3.071759e+01
4.323325e+02	-3.076672e+01
4.348297e+02	-3.081725e+01
4.373412e+02	-3.086582e+01
4.398673e+02	-3.091788e+01
4.424079e+02	-3.097216e+01
4.449633e+02	-3.102096e+01
4.475334e+02	-3.107070e+01
4.501183e+02	-3.112126e+01
4.527182e+02	-3.116414e+01
4.553330e+02	-3.121902e+01
4.579630e+02	-3.126828e+01
4.606082e+02	-3.132446e+01
4.632687e+02	-3.136641e+01
4.659445e+02	-3.142475e+01
4.686358e+02	-3.146760e+01
4.713426e+02	-3.151620e+01
4.740650e+02	-3.157127e+01
4.768032e+02	-3.161593e+01
4.795572e+02	-3.167084e+01
4.823271e+02	-3.172497e+01
4.851130e+02	-3.177455e+01
4.879150e+02	-3.182053e+01
4.907332e+02	-3.186290e+01
4.935676e+02	-3.191995e+01
4.964185e+02	-3.196582e+01
4.992858e+02	-3.202484e+01
5.021696e+02	-3.207187e+01
5.050701e+02	-3.211988e+01
5.079874e+02	-3.217655e+01
5.109215e+02	-3.221501e+01
5.138726e+02	-3.227249e+01
5.168407e+02	-3.232377e+01
5.198259e+02	-3.237281e+01
5.228284e+02	-3.242403e+01
5.258482e+02	-3.247059e+01
5.288855e+02	-3.252646e+01
5.319403e+02	-3.258114e+01
5.350128e+02	-3.262420e+01
5.381030e+02	-3.266916e+01
5.412111e+02	-3.272635e+01
5.443371e+02	-3.276972e+01
5.474812e+02	-3.282448e+01
5.506434e+02	-3.287258e+01
5.538239e+02	-3.291724e+01
5.570228e+02	-3.297422e+01
5.602401e+02	-3.302504e+01
5.634760e+02	-3.306750e+01
5.667306e+02	-3.312677e+01
5.700040e+02	-3.317669e+01
5.732964e+02	-3.322386e+01
5.766077e+02	-3.327987e+01
5.799382e+02	-3.332625e+01
5.832879e+02	-3.337643e+01
5.866569e+02	-3.342196e+01
5.900454e+02	-3.347832e+01
5.934535e+02	-3.352773e+01
5.968813e+02	-3.358135e+01
6.003288e+02	-3.363086e+01
6.037963e+02	-3.368057e+01
6.072838e+02	-3.372929e+01
6.107914e+02	-3.377587e+01
6.143194e+02	-3.382403e+01
6.178676e+02	-3.387687e+01
6.214364e+02	-3.392665e+01
6.250258e+02	-3.397201e+01
6.286359e+02	-3.403035e+01
6.322669e+02	-3.407258e+01
6.359189e+02	-3.413282e+01
6.395919e+02	-3.417693e+01
6.432862e+02	-3.423141e+01
6.470017e+02	-3.427789e+01
6.507388e+02	-3.433590e+01
6.544974e+02	-3.438251e+01
6.582778e+02	-3.442712e+01
6.620800e+02	-3.448593e+01
6.659041e+02	-3.452841e+01
6.697504e+02	-3.458395e+01
6.736188e+02	-3.462520e+01
6.775096e+02	-3.468289e+01
6.814229e+02	-3.474275e+01
6.853587e+02	-3.478463e+01
6.893173e+02	-3.483759e+01
6.932988e+02	-3.488714e+01
6.973033e+02	-3.493350e+01
7.013309e+02	-3.498606e+01
