Frequency(Hz)	Magnitude(dB)
1.000000e+01	-1.638744e-05
1.005776e+01	-1.657729e-05
1.011585e+01	-1.676935e-05
1.017428e+01	-1.696362e-05
1.023305e+01	-1.716015e-05
1.029215e+01	-1.735896e-05
1.035160e+01	-1.756007e-05
1.041139e+01	-1.776350e-05
1.047153e+01	-1.796930e-05
1.053201e+01	-1.817748e-05
1.059284e+01	-1.838807e-05
1.065403e+01	-1.860110e-05
1.071556e+01	-1.881660e-05
1.077746e+01	-1.903459e-05
1.083971e+01	-1.925511e-05
1.090232e+01	-1.947819e-05
1.096529e+01	-1.970385e-05
1.102862e+01	-1.993212e-05
1.109232e+01	-2.016304e-05
1.115639e+01	-2.039663e-05
1.122083e+01	-2.063293e-05
1.128564e+01	-2.087197e-05
1.135083e+01	-2.111378e-05
1.141639e+01	-2.135839e-05
1.148233e+01	-2.160583e-05
1.154865e+01	-2.185614e-05
1.161536e+01	-2.210935e-05
1.168245e+01	-2.236549e-05
1.174992e+01	-2.262460e-05
1.181779e+01	-2.288671e-05
1.188605e+01	-2.315186e-05
1.195470e+01	-2.342008e-05
1.202375e+01	-2.369141e-05
1.209320e+01	-2.396588e-05
1.216305e+01	-2.424353e-05
1.223330e+01	-2.452440e-05
1.230396e+01	-2.480852e-05
1.237503e+01	-2.509593e-05
1.244651e+01	-2.538667e-05
1.251840e+01	-2.568078e-05
1.259070e+01	-2.597830e-05
1.266343e+01	-2.627927e-05
1.273657e+01	-2.658372e-05
1.281014e+01	-2.689170e-05
1.288413e+01	-2.720324e-05
1.295855e+01	-2.751840e-05
1.303339e+01	-2.783721e-05
1.310867e+01	-2.815971e-05
1.318439e+01	-2.848594e-05
1.326054e+01	-2.881596e-05
1.333713e+01	-2.914980e-05
1.341417e+01	-2.948751e-05
1.349165e+01	-2.982913e-05
1.356958e+01	-3.017471e-05
1.364795e+01	-3.052429e-05
1.372678e+01	-3.087792e-05
1.380607e+01	-3.123565e-05
1.388581e+01	-3.159752e-05
1.396602e+01	-3.196358e-05
1.404668e+01	-3.233389e-05
1.412782e+01	-3.270848e-05
1.420942e+01	-3.308742e-05
1.429149e+01	-3.347075e-05
1.437404e+01	-3.385851e-05
1.445706e+01	-3.425077e-05
1.454057e+01	-3.464757e-05
1.462455e+01	-3.504897e-05
1.470902e+01	-3.545503e-05
1.479398e+01	-3.586578e-05
1.487943e+01	-3.628129e-05
1.496537e+01	-3.670162e-05
1.505181e+01	-3.712682e-05
1.513875e+01	-3.755694e-05
1.522619e+01	-3.799205e-05
1.531414e+01	-3.843219e-05
1.540259e+01	-3.887744e-05
1.549156e+01	-3.932784e-05
1.558103e+01	-3.978346e-05
1.567103e+01	-4.024436e-05
1.576155e+01	-4.071060e-05
1.585258e+01	-4.118225e-05
1.594415e+01	-4.165935e-05
1.603624e+01	-4.214198e-05
1.612886e+01	-4.263021e-05
1.622202e+01	-4.312409e-05
1.631572e+01	-4.362369e-05
1.640996e+01	-4.412908e-05
1.650474e+01	-4.464033e-05
1.660008e+01	-4.515749e-05
1.669596e+01	-4.568065e-05
1.679239e+01	-4.620987e-05
1.688938e+01	-4.674523e-05
1.698694e+01	-4.728678e-05
1.708505e+01	-4.783461e-05
1.718373e+01	-4.838878e-05
1.728299e+01	-4.894938e-05
1.738281e+01	-4.951646e-05
1.748322e+01	-5.009012e-05
1.758420e+01	-5.067043e-05
1.768576e+01	-5.125746e-05
1.778792e+01	-5.185128e-05
1.789066e+01	-5.245199e-05
1.799399e+01	-5.305966e-05
1.809793e+01	-5.367437e-05
1.820246e+01	-5.429620e-05
1.830760e+01	-5.492523e-05
1.841334e+01	-5.556155e-05
1.851969e+01	-5.620524e-05
1.862666e+01	-5.685639e-05
1.873425e+01	-5.751508e-05
1.884246e+01	-5.818141e-05
1.895129e+01	-5.885545e-05
1.906075e+01	-5.953730e-05
1.917085e+01	-6.022705e-05
1.928158e+01	-6.092480e-05
1.939295e+01	-6.163062e-05
1.950496e+01	-6.234462e-05
1.961762e+01	-6.306690e-05
1.973093e+01	-6.379754e-05
1.984490e+01	-6.453665e-05
1.995952e+01	-6.528432e-05
2.007480e+01	-6.604065e-05
2.019076e+01	-6.680574e-05
2.030738e+01	-6.757970e-05
2.042467e+01	-6.836262e-05
2.054264e+01	-6.915462e-05
2.066130e+01	-6.995579e-05
2.078064e+01	-7.076624e-05
2.090066e+01	-7.158608e-05
2.102139e+01	-7.241541e-05
2.114280e+01	-7.325436e-05
2.126492e+01	-7.410302e-05
2.138775e+01	-7.496152e-05
2.151128e+01	-7.582996e-05
2.163553e+01	-7.670847e-05
2.176050e+01	-7.759715e-05
2.188619e+01	-7.849613e-05
2.201260e+01	-7.940552e-05
2.213974e+01	-8.032544e-05
2.226762e+01	-8.125603e-05
2.239624e+01	-8.219739e-05
2.252560e+01	-8.314966e-05
2.265571e+01	-8.411297e-05
2.278656e+01	-8.508743e-05
2.291818e+01	-8.607318e-05
2.305055e+01	-8.707035e-05
2.318369e+01	-8.807908e-05
2.331760e+01	-8.909949e-05
2.345228e+01	-9.013172e-05
2.358774e+01	-9.117591e-05
2.372398e+01	-9.223220e-05
2.386101e+01	-9.330072e-05
2.399883e+01	-9.438162e-05
2.413745e+01	-9.547505e-05
2.427686e+01	-9.658114e-05
2.441709e+01	-9.770005e-05
2.455812e+01	-9.883192e-05
2.469997e+01	-9.997690e-05
2.484263e+01	-1.011351e-04
2.498612e+01	-1.023068e-04
2.513044e+01	-1.034921e-04
2.527559e+01	-1.046910e-04
2.542158e+01	-1.059039e-04
2.556842e+01	-1.071308e-04
2.571610e+01	-1.083719e-04
2.586463e+01	-1.096274e-04
2.601403e+01	-1.108975e-04
2.616428e+01	-1.121822e-04
2.631541e+01	-1.134819e-04
2.646740e+01	-1.147966e-04
2.662028e+01	-1.161265e-04
2.677404e+01	-1.174718e-04
2.692868e+01	-1.188328e-04
2.708422e+01	-1.202095e-04
2.724066e+01	-1.216021e-04
2.739800e+01	-1.230109e-04
2.755625e+01	-1.244360e-04
2.771541e+01	-1.258776e-04
2.787550e+01	-1.273359e-04
2.803650e+01	-1.288111e-04
2.819844e+01	-1.303034e-04
2.836131e+01	-1.318130e-04
2.852513e+01	-1.333400e-04
2.868989e+01	-1.348848e-04
2.885560e+01	-1.364474e-04
2.902227e+01	-1.380282e-04
2.918990e+01	-1.396273e-04
2.935850e+01	-1.412449e-04
2.952807e+01	-1.428812e-04
2.969863e+01	-1.445365e-04
2.987016e+01	-1.462109e-04
3.004269e+01	-1.479048e-04
3.021622e+01	-1.496183e-04
3.039075e+01	-1.513516e-04
3.056628e+01	-1.531051e-04
3.074283e+01	-1.548788e-04
3.092040e+01	-1.566731e-04
3.109900e+01	-1.584881e-04
3.127862e+01	-1.603242e-04
3.145929e+01	-1.621816e-04
3.164099e+01	-1.640605e-04
3.182375e+01	-1.659611e-04
3.200756e+01	-1.678838e-04
3.219244e+01	-1.698287e-04
3.237838e+01	-1.717962e-04
3.256540e+01	-1.737865e-04
3.275349e+01	-1.757998e-04
3.294268e+01	-1.778365e-04
3.313295e+01	-1.798967e-04
3.332433e+01	-1.819808e-04
3.351681e+01	-1.840891e-04
3.371040e+01	-1.862217e-04
3.390511e+01	-1.883791e-04
3.410094e+01	-1.905615e-04
3.429791e+01	-1.927692e-04
3.449601e+01	-1.950024e-04
3.469526e+01	-1.972615e-04
3.489566e+01	-1.995468e-04
3.509721e+01	-2.018585e-04
3.529993e+01	-2.041971e-04
3.550382e+01	-2.065627e-04
3.570889e+01	-2.089557e-04
3.591515e+01	-2.113765e-04
3.612259e+01	-2.138253e-04
3.633123e+01	-2.163024e-04
3.654108e+01	-2.188083e-04
3.675214e+01	-2.213432e-04
3.696442e+01	-2.239074e-04
3.717792e+01	-2.265014e-04
3.739266e+01	-2.291254e-04
3.760864e+01	-2.317798e-04
3.782587e+01	-2.344650e-04
3.804435e+01	-2.371813e-04
3.826409e+01	-2.399290e-04
3.848510e+01	-2.427086e-04
3.870739e+01	-2.455203e-04
3.893096e+01	-2.483647e-04
3.915583e+01	-2.512420e-04
3.938199e+01	-2.541526e-04
3.960946e+01	-2.570969e-04
3.983824e+01	-2.600754e-04
4.006834e+01	-2.630883e-04
4.029978e+01	-2.661362e-04
4.053255e+01	-2.692193e-04
4.076666e+01	-2.723382e-04
4.100213e+01	-2.754932e-04
4.123896e+01	-2.786848e-04
4.147715e+01	-2.819133e-04
4.171672e+01	-2.851793e-04
4.195767e+01	-2.884830e-04
4.220002e+01	-2.918251e-04
4.244377e+01	-2.952059e-04
4.268892e+01	-2.986258e-04
4.293549e+01	-3.020853e-04
4.318348e+01	-3.055849e-04
4.343291e+01	-3.091251e-04
4.368377e+01	-3.127063e-04
4.393609e+01	-3.163289e-04
4.418986e+01	-3.199936e-04
4.444510e+01	-3.237006e-04
4.470182e+01	-3.274506e-04
4.496001e+01	-3.312441e-04
4.521970e+01	-3.350815e-04
4.548089e+01	-3.389634e-04
4.574358e+01	-3.428902e-04
4.600779e+01	-3.468625e-04
4.627353e+01	-3.508809e-04
4.654081e+01	-3.549457e-04
4.680963e+01	-3.590577e-04
4.708000e+01	-3.632173e-04
4.735193e+01	-3.674251e-04
4.762543e+01	-3.716817e-04
4.790051e+01	-3.759875e-04
4.817719e+01	-3.803432e-04
4.845545e+01	-3.847494e-04
4.873533e+01	-3.892067e-04
4.901682e+01	-3.937155e-04
4.929994e+01	-3.982766e-04
4.958470e+01	-4.028905e-04
4.987110e+01	-4.075579e-04
5.015915e+01	-4.122794e-04
5.044887e+01	-4.170555e-04
5.074026e+01	-4.218870e-04
5.103333e+01	-4.267744e-04
5.132810e+01	-4.317185e-04
5.162457e+01	-4.367198e-04
5.192275e+01	-4.417791e-04
5.222265e+01	-4.468969e-04
5.252429e+01	-4.520741e-04
5.282767e+01	-4.573112e-04
5.313280e+01	-4.626090e-04
5.343969e+01	-4.679682e-04
5.374836e+01	-4.733894e-04
5.405880e+01	-4.788735e-04
5.437105e+01	-4.844210e-04
5.468509e+01	-4.900329e-04
5.500095e+01	-4.957097e-04
5.531863e+01	-5.014523e-04
5.563815e+01	-5.072614e-04
5.595951e+01	-5.131379e-04
5.628273e+01	-5.190823e-04
5.660782e+01	-5.250957e-04
5.693479e+01	-5.311787e-04
5.726364e+01	-5.373322e-04
5.759439e+01	-5.435569e-04
5.792705e+01	-5.498538e-04
5.826164e+01	-5.562236e-04
5.859815e+01	-5.626672e-04
5.893662e+01	-5.691854e-04
5.927703e+01	-5.757791e-04
5.961941e+01	-5.824492e-04
5.996377e+01	-5.891966e-04
6.031012e+01	-5.960222e-04
6.065847e+01	-6.029268e-04
6.100883e+01	-6.099113e-04
6.136121e+01	-6.169768e-04
6.171563e+01	-6.241242e-04
6.207210e+01	-6.313543e-04
6.243063e+01	-6.386682e-04
6.279122e+01	-6.460668e-04
6.315390e+01	-6.535511e-04
6.351868e+01	-6.611220e-04
6.388556e+01	-6.687807e-04
6.425456e+01	-6.765281e-04
6.462569e+01	-6.843653e-04
6.499897e+01	-6.922932e-04
6.537440e+01	-7.003130e-04
6.575200e+01	-7.084256e-04
6.613178e+01	-7.166323e-04
6.651375e+01	-7.249340e-04
6.689793e+01	-7.333318e-04
6.728433e+01	-7.418269e-04
6.767297e+01	-7.504205e-04
6.806384e+01	-7.591135e-04
6.845698e+01	-7.679073e-04
6.885238e+01	-7.768029e-04
6.925007e+01	-7.858016e-04
6.965005e+01	-7.949045e-04
7.005235e+01	-8.041128e-04
7.045697e+01	-8.134278e-04
7.086393e+01	-8.228507e-04
7.127323e+01	-8.323827e-04
7.168490e+01	-8.420252e-04
7.209895e+01	-8.517793e-04
7.251539e+01	-8.616464e-04
7.293424e+01	-8.716278e-04
7.335551e+01	-8.817248e-04
7.377920e+01	-8.919388e-04
7.420535e+01	-9.022711e-04
7.463396e+01	-9.127231e-04
7.506504e+01	-9.232961e-04
7.549861e+01	-9.339916e-04
7.593469e+01	-9.448109e-04
7.637328e+01	-9.557556e-04
7.681441e+01	-9.668271e-04
7.725809e+01	-9.780268e-04
7.770433e+01	-9.893562e-04
7.815315e+01	-1.000817e-03
7.860456e+01	-1.012410e-03
7.905857e+01	-1.024138e-03
7.951521e+01	-1.036001e-03
7.997449e+01	-1.048002e-03
8.043642e+01	-1.060142e-03
8.090102e+01	-1.072423e-03
8.136830e+01	-1.084845e-03
8.183828e+01	-1.097412e-03
8.231097e+01	-1.110124e-03
8.278640e+01	-1.122984e-03
8.326457e+01	-1.135992e-03
8.374550e+01	-1.149151e-03
8.422921e+01	-1.162463e-03
8.471572e+01	-1.175928e-03
8.520503e+01	-1.189550e-03
8.569717e+01	-1.203329e-03
8.619215e+01	-1.217268e-03
8.669000e+01	-1.231368e-03
8.719071e+01	-1.245632e-03
8.769432e+01	-1.260061e-03
8.820084e+01	-1.274657e-03
8.871029e+01	-1.289422e-03
8.922267e+01	-1.304358e-03
8.973802e+01	-1.319467e-03
9.025634e+01	-1.334751e-03
9.077766e+01	-1.350212e-03
9.130199e+01	-1.365852e-03
9.182935e+01	-1.381674e-03
9.235975e+01	-1.397678e-03
9.289321e+01	-1.413868e-03
9.342976e+01	-1.430245e-03
9.396941e+01	-1.446812e-03
9.451217e+01	-1.463571e-03
9.505807e+01	-1.480524e-03
9.560712e+01	-1.497674e-03
9.615934e+01	-1.515021e-03
9.671476e+01	-1.532570e-03
9.727338e+01	-1.550322e-03
9.783522e+01	-1.568280e-03
9.840032e+01	-1.586446e-03
9.896867e+01	-1.604822e-03
9.954031e+01	-1.623410e-03
1.001153e+02	-1.642215e-03
1.006935e+02	-1.661236e-03
1.012751e+02	-1.680479e-03
1.018601e+02	-1.699943e-03
1.024484e+02	-1.719634e-03
1.030402e+02	-1.739552e-03
1.036353e+02	-1.759701e-03
1.042339e+02	-1.780084e-03
1.048360e+02	-1.800702e-03
1.054415e+02	-1.821560e-03
1.060505e+02	-1.842658e-03
1.066631e+02	-1.864001e-03
1.072791e+02	-1.885592e-03
1.078988e+02	-1.907432e-03
1.085220e+02	-1.929525e-03
1.091488e+02	-1.951874e-03
1.097793e+02	-1.974482e-03
1.104133e+02	-1.997352e-03
1.110511e+02	-2.020486e-03
1.116925e+02	-2.043888e-03
1.123376e+02	-2.067562e-03
1.129865e+02	-2.091509e-03
1.136391e+02	-2.115734e-03
1.142955e+02	-2.140239e-03
1.149556e+02	-2.165028e-03
1.156196e+02	-2.190105e-03
1.162874e+02	-2.215471e-03
1.169591e+02	-2.241131e-03
1.176347e+02	-2.267089e-03
1.183141e+02	-2.293346e-03
1.189975e+02	-2.319908e-03
1.196848e+02	-2.346778e-03
1.203761e+02	-2.373958e-03
1.210714e+02	-2.401454e-03
1.217707e+02	-2.429267e-03
1.224740e+02	-2.457403e-03
1.231814e+02	-2.485865e-03
1.238929e+02	-2.514656e-03
1.246085e+02	-2.543780e-03
1.253283e+02	-2.573242e-03
1.260522e+02	-2.603045e-03
1.267802e+02	-2.633192e-03
1.275125e+02	-2.663689e-03
1.282490e+02	-2.694539e-03
1.289898e+02	-2.725746e-03
1.297348e+02	-2.757315e-03
1.304842e+02	-2.789249e-03
1.312378e+02	-2.821552e-03
1.319959e+02	-2.854230e-03
1.327583e+02	-2.887286e-03
1.335251e+02	-2.920725e-03
1.342963e+02	-2.954551e-03
1.350720e+02	-2.988768e-03
1.358522e+02	-3.023382e-03
1.366368e+02	-3.058396e-03
1.374260e+02	-3.093816e-03
1.382198e+02	-3.129645e-03
1.390182e+02	-3.165890e-03
1.398211e+02	-3.202554e-03
1.406287e+02	-3.239643e-03
1.414410e+02	-3.277160e-03
1.422579e+02	-3.315113e-03
1.430796e+02	-3.353504e-03
1.439060e+02	-3.392340e-03
1.447372e+02	-3.431626e-03
1.455732e+02	-3.471366e-03
1.464141e+02	-3.511567e-03
1.472597e+02	-3.552232e-03
1.481103e+02	-3.593369e-03
1.489658e+02	-3.634982e-03
1.498262e+02	-3.677076e-03
1.506916e+02	-3.719658e-03
1.515620e+02	-3.762732e-03
1.524374e+02	-3.806305e-03
1.533179e+02	-3.850383e-03
1.542034e+02	-3.894970e-03
1.550941e+02	-3.940074e-03
1.559899e+02	-3.985700e-03
1.568909e+02	-4.031854e-03
1.577971e+02	-4.078542e-03
1.587085e+02	-4.125770e-03
1.596252e+02	-4.173545e-03
1.605472e+02	-4.221873e-03
1.614745e+02	-4.270761e-03
1.624072e+02	-4.320214e-03
1.633453e+02	-4.370239e-03
1.642887e+02	-4.420844e-03
1.652377e+02	-4.472034e-03
1.661921e+02	-4.523817e-03
1.671520e+02	-4.576199e-03
1.681175e+02	-4.629187e-03
1.690885e+02	-4.682788e-03
1.700651e+02	-4.737010e-03
1.710474e+02	-4.791859e-03
1.720354e+02	-4.847343e-03
1.730291e+02	-4.903469e-03
1.740285e+02	-4.960244e-03
1.750337e+02	-5.017677e-03
1.760446e+02	-5.075774e-03
1.770615e+02	-5.134543e-03
1.780842e+02	-5.193992e-03
1.791128e+02	-5.254130e-03
1.801473e+02	-5.314963e-03
1.811878e+02	-5.376500e-03
1.822344e+02	-5.438749e-03
1.832870e+02	-5.501718e-03
1.843456e+02	-5.565416e-03
1.854104e+02	-5.629851e-03
1.864813e+02	-5.695031e-03
1.875584e+02	-5.760966e-03
1.886418e+02	-5.827663e-03
1.897313e+02	-5.895132e-03
1.908272e+02	-5.963382e-03
1.919294e+02	-6.032421e-03
1.930380e+02	-6.102259e-03
1.941530e+02	-6.172905e-03
1.952744e+02	-6.244368e-03
1.964023e+02	-6.316658e-03
1.975367e+02	-6.389784e-03
1.986777e+02	-6.463756e-03
1.998252e+02	-6.538584e-03
2.009794e+02	-6.614277e-03
2.021403e+02	-6.690846e-03
2.033078e+02	-6.768300e-03
2.044821e+02	-6.846651e-03
2.056632e+02	-6.925908e-03
2.068511e+02	-7.006081e-03
2.080459e+02	-7.087182e-03
2.092475e+02	-7.169221e-03
2.104561e+02	-7.252208e-03
2.116717e+02	-7.336156e-03
2.128943e+02	-7.421074e-03
2.141240e+02	-7.506975e-03
2.153608e+02	-7.593869e-03
2.166047e+02	-7.681768e-03
2.178558e+02	-7.770683e-03
2.191141e+02	-7.860627e-03
2.203797e+02	-7.951610e-03
2.216526e+02	-8.043646e-03
2.229329e+02	-8.136746e-03
2.242205e+02	-8.230923e-03
2.255156e+02	-8.326189e-03
2.268182e+02	-8.422556e-03
2.281283e+02	-8.520037e-03
2.294459e+02	-8.618646e-03
2.307712e+02	-8.718394e-03
2.321041e+02	-8.819296e-03
2.334447e+02	-8.921365e-03
2.347931e+02	-9.024613e-03
2.361493e+02	-9.129056e-03
2.375133e+02	-9.234705e-03
2.388851e+02	-9.341576e-03
2.402649e+02	-9.449683e-03
2.416527e+02	-9.559039e-03
2.430484e+02	-9.669659e-03
2.444523e+02	-9.781558e-03
2.458642e+02	-9.894750e-03
2.472843e+02	-1.000925e-02
2.487126e+02	-1.012507e-02
2.501492e+02	-1.024224e-02
2.515940e+02	-1.036075e-02
2.530472e+02	-1.048064e-02
2.545088e+02	-1.060191e-02
2.559789e+02	-1.072459e-02
2.574574e+02	-1.084868e-02
2.589444e+02	-1.097420e-02
2.604401e+02	-1.110118e-02
2.619444e+02	-1.122962e-02
2.634574e+02	-1.135955e-02
2.649791e+02	-1.149098e-02
2.665096e+02	-1.162393e-02
2.680489e+02	-1.175841e-02
2.695972e+02	-1.189445e-02
2.711544e+02	-1.203205e-02
2.727205e+02	-1.217125e-02
2.742958e+02	-1.231206e-02
2.758801e+02	-1.245449e-02
2.774736e+02	-1.259857e-02
2.790762e+02	-1.274431e-02
2.806882e+02	-1.289174e-02
2.823094e+02	-1.304087e-02
2.839400e+02	-1.319172e-02
2.855800e+02	-1.334431e-02
2.872295e+02	-1.349867e-02
2.888886e+02	-1.365481e-02
2.905572e+02	-1.381275e-02
2.922354e+02	-1.397252e-02
2.939234e+02	-1.413413e-02
2.956211e+02	-1.429760e-02
2.973286e+02	-1.446297e-02
2.990459e+02	-1.463024e-02
3.007732e+02	-1.479945e-02
3.025104e+02	-1.497061e-02
3.042577e+02	-1.514374e-02
3.060151e+02	-1.531888e-02
3.077826e+02	-1.549603e-02
3.095604e+02	-1.567523e-02
3.113484e+02	-1.585650e-02
3.131467e+02	-1.603986e-02
3.149554e+02	-1.622534e-02
3.167746e+02	-1.641296e-02
3.186043e+02	-1.660274e-02
3.204445e+02	-1.679471e-02
3.222954e+02	-1.698890e-02
3.241570e+02	-1.718533e-02
3.260293e+02	-1.738403e-02
3.279124e+02	-1.758502e-02
3.298064e+02	-1.778833e-02
3.317114e+02	-1.799398e-02
3.336273e+02	-1.820201e-02
3.355544e+02	-1.841243e-02
3.374925e+02	-1.862529e-02
3.394418e+02	-1.884059e-02
3.414024e+02	-1.905839e-02
3.433744e+02	-1.927869e-02
3.453577e+02	-1.950154e-02
3.473525e+02	-1.972695e-02
3.493588e+02	-1.995497e-02
3.513766e+02	-2.018561e-02
3.534062e+02	-2.041891e-02
3.554474e+02	-2.065491e-02
3.575005e+02	-2.089362e-02
3.595654e+02	-2.113509e-02
3.616422e+02	-2.137934e-02
3.637311e+02	-2.162641e-02
3.658320e+02	-2.187632e-02
3.679450e+02	-2.212912e-02
3.700702e+02	-2.238482e-02
3.722077e+02	-2.264348e-02
3.743576e+02	-2.290512e-02
3.765199e+02	-2.316977e-02
3.786946e+02	-2.343747e-02
3.808820e+02	-2.370825e-02
3.830819e+02	-2.398216e-02
3.852946e+02	-2.425922e-02
3.875200e+02	-2.453947e-02
3.897583e+02	-2.482295e-02
3.920096e+02	-2.510970e-02
3.942738e+02	-2.539975e-02
3.965511e+02	-2.569314e-02
3.988416e+02	-2.598990e-02
4.011452e+02	-2.629009e-02
4.034622e+02	-2.659373e-02
4.057926e+02	-2.690087e-02
4.081365e+02	-2.721154e-02
4.104938e+02	-2.752579e-02
4.128648e+02	-2.784366e-02
4.152495e+02	-2.816519e-02
4.176480e+02	-2.849041e-02
4.200603e+02	-2.881938e-02
4.224866e+02	-2.915214e-02
4.249268e+02	-2.948872e-02
4.273812e+02	-2.982918e-02
4.298497e+02	-3.017356e-02
4.323325e+02	-3.052189e-02
4.348297e+02	-3.087423e-02
4.373412e+02	-3.123063e-02
4.398673e+02	-3.159113e-02
4.424079e+02	-3.195577e-02
4.449633e+02	-3.232460e-02
4.475334e+02	-3.269767e-02
4.501183e+02	-3.307504e-02
4.527182e+02	-3.345674e-02
4.553330e+02	-3.384283e-02
4.579630e+02	-3.423336e-02
4.606082e+02	-3.462838e-02
4.632687e+02	-3.502793e-02
4.659445e+02	-3.543208e-02
4.686358e+02	-3.584087e-02
4.713426e+02	-3.625436e-02
4.740650e+02	-3.667259e-02
4.768032e+02	-3.709564e-02
4.795572e+02	-3.752354e-02
4.823271e+02	-3.795635e-02
4.851130e+02	-3.839414e-02
4.879150e+02	-3.883695e-02
4.907332e+02	-3.928484e-02
4.935676e+02	-3.973788e-02
4.964185e+02	-4.019612e-02
4.992858e+02	-4.065962e-02
5.021696e+02	-4.112843e-02
5.050701e+02	-4.160263e-02
5.079874e+02	-4.208226e-02
5.109215e+02	-4.256740e-02
5.138726e+02	-4.305811e-02
5.168407e+02	-4.355444e-02
5.198259e+02	-4.405646e-02
5.228284e+02	-4.456424e-02
5.258482e+02	-4.507784e-02
5.288855e+02	-4.559734e-02
5.319403e+02	-4.612278e-02
5.350128e+02	-4.665425e-02
5.381030e+02	-4.719181e-02
5.412111e+02	-4.773553e-02
5.443371e+02	-4.828547e-02
5.474812e+02	-4.884172e-02
5.506434e+02	-4.940434e-02
5.538239e+02	-4.997340e-02
5.570228e+02	-5.054898e-02
5.602401e+02	-5.113115e-02
5.634760e+02	-5.171998e-02
5.667306e+02	-5.231556e-02
5.700040e+02	-5.291795e-02
5.732964e+02	-5.352723e-02
5.766077e+02	-5.414349e-02
5.799382e+02	-5.476679e-02
5.832879e+02	-5.539722e-02
5.866569e+02	-5.603487e-02
5.900454e+02	-5.667980e-02
5.934535e+02	-5.733211e-02
5.968813e+02	-5.799188e-02
6.003288e+02	-5.865919e-02
6.037963e+02	-5.933412e-02
6.072838e+02	-6.001677e-02
6.107914e+02	-6.070721e-02
6.143194e+02	-6.140554e-02
6.178676e+02	-6.211185e-02
6.214364e+02	-6.282622e-02
6.250258e+02	-6.354875e-02
6.286359e+02	-6.427952e-02
6.322669e+02	-6.501864e-02
6.359189e+02	-6.576619e-02
6.395919e+02	-6.652226e-02
6.432862e+02	-6.728697e-02
6.470017e+02	-6.806039e-02
6.507388e+02	-6.884263e-02
6.544974e+02	-6.963380e-02
6.582778e+02	-7.043398e-02
6.620800e+02	-7.124328e-02
6.659041e+02	-7.206180e-02
6.697504e+02	-7.288964e-02
6.736188e+02	-7.372692e-02
6.775096e+02	-7.457373e-02
6.814229e+02	-7.543018e-02
6.853587e+02	-7.629638e-02
6.893173e+02	-7.717244e-02
6.932988e+02	-7.805847e-02
6.973033e+02	-7.895458e-02
7.013309e+02	-7.986088e-02
