Frequency(Hz)	Magnitude(dB)
1.000000e+01	-2.166922e+00
1.005776e+01	-2.186490e+00
1.011585e+01	-2.206247e+00
1.017428e+01	-2.226549e+00
1.023305e+01	-2.246580e+00
1.029215e+01	-2.266773e+00
1.035160e+01	-2.287336e+00
1.041139e+01	-2.307758e+00
1.047153e+01	-2.328338e+00
1.053201e+01	-2.349370e+00
1.059284e+01	-2.370226e+00
1.065403e+01	-2.391267e+00
1.071556e+01	-2.412528e+00
1.077746e+01	-2.433840e+00
1.083971e+01	-2.455576e+00
1.090232e+01	-2.477112e+00
1.096529e+01	-2.498926e+00
1.102862e+01	-2.520979e+00
1.109232e+01	-2.542984e+00
1.115639e+01	-2.565503e+00
1.122083e+01	-2.587754e+00
1.128564e+01	-2.610280e+00
1.135083e+01	-2.632841e+00
1.141639e+01	-2.655563e+00
1.148233e+01	-2.678983e+00
1.154865e+01	-2.701493e+00
1.161536e+01	-2.725179e+00
1.168245e+01	-2.748662e+00
1.174992e+01	-2.771763e+00
1.181779e+01	-2.795730e+00
1.188605e+01	-2.819382e+00
1.195470e+01	-2.843358e+00
1.202375e+01	-2.867477e+00
1.209320e+01	-2.891626e+00
1.216305e+01	-2.916238e+00
1.223330e+01	-2.940755e+00
1.230396e+01	-2.965159e+00
1.237503e+01	-2.990020e+00
1.244651e+01	-3.015458e+00
1.251840e+01	-3.040180e+00
1.259070e+01	-3.065570e+00
1.266343e+01	-3.090972e+00
1.273657e+01	-3.116369e+00
1.281014e+01	-3.142185e+00
1.288413e+01	-3.168284e+00
1.295855e+01	-3.193847e+00
1.303339e+01	-3.219961e+00
1.310867e+01	-3.246371e+00
1.318439e+01	-3.272751e+00
1.326054e+01	-3.299014e+00
1.333713e+01	-3.325953e+00
1.341417e+01	-3.352886e+00
1.349165e+01	-3.379718e+00
1.356958e+01	-3.407013e+00
1.364795e+01	-3.434115e+00
1.372678e+01	-3.461428e+00
1.380607e+01	-3.489044e+00
1.388581e+01	-3.516955e+00
1.396602e+01	-3.544824e+00
1.404668e+01	-3.572585e+00
1.412782e+01	-3.600874e+00
1.420942e+01	-3.629158e+00
1.429149e+01	-3.657532e+00
1.437404e+01	-3.685643e+00
1.445706e+01	-3.714658e+00
1.454057e+01	-3.743321e+00
1.462455e+01	-3.772249e+00
1.470902e+01	-3.801760e+00
1.479398e+01	-3.830710e+00
1.487943e+01	-3.860307e+00
1.496537e+01	-3.889844e+00
1.505181e+01	-3.919125e+00
1.513875e+01	-3.949005e+00
1.522619e+01	-3.979244e+00
1.531414e+01	-4.009090e+00
1.540259e+01	-4.039435e+00
1.549156e+01	-4.070044e+00
1.558103e+01	-4.100387e+00
1.567103e+01	-4.130771e+00
1.576155e+01	-4.161475e+00
1.585258e+01	-4.192600e+00
1.594415e+01	-4.223700e+00
1.603624e+01	-4.254874e+00
1.612886e+01	-4.286037e+00
1.622202e+01	-4.317656e+00
1.631572e+01	-4.349145e+00
1.640996e+01	-4.381181e+00
1.650474e+01	-4.412992e+00
1.660008e+01	-4.444796e+00
1.669596e+01	-4.476544e+00
1.679239e+01	-4.509184e+00
1.688938e+01	-4.541641e+00
1.698694e+01	-4.574157e+00
1.708505e+01	-4.606701e+00
1.718373e+01	-4.639366e+00
1.728299e+01	-4.672288e+00
1.738281e+01	-4.705358e+00
1.748322e+01	-4.738644e+00
1.758420e+01	-4.771619e+00
1.768576e+01	-4.805116e+00
1.778792e+01	-4.838640e+00
1.789066e+01	-4.872506e+00
1.799399e+01	-4.906225e+00
1.809793e+01	-4.940252e+00
1.820246e+01	-4.974307e+00
1.830760e+01	-5.008486e+00
1.841334e+01	-5.042612e+00
1.851969e+01	-5.077091e+00
1.862666e+01	-5.111796e+00
1.873425e+01	-5.146456e+00
1.884246e+01	-5.181299e+00
1.895129e+01	-5.215581e+00
1.906075e+01	-5.250969e+00
1.917085e+01	-5.285969e+00
1.928158e+01	-5.321248e+00
1.939295e+01	-5.356755e+00
1.950496e+01	-5.392215e+00
1.961762e+01	-5.427883e+00
1.973093e+01	-5.463687e+00
1.984490e+01	-5.499585e+00
1.995952e+01	-5.535562e+00
2.007480e+01	-5.571665e+00
2.019076e+01	-5.607787e+00
2.030738e+01	-5.644001e+00
2.042467e+01	-5.680696e+00
2.054264e+01	-5.717200e+00
2.066130e+01	-5.753954e+00
2.078064e+01	-5.790897e+00
2.090066e+01	-5.827438e+00
2.102139e+01	-5.864785e+00
2.114280e+01	-5.901517e+00
2.126492e+01	-5.938916e+00
2.138775e+01	-5.976058e+00
2.151128e+01	-6.013650e+00
2.163553e+01	-6.051093e+00
2.176050e+01	-6.088893e+00
2.188619e+01	-6.126851e+00
2.201260e+01	-6.164871e+00
2.213974e+01	-6.202848e+00
2.226762e+01	-6.240271e+00
2.239624e+01	-6.279222e+00
2.252560e+01	-6.316979e+00
2.265571e+01	-6.355234e+00
2.278656e+01	-6.393845e+00
2.291818e+01	-6.432516e+00
2.305055e+01	-6.471173e+00
2.318369e+01	-6.509772e+00
2.331760e+01	-6.549277e+00
2.345228e+01	-6.587744e+00
2.358774e+01	-6.626908e+00
2.372398e+01	-6.666288e+00
2.386101e+01	-6.705724e+00
2.399883e+01	-6.745016e+00
2.413745e+01	-6.784517e+00
2.427686e+01	-6.824163e+00
2.441709e+01	-6.863714e+00
2.455812e+01	-6.903630e+00
2.469997e+01	-6.943067e+00
2.484263e+01	-6.983374e+00
2.498612e+01	-7.023568e+00
2.513044e+01	-7.063958e+00
2.527559e+01	-7.103874e+00
2.542158e+01	-7.144198e+00
2.556842e+01	-7.184702e+00
2.571610e+01	-7.225172e+00
2.586463e+01	-7.265486e+00
2.601403e+01	-7.306220e+00
2.616428e+01	-7.346881e+00
2.631541e+01	-7.388114e+00
2.646740e+01	-7.428885e+00
2.662028e+01	-7.469943e+00
2.677404e+01	-7.510968e+00
2.692868e+01	-7.552511e+00
2.708422e+01	-7.593496e+00
2.724066e+01	-7.635164e+00
2.739800e+01	-7.676166e+00
2.755625e+01	-7.717496e+00
2.771541e+01	-7.759649e+00
2.787550e+01	-7.801165e+00
2.803650e+01	-7.842827e+00
2.819844e+01	-7.884410e+00
2.836131e+01	-7.926829e+00
2.852513e+01	-7.968293e+00
2.868989e+01	-8.010792e+00
2.885560e+01	-8.053269e+00
2.902227e+01	-8.094798e+00
2.918990e+01	-8.137509e+00
2.935850e+01	-8.180233e+00
2.952807e+01	-8.222101e+00
2.969863e+01	-8.264826e+00
2.987016e+01	-8.307078e+00
3.004269e+01	-8.350106e+00
3.021622e+01	-8.392460e+00
3.039075e+01	-8.435697e+00
3.056628e+01	-8.478494e+00
3.074283e+01	-8.520871e+00
3.092040e+01	-8.564383e+00
3.109900e+01	-8.607782e+00
3.127862e+01	-8.650678e+00
3.145929e+01	-8.693732e+00
3.164099e+01	-8.737275e+00
3.182375e+01	-8.780480e+00
3.200756e+01	-8.823966e+00
3.219244e+01	-8.867544e+00
3.237838e+01	-8.911079e+00
3.256540e+01	-8.954644e+00
3.275349e+01	-8.998557e+00
3.294268e+01	-9.042133e+00
3.313295e+01	-9.086029e+00
3.332433e+01	-9.130173e+00
3.351681e+01	-9.174035e+00
3.371040e+01	-9.218031e+00
3.390511e+01	-9.261575e+00
3.410094e+01	-9.305736e+00
3.429791e+01	-9.350235e+00
3.449601e+01	-9.394689e+00
3.469526e+01	-9.438571e+00
3.489566e+01	-9.482912e+00
3.509721e+01	-9.527469e+00
3.529993e+01	-9.572453e+00
3.550382e+01	-9.616829e+00
3.570889e+01	-9.660700e+00
3.591515e+01	-9.706118e+00
3.612259e+01	-9.750572e+00
3.633123e+01	-9.795660e+00
3.654108e+01	-9.840118e+00
3.675214e+01	-9.885065e+00
3.696442e+01	-9.929750e+00
3.717792e+01	-9.975197e+00
3.739266e+01	-1.002021e+01
3.760864e+01	-1.006451e+01
3.782587e+01	-1.011052e+01
3.804435e+01	-1.015497e+01
3.826409e+01	-1.020034e+01
3.848510e+01	-1.024575e+01
3.870739e+01	-1.029073e+01
3.893096e+01	-1.033658e+01
3.915583e+01	-1.038177e+01
3.938199e+01	-1.042778e+01
3.960946e+01	-1.047319e+01
3.983824e+01	-1.051799e+01
4.006834e+01	-1.056360e+01
4.029978e+01	-1.060976e+01
4.053255e+01	-1.065554e+01
4.076666e+01	-1.070161e+01
4.100213e+01	-1.074643e+01
4.123896e+01	-1.079280e+01
4.147715e+01	-1.083871e+01
4.171672e+01	-1.088421e+01
4.195767e+01	-1.093053e+01
4.220002e+01	-1.097653e+01
4.244377e+01	-1.102249e+01
4.268892e+01	-1.106866e+01
4.293549e+01	-1.111456e+01
4.318348e+01	-1.116114e+01
4.343291e+01	-1.120728e+01
4.368377e+01	-1.125388e+01
4.393609e+01	-1.129952e+01
4.418986e+01	-1.134585e+01
4.444510e+01	-1.139278e+01
4.470182e+01	-1.143916e+01
4.496001e+01	-1.148556e+01
4.521970e+01	-1.153272e+01
4.548089e+01	-1.157845e+01
4.574358e+01	-1.162503e+01
4.600779e+01	-1.167161e+01
4.627353e+01	-1.171783e+01
4.654081e+01	-1.176501e+01
4.680963e+01	-1.181250e+01
4.708000e+01	-1.185884e+01
4.735193e+01	-1.190500e+01
4.762543e+01	-1.195164e+01
4.790051e+01	-1.199885e+01
4.817719e+01	-1.204583e+01
4.845545e+01	-1.209257e+01
4.873533e+01	-1.213996e+01
4.901682e+01	-1.218672e+01
4.929994e+01	-1.223383e+01
4.958470e+01	-1.228113e+01
4.987110e+01	-1.232763e+01
5.015915e+01	-1.237449e+01
5.044887e+01	-1.242229e+01
5.074026e+01	-1.246899e+01
5.103333e+01	-1.251645e+01
5.132810e+01	-1.256405e+01
5.162457e+01	-1.261105e+01
5.192275e+01	-1.265806e+01
5.222265e+01	-1.270654e+01
5.252429e+01	-1.275331e+01
5.282767e+01	-1.280029e+01
5.313280e+01	-1.284800e+01
5.343969e+01	-1.289450e+01
5.374836e+01	-1.294275e+01
5.405880e+01	-1.299034e+01
5.437105e+01	-1.303719e+01
5.468509e+01	-1.308511e+01
5.500095e+01	-1.313270e+01
5.531863e+01	-1.318010e+01
5.563815e+01	-1.322755e+01
5.595951e+01	-1.327559e+01
5.628273e+01	-1.332362e+01
5.660782e+01	-1.337167e+01
5.693479e+01	-1.341844e+01
5.726364e+01	-1.346631e+01
5.759439e+01	-1.351410e+01
5.792705e+01	-1.356278e+01
5.826164e+01	-1.361049e+01
5.859815e+01	-1.365728e+01
5.893662e+01	-1.370527e+01
5.927703e+01	-1.375303e+01
5.961941e+01	-1.380106e+01
5.996377e+01	-1.385039e+01
6.031012e+01	-1.389732e+01
6.065847e+01	-1.394510e+01
6.100883e+01	-1.399404e+01
6.136121e+01	-1.404128e+01
6.171563e+01	-1.408963e+01
6.207210e+01	-1.413709e+01
6.243063e+01	-1.418622e+01
6.279122e+01	-1.423340e+01
6.315390e+01	-1.428215e+01
6.351868e+01	-1.433041e+01
6.388556e+01	-1.437909e+01
6.425456e+01	-1.442685e+01
6.462569e+01	-1.447504e+01
6.499897e+01	-1.452383e+01
6.537440e+01	-1.457081e+01
6.575200e+01	-1.461979e+01
6.613178e+01	-1.466832e+01
6.651375e+01	-1.471584e+01
6.689793e+01	-1.476525e+01
6.728433e+01	-1.481391e+01
6.767297e+01	-1.486084e+01
6.806384e+01	-1.490995e+01
6.845698e+01	-1.495835e+01
6.885238e+01	-1.500711e+01
6.925007e+01	-1.505545e+01
6.965005e+01	-1.510373e+01
7.005235e+01	-1.515254e+01
7.045697e+01	-1.520074e+01
7.086393e+01	-1.524853e+01
7.127323e+01	-1.529862e+01
7.168490e+01	-1.534654e+01
7.209895e+01	-1.539409e+01
7.251539e+01	-1.544290e+01
7.293424e+01	-1.549241e+01
7.335551e+01	-1.554008e+01
7.377920e+01	-1.558958e+01
7.420535e+01	-1.563785e+01
7.463396e+01	-1.568673e+01
7.506504e+01	-1.573534e+01
7.549861e+01	-1.578386e+01
7.593469e+01	-1.583331e+01
7.637328e+01	-1.588118e+01
7.681441e+01	-1.593124e+01
7.725809e+01	-1.597915e+01
7.770433e+01	-1.602841e+01
7.815315e+01	-1.607619e+01
7.860456e+01	-1.612438e+01
7.905857e+01	-1.617403e+01
7.951521e+01	-1.622318e+01
7.997449e+01	-1.627147e+01
8.043642e+01	-1.631991e+01
8.090102e+01	-1.637050e+01
8.136830e+01	-1.641828e+01
8.183828e+01	-1.646761e+01
8.231097e+01	-1.651685e+01
8.278640e+01	-1.656578e+01
8.326457e+01	-1.661311e+01
8.374550e+01	-1.666344e+01
8.422921e+01	-1.671255e+01
8.471572e+01	-1.676032e+01
8.520503e+01	-1.681061e+01
8.569717e+01	-1.685874e+01
8.619215e+01	-1.690860e+01
8.669000e+01	-1.695727e+01
8.719071e+01	-1.700485e+01
8.769432e+01	-1.705491e+01
8.820084e+01	-1.710477e+01
8.871029e+01	-1.715293e+01
8.922267e+01	-1.720198e+01
8.973802e+01	-1.725170e+01
9.025634e+01	-1.730077e+01
9.077766e+01	-1.734898e+01
9.130199e+01	-1.739906e+01
9.182935e+01	-1.744847e+01
9.235975e+01	-1.749663e+01
9.289321e+01	-1.754813e+01
9.342976e+01	-1.759492e+01
9.396941e+01	-1.764449e+01
9.451217e+01	-1.769243e+01
9.505807e+01	-1.774360e+01
9.560712e+01	-1.779216e+01
9.615934e+01	-1.783991e+01
9.671476e+01	-1.788959e+01
9.727338e+01	-1.793933e+01
9.783522e+01	-1.798890e+01
9.840032e+01	-1.803810e+01
9.896867e+01	-1.808662e+01
9.954031e+01	-1.813605e+01
1.001153e+02	-1.818527e+01
1.006935e+02	-1.823443e+01
1.012751e+02	-1.828409e+01
1.018601e+02	-1.833247e+01
1.024484e+02	-1.838306e+01
1.030402e+02	-1.843272e+01
1.036353e+02	-1.848242e+01
1.042339e+02	-1.853190e+01
1.048360e+02	-1.857963e+01
1.054415e+02	-1.862956e+01
1.060505e+02	-1.867772e+01
1.066631e+02	-1.872771e+01
1.072791e+02	-1.877768e+01
1.078988e+02	-1.882614e+01
1.085220e+02	-1.887629e+01
1.091488e+02	-1.892720e+01
1.097793e+02	-1.897594e+01
1.104133e+02	-1.902396e+01
1.110511e+02	-1.907601e+01
1.116925e+02	-1.912369e+01
1.123376e+02	-1.917358e+01
1.129865e+02	-1.922256e+01
1.136391e+02	-1.927102e+01
1.142955e+02	-1.932032e+01
1.149556e+02	-1.936964e+01
1.156196e+02	-1.941961e+01
1.162874e+02	-1.946989e+01
1.169591e+02	-1.951952e+01
1.176347e+02	-1.956869e+01
1.183141e+02	-1.961789e+01
1.189975e+02	-1.966855e+01
1.196848e+02	-1.971689e+01
1.203761e+02	-1.976654e+01
1.210714e+02	-1.981828e+01
1.217707e+02	-1.986285e+01
1.224740e+02	-1.991473e+01
1.231814e+02	-1.996380e+01
1.238929e+02	-2.001404e+01
1.246085e+02	-2.006375e+01
1.253283e+02	-2.011351e+01
1.260522e+02	-2.016111e+01
1.267802e+02	-2.021213e+01
1.275125e+02	-2.026164e+01
1.282490e+02	-2.031124e+01
1.289898e+02	-2.036234e+01
1.297348e+02	-2.041115e+01
1.304842e+02	-2.046054e+01
1.312378e+02	-2.050978e+01
1.319959e+02	-2.055889e+01
1.327583e+02	-2.060745e+01
1.335251e+02	-2.065715e+01
1.342963e+02	-2.070920e+01
1.350720e+02	-2.075811e+01
1.358522e+02	-2.080623e+01
1.366368e+02	-2.085887e+01
1.374260e+02	-2.090565e+01
1.382198e+02	-2.095682e+01
1.390182e+02	-2.100681e+01
1.398211e+02	-2.105434e+01
1.406287e+02	-2.110414e+01
1.414410e+02	-2.115578e+01
1.422579e+02	-2.120433e+01
1.430796e+02	-2.125351e+01
1.439060e+02	-2.130359e+01
1.447372e+02	-2.135382e+01
1.455732e+02	-2.140310e+01
1.464141e+02	-2.145284e+01
1.472597e+02	-2.150250e+01
1.481103e+02	-2.155298e+01
1.489658e+02	-2.160207e+01
1.498262e+02	-2.165107e+01
1.506916e+02	-2.170077e+01
1.515620e+02	-2.175118e+01
1.524374e+02	-2.180119e+01
1.533179e+02	-2.184921e+01
1.542034e+02	-2.189968e+01
1.550941e+02	-2.195140e+01
1.559899e+02	-2.200057e+01
1.568909e+02	-2.204923e+01
1.577971e+02	-2.209896e+01
1.587085e+02	-2.215020e+01
1.596252e+02	-2.219849e+01
1.605472e+02	-2.224783e+01
1.614745e+02	-2.229922e+01
1.624072e+02	-2.234638e+01
1.633453e+02	-2.239773e+01
1.642887e+02	-2.244704e+01
1.652377e+02	-2.249827e+01
1.661921e+02	-2.254826e+01
1.671520e+02	-2.259543e+01
1.681175e+02	-2.264728e+01
1.690885e+02	-2.269600e+01
1.700651e+02	-2.274585e+01
1.710474e+02	-2.279535e+01
1.720354e+02	-2.284550e+01
1.730291e+02	-2.289656e+01
1.740285e+02	-2.294518e+01
1.750337e+02	-2.299611e+01
1.760446e+02	-2.304433e+01
1.770615e+02	-2.309567e+01
1.780842e+02	-2.314461e+01
1.791128e+02	-2.319434e+01
1.801473e+02	-2.324482e+01
1.811878e+02	-2.329476e+01
1.822344e+02	-2.334484e+01
1.832870e+02	-2.339539e+01
1.843456e+02	-2.344266e+01
1.854104e+02	-2.349556e+01
1.864813e+02	-2.354476e+01
1.875584e+02	-2.359148e+01
1.886418e+02	-2.364275e+01
1.897313e+02	-2.369334e+01
1.908272e+02	-2.374346e+01
1.919294e+02	-2.379105e+01
1.930380e+02	-2.384147e+01
1.941530e+02	-2.389294e+01
1.952744e+02	-2.394002e+01
1.964023e+02	-2.399308e+01
1.975367e+02	-2.404182e+01
1.986777e+02	-2.408997e+01
1.998252e+02	-2.413934e+01
2.009794e+02	-2.419067e+01
2.021403e+02	-2.424275e+01
2.033078e+02	-2.428853e+01
2.044821e+02	-2.433941e+01
2.056632e+02	-2.439038e+01
2.068511e+02	-2.444098e+01
2.080459e+02	-2.448996e+01
2.092475e+02	-2.453941e+01
2.104561e+02	-2.459069e+01
2.116717e+02	-2.464303e+01
2.128943e+02	-2.469072e+01
2.141240e+02	-2.473984e+01
2.153608e+02	-2.479145e+01
2.166047e+02	-2.484034e+01
2.178558e+02	-2.488766e+01
2.191141e+02	-2.493810e+01
2.203797e+02	-2.498732e+01
2.216526e+02	-2.503907e+01
2.229329e+02	-2.508944e+01
2.242205e+02	-2.513947e+01
2.255156e+02	-2.518987e+01
2.268182e+02	-2.523784e+01
2.281283e+02	-2.529073e+01
2.294459e+02	-2.533924e+01
2.307712e+02	-2.538940e+01
2.321041e+02	-2.543754e+01
2.334447e+02	-2.548742e+01
2.347931e+02	-2.554046e+01
2.361493e+02	-2.559015e+01
2.375133e+02	-2.563734e+01
2.388851e+02	-2.568260e+01
2.402649e+02	-2.573828e+01
2.416527e+02	-2.578620e+01
2.430484e+02	-2.583897e+01
2.444523e+02	-2.588803e+01
2.458642e+02	-2.593396e+01
2.472843e+02	-2.598888e+01
2.487126e+02	-2.604059e+01
2.501492e+02	-2.608959e+01
2.515940e+02	-2.613900e+01
2.530472e+02	-2.618802e+01
2.545088e+02	-2.623723e+01
2.559789e+02	-2.629118e+01
2.574574e+02	-2.633819e+01
2.589444e+02	-2.638761e+01
2.604401e+02	-2.643886e+01
2.619444e+02	-2.648714e+01
2.634574e+02	-2.653702e+01
2.649791e+02	-2.658628e+01
2.665096e+02	-2.663293e+01
2.680489e+02	-2.668976e+01
2.695972e+02	-2.673975e+01
2.711544e+02	-2.678769e+01
2.727205e+02	-2.684034e+01
2.742958e+02	-2.688590e+01
2.758801e+02	-2.693739e+01
2.774736e+02	-2.698567e+01
2.790762e+02	-2.704200e+01
2.806882e+02	-2.708916e+01
2.823094e+02	-2.713534e+01
2.839400e+02	-2.718995e+01
2.855800e+02	-2.723433e+01
2.872295e+02	-2.728981e+01
2.888886e+02	-2.733554e+01
2.905572e+02	-2.738872e+01
2.922354e+02	-2.743941e+01
2.939234e+02	-2.748887e+01
2.956211e+02	-2.753768e+01
2.973286e+02	-2.758571e+01
2.990459e+02	-2.763430e+01
3.007732e+02	-2.768676e+01
3.025104e+02	-2.773587e+01
3.042577e+02	-2.778578e+01
3.060151e+02	-2.783891e+01
3.077826e+02	-2.788840e+01
3.095604e+02	-2.794028e+01
3.113484e+02	-2.798593e+01
3.131467e+02	-2.804083e+01
3.149554e+02	-2.808850e+01
3.167746e+02	-2.813602e+01
3.186043e+02	-2.818916e+01
3.204445e+02	-2.823922e+01
3.222954e+02	-2.828943e+01
3.241570e+02	-2.833872e+01
3.260293e+02	-2.838899e+01
3.279124e+02	-2.843755e+01
3.298064e+02	-2.849217e+01
3.317114e+02	-2.853926e+01
3.336273e+02	-2.859119e+01
3.355544e+02	-2.863997e+01
3.374925e+02	-2.868902e+01
3.394418e+02	-2.873947e+01
3.414024e+02	-2.878754e+01
3.433744e+02	-2.883987e+01
3.453577e+02	-2.889045e+01
3.473525e+02	-2.893594e+01
3.493588e+02	-2.899172e+01
3.513766e+02	-2.904031e+01
3.534062e+02	-2.908862e+01
3.554474e+02	-2.914092e+01
3.575005e+02	-2.918825e+01
3.595654e+02	-2.924037e+01
3.616422e+02	-2.928913e+01
3.637311e+02	-2.933377e+01
3.658320e+02	-2.939064e+01
3.679450e+02	-2.943975e+01
3.700702e+02	-2.949149e+01
3.722077e+02	-2.953769e+01
3.743576e+02	-2.958689e+01
3.765199e+02	-2.963825e+01
3.786946e+02	-2.969298e+01
3.808820e+02	-2.973868e+01
3.830819e+02	-2.978775e+01
3.852946e+02	-2.983843e+01
3.875200e+02	-2.989460e+01
3.897583e+02	-2.993694e+01
3.920096e+02	-2.998949e+01
3.942738e+02	-3.003937e+01
3.965511e+02	-3.008651e+01
3.988416e+02	-3.013863e+01
4.011452e+02	-3.018999e+01
4.034622e+02	-3.024276e+01
4.057926e+02	-3.028642e+01
4.081365e+02	-3.034085e+01
4.104938e+02	-3.038965e+01
4.128648e+02	-3.044890e+01
4.152495e+02	-3.048823e+01
4.176480e+02	-3.054221e+01
4.200603e+02	-3.059190e+01
4.224866e+02	-3.064270e+01
4.249268e+02	-3.069080e+01
4.273812e+02	-3.074091e+01
4.298497e+02	-3.079281e+01
4.323325e+02	-3.084188e+01
4.348297e+02	-3.088929e+01
4.373412e+02	-3.094257e+01
4.398673e+02	-3.098685e+01
4.424079e+02	-3.104459e+01
4.449633e+02	-3.109313e+01
4.475334e+02	-3.114377e+01
4.501183e+02	-3.119605e+01
4.527182e+02	-3.124118e+01
4.553330e+02	-3.129567e+01
4.579630e+02	-3.134137e+01
4.606082e+02	-3.139585e+01
4.632687e+02	-3.144381e+01
4.659445e+02	-3.149687e+01
4.686358e+02	-3.154755e+01
4.713426e+02	-3.159272e+01
4.740650e+02	-3.164172e+01
4.768032e+02	-3.169253e+01
4.795572e+02	-3.174216e+01
4.823271e+02	-3.179372e+01
4.851130e+02	-3.184432e+01
4.879150e+02	-3.189756e+01
4.907332e+02	-3.194976e+01
4.935676e+02	-3.199622e+01
4.964185e+02	-3.204494e+01
4.992858e+02	-3.209440e+01
5.021696e+02	-3.214347e+01
5.050701e+02	-3.219537e+01
5.079874e+02	-3.225576e+01
5.109215e+02	-3.229785e+01
5.138726e+02	-3.234832e+01
5.168407e+02	-3.239295e+01
5.198259e+02	-3.244837e+01
5.228284e+02	-3.249896e+01
5.258482e+02	-3.254911e+01
5.288855e+02	-3.259795e+01
5.319403e+02	-3.264211e+01
5.350128e+02	-3.270659e+01
5.381030e+02	-3.275312e+01
5.412111e+02	-3.279898e+01
5.443371e+02	-3.285440e+01
5.474812e+02	-3.290289e+01
5.506434e+02	-3.295941e+01
5.538239e+02	-3.299579e+01
5.570228e+02	-3.305271e+01
5.602401e+02	-3.310359e+01
5.634760e+02	-3.315042e+01
5.667306e+02	-3.320620e+01
5.700040e+02	-3.325248e+01
5.732964e+02	-3.329998e+01
5.766077e+02	-3.334774e+01
5.799382e+02	-3.340427e+01
5.832879e+02	-3.345226e+01
5.866569e+02	-3.349993e+01
5.900454e+02	-3.354978e+01
5.934535e+02	-3.360298e+01
5.968813e+02	-3.365206e+01
6.003288e+02	-3.370851e+01
6.037963e+02	-3.375725e+01
6.072838e+02	-3.380708e+01
6.107914e+02	-3.385443e+01
6.143194e+02	-3.390073e+01
6.178676e+02	-3.395741e+01
6.214364e+02	-3.401371e+01
6.250258e+02	-3.406011e+01
6.286359e+02	-3.410451e+01
6.322669e+02	-3.415729e+01
6.359189e+02	-3.419882e+01
6.395919e+02	-3.426193e+01
6.432862e+02	-3.430186e+01
6.470017e+02	-3.435861e+01
6.507388e+02	-3.440895e+01
6.544974e+02	-3.445436e+01
6.582778e+02	-3.450974e+01
6.620800e+02	-3.455634e+01
6.659041e+02	-3.461617e+01
6.697504e+02	-3.466567e+01
6.736188e+02	-3.470027e+01
6.775096e+02	-3.475955e+01
6.814229e+02	-3.481724e+01
6.853587e+02	-3.485625e+01
6.893173e+02	-3.490572e+01
6.932988e+02	-3.496638e+01
6.973033e+02	-3.500978e+01
7.013309e+02	-3.506470e+01
