Frequency(Hz)	Magnitude(dB)
1.000000e+01	-2.185598e+00
1.005776e+01	-2.205345e+00
1.011585e+01	-2.225314e+00
1.017428e+01	-2.245491e+00
1.023305e+01	-2.265889e+00
1.029215e+01	-2.286217e+00
1.035160e+01	-2.306697e+00
1.041139e+01	-2.327523e+00
1.047153e+01	-2.348157e+00
1.053201e+01	-2.369094e+00
1.059284e+01	-2.390375e+00
1.065403e+01	-2.411554e+00
1.071556e+01	-2.433013e+00
1.077746e+01	-2.454304e+00
1.083971e+01	-2.476068e+00
1.090232e+01	-2.497908e+00
1.096529e+01	-2.519843e+00
1.102862e+01	-2.542002e+00
1.109232e+01	-2.564221e+00
1.115639e+01	-2.586658e+00
1.122083e+01	-2.609001e+00
1.128564e+01	-2.631844e+00
1.135083e+01	-2.654624e+00
1.141639e+01	-2.677640e+00
1.148233e+01	-2.700483e+00
1.154865e+01	-2.723719e+00
1.161536e+01	-2.747198e+00
1.168245e+01	-2.770915e+00
1.174992e+01	-2.794586e+00
1.181779e+01	-2.818099e+00
1.188605e+01	-2.842230e+00
1.195470e+01	-2.866061e+00
1.202375e+01	-2.890446e+00
1.209320e+01	-2.914989e+00
1.216305e+01	-2.939625e+00
1.223330e+01	-2.964237e+00
1.230396e+01	-2.988982e+00
1.237503e+01	-3.014020e+00
1.244651e+01	-3.039105e+00
1.251840e+01	-3.064241e+00
1.259070e+01	-3.089367e+00
1.266343e+01	-3.115299e+00
1.273657e+01	-3.140806e+00
1.281014e+01	-3.166892e+00
1.288413e+01	-3.192453e+00
1.295855e+01	-3.218921e+00
1.303339e+01	-3.245054e+00
1.310867e+01	-3.271721e+00
1.318439e+01	-3.297719e+00
1.326054e+01	-3.324471e+00
1.333713e+01	-3.351710e+00
1.341417e+01	-3.378364e+00
1.349165e+01	-3.405705e+00
1.356958e+01	-3.432969e+00
1.364795e+01	-3.459981e+00
1.372678e+01	-3.487921e+00
1.380607e+01	-3.515293e+00
1.388581e+01	-3.543440e+00
1.396602e+01	-3.571069e+00
1.404668e+01	-3.599554e+00
1.412782e+01	-3.627725e+00
1.420942e+01	-3.655784e+00
1.429149e+01	-3.684512e+00
1.437404e+01	-3.713389e+00
1.445706e+01	-3.742278e+00
1.454057e+01	-3.771060e+00
1.462455e+01	-3.800183e+00
1.470902e+01	-3.829061e+00
1.479398e+01	-3.858951e+00
1.487943e+01	-3.888257e+00
1.496537e+01	-3.918271e+00
1.505181e+01	-3.947831e+00
1.513875e+01	-3.977850e+00
1.522619e+01	-4.008022e+00
1.531414e+01	-4.037803e+00
1.540259e+01	-4.068463e+00
1.549156e+01	-4.099051e+00
1.558103e+01	-4.129526e+00
1.567103e+01	-4.160275e+00
1.576155e+01	-4.191200e+00
1.585258e+01	-4.222201e+00
1.594415e+01	-4.253277e+00
1.603624e+01	-4.284584e+00
1.612886e+01	-4.316235e+00
1.622202e+01	-4.347515e+00
1.631572e+01	-4.379342e+00
1.640996e+01	-4.411015e+00
1.650474e+01	-4.443227e+00
1.660008e+01	-4.475403e+00
1.669596e+01	-4.507429e+00
1.679239e+01	-4.539997e+00
1.688938e+01	-4.572384e+00
1.698694e+01	-4.604702e+00
1.708505e+01	-4.637903e+00
1.718373e+01	-4.670807e+00
1.728299e+01	-4.703469e+00
1.738281e+01	-4.736971e+00
1.748322e+01	-4.770376e+00
1.758420e+01	-4.803434e+00
1.768576e+01	-4.836980e+00
1.778792e+01	-4.870806e+00
1.789066e+01	-4.904451e+00
1.799399e+01	-4.938478e+00
1.809793e+01	-4.972322e+00
1.820246e+01	-5.006535e+00
1.830760e+01	-5.041077e+00
1.841334e+01	-5.075435e+00
1.851969e+01	-5.109711e+00
1.862666e+01	-5.144745e+00
1.873425e+01	-5.179498e+00
1.884246e+01	-5.214359e+00
1.895129e+01	-5.249511e+00
1.906075e+01	-5.283972e+00
1.917085e+01	-5.319645e+00
1.928158e+01	-5.355053e+00
1.939295e+01	-5.390136e+00
1.950496e+01	-5.426161e+00
1.961762e+01	-5.462076e+00
1.973093e+01	-5.497824e+00
1.984490e+01	-5.533904e+00
1.995952e+01	-5.570058e+00
2.007480e+01	-5.606315e+00
2.019076e+01	-5.642312e+00
2.030738e+01	-5.678593e+00
2.042467e+01	-5.715129e+00
2.054264e+01	-5.752094e+00
2.066130e+01	-5.788861e+00
2.078064e+01	-5.826164e+00
2.090066e+01	-5.863052e+00
2.102139e+01	-5.900078e+00
2.114280e+01	-5.937008e+00
2.126492e+01	-5.974496e+00
2.138775e+01	-6.012074e+00
2.151128e+01	-6.049718e+00
2.163553e+01	-6.087056e+00
2.176050e+01	-6.124633e+00
2.188619e+01	-6.162787e+00
2.201260e+01	-6.200670e+00
2.213974e+01	-6.238590e+00
2.226762e+01	-6.277231e+00
2.239624e+01	-6.315262e+00
2.252560e+01	-6.353681e+00
2.265571e+01	-6.392254e+00
2.278656e+01	-6.430509e+00
2.291818e+01	-6.469289e+00
2.305055e+01	-6.507688e+00
2.318369e+01	-6.547127e+00
2.331760e+01	-6.586120e+00
2.345228e+01	-6.624941e+00
2.358774e+01	-6.664677e+00
2.372398e+01	-6.703189e+00
2.386101e+01	-6.743338e+00
2.399883e+01	-6.782676e+00
2.413745e+01	-6.822085e+00
2.427686e+01	-6.861730e+00
2.441709e+01	-6.901278e+00
2.455812e+01	-6.941437e+00
2.469997e+01	-6.981273e+00
2.484263e+01	-7.021406e+00
2.498612e+01	-7.061756e+00
2.513044e+01	-7.101746e+00
2.527559e+01	-7.141994e+00
2.542158e+01	-7.182317e+00
2.556842e+01	-7.223232e+00
2.571610e+01	-7.263970e+00
2.586463e+01	-7.304422e+00
2.601403e+01	-7.345003e+00
2.616428e+01	-7.385767e+00
2.631541e+01	-7.426856e+00
2.646740e+01	-7.467490e+00
2.662028e+01	-7.508930e+00
2.677404e+01	-7.550073e+00
2.692868e+01	-7.591233e+00
2.708422e+01	-7.633072e+00
2.724066e+01	-7.674170e+00
2.739800e+01	-7.715599e+00
2.755625e+01	-7.757454e+00
2.771541e+01	-7.799005e+00
2.787550e+01	-7.840922e+00
2.803650e+01	-7.882627e+00
2.819844e+01	-7.924876e+00
2.836131e+01	-7.966749e+00
2.852513e+01	-8.008812e+00
2.868989e+01	-8.050665e+00
2.885560e+01	-8.093011e+00
2.902227e+01	-8.135387e+00
2.918990e+01	-8.177991e+00
2.935850e+01	-8.220176e+00
2.952807e+01	-8.262824e+00
2.969863e+01	-8.305412e+00
2.987016e+01	-8.348167e+00
3.004269e+01	-8.390800e+00
3.021622e+01	-8.433525e+00
3.039075e+01	-8.476171e+00
3.056628e+01	-8.519471e+00
3.074283e+01	-8.562414e+00
3.092040e+01	-8.605706e+00
3.109900e+01	-8.648564e+00
3.127862e+01	-8.691753e+00
3.145929e+01	-8.734733e+00
3.164099e+01	-8.778269e+00
3.182375e+01	-8.821923e+00
3.200756e+01	-8.865610e+00
3.219244e+01	-8.909478e+00
3.237838e+01	-8.952731e+00
3.256540e+01	-8.996094e+00
3.275349e+01	-9.039936e+00
3.294268e+01	-9.083885e+00
3.313295e+01	-9.128101e+00
3.332433e+01	-9.172140e+00
3.351681e+01	-9.215515e+00
3.371040e+01	-9.260408e+00
3.390511e+01	-9.304226e+00
3.410094e+01	-9.348228e+00
3.429791e+01	-9.392027e+00
3.449601e+01	-9.436976e+00
3.469526e+01	-9.481601e+00
3.489566e+01	-9.525206e+00
3.509721e+01	-9.570367e+00
3.529993e+01	-9.614450e+00
3.550382e+01	-9.659611e+00
3.570889e+01	-9.703405e+00
3.591515e+01	-9.748296e+00
3.612259e+01	-9.793029e+00
3.633123e+01	-9.837847e+00
3.654108e+01	-9.883041e+00
3.675214e+01	-9.927867e+00
3.696442e+01	-9.972736e+00
3.717792e+01	-1.001743e+01
3.739266e+01	-1.006230e+01
3.760864e+01	-1.010799e+01
3.782587e+01	-1.015294e+01
3.804435e+01	-1.019813e+01
3.826409e+01	-1.024379e+01
3.848510e+01	-1.028861e+01
3.870739e+01	-1.033414e+01
3.893096e+01	-1.038023e+01
3.915583e+01	-1.042554e+01
3.938199e+01	-1.047082e+01
3.960946e+01	-1.051619e+01
3.983824e+01	-1.056173e+01
4.006834e+01	-1.060740e+01
4.029978e+01	-1.065237e+01
4.053255e+01	-1.069891e+01
4.076666e+01	-1.074483e+01
4.100213e+01	-1.079081e+01
4.123896e+01	-1.083657e+01
4.147715e+01	-1.088205e+01
4.171672e+01	-1.092795e+01
4.195767e+01	-1.097465e+01
4.220002e+01	-1.102060e+01
4.244377e+01	-1.106698e+01
4.268892e+01	-1.111296e+01
4.293549e+01	-1.115845e+01
4.318348e+01	-1.120523e+01
4.343291e+01	-1.125104e+01
4.368377e+01	-1.129744e+01
4.393609e+01	-1.134400e+01
4.418986e+01	-1.139040e+01
4.444510e+01	-1.143648e+01
4.470182e+01	-1.148294e+01
4.496001e+01	-1.152944e+01
4.521970e+01	-1.157616e+01
4.548089e+01	-1.162286e+01
4.574358e+01	-1.166936e+01
4.600779e+01	-1.171578e+01
4.627353e+01	-1.176218e+01
4.654081e+01	-1.180978e+01
4.680963e+01	-1.185588e+01
4.708000e+01	-1.190249e+01
4.735193e+01	-1.194996e+01
4.762543e+01	-1.199715e+01
4.790051e+01	-1.204357e+01
4.817719e+01	-1.209030e+01
4.845545e+01	-1.213727e+01
4.873533e+01	-1.218435e+01
4.901682e+01	-1.223159e+01
4.929994e+01	-1.227893e+01
4.958470e+01	-1.232557e+01
4.987110e+01	-1.237253e+01
5.015915e+01	-1.241951e+01
5.044887e+01	-1.246687e+01
5.074026e+01	-1.251358e+01
5.103333e+01	-1.256129e+01
5.132810e+01	-1.260772e+01
5.162457e+01	-1.265582e+01
5.192275e+01	-1.270298e+01
5.222265e+01	-1.275061e+01
5.252429e+01	-1.279795e+01
5.282767e+01	-1.284516e+01
5.313280e+01	-1.289273e+01
5.343969e+01	-1.293990e+01
5.374836e+01	-1.298752e+01
5.405880e+01	-1.303544e+01
5.437105e+01	-1.308280e+01
5.468509e+01	-1.313077e+01
5.500095e+01	-1.317816e+01
5.531863e+01	-1.322543e+01
5.563815e+01	-1.327304e+01
5.595951e+01	-1.332136e+01
5.628273e+01	-1.336890e+01
5.660782e+01	-1.341586e+01
5.693479e+01	-1.346394e+01
5.726364e+01	-1.351249e+01
5.759439e+01	-1.355954e+01
5.792705e+01	-1.360795e+01
5.826164e+01	-1.365608e+01
5.859815e+01	-1.370277e+01
5.893662e+01	-1.375136e+01
5.927703e+01	-1.379952e+01
5.961941e+01	-1.384760e+01
5.996377e+01	-1.389483e+01
6.031012e+01	-1.394258e+01
6.065847e+01	-1.399146e+01
6.100883e+01	-1.403972e+01
6.136121e+01	-1.408776e+01
6.171563e+01	-1.413544e+01
6.207210e+01	-1.418346e+01
6.243063e+01	-1.423138e+01
6.279122e+01	-1.428019e+01
6.315390e+01	-1.432814e+01
6.351868e+01	-1.437670e+01
6.388556e+01	-1.442361e+01
6.425456e+01	-1.447211e+01
6.462569e+01	-1.452099e+01
6.499897e+01	-1.456926e+01
6.537440e+01	-1.461682e+01
6.575200e+01	-1.466608e+01
6.613178e+01	-1.471344e+01
6.651375e+01	-1.476284e+01
6.689793e+01	-1.481022e+01
6.728433e+01	-1.485918e+01
6.767297e+01	-1.490786e+01
6.806384e+01	-1.495591e+01
6.845698e+01	-1.500394e+01
6.885238e+01	-1.505214e+01
6.925007e+01	-1.510052e+01
6.965005e+01	-1.515011e+01
7.005235e+01	-1.519823e+01
7.045697e+01	-1.524622e+01
7.086393e+01	-1.529483e+01
7.127323e+01	-1.534413e+01
7.168490e+01	-1.539319e+01
7.209895e+01	-1.544133e+01
7.251539e+01	-1.548898e+01
7.293424e+01	-1.553746e+01
7.335551e+01	-1.558639e+01
7.377920e+01	-1.563609e+01
7.420535e+01	-1.568474e+01
7.463396e+01	-1.573348e+01
7.506504e+01	-1.578141e+01
7.549861e+01	-1.583011e+01
7.593469e+01	-1.587996e+01
7.637328e+01	-1.592804e+01
7.681441e+01	-1.597601e+01
7.725809e+01	-1.602420e+01
7.770433e+01	-1.607419e+01
7.815315e+01	-1.612300e+01
7.860456e+01	-1.617191e+01
7.905857e+01	-1.622046e+01
7.951521e+01	-1.626901e+01
7.997449e+01	-1.631829e+01
8.043642e+01	-1.636781e+01
8.090102e+01	-1.641622e+01
8.136830e+01	-1.646491e+01
8.183828e+01	-1.651353e+01
8.231097e+01	-1.656148e+01
8.278640e+01	-1.661175e+01
8.326457e+01	-1.666138e+01
8.374550e+01	-1.670821e+01
8.422921e+01	-1.675910e+01
8.471572e+01	-1.680784e+01
8.520503e+01	-1.685746e+01
8.569717e+01	-1.690487e+01
8.619215e+01	-1.695469e+01
8.669000e+01	-1.700334e+01
8.719071e+01	-1.705242e+01
8.769432e+01	-1.710084e+01
8.820084e+01	-1.714976e+01
8.871029e+01	-1.719850e+01
8.922267e+01	-1.724987e+01
8.973802e+01	-1.729850e+01
9.025634e+01	-1.734778e+01
9.077766e+01	-1.739771e+01
9.130199e+01	-1.744459e+01
9.182935e+01	-1.749519e+01
9.235975e+01	-1.754375e+01
9.289321e+01	-1.759373e+01
9.342976e+01	-1.764223e+01
9.396941e+01	-1.769065e+01
9.451217e+01	-1.773999e+01
9.505807e+01	-1.778922e+01
9.560712e+01	-1.783912e+01
9.615934e+01	-1.788793e+01
9.671476e+01	-1.793628e+01
9.727338e+01	-1.798730e+01
9.783522e+01	-1.803490e+01
9.840032e+01	-1.808536e+01
9.896867e+01	-1.813413e+01
9.954031e+01	-1.818427e+01
1.001153e+02	-1.823262e+01
1.006935e+02	-1.828256e+01
1.012751e+02	-1.833179e+01
1.018601e+02	-1.838173e+01
1.024484e+02	-1.842908e+01
1.030402e+02	-1.847817e+01
1.036353e+02	-1.852872e+01
1.042339e+02	-1.857844e+01
1.048360e+02	-1.862821e+01
1.054415e+02	-1.867623e+01
1.060505e+02	-1.872666e+01
1.066631e+02	-1.877569e+01
1.072791e+02	-1.882311e+01
1.078988e+02	-1.887449e+01
1.085220e+02	-1.892250e+01
1.091488e+02	-1.897283e+01
1.097793e+02	-1.902183e+01
1.104133e+02	-1.907119e+01
1.110511e+02	-1.912126e+01
1.116925e+02	-1.917024e+01
1.123376e+02	-1.922069e+01
1.129865e+02	-1.926962e+01
1.136391e+02	-1.931936e+01
1.142955e+02	-1.936870e+01
1.149556e+02	-1.941677e+01
1.156196e+02	-1.946809e+01
1.162874e+02	-1.951605e+01
1.169591e+02	-1.956677e+01
1.176347e+02	-1.961545e+01
1.183141e+02	-1.966514e+01
1.189975e+02	-1.971369e+01
1.196848e+02	-1.976417e+01
1.203761e+02	-1.981373e+01
1.210714e+02	-1.986160e+01
1.217707e+02	-1.991430e+01
1.224740e+02	-1.996322e+01
1.231814e+02	-2.001193e+01
1.238929e+02	-2.006280e+01
1.246085e+02	-2.010920e+01
1.253283e+02	-2.016058e+01
1.260522e+02	-2.021184e+01
1.267802e+02	-2.025885e+01
1.275125e+02	-2.031089e+01
1.282490e+02	-2.035824e+01
1.289898e+02	-2.040848e+01
1.297348e+02	-2.045721e+01
1.304842e+02	-2.050841e+01
1.312378e+02	-2.055835e+01
1.319959e+02	-2.060671e+01
1.327583e+02	-2.065638e+01
1.335251e+02	-2.070656e+01
1.342963e+02	-2.075672e+01
1.350720e+02	-2.080515e+01
1.358522e+02	-2.085597e+01
1.366368e+02	-2.090445e+01
1.374260e+02	-2.095608e+01
1.382198e+02	-2.100331e+01
1.390182e+02	-2.105442e+01
1.398211e+02	-2.110268e+01
1.406287e+02	-2.115174e+01
1.414410e+02	-2.120255e+01
1.422579e+02	-2.125099e+01
1.430796e+02	-2.130126e+01
1.439060e+02	-2.135163e+01
1.447372e+02	-2.139954e+01
1.455732e+02	-2.145072e+01
1.464141e+02	-2.150062e+01
1.472597e+02	-2.154954e+01
1.481103e+02	-2.160080e+01
1.489658e+02	-2.164921e+01
1.498262e+02	-2.169853e+01
1.506916e+02	-2.174865e+01
1.515620e+02	-2.179828e+01
1.524374e+02	-2.184769e+01
1.533179e+02	-2.189762e+01
1.542034e+02	-2.194836e+01
1.550941e+02	-2.199707e+01
1.559899e+02	-2.204720e+01
1.568909e+02	-2.209662e+01
1.577971e+02	-2.214631e+01
1.587085e+02	-2.219545e+01
1.596252e+02	-2.224573e+01
1.605472e+02	-2.229639e+01
1.614745e+02	-2.234370e+01
1.624072e+02	-2.239459e+01
1.633453e+02	-2.244505e+01
1.642887e+02	-2.249501e+01
1.652377e+02	-2.254313e+01
1.661921e+02	-2.259454e+01
1.671520e+02	-2.264419e+01
1.681175e+02	-2.269612e+01
1.690885e+02	-2.274323e+01
1.700651e+02	-2.279494e+01
1.710474e+02	-2.284198e+01
1.720354e+02	-2.289461e+01
1.730291e+02	-2.294436e+01
1.740285e+02	-2.299096e+01
1.750337e+02	-2.304364e+01
1.760446e+02	-2.309327e+01
1.770615e+02	-2.314537e+01
1.780842e+02	-2.319178e+01
1.791128e+02	-2.324281e+01
1.801473e+02	-2.329077e+01
1.811878e+02	-2.334084e+01
1.822344e+02	-2.338963e+01
1.832870e+02	-2.344313e+01
1.843456e+02	-2.349022e+01
1.854104e+02	-2.353900e+01
1.864813e+02	-2.358913e+01
1.875584e+02	-2.364261e+01
1.886418e+02	-2.369094e+01
1.897313e+02	-2.373800e+01
1.908272e+02	-2.378848e+01
1.919294e+02	-2.384127e+01
1.930380e+02	-2.388921e+01
1.941530e+02	-2.393970e+01
1.952744e+02	-2.399225e+01
1.964023e+02	-2.404019e+01
1.975367e+02	-2.408821e+01
1.986777e+02	-2.414052e+01
1.998252e+02	-2.419028e+01
2.009794e+02	-2.423894e+01
2.021403e+02	-2.428866e+01
2.033078e+02	-2.433907e+01
2.044821e+02	-2.438725e+01
2.056632e+02	-2.443869e+01
2.068511e+02	-2.448876e+01
2.080459e+02	-2.453866e+01
2.092475e+02	-2.458777e+01
2.104561e+02	-2.463698e+01
2.116717e+02	-2.468937e+01
2.128943e+02	-2.474016e+01
2.141240e+02	-2.478681e+01
2.153608e+02	-2.483467e+01
2.166047e+02	-2.488874e+01
2.178558e+02	-2.493596e+01
2.191141e+02	-2.498545e+01
2.203797e+02	-2.503705e+01
2.216526e+02	-2.508877e+01
2.229329e+02	-2.513924e+01
2.242205e+02	-2.518675e+01
2.255156e+02	-2.523460e+01
2.268182e+02	-2.528536e+01
2.281283e+02	-2.533558e+01
2.294459e+02	-2.538704e+01
2.307712e+02	-2.543575e+01
2.321041e+02	-2.548569e+01
2.334447e+02	-2.553603e+01
2.347931e+02	-2.558469e+01
2.361493e+02	-2.563115e+01
2.375133e+02	-2.568731e+01
2.388851e+02	-2.573539e+01
2.402649e+02	-2.578422e+01
2.416527e+02	-2.584034e+01
2.430484e+02	-2.588595e+01
2.444523e+02	-2.593490e+01
2.458642e+02	-2.598236e+01
2.472843e+02	-2.603781e+01
2.487126e+02	-2.608588e+01
2.501492e+02	-2.613575e+01
2.515940e+02	-2.618552e+01
2.530472e+02	-2.623569e+01
2.545088e+02	-2.628764e+01
2.559789e+02	-2.633421e+01
2.574574e+02	-2.638507e+01
2.589444e+02	-2.643292e+01
2.604401e+02	-2.648392e+01
2.619444e+02	-2.653451e+01
2.634574e+02	-2.658595e+01
2.649791e+02	-2.663596e+01
2.665096e+02	-2.668298e+01
2.680489e+02	-2.672959e+01
2.695972e+02	-2.678459e+01
2.711544e+02	-2.683802e+01
2.727205e+02	-2.688405e+01
2.742958e+02	-2.693939e+01
2.758801e+02	-2.698517e+01
2.774736e+02	-2.703807e+01
2.790762e+02	-2.708367e+01
2.806882e+02	-2.713646e+01
2.823094e+02	-2.718145e+01
2.839400e+02	-2.723655e+01
2.855800e+02	-2.728395e+01
2.872295e+02	-2.733590e+01
2.888886e+02	-2.738760e+01
2.905572e+02	-2.743396e+01
2.922354e+02	-2.748544e+01
2.939234e+02	-2.753920e+01
2.956211e+02	-2.758216e+01
2.973286e+02	-2.763698e+01
2.990459e+02	-2.768651e+01
3.007732e+02	-2.773246e+01
3.025104e+02	-2.778710e+01
3.042577e+02	-2.783789e+01
3.060151e+02	-2.788906e+01
3.077826e+02	-2.793424e+01
3.095604e+02	-2.798757e+01
3.113484e+02	-2.803907e+01
3.131467e+02	-2.808511e+01
3.149554e+02	-2.813759e+01
3.167746e+02	-2.818703e+01
3.186043e+02	-2.823492e+01
3.204445e+02	-2.828683e+01
3.222954e+02	-2.833319e+01
3.241570e+02	-2.838291e+01
3.260293e+02	-2.843834e+01
3.279124e+02	-2.848564e+01
3.298064e+02	-2.853703e+01
3.317114e+02	-2.858679e+01
3.336273e+02	-2.863590e+01
3.355544e+02	-2.868554e+01
3.374925e+02	-2.873297e+01
3.394418e+02	-2.878678e+01
3.414024e+02	-2.883557e+01
3.433744e+02	-2.888590e+01
3.453577e+02	-2.893686e+01
3.473525e+02	-2.898680e+01
3.493588e+02	-2.904144e+01
3.513766e+02	-2.908790e+01
3.534062e+02	-2.913619e+01
3.554474e+02	-2.918812e+01
3.575005e+02	-2.923285e+01
3.595654e+02	-2.929254e+01
3.616422e+02	-2.933783e+01
3.637311e+02	-2.939013e+01
3.658320e+02	-2.943674e+01
3.679450e+02	-2.948871e+01
3.700702e+02	-2.953741e+01
3.722077e+02	-2.958208e+01
3.743576e+02	-2.963657e+01
3.765199e+02	-2.969170e+01
3.786946e+02	-2.973665e+01
3.808820e+02	-2.979084e+01
3.830819e+02	-2.983601e+01
3.852946e+02	-2.988945e+01
3.875200e+02	-2.993795e+01
3.897583e+02	-2.999352e+01
3.920096e+02	-3.003442e+01
3.942738e+02	-3.008699e+01
3.965511e+02	-3.013787e+01
3.988416e+02	-3.018504e+01
4.011452e+02	-3.023581e+01
4.034622e+02	-3.029467e+01
4.057926e+02	-3.033410e+01
4.081365e+02	-3.039061e+01
4.104938e+02	-3.043902e+01
4.128648e+02	-3.049007e+01
4.152495e+02	-3.053733e+01
4.176480e+02	-3.059113e+01
4.200603e+02	-3.064341e+01
4.224866e+02	-3.068593e+01
4.249268e+02	-3.074059e+01
4.273812e+02	-3.078928e+01
4.298497e+02	-3.083756e+01
4.323325e+02	-3.089555e+01
4.348297e+02	-3.094341e+01
4.373412e+02	-3.099028e+01
4.398673e+02	-3.104291e+01
4.424079e+02	-3.108460e+01
4.449633e+02	-3.113778e+01
4.475334e+02	-3.119090e+01
4.501183e+02	-3.124369e+01
4.527182e+02	-3.128893e+01
4.553330e+02	-3.134052e+01
4.579630e+02	-3.139447e+01
4.606082e+02	-3.144173e+01
4.632687e+02	-3.149009e+01
4.659445e+02	-3.154057e+01
4.686358e+02	-3.159335e+01
4.713426e+02	-3.164046e+01
4.740650e+02	-3.169244e+01
4.768032e+02	-3.173747e+01
4.795572e+02	-3.179541e+01
4.823271e+02	-3.184371e+01
4.851130e+02	-3.189218e+01
4.879150e+02	-3.194551e+01
4.907332e+02	-3.199563e+01
4.935676e+02	-3.204310e+01
4.964185e+02	-3.209320e+01
4.992858e+02	-3.214761e+01
5.021696e+02	-3.219017e+01
5.050701e+02	-3.224460e+01
5.079874e+02	-3.229294e+01
5.109215e+02	-3.234264e+01
5.138726e+02	-3.239920e+01
5.168407e+02	-3.244987e+01
5.198259e+02	-3.249216e+01
5.228284e+02	-3.254816e+01
5.258482e+02	-3.259933e+01
5.288855e+02	-3.264985e+01
5.319403e+02	-3.269888e+01
5.350128e+02	-3.275076e+01
5.381030e+02	-3.280039e+01
5.412111e+02	-3.285026e+01
5.443371e+02	-3.290429e+01
5.474812e+02	-3.295188e+01
5.506434e+02	-3.299907e+01
5.538239e+02	-3.305630e+01
5.570228e+02	-3.309582e+01
5.602401e+02	-3.315586e+01
5.634760e+02	-3.320184e+01
5.667306e+02	-3.324675e+01
5.700040e+02	-3.330619e+01
5.732964e+02	-3.335104e+01
5.766077e+02	-3.339577e+01
5.799382e+02	-3.345727e+01
5.832879e+02	-3.350096e+01
5.866569e+02	-3.356196e+01
5.900454e+02	-3.360948e+01
5.934535e+02	-3.365519e+01
5.968813e+02	-3.370480e+01
6.003288e+02	-3.375729e+01
6.037963e+02	-3.379675e+01
6.072838e+02	-3.385196e+01
6.107914e+02	-3.390369e+01
6.143194e+02	-3.395596e+01
6.178676e+02	-3.399796e+01
6.214364e+02	-3.406222e+01
6.250258e+02	-3.410179e+01
6.286359e+02	-3.415522e+01
6.322669e+02	-3.420137e+01
6.359189e+02	-3.426248e+01
6.395919e+02	-3.430457e+01
6.432862e+02	-3.435944e+01
6.470017e+02	-3.440113e+01
6.507388e+02	-3.445412e+01
6.544974e+02	-3.450617e+01
6.582778e+02	-3.456465e+01
6.620800e+02	-3.460466e+01
6.659041e+02	-3.466002e+01
6.697504e+02	-3.471365e+01
6.736188e+02	-3.476215e+01
6.775096e+02	-3.481216e+01
6.814229e+02	-3.485795e+01
6.853587e+02	-3.490392e+01
6.893173e+02	-3.496790e+01
6.932988e+02	-3.500866e+01
6.973033e+02	-3.506504e+01
7.013309e+02	-3.512024e+01
