Frequency(Hz)	Magnitude(dB)
1.000000e+01	-1.705445e-05
1.005776e+01	-1.725203e-05
1.011585e+01	-1.745190e-05
1.017428e+01	-1.765408e-05
1.023305e+01	-1.785861e-05
1.029215e+01	-1.806550e-05
1.035160e+01	-1.827480e-05
1.041139e+01	-1.848652e-05
1.047153e+01	-1.870069e-05
1.053201e+01	-1.891734e-05
1.059284e+01	-1.913650e-05
1.065403e+01	-1.935820e-05
1.071556e+01	-1.958247e-05
1.077746e+01	-1.980934e-05
1.083971e+01	-2.003884e-05
1.090232e+01	-2.027099e-05
1.096529e+01	-2.050584e-05
1.102862e+01	-2.074340e-05
1.109232e+01	-2.098372e-05
1.115639e+01	-2.122682e-05
1.122083e+01	-2.147274e-05
1.128564e+01	-2.172151e-05
1.135083e+01	-2.197316e-05
1.141639e+01	-2.222772e-05
1.148233e+01	-2.248523e-05
1.154865e+01	-2.274573e-05
1.161536e+01	-2.300925e-05
1.168245e+01	-2.327581e-05
1.174992e+01	-2.354547e-05
1.181779e+01	-2.381825e-05
1.188605e+01	-2.409419e-05
1.195470e+01	-2.437333e-05
1.202375e+01	-2.465570e-05
1.209320e+01	-2.494134e-05
1.216305e+01	-2.523029e-05
1.223330e+01	-2.552259e-05
1.230396e+01	-2.581828e-05
1.237503e+01	-2.611739e-05
1.244651e+01	-2.641996e-05
1.251840e+01	-2.672605e-05
1.259070e+01	-2.703567e-05
1.266343e+01	-2.734889e-05
1.273657e+01	-2.766573e-05
1.281014e+01	-2.798625e-05
1.288413e+01	-2.831047e-05
1.295855e+01	-2.863846e-05
1.303339e+01	-2.897024e-05
1.310867e+01	-2.930587e-05
1.318439e+01	-2.964538e-05
1.326054e+01	-2.998883e-05
1.333713e+01	-3.033626e-05
1.341417e+01	-3.068771e-05
1.349165e+01	-3.104324e-05
1.356958e+01	-3.140288e-05
1.364795e+01	-3.176669e-05
1.372678e+01	-3.213471e-05
1.380607e+01	-3.250700e-05
1.388581e+01	-3.288360e-05
1.396602e+01	-3.326457e-05
1.404668e+01	-3.364995e-05
1.412782e+01	-3.403979e-05
1.420942e+01	-3.443415e-05
1.429149e+01	-3.483308e-05
1.437404e+01	-3.523663e-05
1.445706e+01	-3.564485e-05
1.454057e+01	-3.605780e-05
1.462455e+01	-3.647554e-05
1.470902e+01	-3.689812e-05
1.479398e+01	-3.732559e-05
1.487943e+01	-3.775802e-05
1.496537e+01	-3.819545e-05
1.505181e+01	-3.863796e-05
1.513875e+01	-3.908559e-05
1.522619e+01	-3.953840e-05
1.531414e+01	-3.999646e-05
1.540259e+01	-4.045983e-05
1.549156e+01	-4.092857e-05
1.558103e+01	-4.140273e-05
1.567103e+01	-4.188239e-05
1.576155e+01	-4.236761e-05
1.585258e+01	-4.285845e-05
1.594415e+01	-4.335497e-05
1.603624e+01	-4.385725e-05
1.612886e+01	-4.436535e-05
1.622202e+01	-4.487933e-05
1.631572e+01	-4.539926e-05
1.640996e+01	-4.592523e-05
1.650474e+01	-4.645728e-05
1.660008e+01	-4.699550e-05
1.669596e+01	-4.753995e-05
1.679239e+01	-4.809071e-05
1.688938e+01	-4.864785e-05
1.698694e+01	-4.921145e-05
1.708505e+01	-4.978157e-05
1.718373e+01	-5.035830e-05
1.728299e+01	-5.094171e-05
1.738281e+01	-5.153188e-05
1.748322e+01	-5.212889e-05
1.758420e+01	-5.273282e-05
1.768576e+01	-5.334374e-05
1.778792e+01	-5.396174e-05
1.789066e+01	-5.458689e-05
1.799399e+01	-5.521929e-05
1.809793e+01	-5.585902e-05
1.820246e+01	-5.650616e-05
1.830760e+01	-5.716079e-05
1.841334e+01	-5.782301e-05
1.851969e+01	-5.849291e-05
1.862666e+01	-5.917056e-05
1.873425e+01	-5.985606e-05
1.884246e+01	-6.054950e-05
1.895129e+01	-6.125098e-05
1.906075e+01	-6.196059e-05
1.917085e+01	-6.267841e-05
1.928158e+01	-6.340455e-05
1.939295e+01	-6.413911e-05
1.950496e+01	-6.488217e-05
1.961762e+01	-6.563384e-05
1.973093e+01	-6.639423e-05
1.984490e+01	-6.716341e-05
1.995952e+01	-6.794152e-05
2.007480e+01	-6.872863e-05
2.019076e+01	-6.952486e-05
2.030738e+01	-7.033032e-05
2.042467e+01	-7.114511e-05
2.054264e+01	-7.196934e-05
2.066130e+01	-7.280312e-05
2.078064e+01	-7.364656e-05
2.090066e+01	-7.449977e-05
2.102139e+01	-7.536286e-05
2.114280e+01	-7.623595e-05
2.126492e+01	-7.711916e-05
2.138775e+01	-7.801260e-05
2.151128e+01	-7.891639e-05
2.163553e+01	-7.983065e-05
2.176050e+01	-8.075550e-05
2.188619e+01	-8.169107e-05
2.201260e+01	-8.263747e-05
2.213974e+01	-8.359484e-05
2.226762e+01	-8.456330e-05
2.239624e+01	-8.554298e-05
2.252560e+01	-8.653401e-05
2.265571e+01	-8.753652e-05
2.278656e+01	-8.855064e-05
2.291818e+01	-8.957652e-05
2.305055e+01	-9.061428e-05
2.318369e+01	-9.166406e-05
2.331760e+01	-9.272600e-05
2.345228e+01	-9.380024e-05
2.358774e+01	-9.488693e-05
2.372398e+01	-9.598621e-05
2.386101e+01	-9.709823e-05
2.399883e+01	-9.822312e-05
2.413745e+01	-9.936105e-05
2.427686e+01	-1.005122e-04
2.441709e+01	-1.016766e-04
2.455812e+01	-1.028546e-04
2.469997e+01	-1.040461e-04
2.484263e+01	-1.052515e-04
2.498612e+01	-1.064709e-04
2.513044e+01	-1.077044e-04
2.527559e+01	-1.089521e-04
2.542158e+01	-1.102144e-04
2.556842e+01	-1.114912e-04
2.571610e+01	-1.127828e-04
2.586463e+01	-1.140894e-04
2.601403e+01	-1.154112e-04
2.616428e+01	-1.167482e-04
2.631541e+01	-1.181008e-04
2.646740e+01	-1.194690e-04
2.662028e+01	-1.208531e-04
2.677404e+01	-1.222532e-04
2.692868e+01	-1.236695e-04
2.708422e+01	-1.251022e-04
2.724066e+01	-1.265515e-04
2.739800e+01	-1.280176e-04
2.755625e+01	-1.295007e-04
2.771541e+01	-1.310010e-04
2.787550e+01	-1.325187e-04
2.803650e+01	-1.340539e-04
2.819844e+01	-1.356069e-04
2.836131e+01	-1.371780e-04
2.852513e+01	-1.387672e-04
2.868989e+01	-1.403748e-04
2.885560e+01	-1.420011e-04
2.902227e+01	-1.436462e-04
2.918990e+01	-1.453103e-04
2.935850e+01	-1.469937e-04
2.952807e+01	-1.486967e-04
2.969863e+01	-1.504193e-04
2.987016e+01	-1.521620e-04
3.004269e+01	-1.539248e-04
3.021622e+01	-1.557080e-04
3.039075e+01	-1.575119e-04
3.056628e+01	-1.593367e-04
3.074283e+01	-1.611826e-04
3.092040e+01	-1.630499e-04
3.109900e+01	-1.649388e-04
3.127862e+01	-1.668497e-04
3.145929e+01	-1.687826e-04
3.164099e+01	-1.707380e-04
3.182375e+01	-1.727160e-04
3.200756e+01	-1.747169e-04
3.219244e+01	-1.767410e-04
3.237838e+01	-1.787886e-04
3.256540e+01	-1.808598e-04
3.275349e+01	-1.829551e-04
3.294268e+01	-1.850747e-04
3.313295e+01	-1.872187e-04
3.332433e+01	-1.893877e-04
3.351681e+01	-1.915817e-04
3.371040e+01	-1.938012e-04
3.390511e+01	-1.960464e-04
3.410094e+01	-1.983176e-04
3.429791e+01	-2.006151e-04
3.449601e+01	-2.029393e-04
3.469526e+01	-2.052903e-04
3.489566e+01	-2.076686e-04
3.509721e+01	-2.100744e-04
3.529993e+01	-2.125081e-04
3.550382e+01	-2.149701e-04
3.570889e+01	-2.174605e-04
3.591515e+01	-2.199798e-04
3.612259e+01	-2.225282e-04
3.633123e+01	-2.251062e-04
3.654108e+01	-2.277140e-04
3.675214e+01	-2.303521e-04
3.696442e+01	-2.330207e-04
3.717792e+01	-2.357203e-04
3.739266e+01	-2.384511e-04
3.760864e+01	-2.412135e-04
3.782587e+01	-2.440080e-04
3.804435e+01	-2.468348e-04
3.826409e+01	-2.496944e-04
3.848510e+01	-2.525871e-04
3.870739e+01	-2.555133e-04
3.893096e+01	-2.584734e-04
3.915583e+01	-2.614678e-04
3.938199e+01	-2.644968e-04
3.960946e+01	-2.675610e-04
3.983824e+01	-2.706607e-04
4.006834e+01	-2.737963e-04
4.029978e+01	-2.769682e-04
4.053255e+01	-2.801768e-04
4.076666e+01	-2.834226e-04
4.100213e+01	-2.867061e-04
4.123896e+01	-2.900275e-04
4.147715e+01	-2.933875e-04
4.171672e+01	-2.967863e-04
4.195767e+01	-3.002246e-04
4.220002e+01	-3.037026e-04
4.244377e+01	-3.072210e-04
4.268892e+01	-3.107801e-04
4.293549e+01	-3.143804e-04
4.318348e+01	-3.180225e-04
4.343291e+01	-3.217067e-04
4.368377e+01	-3.254336e-04
4.393609e+01	-3.292037e-04
4.418986e+01	-3.330175e-04
4.444510e+01	-3.368755e-04
4.470182e+01	-3.407781e-04
4.496001e+01	-3.447260e-04
4.521970e+01	-3.487195e-04
4.548089e+01	-3.527594e-04
4.574358e+01	-3.568460e-04
4.600779e+01	-3.609800e-04
4.627353e+01	-3.651619e-04
4.654081e+01	-3.693922e-04
4.680963e+01	-3.736716e-04
4.708000e+01	-3.780005e-04
4.735193e+01	-3.823795e-04
4.762543e+01	-3.868093e-04
4.790051e+01	-3.912904e-04
4.817719e+01	-3.958234e-04
4.845545e+01	-4.004089e-04
4.873533e+01	-4.050475e-04
4.901682e+01	-4.097399e-04
4.929994e+01	-4.144866e-04
4.958470e+01	-4.192883e-04
4.987110e+01	-4.241456e-04
5.015915e+01	-4.290592e-04
5.044887e+01	-4.340298e-04
5.074026e+01	-4.390579e-04
5.103333e+01	-4.441442e-04
5.132810e+01	-4.492895e-04
5.162457e+01	-4.544944e-04
5.192275e+01	-4.597595e-04
5.222265e+01	-4.650857e-04
5.252429e+01	-4.704735e-04
5.282767e+01	-4.759238e-04
5.313280e+01	-4.814372e-04
5.343969e+01	-4.870145e-04
5.374836e+01	-4.926563e-04
5.405880e+01	-4.983636e-04
5.437105e+01	-5.041369e-04
5.468509e+01	-5.099771e-04
5.500095e+01	-5.158850e-04
5.531863e+01	-5.218613e-04
5.563815e+01	-5.279069e-04
5.595951e+01	-5.340224e-04
5.628273e+01	-5.402089e-04
5.660782e+01	-5.464669e-04
5.693479e+01	-5.527975e-04
5.726364e+01	-5.592014e-04
5.759439e+01	-5.656795e-04
5.792705e+01	-5.722326e-04
5.826164e+01	-5.788616e-04
5.859815e+01	-5.855674e-04
5.893662e+01	-5.923509e-04
5.927703e+01	-5.992130e-04
5.961941e+01	-6.061546e-04
5.996377e+01	-6.131766e-04
6.031012e+01	-6.202799e-04
6.065847e+01	-6.274655e-04
6.100883e+01	-6.347343e-04
6.136121e+01	-6.420873e-04
6.171563e+01	-6.495255e-04
6.207210e+01	-6.570499e-04
6.243063e+01	-6.646614e-04
6.279122e+01	-6.723611e-04
6.315390e+01	-6.801500e-04
6.351868e+01	-6.880291e-04
6.388556e+01	-6.959994e-04
6.425456e+01	-7.040621e-04
6.462569e+01	-7.122182e-04
6.499897e+01	-7.204688e-04
6.537440e+01	-7.288149e-04
6.575200e+01	-7.372577e-04
6.613178e+01	-7.457983e-04
6.651375e+01	-7.544378e-04
6.689793e+01	-7.631774e-04
6.728433e+01	-7.720183e-04
6.767297e+01	-7.809615e-04
6.806384e+01	-7.900083e-04
6.845698e+01	-7.991600e-04
6.885238e+01	-8.084176e-04
6.925007e+01	-8.177824e-04
6.965005e+01	-8.272558e-04
7.005235e+01	-8.368388e-04
7.045697e+01	-8.465329e-04
7.086393e+01	-8.563392e-04
7.127323e+01	-8.662592e-04
7.168490e+01	-8.762940e-04
7.209895e+01	-8.864451e-04
7.251539e+01	-8.967137e-04
7.293424e+01	-9.071013e-04
7.335551e+01	-9.176092e-04
7.377920e+01	-9.282388e-04
7.420535e+01	-9.389916e-04
7.463396e+01	-9.498689e-04
7.506504e+01	-9.608721e-04
7.549861e+01	-9.720029e-04
7.593469e+01	-9.832625e-04
7.637328e+01	-9.946526e-04
7.681441e+01	-1.006175e-03
7.725809e+01	-1.017830e-03
7.770433e+01	-1.029620e-03
7.815315e+01	-1.041547e-03
7.860456e+01	-1.053613e-03
7.905857e+01	-1.065817e-03
7.951521e+01	-1.078164e-03
7.997449e+01	-1.090653e-03
8.043642e+01	-1.103287e-03
8.090102e+01	-1.116067e-03
8.136830e+01	-1.128995e-03
8.183828e+01	-1.142073e-03
8.231097e+01	-1.155303e-03
8.278640e+01	-1.168686e-03
8.326457e+01	-1.182223e-03
8.374550e+01	-1.195918e-03
8.422921e+01	-1.209771e-03
8.471572e+01	-1.223784e-03
8.520503e+01	-1.237960e-03
8.569717e+01	-1.252300e-03
8.619215e+01	-1.266806e-03
8.669000e+01	-1.281480e-03
8.719071e+01	-1.296325e-03
8.769432e+01	-1.311341e-03
8.820084e+01	-1.326530e-03
8.871029e+01	-1.341896e-03
8.922267e+01	-1.357440e-03
8.973802e+01	-1.373164e-03
9.025634e+01	-1.389070e-03
9.077766e+01	-1.405160e-03
9.130199e+01	-1.421437e-03
9.182935e+01	-1.437902e-03
9.235975e+01	-1.454557e-03
9.289321e+01	-1.471406e-03
9.342976e+01	-1.488449e-03
9.396941e+01	-1.505691e-03
9.451217e+01	-1.523131e-03
9.505807e+01	-1.540774e-03
9.560712e+01	-1.558621e-03
9.615934e+01	-1.576675e-03
9.671476e+01	-1.594938e-03
9.727338e+01	-1.613412e-03
9.783522e+01	-1.632100e-03
9.840032e+01	-1.651005e-03
9.896867e+01	-1.670129e-03
9.954031e+01	-1.689474e-03
1.001153e+02	-1.709043e-03
1.006935e+02	-1.728839e-03
1.012751e+02	-1.748864e-03
1.018601e+02	-1.769121e-03
1.024484e+02	-1.789612e-03
1.030402e+02	-1.810341e-03
1.036353e+02	-1.831310e-03
1.042339e+02	-1.852522e-03
1.048360e+02	-1.873979e-03
1.054415e+02	-1.895685e-03
1.060505e+02	-1.917642e-03
1.066631e+02	-1.939853e-03
1.072791e+02	-1.962322e-03
1.078988e+02	-1.985051e-03
1.085220e+02	-2.008043e-03
1.091488e+02	-2.031301e-03
1.097793e+02	-2.054829e-03
1.104133e+02	-2.078629e-03
1.110511e+02	-2.102704e-03
1.116925e+02	-2.127059e-03
1.123376e+02	-2.151695e-03
1.129865e+02	-2.176617e-03
1.136391e+02	-2.201827e-03
1.142955e+02	-2.227330e-03
1.149556e+02	-2.253127e-03
1.156196e+02	-2.279223e-03
1.162874e+02	-2.305622e-03
1.169591e+02	-2.332326e-03
1.176347e+02	-2.359339e-03
1.183141e+02	-2.386665e-03
1.189975e+02	-2.414307e-03
1.196848e+02	-2.442270e-03
1.203761e+02	-2.470556e-03
1.210714e+02	-2.499170e-03
1.217707e+02	-2.528115e-03
1.224740e+02	-2.557395e-03
1.231814e+02	-2.587015e-03
1.238929e+02	-2.616977e-03
1.246085e+02	-2.647286e-03
1.253283e+02	-2.677946e-03
1.260522e+02	-2.708961e-03
1.267802e+02	-2.740335e-03
1.275125e+02	-2.772073e-03
1.282490e+02	-2.804177e-03
1.289898e+02	-2.836654e-03
1.297348e+02	-2.869506e-03
1.304842e+02	-2.902739e-03
1.312378e+02	-2.936357e-03
1.319959e+02	-2.970364e-03
1.327583e+02	-3.004764e-03
1.335251e+02	-3.039563e-03
1.342963e+02	-3.074765e-03
1.350720e+02	-3.110374e-03
1.358522e+02	-3.146395e-03
1.366368e+02	-3.182834e-03
1.374260e+02	-3.219694e-03
1.382198e+02	-3.256981e-03
1.390182e+02	-3.294700e-03
1.398211e+02	-3.332855e-03
1.406287e+02	-3.371452e-03
1.414410e+02	-3.410496e-03
1.422579e+02	-3.449991e-03
1.430796e+02	-3.489944e-03
1.439060e+02	-3.530360e-03
1.447372e+02	-3.571243e-03
1.455732e+02	-3.612600e-03
1.464141e+02	-3.654435e-03
1.472597e+02	-3.696754e-03
1.481103e+02	-3.739564e-03
1.489658e+02	-3.782869e-03
1.498262e+02	-3.826675e-03
1.506916e+02	-3.870988e-03
1.515620e+02	-3.915814e-03
1.524374e+02	-3.961159e-03
1.533179e+02	-4.007029e-03
1.542034e+02	-4.053430e-03
1.550941e+02	-4.100368e-03
1.559899e+02	-4.147849e-03
1.568909e+02	-4.195879e-03
1.577971e+02	-4.244466e-03
1.587085e+02	-4.293615e-03
1.596252e+02	-4.343333e-03
1.605472e+02	-4.393626e-03
1.614745e+02	-4.444501e-03
1.624072e+02	-4.495965e-03
1.633453e+02	-4.548024e-03
1.642887e+02	-4.600686e-03
1.652377e+02	-4.653958e-03
1.661921e+02	-4.707846e-03
1.671520e+02	-4.762358e-03
1.681175e+02	-4.817500e-03
1.690885e+02	-4.873281e-03
1.700651e+02	-4.929707e-03
1.710474e+02	-4.986786e-03
1.720354e+02	-5.044525e-03
1.730291e+02	-5.102933e-03
1.740285e+02	-5.162017e-03
1.750337e+02	-5.221784e-03
1.760446e+02	-5.282243e-03
1.770615e+02	-5.343401e-03
1.780842e+02	-5.405267e-03
1.791128e+02	-5.467849e-03
1.801473e+02	-5.531155e-03
1.811878e+02	-5.595194e-03
1.822344e+02	-5.659973e-03
1.832870e+02	-5.725502e-03
1.843456e+02	-5.791789e-03
1.854104e+02	-5.858843e-03
1.864813e+02	-5.926673e-03
1.875584e+02	-5.995287e-03
1.886418e+02	-6.064696e-03
1.897313e+02	-6.134907e-03
1.908272e+02	-6.205930e-03
1.919294e+02	-6.277776e-03
1.930380e+02	-6.350452e-03
1.941530e+02	-6.423969e-03
1.952744e+02	-6.498336e-03
1.964023e+02	-6.573564e-03
1.975367e+02	-6.649662e-03
1.986777e+02	-6.726640e-03
1.998252e+02	-6.804509e-03
2.009794e+02	-6.883278e-03
2.021403e+02	-6.962959e-03
2.033078e+02	-7.043561e-03
2.044821e+02	-7.125095e-03
2.056632e+02	-7.207572e-03
2.068511e+02	-7.291004e-03
2.080459e+02	-7.375400e-03
2.092475e+02	-7.460772e-03
2.104561e+02	-7.547132e-03
2.116717e+02	-7.634490e-03
2.128943e+02	-7.722859e-03
2.141240e+02	-7.812249e-03
2.153608e+02	-7.902674e-03
2.166047e+02	-7.994143e-03
2.178558e+02	-8.086671e-03
2.191141e+02	-8.180269e-03
2.203797e+02	-8.274949e-03
2.216526e+02	-8.370723e-03
2.229329e+02	-8.467606e-03
2.242205e+02	-8.565608e-03
2.255156e+02	-8.664743e-03
2.268182e+02	-8.765025e-03
2.281283e+02	-8.866466e-03
2.294459e+02	-8.969080e-03
2.307712e+02	-9.072880e-03
2.321041e+02	-9.177880e-03
2.334447e+02	-9.284094e-03
2.347931e+02	-9.391536e-03
2.361493e+02	-9.500220e-03
2.375133e+02	-9.610160e-03
2.388851e+02	-9.721371e-03
2.402649e+02	-9.833868e-03
2.416527e+02	-9.947665e-03
2.430484e+02	-1.006278e-02
2.444523e+02	-1.017922e-02
2.458642e+02	-1.029701e-02
2.472843e+02	-1.041616e-02
2.487126e+02	-1.053669e-02
2.501492e+02	-1.065861e-02
2.515940e+02	-1.078193e-02
2.530472e+02	-1.090669e-02
2.545088e+02	-1.103288e-02
2.559789e+02	-1.116054e-02
2.574574e+02	-1.128967e-02
2.589444e+02	-1.142029e-02
2.604401e+02	-1.155242e-02
2.619444e+02	-1.168608e-02
2.634574e+02	-1.182128e-02
2.649791e+02	-1.195804e-02
2.665096e+02	-1.209638e-02
2.680489e+02	-1.223632e-02
2.695972e+02	-1.237788e-02
2.711544e+02	-1.252108e-02
2.727205e+02	-1.266592e-02
2.742958e+02	-1.281244e-02
2.758801e+02	-1.296066e-02
2.774736e+02	-1.311058e-02
2.790762e+02	-1.326224e-02
2.806882e+02	-1.341565e-02
2.823094e+02	-1.357083e-02
2.839400e+02	-1.372780e-02
2.855800e+02	-1.388658e-02
2.872295e+02	-1.404720e-02
2.888886e+02	-1.420968e-02
2.905572e+02	-1.437403e-02
2.922354e+02	-1.454027e-02
2.939234e+02	-1.470844e-02
2.956211e+02	-1.487855e-02
2.973286e+02	-1.505062e-02
2.990459e+02	-1.522468e-02
3.007732e+02	-1.540075e-02
3.025104e+02	-1.557885e-02
3.042577e+02	-1.575900e-02
3.060151e+02	-1.594124e-02
3.077826e+02	-1.612558e-02
3.095604e+02	-1.631204e-02
3.113484e+02	-1.650066e-02
3.131467e+02	-1.669146e-02
3.149554e+02	-1.688446e-02
3.167746e+02	-1.707968e-02
3.186043e+02	-1.727716e-02
3.204445e+02	-1.747691e-02
3.222954e+02	-1.767897e-02
3.241570e+02	-1.788337e-02
3.260293e+02	-1.809012e-02
3.279124e+02	-1.829925e-02
3.298064e+02	-1.851080e-02
3.317114e+02	-1.872479e-02
3.336273e+02	-1.894124e-02
3.355544e+02	-1.916020e-02
3.374925e+02	-1.938168e-02
3.394418e+02	-1.960571e-02
3.414024e+02	-1.983233e-02
3.433744e+02	-2.006156e-02
3.453577e+02	-2.029343e-02
3.473525e+02	-2.052798e-02
3.493588e+02	-2.076523e-02
3.513766e+02	-2.100521e-02
3.534062e+02	-2.124797e-02
3.554474e+02	-2.149352e-02
3.575005e+02	-2.174190e-02
3.595654e+02	-2.199315e-02
3.616422e+02	-2.224729e-02
3.637311e+02	-2.250436e-02
3.658320e+02	-2.276439e-02
3.679450e+02	-2.302742e-02
3.700702e+02	-2.329348e-02
3.722077e+02	-2.356261e-02
3.743576e+02	-2.383484e-02
3.765199e+02	-2.411020e-02
3.786946e+02	-2.438873e-02
3.808820e+02	-2.467048e-02
3.830819e+02	-2.495547e-02
3.852946e+02	-2.524374e-02
3.875200e+02	-2.553533e-02
3.897583e+02	-2.583028e-02
3.920096e+02	-2.612863e-02
3.942738e+02	-2.643041e-02
3.965511e+02	-2.673567e-02
3.988416e+02	-2.704444e-02
4.011452e+02	-2.735677e-02
4.034622e+02	-2.767269e-02
4.057926e+02	-2.799225e-02
4.081365e+02	-2.831549e-02
4.104938e+02	-2.864244e-02
4.128648e+02	-2.897316e-02
4.152495e+02	-2.930769e-02
4.176480e+02	-2.964606e-02
4.200603e+02	-2.998833e-02
4.224866e+02	-3.033454e-02
4.249268e+02	-3.068472e-02
4.273812e+02	-3.103894e-02
4.298497e+02	-3.139723e-02
4.323325e+02	-3.175964e-02
4.348297e+02	-3.212622e-02
4.373412e+02	-3.249701e-02
4.398673e+02	-3.287207e-02
4.424079e+02	-3.325144e-02
4.449633e+02	-3.363517e-02
4.475334e+02	-3.402331e-02
4.501183e+02	-3.441591e-02
4.527182e+02	-3.481303e-02
4.553330e+02	-3.521470e-02
4.579630e+02	-3.562100e-02
4.606082e+02	-3.603196e-02
4.632687e+02	-3.644764e-02
4.659445e+02	-3.686810e-02
4.686358e+02	-3.729339e-02
4.713426e+02	-3.772356e-02
4.740650e+02	-3.815867e-02
4.768032e+02	-3.859878e-02
4.795572e+02	-3.904394e-02
4.823271e+02	-3.949421e-02
4.851130e+02	-3.994965e-02
4.879150e+02	-4.041032e-02
4.907332e+02	-4.087627e-02
4.935676e+02	-4.134758e-02
4.964185e+02	-4.182429e-02
4.992858e+02	-4.230647e-02
5.021696e+02	-4.279418e-02
5.050701e+02	-4.328748e-02
5.079874e+02	-4.378644e-02
5.109215e+02	-4.429113e-02
5.138726e+02	-4.480160e-02
5.168407e+02	-4.531792e-02
5.198259e+02	-4.584016e-02
5.228284e+02	-4.636839e-02
5.258482e+02	-4.690268e-02
5.288855e+02	-4.744308e-02
5.319403e+02	-4.798968e-02
5.350128e+02	-4.854254e-02
5.381030e+02	-4.910173e-02
5.412111e+02	-4.966733e-02
5.443371e+02	-5.023940e-02
5.474812e+02	-5.081802e-02
5.506434e+02	-5.140327e-02
5.538239e+02	-5.199522e-02
5.570228e+02	-5.259395e-02
5.602401e+02	-5.319952e-02
5.634760e+02	-5.381203e-02
5.667306e+02	-5.443154e-02
5.700040e+02	-5.505814e-02
5.732964e+02	-5.569191e-02
5.766077e+02	-5.633292e-02
5.799382e+02	-5.698126e-02
5.832879e+02	-5.763702e-02
5.866569e+02	-5.830027e-02
5.900454e+02	-5.897110e-02
5.934535e+02	-5.964960e-02
5.968813e+02	-6.033585e-02
6.003288e+02	-6.102994e-02
6.037963e+02	-6.173195e-02
6.072838e+02	-6.244199e-02
6.107914e+02	-6.316013e-02
6.143194e+02	-6.388647e-02
6.178676e+02	-6.462110e-02
6.214364e+02	-6.536411e-02
6.250258e+02	-6.611560e-02
6.286359e+02	-6.687566e-02
6.322669e+02	-6.764440e-02
6.359189e+02	-6.842190e-02
6.395919e+02	-6.920826e-02
6.432862e+02	-7.000359e-02
6.470017e+02	-7.080799e-02
6.507388e+02	-7.162155e-02
6.544974e+02	-7.244438e-02
6.582778e+02	-7.327658e-02
6.620800e+02	-7.411827e-02
6.659041e+02	-7.496953e-02
6.697504e+02	-7.583049e-02
6.736188e+02	-7.670125e-02
6.775096e+02	-7.758191e-02
6.814229e+02	-7.847260e-02
6.853587e+02	-7.937342e-02
6.893173e+02	-8.028448e-02
6.932988e+02	-8.120590e-02
6.973033e+02	-8.213780e-02
7.013309e+02	-8.308029e-02
