Frequency(Hz)	Magnitude(dB)
1.000000e+01	-1.745001e-05
1.005776e+01	-1.765217e-05
1.011585e+01	-1.785667e-05
1.017428e+01	-1.806355e-05
1.023305e+01	-1.827282e-05
1.029215e+01	-1.848451e-05
1.035160e+01	-1.869866e-05
1.041139e+01	-1.891529e-05
1.047153e+01	-1.913443e-05
1.053201e+01	-1.935611e-05
1.059284e+01	-1.958035e-05
1.065403e+01	-1.980719e-05
1.071556e+01	-2.003667e-05
1.077746e+01	-2.026880e-05
1.083971e+01	-2.050361e-05
1.090232e+01	-2.074115e-05
1.096529e+01	-2.098145e-05
1.102862e+01	-2.122452e-05
1.109232e+01	-2.147041e-05
1.115639e+01	-2.171915e-05
1.122083e+01	-2.197077e-05
1.128564e+01	-2.222531e-05
1.135083e+01	-2.248280e-05
1.141639e+01	-2.274327e-05
1.148233e+01	-2.300675e-05
1.154865e+01	-2.327329e-05
1.161536e+01	-2.354292e-05
1.168245e+01	-2.381567e-05
1.174992e+01	-2.409158e-05
1.181779e+01	-2.437069e-05
1.188605e+01	-2.465303e-05
1.195470e+01	-2.493864e-05
1.202375e+01	-2.522756e-05
1.209320e+01	-2.551983e-05
1.216305e+01	-2.581548e-05
1.223330e+01	-2.611456e-05
1.230396e+01	-2.641710e-05
1.237503e+01	-2.672315e-05
1.244651e+01	-2.703274e-05
1.251840e+01	-2.734592e-05
1.259070e+01	-2.766273e-05
1.266343e+01	-2.798321e-05
1.273657e+01	-2.830741e-05
1.281014e+01	-2.863535e-05
1.288413e+01	-2.896710e-05
1.295855e+01	-2.930269e-05
1.303339e+01	-2.964217e-05
1.310867e+01	-2.998558e-05
1.318439e+01	-3.033297e-05
1.326054e+01	-3.068439e-05
1.333713e+01	-3.103987e-05
1.341417e+01	-3.139948e-05
1.349165e+01	-3.176325e-05
1.356958e+01	-3.213123e-05
1.364795e+01	-3.250348e-05
1.372678e+01	-3.288004e-05
1.380607e+01	-3.326096e-05
1.388581e+01	-3.364630e-05
1.396602e+01	-3.403610e-05
1.404668e+01	-3.443042e-05
1.412782e+01	-3.482930e-05
1.420942e+01	-3.523281e-05
1.429149e+01	-3.564099e-05
1.437404e+01	-3.605390e-05
1.445706e+01	-3.647159e-05
1.454057e+01	-3.689412e-05
1.462455e+01	-3.732155e-05
1.470902e+01	-3.775393e-05
1.479398e+01	-3.819131e-05
1.487943e+01	-3.863377e-05
1.496537e+01	-3.908135e-05
1.505181e+01	-3.953412e-05
1.513875e+01	-3.999213e-05
1.522619e+01	-4.045545e-05
1.531414e+01	-4.092413e-05
1.540259e+01	-4.139825e-05
1.549156e+01	-4.187785e-05
1.558103e+01	-4.236302e-05
1.567103e+01	-4.285380e-05
1.576155e+01	-4.335027e-05
1.585258e+01	-4.385250e-05
1.594415e+01	-4.436054e-05
1.603624e+01	-4.487446e-05
1.612886e+01	-4.539435e-05
1.622202e+01	-4.592025e-05
1.631572e+01	-4.645224e-05
1.640996e+01	-4.699040e-05
1.650474e+01	-4.753480e-05
1.660008e+01	-4.808550e-05
1.669596e+01	-4.864258e-05
1.679239e+01	-4.920611e-05
1.688938e+01	-4.977618e-05
1.698694e+01	-5.035285e-05
1.708505e+01	-5.093619e-05
1.718373e+01	-5.152630e-05
1.728299e+01	-5.212324e-05
1.738281e+01	-5.272710e-05
1.748322e+01	-5.333796e-05
1.758420e+01	-5.395589e-05
1.768576e+01	-5.458098e-05
1.778792e+01	-5.521331e-05
1.789066e+01	-5.585297e-05
1.799399e+01	-5.650004e-05
1.809793e+01	-5.715460e-05
1.820246e+01	-5.781675e-05
1.830760e+01	-5.848657e-05
1.841334e+01	-5.916415e-05
1.851969e+01	-5.984957e-05
1.862666e+01	-6.054294e-05
1.873425e+01	-6.124434e-05
1.884246e+01	-6.195387e-05
1.895129e+01	-6.267162e-05
1.906075e+01	-6.339768e-05
1.917085e+01	-6.413216e-05
1.928158e+01	-6.487514e-05
1.939295e+01	-6.562673e-05
1.950496e+01	-6.638703e-05
1.961762e+01	-6.715614e-05
1.973093e+01	-6.793415e-05
1.984490e+01	-6.872118e-05
1.995952e+01	-6.951733e-05
2.007480e+01	-7.032270e-05
2.019076e+01	-7.113740e-05
2.030738e+01	-7.196154e-05
2.042467e+01	-7.279523e-05
2.054264e+01	-7.363858e-05
2.066130e+01	-7.449169e-05
2.078064e+01	-7.535469e-05
2.090066e+01	-7.622769e-05
2.102139e+01	-7.711080e-05
2.114280e+01	-7.800414e-05
2.126492e+01	-7.890784e-05
2.138775e+01	-7.982200e-05
2.151128e+01	-8.074675e-05
2.163553e+01	-8.168221e-05
2.176050e+01	-8.262852e-05
2.188619e+01	-8.358578e-05
2.201260e+01	-8.455414e-05
2.213974e+01	-8.553371e-05
2.226762e+01	-8.652463e-05
2.239624e+01	-8.752703e-05
2.252560e+01	-8.854105e-05
2.265571e+01	-8.956681e-05
2.278656e+01	-9.060446e-05
2.291818e+01	-9.165412e-05
2.305055e+01	-9.271595e-05
2.318369e+01	-9.379008e-05
2.331760e+01	-9.487665e-05
2.345228e+01	-9.597581e-05
2.358774e+01	-9.708771e-05
2.372398e+01	-9.821248e-05
2.386101e+01	-9.935029e-05
2.399883e+01	-1.005013e-04
2.413745e+01	-1.016656e-04
2.427686e+01	-1.028434e-04
2.441709e+01	-1.040349e-04
2.455812e+01	-1.052401e-04
2.469997e+01	-1.064593e-04
2.484263e+01	-1.076927e-04
2.498612e+01	-1.089403e-04
2.513044e+01	-1.102024e-04
2.527559e+01	-1.114791e-04
2.542158e+01	-1.127706e-04
2.556842e+01	-1.140771e-04
2.571610e+01	-1.153987e-04
2.586463e+01	-1.167356e-04
2.601403e+01	-1.180880e-04
2.616428e+01	-1.194560e-04
2.631541e+01	-1.208400e-04
2.646740e+01	-1.222399e-04
2.662028e+01	-1.236561e-04
2.677404e+01	-1.250886e-04
2.692868e+01	-1.265378e-04
2.708422e+01	-1.280038e-04
2.724066e+01	-1.294867e-04
2.739800e+01	-1.309868e-04
2.755625e+01	-1.325043e-04
2.771541e+01	-1.340394e-04
2.787550e+01	-1.355922e-04
2.803650e+01	-1.371631e-04
2.819844e+01	-1.387521e-04
2.836131e+01	-1.403596e-04
2.852513e+01	-1.419857e-04
2.868989e+01	-1.436306e-04
2.885560e+01	-1.452946e-04
2.902227e+01	-1.469778e-04
2.918990e+01	-1.486806e-04
2.935850e+01	-1.504030e-04
2.952807e+01	-1.521455e-04
2.969863e+01	-1.539081e-04
2.987016e+01	-1.556911e-04
3.004269e+01	-1.574948e-04
3.021622e+01	-1.593194e-04
3.039075e+01	-1.611651e-04
3.056628e+01	-1.630322e-04
3.074283e+01	-1.649210e-04
3.092040e+01	-1.668316e-04
3.109900e+01	-1.687643e-04
3.127862e+01	-1.707195e-04
3.145929e+01	-1.726973e-04
3.164099e+01	-1.746980e-04
3.182375e+01	-1.767219e-04
3.200756e+01	-1.787692e-04
3.219244e+01	-1.808402e-04
3.237838e+01	-1.829353e-04
3.256540e+01	-1.850546e-04
3.275349e+01	-1.871985e-04
3.294268e+01	-1.893672e-04
3.313295e+01	-1.915610e-04
3.332433e+01	-1.937802e-04
3.351681e+01	-1.960252e-04
3.371040e+01	-1.982961e-04
3.390511e+01	-2.005934e-04
3.410094e+01	-2.029173e-04
3.429791e+01	-2.052681e-04
3.449601e+01	-2.076461e-04
3.469526e+01	-2.100517e-04
3.489566e+01	-2.124851e-04
3.509721e+01	-2.149468e-04
3.529993e+01	-2.174369e-04
3.550382e+01	-2.199559e-04
3.570889e+01	-2.225041e-04
3.591515e+01	-2.250818e-04
3.612259e+01	-2.276894e-04
3.633123e+01	-2.303271e-04
3.654108e+01	-2.329955e-04
3.675214e+01	-2.356947e-04
3.696442e+01	-2.384252e-04
3.717792e+01	-2.411874e-04
3.739266e+01	-2.439815e-04
3.760864e+01	-2.468080e-04
3.782587e+01	-2.496673e-04
3.804435e+01	-2.525597e-04
3.826409e+01	-2.554856e-04
3.848510e+01	-2.584454e-04
3.870739e+01	-2.614394e-04
3.893096e+01	-2.644682e-04
3.915583e+01	-2.675320e-04
3.938199e+01	-2.706314e-04
3.960946e+01	-2.737666e-04
3.983824e+01	-2.769382e-04
4.006834e+01	-2.801465e-04
4.029978e+01	-2.833919e-04
4.053255e+01	-2.866750e-04
4.076666e+01	-2.899961e-04
4.100213e+01	-2.933557e-04
4.123896e+01	-2.967542e-04
4.147715e+01	-3.001920e-04
4.171672e+01	-3.036697e-04
4.195767e+01	-3.071877e-04
4.220002e+01	-3.107464e-04
4.244377e+01	-3.143464e-04
4.268892e+01	-3.179880e-04
4.293549e+01	-3.216719e-04
4.318348e+01	-3.253984e-04
4.343291e+01	-3.291681e-04
4.368377e+01	-3.329814e-04
4.393609e+01	-3.368390e-04
4.418986e+01	-3.407412e-04
4.444510e+01	-3.446886e-04
4.470182e+01	-3.486818e-04
4.496001e+01	-3.527212e-04
4.521970e+01	-3.568074e-04
4.548089e+01	-3.609409e-04
4.574358e+01	-3.651223e-04
4.600779e+01	-3.693522e-04
4.627353e+01	-3.736311e-04
4.654081e+01	-3.779595e-04
4.680963e+01	-3.823381e-04
4.708000e+01	-3.867674e-04
4.735193e+01	-3.912480e-04
4.762543e+01	-3.957805e-04
4.790051e+01	-4.003655e-04
4.817719e+01	-4.050036e-04
4.845545e+01	-4.096955e-04
4.873533e+01	-4.144417e-04
4.901682e+01	-4.192429e-04
4.929994e+01	-4.240997e-04
4.958470e+01	-4.290128e-04
4.987110e+01	-4.339827e-04
5.015915e+01	-4.390103e-04
5.044887e+01	-4.440961e-04
5.074026e+01	-4.492408e-04
5.103333e+01	-4.544451e-04
5.132810e+01	-4.597097e-04
5.162457e+01	-4.650353e-04
5.192275e+01	-4.704225e-04
5.222265e+01	-4.758722e-04
5.252429e+01	-4.813850e-04
5.282767e+01	-4.869617e-04
5.313280e+01	-4.926030e-04
5.343969e+01	-4.983096e-04
5.374836e+01	-5.040823e-04
5.405880e+01	-5.099219e-04
5.437105e+01	-5.158291e-04
5.468509e+01	-5.218048e-04
5.500095e+01	-5.278497e-04
5.531863e+01	-5.339646e-04
5.563815e+01	-5.401503e-04
5.595951e+01	-5.464077e-04
5.628273e+01	-5.527376e-04
5.660782e+01	-5.591408e-04
5.693479e+01	-5.656182e-04
5.726364e+01	-5.721706e-04
5.759439e+01	-5.787989e-04
5.792705e+01	-5.855040e-04
5.826164e+01	-5.922868e-04
5.859815e+01	-5.991481e-04
5.893662e+01	-6.060889e-04
5.927703e+01	-6.131101e-04
5.961941e+01	-6.202127e-04
5.996377e+01	-6.273975e-04
6.031012e+01	-6.346655e-04
6.065847e+01	-6.420177e-04
6.100883e+01	-6.494551e-04
6.136121e+01	-6.569787e-04
6.171563e+01	-6.645894e-04
6.207210e+01	-6.722882e-04
6.243063e+01	-6.800763e-04
6.279122e+01	-6.879545e-04
6.315390e+01	-6.959240e-04
6.351868e+01	-7.039858e-04
6.388556e+01	-7.121410e-04
6.425456e+01	-7.203907e-04
6.462569e+01	-7.287359e-04
6.499897e+01	-7.371778e-04
6.537440e+01	-7.457175e-04
6.575200e+01	-7.543561e-04
6.613178e+01	-7.630947e-04
6.651375e+01	-7.719346e-04
6.689793e+01	-7.808769e-04
6.728433e+01	-7.899227e-04
6.767297e+01	-7.990734e-04
6.806384e+01	-8.083300e-04
6.845698e+01	-8.176938e-04
6.885238e+01	-8.271661e-04
6.925007e+01	-8.367482e-04
6.965005e+01	-8.464412e-04
7.005235e+01	-8.562465e-04
7.045697e+01	-8.661653e-04
7.086393e+01	-8.761991e-04
7.127323e+01	-8.863490e-04
7.168490e+01	-8.966166e-04
7.209895e+01	-9.070030e-04
7.251539e+01	-9.175098e-04
7.293424e+01	-9.281383e-04
7.335551e+01	-9.388898e-04
7.377920e+01	-9.497659e-04
7.420535e+01	-9.607680e-04
7.463396e+01	-9.718975e-04
7.506504e+01	-9.831560e-04
7.549861e+01	-9.945448e-04
7.593469e+01	-1.006066e-03
7.637328e+01	-1.017720e-03
7.681441e+01	-1.029509e-03
7.725809e+01	-1.041435e-03
7.770433e+01	-1.053498e-03
7.815315e+01	-1.065702e-03
7.860456e+01	-1.078047e-03
7.905857e+01	-1.090535e-03
7.951521e+01	-1.103167e-03
7.997449e+01	-1.115946e-03
8.043642e+01	-1.128873e-03
8.090102e+01	-1.141950e-03
8.136830e+01	-1.155178e-03
8.183828e+01	-1.168559e-03
8.231097e+01	-1.182095e-03
8.278640e+01	-1.195788e-03
8.326457e+01	-1.209640e-03
8.374550e+01	-1.223652e-03
8.422921e+01	-1.237826e-03
8.471572e+01	-1.252165e-03
8.520503e+01	-1.266669e-03
8.569717e+01	-1.281342e-03
8.619215e+01	-1.296184e-03
8.669000e+01	-1.311198e-03
8.719071e+01	-1.326387e-03
8.769432e+01	-1.341751e-03
8.820084e+01	-1.357293e-03
8.871029e+01	-1.373015e-03
8.922267e+01	-1.388919e-03
8.973802e+01	-1.405008e-03
9.025634e+01	-1.421283e-03
9.077766e+01	-1.437746e-03
9.130199e+01	-1.454400e-03
9.182935e+01	-1.471246e-03
9.235975e+01	-1.488288e-03
9.289321e+01	-1.505527e-03
9.342976e+01	-1.522966e-03
9.396941e+01	-1.540607e-03
9.451217e+01	-1.558452e-03
9.505807e+01	-1.576504e-03
9.560712e+01	-1.594765e-03
9.615934e+01	-1.613237e-03
9.671476e+01	-1.631924e-03
9.727338e+01	-1.650826e-03
9.783522e+01	-1.669948e-03
9.840032e+01	-1.689291e-03
9.896867e+01	-1.708858e-03
9.954031e+01	-1.728652e-03
1.001153e+02	-1.748674e-03
1.006935e+02	-1.768929e-03
1.012751e+02	-1.789418e-03
1.018601e+02	-1.810145e-03
1.024484e+02	-1.831112e-03
1.030402e+02	-1.852321e-03
1.036353e+02	-1.873776e-03
1.042339e+02	-1.895479e-03
1.048360e+02	-1.917434e-03
1.054415e+02	-1.939643e-03
1.060505e+02	-1.962109e-03
1.066631e+02	-1.984836e-03
1.072791e+02	-2.007825e-03
1.078988e+02	-2.031081e-03
1.085220e+02	-2.054606e-03
1.091488e+02	-2.078404e-03
1.097793e+02	-2.102477e-03
1.104133e+02	-2.126828e-03
1.110511e+02	-2.151462e-03
1.116925e+02	-2.176381e-03
1.123376e+02	-2.201589e-03
1.129865e+02	-2.227088e-03
1.136391e+02	-2.252883e-03
1.142955e+02	-2.278976e-03
1.149556e+02	-2.305372e-03
1.156196e+02	-2.332073e-03
1.162874e+02	-2.359083e-03
1.169591e+02	-2.386406e-03
1.176347e+02	-2.414046e-03
1.183141e+02	-2.442005e-03
1.189975e+02	-2.470289e-03
1.196848e+02	-2.498899e-03
1.203761e+02	-2.527841e-03
1.210714e+02	-2.557118e-03
1.217707e+02	-2.586734e-03
1.224740e+02	-2.616693e-03
1.231814e+02	-2.646999e-03
1.238929e+02	-2.677656e-03
1.246085e+02	-2.708668e-03
1.253283e+02	-2.740038e-03
1.260522e+02	-2.771772e-03
1.267802e+02	-2.803874e-03
1.275125e+02	-2.836347e-03
1.282490e+02	-2.869196e-03
1.289898e+02	-2.902425e-03
1.297348e+02	-2.936039e-03
1.304842e+02	-2.970042e-03
1.312378e+02	-3.004439e-03
1.319959e+02	-3.039234e-03
1.327583e+02	-3.074432e-03
1.335251e+02	-3.110037e-03
1.342963e+02	-3.146054e-03
1.350720e+02	-3.182489e-03
1.358522e+02	-3.219345e-03
1.366368e+02	-3.256628e-03
1.374260e+02	-3.294343e-03
1.382198e+02	-3.332494e-03
1.390182e+02	-3.371087e-03
1.398211e+02	-3.410126e-03
1.406287e+02	-3.449618e-03
1.414410e+02	-3.489566e-03
1.422579e+02	-3.529977e-03
1.430796e+02	-3.570856e-03
1.439060e+02	-3.612208e-03
1.447372e+02	-3.654039e-03
1.455732e+02	-3.696354e-03
1.464141e+02	-3.739159e-03
1.472597e+02	-3.782459e-03
1.481103e+02	-3.826260e-03
1.489658e+02	-3.870569e-03
1.498262e+02	-3.915390e-03
1.506916e+02	-3.960730e-03
1.515620e+02	-4.006595e-03
1.524374e+02	-4.052991e-03
1.533179e+02	-4.099924e-03
1.542034e+02	-4.147399e-03
1.550941e+02	-4.195425e-03
1.559899e+02	-4.244006e-03
1.568909e+02	-4.293150e-03
1.577971e+02	-4.342862e-03
1.587085e+02	-4.393150e-03
1.596252e+02	-4.444019e-03
1.605472e+02	-4.495478e-03
1.614745e+02	-4.547532e-03
1.624072e+02	-4.600188e-03
1.633453e+02	-4.653454e-03
1.642887e+02	-4.707336e-03
1.652377e+02	-4.761842e-03
1.661921e+02	-4.816978e-03
1.671520e+02	-4.872753e-03
1.681175e+02	-4.929173e-03
1.690885e+02	-4.986246e-03
1.700651e+02	-5.043979e-03
1.710474e+02	-5.102380e-03
1.720354e+02	-5.161458e-03
1.730291e+02	-5.221218e-03
1.740285e+02	-5.281671e-03
1.750337e+02	-5.342823e-03
1.760446e+02	-5.404682e-03
1.770615e+02	-5.467257e-03
1.780842e+02	-5.530556e-03
1.791128e+02	-5.594588e-03
1.801473e+02	-5.659360e-03
1.811878e+02	-5.724882e-03
1.822344e+02	-5.791162e-03
1.832870e+02	-5.858208e-03
1.843456e+02	-5.926031e-03
1.854104e+02	-5.994638e-03
1.864813e+02	-6.064039e-03
1.875584e+02	-6.134242e-03
1.886418e+02	-6.205258e-03
1.897313e+02	-6.277096e-03
1.908272e+02	-6.349764e-03
1.919294e+02	-6.423273e-03
1.930380e+02	-6.497633e-03
1.941530e+02	-6.572852e-03
1.952744e+02	-6.648942e-03
1.964023e+02	-6.725912e-03
1.975367e+02	-6.803772e-03
1.986777e+02	-6.882533e-03
1.998252e+02	-6.962205e-03
2.009794e+02	-7.042798e-03
2.021403e+02	-7.124324e-03
2.033078e+02	-7.206792e-03
2.044821e+02	-7.290214e-03
2.056632e+02	-7.374601e-03
2.068511e+02	-7.459964e-03
2.080459e+02	-7.546315e-03
2.092475e+02	-7.633663e-03
2.104561e+02	-7.722023e-03
2.116717e+02	-7.811403e-03
2.128943e+02	-7.901818e-03
2.141240e+02	-7.993278e-03
2.153608e+02	-8.085796e-03
2.166047e+02	-8.179383e-03
2.178558e+02	-8.274053e-03
2.191141e+02	-8.369817e-03
2.203797e+02	-8.466689e-03
2.216526e+02	-8.564681e-03
2.229329e+02	-8.663805e-03
2.242205e+02	-8.764076e-03
2.255156e+02	-8.865506e-03
2.268182e+02	-8.968109e-03
2.281283e+02	-9.071898e-03
2.294459e+02	-9.176887e-03
2.307712e+02	-9.283089e-03
2.321041e+02	-9.390520e-03
2.334447e+02	-9.499192e-03
2.347931e+02	-9.609120e-03
2.361493e+02	-9.720319e-03
2.375133e+02	-9.832804e-03
2.388851e+02	-9.946588e-03
2.402649e+02	-1.006169e-02
2.416527e+02	-1.017812e-02
2.430484e+02	-1.029589e-02
2.444523e+02	-1.041503e-02
2.458642e+02	-1.053555e-02
2.472843e+02	-1.065745e-02
2.487126e+02	-1.078077e-02
2.501492e+02	-1.090551e-02
2.515940e+02	-1.103169e-02
2.530472e+02	-1.115933e-02
2.545088e+02	-1.128844e-02
2.559789e+02	-1.141905e-02
2.574574e+02	-1.155117e-02
2.589444e+02	-1.168481e-02
2.604401e+02	-1.182000e-02
2.619444e+02	-1.195675e-02
2.634574e+02	-1.209507e-02
2.649791e+02	-1.223500e-02
2.665096e+02	-1.237654e-02
2.680489e+02	-1.251972e-02
2.695972e+02	-1.266455e-02
2.711544e+02	-1.281106e-02
2.727205e+02	-1.295926e-02
2.742958e+02	-1.310916e-02
2.758801e+02	-1.326080e-02
2.774736e+02	-1.341420e-02
2.790762e+02	-1.356936e-02
2.806882e+02	-1.372631e-02
2.823094e+02	-1.388508e-02
2.839400e+02	-1.404568e-02
2.855800e+02	-1.420814e-02
2.872295e+02	-1.437247e-02
2.888886e+02	-1.453870e-02
2.905572e+02	-1.470685e-02
2.922354e+02	-1.487694e-02
2.939234e+02	-1.504899e-02
2.956211e+02	-1.522303e-02
2.973286e+02	-1.539908e-02
2.990459e+02	-1.557716e-02
3.007732e+02	-1.575730e-02
3.025104e+02	-1.593951e-02
3.042577e+02	-1.612383e-02
3.060151e+02	-1.631028e-02
3.077826e+02	-1.649888e-02
3.095604e+02	-1.668965e-02
3.113484e+02	-1.688263e-02
3.131467e+02	-1.707783e-02
3.149554e+02	-1.727529e-02
3.167746e+02	-1.747502e-02
3.186043e+02	-1.767706e-02
3.204445e+02	-1.788143e-02
3.222954e+02	-1.808816e-02
3.241570e+02	-1.829727e-02
3.260293e+02	-1.850880e-02
3.279124e+02	-1.872276e-02
3.298064e+02	-1.893920e-02
3.317114e+02	-1.915813e-02
3.336273e+02	-1.937958e-02
3.355544e+02	-1.960359e-02
3.374925e+02	-1.983018e-02
3.394418e+02	-2.005939e-02
3.414024e+02	-2.029124e-02
3.433744e+02	-2.052576e-02
3.453577e+02	-2.076298e-02
3.473525e+02	-2.100294e-02
3.493588e+02	-2.124567e-02
3.513766e+02	-2.149120e-02
3.534062e+02	-2.173955e-02
3.554474e+02	-2.199077e-02
3.575005e+02	-2.224488e-02
3.595654e+02	-2.250193e-02
3.616422e+02	-2.276193e-02
3.637311e+02	-2.302493e-02
3.658320e+02	-2.329096e-02
3.679450e+02	-2.356006e-02
3.700702e+02	-2.383226e-02
3.722077e+02	-2.410759e-02
3.743576e+02	-2.438610e-02
3.765199e+02	-2.466781e-02
3.786946e+02	-2.495277e-02
3.808820e+02	-2.524101e-02
3.830819e+02	-2.553257e-02
3.852946e+02	-2.582749e-02
3.875200e+02	-2.612581e-02
3.897583e+02	-2.642756e-02
3.920096e+02	-2.673278e-02
3.942738e+02	-2.704152e-02
3.965511e+02	-2.735381e-02
3.988416e+02	-2.766970e-02
4.011452e+02	-2.798923e-02
4.034622e+02	-2.831243e-02
4.057926e+02	-2.863935e-02
4.081365e+02	-2.897003e-02
4.104938e+02	-2.930452e-02
4.128648e+02	-2.964286e-02
4.152495e+02	-2.998509e-02
4.176480e+02	-3.033126e-02
4.200603e+02	-3.068141e-02
4.224866e+02	-3.103559e-02
4.249268e+02	-3.139384e-02
4.273812e+02	-3.175621e-02
4.298497e+02	-3.212275e-02
4.323325e+02	-3.249350e-02
4.348297e+02	-3.286852e-02
4.373412e+02	-3.324785e-02
4.398673e+02	-3.363154e-02
4.424079e+02	-3.401964e-02
4.449633e+02	-3.441220e-02
4.475334e+02	-3.480927e-02
4.501183e+02	-3.521090e-02
4.527182e+02	-3.561715e-02
4.553330e+02	-3.602807e-02
4.579630e+02	-3.644371e-02
4.606082e+02	-3.686412e-02
4.632687e+02	-3.728936e-02
4.659445e+02	-3.771949e-02
4.686358e+02	-3.815455e-02
4.713426e+02	-3.859461e-02
4.740650e+02	-3.903973e-02
4.768032e+02	-3.948995e-02
4.795572e+02	-3.994534e-02
4.823271e+02	-4.040596e-02
4.851130e+02	-4.087187e-02
4.879150e+02	-4.134312e-02
4.907332e+02	-4.181978e-02
4.935676e+02	-4.230190e-02
4.964185e+02	-4.278956e-02
4.992858e+02	-4.328281e-02
5.021696e+02	-4.378172e-02
5.050701e+02	-4.428635e-02
5.079874e+02	-4.479677e-02
5.109215e+02	-4.531304e-02
5.138726e+02	-4.583522e-02
5.168407e+02	-4.636340e-02
5.198259e+02	-4.689762e-02
5.228284e+02	-4.743797e-02
5.258482e+02	-4.798451e-02
5.288855e+02	-4.853731e-02
5.319403e+02	-4.909644e-02
5.350128e+02	-4.966197e-02
5.381030e+02	-5.023399e-02
5.412111e+02	-5.081255e-02
5.443371e+02	-5.139774e-02
5.474812e+02	-5.198962e-02
5.506434e+02	-5.258828e-02
5.538239e+02	-5.319379e-02
5.570228e+02	-5.380623e-02
5.602401e+02	-5.442568e-02
5.634760e+02	-5.505221e-02
5.667306e+02	-5.568591e-02
5.700040e+02	-5.632685e-02
5.732964e+02	-5.697513e-02
5.766077e+02	-5.763081e-02
5.799382e+02	-5.829399e-02
5.832879e+02	-5.896475e-02
5.866569e+02	-5.964318e-02
5.900454e+02	-6.032936e-02
5.934535e+02	-6.102337e-02
5.968813e+02	-6.172531e-02
6.003288e+02	-6.243527e-02
6.037963e+02	-6.315333e-02
6.072838e+02	-6.387959e-02
6.107914e+02	-6.461415e-02
6.143194e+02	-6.535708e-02
6.178676e+02	-6.610849e-02
6.214364e+02	-6.686847e-02
6.250258e+02	-6.763712e-02
6.286359e+02	-6.841454e-02
6.322669e+02	-6.920082e-02
6.359189e+02	-6.999607e-02
6.395919e+02	-7.080038e-02
6.432862e+02	-7.161385e-02
6.470017e+02	-7.243659e-02
6.507388e+02	-7.326871e-02
6.544974e+02	-7.411030e-02
6.582778e+02	-7.496148e-02
6.620800e+02	-7.582234e-02
6.659041e+02	-7.669301e-02
6.697504e+02	-7.757358e-02
6.736188e+02	-7.846417e-02
6.775096e+02	-7.936489e-02
6.814229e+02	-8.027586e-02
6.853587e+02	-8.119718e-02
6.893173e+02	-8.212898e-02
6.932988e+02	-8.307137e-02
6.973033e+02	-8.402447e-02
7.013309e+02	-8.498839e-02
