Frequency(Hz)	Magnitude(dB)
1.000000e+01	-1.985861e+00
1.005776e+01	-2.004234e+00
1.011585e+01	-2.022735e+00
1.017428e+01	-2.041492e+00
1.023305e+01	-2.060504e+00
1.029215e+01	-2.079216e+00
1.035160e+01	-2.098516e+00
1.041139e+01	-2.117714e+00
1.047153e+01	-2.137132e+00
1.053201e+01	-2.156590e+00
1.059284e+01	-2.176351e+00
1.065403e+01	-2.196003e+00
1.071556e+01	-2.215887e+00
1.077746e+01	-2.235925e+00
1.083971e+01	-2.256181e+00
1.090232e+01	-2.276516e+00
1.096529e+01	-2.296861e+00
1.102862e+01	-2.317580e+00
1.109232e+01	-2.338544e+00
1.115639e+01	-2.359225e+00
1.122083e+01	-2.380291e+00
1.128564e+01	-2.401545e+00
1.135083e+01	-2.422717e+00
1.141639e+01	-2.444236e+00
1.148233e+01	-2.465784e+00
1.154865e+01	-2.487629e+00
1.161536e+01	-2.509447e+00
1.168245e+01	-2.531384e+00
1.174992e+01	-2.553932e+00
1.181779e+01	-2.576197e+00
1.188605e+01	-2.598518e+00
1.195470e+01	-2.620957e+00
1.202375e+01	-2.643613e+00
1.209320e+01	-2.666775e+00
1.216305e+01	-2.689560e+00
1.223330e+01	-2.712810e+00
1.230396e+01	-2.736210e+00
1.237503e+01	-2.759740e+00
1.244651e+01	-2.783212e+00
1.251840e+01	-2.806846e+00
1.259070e+01	-2.830601e+00
1.266343e+01	-2.854756e+00
1.273657e+01	-2.879067e+00
1.281014e+01	-2.903361e+00
1.288413e+01	-2.927747e+00
1.295855e+01	-2.952363e+00
1.303339e+01	-2.977177e+00
1.310867e+01	-3.002096e+00
1.318439e+01	-3.027237e+00
1.326054e+01	-3.052273e+00
1.333713e+01	-3.077813e+00
1.341417e+01	-3.103173e+00
1.349165e+01	-3.128596e+00
1.356958e+01	-3.154408e+00
1.364795e+01	-3.180169e+00
1.372678e+01	-3.206358e+00
1.380607e+01	-3.232766e+00
1.388581e+01	-3.258760e+00
1.396602e+01	-3.285284e+00
1.404668e+01	-3.312111e+00
1.412782e+01	-3.338593e+00
1.420942e+01	-3.365593e+00
1.429149e+01	-3.392679e+00
1.437404e+01	-3.419950e+00
1.445706e+01	-3.447104e+00
1.454057e+01	-3.474857e+00
1.462455e+01	-3.502452e+00
1.470902e+01	-3.530094e+00
1.479398e+01	-3.558134e+00
1.487943e+01	-3.586214e+00
1.496537e+01	-3.614527e+00
1.505181e+01	-3.642521e+00
1.513875e+01	-3.670901e+00
1.522619e+01	-3.699720e+00
1.531414e+01	-3.728363e+00
1.540259e+01	-3.757355e+00
1.549156e+01	-3.786131e+00
1.558103e+01	-3.815478e+00
1.567103e+01	-3.844875e+00
1.576155e+01	-3.874078e+00
1.585258e+01	-3.903782e+00
1.594415e+01	-3.933745e+00
1.603624e+01	-3.963381e+00
1.612886e+01	-3.993553e+00
1.622202e+01	-4.023597e+00
1.631572e+01	-4.054095e+00
1.640996e+01	-4.084406e+00
1.650474e+01	-4.114997e+00
1.660008e+01	-4.145759e+00
1.669596e+01	-4.176648e+00
1.679239e+01	-4.207433e+00
1.688938e+01	-4.238420e+00
1.698694e+01	-4.269794e+00
1.708505e+01	-4.301006e+00
1.718373e+01	-4.332502e+00
1.728299e+01	-4.364158e+00
1.738281e+01	-4.396239e+00
1.748322e+01	-4.428094e+00
1.758420e+01	-4.460001e+00
1.768576e+01	-4.492242e+00
1.778792e+01	-4.524508e+00
1.789066e+01	-4.556994e+00
1.799399e+01	-4.589582e+00
1.809793e+01	-4.622049e+00
1.820246e+01	-4.655256e+00
1.830760e+01	-4.688245e+00
1.841334e+01	-4.720945e+00
1.851969e+01	-4.754670e+00
1.862666e+01	-4.787921e+00
1.873425e+01	-4.821274e+00
1.884246e+01	-4.854871e+00
1.895129e+01	-4.888514e+00
1.906075e+01	-4.922548e+00
1.917085e+01	-4.956389e+00
1.928158e+01	-4.990165e+00
1.939295e+01	-5.024734e+00
1.950496e+01	-5.059112e+00
1.961762e+01	-5.093659e+00
1.973093e+01	-5.127937e+00
1.984490e+01	-5.162952e+00
1.995952e+01	-5.197589e+00
2.007480e+01	-5.232815e+00
2.019076e+01	-5.267885e+00
2.030738e+01	-5.303137e+00
2.042467e+01	-5.338470e+00
2.054264e+01	-5.373778e+00
2.066130e+01	-5.409688e+00
2.078064e+01	-5.444897e+00
2.090066e+01	-5.480971e+00
2.102139e+01	-5.516897e+00
2.114280e+01	-5.552948e+00
2.126492e+01	-5.589114e+00
2.138775e+01	-5.625176e+00
2.151128e+01	-5.661758e+00
2.163553e+01	-5.698320e+00
2.176050e+01	-5.734799e+00
2.188619e+01	-5.771663e+00
2.201260e+01	-5.808713e+00
2.213974e+01	-5.845496e+00
2.226762e+01	-5.882159e+00
2.239624e+01	-5.919509e+00
2.252560e+01	-5.956980e+00
2.265571e+01	-5.993782e+00
2.278656e+01	-6.032167e+00
2.291818e+01	-6.069314e+00
2.305055e+01	-6.106815e+00
2.318369e+01	-6.144651e+00
2.331760e+01	-6.182824e+00
2.345228e+01	-6.220982e+00
2.358774e+01	-6.259038e+00
2.372398e+01	-6.297341e+00
2.386101e+01	-6.335460e+00
2.399883e+01	-6.373994e+00
2.413745e+01	-6.412315e+00
2.427686e+01	-6.451243e+00
2.441709e+01	-6.490064e+00
2.455812e+01	-6.528916e+00
2.469997e+01	-6.567588e+00
2.484263e+01	-6.606601e+00
2.498612e+01	-6.645552e+00
2.513044e+01	-6.685043e+00
2.527559e+01	-6.724369e+00
2.542158e+01	-6.764140e+00
2.556842e+01	-6.804025e+00
2.571610e+01	-6.842931e+00
2.586463e+01	-6.882880e+00
2.601403e+01	-6.922369e+00
2.616428e+01	-6.962709e+00
2.631541e+01	-7.002566e+00
2.646740e+01	-7.043064e+00
2.662028e+01	-7.082836e+00
2.677404e+01	-7.122888e+00
2.692868e+01	-7.163379e+00
2.708422e+01	-7.203580e+00
2.724066e+01	-7.244358e+00
2.739800e+01	-7.284685e+00
2.755625e+01	-7.325763e+00
2.771541e+01	-7.366575e+00
2.787550e+01	-7.407732e+00
2.803650e+01	-7.448060e+00
2.819844e+01	-7.489615e+00
2.836131e+01	-7.530674e+00
2.852513e+01	-7.571794e+00
2.868989e+01	-7.613521e+00
2.885560e+01	-7.654832e+00
2.902227e+01	-7.696322e+00
2.918990e+01	-7.737569e+00
2.935850e+01	-7.779324e+00
2.952807e+01	-7.820926e+00
2.969863e+01	-7.862838e+00
2.987016e+01	-7.904959e+00
3.004269e+01	-7.947180e+00
3.021622e+01	-7.989054e+00
3.039075e+01	-8.030806e+00
3.056628e+01	-8.072949e+00
3.074283e+01	-8.115472e+00
3.092040e+01	-8.157593e+00
3.109900e+01	-8.200318e+00
3.127862e+01	-8.242522e+00
3.145929e+01	-8.285060e+00
3.164099e+01	-8.327979e+00
3.182375e+01	-8.370918e+00
3.200756e+01	-8.413467e+00
3.219244e+01	-8.455820e+00
3.237838e+01	-8.499251e+00
3.256540e+01	-8.542010e+00
3.275349e+01	-8.585296e+00
3.294268e+01	-8.627966e+00
3.313295e+01	-8.671504e+00
3.332433e+01	-8.714766e+00
3.351681e+01	-8.758117e+00
3.371040e+01	-8.801574e+00
3.390511e+01	-8.844559e+00
3.410094e+01	-8.888114e+00
3.429791e+01	-8.932293e+00
3.449601e+01	-8.975831e+00
3.469526e+01	-9.019771e+00
3.489566e+01	-9.063339e+00
3.509721e+01	-9.107386e+00
3.529993e+01	-9.151213e+00
3.550382e+01	-9.195150e+00
3.570889e+01	-9.239089e+00
3.591515e+01	-9.282864e+00
3.612259e+01	-9.326840e+00
3.633123e+01	-9.371706e+00
3.654108e+01	-9.415630e+00
3.675214e+01	-9.460454e+00
3.696442e+01	-9.504116e+00
3.717792e+01	-9.548886e+00
3.739266e+01	-9.593029e+00
3.760864e+01	-9.637919e+00
3.782587e+01	-9.682626e+00
3.804435e+01	-9.727403e+00
3.826409e+01	-9.771718e+00
3.848510e+01	-9.816648e+00
3.870739e+01	-9.861149e+00
3.893096e+01	-9.906259e+00
3.915583e+01	-9.950948e+00
3.938199e+01	-9.996581e+00
3.960946e+01	-1.004153e+01
3.983824e+01	-1.008697e+01
4.006834e+01	-1.013184e+01
4.029978e+01	-1.017715e+01
4.053255e+01	-1.022159e+01
4.076666e+01	-1.026771e+01
4.100213e+01	-1.031252e+01
4.123896e+01	-1.035841e+01
4.147715e+01	-1.040311e+01
4.171672e+01	-1.044892e+01
4.195767e+01	-1.049489e+01
4.220002e+01	-1.054011e+01
4.244377e+01	-1.058609e+01
4.268892e+01	-1.063176e+01
4.293549e+01	-1.067715e+01
4.318348e+01	-1.072290e+01
4.343291e+01	-1.076906e+01
4.368377e+01	-1.081501e+01
4.393609e+01	-1.086026e+01
4.418986e+01	-1.090720e+01
4.444510e+01	-1.095190e+01
4.470182e+01	-1.099844e+01
4.496001e+01	-1.104562e+01
4.521970e+01	-1.109108e+01
4.548089e+01	-1.113676e+01
4.574358e+01	-1.118307e+01
4.600779e+01	-1.122969e+01
4.627353e+01	-1.127546e+01
4.654081e+01	-1.132202e+01
4.680963e+01	-1.136823e+01
4.708000e+01	-1.141478e+01
4.735193e+01	-1.146109e+01
4.762543e+01	-1.150731e+01
4.790051e+01	-1.155386e+01
4.817719e+01	-1.160032e+01
4.845545e+01	-1.164727e+01
4.873533e+01	-1.169426e+01
4.901682e+01	-1.174052e+01
4.929994e+01	-1.178693e+01
4.958470e+01	-1.183427e+01
4.987110e+01	-1.188068e+01
5.015915e+01	-1.192777e+01
5.044887e+01	-1.197452e+01
5.074026e+01	-1.202123e+01
5.103333e+01	-1.206808e+01
5.132810e+01	-1.211487e+01
5.162457e+01	-1.216245e+01
5.192275e+01	-1.220913e+01
5.222265e+01	-1.225661e+01
5.252429e+01	-1.230278e+01
5.282767e+01	-1.235040e+01
5.313280e+01	-1.239811e+01
5.343969e+01	-1.244402e+01
5.374836e+01	-1.249184e+01
5.405880e+01	-1.253878e+01
5.437105e+01	-1.258620e+01
5.468509e+01	-1.263310e+01
5.500095e+01	-1.268024e+01
5.531863e+01	-1.272784e+01
5.563815e+01	-1.277558e+01
5.595951e+01	-1.282355e+01
5.628273e+01	-1.287061e+01
5.660782e+01	-1.291796e+01
5.693479e+01	-1.296617e+01
5.726364e+01	-1.301224e+01
5.759439e+01	-1.305989e+01
5.792705e+01	-1.310763e+01
5.826164e+01	-1.315575e+01
5.859815e+01	-1.320328e+01
5.893662e+01	-1.325069e+01
5.927703e+01	-1.329838e+01
5.961941e+01	-1.334597e+01
5.996377e+01	-1.339374e+01
6.031012e+01	-1.344230e+01
6.065847e+01	-1.348963e+01
6.100883e+01	-1.353729e+01
6.136121e+01	-1.358476e+01
6.171563e+01	-1.363241e+01
6.207210e+01	-1.368056e+01
6.243063e+01	-1.372801e+01
6.279122e+01	-1.377594e+01
6.315390e+01	-1.382454e+01
6.351868e+01	-1.387215e+01
6.388556e+01	-1.392056e+01
6.425456e+01	-1.396882e+01
6.462569e+01	-1.401696e+01
6.499897e+01	-1.406519e+01
6.537440e+01	-1.411250e+01
6.575200e+01	-1.416136e+01
6.613178e+01	-1.420839e+01
6.651375e+01	-1.425717e+01
6.689793e+01	-1.430542e+01
6.728433e+01	-1.435361e+01
6.767297e+01	-1.440179e+01
6.806384e+01	-1.445047e+01
6.845698e+01	-1.449768e+01
6.885238e+01	-1.454576e+01
6.925007e+01	-1.459403e+01
6.965005e+01	-1.464330e+01
7.005235e+01	-1.469173e+01
7.045697e+01	-1.473942e+01
7.086393e+01	-1.478634e+01
7.127323e+01	-1.483645e+01
7.168490e+01	-1.488370e+01
7.209895e+01	-1.493268e+01
7.251539e+01	-1.498088e+01
7.293424e+01	-1.502986e+01
7.335551e+01	-1.507862e+01
7.377920e+01	-1.512769e+01
7.420535e+01	-1.517377e+01
7.463396e+01	-1.522251e+01
7.506504e+01	-1.527245e+01
7.549861e+01	-1.532137e+01
7.593469e+01	-1.537005e+01
7.637328e+01	-1.541821e+01
7.681441e+01	-1.546677e+01
7.725809e+01	-1.551500e+01
7.770433e+01	-1.556374e+01
7.815315e+01	-1.561269e+01
7.860456e+01	-1.566169e+01
7.905857e+01	-1.570958e+01
7.951521e+01	-1.575930e+01
7.997449e+01	-1.580612e+01
8.043642e+01	-1.585489e+01
8.090102e+01	-1.590540e+01
8.136830e+01	-1.595340e+01
8.183828e+01	-1.600286e+01
8.231097e+01	-1.605076e+01
8.278640e+01	-1.610014e+01
8.326457e+01	-1.614830e+01
8.374550e+01	-1.619693e+01
8.422921e+01	-1.624761e+01
8.471572e+01	-1.629604e+01
8.520503e+01	-1.634497e+01
8.569717e+01	-1.639267e+01
8.619215e+01	-1.644171e+01
8.669000e+01	-1.649079e+01
8.719071e+01	-1.653981e+01
8.769432e+01	-1.658887e+01
8.820084e+01	-1.663641e+01
8.871029e+01	-1.668619e+01
8.922267e+01	-1.673479e+01
8.973802e+01	-1.678428e+01
9.025634e+01	-1.683373e+01
9.077766e+01	-1.688243e+01
9.130199e+01	-1.693131e+01
9.182935e+01	-1.698142e+01
9.235975e+01	-1.702932e+01
9.289321e+01	-1.707814e+01
9.342976e+01	-1.712755e+01
9.396941e+01	-1.717628e+01
9.451217e+01	-1.722565e+01
9.505807e+01	-1.727501e+01
9.560712e+01	-1.732396e+01
9.615934e+01	-1.737401e+01
9.671476e+01	-1.742139e+01
9.727338e+01	-1.747146e+01
9.783522e+01	-1.752087e+01
9.840032e+01	-1.756883e+01
9.896867e+01	-1.761822e+01
9.954031e+01	-1.766890e+01
1.001153e+02	-1.771790e+01
1.006935e+02	-1.776495e+01
1.012751e+02	-1.781376e+01
1.018601e+02	-1.786472e+01
1.024484e+02	-1.791295e+01
1.030402e+02	-1.796286e+01
1.036353e+02	-1.801265e+01
1.042339e+02	-1.806275e+01
1.048360e+02	-1.811036e+01
1.054415e+02	-1.815942e+01
1.060505e+02	-1.820903e+01
1.066631e+02	-1.825988e+01
1.072791e+02	-1.830954e+01
1.078988e+02	-1.835707e+01
1.085220e+02	-1.840655e+01
1.091488e+02	-1.845517e+01
1.097793e+02	-1.850471e+01
1.104133e+02	-1.855373e+01
1.110511e+02	-1.860384e+01
1.116925e+02	-1.865420e+01
1.123376e+02	-1.870284e+01
1.129865e+02	-1.875129e+01
1.136391e+02	-1.880212e+01
1.142955e+02	-1.885127e+01
1.149556e+02	-1.889973e+01
1.156196e+02	-1.894894e+01
1.162874e+02	-1.899946e+01
1.169591e+02	-1.904784e+01
1.176347e+02	-1.909916e+01
1.183141e+02	-1.914680e+01
1.189975e+02	-1.919809e+01
1.196848e+02	-1.924569e+01
1.203761e+02	-1.929652e+01
1.210714e+02	-1.934438e+01
1.217707e+02	-1.939496e+01
1.224740e+02	-1.944333e+01
1.231814e+02	-1.949200e+01
1.238929e+02	-1.954275e+01
1.246085e+02	-1.959170e+01
1.253283e+02	-1.964296e+01
1.260522e+02	-1.969255e+01
1.267802e+02	-1.974131e+01
1.275125e+02	-1.978988e+01
1.282490e+02	-1.984046e+01
1.289898e+02	-1.988881e+01
1.297348e+02	-1.993923e+01
1.304842e+02	-1.998812e+01
1.312378e+02	-2.003865e+01
1.319959e+02	-2.008743e+01
1.327583e+02	-2.013515e+01
1.335251e+02	-2.018654e+01
1.342963e+02	-2.023686e+01
1.350720e+02	-2.028586e+01
1.358522e+02	-2.033599e+01
1.366368e+02	-2.038456e+01
1.374260e+02	-2.043435e+01
1.382198e+02	-2.048431e+01
1.390182e+02	-2.053403e+01
1.398211e+02	-2.058382e+01
1.406287e+02	-2.063422e+01
1.414410e+02	-2.068347e+01
1.422579e+02	-2.073046e+01
1.430796e+02	-2.078207e+01
1.439060e+02	-2.083280e+01
1.447372e+02	-2.088149e+01
1.455732e+02	-2.092854e+01
1.464141e+02	-2.098114e+01
1.472597e+02	-2.103047e+01
1.481103e+02	-2.107948e+01
1.489658e+02	-2.112905e+01
1.498262e+02	-2.117717e+01
1.506916e+02	-2.122920e+01
1.515620e+02	-2.127760e+01
1.524374e+02	-2.132777e+01
1.533179e+02	-2.137806e+01
1.542034e+02	-2.142772e+01
1.550941e+02	-2.147750e+01
1.559899e+02	-2.152618e+01
1.568909e+02	-2.157560e+01
1.577971e+02	-2.162585e+01
1.587085e+02	-2.167737e+01
1.596252e+02	-2.172633e+01
1.605472e+02	-2.177687e+01
1.614745e+02	-2.182497e+01
1.624072e+02	-2.187564e+01
1.633453e+02	-2.192539e+01
1.642887e+02	-2.197489e+01
1.652377e+02	-2.202455e+01
1.661921e+02	-2.207174e+01
1.671520e+02	-2.212486e+01
1.681175e+02	-2.217283e+01
1.690885e+02	-2.222035e+01
1.700651e+02	-2.227350e+01
1.710474e+02	-2.231955e+01
1.720354e+02	-2.237236e+01
1.730291e+02	-2.242056e+01
1.740285e+02	-2.247037e+01
1.750337e+02	-2.252075e+01
1.760446e+02	-2.257128e+01
1.770615e+02	-2.261924e+01
1.780842e+02	-2.266983e+01
1.791128e+02	-2.271855e+01
1.801473e+02	-2.277019e+01
1.811878e+02	-2.281900e+01
1.822344e+02	-2.286833e+01
1.832870e+02	-2.291822e+01
1.843456e+02	-2.296980e+01
1.854104e+02	-2.301999e+01
1.864813e+02	-2.306959e+01
1.875584e+02	-2.311833e+01
1.886418e+02	-2.316739e+01
1.897313e+02	-2.321893e+01
1.908272e+02	-2.327024e+01
1.919294e+02	-2.331861e+01
1.930380e+02	-2.336837e+01
1.941530e+02	-2.341464e+01
1.952744e+02	-2.346888e+01
1.964023e+02	-2.351674e+01
1.975367e+02	-2.356681e+01
1.986777e+02	-2.361562e+01
1.998252e+02	-2.366916e+01
2.009794e+02	-2.371518e+01
2.021403e+02	-2.376727e+01
2.033078e+02	-2.381428e+01
2.044821e+02	-2.386581e+01
2.056632e+02	-2.391552e+01
2.068511e+02	-2.396559e+01
2.080459e+02	-2.401730e+01
2.092475e+02	-2.406495e+01
2.104561e+02	-2.411619e+01
2.116717e+02	-2.416480e+01
2.128943e+02	-2.421632e+01
2.141240e+02	-2.426513e+01
2.153608e+02	-2.431572e+01
2.166047e+02	-2.436418e+01
2.178558e+02	-2.441538e+01
2.191141e+02	-2.446385e+01
2.203797e+02	-2.451595e+01
2.216526e+02	-2.456247e+01
2.229329e+02	-2.461366e+01
2.242205e+02	-2.466347e+01
2.255156e+02	-2.471546e+01
2.268182e+02	-2.476315e+01
2.281283e+02	-2.481155e+01
2.294459e+02	-2.486203e+01
2.307712e+02	-2.491225e+01
2.321041e+02	-2.496445e+01
2.334447e+02	-2.501251e+01
2.347931e+02	-2.506137e+01
2.361493e+02	-2.511272e+01
2.375133e+02	-2.516275e+01
2.388851e+02	-2.521332e+01
2.402649e+02	-2.526135e+01
2.416527e+02	-2.531320e+01
2.430484e+02	-2.535876e+01
2.444523e+02	-2.541172e+01
2.458642e+02	-2.546218e+01
2.472843e+02	-2.551150e+01
2.487126e+02	-2.556026e+01
2.501492e+02	-2.561063e+01
2.515940e+02	-2.566128e+01
2.530472e+02	-2.571075e+01
2.545088e+02	-2.576145e+01
2.559789e+02	-2.581305e+01
2.574574e+02	-2.585853e+01
2.589444e+02	-2.591119e+01
2.604401e+02	-2.596155e+01
2.619444e+02	-2.601195e+01
2.634574e+02	-2.605854e+01
2.649791e+02	-2.611182e+01
2.665096e+02	-2.616181e+01
2.680489e+02	-2.621097e+01
2.695972e+02	-2.626110e+01
2.711544e+02	-2.630944e+01
2.727205e+02	-2.636300e+01
2.742958e+02	-2.641231e+01
2.758801e+02	-2.646302e+01
2.774736e+02	-2.651244e+01
2.790762e+02	-2.656179e+01
2.806882e+02	-2.661323e+01
2.823094e+02	-2.665878e+01
2.839400e+02	-2.671350e+01
2.855800e+02	-2.676142e+01
2.872295e+02	-2.680782e+01
2.888886e+02	-2.686172e+01
2.905572e+02	-2.691274e+01
2.922354e+02	-2.696075e+01
2.939234e+02	-2.701005e+01
2.956211e+02	-2.706115e+01
2.973286e+02	-2.710807e+01
2.990459e+02	-2.715871e+01
3.007732e+02	-2.720701e+01
3.025104e+02	-2.726059e+01
3.042577e+02	-2.731316e+01
3.060151e+02	-2.736053e+01
3.077826e+02	-2.741307e+01
3.095604e+02	-2.746506e+01
3.113484e+02	-2.751199e+01
3.131467e+02	-2.756155e+01
3.149554e+02	-2.761240e+01
3.167746e+02	-2.766524e+01
3.186043e+02	-2.771326e+01
3.204445e+02	-2.775992e+01
3.222954e+02	-2.781433e+01
3.241570e+02	-2.786211e+01
3.260293e+02	-2.791306e+01
3.279124e+02	-2.796024e+01
3.298064e+02	-2.801457e+01
3.317114e+02	-2.806323e+01
3.336273e+02	-2.810839e+01
3.355544e+02	-2.816171e+01
3.374925e+02	-2.820796e+01
3.394418e+02	-2.826024e+01
3.414024e+02	-2.831039e+01
3.433744e+02	-2.836245e+01
3.453577e+02	-2.840871e+01
3.473525e+02	-2.846232e+01
3.493588e+02	-2.851147e+01
3.513766e+02	-2.856359e+01
3.534062e+02	-2.861193e+01
3.554474e+02	-2.865815e+01
3.575005e+02	-2.871153e+01
3.595654e+02	-2.876189e+01
3.616422e+02	-2.881021e+01
3.637311e+02	-2.886257e+01
3.658320e+02	-2.890674e+01
3.679450e+02	-2.896435e+01
3.700702e+02	-2.901045e+01
3.722077e+02	-2.906470e+01
3.743576e+02	-2.911304e+01
3.765199e+02	-2.915652e+01
3.786946e+02	-2.920853e+01
3.808820e+02	-2.925926e+01
3.830819e+02	-2.930902e+01
3.852946e+02	-2.935889e+01
3.875200e+02	-2.941645e+01
3.897583e+02	-2.946232e+01
3.920096e+02	-2.951249e+01
3.942738e+02	-2.955992e+01
3.965511e+02	-2.961565e+01
3.988416e+02	-2.966189e+01
4.011452e+02	-2.971009e+01
4.034622e+02	-2.976410e+01
4.057926e+02	-2.981076e+01
4.081365e+02	-2.986601e+01
4.104938e+02	-2.991104e+01
4.128648e+02	-2.996471e+01
4.152495e+02	-3.001346e+01
4.176480e+02	-3.005866e+01
4.200603e+02	-3.011243e+01
4.224866e+02	-3.016522e+01
4.249268e+02	-3.021510e+01
4.273812e+02	-3.026034e+01
4.298497e+02	-3.031808e+01
4.323325e+02	-3.036355e+01
4.348297e+02	-3.041513e+01
4.373412e+02	-3.046399e+01
4.398673e+02	-3.051727e+01
4.424079e+02	-3.056821e+01
4.449633e+02	-3.061571e+01
4.475334e+02	-3.066446e+01
4.501183e+02	-3.071763e+01
4.527182e+02	-3.076461e+01
4.553330e+02	-3.081793e+01
4.579630e+02	-3.086470e+01
4.606082e+02	-3.091881e+01
4.632687e+02	-3.096741e+01
4.659445e+02	-3.101555e+01
4.686358e+02	-3.106557e+01
4.713426e+02	-3.111423e+01
4.740650e+02	-3.116990e+01
4.768032e+02	-3.121813e+01
4.795572e+02	-3.126514e+01
4.823271e+02	-3.131854e+01
4.851130e+02	-3.136704e+01
4.879150e+02	-3.141462e+01
4.907332e+02	-3.146551e+01
4.935676e+02	-3.151932e+01
4.964185e+02	-3.156666e+01
4.992858e+02	-3.161630e+01
5.021696e+02	-3.166777e+01
5.050701e+02	-3.171910e+01
5.079874e+02	-3.176629e+01
5.109215e+02	-3.182004e+01
5.138726e+02	-3.187070e+01
5.168407e+02	-3.191838e+01
5.198259e+02	-3.197220e+01
5.228284e+02	-3.202207e+01
5.258482e+02	-3.206892e+01
5.288855e+02	-3.211938e+01
5.319403e+02	-3.216461e+01
5.350128e+02	-3.221985e+01
5.381030e+02	-3.227356e+01
5.412111e+02	-3.231875e+01
5.443371e+02	-3.237272e+01
5.474812e+02	-3.241542e+01
5.506434e+02	-3.247168e+01
5.538239e+02	-3.252344e+01
5.570228e+02	-3.256909e+01
5.602401e+02	-3.261767e+01
5.634760e+02	-3.266754e+01
5.667306e+02	-3.272440e+01
5.700040e+02	-3.277285e+01
5.732964e+02	-3.282290e+01
5.766077e+02	-3.287016e+01
5.799382e+02	-3.292405e+01
5.832879e+02	-3.297547e+01
5.866569e+02	-3.303128e+01
5.900454e+02	-3.307353e+01
5.934535e+02	-3.311667e+01
5.968813e+02	-3.317310e+01
6.003288e+02	-3.322466e+01
6.037963e+02	-3.326858e+01
6.072838e+02	-3.332696e+01
6.107914e+02	-3.337996e+01
6.143194e+02	-3.342706e+01
6.178676e+02	-3.347185e+01
6.214364e+02	-3.351667e+01
6.250258e+02	-3.356482e+01
6.286359e+02	-3.362287e+01
6.322669e+02	-3.367852e+01
6.359189e+02	-3.372809e+01
6.395919e+02	-3.377750e+01
6.432862e+02	-3.382558e+01
6.470017e+02	-3.387916e+01
6.507388e+02	-3.393434e+01
6.544974e+02	-3.397759e+01
6.582778e+02	-3.403015e+01
6.620800e+02	-3.408361e+01
6.659041e+02	-3.412897e+01
6.697504e+02	-3.417821e+01
6.736188e+02	-3.422267e+01
6.775096e+02	-3.427777e+01
6.814229e+02	-3.433871e+01
6.853587e+02	-3.437512e+01
6.893173e+02	-3.442916e+01
6.932988e+02	-3.447908e+01
6.973033e+02	-3.453116e+01
7.013309e+02	-3.459029e+01
