Frequency(Hz)	Magnitude(dB)
1.000000e+01	-1.705769e-05
1.005776e+01	-1.725531e-05
1.011585e+01	-1.745521e-05
1.017428e+01	-1.765744e-05
1.023305e+01	-1.786200e-05
1.029215e+01	-1.806894e-05
1.035160e+01	-1.827827e-05
1.041139e+01	-1.849003e-05
1.047153e+01	-1.870424e-05
1.053201e+01	-1.892094e-05
1.059284e+01	-1.914014e-05
1.065403e+01	-1.936188e-05
1.071556e+01	-1.958620e-05
1.077746e+01	-1.981311e-05
1.083971e+01	-2.004265e-05
1.090232e+01	-2.027485e-05
1.096529e+01	-2.050974e-05
1.102862e+01	-2.074735e-05
1.109232e+01	-2.098771e-05
1.115639e+01	-2.123086e-05
1.122083e+01	-2.147682e-05
1.128564e+01	-2.172564e-05
1.135083e+01	-2.197733e-05
1.141639e+01	-2.223195e-05
1.148233e+01	-2.248951e-05
1.154865e+01	-2.275005e-05
1.161536e+01	-2.301362e-05
1.168245e+01	-2.328024e-05
1.174992e+01	-2.354995e-05
1.181779e+01	-2.382278e-05
1.188605e+01	-2.409877e-05
1.195470e+01	-2.437796e-05
1.202375e+01	-2.466039e-05
1.209320e+01	-2.494608e-05
1.216305e+01	-2.523509e-05
1.223330e+01	-2.552744e-05
1.230396e+01	-2.582319e-05
1.237503e+01	-2.612235e-05
1.244651e+01	-2.642499e-05
1.251840e+01	-2.673113e-05
1.259070e+01	-2.704081e-05
1.266343e+01	-2.735409e-05
1.273657e+01	-2.767099e-05
1.281014e+01	-2.799157e-05
1.288413e+01	-2.831586e-05
1.295855e+01	-2.864390e-05
1.303339e+01	-2.897575e-05
1.310867e+01	-2.931144e-05
1.318439e+01	-2.965102e-05
1.326054e+01	-2.999453e-05
1.333713e+01	-3.034203e-05
1.341417e+01	-3.069355e-05
1.349165e+01	-3.104914e-05
1.356958e+01	-3.140885e-05
1.364795e+01	-3.177273e-05
1.372678e+01	-3.214082e-05
1.380607e+01	-3.251318e-05
1.388581e+01	-3.288986e-05
1.396602e+01	-3.327089e-05
1.404668e+01	-3.365634e-05
1.412782e+01	-3.404626e-05
1.420942e+01	-3.444070e-05
1.429149e+01	-3.483970e-05
1.437404e+01	-3.524332e-05
1.445706e+01	-3.565163e-05
1.454057e+01	-3.606466e-05
1.462455e+01	-3.648248e-05
1.470902e+01	-3.690513e-05
1.479398e+01	-3.733269e-05
1.487943e+01	-3.776520e-05
1.496537e+01	-3.820272e-05
1.505181e+01	-3.864530e-05
1.513875e+01	-3.909302e-05
1.522619e+01	-3.954592e-05
1.531414e+01	-4.000407e-05
1.540259e+01	-4.046752e-05
1.549156e+01	-4.093635e-05
1.558103e+01	-4.141061e-05
1.567103e+01	-4.189036e-05
1.576155e+01	-4.237567e-05
1.585258e+01	-4.286660e-05
1.594415e+01	-4.336322e-05
1.603624e+01	-4.386559e-05
1.612886e+01	-4.437378e-05
1.622202e+01	-4.488786e-05
1.631572e+01	-4.540790e-05
1.640996e+01	-4.593396e-05
1.650474e+01	-4.646611e-05
1.660008e+01	-4.700443e-05
1.669596e+01	-4.754899e-05
1.679239e+01	-4.809985e-05
1.688938e+01	-4.865710e-05
1.698694e+01	-4.922080e-05
1.708505e+01	-4.979104e-05
1.718373e+01	-5.036788e-05
1.728299e+01	-5.095140e-05
1.738281e+01	-5.154168e-05
1.748322e+01	-5.213880e-05
1.758420e+01	-5.274284e-05
1.768576e+01	-5.335388e-05
1.778792e+01	-5.397200e-05
1.789066e+01	-5.459727e-05
1.799399e+01	-5.522979e-05
1.809793e+01	-5.586964e-05
1.820246e+01	-5.651690e-05
1.830760e+01	-5.717166e-05
1.841334e+01	-5.783401e-05
1.851969e+01	-5.850403e-05
1.862666e+01	-5.918181e-05
1.873425e+01	-5.986744e-05
1.884246e+01	-6.056102e-05
1.895129e+01	-6.126263e-05
1.906075e+01	-6.197237e-05
1.917085e+01	-6.269033e-05
1.928158e+01	-6.341661e-05
1.939295e+01	-6.415130e-05
1.950496e+01	-6.489451e-05
1.961762e+01	-6.564632e-05
1.973093e+01	-6.640685e-05
1.984490e+01	-6.717618e-05
1.995952e+01	-6.795443e-05
2.007480e+01	-6.874170e-05
2.019076e+01	-6.953808e-05
2.030738e+01	-7.034370e-05
2.042467e+01	-7.115864e-05
2.054264e+01	-7.198303e-05
2.066130e+01	-7.281696e-05
2.078064e+01	-7.366056e-05
2.090066e+01	-7.451393e-05
2.102139e+01	-7.537719e-05
2.114280e+01	-7.625045e-05
2.126492e+01	-7.713382e-05
2.138775e+01	-7.802743e-05
2.151128e+01	-7.893139e-05
2.163553e+01	-7.984583e-05
2.176050e+01	-8.077085e-05
2.188619e+01	-8.170660e-05
2.201260e+01	-8.265318e-05
2.213974e+01	-8.361073e-05
2.226762e+01	-8.457938e-05
2.239624e+01	-8.555924e-05
2.252560e+01	-8.655046e-05
2.265571e+01	-8.755316e-05
2.278656e+01	-8.856748e-05
2.291818e+01	-8.959355e-05
2.305055e+01	-9.063150e-05
2.318369e+01	-9.168148e-05
2.331760e+01	-9.274363e-05
2.345228e+01	-9.381808e-05
2.358774e+01	-9.490497e-05
2.372398e+01	-9.600446e-05
2.386101e+01	-9.711669e-05
2.399883e+01	-9.824180e-05
2.413745e+01	-9.937995e-05
2.427686e+01	-1.005313e-04
2.441709e+01	-1.016959e-04
2.455812e+01	-1.028741e-04
2.469997e+01	-1.040659e-04
2.484263e+01	-1.052715e-04
2.498612e+01	-1.064911e-04
2.513044e+01	-1.077248e-04
2.527559e+01	-1.089728e-04
2.542158e+01	-1.102353e-04
2.556842e+01	-1.115124e-04
2.571610e+01	-1.128043e-04
2.586463e+01	-1.141111e-04
2.601403e+01	-1.154331e-04
2.616428e+01	-1.167704e-04
2.631541e+01	-1.181232e-04
2.646740e+01	-1.194917e-04
2.662028e+01	-1.208760e-04
2.677404e+01	-1.222764e-04
2.692868e+01	-1.236930e-04
2.708422e+01	-1.251260e-04
2.724066e+01	-1.265756e-04
2.739800e+01	-1.280420e-04
2.755625e+01	-1.295253e-04
2.771541e+01	-1.310259e-04
2.787550e+01	-1.325439e-04
2.803650e+01	-1.340794e-04
2.819844e+01	-1.356327e-04
2.836131e+01	-1.372040e-04
2.852513e+01	-1.387936e-04
2.868989e+01	-1.404015e-04
2.885560e+01	-1.420281e-04
2.902227e+01	-1.436735e-04
2.918990e+01	-1.453379e-04
2.935850e+01	-1.470217e-04
2.952807e+01	-1.487249e-04
2.969863e+01	-1.504479e-04
2.987016e+01	-1.521909e-04
3.004269e+01	-1.539540e-04
3.021622e+01	-1.557376e-04
3.039075e+01	-1.575418e-04
3.056628e+01	-1.593670e-04
3.074283e+01	-1.612132e-04
3.092040e+01	-1.630809e-04
3.109900e+01	-1.649702e-04
3.127862e+01	-1.668814e-04
3.145929e+01	-1.688147e-04
3.164099e+01	-1.707705e-04
3.182375e+01	-1.727488e-04
3.200756e+01	-1.747501e-04
3.219244e+01	-1.767746e-04
3.237838e+01	-1.788226e-04
3.256540e+01	-1.808942e-04
3.275349e+01	-1.829899e-04
3.294268e+01	-1.851098e-04
3.313295e+01	-1.872543e-04
3.332433e+01	-1.894237e-04
3.351681e+01	-1.916182e-04
3.371040e+01	-1.938381e-04
3.390511e+01	-1.960837e-04
3.410094e+01	-1.983553e-04
3.429791e+01	-2.006533e-04
3.449601e+01	-2.029778e-04
3.469526e+01	-2.053293e-04
3.489566e+01	-2.077081e-04
3.509721e+01	-2.101144e-04
3.529993e+01	-2.125486e-04
3.550382e+01	-2.150109e-04
3.570889e+01	-2.175018e-04
3.591515e+01	-2.200216e-04
3.612259e+01	-2.225705e-04
3.633123e+01	-2.251490e-04
3.654108e+01	-2.277573e-04
3.675214e+01	-2.303959e-04
3.696442e+01	-2.330650e-04
3.717792e+01	-2.357651e-04
3.739266e+01	-2.384964e-04
3.760864e+01	-2.412594e-04
3.782587e+01	-2.440544e-04
3.804435e+01	-2.468817e-04
3.826409e+01	-2.497418e-04
3.848510e+01	-2.526351e-04
3.870739e+01	-2.555618e-04
3.893096e+01	-2.585225e-04
3.915583e+01	-2.615175e-04
3.938199e+01	-2.645471e-04
3.960946e+01	-2.676119e-04
3.983824e+01	-2.707122e-04
4.006834e+01	-2.738483e-04
4.029978e+01	-2.770208e-04
4.053255e+01	-2.802301e-04
4.076666e+01	-2.834765e-04
4.100213e+01	-2.867606e-04
4.123896e+01	-2.900827e-04
4.147715e+01	-2.934432e-04
4.171672e+01	-2.968427e-04
4.195767e+01	-3.002816e-04
4.220002e+01	-3.037604e-04
4.244377e+01	-3.072794e-04
4.268892e+01	-3.108392e-04
4.293549e+01	-3.144402e-04
4.318348e+01	-3.180829e-04
4.343291e+01	-3.217679e-04
4.368377e+01	-3.254955e-04
4.393609e+01	-3.292663e-04
4.418986e+01	-3.330808e-04
4.444510e+01	-3.369395e-04
4.470182e+01	-3.408429e-04
4.496001e+01	-3.447915e-04
4.521970e+01	-3.487858e-04
4.548089e+01	-3.528265e-04
4.574358e+01	-3.569139e-04
4.600779e+01	-3.610487e-04
4.627353e+01	-3.652313e-04
4.654081e+01	-3.694625e-04
4.680963e+01	-3.737426e-04
4.708000e+01	-3.780723e-04
4.735193e+01	-3.824522e-04
4.762543e+01	-3.868828e-04
4.790051e+01	-3.913648e-04
4.817719e+01	-3.958986e-04
4.845545e+01	-4.004850e-04
4.873533e+01	-4.051245e-04
4.901682e+01	-4.098178e-04
4.929994e+01	-4.145654e-04
4.958470e+01	-4.193680e-04
4.987110e+01	-4.242263e-04
5.015915e+01	-4.291408e-04
5.044887e+01	-4.341123e-04
5.074026e+01	-4.391413e-04
5.103333e+01	-4.442287e-04
5.132810e+01	-4.493749e-04
5.162457e+01	-4.545808e-04
5.192275e+01	-4.598469e-04
5.222265e+01	-4.651741e-04
5.252429e+01	-4.705630e-04
5.282767e+01	-4.760143e-04
5.313280e+01	-4.815287e-04
5.343969e+01	-4.871071e-04
5.374836e+01	-4.927500e-04
5.405880e+01	-4.984583e-04
5.437105e+01	-5.042328e-04
5.468509e+01	-5.100741e-04
5.500095e+01	-5.159831e-04
5.531863e+01	-5.219606e-04
5.563815e+01	-5.280072e-04
5.595951e+01	-5.341240e-04
5.628273e+01	-5.403116e-04
5.660782e+01	-5.465708e-04
5.693479e+01	-5.529026e-04
5.726364e+01	-5.593077e-04
5.759439e+01	-5.657870e-04
5.792705e+01	-5.723414e-04
5.826164e+01	-5.789717e-04
5.859815e+01	-5.856788e-04
5.893662e+01	-5.924636e-04
5.927703e+01	-5.993270e-04
5.961941e+01	-6.062698e-04
5.996377e+01	-6.132931e-04
6.031012e+01	-6.203978e-04
6.065847e+01	-6.275848e-04
6.100883e+01	-6.348550e-04
6.136121e+01	-6.422094e-04
6.171563e+01	-6.496490e-04
6.207210e+01	-6.571748e-04
6.243063e+01	-6.647878e-04
6.279122e+01	-6.724889e-04
6.315390e+01	-6.802793e-04
6.351868e+01	-6.881599e-04
6.388556e+01	-6.961318e-04
6.425456e+01	-7.041960e-04
6.462569e+01	-7.123536e-04
6.499897e+01	-7.206058e-04
6.537440e+01	-7.289535e-04
6.575200e+01	-7.373979e-04
6.613178e+01	-7.459401e-04
6.651375e+01	-7.545813e-04
6.689793e+01	-7.633225e-04
6.728433e+01	-7.721651e-04
6.767297e+01	-7.811100e-04
6.806384e+01	-7.901586e-04
6.845698e+01	-7.993119e-04
6.885238e+01	-8.085713e-04
6.925007e+01	-8.179379e-04
6.965005e+01	-8.274131e-04
7.005235e+01	-8.369980e-04
7.045697e+01	-8.466939e-04
7.086393e+01	-8.565021e-04
7.127323e+01	-8.664239e-04
7.168490e+01	-8.764606e-04
7.209895e+01	-8.866136e-04
7.251539e+01	-8.968842e-04
7.293424e+01	-9.072738e-04
7.335551e+01	-9.177837e-04
7.377920e+01	-9.284153e-04
7.420535e+01	-9.391701e-04
7.463396e+01	-9.500495e-04
7.506504e+01	-9.610548e-04
7.549861e+01	-9.721877e-04
7.593469e+01	-9.834495e-04
7.637328e+01	-9.948417e-04
7.681441e+01	-1.006366e-03
7.725809e+01	-1.018024e-03
7.770433e+01	-1.029816e-03
7.815315e+01	-1.041745e-03
7.860456e+01	-1.053813e-03
7.905857e+01	-1.066020e-03
7.951521e+01	-1.078369e-03
7.997449e+01	-1.090860e-03
8.043642e+01	-1.103497e-03
8.090102e+01	-1.116279e-03
8.136830e+01	-1.129210e-03
8.183828e+01	-1.142291e-03
8.231097e+01	-1.155523e-03
8.278640e+01	-1.168908e-03
8.326457e+01	-1.182448e-03
8.374550e+01	-1.196145e-03
8.422921e+01	-1.210001e-03
8.471572e+01	-1.224017e-03
8.520503e+01	-1.238196e-03
8.569717e+01	-1.252538e-03
8.619215e+01	-1.267047e-03
8.669000e+01	-1.281724e-03
8.719071e+01	-1.296571e-03
8.769432e+01	-1.311590e-03
8.820084e+01	-1.326783e-03
8.871029e+01	-1.342152e-03
8.922267e+01	-1.357698e-03
8.973802e+01	-1.373425e-03
9.025634e+01	-1.389334e-03
9.077766e+01	-1.405427e-03
9.130199e+01	-1.421707e-03
9.182935e+01	-1.438175e-03
9.235975e+01	-1.454834e-03
9.289321e+01	-1.471686e-03
9.342976e+01	-1.488733e-03
9.396941e+01	-1.505977e-03
9.451217e+01	-1.523421e-03
9.505807e+01	-1.541067e-03
9.560712e+01	-1.558918e-03
9.615934e+01	-1.576975e-03
9.671476e+01	-1.595241e-03
9.727338e+01	-1.613719e-03
9.783522e+01	-1.632411e-03
9.840032e+01	-1.651319e-03
9.896867e+01	-1.670446e-03
9.954031e+01	-1.689795e-03
1.001153e+02	-1.709368e-03
1.006935e+02	-1.729168e-03
1.012751e+02	-1.749197e-03
1.018601e+02	-1.769457e-03
1.024484e+02	-1.789953e-03
1.030402e+02	-1.810685e-03
1.036353e+02	-1.831658e-03
1.042339e+02	-1.852874e-03
1.048360e+02	-1.874335e-03
1.054415e+02	-1.896045e-03
1.060505e+02	-1.918007e-03
1.066631e+02	-1.940222e-03
1.072791e+02	-1.962695e-03
1.078988e+02	-1.985428e-03
1.085220e+02	-2.008425e-03
1.091488e+02	-2.031688e-03
1.097793e+02	-2.055220e-03
1.104133e+02	-2.079024e-03
1.110511e+02	-2.103104e-03
1.116925e+02	-2.127463e-03
1.123376e+02	-2.152105e-03
1.129865e+02	-2.177031e-03
1.136391e+02	-2.202246e-03
1.142955e+02	-2.227753e-03
1.149556e+02	-2.253556e-03
1.156196e+02	-2.279657e-03
1.162874e+02	-2.306060e-03
1.169591e+02	-2.332769e-03
1.176347e+02	-2.359788e-03
1.183141e+02	-2.387119e-03
1.189975e+02	-2.414767e-03
1.196848e+02	-2.442734e-03
1.203761e+02	-2.471026e-03
1.210714e+02	-2.499645e-03
1.217707e+02	-2.528596e-03
1.224740e+02	-2.557882e-03
1.231814e+02	-2.587507e-03
1.238929e+02	-2.617475e-03
1.246085e+02	-2.647789e-03
1.253283e+02	-2.678455e-03
1.260522e+02	-2.709476e-03
1.267802e+02	-2.740856e-03
1.275125e+02	-2.772600e-03
1.282490e+02	-2.804711e-03
1.289898e+02	-2.837193e-03
1.297348e+02	-2.870052e-03
1.304842e+02	-2.903291e-03
1.312378e+02	-2.936915e-03
1.319959e+02	-2.970929e-03
1.327583e+02	-3.005336e-03
1.335251e+02	-3.040141e-03
1.342963e+02	-3.075349e-03
1.350720e+02	-3.110965e-03
1.358522e+02	-3.146994e-03
1.366368e+02	-3.183439e-03
1.374260e+02	-3.220306e-03
1.382198e+02	-3.257600e-03
1.390182e+02	-3.295326e-03
1.398211e+02	-3.333489e-03
1.406287e+02	-3.372093e-03
1.414410e+02	-3.411144e-03
1.422579e+02	-3.450648e-03
1.430796e+02	-3.490608e-03
1.439060e+02	-3.531031e-03
1.447372e+02	-3.571922e-03
1.455732e+02	-3.613287e-03
1.464141e+02	-3.655130e-03
1.472597e+02	-3.697458e-03
1.481103e+02	-3.740275e-03
1.489658e+02	-3.783588e-03
1.498262e+02	-3.827403e-03
1.506916e+02	-3.871724e-03
1.515620e+02	-3.916559e-03
1.524374e+02	-3.961913e-03
1.533179e+02	-4.007791e-03
1.542034e+02	-4.054201e-03
1.550941e+02	-4.101148e-03
1.559899e+02	-4.148638e-03
1.568909e+02	-4.196678e-03
1.577971e+02	-4.245273e-03
1.587085e+02	-4.294432e-03
1.596252e+02	-4.344159e-03
1.605472e+02	-4.394461e-03
1.614745e+02	-4.445346e-03
1.624072e+02	-4.496820e-03
1.633453e+02	-4.548890e-03
1.642887e+02	-4.601562e-03
1.652377e+02	-4.654843e-03
1.661921e+02	-4.708742e-03
1.671520e+02	-4.763264e-03
1.681175e+02	-4.818417e-03
1.690885e+02	-4.874208e-03
1.700651e+02	-4.930645e-03
1.710474e+02	-4.987735e-03
1.720354e+02	-5.045485e-03
1.730291e+02	-5.103904e-03
1.740285e+02	-5.162999e-03
1.750337e+02	-5.222777e-03
1.760446e+02	-5.283248e-03
1.770615e+02	-5.344418e-03
1.780842e+02	-5.406296e-03
1.791128e+02	-5.468889e-03
1.801473e+02	-5.532208e-03
1.811878e+02	-5.596258e-03
1.822344e+02	-5.661050e-03
1.832870e+02	-5.726591e-03
1.843456e+02	-5.792891e-03
1.854104e+02	-5.859958e-03
1.864813e+02	-5.927800e-03
1.875584e+02	-5.996428e-03
1.886418e+02	-6.065849e-03
1.897313e+02	-6.136074e-03
1.908272e+02	-6.207111e-03
1.919294e+02	-6.278970e-03
1.930380e+02	-6.351660e-03
1.941530e+02	-6.425191e-03
1.952744e+02	-6.499573e-03
1.964023e+02	-6.574815e-03
1.975367e+02	-6.650927e-03
1.986777e+02	-6.727920e-03
1.998252e+02	-6.805804e-03
2.009794e+02	-6.884588e-03
2.021403e+02	-6.964284e-03
2.033078e+02	-7.044901e-03
2.044821e+02	-7.126451e-03
2.056632e+02	-7.208944e-03
2.068511e+02	-7.292391e-03
2.080459e+02	-7.376803e-03
2.092475e+02	-7.462192e-03
2.104561e+02	-7.548568e-03
2.116717e+02	-7.635943e-03
2.128943e+02	-7.724328e-03
2.141240e+02	-7.813736e-03
2.153608e+02	-7.904178e-03
2.166047e+02	-7.995665e-03
2.178558e+02	-8.088210e-03
2.191141e+02	-8.181826e-03
2.203797e+02	-8.276524e-03
2.216526e+02	-8.372317e-03
2.229329e+02	-8.469217e-03
2.242205e+02	-8.567238e-03
2.255156e+02	-8.666393e-03
2.268182e+02	-8.766693e-03
2.281283e+02	-8.868154e-03
2.294459e+02	-8.970787e-03
2.307712e+02	-9.074607e-03
2.321041e+02	-9.179627e-03
2.334447e+02	-9.285862e-03
2.347931e+02	-9.393324e-03
2.361493e+02	-9.502029e-03
2.375133e+02	-9.611990e-03
2.388851e+02	-9.723222e-03
2.402649e+02	-9.835740e-03
2.416527e+02	-9.949559e-03
2.430484e+02	-1.006469e-02
2.444523e+02	-1.018116e-02
2.458642e+02	-1.029897e-02
2.472843e+02	-1.041814e-02
2.487126e+02	-1.053869e-02
2.501492e+02	-1.066063e-02
2.515940e+02	-1.078399e-02
2.530472e+02	-1.090876e-02
2.545088e+02	-1.103498e-02
2.559789e+02	-1.116266e-02
2.574574e+02	-1.129182e-02
2.589444e+02	-1.142246e-02
2.604401e+02	-1.155462e-02
2.619444e+02	-1.168830e-02
2.634574e+02	-1.182353e-02
2.649791e+02	-1.196032e-02
2.665096e+02	-1.209869e-02
2.680489e+02	-1.223865e-02
2.695972e+02	-1.238024e-02
2.711544e+02	-1.252346e-02
2.727205e+02	-1.266834e-02
2.742958e+02	-1.281488e-02
2.758801e+02	-1.296313e-02
2.774736e+02	-1.311308e-02
2.790762e+02	-1.326477e-02
2.806882e+02	-1.341820e-02
2.823094e+02	-1.357341e-02
2.839400e+02	-1.373041e-02
2.855800e+02	-1.388923e-02
2.872295e+02	-1.404988e-02
2.888886e+02	-1.421238e-02
2.905572e+02	-1.437676e-02
2.922354e+02	-1.454304e-02
2.939234e+02	-1.471124e-02
2.956211e+02	-1.488138e-02
2.973286e+02	-1.505349e-02
2.990459e+02	-1.522758e-02
3.007732e+02	-1.540368e-02
3.025104e+02	-1.558181e-02
3.042577e+02	-1.576200e-02
3.060151e+02	-1.594427e-02
3.077826e+02	-1.612865e-02
3.095604e+02	-1.631515e-02
3.113484e+02	-1.650381e-02
3.131467e+02	-1.669464e-02
3.149554e+02	-1.688767e-02
3.167746e+02	-1.708293e-02
3.186043e+02	-1.728045e-02
3.204445e+02	-1.748024e-02
3.222954e+02	-1.768234e-02
3.241570e+02	-1.788677e-02
3.260293e+02	-1.809356e-02
3.279124e+02	-1.830274e-02
3.298064e+02	-1.851433e-02
3.317114e+02	-1.872836e-02
3.336273e+02	-1.894486e-02
3.355544e+02	-1.916385e-02
3.374925e+02	-1.938537e-02
3.394418e+02	-1.960945e-02
3.414024e+02	-1.983611e-02
3.433744e+02	-2.006538e-02
3.453577e+02	-2.029730e-02
3.473525e+02	-2.053189e-02
3.493588e+02	-2.076919e-02
3.513766e+02	-2.100922e-02
3.534062e+02	-2.125202e-02
3.554474e+02	-2.149762e-02
3.575005e+02	-2.174605e-02
3.595654e+02	-2.199734e-02
3.616422e+02	-2.225153e-02
3.637311e+02	-2.250865e-02
3.658320e+02	-2.276873e-02
3.679450e+02	-2.303181e-02
3.700702e+02	-2.329792e-02
3.722077e+02	-2.356710e-02
3.743576e+02	-2.383938e-02
3.765199e+02	-2.411480e-02
3.786946e+02	-2.439339e-02
3.808820e+02	-2.467518e-02
3.830819e+02	-2.496023e-02
3.852946e+02	-2.524856e-02
3.875200e+02	-2.554020e-02
3.897583e+02	-2.583521e-02
3.920096e+02	-2.613362e-02
3.942738e+02	-2.643546e-02
3.965511e+02	-2.674077e-02
3.988416e+02	-2.704960e-02
4.011452e+02	-2.736199e-02
4.034622e+02	-2.767797e-02
4.057926e+02	-2.799759e-02
4.081365e+02	-2.832089e-02
4.104938e+02	-2.864791e-02
4.128648e+02	-2.897869e-02
4.152495e+02	-2.931328e-02
4.176480e+02	-2.965172e-02
4.200603e+02	-2.999405e-02
4.224866e+02	-3.034033e-02
4.249268e+02	-3.069058e-02
4.273812e+02	-3.104486e-02
4.298497e+02	-3.140322e-02
4.323325e+02	-3.176570e-02
4.348297e+02	-3.213235e-02
4.373412e+02	-3.250322e-02
4.398673e+02	-3.287835e-02
4.424079e+02	-3.325779e-02
4.449633e+02	-3.364159e-02
4.475334e+02	-3.402981e-02
4.501183e+02	-3.442248e-02
4.527182e+02	-3.481967e-02
4.553330e+02	-3.522143e-02
4.579630e+02	-3.562780e-02
4.606082e+02	-3.603884e-02
4.632687e+02	-3.645460e-02
4.659445e+02	-3.687514e-02
4.686358e+02	-3.730051e-02
4.713426e+02	-3.773077e-02
4.740650e+02	-3.816596e-02
4.768032e+02	-3.860615e-02
4.795572e+02	-3.905140e-02
4.823271e+02	-3.950176e-02
4.851130e+02	-3.995729e-02
4.879150e+02	-4.041804e-02
4.907332e+02	-4.088409e-02
4.935676e+02	-4.135548e-02
4.964185e+02	-4.183228e-02
4.992858e+02	-4.231455e-02
5.021696e+02	-4.280236e-02
5.050701e+02	-4.329576e-02
5.079874e+02	-4.379482e-02
5.109215e+02	-4.429960e-02
5.138726e+02	-4.481017e-02
5.168407e+02	-4.532659e-02
5.198259e+02	-4.584893e-02
5.228284e+02	-4.637726e-02
5.258482e+02	-4.691165e-02
5.288855e+02	-4.745216e-02
5.319403e+02	-4.799886e-02
5.350128e+02	-4.855182e-02
5.381030e+02	-4.911112e-02
5.412111e+02	-4.967683e-02
5.443371e+02	-5.024901e-02
5.474812e+02	-5.082775e-02
5.506434e+02	-5.141311e-02
5.538239e+02	-5.200517e-02
5.570228e+02	-5.260401e-02
5.602401e+02	-5.320971e-02
5.634760e+02	-5.382233e-02
5.667306e+02	-5.444196e-02
5.700040e+02	-5.506868e-02
5.732964e+02	-5.570257e-02
5.766077e+02	-5.634371e-02
5.799382e+02	-5.699218e-02
5.832879e+02	-5.764806e-02
5.866569e+02	-5.831144e-02
5.900454e+02	-5.898240e-02
5.934535e+02	-5.966103e-02
5.968813e+02	-6.034741e-02
6.003288e+02	-6.104163e-02
6.037963e+02	-6.174379e-02
6.072838e+02	-6.245396e-02
6.107914e+02	-6.317224e-02
6.143194e+02	-6.389871e-02
6.178676e+02	-6.463349e-02
6.214364e+02	-6.537664e-02
6.250258e+02	-6.612828e-02
6.286359e+02	-6.688849e-02
6.322669e+02	-6.765737e-02
6.359189e+02	-6.843502e-02
6.395919e+02	-6.922154e-02
6.432862e+02	-7.001702e-02
6.470017e+02	-7.082157e-02
6.507388e+02	-7.163529e-02
6.544974e+02	-7.245828e-02
6.582778e+02	-7.329065e-02
6.620800e+02	-7.413249e-02
6.659041e+02	-7.498392e-02
6.697504e+02	-7.584505e-02
6.736188e+02	-7.671598e-02
6.775096e+02	-7.759681e-02
6.814229e+02	-7.848767e-02
6.853587e+02	-7.938866e-02
6.893173e+02	-8.029990e-02
6.932988e+02	-8.122151e-02
6.973033e+02	-8.215358e-02
7.013309e+02	-8.309626e-02
