Frequency(Hz)	Magnitude(dB)
1.000000e+01	-1.622716e-05
1.005776e+01	-1.641516e-05
1.011585e+01	-1.660533e-05
1.017428e+01	-1.679771e-05
1.023305e+01	-1.699232e-05
1.029215e+01	-1.718918e-05
1.035160e+01	-1.738832e-05
1.041139e+01	-1.758976e-05
1.047153e+01	-1.779355e-05
1.053201e+01	-1.799969e-05
1.059284e+01	-1.820822e-05
1.065403e+01	-1.841917e-05
1.071556e+01	-1.863256e-05
1.077746e+01	-1.884842e-05
1.083971e+01	-1.906678e-05
1.090232e+01	-1.928768e-05
1.096529e+01	-1.951113e-05
1.102862e+01	-1.973717e-05
1.109232e+01	-1.996583e-05
1.115639e+01	-2.019714e-05
1.122083e+01	-2.043113e-05
1.128564e+01	-2.066783e-05
1.135083e+01	-2.090727e-05
1.141639e+01	-2.114949e-05
1.148233e+01	-2.139451e-05
1.154865e+01	-2.164237e-05
1.161536e+01	-2.189310e-05
1.168245e+01	-2.214674e-05
1.174992e+01	-2.240332e-05
1.181779e+01	-2.266286e-05
1.188605e+01	-2.292542e-05
1.195470e+01	-2.319102e-05
1.202375e+01	-2.345969e-05
1.209320e+01	-2.373148e-05
1.216305e+01	-2.400641e-05
1.223330e+01	-2.428453e-05
1.230396e+01	-2.456587e-05
1.237503e+01	-2.485048e-05
1.244651e+01	-2.513837e-05
1.251840e+01	-2.542961e-05
1.259070e+01	-2.572422e-05
1.266343e+01	-2.602224e-05
1.273657e+01	-2.632371e-05
1.281014e+01	-2.662868e-05
1.288413e+01	-2.693718e-05
1.295855e+01	-2.724925e-05
1.303339e+01	-2.756494e-05
1.310867e+01	-2.788429e-05
1.318439e+01	-2.820733e-05
1.326054e+01	-2.853412e-05
1.333713e+01	-2.886470e-05
1.341417e+01	-2.919910e-05
1.349165e+01	-2.953738e-05
1.356958e+01	-2.987958e-05
1.364795e+01	-3.022574e-05
1.372678e+01	-3.057591e-05
1.380607e+01	-3.093014e-05
1.388581e+01	-3.128848e-05
1.396602e+01	-3.165096e-05
1.404668e+01	-3.201764e-05
1.412782e+01	-3.238858e-05
1.420942e+01	-3.276381e-05
1.429149e+01	-3.314338e-05
1.437404e+01	-3.352736e-05
1.445706e+01	-3.391578e-05
1.454057e+01	-3.430870e-05
1.462455e+01	-3.470617e-05
1.470902e+01	-3.510825e-05
1.479398e+01	-3.551499e-05
1.487943e+01	-3.592644e-05
1.496537e+01	-3.634266e-05
1.505181e+01	-3.676369e-05
1.513875e+01	-3.718961e-05
1.522619e+01	-3.762046e-05
1.531414e+01	-3.805630e-05
1.540259e+01	-3.849719e-05
1.549156e+01	-3.894319e-05
1.558103e+01	-3.939436e-05
1.567103e+01	-3.985075e-05
1.576155e+01	-4.031243e-05
1.585258e+01	-4.077946e-05
1.594415e+01	-4.125190e-05
1.603624e+01	-4.172981e-05
1.612886e+01	-4.221326e-05
1.622202e+01	-4.270231e-05
1.631572e+01	-4.319703e-05
1.640996e+01	-4.369747e-05
1.650474e+01	-4.420372e-05
1.660008e+01	-4.471583e-05
1.669596e+01	-4.523387e-05
1.679239e+01	-4.575791e-05
1.688938e+01	-4.628803e-05
1.698694e+01	-4.682429e-05
1.708505e+01	-4.736676e-05
1.718373e+01	-4.791551e-05
1.728299e+01	-4.847062e-05
1.738281e+01	-4.903216e-05
1.748322e+01	-4.960021e-05
1.758420e+01	-5.017484e-05
1.768576e+01	-5.075613e-05
1.778792e+01	-5.134415e-05
1.789066e+01	-5.193898e-05
1.799399e+01	-5.254070e-05
1.809793e+01	-5.314940e-05
1.820246e+01	-5.376515e-05
1.830760e+01	-5.438803e-05
1.841334e+01	-5.501812e-05
1.851969e+01	-5.565552e-05
1.862666e+01	-5.630030e-05
1.873425e+01	-5.695255e-05
1.884246e+01	-5.761236e-05
1.895129e+01	-5.827981e-05
1.906075e+01	-5.895499e-05
1.917085e+01	-5.963800e-05
1.928158e+01	-6.032891e-05
1.939295e+01	-6.102784e-05
1.950496e+01	-6.173486e-05
1.961762e+01	-6.245007e-05
1.973093e+01	-6.317356e-05
1.984490e+01	-6.390544e-05
1.995952e+01	-6.464580e-05
2.007480e+01	-6.539473e-05
2.019076e+01	-6.615234e-05
2.030738e+01	-6.691873e-05
2.042467e+01	-6.769400e-05
2.054264e+01	-6.847824e-05
2.066130e+01	-6.927158e-05
2.078064e+01	-7.007410e-05
2.090066e+01	-7.088592e-05
2.102139e+01	-7.170715e-05
2.114280e+01	-7.253789e-05
2.126492e+01	-7.337825e-05
2.138775e+01	-7.422836e-05
2.151128e+01	-7.508830e-05
2.163553e+01	-7.595822e-05
2.176050e+01	-7.683820e-05
2.188619e+01	-7.772839e-05
2.201260e+01	-7.862889e-05
2.213974e+01	-7.953982e-05
2.226762e+01	-8.046130e-05
2.239624e+01	-8.139346e-05
2.252560e+01	-8.233641e-05
2.265571e+01	-8.329029e-05
2.278656e+01	-8.425523e-05
2.291818e+01	-8.523134e-05
2.305055e+01	-8.621876e-05
2.318369e+01	-8.721761e-05
2.331760e+01	-8.822804e-05
2.345228e+01	-8.925018e-05
2.358774e+01	-9.028416e-05
2.372398e+01	-9.133011e-05
2.386101e+01	-9.238819e-05
2.399883e+01	-9.345852e-05
2.413745e+01	-9.454125e-05
2.427686e+01	-9.563653e-05
2.441709e+01	-9.674449e-05
2.455812e+01	-9.786529e-05
2.469997e+01	-9.899907e-05
2.484263e+01	-1.001460e-04
2.498612e+01	-1.013062e-04
2.513044e+01	-1.024798e-04
2.527559e+01	-1.036671e-04
2.542158e+01	-1.048681e-04
2.556842e+01	-1.060830e-04
2.571610e+01	-1.073120e-04
2.586463e+01	-1.085552e-04
2.601403e+01	-1.098128e-04
2.616428e+01	-1.110850e-04
2.631541e+01	-1.123720e-04
2.646740e+01	-1.136738e-04
2.662028e+01	-1.149907e-04
2.677404e+01	-1.163229e-04
2.692868e+01	-1.176705e-04
2.708422e+01	-1.190338e-04
2.724066e+01	-1.204128e-04
2.739800e+01	-1.218078e-04
2.755625e+01	-1.232189e-04
2.771541e+01	-1.246464e-04
2.787550e+01	-1.260905e-04
2.803650e+01	-1.275512e-04
2.819844e+01	-1.290289e-04
2.836131e+01	-1.305238e-04
2.852513e+01	-1.320359e-04
2.868989e+01	-1.335655e-04
2.885560e+01	-1.351129e-04
2.902227e+01	-1.366782e-04
2.918990e+01	-1.382616e-04
2.935850e+01	-1.398634e-04
2.952807e+01	-1.414837e-04
2.969863e+01	-1.431228e-04
2.987016e+01	-1.447809e-04
3.004269e+01	-1.464582e-04
3.021622e+01	-1.481550e-04
3.039075e+01	-1.498713e-04
3.056628e+01	-1.516076e-04
3.074283e+01	-1.533640e-04
3.092040e+01	-1.551407e-04
3.109900e+01	-1.569381e-04
3.127862e+01	-1.587562e-04
3.145929e+01	-1.605954e-04
3.164099e+01	-1.624559e-04
3.182375e+01	-1.643380e-04
3.200756e+01	-1.662418e-04
3.219244e+01	-1.681677e-04
3.237838e+01	-1.701160e-04
3.256540e+01	-1.720868e-04
3.275349e+01	-1.740804e-04
3.294268e+01	-1.760971e-04
3.313295e+01	-1.781372e-04
3.332433e+01	-1.802010e-04
3.351681e+01	-1.822886e-04
3.371040e+01	-1.844004e-04
3.390511e+01	-1.865367e-04
3.410094e+01	-1.886977e-04
3.429791e+01	-1.908838e-04
3.449601e+01	-1.930952e-04
3.469526e+01	-1.953322e-04
3.489566e+01	-1.975951e-04
3.509721e+01	-1.998843e-04
3.529993e+01	-2.021999e-04
3.550382e+01	-2.045424e-04
3.570889e+01	-2.069120e-04
3.591515e+01	-2.093091e-04
3.612259e+01	-2.117340e-04
3.633123e+01	-2.141869e-04
3.654108e+01	-2.166683e-04
3.675214e+01	-2.191784e-04
3.696442e+01	-2.217175e-04
3.717792e+01	-2.242861e-04
3.739266e+01	-2.268845e-04
3.760864e+01	-2.295129e-04
3.782587e+01	-2.321718e-04
3.804435e+01	-2.348615e-04
3.826409e+01	-2.375824e-04
3.848510e+01	-2.403348e-04
3.870739e+01	-2.431190e-04
3.893096e+01	-2.459356e-04
3.915583e+01	-2.487847e-04
3.938199e+01	-2.516669e-04
3.960946e+01	-2.545824e-04
3.983824e+01	-2.575317e-04
4.006834e+01	-2.605152e-04
4.029978e+01	-2.635333e-04
4.053255e+01	-2.665863e-04
4.076666e+01	-2.696747e-04
4.100213e+01	-2.727988e-04
4.123896e+01	-2.759592e-04
4.147715e+01	-2.791561e-04
4.171672e+01	-2.823901e-04
4.195767e+01	-2.856616e-04
4.220002e+01	-2.889709e-04
4.244377e+01	-2.923186e-04
4.268892e+01	-2.957051e-04
4.293549e+01	-2.991308e-04
4.318348e+01	-3.025962e-04
4.343291e+01	-3.061018e-04
4.368377e+01	-3.096479e-04
4.393609e+01	-3.132351e-04
4.418986e+01	-3.168639e-04
4.444510e+01	-3.205347e-04
4.470182e+01	-3.242481e-04
4.496001e+01	-3.280044e-04
4.521970e+01	-3.318043e-04
4.548089e+01	-3.356482e-04
4.574358e+01	-3.395366e-04
4.600779e+01	-3.434701e-04
4.627353e+01	-3.474492e-04
4.654081e+01	-3.514743e-04
4.680963e+01	-3.555460e-04
4.708000e+01	-3.596650e-04
4.735193e+01	-3.638316e-04
4.762543e+01	-3.680465e-04
4.790051e+01	-3.723103e-04
4.817719e+01	-3.766234e-04
4.845545e+01	-3.809865e-04
4.873533e+01	-3.854001e-04
4.901682e+01	-3.898649e-04
4.929994e+01	-3.943814e-04
4.958470e+01	-3.989502e-04
4.987110e+01	-4.035719e-04
5.015915e+01	-4.082472e-04
5.044887e+01	-4.129766e-04
5.074026e+01	-4.177608e-04
5.103333e+01	-4.226005e-04
5.132810e+01	-4.274962e-04
5.162457e+01	-4.324486e-04
5.192275e+01	-4.374584e-04
5.222265e+01	-4.425262e-04
5.252429e+01	-4.476527e-04
5.282767e+01	-4.528386e-04
5.313280e+01	-4.580846e-04
5.343969e+01	-4.633914e-04
5.374836e+01	-4.687596e-04
5.405880e+01	-4.741900e-04
5.437105e+01	-4.796833e-04
5.468509e+01	-4.852403e-04
5.500095e+01	-4.908616e-04
5.531863e+01	-4.965481e-04
5.563815e+01	-5.023004e-04
5.595951e+01	-5.081193e-04
5.628273e+01	-5.140057e-04
5.660782e+01	-5.199602e-04
5.693479e+01	-5.259837e-04
5.726364e+01	-5.320770e-04
5.759439e+01	-5.382409e-04
5.792705e+01	-5.444762e-04
5.826164e+01	-5.507837e-04
5.859815e+01	-5.571643e-04
5.893662e+01	-5.636187e-04
5.927703e+01	-5.701480e-04
5.961941e+01	-5.767529e-04
5.996377e+01	-5.834343e-04
6.031012e+01	-5.901931e-04
6.065847e+01	-5.970301e-04
6.100883e+01	-6.039464e-04
6.136121e+01	-6.109428e-04
6.171563e+01	-6.180202e-04
6.207210e+01	-6.251797e-04
6.243063e+01	-6.324220e-04
6.279122e+01	-6.397483e-04
6.315390e+01	-6.471594e-04
6.351868e+01	-6.546563e-04
6.388556e+01	-6.622401e-04
6.425456e+01	-6.699118e-04
6.462569e+01	-6.776723e-04
6.499897e+01	-6.855227e-04
6.537440e+01	-6.934640e-04
6.575200e+01	-7.014973e-04
6.613178e+01	-7.096237e-04
6.651375e+01	-7.178442e-04
6.689793e+01	-7.261599e-04
6.728433e+01	-7.345720e-04
6.767297e+01	-7.430815e-04
6.806384e+01	-7.516895e-04
6.845698e+01	-7.603973e-04
6.885238e+01	-7.692059e-04
6.925007e+01	-7.781166e-04
6.965005e+01	-7.871305e-04
7.005235e+01	-7.962487e-04
7.045697e+01	-8.054726e-04
7.086393e+01	-8.148034e-04
7.127323e+01	-8.242422e-04
7.168490e+01	-8.337904e-04
7.209895e+01	-8.434491e-04
7.251539e+01	-8.532197e-04
7.293424e+01	-8.631035e-04
7.335551e+01	-8.731018e-04
7.377920e+01	-8.832159e-04
7.420535e+01	-8.934472e-04
7.463396e+01	-9.037969e-04
7.506504e+01	-9.142666e-04
7.549861e+01	-9.248575e-04
7.593469e+01	-9.355710e-04
7.637328e+01	-9.464087e-04
7.681441e+01	-9.573719e-04
7.725809e+01	-9.684621e-04
7.770433e+01	-9.796807e-04
7.815315e+01	-9.910293e-04
7.860456e+01	-1.002509e-03
7.905857e+01	-1.014122e-03
7.951521e+01	-1.025870e-03
7.997449e+01	-1.037753e-03
8.043642e+01	-1.049775e-03
8.090102e+01	-1.061935e-03
8.136830e+01	-1.074236e-03
8.183828e+01	-1.086680e-03
8.231097e+01	-1.099268e-03
8.278640e+01	-1.112002e-03
8.326457e+01	-1.124883e-03
8.374550e+01	-1.137913e-03
8.422921e+01	-1.151094e-03
8.471572e+01	-1.164428e-03
8.520503e+01	-1.177917e-03
8.569717e+01	-1.191561e-03
8.619215e+01	-1.205364e-03
8.669000e+01	-1.219326e-03
8.719071e+01	-1.233451e-03
8.769432e+01	-1.247739e-03
8.820084e+01	-1.262192e-03
8.871029e+01	-1.276812e-03
8.922267e+01	-1.291603e-03
8.973802e+01	-1.306564e-03
9.025634e+01	-1.321698e-03
9.077766e+01	-1.337008e-03
9.130199e+01	-1.352495e-03
9.182935e+01	-1.368162e-03
9.235975e+01	-1.384010e-03
9.289321e+01	-1.400042e-03
9.342976e+01	-1.416259e-03
9.396941e+01	-1.432664e-03
9.451217e+01	-1.449259e-03
9.505807e+01	-1.466046e-03
9.560712e+01	-1.483028e-03
9.615934e+01	-1.500206e-03
9.671476e+01	-1.517583e-03
9.727338e+01	-1.535162e-03
9.783522e+01	-1.552944e-03
9.840032e+01	-1.570932e-03
9.896867e+01	-1.589128e-03
9.954031e+01	-1.607535e-03
1.001153e+02	-1.626155e-03
1.006935e+02	-1.644991e-03
1.012751e+02	-1.664045e-03
1.018601e+02	-1.683320e-03
1.024484e+02	-1.702818e-03
1.030402e+02	-1.722542e-03
1.036353e+02	-1.742494e-03
1.042339e+02	-1.762677e-03
1.048360e+02	-1.783094e-03
1.054415e+02	-1.803747e-03
1.060505e+02	-1.824640e-03
1.066631e+02	-1.845774e-03
1.072791e+02	-1.867153e-03
1.078988e+02	-1.888780e-03
1.085220e+02	-1.910657e-03
1.091488e+02	-1.932788e-03
1.097793e+02	-1.955174e-03
1.104133e+02	-1.977821e-03
1.110511e+02	-2.000729e-03
1.116925e+02	-2.023902e-03
1.123376e+02	-2.047344e-03
1.129865e+02	-2.071058e-03
1.136391e+02	-2.095046e-03
1.142955e+02	-2.119311e-03
1.149556e+02	-2.143858e-03
1.156196e+02	-2.168689e-03
1.162874e+02	-2.193808e-03
1.169591e+02	-2.219217e-03
1.176347e+02	-2.244920e-03
1.183141e+02	-2.270922e-03
1.189975e+02	-2.297224e-03
1.196848e+02	-2.323831e-03
1.203761e+02	-2.350746e-03
1.210714e+02	-2.377972e-03
1.217707e+02	-2.405514e-03
1.224740e+02	-2.433375e-03
1.231814e+02	-2.461558e-03
1.238929e+02	-2.490068e-03
1.246085e+02	-2.518907e-03
1.253283e+02	-2.548081e-03
1.260522e+02	-2.577592e-03
1.267802e+02	-2.607445e-03
1.275125e+02	-2.637644e-03
1.282490e+02	-2.668193e-03
1.289898e+02	-2.699095e-03
1.297348e+02	-2.730355e-03
1.304842e+02	-2.761976e-03
1.312378e+02	-2.793964e-03
1.319959e+02	-2.826322e-03
1.327583e+02	-2.859055e-03
1.335251e+02	-2.892167e-03
1.342963e+02	-2.925662e-03
1.350720e+02	-2.959545e-03
1.358522e+02	-2.993821e-03
1.366368e+02	-3.028493e-03
1.374260e+02	-3.063566e-03
1.382198e+02	-3.099046e-03
1.390182e+02	-3.134936e-03
1.398211e+02	-3.171242e-03
1.406287e+02	-3.207968e-03
1.414410e+02	-3.245119e-03
1.422579e+02	-3.282700e-03
1.430796e+02	-3.320717e-03
1.439060e+02	-3.359173e-03
1.447372e+02	-3.398075e-03
1.455732e+02	-3.437427e-03
1.464141e+02	-3.477234e-03
1.472597e+02	-3.517503e-03
1.481103e+02	-3.558237e-03
1.489658e+02	-3.599443e-03
1.498262e+02	-3.641126e-03
1.506916e+02	-3.683292e-03
1.515620e+02	-3.725945e-03
1.524374e+02	-3.769092e-03
1.533179e+02	-3.812739e-03
1.542034e+02	-3.856891e-03
1.550941e+02	-3.901554e-03
1.559899e+02	-3.946734e-03
1.568909e+02	-3.992437e-03
1.577971e+02	-4.038669e-03
1.587085e+02	-4.085436e-03
1.596252e+02	-4.132744e-03
1.605472e+02	-4.180600e-03
1.614745e+02	-4.229009e-03
1.624072e+02	-4.277979e-03
1.633453e+02	-4.327516e-03
1.642887e+02	-4.377626e-03
1.652377e+02	-4.428316e-03
1.661921e+02	-4.479593e-03
1.671520e+02	-4.531463e-03
1.681175e+02	-4.583933e-03
1.690885e+02	-4.637011e-03
1.700651e+02	-4.690703e-03
1.710474e+02	-4.745016e-03
1.720354e+02	-4.799958e-03
1.730291e+02	-4.855535e-03
1.740285e+02	-4.911756e-03
1.750337e+02	-4.968628e-03
1.760446e+02	-5.026157e-03
1.770615e+02	-5.084352e-03
1.780842e+02	-5.143221e-03
1.791128e+02	-5.202770e-03
1.801473e+02	-5.263009e-03
1.811878e+02	-5.323945e-03
1.822344e+02	-5.385586e-03
1.832870e+02	-5.447940e-03
1.843456e+02	-5.511016e-03
1.854104e+02	-5.574821e-03
1.864813e+02	-5.639365e-03
1.875584e+02	-5.704655e-03
1.886418e+02	-5.770701e-03
1.897313e+02	-5.837511e-03
1.908272e+02	-5.905094e-03
1.919294e+02	-5.973459e-03
1.930380e+02	-6.042615e-03
1.941530e+02	-6.112570e-03
1.952744e+02	-6.183336e-03
1.964023e+02	-6.254919e-03
1.975367e+02	-6.327331e-03
1.986777e+02	-6.400581e-03
1.998252e+02	-6.474678e-03
2.009794e+02	-6.549632e-03
2.021403e+02	-6.625453e-03
2.033078e+02	-6.702151e-03
2.044821e+02	-6.779736e-03
2.056632e+02	-6.858219e-03
2.068511e+02	-6.937610e-03
2.080459e+02	-7.017918e-03
2.092475e+02	-7.099156e-03
2.104561e+02	-7.181333e-03
2.116717e+02	-7.264461e-03
2.128943e+02	-7.348550e-03
2.141240e+02	-7.433612e-03
2.153608e+02	-7.519658e-03
2.166047e+02	-7.606698e-03
2.178558e+02	-7.694745e-03
2.191141e+02	-7.783811e-03
2.203797e+02	-7.873906e-03
2.216526e+02	-7.965043e-03
2.229329e+02	-8.057235e-03
2.242205e+02	-8.150492e-03
2.255156e+02	-8.244827e-03
2.268182e+02	-8.340254e-03
2.281283e+02	-8.436783e-03
2.294459e+02	-8.534429e-03
2.307712e+02	-8.633204e-03
2.321041e+02	-8.733121e-03
2.334447e+02	-8.834193e-03
2.347931e+02	-8.936434e-03
2.361493e+02	-9.039857e-03
2.375133e+02	-9.144475e-03
2.388851e+02	-9.250303e-03
2.402649e+02	-9.357354e-03
2.416527e+02	-9.465643e-03
2.430484e+02	-9.575183e-03
2.444523e+02	-9.685990e-03
2.458642e+02	-9.798078e-03
2.472843e+02	-9.911461e-03
2.487126e+02	-1.002615e-02
2.501492e+02	-1.014217e-02
2.515940e+02	-1.025953e-02
2.530472e+02	-1.037825e-02
2.545088e+02	-1.049834e-02
2.559789e+02	-1.061982e-02
2.574574e+02	-1.074270e-02
2.589444e+02	-1.086700e-02
2.604401e+02	-1.099273e-02
2.619444e+02	-1.111992e-02
2.634574e+02	-1.124858e-02
2.649791e+02	-1.137873e-02
2.665096e+02	-1.151038e-02
2.680489e+02	-1.164355e-02
2.695972e+02	-1.177826e-02
2.711544e+02	-1.191453e-02
2.727205e+02	-1.205237e-02
2.742958e+02	-1.219180e-02
2.758801e+02	-1.233285e-02
2.774736e+02	-1.247552e-02
2.790762e+02	-1.261984e-02
2.806882e+02	-1.276583e-02
2.823094e+02	-1.291350e-02
2.839400e+02	-1.306288e-02
2.855800e+02	-1.321399e-02
2.872295e+02	-1.336684e-02
2.888886e+02	-1.352146e-02
2.905572e+02	-1.367786e-02
2.922354e+02	-1.383607e-02
2.939234e+02	-1.399610e-02
2.956211e+02	-1.415798e-02
2.973286e+02	-1.432174e-02
2.990459e+02	-1.448738e-02
3.007732e+02	-1.465493e-02
3.025104e+02	-1.482442e-02
3.042577e+02	-1.499587e-02
3.060151e+02	-1.516930e-02
3.077826e+02	-1.534473e-02
3.095604e+02	-1.552218e-02
3.113484e+02	-1.570168e-02
3.131467e+02	-1.588326e-02
3.149554e+02	-1.606693e-02
3.167746e+02	-1.625271e-02
3.186043e+02	-1.644065e-02
3.204445e+02	-1.663075e-02
3.222954e+02	-1.682305e-02
3.241570e+02	-1.701756e-02
3.260293e+02	-1.721432e-02
3.279124e+02	-1.741336e-02
3.298064e+02	-1.761468e-02
3.317114e+02	-1.781833e-02
3.336273e+02	-1.802433e-02
3.355544e+02	-1.823271e-02
3.374925e+02	-1.844349e-02
3.394418e+02	-1.865670e-02
3.414024e+02	-1.887237e-02
3.433744e+02	-1.909053e-02
3.453577e+02	-1.931121e-02
3.473525e+02	-1.953443e-02
3.493588e+02	-1.976022e-02
3.513766e+02	-1.998862e-02
3.534062e+02	-2.021965e-02
3.554474e+02	-2.045335e-02
3.575005e+02	-2.068974e-02
3.595654e+02	-2.092885e-02
3.616422e+02	-2.117073e-02
3.637311e+02	-2.141539e-02
3.658320e+02	-2.166287e-02
3.679450e+02	-2.191320e-02
3.700702e+02	-2.216642e-02
3.722077e+02	-2.242256e-02
3.743576e+02	-2.268165e-02
3.765199e+02	-2.294373e-02
3.786946e+02	-2.320882e-02
3.808820e+02	-2.347697e-02
3.830819e+02	-2.374821e-02
3.852946e+02	-2.402258e-02
3.875200e+02	-2.430010e-02
3.897583e+02	-2.458083e-02
3.920096e+02	-2.486478e-02
3.942738e+02	-2.515201e-02
3.965511e+02	-2.544255e-02
3.988416e+02	-2.573643e-02
4.011452e+02	-2.603369e-02
4.034622e+02	-2.633438e-02
4.057926e+02	-2.663853e-02
4.081365e+02	-2.694619e-02
4.104938e+02	-2.725738e-02
4.128648e+02	-2.757216e-02
4.152495e+02	-2.789056e-02
4.176480e+02	-2.821263e-02
4.200603e+02	-2.853840e-02
4.224866e+02	-2.886792e-02
4.249268e+02	-2.920123e-02
4.273812e+02	-2.953838e-02
4.298497e+02	-2.987941e-02
4.323325e+02	-3.022436e-02
4.348297e+02	-3.057328e-02
4.373412e+02	-3.092622e-02
4.398673e+02	-3.128321e-02
4.424079e+02	-3.164431e-02
4.449633e+02	-3.200956e-02
4.475334e+02	-3.237901e-02
4.501183e+02	-3.275271e-02
4.527182e+02	-3.313071e-02
4.553330e+02	-3.351305e-02
4.579630e+02	-3.389979e-02
4.606082e+02	-3.429097e-02
4.632687e+02	-3.468665e-02
4.659445e+02	-3.508687e-02
4.686358e+02	-3.549169e-02
4.713426e+02	-3.590117e-02
4.740650e+02	-3.631535e-02
4.768032e+02	-3.673429e-02
4.795572e+02	-3.715804e-02
4.823271e+02	-3.758665e-02
4.851130e+02	-3.802019e-02
4.879150e+02	-3.845871e-02
4.907332e+02	-3.890226e-02
4.935676e+02	-3.935091e-02
4.964185e+02	-3.980470e-02
4.992858e+02	-4.026370e-02
5.021696e+02	-4.072797e-02
5.050701e+02	-4.119757e-02
5.079874e+02	-4.167256e-02
5.109215e+02	-4.215300e-02
5.138726e+02	-4.263895e-02
5.168407e+02	-4.313047e-02
5.198259e+02	-4.362763e-02
5.228284e+02	-4.413049e-02
5.258482e+02	-4.463912e-02
5.288855e+02	-4.515358e-02
5.319403e+02	-4.567394e-02
5.350128e+02	-4.620026e-02
5.381030e+02	-4.673262e-02
5.412111e+02	-4.727107e-02
5.443371e+02	-4.781570e-02
5.474812e+02	-4.836656e-02
5.506434e+02	-4.892374e-02
5.538239e+02	-4.948729e-02
5.570228e+02	-5.005730e-02
5.602401e+02	-5.063384e-02
5.634760e+02	-5.121698e-02
5.667306e+02	-5.180680e-02
5.700040e+02	-5.240336e-02
5.732964e+02	-5.300676e-02
5.766077e+02	-5.361705e-02
5.799382e+02	-5.423433e-02
5.832879e+02	-5.485868e-02
5.866569e+02	-5.549016e-02
5.900454e+02	-5.612886e-02
5.934535e+02	-5.677487e-02
5.968813e+02	-5.742827e-02
6.003288e+02	-5.808913e-02
6.037963e+02	-5.875755e-02
6.072838e+02	-5.943360e-02
6.107914e+02	-6.011738e-02
6.143194e+02	-6.080897e-02
6.178676e+02	-6.150846e-02
6.214364e+02	-6.221594e-02
6.250258e+02	-6.293150e-02
6.286359e+02	-6.365523e-02
6.322669e+02	-6.438722e-02
6.359189e+02	-6.512756e-02
6.395919e+02	-6.587635e-02
6.432862e+02	-6.663368e-02
6.470017e+02	-6.739965e-02
6.507388e+02	-6.817436e-02
6.544974e+02	-6.895790e-02
6.582778e+02	-6.975037e-02
6.620800e+02	-7.055188e-02
6.659041e+02	-7.136252e-02
6.697504e+02	-7.218239e-02
6.736188e+02	-7.301161e-02
6.775096e+02	-7.385027e-02
6.814229e+02	-7.469848e-02
6.853587e+02	-7.555635e-02
6.893173e+02	-7.642398e-02
6.932988e+02	-7.730149e-02
6.973033e+02	-7.818898e-02
7.013309e+02	-7.908657e-02
