Frequency(Hz)	Magnitude(dB)
1.000000e+01	-2.101829e+00
1.005776e+01	-2.121144e+00
1.011585e+01	-2.140496e+00
1.017428e+01	-2.160266e+00
1.023305e+01	-2.179772e+00
1.029215e+01	-2.199807e+00
1.035160e+01	-2.219658e+00
1.041139e+01	-2.239853e+00
1.047153e+01	-2.259638e+00
1.053201e+01	-2.280196e+00
1.059284e+01	-2.300708e+00
1.065403e+01	-2.321304e+00
1.071556e+01	-2.342187e+00
1.077746e+01	-2.362988e+00
1.083971e+01	-2.384171e+00
1.090232e+01	-2.405487e+00
1.096529e+01	-2.426654e+00
1.102862e+01	-2.448066e+00
1.109232e+01	-2.469875e+00
1.115639e+01	-2.491667e+00
1.122083e+01	-2.513372e+00
1.128564e+01	-2.535666e+00
1.135083e+01	-2.557717e+00
1.141639e+01	-2.579973e+00
1.148233e+01	-2.602741e+00
1.154865e+01	-2.625128e+00
1.161536e+01	-2.647963e+00
1.168245e+01	-2.670826e+00
1.174992e+01	-2.693880e+00
1.181779e+01	-2.717045e+00
1.188605e+01	-2.740392e+00
1.195470e+01	-2.763971e+00
1.202375e+01	-2.787430e+00
1.209320e+01	-2.811224e+00
1.216305e+01	-2.835312e+00
1.223330e+01	-2.859090e+00
1.230396e+01	-2.883580e+00
1.237503e+01	-2.907846e+00
1.244651e+01	-2.932257e+00
1.251840e+01	-2.956878e+00
1.259070e+01	-2.981906e+00
1.266343e+01	-3.006727e+00
1.273657e+01	-3.031926e+00
1.281014e+01	-3.057125e+00
1.288413e+01	-3.082348e+00
1.295855e+01	-3.107752e+00
1.303339e+01	-3.133243e+00
1.310867e+01	-3.159208e+00
1.318439e+01	-3.185092e+00
1.326054e+01	-3.211164e+00
1.333713e+01	-3.237536e+00
1.341417e+01	-3.263761e+00
1.349165e+01	-3.290455e+00
1.356958e+01	-3.317061e+00
1.364795e+01	-3.343715e+00
1.372678e+01	-3.370763e+00
1.380607e+01	-3.397926e+00
1.388581e+01	-3.425125e+00
1.396602e+01	-3.452128e+00
1.404668e+01	-3.479672e+00
1.412782e+01	-3.507251e+00
1.420942e+01	-3.535220e+00
1.429149e+01	-3.563193e+00
1.437404e+01	-3.590979e+00
1.445706e+01	-3.619436e+00
1.454057e+01	-3.647880e+00
1.462455e+01	-3.676407e+00
1.470902e+01	-3.704790e+00
1.479398e+01	-3.733294e+00
1.487943e+01	-3.762697e+00
1.496537e+01	-3.791727e+00
1.505181e+01	-3.820915e+00
1.513875e+01	-3.850108e+00
1.522619e+01	-3.879631e+00
1.531414e+01	-3.909142e+00
1.540259e+01	-3.938982e+00
1.549156e+01	-3.968988e+00
1.558103e+01	-3.999095e+00
1.567103e+01	-4.029169e+00
1.576155e+01	-4.059454e+00
1.585258e+01	-4.090029e+00
1.594415e+01	-4.120511e+00
1.603624e+01	-4.151085e+00
1.612886e+01	-4.182176e+00
1.622202e+01	-4.213193e+00
1.631572e+01	-4.244228e+00
1.640996e+01	-4.275294e+00
1.650474e+01	-4.306896e+00
1.660008e+01	-4.338423e+00
1.669596e+01	-4.370083e+00
1.679239e+01	-4.401936e+00
1.688938e+01	-4.433759e+00
1.698694e+01	-4.465798e+00
1.708505e+01	-4.498130e+00
1.718373e+01	-4.530587e+00
1.728299e+01	-4.563251e+00
1.738281e+01	-4.595475e+00
1.748322e+01	-4.628541e+00
1.758420e+01	-4.661016e+00
1.768576e+01	-4.694131e+00
1.778792e+01	-4.727398e+00
1.789066e+01	-4.760665e+00
1.799399e+01	-4.793667e+00
1.809793e+01	-4.827319e+00
1.820246e+01	-4.861075e+00
1.830760e+01	-4.894806e+00
1.841334e+01	-4.928690e+00
1.851969e+01	-4.962783e+00
1.862666e+01	-4.996527e+00
1.873425e+01	-5.031071e+00
1.884246e+01	-5.065371e+00
1.895129e+01	-5.099711e+00
1.906075e+01	-5.134466e+00
1.917085e+01	-5.169408e+00
1.928158e+01	-5.203764e+00
1.939295e+01	-5.239012e+00
1.950496e+01	-5.274373e+00
1.961762e+01	-5.309479e+00
1.973093e+01	-5.344790e+00
1.984490e+01	-5.380518e+00
1.995952e+01	-5.416128e+00
2.007480e+01	-5.451700e+00
2.019076e+01	-5.487282e+00
2.030738e+01	-5.523333e+00
2.042467e+01	-5.559300e+00
2.054264e+01	-5.595912e+00
2.066130e+01	-5.632048e+00
2.078064e+01	-5.668342e+00
2.090066e+01	-5.704602e+00
2.102139e+01	-5.741381e+00
2.114280e+01	-5.777959e+00
2.126492e+01	-5.814978e+00
2.138775e+01	-5.851802e+00
2.151128e+01	-5.889270e+00
2.163553e+01	-5.926166e+00
2.176050e+01	-5.963926e+00
2.188619e+01	-6.000981e+00
2.201260e+01	-6.038581e+00
2.213974e+01	-6.076234e+00
2.226762e+01	-6.114097e+00
2.239624e+01	-6.151795e+00
2.252560e+01	-6.189988e+00
2.265571e+01	-6.227703e+00
2.278656e+01	-6.266038e+00
2.291818e+01	-6.303991e+00
2.305055e+01	-6.342509e+00
2.318369e+01	-6.380805e+00
2.331760e+01	-6.419334e+00
2.345228e+01	-6.457986e+00
2.358774e+01	-6.496999e+00
2.372398e+01	-6.536085e+00
2.386101e+01	-6.574921e+00
2.399883e+01	-6.613837e+00
2.413745e+01	-6.652784e+00
2.427686e+01	-6.692069e+00
2.441709e+01	-6.731401e+00
2.455812e+01	-6.771124e+00
2.469997e+01	-6.810632e+00
2.484263e+01	-6.850048e+00
2.498612e+01	-6.890091e+00
2.513044e+01	-6.929837e+00
2.527559e+01	-6.969493e+00
2.542158e+01	-7.009664e+00
2.556842e+01	-7.050312e+00
2.571610e+01	-7.089896e+00
2.586463e+01	-7.130452e+00
2.601403e+01	-7.170924e+00
2.616428e+01	-7.211530e+00
2.631541e+01	-7.252065e+00
2.646740e+01	-7.292325e+00
2.662028e+01	-7.333106e+00
2.677404e+01	-7.374359e+00
2.692868e+01	-7.414852e+00
2.708422e+01	-7.456028e+00
2.724066e+01	-7.497131e+00
2.739800e+01	-7.538396e+00
2.755625e+01	-7.579723e+00
2.771541e+01	-7.620694e+00
2.787550e+01	-7.661942e+00
2.803650e+01	-7.703898e+00
2.819844e+01	-7.745574e+00
2.836131e+01	-7.786858e+00
2.852513e+01	-7.828287e+00
2.868989e+01	-7.870516e+00
2.885560e+01	-7.912441e+00
2.902227e+01	-7.954370e+00
2.918990e+01	-7.996399e+00
2.935850e+01	-8.038489e+00
2.952807e+01	-8.080969e+00
2.969863e+01	-8.123017e+00
2.987016e+01	-8.165594e+00
3.004269e+01	-8.208130e+00
3.021622e+01	-8.250060e+00
3.039075e+01	-8.292847e+00
3.056628e+01	-8.335609e+00
3.074283e+01	-8.378107e+00
3.092040e+01	-8.421078e+00
3.109900e+01	-8.464160e+00
3.127862e+01	-8.506749e+00
3.145929e+01	-8.549681e+00
3.164099e+01	-8.593233e+00
3.182375e+01	-8.636066e+00
3.200756e+01	-8.679060e+00
3.219244e+01	-8.722400e+00
3.237838e+01	-8.765950e+00
3.256540e+01	-8.809469e+00
3.275349e+01	-8.852861e+00
3.294268e+01	-8.896384e+00
3.313295e+01	-8.939900e+00
3.332433e+01	-8.983445e+00
3.351681e+01	-9.027073e+00
3.371040e+01	-9.071356e+00
3.390511e+01	-9.114905e+00
3.410094e+01	-9.158959e+00
3.429791e+01	-9.202807e+00
3.449601e+01	-9.246637e+00
3.469526e+01	-9.291104e+00
3.489566e+01	-9.335107e+00
3.509721e+01	-9.380007e+00
3.529993e+01	-9.423852e+00
3.550382e+01	-9.468031e+00
3.570889e+01	-9.512295e+00
3.591515e+01	-9.556605e+00
3.612259e+01	-9.601669e+00
3.633123e+01	-9.646109e+00
3.654108e+01	-9.690671e+00
3.675214e+01	-9.735801e+00
3.696442e+01	-9.779742e+00
3.717792e+01	-9.824415e+00
3.739266e+01	-9.869207e+00
3.760864e+01	-9.914964e+00
3.782587e+01	-9.959451e+00
3.804435e+01	-1.000422e+01
3.826409e+01	-1.005016e+01
3.848510e+01	-1.009454e+01
3.870739e+01	-1.013991e+01
3.893096e+01	-1.018538e+01
3.915583e+01	-1.023033e+01
3.938199e+01	-1.027586e+01
3.960946e+01	-1.032111e+01
3.983824e+01	-1.036644e+01
4.006834e+01	-1.041152e+01
4.029978e+01	-1.045762e+01
4.053255e+01	-1.050268e+01
4.076666e+01	-1.054811e+01
4.100213e+01	-1.059409e+01
4.123896e+01	-1.063958e+01
4.147715e+01	-1.068504e+01
4.171672e+01	-1.073168e+01
4.195767e+01	-1.077691e+01
4.220002e+01	-1.082296e+01
4.244377e+01	-1.086865e+01
4.268892e+01	-1.091516e+01
4.293549e+01	-1.096081e+01
4.318348e+01	-1.100743e+01
4.343291e+01	-1.105343e+01
4.368377e+01	-1.109913e+01
4.393609e+01	-1.114510e+01
4.418986e+01	-1.119151e+01
4.444510e+01	-1.123747e+01
4.470182e+01	-1.128417e+01
4.496001e+01	-1.133050e+01
4.521970e+01	-1.137612e+01
4.548089e+01	-1.142346e+01
4.574358e+01	-1.146975e+01
4.600779e+01	-1.151647e+01
4.627353e+01	-1.156251e+01
4.654081e+01	-1.160922e+01
4.680963e+01	-1.165548e+01
4.708000e+01	-1.170239e+01
4.735193e+01	-1.174968e+01
4.762543e+01	-1.179557e+01
4.790051e+01	-1.184316e+01
4.817719e+01	-1.188993e+01
4.845545e+01	-1.193641e+01
4.873533e+01	-1.198210e+01
4.901682e+01	-1.202983e+01
4.929994e+01	-1.207669e+01
4.958470e+01	-1.212366e+01
4.987110e+01	-1.217039e+01
5.015915e+01	-1.221798e+01
5.044887e+01	-1.226423e+01
5.074026e+01	-1.231100e+01
5.103333e+01	-1.235879e+01
5.132810e+01	-1.240605e+01
5.162457e+01	-1.245227e+01
5.192275e+01	-1.250050e+01
5.222265e+01	-1.254776e+01
5.252429e+01	-1.259512e+01
5.282767e+01	-1.264140e+01
5.313280e+01	-1.268928e+01
5.343969e+01	-1.273702e+01
5.374836e+01	-1.278442e+01
5.405880e+01	-1.283127e+01
5.437105e+01	-1.287896e+01
5.468509e+01	-1.292625e+01
5.500095e+01	-1.297435e+01
5.531863e+01	-1.302160e+01
5.563815e+01	-1.306892e+01
5.595951e+01	-1.311677e+01
5.628273e+01	-1.316464e+01
5.660782e+01	-1.321171e+01
5.693479e+01	-1.325912e+01
5.726364e+01	-1.330668e+01
5.759439e+01	-1.335438e+01
5.792705e+01	-1.340237e+01
5.826164e+01	-1.345038e+01
5.859815e+01	-1.349816e+01
5.893662e+01	-1.354538e+01
5.927703e+01	-1.359437e+01
5.961941e+01	-1.364168e+01
5.996377e+01	-1.368884e+01
6.031012e+01	-1.373733e+01
6.065847e+01	-1.378538e+01
6.100883e+01	-1.383402e+01
6.136121e+01	-1.388127e+01
6.171563e+01	-1.392891e+01
6.207210e+01	-1.397715e+01
6.243063e+01	-1.402623e+01
6.279122e+01	-1.407334e+01
6.315390e+01	-1.412142e+01
6.351868e+01	-1.416933e+01
6.388556e+01	-1.421792e+01
6.425456e+01	-1.426617e+01
6.462569e+01	-1.431368e+01
6.499897e+01	-1.436199e+01
6.537440e+01	-1.440970e+01
6.575200e+01	-1.445881e+01
6.613178e+01	-1.450667e+01
6.651375e+01	-1.455521e+01
6.689793e+01	-1.460425e+01
6.728433e+01	-1.465139e+01
6.767297e+01	-1.470039e+01
6.806384e+01	-1.474754e+01
6.845698e+01	-1.479645e+01
6.885238e+01	-1.484466e+01
6.925007e+01	-1.489390e+01
6.965005e+01	-1.494250e+01
7.005235e+01	-1.499108e+01
7.045697e+01	-1.503915e+01
7.086393e+01	-1.508820e+01
7.127323e+01	-1.513580e+01
7.168490e+01	-1.518383e+01
7.209895e+01	-1.523378e+01
7.251539e+01	-1.528143e+01
7.293424e+01	-1.533004e+01
7.335551e+01	-1.537890e+01
7.377920e+01	-1.542687e+01
7.420535e+01	-1.547468e+01
7.463396e+01	-1.552500e+01
7.506504e+01	-1.557269e+01
7.549861e+01	-1.562268e+01
7.593469e+01	-1.567028e+01
7.637328e+01	-1.571863e+01
7.681441e+01	-1.576750e+01
7.725809e+01	-1.581627e+01
7.770433e+01	-1.586543e+01
7.815315e+01	-1.591285e+01
7.860456e+01	-1.596310e+01
7.905857e+01	-1.601083e+01
7.951521e+01	-1.605991e+01
7.997449e+01	-1.610855e+01
8.043642e+01	-1.615821e+01
8.090102e+01	-1.620635e+01
8.136830e+01	-1.625592e+01
8.183828e+01	-1.630474e+01
8.231097e+01	-1.635297e+01
8.278640e+01	-1.640211e+01
8.326457e+01	-1.645096e+01
8.374550e+01	-1.649877e+01
8.422921e+01	-1.654808e+01
8.471572e+01	-1.659890e+01
8.520503e+01	-1.664552e+01
8.569717e+01	-1.669601e+01
8.619215e+01	-1.674538e+01
8.669000e+01	-1.679291e+01
8.719071e+01	-1.684203e+01
8.769432e+01	-1.689095e+01
8.820084e+01	-1.694040e+01
8.871029e+01	-1.698885e+01
8.922267e+01	-1.703903e+01
8.973802e+01	-1.708758e+01
9.025634e+01	-1.713657e+01
9.077766e+01	-1.718605e+01
9.130199e+01	-1.723387e+01
9.182935e+01	-1.728361e+01
9.235975e+01	-1.733369e+01
9.289321e+01	-1.738251e+01
9.342976e+01	-1.743064e+01
9.396941e+01	-1.748062e+01
9.451217e+01	-1.752943e+01
9.505807e+01	-1.757821e+01
9.560712e+01	-1.762822e+01
9.615934e+01	-1.767760e+01
9.671476e+01	-1.772679e+01
9.727338e+01	-1.777523e+01
9.783522e+01	-1.782471e+01
9.840032e+01	-1.787433e+01
9.896867e+01	-1.792393e+01
9.954031e+01	-1.797264e+01
1.001153e+02	-1.802231e+01
1.006935e+02	-1.806993e+01
1.012751e+02	-1.812086e+01
1.018601e+02	-1.816936e+01
1.024484e+02	-1.821820e+01
1.030402e+02	-1.826830e+01
1.036353e+02	-1.831649e+01
1.042339e+02	-1.836685e+01
1.048360e+02	-1.841451e+01
1.054415e+02	-1.846477e+01
1.060505e+02	-1.851446e+01
1.066631e+02	-1.856402e+01
1.072791e+02	-1.861250e+01
1.078988e+02	-1.866190e+01
1.085220e+02	-1.871166e+01
1.091488e+02	-1.876161e+01
1.097793e+02	-1.881093e+01
1.104133e+02	-1.885954e+01
1.110511e+02	-1.890868e+01
1.116925e+02	-1.895858e+01
1.123376e+02	-1.900782e+01
1.129865e+02	-1.905754e+01
1.136391e+02	-1.910509e+01
1.142955e+02	-1.915641e+01
1.149556e+02	-1.920634e+01
1.156196e+02	-1.925576e+01
1.162874e+02	-1.930336e+01
1.169591e+02	-1.935542e+01
1.176347e+02	-1.940350e+01
1.183141e+02	-1.945253e+01
1.189975e+02	-1.950445e+01
1.196848e+02	-1.955133e+01
1.203761e+02	-1.960210e+01
1.210714e+02	-1.965074e+01
1.217707e+02	-1.969904e+01
1.224740e+02	-1.975014e+01
1.231814e+02	-1.979888e+01
1.238929e+02	-1.984990e+01
1.246085e+02	-1.989825e+01
1.253283e+02	-1.994827e+01
1.260522e+02	-1.999877e+01
1.267802e+02	-2.004660e+01
1.275125e+02	-2.009464e+01
1.282490e+02	-2.014719e+01
1.289898e+02	-2.019610e+01
1.297348e+02	-2.024521e+01
1.304842e+02	-2.029401e+01
1.312378e+02	-2.034430e+01
1.319959e+02	-2.039232e+01
1.327583e+02	-2.044328e+01
1.335251e+02	-2.049344e+01
1.342963e+02	-2.054342e+01
1.350720e+02	-2.059150e+01
1.358522e+02	-2.064194e+01
1.366368e+02	-2.069074e+01
1.374260e+02	-2.074238e+01
1.382198e+02	-2.079233e+01
1.390182e+02	-2.084114e+01
1.398211e+02	-2.088941e+01
1.406287e+02	-2.093893e+01
1.414410e+02	-2.098978e+01
1.422579e+02	-2.103893e+01
1.430796e+02	-2.109023e+01
1.439060e+02	-2.113787e+01
1.447372e+02	-2.118621e+01
1.455732e+02	-2.123854e+01
1.464141e+02	-2.128776e+01
1.472597e+02	-2.133659e+01
1.481103e+02	-2.138801e+01
1.489658e+02	-2.143642e+01
1.498262e+02	-2.148772e+01
1.506916e+02	-2.153476e+01
1.515620e+02	-2.158545e+01
1.524374e+02	-2.163565e+01
1.533179e+02	-2.168460e+01
1.542034e+02	-2.173368e+01
1.550941e+02	-2.178432e+01
1.559899e+02	-2.183380e+01
1.568909e+02	-2.188353e+01
1.577971e+02	-2.193238e+01
1.587085e+02	-2.198341e+01
1.596252e+02	-2.203418e+01
1.605472e+02	-2.208111e+01
1.614745e+02	-2.213125e+01
1.624072e+02	-2.218107e+01
1.633453e+02	-2.223118e+01
1.642887e+02	-2.228159e+01
1.652377e+02	-2.233120e+01
1.661921e+02	-2.238249e+01
1.671520e+02	-2.243181e+01
1.681175e+02	-2.248122e+01
1.690885e+02	-2.253216e+01
1.700651e+02	-2.258068e+01
1.710474e+02	-2.262943e+01
1.720354e+02	-2.268052e+01
1.730291e+02	-2.273027e+01
1.740285e+02	-2.277884e+01
1.750337e+02	-2.282747e+01
1.760446e+02	-2.287899e+01
1.770615e+02	-2.292932e+01
1.780842e+02	-2.297996e+01
1.791128e+02	-2.302951e+01
1.801473e+02	-2.307869e+01
1.811878e+02	-2.312529e+01
1.822344e+02	-2.317886e+01
1.832870e+02	-2.322823e+01
1.843456e+02	-2.327878e+01
1.854104e+02	-2.332660e+01
1.864813e+02	-2.337613e+01
1.875584e+02	-2.342737e+01
1.886418e+02	-2.347844e+01
1.897313e+02	-2.352769e+01
1.908272e+02	-2.357644e+01
1.919294e+02	-2.362800e+01
1.930380e+02	-2.367521e+01
1.941530e+02	-2.372543e+01
1.952744e+02	-2.377593e+01
1.964023e+02	-2.382485e+01
1.975367e+02	-2.387492e+01
1.986777e+02	-2.392512e+01
1.998252e+02	-2.397608e+01
2.009794e+02	-2.402413e+01
2.021403e+02	-2.407191e+01
2.033078e+02	-2.412495e+01
2.044821e+02	-2.417538e+01
2.056632e+02	-2.422400e+01
2.068511e+02	-2.427374e+01
2.080459e+02	-2.432335e+01
2.092475e+02	-2.437543e+01
2.104561e+02	-2.442655e+01
2.116717e+02	-2.447348e+01
2.128943e+02	-2.452354e+01
2.141240e+02	-2.457310e+01
2.153608e+02	-2.462407e+01
2.166047e+02	-2.467428e+01
2.178558e+02	-2.472542e+01
2.191141e+02	-2.477399e+01
2.203797e+02	-2.482165e+01
2.216526e+02	-2.487495e+01
2.229329e+02	-2.492196e+01
2.242205e+02	-2.497275e+01
2.255156e+02	-2.502641e+01
2.268182e+02	-2.507270e+01
2.281283e+02	-2.512321e+01
2.294459e+02	-2.517653e+01
2.307712e+02	-2.522251e+01
2.321041e+02	-2.527046e+01
2.334447e+02	-2.532251e+01
2.347931e+02	-2.536984e+01
2.361493e+02	-2.542201e+01
2.375133e+02	-2.546909e+01
2.388851e+02	-2.552211e+01
2.402649e+02	-2.557269e+01
2.416527e+02	-2.562201e+01
2.430484e+02	-2.567071e+01
2.444523e+02	-2.571977e+01
2.458642e+02	-2.577086e+01
2.472843e+02	-2.582014e+01
2.487126e+02	-2.587278e+01
2.501492e+02	-2.592361e+01
2.515940e+02	-2.597227e+01
2.530472e+02	-2.602042e+01
2.545088e+02	-2.607161e+01
2.559789e+02	-2.611711e+01
2.574574e+02	-2.617098e+01
2.589444e+02	-2.621905e+01
2.604401e+02	-2.627200e+01
2.619444e+02	-2.632047e+01
2.634574e+02	-2.637115e+01
2.649791e+02	-2.642119e+01
2.665096e+02	-2.646688e+01
2.680489e+02	-2.652230e+01
2.695972e+02	-2.657396e+01
2.711544e+02	-2.662359e+01
2.727205e+02	-2.667045e+01
2.742958e+02	-2.672059e+01
2.758801e+02	-2.677047e+01
2.774736e+02	-2.682296e+01
2.790762e+02	-2.686812e+01
2.806882e+02	-2.692122e+01
2.823094e+02	-2.697104e+01
2.839400e+02	-2.701690e+01
2.855800e+02	-2.707278e+01
2.872295e+02	-2.711787e+01
2.888886e+02	-2.717153e+01
2.905572e+02	-2.722183e+01
2.922354e+02	-2.727217e+01
2.939234e+02	-2.731764e+01
2.956211e+02	-2.736998e+01
2.973286e+02	-2.741898e+01
2.990459e+02	-2.747332e+01
3.007732e+02	-2.752006e+01
3.025104e+02	-2.756976e+01
3.042577e+02	-2.762072e+01
3.060151e+02	-2.767170e+01
3.077826e+02	-2.772245e+01
3.095604e+02	-2.777188e+01
3.113484e+02	-2.782149e+01
3.131467e+02	-2.786917e+01
3.149554e+02	-2.792263e+01
3.167746e+02	-2.796740e+01
3.186043e+02	-2.802070e+01
3.204445e+02	-2.806951e+01
3.222954e+02	-2.812072e+01
3.241570e+02	-2.816893e+01
3.260293e+02	-2.822075e+01
3.279124e+02	-2.827097e+01
3.298064e+02	-2.832136e+01
3.317114e+02	-2.837452e+01
3.336273e+02	-2.842245e+01
3.355544e+02	-2.847260e+01
3.374925e+02	-2.851733e+01
3.394418e+02	-2.857326e+01
3.414024e+02	-2.862408e+01
3.433744e+02	-2.867081e+01
3.453577e+02	-2.872303e+01
3.473525e+02	-2.877176e+01
3.493588e+02	-2.881866e+01
3.513766e+02	-2.886722e+01
3.534062e+02	-2.892481e+01
3.554474e+02	-2.897270e+01
3.575005e+02	-2.902405e+01
3.595654e+02	-2.907226e+01
3.616422e+02	-2.912007e+01
3.637311e+02	-2.917437e+01
3.658320e+02	-2.922258e+01
3.679450e+02	-2.927240e+01
3.700702e+02	-2.932158e+01
3.722077e+02	-2.937184e+01
3.743576e+02	-2.942263e+01
3.765199e+02	-2.947670e+01
3.786946e+02	-2.952047e+01
3.808820e+02	-2.957583e+01
3.830819e+02	-2.962363e+01
3.852946e+02	-2.967071e+01
3.875200e+02	-2.972068e+01
3.897583e+02	-2.977038e+01
3.920096e+02	-2.982237e+01
3.942738e+02	-2.987249e+01
3.965511e+02	-2.992522e+01
3.988416e+02	-2.996847e+01
4.011452e+02	-3.002244e+01
4.034622e+02	-3.007889e+01
4.057926e+02	-3.012417e+01
4.081365e+02	-3.017205e+01
4.104938e+02	-3.022655e+01
4.128648e+02	-3.027585e+01
4.152495e+02	-3.032294e+01
4.176480e+02	-3.037256e+01
4.200603e+02	-3.042395e+01
4.224866e+02	-3.047795e+01
4.249268e+02	-3.052139e+01
4.273812e+02	-3.057679e+01
4.298497e+02	-3.062669e+01
4.323325e+02	-3.067618e+01
4.348297e+02	-3.072500e+01
4.373412e+02	-3.078001e+01
4.398673e+02	-3.082253e+01
4.424079e+02	-3.087701e+01
4.449633e+02	-3.092599e+01
4.475334e+02	-3.097666e+01
4.501183e+02	-3.102176e+01
4.527182e+02	-3.107718e+01
4.553330e+02	-3.112768e+01
4.579630e+02	-3.117691e+01
4.606082e+02	-3.122486e+01
4.632687e+02	-3.127865e+01
4.659445e+02	-3.133010e+01
4.686358e+02	-3.137608e+01
4.713426e+02	-3.142705e+01
4.740650e+02	-3.147693e+01
4.768032e+02	-3.152493e+01
4.795572e+02	-3.157625e+01
4.823271e+02	-3.163276e+01
4.851130e+02	-3.168105e+01
4.879150e+02	-3.173311e+01
4.907332e+02	-3.178386e+01
4.935676e+02	-3.183436e+01
4.964185e+02	-3.187937e+01
4.992858e+02	-3.192943e+01
5.021696e+02	-3.198452e+01
5.050701e+02	-3.203429e+01
5.079874e+02	-3.207420e+01
5.109215e+02	-3.213435e+01
5.138726e+02	-3.217795e+01
5.168407e+02	-3.222763e+01
5.198259e+02	-3.228319e+01
5.228284e+02	-3.233601e+01
5.258482e+02	-3.237738e+01
5.288855e+02	-3.243232e+01
5.319403e+02	-3.247671e+01
5.350128e+02	-3.253250e+01
5.381030e+02	-3.258703e+01
5.412111e+02	-3.262727e+01
5.443371e+02	-3.268192e+01
5.474812e+02	-3.272794e+01
5.506434e+02	-3.278544e+01
5.538239e+02	-3.283715e+01
5.570228e+02	-3.287717e+01
5.602401e+02	-3.293140e+01
5.634760e+02	-3.298214e+01
5.667306e+02	-3.303280e+01
5.700040e+02	-3.308364e+01
5.732964e+02	-3.313449e+01
5.766077e+02	-3.318596e+01
5.799382e+02	-3.323625e+01
5.832879e+02	-3.329212e+01
5.866569e+02	-3.334163e+01
5.900454e+02	-3.338793e+01
5.934535e+02	-3.343204e+01
5.968813e+02	-3.348412e+01
6.003288e+02	-3.354243e+01
6.037963e+02	-3.359222e+01
6.072838e+02	-3.363840e+01
6.107914e+02	-3.369360e+01
6.143194e+02	-3.374038e+01
6.178676e+02	-3.378785e+01
6.214364e+02	-3.384377e+01
6.250258e+02	-3.389100e+01
6.286359e+02	-3.393919e+01
6.322669e+02	-3.399045e+01
6.359189e+02	-3.404433e+01
6.395919e+02	-3.408807e+01
6.432862e+02	-3.414058e+01
6.470017e+02	-3.418819e+01
6.507388e+02	-3.424731e+01
6.544974e+02	-3.428985e+01
6.582778e+02	-3.434279e+01
6.620800e+02	-3.438566e+01
6.659041e+02	-3.444899e+01
6.697504e+02	-3.449188e+01
6.736188e+02	-3.454309e+01
6.775096e+02	-3.459702e+01
6.814229e+02	-3.464488e+01
6.853587e+02	-3.469455e+01
6.893173e+02	-3.474449e+01
6.932988e+02	-3.479701e+01
6.973033e+02	-3.484502e+01
7.013309e+02	-3.489382e+01
