Frequency(Hz)	Magnitude(dB)
1.000000e+01	-1.987785e+00
1.005776e+01	-2.006289e+00
1.011585e+01	-2.024683e+00
1.017428e+01	-2.043439e+00
1.023305e+01	-2.062122e+00
1.029215e+01	-2.081406e+00
1.035160e+01	-2.100690e+00
1.041139e+01	-2.119716e+00
1.047153e+01	-2.139303e+00
1.053201e+01	-2.158655e+00
1.059284e+01	-2.178160e+00
1.065403e+01	-2.197974e+00
1.071556e+01	-2.218144e+00
1.077746e+01	-2.238032e+00
1.083971e+01	-2.258340e+00
1.090232e+01	-2.278640e+00
1.096529e+01	-2.298930e+00
1.102862e+01	-2.319873e+00
1.109232e+01	-2.340637e+00
1.115639e+01	-2.361214e+00
1.122083e+01	-2.382552e+00
1.128564e+01	-2.403675e+00
1.135083e+01	-2.424909e+00
1.141639e+01	-2.446350e+00
1.148233e+01	-2.468064e+00
1.154865e+01	-2.489978e+00
1.161536e+01	-2.511826e+00
1.168245e+01	-2.533722e+00
1.174992e+01	-2.556088e+00
1.181779e+01	-2.578470e+00
1.188605e+01	-2.600865e+00
1.195470e+01	-2.623448e+00
1.202375e+01	-2.645780e+00
1.209320e+01	-2.669201e+00
1.216305e+01	-2.692005e+00
1.223330e+01	-2.715131e+00
1.230396e+01	-2.738693e+00
1.237503e+01	-2.762187e+00
1.244651e+01	-2.785704e+00
1.251840e+01	-2.809333e+00
1.259070e+01	-2.833295e+00
1.266343e+01	-2.857468e+00
1.273657e+01	-2.881541e+00
1.281014e+01	-2.906128e+00
1.288413e+01	-2.930643e+00
1.295855e+01	-2.955015e+00
1.303339e+01	-2.979548e+00
1.310867e+01	-3.004900e+00
1.318439e+01	-3.029720e+00
1.326054e+01	-3.054700e+00
1.333713e+01	-3.080108e+00
1.341417e+01	-3.105694e+00
1.349165e+01	-3.131403e+00
1.356958e+01	-3.157019e+00
1.364795e+01	-3.183130e+00
1.372678e+01	-3.208928e+00
1.380607e+01	-3.235448e+00
1.388581e+01	-3.261767e+00
1.396602e+01	-3.288332e+00
1.404668e+01	-3.314942e+00
1.412782e+01	-3.341627e+00
1.420942e+01	-3.368408e+00
1.429149e+01	-3.395365e+00
1.437404e+01	-3.422723e+00
1.445706e+01	-3.450110e+00
1.454057e+01	-3.477482e+00
1.462455e+01	-3.505050e+00
1.470902e+01	-3.533255e+00
1.479398e+01	-3.561020e+00
1.487943e+01	-3.588985e+00
1.496537e+01	-3.617187e+00
1.505181e+01	-3.645696e+00
1.513875e+01	-3.674231e+00
1.522619e+01	-3.702658e+00
1.531414e+01	-3.731498e+00
1.540259e+01	-3.760304e+00
1.549156e+01	-3.789448e+00
1.558103e+01	-3.818705e+00
1.567103e+01	-3.847818e+00
1.576155e+01	-3.877370e+00
1.585258e+01	-3.906784e+00
1.594415e+01	-3.936745e+00
1.603624e+01	-3.966660e+00
1.612886e+01	-3.996560e+00
1.622202e+01	-4.026839e+00
1.631572e+01	-4.057063e+00
1.640996e+01	-4.087550e+00
1.650474e+01	-4.118219e+00
1.660008e+01	-4.148770e+00
1.669596e+01	-4.179863e+00
1.679239e+01	-4.210732e+00
1.688938e+01	-4.241610e+00
1.698694e+01	-4.272834e+00
1.708505e+01	-4.304223e+00
1.718373e+01	-4.336027e+00
1.728299e+01	-4.367671e+00
1.738281e+01	-4.399352e+00
1.748322e+01	-4.431537e+00
1.758420e+01	-4.463403e+00
1.768576e+01	-4.495748e+00
1.778792e+01	-4.527603e+00
1.789066e+01	-4.560481e+00
1.799399e+01	-4.593040e+00
1.809793e+01	-4.625632e+00
1.820246e+01	-4.658572e+00
1.830760e+01	-4.691520e+00
1.841334e+01	-4.724445e+00
1.851969e+01	-4.757793e+00
1.862666e+01	-4.791114e+00
1.873425e+01	-4.824676e+00
1.884246e+01	-4.858243e+00
1.895129e+01	-4.892119e+00
1.906075e+01	-4.926032e+00
1.917085e+01	-4.959863e+00
1.928158e+01	-4.993950e+00
1.939295e+01	-5.028587e+00
1.950496e+01	-5.062716e+00
1.961762e+01	-5.097358e+00
1.973093e+01	-5.131863e+00
1.984490e+01	-5.166306e+00
1.995952e+01	-5.201213e+00
2.007480e+01	-5.236211e+00
2.019076e+01	-5.271542e+00
2.030738e+01	-5.306929e+00
2.042467e+01	-5.342034e+00
2.054264e+01	-5.377329e+00
2.066130e+01	-5.412898e+00
2.078064e+01	-5.448703e+00
2.090066e+01	-5.484628e+00
2.102139e+01	-5.520596e+00
2.114280e+01	-5.556391e+00
2.126492e+01	-5.592642e+00
2.138775e+01	-5.628990e+00
2.151128e+01	-5.665310e+00
2.163553e+01	-5.701760e+00
2.176050e+01	-5.738495e+00
2.188619e+01	-5.775280e+00
2.201260e+01	-5.812254e+00
2.213974e+01	-5.849203e+00
2.226762e+01	-5.886491e+00
2.239624e+01	-5.923145e+00
2.252560e+01	-5.960421e+00
2.265571e+01	-5.997849e+00
2.278656e+01	-6.035556e+00
2.291818e+01	-6.072966e+00
2.305055e+01	-6.110963e+00
2.318369e+01	-6.148610e+00
2.331760e+01	-6.186463e+00
2.345228e+01	-6.224771e+00
2.358774e+01	-6.262566e+00
2.372398e+01	-6.300631e+00
2.386101e+01	-6.339421e+00
2.399883e+01	-6.378188e+00
2.413745e+01	-6.416530e+00
2.427686e+01	-6.454680e+00
2.441709e+01	-6.494027e+00
2.455812e+01	-6.532753e+00
2.469997e+01	-6.571767e+00
2.484263e+01	-6.610636e+00
2.498612e+01	-6.649867e+00
2.513044e+01	-6.689172e+00
2.527559e+01	-6.728324e+00
2.542158e+01	-6.767787e+00
2.556842e+01	-6.807348e+00
2.571610e+01	-6.846935e+00
2.586463e+01	-6.886953e+00
2.601403e+01	-6.927066e+00
2.616428e+01	-6.966758e+00
2.631541e+01	-7.006407e+00
2.646740e+01	-7.046654e+00
2.662028e+01	-7.086740e+00
2.677404e+01	-7.127586e+00
2.692868e+01	-7.167664e+00
2.708422e+01	-7.208180e+00
2.724066e+01	-7.248584e+00
2.739800e+01	-7.289249e+00
2.755625e+01	-7.330028e+00
2.771541e+01	-7.370807e+00
2.787550e+01	-7.411859e+00
2.803650e+01	-7.452786e+00
2.819844e+01	-7.493836e+00
2.836131e+01	-7.534965e+00
2.852513e+01	-7.576150e+00
2.868989e+01	-7.617483e+00
2.885560e+01	-7.659070e+00
2.902227e+01	-7.700577e+00
2.918990e+01	-7.741955e+00
2.935850e+01	-7.783587e+00
2.952807e+01	-7.825392e+00
2.969863e+01	-7.867308e+00
2.987016e+01	-7.909057e+00
3.004269e+01	-7.951080e+00
3.021622e+01	-7.993111e+00
3.039075e+01	-8.034845e+00
3.056628e+01	-8.077115e+00
3.074283e+01	-8.119549e+00
3.092040e+01	-8.161767e+00
3.109900e+01	-8.204689e+00
3.127862e+01	-8.247071e+00
3.145929e+01	-8.289840e+00
3.164099e+01	-8.332080e+00
3.182375e+01	-8.375322e+00
3.200756e+01	-8.417979e+00
3.219244e+01	-8.460719e+00
3.237838e+01	-8.503306e+00
3.256540e+01	-8.546222e+00
3.275349e+01	-8.589420e+00
3.294268e+01	-8.632422e+00
3.313295e+01	-8.675960e+00
3.332433e+01	-8.719075e+00
3.351681e+01	-8.762824e+00
3.371040e+01	-8.805464e+00
3.390511e+01	-8.849495e+00
3.410094e+01	-8.892893e+00
3.429791e+01	-8.936215e+00
3.449601e+01	-8.980199e+00
3.469526e+01	-9.023864e+00
3.489566e+01	-9.067859e+00
3.509721e+01	-9.111436e+00
3.529993e+01	-9.155586e+00
3.550382e+01	-9.199757e+00
3.570889e+01	-9.243537e+00
3.591515e+01	-9.287510e+00
3.612259e+01	-9.331763e+00
3.633123e+01	-9.375869e+00
3.654108e+01	-9.420185e+00
3.675214e+01	-9.464405e+00
3.696442e+01	-9.509010e+00
3.717792e+01	-9.553823e+00
3.739266e+01	-9.598119e+00
3.760864e+01	-9.642658e+00
3.782587e+01	-9.687287e+00
3.804435e+01	-9.731629e+00
3.826409e+01	-9.776496e+00
3.848510e+01	-9.820838e+00
3.870739e+01	-9.866215e+00
3.893096e+01	-9.910986e+00
3.915583e+01	-9.955862e+00
3.938199e+01	-1.000063e+01
3.960946e+01	-1.004600e+01
3.983824e+01	-1.009148e+01
4.006834e+01	-1.013646e+01
4.029978e+01	-1.018116e+01
4.053255e+01	-1.022699e+01
4.076666e+01	-1.027217e+01
4.100213e+01	-1.031732e+01
4.123896e+01	-1.036291e+01
4.147715e+01	-1.040849e+01
4.171672e+01	-1.045410e+01
4.195767e+01	-1.049967e+01
4.220002e+01	-1.054516e+01
4.244377e+01	-1.059043e+01
4.268892e+01	-1.063619e+01
4.293549e+01	-1.068235e+01
4.318348e+01	-1.072788e+01
4.343291e+01	-1.077349e+01
4.368377e+01	-1.081862e+01
4.393609e+01	-1.086548e+01
4.418986e+01	-1.091174e+01
4.444510e+01	-1.095710e+01
4.470182e+01	-1.100310e+01
4.496001e+01	-1.104977e+01
4.521970e+01	-1.109536e+01
4.548089e+01	-1.114159e+01
4.574358e+01	-1.118824e+01
4.600779e+01	-1.123393e+01
4.627353e+01	-1.128071e+01
4.654081e+01	-1.132730e+01
4.680963e+01	-1.137341e+01
4.708000e+01	-1.141957e+01
4.735193e+01	-1.146590e+01
4.762543e+01	-1.151265e+01
4.790051e+01	-1.155879e+01
4.817719e+01	-1.160490e+01
4.845545e+01	-1.165239e+01
4.873533e+01	-1.169894e+01
4.901682e+01	-1.174593e+01
4.929994e+01	-1.179198e+01
4.958470e+01	-1.183927e+01
4.987110e+01	-1.188513e+01
5.015915e+01	-1.193233e+01
5.044887e+01	-1.197896e+01
5.074026e+01	-1.202620e+01
5.103333e+01	-1.207321e+01
5.132810e+01	-1.211956e+01
5.162457e+01	-1.216706e+01
5.192275e+01	-1.221377e+01
5.222265e+01	-1.226072e+01
5.252429e+01	-1.230753e+01
5.282767e+01	-1.235497e+01
5.313280e+01	-1.240174e+01
5.343969e+01	-1.244992e+01
5.374836e+01	-1.249622e+01
5.405880e+01	-1.254394e+01
5.437105e+01	-1.259085e+01
5.468509e+01	-1.263838e+01
5.500095e+01	-1.268492e+01
5.531863e+01	-1.273288e+01
5.563815e+01	-1.278043e+01
5.595951e+01	-1.282811e+01
5.628273e+01	-1.287493e+01
5.660782e+01	-1.292280e+01
5.693479e+01	-1.297092e+01
5.726364e+01	-1.301757e+01
5.759439e+01	-1.306515e+01
5.792705e+01	-1.311257e+01
5.826164e+01	-1.316090e+01
5.859815e+01	-1.320786e+01
5.893662e+01	-1.325523e+01
5.927703e+01	-1.330322e+01
5.961941e+01	-1.335061e+01
5.996377e+01	-1.339875e+01
6.031012e+01	-1.344673e+01
6.065847e+01	-1.349499e+01
6.100883e+01	-1.354242e+01
6.136121e+01	-1.359069e+01
6.171563e+01	-1.363715e+01
6.207210e+01	-1.368586e+01
6.243063e+01	-1.373342e+01
6.279122e+01	-1.378114e+01
6.315390e+01	-1.382991e+01
6.351868e+01	-1.387749e+01
6.388556e+01	-1.392619e+01
6.425456e+01	-1.397295e+01
6.462569e+01	-1.402247e+01
6.499897e+01	-1.406968e+01
6.537440e+01	-1.411768e+01
6.575200e+01	-1.416624e+01
6.613178e+01	-1.421435e+01
6.651375e+01	-1.426259e+01
6.689793e+01	-1.430989e+01
6.728433e+01	-1.435852e+01
6.767297e+01	-1.440729e+01
6.806384e+01	-1.445431e+01
6.845698e+01	-1.450293e+01
6.885238e+01	-1.455125e+01
6.925007e+01	-1.459957e+01
6.965005e+01	-1.464740e+01
7.005235e+01	-1.469556e+01
7.045697e+01	-1.474386e+01
7.086393e+01	-1.479338e+01
7.127323e+01	-1.484108e+01
7.168490e+01	-1.488896e+01
7.209895e+01	-1.493752e+01
7.251539e+01	-1.498719e+01
7.293424e+01	-1.503542e+01
7.335551e+01	-1.508378e+01
7.377920e+01	-1.513160e+01
7.420535e+01	-1.518054e+01
7.463396e+01	-1.522786e+01
7.506504e+01	-1.527770e+01
7.549861e+01	-1.532640e+01
7.593469e+01	-1.537434e+01
7.637328e+01	-1.542356e+01
7.681441e+01	-1.547198e+01
7.725809e+01	-1.552067e+01
7.770433e+01	-1.556889e+01
7.815315e+01	-1.561779e+01
7.860456e+01	-1.566631e+01
7.905857e+01	-1.571471e+01
7.951521e+01	-1.576320e+01
7.997449e+01	-1.581239e+01
8.043642e+01	-1.586130e+01
8.090102e+01	-1.591004e+01
8.136830e+01	-1.595880e+01
8.183828e+01	-1.600781e+01
8.231097e+01	-1.605633e+01
8.278640e+01	-1.610516e+01
8.326457e+01	-1.615412e+01
8.374550e+01	-1.620182e+01
8.422921e+01	-1.625214e+01
8.471572e+01	-1.630072e+01
8.520503e+01	-1.634940e+01
8.569717e+01	-1.639746e+01
8.619215e+01	-1.644709e+01
8.669000e+01	-1.649593e+01
8.719071e+01	-1.654423e+01
8.769432e+01	-1.659376e+01
8.820084e+01	-1.664202e+01
8.871029e+01	-1.669122e+01
8.922267e+01	-1.674005e+01
8.973802e+01	-1.679017e+01
9.025634e+01	-1.683865e+01
9.077766e+01	-1.688700e+01
9.130199e+01	-1.693600e+01
9.182935e+01	-1.698586e+01
9.235975e+01	-1.703389e+01
9.289321e+01	-1.708383e+01
9.342976e+01	-1.713322e+01
9.396941e+01	-1.718188e+01
9.451217e+01	-1.723037e+01
9.505807e+01	-1.728006e+01
9.560712e+01	-1.732861e+01
9.615934e+01	-1.737861e+01
9.671476e+01	-1.742726e+01
9.727338e+01	-1.747582e+01
9.783522e+01	-1.752584e+01
9.840032e+01	-1.757443e+01
9.896867e+01	-1.762432e+01
9.954031e+01	-1.767423e+01
1.001153e+02	-1.772185e+01
1.006935e+02	-1.777173e+01
1.012751e+02	-1.782011e+01
1.018601e+02	-1.786930e+01
1.024484e+02	-1.791767e+01
1.030402e+02	-1.796853e+01
1.036353e+02	-1.801743e+01
1.042339e+02	-1.806727e+01
1.048360e+02	-1.811577e+01
1.054415e+02	-1.816606e+01
1.060505e+02	-1.821411e+01
1.066631e+02	-1.826410e+01
1.072791e+02	-1.831390e+01
1.078988e+02	-1.836260e+01
1.085220e+02	-1.841166e+01
1.091488e+02	-1.846180e+01
1.097793e+02	-1.851137e+01
1.104133e+02	-1.855961e+01
1.110511e+02	-1.860943e+01
1.116925e+02	-1.865910e+01
1.123376e+02	-1.870870e+01
1.129865e+02	-1.875650e+01
1.136391e+02	-1.880775e+01
1.142955e+02	-1.885539e+01
1.149556e+02	-1.890462e+01
1.156196e+02	-1.895535e+01
1.162874e+02	-1.900393e+01
1.169591e+02	-1.905433e+01
1.176347e+02	-1.910303e+01
1.183141e+02	-1.915367e+01
1.189975e+02	-1.920130e+01
1.196848e+02	-1.925159e+01
1.203761e+02	-1.930092e+01
1.210714e+02	-1.935039e+01
1.217707e+02	-1.939873e+01
1.224740e+02	-1.944791e+01
1.231814e+02	-1.949747e+01
1.238929e+02	-1.954823e+01
1.246085e+02	-1.959792e+01
1.253283e+02	-1.964770e+01
1.260522e+02	-1.969644e+01
1.267802e+02	-1.974697e+01
1.275125e+02	-1.979597e+01
1.282490e+02	-1.984385e+01
1.289898e+02	-1.989346e+01
1.297348e+02	-1.994333e+01
1.304842e+02	-1.999526e+01
1.312378e+02	-2.004446e+01
1.319959e+02	-2.009110e+01
1.327583e+02	-2.014035e+01
1.335251e+02	-2.019237e+01
1.342963e+02	-2.024226e+01
1.350720e+02	-2.028961e+01
1.358522e+02	-2.034129e+01
1.366368e+02	-2.038956e+01
1.374260e+02	-2.043954e+01
1.382198e+02	-2.048931e+01
1.390182e+02	-2.053852e+01
1.398211e+02	-2.058825e+01
1.406287e+02	-2.063724e+01
1.414410e+02	-2.068648e+01
1.422579e+02	-2.073562e+01
1.430796e+02	-2.078729e+01
1.439060e+02	-2.083609e+01
1.447372e+02	-2.088629e+01
1.455732e+02	-2.093685e+01
1.464141e+02	-2.098440e+01
1.472597e+02	-2.103519e+01
1.481103e+02	-2.108477e+01
1.489658e+02	-2.113478e+01
1.498262e+02	-2.118300e+01
1.506916e+02	-2.123381e+01
1.515620e+02	-2.128348e+01
1.524374e+02	-2.133303e+01
1.533179e+02	-2.138222e+01
1.542034e+02	-2.143144e+01
1.550941e+02	-2.148059e+01
1.559899e+02	-2.153175e+01
1.568909e+02	-2.158376e+01
1.577971e+02	-2.163019e+01
1.587085e+02	-2.168232e+01
1.596252e+02	-2.172907e+01
1.605472e+02	-2.178053e+01
1.614745e+02	-2.183038e+01
1.624072e+02	-2.187933e+01
1.633453e+02	-2.192833e+01
1.642887e+02	-2.198061e+01
1.652377e+02	-2.202963e+01
1.661921e+02	-2.207830e+01
1.671520e+02	-2.212887e+01
1.681175e+02	-2.217813e+01
1.690885e+02	-2.222881e+01
1.700651e+02	-2.227748e+01
1.710474e+02	-2.232791e+01
1.720354e+02	-2.237774e+01
1.730291e+02	-2.242429e+01
1.740285e+02	-2.247572e+01
1.750337e+02	-2.252627e+01
1.760446e+02	-2.257539e+01
1.770615e+02	-2.262700e+01
1.780842e+02	-2.267433e+01
1.791128e+02	-2.272539e+01
1.801473e+02	-2.277475e+01
1.811878e+02	-2.282420e+01
1.822344e+02	-2.287209e+01
1.832870e+02	-2.292325e+01
1.843456e+02	-2.297472e+01
1.854104e+02	-2.302229e+01
1.864813e+02	-2.307412e+01
1.875584e+02	-2.312299e+01
1.886418e+02	-2.317577e+01
1.897313e+02	-2.322215e+01
1.908272e+02	-2.327379e+01
1.919294e+02	-2.332455e+01
1.930380e+02	-2.337178e+01
1.941530e+02	-2.342022e+01
1.952744e+02	-2.347338e+01
1.964023e+02	-2.352374e+01
1.975367e+02	-2.357346e+01
1.986777e+02	-2.362131e+01
1.998252e+02	-2.367271e+01
2.009794e+02	-2.371974e+01
2.021403e+02	-2.377104e+01
2.033078e+02	-2.382143e+01
2.044821e+02	-2.386975e+01
2.056632e+02	-2.392099e+01
2.068511e+02	-2.397006e+01
2.080459e+02	-2.402145e+01
2.092475e+02	-2.406944e+01
2.104561e+02	-2.411875e+01
2.116717e+02	-2.417028e+01
2.128943e+02	-2.422233e+01
2.141240e+02	-2.427021e+01
2.153608e+02	-2.432000e+01
2.166047e+02	-2.436732e+01
2.178558e+02	-2.442010e+01
2.191141e+02	-2.446921e+01
2.203797e+02	-2.452078e+01
2.216526e+02	-2.457032e+01
2.229329e+02	-2.461933e+01
2.242205e+02	-2.467207e+01
2.255156e+02	-2.471743e+01
2.268182e+02	-2.476710e+01
2.281283e+02	-2.481915e+01
2.294459e+02	-2.486933e+01
2.307712e+02	-2.491846e+01
2.321041e+02	-2.497070e+01
2.334447e+02	-2.501864e+01
2.347931e+02	-2.507134e+01
2.361493e+02	-2.511798e+01
2.375133e+02	-2.516675e+01
2.388851e+02	-2.521824e+01
2.402649e+02	-2.527010e+01
2.416527e+02	-2.531734e+01
2.430484e+02	-2.536605e+01
2.444523e+02	-2.541765e+01
2.458642e+02	-2.546939e+01
2.472843e+02	-2.551877e+01
2.487126e+02	-2.556706e+01
2.501492e+02	-2.561749e+01
2.515940e+02	-2.566794e+01
2.530472e+02	-2.571846e+01
2.545088e+02	-2.576623e+01
2.559789e+02	-2.581553e+01
2.574574e+02	-2.586782e+01
2.589444e+02	-2.591792e+01
2.604401e+02	-2.596780e+01
2.619444e+02	-2.602125e+01
2.634574e+02	-2.606783e+01
2.649791e+02	-2.611767e+01
2.665096e+02	-2.616824e+01
2.680489e+02	-2.621801e+01
2.695972e+02	-2.627000e+01
2.711544e+02	-2.631340e+01
2.727205e+02	-2.636588e+01
2.742958e+02	-2.641860e+01
2.758801e+02	-2.647002e+01
2.774736e+02	-2.651618e+01
2.790762e+02	-2.656879e+01
2.806882e+02	-2.661795e+01
2.823094e+02	-2.666869e+01
2.839400e+02	-2.671648e+01
2.855800e+02	-2.676913e+01
2.872295e+02	-2.681965e+01
2.888886e+02	-2.686817e+01
2.905572e+02	-2.691815e+01
2.922354e+02	-2.696695e+01
2.939234e+02	-2.701472e+01
2.956211e+02	-2.706749e+01
2.973286e+02	-2.711702e+01
2.990459e+02	-2.716636e+01
3.007732e+02	-2.721752e+01
3.025104e+02	-2.726528e+01
3.042577e+02	-2.731505e+01
3.060151e+02	-2.736626e+01
3.077826e+02	-2.741645e+01
3.095604e+02	-2.746695e+01
3.113484e+02	-2.751631e+01
3.131467e+02	-2.756886e+01
3.149554e+02	-2.761540e+01
3.167746e+02	-2.766442e+01
3.186043e+02	-2.771491e+01
3.204445e+02	-2.776741e+01
3.222954e+02	-2.781766e+01
3.241570e+02	-2.787040e+01
3.260293e+02	-2.791790e+01
3.279124e+02	-2.796660e+01
3.298064e+02	-2.801827e+01
3.317114e+02	-2.806813e+01
3.336273e+02	-2.811851e+01
3.355544e+02	-2.816781e+01
3.374925e+02	-2.821754e+01
3.394418e+02	-2.826368e+01
3.414024e+02	-2.831581e+01
3.433744e+02	-2.837019e+01
3.453577e+02	-2.841886e+01
3.473525e+02	-2.846849e+01
3.493588e+02	-2.851758e+01
3.513766e+02	-2.856562e+01
3.534062e+02	-2.861613e+01
3.554474e+02	-2.866860e+01
3.575005e+02	-2.871740e+01
3.595654e+02	-2.876948e+01
3.616422e+02	-2.882082e+01
3.637311e+02	-2.886685e+01
3.658320e+02	-2.891636e+01
3.679450e+02	-2.896762e+01
3.700702e+02	-2.901922e+01
3.722077e+02	-2.906908e+01
3.743576e+02	-2.911896e+01
3.765199e+02	-2.916835e+01
3.786946e+02	-2.921645e+01
3.808820e+02	-2.926275e+01
3.830819e+02	-2.932114e+01
3.852946e+02	-2.936668e+01
3.875200e+02	-2.941870e+01
3.897583e+02	-2.947629e+01
3.920096e+02	-2.951937e+01
3.942738e+02	-2.956984e+01
3.965511e+02	-2.962374e+01
3.988416e+02	-2.966867e+01
4.011452e+02	-2.972084e+01
4.034622e+02	-2.977047e+01
4.057926e+02	-2.982043e+01
4.081365e+02	-2.987252e+01
4.104938e+02	-2.992119e+01
4.128648e+02	-2.997452e+01
4.152495e+02	-3.001575e+01
4.176480e+02	-3.007269e+01
4.200603e+02	-3.011883e+01
4.224866e+02	-3.016607e+01
4.249268e+02	-3.022049e+01
4.273812e+02	-3.027047e+01
4.298497e+02	-3.032070e+01
4.323325e+02	-3.037338e+01
4.348297e+02	-3.042179e+01
4.373412e+02	-3.047026e+01
4.398673e+02	-3.052816e+01
4.424079e+02	-3.057466e+01
4.449633e+02	-3.062572e+01
4.475334e+02	-3.067442e+01
4.501183e+02	-3.072032e+01
4.527182e+02	-3.076877e+01
4.553330e+02	-3.082156e+01
4.579630e+02	-3.087604e+01
4.606082e+02	-3.092234e+01
4.632687e+02	-3.096572e+01
4.659445e+02	-3.102244e+01
4.686358e+02	-3.107300e+01
4.713426e+02	-3.112787e+01
4.740650e+02	-3.117101e+01
4.768032e+02	-3.122638e+01
4.795572e+02	-3.127789e+01
4.823271e+02	-3.132107e+01
4.851130e+02	-3.137710e+01
4.879150e+02	-3.142178e+01
4.907332e+02	-3.147482e+01
4.935676e+02	-3.152462e+01
4.964185e+02	-3.157269e+01
4.992858e+02	-3.162078e+01
5.021696e+02	-3.167623e+01
5.050701e+02	-3.172642e+01
5.079874e+02	-3.177963e+01
5.109215e+02	-3.183314e+01
5.138726e+02	-3.187068e+01
5.168407e+02	-3.192757e+01
5.198259e+02	-3.196555e+01
5.228284e+02	-3.202724e+01
5.258482e+02	-3.207353e+01
5.288855e+02	-3.212203e+01
5.319403e+02	-3.218377e+01
5.350128e+02	-3.222368e+01
5.381030e+02	-3.227706e+01
5.412111e+02	-3.232561e+01
5.443371e+02	-3.238111e+01
5.474812e+02	-3.242851e+01
5.506434e+02	-3.247496e+01
5.538239e+02	-3.253305e+01
5.570228e+02	-3.257939e+01
5.602401e+02	-3.263197e+01
5.634760e+02	-3.267828e+01
5.667306e+02	-3.273896e+01
5.700040e+02	-3.278291e+01
5.732964e+02	-3.283729e+01
5.766077e+02	-3.287415e+01
5.799382e+02	-3.293665e+01
5.832879e+02	-3.297632e+01
5.866569e+02	-3.303495e+01
5.900454e+02	-3.307855e+01
5.934535e+02	-3.313266e+01
5.968813e+02	-3.318336e+01
6.003288e+02	-3.323097e+01
6.037963e+02	-3.328430e+01
6.072838e+02	-3.333894e+01
6.107914e+02	-3.338451e+01
6.143194e+02	-3.343793e+01
6.178676e+02	-3.348464e+01
6.214364e+02	-3.353617e+01
6.250258e+02	-3.358810e+01
6.286359e+02	-3.364277e+01
6.322669e+02	-3.369210e+01
6.359189e+02	-3.373502e+01
6.395919e+02	-3.378923e+01
6.432862e+02	-3.383132e+01
6.470017e+02	-3.388364e+01
6.507388e+02	-3.393006e+01
6.544974e+02	-3.398958e+01
6.582778e+02	-3.404625e+01
6.620800e+02	-3.409602e+01
6.659041e+02	-3.414126e+01
6.697504e+02	-3.417686e+01
6.736188e+02	-3.423530e+01
6.775096e+02	-3.429262e+01
6.814229e+02	-3.433864e+01
6.853587e+02	-3.439179e+01
6.893173e+02	-3.444125e+01
6.932988e+02	-3.448593e+01
6.973033e+02	-3.454569e+01
7.013309e+02	-3.459716e+01
