Frequency(Hz)	Magnitude(dB)
1.000000e+01	-2.052974e+00
1.005776e+01	-2.071986e+00
1.011585e+01	-2.091037e+00
1.017428e+01	-2.109875e+00
1.023305e+01	-2.129316e+00
1.029215e+01	-2.148989e+00
1.035160e+01	-2.168504e+00
1.041139e+01	-2.188170e+00
1.047153e+01	-2.208057e+00
1.053201e+01	-2.228256e+00
1.059284e+01	-2.248290e+00
1.065403e+01	-2.268569e+00
1.071556e+01	-2.288983e+00
1.077746e+01	-2.309526e+00
1.083971e+01	-2.330145e+00
1.090232e+01	-2.350994e+00
1.096529e+01	-2.372010e+00
1.102862e+01	-2.393144e+00
1.109232e+01	-2.414413e+00
1.115639e+01	-2.435770e+00
1.122083e+01	-2.457512e+00
1.128564e+01	-2.479013e+00
1.135083e+01	-2.500659e+00
1.141639e+01	-2.522808e+00
1.148233e+01	-2.544957e+00
1.154865e+01	-2.567093e+00
1.161536e+01	-2.589333e+00
1.168245e+01	-2.612281e+00
1.174992e+01	-2.634786e+00
1.181779e+01	-2.657656e+00
1.188605e+01	-2.680597e+00
1.195470e+01	-2.703723e+00
1.202375e+01	-2.727056e+00
1.209320e+01	-2.750366e+00
1.216305e+01	-2.773820e+00
1.223330e+01	-2.797739e+00
1.230396e+01	-2.821367e+00
1.237503e+01	-2.845421e+00
1.244651e+01	-2.869440e+00
1.251840e+01	-2.893864e+00
1.259070e+01	-2.918468e+00
1.266343e+01	-2.942666e+00
1.273657e+01	-2.967364e+00
1.281014e+01	-2.992487e+00
1.288413e+01	-3.017201e+00
1.295855e+01	-3.042514e+00
1.303339e+01	-3.067403e+00
1.310867e+01	-3.092922e+00
1.318439e+01	-3.118773e+00
1.326054e+01	-3.144259e+00
1.333713e+01	-3.170067e+00
1.341417e+01	-3.196016e+00
1.349165e+01	-3.222434e+00
1.356958e+01	-3.248480e+00
1.364795e+01	-3.274796e+00
1.372678e+01	-3.301664e+00
1.380607e+01	-3.328170e+00
1.388581e+01	-3.355094e+00
1.396602e+01	-3.382025e+00
1.404668e+01	-3.409289e+00
1.412782e+01	-3.436497e+00
1.420942e+01	-3.463891e+00
1.429149e+01	-3.491439e+00
1.437404e+01	-3.519430e+00
1.445706e+01	-3.546993e+00
1.454057e+01	-3.574977e+00
1.462455e+01	-3.603188e+00
1.470902e+01	-3.631456e+00
1.479398e+01	-3.659767e+00
1.487943e+01	-3.688431e+00
1.496537e+01	-3.717034e+00
1.505181e+01	-3.745770e+00
1.513875e+01	-3.774924e+00
1.522619e+01	-3.803899e+00
1.531414e+01	-3.833402e+00
1.540259e+01	-3.862645e+00
1.549156e+01	-3.892441e+00
1.558103e+01	-3.921899e+00
1.567103e+01	-3.951597e+00
1.576155e+01	-3.981699e+00
1.585258e+01	-4.011618e+00
1.594415e+01	-4.042016e+00
1.603624e+01	-4.072170e+00
1.612886e+01	-4.103045e+00
1.622202e+01	-4.133679e+00
1.631572e+01	-4.164297e+00
1.640996e+01	-4.195282e+00
1.650474e+01	-4.226115e+00
1.660008e+01	-4.257797e+00
1.669596e+01	-4.288939e+00
1.679239e+01	-4.320397e+00
1.688938e+01	-4.351922e+00
1.698694e+01	-4.383714e+00
1.708505e+01	-4.415518e+00
1.718373e+01	-4.447713e+00
1.728299e+01	-4.479714e+00
1.738281e+01	-4.511929e+00
1.748322e+01	-4.544054e+00
1.758420e+01	-4.576836e+00
1.768576e+01	-4.609654e+00
1.778792e+01	-4.642061e+00
1.789066e+01	-4.675324e+00
1.799399e+01	-4.708222e+00
1.809793e+01	-4.741469e+00
1.820246e+01	-4.774614e+00
1.830760e+01	-4.808300e+00
1.841334e+01	-4.841569e+00
1.851969e+01	-4.875356e+00
1.862666e+01	-4.908971e+00
1.873425e+01	-4.942978e+00
1.884246e+01	-4.977102e+00
1.895129e+01	-5.011309e+00
1.906075e+01	-5.045600e+00
1.917085e+01	-5.080051e+00
1.928158e+01	-5.114406e+00
1.939295e+01	-5.149047e+00
1.950496e+01	-5.183952e+00
1.961762e+01	-5.218861e+00
1.973093e+01	-5.254167e+00
1.984490e+01	-5.289064e+00
1.995952e+01	-5.324565e+00
2.007480e+01	-5.359818e+00
2.019076e+01	-5.395617e+00
2.030738e+01	-5.430962e+00
2.042467e+01	-5.466715e+00
2.054264e+01	-5.502714e+00
2.066130e+01	-5.538587e+00
2.078064e+01	-5.574865e+00
2.090066e+01	-5.611319e+00
2.102139e+01	-5.647552e+00
2.114280e+01	-5.683679e+00
2.126492e+01	-5.720512e+00
2.138775e+01	-5.757100e+00
2.151128e+01	-5.793734e+00
2.163553e+01	-5.830734e+00
2.176050e+01	-5.867784e+00
2.188619e+01	-5.904866e+00
2.201260e+01	-5.941955e+00
2.213974e+01	-5.979739e+00
2.226762e+01	-6.016989e+00
2.239624e+01	-6.054459e+00
2.252560e+01	-6.092169e+00
2.265571e+01	-6.129966e+00
2.278656e+01	-6.167640e+00
2.291818e+01	-6.205905e+00
2.305055e+01	-6.243954e+00
2.318369e+01	-6.282366e+00
2.331760e+01	-6.320144e+00
2.345228e+01	-6.358744e+00
2.358774e+01	-6.397461e+00
2.372398e+01	-6.435846e+00
2.386101e+01	-6.475035e+00
2.399883e+01	-6.513384e+00
2.413745e+01	-6.552103e+00
2.427686e+01	-6.591430e+00
2.441709e+01	-6.630228e+00
2.455812e+01	-6.669688e+00
2.469997e+01	-6.709182e+00
2.484263e+01	-6.748258e+00
2.498612e+01	-6.788078e+00
2.513044e+01	-6.827568e+00
2.527559e+01	-6.866983e+00
2.542158e+01	-6.906886e+00
2.556842e+01	-6.946806e+00
2.571610e+01	-6.986546e+00
2.586463e+01	-7.026973e+00
2.601403e+01	-7.067164e+00
2.616428e+01	-7.107285e+00
2.631541e+01	-7.147500e+00
2.646740e+01	-7.188160e+00
2.662028e+01	-7.228917e+00
2.677404e+01	-7.269292e+00
2.692868e+01	-7.309846e+00
2.708422e+01	-7.350407e+00
2.724066e+01	-7.391291e+00
2.739800e+01	-7.432542e+00
2.755625e+01	-7.473166e+00
2.771541e+01	-7.514603e+00
2.787550e+01	-7.555141e+00
2.803650e+01	-7.597274e+00
2.819844e+01	-7.638297e+00
2.836131e+01	-7.680301e+00
2.852513e+01	-7.721702e+00
2.868989e+01	-7.762922e+00
2.885560e+01	-7.804138e+00
2.902227e+01	-7.846703e+00
2.918990e+01	-7.888326e+00
2.935850e+01	-7.930103e+00
2.952807e+01	-7.972656e+00
2.969863e+01	-8.014124e+00
2.987016e+01	-8.056502e+00
3.004269e+01	-8.098967e+00
3.021622e+01	-8.140959e+00
3.039075e+01	-8.183094e+00
3.056628e+01	-8.225437e+00
3.074283e+01	-8.268751e+00
3.092040e+01	-8.310753e+00
3.109900e+01	-8.353829e+00
3.127862e+01	-8.396544e+00
3.145929e+01	-8.439400e+00
3.164099e+01	-8.482080e+00
3.182375e+01	-8.524960e+00
3.200756e+01	-8.568064e+00
3.219244e+01	-8.611266e+00
3.237838e+01	-8.654141e+00
3.256540e+01	-8.697770e+00
3.275349e+01	-8.740593e+00
3.294268e+01	-8.784486e+00
3.313295e+01	-8.827324e+00
3.332433e+01	-8.871301e+00
3.351681e+01	-8.915004e+00
3.371040e+01	-8.958521e+00
3.390511e+01	-9.002401e+00
3.410094e+01	-9.046024e+00
3.429791e+01	-9.089401e+00
3.449601e+01	-9.133687e+00
3.469526e+01	-9.177976e+00
3.489566e+01	-9.221557e+00
3.509721e+01	-9.265929e+00
3.529993e+01	-9.309771e+00
3.550382e+01	-9.354139e+00
3.570889e+01	-9.398108e+00
3.591515e+01	-9.442419e+00
3.612259e+01	-9.486701e+00
3.633123e+01	-9.531325e+00
3.654108e+01	-9.576383e+00
3.675214e+01	-9.620358e+00
3.696442e+01	-9.664915e+00
3.717792e+01	-9.709200e+00
3.739266e+01	-9.754318e+00
3.760864e+01	-9.798828e+00
3.782587e+01	-9.843959e+00
3.804435e+01	-9.888706e+00
3.826409e+01	-9.933748e+00
3.848510e+01	-9.978909e+00
3.870739e+01	-1.002344e+01
3.893096e+01	-1.006890e+01
3.915583e+01	-1.011418e+01
3.938199e+01	-1.015850e+01
3.960946e+01	-1.020478e+01
3.983824e+01	-1.024933e+01
4.006834e+01	-1.029457e+01
4.029978e+01	-1.034084e+01
4.053255e+01	-1.038587e+01
4.076666e+01	-1.043147e+01
4.100213e+01	-1.047698e+01
4.123896e+01	-1.052234e+01
4.147715e+01	-1.056831e+01
4.171672e+01	-1.061379e+01
4.195767e+01	-1.065923e+01
4.220002e+01	-1.070520e+01
4.244377e+01	-1.075055e+01
4.268892e+01	-1.079625e+01
4.293549e+01	-1.084277e+01
4.318348e+01	-1.088843e+01
4.343291e+01	-1.093403e+01
4.368377e+01	-1.098077e+01
4.393609e+01	-1.102636e+01
4.418986e+01	-1.107232e+01
4.444510e+01	-1.111876e+01
4.470182e+01	-1.116522e+01
4.496001e+01	-1.121085e+01
4.521970e+01	-1.125739e+01
4.548089e+01	-1.130402e+01
4.574358e+01	-1.135035e+01
4.600779e+01	-1.139553e+01
4.627353e+01	-1.144254e+01
4.654081e+01	-1.148891e+01
4.680963e+01	-1.153556e+01
4.708000e+01	-1.158240e+01
4.735193e+01	-1.162959e+01
4.762543e+01	-1.167584e+01
4.790051e+01	-1.172274e+01
4.817719e+01	-1.176869e+01
4.845545e+01	-1.181546e+01
4.873533e+01	-1.186187e+01
4.901682e+01	-1.190916e+01
4.929994e+01	-1.195511e+01
4.958470e+01	-1.200309e+01
4.987110e+01	-1.204890e+01
5.015915e+01	-1.209706e+01
5.044887e+01	-1.214351e+01
5.074026e+01	-1.219024e+01
5.103333e+01	-1.223817e+01
5.132810e+01	-1.228457e+01
5.162457e+01	-1.233192e+01
5.192275e+01	-1.237890e+01
5.222265e+01	-1.242595e+01
5.252429e+01	-1.247342e+01
5.282767e+01	-1.252074e+01
5.313280e+01	-1.256709e+01
5.343969e+01	-1.261487e+01
5.374836e+01	-1.266212e+01
5.405880e+01	-1.270915e+01
5.437105e+01	-1.275659e+01
5.468509e+01	-1.280371e+01
5.500095e+01	-1.285156e+01
5.531863e+01	-1.289927e+01
5.563815e+01	-1.294718e+01
5.595951e+01	-1.299362e+01
5.628273e+01	-1.304177e+01
5.660782e+01	-1.308910e+01
5.693479e+01	-1.313662e+01
5.726364e+01	-1.318502e+01
5.759439e+01	-1.323222e+01
5.792705e+01	-1.327967e+01
5.826164e+01	-1.332732e+01
5.859815e+01	-1.337532e+01
5.893662e+01	-1.342283e+01
5.927703e+01	-1.347085e+01
5.961941e+01	-1.351803e+01
5.996377e+01	-1.356684e+01
6.031012e+01	-1.361448e+01
6.065847e+01	-1.366155e+01
6.100883e+01	-1.370976e+01
6.136121e+01	-1.375734e+01
6.171563e+01	-1.380555e+01
6.207210e+01	-1.385440e+01
6.243063e+01	-1.390131e+01
6.279122e+01	-1.394885e+01
6.315390e+01	-1.399780e+01
6.351868e+01	-1.404591e+01
6.388556e+01	-1.409349e+01
6.425456e+01	-1.414217e+01
6.462569e+01	-1.418941e+01
6.499897e+01	-1.423757e+01
6.537440e+01	-1.428621e+01
6.575200e+01	-1.433480e+01
6.613178e+01	-1.438264e+01
6.651375e+01	-1.443099e+01
6.689793e+01	-1.447959e+01
6.728433e+01	-1.452718e+01
6.767297e+01	-1.457528e+01
6.806384e+01	-1.462408e+01
6.845698e+01	-1.467161e+01
6.885238e+01	-1.472086e+01
6.925007e+01	-1.476898e+01
6.965005e+01	-1.481662e+01
7.005235e+01	-1.486587e+01
7.045697e+01	-1.491466e+01
7.086393e+01	-1.496160e+01
7.127323e+01	-1.501052e+01
7.168490e+01	-1.505918e+01
7.209895e+01	-1.510772e+01
7.251539e+01	-1.515648e+01
7.293424e+01	-1.520399e+01
7.335551e+01	-1.525317e+01
7.377920e+01	-1.530050e+01
7.420535e+01	-1.535077e+01
7.463396e+01	-1.539932e+01
7.506504e+01	-1.544789e+01
7.549861e+01	-1.549638e+01
7.593469e+01	-1.554461e+01
7.637328e+01	-1.559402e+01
7.681441e+01	-1.564206e+01
7.725809e+01	-1.569102e+01
7.770433e+01	-1.573936e+01
7.815315e+01	-1.578875e+01
7.860456e+01	-1.583699e+01
7.905857e+01	-1.588493e+01
7.951521e+01	-1.593552e+01
7.997449e+01	-1.598255e+01
8.043642e+01	-1.603203e+01
8.090102e+01	-1.608086e+01
8.136830e+01	-1.612958e+01
8.183828e+01	-1.617869e+01
8.231097e+01	-1.622711e+01
8.278640e+01	-1.627626e+01
8.326457e+01	-1.632466e+01
8.374550e+01	-1.637345e+01
8.422921e+01	-1.642265e+01
8.471572e+01	-1.647300e+01
8.520503e+01	-1.652035e+01
8.569717e+01	-1.657056e+01
8.619215e+01	-1.661798e+01
8.669000e+01	-1.666699e+01
8.719071e+01	-1.671691e+01
8.769432e+01	-1.676507e+01
8.820084e+01	-1.681411e+01
8.871029e+01	-1.686315e+01
8.922267e+01	-1.691163e+01
8.973802e+01	-1.696069e+01
9.025634e+01	-1.701085e+01
9.077766e+01	-1.705902e+01
9.130199e+01	-1.710824e+01
9.182935e+01	-1.715796e+01
9.235975e+01	-1.720721e+01
9.289321e+01	-1.725485e+01
9.342976e+01	-1.730374e+01
9.396941e+01	-1.735496e+01
9.451217e+01	-1.740221e+01
9.505807e+01	-1.745293e+01
9.560712e+01	-1.750263e+01
9.615934e+01	-1.755110e+01
9.671476e+01	-1.759969e+01
9.727338e+01	-1.764870e+01
9.783522e+01	-1.769726e+01
9.840032e+01	-1.774775e+01
9.896867e+01	-1.779572e+01
9.954031e+01	-1.784674e+01
1.001153e+02	-1.789483e+01
1.006935e+02	-1.794309e+01
1.012751e+02	-1.799413e+01
1.018601e+02	-1.804166e+01
1.024484e+02	-1.809161e+01
1.030402e+02	-1.814094e+01
1.036353e+02	-1.819126e+01
1.042339e+02	-1.823958e+01
1.048360e+02	-1.828829e+01
1.054415e+02	-1.833717e+01
1.060505e+02	-1.838672e+01
1.066631e+02	-1.843646e+01
1.072791e+02	-1.848645e+01
1.078988e+02	-1.853459e+01
1.085220e+02	-1.858469e+01
1.091488e+02	-1.863430e+01
1.097793e+02	-1.868266e+01
1.104133e+02	-1.873181e+01
1.110511e+02	-1.878347e+01
1.116925e+02	-1.883031e+01
1.123376e+02	-1.888134e+01
1.129865e+02	-1.892863e+01
1.136391e+02	-1.897950e+01
1.142955e+02	-1.902897e+01
1.149556e+02	-1.907915e+01
1.156196e+02	-1.912744e+01
1.162874e+02	-1.917706e+01
1.169591e+02	-1.922748e+01
1.176347e+02	-1.927602e+01
1.183141e+02	-1.932535e+01
1.189975e+02	-1.937598e+01
1.196848e+02	-1.942403e+01
1.203761e+02	-1.947473e+01
1.210714e+02	-1.952250e+01
1.217707e+02	-1.957397e+01
1.224740e+02	-1.962197e+01
1.231814e+02	-1.967110e+01
1.238929e+02	-1.972135e+01
1.246085e+02	-1.977021e+01
1.253283e+02	-1.982058e+01
1.260522e+02	-1.986904e+01
1.267802e+02	-1.991894e+01
1.275125e+02	-1.996807e+01
1.282490e+02	-2.001865e+01
1.289898e+02	-2.006820e+01
1.297348e+02	-2.011781e+01
1.304842e+02	-2.016690e+01
1.312378e+02	-2.021820e+01
1.319959e+02	-2.026749e+01
1.327583e+02	-2.031526e+01
1.335251e+02	-2.036450e+01
1.342963e+02	-2.041552e+01
1.350720e+02	-2.046338e+01
1.358522e+02	-2.051438e+01
1.366368e+02	-2.056557e+01
1.374260e+02	-2.061193e+01
1.382198e+02	-2.066359e+01
1.390182e+02	-2.071372e+01
1.398211e+02	-2.076243e+01
1.406287e+02	-2.081268e+01
1.414410e+02	-2.086149e+01
1.422579e+02	-2.090977e+01
1.430796e+02	-2.096076e+01
1.439060e+02	-2.101142e+01
1.447372e+02	-2.105950e+01
1.455732e+02	-2.110744e+01
1.464141e+02	-2.115987e+01
1.472597e+02	-2.121133e+01
1.481103e+02	-2.125872e+01
1.489658e+02	-2.130793e+01
1.498262e+02	-2.135726e+01
1.506916e+02	-2.140896e+01
1.515620e+02	-2.145781e+01
1.524374e+02	-2.150674e+01
1.533179e+02	-2.155709e+01
1.542034e+02	-2.160555e+01
1.550941e+02	-2.165632e+01
1.559899e+02	-2.170469e+01
1.568909e+02	-2.175694e+01
1.577971e+02	-2.180682e+01
1.587085e+02	-2.185454e+01
1.596252e+02	-2.190593e+01
1.605472e+02	-2.195389e+01
1.614745e+02	-2.200487e+01
1.624072e+02	-2.205439e+01
1.633453e+02	-2.210346e+01
1.642887e+02	-2.215260e+01
1.652377e+02	-2.220278e+01
1.661921e+02	-2.225341e+01
1.671520e+02	-2.230322e+01
1.681175e+02	-2.235200e+01
1.690885e+02	-2.240197e+01
1.700651e+02	-2.245042e+01
1.710474e+02	-2.250076e+01
1.720354e+02	-2.255341e+01
1.730291e+02	-2.260144e+01
1.740285e+02	-2.265316e+01
1.750337e+02	-2.270019e+01
1.760446e+02	-2.275002e+01
1.770615e+02	-2.280089e+01
1.780842e+02	-2.285082e+01
1.791128e+02	-2.290052e+01
1.801473e+02	-2.294669e+01
1.811878e+02	-2.300013e+01
1.822344e+02	-2.305002e+01
1.832870e+02	-2.309696e+01
1.843456e+02	-2.314821e+01
1.854104e+02	-2.319866e+01
1.864813e+02	-2.324990e+01
1.875584e+02	-2.329751e+01
1.886418e+02	-2.334751e+01
1.897313e+02	-2.339792e+01
1.908272e+02	-2.344723e+01
1.919294e+02	-2.349841e+01
1.930380e+02	-2.354625e+01
1.941530e+02	-2.359611e+01
1.952744e+02	-2.364712e+01
1.964023e+02	-2.369648e+01
1.975367e+02	-2.374950e+01
1.986777e+02	-2.379824e+01
1.998252e+02	-2.384644e+01
2.009794e+02	-2.389408e+01
2.021403e+02	-2.394669e+01
2.033078e+02	-2.399638e+01
2.044821e+02	-2.404648e+01
2.056632e+02	-2.409635e+01
2.068511e+02	-2.414628e+01
2.080459e+02	-2.419905e+01
2.092475e+02	-2.424579e+01
2.104561e+02	-2.429359e+01
2.116717e+02	-2.434492e+01
2.128943e+02	-2.439478e+01
2.141240e+02	-2.444504e+01
2.153608e+02	-2.449515e+01
2.166047e+02	-2.454445e+01
2.178558e+02	-2.459394e+01
2.191141e+02	-2.464224e+01
2.203797e+02	-2.469312e+01
2.216526e+02	-2.474546e+01
2.229329e+02	-2.479446e+01
2.242205e+02	-2.484520e+01
2.255156e+02	-2.489303e+01
2.268182e+02	-2.494343e+01
2.281283e+02	-2.499535e+01
2.294459e+02	-2.504425e+01
2.307712e+02	-2.509297e+01
2.321041e+02	-2.514391e+01
2.334447e+02	-2.519195e+01
2.347931e+02	-2.524294e+01
2.361493e+02	-2.529482e+01
2.375133e+02	-2.534287e+01
2.388851e+02	-2.539138e+01
2.402649e+02	-2.544545e+01
2.416527e+02	-2.549225e+01
2.430484e+02	-2.554046e+01
2.444523e+02	-2.559242e+01
2.458642e+02	-2.564360e+01
2.472843e+02	-2.569144e+01
2.487126e+02	-2.574131e+01
2.501492e+02	-2.579125e+01
2.515940e+02	-2.583991e+01
2.530472e+02	-2.589144e+01
2.545088e+02	-2.594351e+01
2.559789e+02	-2.599240e+01
2.574574e+02	-2.604180e+01
2.589444e+02	-2.609308e+01
2.604401e+02	-2.614231e+01
2.619444e+02	-2.619453e+01
2.634574e+02	-2.624417e+01
2.649791e+02	-2.629020e+01
2.665096e+02	-2.634050e+01
2.680489e+02	-2.639567e+01
2.695972e+02	-2.644001e+01
2.711544e+02	-2.649052e+01
2.727205e+02	-2.654242e+01
2.742958e+02	-2.659128e+01
2.758801e+02	-2.664186e+01
2.774736e+02	-2.669431e+01
2.790762e+02	-2.674095e+01
2.806882e+02	-2.679185e+01
2.823094e+02	-2.684086e+01
2.839400e+02	-2.689320e+01
2.855800e+02	-2.694174e+01
2.872295e+02	-2.698906e+01
2.888886e+02	-2.703881e+01
2.905572e+02	-2.708992e+01
2.922354e+02	-2.714097e+01
2.939234e+02	-2.719184e+01
2.956211e+02	-2.724276e+01
2.973286e+02	-2.729066e+01
2.990459e+02	-2.733977e+01
3.007732e+02	-2.738809e+01
3.025104e+02	-2.744138e+01
3.042577e+02	-2.749128e+01
3.060151e+02	-2.754473e+01
3.077826e+02	-2.758983e+01
3.095604e+02	-2.764484e+01
3.113484e+02	-2.769343e+01
3.131467e+02	-2.773898e+01
3.149554e+02	-2.779498e+01
3.167746e+02	-2.783881e+01
3.186043e+02	-2.789354e+01
3.204445e+02	-2.794097e+01
3.222954e+02	-2.799454e+01
3.241570e+02	-2.804455e+01
3.260293e+02	-2.809344e+01
3.279124e+02	-2.814272e+01
3.298064e+02	-2.818540e+01
3.317114e+02	-2.824002e+01
3.336273e+02	-2.829214e+01
3.355544e+02	-2.833983e+01
3.374925e+02	-2.839018e+01
3.394418e+02	-2.844345e+01
3.414024e+02	-2.849476e+01
3.433744e+02	-2.854301e+01
3.453577e+02	-2.859375e+01
3.473525e+02	-2.864353e+01
3.493588e+02	-2.869145e+01
3.513766e+02	-2.874134e+01
3.534062e+02	-2.878934e+01
3.554474e+02	-2.884638e+01
3.575005e+02	-2.889153e+01
3.595654e+02	-2.894593e+01
3.616422e+02	-2.899348e+01
3.637311e+02	-2.903786e+01
3.658320e+02	-2.908892e+01
3.679450e+02	-2.914016e+01
3.700702e+02	-2.919426e+01
3.722077e+02	-2.924656e+01
3.743576e+02	-2.929177e+01
3.765199e+02	-2.934425e+01
3.786946e+02	-2.939078e+01
3.808820e+02	-2.944585e+01
3.830819e+02	-2.949204e+01
3.852946e+02	-2.954895e+01
3.875200e+02	-2.959691e+01
3.897583e+02	-2.964587e+01
3.920096e+02	-2.968996e+01
3.942738e+02	-2.974523e+01
3.965511e+02	-2.979662e+01
3.988416e+02	-2.984640e+01
4.011452e+02	-2.988884e+01
4.034622e+02	-2.993856e+01
4.057926e+02	-2.999258e+01
4.081365e+02	-3.004562e+01
4.104938e+02	-3.009360e+01
4.128648e+02	-3.014366e+01
4.152495e+02	-3.019482e+01
4.176480e+02	-3.024412e+01
4.200603e+02	-3.030136e+01
4.224866e+02	-3.034922e+01
4.249268e+02	-3.040229e+01
4.273812e+02	-3.044178e+01
4.298497e+02	-3.049748e+01
4.323325e+02	-3.054653e+01
4.348297e+02	-3.059513e+01
4.373412e+02	-3.064411e+01
4.398673e+02	-3.069848e+01
4.424079e+02	-3.074183e+01
4.449633e+02	-3.079449e+01
4.475334e+02	-3.084157e+01
4.501183e+02	-3.089773e+01
4.527182e+02	-3.094633e+01
4.553330e+02	-3.099710e+01
4.579630e+02	-3.104912e+01
4.606082e+02	-3.109992e+01
4.632687e+02	-3.114514e+01
4.659445e+02	-3.119692e+01
4.686358e+02	-3.124666e+01
4.713426e+02	-3.130010e+01
4.740650e+02	-3.134649e+01
4.768032e+02	-3.139513e+01
4.795572e+02	-3.144925e+01
4.823271e+02	-3.149637e+01
4.851130e+02	-3.154744e+01
4.879150e+02	-3.159920e+01
4.907332e+02	-3.164884e+01
4.935676e+02	-3.170405e+01
4.964185e+02	-3.175233e+01
4.992858e+02	-3.179627e+01
5.021696e+02	-3.185025e+01
5.050701e+02	-3.189154e+01
5.079874e+02	-3.195177e+01
5.109215e+02	-3.199932e+01
5.138726e+02	-3.205387e+01
5.168407e+02	-3.210626e+01
5.198259e+02	-3.215433e+01
5.228284e+02	-3.220694e+01
5.258482e+02	-3.224912e+01
5.288855e+02	-3.229561e+01
5.319403e+02	-3.235051e+01
5.350128e+02	-3.239819e+01
5.381030e+02	-3.245548e+01
5.412111e+02	-3.250431e+01
5.443371e+02	-3.255268e+01
5.474812e+02	-3.259641e+01
5.506434e+02	-3.264999e+01
5.538239e+02	-3.270630e+01
5.570228e+02	-3.274567e+01
5.602401e+02	-3.280084e+01
5.634760e+02	-3.285735e+01
5.667306e+02	-3.290414e+01
5.700040e+02	-3.294765e+01
5.732964e+02	-3.299992e+01
5.766077e+02	-3.306648e+01
5.799382e+02	-3.310994e+01
5.832879e+02	-3.315971e+01
5.866569e+02	-3.320386e+01
5.900454e+02	-3.326202e+01
5.934535e+02	-3.330874e+01
5.968813e+02	-3.336259e+01
6.003288e+02	-3.340574e+01
6.037963e+02	-3.345575e+01
6.072838e+02	-3.351148e+01
6.107914e+02	-3.355951e+01
6.143194e+02	-3.360787e+01
6.178676e+02	-3.365247e+01
6.214364e+02	-3.371453e+01
6.250258e+02	-3.375612e+01
6.286359e+02	-3.381073e+01
6.322669e+02	-3.385940e+01
6.359189e+02	-3.390676e+01
6.395919e+02	-3.396141e+01
6.432862e+02	-3.401069e+01
6.470017e+02	-3.406267e+01
6.507388e+02	-3.411248e+01
6.544974e+02	-3.416211e+01
6.582778e+02	-3.420956e+01
6.620800e+02	-3.426099e+01
6.659041e+02	-3.431231e+01
6.697504e+02	-3.436593e+01
6.736188e+02	-3.441162e+01
6.775096e+02	-3.446069e+01
6.814229e+02	-3.451875e+01
6.853587e+02	-3.456282e+01
6.893173e+02	-3.462285e+01
6.932988e+02	-3.467295e+01
6.973033e+02	-3.471686e+01
7.013309e+02	-3.476594e+01
