Frequency(Hz)	Magnitude(dB)
1.000000e+01	-2.104644e+00
1.005776e+01	-2.123888e+00
1.011585e+01	-2.143452e+00
1.017428e+01	-2.162856e+00
1.023305e+01	-2.182765e+00
1.029215e+01	-2.202396e+00
1.035160e+01	-2.222428e+00
1.041139e+01	-2.242360e+00
1.047153e+01	-2.262972e+00
1.053201e+01	-2.283281e+00
1.059284e+01	-2.303828e+00
1.065403e+01	-2.324605e+00
1.071556e+01	-2.345269e+00
1.077746e+01	-2.366167e+00
1.083971e+01	-2.387072e+00
1.090232e+01	-2.408450e+00
1.096529e+01	-2.429808e+00
1.102862e+01	-2.451481e+00
1.109232e+01	-2.473240e+00
1.115639e+01	-2.494858e+00
1.122083e+01	-2.516794e+00
1.128564e+01	-2.538586e+00
1.135083e+01	-2.561007e+00
1.141639e+01	-2.583450e+00
1.148233e+01	-2.606121e+00
1.154865e+01	-2.628542e+00
1.161536e+01	-2.651551e+00
1.168245e+01	-2.674187e+00
1.174992e+01	-2.697365e+00
1.181779e+01	-2.720462e+00
1.188605e+01	-2.743880e+00
1.195470e+01	-2.767321e+00
1.202375e+01	-2.791078e+00
1.209320e+01	-2.814869e+00
1.216305e+01	-2.838600e+00
1.223330e+01	-2.862964e+00
1.230396e+01	-2.886951e+00
1.237503e+01	-2.911633e+00
1.244651e+01	-2.935894e+00
1.251840e+01	-2.960701e+00
1.259070e+01	-2.985512e+00
1.266343e+01	-3.010463e+00
1.273657e+01	-3.035090e+00
1.281014e+01	-3.060479e+00
1.288413e+01	-3.085793e+00
1.295855e+01	-3.111552e+00
1.303339e+01	-3.137024e+00
1.310867e+01	-3.162761e+00
1.318439e+01	-3.189009e+00
1.326054e+01	-3.215140e+00
1.333713e+01	-3.241148e+00
1.341417e+01	-3.267836e+00
1.349165e+01	-3.294305e+00
1.356958e+01	-3.320893e+00
1.364795e+01	-3.347564e+00
1.372678e+01	-3.374615e+00
1.380607e+01	-3.401642e+00
1.388581e+01	-3.428866e+00
1.396602e+01	-3.456467e+00
1.404668e+01	-3.484067e+00
1.412782e+01	-3.511560e+00
1.420942e+01	-3.539305e+00
1.429149e+01	-3.567158e+00
1.437404e+01	-3.595293e+00
1.445706e+01	-3.623843e+00
1.454057e+01	-3.651880e+00
1.462455e+01	-3.680457e+00
1.470902e+01	-3.709186e+00
1.479398e+01	-3.737941e+00
1.487943e+01	-3.766859e+00
1.496537e+01	-3.795913e+00
1.505181e+01	-3.825331e+00
1.513875e+01	-3.854596e+00
1.522619e+01	-3.884181e+00
1.531414e+01	-3.913608e+00
1.540259e+01	-3.943624e+00
1.549156e+01	-3.973637e+00
1.558103e+01	-4.003374e+00
1.567103e+01	-4.033559e+00
1.576155e+01	-4.063980e+00
1.585258e+01	-4.094441e+00
1.594415e+01	-4.125145e+00
1.603624e+01	-4.155951e+00
1.612886e+01	-4.186564e+00
1.622202e+01	-4.217779e+00
1.631572e+01	-4.249058e+00
1.640996e+01	-4.280251e+00
1.650474e+01	-4.311800e+00
1.660008e+01	-4.343099e+00
1.669596e+01	-4.375023e+00
1.679239e+01	-4.406545e+00
1.688938e+01	-4.438636e+00
1.698694e+01	-4.470639e+00
1.708505e+01	-4.502949e+00
1.718373e+01	-4.535317e+00
1.728299e+01	-4.567759e+00
1.738281e+01	-4.600503e+00
1.748322e+01	-4.632973e+00
1.758420e+01	-4.666032e+00
1.768576e+01	-4.698835e+00
1.778792e+01	-4.732116e+00
1.789066e+01	-4.765358e+00
1.799399e+01	-4.798722e+00
1.809793e+01	-4.832403e+00
1.820246e+01	-4.865904e+00
1.830760e+01	-4.899745e+00
1.841334e+01	-4.933648e+00
1.851969e+01	-4.967913e+00
1.862666e+01	-5.001701e+00
1.873425e+01	-5.036344e+00
1.884246e+01	-5.070664e+00
1.895129e+01	-5.104668e+00
1.906075e+01	-5.139306e+00
1.917085e+01	-5.174514e+00
1.928158e+01	-5.209423e+00
1.939295e+01	-5.244282e+00
1.950496e+01	-5.279632e+00
1.961762e+01	-5.314681e+00
1.973093e+01	-5.350080e+00
1.984490e+01	-5.385877e+00
1.995952e+01	-5.421355e+00
2.007480e+01	-5.456691e+00
2.019076e+01	-5.492604e+00
2.030738e+01	-5.528956e+00
2.042467e+01	-5.564481e+00
2.054264e+01	-5.600766e+00
2.066130e+01	-5.637127e+00
2.078064e+01	-5.673514e+00
2.090066e+01	-5.710298e+00
2.102139e+01	-5.747011e+00
2.114280e+01	-5.783812e+00
2.126492e+01	-5.820568e+00
2.138775e+01	-5.857380e+00
2.151128e+01	-5.894901e+00
2.163553e+01	-5.931733e+00
2.176050e+01	-5.969228e+00
2.188619e+01	-6.006478e+00
2.201260e+01	-6.044309e+00
2.213974e+01	-6.081680e+00
2.226762e+01	-6.119405e+00
2.239624e+01	-6.157355e+00
2.252560e+01	-6.195225e+00
2.265571e+01	-6.233330e+00
2.278656e+01	-6.271473e+00
2.291818e+01	-6.309532e+00
2.305055e+01	-6.348417e+00
2.318369e+01	-6.386553e+00
2.331760e+01	-6.425349e+00
2.345228e+01	-6.463888e+00
2.358774e+01	-6.502813e+00
2.372398e+01	-6.541627e+00
2.386101e+01	-6.580653e+00
2.399883e+01	-6.619661e+00
2.413745e+01	-6.659035e+00
2.427686e+01	-6.698192e+00
2.441709e+01	-6.736974e+00
2.455812e+01	-6.776818e+00
2.469997e+01	-6.816620e+00
2.484263e+01	-6.856140e+00
2.498612e+01	-6.896196e+00
2.513044e+01	-6.935621e+00
2.527559e+01	-6.975631e+00
2.542158e+01	-7.015397e+00
2.556842e+01	-7.056036e+00
2.571610e+01	-7.095854e+00
2.586463e+01	-7.135920e+00
2.601403e+01	-7.176947e+00
2.616428e+01	-7.217162e+00
2.631541e+01	-7.257769e+00
2.646740e+01	-7.298414e+00
2.662028e+01	-7.339003e+00
2.677404e+01	-7.380419e+00
2.692868e+01	-7.420740e+00
2.708422e+01	-7.462721e+00
2.724066e+01	-7.502851e+00
2.739800e+01	-7.544552e+00
2.755625e+01	-7.585914e+00
2.771541e+01	-7.626705e+00
2.787550e+01	-7.667870e+00
2.803650e+01	-7.709814e+00
2.819844e+01	-7.751399e+00
2.836131e+01	-7.793070e+00
2.852513e+01	-7.834626e+00
2.868989e+01	-7.876866e+00
2.885560e+01	-7.918293e+00
2.902227e+01	-7.960543e+00
2.918990e+01	-8.002605e+00
2.935850e+01	-8.044988e+00
2.952807e+01	-8.086947e+00
2.969863e+01	-8.129457e+00
2.987016e+01	-8.171687e+00
3.004269e+01	-8.214212e+00
3.021622e+01	-8.256344e+00
3.039075e+01	-8.299397e+00
3.056628e+01	-8.342245e+00
3.074283e+01	-8.384180e+00
3.092040e+01	-8.427358e+00
3.109900e+01	-8.470400e+00
3.127862e+01	-8.513172e+00
3.145929e+01	-8.555786e+00
3.164099e+01	-8.599543e+00
3.182375e+01	-8.642773e+00
3.200756e+01	-8.685531e+00
3.219244e+01	-8.729083e+00
3.237838e+01	-8.772662e+00
3.256540e+01	-8.815481e+00
3.275349e+01	-8.859097e+00
3.294268e+01	-8.902959e+00
3.313295e+01	-8.946170e+00
3.332433e+01	-8.989821e+00
3.351681e+01	-9.033464e+00
3.371040e+01	-9.077688e+00
3.390511e+01	-9.121564e+00
3.410094e+01	-9.165864e+00
3.429791e+01	-9.209391e+00
3.449601e+01	-9.253546e+00
3.469526e+01	-9.297843e+00
3.489566e+01	-9.341889e+00
3.509721e+01	-9.385534e+00
3.529993e+01	-9.430193e+00
3.550382e+01	-9.474612e+00
3.570889e+01	-9.519488e+00
3.591515e+01	-9.563471e+00
3.612259e+01	-9.607953e+00
3.633123e+01	-9.652651e+00
3.654108e+01	-9.697349e+00
3.675214e+01	-9.741877e+00
3.696442e+01	-9.787002e+00
3.717792e+01	-9.831286e+00
3.739266e+01	-9.876814e+00
3.760864e+01	-9.921152e+00
3.782587e+01	-9.966197e+00
3.804435e+01	-1.001152e+01
3.826409e+01	-1.005603e+01
3.848510e+01	-1.010096e+01
3.870739e+01	-1.014674e+01
3.893096e+01	-1.019209e+01
3.915583e+01	-1.023740e+01
3.938199e+01	-1.028234e+01
3.960946e+01	-1.032809e+01
3.983824e+01	-1.037333e+01
4.006834e+01	-1.041891e+01
4.029978e+01	-1.046393e+01
4.053255e+01	-1.050961e+01
4.076666e+01	-1.055547e+01
4.100213e+01	-1.060095e+01
4.123896e+01	-1.064655e+01
4.147715e+01	-1.069219e+01
4.171672e+01	-1.073851e+01
4.195767e+01	-1.078383e+01
4.220002e+01	-1.083009e+01
4.244377e+01	-1.087572e+01
4.268892e+01	-1.092137e+01
4.293549e+01	-1.096750e+01
4.318348e+01	-1.101418e+01
4.343291e+01	-1.106015e+01
4.368377e+01	-1.110609e+01
4.393609e+01	-1.115217e+01
4.418986e+01	-1.119842e+01
4.444510e+01	-1.124494e+01
4.470182e+01	-1.129085e+01
4.496001e+01	-1.133742e+01
4.521970e+01	-1.138316e+01
4.548089e+01	-1.143011e+01
4.574358e+01	-1.147671e+01
4.600779e+01	-1.152290e+01
4.627353e+01	-1.156943e+01
4.654081e+01	-1.161560e+01
4.680963e+01	-1.166236e+01
4.708000e+01	-1.170958e+01
4.735193e+01	-1.175570e+01
4.762543e+01	-1.180271e+01
4.790051e+01	-1.184969e+01
4.817719e+01	-1.189639e+01
4.845545e+01	-1.194322e+01
4.873533e+01	-1.199012e+01
4.901682e+01	-1.203666e+01
4.929994e+01	-1.208326e+01
4.958470e+01	-1.213054e+01
4.987110e+01	-1.217773e+01
5.015915e+01	-1.222447e+01
5.044887e+01	-1.227103e+01
5.074026e+01	-1.231851e+01
5.103333e+01	-1.236550e+01
5.132810e+01	-1.241283e+01
5.162457e+01	-1.246008e+01
5.192275e+01	-1.250692e+01
5.222265e+01	-1.255452e+01
5.252429e+01	-1.260179e+01
5.282767e+01	-1.264918e+01
5.313280e+01	-1.269558e+01
5.343969e+01	-1.274407e+01
5.374836e+01	-1.279104e+01
5.405880e+01	-1.283834e+01
5.437105e+01	-1.288570e+01
5.468509e+01	-1.293304e+01
5.500095e+01	-1.298085e+01
5.531863e+01	-1.302917e+01
5.563815e+01	-1.307593e+01
5.595951e+01	-1.312356e+01
5.628273e+01	-1.317119e+01
5.660782e+01	-1.321907e+01
5.693479e+01	-1.326618e+01
5.726364e+01	-1.331491e+01
5.759439e+01	-1.336199e+01
5.792705e+01	-1.340971e+01
5.826164e+01	-1.345735e+01
5.859815e+01	-1.350465e+01
5.893662e+01	-1.355280e+01
5.927703e+01	-1.360107e+01
5.961941e+01	-1.364859e+01
5.996377e+01	-1.369566e+01
6.031012e+01	-1.374420e+01
6.065847e+01	-1.379272e+01
6.100883e+01	-1.384059e+01
6.136121e+01	-1.388815e+01
6.171563e+01	-1.393665e+01
6.207210e+01	-1.398458e+01
6.243063e+01	-1.403233e+01
6.279122e+01	-1.408057e+01
6.315390e+01	-1.412881e+01
6.351868e+01	-1.417589e+01
6.388556e+01	-1.422476e+01
6.425456e+01	-1.427205e+01
6.462569e+01	-1.432041e+01
6.499897e+01	-1.436978e+01
6.537440e+01	-1.441733e+01
6.575200e+01	-1.446566e+01
6.613178e+01	-1.451332e+01
6.651375e+01	-1.456294e+01
6.689793e+01	-1.461190e+01
6.728433e+01	-1.465812e+01
6.767297e+01	-1.470764e+01
6.806384e+01	-1.475589e+01
6.845698e+01	-1.480388e+01
6.885238e+01	-1.485208e+01
6.925007e+01	-1.490028e+01
6.965005e+01	-1.494951e+01
7.005235e+01	-1.499817e+01
7.045697e+01	-1.504567e+01
7.086393e+01	-1.509416e+01
7.127323e+01	-1.514243e+01
7.168490e+01	-1.519150e+01
7.209895e+01	-1.523934e+01
7.251539e+01	-1.528800e+01
7.293424e+01	-1.533661e+01
7.335551e+01	-1.538565e+01
7.377920e+01	-1.543422e+01
7.420535e+01	-1.548250e+01
7.463396e+01	-1.553208e+01
7.506504e+01	-1.557922e+01
7.549861e+01	-1.562846e+01
7.593469e+01	-1.567762e+01
7.637328e+01	-1.572622e+01
7.681441e+01	-1.577437e+01
7.725809e+01	-1.582344e+01
7.770433e+01	-1.587261e+01
7.815315e+01	-1.592092e+01
7.860456e+01	-1.597003e+01
7.905857e+01	-1.601889e+01
7.951521e+01	-1.606740e+01
7.997449e+01	-1.611581e+01
8.043642e+01	-1.616422e+01
8.090102e+01	-1.621371e+01
8.136830e+01	-1.626268e+01
8.183828e+01	-1.631087e+01
8.231097e+01	-1.635898e+01
8.278640e+01	-1.640930e+01
8.326457e+01	-1.645849e+01
8.374550e+01	-1.650648e+01
8.422921e+01	-1.655478e+01
8.471572e+01	-1.660370e+01
8.520503e+01	-1.665418e+01
8.569717e+01	-1.670258e+01
8.619215e+01	-1.675156e+01
8.669000e+01	-1.680009e+01
8.719071e+01	-1.684894e+01
8.769432e+01	-1.689943e+01
8.820084e+01	-1.694753e+01
8.871029e+01	-1.699613e+01
8.922267e+01	-1.704605e+01
8.973802e+01	-1.709450e+01
9.025634e+01	-1.714435e+01
9.077766e+01	-1.719290e+01
9.130199e+01	-1.724091e+01
9.182935e+01	-1.729093e+01
9.235975e+01	-1.734007e+01
9.289321e+01	-1.738979e+01
9.342976e+01	-1.743868e+01
9.396941e+01	-1.748847e+01
9.451217e+01	-1.753724e+01
9.505807e+01	-1.758596e+01
9.560712e+01	-1.763514e+01
9.615934e+01	-1.768407e+01
9.671476e+01	-1.773325e+01
9.727338e+01	-1.778150e+01
9.783522e+01	-1.783169e+01
9.840032e+01	-1.788107e+01
9.896867e+01	-1.792927e+01
9.954031e+01	-1.797913e+01
1.001153e+02	-1.802821e+01
1.006935e+02	-1.807733e+01
1.012751e+02	-1.812771e+01
1.018601e+02	-1.817569e+01
1.024484e+02	-1.822568e+01
1.030402e+02	-1.827453e+01
1.036353e+02	-1.832510e+01
1.042339e+02	-1.837282e+01
1.048360e+02	-1.842175e+01
1.054415e+02	-1.847313e+01
1.060505e+02	-1.852093e+01
1.066631e+02	-1.857021e+01
1.072791e+02	-1.862113e+01
1.078988e+02	-1.866923e+01
1.085220e+02	-1.872050e+01
1.091488e+02	-1.876778e+01
1.097793e+02	-1.881745e+01
1.104133e+02	-1.886567e+01
1.110511e+02	-1.891665e+01
1.116925e+02	-1.896593e+01
1.123376e+02	-1.901528e+01
1.129865e+02	-1.906393e+01
1.136391e+02	-1.911407e+01
1.142955e+02	-1.916383e+01
1.149556e+02	-1.921290e+01
1.156196e+02	-1.926233e+01
1.162874e+02	-1.931212e+01
1.169591e+02	-1.936242e+01
1.176347e+02	-1.941076e+01
1.183141e+02	-1.946075e+01
1.189975e+02	-1.951078e+01
1.196848e+02	-1.956019e+01
1.203761e+02	-1.960900e+01
1.210714e+02	-1.965781e+01
1.217707e+02	-1.970665e+01
1.224740e+02	-1.975617e+01
1.231814e+02	-1.980676e+01
1.238929e+02	-1.985545e+01
1.246085e+02	-1.990557e+01
1.253283e+02	-1.995558e+01
1.260522e+02	-2.000488e+01
1.267802e+02	-2.005386e+01
1.275125e+02	-2.010522e+01
1.282490e+02	-2.015403e+01
1.289898e+02	-2.020118e+01
1.297348e+02	-2.025199e+01
1.304842e+02	-2.030323e+01
1.312378e+02	-2.035188e+01
1.319959e+02	-2.040075e+01
1.327583e+02	-2.045086e+01
1.335251e+02	-2.050065e+01
1.342963e+02	-2.055015e+01
1.350720e+02	-2.059919e+01
1.358522e+02	-2.064842e+01
1.366368e+02	-2.069767e+01
1.374260e+02	-2.074850e+01
1.382198e+02	-2.079782e+01
1.390182e+02	-2.084695e+01
1.398211e+02	-2.089806e+01
1.406287e+02	-2.094705e+01
1.414410e+02	-2.099652e+01
1.422579e+02	-2.104720e+01
1.430796e+02	-2.109578e+01
1.439060e+02	-2.114430e+01
1.447372e+02	-2.119483e+01
1.455732e+02	-2.124449e+01
1.464141e+02	-2.129338e+01
1.472597e+02	-2.134180e+01
1.481103e+02	-2.139359e+01
1.489658e+02	-2.144424e+01
1.498262e+02	-2.149389e+01
1.506916e+02	-2.154350e+01
1.515620e+02	-2.159218e+01
1.524374e+02	-2.164177e+01
1.533179e+02	-2.169169e+01
1.542034e+02	-2.174237e+01
1.550941e+02	-2.179130e+01
1.559899e+02	-2.184217e+01
1.568909e+02	-2.189254e+01
1.577971e+02	-2.194147e+01
1.587085e+02	-2.198982e+01
1.596252e+02	-2.204120e+01
1.605472e+02	-2.208747e+01
1.614745e+02	-2.213900e+01
1.624072e+02	-2.218921e+01
1.633453e+02	-2.223727e+01
1.642887e+02	-2.228945e+01
1.652377e+02	-2.233751e+01
1.661921e+02	-2.238735e+01
1.671520e+02	-2.243759e+01
1.681175e+02	-2.248676e+01
1.690885e+02	-2.253648e+01
1.700651e+02	-2.258663e+01
1.710474e+02	-2.263667e+01
1.720354e+02	-2.268757e+01
1.730291e+02	-2.273620e+01
1.740285e+02	-2.278632e+01
1.750337e+02	-2.283574e+01
1.760446e+02	-2.288665e+01
1.770615e+02	-2.293617e+01
1.780842e+02	-2.298717e+01
1.791128e+02	-2.303702e+01
1.801473e+02	-2.308611e+01
1.811878e+02	-2.313363e+01
1.822344e+02	-2.318561e+01
1.832870e+02	-2.323613e+01
1.843456e+02	-2.328452e+01
1.854104e+02	-2.333291e+01
1.864813e+02	-2.338635e+01
1.875584e+02	-2.343374e+01
1.886418e+02	-2.348161e+01
1.897313e+02	-2.353333e+01
1.908272e+02	-2.358201e+01
1.919294e+02	-2.363314e+01
1.930380e+02	-2.368451e+01
1.941530e+02	-2.373339e+01
1.952744e+02	-2.378234e+01
1.964023e+02	-2.383205e+01
1.975367e+02	-2.388328e+01
1.986777e+02	-2.393246e+01
1.998252e+02	-2.398072e+01
2.009794e+02	-2.403212e+01
2.021403e+02	-2.408243e+01
2.033078e+02	-2.413005e+01
2.044821e+02	-2.417927e+01
2.056632e+02	-2.423330e+01
2.068511e+02	-2.428086e+01
2.080459e+02	-2.432877e+01
2.092475e+02	-2.437929e+01
2.104561e+02	-2.443056e+01
2.116717e+02	-2.447906e+01
2.128943e+02	-2.453046e+01
2.141240e+02	-2.458115e+01
2.153608e+02	-2.463012e+01
2.166047e+02	-2.467760e+01
2.178558e+02	-2.472926e+01
2.191141e+02	-2.478240e+01
2.203797e+02	-2.483159e+01
2.216526e+02	-2.487737e+01
2.229329e+02	-2.492735e+01
2.242205e+02	-2.497798e+01
2.255156e+02	-2.503168e+01
2.268182e+02	-2.507958e+01
2.281283e+02	-2.513067e+01
2.294459e+02	-2.517954e+01
2.307712e+02	-2.523070e+01
2.321041e+02	-2.527930e+01
2.334447e+02	-2.532976e+01
2.347931e+02	-2.538056e+01
2.361493e+02	-2.542950e+01
2.375133e+02	-2.547625e+01
2.388851e+02	-2.552957e+01
2.402649e+02	-2.557781e+01
2.416527e+02	-2.562657e+01
2.430484e+02	-2.567751e+01
2.444523e+02	-2.572634e+01
2.458642e+02	-2.577751e+01
2.472843e+02	-2.582955e+01
2.487126e+02	-2.587669e+01
2.501492e+02	-2.592679e+01
2.515940e+02	-2.597849e+01
2.530472e+02	-2.603214e+01
2.545088e+02	-2.607656e+01
2.559789e+02	-2.613061e+01
2.574574e+02	-2.617679e+01
2.589444e+02	-2.622747e+01
2.604401e+02	-2.627669e+01
2.619444e+02	-2.632887e+01
2.634574e+02	-2.638069e+01
2.649791e+02	-2.642875e+01
2.665096e+02	-2.648181e+01
2.680489e+02	-2.653080e+01
2.695972e+02	-2.658167e+01
2.711544e+02	-2.662405e+01
2.727205e+02	-2.667749e+01
2.742958e+02	-2.672529e+01
2.758801e+02	-2.677459e+01
2.774736e+02	-2.682620e+01
2.790762e+02	-2.687786e+01
2.806882e+02	-2.692593e+01
2.823094e+02	-2.697852e+01
2.839400e+02	-2.702578e+01
2.855800e+02	-2.707422e+01
2.872295e+02	-2.712799e+01
2.888886e+02	-2.717953e+01
2.905572e+02	-2.722925e+01
2.922354e+02	-2.727520e+01
2.939234e+02	-2.732756e+01
2.956211e+02	-2.737594e+01
2.973286e+02	-2.742659e+01
2.990459e+02	-2.747610e+01
3.007732e+02	-2.752468e+01
3.025104e+02	-2.757663e+01
3.042577e+02	-2.763266e+01
3.060151e+02	-2.767709e+01
3.077826e+02	-2.772410e+01
3.095604e+02	-2.777583e+01
3.113484e+02	-2.783265e+01
3.131467e+02	-2.787734e+01
3.149554e+02	-2.792954e+01
3.167746e+02	-2.797554e+01
3.186043e+02	-2.802859e+01
3.204445e+02	-2.807670e+01
3.222954e+02	-2.812990e+01
3.241570e+02	-2.817822e+01
3.260293e+02	-2.822844e+01
3.279124e+02	-2.827830e+01
3.298064e+02	-2.832682e+01
3.317114e+02	-2.837734e+01
3.336273e+02	-2.842652e+01
3.355544e+02	-2.847601e+01
3.374925e+02	-2.853267e+01
3.394418e+02	-2.857641e+01
3.414024e+02	-2.862611e+01
3.433744e+02	-2.867396e+01
3.453577e+02	-2.872881e+01
3.473525e+02	-2.878196e+01
3.493588e+02	-2.883147e+01
3.513766e+02	-2.887861e+01
3.534062e+02	-2.892481e+01
3.554474e+02	-2.898304e+01
3.575005e+02	-2.902911e+01
3.595654e+02	-2.907394e+01
3.616422e+02	-2.912852e+01
3.637311e+02	-2.917673e+01
3.658320e+02	-2.922932e+01
3.679450e+02	-2.927739e+01
3.700702e+02	-2.932846e+01
3.722077e+02	-2.938365e+01
3.743576e+02	-2.942416e+01
3.765199e+02	-2.947865e+01
3.786946e+02	-2.953001e+01
3.808820e+02	-2.957801e+01
3.830819e+02	-2.962756e+01
3.852946e+02	-2.967768e+01
3.875200e+02	-2.972793e+01
3.897583e+02	-2.978062e+01
3.920096e+02	-2.982887e+01
3.942738e+02	-2.988046e+01
3.965511e+02	-2.993168e+01
3.988416e+02	-2.998468e+01
4.011452e+02	-3.003126e+01
4.034622e+02	-3.008020e+01
4.057926e+02	-3.013378e+01
4.081365e+02	-3.017486e+01
4.104938e+02	-3.022784e+01
4.128648e+02	-3.028087e+01
4.152495e+02	-3.033018e+01
4.176480e+02	-3.038369e+01
4.200603e+02	-3.043140e+01
4.224866e+02	-3.048133e+01
4.249268e+02	-3.053395e+01
4.273812e+02	-3.057881e+01
4.298497e+02	-3.063477e+01
4.323325e+02	-3.068041e+01
4.348297e+02	-3.073221e+01
4.373412e+02	-3.078150e+01
4.398673e+02	-3.083014e+01
4.424079e+02	-3.088049e+01
4.449633e+02	-3.093373e+01
4.475334e+02	-3.098411e+01
4.501183e+02	-3.103124e+01
4.527182e+02	-3.108114e+01
4.553330e+02	-3.113106e+01
4.579630e+02	-3.118259e+01
4.606082e+02	-3.123353e+01
4.632687e+02	-3.128512e+01
4.659445e+02	-3.132951e+01
4.686358e+02	-3.138658e+01
4.713426e+02	-3.143232e+01
4.740650e+02	-3.148662e+01
4.768032e+02	-3.153356e+01
4.795572e+02	-3.159243e+01
4.823271e+02	-3.163523e+01
4.851130e+02	-3.168791e+01
4.879150e+02	-3.173166e+01
4.907332e+02	-3.178111e+01
4.935676e+02	-3.183364e+01
4.964185e+02	-3.188153e+01
4.992858e+02	-3.193186e+01
5.021696e+02	-3.197899e+01
5.050701e+02	-3.203521e+01
5.079874e+02	-3.207957e+01
5.109215e+02	-3.213434e+01
5.138726e+02	-3.218611e+01
5.168407e+02	-3.223783e+01
5.198259e+02	-3.228504e+01
5.228284e+02	-3.233343e+01
5.258482e+02	-3.238629e+01
5.288855e+02	-3.243657e+01
5.319403e+02	-3.248830e+01
5.350128e+02	-3.254516e+01
5.381030e+02	-3.258696e+01
5.412111e+02	-3.263875e+01
5.443371e+02	-3.269119e+01
5.474812e+02	-3.273405e+01
5.506434e+02	-3.278445e+01
5.538239e+02	-3.283688e+01
5.570228e+02	-3.288642e+01
5.602401e+02	-3.293425e+01
5.634760e+02	-3.298210e+01
5.667306e+02	-3.304351e+01
5.700040e+02	-3.308990e+01
5.732964e+02	-3.314141e+01
5.766077e+02	-3.318809e+01
5.799382e+02	-3.324118e+01
5.832879e+02	-3.328873e+01
5.866569e+02	-3.334000e+01
5.900454e+02	-3.339263e+01
5.934535e+02	-3.343917e+01
5.968813e+02	-3.349359e+01
6.003288e+02	-3.354518e+01
6.037963e+02	-3.359465e+01
6.072838e+02	-3.363934e+01
6.107914e+02	-3.369152e+01
6.143194e+02	-3.374245e+01
6.178676e+02	-3.379630e+01
6.214364e+02	-3.384719e+01
6.250258e+02	-3.390477e+01
6.286359e+02	-3.394332e+01
6.322669e+02	-3.399101e+01
6.359189e+02	-3.404637e+01
6.395919e+02	-3.409831e+01
6.432862e+02	-3.414625e+01
6.470017e+02	-3.419029e+01
6.507388e+02	-3.425527e+01
6.544974e+02	-3.429946e+01
6.582778e+02	-3.433999e+01
6.620800e+02	-3.439098e+01
6.659041e+02	-3.444451e+01
6.697504e+02	-3.448863e+01
6.736188e+02	-3.455465e+01
6.775096e+02	-3.459956e+01
6.814229e+02	-3.464639e+01
6.853587e+02	-3.470266e+01
6.893173e+02	-3.474569e+01
6.932988e+02	-3.480394e+01
6.973033e+02	-3.485047e+01
7.013309e+02	-3.489468e+01
