Frequency(Hz)	Magnitude(dB)
1.000000e+01	-2.015183e+00
1.005776e+01	-2.033840e+00
1.011585e+01	-2.052738e+00
1.017428e+01	-2.071397e+00
1.023305e+01	-2.090498e+00
1.029215e+01	-2.109724e+00
1.035160e+01	-2.129319e+00
1.041139e+01	-2.148608e+00
1.047153e+01	-2.168123e+00
1.053201e+01	-2.187871e+00
1.059284e+01	-2.207696e+00
1.065403e+01	-2.227734e+00
1.071556e+01	-2.247965e+00
1.077746e+01	-2.268437e+00
1.083971e+01	-2.288768e+00
1.090232e+01	-2.309168e+00
1.096529e+01	-2.329720e+00
1.102862e+01	-2.350821e+00
1.109232e+01	-2.371540e+00
1.115639e+01	-2.392747e+00
1.122083e+01	-2.414119e+00
1.128564e+01	-2.435387e+00
1.135083e+01	-2.457148e+00
1.141639e+01	-2.478560e+00
1.148233e+01	-2.500547e+00
1.154865e+01	-2.522509e+00
1.161536e+01	-2.544248e+00
1.168245e+01	-2.566911e+00
1.174992e+01	-2.589285e+00
1.181779e+01	-2.611798e+00
1.188605e+01	-2.634487e+00
1.195470e+01	-2.657448e+00
1.202375e+01	-2.680449e+00
1.209320e+01	-2.703412e+00
1.216305e+01	-2.726733e+00
1.223330e+01	-2.749770e+00
1.230396e+01	-2.773666e+00
1.237503e+01	-2.797015e+00
1.244651e+01	-2.821204e+00
1.251840e+01	-2.845085e+00
1.259070e+01	-2.869261e+00
1.266343e+01	-2.893657e+00
1.273657e+01	-2.917905e+00
1.281014e+01	-2.942348e+00
1.288413e+01	-2.967238e+00
1.295855e+01	-2.991916e+00
1.303339e+01	-3.016844e+00
1.310867e+01	-3.041906e+00
1.318439e+01	-3.067398e+00
1.326054e+01	-3.092572e+00
1.333713e+01	-3.118190e+00
1.341417e+01	-3.143890e+00
1.349165e+01	-3.169675e+00
1.356958e+01	-3.195736e+00
1.364795e+01	-3.221789e+00
1.372678e+01	-3.248335e+00
1.380607e+01	-3.274650e+00
1.388581e+01	-3.300956e+00
1.396602e+01	-3.327624e+00
1.404668e+01	-3.354578e+00
1.412782e+01	-3.381708e+00
1.420942e+01	-3.408771e+00
1.429149e+01	-3.436125e+00
1.437404e+01	-3.463440e+00
1.445706e+01	-3.491070e+00
1.454057e+01	-3.518777e+00
1.462455e+01	-3.546452e+00
1.470902e+01	-3.574569e+00
1.479398e+01	-3.602582e+00
1.487943e+01	-3.631007e+00
1.496537e+01	-3.659381e+00
1.505181e+01	-3.687825e+00
1.513875e+01	-3.716396e+00
1.522619e+01	-3.745490e+00
1.531414e+01	-3.774542e+00
1.540259e+01	-3.803816e+00
1.549156e+01	-3.832858e+00
1.558103e+01	-3.862142e+00
1.567103e+01	-3.891849e+00
1.576155e+01	-3.921664e+00
1.585258e+01	-3.951339e+00
1.594415e+01	-3.981212e+00
1.603624e+01	-4.011167e+00
1.612886e+01	-4.041882e+00
1.622202e+01	-4.071909e+00
1.631572e+01	-4.102345e+00
1.640996e+01	-4.133016e+00
1.650474e+01	-4.163885e+00
1.660008e+01	-4.194758e+00
1.669596e+01	-4.225885e+00
1.679239e+01	-4.256852e+00
1.688938e+01	-4.288355e+00
1.698694e+01	-4.319665e+00
1.708505e+01	-4.351403e+00
1.718373e+01	-4.383199e+00
1.728299e+01	-4.414788e+00
1.738281e+01	-4.446928e+00
1.748322e+01	-4.479311e+00
1.758420e+01	-4.511279e+00
1.768576e+01	-4.543853e+00
1.778792e+01	-4.576129e+00
1.789066e+01	-4.608885e+00
1.799399e+01	-4.641591e+00
1.809793e+01	-4.674716e+00
1.820246e+01	-4.707583e+00
1.830760e+01	-4.740728e+00
1.841334e+01	-4.774321e+00
1.851969e+01	-4.807265e+00
1.862666e+01	-4.841073e+00
1.873425e+01	-4.874747e+00
1.884246e+01	-4.908404e+00
1.895129e+01	-4.942326e+00
1.906075e+01	-4.976300e+00
1.917085e+01	-5.010596e+00
1.928158e+01	-5.045270e+00
1.939295e+01	-5.079406e+00
1.950496e+01	-5.114099e+00
1.961762e+01	-5.148546e+00
1.973093e+01	-5.183672e+00
1.984490e+01	-5.218570e+00
1.995952e+01	-5.253193e+00
2.007480e+01	-5.288687e+00
2.019076e+01	-5.323926e+00
2.030738e+01	-5.359329e+00
2.042467e+01	-5.394643e+00
2.054264e+01	-5.430355e+00
2.066130e+01	-5.466246e+00
2.078064e+01	-5.501878e+00
2.090066e+01	-5.537950e+00
2.102139e+01	-5.574118e+00
2.114280e+01	-5.610245e+00
2.126492e+01	-5.646879e+00
2.138775e+01	-5.683175e+00
2.151128e+01	-5.720104e+00
2.163553e+01	-5.756867e+00
2.176050e+01	-5.793011e+00
2.188619e+01	-5.829908e+00
2.201260e+01	-5.867160e+00
2.213974e+01	-5.904295e+00
2.226762e+01	-5.941346e+00
2.239624e+01	-5.979018e+00
2.252560e+01	-6.016180e+00
2.265571e+01	-6.053959e+00
2.278656e+01	-6.091586e+00
2.291818e+01	-6.129054e+00
2.305055e+01	-6.167281e+00
2.318369e+01	-6.205382e+00
2.331760e+01	-6.243446e+00
2.345228e+01	-6.281555e+00
2.358774e+01	-6.319943e+00
2.372398e+01	-6.358053e+00
2.386101e+01	-6.396599e+00
2.399883e+01	-6.435381e+00
2.413745e+01	-6.473913e+00
2.427686e+01	-6.512957e+00
2.441709e+01	-6.551583e+00
2.455812e+01	-6.591048e+00
2.469997e+01	-6.629908e+00
2.484263e+01	-6.668950e+00
2.498612e+01	-6.708412e+00
2.513044e+01	-6.747501e+00
2.527559e+01	-6.787315e+00
2.542158e+01	-6.827454e+00
2.556842e+01	-6.866357e+00
2.571610e+01	-6.906377e+00
2.586463e+01	-6.946154e+00
2.601403e+01	-6.986066e+00
2.616428e+01	-7.026297e+00
2.631541e+01	-7.066232e+00
2.646740e+01	-7.106793e+00
2.662028e+01	-7.146894e+00
2.677404e+01	-7.187384e+00
2.692868e+01	-7.227869e+00
2.708422e+01	-7.268165e+00
2.724066e+01	-7.308714e+00
2.739800e+01	-7.350003e+00
2.755625e+01	-7.390876e+00
2.771541e+01	-7.431566e+00
2.787550e+01	-7.472732e+00
2.803650e+01	-7.513876e+00
2.819844e+01	-7.554921e+00
2.836131e+01	-7.596902e+00
2.852513e+01	-7.637876e+00
2.868989e+01	-7.679078e+00
2.885560e+01	-7.720445e+00
2.902227e+01	-7.762794e+00
2.918990e+01	-7.803655e+00
2.935850e+01	-7.845695e+00
2.952807e+01	-7.887909e+00
2.969863e+01	-7.929742e+00
2.987016e+01	-7.971427e+00
3.004269e+01	-8.013681e+00
3.021622e+01	-8.055879e+00
3.039075e+01	-8.097591e+00
3.056628e+01	-8.140476e+00
3.074283e+01	-8.182481e+00
3.092040e+01	-8.224818e+00
3.109900e+01	-8.267722e+00
3.127862e+01	-8.310152e+00
3.145929e+01	-8.352510e+00
3.164099e+01	-8.395712e+00
3.182375e+01	-8.438362e+00
3.200756e+01	-8.481355e+00
3.219244e+01	-8.524291e+00
3.237838e+01	-8.567310e+00
3.256540e+01	-8.610296e+00
3.275349e+01	-8.653726e+00
3.294268e+01	-8.696933e+00
3.313295e+01	-8.740312e+00
3.332433e+01	-8.783435e+00
3.351681e+01	-8.826638e+00
3.371040e+01	-8.870508e+00
3.390511e+01	-8.914248e+00
3.410094e+01	-8.957696e+00
3.429791e+01	-9.001383e+00
3.449601e+01	-9.045108e+00
3.469526e+01	-9.089127e+00
3.489566e+01	-9.132586e+00
3.509721e+01	-9.177109e+00
3.529993e+01	-9.220802e+00
3.550382e+01	-9.264998e+00
3.570889e+01	-9.309272e+00
3.591515e+01	-9.353029e+00
3.612259e+01	-9.397431e+00
3.633123e+01	-9.441700e+00
3.654108e+01	-9.486180e+00
3.675214e+01	-9.530610e+00
3.696442e+01	-9.575181e+00
3.717792e+01	-9.619732e+00
3.739266e+01	-9.664149e+00
3.760864e+01	-9.708740e+00
3.782587e+01	-9.753574e+00
3.804435e+01	-9.798078e+00
3.826409e+01	-9.843060e+00
3.848510e+01	-9.887888e+00
3.870739e+01	-9.932839e+00
3.893096e+01	-9.977966e+00
3.915583e+01	-1.002297e+01
3.938199e+01	-1.006830e+01
3.960946e+01	-1.011365e+01
3.983824e+01	-1.015816e+01
4.006834e+01	-1.020369e+01
4.029978e+01	-1.024890e+01
4.053255e+01	-1.029431e+01
4.076666e+01	-1.034020e+01
4.100213e+01	-1.038531e+01
4.123896e+01	-1.043076e+01
4.147715e+01	-1.047564e+01
4.171672e+01	-1.052195e+01
4.195767e+01	-1.056681e+01
4.220002e+01	-1.061256e+01
4.244377e+01	-1.065787e+01
4.268892e+01	-1.070395e+01
4.293549e+01	-1.074999e+01
4.318348e+01	-1.079518e+01
4.343291e+01	-1.084170e+01
4.368377e+01	-1.088770e+01
4.393609e+01	-1.093312e+01
4.418986e+01	-1.097949e+01
4.444510e+01	-1.102608e+01
4.470182e+01	-1.107173e+01
4.496001e+01	-1.111787e+01
4.521970e+01	-1.116407e+01
4.548089e+01	-1.121041e+01
4.574358e+01	-1.125637e+01
4.600779e+01	-1.130329e+01
4.627353e+01	-1.134948e+01
4.654081e+01	-1.139553e+01
4.680963e+01	-1.144200e+01
4.708000e+01	-1.148834e+01
4.735193e+01	-1.153492e+01
4.762543e+01	-1.158139e+01
4.790051e+01	-1.162779e+01
4.817719e+01	-1.167505e+01
4.845545e+01	-1.172118e+01
4.873533e+01	-1.176759e+01
4.901682e+01	-1.181570e+01
4.929994e+01	-1.186150e+01
4.958470e+01	-1.190824e+01
4.987110e+01	-1.195550e+01
5.015915e+01	-1.200272e+01
5.044887e+01	-1.204916e+01
5.074026e+01	-1.209589e+01
5.103333e+01	-1.214295e+01
5.132810e+01	-1.218956e+01
5.162457e+01	-1.223707e+01
5.192275e+01	-1.228333e+01
5.222265e+01	-1.233170e+01
5.252429e+01	-1.237793e+01
5.282767e+01	-1.242502e+01
5.313280e+01	-1.247282e+01
5.343969e+01	-1.251958e+01
5.374836e+01	-1.256682e+01
5.405880e+01	-1.261399e+01
5.437105e+01	-1.266142e+01
5.468509e+01	-1.270925e+01
5.500095e+01	-1.275662e+01
5.531863e+01	-1.280385e+01
5.563815e+01	-1.285193e+01
5.595951e+01	-1.289863e+01
5.628273e+01	-1.294592e+01
5.660782e+01	-1.299329e+01
5.693479e+01	-1.304036e+01
5.726364e+01	-1.308803e+01
5.759439e+01	-1.313607e+01
5.792705e+01	-1.318395e+01
5.826164e+01	-1.323114e+01
5.859815e+01	-1.327879e+01
5.893662e+01	-1.332720e+01
5.927703e+01	-1.337436e+01
5.961941e+01	-1.342190e+01
5.996377e+01	-1.346953e+01
6.031012e+01	-1.351734e+01
6.065847e+01	-1.356454e+01
6.100883e+01	-1.361278e+01
6.136121e+01	-1.366007e+01
6.171563e+01	-1.370876e+01
6.207210e+01	-1.375690e+01
6.243063e+01	-1.380491e+01
6.279122e+01	-1.385301e+01
6.315390e+01	-1.390042e+01
6.351868e+01	-1.394876e+01
6.388556e+01	-1.399644e+01
6.425456e+01	-1.404514e+01
6.462569e+01	-1.409326e+01
6.499897e+01	-1.414028e+01
6.537440e+01	-1.418873e+01
6.575200e+01	-1.423758e+01
6.613178e+01	-1.428549e+01
6.651375e+01	-1.433314e+01
6.689793e+01	-1.438226e+01
6.728433e+01	-1.443032e+01
6.767297e+01	-1.447853e+01
6.806384e+01	-1.452639e+01
6.845698e+01	-1.457453e+01
6.885238e+01	-1.462309e+01
6.925007e+01	-1.467113e+01
6.965005e+01	-1.471920e+01
7.005235e+01	-1.476805e+01
7.045697e+01	-1.481609e+01
7.086393e+01	-1.486462e+01
7.127323e+01	-1.491260e+01
7.168490e+01	-1.496165e+01
7.209895e+01	-1.501057e+01
7.251539e+01	-1.505850e+01
7.293424e+01	-1.510787e+01
7.335551e+01	-1.515572e+01
7.377920e+01	-1.520364e+01
7.420535e+01	-1.525261e+01
7.463396e+01	-1.530120e+01
7.506504e+01	-1.534997e+01
7.549861e+01	-1.539816e+01
7.593469e+01	-1.544703e+01
7.637328e+01	-1.549583e+01
7.681441e+01	-1.554430e+01
7.725809e+01	-1.559349e+01
7.770433e+01	-1.564058e+01
7.815315e+01	-1.569039e+01
7.860456e+01	-1.573877e+01
7.905857e+01	-1.578785e+01
7.951521e+01	-1.583600e+01
7.997449e+01	-1.588519e+01
8.043642e+01	-1.593335e+01
8.090102e+01	-1.598238e+01
8.136830e+01	-1.603191e+01
8.183828e+01	-1.607949e+01
8.231097e+01	-1.612948e+01
8.278640e+01	-1.617708e+01
8.326457e+01	-1.622698e+01
8.374550e+01	-1.627503e+01
8.422921e+01	-1.632458e+01
8.471572e+01	-1.637303e+01
8.520503e+01	-1.642165e+01
8.569717e+01	-1.647015e+01
8.619215e+01	-1.652041e+01
8.669000e+01	-1.656991e+01
8.719071e+01	-1.661818e+01
8.769432e+01	-1.666722e+01
8.820084e+01	-1.671635e+01
8.871029e+01	-1.676439e+01
8.922267e+01	-1.681414e+01
8.973802e+01	-1.686128e+01
9.025634e+01	-1.691203e+01
9.077766e+01	-1.695959e+01
9.130199e+01	-1.700891e+01
9.182935e+01	-1.705929e+01
9.235975e+01	-1.710742e+01
9.289321e+01	-1.715665e+01
9.342976e+01	-1.720598e+01
9.396941e+01	-1.725465e+01
9.451217e+01	-1.730279e+01
9.505807e+01	-1.735289e+01
9.560712e+01	-1.740226e+01
9.615934e+01	-1.745121e+01
9.671476e+01	-1.750006e+01
9.727338e+01	-1.754982e+01
9.783522e+01	-1.759906e+01
9.840032e+01	-1.764767e+01
9.896867e+01	-1.769714e+01
9.954031e+01	-1.774615e+01
1.001153e+02	-1.779547e+01
1.006935e+02	-1.784427e+01
1.012751e+02	-1.789299e+01
1.018601e+02	-1.794356e+01
1.024484e+02	-1.799283e+01
1.030402e+02	-1.804081e+01
1.036353e+02	-1.809027e+01
1.042339e+02	-1.814058e+01
1.048360e+02	-1.819011e+01
1.054415e+02	-1.823851e+01
1.060505e+02	-1.828790e+01
1.066631e+02	-1.833746e+01
1.072791e+02	-1.838622e+01
1.078988e+02	-1.843648e+01
1.085220e+02	-1.848592e+01
1.091488e+02	-1.853432e+01
1.097793e+02	-1.858392e+01
1.104133e+02	-1.863355e+01
1.110511e+02	-1.868311e+01
1.116925e+02	-1.873243e+01
1.123376e+02	-1.878034e+01
1.129865e+02	-1.883026e+01
1.136391e+02	-1.887939e+01
1.142955e+02	-1.892782e+01
1.149556e+02	-1.897840e+01
1.156196e+02	-1.902790e+01
1.162874e+02	-1.907809e+01
1.169591e+02	-1.912639e+01
1.176347e+02	-1.917648e+01
1.183141e+02	-1.922590e+01
1.189975e+02	-1.927474e+01
1.196848e+02	-1.932363e+01
1.203761e+02	-1.937404e+01
1.210714e+02	-1.942336e+01
1.217707e+02	-1.947489e+01
1.224740e+02	-1.952242e+01
1.231814e+02	-1.957115e+01
1.238929e+02	-1.962079e+01
1.246085e+02	-1.967173e+01
1.253283e+02	-1.972051e+01
1.260522e+02	-1.977044e+01
1.267802e+02	-1.982014e+01
1.275125e+02	-1.986927e+01
1.282490e+02	-1.991978e+01
1.289898e+02	-1.996894e+01
1.297348e+02	-2.001799e+01
1.304842e+02	-2.006660e+01
1.312378e+02	-2.011756e+01
1.319959e+02	-2.016675e+01
1.327583e+02	-2.021662e+01
1.335251e+02	-2.026611e+01
1.342963e+02	-2.031475e+01
1.350720e+02	-2.036346e+01
1.358522e+02	-2.041555e+01
1.366368e+02	-2.046548e+01
1.374260e+02	-2.051148e+01
1.382198e+02	-2.056340e+01
1.390182e+02	-2.061207e+01
1.398211e+02	-2.066234e+01
1.406287e+02	-2.071233e+01
1.414410e+02	-2.076134e+01
1.422579e+02	-2.081075e+01
1.430796e+02	-2.085880e+01
1.439060e+02	-2.090896e+01
1.447372e+02	-2.095977e+01
1.455732e+02	-2.101011e+01
1.464141e+02	-2.105901e+01
1.472597e+02	-2.110856e+01
1.481103e+02	-2.115877e+01
1.489658e+02	-2.120885e+01
1.498262e+02	-2.125746e+01
1.506916e+02	-2.130881e+01
1.515620e+02	-2.135766e+01
1.524374e+02	-2.140811e+01
1.533179e+02	-2.145703e+01
1.542034e+02	-2.150808e+01
1.550941e+02	-2.155574e+01
1.559899e+02	-2.160735e+01
1.568909e+02	-2.165411e+01
1.577971e+02	-2.170496e+01
1.587085e+02	-2.175558e+01
1.596252e+02	-2.180401e+01
1.605472e+02	-2.185442e+01
1.614745e+02	-2.190342e+01
1.624072e+02	-2.195255e+01
1.633453e+02	-2.200292e+01
1.642887e+02	-2.205486e+01
1.652377e+02	-2.210434e+01
1.661921e+02	-2.215345e+01
1.671520e+02	-2.220049e+01
1.681175e+02	-2.225370e+01
1.690885e+02	-2.230069e+01
1.700651e+02	-2.235254e+01
1.710474e+02	-2.240156e+01
1.720354e+02	-2.245108e+01
1.730291e+02	-2.250028e+01
1.740285e+02	-2.255222e+01
1.750337e+02	-2.259992e+01
1.760446e+02	-2.264836e+01
1.770615e+02	-2.270133e+01
1.780842e+02	-2.274939e+01
1.791128e+02	-2.279895e+01
1.801473e+02	-2.285017e+01
1.811878e+02	-2.289814e+01
1.822344e+02	-2.295228e+01
1.832870e+02	-2.300021e+01
1.843456e+02	-2.305015e+01
1.854104e+02	-2.310028e+01
1.864813e+02	-2.314929e+01
1.875584e+02	-2.319586e+01
1.886418e+02	-2.324831e+01
1.897313e+02	-2.329865e+01
1.908272e+02	-2.334787e+01
1.919294e+02	-2.339381e+01
1.930380e+02	-2.344534e+01
1.941530e+02	-2.349743e+01
1.952744e+02	-2.354619e+01
1.964023e+02	-2.359827e+01
1.975367e+02	-2.364636e+01
1.986777e+02	-2.369538e+01
1.998252e+02	-2.374700e+01
2.009794e+02	-2.379862e+01
2.021403e+02	-2.384524e+01
2.033078e+02	-2.389654e+01
2.044821e+02	-2.394483e+01
2.056632e+02	-2.399741e+01
2.068511e+02	-2.404512e+01
2.080459e+02	-2.409378e+01
2.092475e+02	-2.414553e+01
2.104561e+02	-2.419628e+01
2.116717e+02	-2.424411e+01
2.128943e+02	-2.429362e+01
2.141240e+02	-2.434278e+01
2.153608e+02	-2.439394e+01
2.166047e+02	-2.444459e+01
2.178558e+02	-2.449666e+01
2.191141e+02	-2.454452e+01
2.203797e+02	-2.459321e+01
2.216526e+02	-2.464357e+01
2.229329e+02	-2.469369e+01
2.242205e+02	-2.474422e+01
2.255156e+02	-2.479411e+01
2.268182e+02	-2.484421e+01
2.281283e+02	-2.489433e+01
2.294459e+02	-2.494199e+01
2.307712e+02	-2.499013e+01
2.321041e+02	-2.504320e+01
2.334447e+02	-2.508943e+01
2.347931e+02	-2.514316e+01
2.361493e+02	-2.519273e+01
2.375133e+02	-2.524077e+01
2.388851e+02	-2.528976e+01
2.402649e+02	-2.534199e+01
2.416527e+02	-2.539235e+01
2.430484e+02	-2.544301e+01
2.444523e+02	-2.549258e+01
2.458642e+02	-2.554201e+01
2.472843e+02	-2.559168e+01
2.487126e+02	-2.563976e+01
2.501492e+02	-2.568981e+01
2.515940e+02	-2.574047e+01
2.530472e+02	-2.579129e+01
2.545088e+02	-2.583977e+01
2.559789e+02	-2.589282e+01
2.574574e+02	-2.594013e+01
2.589444e+02	-2.599060e+01
2.604401e+02	-2.604326e+01
2.619444e+02	-2.608975e+01
2.634574e+02	-2.614205e+01
2.649791e+02	-2.619467e+01
2.665096e+02	-2.623719e+01
2.680489e+02	-2.629013e+01
2.695972e+02	-2.633819e+01
2.711544e+02	-2.639147e+01
2.727205e+02	-2.644364e+01
2.742958e+02	-2.649372e+01
2.758801e+02	-2.653862e+01
2.774736e+02	-2.659234e+01
2.790762e+02	-2.664060e+01
2.806882e+02	-2.669204e+01
2.823094e+02	-2.674290e+01
2.839400e+02	-2.678938e+01
2.855800e+02	-2.683885e+01
2.872295e+02	-2.689102e+01
2.888886e+02	-2.694410e+01
2.905572e+02	-2.699110e+01
2.922354e+02	-2.704001e+01
2.939234e+02	-2.709002e+01
2.956211e+02	-2.713982e+01
2.973286e+02	-2.718886e+01
2.990459e+02	-2.724235e+01
3.007732e+02	-2.729146e+01
3.025104e+02	-2.734033e+01
3.042577e+02	-2.738940e+01
3.060151e+02	-2.744200e+01
3.077826e+02	-2.749330e+01
3.095604e+02	-2.754046e+01
3.113484e+02	-2.758892e+01
3.131467e+02	-2.764074e+01
3.149554e+02	-2.768556e+01
3.167746e+02	-2.774550e+01
3.186043e+02	-2.779231e+01
3.204445e+02	-2.783957e+01
3.222954e+02	-2.789037e+01
3.241570e+02	-2.794121e+01
3.260293e+02	-2.798722e+01
3.279124e+02	-2.804225e+01
3.298064e+02	-2.808895e+01
3.317114e+02	-2.813758e+01
3.336273e+02	-2.819258e+01
3.355544e+02	-2.824044e+01
3.374925e+02	-2.829450e+01
3.394418e+02	-2.834251e+01
3.414024e+02	-2.839305e+01
3.433744e+02	-2.844382e+01
3.453577e+02	-2.848621e+01
3.473525e+02	-2.853895e+01
3.493588e+02	-2.859146e+01
3.513766e+02	-2.864355e+01
3.534062e+02	-2.869272e+01
3.554474e+02	-2.874296e+01
3.575005e+02	-2.879738e+01
3.595654e+02	-2.884252e+01
3.616422e+02	-2.888972e+01
3.637311e+02	-2.894465e+01
3.658320e+02	-2.898916e+01
3.679450e+02	-2.904570e+01
3.700702e+02	-2.909767e+01
3.722077e+02	-2.914449e+01
3.743576e+02	-2.919518e+01
3.765199e+02	-2.923872e+01
3.786946e+02	-2.929556e+01
3.808820e+02	-2.934441e+01
3.830819e+02	-2.939194e+01
3.852946e+02	-2.944910e+01
3.875200e+02	-2.949119e+01
3.897583e+02	-2.954300e+01
3.920096e+02	-2.959461e+01
3.942738e+02	-2.964502e+01
3.965511e+02	-2.969285e+01
3.988416e+02	-2.974452e+01
4.011452e+02	-2.979660e+01
4.034622e+02	-2.984543e+01
4.057926e+02	-2.989728e+01
4.081365e+02	-2.994385e+01
4.104938e+02	-2.999367e+01
4.128648e+02	-3.004282e+01
4.152495e+02	-3.009090e+01
4.176480e+02	-3.014297e+01
4.200603e+02	-3.019472e+01
4.224866e+02	-3.024059e+01
4.249268e+02	-3.029140e+01
4.273812e+02	-3.034638e+01
4.298497e+02	-3.039152e+01
4.323325e+02	-3.044375e+01
4.348297e+02	-3.049570e+01
4.373412e+02	-3.054494e+01
4.398673e+02	-3.060023e+01
4.424079e+02	-3.065009e+01
4.449633e+02	-3.069862e+01
4.475334e+02	-3.074396e+01
4.501183e+02	-3.079577e+01
4.527182e+02	-3.084697e+01
4.553330e+02	-3.089392e+01
4.579630e+02	-3.094884e+01
4.606082e+02	-3.099755e+01
4.632687e+02	-3.104779e+01
4.659445e+02	-3.109028e+01
4.686358e+02	-3.114666e+01
4.713426e+02	-3.119802e+01
4.740650e+02	-3.125226e+01
4.768032e+02	-3.129890e+01
4.795572e+02	-3.134934e+01
4.823271e+02	-3.140336e+01
4.851130e+02	-3.144866e+01
4.879150e+02	-3.149496e+01
4.907332e+02	-3.155490e+01
4.935676e+02	-3.159542e+01
4.964185e+02	-3.165212e+01
4.992858e+02	-3.169963e+01
5.021696e+02	-3.174713e+01
5.050701e+02	-3.180254e+01
5.079874e+02	-3.185177e+01
5.109215e+02	-3.189745e+01
5.138726e+02	-3.194938e+01
5.168407e+02	-3.199723e+01
5.198259e+02	-3.204495e+01
5.228284e+02	-3.210394e+01
5.258482e+02	-3.214858e+01
5.288855e+02	-3.220307e+01
5.319403e+02	-3.225396e+01
5.350128e+02	-3.229570e+01
5.381030e+02	-3.234700e+01
5.412111e+02	-3.239373e+01
5.443371e+02	-3.245369e+01
5.474812e+02	-3.250297e+01
5.506434e+02	-3.254828e+01
5.538239e+02	-3.259883e+01
5.570228e+02	-3.265541e+01
5.602401e+02	-3.270235e+01
5.634760e+02	-3.275273e+01
5.667306e+02	-3.280356e+01
5.700040e+02	-3.285615e+01
5.732964e+02	-3.290492e+01
5.766077e+02	-3.296138e+01
5.799382e+02	-3.300832e+01
5.832879e+02	-3.306127e+01
5.866569e+02	-3.310245e+01
5.900454e+02	-3.316043e+01
5.934535e+02	-3.320329e+01
5.968813e+02	-3.326262e+01
6.003288e+02	-3.330793e+01
6.037963e+02	-3.335390e+01
6.072838e+02	-3.340538e+01
6.107914e+02	-3.346155e+01
6.143194e+02	-3.351442e+01
6.178676e+02	-3.355633e+01
6.214364e+02	-3.361465e+01
6.250258e+02	-3.366271e+01
6.286359e+02	-3.370666e+01
6.322669e+02	-3.376576e+01
6.359189e+02	-3.381399e+01
6.395919e+02	-3.385943e+01
6.432862e+02	-3.391779e+01
6.470017e+02	-3.396247e+01
6.507388e+02	-3.400228e+01
6.544974e+02	-3.405145e+01
6.582778e+02	-3.411208e+01
6.620800e+02	-3.416866e+01
6.659041e+02	-3.420866e+01
6.697504e+02	-3.425738e+01
6.736188e+02	-3.431428e+01
6.775096e+02	-3.435947e+01
6.814229e+02	-3.441545e+01
6.853587e+02	-3.446933e+01
6.893173e+02	-3.451500e+01
6.932988e+02	-3.456607e+01
6.973033e+02	-3.461026e+01
7.013309e+02	-3.466726e+01
