Frequency(Hz)	Magnitude(dB)
1.000000e+01	-2.112016e+00
1.005776e+01	-2.131220e+00
1.011585e+01	-2.150761e+00
1.017428e+01	-2.170567e+00
1.023305e+01	-2.190105e+00
1.029215e+01	-2.210101e+00
1.035160e+01	-2.230197e+00
1.041139e+01	-2.250194e+00
1.047153e+01	-2.270425e+00
1.053201e+01	-2.290971e+00
1.059284e+01	-2.311589e+00
1.065403e+01	-2.332308e+00
1.071556e+01	-2.353045e+00
1.077746e+01	-2.374240e+00
1.083971e+01	-2.395216e+00
1.090232e+01	-2.416829e+00
1.096529e+01	-2.437932e+00
1.102862e+01	-2.459375e+00
1.109232e+01	-2.480915e+00
1.115639e+01	-2.503051e+00
1.122083e+01	-2.525033e+00
1.128564e+01	-2.547030e+00
1.135083e+01	-2.569272e+00
1.141639e+01	-2.591974e+00
1.148233e+01	-2.614480e+00
1.154865e+01	-2.637111e+00
1.161536e+01	-2.659920e+00
1.168245e+01	-2.683018e+00
1.174992e+01	-2.706130e+00
1.181779e+01	-2.729294e+00
1.188605e+01	-2.752893e+00
1.195470e+01	-2.776207e+00
1.202375e+01	-2.800008e+00
1.209320e+01	-2.823860e+00
1.216305e+01	-2.847725e+00
1.223330e+01	-2.872176e+00
1.230396e+01	-2.896229e+00
1.237503e+01	-2.920353e+00
1.244651e+01	-2.945033e+00
1.251840e+01	-2.969668e+00
1.259070e+01	-2.994870e+00
1.266343e+01	-3.019895e+00
1.273657e+01	-3.044886e+00
1.281014e+01	-3.070318e+00
1.288413e+01	-3.095395e+00
1.295855e+01	-3.121191e+00
1.303339e+01	-3.146671e+00
1.310867e+01	-3.172758e+00
1.318439e+01	-3.198835e+00
1.326054e+01	-3.224964e+00
1.333713e+01	-3.251079e+00
1.341417e+01	-3.277575e+00
1.349165e+01	-3.304413e+00
1.356958e+01	-3.330934e+00
1.364795e+01	-3.358039e+00
1.372678e+01	-3.384845e+00
1.380607e+01	-3.411840e+00
1.388581e+01	-3.439095e+00
1.396602e+01	-3.466693e+00
1.404668e+01	-3.494462e+00
1.412782e+01	-3.522216e+00
1.420942e+01	-3.549748e+00
1.429149e+01	-3.577819e+00
1.437404e+01	-3.606106e+00
1.445706e+01	-3.634070e+00
1.454057e+01	-3.662552e+00
1.462455e+01	-3.691402e+00
1.470902e+01	-3.719799e+00
1.479398e+01	-3.748906e+00
1.487943e+01	-3.777786e+00
1.496537e+01	-3.806929e+00
1.505181e+01	-3.836331e+00
1.513875e+01	-3.865612e+00
1.522619e+01	-3.895234e+00
1.531414e+01	-3.924929e+00
1.540259e+01	-3.954930e+00
1.549156e+01	-3.984737e+00
1.558103e+01	-4.014850e+00
1.567103e+01	-4.045009e+00
1.576155e+01	-4.075521e+00
1.585258e+01	-4.105982e+00
1.594415e+01	-4.136589e+00
1.603624e+01	-4.167486e+00
1.612886e+01	-4.198688e+00
1.622202e+01	-4.229418e+00
1.631572e+01	-4.260577e+00
1.640996e+01	-4.292046e+00
1.650474e+01	-4.323493e+00
1.660008e+01	-4.355033e+00
1.669596e+01	-4.386546e+00
1.679239e+01	-4.418629e+00
1.688938e+01	-4.450630e+00
1.698694e+01	-4.482843e+00
1.708505e+01	-4.515119e+00
1.718373e+01	-4.547345e+00
1.728299e+01	-4.579714e+00
1.738281e+01	-4.612795e+00
1.748322e+01	-4.645337e+00
1.758420e+01	-4.678337e+00
1.768576e+01	-4.711383e+00
1.778792e+01	-4.744226e+00
1.789066e+01	-4.777876e+00
1.799399e+01	-4.811559e+00
1.809793e+01	-4.844899e+00
1.820246e+01	-4.878884e+00
1.830760e+01	-4.912501e+00
1.841334e+01	-4.946384e+00
1.851969e+01	-4.980838e+00
1.862666e+01	-5.014666e+00
1.873425e+01	-5.048830e+00
1.884246e+01	-5.083494e+00
1.895129e+01	-5.117939e+00
1.906075e+01	-5.152732e+00
1.917085e+01	-5.187785e+00
1.928158e+01	-5.222470e+00
1.939295e+01	-5.257605e+00
1.950496e+01	-5.292585e+00
1.961762e+01	-5.327759e+00
1.973093e+01	-5.363299e+00
1.984490e+01	-5.398857e+00
1.995952e+01	-5.434934e+00
2.007480e+01	-5.470238e+00
2.019076e+01	-5.506698e+00
2.030738e+01	-5.542206e+00
2.042467e+01	-5.578390e+00
2.054264e+01	-5.614632e+00
2.066130e+01	-5.650951e+00
2.078064e+01	-5.687136e+00
2.090066e+01	-5.723899e+00
2.102139e+01	-5.760580e+00
2.114280e+01	-5.797324e+00
2.126492e+01	-5.834324e+00
2.138775e+01	-5.871303e+00
2.151128e+01	-5.908403e+00
2.163553e+01	-5.945822e+00
2.176050e+01	-5.983299e+00
2.188619e+01	-6.020711e+00
2.201260e+01	-6.058434e+00
2.213974e+01	-6.095656e+00
2.226762e+01	-6.133456e+00
2.239624e+01	-6.171818e+00
2.252560e+01	-6.209800e+00
2.265571e+01	-6.247781e+00
2.278656e+01	-6.285633e+00
2.291818e+01	-6.324166e+00
2.305055e+01	-6.362861e+00
2.318369e+01	-6.401048e+00
2.331760e+01	-6.439470e+00
2.345228e+01	-6.478476e+00
2.358774e+01	-6.517093e+00
2.372398e+01	-6.556088e+00
2.386101e+01	-6.595062e+00
2.399883e+01	-6.634181e+00
2.413745e+01	-6.673796e+00
2.427686e+01	-6.712707e+00
2.441709e+01	-6.752719e+00
2.455812e+01	-6.791926e+00
2.469997e+01	-6.831072e+00
2.484263e+01	-6.871105e+00
2.498612e+01	-6.911071e+00
2.513044e+01	-6.950983e+00
2.527559e+01	-6.990888e+00
2.542158e+01	-7.030933e+00
2.556842e+01	-7.070589e+00
2.571610e+01	-7.111277e+00
2.586463e+01	-7.151704e+00
2.601403e+01	-7.192040e+00
2.616428e+01	-7.232818e+00
2.631541e+01	-7.273298e+00
2.646740e+01	-7.313969e+00
2.662028e+01	-7.354601e+00
2.677404e+01	-7.395414e+00
2.692868e+01	-7.436295e+00
2.708422e+01	-7.477371e+00
2.724066e+01	-7.518676e+00
2.739800e+01	-7.559521e+00
2.755625e+01	-7.600897e+00
2.771541e+01	-7.642362e+00
2.787550e+01	-7.684261e+00
2.803650e+01	-7.725675e+00
2.819844e+01	-7.767107e+00
2.836131e+01	-7.808756e+00
2.852513e+01	-7.850974e+00
2.868989e+01	-7.892478e+00
2.885560e+01	-7.934317e+00
2.902227e+01	-7.976490e+00
2.918990e+01	-8.018359e+00
2.935850e+01	-8.060769e+00
2.952807e+01	-8.103046e+00
2.969863e+01	-8.145398e+00
2.987016e+01	-8.187712e+00
3.004269e+01	-8.230172e+00
3.021622e+01	-8.272424e+00
3.039075e+01	-8.314787e+00
3.056628e+01	-8.358020e+00
3.074283e+01	-8.400601e+00
3.092040e+01	-8.443657e+00
3.109900e+01	-8.486179e+00
3.127862e+01	-8.528896e+00
3.145929e+01	-8.572112e+00
3.164099e+01	-8.615627e+00
3.182375e+01	-8.658644e+00
3.200756e+01	-8.702172e+00
3.219244e+01	-8.745817e+00
3.237838e+01	-8.788480e+00
3.256540e+01	-8.832371e+00
3.275349e+01	-8.875273e+00
3.294268e+01	-8.919269e+00
3.313295e+01	-8.963064e+00
3.332433e+01	-9.006271e+00
3.351681e+01	-9.050466e+00
3.371040e+01	-9.093851e+00
3.390511e+01	-9.138256e+00
3.410094e+01	-9.182088e+00
3.429791e+01	-9.226393e+00
3.449601e+01	-9.270032e+00
3.469526e+01	-9.314170e+00
3.489566e+01	-9.358158e+00
3.509721e+01	-9.402855e+00
3.529993e+01	-9.447265e+00
3.550382e+01	-9.491579e+00
3.570889e+01	-9.536039e+00
3.591515e+01	-9.580430e+00
3.612259e+01	-9.624462e+00
3.633123e+01	-9.668983e+00
3.654108e+01	-9.713791e+00
3.675214e+01	-9.758997e+00
3.696442e+01	-9.803558e+00
3.717792e+01	-9.848286e+00
3.739266e+01	-9.893411e+00
3.760864e+01	-9.937965e+00
3.782587e+01	-9.983236e+00
3.804435e+01	-1.002836e+01
3.826409e+01	-1.007336e+01
3.848510e+01	-1.011841e+01
3.870739e+01	-1.016339e+01
3.893096e+01	-1.020911e+01
3.915583e+01	-1.025434e+01
3.938199e+01	-1.029887e+01
3.960946e+01	-1.034495e+01
3.983824e+01	-1.038994e+01
4.006834e+01	-1.043548e+01
4.029978e+01	-1.048119e+01
4.053255e+01	-1.052742e+01
4.076666e+01	-1.057265e+01
4.100213e+01	-1.061807e+01
4.123896e+01	-1.066384e+01
4.147715e+01	-1.070977e+01
4.171672e+01	-1.075567e+01
4.195767e+01	-1.080169e+01
4.220002e+01	-1.084724e+01
4.244377e+01	-1.089281e+01
4.268892e+01	-1.093887e+01
4.293549e+01	-1.098512e+01
4.318348e+01	-1.103129e+01
4.343291e+01	-1.107712e+01
4.368377e+01	-1.112384e+01
4.393609e+01	-1.116963e+01
4.418986e+01	-1.121589e+01
4.444510e+01	-1.126216e+01
4.470182e+01	-1.130824e+01
4.496001e+01	-1.135466e+01
4.521970e+01	-1.140083e+01
4.548089e+01	-1.144730e+01
4.574358e+01	-1.149369e+01
4.600779e+01	-1.154034e+01
4.627353e+01	-1.158691e+01
4.654081e+01	-1.163384e+01
4.680963e+01	-1.168008e+01
4.708000e+01	-1.172700e+01
4.735193e+01	-1.177325e+01
4.762543e+01	-1.182031e+01
4.790051e+01	-1.186666e+01
4.817719e+01	-1.191372e+01
4.845545e+01	-1.196048e+01
4.873533e+01	-1.200757e+01
4.901682e+01	-1.205461e+01
4.929994e+01	-1.210141e+01
4.958470e+01	-1.214809e+01
4.987110e+01	-1.219466e+01
5.015915e+01	-1.224211e+01
5.044887e+01	-1.228911e+01
5.074026e+01	-1.233635e+01
5.103333e+01	-1.238332e+01
5.132810e+01	-1.243099e+01
5.162457e+01	-1.247794e+01
5.192275e+01	-1.252527e+01
5.222265e+01	-1.257131e+01
5.252429e+01	-1.261941e+01
5.282767e+01	-1.266682e+01
5.313280e+01	-1.271474e+01
5.343969e+01	-1.276128e+01
5.374836e+01	-1.280855e+01
5.405880e+01	-1.285588e+01
5.437105e+01	-1.290364e+01
5.468509e+01	-1.295142e+01
5.500095e+01	-1.299916e+01
5.531863e+01	-1.304632e+01
5.563815e+01	-1.309420e+01
5.595951e+01	-1.314097e+01
5.628273e+01	-1.318930e+01
5.660782e+01	-1.323728e+01
5.693479e+01	-1.328495e+01
5.726364e+01	-1.333207e+01
5.759439e+01	-1.337979e+01
5.792705e+01	-1.342789e+01
5.826164e+01	-1.347503e+01
5.859815e+01	-1.352289e+01
5.893662e+01	-1.357082e+01
5.927703e+01	-1.361934e+01
5.961941e+01	-1.366626e+01
5.996377e+01	-1.371389e+01
6.031012e+01	-1.376180e+01
6.065847e+01	-1.381066e+01
6.100883e+01	-1.385818e+01
6.136121e+01	-1.390699e+01
6.171563e+01	-1.395463e+01
6.207210e+01	-1.400191e+01
6.243063e+01	-1.405021e+01
6.279122e+01	-1.409879e+01
6.315390e+01	-1.414598e+01
6.351868e+01	-1.419509e+01
6.388556e+01	-1.424330e+01
6.425456e+01	-1.429072e+01
6.462569e+01	-1.433987e+01
6.499897e+01	-1.438805e+01
6.537440e+01	-1.443567e+01
6.575200e+01	-1.448355e+01
6.613178e+01	-1.453201e+01
6.651375e+01	-1.457938e+01
6.689793e+01	-1.462860e+01
6.728433e+01	-1.467678e+01
6.767297e+01	-1.472518e+01
6.806384e+01	-1.477420e+01
6.845698e+01	-1.482285e+01
6.885238e+01	-1.487033e+01
6.925007e+01	-1.491936e+01
6.965005e+01	-1.496748e+01
7.005235e+01	-1.501555e+01
7.045697e+01	-1.506384e+01
7.086393e+01	-1.511247e+01
7.127323e+01	-1.516028e+01
7.168490e+01	-1.520921e+01
7.209895e+01	-1.525764e+01
7.251539e+01	-1.530674e+01
7.293424e+01	-1.535442e+01
7.335551e+01	-1.540347e+01
7.377920e+01	-1.545217e+01
7.420535e+01	-1.550081e+01
7.463396e+01	-1.555004e+01
7.506504e+01	-1.559812e+01
7.549861e+01	-1.564654e+01
7.593469e+01	-1.569514e+01
7.637328e+01	-1.574443e+01
7.681441e+01	-1.579368e+01
7.725809e+01	-1.584193e+01
7.770433e+01	-1.589168e+01
7.815315e+01	-1.594020e+01
7.860456e+01	-1.598747e+01
7.905857e+01	-1.603697e+01
7.951521e+01	-1.608608e+01
7.997449e+01	-1.613411e+01
8.043642e+01	-1.618394e+01
8.090102e+01	-1.623235e+01
8.136830e+01	-1.628051e+01
8.183828e+01	-1.632977e+01
8.231097e+01	-1.637889e+01
8.278640e+01	-1.642812e+01
8.326457e+01	-1.647551e+01
8.374550e+01	-1.652414e+01
8.422921e+01	-1.657459e+01
8.471572e+01	-1.662295e+01
8.520503e+01	-1.667185e+01
8.569717e+01	-1.672102e+01
8.619215e+01	-1.676928e+01
8.669000e+01	-1.681920e+01
8.719071e+01	-1.686828e+01
8.769432e+01	-1.691835e+01
8.820084e+01	-1.696470e+01
8.871029e+01	-1.701488e+01
8.922267e+01	-1.706455e+01
8.973802e+01	-1.711238e+01
9.025634e+01	-1.716150e+01
9.077766e+01	-1.721134e+01
9.130199e+01	-1.725952e+01
9.182935e+01	-1.730922e+01
9.235975e+01	-1.735901e+01
9.289321e+01	-1.740869e+01
9.342976e+01	-1.745675e+01
9.396941e+01	-1.750648e+01
9.451217e+01	-1.755503e+01
9.505807e+01	-1.760320e+01
9.560712e+01	-1.765329e+01
9.615934e+01	-1.770236e+01
9.671476e+01	-1.775142e+01
9.727338e+01	-1.780050e+01
9.783522e+01	-1.784992e+01
9.840032e+01	-1.789964e+01
9.896867e+01	-1.794901e+01
9.954031e+01	-1.799779e+01
1.001153e+02	-1.804720e+01
1.006935e+02	-1.809633e+01
1.012751e+02	-1.814654e+01
1.018601e+02	-1.819508e+01
1.024484e+02	-1.824479e+01
1.030402e+02	-1.829358e+01
1.036353e+02	-1.834328e+01
1.042339e+02	-1.839211e+01
1.048360e+02	-1.844070e+01
1.054415e+02	-1.849056e+01
1.060505e+02	-1.854005e+01
1.066631e+02	-1.858965e+01
1.072791e+02	-1.863807e+01
1.078988e+02	-1.868726e+01
1.085220e+02	-1.873690e+01
1.091488e+02	-1.878688e+01
1.097793e+02	-1.883690e+01
1.104133e+02	-1.888583e+01
1.110511e+02	-1.893453e+01
1.116925e+02	-1.898440e+01
1.123376e+02	-1.903450e+01
1.129865e+02	-1.908338e+01
1.136391e+02	-1.913274e+01
1.142955e+02	-1.918216e+01
1.149556e+02	-1.923253e+01
1.156196e+02	-1.928142e+01
1.162874e+02	-1.933047e+01
1.169591e+02	-1.938027e+01
1.176347e+02	-1.942840e+01
1.183141e+02	-1.947982e+01
1.189975e+02	-1.952754e+01
1.196848e+02	-1.957801e+01
1.203761e+02	-1.962758e+01
1.210714e+02	-1.967778e+01
1.217707e+02	-1.972538e+01
1.224740e+02	-1.977531e+01
1.231814e+02	-1.982534e+01
1.238929e+02	-1.987476e+01
1.246085e+02	-1.992503e+01
1.253283e+02	-1.997287e+01
1.260522e+02	-2.002303e+01
1.267802e+02	-2.007446e+01
1.275125e+02	-2.012376e+01
1.282490e+02	-2.017058e+01
1.289898e+02	-2.022123e+01
1.297348e+02	-2.027130e+01
1.304842e+02	-2.032287e+01
1.312378e+02	-2.036970e+01
1.319959e+02	-2.041930e+01
1.327583e+02	-2.046889e+01
1.335251e+02	-2.051832e+01
1.342963e+02	-2.056931e+01
1.350720e+02	-2.061920e+01
1.358522e+02	-2.066784e+01
1.366368e+02	-2.071777e+01
1.374260e+02	-2.076686e+01
1.382198e+02	-2.081729e+01
1.390182e+02	-2.086785e+01
1.398211e+02	-2.091545e+01
1.406287e+02	-2.096491e+01
1.414410e+02	-2.101641e+01
1.422579e+02	-2.106462e+01
1.430796e+02	-2.111427e+01
1.439060e+02	-2.116390e+01
1.447372e+02	-2.121365e+01
1.455732e+02	-2.126218e+01
1.464141e+02	-2.131308e+01
1.472597e+02	-2.136493e+01
1.481103e+02	-2.141129e+01
1.489658e+02	-2.146209e+01
1.498262e+02	-2.151384e+01
1.506916e+02	-2.156172e+01
1.515620e+02	-2.161138e+01
1.524374e+02	-2.166154e+01
1.533179e+02	-2.171118e+01
1.542034e+02	-2.176104e+01
1.550941e+02	-2.180918e+01
1.559899e+02	-2.185903e+01
1.568909e+02	-2.191068e+01
1.577971e+02	-2.195843e+01
1.587085e+02	-2.201055e+01
1.596252e+02	-2.205872e+01
1.605472e+02	-2.210940e+01
1.614745e+02	-2.216021e+01
1.624072e+02	-2.220817e+01
1.633453e+02	-2.225657e+01
1.642887e+02	-2.230643e+01
1.652377e+02	-2.235639e+01
1.661921e+02	-2.240509e+01
1.671520e+02	-2.245581e+01
1.681175e+02	-2.250619e+01
1.690885e+02	-2.255783e+01
1.700651e+02	-2.260578e+01
1.710474e+02	-2.265683e+01
1.720354e+02	-2.270524e+01
1.730291e+02	-2.275652e+01
1.740285e+02	-2.280591e+01
1.750337e+02	-2.285313e+01
1.760446e+02	-2.290591e+01
1.770615e+02	-2.295483e+01
1.780842e+02	-2.300414e+01
1.791128e+02	-2.305295e+01
1.801473e+02	-2.310654e+01
1.811878e+02	-2.315353e+01
1.822344e+02	-2.320486e+01
1.832870e+02	-2.325484e+01
1.843456e+02	-2.330353e+01
1.854104e+02	-2.335158e+01
1.864813e+02	-2.340373e+01
1.875584e+02	-2.345355e+01
1.886418e+02	-2.350389e+01
1.897313e+02	-2.355211e+01
1.908272e+02	-2.360295e+01
1.919294e+02	-2.365024e+01
1.930380e+02	-2.370394e+01
1.941530e+02	-2.375230e+01
1.952744e+02	-2.380114e+01
1.964023e+02	-2.385207e+01
1.975367e+02	-2.390125e+01
1.986777e+02	-2.395245e+01
1.998252e+02	-2.400301e+01
2.009794e+02	-2.405045e+01
2.021403e+02	-2.410115e+01
2.033078e+02	-2.414978e+01
2.044821e+02	-2.419778e+01
2.056632e+02	-2.425153e+01
2.068511e+02	-2.430201e+01
2.080459e+02	-2.435333e+01
2.092475e+02	-2.440145e+01
2.104561e+02	-2.444902e+01
2.116717e+02	-2.450075e+01
2.128943e+02	-2.454827e+01
2.141240e+02	-2.459832e+01
2.153608e+02	-2.464865e+01
2.166047e+02	-2.470203e+01
2.178558e+02	-2.474928e+01
2.191141e+02	-2.479946e+01
2.203797e+02	-2.484918e+01
2.216526e+02	-2.490025e+01
2.229329e+02	-2.494871e+01
2.242205e+02	-2.499803e+01
2.255156e+02	-2.504980e+01
2.268182e+02	-2.509684e+01
2.281283e+02	-2.514822e+01
2.294459e+02	-2.520060e+01
2.307712e+02	-2.524671e+01
2.321041e+02	-2.529944e+01
2.334447e+02	-2.534512e+01
2.347931e+02	-2.539702e+01
2.361493e+02	-2.544585e+01
2.375133e+02	-2.550000e+01
2.388851e+02	-2.554848e+01
2.402649e+02	-2.559975e+01
2.416527e+02	-2.564680e+01
2.430484e+02	-2.569663e+01
2.444523e+02	-2.574791e+01
2.458642e+02	-2.579615e+01
2.472843e+02	-2.584955e+01
2.487126e+02	-2.589729e+01
2.501492e+02	-2.595010e+01
2.515940e+02	-2.599593e+01
2.530472e+02	-2.604609e+01
2.545088e+02	-2.610031e+01
2.559789e+02	-2.614608e+01
2.574574e+02	-2.619644e+01
2.589444e+02	-2.624563e+01
2.604401e+02	-2.629857e+01
2.619444e+02	-2.634606e+01
2.634574e+02	-2.639808e+01
2.649791e+02	-2.644683e+01
2.665096e+02	-2.649672e+01
2.680489e+02	-2.654639e+01
2.695972e+02	-2.659601e+01
2.711544e+02	-2.664871e+01
2.727205e+02	-2.669776e+01
2.742958e+02	-2.674804e+01
2.758801e+02	-2.679891e+01
2.774736e+02	-2.684740e+01
2.790762e+02	-2.689508e+01
2.806882e+02	-2.694431e+01
2.823094e+02	-2.699351e+01
2.839400e+02	-2.704360e+01
2.855800e+02	-2.709493e+01
2.872295e+02	-2.714992e+01
2.888886e+02	-2.719468e+01
2.905572e+02	-2.724630e+01
2.922354e+02	-2.729956e+01
2.939234e+02	-2.734833e+01
2.956211e+02	-2.739667e+01
2.973286e+02	-2.744789e+01
2.990459e+02	-2.749426e+01
3.007732e+02	-2.754445e+01
3.025104e+02	-2.759463e+01
3.042577e+02	-2.764447e+01
3.060151e+02	-2.769664e+01
3.077826e+02	-2.774546e+01
3.095604e+02	-2.779742e+01
3.113484e+02	-2.784619e+01
3.131467e+02	-2.789794e+01
3.149554e+02	-2.794612e+01
3.167746e+02	-2.799663e+01
3.186043e+02	-2.804887e+01
3.204445e+02	-2.809841e+01
3.222954e+02	-2.814718e+01
3.241570e+02	-2.819507e+01
3.260293e+02	-2.824650e+01
3.279124e+02	-2.829826e+01
3.298064e+02	-2.834762e+01
3.317114e+02	-2.839621e+01
3.336273e+02	-2.845004e+01
3.355544e+02	-2.849675e+01
3.374925e+02	-2.854924e+01
3.394418e+02	-2.859437e+01
3.414024e+02	-2.865016e+01
3.433744e+02	-2.869828e+01
3.453577e+02	-2.874423e+01
3.473525e+02	-2.879492e+01
3.493588e+02	-2.884277e+01
3.513766e+02	-2.889595e+01
3.534062e+02	-2.894852e+01
3.554474e+02	-2.899833e+01
3.575005e+02	-2.904853e+01
3.595654e+02	-2.909604e+01
3.616422e+02	-2.914514e+01
3.637311e+02	-2.920044e+01
3.658320e+02	-2.924816e+01
3.679450e+02	-2.929933e+01
3.700702e+02	-2.934843e+01
3.722077e+02	-2.939771e+01
3.743576e+02	-2.944797e+01
3.765199e+02	-2.950478e+01
3.786946e+02	-2.954808e+01
3.808820e+02	-2.959543e+01
3.830819e+02	-2.965313e+01
3.852946e+02	-2.969993e+01
3.875200e+02	-2.974720e+01
3.897583e+02	-2.980149e+01
3.920096e+02	-2.984943e+01
3.942738e+02	-2.989562e+01
3.965511e+02	-2.995276e+01
3.988416e+02	-2.999576e+01
4.011452e+02	-3.005242e+01
4.034622e+02	-3.009406e+01
4.057926e+02	-3.014859e+01
4.081365e+02	-3.019978e+01
4.104938e+02	-3.025023e+01
4.128648e+02	-3.029595e+01
4.152495e+02	-3.035053e+01
4.176480e+02	-3.039902e+01
4.200603e+02	-3.045255e+01
4.224866e+02	-3.049847e+01
4.249268e+02	-3.054853e+01
4.273812e+02	-3.059596e+01
4.298497e+02	-3.065089e+01
4.323325e+02	-3.070025e+01
4.348297e+02	-3.074855e+01
4.373412e+02	-3.079695e+01
4.398673e+02	-3.085359e+01
4.424079e+02	-3.090561e+01
4.449633e+02	-3.095380e+01
4.475334e+02	-3.099922e+01
4.501183e+02	-3.105613e+01
4.527182e+02	-3.110888e+01
4.553330e+02	-3.115415e+01
4.579630e+02	-3.120176e+01
4.606082e+02	-3.124551e+01
4.632687e+02	-3.130167e+01
4.659445e+02	-3.135031e+01
4.686358e+02	-3.140199e+01
4.713426e+02	-3.145084e+01
4.740650e+02	-3.150267e+01
4.768032e+02	-3.155184e+01
4.795572e+02	-3.159846e+01
4.823271e+02	-3.165610e+01
4.851130e+02	-3.170304e+01
4.879150e+02	-3.175634e+01
4.907332e+02	-3.179881e+01
4.935676e+02	-3.185579e+01
4.964185e+02	-3.190507e+01
4.992858e+02	-3.195895e+01
5.021696e+02	-3.200509e+01
5.050701e+02	-3.206100e+01
5.079874e+02	-3.210651e+01
5.109215e+02	-3.215505e+01
5.138726e+02	-3.220295e+01
5.168407e+02	-3.225865e+01
5.198259e+02	-3.231119e+01
5.228284e+02	-3.235797e+01
5.258482e+02	-3.240275e+01
5.288855e+02	-3.245924e+01
5.319403e+02	-3.250619e+01
5.350128e+02	-3.255923e+01
5.381030e+02	-3.261176e+01
5.412111e+02	-3.265164e+01
5.443371e+02	-3.270870e+01
5.474812e+02	-3.275596e+01
5.506434e+02	-3.280400e+01
5.538239e+02	-3.285698e+01
5.570228e+02	-3.290484e+01
5.602401e+02	-3.297130e+01
5.634760e+02	-3.301385e+01
5.667306e+02	-3.306115e+01
5.700040e+02	-3.311273e+01
5.732964e+02	-3.315904e+01
5.766077e+02	-3.321023e+01
5.799382e+02	-3.326352e+01
5.832879e+02	-3.331122e+01
5.866569e+02	-3.335517e+01
5.900454e+02	-3.341792e+01
5.934535e+02	-3.347173e+01
5.968813e+02	-3.351150e+01
6.003288e+02	-3.356413e+01
6.037963e+02	-3.361280e+01
6.072838e+02	-3.365930e+01
6.107914e+02	-3.371367e+01
6.143194e+02	-3.375944e+01
6.178676e+02	-3.381142e+01
6.214364e+02	-3.386743e+01
6.250258e+02	-3.391386e+01
6.286359e+02	-3.396932e+01
6.322669e+02	-3.401198e+01
6.359189e+02	-3.406002e+01
6.395919e+02	-3.412747e+01
6.432862e+02	-3.416104e+01
6.470017e+02	-3.421944e+01
6.507388e+02	-3.427594e+01
6.544974e+02	-3.431686e+01
6.582778e+02	-3.437350e+01
6.620800e+02	-3.441575e+01
6.659041e+02	-3.447283e+01
6.697504e+02	-3.451769e+01
6.736188e+02	-3.455920e+01
6.775096e+02	-3.462982e+01
6.814229e+02	-3.466498e+01
6.853587e+02	-3.472495e+01
6.893173e+02	-3.476438e+01
6.932988e+02	-3.481615e+01
6.973033e+02	-3.487623e+01
7.013309e+02	-3.493075e+01
