Frequency(Hz)	Magnitude(dB)
1.000000e+01	-1.877866e+00
1.005776e+01	-1.895151e+00
1.011585e+01	-1.913112e+00
1.017428e+01	-1.930924e+00
1.023305e+01	-1.948825e+00
1.029215e+01	-1.967155e+00
1.035160e+01	-1.985598e+00
1.041139e+01	-2.003650e+00
1.047153e+01	-2.022487e+00
1.053201e+01	-2.041033e+00
1.059284e+01	-2.059910e+00
1.065403e+01	-2.078698e+00
1.071556e+01	-2.098219e+00
1.077746e+01	-2.117136e+00
1.083971e+01	-2.136453e+00
1.090232e+01	-2.155964e+00
1.096529e+01	-2.175579e+00
1.102862e+01	-2.195559e+00
1.109232e+01	-2.215375e+00
1.115639e+01	-2.235558e+00
1.122083e+01	-2.255460e+00
1.128564e+01	-2.276042e+00
1.135083e+01	-2.296477e+00
1.141639e+01	-2.316873e+00
1.148233e+01	-2.337578e+00
1.154865e+01	-2.358522e+00
1.161536e+01	-2.379751e+00
1.168245e+01	-2.400831e+00
1.174992e+01	-2.422169e+00
1.181779e+01	-2.443503e+00
1.188605e+01	-2.465206e+00
1.195470e+01	-2.486934e+00
1.202375e+01	-2.508665e+00
1.209320e+01	-2.530966e+00
1.216305e+01	-2.553047e+00
1.223330e+01	-2.575258e+00
1.230396e+01	-2.597770e+00
1.237503e+01	-2.620502e+00
1.244651e+01	-2.643023e+00
1.251840e+01	-2.665858e+00
1.259070e+01	-2.689037e+00
1.266343e+01	-2.712214e+00
1.273657e+01	-2.735697e+00
1.281014e+01	-2.759199e+00
1.288413e+01	-2.782604e+00
1.295855e+01	-2.806459e+00
1.303339e+01	-2.830023e+00
1.310867e+01	-2.854419e+00
1.318439e+01	-2.878445e+00
1.326054e+01	-2.902773e+00
1.333713e+01	-2.927323e+00
1.341417e+01	-2.951747e+00
1.349165e+01	-2.976597e+00
1.356958e+01	-3.001397e+00
1.364795e+01	-3.026306e+00
1.372678e+01	-3.051508e+00
1.380607e+01	-3.076882e+00
1.388581e+01	-3.102474e+00
1.396602e+01	-3.128285e+00
1.404668e+01	-3.153634e+00
1.412782e+01	-3.179519e+00
1.420942e+01	-3.205935e+00
1.429149e+01	-3.231808e+00
1.437404e+01	-3.258191e+00
1.445706e+01	-3.284579e+00
1.454057e+01	-3.311150e+00
1.462455e+01	-3.338055e+00
1.470902e+01	-3.364734e+00
1.479398e+01	-3.391878e+00
1.487943e+01	-3.419185e+00
1.496537e+01	-3.446498e+00
1.505181e+01	-3.474130e+00
1.513875e+01	-3.501584e+00
1.522619e+01	-3.529436e+00
1.531414e+01	-3.557295e+00
1.540259e+01	-3.585050e+00
1.549156e+01	-3.613516e+00
1.558103e+01	-3.641915e+00
1.567103e+01	-3.670490e+00
1.576155e+01	-3.699008e+00
1.585258e+01	-3.727793e+00
1.594415e+01	-3.756402e+00
1.603624e+01	-3.785283e+00
1.612886e+01	-3.814376e+00
1.622202e+01	-3.844006e+00
1.631572e+01	-3.873784e+00
1.640996e+01	-3.903122e+00
1.650474e+01	-3.932945e+00
1.660008e+01	-3.962651e+00
1.669596e+01	-3.992764e+00
1.679239e+01	-4.022689e+00
1.688938e+01	-4.052867e+00
1.698694e+01	-4.083572e+00
1.708505e+01	-4.114169e+00
1.718373e+01	-4.144898e+00
1.728299e+01	-4.175404e+00
1.738281e+01	-4.206784e+00
1.748322e+01	-4.237755e+00
1.758420e+01	-4.269101e+00
1.768576e+01	-4.300240e+00
1.778792e+01	-4.331778e+00
1.789066e+01	-4.363369e+00
1.799399e+01	-4.394964e+00
1.809793e+01	-4.427275e+00
1.820246e+01	-4.459101e+00
1.830760e+01	-4.491278e+00
1.841334e+01	-4.523714e+00
1.851969e+01	-4.556202e+00
1.862666e+01	-4.588381e+00
1.873425e+01	-4.621286e+00
1.884246e+01	-4.654365e+00
1.895129e+01	-4.687542e+00
1.906075e+01	-4.720281e+00
1.917085e+01	-4.753586e+00
1.928158e+01	-4.786895e+00
1.939295e+01	-4.820107e+00
1.950496e+01	-4.854107e+00
1.961762e+01	-4.887444e+00
1.973093e+01	-4.921604e+00
1.984490e+01	-4.955619e+00
1.995952e+01	-4.989430e+00
2.007480e+01	-5.023788e+00
2.019076e+01	-5.058080e+00
2.030738e+01	-5.092713e+00
2.042467e+01	-5.126886e+00
2.054264e+01	-5.162004e+00
2.066130e+01	-5.196779e+00
2.078064e+01	-5.231555e+00
2.090066e+01	-5.266709e+00
2.102139e+01	-5.302066e+00
2.114280e+01	-5.337201e+00
2.126492e+01	-5.372901e+00
2.138775e+01	-5.408044e+00
2.151128e+01	-5.444201e+00
2.163553e+01	-5.479797e+00
2.176050e+01	-5.516132e+00
2.188619e+01	-5.551888e+00
2.201260e+01	-5.587888e+00
2.213974e+01	-5.624294e+00
2.226762e+01	-5.660440e+00
2.239624e+01	-5.697262e+00
2.252560e+01	-5.733752e+00
2.265571e+01	-5.770466e+00
2.278656e+01	-5.807465e+00
2.291818e+01	-5.844598e+00
2.305055e+01	-5.880890e+00
2.318369e+01	-5.918243e+00
2.331760e+01	-5.955882e+00
2.345228e+01	-5.993102e+00
2.358774e+01	-6.030771e+00
2.372398e+01	-6.067790e+00
2.386101e+01	-6.105906e+00
2.399883e+01	-6.143724e+00
2.413745e+01	-6.181979e+00
2.427686e+01	-6.219606e+00
2.441709e+01	-6.257918e+00
2.455812e+01	-6.296104e+00
2.469997e+01	-6.334201e+00
2.484263e+01	-6.372644e+00
2.498612e+01	-6.411388e+00
2.513044e+01	-6.450102e+00
2.527559e+01	-6.489019e+00
2.542158e+01	-6.527820e+00
2.556842e+01	-6.566689e+00
2.571610e+01	-6.605543e+00
2.586463e+01	-6.644782e+00
2.601403e+01	-6.684032e+00
2.616428e+01	-6.722986e+00
2.631541e+01	-6.762681e+00
2.646740e+01	-6.802292e+00
2.662028e+01	-6.841821e+00
2.677404e+01	-6.881876e+00
2.692868e+01	-6.921312e+00
2.708422e+01	-6.961232e+00
2.724066e+01	-7.001295e+00
2.739800e+01	-7.041223e+00
2.755625e+01	-7.081735e+00
2.771541e+01	-7.122250e+00
2.787550e+01	-7.162322e+00
2.803650e+01	-7.203024e+00
2.819844e+01	-7.243383e+00
2.836131e+01	-7.284069e+00
2.852513e+01	-7.324570e+00
2.868989e+01	-7.365544e+00
2.885560e+01	-7.406145e+00
2.902227e+01	-7.447306e+00
2.918990e+01	-7.488416e+00
2.935850e+01	-7.529707e+00
2.952807e+01	-7.570782e+00
2.969863e+01	-7.612048e+00
2.987016e+01	-7.653599e+00
3.004269e+01	-7.694998e+00
3.021622e+01	-7.736023e+00
3.039075e+01	-7.778152e+00
3.056628e+01	-7.819956e+00
3.074283e+01	-7.861480e+00
3.092040e+01	-7.903441e+00
3.109900e+01	-7.945318e+00
3.127862e+01	-7.987993e+00
3.145929e+01	-8.029823e+00
3.164099e+01	-8.071997e+00
3.182375e+01	-8.114051e+00
3.200756e+01	-8.156605e+00
3.219244e+01	-8.198795e+00
3.237838e+01	-8.241664e+00
3.256540e+01	-8.283755e+00
3.275349e+01	-8.326738e+00
3.294268e+01	-8.369187e+00
3.313295e+01	-8.412040e+00
3.332433e+01	-8.454571e+00
3.351681e+01	-8.497554e+00
3.371040e+01	-8.540728e+00
3.390511e+01	-8.583571e+00
3.410094e+01	-8.626961e+00
3.429791e+01	-8.670083e+00
3.449601e+01	-8.713517e+00
3.469526e+01	-8.756710e+00
3.489566e+01	-8.800206e+00
3.509721e+01	-8.843840e+00
3.529993e+01	-8.887159e+00
3.550382e+01	-8.930759e+00
3.570889e+01	-8.974303e+00
3.591515e+01	-9.017843e+00
3.612259e+01	-9.061766e+00
3.633123e+01	-9.105770e+00
3.654108e+01	-9.149726e+00
3.675214e+01	-9.193548e+00
3.696442e+01	-9.238138e+00
3.717792e+01	-9.281174e+00
3.739266e+01	-9.325988e+00
3.760864e+01	-9.370424e+00
3.782587e+01	-9.414113e+00
3.804435e+01	-9.458290e+00
3.826409e+01	-9.503195e+00
3.848510e+01	-9.547604e+00
3.870739e+01	-9.591607e+00
3.893096e+01	-9.636811e+00
3.915583e+01	-9.681335e+00
3.938199e+01	-9.725930e+00
3.960946e+01	-9.770664e+00
3.983824e+01	-9.815777e+00
4.006834e+01	-9.860553e+00
4.029978e+01	-9.905042e+00
4.053255e+01	-9.949676e+00
4.076666e+01	-9.995266e+00
4.100213e+01	-1.004021e+01
4.123896e+01	-1.008513e+01
4.147715e+01	-1.013033e+01
4.171672e+01	-1.017540e+01
4.195767e+01	-1.022118e+01
4.220002e+01	-1.026630e+01
4.244377e+01	-1.031177e+01
4.268892e+01	-1.035663e+01
4.293549e+01	-1.040234e+01
4.318348e+01	-1.044779e+01
4.343291e+01	-1.049354e+01
4.368377e+01	-1.053841e+01
4.393609e+01	-1.058452e+01
4.418986e+01	-1.063051e+01
4.444510e+01	-1.067589e+01
4.470182e+01	-1.072136e+01
4.496001e+01	-1.076734e+01
4.521970e+01	-1.081391e+01
4.548089e+01	-1.085890e+01
4.574358e+01	-1.090549e+01
4.600779e+01	-1.095157e+01
4.627353e+01	-1.099709e+01
4.654081e+01	-1.104330e+01
4.680963e+01	-1.108937e+01
4.708000e+01	-1.113590e+01
4.735193e+01	-1.118238e+01
4.762543e+01	-1.122816e+01
4.790051e+01	-1.127389e+01
4.817719e+01	-1.132052e+01
4.845545e+01	-1.136663e+01
4.873533e+01	-1.141308e+01
4.901682e+01	-1.145985e+01
4.929994e+01	-1.150702e+01
4.958470e+01	-1.155303e+01
4.987110e+01	-1.159945e+01
5.015915e+01	-1.164629e+01
5.044887e+01	-1.169279e+01
5.074026e+01	-1.173888e+01
5.103333e+01	-1.178649e+01
5.132810e+01	-1.183281e+01
5.162457e+01	-1.187902e+01
5.192275e+01	-1.192615e+01
5.222265e+01	-1.197313e+01
5.252429e+01	-1.202071e+01
5.282767e+01	-1.206636e+01
5.313280e+01	-1.211369e+01
5.343969e+01	-1.216077e+01
5.374836e+01	-1.220776e+01
5.405880e+01	-1.225493e+01
5.437105e+01	-1.230215e+01
5.468509e+01	-1.234900e+01
5.500095e+01	-1.239559e+01
5.531863e+01	-1.244305e+01
5.563815e+01	-1.249099e+01
5.595951e+01	-1.253771e+01
5.628273e+01	-1.258507e+01
5.660782e+01	-1.263189e+01
5.693479e+01	-1.267927e+01
5.726364e+01	-1.272694e+01
5.759439e+01	-1.277402e+01
5.792705e+01	-1.282186e+01
5.826164e+01	-1.286902e+01
5.859815e+01	-1.291601e+01
5.893662e+01	-1.296351e+01
5.927703e+01	-1.301154e+01
5.961941e+01	-1.305912e+01
5.996377e+01	-1.310716e+01
6.031012e+01	-1.315410e+01
6.065847e+01	-1.320165e+01
6.100883e+01	-1.325028e+01
6.136121e+01	-1.329696e+01
6.171563e+01	-1.334486e+01
6.207210e+01	-1.339223e+01
6.243063e+01	-1.344044e+01
6.279122e+01	-1.348839e+01
6.315390e+01	-1.353547e+01
6.351868e+01	-1.358325e+01
6.388556e+01	-1.363211e+01
6.425456e+01	-1.367912e+01
6.462569e+01	-1.372755e+01
6.499897e+01	-1.377586e+01
6.537440e+01	-1.382361e+01
6.575200e+01	-1.387234e+01
6.613178e+01	-1.391950e+01
6.651375e+01	-1.396704e+01
6.689793e+01	-1.401629e+01
6.728433e+01	-1.406403e+01
6.767297e+01	-1.411210e+01
6.806384e+01	-1.415937e+01
6.845698e+01	-1.420669e+01
6.885238e+01	-1.425524e+01
6.925007e+01	-1.430425e+01
6.965005e+01	-1.435159e+01
7.005235e+01	-1.440036e+01
7.045697e+01	-1.444851e+01
7.086393e+01	-1.449668e+01
7.127323e+01	-1.454432e+01
7.168490e+01	-1.459326e+01
7.209895e+01	-1.464157e+01
7.251539e+01	-1.468905e+01
7.293424e+01	-1.473752e+01
7.335551e+01	-1.478657e+01
7.377920e+01	-1.483426e+01
7.420535e+01	-1.488307e+01
7.463396e+01	-1.493197e+01
7.506504e+01	-1.498002e+01
7.549861e+01	-1.502919e+01
7.593469e+01	-1.507737e+01
7.637328e+01	-1.512547e+01
7.681441e+01	-1.517388e+01
7.725809e+01	-1.522234e+01
7.770433e+01	-1.527117e+01
7.815315e+01	-1.531899e+01
7.860456e+01	-1.536811e+01
7.905857e+01	-1.541681e+01
7.951521e+01	-1.546489e+01
7.997449e+01	-1.551496e+01
8.043642e+01	-1.556284e+01
8.090102e+01	-1.561140e+01
8.136830e+01	-1.566055e+01
8.183828e+01	-1.570840e+01
8.231097e+01	-1.575670e+01
8.278640e+01	-1.580521e+01
8.326457e+01	-1.585493e+01
8.374550e+01	-1.590370e+01
8.422921e+01	-1.595166e+01
8.471572e+01	-1.600135e+01
8.520503e+01	-1.605033e+01
8.569717e+01	-1.609829e+01
8.619215e+01	-1.614754e+01
8.669000e+01	-1.619636e+01
8.719071e+01	-1.624483e+01
8.769432e+01	-1.629299e+01
8.820084e+01	-1.634345e+01
8.871029e+01	-1.639124e+01
8.922267e+01	-1.644024e+01
8.973802e+01	-1.648932e+01
9.025634e+01	-1.653767e+01
9.077766e+01	-1.658671e+01
9.130199e+01	-1.663662e+01
9.182935e+01	-1.668461e+01
9.235975e+01	-1.673418e+01
9.289321e+01	-1.678280e+01
9.342976e+01	-1.683242e+01
9.396941e+01	-1.688024e+01
9.451217e+01	-1.693048e+01
9.505807e+01	-1.697900e+01
9.560712e+01	-1.702873e+01
9.615934e+01	-1.707807e+01
9.671476e+01	-1.712552e+01
9.727338e+01	-1.717414e+01
9.783522e+01	-1.722366e+01
9.840032e+01	-1.727312e+01
9.896867e+01	-1.732375e+01
9.954031e+01	-1.737121e+01
1.001153e+02	-1.742211e+01
1.006935e+02	-1.746989e+01
1.012751e+02	-1.751910e+01
1.018601e+02	-1.756830e+01
1.024484e+02	-1.761713e+01
1.030402e+02	-1.766606e+01
1.036353e+02	-1.771560e+01
1.042339e+02	-1.776434e+01
1.048360e+02	-1.781276e+01
1.054415e+02	-1.786348e+01
1.060505e+02	-1.791453e+01
1.066631e+02	-1.796202e+01
1.072791e+02	-1.801103e+01
1.078988e+02	-1.805956e+01
1.085220e+02	-1.811010e+01
1.091488e+02	-1.815828e+01
1.097793e+02	-1.820744e+01
1.104133e+02	-1.825790e+01
1.110511e+02	-1.830697e+01
1.116925e+02	-1.835543e+01
1.123376e+02	-1.840610e+01
1.129865e+02	-1.845511e+01
1.136391e+02	-1.850433e+01
1.142955e+02	-1.855367e+01
1.149556e+02	-1.860230e+01
1.156196e+02	-1.865139e+01
1.162874e+02	-1.870097e+01
1.169591e+02	-1.875210e+01
1.176347e+02	-1.880048e+01
1.183141e+02	-1.884901e+01
1.189975e+02	-1.889973e+01
1.196848e+02	-1.894882e+01
1.203761e+02	-1.899751e+01
1.210714e+02	-1.904740e+01
1.217707e+02	-1.909546e+01
1.224740e+02	-1.914549e+01
1.231814e+02	-1.919491e+01
1.238929e+02	-1.924353e+01
1.246085e+02	-1.929422e+01
1.253283e+02	-1.934293e+01
1.260522e+02	-1.939395e+01
1.267802e+02	-1.944302e+01
1.275125e+02	-1.949125e+01
1.282490e+02	-1.954338e+01
1.289898e+02	-1.959101e+01
1.297348e+02	-1.964107e+01
1.304842e+02	-1.968875e+01
1.312378e+02	-1.973915e+01
1.319959e+02	-1.978812e+01
1.327583e+02	-1.983803e+01
1.335251e+02	-1.988721e+01
1.342963e+02	-1.993836e+01
1.350720e+02	-1.998645e+01
1.358522e+02	-2.003737e+01
1.366368e+02	-2.008639e+01
1.374260e+02	-2.013520e+01
1.382198e+02	-2.018406e+01
1.390182e+02	-2.023268e+01
1.398211e+02	-2.028452e+01
1.406287e+02	-2.033424e+01
1.414410e+02	-2.038467e+01
1.422579e+02	-2.043450e+01
1.430796e+02	-2.048279e+01
1.439060e+02	-2.053314e+01
1.447372e+02	-2.058272e+01
1.455732e+02	-2.063132e+01
1.464141e+02	-2.067907e+01
1.472597e+02	-2.073198e+01
1.481103e+02	-2.077981e+01
1.489658e+02	-2.083041e+01
1.498262e+02	-2.088070e+01
1.506916e+02	-2.092895e+01
1.515620e+02	-2.098004e+01
1.524374e+02	-2.102783e+01
1.533179e+02	-2.107786e+01
1.542034e+02	-2.112819e+01
1.550941e+02	-2.117695e+01
1.559899e+02	-2.122643e+01
1.568909e+02	-2.127797e+01
1.577971e+02	-2.132368e+01
1.587085e+02	-2.137672e+01
1.596252e+02	-2.142510e+01
1.605472e+02	-2.147449e+01
1.614745e+02	-2.152476e+01
1.624072e+02	-2.157474e+01
1.633453e+02	-2.162426e+01
1.642887e+02	-2.167360e+01
1.652377e+02	-2.172557e+01
1.661921e+02	-2.177278e+01
1.671520e+02	-2.182316e+01
1.681175e+02	-2.187112e+01
1.690885e+02	-2.192373e+01
1.700651e+02	-2.197181e+01
1.710474e+02	-2.202114e+01
1.720354e+02	-2.207134e+01
1.730291e+02	-2.212220e+01
1.740285e+02	-2.217045e+01
1.750337e+02	-2.222018e+01
1.760446e+02	-2.227036e+01
1.770615e+02	-2.231982e+01
1.780842e+02	-2.236988e+01
1.791128e+02	-2.242119e+01
1.801473e+02	-2.247009e+01
1.811878e+02	-2.251961e+01
1.822344e+02	-2.256781e+01
1.832870e+02	-2.261862e+01
1.843456e+02	-2.267125e+01
1.854104e+02	-2.271855e+01
1.864813e+02	-2.276522e+01
1.875584e+02	-2.281644e+01
1.886418e+02	-2.286641e+01
1.897313e+02	-2.291870e+01
1.908272e+02	-2.296784e+01
1.919294e+02	-2.301827e+01
1.930380e+02	-2.306566e+01
1.941530e+02	-2.311599e+01
1.952744e+02	-2.316752e+01
1.964023e+02	-2.321599e+01
1.975367e+02	-2.326819e+01
1.986777e+02	-2.331567e+01
1.998252e+02	-2.336583e+01
2.009794e+02	-2.341585e+01
2.021403e+02	-2.346684e+01
2.033078e+02	-2.351659e+01
2.044821e+02	-2.356619e+01
2.056632e+02	-2.361568e+01
2.068511e+02	-2.366491e+01
2.080459e+02	-2.371434e+01
2.092475e+02	-2.376845e+01
2.104561e+02	-2.381355e+01
2.116717e+02	-2.386568e+01
2.128943e+02	-2.391254e+01
2.141240e+02	-2.396343e+01
2.153608e+02	-2.401351e+01
2.166047e+02	-2.406332e+01
2.178558e+02	-2.411521e+01
2.191141e+02	-2.416235e+01
2.203797e+02	-2.421321e+01
2.216526e+02	-2.426493e+01
2.229329e+02	-2.431648e+01
2.242205e+02	-2.436327e+01
2.255156e+02	-2.441312e+01
2.268182e+02	-2.446376e+01
2.281283e+02	-2.451306e+01
2.294459e+02	-2.456295e+01
2.307712e+02	-2.460955e+01
2.321041e+02	-2.466134e+01
2.334447e+02	-2.471056e+01
2.347931e+02	-2.476506e+01
2.361493e+02	-2.481278e+01
2.375133e+02	-2.486026e+01
2.388851e+02	-2.491486e+01
2.402649e+02	-2.496127e+01
2.416527e+02	-2.501291e+01
2.430484e+02	-2.506027e+01
2.444523e+02	-2.511134e+01
2.458642e+02	-2.515961e+01
2.472843e+02	-2.521082e+01
2.487126e+02	-2.526118e+01
2.501492e+02	-2.530930e+01
2.515940e+02	-2.536088e+01
2.530472e+02	-2.541240e+01
2.545088e+02	-2.546369e+01
2.559789e+02	-2.551114e+01
2.574574e+02	-2.556057e+01
2.589444e+02	-2.560989e+01
2.604401e+02	-2.566225e+01
2.619444e+02	-2.571157e+01
2.634574e+02	-2.576113e+01
2.649791e+02	-2.580841e+01
2.665096e+02	-2.586121e+01
2.680489e+02	-2.591178e+01
2.695972e+02	-2.596040e+01
2.711544e+02	-2.601063e+01
2.727205e+02	-2.606111e+01
2.742958e+02	-2.610861e+01
2.758801e+02	-2.616008e+01
2.774736e+02	-2.620778e+01
2.790762e+02	-2.626027e+01
2.806882e+02	-2.631083e+01
2.823094e+02	-2.636015e+01
2.839400e+02	-2.640908e+01
2.855800e+02	-2.645931e+01
2.872295e+02	-2.650980e+01
2.888886e+02	-2.655863e+01
2.905572e+02	-2.660823e+01
2.922354e+02	-2.666217e+01
2.939234e+02	-2.670370e+01
2.956211e+02	-2.676046e+01
2.973286e+02	-2.680872e+01
2.990459e+02	-2.686186e+01
3.007732e+02	-2.690949e+01
3.025104e+02	-2.695840e+01
3.042577e+02	-2.700756e+01
3.060151e+02	-2.705961e+01
3.077826e+02	-2.710930e+01
3.095604e+02	-2.715885e+01
3.113484e+02	-2.720947e+01
3.131467e+02	-2.726110e+01
3.149554e+02	-2.731099e+01
3.167746e+02	-2.736253e+01
3.186043e+02	-2.740944e+01
3.204445e+02	-2.745909e+01
3.222954e+02	-2.750690e+01
3.241570e+02	-2.756147e+01
3.260293e+02	-2.760789e+01
3.279124e+02	-2.766048e+01
3.298064e+02	-2.770585e+01
3.317114e+02	-2.775996e+01
3.336273e+02	-2.780990e+01
3.355544e+02	-2.786165e+01
3.374925e+02	-2.791294e+01
3.394418e+02	-2.795826e+01
3.414024e+02	-2.800817e+01
3.433744e+02	-2.805828e+01
3.453577e+02	-2.811116e+01
3.473525e+02	-2.815967e+01
3.493588e+02	-2.820657e+01
3.513766e+02	-2.825666e+01
3.534062e+02	-2.831101e+01
3.554474e+02	-2.836113e+01
3.575005e+02	-2.840660e+01
3.595654e+02	-2.845954e+01
3.616422e+02	-2.850623e+01
3.637311e+02	-2.856145e+01
3.658320e+02	-2.861219e+01
3.679450e+02	-2.865749e+01
3.700702e+02	-2.870960e+01
3.722077e+02	-2.875862e+01
3.743576e+02	-2.881008e+01
3.765199e+02	-2.886318e+01
3.786946e+02	-2.891170e+01
3.808820e+02	-2.895320e+01
3.830819e+02	-2.901204e+01
3.852946e+02	-2.906461e+01
3.875200e+02	-2.911224e+01
3.897583e+02	-2.916186e+01
3.920096e+02	-2.920961e+01
3.942738e+02	-2.926242e+01
3.965511e+02	-2.930997e+01
3.988416e+02	-2.936289e+01
4.011452e+02	-2.941413e+01
4.034622e+02	-2.946426e+01
4.057926e+02	-2.951159e+01
4.081365e+02	-2.956135e+01
4.104938e+02	-2.961323e+01
4.128648e+02	-2.965899e+01
4.152495e+02	-2.970986e+01
4.176480e+02	-2.976024e+01
4.200603e+02	-2.981195e+01
4.224866e+02	-2.985899e+01
4.249268e+02	-2.991290e+01
4.273812e+02	-2.996529e+01
4.298497e+02	-3.001597e+01
4.323325e+02	-3.006367e+01
4.348297e+02	-3.011024e+01
4.373412e+02	-3.015652e+01
4.398673e+02	-3.020746e+01
4.424079e+02	-3.025966e+01
4.449633e+02	-3.030835e+01
4.475334e+02	-3.036494e+01
4.501183e+02	-3.041613e+01
4.527182e+02	-3.046264e+01
4.553330e+02	-3.051827e+01
4.579630e+02	-3.056906e+01
4.606082e+02	-3.061116e+01
4.632687e+02	-3.066652e+01
4.659445e+02	-3.071264e+01
4.686358e+02	-3.075899e+01
4.713426e+02	-3.082123e+01
4.740650e+02	-3.086245e+01
4.768032e+02	-3.091625e+01
4.795572e+02	-3.096691e+01
4.823271e+02	-3.101216e+01
4.851130e+02	-3.106620e+01
4.879150e+02	-3.111765e+01
4.907332e+02	-3.116409e+01
4.935676e+02	-3.121113e+01
4.964185e+02	-3.126215e+01
4.992858e+02	-3.131472e+01
5.021696e+02	-3.136693e+01
5.050701e+02	-3.142002e+01
5.079874e+02	-3.146384e+01
5.109215e+02	-3.150621e+01
5.138726e+02	-3.156311e+01
5.168407e+02	-3.161770e+01
5.198259e+02	-3.167330e+01
5.228284e+02	-3.171463e+01
5.258482e+02	-3.177041e+01
5.288855e+02	-3.182452e+01
5.319403e+02	-3.186222e+01
5.350128e+02	-3.192321e+01
5.381030e+02	-3.196546e+01
5.412111e+02	-3.201370e+01
5.443371e+02	-3.207219e+01
5.474812e+02	-3.211756e+01
5.506434e+02	-3.217072e+01
5.538239e+02	-3.221858e+01
5.570228e+02	-3.226979e+01
5.602401e+02	-3.231937e+01
5.634760e+02	-3.237087e+01
5.667306e+02	-3.241943e+01
5.700040e+02	-3.246070e+01
5.732964e+02	-3.251779e+01
5.766077e+02	-3.257443e+01
5.799382e+02	-3.262112e+01
5.832879e+02	-3.266744e+01
5.866569e+02	-3.272374e+01
5.900454e+02	-3.276701e+01
5.934535e+02	-3.282400e+01
5.968813e+02	-3.286262e+01
6.003288e+02	-3.291967e+01
6.037963e+02	-3.296921e+01
6.072838e+02	-3.302313e+01
6.107914e+02	-3.306938e+01
6.143194e+02	-3.312344e+01
6.178676e+02	-3.316148e+01
6.214364e+02	-3.322196e+01
6.250258e+02	-3.327211e+01
6.286359e+02	-3.332406e+01
6.322669e+02	-3.337583e+01
6.359189e+02	-3.341979e+01
6.395919e+02	-3.347122e+01
6.432862e+02	-3.353028e+01
6.470017e+02	-3.357388e+01
6.507388e+02	-3.362635e+01
6.544974e+02	-3.368237e+01
6.582778e+02	-3.372864e+01
6.620800e+02	-3.377872e+01
6.659041e+02	-3.382748e+01
6.697504e+02	-3.387291e+01
6.736188e+02	-3.392842e+01
6.775096e+02	-3.398141e+01
6.814229e+02	-3.402433e+01
6.853587e+02	-3.407227e+01
6.893173e+02	-3.412805e+01
6.932988e+02	-3.418063e+01
6.973033e+02	-3.422033e+01
7.013309e+02	-3.427625e+01
