Frequency(Hz)	Magnitude(dB)
1.000000e+01	-1.700120e-05
1.005776e+01	-1.719817e-05
1.011585e+01	-1.739741e-05
1.017428e+01	-1.759896e-05
1.023305e+01	-1.780285e-05
1.029215e+01	-1.800910e-05
1.035160e+01	-1.821774e-05
1.041139e+01	-1.842880e-05
1.047153e+01	-1.864230e-05
1.053201e+01	-1.885828e-05
1.059284e+01	-1.907676e-05
1.065403e+01	-1.929777e-05
1.071556e+01	-1.952134e-05
1.077746e+01	-1.974750e-05
1.083971e+01	-1.997628e-05
1.090232e+01	-2.020771e-05
1.096529e+01	-2.044182e-05
1.102862e+01	-2.067864e-05
1.109232e+01	-2.091821e-05
1.115639e+01	-2.116055e-05
1.122083e+01	-2.140570e-05
1.128564e+01	-2.165369e-05
1.135083e+01	-2.190455e-05
1.141639e+01	-2.215832e-05
1.148233e+01	-2.241503e-05
1.154865e+01	-2.267472e-05
1.161536e+01	-2.293741e-05
1.168245e+01	-2.320315e-05
1.174992e+01	-2.347196e-05
1.181779e+01	-2.374389e-05
1.188605e+01	-2.401897e-05
1.195470e+01	-2.429723e-05
1.202375e+01	-2.457872e-05
1.209320e+01	-2.486347e-05
1.216305e+01	-2.515152e-05
1.223330e+01	-2.544291e-05
1.230396e+01	-2.573767e-05
1.237503e+01	-2.603585e-05
1.244651e+01	-2.633748e-05
1.251840e+01	-2.664261e-05
1.259070e+01	-2.695127e-05
1.266343e+01	-2.726350e-05
1.273657e+01	-2.757936e-05
1.281014e+01	-2.789887e-05
1.288413e+01	-2.822209e-05
1.295855e+01	-2.854905e-05
1.303339e+01	-2.887979e-05
1.310867e+01	-2.921437e-05
1.318439e+01	-2.955283e-05
1.326054e+01	-2.989521e-05
1.333713e+01	-3.024155e-05
1.341417e+01	-3.059191e-05
1.349165e+01	-3.094632e-05
1.356958e+01	-3.130484e-05
1.364795e+01	-3.166751e-05
1.372678e+01	-3.203439e-05
1.380607e+01	-3.240552e-05
1.388581e+01	-3.278094e-05
1.396602e+01	-3.316072e-05
1.404668e+01	-3.354489e-05
1.412782e+01	-3.393352e-05
1.420942e+01	-3.432664e-05
1.429149e+01	-3.472433e-05
1.437404e+01	-3.512662e-05
1.445706e+01	-3.553357e-05
1.454057e+01	-3.594523e-05
1.462455e+01	-3.636166e-05
1.470902e+01	-3.678292e-05
1.479398e+01	-3.720906e-05
1.487943e+01	-3.764014e-05
1.496537e+01	-3.807621e-05
1.505181e+01	-3.851733e-05
1.513875e+01	-3.896356e-05
1.522619e+01	-3.941496e-05
1.531414e+01	-3.987159e-05
1.540259e+01	-4.033351e-05
1.549156e+01	-4.080079e-05
1.558103e+01	-4.127347e-05
1.567103e+01	-4.175164e-05
1.576155e+01	-4.223534e-05
1.585258e+01	-4.272464e-05
1.594415e+01	-4.321962e-05
1.603624e+01	-4.372033e-05
1.612886e+01	-4.422684e-05
1.622202e+01	-4.473921e-05
1.631572e+01	-4.525753e-05
1.640996e+01	-4.578185e-05
1.650474e+01	-4.631224e-05
1.660008e+01	-4.684878e-05
1.669596e+01	-4.739153e-05
1.679239e+01	-4.794057e-05
1.688938e+01	-4.849597e-05
1.698694e+01	-4.905781e-05
1.708505e+01	-4.962615e-05
1.718373e+01	-5.020108e-05
1.728299e+01	-5.078267e-05
1.738281e+01	-5.137100e-05
1.748322e+01	-5.196615e-05
1.758420e+01	-5.256818e-05
1.768576e+01	-5.317720e-05
1.778792e+01	-5.379327e-05
1.789066e+01	-5.441647e-05
1.799399e+01	-5.504690e-05
1.809793e+01	-5.568463e-05
1.820246e+01	-5.632975e-05
1.830760e+01	-5.698234e-05
1.841334e+01	-5.764249e-05
1.851969e+01	-5.831029e-05
1.862666e+01	-5.898583e-05
1.873425e+01	-5.966919e-05
1.884246e+01	-6.036047e-05
1.895129e+01	-6.105976e-05
1.906075e+01	-6.176715e-05
1.917085e+01	-6.248273e-05
1.928158e+01	-6.320661e-05
1.939295e+01	-6.393887e-05
1.950496e+01	-6.467961e-05
1.961762e+01	-6.542894e-05
1.973093e+01	-6.618694e-05
1.984490e+01	-6.695373e-05
1.995952e+01	-6.772940e-05
2.007480e+01	-6.851406e-05
2.019076e+01	-6.930781e-05
2.030738e+01	-7.011075e-05
2.042467e+01	-7.092300e-05
2.054264e+01	-7.174465e-05
2.066130e+01	-7.257583e-05
2.078064e+01	-7.341663e-05
2.090066e+01	-7.426718e-05
2.102139e+01	-7.512758e-05
2.114280e+01	-7.599794e-05
2.126492e+01	-7.687839e-05
2.138775e+01	-7.776904e-05
2.151128e+01	-7.867001e-05
2.163553e+01	-7.958142e-05
2.176050e+01	-8.050338e-05
2.188619e+01	-8.143603e-05
2.201260e+01	-8.237948e-05
2.213974e+01	-8.333386e-05
2.226762e+01	-8.429929e-05
2.239624e+01	-8.527591e-05
2.252560e+01	-8.626385e-05
2.265571e+01	-8.726323e-05
2.278656e+01	-8.827419e-05
2.291818e+01	-8.929686e-05
2.305055e+01	-9.033138e-05
2.318369e+01	-9.137788e-05
2.331760e+01	-9.243651e-05
2.345228e+01	-9.350740e-05
2.358774e+01	-9.459070e-05
2.372398e+01	-9.568655e-05
2.386101e+01	-9.679509e-05
2.399883e+01	-9.791647e-05
2.413745e+01	-9.905085e-05
2.427686e+01	-1.001984e-04
2.441709e+01	-1.013592e-04
2.455812e+01	-1.025334e-04
2.469997e+01	-1.037213e-04
2.484263e+01	-1.049229e-04
2.498612e+01	-1.061385e-04
2.513044e+01	-1.073681e-04
2.527559e+01	-1.086120e-04
2.542158e+01	-1.098703e-04
2.556842e+01	-1.111431e-04
2.571610e+01	-1.124307e-04
2.586463e+01	-1.137333e-04
2.601403e+01	-1.150509e-04
2.616428e+01	-1.163838e-04
2.631541e+01	-1.177321e-04
2.646740e+01	-1.190960e-04
2.662028e+01	-1.204758e-04
2.677404e+01	-1.218715e-04
2.692868e+01	-1.232834e-04
2.708422e+01	-1.247116e-04
2.724066e+01	-1.261564e-04
2.739800e+01	-1.276180e-04
2.755625e+01	-1.290964e-04
2.771541e+01	-1.305920e-04
2.787550e+01	-1.321049e-04
2.803650e+01	-1.336354e-04
2.819844e+01	-1.351836e-04
2.836131e+01	-1.367497e-04
2.852513e+01	-1.383339e-04
2.868989e+01	-1.399366e-04
2.885560e+01	-1.415577e-04
2.902227e+01	-1.431977e-04
2.918990e+01	-1.448567e-04
2.935850e+01	-1.465348e-04
2.952807e+01	-1.482324e-04
2.969863e+01	-1.499497e-04
2.987016e+01	-1.516869e-04
3.004269e+01	-1.534442e-04
3.021622e+01	-1.552219e-04
3.039075e+01	-1.570201e-04
3.056628e+01	-1.588392e-04
3.074283e+01	-1.606794e-04
3.092040e+01	-1.625409e-04
3.109900e+01	-1.644239e-04
3.127862e+01	-1.663288e-04
3.145929e+01	-1.682557e-04
3.164099e+01	-1.702050e-04
3.182375e+01	-1.721768e-04
3.200756e+01	-1.741715e-04
3.219244e+01	-1.761892e-04
3.237838e+01	-1.782304e-04
3.256540e+01	-1.802952e-04
3.275349e+01	-1.823839e-04
3.294268e+01	-1.844969e-04
3.313295e+01	-1.866343e-04
3.332433e+01	-1.887964e-04
3.351681e+01	-1.909836e-04
3.371040e+01	-1.931962e-04
3.390511e+01	-1.954344e-04
3.410094e+01	-1.976985e-04
3.429791e+01	-1.999888e-04
3.449601e+01	-2.023057e-04
3.469526e+01	-2.046494e-04
3.489566e+01	-2.070203e-04
3.509721e+01	-2.094186e-04
3.529993e+01	-2.118447e-04
3.550382e+01	-2.142989e-04
3.570889e+01	-2.167816e-04
3.591515e+01	-2.192930e-04
3.612259e+01	-2.218335e-04
3.633123e+01	-2.244034e-04
3.654108e+01	-2.270031e-04
3.675214e+01	-2.296330e-04
3.696442e+01	-2.322933e-04
3.717792e+01	-2.349844e-04
3.739266e+01	-2.377066e-04
3.760864e+01	-2.404605e-04
3.782587e+01	-2.432462e-04
3.804435e+01	-2.460642e-04
3.826409e+01	-2.489148e-04
3.848510e+01	-2.517985e-04
3.870739e+01	-2.547156e-04
3.893096e+01	-2.576664e-04
3.915583e+01	-2.606515e-04
3.938199e+01	-2.636711e-04
3.960946e+01	-2.667257e-04
3.983824e+01	-2.698157e-04
4.006834e+01	-2.729415e-04
4.029978e+01	-2.761035e-04
4.053255e+01	-2.793021e-04
4.076666e+01	-2.825378e-04
4.100213e+01	-2.858110e-04
4.123896e+01	-2.891221e-04
4.147715e+01	-2.924715e-04
4.171672e+01	-2.958598e-04
4.195767e+01	-2.992873e-04
4.220002e+01	-3.027545e-04
4.244377e+01	-3.062619e-04
4.268892e+01	-3.098099e-04
4.293549e+01	-3.133990e-04
4.318348e+01	-3.170296e-04
4.343291e+01	-3.207024e-04
4.368377e+01	-3.244177e-04
4.393609e+01	-3.281760e-04
4.418986e+01	-3.319779e-04
4.444510e+01	-3.358238e-04
4.470182e+01	-3.397142e-04
4.496001e+01	-3.436498e-04
4.521970e+01	-3.476309e-04
4.548089e+01	-3.516581e-04
4.574358e+01	-3.557320e-04
4.600779e+01	-3.598531e-04
4.627353e+01	-3.640219e-04
4.654081e+01	-3.682390e-04
4.680963e+01	-3.725050e-04
4.708000e+01	-3.768204e-04
4.735193e+01	-3.811858e-04
4.762543e+01	-3.856017e-04
4.790051e+01	-3.900688e-04
4.817719e+01	-3.945877e-04
4.845545e+01	-3.991589e-04
4.873533e+01	-4.037830e-04
4.901682e+01	-4.084607e-04
4.929994e+01	-4.131926e-04
4.958470e+01	-4.179793e-04
4.987110e+01	-4.228215e-04
5.015915e+01	-4.277198e-04
5.044887e+01	-4.326748e-04
5.074026e+01	-4.376872e-04
5.103333e+01	-4.427577e-04
5.132810e+01	-4.478869e-04
5.162457e+01	-4.530755e-04
5.192275e+01	-4.583242e-04
5.222265e+01	-4.636337e-04
5.252429e+01	-4.690048e-04
5.282767e+01	-4.744380e-04
5.313280e+01	-4.799342e-04
5.343969e+01	-4.854941e-04
5.374836e+01	-4.911183e-04
5.405880e+01	-4.968078e-04
5.437105e+01	-5.025631e-04
5.468509e+01	-5.083851e-04
5.500095e+01	-5.142745e-04
5.531863e+01	-5.202322e-04
5.563815e+01	-5.262588e-04
5.595951e+01	-5.323553e-04
5.628273e+01	-5.385224e-04
5.660782e+01	-5.447610e-04
5.693479e+01	-5.510718e-04
5.726364e+01	-5.574557e-04
5.759439e+01	-5.639135e-04
5.792705e+01	-5.704462e-04
5.826164e+01	-5.770545e-04
5.859815e+01	-5.837394e-04
5.893662e+01	-5.905017e-04
5.927703e+01	-5.973424e-04
5.961941e+01	-6.042623e-04
5.996377e+01	-6.112623e-04
6.031012e+01	-6.183435e-04
6.065847e+01	-6.255066e-04
6.100883e+01	-6.327528e-04
6.136121e+01	-6.400829e-04
6.171563e+01	-6.474978e-04
6.207210e+01	-6.549987e-04
6.243063e+01	-6.625865e-04
6.279122e+01	-6.702621e-04
6.315390e+01	-6.780267e-04
6.351868e+01	-6.858812e-04
6.388556e+01	-6.938267e-04
6.425456e+01	-7.018642e-04
6.462569e+01	-7.099948e-04
6.499897e+01	-7.182196e-04
6.537440e+01	-7.265397e-04
6.575200e+01	-7.349562e-04
6.613178e+01	-7.434701e-04
6.651375e+01	-7.520827e-04
6.689793e+01	-7.607950e-04
6.728433e+01	-7.696082e-04
6.767297e+01	-7.785235e-04
6.806384e+01	-7.875421e-04
6.845698e+01	-7.966652e-04
6.885238e+01	-8.058939e-04
6.925007e+01	-8.152295e-04
6.965005e+01	-8.246733e-04
7.005235e+01	-8.342265e-04
7.045697e+01	-8.438903e-04
7.086393e+01	-8.536660e-04
7.127323e+01	-8.635550e-04
7.168490e+01	-8.735585e-04
7.209895e+01	-8.836779e-04
7.251539e+01	-8.939145e-04
7.293424e+01	-9.042696e-04
7.335551e+01	-9.147447e-04
7.377920e+01	-9.253412e-04
7.420535e+01	-9.360603e-04
7.463396e+01	-9.469037e-04
7.506504e+01	-9.578726e-04
7.549861e+01	-9.689686e-04
7.593469e+01	-9.801931e-04
7.637328e+01	-9.915476e-04
7.681441e+01	-1.003034e-03
7.725809e+01	-1.014653e-03
7.770433e+01	-1.026406e-03
7.815315e+01	-1.038296e-03
7.860456e+01	-1.050324e-03
7.905857e+01	-1.062490e-03
7.951521e+01	-1.074798e-03
7.997449e+01	-1.087248e-03
8.043642e+01	-1.099843e-03
8.090102e+01	-1.112583e-03
8.136830e+01	-1.125471e-03
8.183828e+01	-1.138508e-03
8.231097e+01	-1.151696e-03
8.278640e+01	-1.165037e-03
8.326457e+01	-1.178533e-03
8.374550e+01	-1.192185e-03
8.422921e+01	-1.205994e-03
8.471572e+01	-1.219964e-03
8.520503e+01	-1.234096e-03
8.569717e+01	-1.248391e-03
8.619215e+01	-1.262852e-03
8.669000e+01	-1.277480e-03
8.719071e+01	-1.292278e-03
8.769432e+01	-1.307247e-03
8.820084e+01	-1.322390e-03
8.871029e+01	-1.337708e-03
8.922267e+01	-1.353203e-03
8.973802e+01	-1.368878e-03
9.025634e+01	-1.384734e-03
9.077766e+01	-1.400774e-03
9.130199e+01	-1.416999e-03
9.182935e+01	-1.433413e-03
9.235975e+01	-1.450017e-03
9.289321e+01	-1.466813e-03
9.342976e+01	-1.483803e-03
9.396941e+01	-1.500991e-03
9.451217e+01	-1.518377e-03
9.505807e+01	-1.535965e-03
9.560712e+01	-1.553756e-03
9.615934e+01	-1.571753e-03
9.671476e+01	-1.589959e-03
9.727338e+01	-1.608376e-03
9.783522e+01	-1.627006e-03
9.840032e+01	-1.645852e-03
9.896867e+01	-1.664916e-03
9.954031e+01	-1.684200e-03
1.001153e+02	-1.703709e-03
1.006935e+02	-1.723443e-03
1.012751e+02	-1.743405e-03
1.018601e+02	-1.763599e-03
1.024484e+02	-1.784026e-03
1.030402e+02	-1.804690e-03
1.036353e+02	-1.825594e-03
1.042339e+02	-1.846739e-03
1.048360e+02	-1.868130e-03
1.054415e+02	-1.889768e-03
1.060505e+02	-1.911656e-03
1.066631e+02	-1.933799e-03
1.072791e+02	-1.956197e-03
1.078988e+02	-1.978855e-03
1.085220e+02	-2.001775e-03
1.091488e+02	-2.024961e-03
1.097793e+02	-2.048415e-03
1.104133e+02	-2.072141e-03
1.110511e+02	-2.096141e-03
1.116925e+02	-2.120420e-03
1.123376e+02	-2.144979e-03
1.129865e+02	-2.169823e-03
1.136391e+02	-2.194955e-03
1.142955e+02	-2.220378e-03
1.149556e+02	-2.246095e-03
1.156196e+02	-2.272109e-03
1.162874e+02	-2.298425e-03
1.169591e+02	-2.325046e-03
1.176347e+02	-2.351975e-03
1.183141e+02	-2.379216e-03
1.189975e+02	-2.406772e-03
1.196848e+02	-2.434647e-03
1.203761e+02	-2.462845e-03
1.210714e+02	-2.491370e-03
1.217707e+02	-2.520225e-03
1.224740e+02	-2.549414e-03
1.231814e+02	-2.578940e-03
1.238929e+02	-2.608809e-03
1.246085e+02	-2.639024e-03
1.253283e+02	-2.669588e-03
1.260522e+02	-2.700506e-03
1.267802e+02	-2.731783e-03
1.275125e+02	-2.763421e-03
1.282490e+02	-2.795426e-03
1.289898e+02	-2.827801e-03
1.297348e+02	-2.860551e-03
1.304842e+02	-2.893680e-03
1.312378e+02	-2.927193e-03
1.319959e+02	-2.961093e-03
1.327583e+02	-2.995387e-03
1.335251e+02	-3.030077e-03
1.342963e+02	-3.065169e-03
1.350720e+02	-3.100667e-03
1.358522e+02	-3.136576e-03
1.366368e+02	-3.172900e-03
1.374260e+02	-3.209646e-03
1.382198e+02	-3.246816e-03
1.390182e+02	-3.284417e-03
1.398211e+02	-3.322454e-03
1.406287e+02	-3.360930e-03
1.414410e+02	-3.399852e-03
1.422579e+02	-3.439225e-03
1.430796e+02	-3.479053e-03
1.439060e+02	-3.519342e-03
1.447372e+02	-3.560098e-03
1.455732e+02	-3.601326e-03
1.464141e+02	-3.643031e-03
1.472597e+02	-3.685218e-03
1.481103e+02	-3.727894e-03
1.489658e+02	-3.771064e-03
1.498262e+02	-3.814733e-03
1.506916e+02	-3.858908e-03
1.515620e+02	-3.903595e-03
1.524374e+02	-3.948798e-03
1.533179e+02	-3.994525e-03
1.542034e+02	-4.040781e-03
1.550941e+02	-4.087572e-03
1.559899e+02	-4.134905e-03
1.568909e+02	-4.182786e-03
1.577971e+02	-4.231221e-03
1.587085e+02	-4.280217e-03
1.596252e+02	-4.329779e-03
1.605472e+02	-4.379916e-03
1.614745e+02	-4.430632e-03
1.624072e+02	-4.481936e-03
1.633453e+02	-4.533833e-03
1.642887e+02	-4.586331e-03
1.652377e+02	-4.639436e-03
1.661921e+02	-4.693156e-03
1.671520e+02	-4.747498e-03
1.681175e+02	-4.802468e-03
1.690885e+02	-4.858075e-03
1.700651e+02	-4.914325e-03
1.710474e+02	-4.971226e-03
1.720354e+02	-5.028786e-03
1.730291e+02	-5.087011e-03
1.740285e+02	-5.145911e-03
1.750337e+02	-5.205491e-03
1.760446e+02	-5.265762e-03
1.770615e+02	-5.326729e-03
1.780842e+02	-5.388403e-03
1.791128e+02	-5.450789e-03
1.801473e+02	-5.513898e-03
1.811878e+02	-5.577737e-03
1.822344e+02	-5.642314e-03
1.832870e+02	-5.707639e-03
1.843456e+02	-5.773719e-03
1.854104e+02	-5.840564e-03
1.864813e+02	-5.908182e-03
1.875584e+02	-5.976583e-03
1.886418e+02	-6.045775e-03
1.897313e+02	-6.115767e-03
1.908272e+02	-6.186569e-03
1.919294e+02	-6.258191e-03
1.930380e+02	-6.330640e-03
1.941530e+02	-6.403928e-03
1.952744e+02	-6.478064e-03
1.964023e+02	-6.553057e-03
1.975367e+02	-6.628918e-03
1.986777e+02	-6.705656e-03
1.998252e+02	-6.783282e-03
2.009794e+02	-6.861806e-03
2.021403e+02	-6.941238e-03
2.033078e+02	-7.021589e-03
2.044821e+02	-7.102869e-03
2.056632e+02	-7.185089e-03
2.068511e+02	-7.268260e-03
2.080459e+02	-7.352394e-03
2.092475e+02	-7.437500e-03
2.104561e+02	-7.523590e-03
2.116717e+02	-7.610676e-03
2.128943e+02	-7.698770e-03
2.141240e+02	-7.787882e-03
2.153608e+02	-7.878024e-03
2.166047e+02	-7.969209e-03
2.178558e+02	-8.061448e-03
2.191141e+02	-8.154754e-03
2.203797e+02	-8.249139e-03
2.216526e+02	-8.344615e-03
2.229329e+02	-8.441196e-03
2.242205e+02	-8.538893e-03
2.255156e+02	-8.637719e-03
2.268182e+02	-8.737688e-03
2.281283e+02	-8.838813e-03
2.294459e+02	-8.941108e-03
2.307712e+02	-9.044584e-03
2.321041e+02	-9.149257e-03
2.334447e+02	-9.255141e-03
2.347931e+02	-9.362248e-03
2.361493e+02	-9.470593e-03
2.375133e+02	-9.580191e-03
2.388851e+02	-9.691056e-03
2.402649e+02	-9.803202e-03
2.416527e+02	-9.916644e-03
2.430484e+02	-1.003140e-02
2.444523e+02	-1.014748e-02
2.458642e+02	-1.026490e-02
2.472843e+02	-1.038368e-02
2.487126e+02	-1.050383e-02
2.501492e+02	-1.062537e-02
2.515940e+02	-1.074832e-02
2.530472e+02	-1.087268e-02
2.545088e+02	-1.099848e-02
2.559789e+02	-1.112574e-02
2.574574e+02	-1.125447e-02
2.589444e+02	-1.138468e-02
2.604401e+02	-1.151640e-02
2.619444e+02	-1.164964e-02
2.634574e+02	-1.178442e-02
2.649791e+02	-1.192076e-02
2.665096e+02	-1.205867e-02
2.680489e+02	-1.219818e-02
2.695972e+02	-1.233929e-02
2.711544e+02	-1.248204e-02
2.727205e+02	-1.262644e-02
2.742958e+02	-1.277250e-02
2.758801e+02	-1.292026e-02
2.774736e+02	-1.306971e-02
2.790762e+02	-1.322090e-02
2.806882e+02	-1.337383e-02
2.823094e+02	-1.352853e-02
2.839400e+02	-1.368501e-02
2.855800e+02	-1.384330e-02
2.872295e+02	-1.400342e-02
2.888886e+02	-1.416539e-02
2.905572e+02	-1.432922e-02
2.922354e+02	-1.449495e-02
2.939234e+02	-1.466260e-02
2.956211e+02	-1.483218e-02
2.973286e+02	-1.500371e-02
2.990459e+02	-1.517723e-02
3.007732e+02	-1.535275e-02
3.025104e+02	-1.553030e-02
3.042577e+02	-1.570989e-02
3.060151e+02	-1.589156e-02
3.077826e+02	-1.607533e-02
3.095604e+02	-1.626121e-02
3.113484e+02	-1.644925e-02
3.131467e+02	-1.663945e-02
3.149554e+02	-1.683185e-02
3.167746e+02	-1.702646e-02
3.186043e+02	-1.722333e-02
3.204445e+02	-1.742246e-02
3.222954e+02	-1.762389e-02
3.241570e+02	-1.782765e-02
3.260293e+02	-1.803376e-02
3.279124e+02	-1.824224e-02
3.298064e+02	-1.845313e-02
3.317114e+02	-1.866646e-02
3.336273e+02	-1.888224e-02
3.355544e+02	-1.910051e-02
3.374925e+02	-1.932130e-02
3.394418e+02	-1.954464e-02
3.414024e+02	-1.977055e-02
3.433744e+02	-1.999907e-02
3.453577e+02	-2.023022e-02
3.473525e+02	-2.046404e-02
3.493588e+02	-2.070056e-02
3.513766e+02	-2.093980e-02
3.534062e+02	-2.118180e-02
3.554474e+02	-2.142659e-02
3.575005e+02	-2.167420e-02
3.595654e+02	-2.192466e-02
3.616422e+02	-2.217801e-02
3.637311e+02	-2.243428e-02
3.658320e+02	-2.269351e-02
3.679450e+02	-2.295572e-02
3.700702e+02	-2.322096e-02
3.722077e+02	-2.348925e-02
3.743576e+02	-2.376063e-02
3.765199e+02	-2.403514e-02
3.786946e+02	-2.431281e-02
3.808820e+02	-2.459368e-02
3.830819e+02	-2.487778e-02
3.852946e+02	-2.516516e-02
3.875200e+02	-2.545585e-02
3.897583e+02	-2.574989e-02
3.920096e+02	-2.604731e-02
3.942738e+02	-2.634815e-02
3.965511e+02	-2.665246e-02
3.988416e+02	-2.696028e-02
4.011452e+02	-2.727163e-02
4.034622e+02	-2.758658e-02
4.057926e+02	-2.790514e-02
4.081365e+02	-2.822738e-02
4.104938e+02	-2.855332e-02
4.128648e+02	-2.888301e-02
4.152495e+02	-2.921650e-02
4.176480e+02	-2.955383e-02
4.200603e+02	-2.989503e-02
4.224866e+02	-3.024017e-02
4.249268e+02	-3.058927e-02
4.273812e+02	-3.094239e-02
4.298497e+02	-3.129957e-02
4.323325e+02	-3.166085e-02
4.348297e+02	-3.202630e-02
4.373412e+02	-3.239594e-02
4.398673e+02	-3.276984e-02
4.424079e+02	-3.314803e-02
4.449633e+02	-3.353057e-02
4.475334e+02	-3.391751e-02
4.501183e+02	-3.430890e-02
4.527182e+02	-3.470478e-02
4.553330e+02	-3.510522e-02
4.579630e+02	-3.551025e-02
4.606082e+02	-3.591994e-02
4.632687e+02	-3.633434e-02
4.659445e+02	-3.675349e-02
4.686358e+02	-3.717746e-02
4.713426e+02	-3.760630e-02
4.740650e+02	-3.804007e-02
4.768032e+02	-3.847882e-02
4.795572e+02	-3.892260e-02
4.823271e+02	-3.937148e-02
4.851130e+02	-3.982551e-02
4.879150e+02	-4.028475e-02
4.907332e+02	-4.074927e-02
4.935676e+02	-4.121911e-02
4.964185e+02	-4.169435e-02
4.992858e+02	-4.217504e-02
5.021696e+02	-4.266124e-02
5.050701e+02	-4.315302e-02
5.079874e+02	-4.365044e-02
5.109215e+02	-4.415357e-02
5.138726e+02	-4.466246e-02
5.168407e+02	-4.517719e-02
5.198259e+02	-4.569782e-02
5.228284e+02	-4.622442e-02
5.258482e+02	-4.675705e-02
5.288855e+02	-4.729578e-02
5.319403e+02	-4.784069e-02
5.350128e+02	-4.839185e-02
5.381030e+02	-4.894931e-02
5.412111e+02	-4.951316e-02
5.443371e+02	-5.008347e-02
5.474812e+02	-5.066031e-02
5.506434e+02	-5.124376e-02
5.538239e+02	-5.183388e-02
5.570228e+02	-5.243076e-02
5.602401e+02	-5.303446e-02
5.634760e+02	-5.364508e-02
5.667306e+02	-5.426268e-02
5.700040e+02	-5.488735e-02
5.732964e+02	-5.551917e-02
5.766077e+02	-5.615821e-02
5.799382e+02	-5.680455e-02
5.832879e+02	-5.745829e-02
5.866569e+02	-5.811950e-02
5.900454e+02	-5.878826e-02
5.934535e+02	-5.946467e-02
5.968813e+02	-6.014881e-02
6.003288e+02	-6.084076e-02
6.037963e+02	-6.154062e-02
6.072838e+02	-6.224846e-02
6.107914e+02	-6.296440e-02
6.143194e+02	-6.368850e-02
6.178676e+02	-6.442087e-02
6.214364e+02	-6.516160e-02
6.250258e+02	-6.591078e-02
6.286359e+02	-6.666851e-02
6.322669e+02	-6.743488e-02
6.359189e+02	-6.820999e-02
6.395919e+02	-6.899394e-02
6.432862e+02	-6.978683e-02
6.470017e+02	-7.058875e-02
6.507388e+02	-7.139981e-02
6.544974e+02	-7.222012e-02
6.582778e+02	-7.304977e-02
6.620800e+02	-7.388887e-02
6.659041e+02	-7.473752e-02
6.697504e+02	-7.559584e-02
6.736188e+02	-7.646393e-02
6.775096e+02	-7.734189e-02
6.814229e+02	-7.822985e-02
6.853587e+02	-7.912791e-02
6.893173e+02	-8.003618e-02
6.932988e+02	-8.095478e-02
6.973033e+02	-8.188382e-02
7.013309e+02	-8.282343e-02
