Frequency(Hz)	Magnitude(dB)
1.000000e+01	-1.638499e-05
1.005776e+01	-1.657481e-05
1.011585e+01	-1.676684e-05
1.017428e+01	-1.696108e-05
1.023305e+01	-1.715758e-05
1.029215e+01	-1.735636e-05
1.035160e+01	-1.755744e-05
1.041139e+01	-1.776084e-05
1.047153e+01	-1.796661e-05
1.053201e+01	-1.817475e-05
1.059284e+01	-1.838531e-05
1.065403e+01	-1.859831e-05
1.071556e+01	-1.881378e-05
1.077746e+01	-1.903174e-05
1.083971e+01	-1.925223e-05
1.090232e+01	-1.947527e-05
1.096529e+01	-1.970090e-05
1.102862e+01	-1.992914e-05
1.109232e+01	-2.016002e-05
1.115639e+01	-2.039358e-05
1.122083e+01	-2.062984e-05
1.128564e+01	-2.086885e-05
1.135083e+01	-2.111062e-05
1.141639e+01	-2.135519e-05
1.148233e+01	-2.160259e-05
1.154865e+01	-2.185287e-05
1.161536e+01	-2.210604e-05
1.168245e+01	-2.236214e-05
1.174992e+01	-2.262121e-05
1.181779e+01	-2.288328e-05
1.188605e+01	-2.314839e-05
1.195470e+01	-2.341657e-05
1.202375e+01	-2.368786e-05
1.209320e+01	-2.396229e-05
1.216305e+01	-2.423990e-05
1.223330e+01	-2.452072e-05
1.230396e+01	-2.480480e-05
1.237503e+01	-2.509217e-05
1.244651e+01	-2.538287e-05
1.251840e+01	-2.567694e-05
1.259070e+01	-2.597441e-05
1.266343e+01	-2.627533e-05
1.273657e+01	-2.657974e-05
1.281014e+01	-2.688767e-05
1.288413e+01	-2.719917e-05
1.295855e+01	-2.751428e-05
1.303339e+01	-2.783304e-05
1.310867e+01	-2.815549e-05
1.318439e+01	-2.848168e-05
1.326054e+01	-2.881165e-05
1.333713e+01	-2.914544e-05
1.341417e+01	-2.948309e-05
1.349165e+01	-2.982466e-05
1.356958e+01	-3.017019e-05
1.364795e+01	-3.051972e-05
1.372678e+01	-3.087329e-05
1.380607e+01	-3.123097e-05
1.388581e+01	-3.159279e-05
1.396602e+01	-3.195880e-05
1.404668e+01	-3.232905e-05
1.412782e+01	-3.270359e-05
1.420942e+01	-3.308247e-05
1.429149e+01	-3.346573e-05
1.437404e+01	-3.385344e-05
1.445706e+01	-3.424564e-05
1.454057e+01	-3.464239e-05
1.462455e+01	-3.504373e-05
1.470902e+01	-3.544972e-05
1.479398e+01	-3.586041e-05
1.487943e+01	-3.627586e-05
1.496537e+01	-3.669612e-05
1.505181e+01	-3.712126e-05
1.513875e+01	-3.755132e-05
1.522619e+01	-3.798636e-05
1.531414e+01	-3.842644e-05
1.540259e+01	-3.887162e-05
1.549156e+01	-3.932195e-05
1.558103e+01	-3.977751e-05
1.567103e+01	-4.023834e-05
1.576155e+01	-4.070451e-05
1.585258e+01	-4.117608e-05
1.594415e+01	-4.165311e-05
1.603624e+01	-4.213567e-05
1.612886e+01	-4.262382e-05
1.622202e+01	-4.311763e-05
1.631572e+01	-4.361716e-05
1.640996e+01	-4.412247e-05
1.650474e+01	-4.463364e-05
1.660008e+01	-4.515073e-05
1.669596e+01	-4.567381e-05
1.679239e+01	-4.620295e-05
1.688938e+01	-4.673823e-05
1.698694e+01	-4.727970e-05
1.708505e+01	-4.782744e-05
1.718373e+01	-4.838153e-05
1.728299e+01	-4.894204e-05
1.738281e+01	-4.950905e-05
1.748322e+01	-5.008262e-05
1.758420e+01	-5.066284e-05
1.768576e+01	-5.124978e-05
1.778792e+01	-5.184352e-05
1.789066e+01	-5.244414e-05
1.799399e+01	-5.305171e-05
1.809793e+01	-5.366633e-05
1.820246e+01	-5.428806e-05
1.830760e+01	-5.491700e-05
1.841334e+01	-5.555323e-05
1.851969e+01	-5.619682e-05
1.862666e+01	-5.684787e-05
1.873425e+01	-5.750647e-05
1.884246e+01	-5.817269e-05
1.895129e+01	-5.884663e-05
1.906075e+01	-5.952838e-05
1.917085e+01	-6.021803e-05
1.928158e+01	-6.091567e-05
1.939295e+01	-6.162139e-05
1.950496e+01	-6.233529e-05
1.961762e+01	-6.305745e-05
1.973093e+01	-6.378799e-05
1.984490e+01	-6.452698e-05
1.995952e+01	-6.527454e-05
2.007480e+01	-6.603076e-05
2.019076e+01	-6.679574e-05
2.030738e+01	-6.756958e-05
2.042467e+01	-6.835238e-05
2.054264e+01	-6.914426e-05
2.066130e+01	-6.994531e-05
2.078064e+01	-7.075564e-05
2.090066e+01	-7.157536e-05
2.102139e+01	-7.240457e-05
2.114280e+01	-7.324339e-05
2.126492e+01	-7.409193e-05
2.138775e+01	-7.495030e-05
2.151128e+01	-7.581861e-05
2.163553e+01	-7.669698e-05
2.176050e+01	-7.758553e-05
2.188619e+01	-7.848437e-05
2.201260e+01	-7.939362e-05
2.213974e+01	-8.031341e-05
2.226762e+01	-8.124386e-05
2.239624e+01	-8.218508e-05
2.252560e+01	-8.313721e-05
2.265571e+01	-8.410037e-05
2.278656e+01	-8.507469e-05
2.291818e+01	-8.606029e-05
2.305055e+01	-8.705731e-05
2.318369e+01	-8.806589e-05
2.331760e+01	-8.908614e-05
2.345228e+01	-9.011822e-05
2.358774e+01	-9.116225e-05
2.372398e+01	-9.221838e-05
2.386101e+01	-9.328675e-05
2.399883e+01	-9.436749e-05
2.413745e+01	-9.546075e-05
2.427686e+01	-9.656668e-05
2.441709e+01	-9.768542e-05
2.455812e+01	-9.881712e-05
2.469997e+01	-9.996193e-05
2.484263e+01	-1.011200e-04
2.498612e+01	-1.022915e-04
2.513044e+01	-1.034766e-04
2.527559e+01	-1.046753e-04
2.542158e+01	-1.058880e-04
2.556842e+01	-1.071147e-04
2.571610e+01	-1.083557e-04
2.586463e+01	-1.096110e-04
2.601403e+01	-1.108809e-04
2.616428e+01	-1.121654e-04
2.631541e+01	-1.134649e-04
2.646740e+01	-1.147794e-04
2.662028e+01	-1.161091e-04
2.677404e+01	-1.174543e-04
2.692868e+01	-1.188150e-04
2.708422e+01	-1.201915e-04
2.724066e+01	-1.215839e-04
2.739800e+01	-1.229925e-04
2.755625e+01	-1.244173e-04
2.771541e+01	-1.258587e-04
2.787550e+01	-1.273168e-04
2.803650e+01	-1.287918e-04
2.819844e+01	-1.302839e-04
2.836131e+01	-1.317932e-04
2.852513e+01	-1.333201e-04
2.868989e+01	-1.348646e-04
2.885560e+01	-1.364270e-04
2.902227e+01	-1.380075e-04
2.918990e+01	-1.396063e-04
2.935850e+01	-1.412237e-04
2.952807e+01	-1.428598e-04
2.969863e+01	-1.445148e-04
2.987016e+01	-1.461890e-04
3.004269e+01	-1.478827e-04
3.021622e+01	-1.495959e-04
3.039075e+01	-1.513290e-04
3.056628e+01	-1.530821e-04
3.074283e+01	-1.548556e-04
3.092040e+01	-1.566496e-04
3.109900e+01	-1.584644e-04
3.127862e+01	-1.603002e-04
3.145929e+01	-1.621573e-04
3.164099e+01	-1.640359e-04
3.182375e+01	-1.659363e-04
3.200756e+01	-1.678587e-04
3.219244e+01	-1.698033e-04
3.237838e+01	-1.717705e-04
3.256540e+01	-1.737605e-04
3.275349e+01	-1.757735e-04
3.294268e+01	-1.778098e-04
3.313295e+01	-1.798698e-04
3.332433e+01	-1.819536e-04
3.351681e+01	-1.840615e-04
3.371040e+01	-1.861939e-04
3.390511e+01	-1.883509e-04
3.410094e+01	-1.905330e-04
3.429791e+01	-1.927403e-04
3.449601e+01	-1.949732e-04
3.469526e+01	-1.972320e-04
3.489566e+01	-1.995169e-04
3.509721e+01	-2.018283e-04
3.529993e+01	-2.041665e-04
3.550382e+01	-2.065318e-04
3.570889e+01	-2.089244e-04
3.591515e+01	-2.113448e-04
3.612259e+01	-2.137932e-04
3.633123e+01	-2.162700e-04
3.654108e+01	-2.187755e-04
3.675214e+01	-2.213100e-04
3.696442e+01	-2.238739e-04
3.717792e+01	-2.264675e-04
3.739266e+01	-2.290911e-04
3.760864e+01	-2.317451e-04
3.782587e+01	-2.344299e-04
3.804435e+01	-2.371457e-04
3.826409e+01	-2.398931e-04
3.848510e+01	-2.426722e-04
3.870739e+01	-2.454836e-04
3.893096e+01	-2.483275e-04
3.915583e+01	-2.512043e-04
3.938199e+01	-2.541145e-04
3.960946e+01	-2.570584e-04
3.983824e+01	-2.600364e-04
4.006834e+01	-2.630489e-04
4.029978e+01	-2.660963e-04
4.053255e+01	-2.691790e-04
4.076666e+01	-2.722974e-04
4.100213e+01	-2.754520e-04
4.123896e+01	-2.786431e-04
4.147715e+01	-2.818711e-04
4.171672e+01	-2.851366e-04
4.195767e+01	-2.884398e-04
4.220002e+01	-2.917814e-04
4.244377e+01	-2.951616e-04
4.268892e+01	-2.985811e-04
4.293549e+01	-3.020401e-04
4.318348e+01	-3.055392e-04
4.343291e+01	-3.090788e-04
4.368377e+01	-3.126594e-04
4.393609e+01	-3.162816e-04
4.418986e+01	-3.199456e-04
4.444510e+01	-3.236521e-04
4.470182e+01	-3.274016e-04
4.496001e+01	-3.311945e-04
4.521970e+01	-3.350313e-04
4.548089e+01	-3.389126e-04
4.574358e+01	-3.428389e-04
4.600779e+01	-3.468106e-04
4.627353e+01	-3.508283e-04
4.654081e+01	-3.548926e-04
4.680963e+01	-3.590039e-04
4.708000e+01	-3.631629e-04
4.735193e+01	-3.673701e-04
4.762543e+01	-3.716260e-04
4.790051e+01	-3.759312e-04
4.817719e+01	-3.802863e-04
4.845545e+01	-3.846918e-04
4.873533e+01	-3.891484e-04
4.901682e+01	-3.936566e-04
4.929994e+01	-3.982170e-04
4.958470e+01	-4.028302e-04
4.987110e+01	-4.074969e-04
5.015915e+01	-4.122176e-04
5.044887e+01	-4.169931e-04
5.074026e+01	-4.218238e-04
5.103333e+01	-4.267105e-04
5.132810e+01	-4.316538e-04
5.162457e+01	-4.366544e-04
5.192275e+01	-4.417129e-04
5.222265e+01	-4.468300e-04
5.252429e+01	-4.520064e-04
5.282767e+01	-4.572427e-04
5.313280e+01	-4.625397e-04
5.343969e+01	-4.678981e-04
5.374836e+01	-4.733185e-04
5.405880e+01	-4.788018e-04
5.437105e+01	-4.843485e-04
5.468509e+01	-4.899595e-04
5.500095e+01	-4.956355e-04
5.531863e+01	-5.013772e-04
5.563815e+01	-5.071855e-04
5.595951e+01	-5.130610e-04
5.628273e+01	-5.190046e-04
5.660782e+01	-5.250171e-04
5.693479e+01	-5.310992e-04
5.726364e+01	-5.372517e-04
5.759439e+01	-5.434755e-04
5.792705e+01	-5.497714e-04
5.826164e+01	-5.561403e-04
5.859815e+01	-5.625829e-04
5.893662e+01	-5.691002e-04
5.927703e+01	-5.756929e-04
5.961941e+01	-5.823620e-04
5.996377e+01	-5.891084e-04
6.031012e+01	-5.959329e-04
6.065847e+01	-6.028365e-04
6.100883e+01	-6.098200e-04
6.136121e+01	-6.168844e-04
6.171563e+01	-6.240307e-04
6.207210e+01	-6.312597e-04
6.243063e+01	-6.385725e-04
6.279122e+01	-6.459700e-04
6.315390e+01	-6.534532e-04
6.351868e+01	-6.610230e-04
6.388556e+01	-6.686806e-04
6.425456e+01	-6.764268e-04
6.462569e+01	-6.842628e-04
6.499897e+01	-6.921895e-04
6.537440e+01	-7.002081e-04
6.575200e+01	-7.083195e-04
6.613178e+01	-7.165249e-04
6.651375e+01	-7.248254e-04
6.689793e+01	-7.332220e-04
6.728433e+01	-7.417158e-04
6.767297e+01	-7.503081e-04
6.806384e+01	-7.589998e-04
6.845698e+01	-7.677923e-04
6.885238e+01	-7.766866e-04
6.925007e+01	-7.856839e-04
6.965005e+01	-7.947854e-04
7.005235e+01	-8.039924e-04
7.045697e+01	-8.133060e-04
7.086393e+01	-8.227274e-04
7.127323e+01	-8.322580e-04
7.168490e+01	-8.418991e-04
7.209895e+01	-8.516517e-04
7.251539e+01	-8.615174e-04
7.293424e+01	-8.714973e-04
7.335551e+01	-8.815928e-04
7.377920e+01	-8.918052e-04
7.420535e+01	-9.021360e-04
7.463396e+01	-9.125864e-04
7.506504e+01	-9.231578e-04
7.549861e+01	-9.338517e-04
7.593469e+01	-9.446694e-04
7.637328e+01	-9.556125e-04
7.681441e+01	-9.666823e-04
7.725809e+01	-9.778803e-04
7.770433e+01	-9.892080e-04
7.815315e+01	-1.000667e-03
7.860456e+01	-1.012259e-03
7.905857e+01	-1.023984e-03
7.951521e+01	-1.035846e-03
7.997449e+01	-1.047845e-03
8.043642e+01	-1.059983e-03
8.090102e+01	-1.072262e-03
8.136830e+01	-1.084683e-03
8.183828e+01	-1.097248e-03
8.231097e+01	-1.109958e-03
8.278640e+01	-1.122816e-03
8.326457e+01	-1.135822e-03
8.374550e+01	-1.148979e-03
8.422921e+01	-1.162288e-03
8.471572e+01	-1.175752e-03
8.520503e+01	-1.189372e-03
8.569717e+01	-1.203149e-03
8.619215e+01	-1.217086e-03
8.669000e+01	-1.231184e-03
8.719071e+01	-1.245446e-03
8.769432e+01	-1.259872e-03
8.820084e+01	-1.274466e-03
8.871029e+01	-1.289229e-03
8.922267e+01	-1.304163e-03
8.973802e+01	-1.319270e-03
9.025634e+01	-1.334551e-03
9.077766e+01	-1.350010e-03
9.130199e+01	-1.365648e-03
9.182935e+01	-1.381467e-03
9.235975e+01	-1.397469e-03
9.289321e+01	-1.413656e-03
9.342976e+01	-1.430031e-03
9.396941e+01	-1.446596e-03
9.451217e+01	-1.463352e-03
9.505807e+01	-1.480302e-03
9.560712e+01	-1.497449e-03
9.615934e+01	-1.514795e-03
9.671476e+01	-1.532341e-03
9.727338e+01	-1.550090e-03
9.783522e+01	-1.568045e-03
9.840032e+01	-1.586208e-03
9.896867e+01	-1.604581e-03
9.954031e+01	-1.623167e-03
1.001153e+02	-1.641969e-03
1.006935e+02	-1.660988e-03
1.012751e+02	-1.680227e-03
1.018601e+02	-1.699689e-03
1.024484e+02	-1.719376e-03
1.030402e+02	-1.739292e-03
1.036353e+02	-1.759438e-03
1.042339e+02	-1.779817e-03
1.048360e+02	-1.800433e-03
1.054415e+02	-1.821287e-03
1.060505e+02	-1.842382e-03
1.066631e+02	-1.863722e-03
1.072791e+02	-1.885309e-03
1.078988e+02	-1.907146e-03
1.085220e+02	-1.929236e-03
1.091488e+02	-1.951582e-03
1.097793e+02	-1.974186e-03
1.104133e+02	-1.997053e-03
1.110511e+02	-2.020184e-03
1.116925e+02	-2.043582e-03
1.123376e+02	-2.067252e-03
1.129865e+02	-2.091196e-03
1.136391e+02	-2.115417e-03
1.142955e+02	-2.139919e-03
1.149556e+02	-2.164704e-03
1.156196e+02	-2.189777e-03
1.162874e+02	-2.215139e-03
1.169591e+02	-2.240796e-03
1.176347e+02	-2.266749e-03
1.183141e+02	-2.293003e-03
1.189975e+02	-2.319561e-03
1.196848e+02	-2.346426e-03
1.203761e+02	-2.373603e-03
1.210714e+02	-2.401094e-03
1.217707e+02	-2.428904e-03
1.224740e+02	-2.457035e-03
1.231814e+02	-2.485492e-03
1.238929e+02	-2.514279e-03
1.246085e+02	-2.543399e-03
1.253283e+02	-2.572856e-03
1.260522e+02	-2.602655e-03
1.267802e+02	-2.632798e-03
1.275125e+02	-2.663290e-03
1.282490e+02	-2.694136e-03
1.289898e+02	-2.725338e-03
1.297348e+02	-2.756902e-03
1.304842e+02	-2.788831e-03
1.312378e+02	-2.821130e-03
1.319959e+02	-2.853803e-03
1.327583e+02	-2.886854e-03
1.335251e+02	-2.920287e-03
1.342963e+02	-2.954108e-03
1.350720e+02	-2.988320e-03
1.358522e+02	-3.022929e-03
1.366368e+02	-3.057938e-03
1.374260e+02	-3.093352e-03
1.382198e+02	-3.129177e-03
1.390182e+02	-3.165416e-03
1.398211e+02	-3.202074e-03
1.406287e+02	-3.239157e-03
1.414410e+02	-3.276670e-03
1.422579e+02	-3.314616e-03
1.430796e+02	-3.353002e-03
1.439060e+02	-3.391832e-03
1.447372e+02	-3.431112e-03
1.455732e+02	-3.470846e-03
1.464141e+02	-3.511041e-03
1.472597e+02	-3.551700e-03
1.481103e+02	-3.592831e-03
1.489658e+02	-3.634437e-03
1.498262e+02	-3.676525e-03
1.506916e+02	-3.719100e-03
1.515620e+02	-3.762168e-03
1.524374e+02	-3.805735e-03
1.533179e+02	-3.849806e-03
1.542034e+02	-3.894387e-03
1.550941e+02	-3.939484e-03
1.559899e+02	-3.985103e-03
1.568909e+02	-4.031250e-03
1.577971e+02	-4.077931e-03
1.587085e+02	-4.125152e-03
1.596252e+02	-4.172920e-03
1.605472e+02	-4.221241e-03
1.614745e+02	-4.270121e-03
1.624072e+02	-4.319567e-03
1.633453e+02	-4.369585e-03
1.642887e+02	-4.420182e-03
1.652377e+02	-4.471364e-03
1.661921e+02	-4.523139e-03
1.671520e+02	-4.575513e-03
1.681175e+02	-4.628493e-03
1.690885e+02	-4.682087e-03
1.700651e+02	-4.736300e-03
1.710474e+02	-4.791141e-03
1.720354e+02	-4.846617e-03
1.730291e+02	-4.902734e-03
1.740285e+02	-4.959501e-03
1.750337e+02	-5.016925e-03
1.760446e+02	-5.075013e-03
1.770615e+02	-5.133774e-03
1.780842e+02	-5.193214e-03
1.791128e+02	-5.253343e-03
1.801473e+02	-5.314167e-03
1.811878e+02	-5.375694e-03
1.822344e+02	-5.437934e-03
1.832870e+02	-5.500894e-03
1.843456e+02	-5.564582e-03
1.854104e+02	-5.629007e-03
1.864813e+02	-5.694178e-03
1.875584e+02	-5.760103e-03
1.886418e+02	-5.826790e-03
1.897313e+02	-5.894249e-03
1.908272e+02	-5.962488e-03
1.919294e+02	-6.031517e-03
1.930380e+02	-6.101345e-03
1.941530e+02	-6.171980e-03
1.952744e+02	-6.243432e-03
1.964023e+02	-6.315711e-03
1.975367e+02	-6.388827e-03
1.986777e+02	-6.462788e-03
1.998252e+02	-6.537604e-03
2.009794e+02	-6.613286e-03
2.021403e+02	-6.689843e-03
2.033078e+02	-6.767286e-03
2.044821e+02	-6.845625e-03
2.056632e+02	-6.924870e-03
2.068511e+02	-7.005032e-03
2.080459e+02	-7.086120e-03
2.092475e+02	-7.168147e-03
2.104561e+02	-7.251122e-03
2.116717e+02	-7.335057e-03
2.128943e+02	-7.419963e-03
2.141240e+02	-7.505850e-03
2.153608e+02	-7.592731e-03
2.166047e+02	-7.680617e-03
2.178558e+02	-7.769519e-03
2.191141e+02	-7.859449e-03
2.203797e+02	-7.950419e-03
2.216526e+02	-8.042441e-03
2.229329e+02	-8.135527e-03
2.242205e+02	-8.229690e-03
2.255156e+02	-8.324941e-03
2.268182e+02	-8.421294e-03
2.281283e+02	-8.518761e-03
2.294459e+02	-8.617355e-03
2.307712e+02	-8.717088e-03
2.321041e+02	-8.817975e-03
2.334447e+02	-8.920028e-03
2.347931e+02	-9.023261e-03
2.361493e+02	-9.127688e-03
2.375133e+02	-9.233322e-03
2.388851e+02	-9.340177e-03
2.402649e+02	-9.448267e-03
2.416527e+02	-9.557607e-03
2.430484e+02	-9.668210e-03
2.444523e+02	-9.780092e-03
2.458642e+02	-9.893268e-03
2.472843e+02	-1.000775e-02
2.487126e+02	-1.012356e-02
2.501492e+02	-1.024070e-02
2.515940e+02	-1.035920e-02
2.530472e+02	-1.047907e-02
2.545088e+02	-1.060032e-02
2.559789e+02	-1.072298e-02
2.574574e+02	-1.084705e-02
2.589444e+02	-1.097256e-02
2.604401e+02	-1.109952e-02
2.619444e+02	-1.122794e-02
2.634574e+02	-1.135785e-02
2.649791e+02	-1.148926e-02
2.665096e+02	-1.162218e-02
2.680489e+02	-1.175665e-02
2.695972e+02	-1.189266e-02
2.711544e+02	-1.203025e-02
2.727205e+02	-1.216943e-02
2.742958e+02	-1.231021e-02
2.758801e+02	-1.245263e-02
2.774736e+02	-1.259668e-02
2.790762e+02	-1.274240e-02
2.806882e+02	-1.288981e-02
2.823094e+02	-1.303891e-02
2.839400e+02	-1.318974e-02
2.855800e+02	-1.334231e-02
2.872295e+02	-1.349665e-02
2.888886e+02	-1.365276e-02
2.905572e+02	-1.381068e-02
2.922354e+02	-1.397042e-02
2.939234e+02	-1.413201e-02
2.956211e+02	-1.429546e-02
2.973286e+02	-1.446080e-02
2.990459e+02	-1.462805e-02
3.007732e+02	-1.479723e-02
3.025104e+02	-1.496836e-02
3.042577e+02	-1.514147e-02
3.060151e+02	-1.531658e-02
3.077826e+02	-1.549371e-02
3.095604e+02	-1.567288e-02
3.113484e+02	-1.585412e-02
3.131467e+02	-1.603746e-02
3.149554e+02	-1.622291e-02
3.167746e+02	-1.641050e-02
3.186043e+02	-1.660025e-02
3.204445e+02	-1.679220e-02
3.222954e+02	-1.698636e-02
3.241570e+02	-1.718276e-02
3.260293e+02	-1.738142e-02
3.279124e+02	-1.758238e-02
3.298064e+02	-1.778566e-02
3.317114e+02	-1.799128e-02
3.336273e+02	-1.819928e-02
3.355544e+02	-1.840967e-02
3.374925e+02	-1.862249e-02
3.394418e+02	-1.883777e-02
3.414024e+02	-1.905553e-02
3.433744e+02	-1.927580e-02
3.453577e+02	-1.949861e-02
3.473525e+02	-1.972400e-02
3.493588e+02	-1.995198e-02
3.513766e+02	-2.018259e-02
3.534062e+02	-2.041585e-02
3.554474e+02	-2.065181e-02
3.575005e+02	-2.089049e-02
3.595654e+02	-2.113192e-02
3.616422e+02	-2.137614e-02
3.637311e+02	-2.162317e-02
3.658320e+02	-2.187304e-02
3.679450e+02	-2.212580e-02
3.700702e+02	-2.238147e-02
3.722077e+02	-2.264009e-02
3.743576e+02	-2.290168e-02
3.765199e+02	-2.316629e-02
3.786946e+02	-2.343395e-02
3.808820e+02	-2.370470e-02
3.830819e+02	-2.397856e-02
3.852946e+02	-2.425558e-02
3.875200e+02	-2.453579e-02
3.897583e+02	-2.481923e-02
3.920096e+02	-2.510593e-02
3.942738e+02	-2.539594e-02
3.965511e+02	-2.568928e-02
3.988416e+02	-2.598601e-02
4.011452e+02	-2.628615e-02
4.034622e+02	-2.658974e-02
4.057926e+02	-2.689684e-02
4.081365e+02	-2.720746e-02
4.104938e+02	-2.752167e-02
4.128648e+02	-2.783949e-02
4.152495e+02	-2.816096e-02
4.176480e+02	-2.848614e-02
4.200603e+02	-2.881506e-02
4.224866e+02	-2.914777e-02
4.249268e+02	-2.948430e-02
4.273812e+02	-2.982471e-02
4.298497e+02	-3.016903e-02
4.323325e+02	-3.051732e-02
4.348297e+02	-3.086961e-02
4.373412e+02	-3.122595e-02
4.398673e+02	-3.158639e-02
4.424079e+02	-3.195097e-02
4.449633e+02	-3.231975e-02
4.475334e+02	-3.269277e-02
4.501183e+02	-3.307008e-02
4.527182e+02	-3.345172e-02
4.553330e+02	-3.383776e-02
4.579630e+02	-3.422823e-02
4.606082e+02	-3.462318e-02
4.632687e+02	-3.502268e-02
4.659445e+02	-3.542676e-02
4.686358e+02	-3.583549e-02
4.713426e+02	-3.624892e-02
4.740650e+02	-3.666709e-02
4.768032e+02	-3.709007e-02
4.795572e+02	-3.751791e-02
4.823271e+02	-3.795066e-02
4.851130e+02	-3.838838e-02
4.879150e+02	-3.883112e-02
4.907332e+02	-3.927895e-02
4.935676e+02	-3.973192e-02
4.964185e+02	-4.019009e-02
4.992858e+02	-4.065352e-02
5.021696e+02	-4.112226e-02
5.050701e+02	-4.159639e-02
5.079874e+02	-4.207595e-02
5.109215e+02	-4.256102e-02
5.138726e+02	-4.305165e-02
5.168407e+02	-4.354790e-02
5.198259e+02	-4.404985e-02
5.228284e+02	-4.455756e-02
5.258482e+02	-4.507108e-02
5.288855e+02	-4.559049e-02
5.319403e+02	-4.611586e-02
5.350128e+02	-4.664725e-02
5.381030e+02	-4.718473e-02
5.412111e+02	-4.772836e-02
5.443371e+02	-4.827823e-02
5.474812e+02	-4.883439e-02
5.506434e+02	-4.939693e-02
5.538239e+02	-4.996590e-02
5.570228e+02	-5.054139e-02
5.602401e+02	-5.112348e-02
5.634760e+02	-5.171222e-02
5.667306e+02	-5.230771e-02
5.700040e+02	-5.291001e-02
5.732964e+02	-5.351920e-02
5.766077e+02	-5.413536e-02
5.799382e+02	-5.475857e-02
5.832879e+02	-5.538891e-02
5.866569e+02	-5.602646e-02
5.900454e+02	-5.667130e-02
5.934535e+02	-5.732351e-02
5.968813e+02	-5.798317e-02
6.003288e+02	-5.865038e-02
6.037963e+02	-5.932521e-02
6.072838e+02	-6.000776e-02
6.107914e+02	-6.069810e-02
6.143194e+02	-6.139632e-02
6.178676e+02	-6.210252e-02
6.214364e+02	-6.281679e-02
6.250258e+02	-6.353920e-02
6.286359e+02	-6.426987e-02
6.322669e+02	-6.500887e-02
6.359189e+02	-6.575631e-02
6.395919e+02	-6.651227e-02
6.432862e+02	-6.727686e-02
6.470017e+02	-6.805017e-02
6.507388e+02	-6.883230e-02
6.544974e+02	-6.962334e-02
6.582778e+02	-7.042340e-02
6.620800e+02	-7.123258e-02
6.659041e+02	-7.205097e-02
6.697504e+02	-7.287869e-02
6.736188e+02	-7.371584e-02
6.775096e+02	-7.456253e-02
6.814229e+02	-7.541885e-02
6.853587e+02	-7.628492e-02
6.893173e+02	-7.716085e-02
6.932988e+02	-7.804674e-02
6.973033e+02	-7.894271e-02
7.013309e+02	-7.984888e-02
