Frequency(Hz)	Magnitude(dB)
1.000000e+01	-1.700232e-05
1.005776e+01	-1.719930e-05
1.011585e+01	-1.739855e-05
1.017428e+01	-1.760012e-05
1.023305e+01	-1.780402e-05
1.029215e+01	-1.801029e-05
1.035160e+01	-1.821894e-05
1.041139e+01	-1.843001e-05
1.047153e+01	-1.864353e-05
1.053201e+01	-1.885952e-05
1.059284e+01	-1.907801e-05
1.065403e+01	-1.929903e-05
1.071556e+01	-1.952262e-05
1.077746e+01	-1.974879e-05
1.083971e+01	-1.997759e-05
1.090232e+01	-2.020903e-05
1.096529e+01	-2.044316e-05
1.102862e+01	-2.068000e-05
1.109232e+01	-2.091958e-05
1.115639e+01	-2.116194e-05
1.122083e+01	-2.140711e-05
1.128564e+01	-2.165511e-05
1.135083e+01	-2.190599e-05
1.141639e+01	-2.215978e-05
1.148233e+01	-2.241651e-05
1.154865e+01	-2.267621e-05
1.161536e+01	-2.293892e-05
1.168245e+01	-2.320467e-05
1.174992e+01	-2.347350e-05
1.181779e+01	-2.374545e-05
1.188605e+01	-2.402055e-05
1.195470e+01	-2.429883e-05
1.202375e+01	-2.458034e-05
1.209320e+01	-2.486511e-05
1.216305e+01	-2.515318e-05
1.223330e+01	-2.544458e-05
1.230396e+01	-2.573936e-05
1.237503e+01	-2.603756e-05
1.244651e+01	-2.633921e-05
1.251840e+01	-2.664436e-05
1.259070e+01	-2.695304e-05
1.266343e+01	-2.726530e-05
1.273657e+01	-2.758117e-05
1.281014e+01	-2.790071e-05
1.288413e+01	-2.822394e-05
1.295855e+01	-2.855092e-05
1.303339e+01	-2.888169e-05
1.310867e+01	-2.921629e-05
1.318439e+01	-2.955477e-05
1.326054e+01	-2.989717e-05
1.333713e+01	-3.024354e-05
1.341417e+01	-3.059392e-05
1.349165e+01	-3.094835e-05
1.356958e+01	-3.130690e-05
1.364795e+01	-3.166960e-05
1.372678e+01	-3.203650e-05
1.380607e+01	-3.240765e-05
1.388581e+01	-3.278310e-05
1.396602e+01	-3.316290e-05
1.404668e+01	-3.354710e-05
1.412782e+01	-3.393575e-05
1.420942e+01	-3.432890e-05
1.429149e+01	-3.472661e-05
1.437404e+01	-3.512892e-05
1.445706e+01	-3.553590e-05
1.454057e+01	-3.594759e-05
1.462455e+01	-3.636405e-05
1.470902e+01	-3.678534e-05
1.479398e+01	-3.721151e-05
1.487943e+01	-3.764261e-05
1.496537e+01	-3.807871e-05
1.505181e+01	-3.851986e-05
1.513875e+01	-3.896612e-05
1.522619e+01	-3.941755e-05
1.531414e+01	-3.987421e-05
1.540259e+01	-4.033617e-05
1.549156e+01	-4.080347e-05
1.558103e+01	-4.127619e-05
1.567103e+01	-4.175438e-05
1.576155e+01	-4.223811e-05
1.585258e+01	-4.272745e-05
1.594415e+01	-4.322246e-05
1.603624e+01	-4.372320e-05
1.612886e+01	-4.422974e-05
1.622202e+01	-4.474216e-05
1.631572e+01	-4.526050e-05
1.640996e+01	-4.578486e-05
1.650474e+01	-4.631528e-05
1.660008e+01	-4.685186e-05
1.669596e+01	-4.739464e-05
1.679239e+01	-4.794372e-05
1.688938e+01	-4.849916e-05
1.698694e+01	-4.906103e-05
1.708505e+01	-4.962942e-05
1.718373e+01	-5.020438e-05
1.728299e+01	-5.078601e-05
1.738281e+01	-5.137438e-05
1.748322e+01	-5.196956e-05
1.758420e+01	-5.257164e-05
1.768576e+01	-5.318069e-05
1.778792e+01	-5.379680e-05
1.789066e+01	-5.442005e-05
1.799399e+01	-5.505052e-05
1.809793e+01	-5.568829e-05
1.820246e+01	-5.633345e-05
1.830760e+01	-5.698608e-05
1.841334e+01	-5.764628e-05
1.851969e+01	-5.831412e-05
1.862666e+01	-5.898970e-05
1.873425e+01	-5.967311e-05
1.884246e+01	-6.036444e-05
1.895129e+01	-6.106377e-05
1.906075e+01	-6.177121e-05
1.917085e+01	-6.248684e-05
1.928158e+01	-6.321076e-05
1.939295e+01	-6.394307e-05
1.950496e+01	-6.468386e-05
1.961762e+01	-6.543324e-05
1.973093e+01	-6.619129e-05
1.984490e+01	-6.695813e-05
1.995952e+01	-6.773385e-05
2.007480e+01	-6.851856e-05
2.019076e+01	-6.931236e-05
2.030738e+01	-7.011536e-05
2.042467e+01	-7.092766e-05
2.054264e+01	-7.174937e-05
2.066130e+01	-7.258060e-05
2.078064e+01	-7.342146e-05
2.090066e+01	-7.427206e-05
2.102139e+01	-7.513252e-05
2.114280e+01	-7.600294e-05
2.126492e+01	-7.688345e-05
2.138775e+01	-7.777415e-05
2.151128e+01	-7.867518e-05
2.163553e+01	-7.958665e-05
2.176050e+01	-8.050867e-05
2.188619e+01	-8.144138e-05
2.201260e+01	-8.238489e-05
2.213974e+01	-8.333933e-05
2.226762e+01	-8.430483e-05
2.239624e+01	-8.528152e-05
2.252560e+01	-8.626952e-05
2.265571e+01	-8.726897e-05
2.278656e+01	-8.827999e-05
2.291818e+01	-8.930273e-05
2.305055e+01	-9.033732e-05
2.318369e+01	-9.138389e-05
2.331760e+01	-9.244258e-05
2.345228e+01	-9.351355e-05
2.358774e+01	-9.459692e-05
2.372398e+01	-9.569283e-05
2.386101e+01	-9.680145e-05
2.399883e+01	-9.792291e-05
2.413745e+01	-9.905736e-05
2.427686e+01	-1.002050e-04
2.441709e+01	-1.013658e-04
2.455812e+01	-1.025402e-04
2.469997e+01	-1.037281e-04
2.484263e+01	-1.049298e-04
2.498612e+01	-1.061455e-04
2.513044e+01	-1.073752e-04
2.527559e+01	-1.086191e-04
2.542158e+01	-1.098775e-04
2.556842e+01	-1.111504e-04
2.571610e+01	-1.124381e-04
2.586463e+01	-1.137407e-04
2.601403e+01	-1.150584e-04
2.616428e+01	-1.163914e-04
2.631541e+01	-1.177398e-04
2.646740e+01	-1.191038e-04
2.662028e+01	-1.204837e-04
2.677404e+01	-1.218795e-04
2.692868e+01	-1.232915e-04
2.708422e+01	-1.247198e-04
2.724066e+01	-1.261647e-04
2.739800e+01	-1.276263e-04
2.755625e+01	-1.291049e-04
2.771541e+01	-1.306006e-04
2.787550e+01	-1.321136e-04
2.803650e+01	-1.336442e-04
2.819844e+01	-1.351925e-04
2.836131e+01	-1.367587e-04
2.852513e+01	-1.383430e-04
2.868989e+01	-1.399458e-04
2.885560e+01	-1.415670e-04
2.902227e+01	-1.432071e-04
2.918990e+01	-1.448662e-04
2.935850e+01	-1.465445e-04
2.952807e+01	-1.482422e-04
2.969863e+01	-1.499596e-04
2.987016e+01	-1.516969e-04
3.004269e+01	-1.534543e-04
3.021622e+01	-1.552321e-04
3.039075e+01	-1.570305e-04
3.056628e+01	-1.588497e-04
3.074283e+01	-1.606899e-04
3.092040e+01	-1.625515e-04
3.109900e+01	-1.644347e-04
3.127862e+01	-1.663397e-04
3.145929e+01	-1.682668e-04
3.164099e+01	-1.702161e-04
3.182375e+01	-1.721881e-04
3.200756e+01	-1.741829e-04
3.219244e+01	-1.762008e-04
3.237838e+01	-1.782421e-04
3.256540e+01	-1.803071e-04
3.275349e+01	-1.823959e-04
3.294268e+01	-1.845090e-04
3.313295e+01	-1.866465e-04
3.332433e+01	-1.888088e-04
3.351681e+01	-1.909962e-04
3.371040e+01	-1.932089e-04
3.390511e+01	-1.954472e-04
3.410094e+01	-1.977115e-04
3.429791e+01	-2.000020e-04
3.449601e+01	-2.023190e-04
3.469526e+01	-2.046629e-04
3.489566e+01	-2.070339e-04
3.509721e+01	-2.094324e-04
3.529993e+01	-2.118586e-04
3.550382e+01	-2.143130e-04
3.570889e+01	-2.167958e-04
3.591515e+01	-2.193074e-04
3.612259e+01	-2.218481e-04
3.633123e+01	-2.244182e-04
3.654108e+01	-2.270181e-04
3.675214e+01	-2.296481e-04
3.696442e+01	-2.323085e-04
3.717792e+01	-2.349998e-04
3.739266e+01	-2.377223e-04
3.760864e+01	-2.404763e-04
3.782587e+01	-2.432622e-04
3.804435e+01	-2.460804e-04
3.826409e+01	-2.489312e-04
3.848510e+01	-2.518150e-04
3.870739e+01	-2.547323e-04
3.893096e+01	-2.576834e-04
3.915583e+01	-2.606686e-04
3.938199e+01	-2.636884e-04
3.960946e+01	-2.667432e-04
3.983824e+01	-2.698334e-04
4.006834e+01	-2.729594e-04
4.029978e+01	-2.761216e-04
4.053255e+01	-2.793205e-04
4.076666e+01	-2.825564e-04
4.100213e+01	-2.858298e-04
4.123896e+01	-2.891411e-04
4.147715e+01	-2.924908e-04
4.171672e+01	-2.958792e-04
4.195767e+01	-2.993069e-04
4.220002e+01	-3.027744e-04
4.244377e+01	-3.062820e-04
4.268892e+01	-3.098302e-04
4.293549e+01	-3.134196e-04
4.318348e+01	-3.170505e-04
4.343291e+01	-3.207235e-04
4.368377e+01	-3.244390e-04
4.393609e+01	-3.281976e-04
4.418986e+01	-3.319997e-04
4.444510e+01	-3.358458e-04
4.470182e+01	-3.397366e-04
4.496001e+01	-3.436723e-04
4.521970e+01	-3.476537e-04
4.548089e+01	-3.516812e-04
4.574358e+01	-3.557554e-04
4.600779e+01	-3.598767e-04
4.627353e+01	-3.640458e-04
4.654081e+01	-3.682632e-04
4.680963e+01	-3.725295e-04
4.708000e+01	-3.768451e-04
4.735193e+01	-3.812108e-04
4.762543e+01	-3.856270e-04
4.790051e+01	-3.900944e-04
4.817719e+01	-3.946136e-04
4.845545e+01	-3.991851e-04
4.873533e+01	-4.038095e-04
4.901682e+01	-4.084876e-04
4.929994e+01	-4.132198e-04
4.958470e+01	-4.180068e-04
4.987110e+01	-4.228493e-04
5.015915e+01	-4.277479e-04
5.044887e+01	-4.327032e-04
5.074026e+01	-4.377160e-04
5.103333e+01	-4.427868e-04
5.132810e+01	-4.479163e-04
5.162457e+01	-4.531053e-04
5.192275e+01	-4.583543e-04
5.222265e+01	-4.636642e-04
5.252429e+01	-4.690356e-04
5.282767e+01	-4.744692e-04
5.313280e+01	-4.799658e-04
5.343969e+01	-4.855260e-04
5.374836e+01	-4.911506e-04
5.405880e+01	-4.968404e-04
5.437105e+01	-5.025961e-04
5.468509e+01	-5.084185e-04
5.500095e+01	-5.143083e-04
5.531863e+01	-5.202664e-04
5.563815e+01	-5.262934e-04
5.595951e+01	-5.323903e-04
5.628273e+01	-5.385578e-04
5.660782e+01	-5.447968e-04
5.693479e+01	-5.511080e-04
5.726364e+01	-5.574923e-04
5.759439e+01	-5.639506e-04
5.792705e+01	-5.704837e-04
5.826164e+01	-5.770925e-04
5.859815e+01	-5.837778e-04
5.893662e+01	-5.905405e-04
5.927703e+01	-5.973816e-04
5.961941e+01	-6.043020e-04
5.996377e+01	-6.113025e-04
6.031012e+01	-6.183841e-04
6.065847e+01	-6.255477e-04
6.100883e+01	-6.327944e-04
6.136121e+01	-6.401249e-04
6.171563e+01	-6.475404e-04
6.207210e+01	-6.550418e-04
6.243063e+01	-6.626300e-04
6.279122e+01	-6.703062e-04
6.315390e+01	-6.780712e-04
6.351868e+01	-6.859263e-04
6.388556e+01	-6.938723e-04
6.425456e+01	-7.019103e-04
6.462569e+01	-7.100415e-04
6.499897e+01	-7.182668e-04
6.537440e+01	-7.265875e-04
6.575200e+01	-7.350045e-04
6.613178e+01	-7.435190e-04
6.651375e+01	-7.521321e-04
6.689793e+01	-7.608450e-04
6.728433e+01	-7.696588e-04
6.767297e+01	-7.785747e-04
6.806384e+01	-7.875939e-04
6.845698e+01	-7.967175e-04
6.885238e+01	-8.059469e-04
6.925007e+01	-8.152831e-04
6.965005e+01	-8.247275e-04
7.005235e+01	-8.342813e-04
7.045697e+01	-8.439457e-04
7.086393e+01	-8.537221e-04
7.127323e+01	-8.636117e-04
7.168490e+01	-8.736159e-04
7.209895e+01	-8.837359e-04
7.251539e+01	-8.939732e-04
7.293424e+01	-9.043290e-04
7.335551e+01	-9.148048e-04
7.377920e+01	-9.254020e-04
7.420535e+01	-9.361218e-04
7.463396e+01	-9.469659e-04
7.506504e+01	-9.579355e-04
7.549861e+01	-9.690322e-04
7.593469e+01	-9.802575e-04
7.637328e+01	-9.916127e-04
7.681441e+01	-1.003100e-03
7.725809e+01	-1.014719e-03
7.770433e+01	-1.026474e-03
7.815315e+01	-1.038364e-03
7.860456e+01	-1.050393e-03
7.905857e+01	-1.062560e-03
7.951521e+01	-1.074869e-03
7.997449e+01	-1.087320e-03
8.043642e+01	-1.099915e-03
8.090102e+01	-1.112656e-03
8.136830e+01	-1.125545e-03
8.183828e+01	-1.138583e-03
8.231097e+01	-1.151772e-03
8.278640e+01	-1.165114e-03
8.326457e+01	-1.178610e-03
8.374550e+01	-1.192263e-03
8.422921e+01	-1.206074e-03
8.471572e+01	-1.220044e-03
8.520503e+01	-1.234177e-03
8.569717e+01	-1.248473e-03
8.619215e+01	-1.262935e-03
8.669000e+01	-1.277564e-03
8.719071e+01	-1.292363e-03
8.769432e+01	-1.307333e-03
8.820084e+01	-1.322477e-03
8.871029e+01	-1.337795e-03
8.922267e+01	-1.353292e-03
8.973802e+01	-1.368968e-03
9.025634e+01	-1.384825e-03
9.077766e+01	-1.400866e-03
9.130199e+01	-1.417093e-03
9.182935e+01	-1.433507e-03
9.235975e+01	-1.450112e-03
9.289321e+01	-1.466909e-03
9.342976e+01	-1.483901e-03
9.396941e+01	-1.501089e-03
9.451217e+01	-1.518477e-03
9.505807e+01	-1.536066e-03
9.560712e+01	-1.553858e-03
9.615934e+01	-1.571857e-03
9.671476e+01	-1.590064e-03
9.727338e+01	-1.608482e-03
9.783522e+01	-1.627113e-03
9.840032e+01	-1.645960e-03
9.896867e+01	-1.665025e-03
9.954031e+01	-1.684311e-03
1.001153e+02	-1.703820e-03
1.006935e+02	-1.723556e-03
1.012751e+02	-1.743520e-03
1.018601e+02	-1.763715e-03
1.024484e+02	-1.784143e-03
1.030402e+02	-1.804809e-03
1.036353e+02	-1.825714e-03
1.042339e+02	-1.846861e-03
1.048360e+02	-1.868252e-03
1.054415e+02	-1.889892e-03
1.060505e+02	-1.911782e-03
1.066631e+02	-1.933926e-03
1.072791e+02	-1.956326e-03
1.078988e+02	-1.978985e-03
1.085220e+02	-2.001907e-03
1.091488e+02	-2.025094e-03
1.097793e+02	-2.048550e-03
1.104133e+02	-2.072277e-03
1.110511e+02	-2.096279e-03
1.116925e+02	-2.120559e-03
1.123376e+02	-2.145120e-03
1.129865e+02	-2.169966e-03
1.136391e+02	-2.195099e-03
1.142955e+02	-2.220523e-03
1.149556e+02	-2.246242e-03
1.156196e+02	-2.272259e-03
1.162874e+02	-2.298576e-03
1.169591e+02	-2.325199e-03
1.176347e+02	-2.352129e-03
1.183141e+02	-2.379372e-03
1.189975e+02	-2.406930e-03
1.196848e+02	-2.434807e-03
1.203761e+02	-2.463007e-03
1.210714e+02	-2.491533e-03
1.217707e+02	-2.520390e-03
1.224740e+02	-2.549581e-03
1.231814e+02	-2.579110e-03
1.238929e+02	-2.608980e-03
1.246085e+02	-2.639197e-03
1.253283e+02	-2.669763e-03
1.260522e+02	-2.700684e-03
1.267802e+02	-2.731962e-03
1.275125e+02	-2.763602e-03
1.282490e+02	-2.795609e-03
1.289898e+02	-2.827986e-03
1.297348e+02	-2.860738e-03
1.304842e+02	-2.893870e-03
1.312378e+02	-2.927385e-03
1.319959e+02	-2.961288e-03
1.327583e+02	-2.995583e-03
1.335251e+02	-3.030276e-03
1.342963e+02	-3.065370e-03
1.350720e+02	-3.100870e-03
1.358522e+02	-3.136782e-03
1.366368e+02	-3.173109e-03
1.374260e+02	-3.209856e-03
1.382198e+02	-3.247029e-03
1.390182e+02	-3.284633e-03
1.398211e+02	-3.322672e-03
1.406287e+02	-3.361151e-03
1.414410e+02	-3.400075e-03
1.422579e+02	-3.439450e-03
1.430796e+02	-3.479281e-03
1.439060e+02	-3.519573e-03
1.447372e+02	-3.560332e-03
1.455732e+02	-3.601562e-03
1.464141e+02	-3.643269e-03
1.472597e+02	-3.685460e-03
1.481103e+02	-3.728138e-03
1.489658e+02	-3.771311e-03
1.498262e+02	-3.814983e-03
1.506916e+02	-3.859161e-03
1.515620e+02	-3.903851e-03
1.524374e+02	-3.949057e-03
1.533179e+02	-3.994787e-03
1.542034e+02	-4.041046e-03
1.550941e+02	-4.087840e-03
1.559899e+02	-4.135177e-03
1.568909e+02	-4.183061e-03
1.577971e+02	-4.231499e-03
1.587085e+02	-4.280497e-03
1.596252e+02	-4.330063e-03
1.605472e+02	-4.380203e-03
1.614745e+02	-4.430923e-03
1.624072e+02	-4.482230e-03
1.633453e+02	-4.534130e-03
1.642887e+02	-4.586631e-03
1.652377e+02	-4.639740e-03
1.661921e+02	-4.693464e-03
1.671520e+02	-4.747809e-03
1.681175e+02	-4.802783e-03
1.690885e+02	-4.858393e-03
1.700651e+02	-4.914647e-03
1.710474e+02	-4.971552e-03
1.720354e+02	-5.029115e-03
1.730291e+02	-5.087345e-03
1.740285e+02	-5.146248e-03
1.750337e+02	-5.205833e-03
1.760446e+02	-5.266107e-03
1.770615e+02	-5.327079e-03
1.780842e+02	-5.388756e-03
1.791128e+02	-5.451147e-03
1.801473e+02	-5.514259e-03
1.811878e+02	-5.578102e-03
1.822344e+02	-5.642684e-03
1.832870e+02	-5.708013e-03
1.843456e+02	-5.774097e-03
1.854104e+02	-5.840947e-03
1.864813e+02	-5.908569e-03
1.875584e+02	-5.976974e-03
1.886418e+02	-6.046171e-03
1.897313e+02	-6.116168e-03
1.908272e+02	-6.186975e-03
1.919294e+02	-6.258601e-03
1.930380e+02	-6.331055e-03
1.941530e+02	-6.404348e-03
1.952744e+02	-6.478488e-03
1.964023e+02	-6.553486e-03
1.975367e+02	-6.629352e-03
1.986777e+02	-6.706095e-03
1.998252e+02	-6.783726e-03
2.009794e+02	-6.862255e-03
2.021403e+02	-6.941692e-03
2.033078e+02	-7.022048e-03
2.044821e+02	-7.103334e-03
2.056632e+02	-7.185560e-03
2.068511e+02	-7.268736e-03
2.080459e+02	-7.352875e-03
2.092475e+02	-7.437987e-03
2.104561e+02	-7.524083e-03
2.116717e+02	-7.611174e-03
2.128943e+02	-7.699273e-03
2.141240e+02	-7.788391e-03
2.153608e+02	-7.878540e-03
2.166047e+02	-7.969730e-03
2.178558e+02	-8.061976e-03
2.191141e+02	-8.155288e-03
2.203797e+02	-8.249679e-03
2.216526e+02	-8.345161e-03
2.229329e+02	-8.441748e-03
2.242205e+02	-8.539451e-03
2.255156e+02	-8.638284e-03
2.268182e+02	-8.738260e-03
2.281283e+02	-8.839392e-03
2.294459e+02	-8.941692e-03
2.307712e+02	-9.045176e-03
2.321041e+02	-9.149856e-03
2.334447e+02	-9.255746e-03
2.347931e+02	-9.362860e-03
2.361493e+02	-9.471212e-03
2.375133e+02	-9.580817e-03
2.388851e+02	-9.691689e-03
2.402649e+02	-9.803843e-03
2.416527e+02	-9.917293e-03
2.430484e+02	-1.003205e-02
2.444523e+02	-1.014814e-02
2.458642e+02	-1.026557e-02
2.472843e+02	-1.038436e-02
2.487126e+02	-1.050452e-02
2.501492e+02	-1.062606e-02
2.515940e+02	-1.074902e-02
2.530472e+02	-1.087339e-02
2.545088e+02	-1.099920e-02
2.559789e+02	-1.112647e-02
2.574574e+02	-1.125520e-02
2.589444e+02	-1.138542e-02
2.604401e+02	-1.151715e-02
2.619444e+02	-1.165040e-02
2.634574e+02	-1.178519e-02
2.649791e+02	-1.192154e-02
2.665096e+02	-1.205946e-02
2.680489e+02	-1.219897e-02
2.695972e+02	-1.234010e-02
2.711544e+02	-1.248286e-02
2.727205e+02	-1.262726e-02
2.742958e+02	-1.277334e-02
2.758801e+02	-1.292110e-02
2.774736e+02	-1.307057e-02
2.790762e+02	-1.322176e-02
2.806882e+02	-1.337470e-02
2.823094e+02	-1.352941e-02
2.839400e+02	-1.368590e-02
2.855800e+02	-1.384420e-02
2.872295e+02	-1.400433e-02
2.888886e+02	-1.416631e-02
2.905572e+02	-1.433016e-02
2.922354e+02	-1.449590e-02
2.939234e+02	-1.466355e-02
2.956211e+02	-1.483314e-02
2.973286e+02	-1.500469e-02
2.990459e+02	-1.517822e-02
3.007732e+02	-1.535375e-02
3.025104e+02	-1.553131e-02
3.042577e+02	-1.571092e-02
3.060151e+02	-1.589260e-02
3.077826e+02	-1.607637e-02
3.095604e+02	-1.626227e-02
3.113484e+02	-1.645032e-02
3.131467e+02	-1.664053e-02
3.149554e+02	-1.683294e-02
3.167746e+02	-1.702757e-02
3.186043e+02	-1.722445e-02
3.204445e+02	-1.742360e-02
3.222954e+02	-1.762504e-02
3.241570e+02	-1.782881e-02
3.260293e+02	-1.803493e-02
3.279124e+02	-1.824343e-02
3.298064e+02	-1.845433e-02
3.317114e+02	-1.866767e-02
3.336273e+02	-1.888347e-02
3.355544e+02	-1.910176e-02
3.374925e+02	-1.932256e-02
3.394418e+02	-1.954591e-02
3.414024e+02	-1.977184e-02
3.433744e+02	-2.000037e-02
3.453577e+02	-2.023154e-02
3.473525e+02	-2.046537e-02
3.493588e+02	-2.070190e-02
3.513766e+02	-2.094116e-02
3.534062e+02	-2.118317e-02
3.554474e+02	-2.142798e-02
3.575005e+02	-2.167560e-02
3.595654e+02	-2.192608e-02
3.616422e+02	-2.217945e-02
3.637311e+02	-2.243574e-02
3.658320e+02	-2.269498e-02
3.679450e+02	-2.295721e-02
3.700702e+02	-2.322246e-02
3.722077e+02	-2.349077e-02
3.743576e+02	-2.376217e-02
3.765199e+02	-2.403670e-02
3.786946e+02	-2.431439e-02
3.808820e+02	-2.459527e-02
3.830819e+02	-2.487940e-02
3.852946e+02	-2.516679e-02
3.875200e+02	-2.545750e-02
3.897583e+02	-2.575155e-02
3.920096e+02	-2.604899e-02
3.942738e+02	-2.634986e-02
3.965511e+02	-2.665419e-02
3.988416e+02	-2.696202e-02
4.011452e+02	-2.727340e-02
4.034622e+02	-2.758836e-02
4.057926e+02	-2.790695e-02
4.081365e+02	-2.822920e-02
4.104938e+02	-2.855517e-02
4.128648e+02	-2.888488e-02
4.152495e+02	-2.921839e-02
4.176480e+02	-2.955574e-02
4.200603e+02	-2.989697e-02
4.224866e+02	-3.024212e-02
4.249268e+02	-3.059124e-02
4.273812e+02	-3.094438e-02
4.298497e+02	-3.130159e-02
4.323325e+02	-3.166290e-02
4.348297e+02	-3.202836e-02
4.373412e+02	-3.239803e-02
4.398673e+02	-3.277195e-02
4.424079e+02	-3.315017e-02
4.449633e+02	-3.353273e-02
4.475334e+02	-3.391970e-02
4.501183e+02	-3.431111e-02
4.527182e+02	-3.470702e-02
4.553330e+02	-3.510748e-02
4.579630e+02	-3.551254e-02
4.606082e+02	-3.592225e-02
4.632687e+02	-3.633667e-02
4.659445e+02	-3.675586e-02
4.686358e+02	-3.717986e-02
4.713426e+02	-3.760872e-02
4.740650e+02	-3.804252e-02
4.768032e+02	-3.848129e-02
4.795572e+02	-3.892510e-02
4.823271e+02	-3.937401e-02
4.851130e+02	-3.982807e-02
4.879150e+02	-4.028734e-02
4.907332e+02	-4.075188e-02
4.935676e+02	-4.122176e-02
4.964185e+02	-4.169702e-02
4.992858e+02	-4.217774e-02
5.021696e+02	-4.266398e-02
5.050701e+02	-4.315579e-02
5.079874e+02	-4.365324e-02
5.109215e+02	-4.415639e-02
5.138726e+02	-4.466532e-02
5.168407e+02	-4.518008e-02
5.198259e+02	-4.570074e-02
5.228284e+02	-4.622737e-02
5.258482e+02	-4.676004e-02
5.288855e+02	-4.729881e-02
5.319403e+02	-4.784375e-02
5.350128e+02	-4.839494e-02
5.381030e+02	-4.895244e-02
5.412111e+02	-4.951633e-02
5.443371e+02	-5.008667e-02
5.474812e+02	-5.066355e-02
5.506434e+02	-5.124703e-02
5.538239e+02	-5.183718e-02
5.570228e+02	-5.243410e-02
5.602401e+02	-5.303785e-02
5.634760e+02	-5.364850e-02
5.667306e+02	-5.426614e-02
5.700040e+02	-5.489085e-02
5.732964e+02	-5.552270e-02
5.766077e+02	-5.616178e-02
5.799382e+02	-5.680816e-02
5.832879e+02	-5.746194e-02
5.866569e+02	-5.812319e-02
5.900454e+02	-5.879200e-02
5.934535e+02	-5.946845e-02
5.968813e+02	-6.015262e-02
6.003288e+02	-6.084462e-02
6.037963e+02	-6.154452e-02
6.072838e+02	-6.225241e-02
6.107914e+02	-6.296839e-02
6.143194e+02	-6.369253e-02
6.178676e+02	-6.442495e-02
6.214364e+02	-6.516572e-02
6.250258e+02	-6.591495e-02
6.286359e+02	-6.667272e-02
6.322669e+02	-6.743914e-02
6.359189e+02	-6.821430e-02
6.395919e+02	-6.899830e-02
6.432862e+02	-6.979123e-02
6.470017e+02	-7.059320e-02
6.507388e+02	-7.140432e-02
6.544974e+02	-7.222467e-02
6.582778e+02	-7.305437e-02
6.620800e+02	-7.389352e-02
6.659041e+02	-7.474223e-02
6.697504e+02	-7.560059e-02
6.736188e+02	-7.646873e-02
6.775096e+02	-7.734675e-02
6.814229e+02	-7.823476e-02
6.853587e+02	-7.913287e-02
6.893173e+02	-8.004120e-02
6.932988e+02	-8.095985e-02
6.973033e+02	-8.188895e-02
7.013309e+02	-8.282861e-02
