Frequency(Hz)	Magnitude(dB)
1.000000e+01	-2.208493e+00
1.005776e+01	-2.228322e+00
1.011585e+01	-2.248384e+00
1.017428e+01	-2.268613e+00
1.023305e+01	-2.289020e+00
1.029215e+01	-2.309620e+00
1.035160e+01	-2.330405e+00
1.041139e+01	-2.351132e+00
1.047153e+01	-2.372117e+00
1.053201e+01	-2.393435e+00
1.059284e+01	-2.414606e+00
1.065403e+01	-2.435894e+00
1.071556e+01	-2.457675e+00
1.077746e+01	-2.479358e+00
1.083971e+01	-2.501157e+00
1.090232e+01	-2.522851e+00
1.096529e+01	-2.545103e+00
1.102862e+01	-2.567165e+00
1.109232e+01	-2.589741e+00
1.115639e+01	-2.612511e+00
1.122083e+01	-2.635111e+00
1.128564e+01	-2.657898e+00
1.135083e+01	-2.680797e+00
1.141639e+01	-2.704028e+00
1.148233e+01	-2.727234e+00
1.154865e+01	-2.750789e+00
1.161536e+01	-2.774366e+00
1.168245e+01	-2.797544e+00
1.174992e+01	-2.821583e+00
1.181779e+01	-2.845332e+00
1.188605e+01	-2.869759e+00
1.195470e+01	-2.893892e+00
1.202375e+01	-2.918181e+00
1.209320e+01	-2.942985e+00
1.216305e+01	-2.967566e+00
1.223330e+01	-2.992677e+00
1.230396e+01	-3.017429e+00
1.237503e+01	-3.042648e+00
1.244651e+01	-3.067742e+00
1.251840e+01	-3.093203e+00
1.259070e+01	-3.118762e+00
1.266343e+01	-3.144499e+00
1.273657e+01	-3.170629e+00
1.281014e+01	-3.196386e+00
1.288413e+01	-3.222604e+00
1.295855e+01	-3.248476e+00
1.303339e+01	-3.275416e+00
1.310867e+01	-3.301950e+00
1.318439e+01	-3.328443e+00
1.326054e+01	-3.355268e+00
1.333713e+01	-3.382217e+00
1.341417e+01	-3.409552e+00
1.349165e+01	-3.436681e+00
1.356958e+01	-3.464197e+00
1.364795e+01	-3.491782e+00
1.372678e+01	-3.519726e+00
1.380607e+01	-3.547145e+00
1.388581e+01	-3.575294e+00
1.396602e+01	-3.603428e+00
1.404668e+01	-3.631528e+00
1.412782e+01	-3.660251e+00
1.420942e+01	-3.688633e+00
1.429149e+01	-3.717562e+00
1.437404e+01	-3.746268e+00
1.445706e+01	-3.775014e+00
1.454057e+01	-3.804435e+00
1.462455e+01	-3.833614e+00
1.470902e+01	-3.862696e+00
1.479398e+01	-3.892506e+00
1.487943e+01	-3.922366e+00
1.496537e+01	-3.951646e+00
1.505181e+01	-3.981869e+00
1.513875e+01	-4.012013e+00
1.522619e+01	-4.042445e+00
1.531414e+01	-4.072705e+00
1.540259e+01	-4.102968e+00
1.549156e+01	-4.133897e+00
1.558103e+01	-4.164628e+00
1.567103e+01	-4.195470e+00
1.576155e+01	-4.226675e+00
1.585258e+01	-4.258088e+00
1.594415e+01	-4.288786e+00
1.603624e+01	-4.320424e+00
1.612886e+01	-4.352134e+00
1.622202e+01	-4.383742e+00
1.631572e+01	-4.415769e+00
1.640996e+01	-4.447778e+00
1.650474e+01	-4.479883e+00
1.660008e+01	-4.512077e+00
1.669596e+01	-4.544577e+00
1.679239e+01	-4.576949e+00
1.688938e+01	-4.609579e+00
1.698694e+01	-4.642781e+00
1.708505e+01	-4.675339e+00
1.718373e+01	-4.708300e+00
1.728299e+01	-4.741460e+00
1.738281e+01	-4.775053e+00
1.748322e+01	-4.808235e+00
1.758420e+01	-4.841917e+00
1.768576e+01	-4.875627e+00
1.778792e+01	-4.909086e+00
1.789066e+01	-4.943284e+00
1.799399e+01	-4.977445e+00
1.809793e+01	-5.011625e+00
1.820246e+01	-5.045809e+00
1.830760e+01	-5.080380e+00
1.841334e+01	-5.114921e+00
1.851969e+01	-5.149495e+00
1.862666e+01	-5.184201e+00
1.873425e+01	-5.219382e+00
1.884246e+01	-5.254272e+00
1.895129e+01	-5.289493e+00
1.906075e+01	-5.324845e+00
1.917085e+01	-5.360134e+00
1.928158e+01	-5.395703e+00
1.939295e+01	-5.431433e+00
1.950496e+01	-5.467002e+00
1.961762e+01	-5.503041e+00
1.973093e+01	-5.538932e+00
1.984490e+01	-5.575064e+00
1.995952e+01	-5.611222e+00
2.007480e+01	-5.647724e+00
2.019076e+01	-5.683933e+00
2.030738e+01	-5.720772e+00
2.042467e+01	-5.757289e+00
2.054264e+01	-5.794107e+00
2.066130e+01	-5.831302e+00
2.078064e+01	-5.868394e+00
2.090066e+01	-5.905248e+00
2.102139e+01	-5.942644e+00
2.114280e+01	-5.979960e+00
2.126492e+01	-6.016962e+00
2.138775e+01	-6.054658e+00
2.151128e+01	-6.092491e+00
2.163553e+01	-6.130208e+00
2.176050e+01	-6.167827e+00
2.188619e+01	-6.206319e+00
2.201260e+01	-6.244303e+00
2.213974e+01	-6.282616e+00
2.226762e+01	-6.320843e+00
2.239624e+01	-6.359090e+00
2.252560e+01	-6.397693e+00
2.265571e+01	-6.436476e+00
2.278656e+01	-6.474880e+00
2.291818e+01	-6.514062e+00
2.305055e+01	-6.552961e+00
2.318369e+01	-6.591566e+00
2.331760e+01	-6.630838e+00
2.345228e+01	-6.669986e+00
2.358774e+01	-6.709101e+00
2.372398e+01	-6.748864e+00
2.386101e+01	-6.788256e+00
2.399883e+01	-6.827713e+00
2.413745e+01	-6.867633e+00
2.427686e+01	-6.907612e+00
2.441709e+01	-6.947150e+00
2.455812e+01	-6.987071e+00
2.469997e+01	-7.026974e+00
2.484263e+01	-7.066877e+00
2.498612e+01	-7.107742e+00
2.513044e+01	-7.148209e+00
2.527559e+01	-7.188204e+00
2.542158e+01	-7.228915e+00
2.556842e+01	-7.269506e+00
2.571610e+01	-7.310066e+00
2.586463e+01	-7.350962e+00
2.601403e+01	-7.391723e+00
2.616428e+01	-7.432664e+00
2.631541e+01	-7.473635e+00
2.646740e+01	-7.514585e+00
2.662028e+01	-7.556333e+00
2.677404e+01	-7.597406e+00
2.692868e+01	-7.638981e+00
2.708422e+01	-7.680054e+00
2.724066e+01	-7.721835e+00
2.739800e+01	-7.763083e+00
2.755625e+01	-7.805080e+00
2.771541e+01	-7.846849e+00
2.787550e+01	-7.888932e+00
2.803650e+01	-7.930107e+00
2.819844e+01	-7.972192e+00
2.836131e+01	-8.014592e+00
2.852513e+01	-8.056839e+00
2.868989e+01	-8.098783e+00
2.885560e+01	-8.141025e+00
2.902227e+01	-8.184273e+00
2.918990e+01	-8.226260e+00
2.935850e+01	-8.268735e+00
2.952807e+01	-8.311439e+00
2.969863e+01	-8.354223e+00
2.987016e+01	-8.396745e+00
3.004269e+01	-8.439318e+00
3.021622e+01	-8.482628e+00
3.039075e+01	-8.525681e+00
3.056628e+01	-8.568794e+00
3.074283e+01	-8.612190e+00
3.092040e+01	-8.654973e+00
3.109900e+01	-8.698283e+00
3.127862e+01	-8.741309e+00
3.145929e+01	-8.785028e+00
3.164099e+01	-8.828026e+00
3.182375e+01	-8.871410e+00
3.200756e+01	-8.915088e+00
3.219244e+01	-8.958927e+00
3.237838e+01	-9.002139e+00
3.256540e+01	-9.046296e+00
3.275349e+01	-9.090351e+00
3.294268e+01	-9.134165e+00
3.313295e+01	-9.177848e+00
3.332433e+01	-9.221877e+00
3.351681e+01	-9.265810e+00
3.371040e+01	-9.310340e+00
3.390511e+01	-9.354303e+00
3.410094e+01	-9.398809e+00
3.429791e+01	-9.443184e+00
3.449601e+01	-9.487670e+00
3.469526e+01	-9.531391e+00
3.489566e+01	-9.576376e+00
3.509721e+01	-9.620532e+00
3.529993e+01	-9.665008e+00
3.550382e+01	-9.709769e+00
3.570889e+01	-9.754595e+00
3.591515e+01	-9.799396e+00
3.612259e+01	-9.844425e+00
3.633123e+01	-9.888630e+00
3.654108e+01	-9.933970e+00
3.675214e+01	-9.979194e+00
3.696442e+01	-1.002445e+01
3.717792e+01	-1.006954e+01
3.739266e+01	-1.011461e+01
3.760864e+01	-1.015936e+01
3.782587e+01	-1.020453e+01
3.804435e+01	-1.024988e+01
3.826409e+01	-1.029557e+01
3.848510e+01	-1.034122e+01
3.870739e+01	-1.038620e+01
3.893096e+01	-1.043132e+01
3.915583e+01	-1.047712e+01
3.938199e+01	-1.052286e+01
3.960946e+01	-1.056891e+01
3.983824e+01	-1.061400e+01
4.006834e+01	-1.066001e+01
4.029978e+01	-1.070509e+01
4.053255e+01	-1.075149e+01
4.076666e+01	-1.079685e+01
4.100213e+01	-1.084263e+01
4.123896e+01	-1.088865e+01
4.147715e+01	-1.093478e+01
4.171672e+01	-1.098136e+01
4.195767e+01	-1.102727e+01
4.220002e+01	-1.107321e+01
4.244377e+01	-1.111942e+01
4.268892e+01	-1.116580e+01
4.293549e+01	-1.121177e+01
4.318348e+01	-1.125756e+01
4.343291e+01	-1.130402e+01
4.368377e+01	-1.134984e+01
4.393609e+01	-1.139755e+01
4.418986e+01	-1.144422e+01
4.444510e+01	-1.148975e+01
4.470182e+01	-1.153623e+01
4.496001e+01	-1.158241e+01
4.521970e+01	-1.162950e+01
4.548089e+01	-1.167624e+01
4.574358e+01	-1.172243e+01
4.600779e+01	-1.176933e+01
4.627353e+01	-1.181680e+01
4.654081e+01	-1.186265e+01
4.680963e+01	-1.190968e+01
4.708000e+01	-1.195637e+01
4.735193e+01	-1.200335e+01
4.762543e+01	-1.204961e+01
4.790051e+01	-1.209659e+01
4.817719e+01	-1.214478e+01
4.845545e+01	-1.219069e+01
4.873533e+01	-1.223824e+01
4.901682e+01	-1.228483e+01
4.929994e+01	-1.233272e+01
4.958470e+01	-1.237913e+01
4.987110e+01	-1.242632e+01
5.015915e+01	-1.247337e+01
5.044887e+01	-1.252108e+01
5.074026e+01	-1.256784e+01
5.103333e+01	-1.261562e+01
5.132810e+01	-1.266278e+01
5.162457e+01	-1.270977e+01
5.192275e+01	-1.275723e+01
5.222265e+01	-1.280450e+01
5.252429e+01	-1.285215e+01
5.282767e+01	-1.289970e+01
5.313280e+01	-1.294714e+01
5.343969e+01	-1.299445e+01
5.374836e+01	-1.304205e+01
5.405880e+01	-1.308971e+01
5.437105e+01	-1.313697e+01
5.468509e+01	-1.318542e+01
5.500095e+01	-1.323269e+01
5.531863e+01	-1.328065e+01
5.563815e+01	-1.332755e+01
5.595951e+01	-1.337538e+01
5.628273e+01	-1.342381e+01
5.660782e+01	-1.347106e+01
5.693479e+01	-1.351884e+01
5.726364e+01	-1.356661e+01
5.759439e+01	-1.361503e+01
5.792705e+01	-1.366219e+01
5.826164e+01	-1.371036e+01
5.859815e+01	-1.375830e+01
5.893662e+01	-1.380617e+01
5.927703e+01	-1.385376e+01
5.961941e+01	-1.390200e+01
5.996377e+01	-1.395018e+01
6.031012e+01	-1.399734e+01
6.065847e+01	-1.404617e+01
6.100883e+01	-1.409306e+01
6.136121e+01	-1.414252e+01
6.171563e+01	-1.419050e+01
6.207210e+01	-1.423881e+01
6.243063e+01	-1.428691e+01
6.279122e+01	-1.433500e+01
6.315390e+01	-1.438276e+01
6.351868e+01	-1.443139e+01
6.388556e+01	-1.447919e+01
6.425456e+01	-1.452785e+01
6.462569e+01	-1.457631e+01
6.499897e+01	-1.462409e+01
6.537440e+01	-1.467293e+01
6.575200e+01	-1.472132e+01
6.613178e+01	-1.476930e+01
6.651375e+01	-1.481781e+01
6.689793e+01	-1.486568e+01
6.728433e+01	-1.491477e+01
6.767297e+01	-1.496290e+01
6.806384e+01	-1.501124e+01
6.845698e+01	-1.505996e+01
6.885238e+01	-1.510875e+01
6.925007e+01	-1.515677e+01
6.965005e+01	-1.520528e+01
7.005235e+01	-1.525410e+01
7.045697e+01	-1.530190e+01
7.086393e+01	-1.535108e+01
7.127323e+01	-1.539956e+01
7.168490e+01	-1.544796e+01
7.209895e+01	-1.549713e+01
7.251539e+01	-1.554544e+01
7.293424e+01	-1.559431e+01
7.335551e+01	-1.564306e+01
7.377920e+01	-1.569177e+01
7.420535e+01	-1.573903e+01
7.463396e+01	-1.578820e+01
7.506504e+01	-1.583821e+01
7.549861e+01	-1.588660e+01
7.593469e+01	-1.593529e+01
7.637328e+01	-1.598273e+01
7.681441e+01	-1.603265e+01
7.725809e+01	-1.608117e+01
7.770433e+01	-1.613043e+01
7.815315e+01	-1.617864e+01
7.860456e+01	-1.622715e+01
7.905857e+01	-1.627549e+01
7.951521e+01	-1.632424e+01
7.997449e+01	-1.637446e+01
8.043642e+01	-1.642303e+01
8.090102e+01	-1.647212e+01
8.136830e+01	-1.652068e+01
8.183828e+01	-1.657055e+01
8.231097e+01	-1.661812e+01
8.278640e+01	-1.666675e+01
8.326457e+01	-1.671798e+01
8.374550e+01	-1.676555e+01
8.422921e+01	-1.681524e+01
8.471572e+01	-1.686369e+01
8.520503e+01	-1.691209e+01
8.569717e+01	-1.696131e+01
8.619215e+01	-1.701098e+01
8.669000e+01	-1.705954e+01
8.719071e+01	-1.710906e+01
8.769432e+01	-1.715830e+01
8.820084e+01	-1.720632e+01
8.871029e+01	-1.725545e+01
8.922267e+01	-1.730531e+01
8.973802e+01	-1.735345e+01
9.025634e+01	-1.740289e+01
9.077766e+01	-1.745210e+01
9.130199e+01	-1.750179e+01
9.182935e+01	-1.755035e+01
9.235975e+01	-1.759868e+01
9.289321e+01	-1.764916e+01
9.342976e+01	-1.769844e+01
9.396941e+01	-1.774791e+01
9.451217e+01	-1.779652e+01
9.505807e+01	-1.784686e+01
9.560712e+01	-1.789606e+01
9.615934e+01	-1.794398e+01
9.671476e+01	-1.799218e+01
9.727338e+01	-1.804250e+01
9.783522e+01	-1.809121e+01
9.840032e+01	-1.814144e+01
9.896867e+01	-1.819065e+01
9.954031e+01	-1.823946e+01
1.001153e+02	-1.828860e+01
1.006935e+02	-1.833825e+01
1.012751e+02	-1.838914e+01
1.018601e+02	-1.843702e+01
1.024484e+02	-1.848754e+01
1.030402e+02	-1.853568e+01
1.036353e+02	-1.858610e+01
1.042339e+02	-1.863552e+01
1.048360e+02	-1.868386e+01
1.054415e+02	-1.873305e+01
1.060505e+02	-1.878338e+01
1.066631e+02	-1.883107e+01
1.072791e+02	-1.888075e+01
1.078988e+02	-1.893086e+01
1.085220e+02	-1.898130e+01
1.091488e+02	-1.902925e+01
1.097793e+02	-1.907907e+01
1.104133e+02	-1.912876e+01
1.110511e+02	-1.917710e+01
1.116925e+02	-1.922723e+01
1.123376e+02	-1.927733e+01
1.129865e+02	-1.932489e+01
1.136391e+02	-1.937523e+01
1.142955e+02	-1.942543e+01
1.149556e+02	-1.947564e+01
1.156196e+02	-1.952356e+01
1.162874e+02	-1.957307e+01
1.169591e+02	-1.962338e+01
1.176347e+02	-1.967329e+01
1.183141e+02	-1.972200e+01
1.189975e+02	-1.977219e+01
1.196848e+02	-1.982061e+01
1.203761e+02	-1.987097e+01
1.210714e+02	-1.992120e+01
1.217707e+02	-1.997074e+01
1.224740e+02	-2.001936e+01
1.231814e+02	-2.006739e+01
1.238929e+02	-2.011743e+01
1.246085e+02	-2.016831e+01
1.253283e+02	-2.021803e+01
1.260522e+02	-2.026772e+01
1.267802e+02	-2.031514e+01
1.275125e+02	-2.036465e+01
1.282490e+02	-2.041581e+01
1.289898e+02	-2.046522e+01
1.297348e+02	-2.051508e+01
1.304842e+02	-2.056323e+01
1.312378e+02	-2.061378e+01
1.319959e+02	-2.066339e+01
1.327583e+02	-2.071224e+01
1.335251e+02	-2.076123e+01
1.342963e+02	-2.081303e+01
1.350720e+02	-2.086059e+01
1.358522e+02	-2.091203e+01
1.366368e+02	-2.096020e+01
1.374260e+02	-2.100920e+01
1.382198e+02	-2.106169e+01
1.390182e+02	-2.110992e+01
1.398211e+02	-2.115931e+01
1.406287e+02	-2.120983e+01
1.414410e+02	-2.125899e+01
1.422579e+02	-2.131113e+01
1.430796e+02	-2.135970e+01
1.439060e+02	-2.140722e+01
1.447372e+02	-2.145836e+01
1.455732e+02	-2.150614e+01
1.464141e+02	-2.155748e+01
1.472597e+02	-2.160669e+01
1.481103e+02	-2.165806e+01
1.489658e+02	-2.170663e+01
1.498262e+02	-2.175423e+01
1.506916e+02	-2.180459e+01
1.515620e+02	-2.185491e+01
1.524374e+02	-2.190518e+01
1.533179e+02	-2.195388e+01
1.542034e+02	-2.200269e+01
1.550941e+02	-2.205657e+01
1.559899e+02	-2.210600e+01
1.568909e+02	-2.215561e+01
1.577971e+02	-2.220615e+01
1.587085e+02	-2.225235e+01
1.596252e+02	-2.230199e+01
1.605472e+02	-2.235103e+01
1.614745e+02	-2.240271e+01
1.624072e+02	-2.245199e+01
1.633453e+02	-2.250248e+01
1.642887e+02	-2.255239e+01
1.652377e+02	-2.260224e+01
1.661921e+02	-2.265235e+01
1.671520e+02	-2.270258e+01
1.681175e+02	-2.275173e+01
1.690885e+02	-2.279891e+01
1.700651e+02	-2.285005e+01
1.710474e+02	-2.290200e+01
1.720354e+02	-2.294867e+01
1.730291e+02	-2.299923e+01
1.740285e+02	-2.304964e+01
1.750337e+02	-2.310013e+01
1.760446e+02	-2.314949e+01
1.770615e+02	-2.320012e+01
1.780842e+02	-2.324966e+01
1.791128e+02	-2.329870e+01
1.801473e+02	-2.335007e+01
1.811878e+02	-2.339691e+01
1.822344e+02	-2.344617e+01
1.832870e+02	-2.349767e+01
1.843456e+02	-2.354772e+01
1.854104e+02	-2.359552e+01
1.864813e+02	-2.364864e+01
1.875584e+02	-2.369831e+01
1.886418e+02	-2.374582e+01
1.897313e+02	-2.379696e+01
1.908272e+02	-2.384679e+01
1.919294e+02	-2.389641e+01
1.930380e+02	-2.394814e+01
1.941530e+02	-2.399791e+01
1.952744e+02	-2.404364e+01
1.964023e+02	-2.409525e+01
1.975367e+02	-2.414595e+01
1.986777e+02	-2.419363e+01
1.998252e+02	-2.424561e+01
2.009794e+02	-2.429707e+01
2.021403e+02	-2.434498e+01
2.033078e+02	-2.439700e+01
2.044821e+02	-2.444486e+01
2.056632e+02	-2.449638e+01
2.068511e+02	-2.454536e+01
2.080459e+02	-2.459387e+01
2.092475e+02	-2.464633e+01
2.104561e+02	-2.469456e+01
2.116717e+02	-2.474772e+01
2.128943e+02	-2.479739e+01
2.141240e+02	-2.484490e+01
2.153608e+02	-2.489402e+01
2.166047e+02	-2.494181e+01
2.178558e+02	-2.499469e+01
2.191141e+02	-2.504475e+01
2.203797e+02	-2.509343e+01
2.216526e+02	-2.514491e+01
2.229329e+02	-2.519487e+01
2.242205e+02	-2.524253e+01
2.255156e+02	-2.529274e+01
2.268182e+02	-2.534779e+01
2.281283e+02	-2.539275e+01
2.294459e+02	-2.544561e+01
2.307712e+02	-2.549151e+01
2.321041e+02	-2.554369e+01
2.334447e+02	-2.559298e+01
2.347931e+02	-2.564345e+01
2.361493e+02	-2.569333e+01
2.375133e+02	-2.574539e+01
2.388851e+02	-2.579275e+01
2.402649e+02	-2.584003e+01
2.416527e+02	-2.589093e+01
2.430484e+02	-2.594268e+01
2.444523e+02	-2.599092e+01
2.458642e+02	-2.604003e+01
2.472843e+02	-2.609036e+01
2.487126e+02	-2.614472e+01
2.501492e+02	-2.619274e+01
2.515940e+02	-2.624495e+01
2.530472e+02	-2.629094e+01
2.545088e+02	-2.634393e+01
2.559789e+02	-2.639050e+01
2.574574e+02	-2.644151e+01
2.589444e+02	-2.649386e+01
2.604401e+02	-2.654056e+01
2.619444e+02	-2.659335e+01
2.634574e+02	-2.664317e+01
2.649791e+02	-2.669361e+01
2.665096e+02	-2.674109e+01
2.680489e+02	-2.678822e+01
2.695972e+02	-2.684424e+01
2.711544e+02	-2.689344e+01
2.727205e+02	-2.694226e+01
2.742958e+02	-2.699287e+01
2.758801e+02	-2.704270e+01
2.774736e+02	-2.709153e+01
2.790762e+02	-2.714170e+01
2.806882e+02	-2.719432e+01
2.823094e+02	-2.724242e+01
2.839400e+02	-2.728678e+01
2.855800e+02	-2.734230e+01
2.872295e+02	-2.739202e+01
2.888886e+02	-2.744311e+01
2.905572e+02	-2.749018e+01
2.922354e+02	-2.754660e+01
2.939234e+02	-2.759125e+01
2.956211e+02	-2.764073e+01
2.973286e+02	-2.769013e+01
2.990459e+02	-2.773943e+01
3.007732e+02	-2.779549e+01
3.025104e+02	-2.784323e+01
3.042577e+02	-2.789512e+01
3.060151e+02	-2.794221e+01
3.077826e+02	-2.799000e+01
3.095604e+02	-2.804116e+01
3.113484e+02	-2.809280e+01
3.131467e+02	-2.814219e+01
3.149554e+02	-2.819206e+01
3.167746e+02	-2.824241e+01
3.186043e+02	-2.829116e+01
3.204445e+02	-2.834379e+01
3.222954e+02	-2.839114e+01
3.241570e+02	-2.844238e+01
3.260293e+02	-2.849521e+01
3.279124e+02	-2.854581e+01
3.298064e+02	-2.859038e+01
3.317114e+02	-2.864365e+01
3.336273e+02	-2.868658e+01
3.355544e+02	-2.874522e+01
3.374925e+02	-2.879938e+01
3.394418e+02	-2.883958e+01
3.414024e+02	-2.889263e+01
3.433744e+02	-2.894564e+01
3.453577e+02	-2.899225e+01
3.473525e+02	-2.904544e+01
3.493588e+02	-2.909263e+01
3.513766e+02	-2.914595e+01
3.534062e+02	-2.919317e+01
3.554474e+02	-2.924347e+01
3.575005e+02	-2.929379e+01
3.595654e+02	-2.934636e+01
3.616422e+02	-2.939104e+01
3.637311e+02	-2.944381e+01
3.658320e+02	-2.949320e+01
3.679450e+02	-2.954627e+01
3.700702e+02	-2.959501e+01
3.722077e+02	-2.964365e+01
3.743576e+02	-2.969251e+01
3.765199e+02	-2.974500e+01
3.786946e+02	-2.979065e+01
3.808820e+02	-2.984202e+01
3.830819e+02	-2.989227e+01
3.852946e+02	-2.994265e+01
3.875200e+02	-2.999154e+01
3.897583e+02	-3.004288e+01
3.920096e+02	-3.009377e+01
3.942738e+02	-3.014216e+01
3.965511e+02	-3.019920e+01
3.988416e+02	-3.024242e+01
4.011452e+02	-3.029806e+01
4.034622e+02	-3.034288e+01
4.057926e+02	-3.039188e+01
4.081365e+02	-3.044602e+01
4.104938e+02	-3.049733e+01
4.128648e+02	-3.054594e+01
4.152495e+02	-3.059624e+01
4.176480e+02	-3.064337e+01
4.200603e+02	-3.069430e+01
4.224866e+02	-3.074684e+01
4.249268e+02	-3.079827e+01
4.273812e+02	-3.084113e+01
4.298497e+02	-3.089515e+01
4.323325e+02	-3.094572e+01
4.348297e+02	-3.099937e+01
4.373412e+02	-3.104473e+01
4.398673e+02	-3.109542e+01
4.424079e+02	-3.114690e+01
4.449633e+02	-3.119712e+01
4.475334e+02	-3.125085e+01
4.501183e+02	-3.129451e+01
4.527182e+02	-3.134668e+01
4.553330e+02	-3.140293e+01
4.579630e+02	-3.145140e+01
4.606082e+02	-3.150265e+01
4.632687e+02	-3.155296e+01
4.659445e+02	-3.160256e+01
4.686358e+02	-3.164811e+01
4.713426e+02	-3.169922e+01
4.740650e+02	-3.174841e+01
4.768032e+02	-3.179703e+01
4.795572e+02	-3.184997e+01
4.823271e+02	-3.189937e+01
4.851130e+02	-3.194705e+01
4.879150e+02	-3.199996e+01
4.907332e+02	-3.204961e+01
4.935676e+02	-3.209991e+01
4.964185e+02	-3.215351e+01
4.992858e+02	-3.219970e+01
5.021696e+02	-3.224786e+01
5.050701e+02	-3.230404e+01
5.079874e+02	-3.235603e+01
5.109215e+02	-3.239813e+01
5.138726e+02	-3.245772e+01
5.168407e+02	-3.250125e+01
5.198259e+02	-3.254717e+01
5.228284e+02	-3.260383e+01
5.258482e+02	-3.266149e+01
5.288855e+02	-3.270100e+01
5.319403e+02	-3.275241e+01
5.350128e+02	-3.280884e+01
5.381030e+02	-3.285552e+01
5.412111e+02	-3.291019e+01
5.443371e+02	-3.295166e+01
5.474812e+02	-3.300531e+01
5.506434e+02	-3.305479e+01
5.538239e+02	-3.310949e+01
5.570228e+02	-3.315155e+01
5.602401e+02	-3.320668e+01
5.634760e+02	-3.325640e+01
5.667306e+02	-3.330976e+01
5.700040e+02	-3.335430e+01
5.732964e+02	-3.341149e+01
5.766077e+02	-3.345369e+01
5.799382e+02	-3.350142e+01
5.832879e+02	-3.356641e+01
5.866569e+02	-3.360366e+01
5.900454e+02	-3.366102e+01
5.934535e+02	-3.371576e+01
5.968813e+02	-3.376335e+01
6.003288e+02	-3.380609e+01
6.037963e+02	-3.385983e+01
6.072838e+02	-3.390865e+01
6.107914e+02	-3.395087e+01
6.143194e+02	-3.401430e+01
6.178676e+02	-3.406883e+01
6.214364e+02	-3.411881e+01
6.250258e+02	-3.416203e+01
6.286359e+02	-3.421878e+01
6.322669e+02	-3.426319e+01
6.359189e+02	-3.431314e+01
6.395919e+02	-3.436123e+01
6.432862e+02	-3.441791e+01
6.470017e+02	-3.446807e+01
6.507388e+02	-3.451490e+01
6.544974e+02	-3.457145e+01
6.582778e+02	-3.461710e+01
6.620800e+02	-3.466596e+01
6.659041e+02	-3.472370e+01
6.697504e+02	-3.476661e+01
6.736188e+02	-3.482772e+01
6.775096e+02	-3.486798e+01
6.814229e+02	-3.492042e+01
6.853587e+02	-3.497028e+01
6.893173e+02	-3.502236e+01
6.932988e+02	-3.506830e+01
6.973033e+02	-3.512765e+01
7.013309e+02	-3.517534e+01
