Frequency(Hz)	Magnitude(dB)
1.000000e+01	-2.213614e+00
1.005776e+01	-2.233953e+00
1.011585e+01	-2.254056e+00
1.017428e+01	-2.274465e+00
1.023305e+01	-2.294967e+00
1.029215e+01	-2.315461e+00
1.035160e+01	-2.336292e+00
1.041139e+01	-2.357127e+00
1.047153e+01	-2.378204e+00
1.053201e+01	-2.399409e+00
1.059284e+01	-2.420695e+00
1.065403e+01	-2.442219e+00
1.071556e+01	-2.463708e+00
1.077746e+01	-2.485302e+00
1.083971e+01	-2.507232e+00
1.090232e+01	-2.529002e+00
1.096529e+01	-2.551302e+00
1.102862e+01	-2.573492e+00
1.109232e+01	-2.596042e+00
1.115639e+01	-2.618537e+00
1.122083e+01	-2.641229e+00
1.128564e+01	-2.664245e+00
1.135083e+01	-2.687008e+00
1.141639e+01	-2.710581e+00
1.148233e+01	-2.733741e+00
1.154865e+01	-2.757045e+00
1.161536e+01	-2.780748e+00
1.168245e+01	-2.804483e+00
1.174992e+01	-2.828181e+00
1.181779e+01	-2.852269e+00
1.188605e+01	-2.876533e+00
1.195470e+01	-2.900698e+00
1.202375e+01	-2.925470e+00
1.209320e+01	-2.949751e+00
1.216305e+01	-2.974504e+00
1.223330e+01	-2.999415e+00
1.230396e+01	-3.024390e+00
1.237503e+01	-3.049736e+00
1.244651e+01	-3.074864e+00
1.251840e+01	-3.100552e+00
1.259070e+01	-3.125865e+00
1.266343e+01	-3.151829e+00
1.273657e+01	-3.177714e+00
1.281014e+01	-3.203660e+00
1.288413e+01	-3.229829e+00
1.295855e+01	-3.256172e+00
1.303339e+01	-3.282523e+00
1.310867e+01	-3.309129e+00
1.318439e+01	-3.336048e+00
1.326054e+01	-3.362753e+00
1.333713e+01	-3.390056e+00
1.341417e+01	-3.417141e+00
1.349165e+01	-3.444323e+00
1.356958e+01	-3.471965e+00
1.364795e+01	-3.499369e+00
1.372678e+01	-3.527148e+00
1.380607e+01	-3.555190e+00
1.388581e+01	-3.583130e+00
1.396602e+01	-3.611306e+00
1.404668e+01	-3.639738e+00
1.412782e+01	-3.667947e+00
1.420942e+01	-3.696520e+00
1.429149e+01	-3.725373e+00
1.437404e+01	-3.754181e+00
1.445706e+01	-3.783347e+00
1.454057e+01	-3.812410e+00
1.462455e+01	-3.841930e+00
1.470902e+01	-3.871166e+00
1.479398e+01	-3.900872e+00
1.487943e+01	-3.930631e+00
1.496537e+01	-3.960246e+00
1.505181e+01	-3.990158e+00
1.513875e+01	-4.020418e+00
1.522619e+01	-4.050766e+00
1.531414e+01	-4.081304e+00
1.540259e+01	-4.111887e+00
1.549156e+01	-4.142438e+00
1.558103e+01	-4.173284e+00
1.567103e+01	-4.204185e+00
1.576155e+01	-4.235276e+00
1.585258e+01	-4.266517e+00
1.594415e+01	-4.297782e+00
1.603624e+01	-4.329507e+00
1.612886e+01	-4.360976e+00
1.622202e+01	-4.392914e+00
1.631572e+01	-4.424445e+00
1.640996e+01	-4.456800e+00
1.650474e+01	-4.488875e+00
1.660008e+01	-4.520969e+00
1.669596e+01	-4.553696e+00
1.679239e+01	-4.586330e+00
1.688938e+01	-4.618874e+00
1.698694e+01	-4.651804e+00
1.708505e+01	-4.684430e+00
1.718373e+01	-4.717974e+00
1.728299e+01	-4.751099e+00
1.738281e+01	-4.784427e+00
1.748322e+01	-4.817803e+00
1.758420e+01	-4.851157e+00
1.768576e+01	-4.885282e+00
1.778792e+01	-4.918642e+00
1.789066e+01	-4.952982e+00
1.799399e+01	-4.986697e+00
1.809793e+01	-5.021177e+00
1.820246e+01	-5.055478e+00
1.830760e+01	-5.089895e+00
1.841334e+01	-5.124727e+00
1.851969e+01	-5.159118e+00
1.862666e+01	-5.193899e+00
1.873425e+01	-5.229004e+00
1.884246e+01	-5.264334e+00
1.895129e+01	-5.299267e+00
1.906075e+01	-5.334826e+00
1.917085e+01	-5.370206e+00
1.928158e+01	-5.405744e+00
1.939295e+01	-5.441508e+00
1.950496e+01	-5.477324e+00
1.961762e+01	-5.513017e+00
1.973093e+01	-5.549118e+00
1.984490e+01	-5.585314e+00
1.995952e+01	-5.621027e+00
2.007480e+01	-5.657643e+00
2.019076e+01	-5.694250e+00
2.030738e+01	-5.730973e+00
2.042467e+01	-5.767766e+00
2.054264e+01	-5.804474e+00
2.066130e+01	-5.841344e+00
2.078064e+01	-5.878278e+00
2.090066e+01	-5.915337e+00
2.102139e+01	-5.952965e+00
2.114280e+01	-5.990447e+00
2.126492e+01	-6.027382e+00
2.138775e+01	-6.065114e+00
2.151128e+01	-6.103062e+00
2.163553e+01	-6.141146e+00
2.176050e+01	-6.178675e+00
2.188619e+01	-6.216790e+00
2.201260e+01	-6.255047e+00
2.213974e+01	-6.293164e+00
2.226762e+01	-6.331511e+00
2.239624e+01	-6.370225e+00
2.252560e+01	-6.408606e+00
2.265571e+01	-6.447395e+00
2.278656e+01	-6.485997e+00
2.291818e+01	-6.524403e+00
2.305055e+01	-6.563797e+00
2.318369e+01	-6.602526e+00
2.331760e+01	-6.641454e+00
2.345228e+01	-6.681076e+00
2.358774e+01	-6.720287e+00
2.372398e+01	-6.759954e+00
2.386101e+01	-6.799403e+00
2.399883e+01	-6.838797e+00
2.413745e+01	-6.878468e+00
2.427686e+01	-6.918231e+00
2.441709e+01	-6.958363e+00
2.455812e+01	-6.998279e+00
2.469997e+01	-7.038202e+00
2.484263e+01	-7.078544e+00
2.498612e+01	-7.118571e+00
2.513044e+01	-7.159342e+00
2.527559e+01	-7.199583e+00
2.542158e+01	-7.240047e+00
2.556842e+01	-7.280778e+00
2.571610e+01	-7.321354e+00
2.586463e+01	-7.362236e+00
2.601403e+01	-7.403682e+00
2.616428e+01	-7.444376e+00
2.631541e+01	-7.485105e+00
2.646740e+01	-7.526189e+00
2.662028e+01	-7.567725e+00
2.677404e+01	-7.608945e+00
2.692868e+01	-7.650300e+00
2.708422e+01	-7.691713e+00
2.724066e+01	-7.733515e+00
2.739800e+01	-7.774928e+00
2.755625e+01	-7.816974e+00
2.771541e+01	-7.858664e+00
2.787550e+01	-7.900184e+00
2.803650e+01	-7.942494e+00
2.819844e+01	-7.984526e+00
2.836131e+01	-8.026722e+00
2.852513e+01	-8.068735e+00
2.868989e+01	-8.111054e+00
2.885560e+01	-8.153096e+00
2.902227e+01	-8.195623e+00
2.918990e+01	-8.237999e+00
2.935850e+01	-8.280952e+00
2.952807e+01	-8.323371e+00
2.969863e+01	-8.365599e+00
2.987016e+01	-8.408704e+00
3.004269e+01	-8.452059e+00
3.021622e+01	-8.494548e+00
3.039075e+01	-8.537248e+00
3.056628e+01	-8.580563e+00
3.074283e+01	-8.623336e+00
3.092040e+01	-8.667056e+00
3.109900e+01	-8.710264e+00
3.127862e+01	-8.753549e+00
3.145929e+01	-8.796538e+00
3.164099e+01	-8.840275e+00
3.182375e+01	-8.883702e+00
3.200756e+01	-8.927377e+00
3.219244e+01	-8.971313e+00
3.237838e+01	-9.014572e+00
3.256540e+01	-9.058879e+00
3.275349e+01	-9.102781e+00
3.294268e+01	-9.146284e+00
3.313295e+01	-9.190283e+00
3.332433e+01	-9.234147e+00
3.351681e+01	-9.278502e+00
3.371040e+01	-9.322626e+00
3.390511e+01	-9.366893e+00
3.410094e+01	-9.411469e+00
3.429791e+01	-9.454755e+00
3.449601e+01	-9.499844e+00
3.469526e+01	-9.544151e+00
3.489566e+01	-9.588818e+00
3.509721e+01	-9.633547e+00
3.529993e+01	-9.678357e+00
3.550382e+01	-9.722938e+00
3.570889e+01	-9.766932e+00
3.591515e+01	-9.812081e+00
3.612259e+01	-9.856899e+00
3.633123e+01	-9.901789e+00
3.654108e+01	-9.946452e+00
3.675214e+01	-9.992355e+00
3.696442e+01	-1.003681e+01
3.717792e+01	-1.008189e+01
3.739266e+01	-1.012689e+01
3.760864e+01	-1.017234e+01
3.782587e+01	-1.021738e+01
3.804435e+01	-1.026246e+01
3.826409e+01	-1.030784e+01
3.848510e+01	-1.035355e+01
3.870739e+01	-1.039823e+01
3.893096e+01	-1.044466e+01
3.915583e+01	-1.048952e+01
3.938199e+01	-1.053515e+01
3.960946e+01	-1.058088e+01
3.983824e+01	-1.062679e+01
4.006834e+01	-1.067186e+01
4.029978e+01	-1.071829e+01
4.053255e+01	-1.076376e+01
4.076666e+01	-1.080936e+01
4.100213e+01	-1.085605e+01
4.123896e+01	-1.090118e+01
4.147715e+01	-1.094799e+01
4.171672e+01	-1.099393e+01
4.195767e+01	-1.103972e+01
4.220002e+01	-1.108558e+01
4.244377e+01	-1.113265e+01
4.268892e+01	-1.117830e+01
4.293549e+01	-1.122415e+01
4.318348e+01	-1.127019e+01
4.343291e+01	-1.131653e+01
4.368377e+01	-1.136389e+01
4.393609e+01	-1.141023e+01
4.418986e+01	-1.145637e+01
4.444510e+01	-1.150246e+01
4.470182e+01	-1.154901e+01
4.496001e+01	-1.159576e+01
4.521970e+01	-1.164245e+01
4.548089e+01	-1.168876e+01
4.574358e+01	-1.173622e+01
4.600779e+01	-1.178242e+01
4.627353e+01	-1.182867e+01
4.654081e+01	-1.187568e+01
4.680963e+01	-1.192310e+01
4.708000e+01	-1.196902e+01
4.735193e+01	-1.201584e+01
4.762543e+01	-1.206331e+01
4.790051e+01	-1.210990e+01
4.817719e+01	-1.215706e+01
4.845545e+01	-1.220389e+01
4.873533e+01	-1.225096e+01
4.901682e+01	-1.229823e+01
4.929994e+01	-1.234543e+01
4.958470e+01	-1.239284e+01
4.987110e+01	-1.244022e+01
5.015915e+01	-1.248632e+01
5.044887e+01	-1.253467e+01
5.074026e+01	-1.258100e+01
5.103333e+01	-1.262857e+01
5.132810e+01	-1.267628e+01
5.162457e+01	-1.272305e+01
5.192275e+01	-1.276997e+01
5.222265e+01	-1.281774e+01
5.252429e+01	-1.286499e+01
5.282767e+01	-1.291251e+01
5.313280e+01	-1.296017e+01
5.343969e+01	-1.300797e+01
5.374836e+01	-1.305435e+01
5.405880e+01	-1.310282e+01
5.437105e+01	-1.315060e+01
5.468509e+01	-1.319829e+01
5.500095e+01	-1.324605e+01
5.531863e+01	-1.329347e+01
5.563815e+01	-1.334128e+01
5.595951e+01	-1.338881e+01
5.628273e+01	-1.343628e+01
5.660782e+01	-1.348488e+01
5.693479e+01	-1.353280e+01
5.726364e+01	-1.358054e+01
5.759439e+01	-1.362854e+01
5.792705e+01	-1.367671e+01
5.826164e+01	-1.372435e+01
5.859815e+01	-1.377170e+01
5.893662e+01	-1.381933e+01
5.927703e+01	-1.386799e+01
5.961941e+01	-1.391547e+01
5.996377e+01	-1.396326e+01
6.031012e+01	-1.401090e+01
6.065847e+01	-1.405863e+01
6.100883e+01	-1.410810e+01
6.136121e+01	-1.415618e+01
6.171563e+01	-1.420339e+01
6.207210e+01	-1.425171e+01
6.243063e+01	-1.430029e+01
6.279122e+01	-1.434824e+01
6.315390e+01	-1.439653e+01
6.351868e+01	-1.444502e+01
6.388556e+01	-1.449280e+01
6.425456e+01	-1.454102e+01
6.462569e+01	-1.458985e+01
6.499897e+01	-1.463745e+01
6.537440e+01	-1.468636e+01
6.575200e+01	-1.473495e+01
6.613178e+01	-1.478341e+01
6.651375e+01	-1.483113e+01
6.689793e+01	-1.487934e+01
6.728433e+01	-1.492781e+01
6.767297e+01	-1.497579e+01
6.806384e+01	-1.502451e+01
6.845698e+01	-1.507387e+01
6.885238e+01	-1.512224e+01
6.925007e+01	-1.517077e+01
6.965005e+01	-1.521956e+01
7.005235e+01	-1.526543e+01
7.045697e+01	-1.531581e+01
7.086393e+01	-1.536487e+01
7.127323e+01	-1.541322e+01
7.168490e+01	-1.546178e+01
7.209895e+01	-1.551072e+01
7.251539e+01	-1.555877e+01
7.293424e+01	-1.560654e+01
7.335551e+01	-1.565527e+01
7.377920e+01	-1.570442e+01
7.420535e+01	-1.575373e+01
7.463396e+01	-1.580241e+01
7.506504e+01	-1.585088e+01
7.549861e+01	-1.589995e+01
7.593469e+01	-1.594795e+01
7.637328e+01	-1.599633e+01
7.681441e+01	-1.604571e+01
7.725809e+01	-1.609490e+01
7.770433e+01	-1.614406e+01
7.815315e+01	-1.619226e+01
7.860456e+01	-1.624144e+01
7.905857e+01	-1.629095e+01
7.951521e+01	-1.633979e+01
7.997449e+01	-1.638723e+01
8.043642e+01	-1.643797e+01
8.090102e+01	-1.648594e+01
8.136830e+01	-1.653364e+01
8.183828e+01	-1.658499e+01
8.231097e+01	-1.663131e+01
8.278640e+01	-1.668035e+01
8.326457e+01	-1.672968e+01
8.374550e+01	-1.677963e+01
8.422921e+01	-1.682841e+01
8.471572e+01	-1.687809e+01
8.520503e+01	-1.692530e+01
8.569717e+01	-1.697549e+01
8.619215e+01	-1.702480e+01
8.669000e+01	-1.707296e+01
8.719071e+01	-1.712190e+01
8.769432e+01	-1.717261e+01
8.820084e+01	-1.722109e+01
8.871029e+01	-1.726949e+01
8.922267e+01	-1.731900e+01
8.973802e+01	-1.736734e+01
9.025634e+01	-1.741703e+01
9.077766e+01	-1.746651e+01
9.130199e+01	-1.751537e+01
9.182935e+01	-1.756356e+01
9.235975e+01	-1.761400e+01
9.289321e+01	-1.766306e+01
9.342976e+01	-1.771189e+01
9.396941e+01	-1.776155e+01
9.451217e+01	-1.781041e+01
9.505807e+01	-1.785996e+01
9.560712e+01	-1.790911e+01
9.615934e+01	-1.795873e+01
9.671476e+01	-1.800781e+01
9.727338e+01	-1.805638e+01
9.783522e+01	-1.810715e+01
9.840032e+01	-1.815513e+01
9.896867e+01	-1.820521e+01
9.954031e+01	-1.825364e+01
1.001153e+02	-1.830176e+01
1.006935e+02	-1.835237e+01
1.012751e+02	-1.840050e+01
1.018601e+02	-1.845098e+01
1.024484e+02	-1.850046e+01
1.030402e+02	-1.854949e+01
1.036353e+02	-1.859889e+01
1.042339e+02	-1.864857e+01
1.048360e+02	-1.869808e+01
1.054415e+02	-1.874682e+01
1.060505e+02	-1.879490e+01
1.066631e+02	-1.884547e+01
1.072791e+02	-1.889435e+01
1.078988e+02	-1.894461e+01
1.085220e+02	-1.899370e+01
1.091488e+02	-1.904308e+01
1.097793e+02	-1.909395e+01
1.104133e+02	-1.914121e+01
1.110511e+02	-1.919218e+01
1.116925e+02	-1.924103e+01
1.123376e+02	-1.929082e+01
1.129865e+02	-1.933991e+01
1.136391e+02	-1.938846e+01
1.142955e+02	-1.943852e+01
1.149556e+02	-1.948778e+01
1.156196e+02	-1.953748e+01
1.162874e+02	-1.958602e+01
1.169591e+02	-1.963596e+01
1.176347e+02	-1.968552e+01
1.183141e+02	-1.973501e+01
1.189975e+02	-1.978452e+01
1.196848e+02	-1.983511e+01
1.203761e+02	-1.988399e+01
1.210714e+02	-1.993306e+01
1.217707e+02	-1.998440e+01
1.224740e+02	-2.003344e+01
1.231814e+02	-2.008088e+01
1.238929e+02	-2.013242e+01
1.246085e+02	-2.018267e+01
1.253283e+02	-2.023029e+01
1.260522e+02	-2.028062e+01
1.267802e+02	-2.033159e+01
1.275125e+02	-2.037974e+01
1.282490e+02	-2.043085e+01
1.289898e+02	-2.047956e+01
1.297348e+02	-2.052924e+01
1.304842e+02	-2.057785e+01
1.312378e+02	-2.062773e+01
1.319959e+02	-2.067779e+01
1.327583e+02	-2.072687e+01
1.335251e+02	-2.077541e+01
1.342963e+02	-2.082492e+01
1.350720e+02	-2.087551e+01
1.358522e+02	-2.092663e+01
1.366368e+02	-2.097481e+01
1.374260e+02	-2.102600e+01
1.382198e+02	-2.107381e+01
1.390182e+02	-2.112195e+01
1.398211e+02	-2.117239e+01
1.406287e+02	-2.122421e+01
1.414410e+02	-2.127356e+01
1.422579e+02	-2.132181e+01
1.430796e+02	-2.137180e+01
1.439060e+02	-2.142379e+01
1.447372e+02	-2.147190e+01
1.455732e+02	-2.152004e+01
1.464141e+02	-2.157023e+01
1.472597e+02	-2.162047e+01
1.481103e+02	-2.166981e+01
1.489658e+02	-2.171795e+01
1.498262e+02	-2.177029e+01
1.506916e+02	-2.181887e+01
1.515620e+02	-2.187007e+01
1.524374e+02	-2.191885e+01
1.533179e+02	-2.196783e+01
1.542034e+02	-2.201945e+01
1.550941e+02	-2.206832e+01
1.559899e+02	-2.211691e+01
1.568909e+02	-2.216799e+01
1.577971e+02	-2.221710e+01
1.587085e+02	-2.226881e+01
1.596252e+02	-2.231566e+01
1.605472e+02	-2.236578e+01
1.614745e+02	-2.241852e+01
1.624072e+02	-2.246850e+01
1.633453e+02	-2.251462e+01
1.642887e+02	-2.256585e+01
1.652377e+02	-2.261530e+01
1.661921e+02	-2.266686e+01
1.671520e+02	-2.271571e+01
1.681175e+02	-2.276710e+01
1.690885e+02	-2.281362e+01
1.700651e+02	-2.286462e+01
1.710474e+02	-2.291105e+01
1.720354e+02	-2.296368e+01
1.730291e+02	-2.301321e+01
1.740285e+02	-2.306462e+01
1.750337e+02	-2.311624e+01
1.760446e+02	-2.316402e+01
1.770615e+02	-2.321444e+01
1.780842e+02	-2.326468e+01
1.791128e+02	-2.331453e+01
1.801473e+02	-2.336366e+01
1.811878e+02	-2.341135e+01
1.822344e+02	-2.346162e+01
1.832870e+02	-2.351125e+01
1.843456e+02	-2.356144e+01
1.854104e+02	-2.361379e+01
1.864813e+02	-2.366251e+01
1.875584e+02	-2.371128e+01
1.886418e+02	-2.376362e+01
1.897313e+02	-2.381153e+01
1.908272e+02	-2.385913e+01
1.919294e+02	-2.390811e+01
1.930380e+02	-2.396028e+01
1.941530e+02	-2.400922e+01
1.952744e+02	-2.406054e+01
1.964023e+02	-2.411101e+01
1.975367e+02	-2.415989e+01
1.986777e+02	-2.420873e+01
1.998252e+02	-2.425908e+01
2.009794e+02	-2.430773e+01
2.021403e+02	-2.435688e+01
2.033078e+02	-2.440879e+01
2.044821e+02	-2.445976e+01
2.056632e+02	-2.450737e+01
2.068511e+02	-2.456015e+01
2.080459e+02	-2.460621e+01
2.092475e+02	-2.465959e+01
2.104561e+02	-2.470711e+01
2.116717e+02	-2.475830e+01
2.128943e+02	-2.481010e+01
2.141240e+02	-2.485754e+01
2.153608e+02	-2.490672e+01
2.166047e+02	-2.495778e+01
2.178558e+02	-2.501102e+01
2.191141e+02	-2.506147e+01
2.203797e+02	-2.510498e+01
2.216526e+02	-2.515949e+01
2.229329e+02	-2.520595e+01
2.242205e+02	-2.525842e+01
2.255156e+02	-2.530642e+01
2.268182e+02	-2.535508e+01
2.281283e+02	-2.540773e+01
2.294459e+02	-2.545549e+01
2.307712e+02	-2.550989e+01
2.321041e+02	-2.555840e+01
2.334447e+02	-2.560954e+01
2.347931e+02	-2.565554e+01
2.361493e+02	-2.570527e+01
2.375133e+02	-2.575936e+01
2.388851e+02	-2.580663e+01
2.402649e+02	-2.585661e+01
2.416527e+02	-2.590404e+01
2.430484e+02	-2.595587e+01
2.444523e+02	-2.600548e+01
2.458642e+02	-2.605724e+01
2.472843e+02	-2.610502e+01
2.487126e+02	-2.615441e+01
2.501492e+02	-2.620598e+01
2.515940e+02	-2.625567e+01
2.530472e+02	-2.630742e+01
2.545088e+02	-2.635681e+01
2.559789e+02	-2.640485e+01
2.574574e+02	-2.645247e+01
2.589444e+02	-2.650513e+01
2.604401e+02	-2.655892e+01
2.619444e+02	-2.661114e+01
2.634574e+02	-2.665796e+01
2.649791e+02	-2.670345e+01
2.665096e+02	-2.675536e+01
2.680489e+02	-2.680736e+01
2.695972e+02	-2.685447e+01
2.711544e+02	-2.690878e+01
2.727205e+02	-2.695634e+01
2.742958e+02	-2.700803e+01
2.758801e+02	-2.705622e+01
2.774736e+02	-2.710454e+01
2.790762e+02	-2.715750e+01
2.806882e+02	-2.720607e+01
2.823094e+02	-2.725584e+01
2.839400e+02	-2.730618e+01
2.855800e+02	-2.735806e+01
2.872295e+02	-2.740491e+01
2.888886e+02	-2.745148e+01
2.905572e+02	-2.750575e+01
2.922354e+02	-2.755948e+01
2.939234e+02	-2.760511e+01
2.956211e+02	-2.765727e+01
2.973286e+02	-2.770490e+01
2.990459e+02	-2.775708e+01
3.007732e+02	-2.780692e+01
3.025104e+02	-2.785947e+01
3.042577e+02	-2.790511e+01
3.060151e+02	-2.795864e+01
3.077826e+02	-2.800485e+01
3.095604e+02	-2.806016e+01
3.113484e+02	-2.810890e+01
3.131467e+02	-2.815750e+01
3.149554e+02	-2.820532e+01
3.167746e+02	-2.825780e+01
3.186043e+02	-2.830481e+01
3.204445e+02	-2.835530e+01
3.222954e+02	-2.840875e+01
3.241570e+02	-2.845865e+01
3.260293e+02	-2.850833e+01
3.279124e+02	-2.855766e+01
3.298064e+02	-2.860399e+01
3.317114e+02	-2.865755e+01
3.336273e+02	-2.870916e+01
3.355544e+02	-2.875863e+01
3.374925e+02	-2.880470e+01
3.394418e+02	-2.885734e+01
3.414024e+02	-2.890938e+01
3.433744e+02	-2.895914e+01
3.453577e+02	-2.900649e+01
3.473525e+02	-2.906202e+01
3.493588e+02	-2.911052e+01
3.513766e+02	-2.915724e+01
3.534062e+02	-2.920795e+01
3.554474e+02	-2.925692e+01
3.575005e+02	-2.930834e+01
3.595654e+02	-2.935800e+01
3.616422e+02	-2.940865e+01
3.637311e+02	-2.945332e+01
3.658320e+02	-2.950952e+01
3.679450e+02	-2.956202e+01
3.700702e+02	-2.960427e+01
3.722077e+02	-2.965874e+01
3.743576e+02	-2.971306e+01
3.765199e+02	-2.975831e+01
3.786946e+02	-2.980660e+01
3.808820e+02	-2.985773e+01
3.830819e+02	-2.991056e+01
3.852946e+02	-2.995713e+01
3.875200e+02	-3.000613e+01
3.897583e+02	-3.006719e+01
3.920096e+02	-3.010823e+01
3.942738e+02	-3.015958e+01
3.965511e+02	-3.020938e+01
3.988416e+02	-3.025636e+01
4.011452e+02	-3.030970e+01
4.034622e+02	-3.036155e+01
4.057926e+02	-3.040729e+01
4.081365e+02	-3.046407e+01
4.104938e+02	-3.050957e+01
4.128648e+02	-3.055216e+01
4.152495e+02	-3.060999e+01
4.176480e+02	-3.066509e+01
4.200603e+02	-3.071446e+01
4.224866e+02	-3.075900e+01
4.249268e+02	-3.081409e+01
4.273812e+02	-3.085893e+01
4.298497e+02	-3.091248e+01
4.323325e+02	-3.095954e+01
4.348297e+02	-3.100764e+01
4.373412e+02	-3.106219e+01
4.398673e+02	-3.111131e+01
4.424079e+02	-3.116721e+01
4.449633e+02	-3.121338e+01
4.475334e+02	-3.126207e+01
4.501183e+02	-3.131201e+01
4.527182e+02	-3.136393e+01
4.553330e+02	-3.141105e+01
4.579630e+02	-3.146326e+01
4.606082e+02	-3.151365e+01
4.632687e+02	-3.156272e+01
4.659445e+02	-3.161918e+01
4.686358e+02	-3.166773e+01
4.713426e+02	-3.171020e+01
4.740650e+02	-3.176592e+01
4.768032e+02	-3.181670e+01
4.795572e+02	-3.186344e+01
4.823271e+02	-3.190575e+01
4.851130e+02	-3.196426e+01
4.879150e+02	-3.201033e+01
4.907332e+02	-3.206220e+01
4.935676e+02	-3.211517e+01
4.964185e+02	-3.216462e+01
4.992858e+02	-3.221896e+01
5.021696e+02	-3.226359e+01
5.050701e+02	-3.231546e+01
5.079874e+02	-3.236622e+01
5.109215e+02	-3.242066e+01
5.138726e+02	-3.246245e+01
5.168407e+02	-3.251613e+01
5.198259e+02	-3.256626e+01
5.228284e+02	-3.261699e+01
5.258482e+02	-3.267223e+01
5.288855e+02	-3.271755e+01
5.319403e+02	-3.276669e+01
5.350128e+02	-3.281933e+01
5.381030e+02	-3.286875e+01
5.412111e+02	-3.291688e+01
5.443371e+02	-3.296375e+01
5.474812e+02	-3.301739e+01
5.506434e+02	-3.306366e+01
5.538239e+02	-3.311745e+01
5.570228e+02	-3.316621e+01
5.602401e+02	-3.321983e+01
5.634760e+02	-3.327714e+01
5.667306e+02	-3.332736e+01
5.700040e+02	-3.337252e+01
5.732964e+02	-3.341832e+01
5.766077e+02	-3.347321e+01
5.799382e+02	-3.352475e+01
5.832879e+02	-3.357246e+01
5.866569e+02	-3.362790e+01
5.900454e+02	-3.367599e+01
5.934535e+02	-3.372377e+01
5.968813e+02	-3.378053e+01
6.003288e+02	-3.382276e+01
6.037963e+02	-3.387697e+01
6.072838e+02	-3.393075e+01
6.107914e+02	-3.397964e+01
6.143194e+02	-3.402580e+01
6.178676e+02	-3.407151e+01
6.214364e+02	-3.411769e+01
6.250258e+02	-3.417207e+01
6.286359e+02	-3.423360e+01
6.322669e+02	-3.427694e+01
6.359189e+02	-3.432433e+01
6.395919e+02	-3.438170e+01
6.432862e+02	-3.442707e+01
6.470017e+02	-3.448028e+01
6.507388e+02	-3.453067e+01
6.544974e+02	-3.457252e+01
6.582778e+02	-3.462707e+01
6.620800e+02	-3.467979e+01
6.659041e+02	-3.473146e+01
6.697504e+02	-3.478253e+01
6.736188e+02	-3.482755e+01
6.775096e+02	-3.488344e+01
6.814229e+02	-3.493232e+01
6.853587e+02	-3.498365e+01
6.893173e+02	-3.502550e+01
6.932988e+02	-3.508477e+01
6.973033e+02	-3.514035e+01
7.013309e+02	-3.518837e+01
