Frequency(Hz)	Magnitude(dB)
1.000000e+01	-2.238668e+00
1.005776e+01	-2.258935e+00
1.011585e+01	-2.279478e+00
1.017428e+01	-2.299920e+00
1.023305e+01	-2.320594e+00
1.029215e+01	-2.341312e+00
1.035160e+01	-2.362192e+00
1.041139e+01	-2.383276e+00
1.047153e+01	-2.404351e+00
1.053201e+01	-2.425905e+00
1.059284e+01	-2.447433e+00
1.065403e+01	-2.468885e+00
1.071556e+01	-2.490601e+00
1.077746e+01	-2.512587e+00
1.083971e+01	-2.534636e+00
1.090232e+01	-2.556949e+00
1.096529e+01	-2.579123e+00
1.102862e+01	-2.601541e+00
1.109232e+01	-2.624300e+00
1.115639e+01	-2.647027e+00
1.122083e+01	-2.669973e+00
1.128564e+01	-2.692946e+00
1.135083e+01	-2.716134e+00
1.141639e+01	-2.739276e+00
1.148233e+01	-2.763022e+00
1.154865e+01	-2.786506e+00
1.161536e+01	-2.810237e+00
1.168245e+01	-2.834445e+00
1.174992e+01	-2.858290e+00
1.181779e+01	-2.882250e+00
1.188605e+01	-2.906891e+00
1.195470e+01	-2.931243e+00
1.202375e+01	-2.955895e+00
1.209320e+01	-2.980611e+00
1.216305e+01	-3.005472e+00
1.223330e+01	-3.030634e+00
1.230396e+01	-3.055818e+00
1.237503e+01	-3.081258e+00
1.244651e+01	-3.106545e+00
1.251840e+01	-3.132417e+00
1.259070e+01	-3.158122e+00
1.266343e+01	-3.184320e+00
1.273657e+01	-3.210119e+00
1.281014e+01	-3.236442e+00
1.288413e+01	-3.262744e+00
1.295855e+01	-3.289173e+00
1.303339e+01	-3.315953e+00
1.310867e+01	-3.342449e+00
1.318439e+01	-3.369268e+00
1.326054e+01	-3.396695e+00
1.333713e+01	-3.423705e+00
1.341417e+01	-3.451143e+00
1.349165e+01	-3.478712e+00
1.356958e+01	-3.506149e+00
1.364795e+01	-3.534260e+00
1.372678e+01	-3.561972e+00
1.380607e+01	-3.589859e+00
1.388581e+01	-3.618433e+00
1.396602e+01	-3.646527e+00
1.404668e+01	-3.675194e+00
1.412782e+01	-3.703890e+00
1.420942e+01	-3.732370e+00
1.429149e+01	-3.761402e+00
1.437404e+01	-3.790441e+00
1.445706e+01	-3.819766e+00
1.454057e+01	-3.848994e+00
1.462455e+01	-3.878598e+00
1.470902e+01	-3.907963e+00
1.479398e+01	-3.937818e+00
1.487943e+01	-3.967873e+00
1.496537e+01	-3.998123e+00
1.505181e+01	-4.028203e+00
1.513875e+01	-4.058252e+00
1.522619e+01	-4.088581e+00
1.531414e+01	-4.119225e+00
1.540259e+01	-4.149738e+00
1.549156e+01	-4.180652e+00
1.558103e+01	-4.211568e+00
1.567103e+01	-4.243137e+00
1.576155e+01	-4.274136e+00
1.585258e+01	-4.305518e+00
1.594415e+01	-4.337178e+00
1.603624e+01	-4.368903e+00
1.612886e+01	-4.400725e+00
1.622202e+01	-4.432663e+00
1.631572e+01	-4.464425e+00
1.640996e+01	-4.496757e+00
1.650474e+01	-4.529059e+00
1.660008e+01	-4.561524e+00
1.669596e+01	-4.594257e+00
1.679239e+01	-4.626918e+00
1.688938e+01	-4.660006e+00
1.698694e+01	-4.693003e+00
1.708505e+01	-4.725923e+00
1.718373e+01	-4.759158e+00
1.728299e+01	-4.792598e+00
1.738281e+01	-4.825749e+00
1.748322e+01	-4.859613e+00
1.758420e+01	-4.893468e+00
1.768576e+01	-4.926980e+00
1.778792e+01	-4.961092e+00
1.789066e+01	-4.995672e+00
1.799399e+01	-5.029386e+00
1.809793e+01	-5.063851e+00
1.820246e+01	-5.098447e+00
1.830760e+01	-5.133218e+00
1.841334e+01	-5.167689e+00
1.851969e+01	-5.202525e+00
1.862666e+01	-5.237935e+00
1.873425e+01	-5.272987e+00
1.884246e+01	-5.307829e+00
1.895129e+01	-5.343199e+00
1.906075e+01	-5.378653e+00
1.917085e+01	-5.414311e+00
1.928158e+01	-5.449933e+00
1.939295e+01	-5.485771e+00
1.950496e+01	-5.521966e+00
1.961762e+01	-5.557925e+00
1.973093e+01	-5.594130e+00
1.984490e+01	-5.630321e+00
1.995952e+01	-5.666924e+00
2.007480e+01	-5.703396e+00
2.019076e+01	-5.739780e+00
2.030738e+01	-5.776620e+00
2.042467e+01	-5.813427e+00
2.054264e+01	-5.850604e+00
2.066130e+01	-5.887475e+00
2.078064e+01	-5.924873e+00
2.090066e+01	-5.962057e+00
2.102139e+01	-6.000121e+00
2.114280e+01	-6.036809e+00
2.126492e+01	-6.074192e+00
2.138775e+01	-6.112300e+00
2.151128e+01	-6.149946e+00
2.163553e+01	-6.188347e+00
2.176050e+01	-6.226113e+00
2.188619e+01	-6.264638e+00
2.201260e+01	-6.302168e+00
2.213974e+01	-6.340848e+00
2.226762e+01	-6.379283e+00
2.239624e+01	-6.417904e+00
2.252560e+01	-6.456497e+00
2.265571e+01	-6.495324e+00
2.278656e+01	-6.534114e+00
2.291818e+01	-6.573598e+00
2.305055e+01	-6.612259e+00
2.318369e+01	-6.651427e+00
2.331760e+01	-6.690456e+00
2.345228e+01	-6.729608e+00
2.358774e+01	-6.769620e+00
2.372398e+01	-6.808812e+00
2.386101e+01	-6.848402e+00
2.399883e+01	-6.888187e+00
2.413745e+01	-6.928209e+00
2.427686e+01	-6.967973e+00
2.441709e+01	-7.008000e+00
2.455812e+01	-7.048244e+00
2.469997e+01	-7.088749e+00
2.484263e+01	-7.128705e+00
2.498612e+01	-7.168685e+00
2.513044e+01	-7.210010e+00
2.527559e+01	-7.250413e+00
2.542158e+01	-7.290624e+00
2.556842e+01	-7.331706e+00
2.571610e+01	-7.372614e+00
2.586463e+01	-7.412912e+00
2.601403e+01	-7.454428e+00
2.616428e+01	-7.495468e+00
2.631541e+01	-7.536283e+00
2.646740e+01	-7.577919e+00
2.662028e+01	-7.619030e+00
2.677404e+01	-7.660391e+00
2.692868e+01	-7.702069e+00
2.708422e+01	-7.743681e+00
2.724066e+01	-7.785067e+00
2.739800e+01	-7.826760e+00
2.755625e+01	-7.868655e+00
2.771541e+01	-7.910582e+00
2.787550e+01	-7.952727e+00
2.803650e+01	-7.994574e+00
2.819844e+01	-8.037112e+00
2.836131e+01	-8.078976e+00
2.852513e+01	-8.121779e+00
2.868989e+01	-8.163401e+00
2.885560e+01	-8.205953e+00
2.902227e+01	-8.248648e+00
2.918990e+01	-8.291256e+00
2.935850e+01	-8.333894e+00
2.952807e+01	-8.376806e+00
2.969863e+01	-8.419203e+00
2.987016e+01	-8.462153e+00
3.004269e+01	-8.504927e+00
3.021622e+01	-8.547666e+00
3.039075e+01	-8.591340e+00
3.056628e+01	-8.634124e+00
3.074283e+01	-8.677560e+00
3.092040e+01	-8.720883e+00
3.109900e+01	-8.764138e+00
3.127862e+01	-8.807186e+00
3.145929e+01	-8.851234e+00
3.164099e+01	-8.894798e+00
3.182375e+01	-8.938172e+00
3.200756e+01	-8.981953e+00
3.219244e+01	-9.025451e+00
3.237838e+01	-9.069490e+00
3.256540e+01	-9.113133e+00
3.275349e+01	-9.157145e+00
3.294268e+01	-9.200825e+00
3.313295e+01	-9.245174e+00
3.332433e+01	-9.289245e+00
3.351681e+01	-9.333678e+00
3.371040e+01	-9.377374e+00
3.390511e+01	-9.421953e+00
3.410094e+01	-9.466014e+00
3.429791e+01	-9.510798e+00
3.449601e+01	-9.555481e+00
3.469526e+01	-9.599183e+00
3.489566e+01	-9.643755e+00
3.509721e+01	-9.688683e+00
3.529993e+01	-9.733299e+00
3.550382e+01	-9.778363e+00
3.570889e+01	-9.822849e+00
3.591515e+01	-9.867489e+00
3.612259e+01	-9.912621e+00
3.633123e+01	-9.957385e+00
3.654108e+01	-1.000292e+01
3.675214e+01	-1.004793e+01
3.696442e+01	-1.009289e+01
3.717792e+01	-1.013798e+01
3.739266e+01	-1.018297e+01
3.760864e+01	-1.022822e+01
3.782587e+01	-1.027394e+01
3.804435e+01	-1.031950e+01
3.826409e+01	-1.036462e+01
3.848510e+01	-1.041001e+01
3.870739e+01	-1.045569e+01
3.893096e+01	-1.050122e+01
3.915583e+01	-1.054730e+01
3.938199e+01	-1.059260e+01
3.960946e+01	-1.063801e+01
3.983824e+01	-1.068350e+01
4.006834e+01	-1.072969e+01
4.029978e+01	-1.077543e+01
4.053255e+01	-1.082095e+01
4.076666e+01	-1.086778e+01
4.100213e+01	-1.091298e+01
4.123896e+01	-1.095834e+01
4.147715e+01	-1.100501e+01
4.171672e+01	-1.105110e+01
4.195767e+01	-1.109753e+01
4.220002e+01	-1.114324e+01
4.244377e+01	-1.118967e+01
4.268892e+01	-1.123508e+01
4.293549e+01	-1.128284e+01
4.318348e+01	-1.132838e+01
4.343291e+01	-1.137499e+01
4.368377e+01	-1.142060e+01
4.393609e+01	-1.146701e+01
4.418986e+01	-1.151401e+01
4.444510e+01	-1.156040e+01
4.470182e+01	-1.160716e+01
4.496001e+01	-1.165375e+01
4.521970e+01	-1.170058e+01
4.548089e+01	-1.174676e+01
4.574358e+01	-1.179362e+01
4.600779e+01	-1.184031e+01
4.627353e+01	-1.188740e+01
4.654081e+01	-1.193388e+01
4.680963e+01	-1.198117e+01
4.708000e+01	-1.202829e+01
4.735193e+01	-1.207475e+01
4.762543e+01	-1.212180e+01
4.790051e+01	-1.216913e+01
4.817719e+01	-1.221545e+01
4.845545e+01	-1.226272e+01
4.873533e+01	-1.230908e+01
4.901682e+01	-1.235623e+01
4.929994e+01	-1.240458e+01
4.958470e+01	-1.245134e+01
4.987110e+01	-1.249830e+01
5.015915e+01	-1.254542e+01
5.044887e+01	-1.259270e+01
5.074026e+01	-1.263992e+01
5.103333e+01	-1.268647e+01
5.132810e+01	-1.273451e+01
5.162457e+01	-1.278195e+01
5.192275e+01	-1.282937e+01
5.222265e+01	-1.287672e+01
5.252429e+01	-1.292495e+01
5.282767e+01	-1.297229e+01
5.313280e+01	-1.302019e+01
5.343969e+01	-1.306719e+01
5.374836e+01	-1.311497e+01
5.405880e+01	-1.316239e+01
5.437105e+01	-1.321031e+01
5.468509e+01	-1.325702e+01
5.500095e+01	-1.330475e+01
5.531863e+01	-1.335226e+01
5.563815e+01	-1.340090e+01
5.595951e+01	-1.344852e+01
5.628273e+01	-1.349658e+01
5.660782e+01	-1.354387e+01
5.693479e+01	-1.359201e+01
5.726364e+01	-1.363978e+01
5.759439e+01	-1.368683e+01
5.792705e+01	-1.373491e+01
5.826164e+01	-1.378346e+01
5.859815e+01	-1.383101e+01
5.893662e+01	-1.387887e+01
5.927703e+01	-1.392762e+01
5.961941e+01	-1.397529e+01
5.996377e+01	-1.402356e+01
6.031012e+01	-1.407127e+01
6.065847e+01	-1.411858e+01
6.100883e+01	-1.416787e+01
6.136121e+01	-1.421543e+01
6.171563e+01	-1.426403e+01
6.207210e+01	-1.431185e+01
6.243063e+01	-1.436121e+01
6.279122e+01	-1.440820e+01
6.315390e+01	-1.445618e+01
6.351868e+01	-1.450402e+01
6.388556e+01	-1.455291e+01
6.425456e+01	-1.460122e+01
6.462569e+01	-1.465040e+01
6.499897e+01	-1.469792e+01
6.537440e+01	-1.474574e+01
6.575200e+01	-1.479490e+01
6.613178e+01	-1.484341e+01
6.651375e+01	-1.489127e+01
6.689793e+01	-1.494037e+01
6.728433e+01	-1.498880e+01
6.767297e+01	-1.503773e+01
6.806384e+01	-1.508496e+01
6.845698e+01	-1.513329e+01
6.885238e+01	-1.518228e+01
6.925007e+01	-1.523030e+01
6.965005e+01	-1.527954e+01
7.005235e+01	-1.532695e+01
7.045697e+01	-1.537535e+01
7.086393e+01	-1.542431e+01
7.127323e+01	-1.547338e+01
7.168490e+01	-1.552278e+01
7.209895e+01	-1.557027e+01
7.251539e+01	-1.561922e+01
7.293424e+01	-1.566831e+01
7.335551e+01	-1.571730e+01
7.377920e+01	-1.576568e+01
7.420535e+01	-1.581435e+01
7.463396e+01	-1.586233e+01
7.506504e+01	-1.591194e+01
7.549861e+01	-1.595977e+01
7.593469e+01	-1.600952e+01
7.637328e+01	-1.605870e+01
7.681441e+01	-1.610699e+01
7.725809e+01	-1.615616e+01
7.770433e+01	-1.620459e+01
7.815315e+01	-1.625339e+01
7.860456e+01	-1.630209e+01
7.905857e+01	-1.635094e+01
7.951521e+01	-1.639994e+01
7.997449e+01	-1.644898e+01
8.043642e+01	-1.649782e+01
8.090102e+01	-1.654675e+01
8.136830e+01	-1.659560e+01
8.183828e+01	-1.664423e+01
8.231097e+01	-1.669288e+01
8.278640e+01	-1.674296e+01
8.326457e+01	-1.679150e+01
8.374550e+01	-1.683969e+01
8.422921e+01	-1.688948e+01
8.471572e+01	-1.693789e+01
8.520503e+01	-1.698775e+01
8.569717e+01	-1.703738e+01
8.619215e+01	-1.708647e+01
8.669000e+01	-1.713423e+01
8.719071e+01	-1.718400e+01
8.769432e+01	-1.723254e+01
8.820084e+01	-1.728234e+01
8.871029e+01	-1.733021e+01
8.922267e+01	-1.738041e+01
8.973802e+01	-1.742947e+01
9.025634e+01	-1.747793e+01
9.077766e+01	-1.752715e+01
9.130199e+01	-1.757708e+01
9.182935e+01	-1.762496e+01
9.235975e+01	-1.767503e+01
9.289321e+01	-1.772396e+01
9.342976e+01	-1.777243e+01
9.396941e+01	-1.782226e+01
9.451217e+01	-1.787019e+01
9.505807e+01	-1.792008e+01
9.560712e+01	-1.796902e+01
9.615934e+01	-1.801820e+01
9.671476e+01	-1.806857e+01
9.727338e+01	-1.811743e+01
9.783522e+01	-1.816670e+01
9.840032e+01	-1.821676e+01
9.896867e+01	-1.826510e+01
9.954031e+01	-1.831459e+01
1.001153e+02	-1.836364e+01
1.006935e+02	-1.841325e+01
1.012751e+02	-1.846297e+01
1.018601e+02	-1.851160e+01
1.024484e+02	-1.856065e+01
1.030402e+02	-1.861136e+01
1.036353e+02	-1.865994e+01
1.042339e+02	-1.870884e+01
1.048360e+02	-1.875834e+01
1.054415e+02	-1.880833e+01
1.060505e+02	-1.885689e+01
1.066631e+02	-1.890692e+01
1.072791e+02	-1.895655e+01
1.078988e+02	-1.900580e+01
1.085220e+02	-1.905456e+01
1.091488e+02	-1.910436e+01
1.097793e+02	-1.915469e+01
1.104133e+02	-1.920276e+01
1.110511e+02	-1.925254e+01
1.116925e+02	-1.930363e+01
1.123376e+02	-1.935156e+01
1.129865e+02	-1.939998e+01
1.136391e+02	-1.945092e+01
1.142955e+02	-1.950055e+01
1.149556e+02	-1.955000e+01
1.156196e+02	-1.959891e+01
1.162874e+02	-1.964693e+01
1.169591e+02	-1.969915e+01
1.176347e+02	-1.974788e+01
1.183141e+02	-1.979576e+01
1.189975e+02	-1.984608e+01
1.196848e+02	-1.989684e+01
1.203761e+02	-1.994514e+01
1.210714e+02	-1.999563e+01
1.217707e+02	-2.004607e+01
1.224740e+02	-2.009443e+01
1.231814e+02	-2.014407e+01
1.238929e+02	-2.019295e+01
1.246085e+02	-2.024093e+01
1.253283e+02	-2.029349e+01
1.260522e+02	-2.034216e+01
1.267802e+02	-2.039116e+01
1.275125e+02	-2.044039e+01
1.282490e+02	-2.049106e+01
1.289898e+02	-2.053967e+01
1.297348e+02	-2.059034e+01
1.304842e+02	-2.064038e+01
1.312378e+02	-2.068940e+01
1.319959e+02	-2.073760e+01
1.327583e+02	-2.078547e+01
1.335251e+02	-2.083828e+01
1.342963e+02	-2.088769e+01
1.350720e+02	-2.093650e+01
1.358522e+02	-2.098640e+01
1.366368e+02	-2.103653e+01
1.374260e+02	-2.108667e+01
1.382198e+02	-2.113509e+01
1.390182e+02	-2.118651e+01
1.398211e+02	-2.123614e+01
1.406287e+02	-2.128500e+01
1.414410e+02	-2.133496e+01
1.422579e+02	-2.138398e+01
1.430796e+02	-2.143306e+01
1.439060e+02	-2.148411e+01
1.447372e+02	-2.153161e+01
1.455732e+02	-2.158303e+01
1.464141e+02	-2.163255e+01
1.472597e+02	-2.168191e+01
1.481103e+02	-2.173198e+01
1.489658e+02	-2.178105e+01
1.498262e+02	-2.183117e+01
1.506916e+02	-2.188014e+01
1.515620e+02	-2.192926e+01
1.524374e+02	-2.198209e+01
1.533179e+02	-2.203410e+01
1.542034e+02	-2.208072e+01
1.550941e+02	-2.213251e+01
1.559899e+02	-2.218006e+01
1.568909e+02	-2.222912e+01
1.577971e+02	-2.227828e+01
1.587085e+02	-2.232926e+01
1.596252e+02	-2.238172e+01
1.605472e+02	-2.242973e+01
1.614745e+02	-2.247714e+01
1.624072e+02	-2.252690e+01
1.633453e+02	-2.258014e+01
1.642887e+02	-2.262812e+01
1.652377e+02	-2.267618e+01
1.661921e+02	-2.272716e+01
1.671520e+02	-2.277566e+01
1.681175e+02	-2.282617e+01
1.690885e+02	-2.287586e+01
1.700651e+02	-2.292882e+01
1.710474e+02	-2.297666e+01
1.720354e+02	-2.302553e+01
1.730291e+02	-2.307757e+01
1.740285e+02	-2.312597e+01
1.750337e+02	-2.317507e+01
1.760446e+02	-2.322602e+01
1.770615e+02	-2.327613e+01
1.780842e+02	-2.332493e+01
1.791128e+02	-2.337411e+01
1.801473e+02	-2.342695e+01
1.811878e+02	-2.347480e+01
1.822344e+02	-2.352319e+01
1.832870e+02	-2.357467e+01
1.843456e+02	-2.362522e+01
1.854104e+02	-2.367314e+01
1.864813e+02	-2.372027e+01
1.875584e+02	-2.377401e+01
1.886418e+02	-2.382178e+01
1.897313e+02	-2.387436e+01
1.908272e+02	-2.392398e+01
1.919294e+02	-2.397278e+01
1.930380e+02	-2.402282e+01
1.941530e+02	-2.407379e+01
1.952744e+02	-2.412254e+01
1.964023e+02	-2.417081e+01
1.975367e+02	-2.422041e+01
1.986777e+02	-2.426712e+01
1.998252e+02	-2.432363e+01
2.009794e+02	-2.437146e+01
2.021403e+02	-2.442215e+01
2.033078e+02	-2.447165e+01
2.044821e+02	-2.452096e+01
2.056632e+02	-2.457125e+01
2.068511e+02	-2.462238e+01
2.080459e+02	-2.467077e+01
2.092475e+02	-2.472102e+01
2.104561e+02	-2.477206e+01
2.116717e+02	-2.481861e+01
2.128943e+02	-2.487070e+01
2.141240e+02	-2.492183e+01
2.153608e+02	-2.497143e+01
2.166047e+02	-2.501746e+01
2.178558e+02	-2.506839e+01
2.191141e+02	-2.512153e+01
2.203797e+02	-2.516782e+01
2.216526e+02	-2.521973e+01
2.229329e+02	-2.526901e+01
2.242205e+02	-2.531821e+01
2.255156e+02	-2.536917e+01
2.268182e+02	-2.541647e+01
2.281283e+02	-2.546967e+01
2.294459e+02	-2.551734e+01
2.307712e+02	-2.557185e+01
2.321041e+02	-2.561896e+01
2.334447e+02	-2.566941e+01
2.347931e+02	-2.572038e+01
2.361493e+02	-2.577096e+01
2.375133e+02	-2.581886e+01
2.388851e+02	-2.586892e+01
2.402649e+02	-2.592010e+01
2.416527e+02	-2.596789e+01
2.430484e+02	-2.601825e+01
2.444523e+02	-2.606547e+01
2.458642e+02	-2.611671e+01
2.472843e+02	-2.616985e+01
2.487126e+02	-2.621698e+01
2.501492e+02	-2.626717e+01
2.515940e+02	-2.631971e+01
2.530472e+02	-2.637143e+01
2.545088e+02	-2.641757e+01
2.559789e+02	-2.646813e+01
2.574574e+02	-2.651817e+01
2.589444e+02	-2.657049e+01
2.604401e+02	-2.661866e+01
2.619444e+02	-2.666733e+01
2.634574e+02	-2.671868e+01
2.649791e+02	-2.676917e+01
2.665096e+02	-2.681804e+01
2.680489e+02	-2.686728e+01
2.695972e+02	-2.691857e+01
2.711544e+02	-2.696827e+01
2.727205e+02	-2.701861e+01
2.742958e+02	-2.706656e+01
2.758801e+02	-2.712092e+01
2.774736e+02	-2.716713e+01
2.790762e+02	-2.721911e+01
2.806882e+02	-2.726752e+01
2.823094e+02	-2.731575e+01
2.839400e+02	-2.736794e+01
2.855800e+02	-2.741855e+01
2.872295e+02	-2.747072e+01
2.888886e+02	-2.751857e+01
2.905572e+02	-2.756672e+01
2.922354e+02	-2.761909e+01
2.939234e+02	-2.766831e+01
2.956211e+02	-2.771882e+01
2.973286e+02	-2.777115e+01
2.990459e+02	-2.781500e+01
3.007732e+02	-2.786686e+01
3.025104e+02	-2.791947e+01
3.042577e+02	-2.797006e+01
3.060151e+02	-2.801733e+01
3.077826e+02	-2.806827e+01
3.095604e+02	-2.811779e+01
3.113484e+02	-2.816897e+01
3.131467e+02	-2.822113e+01
3.149554e+02	-2.826713e+01
3.167746e+02	-2.831775e+01
3.186043e+02	-2.836802e+01
3.204445e+02	-2.842206e+01
3.222954e+02	-2.846959e+01
3.241570e+02	-2.851759e+01
3.260293e+02	-2.856502e+01
3.279124e+02	-2.862439e+01
3.298064e+02	-2.867009e+01
3.317114e+02	-2.871281e+01
3.336273e+02	-2.876887e+01
3.355544e+02	-2.881382e+01
3.374925e+02	-2.886977e+01
3.394418e+02	-2.892058e+01
3.414024e+02	-2.896926e+01
3.433744e+02	-2.901737e+01
3.453577e+02	-2.906885e+01
3.473525e+02	-2.912274e+01
3.493588e+02	-2.916739e+01
3.513766e+02	-2.921884e+01
3.534062e+02	-2.926900e+01
3.554474e+02	-2.931996e+01
3.575005e+02	-2.937364e+01
3.595654e+02	-2.941677e+01
3.616422e+02	-2.946942e+01
3.637311e+02	-2.952134e+01
3.658320e+02	-2.956787e+01
3.679450e+02	-2.961848e+01
3.700702e+02	-2.966930e+01
3.722077e+02	-2.971990e+01
3.743576e+02	-2.976813e+01
3.765199e+02	-2.981897e+01
3.786946e+02	-2.986902e+01
3.808820e+02	-2.991974e+01
3.830819e+02	-2.996882e+01
3.852946e+02	-3.001940e+01
3.875200e+02	-3.007439e+01
3.897583e+02	-3.012162e+01
3.920096e+02	-3.016771e+01
3.942738e+02	-3.022766e+01
3.965511e+02	-3.026919e+01
3.988416e+02	-3.031829e+01
4.011452e+02	-3.036939e+01
4.034622e+02	-3.042548e+01
4.057926e+02	-3.047067e+01
4.081365e+02	-3.052373e+01
4.104938e+02	-3.057446e+01
4.128648e+02	-3.062125e+01
4.152495e+02	-3.067558e+01
4.176480e+02	-3.072334e+01
4.200603e+02	-3.076730e+01
4.224866e+02	-3.082192e+01
4.249268e+02	-3.086913e+01
4.273812e+02	-3.091799e+01
4.298497e+02	-3.097489e+01
4.323325e+02	-3.102352e+01
4.348297e+02	-3.107126e+01
4.373412e+02	-3.112346e+01
4.398673e+02	-3.117656e+01
4.424079e+02	-3.122853e+01
4.449633e+02	-3.127689e+01
4.475334e+02	-3.132270e+01
4.501183e+02	-3.137541e+01
4.527182e+02	-3.142170e+01
4.553330e+02	-3.147032e+01
4.579630e+02	-3.152595e+01
4.606082e+02	-3.157820e+01
4.632687e+02	-3.162882e+01
4.659445e+02	-3.166896e+01
4.686358e+02	-3.172625e+01
4.713426e+02	-3.178029e+01
4.740650e+02	-3.182923e+01
4.768032e+02	-3.187336e+01
4.795572e+02	-3.192738e+01
4.823271e+02	-3.197839e+01
4.851130e+02	-3.203111e+01
4.879150e+02	-3.207547e+01
4.907332e+02	-3.212570e+01
4.935676e+02	-3.217753e+01
4.964185e+02	-3.222724e+01
4.992858e+02	-3.227526e+01
5.021696e+02	-3.232355e+01
5.050701e+02	-3.237837e+01
5.079874e+02	-3.242722e+01
5.109215e+02	-3.247742e+01
5.138726e+02	-3.253149e+01
5.168407e+02	-3.257702e+01
5.198259e+02	-3.262125e+01
5.228284e+02	-3.267959e+01
5.258482e+02	-3.272825e+01
5.288855e+02	-3.277998e+01
5.319403e+02	-3.282307e+01
5.350128e+02	-3.287787e+01
5.381030e+02	-3.293375e+01
5.412111e+02	-3.298565e+01
5.443371e+02	-3.303260e+01
5.474812e+02	-3.308090e+01
5.506434e+02	-3.313083e+01
5.538239e+02	-3.317719e+01
5.570228e+02	-3.323398e+01
5.602401e+02	-3.328253e+01
5.634760e+02	-3.332751e+01
5.667306e+02	-3.337670e+01
5.700040e+02	-3.342461e+01
5.732964e+02	-3.348346e+01
5.766077e+02	-3.353358e+01
5.799382e+02	-3.358113e+01
5.832879e+02	-3.363239e+01
5.866569e+02	-3.368727e+01
5.900454e+02	-3.373185e+01
5.934535e+02	-3.378513e+01
5.968813e+02	-3.382855e+01
6.003288e+02	-3.388690e+01
6.037963e+02	-3.394233e+01
6.072838e+02	-3.398018e+01
6.107914e+02	-3.403794e+01
6.143194e+02	-3.409179e+01
6.178676e+02	-3.413609e+01
6.214364e+02	-3.418325e+01
6.250258e+02	-3.424578e+01
6.286359e+02	-3.428378e+01
6.322669e+02	-3.434628e+01
6.359189e+02	-3.439121e+01
6.395919e+02	-3.444838e+01
6.432862e+02	-3.449130e+01
6.470017e+02	-3.453988e+01
6.507388e+02	-3.459132e+01
6.544974e+02	-3.463971e+01
6.582778e+02	-3.468023e+01
6.620800e+02	-3.473771e+01
6.659041e+02	-3.479043e+01
6.697504e+02	-3.483557e+01
6.736188e+02	-3.489477e+01
6.775096e+02	-3.494365e+01
6.814229e+02	-3.499122e+01
6.853587e+02	-3.504782e+01
6.893173e+02	-3.508868e+01
6.932988e+02	-3.514608e+01
6.973033e+02	-3.519195e+01
7.013309e+02	-3.524490e+01
