Frequency(Hz)	Magnitude(dB)
1.000000e+01	-2.089886e+00
1.005776e+01	-2.109170e+00
1.011585e+01	-2.128496e+00
1.017428e+01	-2.147912e+00
1.023305e+01	-2.167586e+00
1.029215e+01	-2.187460e+00
1.035160e+01	-2.206986e+00
1.041139e+01	-2.226878e+00
1.047153e+01	-2.247395e+00
1.053201e+01	-2.267558e+00
1.059284e+01	-2.287989e+00
1.065403e+01	-2.308579e+00
1.071556e+01	-2.329375e+00
1.077746e+01	-2.349826e+00
1.083971e+01	-2.371048e+00
1.090232e+01	-2.392159e+00
1.096529e+01	-2.413356e+00
1.102862e+01	-2.434743e+00
1.109232e+01	-2.456201e+00
1.115639e+01	-2.478062e+00
1.122083e+01	-2.499800e+00
1.128564e+01	-2.521764e+00
1.135083e+01	-2.543632e+00
1.141639e+01	-2.565913e+00
1.148233e+01	-2.588361e+00
1.154865e+01	-2.611104e+00
1.161536e+01	-2.633348e+00
1.168245e+01	-2.656528e+00
1.174992e+01	-2.679277e+00
1.181779e+01	-2.702574e+00
1.188605e+01	-2.725743e+00
1.195470e+01	-2.749277e+00
1.202375e+01	-2.772807e+00
1.209320e+01	-2.796482e+00
1.216305e+01	-2.820260e+00
1.223330e+01	-2.844294e+00
1.230396e+01	-2.868224e+00
1.237503e+01	-2.892498e+00
1.244651e+01	-2.917098e+00
1.251840e+01	-2.941500e+00
1.259070e+01	-2.966143e+00
1.266343e+01	-2.990952e+00
1.273657e+01	-3.015785e+00
1.281014e+01	-3.041220e+00
1.288413e+01	-3.066326e+00
1.295855e+01	-3.091801e+00
1.303339e+01	-3.117220e+00
1.310867e+01	-3.143139e+00
1.318439e+01	-3.168791e+00
1.326054e+01	-3.194742e+00
1.333713e+01	-3.220873e+00
1.341417e+01	-3.247436e+00
1.349165e+01	-3.273967e+00
1.356958e+01	-3.300137e+00
1.364795e+01	-3.327076e+00
1.372678e+01	-3.353861e+00
1.380607e+01	-3.380791e+00
1.388581e+01	-3.407665e+00
1.396602e+01	-3.435076e+00
1.404668e+01	-3.462550e+00
1.412782e+01	-3.489976e+00
1.420942e+01	-3.517669e+00
1.429149e+01	-3.545617e+00
1.437404e+01	-3.573687e+00
1.445706e+01	-3.601763e+00
1.454057e+01	-3.630100e+00
1.462455e+01	-3.658427e+00
1.470902e+01	-3.686995e+00
1.479398e+01	-3.715358e+00
1.487943e+01	-3.744584e+00
1.496537e+01	-3.773754e+00
1.505181e+01	-3.802758e+00
1.513875e+01	-3.831856e+00
1.522619e+01	-3.861307e+00
1.531414e+01	-3.890884e+00
1.540259e+01	-3.920160e+00
1.549156e+01	-3.950348e+00
1.558103e+01	-3.980106e+00
1.567103e+01	-4.010428e+00
1.576155e+01	-4.040556e+00
1.585258e+01	-4.070969e+00
1.594415e+01	-4.101439e+00
1.603624e+01	-4.132009e+00
1.612886e+01	-4.162564e+00
1.622202e+01	-4.193639e+00
1.631572e+01	-4.224655e+00
1.640996e+01	-4.256106e+00
1.650474e+01	-4.287019e+00
1.660008e+01	-4.318569e+00
1.669596e+01	-4.350082e+00
1.679239e+01	-4.381910e+00
1.688938e+01	-4.413718e+00
1.698694e+01	-4.445889e+00
1.708505e+01	-4.477812e+00
1.718373e+01	-4.510210e+00
1.728299e+01	-4.543044e+00
1.738281e+01	-4.575067e+00
1.748322e+01	-4.608002e+00
1.758420e+01	-4.640701e+00
1.768576e+01	-4.673530e+00
1.778792e+01	-4.706811e+00
1.789066e+01	-4.739697e+00
1.799399e+01	-4.772888e+00
1.809793e+01	-4.806133e+00
1.820246e+01	-4.839881e+00
1.830760e+01	-4.873624e+00
1.841334e+01	-4.907346e+00
1.851969e+01	-4.941260e+00
1.862666e+01	-4.975232e+00
1.873425e+01	-5.009416e+00
1.884246e+01	-5.043832e+00
1.895129e+01	-5.078604e+00
1.906075e+01	-5.112758e+00
1.917085e+01	-5.147195e+00
1.928158e+01	-5.182409e+00
1.939295e+01	-5.217079e+00
1.950496e+01	-5.252535e+00
1.961762e+01	-5.287510e+00
1.973093e+01	-5.322453e+00
1.984490e+01	-5.357921e+00
1.995952e+01	-5.393663e+00
2.007480e+01	-5.429049e+00
2.019076e+01	-5.464892e+00
2.030738e+01	-5.500857e+00
2.042467e+01	-5.536627e+00
2.054264e+01	-5.573356e+00
2.066130e+01	-5.609230e+00
2.078064e+01	-5.645786e+00
2.090066e+01	-5.682223e+00
2.102139e+01	-5.718556e+00
2.114280e+01	-5.755074e+00
2.126492e+01	-5.792089e+00
2.138775e+01	-5.829109e+00
2.151128e+01	-5.866068e+00
2.163553e+01	-5.902947e+00
2.176050e+01	-5.940340e+00
2.188619e+01	-5.977993e+00
2.201260e+01	-6.014968e+00
2.213974e+01	-6.052953e+00
2.226762e+01	-6.090293e+00
2.239624e+01	-6.128152e+00
2.252560e+01	-6.165830e+00
2.265571e+01	-6.203857e+00
2.278656e+01	-6.241993e+00
2.291818e+01	-6.280113e+00
2.305055e+01	-6.318553e+00
2.318369e+01	-6.356820e+00
2.331760e+01	-6.395143e+00
2.345228e+01	-6.433960e+00
2.358774e+01	-6.472520e+00
2.372398e+01	-6.511476e+00
2.386101e+01	-6.550492e+00
2.399883e+01	-6.589400e+00
2.413745e+01	-6.628574e+00
2.427686e+01	-6.667489e+00
2.441709e+01	-6.706740e+00
2.455812e+01	-6.746850e+00
2.469997e+01	-6.786175e+00
2.484263e+01	-6.825255e+00
2.498612e+01	-6.865180e+00
2.513044e+01	-6.905087e+00
2.527559e+01	-6.944996e+00
2.542158e+01	-6.984850e+00
2.556842e+01	-7.025019e+00
2.571610e+01	-7.064801e+00
2.586463e+01	-7.105246e+00
2.601403e+01	-7.145513e+00
2.616428e+01	-7.186105e+00
2.631541e+01	-7.226468e+00
2.646740e+01	-7.266902e+00
2.662028e+01	-7.307590e+00
2.677404e+01	-7.348700e+00
2.692868e+01	-7.389508e+00
2.708422e+01	-7.430582e+00
2.724066e+01	-7.471862e+00
2.739800e+01	-7.512612e+00
2.755625e+01	-7.553805e+00
2.771541e+01	-7.595110e+00
2.787550e+01	-7.636566e+00
2.803650e+01	-7.677755e+00
2.819844e+01	-7.719314e+00
2.836131e+01	-7.760677e+00
2.852513e+01	-7.802676e+00
2.868989e+01	-7.844438e+00
2.885560e+01	-7.886588e+00
2.902227e+01	-7.927845e+00
2.918990e+01	-7.970123e+00
2.935850e+01	-8.012068e+00
2.952807e+01	-8.054276e+00
2.969863e+01	-8.096678e+00
2.987016e+01	-8.138808e+00
3.004269e+01	-8.181400e+00
3.021622e+01	-8.223724e+00
3.039075e+01	-8.266303e+00
3.056628e+01	-8.308947e+00
3.074283e+01	-8.351647e+00
3.092040e+01	-8.394552e+00
3.109900e+01	-8.437122e+00
3.127862e+01	-8.480337e+00
3.145929e+01	-8.522814e+00
3.164099e+01	-8.565646e+00
3.182375e+01	-8.609404e+00
3.200756e+01	-8.652149e+00
3.219244e+01	-8.695436e+00
3.237838e+01	-8.739272e+00
3.256540e+01	-8.782198e+00
3.275349e+01	-8.825876e+00
3.294268e+01	-8.869254e+00
3.313295e+01	-8.912899e+00
3.332433e+01	-8.956072e+00
3.351681e+01	-8.999983e+00
3.371040e+01	-9.044036e+00
3.390511e+01	-9.087932e+00
3.410094e+01	-9.131835e+00
3.429791e+01	-9.175606e+00
3.449601e+01	-9.219483e+00
3.469526e+01	-9.263365e+00
3.489566e+01	-9.308108e+00
3.509721e+01	-9.351725e+00
3.529993e+01	-9.395548e+00
3.550382e+01	-9.440776e+00
3.570889e+01	-9.484982e+00
3.591515e+01	-9.529261e+00
3.612259e+01	-9.573542e+00
3.633123e+01	-9.618297e+00
3.654108e+01	-9.662942e+00
3.675214e+01	-9.707602e+00
3.696442e+01	-9.752414e+00
3.717792e+01	-9.796783e+00
3.739266e+01	-9.841708e+00
3.760864e+01	-9.886578e+00
3.782587e+01	-9.931526e+00
3.804435e+01	-9.976295e+00
3.826409e+01	-1.002111e+01
3.848510e+01	-1.006645e+01
3.870739e+01	-1.011221e+01
3.893096e+01	-1.015624e+01
3.915583e+01	-1.020217e+01
3.938199e+01	-1.024709e+01
3.960946e+01	-1.029311e+01
3.983824e+01	-1.033792e+01
4.006834e+01	-1.038343e+01
4.029978e+01	-1.042919e+01
4.053255e+01	-1.047422e+01
4.076666e+01	-1.052014e+01
4.100213e+01	-1.056566e+01
4.123896e+01	-1.061113e+01
4.147715e+01	-1.065674e+01
4.171672e+01	-1.070292e+01
4.195767e+01	-1.074834e+01
4.220002e+01	-1.079415e+01
4.244377e+01	-1.084042e+01
4.268892e+01	-1.088609e+01
4.293549e+01	-1.093232e+01
4.318348e+01	-1.097856e+01
4.343291e+01	-1.102407e+01
4.368377e+01	-1.107064e+01
4.393609e+01	-1.111634e+01
4.418986e+01	-1.116287e+01
4.444510e+01	-1.120829e+01
4.470182e+01	-1.125525e+01
4.496001e+01	-1.130105e+01
4.521970e+01	-1.134753e+01
4.548089e+01	-1.139345e+01
4.574358e+01	-1.144001e+01
4.600779e+01	-1.148688e+01
4.627353e+01	-1.153346e+01
4.654081e+01	-1.158040e+01
4.680963e+01	-1.162694e+01
4.708000e+01	-1.167298e+01
4.735193e+01	-1.171974e+01
4.762543e+01	-1.176670e+01
4.790051e+01	-1.181313e+01
4.817719e+01	-1.185984e+01
4.845545e+01	-1.190688e+01
4.873533e+01	-1.195343e+01
4.901682e+01	-1.200039e+01
4.929994e+01	-1.204720e+01
4.958470e+01	-1.209455e+01
4.987110e+01	-1.214111e+01
5.015915e+01	-1.218842e+01
5.044887e+01	-1.223504e+01
5.074026e+01	-1.228239e+01
5.103333e+01	-1.232900e+01
5.132810e+01	-1.237680e+01
5.162457e+01	-1.242358e+01
5.192275e+01	-1.247110e+01
5.222265e+01	-1.251749e+01
5.252429e+01	-1.256532e+01
5.282767e+01	-1.261246e+01
5.313280e+01	-1.266020e+01
5.343969e+01	-1.270809e+01
5.374836e+01	-1.275516e+01
5.405880e+01	-1.280159e+01
5.437105e+01	-1.284904e+01
5.468509e+01	-1.289613e+01
5.500095e+01	-1.294415e+01
5.531863e+01	-1.299149e+01
5.563815e+01	-1.303933e+01
5.595951e+01	-1.308694e+01
5.628273e+01	-1.313451e+01
5.660782e+01	-1.318263e+01
5.693479e+01	-1.322922e+01
5.726364e+01	-1.327807e+01
5.759439e+01	-1.332519e+01
5.792705e+01	-1.337198e+01
5.826164e+01	-1.342066e+01
5.859815e+01	-1.346883e+01
5.893662e+01	-1.351582e+01
5.927703e+01	-1.356439e+01
5.961941e+01	-1.361220e+01
5.996377e+01	-1.365964e+01
6.031012e+01	-1.370717e+01
6.065847e+01	-1.375499e+01
6.100883e+01	-1.380367e+01
6.136121e+01	-1.385148e+01
6.171563e+01	-1.389950e+01
6.207210e+01	-1.394739e+01
6.243063e+01	-1.399586e+01
6.279122e+01	-1.404298e+01
6.315390e+01	-1.409198e+01
6.351868e+01	-1.413913e+01
6.388556e+01	-1.418710e+01
6.425456e+01	-1.423577e+01
6.462569e+01	-1.428369e+01
6.499897e+01	-1.433119e+01
6.537440e+01	-1.438068e+01
6.575200e+01	-1.442834e+01
6.613178e+01	-1.447627e+01
6.651375e+01	-1.452538e+01
6.689793e+01	-1.457290e+01
6.728433e+01	-1.462192e+01
6.767297e+01	-1.466963e+01
6.806384e+01	-1.471883e+01
6.845698e+01	-1.476626e+01
6.885238e+01	-1.481453e+01
6.925007e+01	-1.486340e+01
6.965005e+01	-1.491157e+01
7.005235e+01	-1.495991e+01
7.045697e+01	-1.500888e+01
7.086393e+01	-1.505769e+01
7.127323e+01	-1.510492e+01
7.168490e+01	-1.515383e+01
7.209895e+01	-1.520286e+01
7.251539e+01	-1.525119e+01
7.293424e+01	-1.529925e+01
7.335551e+01	-1.534811e+01
7.377920e+01	-1.539626e+01
7.420535e+01	-1.544487e+01
7.463396e+01	-1.549401e+01
7.506504e+01	-1.554244e+01
7.549861e+01	-1.559064e+01
7.593469e+01	-1.564011e+01
7.637328e+01	-1.568833e+01
7.681441e+01	-1.573680e+01
7.725809e+01	-1.578589e+01
7.770433e+01	-1.583410e+01
7.815315e+01	-1.588318e+01
7.860456e+01	-1.593205e+01
7.905857e+01	-1.598242e+01
7.951521e+01	-1.603019e+01
7.997449e+01	-1.607847e+01
8.043642e+01	-1.612690e+01
8.090102e+01	-1.617607e+01
8.136830e+01	-1.622391e+01
8.183828e+01	-1.627352e+01
8.231097e+01	-1.632183e+01
8.278640e+01	-1.637114e+01
8.326457e+01	-1.641914e+01
8.374550e+01	-1.646891e+01
8.422921e+01	-1.651900e+01
8.471572e+01	-1.656701e+01
8.520503e+01	-1.661653e+01
8.569717e+01	-1.666561e+01
8.619215e+01	-1.671286e+01
8.669000e+01	-1.676246e+01
8.719071e+01	-1.681155e+01
8.769432e+01	-1.685977e+01
8.820084e+01	-1.690923e+01
8.871029e+01	-1.695891e+01
8.922267e+01	-1.700829e+01
8.973802e+01	-1.705715e+01
9.025634e+01	-1.710546e+01
9.077766e+01	-1.715424e+01
9.130199e+01	-1.720483e+01
9.182935e+01	-1.725288e+01
9.235975e+01	-1.730197e+01
9.289321e+01	-1.735082e+01
9.342976e+01	-1.739955e+01
9.396941e+01	-1.744849e+01
9.451217e+01	-1.749848e+01
9.505807e+01	-1.754723e+01
9.560712e+01	-1.759573e+01
9.615934e+01	-1.764565e+01
9.671476e+01	-1.769502e+01
9.727338e+01	-1.774490e+01
9.783522e+01	-1.779455e+01
9.840032e+01	-1.784271e+01
9.896867e+01	-1.789230e+01
9.954031e+01	-1.794209e+01
1.001153e+02	-1.799045e+01
1.006935e+02	-1.803955e+01
1.012751e+02	-1.808982e+01
1.018601e+02	-1.813765e+01
1.024484e+02	-1.818718e+01
1.030402e+02	-1.823772e+01
1.036353e+02	-1.828542e+01
1.042339e+02	-1.833645e+01
1.048360e+02	-1.838509e+01
1.054415e+02	-1.843446e+01
1.060505e+02	-1.848394e+01
1.066631e+02	-1.853357e+01
1.072791e+02	-1.858200e+01
1.078988e+02	-1.863096e+01
1.085220e+02	-1.868057e+01
1.091488e+02	-1.872964e+01
1.097793e+02	-1.877930e+01
1.104133e+02	-1.882853e+01
1.110511e+02	-1.887956e+01
1.116925e+02	-1.892768e+01
1.123376e+02	-1.897793e+01
1.129865e+02	-1.902547e+01
1.136391e+02	-1.907510e+01
1.142955e+02	-1.912584e+01
1.149556e+02	-1.917397e+01
1.156196e+02	-1.922380e+01
1.162874e+02	-1.927318e+01
1.169591e+02	-1.932322e+01
1.176347e+02	-1.937371e+01
1.183141e+02	-1.942076e+01
1.189975e+02	-1.947268e+01
1.196848e+02	-1.952101e+01
1.203761e+02	-1.957024e+01
1.210714e+02	-1.962075e+01
1.217707e+02	-1.967036e+01
1.224740e+02	-1.971787e+01
1.231814e+02	-1.976902e+01
1.238929e+02	-1.981784e+01
1.246085e+02	-1.986626e+01
1.253283e+02	-1.991680e+01
1.260522e+02	-1.996545e+01
1.267802e+02	-2.001569e+01
1.275125e+02	-2.006566e+01
1.282490e+02	-2.011624e+01
1.289898e+02	-2.016586e+01
1.297348e+02	-2.021430e+01
1.304842e+02	-2.026526e+01
1.312378e+02	-2.031201e+01
1.319959e+02	-2.036276e+01
1.327583e+02	-2.041182e+01
1.335251e+02	-2.046250e+01
1.342963e+02	-2.051183e+01
1.350720e+02	-2.056052e+01
1.358522e+02	-2.061002e+01
1.366368e+02	-2.066101e+01
1.374260e+02	-2.070936e+01
1.382198e+02	-2.075917e+01
1.390182e+02	-2.081033e+01
1.398211e+02	-2.085748e+01
1.406287e+02	-2.090963e+01
1.414410e+02	-2.095987e+01
1.422579e+02	-2.100789e+01
1.430796e+02	-2.105791e+01
1.439060e+02	-2.110623e+01
1.447372e+02	-2.115633e+01
1.455732e+02	-2.120642e+01
1.464141e+02	-2.125672e+01
1.472597e+02	-2.130543e+01
1.481103e+02	-2.135484e+01
1.489658e+02	-2.140605e+01
1.498262e+02	-2.145511e+01
1.506916e+02	-2.150360e+01
1.515620e+02	-2.155435e+01
1.524374e+02	-2.160438e+01
1.533179e+02	-2.165297e+01
1.542034e+02	-2.170273e+01
1.550941e+02	-2.175456e+01
1.559899e+02	-2.180264e+01
1.568909e+02	-2.185226e+01
1.577971e+02	-2.190180e+01
1.587085e+02	-2.195183e+01
1.596252e+02	-2.200126e+01
1.605472e+02	-2.205050e+01
1.614745e+02	-2.210240e+01
1.624072e+02	-2.215060e+01
1.633453e+02	-2.220239e+01
1.642887e+02	-2.224987e+01
1.652377e+02	-2.229955e+01
1.661921e+02	-2.234980e+01
1.671520e+02	-2.239838e+01
1.681175e+02	-2.245087e+01
1.690885e+02	-2.249979e+01
1.700651e+02	-2.254916e+01
1.710474e+02	-2.259724e+01
1.720354e+02	-2.264740e+01
1.730291e+02	-2.269946e+01
1.740285e+02	-2.274740e+01
1.750337e+02	-2.279702e+01
1.760446e+02	-2.284802e+01
1.770615e+02	-2.289869e+01
1.780842e+02	-2.294711e+01
1.791128e+02	-2.299825e+01
1.801473e+02	-2.304587e+01
1.811878e+02	-2.309452e+01
1.822344e+02	-2.314611e+01
1.832870e+02	-2.319624e+01
1.843456e+02	-2.324445e+01
1.854104e+02	-2.329582e+01
1.864813e+02	-2.334483e+01
1.875584e+02	-2.339688e+01
1.886418e+02	-2.344638e+01
1.897313e+02	-2.349503e+01
1.908272e+02	-2.354360e+01
1.919294e+02	-2.359299e+01
1.930380e+02	-2.364379e+01
1.941530e+02	-2.369332e+01
1.952744e+02	-2.374449e+01
1.964023e+02	-2.379417e+01
1.975367e+02	-2.384329e+01
1.986777e+02	-2.389395e+01
1.998252e+02	-2.394481e+01
2.009794e+02	-2.399228e+01
2.021403e+02	-2.404637e+01
2.033078e+02	-2.409407e+01
2.044821e+02	-2.414478e+01
2.056632e+02	-2.419296e+01
2.068511e+02	-2.424220e+01
2.080459e+02	-2.429361e+01
2.092475e+02	-2.434172e+01
2.104561e+02	-2.439211e+01
2.116717e+02	-2.444308e+01
2.128943e+02	-2.449322e+01
2.141240e+02	-2.454433e+01
2.153608e+02	-2.459131e+01
2.166047e+02	-2.464435e+01
2.178558e+02	-2.469179e+01
2.191141e+02	-2.474084e+01
2.203797e+02	-2.479142e+01
2.216526e+02	-2.484233e+01
2.229329e+02	-2.489426e+01
2.242205e+02	-2.494223e+01
2.255156e+02	-2.499098e+01
2.268182e+02	-2.504105e+01
2.281283e+02	-2.509026e+01
2.294459e+02	-2.514392e+01
2.307712e+02	-2.519163e+01
2.321041e+02	-2.524030e+01
2.334447e+02	-2.529132e+01
2.347931e+02	-2.534202e+01
2.361493e+02	-2.539211e+01
2.375133e+02	-2.544237e+01
2.388851e+02	-2.549293e+01
2.402649e+02	-2.553948e+01
2.416527e+02	-2.558898e+01
2.430484e+02	-2.564082e+01
2.444523e+02	-2.568930e+01
2.458642e+02	-2.574032e+01
2.472843e+02	-2.579332e+01
2.487126e+02	-2.584147e+01
2.501492e+02	-2.588795e+01
2.515940e+02	-2.594254e+01
2.530472e+02	-2.598964e+01
2.545088e+02	-2.603990e+01
2.559789e+02	-2.608714e+01
2.574574e+02	-2.614184e+01
2.589444e+02	-2.618799e+01
2.604401e+02	-2.624111e+01
2.619444e+02	-2.629058e+01
2.634574e+02	-2.634099e+01
2.649791e+02	-2.638621e+01
2.665096e+02	-2.643905e+01
2.680489e+02	-2.649144e+01
2.695972e+02	-2.653834e+01
2.711544e+02	-2.658914e+01
2.727205e+02	-2.664214e+01
2.742958e+02	-2.668761e+01
2.758801e+02	-2.673946e+01
2.774736e+02	-2.678874e+01
2.790762e+02	-2.683766e+01
2.806882e+02	-2.688950e+01
2.823094e+02	-2.693986e+01
2.839400e+02	-2.699035e+01
2.855800e+02	-2.703987e+01
2.872295e+02	-2.708910e+01
2.888886e+02	-2.714014e+01
2.905572e+02	-2.718940e+01
2.922354e+02	-2.723815e+01
2.939234e+02	-2.728812e+01
2.956211e+02	-2.734330e+01
2.973286e+02	-2.738713e+01
2.990459e+02	-2.744175e+01
3.007732e+02	-2.748850e+01
3.025104e+02	-2.753887e+01
3.042577e+02	-2.759296e+01
3.060151e+02	-2.763882e+01
3.077826e+02	-2.769166e+01
3.095604e+02	-2.773854e+01
3.113484e+02	-2.778714e+01
3.131467e+02	-2.783586e+01
3.149554e+02	-2.788870e+01
3.167746e+02	-2.793751e+01
3.186043e+02	-2.799084e+01
3.204445e+02	-2.803815e+01
3.222954e+02	-2.808763e+01
3.241570e+02	-2.813874e+01
3.260293e+02	-2.818770e+01
3.279124e+02	-2.823894e+01
3.298064e+02	-2.828654e+01
3.317114e+02	-2.833957e+01
3.336273e+02	-2.839039e+01
3.355544e+02	-2.844057e+01
3.374925e+02	-2.848982e+01
3.394418e+02	-2.854143e+01
3.414024e+02	-2.859080e+01
3.433744e+02	-2.864127e+01
3.453577e+02	-2.869431e+01
3.473525e+02	-2.873680e+01
3.493588e+02	-2.878874e+01
3.513766e+02	-2.883893e+01
3.534062e+02	-2.889071e+01
3.554474e+02	-2.893689e+01
3.575005e+02	-2.899052e+01
3.595654e+02	-2.903763e+01
3.616422e+02	-2.909039e+01
3.637311e+02	-2.914365e+01
3.658320e+02	-2.919106e+01
3.679450e+02	-2.924278e+01
3.700702e+02	-2.929305e+01
3.722077e+02	-2.934094e+01
3.743576e+02	-2.939327e+01
3.765199e+02	-2.943538e+01
3.786946e+02	-2.949283e+01
3.808820e+02	-2.953999e+01
3.830819e+02	-2.958901e+01
3.852946e+02	-2.964085e+01
3.875200e+02	-2.969156e+01
3.897583e+02	-2.974137e+01
3.920096e+02	-2.979430e+01
3.942738e+02	-2.984483e+01
3.965511e+02	-2.989168e+01
3.988416e+02	-2.994034e+01
4.011452e+02	-2.998798e+01
4.034622e+02	-3.004023e+01
4.057926e+02	-3.009168e+01
4.081365e+02	-3.014552e+01
4.104938e+02	-3.019409e+01
4.128648e+02	-3.024468e+01
4.152495e+02	-3.029918e+01
4.176480e+02	-3.034524e+01
4.200603e+02	-3.039861e+01
4.224866e+02	-3.044160e+01
4.249268e+02	-3.049345e+01
4.273812e+02	-3.054398e+01
4.298497e+02	-3.059362e+01
4.323325e+02	-3.064042e+01
4.348297e+02	-3.069436e+01
4.373412e+02	-3.074176e+01
4.398673e+02	-3.079528e+01
4.424079e+02	-3.084270e+01
4.449633e+02	-3.089730e+01
4.475334e+02	-3.094452e+01
4.501183e+02	-3.099613e+01
4.527182e+02	-3.103948e+01
4.553330e+02	-3.109058e+01
4.579630e+02	-3.114085e+01
4.606082e+02	-3.119834e+01
4.632687e+02	-3.124412e+01
4.659445e+02	-3.129336e+01
4.686358e+02	-3.134588e+01
4.713426e+02	-3.138999e+01
4.740650e+02	-3.144811e+01
4.768032e+02	-3.148791e+01
4.795572e+02	-3.155483e+01
4.823271e+02	-3.159753e+01
4.851130e+02	-3.164580e+01
4.879150e+02	-3.170322e+01
4.907332e+02	-3.174675e+01
4.935676e+02	-3.179798e+01
4.964185e+02	-3.184998e+01
4.992858e+02	-3.189265e+01
5.021696e+02	-3.194687e+01
5.050701e+02	-3.199794e+01
5.079874e+02	-3.204303e+01
5.109215e+02	-3.209439e+01
5.138726e+02	-3.215086e+01
5.168407e+02	-3.220190e+01
5.198259e+02	-3.225118e+01
5.228284e+02	-3.229539e+01
5.258482e+02	-3.234680e+01
5.288855e+02	-3.239376e+01
5.319403e+02	-3.245049e+01
5.350128e+02	-3.249652e+01
5.381030e+02	-3.254732e+01
5.412111e+02	-3.260413e+01
5.443371e+02	-3.265242e+01
5.474812e+02	-3.270334e+01
5.506434e+02	-3.275196e+01
5.538239e+02	-3.280666e+01
5.570228e+02	-3.285371e+01
5.602401e+02	-3.289878e+01
5.634760e+02	-3.295102e+01
5.667306e+02	-3.300036e+01
5.700040e+02	-3.305012e+01
5.732964e+02	-3.310448e+01
5.766077e+02	-3.315129e+01
5.799382e+02	-3.321301e+01
5.832879e+02	-3.325523e+01
5.866569e+02	-3.329628e+01
5.900454e+02	-3.336333e+01
5.934535e+02	-3.340921e+01
5.968813e+02	-3.345101e+01
6.003288e+02	-3.349637e+01
6.037963e+02	-3.354943e+01
6.072838e+02	-3.360422e+01
6.107914e+02	-3.365662e+01
6.143194e+02	-3.371574e+01
6.178676e+02	-3.375751e+01
6.214364e+02	-3.380476e+01
6.250258e+02	-3.385203e+01
6.286359e+02	-3.390379e+01
6.322669e+02	-3.396098e+01
6.359189e+02	-3.400746e+01
6.395919e+02	-3.405944e+01
6.432862e+02	-3.410830e+01
6.470017e+02	-3.415841e+01
6.507388e+02	-3.421346e+01
6.544974e+02	-3.425948e+01
6.582778e+02	-3.431293e+01
6.620800e+02	-3.436063e+01
6.659041e+02	-3.441063e+01
6.697504e+02	-3.445870e+01
6.736188e+02	-3.451682e+01
6.775096e+02	-3.456374e+01
6.814229e+02	-3.460678e+01
6.853587e+02	-3.466972e+01
6.893173e+02	-3.470907e+01
6.932988e+02	-3.475652e+01
6.973033e+02	-3.481704e+01
7.013309e+02	-3.486959e+01
