Frequency(Hz)	Magnitude(dB)
1.000000e+01	-1.549065e-05
1.005776e+01	-1.567012e-05
1.011585e+01	-1.585166e-05
1.017428e+01	-1.603530e-05
1.023305e+01	-1.622108e-05
1.029215e+01	-1.640900e-05
1.035160e+01	-1.659910e-05
1.041139e+01	-1.679141e-05
1.047153e+01	-1.698594e-05
1.053201e+01	-1.718273e-05
1.059284e+01	-1.738180e-05
1.065403e+01	-1.758317e-05
1.071556e+01	-1.778687e-05
1.077746e+01	-1.799294e-05
1.083971e+01	-1.820139e-05
1.090232e+01	-1.841226e-05
1.096529e+01	-1.862557e-05
1.102862e+01	-1.884135e-05
1.109232e+01	-1.905963e-05
1.115639e+01	-1.928044e-05
1.122083e+01	-1.950381e-05
1.128564e+01	-1.972977e-05
1.135083e+01	-1.995834e-05
1.141639e+01	-2.018957e-05
1.148233e+01	-2.042347e-05
1.154865e+01	-2.066008e-05
1.161536e+01	-2.089943e-05
1.168245e+01	-2.114156e-05
1.174992e+01	-2.138649e-05
1.181779e+01	-2.163425e-05
1.188605e+01	-2.188489e-05
1.195470e+01	-2.213843e-05
1.202375e+01	-2.239491e-05
1.209320e+01	-2.265436e-05
1.216305e+01	-2.291682e-05
1.223330e+01	-2.318232e-05
1.230396e+01	-2.345089e-05
1.237503e+01	-2.372258e-05
1.244651e+01	-2.399741e-05
1.251840e+01	-2.427542e-05
1.259070e+01	-2.455666e-05
1.266343e+01	-2.484116e-05
1.273657e+01	-2.512895e-05
1.281014e+01	-2.542007e-05
1.288413e+01	-2.571457e-05
1.295855e+01	-2.601248e-05
1.303339e+01	-2.631384e-05
1.310867e+01	-2.661869e-05
1.318439e+01	-2.692708e-05
1.326054e+01	-2.723903e-05
1.333713e+01	-2.755460e-05
1.341417e+01	-2.787383e-05
1.349165e+01	-2.819676e-05
1.356958e+01	-2.852342e-05
1.364795e+01	-2.885387e-05
1.372678e+01	-2.918815e-05
1.380607e+01	-2.952630e-05
1.388581e+01	-2.986837e-05
1.396602e+01	-3.021440e-05
1.404668e+01	-3.056445e-05
1.412782e+01	-3.091854e-05
1.420942e+01	-3.127674e-05
1.429149e+01	-3.163909e-05
1.437404e+01	-3.200564e-05
1.445706e+01	-3.237643e-05
1.454057e+01	-3.275152e-05
1.462455e+01	-3.313095e-05
1.470902e+01	-3.351478e-05
1.479398e+01	-3.390306e-05
1.487943e+01	-3.429583e-05
1.496537e+01	-3.469316e-05
1.505181e+01	-3.509509e-05
1.513875e+01	-3.550167e-05
1.522619e+01	-3.591297e-05
1.531414e+01	-3.632903e-05
1.540259e+01	-3.674991e-05
1.549156e+01	-3.717566e-05
1.558103e+01	-3.760635e-05
1.567103e+01	-3.804203e-05
1.576155e+01	-3.848275e-05
1.585258e+01	-3.892859e-05
1.594415e+01	-3.937958e-05
1.603624e+01	-3.983580e-05
1.612886e+01	-4.029731e-05
1.622202e+01	-4.076416e-05
1.631572e+01	-4.123643e-05
1.640996e+01	-4.171416e-05
1.650474e+01	-4.219743e-05
1.660008e+01	-4.268629e-05
1.669596e+01	-4.318082e-05
1.679239e+01	-4.368108e-05
1.688938e+01	-4.418714e-05
1.698694e+01	-4.469906e-05
1.708505e+01	-4.521691e-05
1.718373e+01	-4.574075e-05
1.728299e+01	-4.627067e-05
1.738281e+01	-4.680673e-05
1.748322e+01	-4.734899e-05
1.758420e+01	-4.789754e-05
1.768576e+01	-4.845244e-05
1.778792e+01	-4.901377e-05
1.789066e+01	-4.958161e-05
1.799399e+01	-5.015602e-05
1.809793e+01	-5.073709e-05
1.820246e+01	-5.132489e-05
1.830760e+01	-5.191950e-05
1.841334e+01	-5.252100e-05
1.851969e+01	-5.312947e-05
1.862666e+01	-5.374498e-05
1.873425e+01	-5.436763e-05
1.884246e+01	-5.499749e-05
1.895129e+01	-5.563465e-05
1.906075e+01	-5.627919e-05
1.917085e+01	-5.693119e-05
1.928158e+01	-5.759075e-05
1.939295e+01	-5.825795e-05
1.950496e+01	-5.893288e-05
1.961762e+01	-5.961563e-05
1.973093e+01	-6.030629e-05
1.984490e+01	-6.100495e-05
1.995952e+01	-6.171170e-05
2.007480e+01	-6.242665e-05
2.019076e+01	-6.314987e-05
2.030738e+01	-6.388147e-05
2.042467e+01	-6.462155e-05
2.054264e+01	-6.537021e-05
2.066130e+01	-6.612753e-05
2.078064e+01	-6.689363e-05
2.090066e+01	-6.766861e-05
2.102139e+01	-6.845256e-05
2.114280e+01	-6.924560e-05
2.126492e+01	-7.004782e-05
2.138775e+01	-7.085934e-05
2.151128e+01	-7.168026e-05
2.163553e+01	-7.251069e-05
2.176050e+01	-7.335074e-05
2.188619e+01	-7.420052e-05
2.201260e+01	-7.506014e-05
2.213974e+01	-7.592973e-05
2.226762e+01	-7.680939e-05
2.239624e+01	-7.769924e-05
2.252560e+01	-7.859940e-05
2.265571e+01	-7.950998e-05
2.278656e+01	-8.043112e-05
2.291818e+01	-8.136293e-05
2.305055e+01	-8.230553e-05
2.318369e+01	-8.325906e-05
2.331760e+01	-8.422363e-05
2.345228e+01	-8.519937e-05
2.358774e+01	-8.618642e-05
2.372398e+01	-8.718490e-05
2.386101e+01	-8.819496e-05
2.399883e+01	-8.921671e-05
2.413745e+01	-9.025030e-05
2.427686e+01	-9.129586e-05
2.441709e+01	-9.235354e-05
2.455812e+01	-9.342347e-05
2.469997e+01	-9.450579e-05
2.484263e+01	-9.560066e-05
2.498612e+01	-9.670821e-05
2.513044e+01	-9.782859e-05
2.527559e+01	-9.896194e-05
2.542158e+01	-1.001084e-04
2.556842e+01	-1.012682e-04
2.571610e+01	-1.024414e-04
2.586463e+01	-1.036282e-04
2.601403e+01	-1.048288e-04
2.616428e+01	-1.060432e-04
2.631541e+01	-1.072717e-04
2.646740e+01	-1.085145e-04
2.662028e+01	-1.097716e-04
2.677404e+01	-1.110434e-04
2.692868e+01	-1.123298e-04
2.708422e+01	-1.136312e-04
2.724066e+01	-1.149476e-04
2.739800e+01	-1.162793e-04
2.755625e+01	-1.176264e-04
2.771541e+01	-1.189891e-04
2.787550e+01	-1.203676e-04
2.803650e+01	-1.217621e-04
2.819844e+01	-1.231727e-04
2.836131e+01	-1.245997e-04
2.852513e+01	-1.260432e-04
2.868989e+01	-1.275034e-04
2.885560e+01	-1.289806e-04
2.902227e+01	-1.304748e-04
2.918990e+01	-1.319864e-04
2.935850e+01	-1.335154e-04
2.952807e+01	-1.350622e-04
2.969863e+01	-1.366269e-04
2.987016e+01	-1.382098e-04
3.004269e+01	-1.398110e-04
3.021622e+01	-1.414307e-04
3.039075e+01	-1.430692e-04
3.056628e+01	-1.447266e-04
3.074283e+01	-1.464033e-04
3.092040e+01	-1.480994e-04
3.109900e+01	-1.498151e-04
3.127862e+01	-1.515508e-04
3.145929e+01	-1.533065e-04
3.164099e+01	-1.550826e-04
3.182375e+01	-1.568792e-04
3.200756e+01	-1.586967e-04
3.219244e+01	-1.605352e-04
3.237838e+01	-1.623950e-04
3.256540e+01	-1.642763e-04
3.275349e+01	-1.661795e-04
3.294268e+01	-1.681047e-04
3.313295e+01	-1.700522e-04
3.332433e+01	-1.720222e-04
3.351681e+01	-1.740151e-04
3.371040e+01	-1.760311e-04
3.390511e+01	-1.780704e-04
3.410094e+01	-1.801334e-04
3.429791e+01	-1.822202e-04
3.449601e+01	-1.843313e-04
3.469526e+01	-1.864667e-04
3.489566e+01	-1.886270e-04
3.509721e+01	-1.908122e-04
3.529993e+01	-1.930228e-04
3.550382e+01	-1.952589e-04
3.570889e+01	-1.975210e-04
3.591515e+01	-1.998093e-04
3.612259e+01	-2.021241e-04
3.633123e+01	-2.044657e-04
3.654108e+01	-2.068344e-04
3.675214e+01	-2.092306e-04
3.696442e+01	-2.116546e-04
3.717792e+01	-2.141066e-04
3.739266e+01	-2.165870e-04
3.760864e+01	-2.190962e-04
3.782587e+01	-2.216344e-04
3.804435e+01	-2.242020e-04
3.826409e+01	-2.267994e-04
3.848510e+01	-2.294269e-04
3.870739e+01	-2.320848e-04
3.893096e+01	-2.347734e-04
3.915583e+01	-2.374933e-04
3.938199e+01	-2.402446e-04
3.960946e+01	-2.430279e-04
3.983824e+01	-2.458433e-04
4.006834e+01	-2.486914e-04
4.029978e+01	-2.515725e-04
4.053255e+01	-2.544869e-04
4.076666e+01	-2.574352e-04
4.100213e+01	-2.604175e-04
4.123896e+01	-2.634344e-04
4.147715e+01	-2.664863e-04
4.171672e+01	-2.695735e-04
4.195767e+01	-2.726965e-04
4.220002e+01	-2.758557e-04
4.244377e+01	-2.790514e-04
4.268892e+01	-2.822842e-04
4.293549e+01	-2.855545e-04
4.318348e+01	-2.888626e-04
4.343291e+01	-2.922090e-04
4.368377e+01	-2.955942e-04
4.393609e+01	-2.990186e-04
4.418986e+01	-3.024827e-04
4.444510e+01	-3.059870e-04
4.470182e+01	-3.095318e-04
4.496001e+01	-3.131177e-04
4.521970e+01	-3.167451e-04
4.548089e+01	-3.204145e-04
4.574358e+01	-3.241265e-04
4.600779e+01	-3.278814e-04
4.627353e+01	-3.316799e-04
4.654081e+01	-3.355223e-04
4.680963e+01	-3.394093e-04
4.708000e+01	-3.433413e-04
4.735193e+01	-3.473189e-04
4.762543e+01	-3.513425e-04
4.790051e+01	-3.554127e-04
4.817719e+01	-3.595301e-04
4.845545e+01	-3.636952e-04
4.873533e+01	-3.679085e-04
4.901682e+01	-3.721706e-04
4.929994e+01	-3.764822e-04
4.958470e+01	-3.808436e-04
4.987110e+01	-3.852556e-04
5.015915e+01	-3.897187e-04
5.044887e+01	-3.942335e-04
5.074026e+01	-3.988006e-04
5.103333e+01	-4.034206e-04
5.132810e+01	-4.080941e-04
5.162457e+01	-4.128218e-04
5.192275e+01	-4.176042e-04
5.222265e+01	-4.224420e-04
5.252429e+01	-4.273359e-04
5.282767e+01	-4.322864e-04
5.313280e+01	-4.372943e-04
5.343969e+01	-4.423603e-04
5.374836e+01	-4.474849e-04
5.405880e+01	-4.526688e-04
5.437105e+01	-4.579128e-04
5.468509e+01	-4.632176e-04
5.500095e+01	-4.685838e-04
5.531863e+01	-4.740122e-04
5.563815e+01	-4.795035e-04
5.595951e+01	-4.850583e-04
5.628273e+01	-4.906776e-04
5.660782e+01	-4.963619e-04
5.693479e+01	-5.021120e-04
5.726364e+01	-5.079288e-04
5.759439e+01	-5.138129e-04
5.792705e+01	-5.197652e-04
5.826164e+01	-5.257865e-04
5.859815e+01	-5.318775e-04
5.893662e+01	-5.380391e-04
5.927703e+01	-5.442720e-04
5.961941e+01	-5.505772e-04
5.996377e+01	-5.569553e-04
6.031012e+01	-5.634074e-04
6.065847e+01	-5.699342e-04
6.100883e+01	-5.765366e-04
6.136121e+01	-5.832155e-04
6.171563e+01	-5.899717e-04
6.207210e+01	-5.968063e-04
6.243063e+01	-6.037199e-04
6.279122e+01	-6.107137e-04
6.315390e+01	-6.177885e-04
6.351868e+01	-6.249452e-04
6.388556e+01	-6.321849e-04
6.425456e+01	-6.395084e-04
6.462569e+01	-6.469167e-04
6.499897e+01	-6.544108e-04
6.537440e+01	-6.619918e-04
6.575200e+01	-6.696606e-04
6.613178e+01	-6.774182e-04
6.651375e+01	-6.852656e-04
6.689793e+01	-6.932040e-04
6.728433e+01	-7.012343e-04
6.767297e+01	-7.093576e-04
6.806384e+01	-7.175750e-04
6.845698e+01	-7.258876e-04
6.885238e+01	-7.342965e-04
6.925007e+01	-7.428028e-04
6.965005e+01	-7.514077e-04
7.005235e+01	-7.601122e-04
7.045697e+01	-7.689175e-04
7.086393e+01	-7.778248e-04
7.127323e+01	-7.868353e-04
7.168490e+01	-7.959502e-04
7.209895e+01	-8.051706e-04
7.251539e+01	-8.144979e-04
7.293424e+01	-8.239332e-04
7.335551e+01	-8.334777e-04
7.377920e+01	-8.431329e-04
7.420535e+01	-8.528998e-04
7.463396e+01	-8.627799e-04
7.506504e+01	-8.727745e-04
7.549861e+01	-8.828848e-04
7.593469e+01	-8.931122e-04
7.637328e+01	-9.034581e-04
7.681441e+01	-9.139238e-04
7.725809e+01	-9.245107e-04
7.770433e+01	-9.352203e-04
7.815315e+01	-9.460539e-04
7.860456e+01	-9.570129e-04
7.905857e+01	-9.680990e-04
7.951521e+01	-9.793134e-04
7.997449e+01	-9.906577e-04
8.043642e+01	-1.002133e-03
8.090102e+01	-1.013742e-03
8.136830e+01	-1.025485e-03
8.183828e+01	-1.037364e-03
8.231097e+01	-1.049381e-03
8.278640e+01	-1.061537e-03
8.326457e+01	-1.073833e-03
8.374550e+01	-1.086273e-03
8.422921e+01	-1.098856e-03
8.471572e+01	-1.111585e-03
8.520503e+01	-1.124461e-03
8.569717e+01	-1.137487e-03
8.619215e+01	-1.150663e-03
8.669000e+01	-1.163992e-03
8.719071e+01	-1.177475e-03
8.769432e+01	-1.191115e-03
8.820084e+01	-1.204912e-03
8.871029e+01	-1.218869e-03
8.922267e+01	-1.232988e-03
8.973802e+01	-1.247271e-03
9.025634e+01	-1.261719e-03
9.077766e+01	-1.276334e-03
9.130199e+01	-1.291118e-03
9.182935e+01	-1.306074e-03
9.235975e+01	-1.321203e-03
9.289321e+01	-1.336507e-03
9.342976e+01	-1.351988e-03
9.396941e+01	-1.367649e-03
9.451217e+01	-1.383491e-03
9.505807e+01	-1.399517e-03
9.560712e+01	-1.415728e-03
9.615934e+01	-1.432127e-03
9.671476e+01	-1.448716e-03
9.727338e+01	-1.465496e-03
9.783522e+01	-1.482472e-03
9.840032e+01	-1.499644e-03
9.896867e+01	-1.517014e-03
9.954031e+01	-1.534586e-03
1.001153e+02	-1.552362e-03
1.006935e+02	-1.570343e-03
1.012751e+02	-1.588532e-03
1.018601e+02	-1.606933e-03
1.024484e+02	-1.625546e-03
1.030402e+02	-1.644375e-03
1.036353e+02	-1.663422e-03
1.042339e+02	-1.682689e-03
1.048360e+02	-1.702180e-03
1.054415e+02	-1.721896e-03
1.060505e+02	-1.741841e-03
1.066631e+02	-1.762016e-03
1.072791e+02	-1.782425e-03
1.078988e+02	-1.803071e-03
1.085220e+02	-1.823956e-03
1.091488e+02	-1.845082e-03
1.097793e+02	-1.866453e-03
1.104133e+02	-1.888072e-03
1.110511e+02	-1.909941e-03
1.116925e+02	-1.932063e-03
1.123376e+02	-1.954442e-03
1.129865e+02	-1.977079e-03
1.136391e+02	-1.999979e-03
1.142955e+02	-2.023144e-03
1.149556e+02	-2.046577e-03
1.156196e+02	-2.070282e-03
1.162874e+02	-2.094260e-03
1.169591e+02	-2.118517e-03
1.176347e+02	-2.143055e-03
1.183141e+02	-2.167876e-03
1.189975e+02	-2.192985e-03
1.196848e+02	-2.218385e-03
1.203761e+02	-2.244079e-03
1.210714e+02	-2.270071e-03
1.217707e+02	-2.296363e-03
1.224740e+02	-2.322960e-03
1.231814e+02	-2.349865e-03
1.238929e+02	-2.377081e-03
1.246085e+02	-2.404613e-03
1.253283e+02	-2.432463e-03
1.260522e+02	-2.460636e-03
1.267802e+02	-2.489134e-03
1.275125e+02	-2.517963e-03
1.282490e+02	-2.547126e-03
1.289898e+02	-2.576626e-03
1.297348e+02	-2.606468e-03
1.304842e+02	-2.636656e-03
1.312378e+02	-2.667193e-03
1.319959e+02	-2.698083e-03
1.327583e+02	-2.729331e-03
1.335251e+02	-2.760941e-03
1.342963e+02	-2.792917e-03
1.350720e+02	-2.825264e-03
1.358522e+02	-2.857984e-03
1.366368e+02	-2.891084e-03
1.374260e+02	-2.924566e-03
1.382198e+02	-2.958437e-03
1.390182e+02	-2.992699e-03
1.398211e+02	-3.027358e-03
1.406287e+02	-3.062419e-03
1.414410e+02	-3.097885e-03
1.422579e+02	-3.133762e-03
1.430796e+02	-3.170054e-03
1.439060e+02	-3.206766e-03
1.447372e+02	-3.243903e-03
1.455732e+02	-3.281471e-03
1.464141e+02	-3.319473e-03
1.472597e+02	-3.357915e-03
1.481103e+02	-3.396802e-03
1.489658e+02	-3.436139e-03
1.498262e+02	-3.475932e-03
1.506916e+02	-3.516185e-03
1.515620e+02	-3.556904e-03
1.524374e+02	-3.598095e-03
1.533179e+02	-3.639762e-03
1.542034e+02	-3.681912e-03
1.550941e+02	-3.724550e-03
1.559899e+02	-3.767681e-03
1.568909e+02	-3.811311e-03
1.577971e+02	-3.855447e-03
1.587085e+02	-3.900093e-03
1.596252e+02	-3.945256e-03
1.605472e+02	-3.990942e-03
1.614745e+02	-4.037156e-03
1.624072e+02	-4.083906e-03
1.633453e+02	-4.131196e-03
1.642887e+02	-4.179034e-03
1.652377e+02	-4.227426e-03
1.661921e+02	-4.276377e-03
1.671520e+02	-4.325896e-03
1.681175e+02	-4.375987e-03
1.690885e+02	-4.426658e-03
1.700651e+02	-4.477915e-03
1.710474e+02	-4.529766e-03
1.720354e+02	-4.582217e-03
1.730291e+02	-4.635275e-03
1.740285e+02	-4.688947e-03
1.750337e+02	-4.743239e-03
1.760446e+02	-4.798161e-03
1.770615e+02	-4.853717e-03
1.780842e+02	-4.909917e-03
1.791128e+02	-4.966767e-03
1.801473e+02	-5.024275e-03
1.811878e+02	-5.082449e-03
1.822344e+02	-5.141295e-03
1.832870e+02	-5.200823e-03
1.843456e+02	-5.261039e-03
1.854104e+02	-5.321952e-03
1.864813e+02	-5.383570e-03
1.875584e+02	-5.445901e-03
1.886418e+02	-5.508953e-03
1.897313e+02	-5.572734e-03
1.908272e+02	-5.637254e-03
1.919294e+02	-5.702520e-03
1.930380e+02	-5.768541e-03
1.941530e+02	-5.835326e-03
1.952744e+02	-5.902884e-03
1.964023e+02	-5.971223e-03
1.975367e+02	-6.040353e-03
1.986777e+02	-6.110283e-03
1.998252e+02	-6.181022e-03
2.009794e+02	-6.252579e-03
2.021403e+02	-6.324963e-03
2.033078e+02	-6.398186e-03
2.044821e+02	-6.472255e-03
2.056632e+02	-6.547181e-03
2.068511e+02	-6.622974e-03
2.080459e+02	-6.699643e-03
2.092475e+02	-6.777200e-03
2.104561e+02	-6.855653e-03
2.116717e+02	-6.935014e-03
2.128943e+02	-7.015293e-03
2.141240e+02	-7.096500e-03
2.153608e+02	-7.178647e-03
2.166047e+02	-7.261744e-03
2.178558e+02	-7.345801e-03
2.191141e+02	-7.430831e-03
2.203797e+02	-7.516845e-03
2.216526e+02	-7.603853e-03
2.229329e+02	-7.691867e-03
2.242205e+02	-7.780899e-03
2.255156e+02	-7.870961e-03
2.268182e+02	-7.962064e-03
2.281283e+02	-8.054221e-03
2.294459e+02	-8.147444e-03
2.307712e+02	-8.241744e-03
2.321041e+02	-8.337135e-03
2.334447e+02	-8.433629e-03
2.347931e+02	-8.531238e-03
2.361493e+02	-8.629976e-03
2.375133e+02	-8.729856e-03
2.388851e+02	-8.830890e-03
2.402649e+02	-8.933093e-03
2.416527e+02	-9.036477e-03
2.430484e+02	-9.141056e-03
2.444523e+02	-9.246845e-03
2.458642e+02	-9.353856e-03
2.472843e+02	-9.462105e-03
2.487126e+02	-9.571604e-03
2.501492e+02	-9.682370e-03
2.515940e+02	-9.794416e-03
2.530472e+02	-9.907757e-03
2.545088e+02	-1.002241e-02
2.559789e+02	-1.013838e-02
2.574574e+02	-1.025570e-02
2.589444e+02	-1.037437e-02
2.604401e+02	-1.049442e-02
2.619444e+02	-1.061585e-02
2.634574e+02	-1.073868e-02
2.649791e+02	-1.086294e-02
2.665096e+02	-1.098863e-02
2.680489e+02	-1.111577e-02
2.695972e+02	-1.124438e-02
2.711544e+02	-1.137448e-02
2.727205e+02	-1.150608e-02
2.742958e+02	-1.163920e-02
2.758801e+02	-1.177386e-02
2.774736e+02	-1.191008e-02
2.790762e+02	-1.204787e-02
2.806882e+02	-1.218725e-02
2.823094e+02	-1.232824e-02
2.839400e+02	-1.247086e-02
2.855800e+02	-1.261513e-02
2.872295e+02	-1.276106e-02
2.888886e+02	-1.290868e-02
2.905572e+02	-1.305801e-02
2.922354e+02	-1.320906e-02
2.939234e+02	-1.336185e-02
2.956211e+02	-1.351641e-02
2.973286e+02	-1.367275e-02
2.990459e+02	-1.383090e-02
3.007732e+02	-1.399088e-02
3.025104e+02	-1.415270e-02
3.042577e+02	-1.431639e-02
3.060151e+02	-1.448197e-02
3.077826e+02	-1.464947e-02
3.095604e+02	-1.481889e-02
3.113484e+02	-1.499028e-02
3.131467e+02	-1.516364e-02
3.149554e+02	-1.533900e-02
3.167746e+02	-1.551639e-02
3.186043e+02	-1.569582e-02
3.204445e+02	-1.587733e-02
3.222954e+02	-1.606093e-02
3.241570e+02	-1.624665e-02
3.260293e+02	-1.643452e-02
3.279124e+02	-1.662455e-02
3.298064e+02	-1.681678e-02
3.317114e+02	-1.701122e-02
3.336273e+02	-1.720791e-02
3.355544e+02	-1.740686e-02
3.374925e+02	-1.760812e-02
3.394418e+02	-1.781169e-02
3.414024e+02	-1.801762e-02
3.433744e+02	-1.822591e-02
3.453577e+02	-1.843662e-02
3.473525e+02	-1.864975e-02
3.493588e+02	-1.886534e-02
3.513766e+02	-1.908342e-02
3.534062e+02	-1.930401e-02
3.554474e+02	-1.952715e-02
3.575005e+02	-1.975286e-02
3.595654e+02	-1.998117e-02
3.616422e+02	-2.021212e-02
3.637311e+02	-2.044573e-02
3.658320e+02	-2.068203e-02
3.679450e+02	-2.092106e-02
3.700702e+02	-2.116284e-02
3.722077e+02	-2.140741e-02
3.743576e+02	-2.165480e-02
3.765199e+02	-2.190505e-02
3.786946e+02	-2.215817e-02
3.808820e+02	-2.241422e-02
3.830819e+02	-2.267321e-02
3.852946e+02	-2.293519e-02
3.875200e+02	-2.320019e-02
3.897583e+02	-2.346824e-02
3.920096e+02	-2.373938e-02
3.942738e+02	-2.401364e-02
3.965511e+02	-2.429107e-02
3.988416e+02	-2.457169e-02
4.011452e+02	-2.485554e-02
4.034622e+02	-2.514266e-02
4.057926e+02	-2.543309e-02
4.081365e+02	-2.572686e-02
4.104938e+02	-2.602402e-02
4.128648e+02	-2.632460e-02
4.152495e+02	-2.662864e-02
4.176480e+02	-2.693618e-02
4.200603e+02	-2.724726e-02
4.224866e+02	-2.756192e-02
4.249268e+02	-2.788020e-02
4.273812e+02	-2.820215e-02
4.298497e+02	-2.852780e-02
4.323325e+02	-2.885720e-02
4.348297e+02	-2.919039e-02
4.373412e+02	-2.952742e-02
4.398673e+02	-2.986832e-02
4.424079e+02	-3.021315e-02
4.449633e+02	-3.056194e-02
4.475334e+02	-3.091474e-02
4.501183e+02	-3.127161e-02
4.527182e+02	-3.163257e-02
4.553330e+02	-3.199769e-02
4.579630e+02	-3.236701e-02
4.606082e+02	-3.274057e-02
4.632687e+02	-3.311843e-02
4.659445e+02	-3.350063e-02
4.686358e+02	-3.388722e-02
4.713426e+02	-3.427826e-02
4.740650e+02	-3.467379e-02
4.768032e+02	-3.507387e-02
4.795572e+02	-3.547855e-02
4.823271e+02	-3.588787e-02
4.851130e+02	-3.630190e-02
4.879150e+02	-3.672069e-02
4.907332e+02	-3.714428e-02
4.935676e+02	-3.757274e-02
4.964185e+02	-3.800612e-02
4.992858e+02	-3.844448e-02
5.021696e+02	-3.888787e-02
5.050701e+02	-3.933635e-02
5.079874e+02	-3.978998e-02
5.109215e+02	-4.024881e-02
5.138726e+02	-4.071292e-02
5.168407e+02	-4.118235e-02
5.198259e+02	-4.165716e-02
5.228284e+02	-4.213742e-02
5.258482e+02	-4.262319e-02
5.288855e+02	-4.311454e-02
5.319403e+02	-4.361152e-02
5.350128e+02	-4.411420e-02
5.381030e+02	-4.462264e-02
5.412111e+02	-4.513691e-02
5.443371e+02	-4.565708e-02
5.474812e+02	-4.618321e-02
5.506434e+02	-4.671538e-02
5.538239e+02	-4.725364e-02
5.570228e+02	-4.779806e-02
5.602401e+02	-4.834873e-02
5.634760e+02	-4.890570e-02
5.667306e+02	-4.946905e-02
5.700040e+02	-5.003886e-02
5.732964e+02	-5.061519e-02
5.766077e+02	-5.119812e-02
5.799382e+02	-5.178772e-02
5.832879e+02	-5.238407e-02
5.866569e+02	-5.298724e-02
5.900454e+02	-5.359732e-02
5.934535e+02	-5.421438e-02
5.968813e+02	-5.483849e-02
6.003288e+02	-5.546975e-02
6.037963e+02	-5.610823e-02
6.072838e+02	-5.675400e-02
6.107914e+02	-5.740716e-02
6.143194e+02	-5.806779e-02
6.178676e+02	-5.873596e-02
6.214364e+02	-5.941177e-02
6.250258e+02	-6.009531e-02
6.286359e+02	-6.078665e-02
6.322669e+02	-6.148589e-02
6.359189e+02	-6.219312e-02
6.395919e+02	-6.290842e-02
6.432862e+02	-6.363188e-02
6.470017e+02	-6.436361e-02
6.507388e+02	-6.510369e-02
6.544974e+02	-6.585221e-02
6.582778e+02	-6.660927e-02
6.620800e+02	-6.737497e-02
6.659041e+02	-6.814940e-02
6.697504e+02	-6.893266e-02
6.736188e+02	-6.972485e-02
6.775096e+02	-7.052607e-02
6.814229e+02	-7.133642e-02
6.853587e+02	-7.215600e-02
6.893173e+02	-7.298492e-02
6.932988e+02	-7.382329e-02
6.973033e+02	-7.467120e-02
7.013309e+02	-7.552876e-02
