Frequency(Hz)	Magnitude(dB)
1.000000e+01	-2.100034e+00
1.005776e+01	-2.119365e+00
1.011585e+01	-2.138811e+00
1.017428e+01	-2.158137e+00
1.023305e+01	-2.177984e+00
1.029215e+01	-2.197573e+00
1.035160e+01	-2.217370e+00
1.041139e+01	-2.237801e+00
1.047153e+01	-2.257730e+00
1.053201e+01	-2.278259e+00
1.059284e+01	-2.298537e+00
1.065403e+01	-2.319264e+00
1.071556e+01	-2.339748e+00
1.077746e+01	-2.360988e+00
1.083971e+01	-2.381894e+00
1.090232e+01	-2.403539e+00
1.096529e+01	-2.424419e+00
1.102862e+01	-2.446214e+00
1.109232e+01	-2.467568e+00
1.115639e+01	-2.489638e+00
1.122083e+01	-2.511376e+00
1.128564e+01	-2.533273e+00
1.135083e+01	-2.555633e+00
1.141639e+01	-2.577801e+00
1.148233e+01	-2.600269e+00
1.154865e+01	-2.622913e+00
1.161536e+01	-2.645568e+00
1.168245e+01	-2.668575e+00
1.174992e+01	-2.691589e+00
1.181779e+01	-2.714879e+00
1.188605e+01	-2.738133e+00
1.195470e+01	-2.761404e+00
1.202375e+01	-2.785280e+00
1.209320e+01	-2.808913e+00
1.216305e+01	-2.832799e+00
1.223330e+01	-2.857011e+00
1.230396e+01	-2.881283e+00
1.237503e+01	-2.905594e+00
1.244651e+01	-2.929768e+00
1.251840e+01	-2.954382e+00
1.259070e+01	-2.979236e+00
1.266343e+01	-3.004051e+00
1.273657e+01	-3.029316e+00
1.281014e+01	-3.054314e+00
1.288413e+01	-3.079776e+00
1.295855e+01	-3.105176e+00
1.303339e+01	-3.130650e+00
1.310867e+01	-3.156566e+00
1.318439e+01	-3.182661e+00
1.326054e+01	-3.208614e+00
1.333713e+01	-3.234679e+00
1.341417e+01	-3.260816e+00
1.349165e+01	-3.287400e+00
1.356958e+01	-3.314127e+00
1.364795e+01	-3.341026e+00
1.372678e+01	-3.367665e+00
1.380607e+01	-3.394932e+00
1.388581e+01	-3.422118e+00
1.396602e+01	-3.449518e+00
1.404668e+01	-3.477056e+00
1.412782e+01	-3.504820e+00
1.420942e+01	-3.532717e+00
1.429149e+01	-3.560348e+00
1.437404e+01	-3.588414e+00
1.445706e+01	-3.616716e+00
1.454057e+01	-3.644936e+00
1.462455e+01	-3.673560e+00
1.470902e+01	-3.702171e+00
1.479398e+01	-3.730903e+00
1.487943e+01	-3.759773e+00
1.496537e+01	-3.788938e+00
1.505181e+01	-3.817902e+00
1.513875e+01	-3.847013e+00
1.522619e+01	-3.876969e+00
1.531414e+01	-3.906378e+00
1.540259e+01	-3.936158e+00
1.549156e+01	-3.965877e+00
1.558103e+01	-3.996076e+00
1.567103e+01	-4.026210e+00
1.576155e+01	-4.056371e+00
1.585258e+01	-4.087016e+00
1.594415e+01	-4.117424e+00
1.603624e+01	-4.148382e+00
1.612886e+01	-4.178938e+00
1.622202e+01	-4.209918e+00
1.631572e+01	-4.241024e+00
1.640996e+01	-4.272504e+00
1.650474e+01	-4.303592e+00
1.660008e+01	-4.335295e+00
1.669596e+01	-4.367203e+00
1.679239e+01	-4.398847e+00
1.688938e+01	-4.430453e+00
1.698694e+01	-4.462862e+00
1.708505e+01	-4.494968e+00
1.718373e+01	-4.527202e+00
1.728299e+01	-4.559487e+00
1.738281e+01	-4.592255e+00
1.748322e+01	-4.625114e+00
1.758420e+01	-4.657779e+00
1.768576e+01	-4.690852e+00
1.778792e+01	-4.723872e+00
1.789066e+01	-4.757067e+00
1.799399e+01	-4.790464e+00
1.809793e+01	-4.824027e+00
1.820246e+01	-4.857520e+00
1.830760e+01	-4.891385e+00
1.841334e+01	-4.925289e+00
1.851969e+01	-4.959078e+00
1.862666e+01	-4.993526e+00
1.873425e+01	-5.027732e+00
1.884246e+01	-5.061868e+00
1.895129e+01	-5.096419e+00
1.906075e+01	-5.131065e+00
1.917085e+01	-5.165789e+00
1.928158e+01	-5.200371e+00
1.939295e+01	-5.235711e+00
1.950496e+01	-5.270443e+00
1.961762e+01	-5.305965e+00
1.973093e+01	-5.341089e+00
1.984490e+01	-5.376796e+00
1.995952e+01	-5.412492e+00
2.007480e+01	-5.447947e+00
2.019076e+01	-5.483830e+00
2.030738e+01	-5.519650e+00
2.042467e+01	-5.555610e+00
2.054264e+01	-5.592138e+00
2.066130e+01	-5.628128e+00
2.078064e+01	-5.664725e+00
2.090066e+01	-5.701094e+00
2.102139e+01	-5.737682e+00
2.114280e+01	-5.774627e+00
2.126492e+01	-5.811457e+00
2.138775e+01	-5.848418e+00
2.151128e+01	-5.885111e+00
2.163553e+01	-5.922444e+00
2.176050e+01	-5.960007e+00
2.188619e+01	-5.997219e+00
2.201260e+01	-6.035114e+00
2.213974e+01	-6.072281e+00
2.226762e+01	-6.110121e+00
2.239624e+01	-6.147852e+00
2.252560e+01	-6.185472e+00
2.265571e+01	-6.223860e+00
2.278656e+01	-6.261958e+00
2.291818e+01	-6.300101e+00
2.305055e+01	-6.338579e+00
2.318369e+01	-6.377178e+00
2.331760e+01	-6.415504e+00
2.345228e+01	-6.454259e+00
2.358774e+01	-6.493240e+00
2.372398e+01	-6.532014e+00
2.386101e+01	-6.570993e+00
2.399883e+01	-6.609931e+00
2.413745e+01	-6.648599e+00
2.427686e+01	-6.688429e+00
2.441709e+01	-6.727478e+00
2.455812e+01	-6.767235e+00
2.469997e+01	-6.807083e+00
2.484263e+01	-6.846174e+00
2.498612e+01	-6.885686e+00
2.513044e+01	-6.925729e+00
2.527559e+01	-6.965545e+00
2.542158e+01	-7.005638e+00
2.556842e+01	-7.046040e+00
2.571610e+01	-7.085954e+00
2.586463e+01	-7.126433e+00
2.601403e+01	-7.166794e+00
2.616428e+01	-7.207261e+00
2.631541e+01	-7.247920e+00
2.646740e+01	-7.288534e+00
2.662028e+01	-7.329204e+00
2.677404e+01	-7.369974e+00
2.692868e+01	-7.410807e+00
2.708422e+01	-7.452004e+00
2.724066e+01	-7.492973e+00
2.739800e+01	-7.533997e+00
2.755625e+01	-7.575260e+00
2.771541e+01	-7.616513e+00
2.787550e+01	-7.657864e+00
2.803650e+01	-7.700086e+00
2.819844e+01	-7.740825e+00
2.836131e+01	-7.782359e+00
2.852513e+01	-7.824574e+00
2.868989e+01	-7.865898e+00
2.885560e+01	-7.908092e+00
2.902227e+01	-7.950005e+00
2.918990e+01	-7.991868e+00
2.935850e+01	-8.034312e+00
2.952807e+01	-8.076444e+00
2.969863e+01	-8.118724e+00
2.987016e+01	-8.160984e+00
3.004269e+01	-8.203917e+00
3.021622e+01	-8.246082e+00
3.039075e+01	-8.288658e+00
3.056628e+01	-8.331139e+00
3.074283e+01	-8.374102e+00
3.092040e+01	-8.416970e+00
3.109900e+01	-8.459714e+00
3.127862e+01	-8.502320e+00
3.145929e+01	-8.545519e+00
3.164099e+01	-8.588637e+00
3.182375e+01	-8.632008e+00
3.200756e+01	-8.674454e+00
3.219244e+01	-8.718519e+00
3.237838e+01	-8.761536e+00
3.256540e+01	-8.804902e+00
3.275349e+01	-8.848689e+00
3.294268e+01	-8.891875e+00
3.313295e+01	-8.935942e+00
3.332433e+01	-8.979458e+00
3.351681e+01	-9.022945e+00
3.371040e+01	-9.066683e+00
3.390511e+01	-9.110278e+00
3.410094e+01	-9.154141e+00
3.429791e+01	-9.198560e+00
3.449601e+01	-9.242909e+00
3.469526e+01	-9.286651e+00
3.489566e+01	-9.330924e+00
3.509721e+01	-9.375389e+00
3.529993e+01	-9.419437e+00
3.550382e+01	-9.463986e+00
3.570889e+01	-9.508087e+00
3.591515e+01	-9.552569e+00
3.612259e+01	-9.597016e+00
3.633123e+01	-9.641096e+00
3.654108e+01	-9.686531e+00
3.675214e+01	-9.731177e+00
3.696442e+01	-9.775930e+00
3.717792e+01	-9.820212e+00
3.739266e+01	-9.865239e+00
3.760864e+01	-9.909894e+00
3.782587e+01	-9.955179e+00
3.804435e+01	-9.999919e+00
3.826409e+01	-1.004518e+01
3.848510e+01	-1.009052e+01
3.870739e+01	-1.013576e+01
3.893096e+01	-1.018067e+01
3.915583e+01	-1.022539e+01
3.938199e+01	-1.027113e+01
3.960946e+01	-1.031634e+01
3.983824e+01	-1.036195e+01
4.006834e+01	-1.040713e+01
4.029978e+01	-1.045231e+01
4.053255e+01	-1.049851e+01
4.076666e+01	-1.054368e+01
4.100213e+01	-1.058948e+01
4.123896e+01	-1.063555e+01
4.147715e+01	-1.068115e+01
4.171672e+01	-1.072663e+01
4.195767e+01	-1.077233e+01
4.220002e+01	-1.081852e+01
4.244377e+01	-1.086465e+01
4.268892e+01	-1.091066e+01
4.293549e+01	-1.095646e+01
4.318348e+01	-1.100210e+01
4.343291e+01	-1.104864e+01
4.368377e+01	-1.109494e+01
4.393609e+01	-1.114037e+01
4.418986e+01	-1.118657e+01
4.444510e+01	-1.123309e+01
4.470182e+01	-1.127959e+01
4.496001e+01	-1.132541e+01
4.521970e+01	-1.137230e+01
4.548089e+01	-1.141822e+01
4.574358e+01	-1.146515e+01
4.600779e+01	-1.151110e+01
4.627353e+01	-1.155813e+01
4.654081e+01	-1.160478e+01
4.680963e+01	-1.165127e+01
4.708000e+01	-1.169724e+01
4.735193e+01	-1.174468e+01
4.762543e+01	-1.179114e+01
4.790051e+01	-1.183800e+01
4.817719e+01	-1.188410e+01
4.845545e+01	-1.193111e+01
4.873533e+01	-1.197895e+01
4.901682e+01	-1.202501e+01
4.929994e+01	-1.207157e+01
4.958470e+01	-1.211901e+01
4.987110e+01	-1.216609e+01
5.015915e+01	-1.221362e+01
5.044887e+01	-1.225995e+01
5.074026e+01	-1.230654e+01
5.103333e+01	-1.235409e+01
5.132810e+01	-1.240077e+01
5.162457e+01	-1.244848e+01
5.192275e+01	-1.249558e+01
5.222265e+01	-1.254230e+01
5.252429e+01	-1.259006e+01
5.282767e+01	-1.263772e+01
5.313280e+01	-1.268424e+01
5.343969e+01	-1.273230e+01
5.374836e+01	-1.277929e+01
5.405880e+01	-1.282663e+01
5.437105e+01	-1.287431e+01
5.468509e+01	-1.292212e+01
5.500095e+01	-1.296887e+01
5.531863e+01	-1.301625e+01
5.563815e+01	-1.306390e+01
5.595951e+01	-1.311154e+01
5.628273e+01	-1.315961e+01
5.660782e+01	-1.320715e+01
5.693479e+01	-1.325489e+01
5.726364e+01	-1.330219e+01
5.759439e+01	-1.334917e+01
5.792705e+01	-1.339804e+01
5.826164e+01	-1.344569e+01
5.859815e+01	-1.349321e+01
5.893662e+01	-1.354071e+01
5.927703e+01	-1.358897e+01
5.961941e+01	-1.363685e+01
5.996377e+01	-1.368495e+01
6.031012e+01	-1.373323e+01
6.065847e+01	-1.378113e+01
6.100883e+01	-1.382911e+01
6.136121e+01	-1.387562e+01
6.171563e+01	-1.392428e+01
6.207210e+01	-1.397259e+01
6.243063e+01	-1.402056e+01
6.279122e+01	-1.406866e+01
6.315390e+01	-1.411626e+01
6.351868e+01	-1.416495e+01
6.388556e+01	-1.421237e+01
6.425456e+01	-1.426092e+01
6.462569e+01	-1.430903e+01
6.499897e+01	-1.435607e+01
6.537440e+01	-1.440541e+01
6.575200e+01	-1.445424e+01
6.613178e+01	-1.450122e+01
6.651375e+01	-1.455038e+01
6.689793e+01	-1.459816e+01
6.728433e+01	-1.464632e+01
6.767297e+01	-1.469543e+01
6.806384e+01	-1.474363e+01
6.845698e+01	-1.479286e+01
6.885238e+01	-1.484051e+01
6.925007e+01	-1.488925e+01
6.965005e+01	-1.493668e+01
7.005235e+01	-1.498591e+01
7.045697e+01	-1.503381e+01
7.086393e+01	-1.508251e+01
7.127323e+01	-1.513107e+01
7.168490e+01	-1.517919e+01
7.209895e+01	-1.522777e+01
7.251539e+01	-1.527612e+01
7.293424e+01	-1.532457e+01
7.335551e+01	-1.537359e+01
7.377920e+01	-1.542181e+01
7.420535e+01	-1.547050e+01
7.463396e+01	-1.552004e+01
7.506504e+01	-1.556828e+01
7.549861e+01	-1.561689e+01
7.593469e+01	-1.566484e+01
7.637328e+01	-1.571375e+01
7.681441e+01	-1.576174e+01
7.725809e+01	-1.581084e+01
7.770433e+01	-1.585982e+01
7.815315e+01	-1.590967e+01
7.860456e+01	-1.595737e+01
7.905857e+01	-1.600630e+01
7.951521e+01	-1.605509e+01
7.997449e+01	-1.610409e+01
8.043642e+01	-1.615263e+01
8.090102e+01	-1.620083e+01
8.136830e+01	-1.624861e+01
8.183828e+01	-1.629876e+01
8.231097e+01	-1.634887e+01
8.278640e+01	-1.639673e+01
8.326457e+01	-1.644573e+01
8.374550e+01	-1.649454e+01
8.422921e+01	-1.654429e+01
8.471572e+01	-1.659292e+01
8.520503e+01	-1.664183e+01
8.569717e+01	-1.669041e+01
8.619215e+01	-1.673951e+01
8.669000e+01	-1.678910e+01
8.719071e+01	-1.683604e+01
8.769432e+01	-1.688581e+01
8.820084e+01	-1.693559e+01
8.871029e+01	-1.698372e+01
8.922267e+01	-1.703417e+01
8.973802e+01	-1.708234e+01
9.025634e+01	-1.713184e+01
9.077766e+01	-1.718013e+01
9.130199e+01	-1.723049e+01
9.182935e+01	-1.727801e+01
9.235975e+01	-1.732905e+01
9.289321e+01	-1.737672e+01
9.342976e+01	-1.742537e+01
9.396941e+01	-1.747523e+01
9.451217e+01	-1.752413e+01
9.505807e+01	-1.757348e+01
9.560712e+01	-1.762326e+01
9.615934e+01	-1.767210e+01
9.671476e+01	-1.772097e+01
9.727338e+01	-1.776993e+01
9.783522e+01	-1.781925e+01
9.840032e+01	-1.786832e+01
9.896867e+01	-1.791811e+01
9.954031e+01	-1.796639e+01
1.001153e+02	-1.801609e+01
1.006935e+02	-1.806482e+01
1.012751e+02	-1.811483e+01
1.018601e+02	-1.816289e+01
1.024484e+02	-1.821217e+01
1.030402e+02	-1.826380e+01
1.036353e+02	-1.831275e+01
1.042339e+02	-1.836178e+01
1.048360e+02	-1.841097e+01
1.054415e+02	-1.845925e+01
1.060505e+02	-1.850883e+01
1.066631e+02	-1.855877e+01
1.072791e+02	-1.860804e+01
1.078988e+02	-1.865788e+01
1.085220e+02	-1.870642e+01
1.091488e+02	-1.875662e+01
1.097793e+02	-1.880631e+01
1.104133e+02	-1.885429e+01
1.110511e+02	-1.890388e+01
1.116925e+02	-1.895412e+01
1.123376e+02	-1.900172e+01
1.129865e+02	-1.905247e+01
1.136391e+02	-1.910112e+01
1.142955e+02	-1.915098e+01
1.149556e+02	-1.920056e+01
1.156196e+02	-1.925104e+01
1.162874e+02	-1.930026e+01
1.169591e+02	-1.935044e+01
1.176347e+02	-1.940043e+01
1.183141e+02	-1.944893e+01
1.189975e+02	-1.949645e+01
1.196848e+02	-1.954755e+01
1.203761e+02	-1.959590e+01
1.210714e+02	-1.964491e+01
1.217707e+02	-1.969572e+01
1.224740e+02	-1.974596e+01
1.231814e+02	-1.979521e+01
1.238929e+02	-1.984421e+01
1.246085e+02	-1.989192e+01
1.253283e+02	-1.994296e+01
1.260522e+02	-1.999256e+01
1.267802e+02	-2.004198e+01
1.275125e+02	-2.009123e+01
1.282490e+02	-2.014116e+01
1.289898e+02	-2.019026e+01
1.297348e+02	-2.024183e+01
1.304842e+02	-2.028954e+01
1.312378e+02	-2.033972e+01
1.319959e+02	-2.039147e+01
1.327583e+02	-2.043899e+01
1.335251e+02	-2.048946e+01
1.342963e+02	-2.053794e+01
1.350720e+02	-2.058667e+01
1.358522e+02	-2.063697e+01
1.366368e+02	-2.068846e+01
1.374260e+02	-2.073593e+01
1.382198e+02	-2.078720e+01
1.390182e+02	-2.083615e+01
1.398211e+02	-2.088351e+01
1.406287e+02	-2.093317e+01
1.414410e+02	-2.098456e+01
1.422579e+02	-2.103376e+01
1.430796e+02	-2.108272e+01
1.439060e+02	-2.113311e+01
1.447372e+02	-2.118193e+01
1.455732e+02	-2.123429e+01
1.464141e+02	-2.128193e+01
1.472597e+02	-2.133235e+01
1.481103e+02	-2.138089e+01
1.489658e+02	-2.143111e+01
1.498262e+02	-2.148087e+01
1.506916e+02	-2.152865e+01
1.515620e+02	-2.157998e+01
1.524374e+02	-2.163037e+01
1.533179e+02	-2.167869e+01
1.542034e+02	-2.173095e+01
1.550941e+02	-2.177931e+01
1.559899e+02	-2.183134e+01
1.568909e+02	-2.188029e+01
1.577971e+02	-2.192743e+01
1.587085e+02	-2.197902e+01
1.596252e+02	-2.202692e+01
1.605472e+02	-2.207692e+01
1.614745e+02	-2.212795e+01
1.624072e+02	-2.217850e+01
1.633453e+02	-2.222741e+01
1.642887e+02	-2.227782e+01
1.652377e+02	-2.232648e+01
1.661921e+02	-2.237552e+01
1.671520e+02	-2.242722e+01
1.681175e+02	-2.247667e+01
1.690885e+02	-2.252649e+01
1.700651e+02	-2.257609e+01
1.710474e+02	-2.262495e+01
1.720354e+02	-2.267479e+01
1.730291e+02	-2.272283e+01
1.740285e+02	-2.277288e+01
1.750337e+02	-2.282450e+01
1.760446e+02	-2.287365e+01
1.770615e+02	-2.292451e+01
1.780842e+02	-2.297327e+01
1.791128e+02	-2.302145e+01
1.801473e+02	-2.307156e+01
1.811878e+02	-2.312339e+01
1.822344e+02	-2.317004e+01
1.832870e+02	-2.322165e+01
1.843456e+02	-2.327060e+01
1.854104e+02	-2.332219e+01
1.864813e+02	-2.337197e+01
1.875584e+02	-2.342296e+01
1.886418e+02	-2.346903e+01
1.897313e+02	-2.352133e+01
1.908272e+02	-2.356853e+01
1.919294e+02	-2.361847e+01
1.930380e+02	-2.367129e+01
1.941530e+02	-2.372039e+01
1.952744e+02	-2.376956e+01
1.964023e+02	-2.381925e+01
1.975367e+02	-2.386842e+01
1.986777e+02	-2.392090e+01
1.998252e+02	-2.396945e+01
2.009794e+02	-2.402068e+01
2.021403e+02	-2.406843e+01
2.033078e+02	-2.411935e+01
2.044821e+02	-2.416688e+01
2.056632e+02	-2.421716e+01
2.068511e+02	-2.427066e+01
2.080459e+02	-2.431984e+01
2.092475e+02	-2.436637e+01
2.104561e+02	-2.442071e+01
2.116717e+02	-2.446967e+01
2.128943e+02	-2.451590e+01
2.141240e+02	-2.456374e+01
2.153608e+02	-2.462239e+01
2.166047e+02	-2.466884e+01
2.178558e+02	-2.471775e+01
2.191141e+02	-2.476731e+01
2.203797e+02	-2.481793e+01
2.216526e+02	-2.486552e+01
2.229329e+02	-2.491656e+01
2.242205e+02	-2.496833e+01
2.255156e+02	-2.501819e+01
2.268182e+02	-2.506722e+01
2.281283e+02	-2.511620e+01
2.294459e+02	-2.516487e+01
2.307712e+02	-2.521742e+01
2.321041e+02	-2.526748e+01
2.334447e+02	-2.531616e+01
2.347931e+02	-2.536693e+01
2.361493e+02	-2.541718e+01
2.375133e+02	-2.546557e+01
2.388851e+02	-2.551752e+01
2.402649e+02	-2.556513e+01
2.416527e+02	-2.561472e+01
2.430484e+02	-2.566392e+01
2.444523e+02	-2.571571e+01
2.458642e+02	-2.576266e+01
2.472843e+02	-2.581710e+01
2.487126e+02	-2.586742e+01
2.501492e+02	-2.591859e+01
2.515940e+02	-2.596466e+01
2.530472e+02	-2.601615e+01
2.545088e+02	-2.606604e+01
2.559789e+02	-2.611555e+01
2.574574e+02	-2.616532e+01
2.589444e+02	-2.621858e+01
2.604401e+02	-2.626479e+01
2.619444e+02	-2.631796e+01
2.634574e+02	-2.636408e+01
2.649791e+02	-2.641733e+01
2.665096e+02	-2.646503e+01
2.680489e+02	-2.651291e+01
2.695972e+02	-2.656708e+01
2.711544e+02	-2.661362e+01
2.727205e+02	-2.666393e+01
2.742958e+02	-2.671713e+01
2.758801e+02	-2.676299e+01
2.774736e+02	-2.681715e+01
2.790762e+02	-2.686748e+01
2.806882e+02	-2.691286e+01
2.823094e+02	-2.696458e+01
2.839400e+02	-2.701607e+01
2.855800e+02	-2.706589e+01
2.872295e+02	-2.711618e+01
2.888886e+02	-2.716627e+01
2.905572e+02	-2.721452e+01
2.922354e+02	-2.726183e+01
2.939234e+02	-2.731460e+01
2.956211e+02	-2.736392e+01
2.973286e+02	-2.741356e+01
2.990459e+02	-2.746626e+01
3.007732e+02	-2.751746e+01
3.025104e+02	-2.756747e+01
3.042577e+02	-2.761338e+01
3.060151e+02	-2.766397e+01
3.077826e+02	-2.771641e+01
3.095604e+02	-2.776639e+01
3.113484e+02	-2.781584e+01
3.131467e+02	-2.786566e+01
3.149554e+02	-2.791713e+01
3.167746e+02	-2.796127e+01
3.186043e+02	-2.801659e+01
3.204445e+02	-2.806097e+01
3.222954e+02	-2.811324e+01
3.241570e+02	-2.816547e+01
3.260293e+02	-2.821507e+01
3.279124e+02	-2.826204e+01
3.298064e+02	-2.830990e+01
3.317114e+02	-2.836733e+01
3.336273e+02	-2.841196e+01
3.355544e+02	-2.846608e+01
3.374925e+02	-2.851540e+01
3.394418e+02	-2.856401e+01
3.414024e+02	-2.861322e+01
3.433744e+02	-2.866510e+01
3.453577e+02	-2.871525e+01
3.473525e+02	-2.876440e+01
3.493588e+02	-2.881355e+01
3.513766e+02	-2.886869e+01
3.534062e+02	-2.891479e+01
3.554474e+02	-2.896907e+01
3.575005e+02	-2.901612e+01
3.595654e+02	-2.906589e+01
3.616422e+02	-2.911644e+01
3.637311e+02	-2.916898e+01
3.658320e+02	-2.921739e+01
3.679450e+02	-2.926756e+01
3.700702e+02	-2.931390e+01
3.722077e+02	-2.937037e+01
3.743576e+02	-2.941333e+01
3.765199e+02	-2.946970e+01
3.786946e+02	-2.951581e+01
3.808820e+02	-2.956702e+01
3.830819e+02	-2.961966e+01
3.852946e+02	-2.966708e+01
3.875200e+02	-2.971621e+01
3.897583e+02	-2.977076e+01
3.920096e+02	-2.981614e+01
3.942738e+02	-2.986971e+01
3.965511e+02	-2.991702e+01
3.988416e+02	-2.996549e+01
4.011452e+02	-3.001805e+01
4.034622e+02	-3.006921e+01
4.057926e+02	-3.012575e+01
4.081365e+02	-3.016558e+01
4.104938e+02	-3.021620e+01
4.128648e+02	-3.026674e+01
4.152495e+02	-3.031865e+01
4.176480e+02	-3.036506e+01
4.200603e+02	-3.042195e+01
4.224866e+02	-3.046875e+01
4.249268e+02	-3.051910e+01
4.273812e+02	-3.057142e+01
4.298497e+02	-3.061996e+01
4.323325e+02	-3.067404e+01
4.348297e+02	-3.071917e+01
4.373412e+02	-3.076847e+01
4.398673e+02	-3.081606e+01
4.424079e+02	-3.086601e+01
4.449633e+02	-3.091551e+01
4.475334e+02	-3.097078e+01
4.501183e+02	-3.102059e+01
4.527182e+02	-3.106927e+01
4.553330e+02	-3.111846e+01
4.579630e+02	-3.117018e+01
4.606082e+02	-3.121968e+01
4.632687e+02	-3.127205e+01
4.659445e+02	-3.131858e+01
4.686358e+02	-3.137337e+01
4.713426e+02	-3.141910e+01
4.740650e+02	-3.146875e+01
4.768032e+02	-3.151787e+01
4.795572e+02	-3.157285e+01
4.823271e+02	-3.161614e+01
4.851130e+02	-3.167139e+01
4.879150e+02	-3.171712e+01
4.907332e+02	-3.176763e+01
4.935676e+02	-3.181713e+01
4.964185e+02	-3.187605e+01
4.992858e+02	-3.192606e+01
5.021696e+02	-3.196755e+01
5.050701e+02	-3.202228e+01
5.079874e+02	-3.207560e+01
5.109215e+02	-3.212153e+01
5.138726e+02	-3.217523e+01
5.168407e+02	-3.222593e+01
5.198259e+02	-3.226541e+01
5.228284e+02	-3.232450e+01
5.258482e+02	-3.237076e+01
5.288855e+02	-3.242421e+01
5.319403e+02	-3.247207e+01
5.350128e+02	-3.252583e+01
5.381030e+02	-3.256963e+01
5.412111e+02	-3.262454e+01
5.443371e+02	-3.267561e+01
5.474812e+02	-3.271875e+01
5.506434e+02	-3.277202e+01
5.538239e+02	-3.282493e+01
5.570228e+02	-3.287962e+01
5.602401e+02	-3.292645e+01
5.634760e+02	-3.298126e+01
5.667306e+02	-3.302895e+01
5.700040e+02	-3.308160e+01
5.732964e+02	-3.312622e+01
5.766077e+02	-3.317747e+01
5.799382e+02	-3.322731e+01
5.832879e+02	-3.328106e+01
5.866569e+02	-3.333420e+01
5.900454e+02	-3.337942e+01
5.934535e+02	-3.343196e+01
5.968813e+02	-3.348552e+01
6.003288e+02	-3.352580e+01
6.037963e+02	-3.358286e+01
6.072838e+02	-3.362722e+01
6.107914e+02	-3.367983e+01
6.143194e+02	-3.372676e+01
6.178676e+02	-3.377744e+01
6.214364e+02	-3.383476e+01
6.250258e+02	-3.388262e+01
6.286359e+02	-3.392573e+01
6.322669e+02	-3.397681e+01
6.359189e+02	-3.403286e+01
6.395919e+02	-3.408299e+01
6.432862e+02	-3.412699e+01
6.470017e+02	-3.417515e+01
6.507388e+02	-3.424340e+01
6.544974e+02	-3.428616e+01
6.582778e+02	-3.433302e+01
6.620800e+02	-3.439041e+01
6.659041e+02	-3.442995e+01
6.697504e+02	-3.448612e+01
6.736188e+02	-3.453329e+01
6.775096e+02	-3.458631e+01
6.814229e+02	-3.463714e+01
6.853587e+02	-3.468871e+01
6.893173e+02	-3.474473e+01
6.932988e+02	-3.478883e+01
6.973033e+02	-3.483650e+01
7.013309e+02	-3.489029e+01
