Frequency(Hz)	Magnitude(dB)
1.000000e+01	-2.287013e+00
1.005776e+01	-2.307642e+00
1.011585e+01	-2.328582e+00
1.017428e+01	-2.349036e+00
1.023305e+01	-2.370094e+00
1.029215e+01	-2.391402e+00
1.035160e+01	-2.412604e+00
1.041139e+01	-2.433907e+00
1.047153e+01	-2.455388e+00
1.053201e+01	-2.476974e+00
1.059284e+01	-2.499013e+00
1.065403e+01	-2.520885e+00
1.071556e+01	-2.543047e+00
1.077746e+01	-2.565269e+00
1.083971e+01	-2.587757e+00
1.090232e+01	-2.610156e+00
1.096529e+01	-2.632995e+00
1.102862e+01	-2.655789e+00
1.109232e+01	-2.678532e+00
1.115639e+01	-2.701745e+00
1.122083e+01	-2.724929e+00
1.128564e+01	-2.748389e+00
1.135083e+01	-2.771860e+00
1.141639e+01	-2.795576e+00
1.148233e+01	-2.819393e+00
1.154865e+01	-2.843493e+00
1.161536e+01	-2.867543e+00
1.168245e+01	-2.891693e+00
1.174992e+01	-2.915909e+00
1.181779e+01	-2.940652e+00
1.188605e+01	-2.965165e+00
1.195470e+01	-2.990170e+00
1.202375e+01	-3.014956e+00
1.209320e+01	-3.040131e+00
1.216305e+01	-3.065454e+00
1.223330e+01	-3.090938e+00
1.230396e+01	-3.116334e+00
1.237503e+01	-3.141801e+00
1.244651e+01	-3.167941e+00
1.251840e+01	-3.193858e+00
1.259070e+01	-3.219981e+00
1.266343e+01	-3.245990e+00
1.273657e+01	-3.272651e+00
1.281014e+01	-3.299269e+00
1.288413e+01	-3.325909e+00
1.295855e+01	-3.352702e+00
1.303339e+01	-3.379686e+00
1.310867e+01	-3.406781e+00
1.318439e+01	-3.433819e+00
1.326054e+01	-3.461669e+00
1.333713e+01	-3.489124e+00
1.341417e+01	-3.516868e+00
1.349165e+01	-3.544579e+00
1.356958e+01	-3.572307e+00
1.364795e+01	-3.600665e+00
1.372678e+01	-3.628856e+00
1.380607e+01	-3.657391e+00
1.388581e+01	-3.685861e+00
1.396602e+01	-3.714751e+00
1.404668e+01	-3.743307e+00
1.412782e+01	-3.772238e+00
1.420942e+01	-3.801322e+00
1.429149e+01	-3.830423e+00
1.437404e+01	-3.860306e+00
1.445706e+01	-3.889912e+00
1.454057e+01	-3.919120e+00
1.462455e+01	-3.948993e+00
1.470902e+01	-3.979145e+00
1.479398e+01	-4.009224e+00
1.487943e+01	-4.039528e+00
1.496537e+01	-4.069895e+00
1.505181e+01	-4.100107e+00
1.513875e+01	-4.131036e+00
1.522619e+01	-4.161970e+00
1.531414e+01	-4.192425e+00
1.540259e+01	-4.223547e+00
1.549156e+01	-4.254778e+00
1.558103e+01	-4.285922e+00
1.567103e+01	-4.317356e+00
1.576155e+01	-4.349135e+00
1.585258e+01	-4.381018e+00
1.594415e+01	-4.412728e+00
1.603624e+01	-4.444505e+00
1.612886e+01	-4.476678e+00
1.622202e+01	-4.508950e+00
1.631572e+01	-4.541092e+00
1.640996e+01	-4.573926e+00
1.650474e+01	-4.606586e+00
1.660008e+01	-4.639183e+00
1.669596e+01	-4.672300e+00
1.679239e+01	-4.705189e+00
1.688938e+01	-4.738437e+00
1.698694e+01	-4.771688e+00
1.708505e+01	-4.805015e+00
1.718373e+01	-4.838654e+00
1.728299e+01	-4.872126e+00
1.738281e+01	-4.905938e+00
1.748322e+01	-4.940160e+00
1.758420e+01	-4.974012e+00
1.768576e+01	-5.008330e+00
1.778792e+01	-5.042441e+00
1.789066e+01	-5.076962e+00
1.799399e+01	-5.111593e+00
1.809793e+01	-5.145927e+00
1.820246e+01	-5.181084e+00
1.830760e+01	-5.215845e+00
1.841334e+01	-5.250827e+00
1.851969e+01	-5.285950e+00
1.862666e+01	-5.320991e+00
1.873425e+01	-5.356788e+00
1.884246e+01	-5.392291e+00
1.895129e+01	-5.427899e+00
1.906075e+01	-5.463759e+00
1.917085e+01	-5.499503e+00
1.928158e+01	-5.535088e+00
1.939295e+01	-5.571539e+00
1.950496e+01	-5.607972e+00
1.961762e+01	-5.644007e+00
1.973093e+01	-5.680593e+00
1.984490e+01	-5.717050e+00
1.995952e+01	-5.753739e+00
2.007480e+01	-5.790484e+00
2.019076e+01	-5.827322e+00
2.030738e+01	-5.864529e+00
2.042467e+01	-5.901532e+00
2.054264e+01	-5.939262e+00
2.066130e+01	-5.976379e+00
2.078064e+01	-6.013565e+00
2.090066e+01	-6.051063e+00
2.102139e+01	-6.088717e+00
2.114280e+01	-6.126443e+00
2.126492e+01	-6.164386e+00
2.138775e+01	-6.202444e+00
2.151128e+01	-6.240593e+00
2.163553e+01	-6.278611e+00
2.176050e+01	-6.316911e+00
2.188619e+01	-6.355477e+00
2.201260e+01	-6.393578e+00
2.213974e+01	-6.432615e+00
2.226762e+01	-6.471114e+00
2.239624e+01	-6.510028e+00
2.252560e+01	-6.548914e+00
2.265571e+01	-6.588056e+00
2.278656e+01	-6.626890e+00
2.291818e+01	-6.666058e+00
2.305055e+01	-6.705327e+00
2.318369e+01	-6.744647e+00
2.331760e+01	-6.783976e+00
2.345228e+01	-6.823887e+00
2.358774e+01	-6.863646e+00
2.372398e+01	-6.903628e+00
2.386101e+01	-6.943056e+00
2.399883e+01	-6.983065e+00
2.413745e+01	-7.023182e+00
2.427686e+01	-7.063275e+00
2.441709e+01	-7.103655e+00
2.455812e+01	-7.144016e+00
2.469997e+01	-7.184166e+00
2.484263e+01	-7.224916e+00
2.498612e+01	-7.265219e+00
2.513044e+01	-7.306320e+00
2.527559e+01	-7.347150e+00
2.542158e+01	-7.387771e+00
2.556842e+01	-7.428831e+00
2.571610e+01	-7.469427e+00
2.586463e+01	-7.510834e+00
2.601403e+01	-7.551976e+00
2.616428e+01	-7.593066e+00
2.631541e+01	-7.634941e+00
2.646740e+01	-7.676340e+00
2.662028e+01	-7.717997e+00
2.677404e+01	-7.759116e+00
2.692868e+01	-7.801005e+00
2.708422e+01	-7.842668e+00
2.724066e+01	-7.884064e+00
2.739800e+01	-7.926499e+00
2.755625e+01	-7.968679e+00
2.771541e+01	-8.010221e+00
2.787550e+01	-8.052508e+00
2.803650e+01	-8.094564e+00
2.819844e+01	-8.137024e+00
2.836131e+01	-8.179588e+00
2.852513e+01	-8.221882e+00
2.868989e+01	-8.264614e+00
2.885560e+01	-8.306718e+00
2.902227e+01	-8.349464e+00
2.918990e+01	-8.392306e+00
2.935850e+01	-8.434876e+00
2.952807e+01	-8.478297e+00
2.969863e+01	-8.521464e+00
2.987016e+01	-8.564511e+00
3.004269e+01	-8.607901e+00
3.021622e+01	-8.650128e+00
3.039075e+01	-8.693795e+00
3.056628e+01	-8.736916e+00
3.074283e+01	-8.780637e+00
3.092040e+01	-8.823831e+00
3.109900e+01	-8.867540e+00
3.127862e+01	-8.910758e+00
3.145929e+01	-8.954349e+00
3.164099e+01	-8.997932e+00
3.182375e+01	-9.042291e+00
3.200756e+01	-9.086210e+00
3.219244e+01	-9.129364e+00
3.237838e+01	-9.173803e+00
3.256540e+01	-9.217721e+00
3.275349e+01	-9.261985e+00
3.294268e+01	-9.305418e+00
3.313295e+01	-9.350219e+00
3.332433e+01	-9.394268e+00
3.351681e+01	-9.438401e+00
3.371040e+01	-9.482827e+00
3.390511e+01	-9.527744e+00
3.410094e+01	-9.571988e+00
3.429791e+01	-9.616606e+00
3.449601e+01	-9.660485e+00
3.469526e+01	-9.705950e+00
3.489566e+01	-9.750353e+00
3.509721e+01	-9.795230e+00
3.529993e+01	-9.839616e+00
3.550382e+01	-9.884855e+00
3.570889e+01	-9.929651e+00
3.591515e+01	-9.974513e+00
3.612259e+01	-1.001982e+01
3.633123e+01	-1.006510e+01
3.654108e+01	-1.010987e+01
3.675214e+01	-1.015473e+01
3.696442e+01	-1.020006e+01
3.717792e+01	-1.024587e+01
3.739266e+01	-1.029125e+01
3.760864e+01	-1.033616e+01
3.782587e+01	-1.038157e+01
3.804435e+01	-1.042734e+01
3.826409e+01	-1.047292e+01
3.848510e+01	-1.051831e+01
3.870739e+01	-1.056426e+01
3.893096e+01	-1.060945e+01
3.915583e+01	-1.065454e+01
3.938199e+01	-1.070130e+01
3.960946e+01	-1.074715e+01
3.983824e+01	-1.079280e+01
4.006834e+01	-1.083844e+01
4.029978e+01	-1.088398e+01
4.053255e+01	-1.092992e+01
4.076666e+01	-1.097649e+01
4.100213e+01	-1.102169e+01
4.123896e+01	-1.106860e+01
4.147715e+01	-1.111447e+01
4.171672e+01	-1.116052e+01
4.195767e+01	-1.120734e+01
4.220002e+01	-1.125394e+01
4.244377e+01	-1.130006e+01
4.268892e+01	-1.134614e+01
4.293549e+01	-1.139246e+01
4.318348e+01	-1.143880e+01
4.343291e+01	-1.148508e+01
4.368377e+01	-1.153207e+01
4.393609e+01	-1.157882e+01
4.418986e+01	-1.162392e+01
4.444510e+01	-1.167100e+01
4.470182e+01	-1.171806e+01
4.496001e+01	-1.176526e+01
4.521970e+01	-1.181097e+01
4.548089e+01	-1.185766e+01
4.574358e+01	-1.190496e+01
4.600779e+01	-1.195180e+01
4.627353e+01	-1.199881e+01
4.654081e+01	-1.204548e+01
4.680963e+01	-1.209206e+01
4.708000e+01	-1.213955e+01
4.735193e+01	-1.218649e+01
4.762543e+01	-1.223413e+01
4.790051e+01	-1.228064e+01
4.817719e+01	-1.232797e+01
4.845545e+01	-1.237489e+01
4.873533e+01	-1.242154e+01
4.901682e+01	-1.246960e+01
4.929994e+01	-1.251576e+01
4.958470e+01	-1.256311e+01
4.987110e+01	-1.261046e+01
5.015915e+01	-1.265773e+01
5.044887e+01	-1.270519e+01
5.074026e+01	-1.275220e+01
5.103333e+01	-1.280034e+01
5.132810e+01	-1.284748e+01
5.162457e+01	-1.289514e+01
5.192275e+01	-1.294254e+01
5.222265e+01	-1.299003e+01
5.252429e+01	-1.303699e+01
5.282767e+01	-1.308541e+01
5.313280e+01	-1.313241e+01
5.343969e+01	-1.317941e+01
5.374836e+01	-1.322774e+01
5.405880e+01	-1.327532e+01
5.437105e+01	-1.332263e+01
5.468509e+01	-1.337066e+01
5.500095e+01	-1.341859e+01
5.531863e+01	-1.346627e+01
5.563815e+01	-1.351405e+01
5.595951e+01	-1.356168e+01
5.628273e+01	-1.361041e+01
5.660782e+01	-1.365778e+01
5.693479e+01	-1.370593e+01
5.726364e+01	-1.375343e+01
5.759439e+01	-1.380123e+01
5.792705e+01	-1.384940e+01
5.826164e+01	-1.389787e+01
5.859815e+01	-1.394554e+01
5.893662e+01	-1.399341e+01
5.927703e+01	-1.404156e+01
5.961941e+01	-1.408902e+01
5.996377e+01	-1.413675e+01
6.031012e+01	-1.418528e+01
6.065847e+01	-1.423338e+01
6.100883e+01	-1.428139e+01
6.136121e+01	-1.433012e+01
6.171563e+01	-1.437777e+01
6.207210e+01	-1.442623e+01
6.243063e+01	-1.447434e+01
6.279122e+01	-1.452385e+01
6.315390e+01	-1.457095e+01
6.351868e+01	-1.461879e+01
6.388556e+01	-1.466777e+01
6.425456e+01	-1.471654e+01
6.462569e+01	-1.476399e+01
6.499897e+01	-1.481267e+01
6.537440e+01	-1.486038e+01
6.575200e+01	-1.490921e+01
6.613178e+01	-1.495769e+01
6.651375e+01	-1.500682e+01
6.689793e+01	-1.505458e+01
6.728433e+01	-1.510347e+01
6.767297e+01	-1.515108e+01
6.806384e+01	-1.519994e+01
6.845698e+01	-1.524850e+01
6.885238e+01	-1.529769e+01
6.925007e+01	-1.534591e+01
6.965005e+01	-1.539521e+01
7.005235e+01	-1.544333e+01
7.045697e+01	-1.549205e+01
7.086393e+01	-1.554044e+01
7.127323e+01	-1.558925e+01
7.168490e+01	-1.563786e+01
7.209895e+01	-1.568611e+01
7.251539e+01	-1.573547e+01
7.293424e+01	-1.578411e+01
7.335551e+01	-1.583232e+01
7.377920e+01	-1.588168e+01
7.420535e+01	-1.593031e+01
7.463396e+01	-1.597770e+01
7.506504e+01	-1.602686e+01
7.549861e+01	-1.607565e+01
7.593469e+01	-1.612612e+01
7.637328e+01	-1.617405e+01
7.681441e+01	-1.622294e+01
7.725809e+01	-1.627239e+01
7.770433e+01	-1.632120e+01
7.815315e+01	-1.636938e+01
7.860456e+01	-1.641673e+01
7.905857e+01	-1.646820e+01
7.951521e+01	-1.651596e+01
7.997449e+01	-1.656493e+01
8.043642e+01	-1.661393e+01
8.090102e+01	-1.666252e+01
8.136830e+01	-1.671153e+01
8.183828e+01	-1.676097e+01
8.231097e+01	-1.680992e+01
8.278640e+01	-1.685826e+01
8.326457e+01	-1.690839e+01
8.374550e+01	-1.695576e+01
8.422921e+01	-1.700574e+01
8.471572e+01	-1.705509e+01
8.520503e+01	-1.710442e+01
8.569717e+01	-1.715281e+01
8.619215e+01	-1.720267e+01
8.669000e+01	-1.725196e+01
8.719071e+01	-1.729855e+01
8.769432e+01	-1.734851e+01
8.820084e+01	-1.739869e+01
8.871029e+01	-1.744819e+01
8.922267e+01	-1.749687e+01
8.973802e+01	-1.754616e+01
9.025634e+01	-1.759507e+01
9.077766e+01	-1.764432e+01
9.130199e+01	-1.769340e+01
9.182935e+01	-1.774196e+01
9.235975e+01	-1.779175e+01
9.289321e+01	-1.784012e+01
9.342976e+01	-1.788997e+01
9.396941e+01	-1.793892e+01
9.451217e+01	-1.798890e+01
9.505807e+01	-1.803863e+01
9.560712e+01	-1.808720e+01
9.615934e+01	-1.813604e+01
9.671476e+01	-1.818566e+01
9.727338e+01	-1.823353e+01
9.783522e+01	-1.828406e+01
9.840032e+01	-1.833425e+01
9.896867e+01	-1.838291e+01
9.954031e+01	-1.843220e+01
1.001153e+02	-1.848180e+01
1.006935e+02	-1.853056e+01
1.012751e+02	-1.858037e+01
1.018601e+02	-1.863059e+01
1.024484e+02	-1.867880e+01
1.030402e+02	-1.872839e+01
1.036353e+02	-1.877714e+01
1.042339e+02	-1.882785e+01
1.048360e+02	-1.887685e+01
1.054415e+02	-1.892547e+01
1.060505e+02	-1.897558e+01
1.066631e+02	-1.902404e+01
1.072791e+02	-1.907560e+01
1.078988e+02	-1.912389e+01
1.085220e+02	-1.917395e+01
1.091488e+02	-1.922322e+01
1.097793e+02	-1.927246e+01
1.104133e+02	-1.932108e+01
1.110511e+02	-1.937143e+01
1.116925e+02	-1.941980e+01
1.123376e+02	-1.946898e+01
1.129865e+02	-1.951869e+01
1.136391e+02	-1.956882e+01
1.142955e+02	-1.961708e+01
1.149556e+02	-1.966915e+01
1.156196e+02	-1.971680e+01
1.162874e+02	-1.976571e+01
1.169591e+02	-1.981645e+01
1.176347e+02	-1.986606e+01
1.183141e+02	-1.991456e+01
1.189975e+02	-1.996348e+01
1.196848e+02	-2.001489e+01
1.203761e+02	-2.006471e+01
1.210714e+02	-2.011247e+01
1.217707e+02	-2.016089e+01
1.224740e+02	-2.021286e+01
1.231814e+02	-2.026176e+01
1.238929e+02	-2.031163e+01
1.246085e+02	-2.036040e+01
1.253283e+02	-2.040937e+01
1.260522e+02	-2.046036e+01
1.267802e+02	-2.050897e+01
1.275125e+02	-2.055930e+01
1.282490e+02	-2.060898e+01
1.289898e+02	-2.065774e+01
1.297348e+02	-2.070855e+01
1.304842e+02	-2.075747e+01
1.312378e+02	-2.080739e+01
1.319959e+02	-2.085796e+01
1.327583e+02	-2.090573e+01
1.335251e+02	-2.095603e+01
1.342963e+02	-2.100533e+01
1.350720e+02	-2.105543e+01
1.358522e+02	-2.110674e+01
1.366368e+02	-2.115480e+01
1.374260e+02	-2.120358e+01
1.382198e+02	-2.125419e+01
1.390182e+02	-2.130326e+01
1.398211e+02	-2.135344e+01
1.406287e+02	-2.140281e+01
1.414410e+02	-2.145099e+01
1.422579e+02	-2.150202e+01
1.430796e+02	-2.155310e+01
1.439060e+02	-2.160142e+01
1.447372e+02	-2.164848e+01
1.455732e+02	-2.170003e+01
1.464141e+02	-2.174988e+01
1.472597e+02	-2.180167e+01
1.481103e+02	-2.185117e+01
1.489658e+02	-2.190190e+01
1.498262e+02	-2.194886e+01
1.506916e+02	-2.199741e+01
1.515620e+02	-2.205085e+01
1.524374e+02	-2.209838e+01
1.533179e+02	-2.214839e+01
1.542034e+02	-2.219796e+01
1.550941e+02	-2.224793e+01
1.559899e+02	-2.229691e+01
1.568909e+02	-2.234741e+01
1.577971e+02	-2.239844e+01
1.587085e+02	-2.244738e+01
1.596252e+02	-2.249766e+01
1.605472e+02	-2.254841e+01
1.614745e+02	-2.259841e+01
1.624072e+02	-2.264565e+01
1.633453e+02	-2.269687e+01
1.642887e+02	-2.274767e+01
1.652377e+02	-2.279594e+01
1.661921e+02	-2.284515e+01
1.671520e+02	-2.289658e+01
1.681175e+02	-2.294439e+01
1.690885e+02	-2.299529e+01
1.700651e+02	-2.304498e+01
1.710474e+02	-2.309482e+01
1.720354e+02	-2.314400e+01
1.730291e+02	-2.319448e+01
1.740285e+02	-2.324445e+01
1.750337e+02	-2.329228e+01
1.760446e+02	-2.334378e+01
1.770615e+02	-2.339537e+01
1.780842e+02	-2.344507e+01
1.791128e+02	-2.349276e+01
1.801473e+02	-2.354263e+01
1.811878e+02	-2.359591e+01
1.822344e+02	-2.364202e+01
1.832870e+02	-2.369213e+01
1.843456e+02	-2.374410e+01
1.854104e+02	-2.379212e+01
1.864813e+02	-2.384019e+01
1.875584e+02	-2.389133e+01
1.886418e+02	-2.394219e+01
1.897313e+02	-2.399145e+01
1.908272e+02	-2.404121e+01
1.919294e+02	-2.408877e+01
1.930380e+02	-2.414270e+01
1.941530e+02	-2.418906e+01
1.952744e+02	-2.424012e+01
1.964023e+02	-2.428884e+01
1.975367e+02	-2.434062e+01
1.986777e+02	-2.439090e+01
1.998252e+02	-2.444265e+01
2.009794e+02	-2.448995e+01
2.021403e+02	-2.454024e+01
2.033078e+02	-2.459188e+01
2.044821e+02	-2.463983e+01
2.056632e+02	-2.469082e+01
2.068511e+02	-2.473882e+01
2.080459e+02	-2.478761e+01
2.092475e+02	-2.484019e+01
2.104561e+02	-2.488991e+01
2.116717e+02	-2.493767e+01
2.128943e+02	-2.498968e+01
2.141240e+02	-2.504087e+01
2.153608e+02	-2.509020e+01
2.166047e+02	-2.513702e+01
2.178558e+02	-2.518415e+01
2.191141e+02	-2.523683e+01
2.203797e+02	-2.528959e+01
2.216526e+02	-2.533634e+01
2.229329e+02	-2.539080e+01
2.242205e+02	-2.543765e+01
2.255156e+02	-2.548982e+01
2.268182e+02	-2.553983e+01
2.281283e+02	-2.558640e+01
2.294459e+02	-2.563912e+01
2.307712e+02	-2.568957e+01
2.321041e+02	-2.573376e+01
2.334447e+02	-2.578922e+01
2.347931e+02	-2.583784e+01
2.361493e+02	-2.588679e+01
2.375133e+02	-2.593751e+01
2.388851e+02	-2.598756e+01
2.402649e+02	-2.603633e+01
2.416527e+02	-2.608437e+01
2.430484e+02	-2.613670e+01
2.444523e+02	-2.619199e+01
2.458642e+02	-2.623766e+01
2.472843e+02	-2.628826e+01
2.487126e+02	-2.633511e+01
2.501492e+02	-2.638491e+01
2.515940e+02	-2.643825e+01
2.530472e+02	-2.648538e+01
2.545088e+02	-2.653625e+01
2.559789e+02	-2.658778e+01
2.574574e+02	-2.663726e+01
2.589444e+02	-2.668363e+01
2.604401e+02	-2.673775e+01
2.619444e+02	-2.678784e+01
2.634574e+02	-2.683745e+01
2.649791e+02	-2.688319e+01
2.665096e+02	-2.694083e+01
2.680489e+02	-2.698712e+01
2.695972e+02	-2.703540e+01
2.711544e+02	-2.708806e+01
2.727205e+02	-2.713897e+01
2.742958e+02	-2.718655e+01
2.758801e+02	-2.723677e+01
2.774736e+02	-2.728390e+01
2.790762e+02	-2.733602e+01
2.806882e+02	-2.738822e+01
2.823094e+02	-2.743390e+01
2.839400e+02	-2.748198e+01
2.855800e+02	-2.753819e+01
2.872295e+02	-2.758413e+01
2.888886e+02	-2.763804e+01
2.905572e+02	-2.768674e+01
2.922354e+02	-2.773802e+01
2.939234e+02	-2.778842e+01
2.956211e+02	-2.783375e+01
2.973286e+02	-2.788781e+01
2.990459e+02	-2.793631e+01
3.007732e+02	-2.798935e+01
3.025104e+02	-2.803721e+01
3.042577e+02	-2.808739e+01
3.060151e+02	-2.813769e+01
3.077826e+02	-2.819074e+01
3.095604e+02	-2.823766e+01
3.113484e+02	-2.828550e+01
3.131467e+02	-2.833495e+01
3.149554e+02	-2.838239e+01
3.167746e+02	-2.844306e+01
3.186043e+02	-2.848786e+01
3.204445e+02	-2.853796e+01
3.222954e+02	-2.858924e+01
3.241570e+02	-2.863788e+01
3.260293e+02	-2.868531e+01
3.279124e+02	-2.873939e+01
3.298064e+02	-2.879161e+01
3.317114e+02	-2.883844e+01
3.336273e+02	-2.889034e+01
3.355544e+02	-2.893986e+01
3.374925e+02	-2.898992e+01
3.394418e+02	-2.903270e+01
3.414024e+02	-2.908875e+01
3.433744e+02	-2.913441e+01
3.453577e+02	-2.918835e+01
3.473525e+02	-2.923535e+01
3.493588e+02	-2.928772e+01
3.513766e+02	-2.933762e+01
3.534062e+02	-2.938638e+01
3.554474e+02	-2.944199e+01
3.575005e+02	-2.948730e+01
3.595654e+02	-2.954119e+01
3.616422e+02	-2.959096e+01
3.637311e+02	-2.963929e+01
3.658320e+02	-2.968804e+01
3.679450e+02	-2.973757e+01
3.700702e+02	-2.979052e+01
3.722077e+02	-2.984082e+01
3.743576e+02	-2.989000e+01
3.765199e+02	-2.993790e+01
3.786946e+02	-2.998519e+01
3.808820e+02	-3.003994e+01
3.830819e+02	-3.008529e+01
3.852946e+02	-3.014151e+01
3.875200e+02	-3.018795e+01
3.897583e+02	-3.023702e+01
3.920096e+02	-3.028869e+01
3.942738e+02	-3.034362e+01
3.965511e+02	-3.039344e+01
3.988416e+02	-3.043827e+01
4.011452e+02	-3.048828e+01
4.034622e+02	-3.053955e+01
4.057926e+02	-3.059374e+01
4.081365e+02	-3.064256e+01
4.104938e+02	-3.069320e+01
4.128648e+02	-3.074169e+01
4.152495e+02	-3.078924e+01
4.176480e+02	-3.084244e+01
4.200603e+02	-3.089014e+01
4.224866e+02	-3.094569e+01
4.249268e+02	-3.098817e+01
4.273812e+02	-3.104791e+01
4.298497e+02	-3.109512e+01
4.323325e+02	-3.113740e+01
4.348297e+02	-3.118734e+01
4.373412e+02	-3.123750e+01
4.398673e+02	-3.129635e+01
4.424079e+02	-3.134711e+01
4.449633e+02	-3.138986e+01
4.475334e+02	-3.144209e+01
4.501183e+02	-3.149481e+01
4.527182e+02	-3.154422e+01
4.553330e+02	-3.159295e+01
4.579630e+02	-3.164138e+01
4.606082e+02	-3.169755e+01
4.632687e+02	-3.174292e+01
4.659445e+02	-3.178754e+01
4.686358e+02	-3.184667e+01
4.713426e+02	-3.189702e+01
4.740650e+02	-3.194388e+01
4.768032e+02	-3.199434e+01
4.795572e+02	-3.204104e+01
4.823271e+02	-3.208874e+01
4.851130e+02	-3.213296e+01
4.879150e+02	-3.219479e+01
4.907332e+02	-3.224373e+01
4.935676e+02	-3.229166e+01
4.964185e+02	-3.234064e+01
4.992858e+02	-3.239514e+01
5.021696e+02	-3.244772e+01
5.050701e+02	-3.249615e+01
5.079874e+02	-3.253833e+01
5.109215e+02	-3.259316e+01
5.138726e+02	-3.264937e+01
5.168407e+02	-3.270175e+01
5.198259e+02	-3.274461e+01
5.228284e+02	-3.280693e+01
5.258482e+02	-3.284941e+01
5.288855e+02	-3.290261e+01
5.319403e+02	-3.295084e+01
5.350128e+02	-3.300021e+01
5.381030e+02	-3.305132e+01
5.412111e+02	-3.310248e+01
5.443371e+02	-3.315145e+01
5.474812e+02	-3.320256e+01
5.506434e+02	-3.325134e+01
5.538239e+02	-3.330287e+01
5.570228e+02	-3.335443e+01
5.602401e+02	-3.339860e+01
5.634760e+02	-3.345467e+01
5.667306e+02	-3.349698e+01
5.700040e+02	-3.355244e+01
5.732964e+02	-3.360561e+01
5.766077e+02	-3.365496e+01
5.799382e+02	-3.370694e+01
5.832879e+02	-3.375061e+01
5.866569e+02	-3.380348e+01
5.900454e+02	-3.384735e+01
5.934535e+02	-3.390312e+01
5.968813e+02	-3.395334e+01
6.003288e+02	-3.400255e+01
6.037963e+02	-3.405580e+01
6.072838e+02	-3.410900e+01
6.107914e+02	-3.415698e+01
6.143194e+02	-3.420036e+01
6.178676e+02	-3.425397e+01
6.214364e+02	-3.430901e+01
6.250258e+02	-3.435828e+01
6.286359e+02	-3.440955e+01
6.322669e+02	-3.445789e+01
6.359189e+02	-3.451177e+01
6.395919e+02	-3.454964e+01
6.432862e+02	-3.460633e+01
6.470017e+02	-3.466129e+01
6.507388e+02	-3.470334e+01
6.544974e+02	-3.476274e+01
6.582778e+02	-3.480585e+01
6.620800e+02	-3.487045e+01
6.659041e+02	-3.491027e+01
6.697504e+02	-3.495747e+01
6.736188e+02	-3.501268e+01
6.775096e+02	-3.506466e+01
6.814229e+02	-3.511180e+01
6.853587e+02	-3.515937e+01
6.893173e+02	-3.520864e+01
6.932988e+02	-3.525503e+01
6.973033e+02	-3.532231e+01
7.013309e+02	-3.537262e+01
