Frequency(Hz)	Magnitude(dB)
1.000000e+01	-2.200103e+00
1.005776e+01	-2.219841e+00
1.011585e+01	-2.239997e+00
1.017428e+01	-2.260215e+00
1.023305e+01	-2.280572e+00
1.029215e+01	-2.301149e+00
1.035160e+01	-2.321721e+00
1.041139e+01	-2.342656e+00
1.047153e+01	-2.363334e+00
1.053201e+01	-2.384374e+00
1.059284e+01	-2.405701e+00
1.065403e+01	-2.426863e+00
1.071556e+01	-2.448599e+00
1.077746e+01	-2.470093e+00
1.083971e+01	-2.491857e+00
1.090232e+01	-2.513822e+00
1.096529e+01	-2.535945e+00
1.102862e+01	-2.558079e+00
1.109232e+01	-2.580238e+00
1.115639e+01	-2.602920e+00
1.122083e+01	-2.625548e+00
1.128564e+01	-2.648425e+00
1.135083e+01	-2.671328e+00
1.141639e+01	-2.694225e+00
1.148233e+01	-2.717534e+00
1.154865e+01	-2.740841e+00
1.161536e+01	-2.764253e+00
1.168245e+01	-2.788003e+00
1.174992e+01	-2.811658e+00
1.181779e+01	-2.835628e+00
1.188605e+01	-2.859441e+00
1.195470e+01	-2.883821e+00
1.202375e+01	-2.908337e+00
1.209320e+01	-2.932785e+00
1.216305e+01	-2.957286e+00
1.223330e+01	-2.982135e+00
1.230396e+01	-3.006982e+00
1.237503e+01	-3.032065e+00
1.244651e+01	-3.057195e+00
1.251840e+01	-3.082785e+00
1.259070e+01	-3.108036e+00
1.266343e+01	-3.133709e+00
1.273657e+01	-3.159456e+00
1.281014e+01	-3.185511e+00
1.288413e+01	-3.211386e+00
1.295855e+01	-3.237888e+00
1.303339e+01	-3.264011e+00
1.310867e+01	-3.290585e+00
1.318439e+01	-3.317273e+00
1.326054e+01	-3.344270e+00
1.333713e+01	-3.370919e+00
1.341417e+01	-3.397999e+00
1.349165e+01	-3.425398e+00
1.356958e+01	-3.452720e+00
1.364795e+01	-3.480407e+00
1.372678e+01	-3.507920e+00
1.380607e+01	-3.535679e+00
1.388581e+01	-3.563535e+00
1.396602e+01	-3.591354e+00
1.404668e+01	-3.619957e+00
1.412782e+01	-3.648211e+00
1.420942e+01	-3.676686e+00
1.429149e+01	-3.705265e+00
1.437404e+01	-3.734314e+00
1.445706e+01	-3.762996e+00
1.454057e+01	-3.792091e+00
1.462455e+01	-3.821316e+00
1.470902e+01	-3.850769e+00
1.479398e+01	-3.880204e+00
1.487943e+01	-3.909828e+00
1.496537e+01	-3.939661e+00
1.505181e+01	-3.969305e+00
1.513875e+01	-3.999486e+00
1.522619e+01	-4.029586e+00
1.531414e+01	-4.060016e+00
1.540259e+01	-4.090174e+00
1.549156e+01	-4.120928e+00
1.558103e+01	-4.151776e+00
1.567103e+01	-4.182377e+00
1.576155e+01	-4.213601e+00
1.585258e+01	-4.244635e+00
1.594415e+01	-4.275933e+00
1.603624e+01	-4.307024e+00
1.612886e+01	-4.338650e+00
1.622202e+01	-4.370574e+00
1.631572e+01	-4.402343e+00
1.640996e+01	-4.434353e+00
1.650474e+01	-4.466339e+00
1.660008e+01	-4.498776e+00
1.669596e+01	-4.531005e+00
1.679239e+01	-4.563031e+00
1.688938e+01	-4.596026e+00
1.698694e+01	-4.628851e+00
1.708505e+01	-4.661556e+00
1.718373e+01	-4.694789e+00
1.728299e+01	-4.727831e+00
1.738281e+01	-4.761100e+00
1.748322e+01	-4.794369e+00
1.758420e+01	-4.827564e+00
1.768576e+01	-4.861425e+00
1.778792e+01	-4.895077e+00
1.789066e+01	-4.928951e+00
1.799399e+01	-4.963106e+00
1.809793e+01	-4.997154e+00
1.820246e+01	-5.031714e+00
1.830760e+01	-5.066082e+00
1.841334e+01	-5.100584e+00
1.851969e+01	-5.134764e+00
1.862666e+01	-5.169959e+00
1.873425e+01	-5.204737e+00
1.884246e+01	-5.239673e+00
1.895129e+01	-5.274721e+00
1.906075e+01	-5.309823e+00
1.917085e+01	-5.345096e+00
1.928158e+01	-5.380625e+00
1.939295e+01	-5.416383e+00
1.950496e+01	-5.452191e+00
1.961762e+01	-5.487763e+00
1.973093e+01	-5.523352e+00
1.984490e+01	-5.559684e+00
1.995952e+01	-5.596065e+00
2.007480e+01	-5.632077e+00
2.019076e+01	-5.668650e+00
2.030738e+01	-5.705569e+00
2.042467e+01	-5.741991e+00
2.054264e+01	-5.778775e+00
2.066130e+01	-5.815782e+00
2.078064e+01	-5.852500e+00
2.090066e+01	-5.889288e+00
2.102139e+01	-5.926663e+00
2.114280e+01	-5.963949e+00
2.126492e+01	-6.001785e+00
2.138775e+01	-6.039357e+00
2.151128e+01	-6.076737e+00
2.163553e+01	-6.114444e+00
2.176050e+01	-6.152373e+00
2.188619e+01	-6.190153e+00
2.201260e+01	-6.228247e+00
2.213974e+01	-6.266438e+00
2.226762e+01	-6.304963e+00
2.239624e+01	-6.343046e+00
2.252560e+01	-6.381618e+00
2.265571e+01	-6.420248e+00
2.278656e+01	-6.458801e+00
2.291818e+01	-6.497558e+00
2.305055e+01	-6.536410e+00
2.318369e+01	-6.575408e+00
2.331760e+01	-6.614176e+00
2.345228e+01	-6.653606e+00
2.358774e+01	-6.692966e+00
2.372398e+01	-6.732222e+00
2.386101e+01	-6.771488e+00
2.399883e+01	-6.811386e+00
2.413745e+01	-6.850712e+00
2.427686e+01	-6.890884e+00
2.441709e+01	-6.930361e+00
2.455812e+01	-6.970306e+00
2.469997e+01	-7.010294e+00
2.484263e+01	-7.050144e+00
2.498612e+01	-7.090521e+00
2.513044e+01	-7.131003e+00
2.527559e+01	-7.171475e+00
2.542158e+01	-7.212050e+00
2.556842e+01	-7.252647e+00
2.571610e+01	-7.293115e+00
2.586463e+01	-7.333780e+00
2.601403e+01	-7.375165e+00
2.616428e+01	-7.415412e+00
2.631541e+01	-7.456635e+00
2.646740e+01	-7.497380e+00
2.662028e+01	-7.538613e+00
2.677404e+01	-7.580013e+00
2.692868e+01	-7.621263e+00
2.708422e+01	-7.662933e+00
2.724066e+01	-7.704068e+00
2.739800e+01	-7.745849e+00
2.755625e+01	-7.787594e+00
2.771541e+01	-7.829115e+00
2.787550e+01	-7.871393e+00
2.803650e+01	-7.913502e+00
2.819844e+01	-7.954676e+00
2.836131e+01	-7.996643e+00
2.852513e+01	-8.039104e+00
2.868989e+01	-8.081288e+00
2.885560e+01	-8.123502e+00
2.902227e+01	-8.166075e+00
2.918990e+01	-8.208716e+00
2.935850e+01	-8.251055e+00
2.952807e+01	-8.293340e+00
2.969863e+01	-8.336187e+00
2.987016e+01	-8.378600e+00
3.004269e+01	-8.421623e+00
3.021622e+01	-8.464577e+00
3.039075e+01	-8.507483e+00
3.056628e+01	-8.550439e+00
3.074283e+01	-8.593712e+00
3.092040e+01	-8.636646e+00
3.109900e+01	-8.680133e+00
3.127862e+01	-8.723374e+00
3.145929e+01	-8.766652e+00
3.164099e+01	-8.810033e+00
3.182375e+01	-8.853371e+00
3.200756e+01	-8.896458e+00
3.219244e+01	-8.940664e+00
3.237838e+01	-8.984110e+00
3.256540e+01	-9.028231e+00
3.275349e+01	-9.071722e+00
3.294268e+01	-9.115798e+00
3.313295e+01	-9.159750e+00
3.332433e+01	-9.204042e+00
3.351681e+01	-9.248041e+00
3.371040e+01	-9.291850e+00
3.390511e+01	-9.335821e+00
3.410094e+01	-9.380355e+00
3.429791e+01	-9.423956e+00
3.449601e+01	-9.468258e+00
3.469526e+01	-9.513447e+00
3.489566e+01	-9.557375e+00
3.509721e+01	-9.601712e+00
3.529993e+01	-9.646556e+00
3.550382e+01	-9.691458e+00
3.570889e+01	-9.736452e+00
3.591515e+01	-9.781023e+00
3.612259e+01	-9.825214e+00
3.633123e+01	-9.870627e+00
3.654108e+01	-9.915441e+00
3.675214e+01	-9.960313e+00
3.696442e+01	-1.000491e+01
3.717792e+01	-1.005061e+01
3.739266e+01	-1.009545e+01
3.760864e+01	-1.014064e+01
3.782587e+01	-1.018567e+01
3.804435e+01	-1.023084e+01
3.826409e+01	-1.027618e+01
3.848510e+01	-1.032199e+01
3.870739e+01	-1.036708e+01
3.893096e+01	-1.041277e+01
3.915583e+01	-1.045802e+01
3.938199e+01	-1.050428e+01
3.960946e+01	-1.054911e+01
3.983824e+01	-1.059544e+01
4.006834e+01	-1.064034e+01
4.029978e+01	-1.068649e+01
4.053255e+01	-1.073200e+01
4.076666e+01	-1.077773e+01
4.100213e+01	-1.082358e+01
4.123896e+01	-1.086943e+01
4.147715e+01	-1.091590e+01
4.171672e+01	-1.096151e+01
4.195767e+01	-1.100769e+01
4.220002e+01	-1.105428e+01
4.244377e+01	-1.109949e+01
4.268892e+01	-1.114592e+01
4.293549e+01	-1.119200e+01
4.318348e+01	-1.123815e+01
4.343291e+01	-1.128486e+01
4.368377e+01	-1.133082e+01
4.393609e+01	-1.137753e+01
4.418986e+01	-1.142421e+01
4.444510e+01	-1.146980e+01
4.470182e+01	-1.151699e+01
4.496001e+01	-1.156339e+01
4.521970e+01	-1.160976e+01
4.548089e+01	-1.165615e+01
4.574358e+01	-1.170287e+01
4.600779e+01	-1.174943e+01
4.627353e+01	-1.179595e+01
4.654081e+01	-1.184292e+01
4.680963e+01	-1.189009e+01
4.708000e+01	-1.193614e+01
4.735193e+01	-1.198392e+01
4.762543e+01	-1.203029e+01
4.790051e+01	-1.207717e+01
4.817719e+01	-1.212432e+01
4.845545e+01	-1.217122e+01
4.873533e+01	-1.221813e+01
4.901682e+01	-1.226541e+01
4.929994e+01	-1.231206e+01
4.958470e+01	-1.235970e+01
4.987110e+01	-1.240665e+01
5.015915e+01	-1.245309e+01
5.044887e+01	-1.250109e+01
5.074026e+01	-1.254787e+01
5.103333e+01	-1.259480e+01
5.132810e+01	-1.264341e+01
5.162457e+01	-1.268933e+01
5.192275e+01	-1.273693e+01
5.222265e+01	-1.278417e+01
5.252429e+01	-1.283208e+01
5.282767e+01	-1.287889e+01
5.313280e+01	-1.292667e+01
5.343969e+01	-1.297426e+01
5.374836e+01	-1.302248e+01
5.405880e+01	-1.306938e+01
5.437105e+01	-1.311789e+01
5.468509e+01	-1.316473e+01
5.500095e+01	-1.321199e+01
5.531863e+01	-1.325991e+01
5.563815e+01	-1.330842e+01
5.595951e+01	-1.335588e+01
5.628273e+01	-1.340343e+01
5.660782e+01	-1.345104e+01
5.693479e+01	-1.349864e+01
5.726364e+01	-1.354682e+01
5.759439e+01	-1.359521e+01
5.792705e+01	-1.364291e+01
5.826164e+01	-1.368998e+01
5.859815e+01	-1.373804e+01
5.893662e+01	-1.378619e+01
5.927703e+01	-1.383377e+01
5.961941e+01	-1.388205e+01
5.996377e+01	-1.393007e+01
6.031012e+01	-1.397725e+01
6.065847e+01	-1.402544e+01
6.100883e+01	-1.407356e+01
6.136121e+01	-1.412213e+01
6.171563e+01	-1.416991e+01
6.207210e+01	-1.421802e+01
6.243063e+01	-1.426672e+01
6.279122e+01	-1.431546e+01
6.315390e+01	-1.436289e+01
6.351868e+01	-1.441102e+01
6.388556e+01	-1.445971e+01
6.425456e+01	-1.450802e+01
6.462569e+01	-1.455592e+01
6.499897e+01	-1.460518e+01
6.537440e+01	-1.465254e+01
6.575200e+01	-1.470096e+01
6.613178e+01	-1.474887e+01
6.651375e+01	-1.479793e+01
6.689793e+01	-1.484496e+01
6.728433e+01	-1.489326e+01
6.767297e+01	-1.494247e+01
6.806384e+01	-1.499050e+01
6.845698e+01	-1.503905e+01
6.885238e+01	-1.508834e+01
6.925007e+01	-1.513601e+01
6.965005e+01	-1.518467e+01
7.005235e+01	-1.523320e+01
7.045697e+01	-1.528213e+01
7.086393e+01	-1.533023e+01
7.127323e+01	-1.537855e+01
7.168490e+01	-1.542664e+01
7.209895e+01	-1.547539e+01
7.251539e+01	-1.552496e+01
7.293424e+01	-1.557303e+01
7.335551e+01	-1.562126e+01
7.377920e+01	-1.567164e+01
7.420535e+01	-1.572003e+01
7.463396e+01	-1.576879e+01
7.506504e+01	-1.581768e+01
7.549861e+01	-1.586586e+01
7.593469e+01	-1.591484e+01
7.637328e+01	-1.596357e+01
7.681441e+01	-1.601147e+01
7.725809e+01	-1.605983e+01
7.770433e+01	-1.610922e+01
7.815315e+01	-1.615821e+01
7.860456e+01	-1.620625e+01
7.905857e+01	-1.625609e+01
7.951521e+01	-1.630517e+01
7.997449e+01	-1.635352e+01
8.043642e+01	-1.640329e+01
8.090102e+01	-1.645158e+01
8.136830e+01	-1.650073e+01
8.183828e+01	-1.654860e+01
8.231097e+01	-1.659808e+01
8.278640e+01	-1.664797e+01
8.326457e+01	-1.669664e+01
8.374550e+01	-1.674446e+01
8.422921e+01	-1.679371e+01
8.471572e+01	-1.684343e+01
8.520503e+01	-1.689206e+01
8.569717e+01	-1.694046e+01
8.619215e+01	-1.699040e+01
8.669000e+01	-1.703910e+01
8.719071e+01	-1.708689e+01
8.769432e+01	-1.713642e+01
8.820084e+01	-1.718596e+01
8.871029e+01	-1.723519e+01
8.922267e+01	-1.728381e+01
8.973802e+01	-1.733293e+01
9.025634e+01	-1.738287e+01
9.077766e+01	-1.743157e+01
9.130199e+01	-1.748090e+01
9.182935e+01	-1.753057e+01
9.235975e+01	-1.757832e+01
9.289321e+01	-1.762851e+01
9.342976e+01	-1.767862e+01
9.396941e+01	-1.772543e+01
9.451217e+01	-1.777614e+01
9.505807e+01	-1.782550e+01
9.560712e+01	-1.787448e+01
9.615934e+01	-1.792345e+01
9.671476e+01	-1.797468e+01
9.727338e+01	-1.802155e+01
9.783522e+01	-1.807230e+01
9.840032e+01	-1.812078e+01
9.896867e+01	-1.817006e+01
9.954031e+01	-1.821933e+01
1.001153e+02	-1.826872e+01
1.006935e+02	-1.831777e+01
1.012751e+02	-1.836778e+01
1.018601e+02	-1.841664e+01
1.024484e+02	-1.846652e+01
1.030402e+02	-1.851436e+01
1.036353e+02	-1.856408e+01
1.042339e+02	-1.861357e+01
1.048360e+02	-1.866281e+01
1.054415e+02	-1.871308e+01
1.060505e+02	-1.876172e+01
1.066631e+02	-1.881024e+01
1.072791e+02	-1.885977e+01
1.078988e+02	-1.890945e+01
1.085220e+02	-1.895802e+01
1.091488e+02	-1.900929e+01
1.097793e+02	-1.905812e+01
1.104133e+02	-1.910665e+01
1.110511e+02	-1.915674e+01
1.116925e+02	-1.920664e+01
1.123376e+02	-1.925619e+01
1.129865e+02	-1.930577e+01
1.136391e+02	-1.935503e+01
1.142955e+02	-1.940450e+01
1.149556e+02	-1.945476e+01
1.156196e+02	-1.950340e+01
1.162874e+02	-1.955238e+01
1.169591e+02	-1.960268e+01
1.176347e+02	-1.965189e+01
1.183141e+02	-1.970069e+01
1.189975e+02	-1.975106e+01
1.196848e+02	-1.979922e+01
1.203761e+02	-1.984824e+01
1.210714e+02	-1.989866e+01
1.217707e+02	-1.994935e+01
1.224740e+02	-1.999878e+01
1.231814e+02	-2.004862e+01
1.238929e+02	-2.009727e+01
1.246085e+02	-2.014623e+01
1.253283e+02	-2.019631e+01
1.260522e+02	-2.024455e+01
1.267802e+02	-2.029572e+01
1.275125e+02	-2.034533e+01
1.282490e+02	-2.039507e+01
1.289898e+02	-2.044342e+01
1.297348e+02	-2.049299e+01
1.304842e+02	-2.054301e+01
1.312378e+02	-2.059418e+01
1.319959e+02	-2.064274e+01
1.327583e+02	-2.069357e+01
1.335251e+02	-2.074228e+01
1.342963e+02	-2.079170e+01
1.350720e+02	-2.084167e+01
1.358522e+02	-2.089047e+01
1.366368e+02	-2.094131e+01
1.374260e+02	-2.099125e+01
1.382198e+02	-2.104023e+01
1.390182e+02	-2.108849e+01
1.398211e+02	-2.113843e+01
1.406287e+02	-2.118847e+01
1.414410e+02	-2.123774e+01
1.422579e+02	-2.128770e+01
1.430796e+02	-2.133647e+01
1.439060e+02	-2.138721e+01
1.447372e+02	-2.143551e+01
1.455732e+02	-2.148626e+01
1.464141e+02	-2.153577e+01
1.472597e+02	-2.158334e+01
1.481103e+02	-2.163462e+01
1.489658e+02	-2.168633e+01
1.498262e+02	-2.173548e+01
1.506916e+02	-2.178459e+01
1.515620e+02	-2.183541e+01
1.524374e+02	-2.188272e+01
1.533179e+02	-2.193380e+01
1.542034e+02	-2.198190e+01
1.550941e+02	-2.203341e+01
1.559899e+02	-2.208298e+01
1.568909e+02	-2.213187e+01
1.577971e+02	-2.218373e+01
1.587085e+02	-2.223323e+01
1.596252e+02	-2.228026e+01
1.605472e+02	-2.233071e+01
1.614745e+02	-2.238019e+01
1.624072e+02	-2.243038e+01
1.633453e+02	-2.248070e+01
1.642887e+02	-2.252900e+01
1.652377e+02	-2.258123e+01
1.661921e+02	-2.263141e+01
1.671520e+02	-2.268027e+01
1.681175e+02	-2.272880e+01
1.690885e+02	-2.278095e+01
1.700651e+02	-2.283051e+01
1.710474e+02	-2.287822e+01
1.720354e+02	-2.292958e+01
1.730291e+02	-2.297974e+01
1.740285e+02	-2.302836e+01
1.750337e+02	-2.307683e+01
1.760446e+02	-2.312903e+01
1.770615e+02	-2.317555e+01
1.780842e+02	-2.322665e+01
1.791128e+02	-2.327815e+01
1.801473e+02	-2.332991e+01
1.811878e+02	-2.337669e+01
1.822344e+02	-2.342694e+01
1.832870e+02	-2.347984e+01
1.843456e+02	-2.352578e+01
1.854104e+02	-2.357700e+01
1.864813e+02	-2.362667e+01
1.875584e+02	-2.367454e+01
1.886418e+02	-2.372779e+01
1.897313e+02	-2.377623e+01
1.908272e+02	-2.382360e+01
1.919294e+02	-2.387416e+01
1.930380e+02	-2.392671e+01
1.941530e+02	-2.397538e+01
1.952744e+02	-2.402572e+01
1.964023e+02	-2.407556e+01
1.975367e+02	-2.412694e+01
1.986777e+02	-2.417213e+01
1.998252e+02	-2.422492e+01
2.009794e+02	-2.427237e+01
2.021403e+02	-2.432411e+01
2.033078e+02	-2.437251e+01
2.044821e+02	-2.442382e+01
2.056632e+02	-2.447181e+01
2.068511e+02	-2.452740e+01
2.080459e+02	-2.457304e+01
2.092475e+02	-2.462673e+01
2.104561e+02	-2.467583e+01
2.116717e+02	-2.472361e+01
2.128943e+02	-2.477283e+01
2.141240e+02	-2.482384e+01
2.153608e+02	-2.487220e+01
2.166047e+02	-2.492284e+01
2.178558e+02	-2.497437e+01
2.191141e+02	-2.502177e+01
2.203797e+02	-2.507162e+01
2.216526e+02	-2.512105e+01
2.229329e+02	-2.517127e+01
2.242205e+02	-2.522369e+01
2.255156e+02	-2.527240e+01
2.268182e+02	-2.532349e+01
2.281283e+02	-2.537143e+01
2.294459e+02	-2.542200e+01
2.307712e+02	-2.547114e+01
2.321041e+02	-2.552407e+01
2.334447e+02	-2.557485e+01
2.347931e+02	-2.561968e+01
2.361493e+02	-2.567329e+01
2.375133e+02	-2.572470e+01
2.388851e+02	-2.577321e+01
2.402649e+02	-2.582284e+01
2.416527e+02	-2.587120e+01
2.430484e+02	-2.592194e+01
2.444523e+02	-2.597223e+01
2.458642e+02	-2.602307e+01
2.472843e+02	-2.606946e+01
2.487126e+02	-2.612450e+01
2.501492e+02	-2.617067e+01
2.515940e+02	-2.622245e+01
2.530472e+02	-2.626791e+01
2.545088e+02	-2.632355e+01
2.559789e+02	-2.637406e+01
2.574574e+02	-2.641993e+01
2.589444e+02	-2.647003e+01
2.604401e+02	-2.652029e+01
2.619444e+02	-2.657286e+01
2.634574e+02	-2.661983e+01
2.649791e+02	-2.666972e+01
2.665096e+02	-2.671936e+01
2.680489e+02	-2.677229e+01
2.695972e+02	-2.682511e+01
2.711544e+02	-2.686762e+01
2.727205e+02	-2.692030e+01
2.742958e+02	-2.696831e+01
2.758801e+02	-2.702008e+01
2.774736e+02	-2.706738e+01
2.790762e+02	-2.712270e+01
2.806882e+02	-2.716755e+01
2.823094e+02	-2.722292e+01
2.839400e+02	-2.727212e+01
2.855800e+02	-2.732077e+01
2.872295e+02	-2.737534e+01
2.888886e+02	-2.742023e+01
2.905572e+02	-2.747280e+01
2.922354e+02	-2.751923e+01
2.939234e+02	-2.757154e+01
2.956211e+02	-2.762085e+01
2.973286e+02	-2.767391e+01
2.990459e+02	-2.771995e+01
3.007732e+02	-2.776646e+01
3.025104e+02	-2.782190e+01
3.042577e+02	-2.786563e+01
3.060151e+02	-2.791618e+01
3.077826e+02	-2.797068e+01
3.095604e+02	-2.802132e+01
3.113484e+02	-2.806878e+01
3.131467e+02	-2.812213e+01
3.149554e+02	-2.816759e+01
3.167746e+02	-2.822285e+01
3.186043e+02	-2.826960e+01
3.204445e+02	-2.831959e+01
3.222954e+02	-2.837234e+01
3.241570e+02	-2.842387e+01
3.260293e+02	-2.847356e+01
3.279124e+02	-2.852285e+01
3.298064e+02	-2.857176e+01
3.317114e+02	-2.862166e+01
3.336273e+02	-2.867108e+01
3.355544e+02	-2.872011e+01
3.374925e+02	-2.877409e+01
3.394418e+02	-2.882060e+01
3.414024e+02	-2.887101e+01
3.433744e+02	-2.892275e+01
3.453577e+02	-2.897065e+01
3.473525e+02	-2.902146e+01
3.493588e+02	-2.907072e+01
3.513766e+02	-2.912347e+01
3.534062e+02	-2.917246e+01
3.554474e+02	-2.922308e+01
3.575005e+02	-2.927188e+01
3.595654e+02	-2.932381e+01
3.616422e+02	-2.937160e+01
3.637311e+02	-2.941833e+01
3.658320e+02	-2.947199e+01
3.679450e+02	-2.952060e+01
3.700702e+02	-2.957037e+01
3.722077e+02	-2.962130e+01
3.743576e+02	-2.967290e+01
3.765199e+02	-2.972321e+01
3.786946e+02	-2.977578e+01
3.808820e+02	-2.982569e+01
3.830819e+02	-2.986896e+01
3.852946e+02	-2.992434e+01
3.875200e+02	-2.996937e+01
3.897583e+02	-3.002209e+01
3.920096e+02	-3.007435e+01
3.942738e+02	-3.012134e+01
3.965511e+02	-3.016956e+01
3.988416e+02	-3.021966e+01
4.011452e+02	-3.027711e+01
4.034622e+02	-3.032309e+01
4.057926e+02	-3.037215e+01
4.081365e+02	-3.042613e+01
4.104938e+02	-3.047296e+01
4.128648e+02	-3.052413e+01
4.152495e+02	-3.057553e+01
4.176480e+02	-3.062272e+01
4.200603e+02	-3.067139e+01
4.224866e+02	-3.072577e+01
4.249268e+02	-3.077834e+01
4.273812e+02	-3.082265e+01
4.298497e+02	-3.088230e+01
4.323325e+02	-3.092851e+01
4.348297e+02	-3.097556e+01
4.373412e+02	-3.102715e+01
4.398673e+02	-3.107562e+01
4.424079e+02	-3.111900e+01
4.449633e+02	-3.117309e+01
4.475334e+02	-3.122446e+01
4.501183e+02	-3.127772e+01
4.527182e+02	-3.132023e+01
4.553330e+02	-3.137221e+01
4.579630e+02	-3.143445e+01
4.606082e+02	-3.147699e+01
4.632687e+02	-3.152589e+01
4.659445e+02	-3.157659e+01
4.686358e+02	-3.162807e+01
4.713426e+02	-3.167885e+01
4.740650e+02	-3.172112e+01
4.768032e+02	-3.177769e+01
4.795572e+02	-3.182338e+01
4.823271e+02	-3.187418e+01
4.851130e+02	-3.192604e+01
4.879150e+02	-3.197750e+01
4.907332e+02	-3.203211e+01
4.935676e+02	-3.206767e+01
4.964185e+02	-3.212850e+01
4.992858e+02	-3.217805e+01
5.021696e+02	-3.222552e+01
5.050701e+02	-3.228111e+01
5.079874e+02	-3.233497e+01
5.109215e+02	-3.238642e+01
5.138726e+02	-3.242974e+01
5.168407e+02	-3.248611e+01
5.198259e+02	-3.253118e+01
5.228284e+02	-3.258290e+01
5.258482e+02	-3.263344e+01
5.288855e+02	-3.268074e+01
5.319403e+02	-3.273768e+01
5.350128e+02	-3.277518e+01
5.381030e+02	-3.283584e+01
5.412111e+02	-3.289199e+01
5.443371e+02	-3.293629e+01
5.474812e+02	-3.297771e+01
5.506434e+02	-3.303330e+01
5.538239e+02	-3.308707e+01
5.570228e+02	-3.313190e+01
5.602401e+02	-3.318521e+01
5.634760e+02	-3.323695e+01
5.667306e+02	-3.329073e+01
5.700040e+02	-3.333525e+01
5.732964e+02	-3.338854e+01
5.766077e+02	-3.343931e+01
5.799382e+02	-3.348859e+01
5.832879e+02	-3.354107e+01
5.866569e+02	-3.359319e+01
5.900454e+02	-3.363277e+01
5.934535e+02	-3.368968e+01
5.968813e+02	-3.373488e+01
6.003288e+02	-3.378121e+01
6.037963e+02	-3.384186e+01
6.072838e+02	-3.388948e+01
6.107914e+02	-3.394120e+01
6.143194e+02	-3.398744e+01
6.178676e+02	-3.403501e+01
6.214364e+02	-3.408505e+01
6.250258e+02	-3.413893e+01
6.286359e+02	-3.419313e+01
6.322669e+02	-3.424228e+01
6.359189e+02	-3.428538e+01
6.395919e+02	-3.433939e+01
6.432862e+02	-3.439868e+01
6.470017e+02	-3.443589e+01
6.507388e+02	-3.448294e+01
6.544974e+02	-3.454404e+01
6.582778e+02	-3.460096e+01
6.620800e+02	-3.465171e+01
6.659041e+02	-3.469333e+01
6.697504e+02	-3.474495e+01
6.736188e+02	-3.479273e+01
6.775096e+02	-3.484530e+01
6.814229e+02	-3.489396e+01
6.853587e+02	-3.494127e+01
6.893173e+02	-3.498944e+01
6.932988e+02	-3.504248e+01
6.973033e+02	-3.509918e+01
7.013309e+02	-3.514774e+01
