Frequency(Hz)	Magnitude(dB)
1.000000e+01	-1.712881e-05
1.005776e+01	-1.732725e-05
1.011585e+01	-1.752799e-05
1.017428e+01	-1.773106e-05
1.023305e+01	-1.793648e-05
1.029215e+01	-1.814428e-05
1.035160e+01	-1.835448e-05
1.041139e+01	-1.856712e-05
1.047153e+01	-1.878223e-05
1.053201e+01	-1.899983e-05
1.059284e+01	-1.921994e-05
1.065403e+01	-1.944261e-05
1.071556e+01	-1.966786e-05
1.077746e+01	-1.989572e-05
1.083971e+01	-2.012621e-05
1.090232e+01	-2.035938e-05
1.096529e+01	-2.059525e-05
1.102862e+01	-2.083385e-05
1.109232e+01	-2.107522e-05
1.115639e+01	-2.131938e-05
1.122083e+01	-2.156637e-05
1.128564e+01	-2.181622e-05
1.135083e+01	-2.206897e-05
1.141639e+01	-2.232464e-05
1.148233e+01	-2.258328e-05
1.154865e+01	-2.284491e-05
1.161536e+01	-2.310957e-05
1.168245e+01	-2.337730e-05
1.174992e+01	-2.364814e-05
1.181779e+01	-2.392211e-05
1.188605e+01	-2.419925e-05
1.195470e+01	-2.447960e-05
1.202375e+01	-2.476321e-05
1.209320e+01	-2.505009e-05
1.216305e+01	-2.534031e-05
1.223330e+01	-2.563388e-05
1.230396e+01	-2.593085e-05
1.237503e+01	-2.623127e-05
1.244651e+01	-2.653517e-05
1.251840e+01	-2.684258e-05
1.259070e+01	-2.715356e-05
1.266343e+01	-2.746814e-05
1.273657e+01	-2.778637e-05
1.281014e+01	-2.810828e-05
1.288413e+01	-2.843392e-05
1.295855e+01	-2.876333e-05
1.303339e+01	-2.909656e-05
1.310867e+01	-2.943365e-05
1.318439e+01	-2.977465e-05
1.326054e+01	-3.011960e-05
1.333713e+01	-3.046854e-05
1.341417e+01	-3.082152e-05
1.349165e+01	-3.117860e-05
1.356958e+01	-3.153981e-05
1.364795e+01	-3.190521e-05
1.372678e+01	-3.227483e-05
1.380607e+01	-3.264875e-05
1.388581e+01	-3.302699e-05
1.396602e+01	-3.340962e-05
1.404668e+01	-3.379667e-05
1.412782e+01	-3.418822e-05
1.420942e+01	-3.458429e-05
1.429149e+01	-3.498496e-05
1.437404e+01	-3.539027e-05
1.445706e+01	-3.580027e-05
1.454057e+01	-3.621503e-05
1.462455e+01	-3.663459e-05
1.470902e+01	-3.705901e-05
1.479398e+01	-3.748835e-05
1.487943e+01	-3.792266e-05
1.496537e+01	-3.836200e-05
1.505181e+01	-3.880643e-05
1.513875e+01	-3.925601e-05
1.522619e+01	-3.971080e-05
1.531414e+01	-4.017086e-05
1.540259e+01	-4.063625e-05
1.549156e+01	-4.110703e-05
1.558103e+01	-4.158327e-05
1.567103e+01	-4.206502e-05
1.576155e+01	-4.255235e-05
1.585258e+01	-4.304533e-05
1.594415e+01	-4.354402e-05
1.603624e+01	-4.404848e-05
1.612886e+01	-4.455880e-05
1.622202e+01	-4.507502e-05
1.631572e+01	-4.559722e-05
1.640996e+01	-4.612548e-05
1.650474e+01	-4.665985e-05
1.660008e+01	-4.720042e-05
1.669596e+01	-4.774724e-05
1.679239e+01	-4.830040e-05
1.688938e+01	-4.885997e-05
1.698694e+01	-4.942603e-05
1.708505e+01	-4.999864e-05
1.718373e+01	-5.057788e-05
1.728299e+01	-5.116384e-05
1.738281e+01	-5.175658e-05
1.748322e+01	-5.235619e-05
1.758420e+01	-5.296275e-05
1.768576e+01	-5.357634e-05
1.778792e+01	-5.419703e-05
1.789066e+01	-5.482491e-05
1.799399e+01	-5.546007e-05
1.809793e+01	-5.610259e-05
1.820246e+01	-5.675255e-05
1.830760e+01	-5.741004e-05
1.841334e+01	-5.807514e-05
1.851969e+01	-5.874796e-05
1.862666e+01	-5.942856e-05
1.873425e+01	-6.011705e-05
1.884246e+01	-6.081352e-05
1.895129e+01	-6.151806e-05
1.906075e+01	-6.223076e-05
1.917085e+01	-6.295171e-05
1.928158e+01	-6.368102e-05
1.939295e+01	-6.441878e-05
1.950496e+01	-6.516508e-05
1.961762e+01	-6.592003e-05
1.973093e+01	-6.668373e-05
1.984490e+01	-6.745627e-05
1.995952e+01	-6.823777e-05
2.007480e+01	-6.902831e-05
2.019076e+01	-6.982802e-05
2.030738e+01	-7.063699e-05
2.042467e+01	-7.145533e-05
2.054264e+01	-7.228316e-05
2.066130e+01	-7.312057e-05
2.078064e+01	-7.396768e-05
2.090066e+01	-7.482461e-05
2.102139e+01	-7.569147e-05
2.114280e+01	-7.656837e-05
2.126492e+01	-7.745543e-05
2.138775e+01	-7.835276e-05
2.151128e+01	-7.926049e-05
2.163553e+01	-8.017874e-05
2.176050e+01	-8.110762e-05
2.188619e+01	-8.204727e-05
2.201260e+01	-8.299780e-05
2.213974e+01	-8.395934e-05
2.226762e+01	-8.493203e-05
2.239624e+01	-8.591598e-05
2.252560e+01	-8.691133e-05
2.265571e+01	-8.791821e-05
2.278656e+01	-8.893676e-05
2.291818e+01	-8.996710e-05
2.305055e+01	-9.100939e-05
2.318369e+01	-9.206374e-05
2.331760e+01	-9.313032e-05
2.345228e+01	-9.420925e-05
2.358774e+01	-9.530067e-05
2.372398e+01	-9.640475e-05
2.386101e+01	-9.752161e-05
2.399883e+01	-9.865141e-05
2.413745e+01	-9.979430e-05
2.427686e+01	-1.009504e-04
2.441709e+01	-1.021200e-04
2.455812e+01	-1.033030e-04
2.469997e+01	-1.044998e-04
2.484263e+01	-1.057105e-04
2.498612e+01	-1.069351e-04
2.513044e+01	-1.081740e-04
2.527559e+01	-1.094272e-04
2.542158e+01	-1.106949e-04
2.556842e+01	-1.119773e-04
2.571610e+01	-1.132746e-04
2.586463e+01	-1.145869e-04
2.601403e+01	-1.159144e-04
2.616428e+01	-1.172573e-04
2.631541e+01	-1.186157e-04
2.646740e+01	-1.199899e-04
2.662028e+01	-1.213800e-04
2.677404e+01	-1.227862e-04
2.692868e+01	-1.242087e-04
2.708422e+01	-1.256477e-04
2.724066e+01	-1.271033e-04
2.739800e+01	-1.285758e-04
2.755625e+01	-1.300654e-04
2.771541e+01	-1.315722e-04
2.787550e+01	-1.330965e-04
2.803650e+01	-1.346384e-04
2.819844e+01	-1.361982e-04
2.836131e+01	-1.377761e-04
2.852513e+01	-1.393722e-04
2.868989e+01	-1.409869e-04
2.885560e+01	-1.426202e-04
2.902227e+01	-1.442725e-04
2.918990e+01	-1.459439e-04
2.935850e+01	-1.476347e-04
2.952807e+01	-1.493450e-04
2.969863e+01	-1.510752e-04
2.987016e+01	-1.528254e-04
3.004269e+01	-1.545959e-04
3.021622e+01	-1.563869e-04
3.039075e+01	-1.581987e-04
3.056628e+01	-1.600314e-04
3.074283e+01	-1.618854e-04
3.092040e+01	-1.637609e-04
3.109900e+01	-1.656580e-04
3.127862e+01	-1.675772e-04
3.145929e+01	-1.695186e-04
3.164099e+01	-1.714825e-04
3.182375e+01	-1.734691e-04
3.200756e+01	-1.754787e-04
3.219244e+01	-1.775117e-04
3.237838e+01	-1.795681e-04
3.256540e+01	-1.816485e-04
3.275349e+01	-1.837529e-04
3.294268e+01	-1.858816e-04
3.313295e+01	-1.880351e-04
3.332433e+01	-1.902135e-04
3.351681e+01	-1.924171e-04
3.371040e+01	-1.946463e-04
3.390511e+01	-1.969012e-04
3.410094e+01	-1.991823e-04
3.429791e+01	-2.014899e-04
3.449601e+01	-2.038241e-04
3.469526e+01	-2.061854e-04
3.489566e+01	-2.085741e-04
3.509721e+01	-2.109904e-04
3.529993e+01	-2.134347e-04
3.550382e+01	-2.159074e-04
3.570889e+01	-2.184087e-04
3.591515e+01	-2.209389e-04
3.612259e+01	-2.234985e-04
3.633123e+01	-2.260877e-04
3.654108e+01	-2.287069e-04
3.675214e+01	-2.313565e-04
3.696442e+01	-2.340368e-04
3.717792e+01	-2.367481e-04
3.739266e+01	-2.394908e-04
3.760864e+01	-2.422653e-04
3.782587e+01	-2.450719e-04
3.804435e+01	-2.479111e-04
3.826409e+01	-2.507831e-04
3.848510e+01	-2.536884e-04
3.870739e+01	-2.566274e-04
3.893096e+01	-2.596004e-04
3.915583e+01	-2.626078e-04
3.938199e+01	-2.656501e-04
3.960946e+01	-2.687277e-04
3.983824e+01	-2.718408e-04
4.006834e+01	-2.749901e-04
4.029978e+01	-2.781758e-04
4.053255e+01	-2.813985e-04
4.076666e+01	-2.846584e-04
4.100213e+01	-2.879562e-04
4.123896e+01	-2.912921e-04
4.147715e+01	-2.946667e-04
4.171672e+01	-2.980804e-04
4.195767e+01	-3.015336e-04
4.220002e+01	-3.050268e-04
4.244377e+01	-3.085605e-04
4.268892e+01	-3.121352e-04
4.293549e+01	-3.157512e-04
4.318348e+01	-3.194091e-04
4.343291e+01	-3.231094e-04
4.368377e+01	-3.268526e-04
4.393609e+01	-3.306391e-04
4.418986e+01	-3.344695e-04
4.444510e+01	-3.383443e-04
4.470182e+01	-3.422640e-04
4.496001e+01	-3.462290e-04
4.521970e+01	-3.502400e-04
4.548089e+01	-3.542975e-04
4.574358e+01	-3.584020e-04
4.600779e+01	-3.625540e-04
4.627353e+01	-3.667541e-04
4.654081e+01	-3.710029e-04
4.680963e+01	-3.753008e-04
4.708000e+01	-3.796486e-04
4.735193e+01	-3.840468e-04
4.762543e+01	-3.884958e-04
4.790051e+01	-3.929965e-04
4.817719e+01	-3.975492e-04
4.845545e+01	-4.021547e-04
4.873533e+01	-4.068136e-04
4.901682e+01	-4.115264e-04
4.929994e+01	-4.162938e-04
4.958470e+01	-4.211165e-04
4.987110e+01	-4.259950e-04
5.015915e+01	-4.309300e-04
5.044887e+01	-4.359222e-04
5.074026e+01	-4.409722e-04
5.103333e+01	-4.460808e-04
5.132810e+01	-4.512485e-04
5.162457e+01	-4.564760e-04
5.192275e+01	-4.617642e-04
5.222265e+01	-4.671135e-04
5.252429e+01	-4.725249e-04
5.282767e+01	-4.779989e-04
5.313280e+01	-4.835363e-04
5.343969e+01	-4.891379e-04
5.374836e+01	-4.948044e-04
5.405880e+01	-5.005365e-04
5.437105e+01	-5.063350e-04
5.468509e+01	-5.122007e-04
5.500095e+01	-5.181344e-04
5.531863e+01	-5.241367e-04
5.563815e+01	-5.302086e-04
5.595951e+01	-5.363509e-04
5.628273e+01	-5.425642e-04
5.660782e+01	-5.488496e-04
5.693479e+01	-5.552078e-04
5.726364e+01	-5.616396e-04
5.759439e+01	-5.681459e-04
5.792705e+01	-5.747276e-04
5.826164e+01	-5.813855e-04
5.859815e+01	-5.881206e-04
5.893662e+01	-5.949337e-04
5.927703e+01	-6.018257e-04
5.961941e+01	-6.087975e-04
5.996377e+01	-6.158501e-04
6.031012e+01	-6.229843e-04
6.065847e+01	-6.302013e-04
6.100883e+01	-6.375018e-04
6.136121e+01	-6.448869e-04
6.171563e+01	-6.523575e-04
6.207210e+01	-6.599147e-04
6.243063e+01	-6.675594e-04
6.279122e+01	-6.752926e-04
6.315390e+01	-6.831155e-04
6.351868e+01	-6.910289e-04
6.388556e+01	-6.990340e-04
6.425456e+01	-7.071319e-04
6.462569e+01	-7.153235e-04
6.499897e+01	-7.236101e-04
6.537440e+01	-7.319926e-04
6.575200e+01	-7.404722e-04
6.613178e+01	-7.490500e-04
6.651375e+01	-7.577272e-04
6.689793e+01	-7.665049e-04
6.728433e+01	-7.753843e-04
6.767297e+01	-7.843665e-04
6.806384e+01	-7.934528e-04
6.845698e+01	-8.026443e-04
6.885238e+01	-8.119423e-04
6.925007e+01	-8.213480e-04
6.965005e+01	-8.308626e-04
7.005235e+01	-8.404874e-04
7.045697e+01	-8.502238e-04
7.086393e+01	-8.600729e-04
7.127323e+01	-8.700360e-04
7.168490e+01	-8.801146e-04
7.209895e+01	-8.903100e-04
7.251539e+01	-9.006234e-04
7.293424e+01	-9.110562e-04
7.335551e+01	-9.216100e-04
7.377920e+01	-9.322859e-04
7.420535e+01	-9.430855e-04
7.463396e+01	-9.540102e-04
7.506504e+01	-9.650615e-04
7.549861e+01	-9.762407e-04
7.593469e+01	-9.875494e-04
7.637328e+01	-9.989892e-04
7.681441e+01	-1.010561e-03
7.725809e+01	-1.022268e-03
7.770433e+01	-1.034109e-03
7.815315e+01	-1.046088e-03
7.860456e+01	-1.058206e-03
7.905857e+01	-1.070464e-03
7.951521e+01	-1.082864e-03
7.997449e+01	-1.095408e-03
8.043642e+01	-1.108097e-03
8.090102e+01	-1.120933e-03
8.136830e+01	-1.133918e-03
8.183828e+01	-1.147053e-03
8.231097e+01	-1.160340e-03
8.278640e+01	-1.173781e-03
8.326457e+01	-1.187378e-03
8.374550e+01	-1.201132e-03
8.422921e+01	-1.215045e-03
8.471572e+01	-1.229120e-03
8.520503e+01	-1.243357e-03
8.569717e+01	-1.257760e-03
8.619215e+01	-1.272329e-03
8.669000e+01	-1.287067e-03
8.719071e+01	-1.301976e-03
8.769432e+01	-1.317058e-03
8.820084e+01	-1.332314e-03
8.871029e+01	-1.347747e-03
8.922267e+01	-1.363358e-03
8.973802e+01	-1.379151e-03
9.025634e+01	-1.395126e-03
9.077766e+01	-1.411286e-03
9.130199e+01	-1.427634e-03
9.182935e+01	-1.444170e-03
9.235975e+01	-1.460899e-03
9.289321e+01	-1.477821e-03
9.342976e+01	-1.494939e-03
9.396941e+01	-1.512255e-03
9.451217e+01	-1.529772e-03
9.505807e+01	-1.547491e-03
9.560712e+01	-1.565416e-03
9.615934e+01	-1.583549e-03
9.671476e+01	-1.601891e-03
9.727338e+01	-1.620446e-03
9.783522e+01	-1.639216e-03
9.840032e+01	-1.658203e-03
9.896867e+01	-1.677410e-03
9.954031e+01	-1.696839e-03
1.001153e+02	-1.716494e-03
1.006935e+02	-1.736376e-03
1.012751e+02	-1.756488e-03
1.018601e+02	-1.776833e-03
1.024484e+02	-1.797414e-03
1.030402e+02	-1.818233e-03
1.036353e+02	-1.839294e-03
1.042339e+02	-1.860598e-03
1.048360e+02	-1.882149e-03
1.054415e+02	-1.903949e-03
1.060505e+02	-1.926002e-03
1.066631e+02	-1.948310e-03
1.072791e+02	-1.970877e-03
1.078988e+02	-1.993705e-03
1.085220e+02	-2.016797e-03
1.091488e+02	-2.040156e-03
1.097793e+02	-2.063787e-03
1.104133e+02	-2.087690e-03
1.110511e+02	-2.111871e-03
1.116925e+02	-2.136331e-03
1.123376e+02	-2.161075e-03
1.129865e+02	-2.186106e-03
1.136391e+02	-2.211426e-03
1.142955e+02	-2.237039e-03
1.149556e+02	-2.262949e-03
1.156196e+02	-2.289159e-03
1.162874e+02	-2.315672e-03
1.169591e+02	-2.342493e-03
1.176347e+02	-2.369624e-03
1.183141e+02	-2.397069e-03
1.189975e+02	-2.424832e-03
1.196848e+02	-2.452916e-03
1.203761e+02	-2.481326e-03
1.210714e+02	-2.510064e-03
1.217707e+02	-2.539136e-03
1.224740e+02	-2.568543e-03
1.231814e+02	-2.598292e-03
1.238929e+02	-2.628385e-03
1.246085e+02	-2.658826e-03
1.253283e+02	-2.689619e-03
1.260522e+02	-2.720770e-03
1.267802e+02	-2.752280e-03
1.275125e+02	-2.784156e-03
1.282490e+02	-2.816401e-03
1.289898e+02	-2.849019e-03
1.297348e+02	-2.882015e-03
1.304842e+02	-2.915392e-03
1.312378e+02	-2.949156e-03
1.319959e+02	-2.983311e-03
1.327583e+02	-3.017862e-03
1.335251e+02	-3.052812e-03
1.342963e+02	-3.088167e-03
1.350720e+02	-3.123931e-03
1.358522e+02	-3.160110e-03
1.366368e+02	-3.196707e-03
1.374260e+02	-3.233728e-03
1.382198e+02	-3.271177e-03
1.390182e+02	-3.309060e-03
1.398211e+02	-3.347382e-03
1.406287e+02	-3.386147e-03
1.414410e+02	-3.425361e-03
1.422579e+02	-3.465029e-03
1.430796e+02	-3.505156e-03
1.439060e+02	-3.545747e-03
1.447372e+02	-3.586809e-03
1.455732e+02	-3.628346e-03
1.464141e+02	-3.670363e-03
1.472597e+02	-3.712867e-03
1.481103e+02	-3.755863e-03
1.489658e+02	-3.799356e-03
1.498262e+02	-3.843354e-03
1.506916e+02	-3.887860e-03
1.515620e+02	-3.932881e-03
1.524374e+02	-3.978424e-03
1.533179e+02	-4.024493e-03
1.542034e+02	-4.071096e-03
1.550941e+02	-4.118239e-03
1.559899e+02	-4.165927e-03
1.568909e+02	-4.214166e-03
1.577971e+02	-4.262965e-03
1.587085e+02	-4.312328e-03
1.596252e+02	-4.362262e-03
1.605472e+02	-4.412774e-03
1.614745e+02	-4.463871e-03
1.624072e+02	-4.515559e-03
1.633453e+02	-4.567845e-03
1.642887e+02	-4.620737e-03
1.652377e+02	-4.674240e-03
1.661921e+02	-4.728363e-03
1.671520e+02	-4.783112e-03
1.681175e+02	-4.838495e-03
1.690885e+02	-4.894519e-03
1.700651e+02	-4.951190e-03
1.710474e+02	-5.008518e-03
1.720354e+02	-5.066509e-03
1.730291e+02	-5.125171e-03
1.740285e+02	-5.184512e-03
1.750337e+02	-5.244540e-03
1.760446e+02	-5.305262e-03
1.770615e+02	-5.366687e-03
1.780842e+02	-5.428822e-03
1.791128e+02	-5.491676e-03
1.801473e+02	-5.555258e-03
1.811878e+02	-5.619576e-03
1.822344e+02	-5.684637e-03
1.832870e+02	-5.750451e-03
1.843456e+02	-5.817027e-03
1.854104e+02	-5.884373e-03
1.864813e+02	-5.952498e-03
1.875584e+02	-6.021411e-03
1.886418e+02	-6.091122e-03
1.897313e+02	-6.161639e-03
1.908272e+02	-6.232972e-03
1.919294e+02	-6.305130e-03
1.930380e+02	-6.378123e-03
1.941530e+02	-6.451960e-03
1.952744e+02	-6.526651e-03
1.964023e+02	-6.602206e-03
1.975367e+02	-6.678636e-03
1.986777e+02	-6.755949e-03
1.998252e+02	-6.834157e-03
2.009794e+02	-6.913269e-03
2.021403e+02	-6.993296e-03
2.033078e+02	-7.074249e-03
2.044821e+02	-7.156138e-03
2.056632e+02	-7.238975e-03
2.068511e+02	-7.322769e-03
2.080459e+02	-7.407533e-03
2.092475e+02	-7.493277e-03
2.104561e+02	-7.580012e-03
2.116717e+02	-7.667751e-03
2.128943e+02	-7.756504e-03
2.141240e+02	-7.846284e-03
2.153608e+02	-7.937102e-03
2.166047e+02	-8.028970e-03
2.178558e+02	-8.121900e-03
2.191141e+02	-8.215905e-03
2.203797e+02	-8.310997e-03
2.216526e+02	-8.407189e-03
2.229329e+02	-8.504492e-03
2.242205e+02	-8.602921e-03
2.255156e+02	-8.702488e-03
2.268182e+02	-8.803206e-03
2.281283e+02	-8.905089e-03
2.294459e+02	-9.008149e-03
2.307712e+02	-9.112401e-03
2.321041e+02	-9.217858e-03
2.334447e+02	-9.324534e-03
2.347931e+02	-9.432444e-03
2.361493e+02	-9.541600e-03
2.375133e+02	-9.652019e-03
2.388851e+02	-9.763714e-03
2.402649e+02	-9.876700e-03
2.416527e+02	-9.990992e-03
2.430484e+02	-1.010661e-02
2.444523e+02	-1.022355e-02
2.458642e+02	-1.034186e-02
2.472843e+02	-1.046152e-02
2.487126e+02	-1.058258e-02
2.501492e+02	-1.070503e-02
2.515940e+02	-1.082889e-02
2.530472e+02	-1.095419e-02
2.545088e+02	-1.108093e-02
2.559789e+02	-1.120914e-02
2.574574e+02	-1.133883e-02
2.589444e+02	-1.147002e-02
2.604401e+02	-1.160273e-02
2.619444e+02	-1.173696e-02
2.634574e+02	-1.187275e-02
2.649791e+02	-1.201011e-02
2.665096e+02	-1.214906e-02
2.680489e+02	-1.228961e-02
2.695972e+02	-1.243178e-02
2.711544e+02	-1.257560e-02
2.727205e+02	-1.272107e-02
2.742958e+02	-1.286823e-02
2.758801e+02	-1.301709e-02
2.774736e+02	-1.316767e-02
2.790762e+02	-1.331998e-02
2.806882e+02	-1.347406e-02
2.823094e+02	-1.362991e-02
2.839400e+02	-1.378757e-02
2.855800e+02	-1.394704e-02
2.872295e+02	-1.410836e-02
2.888886e+02	-1.427154e-02
2.905572e+02	-1.443660e-02
2.922354e+02	-1.460357e-02
2.939234e+02	-1.477247e-02
2.956211e+02	-1.494331e-02
2.973286e+02	-1.511613e-02
2.990459e+02	-1.529095e-02
3.007732e+02	-1.546778e-02
3.025104e+02	-1.564666e-02
3.042577e+02	-1.582760e-02
3.060151e+02	-1.601062e-02
3.077826e+02	-1.619576e-02
3.095604e+02	-1.638304e-02
3.113484e+02	-1.657248e-02
3.131467e+02	-1.676410e-02
3.149554e+02	-1.695794e-02
3.167746e+02	-1.715401e-02
3.186043e+02	-1.735235e-02
3.204445e+02	-1.755297e-02
3.222954e+02	-1.775591e-02
3.241570e+02	-1.796119e-02
3.260293e+02	-1.816884e-02
3.279124e+02	-1.837888e-02
3.298064e+02	-1.859135e-02
3.317114e+02	-1.880626e-02
3.336273e+02	-1.902366e-02
3.355544e+02	-1.924356e-02
3.374925e+02	-1.946600e-02
3.394418e+02	-1.969101e-02
3.414024e+02	-1.991861e-02
3.433744e+02	-2.014884e-02
3.453577e+02	-2.038171e-02
3.473525e+02	-2.061728e-02
3.493588e+02	-2.085556e-02
3.513766e+02	-2.109659e-02
3.534062e+02	-2.134040e-02
3.554474e+02	-2.158701e-02
3.575005e+02	-2.183647e-02
3.595654e+02	-2.208881e-02
3.616422e+02	-2.234405e-02
3.637311e+02	-2.260224e-02
3.658320e+02	-2.286340e-02
3.679450e+02	-2.312757e-02
3.700702e+02	-2.339478e-02
3.722077e+02	-2.366508e-02
3.743576e+02	-2.393849e-02
3.765199e+02	-2.421504e-02
3.786946e+02	-2.449479e-02
3.808820e+02	-2.477775e-02
3.830819e+02	-2.506398e-02
3.852946e+02	-2.535350e-02
3.875200e+02	-2.564636e-02
3.897583e+02	-2.594259e-02
3.920096e+02	-2.624223e-02
3.942738e+02	-2.654532e-02
3.965511e+02	-2.685190e-02
3.988416e+02	-2.716201e-02
4.011452e+02	-2.747569e-02
4.034622e+02	-2.779298e-02
4.057926e+02	-2.811392e-02
4.081365e+02	-2.843856e-02
4.104938e+02	-2.876693e-02
4.128648e+02	-2.909909e-02
4.152495e+02	-2.943506e-02
4.176480e+02	-2.977490e-02
4.200603e+02	-3.011865e-02
4.224866e+02	-3.046635e-02
4.249268e+02	-3.081806e-02
4.273812e+02	-3.117381e-02
4.298497e+02	-3.153365e-02
4.323325e+02	-3.189763e-02
4.348297e+02	-3.226579e-02
4.373412e+02	-3.263819e-02
4.398673e+02	-3.301487e-02
4.424079e+02	-3.339588e-02
4.449633e+02	-3.378128e-02
4.475334e+02	-3.417110e-02
4.501183e+02	-3.456540e-02
4.527182e+02	-3.496423e-02
4.553330e+02	-3.536764e-02
4.579630e+02	-3.577570e-02
4.606082e+02	-3.618843e-02
4.632687e+02	-3.660592e-02
4.659445e+02	-3.702819e-02
4.686358e+02	-3.745532e-02
4.713426e+02	-3.788735e-02
4.740650e+02	-3.832434e-02
4.768032e+02	-3.876635e-02
4.795572e+02	-3.921344e-02
4.823271e+02	-3.966566e-02
4.851130e+02	-4.012306e-02
4.879150e+02	-4.058572e-02
4.907332e+02	-4.105369e-02
4.935676e+02	-4.152703e-02
4.964185e+02	-4.200580e-02
4.992858e+02	-4.249006e-02
5.021696e+02	-4.297988e-02
5.050701e+02	-4.347531e-02
5.079874e+02	-4.397643e-02
5.109215e+02	-4.448329e-02
5.138726e+02	-4.499597e-02
5.168407e+02	-4.551452e-02
5.198259e+02	-4.603902e-02
5.228284e+02	-4.656952e-02
5.258482e+02	-4.710611e-02
5.288855e+02	-4.764885e-02
5.319403e+02	-4.819780e-02
5.350128e+02	-4.875305e-02
5.381030e+02	-4.931465e-02
5.412111e+02	-4.988269e-02
5.443371e+02	-5.045723e-02
5.474812e+02	-5.103834e-02
5.506434e+02	-5.162612e-02
5.538239e+02	-5.222062e-02
5.570228e+02	-5.282192e-02
5.602401e+02	-5.343011e-02
5.634760e+02	-5.404525e-02
5.667306e+02	-5.466743e-02
5.700040e+02	-5.529673e-02
5.732964e+02	-5.593322e-02
5.766077e+02	-5.657700e-02
5.799382e+02	-5.722813e-02
5.832879e+02	-5.788671e-02
5.866569e+02	-5.855282e-02
5.900454e+02	-5.922654e-02
5.934535e+02	-5.990795e-02
5.968813e+02	-6.059715e-02
6.003288e+02	-6.129423e-02
6.037963e+02	-6.199926e-02
6.072838e+02	-6.271235e-02
6.107914e+02	-6.343358e-02
6.143194e+02	-6.416304e-02
6.178676e+02	-6.490082e-02
6.214364e+02	-6.564703e-02
6.250258e+02	-6.640175e-02
6.286359e+02	-6.716508e-02
6.322669e+02	-6.793711e-02
6.359189e+02	-6.871795e-02
6.395919e+02	-6.950769e-02
6.432862e+02	-7.030644e-02
6.470017e+02	-7.111428e-02
6.507388e+02	-7.193134e-02
6.544974e+02	-7.275770e-02
6.582778e+02	-7.359347e-02
6.620800e+02	-7.443876e-02
6.659041e+02	-7.529368e-02
6.697504e+02	-7.615833e-02
6.736188e+02	-7.703282e-02
6.775096e+02	-7.791726e-02
6.814229e+02	-7.881176e-02
6.853587e+02	-7.971643e-02
6.893173e+02	-8.063140e-02
6.932988e+02	-8.155677e-02
6.973033e+02	-8.249265e-02
7.013309e+02	-8.343918e-02
