Frequency(Hz)	Magnitude(dB)
1.000000e+01	-1.944252e+00
1.005776e+01	-1.962335e+00
1.011585e+01	-1.980698e+00
1.017428e+01	-1.998914e+00
1.023305e+01	-2.017532e+00
1.029215e+01	-2.036134e+00
1.035160e+01	-2.054886e+00
1.041139e+01	-2.073811e+00
1.047153e+01	-2.092806e+00
1.053201e+01	-2.112164e+00
1.059284e+01	-2.131544e+00
1.065403e+01	-2.151119e+00
1.071556e+01	-2.170585e+00
1.077746e+01	-2.190394e+00
1.083971e+01	-2.210057e+00
1.090232e+01	-2.230167e+00
1.096529e+01	-2.250425e+00
1.102862e+01	-2.270653e+00
1.109232e+01	-2.291107e+00
1.115639e+01	-2.311770e+00
1.122083e+01	-2.332450e+00
1.128564e+01	-2.353263e+00
1.135083e+01	-2.374458e+00
1.141639e+01	-2.395231e+00
1.148233e+01	-2.416651e+00
1.154865e+01	-2.437977e+00
1.161536e+01	-2.459516e+00
1.168245e+01	-2.481245e+00
1.174992e+01	-2.503063e+00
1.181779e+01	-2.525197e+00
1.188605e+01	-2.547087e+00
1.195470e+01	-2.569527e+00
1.202375e+01	-2.591805e+00
1.209320e+01	-2.614422e+00
1.216305e+01	-2.637363e+00
1.223330e+01	-2.660249e+00
1.230396e+01	-2.683213e+00
1.237503e+01	-2.706338e+00
1.244651e+01	-2.729431e+00
1.251840e+01	-2.752744e+00
1.259070e+01	-2.776056e+00
1.266343e+01	-2.799963e+00
1.273657e+01	-2.823878e+00
1.281014e+01	-2.848000e+00
1.288413e+01	-2.872097e+00
1.295855e+01	-2.896380e+00
1.303339e+01	-2.920740e+00
1.310867e+01	-2.945093e+00
1.318439e+01	-2.969990e+00
1.326054e+01	-2.994889e+00
1.333713e+01	-3.019831e+00
1.341417e+01	-3.044851e+00
1.349165e+01	-3.070295e+00
1.356958e+01	-3.095877e+00
1.364795e+01	-3.121137e+00
1.372678e+01	-3.147126e+00
1.380607e+01	-3.172894e+00
1.388581e+01	-3.198850e+00
1.396602e+01	-3.225016e+00
1.404668e+01	-3.251314e+00
1.412782e+01	-3.277733e+00
1.420942e+01	-3.304335e+00
1.429149e+01	-3.331178e+00
1.437404e+01	-3.358016e+00
1.445706e+01	-3.384752e+00
1.454057e+01	-3.412095e+00
1.462455e+01	-3.439333e+00
1.470902e+01	-3.466948e+00
1.479398e+01	-3.494362e+00
1.487943e+01	-3.521957e+00
1.496537e+01	-3.549925e+00
1.505181e+01	-3.577970e+00
1.513875e+01	-3.606258e+00
1.522619e+01	-3.634177e+00
1.531414e+01	-3.662835e+00
1.540259e+01	-3.691457e+00
1.549156e+01	-3.720208e+00
1.558103e+01	-3.749136e+00
1.567103e+01	-3.777889e+00
1.576155e+01	-3.807320e+00
1.585258e+01	-3.836416e+00
1.594415e+01	-3.865584e+00
1.603624e+01	-3.895400e+00
1.612886e+01	-3.925110e+00
1.622202e+01	-3.954784e+00
1.631572e+01	-3.984755e+00
1.640996e+01	-4.015155e+00
1.650474e+01	-4.045206e+00
1.660008e+01	-4.075805e+00
1.669596e+01	-4.106046e+00
1.679239e+01	-4.136901e+00
1.688938e+01	-4.167816e+00
1.698694e+01	-4.198483e+00
1.708505e+01	-4.229578e+00
1.718373e+01	-4.260566e+00
1.728299e+01	-4.291830e+00
1.738281e+01	-4.323365e+00
1.748322e+01	-4.355178e+00
1.758420e+01	-4.386813e+00
1.768576e+01	-4.418724e+00
1.778792e+01	-4.450694e+00
1.789066e+01	-4.482981e+00
1.799399e+01	-4.515119e+00
1.809793e+01	-4.547617e+00
1.820246e+01	-4.580258e+00
1.830760e+01	-4.612900e+00
1.841334e+01	-4.645529e+00
1.851969e+01	-4.678767e+00
1.862666e+01	-4.711318e+00
1.873425e+01	-4.744944e+00
1.884246e+01	-4.778009e+00
1.895129e+01	-4.811603e+00
1.906075e+01	-4.845202e+00
1.917085e+01	-4.879020e+00
1.928158e+01	-4.912907e+00
1.939295e+01	-4.946532e+00
1.950496e+01	-4.980581e+00
1.961762e+01	-5.014785e+00
1.973093e+01	-5.049150e+00
1.984490e+01	-5.083694e+00
1.995952e+01	-5.117934e+00
2.007480e+01	-5.152849e+00
2.019076e+01	-5.187840e+00
2.030738e+01	-5.222512e+00
2.042467e+01	-5.257617e+00
2.054264e+01	-5.292955e+00
2.066130e+01	-5.328148e+00
2.078064e+01	-5.363599e+00
2.090066e+01	-5.399092e+00
2.102139e+01	-5.434630e+00
2.114280e+01	-5.470523e+00
2.126492e+01	-5.506415e+00
2.138775e+01	-5.542109e+00
2.151128e+01	-5.578581e+00
2.163553e+01	-5.615071e+00
2.176050e+01	-5.650947e+00
2.188619e+01	-5.687475e+00
2.201260e+01	-5.724254e+00
2.213974e+01	-5.761036e+00
2.226762e+01	-5.797340e+00
2.239624e+01	-5.834594e+00
2.252560e+01	-5.871755e+00
2.265571e+01	-5.908758e+00
2.278656e+01	-5.946205e+00
2.291818e+01	-5.983467e+00
2.305055e+01	-6.020582e+00
2.318369e+01	-6.058569e+00
2.331760e+01	-6.095940e+00
2.345228e+01	-6.133855e+00
2.358774e+01	-6.171413e+00
2.372398e+01	-6.209523e+00
2.386101e+01	-6.248021e+00
2.399883e+01	-6.285963e+00
2.413745e+01	-6.324485e+00
2.427686e+01	-6.363130e+00
2.441709e+01	-6.401352e+00
2.455812e+01	-6.439881e+00
2.469997e+01	-6.478640e+00
2.484263e+01	-6.517277e+00
2.498612e+01	-6.556325e+00
2.513044e+01	-6.595837e+00
2.527559e+01	-6.634633e+00
2.542158e+01	-6.673470e+00
2.556842e+01	-6.713262e+00
2.571610e+01	-6.752388e+00
2.586463e+01	-6.792037e+00
2.601403e+01	-6.831471e+00
2.616428e+01	-6.871241e+00
2.631541e+01	-6.910926e+00
2.646740e+01	-6.950999e+00
2.662028e+01	-6.990857e+00
2.677404e+01	-7.030901e+00
2.692868e+01	-7.071240e+00
2.708422e+01	-7.111176e+00
2.724066e+01	-7.151990e+00
2.739800e+01	-7.192226e+00
2.755625e+01	-7.232770e+00
2.771541e+01	-7.273011e+00
2.787550e+01	-7.313790e+00
2.803650e+01	-7.354637e+00
2.819844e+01	-7.395873e+00
2.836131e+01	-7.436539e+00
2.852513e+01	-7.477634e+00
2.868989e+01	-7.518765e+00
2.885560e+01	-7.559694e+00
2.902227e+01	-7.601143e+00
2.918990e+01	-7.642702e+00
2.935850e+01	-7.684057e+00
2.952807e+01	-7.725429e+00
2.969863e+01	-7.767130e+00
2.987016e+01	-7.808842e+00
3.004269e+01	-7.850859e+00
3.021622e+01	-7.892889e+00
3.039075e+01	-7.934057e+00
3.056628e+01	-7.976884e+00
3.074283e+01	-8.018554e+00
3.092040e+01	-8.061099e+00
3.109900e+01	-8.103018e+00
3.127862e+01	-8.145608e+00
3.145929e+01	-8.187733e+00
3.164099e+01	-8.229843e+00
3.182375e+01	-8.272770e+00
3.200756e+01	-8.315314e+00
3.219244e+01	-8.358203e+00
3.237838e+01	-8.400866e+00
3.256540e+01	-8.443968e+00
3.275349e+01	-8.486854e+00
3.294268e+01	-8.529420e+00
3.313295e+01	-8.572651e+00
3.332433e+01	-8.615963e+00
3.351681e+01	-8.658800e+00
3.371040e+01	-8.702137e+00
3.390511e+01	-8.744757e+00
3.410094e+01	-8.788795e+00
3.429791e+01	-8.832363e+00
3.449601e+01	-8.875448e+00
3.469526e+01	-8.919552e+00
3.489566e+01	-8.963007e+00
3.509721e+01	-9.006828e+00
3.529993e+01	-9.050255e+00
3.550382e+01	-9.094347e+00
3.570889e+01	-9.138327e+00
3.591515e+01	-9.181896e+00
3.612259e+01	-9.225911e+00
3.633123e+01	-9.270047e+00
3.654108e+01	-9.313945e+00
3.675214e+01	-9.358528e+00
3.696442e+01	-9.402633e+00
3.717792e+01	-9.446703e+00
3.739266e+01	-9.492190e+00
3.760864e+01	-9.536115e+00
3.782587e+01	-9.580888e+00
3.804435e+01	-9.625095e+00
3.826409e+01	-9.669708e+00
3.848510e+01	-9.714601e+00
3.870739e+01	-9.758807e+00
3.893096e+01	-9.803535e+00
3.915583e+01	-9.848096e+00
3.938199e+01	-9.893501e+00
3.960946e+01	-9.938015e+00
3.983824e+01	-9.983356e+00
4.006834e+01	-1.002870e+01
4.029978e+01	-1.007353e+01
4.053255e+01	-1.011863e+01
4.076666e+01	-1.016372e+01
4.100213e+01	-1.020875e+01
4.123896e+01	-1.025387e+01
4.147715e+01	-1.029970e+01
4.171672e+01	-1.034497e+01
4.195767e+01	-1.038990e+01
4.220002e+01	-1.043596e+01
4.244377e+01	-1.048159e+01
4.268892e+01	-1.052682e+01
4.293549e+01	-1.057277e+01
4.318348e+01	-1.061814e+01
4.343291e+01	-1.066378e+01
4.368377e+01	-1.070963e+01
4.393609e+01	-1.075556e+01
4.418986e+01	-1.080111e+01
4.444510e+01	-1.084660e+01
4.470182e+01	-1.089323e+01
4.496001e+01	-1.093915e+01
4.521970e+01	-1.098591e+01
4.548089e+01	-1.103067e+01
4.574358e+01	-1.107732e+01
4.600779e+01	-1.112366e+01
4.627353e+01	-1.116980e+01
4.654081e+01	-1.121622e+01
4.680963e+01	-1.126218e+01
4.708000e+01	-1.130782e+01
4.735193e+01	-1.135459e+01
4.762543e+01	-1.140221e+01
4.790051e+01	-1.144754e+01
4.817719e+01	-1.149413e+01
4.845545e+01	-1.154037e+01
4.873533e+01	-1.158698e+01
4.901682e+01	-1.163342e+01
4.929994e+01	-1.168069e+01
4.958470e+01	-1.172709e+01
4.987110e+01	-1.177355e+01
5.015915e+01	-1.182037e+01
5.044887e+01	-1.186744e+01
5.074026e+01	-1.191424e+01
5.103333e+01	-1.196065e+01
5.132810e+01	-1.200829e+01
5.162457e+01	-1.205413e+01
5.192275e+01	-1.210101e+01
5.222265e+01	-1.214862e+01
5.252429e+01	-1.219553e+01
5.282767e+01	-1.224288e+01
5.313280e+01	-1.228964e+01
5.343969e+01	-1.233694e+01
5.374836e+01	-1.238382e+01
5.405880e+01	-1.243103e+01
5.437105e+01	-1.247808e+01
5.468509e+01	-1.252528e+01
5.500095e+01	-1.257328e+01
5.531863e+01	-1.261982e+01
5.563815e+01	-1.266685e+01
5.595951e+01	-1.271363e+01
5.628273e+01	-1.276153e+01
5.660782e+01	-1.280940e+01
5.693479e+01	-1.285706e+01
5.726364e+01	-1.290450e+01
5.759439e+01	-1.295183e+01
5.792705e+01	-1.299933e+01
5.826164e+01	-1.304707e+01
5.859815e+01	-1.309483e+01
5.893662e+01	-1.314207e+01
5.927703e+01	-1.318905e+01
5.961941e+01	-1.323707e+01
5.996377e+01	-1.328521e+01
6.031012e+01	-1.333281e+01
6.065847e+01	-1.337985e+01
6.100883e+01	-1.342702e+01
6.136121e+01	-1.347518e+01
6.171563e+01	-1.352364e+01
6.207210e+01	-1.357113e+01
6.243063e+01	-1.361908e+01
6.279122e+01	-1.366632e+01
6.315390e+01	-1.371457e+01
6.351868e+01	-1.376245e+01
6.388556e+01	-1.381076e+01
6.425456e+01	-1.385836e+01
6.462569e+01	-1.390694e+01
6.499897e+01	-1.395412e+01
6.537440e+01	-1.400215e+01
6.575200e+01	-1.405060e+01
6.613178e+01	-1.409901e+01
6.651375e+01	-1.414652e+01
6.689793e+01	-1.419441e+01
6.728433e+01	-1.424319e+01
6.767297e+01	-1.429117e+01
6.806384e+01	-1.433964e+01
6.845698e+01	-1.438784e+01
6.885238e+01	-1.443534e+01
6.925007e+01	-1.448286e+01
6.965005e+01	-1.453191e+01
7.005235e+01	-1.458051e+01
7.045697e+01	-1.462841e+01
7.086393e+01	-1.467657e+01
7.127323e+01	-1.472607e+01
7.168490e+01	-1.477418e+01
7.209895e+01	-1.482156e+01
7.251539e+01	-1.487072e+01
7.293424e+01	-1.491857e+01
7.335551e+01	-1.496694e+01
7.377920e+01	-1.501585e+01
7.420535e+01	-1.506455e+01
7.463396e+01	-1.511277e+01
7.506504e+01	-1.516184e+01
7.549861e+01	-1.521007e+01
7.593469e+01	-1.525772e+01
7.637328e+01	-1.530721e+01
7.681441e+01	-1.535571e+01
7.725809e+01	-1.540435e+01
7.770433e+01	-1.545350e+01
7.815315e+01	-1.550079e+01
7.860456e+01	-1.555037e+01
7.905857e+01	-1.559961e+01
7.951521e+01	-1.564699e+01
7.997449e+01	-1.569721e+01
8.043642e+01	-1.574433e+01
8.090102e+01	-1.579246e+01
8.136830e+01	-1.584203e+01
8.183828e+01	-1.589128e+01
8.231097e+01	-1.593987e+01
8.278640e+01	-1.598801e+01
8.326457e+01	-1.603777e+01
8.374550e+01	-1.608630e+01
8.422921e+01	-1.613482e+01
8.471572e+01	-1.618242e+01
8.520503e+01	-1.623318e+01
8.569717e+01	-1.628136e+01
8.619215e+01	-1.632973e+01
8.669000e+01	-1.637827e+01
8.719071e+01	-1.642764e+01
8.769432e+01	-1.647540e+01
8.820084e+01	-1.652525e+01
8.871029e+01	-1.657464e+01
8.922267e+01	-1.662328e+01
8.973802e+01	-1.667264e+01
9.025634e+01	-1.672059e+01
9.077766e+01	-1.676987e+01
9.130199e+01	-1.681928e+01
9.182935e+01	-1.686783e+01
9.235975e+01	-1.691830e+01
9.289321e+01	-1.696607e+01
9.342976e+01	-1.701467e+01
9.396941e+01	-1.706418e+01
9.451217e+01	-1.711349e+01
9.505807e+01	-1.716255e+01
9.560712e+01	-1.721210e+01
9.615934e+01	-1.726124e+01
9.671476e+01	-1.730966e+01
9.727338e+01	-1.735863e+01
9.783522e+01	-1.740790e+01
9.840032e+01	-1.745681e+01
9.896867e+01	-1.750682e+01
9.954031e+01	-1.755485e+01
1.001153e+02	-1.760459e+01
1.006935e+02	-1.765391e+01
1.012751e+02	-1.770257e+01
1.018601e+02	-1.775175e+01
1.024484e+02	-1.780223e+01
1.030402e+02	-1.785071e+01
1.036353e+02	-1.789966e+01
1.042339e+02	-1.794837e+01
1.048360e+02	-1.799809e+01
1.054415e+02	-1.804750e+01
1.060505e+02	-1.809679e+01
1.066631e+02	-1.814602e+01
1.072791e+02	-1.819485e+01
1.078988e+02	-1.824541e+01
1.085220e+02	-1.829311e+01
1.091488e+02	-1.834409e+01
1.097793e+02	-1.839240e+01
1.104133e+02	-1.844233e+01
1.110511e+02	-1.849213e+01
1.116925e+02	-1.853918e+01
1.123376e+02	-1.858919e+01
1.129865e+02	-1.864055e+01
1.136391e+02	-1.868717e+01
1.142955e+02	-1.873607e+01
1.149556e+02	-1.878558e+01
1.156196e+02	-1.883630e+01
1.162874e+02	-1.888479e+01
1.169591e+02	-1.893690e+01
1.176347e+02	-1.898505e+01
1.183141e+02	-1.903414e+01
1.189975e+02	-1.908514e+01
1.196848e+02	-1.913421e+01
1.203761e+02	-1.918189e+01
1.210714e+02	-1.923187e+01
1.217707e+02	-1.928159e+01
1.224740e+02	-1.933141e+01
1.231814e+02	-1.937920e+01
1.238929e+02	-1.943002e+01
1.246085e+02	-1.947887e+01
1.253283e+02	-1.952783e+01
1.260522e+02	-1.957931e+01
1.267802e+02	-1.962699e+01
1.275125e+02	-1.967814e+01
1.282490e+02	-1.972677e+01
1.289898e+02	-1.977687e+01
1.297348e+02	-1.982583e+01
1.304842e+02	-1.987451e+01
1.312378e+02	-1.992436e+01
1.319959e+02	-1.997533e+01
1.327583e+02	-2.002353e+01
1.335251e+02	-2.007366e+01
1.342963e+02	-2.012278e+01
1.350720e+02	-2.017180e+01
1.358522e+02	-2.022143e+01
1.366368e+02	-2.027252e+01
1.374260e+02	-2.032080e+01
1.382198e+02	-2.036836e+01
1.390182e+02	-2.042129e+01
1.398211e+02	-2.046942e+01
1.406287e+02	-2.051931e+01
1.414410e+02	-2.056789e+01
1.422579e+02	-2.061897e+01
1.430796e+02	-2.066759e+01
1.439060e+02	-2.071805e+01
1.447372e+02	-2.076746e+01
1.455732e+02	-2.081654e+01
1.464141e+02	-2.086782e+01
1.472597e+02	-2.091790e+01
1.481103e+02	-2.096723e+01
1.489658e+02	-2.101622e+01
1.498262e+02	-2.106377e+01
1.506916e+02	-2.111324e+01
1.515620e+02	-2.116313e+01
1.524374e+02	-2.121339e+01
1.533179e+02	-2.126548e+01
1.542034e+02	-2.131504e+01
1.550941e+02	-2.136367e+01
1.559899e+02	-2.141143e+01
1.568909e+02	-2.146270e+01
1.577971e+02	-2.151201e+01
1.587085e+02	-2.156213e+01
1.596252e+02	-2.161335e+01
1.605472e+02	-2.166276e+01
1.614745e+02	-2.171083e+01
1.624072e+02	-2.175953e+01
1.633453e+02	-2.180978e+01
1.642887e+02	-2.186118e+01
1.652377e+02	-2.190849e+01
1.661921e+02	-2.196044e+01
1.671520e+02	-2.200827e+01
1.681175e+02	-2.206138e+01
1.690885e+02	-2.210764e+01
1.700651e+02	-2.215872e+01
1.710474e+02	-2.220916e+01
1.720354e+02	-2.225922e+01
1.730291e+02	-2.230803e+01
1.740285e+02	-2.235946e+01
1.750337e+02	-2.240673e+01
1.760446e+02	-2.245794e+01
1.770615e+02	-2.250627e+01
1.780842e+02	-2.255693e+01
1.791128e+02	-2.260610e+01
1.801473e+02	-2.265823e+01
1.811878e+02	-2.270727e+01
1.822344e+02	-2.275661e+01
1.832870e+02	-2.280429e+01
1.843456e+02	-2.285680e+01
1.854104e+02	-2.290535e+01
1.864813e+02	-2.295365e+01
1.875584e+02	-2.300496e+01
1.886418e+02	-2.305635e+01
1.897313e+02	-2.310218e+01
1.908272e+02	-2.315663e+01
1.919294e+02	-2.320502e+01
1.930380e+02	-2.325258e+01
1.941530e+02	-2.330318e+01
1.952744e+02	-2.335372e+01
1.964023e+02	-2.340430e+01
1.975367e+02	-2.345335e+01
1.986777e+02	-2.350120e+01
1.998252e+02	-2.355301e+01
2.009794e+02	-2.360178e+01
2.021403e+02	-2.365224e+01
2.033078e+02	-2.370181e+01
2.044821e+02	-2.375490e+01
2.056632e+02	-2.380260e+01
2.068511e+02	-2.384980e+01
2.080459e+02	-2.390181e+01
2.092475e+02	-2.395052e+01
2.104561e+02	-2.400326e+01
2.116717e+02	-2.405095e+01
2.128943e+02	-2.410287e+01
2.141240e+02	-2.414981e+01
2.153608e+02	-2.420328e+01
2.166047e+02	-2.425115e+01
2.178558e+02	-2.430374e+01
2.191141e+02	-2.435170e+01
2.203797e+02	-2.440151e+01
2.216526e+02	-2.445022e+01
2.229329e+02	-2.450090e+01
2.242205e+02	-2.455151e+01
2.255156e+02	-2.460107e+01
2.268182e+02	-2.464846e+01
2.281283e+02	-2.470110e+01
2.294459e+02	-2.474914e+01
2.307712e+02	-2.479967e+01
2.321041e+02	-2.484929e+01
2.334447e+02	-2.489982e+01
2.347931e+02	-2.495134e+01
2.361493e+02	-2.499980e+01
2.375133e+02	-2.504681e+01
2.388851e+02	-2.509595e+01
2.402649e+02	-2.515094e+01
2.416527e+02	-2.519781e+01
2.430484e+02	-2.524908e+01
2.444523e+02	-2.530021e+01
2.458642e+02	-2.535243e+01
2.472843e+02	-2.539808e+01
2.487126e+02	-2.544861e+01
2.501492e+02	-2.549866e+01
2.515940e+02	-2.554826e+01
2.530472e+02	-2.559806e+01
2.545088e+02	-2.564701e+01
2.559789e+02	-2.569959e+01
2.574574e+02	-2.574673e+01
2.589444e+02	-2.579576e+01
2.604401e+02	-2.584919e+01
2.619444e+02	-2.589827e+01
2.634574e+02	-2.594891e+01
2.649791e+02	-2.600058e+01
2.665096e+02	-2.604854e+01
2.680489e+02	-2.609654e+01
2.695972e+02	-2.614906e+01
2.711544e+02	-2.619537e+01
2.727205e+02	-2.625096e+01
2.742958e+02	-2.629606e+01
2.758801e+02	-2.634605e+01
2.774736e+02	-2.639690e+01
2.790762e+02	-2.645086e+01
2.806882e+02	-2.649960e+01
2.823094e+02	-2.654674e+01
2.839400e+02	-2.659550e+01
2.855800e+02	-2.664842e+01
2.872295e+02	-2.669697e+01
2.888886e+02	-2.675114e+01
2.905572e+02	-2.679669e+01
2.922354e+02	-2.684843e+01
2.939234e+02	-2.689697e+01
2.956211e+02	-2.694750e+01
2.973286e+02	-2.699913e+01
2.990459e+02	-2.704968e+01
3.007732e+02	-2.709910e+01
3.025104e+02	-2.715009e+01
3.042577e+02	-2.719609e+01
3.060151e+02	-2.724641e+01
3.077826e+02	-2.729632e+01
3.095604e+02	-2.734638e+01
3.113484e+02	-2.739845e+01
3.131467e+02	-2.744706e+01
3.149554e+02	-2.749535e+01
3.167746e+02	-2.754721e+01
3.186043e+02	-2.759452e+01
3.204445e+02	-2.765331e+01
3.222954e+02	-2.769629e+01
3.241570e+02	-2.774753e+01
3.260293e+02	-2.779929e+01
3.279124e+02	-2.784458e+01
3.298064e+02	-2.789551e+01
3.317114e+02	-2.794985e+01
3.336273e+02	-2.799973e+01
3.355544e+02	-2.805296e+01
3.374925e+02	-2.809909e+01
3.394418e+02	-2.814750e+01
3.414024e+02	-2.819612e+01
3.433744e+02	-2.824599e+01
3.453577e+02	-2.829757e+01
3.473525e+02	-2.834783e+01
3.493588e+02	-2.839851e+01
3.513766e+02	-2.845310e+01
3.534062e+02	-2.849776e+01
3.554474e+02	-2.854754e+01
3.575005e+02	-2.859985e+01
3.595654e+02	-2.864637e+01
3.616422e+02	-2.869990e+01
3.637311e+02	-2.875167e+01
3.658320e+02	-2.879426e+01
3.679450e+02	-2.884948e+01
3.700702e+02	-2.889984e+01
3.722077e+02	-2.894295e+01
3.743576e+02	-2.899781e+01
3.765199e+02	-2.905227e+01
3.786946e+02	-2.909873e+01
3.808820e+02	-2.914486e+01
3.830819e+02	-2.919743e+01
3.852946e+02	-2.925288e+01
3.875200e+02	-2.930269e+01
3.897583e+02	-2.935376e+01
3.920096e+02	-2.939693e+01
3.942738e+02	-2.944770e+01
3.965511e+02	-2.949609e+01
3.988416e+02	-2.955089e+01
4.011452e+02	-2.959975e+01
4.034622e+02	-2.964903e+01
4.057926e+02	-2.970073e+01
4.081365e+02	-2.974997e+01
4.104938e+02	-2.979687e+01
4.128648e+02	-2.984882e+01
4.152495e+02	-2.990180e+01
4.176480e+02	-2.995042e+01
4.200603e+02	-3.000331e+01
4.224866e+02	-3.004495e+01
4.249268e+02	-3.009856e+01
4.273812e+02	-3.015054e+01
4.298497e+02	-3.019783e+01
4.323325e+02	-3.025035e+01
4.348297e+02	-3.030268e+01
4.373412e+02	-3.035153e+01
4.398673e+02	-3.039832e+01
4.424079e+02	-3.044843e+01
4.449633e+02	-3.050058e+01
4.475334e+02	-3.055347e+01
4.501183e+02	-3.059962e+01
4.527182e+02	-3.065553e+01
4.553330e+02	-3.070191e+01
4.579630e+02	-3.075031e+01
4.606082e+02	-3.080179e+01
4.632687e+02	-3.085026e+01
4.659445e+02	-3.090106e+01
4.686358e+02	-3.095238e+01
4.713426e+02	-3.100406e+01
4.740650e+02	-3.105201e+01
4.768032e+02	-3.110000e+01
4.795572e+02	-3.115138e+01
4.823271e+02	-3.120737e+01
4.851130e+02	-3.125400e+01
4.879150e+02	-3.130698e+01
4.907332e+02	-3.135056e+01
4.935676e+02	-3.140699e+01
4.964185e+02	-3.145405e+01
4.992858e+02	-3.150646e+01
5.021696e+02	-3.155588e+01
5.050701e+02	-3.160755e+01
5.079874e+02	-3.165596e+01
5.109215e+02	-3.170424e+01
5.138726e+02	-3.175146e+01
5.168407e+02	-3.180629e+01
5.198259e+02	-3.185471e+01
5.228284e+02	-3.190167e+01
5.258482e+02	-3.195624e+01
5.288855e+02	-3.200946e+01
5.319403e+02	-3.206149e+01
5.350128e+02	-3.210546e+01
5.381030e+02	-3.216151e+01
5.412111e+02	-3.220340e+01
5.443371e+02	-3.226038e+01
5.474812e+02	-3.231596e+01
5.506434e+02	-3.235619e+01
5.538239e+02	-3.240332e+01
5.570228e+02	-3.245830e+01
5.602401e+02	-3.250405e+01
5.634760e+02	-3.255892e+01
5.667306e+02	-3.260889e+01
5.700040e+02	-3.265265e+01
5.732964e+02	-3.271363e+01
5.766077e+02	-3.275950e+01
5.799382e+02	-3.280420e+01
5.832879e+02	-3.286195e+01
5.866569e+02	-3.290724e+01
5.900454e+02	-3.295956e+01
5.934535e+02	-3.300607e+01
5.968813e+02	-3.305737e+01
6.003288e+02	-3.311319e+01
6.037963e+02	-3.315772e+01
6.072838e+02	-3.321176e+01
6.107914e+02	-3.326312e+01
6.143194e+02	-3.331249e+01
6.178676e+02	-3.336633e+01
6.214364e+02	-3.340708e+01
6.250258e+02	-3.346049e+01
6.286359e+02	-3.350326e+01
6.322669e+02	-3.356429e+01
6.359189e+02	-3.361466e+01
6.395919e+02	-3.366491e+01
6.432862e+02	-3.371159e+01
6.470017e+02	-3.376680e+01
6.507388e+02	-3.382177e+01
6.544974e+02	-3.386609e+01
6.582778e+02	-3.392095e+01
6.620800e+02	-3.396506e+01
6.659041e+02	-3.402067e+01
6.697504e+02	-3.406670e+01
6.736188e+02	-3.411674e+01
6.775096e+02	-3.415743e+01
6.814229e+02	-3.421480e+01
6.853587e+02	-3.427127e+01
6.893173e+02	-3.432350e+01
6.932988e+02	-3.437652e+01
6.973033e+02	-3.442675e+01
7.013309e+02	-3.447155e+01
