Frequency(Hz)	Magnitude(dB)
1.000000e+01	-1.583113e-05
1.005776e+01	-1.601454e-05
1.011585e+01	-1.620007e-05
1.017428e+01	-1.638775e-05
1.023305e+01	-1.657761e-05
1.029215e+01	-1.676967e-05
1.035160e+01	-1.696395e-05
1.041139e+01	-1.716048e-05
1.047153e+01	-1.735929e-05
1.053201e+01	-1.756040e-05
1.059284e+01	-1.776384e-05
1.065403e+01	-1.796964e-05
1.071556e+01	-1.817782e-05
1.077746e+01	-1.838842e-05
1.083971e+01	-1.860145e-05
1.090232e+01	-1.881695e-05
1.096529e+01	-1.903495e-05
1.102862e+01	-1.925548e-05
1.109232e+01	-1.947856e-05
1.115639e+01	-1.970422e-05
1.122083e+01	-1.993250e-05
1.128564e+01	-2.016342e-05
1.135083e+01	-2.039702e-05
1.141639e+01	-2.063333e-05
1.148233e+01	-2.087237e-05
1.154865e+01	-2.111418e-05
1.161536e+01	-2.135879e-05
1.168245e+01	-2.160624e-05
1.174992e+01	-2.185655e-05
1.181779e+01	-2.210977e-05
1.188605e+01	-2.236592e-05
1.195470e+01	-2.262503e-05
1.202375e+01	-2.288715e-05
1.209320e+01	-2.315230e-05
1.216305e+01	-2.342053e-05
1.223330e+01	-2.369186e-05
1.230396e+01	-2.396633e-05
1.237503e+01	-2.424399e-05
1.244651e+01	-2.452486e-05
1.251840e+01	-2.480899e-05
1.259070e+01	-2.509641e-05
1.266343e+01	-2.538716e-05
1.273657e+01	-2.568127e-05
1.281014e+01	-2.597880e-05
1.288413e+01	-2.627977e-05
1.295855e+01	-2.658422e-05
1.303339e+01	-2.689221e-05
1.310867e+01	-2.720376e-05
1.318439e+01	-2.751892e-05
1.326054e+01	-2.783774e-05
1.333713e+01	-2.816024e-05
1.341417e+01	-2.848649e-05
1.349165e+01	-2.881651e-05
1.356958e+01	-2.915036e-05
1.364795e+01	-2.948807e-05
1.372678e+01	-2.982970e-05
1.380607e+01	-3.017528e-05
1.388581e+01	-3.052487e-05
1.396602e+01	-3.087851e-05
1.404668e+01	-3.123624e-05
1.412782e+01	-3.159812e-05
1.420942e+01	-3.196419e-05
1.429149e+01	-3.233451e-05
1.437404e+01	-3.270911e-05
1.445706e+01	-3.308805e-05
1.454057e+01	-3.347138e-05
1.462455e+01	-3.385916e-05
1.470902e+01	-3.425142e-05
1.479398e+01	-3.464823e-05
1.487943e+01	-3.504964e-05
1.496537e+01	-3.545570e-05
1.505181e+01	-3.586646e-05
1.513875e+01	-3.628198e-05
1.522619e+01	-3.670232e-05
1.531414e+01	-3.712752e-05
1.540259e+01	-3.755766e-05
1.549156e+01	-3.799277e-05
1.558103e+01	-3.843292e-05
1.567103e+01	-3.887818e-05
1.576155e+01	-3.932859e-05
1.585258e+01	-3.978422e-05
1.594415e+01	-4.024513e-05
1.603624e+01	-4.071138e-05
1.612886e+01	-4.118303e-05
1.622202e+01	-4.166015e-05
1.631572e+01	-4.214279e-05
1.640996e+01	-4.263102e-05
1.650474e+01	-4.312491e-05
1.660008e+01	-4.362452e-05
1.669596e+01	-4.412992e-05
1.679239e+01	-4.464118e-05
1.688938e+01	-4.515835e-05
1.698694e+01	-4.568152e-05
1.708505e+01	-4.621075e-05
1.718373e+01	-4.674612e-05
1.728299e+01	-4.728768e-05
1.738281e+01	-4.783552e-05
1.748322e+01	-4.838970e-05
1.758420e+01	-4.895031e-05
1.768576e+01	-4.951741e-05
1.778792e+01	-5.009108e-05
1.789066e+01	-5.067139e-05
1.799399e+01	-5.125843e-05
1.809793e+01	-5.185227e-05
1.820246e+01	-5.245299e-05
1.830760e+01	-5.306067e-05
1.841334e+01	-5.367539e-05
1.851969e+01	-5.429723e-05
1.862666e+01	-5.492627e-05
1.873425e+01	-5.556261e-05
1.884246e+01	-5.620631e-05
1.895129e+01	-5.685747e-05
1.906075e+01	-5.751618e-05
1.917085e+01	-5.818251e-05
1.928158e+01	-5.885657e-05
1.939295e+01	-5.953844e-05
1.950496e+01	-6.022820e-05
1.961762e+01	-6.092596e-05
1.973093e+01	-6.163180e-05
1.984490e+01	-6.234581e-05
1.995952e+01	-6.306810e-05
2.007480e+01	-6.379876e-05
2.019076e+01	-6.453788e-05
2.030738e+01	-6.528556e-05
2.042467e+01	-6.604191e-05
2.054264e+01	-6.680702e-05
2.066130e+01	-6.758099e-05
2.078064e+01	-6.836393e-05
2.090066e+01	-6.915593e-05
2.102139e+01	-6.995712e-05
2.114280e+01	-7.076758e-05
2.126492e+01	-7.158744e-05
2.138775e+01	-7.241679e-05
2.151128e+01	-7.325576e-05
2.163553e+01	-7.410444e-05
2.176050e+01	-7.496295e-05
2.188619e+01	-7.583141e-05
2.201260e+01	-7.670993e-05
2.213974e+01	-7.759863e-05
2.226762e+01	-7.849762e-05
2.239624e+01	-7.940703e-05
2.252560e+01	-8.032697e-05
2.265571e+01	-8.125758e-05
2.278656e+01	-8.219896e-05
2.291818e+01	-8.315125e-05
2.305055e+01	-8.411457e-05
2.318369e+01	-8.508905e-05
2.331760e+01	-8.607482e-05
2.345228e+01	-8.707201e-05
2.358774e+01	-8.808075e-05
2.372398e+01	-8.910118e-05
2.386101e+01	-9.013344e-05
2.399883e+01	-9.117765e-05
2.413745e+01	-9.223395e-05
2.427686e+01	-9.330250e-05
2.441709e+01	-9.438342e-05
2.455812e+01	-9.547687e-05
2.469997e+01	-9.658298e-05
2.484263e+01	-9.770191e-05
2.498612e+01	-9.883380e-05
2.513044e+01	-9.997881e-05
2.527559e+01	-1.011371e-04
2.542158e+01	-1.023088e-04
2.556842e+01	-1.034940e-04
2.571610e+01	-1.046930e-04
2.586463e+01	-1.059059e-04
2.601403e+01	-1.071328e-04
2.616428e+01	-1.083740e-04
2.631541e+01	-1.096295e-04
2.646740e+01	-1.108996e-04
2.662028e+01	-1.121844e-04
2.677404e+01	-1.134840e-04
2.692868e+01	-1.147988e-04
2.708422e+01	-1.161287e-04
2.724066e+01	-1.174741e-04
2.739800e+01	-1.188350e-04
2.755625e+01	-1.202118e-04
2.771541e+01	-1.216044e-04
2.787550e+01	-1.230132e-04
2.803650e+01	-1.244383e-04
2.819844e+01	-1.258800e-04
2.836131e+01	-1.273383e-04
2.852513e+01	-1.288135e-04
2.868989e+01	-1.303059e-04
2.885560e+01	-1.318155e-04
2.902227e+01	-1.333426e-04
2.918990e+01	-1.348873e-04
2.935850e+01	-1.364500e-04
2.952807e+01	-1.380308e-04
2.969863e+01	-1.396299e-04
2.987016e+01	-1.412475e-04
3.004269e+01	-1.428839e-04
3.021622e+01	-1.445392e-04
3.039075e+01	-1.462137e-04
3.056628e+01	-1.479076e-04
3.074283e+01	-1.496212e-04
3.092040e+01	-1.513545e-04
3.109900e+01	-1.531080e-04
3.127862e+01	-1.548817e-04
3.145929e+01	-1.566761e-04
3.164099e+01	-1.584912e-04
3.182375e+01	-1.603273e-04
3.200756e+01	-1.621847e-04
3.219244e+01	-1.640636e-04
3.237838e+01	-1.659643e-04
3.256540e+01	-1.678870e-04
3.275349e+01	-1.698320e-04
3.294268e+01	-1.717995e-04
3.313295e+01	-1.737898e-04
3.332433e+01	-1.758032e-04
3.351681e+01	-1.778399e-04
3.371040e+01	-1.799001e-04
3.390511e+01	-1.819843e-04
3.410094e+01	-1.840926e-04
3.429791e+01	-1.862253e-04
3.449601e+01	-1.883827e-04
3.469526e+01	-1.905651e-04
3.489566e+01	-1.927728e-04
3.509721e+01	-1.950061e-04
3.529993e+01	-1.972653e-04
3.550382e+01	-1.995506e-04
3.570889e+01	-2.018624e-04
3.591515e+01	-2.042010e-04
3.612259e+01	-2.065666e-04
3.633123e+01	-2.089597e-04
3.654108e+01	-2.113805e-04
3.675214e+01	-2.138293e-04
3.696442e+01	-2.163066e-04
3.717792e+01	-2.188125e-04
3.739266e+01	-2.213474e-04
3.760864e+01	-2.239117e-04
3.782587e+01	-2.265057e-04
3.804435e+01	-2.291298e-04
3.826409e+01	-2.317842e-04
3.848510e+01	-2.344695e-04
3.870739e+01	-2.371858e-04
3.893096e+01	-2.399336e-04
3.915583e+01	-2.427132e-04
3.938199e+01	-2.455250e-04
3.960946e+01	-2.483694e-04
3.983824e+01	-2.512467e-04
4.006834e+01	-2.541574e-04
4.029978e+01	-2.571018e-04
4.053255e+01	-2.600803e-04
4.076666e+01	-2.630933e-04
4.100213e+01	-2.661413e-04
4.123896e+01	-2.692245e-04
4.147715e+01	-2.723434e-04
4.171672e+01	-2.754985e-04
4.195767e+01	-2.786901e-04
4.220002e+01	-2.819187e-04
4.244377e+01	-2.851847e-04
4.268892e+01	-2.884885e-04
4.293549e+01	-2.918307e-04
4.318348e+01	-2.952115e-04
4.343291e+01	-2.986315e-04
4.368377e+01	-3.020911e-04
4.393609e+01	-3.055908e-04
4.418986e+01	-3.091310e-04
4.444510e+01	-3.127122e-04
4.470182e+01	-3.163350e-04
4.496001e+01	-3.199997e-04
4.521970e+01	-3.237068e-04
4.548089e+01	-3.274569e-04
4.574358e+01	-3.312504e-04
4.600779e+01	-3.350879e-04
4.627353e+01	-3.389698e-04
4.654081e+01	-3.428967e-04
4.680963e+01	-3.468691e-04
4.708000e+01	-3.508876e-04
4.735193e+01	-3.549525e-04
4.762543e+01	-3.590646e-04
4.790051e+01	-3.632243e-04
4.817719e+01	-3.674321e-04
4.845545e+01	-3.716888e-04
4.873533e+01	-3.759947e-04
4.901682e+01	-3.803505e-04
4.929994e+01	-3.847568e-04
4.958470e+01	-3.892141e-04
4.987110e+01	-3.937230e-04
5.015915e+01	-3.982842e-04
5.044887e+01	-4.028982e-04
5.074026e+01	-4.075657e-04
5.103333e+01	-4.122872e-04
5.132810e+01	-4.170635e-04
5.162457e+01	-4.218950e-04
5.192275e+01	-4.267826e-04
5.222265e+01	-4.317267e-04
5.252429e+01	-4.367281e-04
5.282767e+01	-4.417875e-04
5.313280e+01	-4.469055e-04
5.343969e+01	-4.520827e-04
5.374836e+01	-4.573199e-04
5.405880e+01	-4.626178e-04
5.437105e+01	-4.679771e-04
5.468509e+01	-4.733985e-04
5.500095e+01	-4.788826e-04
5.531863e+01	-4.844303e-04
5.563815e+01	-4.900422e-04
5.595951e+01	-4.957192e-04
5.628273e+01	-5.014619e-04
5.660782e+01	-5.072711e-04
5.693479e+01	-5.131476e-04
5.726364e+01	-5.190923e-04
5.759439e+01	-5.251057e-04
5.792705e+01	-5.311888e-04
5.826164e+01	-5.373424e-04
5.859815e+01	-5.435673e-04
5.893662e+01	-5.498643e-04
5.927703e+01	-5.562342e-04
5.961941e+01	-5.626779e-04
5.996377e+01	-5.691963e-04
6.031012e+01	-5.757901e-04
6.065847e+01	-5.824604e-04
6.100883e+01	-5.892079e-04
6.136121e+01	-5.960335e-04
6.171563e+01	-6.029383e-04
6.207210e+01	-6.099230e-04
6.243063e+01	-6.169886e-04
6.279122e+01	-6.241361e-04
6.315390e+01	-6.313663e-04
6.351868e+01	-6.386803e-04
6.388556e+01	-6.460791e-04
6.425456e+01	-6.535635e-04
6.462569e+01	-6.611347e-04
6.499897e+01	-6.687935e-04
6.537440e+01	-6.765411e-04
6.575200e+01	-6.843784e-04
6.613178e+01	-6.923064e-04
6.651375e+01	-7.003263e-04
6.689793e+01	-7.084392e-04
6.728433e+01	-7.166459e-04
6.767297e+01	-7.249478e-04
6.806384e+01	-7.333458e-04
6.845698e+01	-7.418411e-04
6.885238e+01	-7.504348e-04
6.925007e+01	-7.591280e-04
6.965005e+01	-7.679219e-04
7.005235e+01	-7.768177e-04
7.045697e+01	-7.858166e-04
7.086393e+01	-7.949196e-04
7.127323e+01	-8.041281e-04
7.168490e+01	-8.134433e-04
7.209895e+01	-8.228664e-04
7.251539e+01	-8.323986e-04
7.293424e+01	-8.420412e-04
7.335551e+01	-8.517956e-04
7.377920e+01	-8.616629e-04
7.420535e+01	-8.716445e-04
7.463396e+01	-8.817417e-04
7.506504e+01	-8.919558e-04
7.549861e+01	-9.022883e-04
7.593469e+01	-9.127405e-04
7.637328e+01	-9.233137e-04
7.681441e+01	-9.340094e-04
7.725809e+01	-9.448290e-04
7.770433e+01	-9.557739e-04
7.815315e+01	-9.668455e-04
7.860456e+01	-9.780454e-04
7.905857e+01	-9.893751e-04
7.951521e+01	-1.000836e-03
7.997449e+01	-1.012430e-03
8.043642e+01	-1.024157e-03
8.090102e+01	-1.036021e-03
8.136830e+01	-1.048022e-03
8.183828e+01	-1.060162e-03
8.231097e+01	-1.072443e-03
8.278640e+01	-1.084866e-03
8.326457e+01	-1.097433e-03
8.374550e+01	-1.110146e-03
8.422921e+01	-1.123005e-03
8.471572e+01	-1.136014e-03
8.520503e+01	-1.149173e-03
8.569717e+01	-1.162485e-03
8.619215e+01	-1.175951e-03
8.669000e+01	-1.189573e-03
8.719071e+01	-1.203352e-03
8.769432e+01	-1.217291e-03
8.820084e+01	-1.231392e-03
8.871029e+01	-1.245656e-03
8.922267e+01	-1.260085e-03
8.973802e+01	-1.274681e-03
9.025634e+01	-1.289447e-03
9.077766e+01	-1.304383e-03
9.130199e+01	-1.319492e-03
9.182935e+01	-1.334777e-03
9.235975e+01	-1.350238e-03
9.289321e+01	-1.365878e-03
9.342976e+01	-1.381700e-03
9.396941e+01	-1.397705e-03
9.451217e+01	-1.413895e-03
9.505807e+01	-1.430273e-03
9.560712e+01	-1.446840e-03
9.615934e+01	-1.463599e-03
9.671476e+01	-1.480552e-03
9.727338e+01	-1.497702e-03
9.783522e+01	-1.515050e-03
9.840032e+01	-1.532600e-03
9.896867e+01	-1.550352e-03
9.954031e+01	-1.568310e-03
1.001153e+02	-1.586476e-03
1.006935e+02	-1.604852e-03
1.012751e+02	-1.623441e-03
1.018601e+02	-1.642246e-03
1.024484e+02	-1.661268e-03
1.030402e+02	-1.680511e-03
1.036353e+02	-1.699976e-03
1.042339e+02	-1.719667e-03
1.048360e+02	-1.739586e-03
1.054415e+02	-1.759735e-03
1.060505e+02	-1.780118e-03
1.066631e+02	-1.800737e-03
1.072791e+02	-1.821594e-03
1.078988e+02	-1.842694e-03
1.085220e+02	-1.864037e-03
1.091488e+02	-1.885628e-03
1.097793e+02	-1.907468e-03
1.104133e+02	-1.929562e-03
1.110511e+02	-1.951912e-03
1.116925e+02	-1.974520e-03
1.123376e+02	-1.997390e-03
1.129865e+02	-2.020525e-03
1.136391e+02	-2.043928e-03
1.142955e+02	-2.067601e-03
1.149556e+02	-2.091549e-03
1.156196e+02	-2.115775e-03
1.162874e+02	-2.140280e-03
1.169591e+02	-2.165070e-03
1.176347e+02	-2.190146e-03
1.183141e+02	-2.215513e-03
1.189975e+02	-2.241174e-03
1.196848e+02	-2.267132e-03
1.203761e+02	-2.293390e-03
1.210714e+02	-2.319953e-03
1.217707e+02	-2.346823e-03
1.224740e+02	-2.374004e-03
1.231814e+02	-2.401500e-03
1.238929e+02	-2.429314e-03
1.246085e+02	-2.457450e-03
1.253283e+02	-2.485912e-03
1.260522e+02	-2.514704e-03
1.267802e+02	-2.543829e-03
1.275125e+02	-2.573291e-03
1.282490e+02	-2.603094e-03
1.289898e+02	-2.633243e-03
1.297348e+02	-2.663740e-03
1.304842e+02	-2.694591e-03
1.312378e+02	-2.725799e-03
1.319959e+02	-2.757368e-03
1.327583e+02	-2.789302e-03
1.335251e+02	-2.821606e-03
1.342963e+02	-2.854285e-03
1.350720e+02	-2.887341e-03
1.358522e+02	-2.920781e-03
1.366368e+02	-2.954607e-03
1.374260e+02	-2.988825e-03
1.382198e+02	-3.023440e-03
1.390182e+02	-3.058455e-03
1.398211e+02	-3.093875e-03
1.406287e+02	-3.129705e-03
1.414410e+02	-3.165951e-03
1.422579e+02	-3.202615e-03
1.430796e+02	-3.239705e-03
1.439060e+02	-3.277223e-03
1.447372e+02	-3.315176e-03
1.455732e+02	-3.353569e-03
1.464141e+02	-3.392405e-03
1.472597e+02	-3.431692e-03
1.481103e+02	-3.471433e-03
1.489658e+02	-3.511634e-03
1.498262e+02	-3.552301e-03
1.506916e+02	-3.593438e-03
1.515620e+02	-3.635051e-03
1.524374e+02	-3.677147e-03
1.533179e+02	-3.719729e-03
1.542034e+02	-3.762804e-03
1.550941e+02	-3.806378e-03
1.559899e+02	-3.850457e-03
1.568909e+02	-3.895045e-03
1.577971e+02	-3.940150e-03
1.587085e+02	-3.985776e-03
1.596252e+02	-4.031931e-03
1.605472e+02	-4.078620e-03
1.614745e+02	-4.125849e-03
1.624072e+02	-4.173626e-03
1.633453e+02	-4.221955e-03
1.642887e+02	-4.270843e-03
1.652377e+02	-4.320297e-03
1.661921e+02	-4.370324e-03
1.671520e+02	-4.420929e-03
1.681175e+02	-4.472120e-03
1.690885e+02	-4.523904e-03
1.700651e+02	-4.576287e-03
1.710474e+02	-4.629276e-03
1.720354e+02	-4.682878e-03
1.730291e+02	-4.737101e-03
1.740285e+02	-4.791951e-03
1.750337e+02	-4.847436e-03
1.760446e+02	-4.903563e-03
1.770615e+02	-4.960340e-03
1.780842e+02	-5.017773e-03
1.791128e+02	-5.075872e-03
1.801473e+02	-5.134642e-03
1.811878e+02	-5.194092e-03
1.822344e+02	-5.254231e-03
1.832870e+02	-5.315065e-03
1.843456e+02	-5.376603e-03
1.854104e+02	-5.438854e-03
1.864813e+02	-5.501824e-03
1.875584e+02	-5.565523e-03
1.886418e+02	-5.629959e-03
1.897313e+02	-5.695141e-03
1.908272e+02	-5.761077e-03
1.919294e+02	-5.827776e-03
1.930380e+02	-5.895246e-03
1.941530e+02	-5.963497e-03
1.952744e+02	-6.032537e-03
1.964023e+02	-6.102377e-03
1.975367e+02	-6.173024e-03
1.986777e+02	-6.244488e-03
1.998252e+02	-6.316780e-03
2.009794e+02	-6.389907e-03
2.021403e+02	-6.463881e-03
2.033078e+02	-6.538710e-03
2.044821e+02	-6.614405e-03
2.056632e+02	-6.690975e-03
2.068511e+02	-6.768431e-03
2.080459e+02	-6.846783e-03
2.092475e+02	-6.926042e-03
2.104561e+02	-7.006217e-03
2.116717e+02	-7.087319e-03
2.128943e+02	-7.169359e-03
2.141240e+02	-7.252349e-03
2.153608e+02	-7.336298e-03
2.166047e+02	-7.421218e-03
2.178558e+02	-7.507120e-03
2.191141e+02	-7.594016e-03
2.203797e+02	-7.681916e-03
2.216526e+02	-7.770834e-03
2.229329e+02	-7.860779e-03
2.242205e+02	-7.951765e-03
2.255156e+02	-8.043802e-03
2.268182e+02	-8.136904e-03
2.281283e+02	-8.231083e-03
2.294459e+02	-8.326350e-03
2.307712e+02	-8.422719e-03
2.321041e+02	-8.520203e-03
2.334447e+02	-8.618813e-03
2.347931e+02	-8.718564e-03
2.361493e+02	-8.819468e-03
2.375133e+02	-8.921538e-03
2.388851e+02	-9.024789e-03
2.402649e+02	-9.129233e-03
2.416527e+02	-9.234885e-03
2.430484e+02	-9.341758e-03
2.444523e+02	-9.449866e-03
2.458642e+02	-9.559225e-03
2.472843e+02	-9.669847e-03
2.487126e+02	-9.781748e-03
2.501492e+02	-9.894943e-03
2.515940e+02	-1.000945e-02
2.530472e+02	-1.012527e-02
2.545088e+02	-1.024244e-02
2.559789e+02	-1.036096e-02
2.574574e+02	-1.048085e-02
2.589444e+02	-1.060212e-02
2.604401e+02	-1.072480e-02
2.619444e+02	-1.084889e-02
2.634574e+02	-1.097442e-02
2.649791e+02	-1.110140e-02
2.665096e+02	-1.122984e-02
2.680489e+02	-1.135977e-02
2.695972e+02	-1.149120e-02
2.711544e+02	-1.162415e-02
2.727205e+02	-1.175864e-02
2.742958e+02	-1.189468e-02
2.758801e+02	-1.203229e-02
2.774736e+02	-1.217149e-02
2.790762e+02	-1.231230e-02
2.806882e+02	-1.245474e-02
2.823094e+02	-1.259882e-02
2.839400e+02	-1.274456e-02
2.855800e+02	-1.289199e-02
2.872295e+02	-1.304112e-02
2.888886e+02	-1.319198e-02
2.905572e+02	-1.334458e-02
2.922354e+02	-1.349893e-02
2.939234e+02	-1.365508e-02
2.956211e+02	-1.381302e-02
2.973286e+02	-1.397279e-02
2.990459e+02	-1.413441e-02
3.007732e+02	-1.429789e-02
3.025104e+02	-1.446325e-02
3.042577e+02	-1.463053e-02
3.060151e+02	-1.479974e-02
3.077826e+02	-1.497090e-02
3.095604e+02	-1.514404e-02
3.113484e+02	-1.531918e-02
3.131467e+02	-1.549634e-02
3.149554e+02	-1.567554e-02
3.167746e+02	-1.585681e-02
3.186043e+02	-1.604018e-02
3.204445e+02	-1.622566e-02
3.222954e+02	-1.641328e-02
3.241570e+02	-1.660307e-02
3.260293e+02	-1.679505e-02
3.279124e+02	-1.698924e-02
3.298064e+02	-1.718567e-02
3.317114e+02	-1.738437e-02
3.336273e+02	-1.758537e-02
3.355544e+02	-1.778868e-02
3.374925e+02	-1.799434e-02
3.394418e+02	-1.820237e-02
3.414024e+02	-1.841280e-02
3.433744e+02	-1.862566e-02
3.453577e+02	-1.884097e-02
3.473525e+02	-1.905877e-02
3.493588e+02	-1.927907e-02
3.513766e+02	-1.950192e-02
3.534062e+02	-1.972734e-02
3.554474e+02	-1.995536e-02
3.575005e+02	-2.018601e-02
3.595654e+02	-2.041932e-02
3.616422e+02	-2.065532e-02
3.637311e+02	-2.089404e-02
3.658320e+02	-2.113551e-02
3.679450e+02	-2.137977e-02
3.700702e+02	-2.162684e-02
3.722077e+02	-2.187676e-02
3.743576e+02	-2.212956e-02
3.765199e+02	-2.238527e-02
3.786946e+02	-2.264393e-02
3.808820e+02	-2.290557e-02
3.830819e+02	-2.317023e-02
3.852946e+02	-2.343794e-02
3.875200e+02	-2.370873e-02
3.897583e+02	-2.398264e-02
3.920096e+02	-2.425971e-02
3.942738e+02	-2.453996e-02
3.965511e+02	-2.482345e-02
3.988416e+02	-2.511020e-02
4.011452e+02	-2.540026e-02
4.034622e+02	-2.569365e-02
4.057926e+02	-2.599043e-02
4.081365e+02	-2.629062e-02
4.104938e+02	-2.659427e-02
4.128648e+02	-2.690141e-02
4.152495e+02	-2.721209e-02
4.176480e+02	-2.752635e-02
4.200603e+02	-2.784422e-02
4.224866e+02	-2.816576e-02
4.249268e+02	-2.849099e-02
4.273812e+02	-2.881997e-02
4.298497e+02	-2.915273e-02
4.323325e+02	-2.948932e-02
4.348297e+02	-2.982979e-02
4.373412e+02	-3.017417e-02
4.398673e+02	-3.052251e-02
4.424079e+02	-3.087486e-02
4.449633e+02	-3.123127e-02
4.475334e+02	-3.159177e-02
4.501183e+02	-3.195642e-02
4.527182e+02	-3.232526e-02
4.553330e+02	-3.269834e-02
4.579630e+02	-3.307571e-02
4.606082e+02	-3.345742e-02
4.632687e+02	-3.384352e-02
4.659445e+02	-3.423406e-02
4.686358e+02	-3.462909e-02
4.713426e+02	-3.502865e-02
4.740650e+02	-3.543281e-02
4.768032e+02	-3.584161e-02
4.795572e+02	-3.625510e-02
4.823271e+02	-3.667335e-02
4.851130e+02	-3.709640e-02
4.879150e+02	-3.752431e-02
4.907332e+02	-3.795714e-02
4.935676e+02	-3.839493e-02
4.964185e+02	-3.883775e-02
4.992858e+02	-3.928566e-02
5.021696e+02	-3.973870e-02
5.050701e+02	-4.019695e-02
5.079874e+02	-4.066046e-02
5.109215e+02	-4.112929e-02
5.138726e+02	-4.160349e-02
5.168407e+02	-4.208314e-02
5.198259e+02	-4.256829e-02
5.228284e+02	-4.305900e-02
5.258482e+02	-4.355535e-02
5.288855e+02	-4.405738e-02
5.319403e+02	-4.456517e-02
5.350128e+02	-4.507879e-02
5.381030e+02	-4.559829e-02
5.412111e+02	-4.612375e-02
5.443371e+02	-4.665523e-02
5.474812e+02	-4.719280e-02
5.506434e+02	-4.773653e-02
5.538239e+02	-4.828649e-02
5.570228e+02	-4.884275e-02
5.602401e+02	-4.940538e-02
5.634760e+02	-4.997446e-02
5.667306e+02	-5.055005e-02
5.700040e+02	-5.113223e-02
5.732964e+02	-5.172108e-02
5.766077e+02	-5.231667e-02
5.799382e+02	-5.291907e-02
5.832879e+02	-5.352837e-02
5.866569e+02	-5.414464e-02
5.900454e+02	-5.476796e-02
5.934535e+02	-5.539841e-02
5.968813e+02	-5.603607e-02
6.003288e+02	-5.668102e-02
6.037963e+02	-5.733334e-02
6.072838e+02	-5.799313e-02
6.107914e+02	-5.866045e-02
6.143194e+02	-5.933540e-02
6.178676e+02	-6.001806e-02
6.214364e+02	-6.070852e-02
6.250258e+02	-6.140687e-02
6.286359e+02	-6.211319e-02
6.322669e+02	-6.282758e-02
6.359189e+02	-6.355012e-02
6.395919e+02	-6.428092e-02
6.432862e+02	-6.502005e-02
6.470017e+02	-6.576762e-02
6.507388e+02	-6.652372e-02
6.544974e+02	-6.728844e-02
6.582778e+02	-6.806188e-02
6.620800e+02	-6.884414e-02
6.659041e+02	-6.963532e-02
6.697504e+02	-7.043552e-02
6.736188e+02	-7.124484e-02
6.775096e+02	-7.206339e-02
6.814229e+02	-7.289125e-02
6.853587e+02	-7.372855e-02
6.893173e+02	-7.457538e-02
6.932988e+02	-7.543185e-02
6.973033e+02	-7.629808e-02
7.013309e+02	-7.717416e-02
