Frequency(Hz)	Magnitude(dB)
1.000000e+01	-2.079962e+00
1.005776e+01	-2.099005e+00
1.011585e+01	-2.118359e+00
1.017428e+01	-2.137994e+00
1.023305e+01	-2.157205e+00
1.029215e+01	-2.176798e+00
1.035160e+01	-2.196538e+00
1.041139e+01	-2.216882e+00
1.047153e+01	-2.236993e+00
1.053201e+01	-2.257027e+00
1.059284e+01	-2.277168e+00
1.065403e+01	-2.297789e+00
1.071556e+01	-2.318357e+00
1.077746e+01	-2.339111e+00
1.083971e+01	-2.360240e+00
1.090232e+01	-2.381013e+00
1.096529e+01	-2.402293e+00
1.102862e+01	-2.423528e+00
1.109232e+01	-2.445068e+00
1.115639e+01	-2.466697e+00
1.122083e+01	-2.488212e+00
1.128564e+01	-2.510136e+00
1.135083e+01	-2.532313e+00
1.141639e+01	-2.554471e+00
1.148233e+01	-2.577012e+00
1.154865e+01	-2.599450e+00
1.161536e+01	-2.622084e+00
1.168245e+01	-2.644621e+00
1.174992e+01	-2.667526e+00
1.181779e+01	-2.690556e+00
1.188605e+01	-2.713684e+00
1.195470e+01	-2.737103e+00
1.202375e+01	-2.760536e+00
1.209320e+01	-2.784333e+00
1.216305e+01	-2.807709e+00
1.223330e+01	-2.831764e+00
1.230396e+01	-2.855709e+00
1.237503e+01	-2.879819e+00
1.244651e+01	-2.904244e+00
1.251840e+01	-2.928800e+00
1.259070e+01	-2.953533e+00
1.266343e+01	-2.977806e+00
1.273657e+01	-3.003204e+00
1.281014e+01	-3.028275e+00
1.288413e+01	-3.053082e+00
1.295855e+01	-3.078684e+00
1.303339e+01	-3.104172e+00
1.310867e+01	-3.129749e+00
1.318439e+01	-3.155392e+00
1.326054e+01	-3.181243e+00
1.333713e+01	-3.207384e+00
1.341417e+01	-3.233710e+00
1.349165e+01	-3.259936e+00
1.356958e+01	-3.286437e+00
1.364795e+01	-3.312901e+00
1.372678e+01	-3.339889e+00
1.380607e+01	-3.366768e+00
1.388581e+01	-3.393650e+00
1.396602e+01	-3.421013e+00
1.404668e+01	-3.448073e+00
1.412782e+01	-3.475803e+00
1.420942e+01	-3.503384e+00
1.429149e+01	-3.531184e+00
1.437404e+01	-3.558998e+00
1.445706e+01	-3.587133e+00
1.454057e+01	-3.615381e+00
1.462455e+01	-3.643950e+00
1.470902e+01	-3.672358e+00
1.479398e+01	-3.700669e+00
1.487943e+01	-3.729509e+00
1.496537e+01	-3.758605e+00
1.505181e+01	-3.787400e+00
1.513875e+01	-3.816391e+00
1.522619e+01	-3.846208e+00
1.531414e+01	-3.875641e+00
1.540259e+01	-3.904881e+00
1.549156e+01	-3.934633e+00
1.558103e+01	-3.964690e+00
1.567103e+01	-3.994845e+00
1.576155e+01	-4.025161e+00
1.585258e+01	-4.055043e+00
1.594415e+01	-4.085602e+00
1.603624e+01	-4.116205e+00
1.612886e+01	-4.146947e+00
1.622202e+01	-4.177558e+00
1.631572e+01	-4.208601e+00
1.640996e+01	-4.239544e+00
1.650474e+01	-4.270964e+00
1.660008e+01	-4.302475e+00
1.669596e+01	-4.333805e+00
1.679239e+01	-4.365717e+00
1.688938e+01	-4.397298e+00
1.698694e+01	-4.428914e+00
1.708505e+01	-4.461352e+00
1.718373e+01	-4.493223e+00
1.728299e+01	-4.525772e+00
1.738281e+01	-4.558485e+00
1.748322e+01	-4.590888e+00
1.758420e+01	-4.623479e+00
1.768576e+01	-4.656430e+00
1.778792e+01	-4.689064e+00
1.789066e+01	-4.722430e+00
1.799399e+01	-4.755496e+00
1.809793e+01	-4.789050e+00
1.820246e+01	-4.822540e+00
1.830760e+01	-4.855860e+00
1.841334e+01	-4.889829e+00
1.851969e+01	-4.923888e+00
1.862666e+01	-4.957441e+00
1.873425e+01	-4.991790e+00
1.884246e+01	-5.026074e+00
1.895129e+01	-5.060791e+00
1.906075e+01	-5.094989e+00
1.917085e+01	-5.129208e+00
1.928158e+01	-5.163934e+00
1.939295e+01	-5.199035e+00
1.950496e+01	-5.234033e+00
1.961762e+01	-5.268895e+00
1.973093e+01	-5.304489e+00
1.984490e+01	-5.339774e+00
1.995952e+01	-5.375104e+00
2.007480e+01	-5.410805e+00
2.019076e+01	-5.446445e+00
2.030738e+01	-5.482011e+00
2.042467e+01	-5.518023e+00
2.054264e+01	-5.554191e+00
2.066130e+01	-5.590117e+00
2.078064e+01	-5.626550e+00
2.090066e+01	-5.663053e+00
2.102139e+01	-5.699638e+00
2.114280e+01	-5.736191e+00
2.126492e+01	-5.772823e+00
2.138775e+01	-5.809480e+00
2.151128e+01	-5.846485e+00
2.163553e+01	-5.883548e+00
2.176050e+01	-5.920906e+00
2.188619e+01	-5.957991e+00
2.201260e+01	-5.995658e+00
2.213974e+01	-6.033005e+00
2.226762e+01	-6.070557e+00
2.239624e+01	-6.108437e+00
2.252560e+01	-6.146060e+00
2.265571e+01	-6.183906e+00
2.278656e+01	-6.221826e+00
2.291818e+01	-6.259960e+00
2.305055e+01	-6.298617e+00
2.318369e+01	-6.337021e+00
2.331760e+01	-6.375175e+00
2.345228e+01	-6.413903e+00
2.358774e+01	-6.452576e+00
2.372398e+01	-6.491157e+00
2.386101e+01	-6.530165e+00
2.399883e+01	-6.569575e+00
2.413745e+01	-6.608369e+00
2.427686e+01	-6.647526e+00
2.441709e+01	-6.686481e+00
2.455812e+01	-6.725951e+00
2.469997e+01	-6.765251e+00
2.484263e+01	-6.805015e+00
2.498612e+01	-6.844635e+00
2.513044e+01	-6.884126e+00
2.527559e+01	-6.923984e+00
2.542158e+01	-6.964061e+00
2.556842e+01	-7.004254e+00
2.571610e+01	-7.044322e+00
2.586463e+01	-7.084371e+00
2.601403e+01	-7.124293e+00
2.616428e+01	-7.165156e+00
2.631541e+01	-7.205461e+00
2.646740e+01	-7.245798e+00
2.662028e+01	-7.286726e+00
2.677404e+01	-7.326926e+00
2.692868e+01	-7.368153e+00
2.708422e+01	-7.408781e+00
2.724066e+01	-7.450095e+00
2.739800e+01	-7.491094e+00
2.755625e+01	-7.532221e+00
2.771541e+01	-7.573282e+00
2.787550e+01	-7.614659e+00
2.803650e+01	-7.656134e+00
2.819844e+01	-7.697659e+00
2.836131e+01	-7.739317e+00
2.852513e+01	-7.781405e+00
2.868989e+01	-7.822485e+00
2.885560e+01	-7.864478e+00
2.902227e+01	-7.906446e+00
2.918990e+01	-7.948017e+00
2.935850e+01	-7.990144e+00
2.952807e+01	-8.032444e+00
2.969863e+01	-8.074741e+00
2.987016e+01	-8.116883e+00
3.004269e+01	-8.159147e+00
3.021622e+01	-8.201585e+00
3.039075e+01	-8.244176e+00
3.056628e+01	-8.286062e+00
3.074283e+01	-8.329620e+00
3.092040e+01	-8.372145e+00
3.109900e+01	-8.414704e+00
3.127862e+01	-8.457896e+00
3.145929e+01	-8.500677e+00
3.164099e+01	-8.543511e+00
3.182375e+01	-8.586489e+00
3.200756e+01	-8.629877e+00
3.219244e+01	-8.673145e+00
3.237838e+01	-8.716248e+00
3.256540e+01	-8.759436e+00
3.275349e+01	-8.802910e+00
3.294268e+01	-8.846365e+00
3.313295e+01	-8.889695e+00
3.332433e+01	-8.933575e+00
3.351681e+01	-8.977472e+00
3.371040e+01	-9.020830e+00
3.390511e+01	-9.064906e+00
3.410094e+01	-9.108476e+00
3.429791e+01	-9.152695e+00
3.449601e+01	-9.196933e+00
3.469526e+01	-9.240559e+00
3.489566e+01	-9.284598e+00
3.509721e+01	-9.328475e+00
3.529993e+01	-9.372983e+00
3.550382e+01	-9.417028e+00
3.570889e+01	-9.461696e+00
3.591515e+01	-9.506243e+00
3.612259e+01	-9.550745e+00
3.633123e+01	-9.595573e+00
3.654108e+01	-9.639669e+00
3.675214e+01	-9.684099e+00
3.696442e+01	-9.728963e+00
3.717792e+01	-9.774113e+00
3.739266e+01	-9.818275e+00
3.760864e+01	-9.863786e+00
3.782587e+01	-9.908091e+00
3.804435e+01	-9.953530e+00
3.826409e+01	-9.997458e+00
3.848510e+01	-1.004308e+01
3.870739e+01	-1.008781e+01
3.893096e+01	-1.013333e+01
3.915583e+01	-1.017903e+01
3.938199e+01	-1.022398e+01
3.960946e+01	-1.026869e+01
3.983824e+01	-1.031457e+01
4.006834e+01	-1.036003e+01
4.029978e+01	-1.040571e+01
4.053255e+01	-1.045035e+01
4.076666e+01	-1.049648e+01
4.100213e+01	-1.054188e+01
4.123896e+01	-1.058818e+01
4.147715e+01	-1.063261e+01
4.171672e+01	-1.067845e+01
4.195767e+01	-1.072488e+01
4.220002e+01	-1.077025e+01
4.244377e+01	-1.081645e+01
4.268892e+01	-1.086233e+01
4.293549e+01	-1.090822e+01
4.318348e+01	-1.095417e+01
4.343291e+01	-1.100051e+01
4.368377e+01	-1.104656e+01
4.393609e+01	-1.109252e+01
4.418986e+01	-1.113897e+01
4.444510e+01	-1.118454e+01
4.470182e+01	-1.123106e+01
4.496001e+01	-1.127716e+01
4.521970e+01	-1.132388e+01
4.548089e+01	-1.137020e+01
4.574358e+01	-1.141632e+01
4.600779e+01	-1.146276e+01
4.627353e+01	-1.150902e+01
4.654081e+01	-1.155567e+01
4.680963e+01	-1.160255e+01
4.708000e+01	-1.164898e+01
4.735193e+01	-1.169549e+01
4.762543e+01	-1.174276e+01
4.790051e+01	-1.178937e+01
4.817719e+01	-1.183588e+01
4.845545e+01	-1.188248e+01
4.873533e+01	-1.192976e+01
4.901682e+01	-1.197646e+01
4.929994e+01	-1.202284e+01
4.958470e+01	-1.206982e+01
4.987110e+01	-1.211656e+01
5.015915e+01	-1.216393e+01
5.044887e+01	-1.221106e+01
5.074026e+01	-1.225793e+01
5.103333e+01	-1.230518e+01
5.132810e+01	-1.235229e+01
5.162457e+01	-1.239895e+01
5.192275e+01	-1.244649e+01
5.222265e+01	-1.249472e+01
5.252429e+01	-1.254054e+01
5.282767e+01	-1.258800e+01
5.313280e+01	-1.263559e+01
5.343969e+01	-1.268254e+01
5.374836e+01	-1.273060e+01
5.405880e+01	-1.277699e+01
5.437105e+01	-1.282438e+01
5.468509e+01	-1.287214e+01
5.500095e+01	-1.291974e+01
5.531863e+01	-1.296657e+01
5.563815e+01	-1.301484e+01
5.595951e+01	-1.306194e+01
5.628273e+01	-1.311017e+01
5.660782e+01	-1.315738e+01
5.693479e+01	-1.320530e+01
5.726364e+01	-1.325227e+01
5.759439e+01	-1.329978e+01
5.792705e+01	-1.334802e+01
5.826164e+01	-1.339578e+01
5.859815e+01	-1.344331e+01
5.893662e+01	-1.349159e+01
5.927703e+01	-1.353894e+01
5.961941e+01	-1.358739e+01
5.996377e+01	-1.363475e+01
6.031012e+01	-1.368300e+01
6.065847e+01	-1.373052e+01
6.100883e+01	-1.377901e+01
6.136121e+01	-1.382619e+01
6.171563e+01	-1.387421e+01
6.207210e+01	-1.392217e+01
6.243063e+01	-1.396967e+01
6.279122e+01	-1.401811e+01
6.315390e+01	-1.406719e+01
6.351868e+01	-1.411426e+01
6.388556e+01	-1.416237e+01
6.425456e+01	-1.421059e+01
6.462569e+01	-1.425872e+01
6.499897e+01	-1.430752e+01
6.537440e+01	-1.435533e+01
6.575200e+01	-1.440316e+01
6.613178e+01	-1.445123e+01
6.651375e+01	-1.449952e+01
6.689793e+01	-1.454933e+01
6.728433e+01	-1.459705e+01
6.767297e+01	-1.464454e+01
6.806384e+01	-1.469335e+01
6.845698e+01	-1.474052e+01
6.885238e+01	-1.478943e+01
6.925007e+01	-1.483782e+01
6.965005e+01	-1.488633e+01
7.005235e+01	-1.493534e+01
7.045697e+01	-1.498310e+01
7.086393e+01	-1.503170e+01
7.127323e+01	-1.508155e+01
7.168490e+01	-1.512892e+01
7.209895e+01	-1.517724e+01
7.251539e+01	-1.522592e+01
7.293424e+01	-1.527429e+01
7.335551e+01	-1.532353e+01
7.377920e+01	-1.537175e+01
7.420535e+01	-1.542019e+01
7.463396e+01	-1.546946e+01
7.506504e+01	-1.551731e+01
7.549861e+01	-1.556620e+01
7.593469e+01	-1.561382e+01
7.637328e+01	-1.566288e+01
7.681441e+01	-1.571147e+01
7.725809e+01	-1.576029e+01
7.770433e+01	-1.580930e+01
7.815315e+01	-1.585819e+01
7.860456e+01	-1.590588e+01
7.905857e+01	-1.595586e+01
7.951521e+01	-1.600398e+01
7.997449e+01	-1.605389e+01
8.043642e+01	-1.610205e+01
8.090102e+01	-1.615038e+01
8.136830e+01	-1.619906e+01
8.183828e+01	-1.624801e+01
8.231097e+01	-1.629678e+01
8.278640e+01	-1.634616e+01
8.326457e+01	-1.639489e+01
8.374550e+01	-1.644358e+01
8.422921e+01	-1.649296e+01
8.471572e+01	-1.654101e+01
8.520503e+01	-1.658933e+01
8.569717e+01	-1.663874e+01
8.619215e+01	-1.668762e+01
8.669000e+01	-1.673733e+01
8.719071e+01	-1.678604e+01
8.769432e+01	-1.683653e+01
8.820084e+01	-1.688299e+01
8.871029e+01	-1.693429e+01
8.922267e+01	-1.698367e+01
8.973802e+01	-1.703034e+01
9.025634e+01	-1.708084e+01
9.077766e+01	-1.712946e+01
9.130199e+01	-1.717822e+01
9.182935e+01	-1.722807e+01
9.235975e+01	-1.727716e+01
9.289321e+01	-1.732589e+01
9.342976e+01	-1.737566e+01
9.396941e+01	-1.742371e+01
9.451217e+01	-1.747219e+01
9.505807e+01	-1.752248e+01
9.560712e+01	-1.757121e+01
9.615934e+01	-1.762107e+01
9.671476e+01	-1.766857e+01
9.727338e+01	-1.771905e+01
9.783522e+01	-1.776820e+01
9.840032e+01	-1.781837e+01
9.896867e+01	-1.786667e+01
9.954031e+01	-1.791609e+01
1.001153e+02	-1.796588e+01
1.006935e+02	-1.801292e+01
1.012751e+02	-1.806360e+01
1.018601e+02	-1.811232e+01
1.024484e+02	-1.816228e+01
1.030402e+02	-1.821188e+01
1.036353e+02	-1.826045e+01
1.042339e+02	-1.830998e+01
1.048360e+02	-1.835958e+01
1.054415e+02	-1.840829e+01
1.060505e+02	-1.845678e+01
1.066631e+02	-1.850659e+01
1.072791e+02	-1.855696e+01
1.078988e+02	-1.860643e+01
1.085220e+02	-1.865425e+01
1.091488e+02	-1.870442e+01
1.097793e+02	-1.875379e+01
1.104133e+02	-1.880468e+01
1.110511e+02	-1.885318e+01
1.116925e+02	-1.890191e+01
1.123376e+02	-1.895230e+01
1.129865e+02	-1.900129e+01
1.136391e+02	-1.905063e+01
1.142955e+02	-1.909917e+01
1.149556e+02	-1.914941e+01
1.156196e+02	-1.919939e+01
1.162874e+02	-1.924822e+01
1.169591e+02	-1.929752e+01
1.176347e+02	-1.934628e+01
1.183141e+02	-1.939740e+01
1.189975e+02	-1.944645e+01
1.196848e+02	-1.949504e+01
1.203761e+02	-1.954606e+01
1.210714e+02	-1.959430e+01
1.217707e+02	-1.964486e+01
1.224740e+02	-1.969427e+01
1.231814e+02	-1.974168e+01
1.238929e+02	-1.979158e+01
1.246085e+02	-1.984094e+01
1.253283e+02	-1.989069e+01
1.260522e+02	-1.994005e+01
1.267802e+02	-1.999013e+01
1.275125e+02	-2.004167e+01
1.282490e+02	-2.008967e+01
1.289898e+02	-2.013919e+01
1.297348e+02	-2.018838e+01
1.304842e+02	-2.023765e+01
1.312378e+02	-2.028706e+01
1.319959e+02	-2.033819e+01
1.327583e+02	-2.038843e+01
1.335251e+02	-2.043530e+01
1.342963e+02	-2.048570e+01
1.350720e+02	-2.053506e+01
1.358522e+02	-2.058450e+01
1.366368e+02	-2.063405e+01
1.374260e+02	-2.068462e+01
1.382198e+02	-2.073307e+01
1.390182e+02	-2.078331e+01
1.398211e+02	-2.083364e+01
1.406287e+02	-2.088416e+01
1.414410e+02	-2.093238e+01
1.422579e+02	-2.098117e+01
1.430796e+02	-2.103074e+01
1.439060e+02	-2.108158e+01
1.447372e+02	-2.113126e+01
1.455732e+02	-2.118038e+01
1.464141e+02	-2.122964e+01
1.472597e+02	-2.128002e+01
1.481103e+02	-2.132935e+01
1.489658e+02	-2.137912e+01
1.498262e+02	-2.142961e+01
1.506916e+02	-2.148173e+01
1.515620e+02	-2.152836e+01
1.524374e+02	-2.157962e+01
1.533179e+02	-2.162856e+01
1.542034e+02	-2.167826e+01
1.550941e+02	-2.172593e+01
1.559899e+02	-2.177804e+01
1.568909e+02	-2.182828e+01
1.577971e+02	-2.187724e+01
1.587085e+02	-2.192638e+01
1.596252e+02	-2.197658e+01
1.605472e+02	-2.202726e+01
1.614745e+02	-2.207533e+01
1.624072e+02	-2.212411e+01
1.633453e+02	-2.217575e+01
1.642887e+02	-2.222579e+01
1.652377e+02	-2.227462e+01
1.661921e+02	-2.232318e+01
1.671520e+02	-2.237410e+01
1.681175e+02	-2.242150e+01
1.690885e+02	-2.247356e+01
1.700651e+02	-2.252620e+01
1.710474e+02	-2.257095e+01
1.720354e+02	-2.262386e+01
1.730291e+02	-2.267296e+01
1.740285e+02	-2.272168e+01
1.750337e+02	-2.277436e+01
1.760446e+02	-2.282148e+01
1.770615e+02	-2.287161e+01
1.780842e+02	-2.292152e+01
1.791128e+02	-2.297112e+01
1.801473e+02	-2.302178e+01
1.811878e+02	-2.307377e+01
1.822344e+02	-2.312105e+01
1.832870e+02	-2.316865e+01
1.843456e+02	-2.322229e+01
1.854104e+02	-2.327045e+01
1.864813e+02	-2.331811e+01
1.875584e+02	-2.336758e+01
1.886418e+02	-2.341658e+01
1.897313e+02	-2.347011e+01
1.908272e+02	-2.351797e+01
1.919294e+02	-2.357085e+01
1.930380e+02	-2.361969e+01
1.941530e+02	-2.366778e+01
1.952744e+02	-2.371749e+01
1.964023e+02	-2.376963e+01
1.975367e+02	-2.381847e+01
1.986777e+02	-2.386687e+01
1.998252e+02	-2.391871e+01
2.009794e+02	-2.396811e+01
2.021403e+02	-2.401866e+01
2.033078e+02	-2.406570e+01
2.044821e+02	-2.411612e+01
2.056632e+02	-2.416672e+01
2.068511e+02	-2.421452e+01
2.080459e+02	-2.426736e+01
2.092475e+02	-2.431754e+01
2.104561e+02	-2.436669e+01
2.116717e+02	-2.441885e+01
2.128943e+02	-2.446384e+01
2.141240e+02	-2.451716e+01
2.153608e+02	-2.456831e+01
2.166047e+02	-2.461502e+01
2.178558e+02	-2.466780e+01
2.191141e+02	-2.471278e+01
2.203797e+02	-2.476706e+01
2.216526e+02	-2.481552e+01
2.229329e+02	-2.486610e+01
2.242205e+02	-2.491645e+01
2.255156e+02	-2.496367e+01
2.268182e+02	-2.501680e+01
2.281283e+02	-2.506584e+01
2.294459e+02	-2.511423e+01
2.307712e+02	-2.516643e+01
2.321041e+02	-2.521787e+01
2.334447e+02	-2.526571e+01
2.347931e+02	-2.531568e+01
2.361493e+02	-2.536738e+01
2.375133e+02	-2.541446e+01
2.388851e+02	-2.546526e+01
2.402649e+02	-2.551482e+01
2.416527e+02	-2.556311e+01
2.430484e+02	-2.561045e+01
2.444523e+02	-2.566242e+01
2.458642e+02	-2.571337e+01
2.472843e+02	-2.576440e+01
2.487126e+02	-2.581327e+01
2.501492e+02	-2.586451e+01
2.515940e+02	-2.591114e+01
2.530472e+02	-2.596224e+01
2.545088e+02	-2.601449e+01
2.559789e+02	-2.606453e+01
2.574574e+02	-2.611384e+01
2.589444e+02	-2.616495e+01
2.604401e+02	-2.621310e+01
2.619444e+02	-2.626671e+01
2.634574e+02	-2.631700e+01
2.649791e+02	-2.636420e+01
2.665096e+02	-2.641413e+01
2.680489e+02	-2.646429e+01
2.695972e+02	-2.651313e+01
2.711544e+02	-2.656304e+01
2.727205e+02	-2.661615e+01
2.742958e+02	-2.666468e+01
2.758801e+02	-2.671176e+01
2.774736e+02	-2.676433e+01
2.790762e+02	-2.681372e+01
2.806882e+02	-2.686445e+01
2.823094e+02	-2.691561e+01
2.839400e+02	-2.696118e+01
2.855800e+02	-2.701749e+01
2.872295e+02	-2.706672e+01
2.888886e+02	-2.711600e+01
2.905572e+02	-2.716366e+01
2.922354e+02	-2.721367e+01
2.939234e+02	-2.726057e+01
2.956211e+02	-2.731268e+01
2.973286e+02	-2.736514e+01
2.990459e+02	-2.741661e+01
3.007732e+02	-2.746535e+01
3.025104e+02	-2.751349e+01
3.042577e+02	-2.756590e+01
3.060151e+02	-2.761432e+01
3.077826e+02	-2.766114e+01
3.095604e+02	-2.771286e+01
3.113484e+02	-2.776369e+01
3.131467e+02	-2.781571e+01
3.149554e+02	-2.786492e+01
3.167746e+02	-2.791802e+01
3.186043e+02	-2.796788e+01
3.204445e+02	-2.801338e+01
3.222954e+02	-2.806354e+01
3.241570e+02	-2.811807e+01
3.260293e+02	-2.816256e+01
3.279124e+02	-2.821225e+01
3.298064e+02	-2.826597e+01
3.317114e+02	-2.831603e+01
3.336273e+02	-2.836558e+01
3.355544e+02	-2.841469e+01
3.374925e+02	-2.846514e+01
3.394418e+02	-2.851502e+01
3.414024e+02	-2.856460e+01
3.433744e+02	-2.861785e+01
3.453577e+02	-2.866649e+01
3.473525e+02	-2.871296e+01
3.493588e+02	-2.876717e+01
3.513766e+02	-2.881676e+01
3.534062e+02	-2.886442e+01
3.554474e+02	-2.891543e+01
3.575005e+02	-2.896543e+01
3.595654e+02	-2.901541e+01
3.616422e+02	-2.906650e+01
3.637311e+02	-2.911447e+01
3.658320e+02	-2.916315e+01
3.679450e+02	-2.921424e+01
3.700702e+02	-2.926724e+01
3.722077e+02	-2.931474e+01
3.743576e+02	-2.936901e+01
3.765199e+02	-2.941781e+01
3.786946e+02	-2.946468e+01
3.808820e+02	-2.951471e+01
3.830819e+02	-2.956863e+01
3.852946e+02	-2.962019e+01
3.875200e+02	-2.967160e+01
3.897583e+02	-2.971544e+01
3.920096e+02	-2.976190e+01
3.942738e+02	-2.981466e+01
3.965511e+02	-2.986885e+01
3.988416e+02	-2.991994e+01
4.011452e+02	-2.996762e+01
4.034622e+02	-3.002037e+01
4.057926e+02	-3.006911e+01
4.081365e+02	-3.011476e+01
4.104938e+02	-3.016983e+01
4.128648e+02	-3.021976e+01
4.152495e+02	-3.026910e+01
4.176480e+02	-3.032504e+01
4.200603e+02	-3.037250e+01
4.224866e+02	-3.041557e+01
4.249268e+02	-3.047055e+01
4.273812e+02	-3.052051e+01
4.298497e+02	-3.057106e+01
4.323325e+02	-3.061824e+01
4.348297e+02	-3.066487e+01
4.373412e+02	-3.072431e+01
4.398673e+02	-3.076805e+01
4.424079e+02	-3.081783e+01
4.449633e+02	-3.087080e+01
4.475334e+02	-3.091627e+01
4.501183e+02	-3.096706e+01
4.527182e+02	-3.102436e+01
4.553330e+02	-3.107526e+01
4.579630e+02	-3.112007e+01
4.606082e+02	-3.117242e+01
4.632687e+02	-3.121980e+01
4.659445e+02	-3.127134e+01
4.686358e+02	-3.131949e+01
4.713426e+02	-3.136970e+01
4.740650e+02	-3.142329e+01
4.768032e+02	-3.147502e+01
4.795572e+02	-3.151701e+01
4.823271e+02	-3.157781e+01
4.851130e+02	-3.162003e+01
4.879150e+02	-3.167259e+01
4.907332e+02	-3.171940e+01
4.935676e+02	-3.177181e+01
4.964185e+02	-3.183310e+01
4.992858e+02	-3.187351e+01
5.021696e+02	-3.192071e+01
5.050701e+02	-3.197629e+01
5.079874e+02	-3.202301e+01
5.109215e+02	-3.208258e+01
5.138726e+02	-3.212888e+01
5.168407e+02	-3.217314e+01
5.198259e+02	-3.222759e+01
5.228284e+02	-3.228102e+01
5.258482e+02	-3.232487e+01
5.288855e+02	-3.237947e+01
5.319403e+02	-3.243036e+01
5.350128e+02	-3.248003e+01
5.381030e+02	-3.252910e+01
5.412111e+02	-3.257597e+01
5.443371e+02	-3.262282e+01
5.474812e+02	-3.267829e+01
5.506434e+02	-3.272351e+01
5.538239e+02	-3.277809e+01
5.570228e+02	-3.282749e+01
5.602401e+02	-3.287723e+01
5.634760e+02	-3.292787e+01
5.667306e+02	-3.297177e+01
5.700040e+02	-3.302430e+01
5.732964e+02	-3.307646e+01
5.766077e+02	-3.312975e+01
5.799382e+02	-3.317985e+01
5.832879e+02	-3.323929e+01
5.866569e+02	-3.327979e+01
5.900454e+02	-3.332595e+01
5.934535e+02	-3.338306e+01
5.968813e+02	-3.343166e+01
6.003288e+02	-3.347973e+01
6.037963e+02	-3.353054e+01
6.072838e+02	-3.358297e+01
6.107914e+02	-3.363565e+01
6.143194e+02	-3.368102e+01
6.178676e+02	-3.373838e+01
6.214364e+02	-3.378424e+01
6.250258e+02	-3.384103e+01
6.286359e+02	-3.388294e+01
6.322669e+02	-3.393522e+01
6.359189e+02	-3.399523e+01
6.395919e+02	-3.403887e+01
6.432862e+02	-3.408907e+01
6.470017e+02	-3.413260e+01
6.507388e+02	-3.418807e+01
6.544974e+02	-3.423264e+01
6.582778e+02	-3.428540e+01
6.620800e+02	-3.434146e+01
6.659041e+02	-3.439519e+01
6.697504e+02	-3.444155e+01
6.736188e+02	-3.448785e+01
6.775096e+02	-3.453853e+01
6.814229e+02	-3.459402e+01
6.853587e+02	-3.464090e+01
6.893173e+02	-3.469526e+01
6.932988e+02	-3.474649e+01
6.973033e+02	-3.478947e+01
7.013309e+02	-3.484330e+01
