Frequency(Hz)	Magnitude(dB)
1.000000e+01	-2.112944e+00
1.005776e+01	-2.132552e+00
1.011585e+01	-2.151898e+00
1.017428e+01	-2.171469e+00
1.023305e+01	-2.191372e+00
1.029215e+01	-2.211169e+00
1.035160e+01	-2.230982e+00
1.041139e+01	-2.251328e+00
1.047153e+01	-2.271761e+00
1.053201e+01	-2.292087e+00
1.059284e+01	-2.312660e+00
1.065403e+01	-2.333453e+00
1.071556e+01	-2.354314e+00
1.077746e+01	-2.375133e+00
1.083971e+01	-2.396257e+00
1.090232e+01	-2.417697e+00
1.096529e+01	-2.439232e+00
1.102862e+01	-2.460555e+00
1.109232e+01	-2.482542e+00
1.115639e+01	-2.504249e+00
1.122083e+01	-2.526187e+00
1.128564e+01	-2.548193e+00
1.135083e+01	-2.570505e+00
1.141639e+01	-2.593034e+00
1.148233e+01	-2.615455e+00
1.154865e+01	-2.638403e+00
1.161536e+01	-2.661223e+00
1.168245e+01	-2.684027e+00
1.174992e+01	-2.707323e+00
1.181779e+01	-2.730666e+00
1.188605e+01	-2.753878e+00
1.195470e+01	-2.777456e+00
1.202375e+01	-2.801305e+00
1.209320e+01	-2.825174e+00
1.216305e+01	-2.849052e+00
1.223330e+01	-2.873170e+00
1.230396e+01	-2.897486e+00
1.237503e+01	-2.921873e+00
1.244651e+01	-2.946588e+00
1.251840e+01	-2.971305e+00
1.259070e+01	-2.996069e+00
1.266343e+01	-3.021332e+00
1.273657e+01	-3.046096e+00
1.281014e+01	-3.071297e+00
1.288413e+01	-3.097130e+00
1.295855e+01	-3.122368e+00
1.303339e+01	-3.148104e+00
1.310867e+01	-3.174085e+00
1.318439e+01	-3.200131e+00
1.326054e+01	-3.226261e+00
1.333713e+01	-3.252669e+00
1.341417e+01	-3.278909e+00
1.349165e+01	-3.305596e+00
1.356958e+01	-3.332209e+00
1.364795e+01	-3.359144e+00
1.372678e+01	-3.386236e+00
1.380607e+01	-3.413149e+00
1.388581e+01	-3.440702e+00
1.396602e+01	-3.468011e+00
1.404668e+01	-3.495568e+00
1.412782e+01	-3.523621e+00
1.420942e+01	-3.551126e+00
1.429149e+01	-3.579434e+00
1.437404e+01	-3.607522e+00
1.445706e+01	-3.635931e+00
1.454057e+01	-3.664017e+00
1.462455e+01	-3.692825e+00
1.470902e+01	-3.721518e+00
1.479398e+01	-3.750374e+00
1.487943e+01	-3.779588e+00
1.496537e+01	-3.808766e+00
1.505181e+01	-3.837763e+00
1.513875e+01	-3.867521e+00
1.522619e+01	-3.896882e+00
1.531414e+01	-3.926411e+00
1.540259e+01	-3.956501e+00
1.549156e+01	-3.986375e+00
1.558103e+01	-4.016454e+00
1.567103e+01	-4.046711e+00
1.576155e+01	-4.077280e+00
1.585258e+01	-4.107549e+00
1.594415e+01	-4.138429e+00
1.603624e+01	-4.169215e+00
1.612886e+01	-4.199984e+00
1.622202e+01	-4.230824e+00
1.631572e+01	-4.262386e+00
1.640996e+01	-4.293833e+00
1.650474e+01	-4.325023e+00
1.660008e+01	-4.356743e+00
1.669596e+01	-4.388461e+00
1.679239e+01	-4.420452e+00
1.688938e+01	-4.452734e+00
1.698694e+01	-4.484471e+00
1.708505e+01	-4.516610e+00
1.718373e+01	-4.549114e+00
1.728299e+01	-4.581510e+00
1.738281e+01	-4.614520e+00
1.748322e+01	-4.647273e+00
1.758420e+01	-4.680246e+00
1.768576e+01	-4.713190e+00
1.778792e+01	-4.746237e+00
1.789066e+01	-4.779624e+00
1.799399e+01	-4.813121e+00
1.809793e+01	-4.846971e+00
1.820246e+01	-4.880526e+00
1.830760e+01	-4.914313e+00
1.841334e+01	-4.948337e+00
1.851969e+01	-4.982499e+00
1.862666e+01	-5.016436e+00
1.873425e+01	-5.050810e+00
1.884246e+01	-5.085574e+00
1.895129e+01	-5.119732e+00
1.906075e+01	-5.154785e+00
1.917085e+01	-5.189564e+00
1.928158e+01	-5.224294e+00
1.939295e+01	-5.259290e+00
1.950496e+01	-5.294560e+00
1.961762e+01	-5.329857e+00
1.973093e+01	-5.365387e+00
1.984490e+01	-5.400931e+00
1.995952e+01	-5.436539e+00
2.007480e+01	-5.472625e+00
2.019076e+01	-5.508113e+00
2.030738e+01	-5.544423e+00
2.042467e+01	-5.580300e+00
2.054264e+01	-5.616556e+00
2.066130e+01	-5.653116e+00
2.078064e+01	-5.689275e+00
2.090066e+01	-5.726025e+00
2.102139e+01	-5.762701e+00
2.114280e+01	-5.799437e+00
2.126492e+01	-5.836470e+00
2.138775e+01	-5.873187e+00
2.151128e+01	-5.910335e+00
2.163553e+01	-5.947808e+00
2.176050e+01	-5.985268e+00
2.188619e+01	-6.022656e+00
2.201260e+01	-6.060184e+00
2.213974e+01	-6.097908e+00
2.226762e+01	-6.135674e+00
2.239624e+01	-6.173625e+00
2.252560e+01	-6.211847e+00
2.265571e+01	-6.249808e+00
2.278656e+01	-6.288180e+00
2.291818e+01	-6.326215e+00
2.305055e+01	-6.364520e+00
2.318369e+01	-6.403069e+00
2.331760e+01	-6.441896e+00
2.345228e+01	-6.480531e+00
2.358774e+01	-6.519333e+00
2.372398e+01	-6.558422e+00
2.386101e+01	-6.597551e+00
2.399883e+01	-6.636396e+00
2.413745e+01	-6.675491e+00
2.427686e+01	-6.715147e+00
2.441709e+01	-6.754708e+00
2.455812e+01	-6.794038e+00
2.469997e+01	-6.833746e+00
2.484263e+01	-6.873410e+00
2.498612e+01	-6.912899e+00
2.513044e+01	-6.953449e+00
2.527559e+01	-6.993067e+00
2.542158e+01	-7.032898e+00
2.556842e+01	-7.073422e+00
2.571610e+01	-7.113115e+00
2.586463e+01	-7.154024e+00
2.601403e+01	-7.194294e+00
2.616428e+01	-7.234849e+00
2.631541e+01	-7.275228e+00
2.646740e+01	-7.316330e+00
2.662028e+01	-7.356568e+00
2.677404e+01	-7.397590e+00
2.692868e+01	-7.438931e+00
2.708422e+01	-7.479945e+00
2.724066e+01	-7.520629e+00
2.739800e+01	-7.562202e+00
2.755625e+01	-7.603553e+00
2.771541e+01	-7.644717e+00
2.787550e+01	-7.685839e+00
2.803650e+01	-7.727641e+00
2.819844e+01	-7.769531e+00
2.836131e+01	-7.811169e+00
2.852513e+01	-7.852734e+00
2.868989e+01	-7.894543e+00
2.885560e+01	-7.936506e+00
2.902227e+01	-7.978249e+00
2.918990e+01	-8.020781e+00
2.935850e+01	-8.062706e+00
2.952807e+01	-8.105343e+00
2.969863e+01	-8.147515e+00
2.987016e+01	-8.189906e+00
3.004269e+01	-8.232478e+00
3.021622e+01	-8.274802e+00
3.039075e+01	-8.317103e+00
3.056628e+01	-8.360062e+00
3.074283e+01	-8.402926e+00
3.092040e+01	-8.445918e+00
3.109900e+01	-8.489045e+00
3.127862e+01	-8.532043e+00
3.145929e+01	-8.574821e+00
3.164099e+01	-8.617907e+00
3.182375e+01	-8.660775e+00
3.200756e+01	-8.704230e+00
3.219244e+01	-8.747449e+00
3.237838e+01	-8.790962e+00
3.256540e+01	-8.834398e+00
3.275349e+01	-8.877833e+00
3.294268e+01	-8.921690e+00
3.313295e+01	-8.964708e+00
3.332433e+01	-9.009145e+00
3.351681e+01	-9.052618e+00
3.371040e+01	-9.096655e+00
3.390511e+01	-9.139499e+00
3.410094e+01	-9.184423e+00
3.429791e+01	-9.228601e+00
3.449601e+01	-9.272428e+00
3.469526e+01	-9.316381e+00
3.489566e+01	-9.361111e+00
3.509721e+01	-9.405453e+00
3.529993e+01	-9.449543e+00
3.550382e+01	-9.493713e+00
3.570889e+01	-9.538306e+00
3.591515e+01	-9.582357e+00
3.612259e+01	-9.627102e+00
3.633123e+01	-9.672193e+00
3.654108e+01	-9.716872e+00
3.675214e+01	-9.761262e+00
3.696442e+01	-9.806059e+00
3.717792e+01	-9.850804e+00
3.739266e+01	-9.895822e+00
3.760864e+01	-9.940339e+00
3.782587e+01	-9.985374e+00
3.804435e+01	-1.003052e+01
3.826409e+01	-1.007537e+01
3.848510e+01	-1.012017e+01
3.870739e+01	-1.016600e+01
3.893096e+01	-1.021124e+01
3.915583e+01	-1.025685e+01
3.938199e+01	-1.030167e+01
3.960946e+01	-1.034770e+01
3.983824e+01	-1.039288e+01
4.006834e+01	-1.043768e+01
4.029978e+01	-1.048414e+01
4.053255e+01	-1.052943e+01
4.076666e+01	-1.057476e+01
4.100213e+01	-1.062092e+01
4.123896e+01	-1.066640e+01
4.147715e+01	-1.071223e+01
4.171672e+01	-1.075825e+01
4.195767e+01	-1.080334e+01
4.220002e+01	-1.084954e+01
4.244377e+01	-1.089573e+01
4.268892e+01	-1.094148e+01
4.293549e+01	-1.098769e+01
4.318348e+01	-1.103331e+01
4.343291e+01	-1.107951e+01
4.368377e+01	-1.112566e+01
4.393609e+01	-1.117213e+01
4.418986e+01	-1.121769e+01
4.444510e+01	-1.126482e+01
4.470182e+01	-1.131077e+01
4.496001e+01	-1.135789e+01
4.521970e+01	-1.140328e+01
4.548089e+01	-1.144985e+01
4.574358e+01	-1.149615e+01
4.600779e+01	-1.154311e+01
4.627353e+01	-1.158953e+01
4.654081e+01	-1.163591e+01
4.680963e+01	-1.168272e+01
4.708000e+01	-1.172977e+01
4.735193e+01	-1.177528e+01
4.762543e+01	-1.182301e+01
4.790051e+01	-1.186933e+01
4.817719e+01	-1.191598e+01
4.845545e+01	-1.196338e+01
4.873533e+01	-1.201027e+01
4.901682e+01	-1.205723e+01
4.929994e+01	-1.210357e+01
4.958470e+01	-1.215023e+01
4.987110e+01	-1.219766e+01
5.015915e+01	-1.224532e+01
5.044887e+01	-1.229194e+01
5.074026e+01	-1.233846e+01
5.103333e+01	-1.238624e+01
5.132810e+01	-1.243291e+01
5.162457e+01	-1.248053e+01
5.192275e+01	-1.252768e+01
5.222265e+01	-1.257541e+01
5.252429e+01	-1.262218e+01
5.282767e+01	-1.266916e+01
5.313280e+01	-1.271617e+01
5.343969e+01	-1.276391e+01
5.374836e+01	-1.281071e+01
5.405880e+01	-1.285881e+01
5.437105e+01	-1.290617e+01
5.468509e+01	-1.295324e+01
5.500095e+01	-1.300167e+01
5.531863e+01	-1.304862e+01
5.563815e+01	-1.309675e+01
5.595951e+01	-1.314428e+01
5.628273e+01	-1.319238e+01
5.660782e+01	-1.323882e+01
5.693479e+01	-1.328792e+01
5.726364e+01	-1.333491e+01
5.759439e+01	-1.338248e+01
5.792705e+01	-1.343020e+01
5.826164e+01	-1.347748e+01
5.859815e+01	-1.352569e+01
5.893662e+01	-1.357331e+01
5.927703e+01	-1.362143e+01
5.961941e+01	-1.366945e+01
5.996377e+01	-1.371704e+01
6.031012e+01	-1.376553e+01
6.065847e+01	-1.381249e+01
6.100883e+01	-1.385997e+01
6.136121e+01	-1.390885e+01
6.171563e+01	-1.395752e+01
6.207210e+01	-1.400475e+01
6.243063e+01	-1.405302e+01
6.279122e+01	-1.410000e+01
6.315390e+01	-1.414966e+01
6.351868e+01	-1.419681e+01
6.388556e+01	-1.424578e+01
6.425456e+01	-1.429339e+01
6.462569e+01	-1.434185e+01
6.499897e+01	-1.438930e+01
6.537440e+01	-1.443814e+01
6.575200e+01	-1.448606e+01
6.613178e+01	-1.453438e+01
6.651375e+01	-1.458253e+01
6.689793e+01	-1.463124e+01
6.728433e+01	-1.467936e+01
6.767297e+01	-1.472922e+01
6.806384e+01	-1.477597e+01
6.845698e+01	-1.482443e+01
6.885238e+01	-1.487301e+01
6.925007e+01	-1.492163e+01
6.965005e+01	-1.497024e+01
7.005235e+01	-1.501849e+01
7.045697e+01	-1.506653e+01
7.086393e+01	-1.511474e+01
7.127323e+01	-1.516448e+01
7.168490e+01	-1.521228e+01
7.209895e+01	-1.526052e+01
7.251539e+01	-1.530959e+01
7.293424e+01	-1.535799e+01
7.335551e+01	-1.540623e+01
7.377920e+01	-1.545554e+01
7.420535e+01	-1.550336e+01
7.463396e+01	-1.555272e+01
7.506504e+01	-1.560175e+01
7.549861e+01	-1.564979e+01
7.593469e+01	-1.569835e+01
7.637328e+01	-1.574726e+01
7.681441e+01	-1.579624e+01
7.725809e+01	-1.584381e+01
7.770433e+01	-1.589349e+01
7.815315e+01	-1.594170e+01
7.860456e+01	-1.599043e+01
7.905857e+01	-1.603879e+01
7.951521e+01	-1.608935e+01
7.997449e+01	-1.613749e+01
8.043642e+01	-1.618533e+01
8.090102e+01	-1.623510e+01
8.136830e+01	-1.628386e+01
8.183828e+01	-1.633332e+01
8.231097e+01	-1.638227e+01
8.278640e+01	-1.643081e+01
8.326457e+01	-1.648016e+01
8.374550e+01	-1.652741e+01
8.422921e+01	-1.657697e+01
8.471572e+01	-1.662610e+01
8.520503e+01	-1.667461e+01
8.569717e+01	-1.672484e+01
8.619215e+01	-1.677283e+01
8.669000e+01	-1.682046e+01
8.719071e+01	-1.687099e+01
8.769432e+01	-1.691872e+01
8.820084e+01	-1.696872e+01
8.871029e+01	-1.701815e+01
8.922267e+01	-1.706702e+01
8.973802e+01	-1.711454e+01
9.025634e+01	-1.716539e+01
9.077766e+01	-1.721338e+01
9.130199e+01	-1.726267e+01
9.182935e+01	-1.731232e+01
9.235975e+01	-1.736135e+01
9.289321e+01	-1.740965e+01
9.342976e+01	-1.745877e+01
9.396941e+01	-1.750958e+01
9.451217e+01	-1.755652e+01
9.505807e+01	-1.760724e+01
9.560712e+01	-1.765600e+01
9.615934e+01	-1.770553e+01
9.671476e+01	-1.775380e+01
9.727338e+01	-1.780362e+01
9.783522e+01	-1.785314e+01
9.840032e+01	-1.790251e+01
9.896867e+01	-1.795161e+01
9.954031e+01	-1.800229e+01
1.001153e+02	-1.805059e+01
1.006935e+02	-1.809981e+01
1.012751e+02	-1.814684e+01
1.018601e+02	-1.819848e+01
1.024484e+02	-1.824631e+01
1.030402e+02	-1.829616e+01
1.036353e+02	-1.834535e+01
1.042339e+02	-1.839550e+01
1.048360e+02	-1.844411e+01
1.054415e+02	-1.849280e+01
1.060505e+02	-1.854268e+01
1.066631e+02	-1.859179e+01
1.072791e+02	-1.864147e+01
1.078988e+02	-1.869132e+01
1.085220e+02	-1.874074e+01
1.091488e+02	-1.879048e+01
1.097793e+02	-1.883876e+01
1.104133e+02	-1.888785e+01
1.110511e+02	-1.893924e+01
1.116925e+02	-1.898854e+01
1.123376e+02	-1.903737e+01
1.129865e+02	-1.908622e+01
1.136391e+02	-1.913690e+01
1.142955e+02	-1.918471e+01
1.149556e+02	-1.923434e+01
1.156196e+02	-1.928398e+01
1.162874e+02	-1.933300e+01
1.169591e+02	-1.938368e+01
1.176347e+02	-1.943212e+01
1.183141e+02	-1.948107e+01
1.189975e+02	-1.953060e+01
1.196848e+02	-1.958045e+01
1.203761e+02	-1.962857e+01
1.210714e+02	-1.967926e+01
1.217707e+02	-1.972836e+01
1.224740e+02	-1.977697e+01
1.231814e+02	-1.982929e+01
1.238929e+02	-1.987709e+01
1.246085e+02	-1.992792e+01
1.253283e+02	-1.997660e+01
1.260522e+02	-2.002656e+01
1.267802e+02	-2.007615e+01
1.275125e+02	-2.012688e+01
1.282490e+02	-2.017628e+01
1.289898e+02	-2.022422e+01
1.297348e+02	-2.027380e+01
1.304842e+02	-2.032466e+01
1.312378e+02	-2.037326e+01
1.319959e+02	-2.042327e+01
1.327583e+02	-2.047205e+01
1.335251e+02	-2.052234e+01
1.342963e+02	-2.057065e+01
1.350720e+02	-2.062018e+01
1.358522e+02	-2.067011e+01
1.366368e+02	-2.071966e+01
1.374260e+02	-2.076995e+01
1.382198e+02	-2.081825e+01
1.390182e+02	-2.086966e+01
1.398211e+02	-2.091817e+01
1.406287e+02	-2.096841e+01
1.414410e+02	-2.101860e+01
1.422579e+02	-2.106943e+01
1.430796e+02	-2.111784e+01
1.439060e+02	-2.116730e+01
1.447372e+02	-2.121761e+01
1.455732e+02	-2.126728e+01
1.464141e+02	-2.131533e+01
1.472597e+02	-2.136625e+01
1.481103e+02	-2.141453e+01
1.489658e+02	-2.146492e+01
1.498262e+02	-2.151728e+01
1.506916e+02	-2.156462e+01
1.515620e+02	-2.161337e+01
1.524374e+02	-2.166361e+01
1.533179e+02	-2.171395e+01
1.542034e+02	-2.176406e+01
1.550941e+02	-2.181226e+01
1.559899e+02	-2.186206e+01
1.568909e+02	-2.191408e+01
1.577971e+02	-2.196218e+01
1.587085e+02	-2.200961e+01
1.596252e+02	-2.206195e+01
1.605472e+02	-2.211242e+01
1.614745e+02	-2.215963e+01
1.624072e+02	-2.221184e+01
1.633453e+02	-2.226086e+01
1.642887e+02	-2.231020e+01
1.652377e+02	-2.235894e+01
1.661921e+02	-2.241016e+01
1.671520e+02	-2.245706e+01
1.681175e+02	-2.250811e+01
1.690885e+02	-2.255799e+01
1.700651e+02	-2.260835e+01
1.710474e+02	-2.265874e+01
1.720354e+02	-2.270851e+01
1.730291e+02	-2.275748e+01
1.740285e+02	-2.280629e+01
1.750337e+02	-2.285868e+01
1.760446e+02	-2.290498e+01
1.770615e+02	-2.295794e+01
1.780842e+02	-2.300829e+01
1.791128e+02	-2.305525e+01
1.801473e+02	-2.310823e+01
1.811878e+02	-2.315534e+01
1.822344e+02	-2.320638e+01
1.832870e+02	-2.325737e+01
1.843456e+02	-2.330607e+01
1.854104e+02	-2.335522e+01
1.864813e+02	-2.340657e+01
1.875584e+02	-2.345703e+01
1.886418e+02	-2.350505e+01
1.897313e+02	-2.355418e+01
1.908272e+02	-2.360575e+01
1.919294e+02	-2.365630e+01
1.930380e+02	-2.370478e+01
1.941530e+02	-2.375341e+01
1.952744e+02	-2.380198e+01
1.964023e+02	-2.385597e+01
1.975367e+02	-2.390334e+01
1.986777e+02	-2.395595e+01
1.998252e+02	-2.400373e+01
2.009794e+02	-2.405372e+01
2.021403e+02	-2.410550e+01
2.033078e+02	-2.415225e+01
2.044821e+02	-2.420337e+01
2.056632e+02	-2.425146e+01
2.068511e+02	-2.430140e+01
2.080459e+02	-2.435557e+01
2.092475e+02	-2.440278e+01
2.104561e+02	-2.445300e+01
2.116717e+02	-2.450127e+01
2.128943e+02	-2.455503e+01
2.141240e+02	-2.460205e+01
2.153608e+02	-2.465326e+01
2.166047e+02	-2.470158e+01
2.178558e+02	-2.475303e+01
2.191141e+02	-2.480048e+01
2.203797e+02	-2.485146e+01
2.216526e+02	-2.490140e+01
2.229329e+02	-2.495194e+01
2.242205e+02	-2.500104e+01
2.255156e+02	-2.505020e+01
2.268182e+02	-2.509912e+01
2.281283e+02	-2.515117e+01
2.294459e+02	-2.519879e+01
2.307712e+02	-2.525382e+01
2.321041e+02	-2.530268e+01
2.334447e+02	-2.534918e+01
2.347931e+02	-2.540338e+01
2.361493e+02	-2.544923e+01
2.375133e+02	-2.550047e+01
2.388851e+02	-2.554878e+01
2.402649e+02	-2.560245e+01
2.416527e+02	-2.565057e+01
2.430484e+02	-2.570089e+01
2.444523e+02	-2.575273e+01
2.458642e+02	-2.580253e+01
2.472843e+02	-2.585020e+01
2.487126e+02	-2.590027e+01
2.501492e+02	-2.594564e+01
2.515940e+02	-2.600074e+01
2.530472e+02	-2.605013e+01
2.545088e+02	-2.610159e+01
2.559789e+02	-2.615026e+01
2.574574e+02	-2.620054e+01
2.589444e+02	-2.625066e+01
2.604401e+02	-2.629884e+01
2.619444e+02	-2.635137e+01
2.634574e+02	-2.640257e+01
2.649791e+02	-2.645197e+01
2.665096e+02	-2.649585e+01
2.680489e+02	-2.655128e+01
2.695972e+02	-2.659919e+01
2.711544e+02	-2.664851e+01
2.727205e+02	-2.670066e+01
2.742958e+02	-2.674838e+01
2.758801e+02	-2.679771e+01
2.774736e+02	-2.684854e+01
2.790762e+02	-2.689658e+01
2.806882e+02	-2.695081e+01
2.823094e+02	-2.699772e+01
2.839400e+02	-2.704664e+01
2.855800e+02	-2.709856e+01
2.872295e+02	-2.714772e+01
2.888886e+02	-2.719632e+01
2.905572e+02	-2.724937e+01
2.922354e+02	-2.729979e+01
2.939234e+02	-2.734926e+01
2.956211e+02	-2.740092e+01
2.973286e+02	-2.745144e+01
2.990459e+02	-2.749888e+01
3.007732e+02	-2.754903e+01
3.025104e+02	-2.760164e+01
3.042577e+02	-2.764856e+01
3.060151e+02	-2.770242e+01
3.077826e+02	-2.774712e+01
3.095604e+02	-2.780216e+01
3.113484e+02	-2.784647e+01
3.131467e+02	-2.790248e+01
3.149554e+02	-2.794840e+01
3.167746e+02	-2.799776e+01
3.186043e+02	-2.804822e+01
3.204445e+02	-2.809475e+01
3.222954e+02	-2.815219e+01
3.241570e+02	-2.820054e+01
3.260293e+02	-2.824918e+01
3.279124e+02	-2.829864e+01
3.298064e+02	-2.835418e+01
3.317114e+02	-2.840251e+01
3.336273e+02	-2.844927e+01
3.355544e+02	-2.850035e+01
3.374925e+02	-2.854766e+01
3.394418e+02	-2.860196e+01
3.414024e+02	-2.865089e+01
3.433744e+02	-2.870284e+01
3.453577e+02	-2.874678e+01
3.473525e+02	-2.879875e+01
3.493588e+02	-2.885122e+01
3.513766e+02	-2.890399e+01
3.534062e+02	-2.895209e+01
3.554474e+02	-2.900432e+01
3.575005e+02	-2.905230e+01
3.595654e+02	-2.909935e+01
3.616422e+02	-2.915377e+01
3.637311e+02	-2.920109e+01
3.658320e+02	-2.925313e+01
3.679450e+02	-2.930201e+01
3.700702e+02	-2.935197e+01
3.722077e+02	-2.940342e+01
3.743576e+02	-2.944734e+01
3.765199e+02	-2.950446e+01
3.786946e+02	-2.955154e+01
3.808820e+02	-2.960266e+01
3.830819e+02	-2.965373e+01
3.852946e+02	-2.970400e+01
3.875200e+02	-2.975479e+01
3.897583e+02	-2.980136e+01
3.920096e+02	-2.984343e+01
3.942738e+02	-2.989934e+01
3.965511e+02	-2.994952e+01
3.988416e+02	-3.000173e+01
4.011452e+02	-3.005638e+01
4.034622e+02	-3.010510e+01
4.057926e+02	-3.015271e+01
4.081365e+02	-3.020076e+01
4.104938e+02	-3.025304e+01
4.128648e+02	-3.030663e+01
4.152495e+02	-3.035145e+01
4.176480e+02	-3.040767e+01
4.200603e+02	-3.045412e+01
4.224866e+02	-3.050062e+01
4.249268e+02	-3.055204e+01
4.273812e+02	-3.060219e+01
4.298497e+02	-3.065716e+01
4.323325e+02	-3.070302e+01
4.348297e+02	-3.075344e+01
4.373412e+02	-3.080761e+01
4.398673e+02	-3.085230e+01
4.424079e+02	-3.091058e+01
4.449633e+02	-3.095796e+01
4.475334e+02	-3.100073e+01
4.501183e+02	-3.105829e+01
4.527182e+02	-3.110463e+01
4.553330e+02	-3.115934e+01
4.579630e+02	-3.120869e+01
4.606082e+02	-3.124839e+01
4.632687e+02	-3.130482e+01
4.659445e+02	-3.136282e+01
4.686358e+02	-3.140308e+01
4.713426e+02	-3.145794e+01
4.740650e+02	-3.150902e+01
4.768032e+02	-3.156063e+01
4.795572e+02	-3.160332e+01
4.823271e+02	-3.166201e+01
4.851130e+02	-3.171116e+01
4.879150e+02	-3.175847e+01
4.907332e+02	-3.181284e+01
4.935676e+02	-3.186260e+01
4.964185e+02	-3.189872e+01
4.992858e+02	-3.195792e+01
5.021696e+02	-3.201165e+01
5.050701e+02	-3.206410e+01
5.079874e+02	-3.210769e+01
5.109215e+02	-3.216279e+01
5.138726e+02	-3.221392e+01
5.168407e+02	-3.225762e+01
5.198259e+02	-3.231140e+01
5.228284e+02	-3.236357e+01
5.258482e+02	-3.240998e+01
5.288855e+02	-3.246210e+01
5.319403e+02	-3.250553e+01
5.350128e+02	-3.255996e+01
5.381030e+02	-3.261595e+01
5.412111e+02	-3.266096e+01
5.443371e+02	-3.271329e+01
5.474812e+02	-3.276194e+01
5.506434e+02	-3.282019e+01
5.538239e+02	-3.285721e+01
5.570228e+02	-3.291200e+01
5.602401e+02	-3.296679e+01
5.634760e+02	-3.301041e+01
5.667306e+02	-3.306120e+01
5.700040e+02	-3.311481e+01
5.732964e+02	-3.316254e+01
5.766077e+02	-3.321437e+01
5.799382e+02	-3.326808e+01
5.832879e+02	-3.331890e+01
5.866569e+02	-3.336884e+01
5.900454e+02	-3.341910e+01
5.934535e+02	-3.346582e+01
5.968813e+02	-3.352166e+01
6.003288e+02	-3.357021e+01
6.037963e+02	-3.362031e+01
6.072838e+02	-3.366125e+01
6.107914e+02	-3.371370e+01
6.143194e+02	-3.377476e+01
6.178676e+02	-3.382277e+01
6.214364e+02	-3.386782e+01
6.250258e+02	-3.392184e+01
6.286359e+02	-3.398003e+01
6.322669e+02	-3.401271e+01
6.359189e+02	-3.407032e+01
6.395919e+02	-3.411382e+01
6.432862e+02	-3.416797e+01
6.470017e+02	-3.422416e+01
6.507388e+02	-3.426981e+01
6.544974e+02	-3.432860e+01
6.582778e+02	-3.437833e+01
6.620800e+02	-3.442528e+01
6.659041e+02	-3.447542e+01
6.697504e+02	-3.452218e+01
6.736188e+02	-3.456969e+01
6.775096e+02	-3.462605e+01
6.814229e+02	-3.467723e+01
6.853587e+02	-3.472569e+01
6.893173e+02	-3.477661e+01
6.932988e+02	-3.481612e+01
6.973033e+02	-3.486897e+01
7.013309e+02	-3.492833e+01
