Frequency(Hz)	Magnitude(dB)
1.000000e+01	-2.077290e+00
1.005776e+01	-2.096519e+00
1.011585e+01	-2.115985e+00
1.017428e+01	-2.135287e+00
1.023305e+01	-2.154495e+00
1.029215e+01	-2.174152e+00
1.035160e+01	-2.193822e+00
1.041139e+01	-2.214070e+00
1.047153e+01	-2.234031e+00
1.053201e+01	-2.254264e+00
1.059284e+01	-2.274590e+00
1.065403e+01	-2.294732e+00
1.071556e+01	-2.315452e+00
1.077746e+01	-2.336087e+00
1.083971e+01	-2.357448e+00
1.090232e+01	-2.378244e+00
1.096529e+01	-2.399215e+00
1.102862e+01	-2.420505e+00
1.109232e+01	-2.442030e+00
1.115639e+01	-2.463606e+00
1.122083e+01	-2.485377e+00
1.128564e+01	-2.507243e+00
1.135083e+01	-2.529084e+00
1.141639e+01	-2.551530e+00
1.148233e+01	-2.573872e+00
1.154865e+01	-2.596253e+00
1.161536e+01	-2.618446e+00
1.168245e+01	-2.641527e+00
1.174992e+01	-2.664270e+00
1.181779e+01	-2.687627e+00
1.188605e+01	-2.710444e+00
1.195470e+01	-2.733852e+00
1.202375e+01	-2.757155e+00
1.209320e+01	-2.780923e+00
1.216305e+01	-2.804443e+00
1.223330e+01	-2.828457e+00
1.230396e+01	-2.852421e+00
1.237503e+01	-2.876471e+00
1.244651e+01	-2.900901e+00
1.251840e+01	-2.925424e+00
1.259070e+01	-2.950096e+00
1.266343e+01	-2.974824e+00
1.273657e+01	-2.999505e+00
1.281014e+01	-3.024561e+00
1.288413e+01	-3.049660e+00
1.295855e+01	-3.074895e+00
1.303339e+01	-3.100519e+00
1.310867e+01	-3.126281e+00
1.318439e+01	-3.151919e+00
1.326054e+01	-3.177614e+00
1.333713e+01	-3.203956e+00
1.341417e+01	-3.230093e+00
1.349165e+01	-3.256078e+00
1.356958e+01	-3.282868e+00
1.364795e+01	-3.308978e+00
1.372678e+01	-3.336092e+00
1.380607e+01	-3.362970e+00
1.388581e+01	-3.389843e+00
1.396602e+01	-3.417114e+00
1.404668e+01	-3.444653e+00
1.412782e+01	-3.471915e+00
1.420942e+01	-3.499754e+00
1.429149e+01	-3.527079e+00
1.437404e+01	-3.555169e+00
1.445706e+01	-3.583269e+00
1.454057e+01	-3.611558e+00
1.462455e+01	-3.639708e+00
1.470902e+01	-3.668340e+00
1.479398e+01	-3.696795e+00
1.487943e+01	-3.725477e+00
1.496537e+01	-3.754244e+00
1.505181e+01	-3.783436e+00
1.513875e+01	-3.812562e+00
1.522619e+01	-3.841772e+00
1.531414e+01	-3.871398e+00
1.540259e+01	-3.901289e+00
1.549156e+01	-3.930691e+00
1.558103e+01	-3.960615e+00
1.567103e+01	-3.990530e+00
1.576155e+01	-4.020781e+00
1.585258e+01	-4.050824e+00
1.594415e+01	-4.081072e+00
1.603624e+01	-4.111835e+00
1.612886e+01	-4.142601e+00
1.622202e+01	-4.173490e+00
1.631572e+01	-4.204159e+00
1.640996e+01	-4.235348e+00
1.650474e+01	-4.266698e+00
1.660008e+01	-4.298108e+00
1.669596e+01	-4.329438e+00
1.679239e+01	-4.361212e+00
1.688938e+01	-4.392862e+00
1.698694e+01	-4.424698e+00
1.708505e+01	-4.456765e+00
1.718373e+01	-4.489212e+00
1.728299e+01	-4.521405e+00
1.738281e+01	-4.553753e+00
1.748322e+01	-4.586537e+00
1.758420e+01	-4.619212e+00
1.768576e+01	-4.651782e+00
1.778792e+01	-4.684499e+00
1.789066e+01	-4.717933e+00
1.799399e+01	-4.751192e+00
1.809793e+01	-4.784328e+00
1.820246e+01	-4.817626e+00
1.830760e+01	-4.851397e+00
1.841334e+01	-4.884762e+00
1.851969e+01	-4.919146e+00
1.862666e+01	-4.953179e+00
1.873425e+01	-4.986809e+00
1.884246e+01	-5.021509e+00
1.895129e+01	-5.055659e+00
1.906075e+01	-5.089888e+00
1.917085e+01	-5.124701e+00
1.928158e+01	-5.159416e+00
1.939295e+01	-5.194307e+00
1.950496e+01	-5.229157e+00
1.961762e+01	-5.264348e+00
1.973093e+01	-5.299400e+00
1.984490e+01	-5.334681e+00
1.995952e+01	-5.369948e+00
2.007480e+01	-5.405666e+00
2.019076e+01	-5.441653e+00
2.030738e+01	-5.477286e+00
2.042467e+01	-5.513150e+00
2.054264e+01	-5.549060e+00
2.066130e+01	-5.585165e+00
2.078064e+01	-5.621639e+00
2.090066e+01	-5.657837e+00
2.102139e+01	-5.694805e+00
2.114280e+01	-5.730846e+00
2.126492e+01	-5.767732e+00
2.138775e+01	-5.804508e+00
2.151128e+01	-5.841313e+00
2.163553e+01	-5.878618e+00
2.176050e+01	-5.915653e+00
2.188619e+01	-5.952928e+00
2.201260e+01	-5.990360e+00
2.213974e+01	-6.027717e+00
2.226762e+01	-6.065519e+00
2.239624e+01	-6.103349e+00
2.252560e+01	-6.141225e+00
2.265571e+01	-6.179020e+00
2.278656e+01	-6.216888e+00
2.291818e+01	-6.254745e+00
2.305055e+01	-6.293153e+00
2.318369e+01	-6.331609e+00
2.331760e+01	-6.369984e+00
2.345228e+01	-6.408333e+00
2.358774e+01	-6.447332e+00
2.372398e+01	-6.485860e+00
2.386101e+01	-6.524736e+00
2.399883e+01	-6.563501e+00
2.413745e+01	-6.602419e+00
2.427686e+01	-6.641617e+00
2.441709e+01	-6.681014e+00
2.455812e+01	-6.720522e+00
2.469997e+01	-6.760046e+00
2.484263e+01	-6.799300e+00
2.498612e+01	-6.839175e+00
2.513044e+01	-6.878756e+00
2.527559e+01	-6.918656e+00
2.542158e+01	-6.958342e+00
2.556842e+01	-6.998441e+00
2.571610e+01	-7.038280e+00
2.586463e+01	-7.079130e+00
2.601403e+01	-7.119171e+00
2.616428e+01	-7.159414e+00
2.631541e+01	-7.199820e+00
2.646740e+01	-7.239971e+00
2.662028e+01	-7.280769e+00
2.677404e+01	-7.321592e+00
2.692868e+01	-7.362289e+00
2.708422e+01	-7.403175e+00
2.724066e+01	-7.444200e+00
2.739800e+01	-7.485607e+00
2.755625e+01	-7.526565e+00
2.771541e+01	-7.567546e+00
2.787550e+01	-7.608918e+00
2.803650e+01	-7.650406e+00
2.819844e+01	-7.691629e+00
2.836131e+01	-7.733409e+00
2.852513e+01	-7.775359e+00
2.868989e+01	-7.816747e+00
2.885560e+01	-7.858836e+00
2.902227e+01	-7.900494e+00
2.918990e+01	-7.942432e+00
2.935850e+01	-7.984967e+00
2.952807e+01	-8.026531e+00
2.969863e+01	-8.069223e+00
2.987016e+01	-8.110465e+00
3.004269e+01	-8.153245e+00
3.021622e+01	-8.195767e+00
3.039075e+01	-8.238117e+00
3.056628e+01	-8.280671e+00
3.074283e+01	-8.323648e+00
3.092040e+01	-8.366194e+00
3.109900e+01	-8.409130e+00
3.127862e+01	-8.451901e+00
3.145929e+01	-8.494553e+00
3.164099e+01	-8.537916e+00
3.182375e+01	-8.580675e+00
3.200756e+01	-8.623993e+00
3.219244e+01	-8.667026e+00
3.237838e+01	-8.710027e+00
3.256540e+01	-8.753506e+00
3.275349e+01	-8.797139e+00
3.294268e+01	-8.840535e+00
3.313295e+01	-8.884232e+00
3.332433e+01	-8.927437e+00
3.351681e+01	-8.971397e+00
3.371040e+01	-9.014972e+00
3.390511e+01	-9.058690e+00
3.410094e+01	-9.102501e+00
3.429791e+01	-9.146601e+00
3.449601e+01	-9.190614e+00
3.469526e+01	-9.234378e+00
3.489566e+01	-9.278629e+00
3.509721e+01	-9.322927e+00
3.529993e+01	-9.366976e+00
3.550382e+01	-9.411300e+00
3.570889e+01	-9.455070e+00
3.591515e+01	-9.499779e+00
3.612259e+01	-9.544243e+00
3.633123e+01	-9.588996e+00
3.654108e+01	-9.633992e+00
3.675214e+01	-9.677938e+00
3.696442e+01	-9.722492e+00
3.717792e+01	-9.767278e+00
3.739266e+01	-9.811983e+00
3.760864e+01	-9.856880e+00
3.782587e+01	-9.901972e+00
3.804435e+01	-9.946218e+00
3.826409e+01	-9.991724e+00
3.848510e+01	-1.003683e+01
3.870739e+01	-1.008206e+01
3.893096e+01	-1.012691e+01
3.915583e+01	-1.017249e+01
3.938199e+01	-1.021740e+01
3.960946e+01	-1.026309e+01
3.983824e+01	-1.030816e+01
4.006834e+01	-1.035409e+01
4.029978e+01	-1.039968e+01
4.053255e+01	-1.044435e+01
4.076666e+01	-1.048941e+01
4.100213e+01	-1.053544e+01
4.123896e+01	-1.058091e+01
4.147715e+01	-1.062738e+01
4.171672e+01	-1.067200e+01
4.195767e+01	-1.071866e+01
4.220002e+01	-1.076383e+01
4.244377e+01	-1.080963e+01
4.268892e+01	-1.085579e+01
4.293549e+01	-1.090226e+01
4.318348e+01	-1.094816e+01
4.343291e+01	-1.099438e+01
4.368377e+01	-1.103994e+01
4.393609e+01	-1.108614e+01
4.418986e+01	-1.113164e+01
4.444510e+01	-1.117794e+01
4.470182e+01	-1.122460e+01
4.496001e+01	-1.127098e+01
4.521970e+01	-1.131729e+01
4.548089e+01	-1.136398e+01
4.574358e+01	-1.141019e+01
4.600779e+01	-1.145605e+01
4.627353e+01	-1.150229e+01
4.654081e+01	-1.154981e+01
4.680963e+01	-1.159602e+01
4.708000e+01	-1.164206e+01
4.735193e+01	-1.168947e+01
4.762543e+01	-1.173590e+01
4.790051e+01	-1.178239e+01
4.817719e+01	-1.182974e+01
4.845545e+01	-1.187601e+01
4.873533e+01	-1.192299e+01
4.901682e+01	-1.196935e+01
4.929994e+01	-1.201701e+01
4.958470e+01	-1.206339e+01
4.987110e+01	-1.211065e+01
5.015915e+01	-1.215740e+01
5.044887e+01	-1.220378e+01
5.074026e+01	-1.225104e+01
5.103333e+01	-1.229802e+01
5.132810e+01	-1.234570e+01
5.162457e+01	-1.239298e+01
5.192275e+01	-1.243970e+01
5.222265e+01	-1.248699e+01
5.252429e+01	-1.253466e+01
5.282767e+01	-1.258176e+01
5.313280e+01	-1.262875e+01
5.343969e+01	-1.267537e+01
5.374836e+01	-1.272363e+01
5.405880e+01	-1.277001e+01
5.437105e+01	-1.281874e+01
5.468509e+01	-1.286545e+01
5.500095e+01	-1.291257e+01
5.531863e+01	-1.296045e+01
5.563815e+01	-1.300773e+01
5.595951e+01	-1.305525e+01
5.628273e+01	-1.310329e+01
5.660782e+01	-1.315051e+01
5.693479e+01	-1.319866e+01
5.726364e+01	-1.324544e+01
5.759439e+01	-1.329359e+01
5.792705e+01	-1.334094e+01
5.826164e+01	-1.338842e+01
5.859815e+01	-1.343692e+01
5.893662e+01	-1.348409e+01
5.927703e+01	-1.353181e+01
5.961941e+01	-1.357971e+01
5.996377e+01	-1.362775e+01
6.031012e+01	-1.367617e+01
6.065847e+01	-1.372365e+01
6.100883e+01	-1.377209e+01
6.136121e+01	-1.382010e+01
6.171563e+01	-1.386816e+01
6.207210e+01	-1.391564e+01
6.243063e+01	-1.396370e+01
6.279122e+01	-1.401130e+01
6.315390e+01	-1.406004e+01
6.351868e+01	-1.410807e+01
6.388556e+01	-1.415618e+01
6.425456e+01	-1.420370e+01
6.462569e+01	-1.425159e+01
6.499897e+01	-1.430037e+01
6.537440e+01	-1.434868e+01
6.575200e+01	-1.439657e+01
6.613178e+01	-1.444512e+01
6.651375e+01	-1.449277e+01
6.689793e+01	-1.454094e+01
6.728433e+01	-1.458954e+01
6.767297e+01	-1.463755e+01
6.806384e+01	-1.468593e+01
6.845698e+01	-1.473442e+01
6.885238e+01	-1.478266e+01
6.925007e+01	-1.483221e+01
6.965005e+01	-1.488035e+01
7.005235e+01	-1.492765e+01
7.045697e+01	-1.497658e+01
7.086393e+01	-1.502461e+01
7.127323e+01	-1.507316e+01
7.168490e+01	-1.512257e+01
7.209895e+01	-1.517054e+01
7.251539e+01	-1.521872e+01
7.293424e+01	-1.526814e+01
7.335551e+01	-1.531625e+01
7.377920e+01	-1.536401e+01
7.420535e+01	-1.541261e+01
7.463396e+01	-1.546231e+01
7.506504e+01	-1.551046e+01
7.549861e+01	-1.555960e+01
7.593469e+01	-1.560786e+01
7.637328e+01	-1.565692e+01
7.681441e+01	-1.570554e+01
7.725809e+01	-1.575348e+01
7.770433e+01	-1.580171e+01
7.815315e+01	-1.585117e+01
7.860456e+01	-1.589957e+01
7.905857e+01	-1.594918e+01
7.951521e+01	-1.599732e+01
7.997449e+01	-1.604585e+01
8.043642e+01	-1.609514e+01
8.090102e+01	-1.614454e+01
8.136830e+01	-1.619329e+01
8.183828e+01	-1.624143e+01
8.231097e+01	-1.628953e+01
8.278640e+01	-1.633920e+01
8.326457e+01	-1.638746e+01
8.374550e+01	-1.643707e+01
8.422921e+01	-1.648629e+01
8.471572e+01	-1.653413e+01
8.520503e+01	-1.658352e+01
8.569717e+01	-1.663118e+01
8.619215e+01	-1.668230e+01
8.669000e+01	-1.673091e+01
8.719071e+01	-1.677882e+01
8.769432e+01	-1.682827e+01
8.820084e+01	-1.687733e+01
8.871029e+01	-1.692673e+01
8.922267e+01	-1.697511e+01
8.973802e+01	-1.702507e+01
9.025634e+01	-1.707442e+01
9.077766e+01	-1.712202e+01
9.130199e+01	-1.717212e+01
9.182935e+01	-1.722070e+01
9.235975e+01	-1.726880e+01
9.289321e+01	-1.731901e+01
9.342976e+01	-1.736894e+01
9.396941e+01	-1.741737e+01
9.451217e+01	-1.746667e+01
9.505807e+01	-1.751511e+01
9.560712e+01	-1.756494e+01
9.615934e+01	-1.761441e+01
9.671476e+01	-1.766317e+01
9.727338e+01	-1.771297e+01
9.783522e+01	-1.776221e+01
9.840032e+01	-1.781088e+01
9.896867e+01	-1.785920e+01
9.954031e+01	-1.790856e+01
1.001153e+02	-1.795913e+01
1.006935e+02	-1.800832e+01
1.012751e+02	-1.805635e+01
1.018601e+02	-1.810634e+01
1.024484e+02	-1.815625e+01
1.030402e+02	-1.820587e+01
1.036353e+02	-1.825455e+01
1.042339e+02	-1.830157e+01
1.048360e+02	-1.835195e+01
1.054415e+02	-1.840120e+01
1.060505e+02	-1.845106e+01
1.066631e+02	-1.849996e+01
1.072791e+02	-1.855005e+01
1.078988e+02	-1.859869e+01
1.085220e+02	-1.864847e+01
1.091488e+02	-1.869664e+01
1.097793e+02	-1.874768e+01
1.104133e+02	-1.879829e+01
1.110511e+02	-1.884478e+01
1.116925e+02	-1.889346e+01
1.123376e+02	-1.894499e+01
1.129865e+02	-1.899351e+01
1.136391e+02	-1.904252e+01
1.142955e+02	-1.909348e+01
1.149556e+02	-1.914059e+01
1.156196e+02	-1.919187e+01
1.162874e+02	-1.924069e+01
1.169591e+02	-1.929026e+01
1.176347e+02	-1.933934e+01
1.183141e+02	-1.939020e+01
1.189975e+02	-1.943847e+01
1.196848e+02	-1.948894e+01
1.203761e+02	-1.953548e+01
1.210714e+02	-1.958724e+01
1.217707e+02	-1.963682e+01
1.224740e+02	-1.968709e+01
1.231814e+02	-1.973582e+01
1.238929e+02	-1.978617e+01
1.246085e+02	-1.983513e+01
1.253283e+02	-1.988548e+01
1.260522e+02	-1.993543e+01
1.267802e+02	-1.998375e+01
1.275125e+02	-2.003145e+01
1.282490e+02	-2.008204e+01
1.289898e+02	-2.013104e+01
1.297348e+02	-2.018139e+01
1.304842e+02	-2.023141e+01
1.312378e+02	-2.028035e+01
1.319959e+02	-2.033075e+01
1.327583e+02	-2.038019e+01
1.335251e+02	-2.043069e+01
1.342963e+02	-2.047885e+01
1.350720e+02	-2.052821e+01
1.358522e+02	-2.057821e+01
1.366368e+02	-2.062889e+01
1.374260e+02	-2.067941e+01
1.382198e+02	-2.072858e+01
1.390182e+02	-2.077808e+01
1.398211e+02	-2.082693e+01
1.406287e+02	-2.087496e+01
1.414410e+02	-2.092580e+01
1.422579e+02	-2.097552e+01
1.430796e+02	-2.102481e+01
1.439060e+02	-2.107409e+01
1.447372e+02	-2.112577e+01
1.455732e+02	-2.117451e+01
1.464141e+02	-2.122495e+01
1.472597e+02	-2.127277e+01
1.481103e+02	-2.132242e+01
1.489658e+02	-2.137052e+01
1.498262e+02	-2.142105e+01
1.506916e+02	-2.147050e+01
1.515620e+02	-2.152314e+01
1.524374e+02	-2.157154e+01
1.533179e+02	-2.162230e+01
1.542034e+02	-2.167077e+01
1.550941e+02	-2.172121e+01
1.559899e+02	-2.176950e+01
1.568909e+02	-2.181806e+01
1.577971e+02	-2.187073e+01
1.587085e+02	-2.192135e+01
1.596252e+02	-2.197079e+01
1.605472e+02	-2.201923e+01
1.614745e+02	-2.206940e+01
1.624072e+02	-2.211638e+01
1.633453e+02	-2.216649e+01
1.642887e+02	-2.221735e+01
1.652377e+02	-2.226722e+01
1.661921e+02	-2.231833e+01
1.671520e+02	-2.236714e+01
1.681175e+02	-2.241837e+01
1.690885e+02	-2.246548e+01
1.700651e+02	-2.251465e+01
1.710474e+02	-2.256630e+01
1.720354e+02	-2.261756e+01
1.730291e+02	-2.266404e+01
1.740285e+02	-2.271407e+01
1.750337e+02	-2.276496e+01
1.760446e+02	-2.281393e+01
1.770615e+02	-2.286375e+01
1.780842e+02	-2.291485e+01
1.791128e+02	-2.296294e+01
1.801473e+02	-2.301546e+01
1.811878e+02	-2.306193e+01
1.822344e+02	-2.311220e+01
1.832870e+02	-2.316422e+01
1.843456e+02	-2.321203e+01
1.854104e+02	-2.326144e+01
1.864813e+02	-2.331316e+01
1.875584e+02	-2.336252e+01
1.886418e+02	-2.341281e+01
1.897313e+02	-2.346296e+01
1.908272e+02	-2.351312e+01
1.919294e+02	-2.356038e+01
1.930380e+02	-2.361222e+01
1.941530e+02	-2.366319e+01
1.952744e+02	-2.371045e+01
1.964023e+02	-2.376159e+01
1.975367e+02	-2.380919e+01
1.986777e+02	-2.386145e+01
1.998252e+02	-2.390840e+01
2.009794e+02	-2.396033e+01
2.021403e+02	-2.401372e+01
2.033078e+02	-2.406081e+01
2.044821e+02	-2.411014e+01
2.056632e+02	-2.416266e+01
2.068511e+02	-2.421233e+01
2.080459e+02	-2.426059e+01
2.092475e+02	-2.430949e+01
2.104561e+02	-2.435889e+01
2.116717e+02	-2.441333e+01
2.128943e+02	-2.445692e+01
2.141240e+02	-2.451040e+01
2.153608e+02	-2.456221e+01
2.166047e+02	-2.460975e+01
2.178558e+02	-2.465858e+01
2.191141e+02	-2.470729e+01
2.203797e+02	-2.476141e+01
2.216526e+02	-2.480968e+01
2.229329e+02	-2.485797e+01
2.242205e+02	-2.490897e+01
2.255156e+02	-2.495953e+01
2.268182e+02	-2.500661e+01
2.281283e+02	-2.505995e+01
2.294459e+02	-2.510462e+01
2.307712e+02	-2.515577e+01
2.321041e+02	-2.520999e+01
2.334447e+02	-2.525624e+01
2.347931e+02	-2.530405e+01
2.361493e+02	-2.535666e+01
2.375133e+02	-2.540866e+01
2.388851e+02	-2.545937e+01
2.402649e+02	-2.550789e+01
2.416527e+02	-2.555654e+01
2.430484e+02	-2.560502e+01
2.444523e+02	-2.565836e+01
2.458642e+02	-2.570614e+01
2.472843e+02	-2.575700e+01
2.487126e+02	-2.580800e+01
2.501492e+02	-2.585673e+01
2.515940e+02	-2.590854e+01
2.530472e+02	-2.595599e+01
2.545088e+02	-2.600880e+01
2.559789e+02	-2.605652e+01
2.574574e+02	-2.611036e+01
2.589444e+02	-2.615315e+01
2.604401e+02	-2.620675e+01
2.619444e+02	-2.625290e+01
2.634574e+02	-2.630689e+01
2.649791e+02	-2.635849e+01
2.665096e+02	-2.640780e+01
2.680489e+02	-2.645379e+01
2.695972e+02	-2.650419e+01
2.711544e+02	-2.655817e+01
2.727205e+02	-2.660945e+01
2.742958e+02	-2.665582e+01
2.758801e+02	-2.670629e+01
2.774736e+02	-2.675829e+01
2.790762e+02	-2.680692e+01
2.806882e+02	-2.685302e+01
2.823094e+02	-2.690920e+01
2.839400e+02	-2.695766e+01
2.855800e+02	-2.700601e+01
2.872295e+02	-2.705452e+01
2.888886e+02	-2.710551e+01
2.905572e+02	-2.715278e+01
2.922354e+02	-2.720545e+01
2.939234e+02	-2.725782e+01
2.956211e+02	-2.730398e+01
2.973286e+02	-2.735671e+01
2.990459e+02	-2.740300e+01
3.007732e+02	-2.745340e+01
3.025104e+02	-2.750586e+01
3.042577e+02	-2.755672e+01
3.060151e+02	-2.760719e+01
3.077826e+02	-2.765803e+01
3.095604e+02	-2.770643e+01
3.113484e+02	-2.775590e+01
3.131467e+02	-2.780857e+01
3.149554e+02	-2.785571e+01
3.167746e+02	-2.790770e+01
3.186043e+02	-2.795505e+01
3.204445e+02	-2.800410e+01
3.222954e+02	-2.805672e+01
3.241570e+02	-2.811059e+01
3.260293e+02	-2.815766e+01
3.279124e+02	-2.820330e+01
3.298064e+02	-2.825422e+01
3.317114e+02	-2.830433e+01
3.336273e+02	-2.835660e+01
3.355544e+02	-2.840654e+01
3.374925e+02	-2.845672e+01
3.394418e+02	-2.850462e+01
3.414024e+02	-2.855577e+01
3.433744e+02	-2.860746e+01
3.453577e+02	-2.865808e+01
3.473525e+02	-2.870794e+01
3.493588e+02	-2.875802e+01
3.513766e+02	-2.880981e+01
3.534062e+02	-2.885424e+01
3.554474e+02	-2.890570e+01
3.575005e+02	-2.895508e+01
3.595654e+02	-2.900708e+01
3.616422e+02	-2.905654e+01
3.637311e+02	-2.910767e+01
3.658320e+02	-2.915537e+01
3.679450e+02	-2.920789e+01
3.700702e+02	-2.925499e+01
3.722077e+02	-2.930483e+01
3.743576e+02	-2.936186e+01
3.765199e+02	-2.940872e+01
3.786946e+02	-2.945814e+01
3.808820e+02	-2.950862e+01
3.830819e+02	-2.956216e+01
3.852946e+02	-2.960820e+01
3.875200e+02	-2.965648e+01
3.897583e+02	-2.970475e+01
3.920096e+02	-2.975997e+01
3.942738e+02	-2.980854e+01
3.965511e+02	-2.986100e+01
3.988416e+02	-2.990655e+01
4.011452e+02	-2.996105e+01
4.034622e+02	-3.001151e+01
4.057926e+02	-3.005769e+01
4.081365e+02	-3.010887e+01
4.104938e+02	-3.016408e+01
4.128648e+02	-3.020893e+01
4.152495e+02	-3.026040e+01
4.176480e+02	-3.031087e+01
4.200603e+02	-3.035807e+01
4.224866e+02	-3.040762e+01
4.249268e+02	-3.046284e+01
4.273812e+02	-3.051037e+01
4.298497e+02	-3.056270e+01
4.323325e+02	-3.060748e+01
4.348297e+02	-3.066308e+01
4.373412e+02	-3.070755e+01
4.398673e+02	-3.076475e+01
4.424079e+02	-3.081519e+01
4.449633e+02	-3.086166e+01
4.475334e+02	-3.091181e+01
4.501183e+02	-3.096111e+01
4.527182e+02	-3.102036e+01
4.553330e+02	-3.106189e+01
4.579630e+02	-3.110612e+01
4.606082e+02	-3.115572e+01
4.632687e+02	-3.121168e+01
4.659445e+02	-3.126355e+01
4.686358e+02	-3.131532e+01
4.713426e+02	-3.136787e+01
4.740650e+02	-3.141462e+01
4.768032e+02	-3.146780e+01
4.795572e+02	-3.151233e+01
4.823271e+02	-3.156068e+01
4.851130e+02	-3.161262e+01
4.879150e+02	-3.166569e+01
4.907332e+02	-3.171499e+01
4.935676e+02	-3.176388e+01
4.964185e+02	-3.181915e+01
4.992858e+02	-3.186318e+01
5.021696e+02	-3.191599e+01
5.050701e+02	-3.196568e+01
5.079874e+02	-3.201129e+01
5.109215e+02	-3.207101e+01
5.138726e+02	-3.212029e+01
5.168407e+02	-3.217118e+01
5.198259e+02	-3.221753e+01
5.228284e+02	-3.226631e+01
5.258482e+02	-3.231648e+01
5.288855e+02	-3.236310e+01
5.319403e+02	-3.241923e+01
5.350128e+02	-3.246387e+01
5.381030e+02	-3.252223e+01
5.412111e+02	-3.256724e+01
5.443371e+02	-3.262075e+01
5.474812e+02	-3.266853e+01
5.506434e+02	-3.272624e+01
5.538239e+02	-3.276976e+01
5.570228e+02	-3.281846e+01
5.602401e+02	-3.287146e+01
5.634760e+02	-3.292173e+01
5.667306e+02	-3.297291e+01
5.700040e+02	-3.302189e+01
5.732964e+02	-3.307565e+01
5.766077e+02	-3.311406e+01
5.799382e+02	-3.317129e+01
5.832879e+02	-3.321878e+01
5.866569e+02	-3.327163e+01
5.900454e+02	-3.332212e+01
5.934535e+02	-3.336903e+01
5.968813e+02	-3.342139e+01
6.003288e+02	-3.347606e+01
6.037963e+02	-3.351999e+01
6.072838e+02	-3.357335e+01
6.107914e+02	-3.362013e+01
6.143194e+02	-3.367036e+01
6.178676e+02	-3.372809e+01
6.214364e+02	-3.378004e+01
6.250258e+02	-3.382130e+01
6.286359e+02	-3.387690e+01
6.322669e+02	-3.392669e+01
6.359189e+02	-3.397474e+01
6.395919e+02	-3.402469e+01
6.432862e+02	-3.407563e+01
6.470017e+02	-3.412836e+01
6.507388e+02	-3.417969e+01
6.544974e+02	-3.421844e+01
6.582778e+02	-3.428209e+01
6.620800e+02	-3.432669e+01
6.659041e+02	-3.438726e+01
6.697504e+02	-3.442304e+01
6.736188e+02	-3.447750e+01
6.775096e+02	-3.451861e+01
6.814229e+02	-3.458300e+01
6.853587e+02	-3.463027e+01
6.893173e+02	-3.467761e+01
6.932988e+02	-3.472987e+01
6.973033e+02	-3.478614e+01
7.013309e+02	-3.483466e+01
