Frequency(Hz)	Magnitude(dB)
1.000000e+01	-2.346806e+00
1.005776e+01	-2.368040e+00
1.011585e+01	-2.388849e+00
1.017428e+01	-2.409934e+00
1.023305e+01	-2.431501e+00
1.029215e+01	-2.452890e+00
1.035160e+01	-2.474712e+00
1.041139e+01	-2.496314e+00
1.047153e+01	-2.518336e+00
1.053201e+01	-2.540434e+00
1.059284e+01	-2.562641e+00
1.065403e+01	-2.585153e+00
1.071556e+01	-2.607607e+00
1.077746e+01	-2.630204e+00
1.083971e+01	-2.652968e+00
1.090232e+01	-2.676074e+00
1.096529e+01	-2.698906e+00
1.102862e+01	-2.722377e+00
1.109232e+01	-2.745534e+00
1.115639e+01	-2.769066e+00
1.122083e+01	-2.792722e+00
1.128564e+01	-2.816564e+00
1.135083e+01	-2.840323e+00
1.141639e+01	-2.864692e+00
1.148233e+01	-2.888935e+00
1.154865e+01	-2.913214e+00
1.161536e+01	-2.937780e+00
1.168245e+01	-2.962203e+00
1.174992e+01	-2.987260e+00
1.181779e+01	-3.012300e+00
1.188605e+01	-3.037488e+00
1.195470e+01	-3.062573e+00
1.202375e+01	-3.087783e+00
1.209320e+01	-3.113786e+00
1.216305e+01	-3.139245e+00
1.223330e+01	-3.164995e+00
1.230396e+01	-3.190771e+00
1.237503e+01	-3.216962e+00
1.244651e+01	-3.243265e+00
1.251840e+01	-3.269702e+00
1.259070e+01	-3.296082e+00
1.266343e+01	-3.322832e+00
1.273657e+01	-3.349840e+00
1.281014e+01	-3.376514e+00
1.288413e+01	-3.403605e+00
1.295855e+01	-3.430941e+00
1.303339e+01	-3.458375e+00
1.310867e+01	-3.486052e+00
1.318439e+01	-3.513493e+00
1.326054e+01	-3.541460e+00
1.333713e+01	-3.569313e+00
1.341417e+01	-3.597491e+00
1.349165e+01	-3.625744e+00
1.356958e+01	-3.654016e+00
1.364795e+01	-3.682501e+00
1.372678e+01	-3.711299e+00
1.380607e+01	-3.740247e+00
1.388581e+01	-3.769028e+00
1.396602e+01	-3.798023e+00
1.404668e+01	-3.827258e+00
1.412782e+01	-3.856831e+00
1.420942e+01	-3.886222e+00
1.429149e+01	-3.916113e+00
1.437404e+01	-3.945639e+00
1.445706e+01	-3.975606e+00
1.454057e+01	-4.005514e+00
1.462455e+01	-4.035985e+00
1.470902e+01	-4.066299e+00
1.479398e+01	-4.096616e+00
1.487943e+01	-4.127540e+00
1.496537e+01	-4.158053e+00
1.505181e+01	-4.188881e+00
1.513875e+01	-4.220062e+00
1.522619e+01	-4.251109e+00
1.531414e+01	-4.282403e+00
1.540259e+01	-4.313959e+00
1.549156e+01	-4.345539e+00
1.558103e+01	-4.377063e+00
1.567103e+01	-4.408918e+00
1.576155e+01	-4.441100e+00
1.585258e+01	-4.472957e+00
1.594415e+01	-4.505266e+00
1.603624e+01	-4.537744e+00
1.612886e+01	-4.570208e+00
1.622202e+01	-4.602757e+00
1.631572e+01	-4.635388e+00
1.640996e+01	-4.668587e+00
1.650474e+01	-4.701494e+00
1.660008e+01	-4.734507e+00
1.669596e+01	-4.767875e+00
1.679239e+01	-4.801330e+00
1.688938e+01	-4.834723e+00
1.698694e+01	-4.868518e+00
1.708505e+01	-4.902317e+00
1.718373e+01	-4.936042e+00
1.728299e+01	-4.970305e+00
1.738281e+01	-5.004129e+00
1.748322e+01	-5.038291e+00
1.758420e+01	-5.073119e+00
1.768576e+01	-5.107488e+00
1.778792e+01	-5.142046e+00
1.789066e+01	-5.176912e+00
1.799399e+01	-5.211847e+00
1.809793e+01	-5.246899e+00
1.820246e+01	-5.282263e+00
1.830760e+01	-5.317363e+00
1.841334e+01	-5.352626e+00
1.851969e+01	-5.388111e+00
1.862666e+01	-5.423972e+00
1.873425e+01	-5.459877e+00
1.884246e+01	-5.495578e+00
1.895129e+01	-5.531659e+00
1.906075e+01	-5.567478e+00
1.917085e+01	-5.603431e+00
1.928158e+01	-5.640087e+00
1.939295e+01	-5.676394e+00
1.950496e+01	-5.713018e+00
1.961762e+01	-5.749663e+00
1.973093e+01	-5.786378e+00
1.984490e+01	-5.823387e+00
1.995952e+01	-5.860107e+00
2.007480e+01	-5.897606e+00
2.019076e+01	-5.934321e+00
2.030738e+01	-5.971800e+00
2.042467e+01	-6.009392e+00
2.054264e+01	-6.046689e+00
2.066130e+01	-6.084546e+00
2.078064e+01	-6.122356e+00
2.090066e+01	-6.160207e+00
2.102139e+01	-6.198079e+00
2.114280e+01	-6.236456e+00
2.126492e+01	-6.274265e+00
2.138775e+01	-6.312509e+00
2.151128e+01	-6.350717e+00
2.163553e+01	-6.389538e+00
2.176050e+01	-6.428113e+00
2.188619e+01	-6.466841e+00
2.201260e+01	-6.505698e+00
2.213974e+01	-6.544505e+00
2.226762e+01	-6.583488e+00
2.239624e+01	-6.622633e+00
2.252560e+01	-6.661599e+00
2.265571e+01	-6.701063e+00
2.278656e+01	-6.740187e+00
2.291818e+01	-6.779697e+00
2.305055e+01	-6.819501e+00
2.318369e+01	-6.859156e+00
2.331760e+01	-6.898734e+00
2.345228e+01	-6.938650e+00
2.358774e+01	-6.978566e+00
2.372398e+01	-7.018910e+00
2.386101e+01	-7.058737e+00
2.399883e+01	-7.099248e+00
2.413745e+01	-7.139348e+00
2.427686e+01	-7.179947e+00
2.441709e+01	-7.220407e+00
2.455812e+01	-7.260715e+00
2.469997e+01	-7.301620e+00
2.484263e+01	-7.342203e+00
2.498612e+01	-7.383283e+00
2.513044e+01	-7.423995e+00
2.527559e+01	-7.465461e+00
2.542158e+01	-7.506026e+00
2.556842e+01	-7.547160e+00
2.571610e+01	-7.588451e+00
2.586463e+01	-7.629541e+00
2.601403e+01	-7.671314e+00
2.616428e+01	-7.713512e+00
2.631541e+01	-7.754517e+00
2.646740e+01	-7.795916e+00
2.662028e+01	-7.837760e+00
2.677404e+01	-7.879498e+00
2.692868e+01	-7.921870e+00
2.708422e+01	-7.963880e+00
2.724066e+01	-8.005811e+00
2.739800e+01	-8.047941e+00
2.755625e+01	-8.090406e+00
2.771541e+01	-8.132077e+00
2.787550e+01	-8.174554e+00
2.803650e+01	-8.217366e+00
2.819844e+01	-8.259394e+00
2.836131e+01	-8.302703e+00
2.852513e+01	-8.345128e+00
2.868989e+01	-8.387382e+00
2.885560e+01	-8.430425e+00
2.902227e+01	-8.473506e+00
2.918990e+01	-8.516623e+00
2.935850e+01	-8.559110e+00
2.952807e+01	-8.602788e+00
2.969863e+01	-8.645500e+00
2.987016e+01	-8.688984e+00
3.004269e+01	-8.731795e+00
3.021622e+01	-8.775220e+00
3.039075e+01	-8.818367e+00
3.056628e+01	-8.862577e+00
3.074283e+01	-8.906389e+00
3.092040e+01	-8.949518e+00
3.109900e+01	-8.993331e+00
3.127862e+01	-9.037136e+00
3.145929e+01	-9.081176e+00
3.164099e+01	-9.124723e+00
3.182375e+01	-9.168907e+00
3.200756e+01	-9.212754e+00
3.219244e+01	-9.256242e+00
3.237838e+01	-9.300807e+00
3.256540e+01	-9.344336e+00
3.275349e+01	-9.389497e+00
3.294268e+01	-9.433207e+00
3.313295e+01	-9.478029e+00
3.332433e+01	-9.522305e+00
3.351681e+01	-9.566301e+00
3.371040e+01	-9.611686e+00
3.390511e+01	-9.655585e+00
3.410094e+01	-9.700573e+00
3.429791e+01	-9.744777e+00
3.449601e+01	-9.790142e+00
3.469526e+01	-9.834905e+00
3.489566e+01	-9.879720e+00
3.509721e+01	-9.924252e+00
3.529993e+01	-9.969154e+00
3.550382e+01	-1.001431e+01
3.570889e+01	-1.005945e+01
3.591515e+01	-1.010481e+01
3.612259e+01	-1.014974e+01
3.633123e+01	-1.019548e+01
3.654108e+01	-1.024027e+01
3.675214e+01	-1.028598e+01
3.696442e+01	-1.033115e+01
3.717792e+01	-1.037658e+01
3.739266e+01	-1.042215e+01
3.760864e+01	-1.046769e+01
3.782587e+01	-1.051284e+01
3.804435e+01	-1.055882e+01
3.826409e+01	-1.060453e+01
3.848510e+01	-1.065043e+01
3.870739e+01	-1.069544e+01
3.893096e+01	-1.074150e+01
3.915583e+01	-1.078750e+01
3.938199e+01	-1.083330e+01
3.960946e+01	-1.087939e+01
3.983824e+01	-1.092555e+01
4.006834e+01	-1.097102e+01
4.029978e+01	-1.101737e+01
4.053255e+01	-1.106336e+01
4.076666e+01	-1.110982e+01
4.100213e+01	-1.115608e+01
4.123896e+01	-1.120169e+01
4.147715e+01	-1.124840e+01
4.171672e+01	-1.129445e+01
4.195767e+01	-1.134032e+01
4.220002e+01	-1.138771e+01
4.244377e+01	-1.143314e+01
4.268892e+01	-1.148045e+01
4.293549e+01	-1.152655e+01
4.318348e+01	-1.157284e+01
4.343291e+01	-1.161940e+01
4.368377e+01	-1.166570e+01
4.393609e+01	-1.171294e+01
4.418986e+01	-1.176008e+01
4.444510e+01	-1.180594e+01
4.470182e+01	-1.185345e+01
4.496001e+01	-1.189961e+01
4.521970e+01	-1.194632e+01
4.548089e+01	-1.199298e+01
4.574358e+01	-1.204032e+01
4.600779e+01	-1.208696e+01
4.627353e+01	-1.213391e+01
4.654081e+01	-1.218105e+01
4.680963e+01	-1.222750e+01
4.708000e+01	-1.227442e+01
4.735193e+01	-1.232280e+01
4.762543e+01	-1.236947e+01
4.790051e+01	-1.241673e+01
4.817719e+01	-1.246379e+01
4.845545e+01	-1.251109e+01
4.873533e+01	-1.255830e+01
4.901682e+01	-1.260533e+01
4.929994e+01	-1.265312e+01
4.958470e+01	-1.270035e+01
4.987110e+01	-1.274753e+01
5.015915e+01	-1.279493e+01
5.044887e+01	-1.284232e+01
5.074026e+01	-1.288937e+01
5.103333e+01	-1.293760e+01
5.132810e+01	-1.298435e+01
5.162457e+01	-1.303133e+01
5.192275e+01	-1.307970e+01
5.222265e+01	-1.312683e+01
5.252429e+01	-1.317472e+01
5.282767e+01	-1.322230e+01
5.313280e+01	-1.327013e+01
5.343969e+01	-1.331780e+01
5.374836e+01	-1.336464e+01
5.405880e+01	-1.341262e+01
5.437105e+01	-1.346113e+01
5.468509e+01	-1.350940e+01
5.500095e+01	-1.355676e+01
5.531863e+01	-1.360419e+01
5.563815e+01	-1.365267e+01
5.595951e+01	-1.369950e+01
5.628273e+01	-1.374757e+01
5.660782e+01	-1.379584e+01
5.693479e+01	-1.384431e+01
5.726364e+01	-1.389203e+01
5.759439e+01	-1.393982e+01
5.792705e+01	-1.398807e+01
5.826164e+01	-1.403681e+01
5.859815e+01	-1.408355e+01
5.893662e+01	-1.413157e+01
5.927703e+01	-1.417981e+01
5.961941e+01	-1.422854e+01
5.996377e+01	-1.427658e+01
6.031012e+01	-1.432437e+01
6.065847e+01	-1.437263e+01
6.100883e+01	-1.442158e+01
6.136121e+01	-1.446871e+01
6.171563e+01	-1.451792e+01
6.207210e+01	-1.456562e+01
6.243063e+01	-1.461372e+01
6.279122e+01	-1.466218e+01
6.315390e+01	-1.471110e+01
6.351868e+01	-1.475868e+01
6.388556e+01	-1.480715e+01
6.425456e+01	-1.485551e+01
6.462569e+01	-1.490409e+01
6.499897e+01	-1.495287e+01
6.537440e+01	-1.500163e+01
6.575200e+01	-1.504976e+01
6.613178e+01	-1.509837e+01
6.651375e+01	-1.514681e+01
6.689793e+01	-1.519492e+01
6.728433e+01	-1.524285e+01
6.767297e+01	-1.529168e+01
6.806384e+01	-1.534041e+01
6.845698e+01	-1.538857e+01
6.885238e+01	-1.543796e+01
6.925007e+01	-1.548620e+01
6.965005e+01	-1.553493e+01
7.005235e+01	-1.558407e+01
7.045697e+01	-1.563197e+01
7.086393e+01	-1.568054e+01
7.127323e+01	-1.572927e+01
7.168490e+01	-1.578005e+01
7.209895e+01	-1.582633e+01
7.251539e+01	-1.587672e+01
7.293424e+01	-1.592460e+01
7.335551e+01	-1.597304e+01
7.377920e+01	-1.602228e+01
7.420535e+01	-1.607217e+01
7.463396e+01	-1.611886e+01
7.506504e+01	-1.616944e+01
7.549861e+01	-1.621661e+01
7.593469e+01	-1.626603e+01
7.637328e+01	-1.631578e+01
7.681441e+01	-1.636331e+01
7.725809e+01	-1.641281e+01
7.770433e+01	-1.646206e+01
7.815315e+01	-1.650926e+01
7.860456e+01	-1.655961e+01
7.905857e+01	-1.660792e+01
7.951521e+01	-1.665761e+01
7.997449e+01	-1.670637e+01
8.043642e+01	-1.675566e+01
8.090102e+01	-1.680499e+01
8.136830e+01	-1.685292e+01
8.183828e+01	-1.690234e+01
8.231097e+01	-1.695194e+01
8.278640e+01	-1.700145e+01
8.326457e+01	-1.704954e+01
8.374550e+01	-1.709840e+01
8.422921e+01	-1.714626e+01
8.471572e+01	-1.719619e+01
8.520503e+01	-1.724655e+01
8.569717e+01	-1.729533e+01
8.619215e+01	-1.734405e+01
8.669000e+01	-1.739136e+01
8.719071e+01	-1.744221e+01
8.769432e+01	-1.749076e+01
8.820084e+01	-1.753988e+01
8.871029e+01	-1.758883e+01
8.922267e+01	-1.763879e+01
8.973802e+01	-1.768658e+01
9.025634e+01	-1.773742e+01
9.077766e+01	-1.778546e+01
9.130199e+01	-1.783595e+01
9.182935e+01	-1.788519e+01
9.235975e+01	-1.793172e+01
9.289321e+01	-1.798315e+01
9.342976e+01	-1.803310e+01
9.396941e+01	-1.808069e+01
9.451217e+01	-1.813159e+01
9.505807e+01	-1.818019e+01
9.560712e+01	-1.823026e+01
9.615934e+01	-1.827841e+01
9.671476e+01	-1.832726e+01
9.727338e+01	-1.837717e+01
9.783522e+01	-1.842508e+01
9.840032e+01	-1.847530e+01
9.896867e+01	-1.852613e+01
9.954031e+01	-1.857478e+01
1.001153e+02	-1.862330e+01
1.006935e+02	-1.867222e+01
1.012751e+02	-1.872268e+01
1.018601e+02	-1.877181e+01
1.024484e+02	-1.882131e+01
1.030402e+02	-1.887143e+01
1.036353e+02	-1.892057e+01
1.042339e+02	-1.897101e+01
1.048360e+02	-1.901925e+01
1.054415e+02	-1.906842e+01
1.060505e+02	-1.911689e+01
1.066631e+02	-1.916712e+01
1.072791e+02	-1.921659e+01
1.078988e+02	-1.926553e+01
1.085220e+02	-1.931635e+01
1.091488e+02	-1.936417e+01
1.097793e+02	-1.941492e+01
1.104133e+02	-1.946340e+01
1.110511e+02	-1.951336e+01
1.116925e+02	-1.956285e+01
1.123376e+02	-1.961249e+01
1.129865e+02	-1.966157e+01
1.136391e+02	-1.971070e+01
1.142955e+02	-1.976059e+01
1.149556e+02	-1.980978e+01
1.156196e+02	-1.985776e+01
1.162874e+02	-1.991100e+01
1.169591e+02	-1.995844e+01
1.176347e+02	-2.000808e+01
1.183141e+02	-2.005754e+01
1.189975e+02	-2.010809e+01
1.196848e+02	-2.015804e+01
1.203761e+02	-2.020660e+01
1.210714e+02	-2.025723e+01
1.217707e+02	-2.030620e+01
1.224740e+02	-2.035433e+01
1.231814e+02	-2.040472e+01
1.238929e+02	-2.045354e+01
1.246085e+02	-2.050346e+01
1.253283e+02	-2.055421e+01
1.260522e+02	-2.060270e+01
1.267802e+02	-2.065183e+01
1.275125e+02	-2.070235e+01
1.282490e+02	-2.075207e+01
1.289898e+02	-2.080334e+01
1.297348e+02	-2.085066e+01
1.304842e+02	-2.090056e+01
1.312378e+02	-2.095081e+01
1.319959e+02	-2.100018e+01
1.327583e+02	-2.105010e+01
1.335251e+02	-2.109961e+01
1.342963e+02	-2.114870e+01
1.350720e+02	-2.119988e+01
1.358522e+02	-2.124920e+01
1.366368e+02	-2.129861e+01
1.374260e+02	-2.134797e+01
1.382198e+02	-2.139906e+01
1.390182e+02	-2.144816e+01
1.398211e+02	-2.149539e+01
1.406287e+02	-2.154394e+01
1.414410e+02	-2.159689e+01
1.422579e+02	-2.164705e+01
1.430796e+02	-2.169395e+01
1.439060e+02	-2.174526e+01
1.447372e+02	-2.179545e+01
1.455732e+02	-2.184377e+01
1.464141e+02	-2.189521e+01
1.472597e+02	-2.194295e+01
1.481103e+02	-2.199290e+01
1.489658e+02	-2.204257e+01
1.498262e+02	-2.209187e+01
1.506916e+02	-2.214273e+01
1.515620e+02	-2.219270e+01
1.524374e+02	-2.224335e+01
1.533179e+02	-2.229204e+01
1.542034e+02	-2.234285e+01
1.550941e+02	-2.239200e+01
1.559899e+02	-2.244182e+01
1.568909e+02	-2.249164e+01
1.577971e+02	-2.254145e+01
1.587085e+02	-2.259119e+01
1.596252e+02	-2.263944e+01
1.605472e+02	-2.268920e+01
1.614745e+02	-2.274005e+01
1.624072e+02	-2.279009e+01
1.633453e+02	-2.283983e+01
1.642887e+02	-2.289149e+01
1.652377e+02	-2.294133e+01
1.661921e+02	-2.299124e+01
1.671520e+02	-2.303867e+01
1.681175e+02	-2.308878e+01
1.690885e+02	-2.313861e+01
1.700651e+02	-2.319006e+01
1.710474e+02	-2.323797e+01
1.720354e+02	-2.328910e+01
1.730291e+02	-2.333732e+01
1.740285e+02	-2.338666e+01
1.750337e+02	-2.343851e+01
1.760446e+02	-2.348691e+01
1.770615e+02	-2.353618e+01
1.780842e+02	-2.358554e+01
1.791128e+02	-2.363635e+01
1.801473e+02	-2.368682e+01
1.811878e+02	-2.373550e+01
1.822344e+02	-2.378727e+01
1.832870e+02	-2.383491e+01
1.843456e+02	-2.388576e+01
1.854104e+02	-2.393592e+01
1.864813e+02	-2.398582e+01
1.875584e+02	-2.403593e+01
1.886418e+02	-2.408426e+01
1.897313e+02	-2.413498e+01
1.908272e+02	-2.418357e+01
1.919294e+02	-2.423723e+01
1.930380e+02	-2.428238e+01
1.941530e+02	-2.433233e+01
1.952744e+02	-2.438295e+01
1.964023e+02	-2.443590e+01
1.975367e+02	-2.448383e+01
1.986777e+02	-2.453672e+01
1.998252e+02	-2.458340e+01
2.009794e+02	-2.463416e+01
2.021403e+02	-2.468344e+01
2.033078e+02	-2.473462e+01
2.044821e+02	-2.478229e+01
2.056632e+02	-2.483102e+01
2.068511e+02	-2.488374e+01
2.080459e+02	-2.493274e+01
2.092475e+02	-2.498479e+01
2.104561e+02	-2.503335e+01
2.116717e+02	-2.508395e+01
2.128943e+02	-2.513049e+01
2.141240e+02	-2.518115e+01
2.153608e+02	-2.523181e+01
2.166047e+02	-2.528350e+01
2.178558e+02	-2.533280e+01
2.191141e+02	-2.538213e+01
2.203797e+02	-2.543492e+01
2.216526e+02	-2.548482e+01
2.229329e+02	-2.553223e+01
2.242205e+02	-2.558274e+01
2.255156e+02	-2.563224e+01
2.268182e+02	-2.568325e+01
2.281283e+02	-2.573119e+01
2.294459e+02	-2.578169e+01
2.307712e+02	-2.583288e+01
2.321041e+02	-2.587936e+01
2.334447e+02	-2.593539e+01
2.347931e+02	-2.598008e+01
2.361493e+02	-2.603073e+01
2.375133e+02	-2.608301e+01
2.388851e+02	-2.613087e+01
2.402649e+02	-2.618355e+01
2.416527e+02	-2.623117e+01
2.430484e+02	-2.628060e+01
2.444523e+02	-2.632920e+01
2.458642e+02	-2.638046e+01
2.472843e+02	-2.643095e+01
2.487126e+02	-2.648064e+01
2.501492e+02	-2.653074e+01
2.515940e+02	-2.658405e+01
2.530472e+02	-2.663022e+01
2.545088e+02	-2.667778e+01
2.559789e+02	-2.673224e+01
2.574574e+02	-2.678355e+01
2.589444e+02	-2.683249e+01
2.604401e+02	-2.687878e+01
2.619444e+02	-2.693306e+01
2.634574e+02	-2.697855e+01
2.649791e+02	-2.702873e+01
2.665096e+02	-2.708006e+01
2.680489e+02	-2.713021e+01
2.695972e+02	-2.718222e+01
2.711544e+02	-2.722757e+01
2.727205e+02	-2.728135e+01
2.742958e+02	-2.733369e+01
2.758801e+02	-2.738222e+01
2.774736e+02	-2.743175e+01
2.790762e+02	-2.748007e+01
2.806882e+02	-2.753281e+01
2.823094e+02	-2.758208e+01
2.839400e+02	-2.763006e+01
2.855800e+02	-2.768072e+01
2.872295e+02	-2.772790e+01
2.888886e+02	-2.778163e+01
2.905572e+02	-2.782903e+01
2.922354e+02	-2.788190e+01
2.939234e+02	-2.792759e+01
2.956211e+02	-2.798167e+01
2.973286e+02	-2.803382e+01
2.990459e+02	-2.808281e+01
3.007732e+02	-2.813006e+01
3.025104e+02	-2.817822e+01
3.042577e+02	-2.822894e+01
3.060151e+02	-2.827876e+01
3.077826e+02	-2.833142e+01
3.095604e+02	-2.838141e+01
3.113484e+02	-2.843348e+01
3.131467e+02	-2.848334e+01
3.149554e+02	-2.853229e+01
3.167746e+02	-2.858019e+01
3.186043e+02	-2.862761e+01
3.204445e+02	-2.868039e+01
3.222954e+02	-2.873085e+01
3.241570e+02	-2.878304e+01
3.260293e+02	-2.883426e+01
3.279124e+02	-2.888290e+01
3.298064e+02	-2.893624e+01
3.317114e+02	-2.898033e+01
3.336273e+02	-2.903404e+01
3.355544e+02	-2.907544e+01
3.374925e+02	-2.912791e+01
3.394418e+02	-2.918302e+01
3.414024e+02	-2.923366e+01
3.433744e+02	-2.928487e+01
3.453577e+02	-2.932759e+01
3.473525e+02	-2.938287e+01
3.493588e+02	-2.942912e+01
3.513766e+02	-2.947954e+01
3.534062e+02	-2.953114e+01
3.554474e+02	-2.958110e+01
3.575005e+02	-2.963230e+01
3.595654e+02	-2.968071e+01
3.616422e+02	-2.972909e+01
3.637311e+02	-2.978648e+01
3.658320e+02	-2.983137e+01
3.679450e+02	-2.987819e+01
3.700702e+02	-2.993297e+01
3.722077e+02	-2.998417e+01
3.743576e+02	-3.003514e+01
3.765199e+02	-3.007933e+01
3.786946e+02	-3.013451e+01
3.808820e+02	-3.018349e+01
3.830819e+02	-3.023416e+01
3.852946e+02	-3.028004e+01
3.875200e+02	-3.032930e+01
3.897583e+02	-3.038874e+01
3.920096e+02	-3.043284e+01
3.942738e+02	-3.048302e+01
3.965511e+02	-3.053323e+01
3.988416e+02	-3.058874e+01
4.011452e+02	-3.063500e+01
4.034622e+02	-3.068505e+01
4.057926e+02	-3.073166e+01
4.081365e+02	-3.078735e+01
4.104938e+02	-3.083287e+01
4.128648e+02	-3.088297e+01
4.152495e+02	-3.093312e+01
4.176480e+02	-3.098191e+01
4.200603e+02	-3.103752e+01
4.224866e+02	-3.108703e+01
4.249268e+02	-3.113228e+01
4.273812e+02	-3.118059e+01
4.298497e+02	-3.123200e+01
4.323325e+02	-3.128641e+01
4.348297e+02	-3.133403e+01
4.373412e+02	-3.138736e+01
4.398673e+02	-3.143562e+01
4.424079e+02	-3.149124e+01
4.449633e+02	-3.153595e+01
4.475334e+02	-3.159224e+01
4.501183e+02	-3.163563e+01
4.527182e+02	-3.169083e+01
4.553330e+02	-3.173948e+01
4.579630e+02	-3.179040e+01
4.606082e+02	-3.183566e+01
4.632687e+02	-3.189371e+01
4.659445e+02	-3.193334e+01
4.686358e+02	-3.198894e+01
4.713426e+02	-3.202995e+01
4.740650e+02	-3.208708e+01
4.768032e+02	-3.213840e+01
4.795572e+02	-3.218706e+01
4.823271e+02	-3.223986e+01
4.851130e+02	-3.228424e+01
4.879150e+02	-3.234043e+01
4.907332e+02	-3.238998e+01
4.935676e+02	-3.243804e+01
4.964185e+02	-3.249046e+01
4.992858e+02	-3.254553e+01
5.021696e+02	-3.258744e+01
5.050701e+02	-3.263582e+01
5.079874e+02	-3.269033e+01
5.109215e+02	-3.274123e+01
5.138726e+02	-3.279569e+01
5.168407e+02	-3.283879e+01
5.198259e+02	-3.288740e+01
5.228284e+02	-3.293865e+01
5.258482e+02	-3.299239e+01
5.288855e+02	-3.304141e+01
5.319403e+02	-3.309755e+01
5.350128e+02	-3.314683e+01
5.381030e+02	-3.319282e+01
5.412111e+02	-3.323986e+01
5.443371e+02	-3.329042e+01
5.474812e+02	-3.334143e+01
5.506434e+02	-3.339351e+01
5.538239e+02	-3.344336e+01
5.570228e+02	-3.349627e+01
5.602401e+02	-3.354196e+01
5.634760e+02	-3.359480e+01
5.667306e+02	-3.365097e+01
5.700040e+02	-3.369924e+01
5.732964e+02	-3.375079e+01
5.766077e+02	-3.379279e+01
5.799382e+02	-3.384135e+01
5.832879e+02	-3.389466e+01
5.866569e+02	-3.394024e+01
5.900454e+02	-3.400642e+01
5.934535e+02	-3.403279e+01
5.968813e+02	-3.409411e+01
6.003288e+02	-3.414816e+01
6.037963e+02	-3.419323e+01
6.072838e+02	-3.423736e+01
6.107914e+02	-3.429338e+01
6.143194e+02	-3.434895e+01
6.178676e+02	-3.440397e+01
6.214364e+02	-3.444182e+01
6.250258e+02	-3.449573e+01
6.286359e+02	-3.455107e+01
6.322669e+02	-3.459961e+01
6.359189e+02	-3.465600e+01
6.395919e+02	-3.469867e+01
6.432862e+02	-3.475180e+01
6.470017e+02	-3.480139e+01
6.507388e+02	-3.484809e+01
6.544974e+02	-3.490824e+01
6.582778e+02	-3.495549e+01
6.620800e+02	-3.500087e+01
6.659041e+02	-3.505218e+01
6.697504e+02	-3.509942e+01
6.736188e+02	-3.514646e+01
6.775096e+02	-3.521205e+01
6.814229e+02	-3.525067e+01
6.853587e+02	-3.529949e+01
6.893173e+02	-3.535689e+01
6.932988e+02	-3.540476e+01
6.973033e+02	-3.545365e+01
7.013309e+02	-3.551121e+01
