Frequency(Hz)	Magnitude(dB)
1.000000e+01	-2.201687e+00
1.005776e+01	-2.221578e+00
1.011585e+01	-2.241607e+00
1.017428e+01	-2.261918e+00
1.023305e+01	-2.282115e+00
1.029215e+01	-2.302671e+00
1.035160e+01	-2.323455e+00
1.041139e+01	-2.344378e+00
1.047153e+01	-2.365155e+00
1.053201e+01	-2.386060e+00
1.059284e+01	-2.407400e+00
1.065403e+01	-2.428673e+00
1.071556e+01	-2.450381e+00
1.077746e+01	-2.471930e+00
1.083971e+01	-2.493711e+00
1.090232e+01	-2.515607e+00
1.096529e+01	-2.537674e+00
1.102862e+01	-2.560011e+00
1.109232e+01	-2.582243e+00
1.115639e+01	-2.604877e+00
1.122083e+01	-2.627616e+00
1.128564e+01	-2.650377e+00
1.135083e+01	-2.673147e+00
1.141639e+01	-2.696315e+00
1.148233e+01	-2.719261e+00
1.154865e+01	-2.742877e+00
1.161536e+01	-2.766146e+00
1.168245e+01	-2.789921e+00
1.174992e+01	-2.813429e+00
1.181779e+01	-2.837439e+00
1.188605e+01	-2.861486e+00
1.195470e+01	-2.885979e+00
1.202375e+01	-2.910278e+00
1.209320e+01	-2.934491e+00
1.216305e+01	-2.959449e+00
1.223330e+01	-2.983874e+00
1.230396e+01	-3.009063e+00
1.237503e+01	-3.034269e+00
1.244651e+01	-3.059172e+00
1.251840e+01	-3.084723e+00
1.259070e+01	-3.110502e+00
1.266343e+01	-3.135801e+00
1.273657e+01	-3.161773e+00
1.281014e+01	-3.187587e+00
1.288413e+01	-3.213823e+00
1.295855e+01	-3.239690e+00
1.303339e+01	-3.266234e+00
1.310867e+01	-3.292708e+00
1.318439e+01	-3.319720e+00
1.326054e+01	-3.346561e+00
1.333713e+01	-3.373256e+00
1.341417e+01	-3.400250e+00
1.349165e+01	-3.427557e+00
1.356958e+01	-3.454960e+00
1.364795e+01	-3.482554e+00
1.372678e+01	-3.510143e+00
1.380607e+01	-3.538095e+00
1.388581e+01	-3.566168e+00
1.396602e+01	-3.593887e+00
1.404668e+01	-3.622211e+00
1.412782e+01	-3.650690e+00
1.420942e+01	-3.679174e+00
1.429149e+01	-3.707894e+00
1.437404e+01	-3.736579e+00
1.445706e+01	-3.765569e+00
1.454057e+01	-3.794278e+00
1.462455e+01	-3.823813e+00
1.470902e+01	-3.853093e+00
1.479398e+01	-3.882812e+00
1.487943e+01	-3.912421e+00
1.496537e+01	-3.942053e+00
1.505181e+01	-3.971872e+00
1.513875e+01	-4.002004e+00
1.522619e+01	-4.032022e+00
1.531414e+01	-4.062560e+00
1.540259e+01	-4.093070e+00
1.549156e+01	-4.123736e+00
1.558103e+01	-4.154239e+00
1.567103e+01	-4.185166e+00
1.576155e+01	-4.216303e+00
1.585258e+01	-4.247392e+00
1.594415e+01	-4.278632e+00
1.603624e+01	-4.310404e+00
1.612886e+01	-4.341660e+00
1.622202e+01	-4.373069e+00
1.631572e+01	-4.405113e+00
1.640996e+01	-4.437098e+00
1.650474e+01	-4.469129e+00
1.660008e+01	-4.501576e+00
1.669596e+01	-4.533411e+00
1.679239e+01	-4.566226e+00
1.688938e+01	-4.598612e+00
1.698694e+01	-4.631549e+00
1.708505e+01	-4.664346e+00
1.718373e+01	-4.697261e+00
1.728299e+01	-4.730760e+00
1.738281e+01	-4.763736e+00
1.748322e+01	-4.797174e+00
1.758420e+01	-4.830645e+00
1.768576e+01	-4.864561e+00
1.778792e+01	-4.898044e+00
1.789066e+01	-4.931864e+00
1.799399e+01	-4.966042e+00
1.809793e+01	-4.999763e+00
1.820246e+01	-5.034309e+00
1.830760e+01	-5.068938e+00
1.841334e+01	-5.103307e+00
1.851969e+01	-5.137969e+00
1.862666e+01	-5.172853e+00
1.873425e+01	-5.207899e+00
1.884246e+01	-5.242549e+00
1.895129e+01	-5.278028e+00
1.906075e+01	-5.312946e+00
1.917085e+01	-5.348459e+00
1.928158e+01	-5.383988e+00
1.939295e+01	-5.419533e+00
1.950496e+01	-5.455390e+00
1.961762e+01	-5.490990e+00
1.973093e+01	-5.527013e+00
1.984490e+01	-5.563348e+00
1.995952e+01	-5.599118e+00
2.007480e+01	-5.635688e+00
2.019076e+01	-5.672443e+00
2.030738e+01	-5.708590e+00
2.042467e+01	-5.744988e+00
2.054264e+01	-5.782000e+00
2.066130e+01	-5.818639e+00
2.078064e+01	-5.855819e+00
2.090066e+01	-5.892920e+00
2.102139e+01	-5.930143e+00
2.114280e+01	-5.967410e+00
2.126492e+01	-6.004890e+00
2.138775e+01	-6.042176e+00
2.151128e+01	-6.079838e+00
2.163553e+01	-6.118082e+00
2.176050e+01	-6.155222e+00
2.188619e+01	-6.193150e+00
2.201260e+01	-6.231280e+00
2.213974e+01	-6.269915e+00
2.226762e+01	-6.307519e+00
2.239624e+01	-6.346325e+00
2.252560e+01	-6.384700e+00
2.265571e+01	-6.423510e+00
2.278656e+01	-6.461877e+00
2.291818e+01	-6.500847e+00
2.305055e+01	-6.540118e+00
2.318369e+01	-6.578530e+00
2.331760e+01	-6.617837e+00
2.345228e+01	-6.656815e+00
2.358774e+01	-6.696106e+00
2.372398e+01	-6.735725e+00
2.386101e+01	-6.774904e+00
2.399883e+01	-6.814497e+00
2.413745e+01	-6.854177e+00
2.427686e+01	-6.893869e+00
2.441709e+01	-6.934463e+00
2.455812e+01	-6.973599e+00
2.469997e+01	-7.013947e+00
2.484263e+01	-7.053850e+00
2.498612e+01	-7.094418e+00
2.513044e+01	-7.134600e+00
2.527559e+01	-7.174845e+00
2.542158e+01	-7.215478e+00
2.556842e+01	-7.256202e+00
2.571610e+01	-7.296579e+00
2.586463e+01	-7.337426e+00
2.601403e+01	-7.378186e+00
2.616428e+01	-7.419160e+00
2.631541e+01	-7.460452e+00
2.646740e+01	-7.501013e+00
2.662028e+01	-7.542294e+00
2.677404e+01	-7.583391e+00
2.692868e+01	-7.624526e+00
2.708422e+01	-7.666565e+00
2.724066e+01	-7.708348e+00
2.739800e+01	-7.749667e+00
2.755625e+01	-7.791189e+00
2.771541e+01	-7.833230e+00
2.787550e+01	-7.874797e+00
2.803650e+01	-7.916485e+00
2.819844e+01	-7.958408e+00
2.836131e+01	-8.000503e+00
2.852513e+01	-8.043127e+00
2.868989e+01	-8.084935e+00
2.885560e+01	-8.127131e+00
2.902227e+01	-8.169798e+00
2.918990e+01	-8.211803e+00
2.935850e+01	-8.254644e+00
2.952807e+01	-8.297683e+00
2.969863e+01	-8.339816e+00
2.987016e+01	-8.382386e+00
3.004269e+01	-8.425255e+00
3.021622e+01	-8.467982e+00
3.039075e+01	-8.511154e+00
3.056628e+01	-8.553712e+00
3.074283e+01	-8.597306e+00
3.092040e+01	-8.640556e+00
3.109900e+01	-8.683633e+00
3.127862e+01	-8.726968e+00
3.145929e+01	-8.770681e+00
3.164099e+01	-8.813407e+00
3.182375e+01	-8.856931e+00
3.200756e+01	-8.900582e+00
3.219244e+01	-8.944251e+00
3.237838e+01	-8.987789e+00
3.256540e+01	-9.031701e+00
3.275349e+01	-9.075334e+00
3.294268e+01	-9.119560e+00
3.313295e+01	-9.163069e+00
3.332433e+01	-9.207259e+00
3.351681e+01	-9.251342e+00
3.371040e+01	-9.295497e+00
3.390511e+01	-9.340030e+00
3.410094e+01	-9.384326e+00
3.429791e+01	-9.428272e+00
3.449601e+01	-9.472674e+00
3.469526e+01	-9.516882e+00
3.489566e+01	-9.561618e+00
3.509721e+01	-9.605669e+00
3.529993e+01	-9.650377e+00
3.550382e+01	-9.695114e+00
3.570889e+01	-9.739712e+00
3.591515e+01	-9.784569e+00
3.612259e+01	-9.829426e+00
3.633123e+01	-9.874107e+00
3.654108e+01	-9.918568e+00
3.675214e+01	-9.964482e+00
3.696442e+01	-1.000938e+01
3.717792e+01	-1.005406e+01
3.739266e+01	-1.009872e+01
3.760864e+01	-1.014438e+01
3.782587e+01	-1.018908e+01
3.804435e+01	-1.023479e+01
3.826409e+01	-1.028017e+01
3.848510e+01	-1.032481e+01
3.870739e+01	-1.037058e+01
3.893096e+01	-1.041650e+01
3.915583e+01	-1.046176e+01
3.938199e+01	-1.050786e+01
3.960946e+01	-1.055279e+01
3.983824e+01	-1.059855e+01
4.006834e+01	-1.064416e+01
4.029978e+01	-1.069024e+01
4.053255e+01	-1.073561e+01
4.076666e+01	-1.078197e+01
4.100213e+01	-1.082748e+01
4.123896e+01	-1.087370e+01
4.147715e+01	-1.091979e+01
4.171672e+01	-1.096553e+01
4.195767e+01	-1.101152e+01
4.220002e+01	-1.105741e+01
4.244377e+01	-1.110339e+01
4.268892e+01	-1.114991e+01
4.293549e+01	-1.119627e+01
4.318348e+01	-1.124229e+01
4.343291e+01	-1.128885e+01
4.368377e+01	-1.133532e+01
4.393609e+01	-1.138106e+01
4.418986e+01	-1.142787e+01
4.444510e+01	-1.147412e+01
4.470182e+01	-1.152087e+01
4.496001e+01	-1.156738e+01
4.521970e+01	-1.161347e+01
4.548089e+01	-1.166038e+01
4.574358e+01	-1.170655e+01
4.600779e+01	-1.175366e+01
4.627353e+01	-1.180028e+01
4.654081e+01	-1.184705e+01
4.680963e+01	-1.189409e+01
4.708000e+01	-1.194092e+01
4.735193e+01	-1.198750e+01
4.762543e+01	-1.203421e+01
4.790051e+01	-1.208133e+01
4.817719e+01	-1.212827e+01
4.845545e+01	-1.217521e+01
4.873533e+01	-1.222223e+01
4.901682e+01	-1.226892e+01
4.929994e+01	-1.231635e+01
4.958470e+01	-1.236383e+01
4.987110e+01	-1.241039e+01
5.015915e+01	-1.245784e+01
5.044887e+01	-1.250456e+01
5.074026e+01	-1.255162e+01
5.103333e+01	-1.259889e+01
5.132810e+01	-1.264653e+01
5.162457e+01	-1.269457e+01
5.192275e+01	-1.274087e+01
5.222265e+01	-1.278933e+01
5.252429e+01	-1.283592e+01
5.282767e+01	-1.288363e+01
5.313280e+01	-1.293076e+01
5.343969e+01	-1.297840e+01
5.374836e+01	-1.302603e+01
5.405880e+01	-1.307416e+01
5.437105e+01	-1.312147e+01
5.468509e+01	-1.316874e+01
5.500095e+01	-1.321630e+01
5.531863e+01	-1.326404e+01
5.563815e+01	-1.331159e+01
5.595951e+01	-1.335937e+01
5.628273e+01	-1.340811e+01
5.660782e+01	-1.345560e+01
5.693479e+01	-1.350258e+01
5.726364e+01	-1.355039e+01
5.759439e+01	-1.359848e+01
5.792705e+01	-1.364575e+01
5.826164e+01	-1.369436e+01
5.859815e+01	-1.374214e+01
5.893662e+01	-1.379106e+01
5.927703e+01	-1.383775e+01
5.961941e+01	-1.388630e+01
5.996377e+01	-1.393426e+01
6.031012e+01	-1.398238e+01
6.065847e+01	-1.403033e+01
6.100883e+01	-1.407873e+01
6.136121e+01	-1.412601e+01
6.171563e+01	-1.417474e+01
6.207210e+01	-1.422262e+01
6.243063e+01	-1.427080e+01
6.279122e+01	-1.431812e+01
6.315390e+01	-1.436761e+01
6.351868e+01	-1.441479e+01
6.388556e+01	-1.446208e+01
6.425456e+01	-1.451185e+01
6.462569e+01	-1.455991e+01
6.499897e+01	-1.460840e+01
6.537440e+01	-1.465615e+01
6.575200e+01	-1.470543e+01
6.613178e+01	-1.475256e+01
6.651375e+01	-1.480109e+01
6.689793e+01	-1.485036e+01
6.728433e+01	-1.489850e+01
6.767297e+01	-1.494681e+01
6.806384e+01	-1.499464e+01
6.845698e+01	-1.504354e+01
6.885238e+01	-1.509197e+01
6.925007e+01	-1.514096e+01
6.965005e+01	-1.518961e+01
7.005235e+01	-1.523811e+01
7.045697e+01	-1.528671e+01
7.086393e+01	-1.533467e+01
7.127323e+01	-1.538335e+01
7.168490e+01	-1.543183e+01
7.209895e+01	-1.547956e+01
7.251539e+01	-1.552887e+01
7.293424e+01	-1.557830e+01
7.335551e+01	-1.562668e+01
7.377920e+01	-1.567502e+01
7.420535e+01	-1.572299e+01
7.463396e+01	-1.577192e+01
7.506504e+01	-1.582149e+01
7.549861e+01	-1.587064e+01
7.593469e+01	-1.591877e+01
7.637328e+01	-1.596777e+01
7.681441e+01	-1.601649e+01
7.725809e+01	-1.606526e+01
7.770433e+01	-1.611360e+01
7.815315e+01	-1.616282e+01
7.860456e+01	-1.621132e+01
7.905857e+01	-1.626057e+01
7.951521e+01	-1.630809e+01
7.997449e+01	-1.635895e+01
8.043642e+01	-1.640630e+01
8.090102e+01	-1.645625e+01
8.136830e+01	-1.650481e+01
8.183828e+01	-1.655327e+01
8.231097e+01	-1.660206e+01
8.278640e+01	-1.665223e+01
8.326457e+01	-1.670042e+01
8.374550e+01	-1.674975e+01
8.422921e+01	-1.679821e+01
8.471572e+01	-1.684747e+01
8.520503e+01	-1.689634e+01
8.569717e+01	-1.694598e+01
8.619215e+01	-1.699431e+01
8.669000e+01	-1.704283e+01
8.719071e+01	-1.709271e+01
8.769432e+01	-1.714220e+01
8.820084e+01	-1.718894e+01
8.871029e+01	-1.723921e+01
8.922267e+01	-1.728887e+01
8.973802e+01	-1.733835e+01
9.025634e+01	-1.738771e+01
9.077766e+01	-1.743523e+01
9.130199e+01	-1.748525e+01
9.182935e+01	-1.753307e+01
9.235975e+01	-1.758331e+01
9.289321e+01	-1.763326e+01
9.342976e+01	-1.768152e+01
9.396941e+01	-1.773054e+01
9.451217e+01	-1.778022e+01
9.505807e+01	-1.783020e+01
9.560712e+01	-1.787693e+01
9.615934e+01	-1.792794e+01
9.671476e+01	-1.797834e+01
9.727338e+01	-1.802594e+01
9.783522e+01	-1.807647e+01
9.840032e+01	-1.812575e+01
9.896867e+01	-1.817473e+01
9.954031e+01	-1.822385e+01
1.001153e+02	-1.827275e+01
1.006935e+02	-1.832214e+01
1.012751e+02	-1.837174e+01
1.018601e+02	-1.842055e+01
1.024484e+02	-1.846980e+01
1.030402e+02	-1.851973e+01
1.036353e+02	-1.856997e+01
1.042339e+02	-1.861795e+01
1.048360e+02	-1.866777e+01
1.054415e+02	-1.871581e+01
1.060505e+02	-1.876582e+01
1.066631e+02	-1.881613e+01
1.072791e+02	-1.886456e+01
1.078988e+02	-1.891534e+01
1.085220e+02	-1.896434e+01
1.091488e+02	-1.901312e+01
1.097793e+02	-1.906101e+01
1.104133e+02	-1.911136e+01
1.110511e+02	-1.916023e+01
1.116925e+02	-1.921008e+01
1.123376e+02	-1.925977e+01
1.129865e+02	-1.930900e+01
1.136391e+02	-1.935835e+01
1.142955e+02	-1.940848e+01
1.149556e+02	-1.945693e+01
1.156196e+02	-1.950604e+01
1.162874e+02	-1.955744e+01
1.169591e+02	-1.960772e+01
1.176347e+02	-1.965539e+01
1.183141e+02	-1.970705e+01
1.189975e+02	-1.975486e+01
1.196848e+02	-1.980469e+01
1.203761e+02	-1.985340e+01
1.210714e+02	-1.990437e+01
1.217707e+02	-1.995437e+01
1.224740e+02	-2.000293e+01
1.231814e+02	-2.005055e+01
1.238929e+02	-2.010142e+01
1.246085e+02	-2.015036e+01
1.253283e+02	-2.020006e+01
1.260522e+02	-2.024965e+01
1.267802e+02	-2.029937e+01
1.275125e+02	-2.034821e+01
1.282490e+02	-2.039883e+01
1.289898e+02	-2.044899e+01
1.297348e+02	-2.049707e+01
1.304842e+02	-2.054750e+01
1.312378e+02	-2.059680e+01
1.319959e+02	-2.064605e+01
1.327583e+02	-2.069704e+01
1.335251e+02	-2.074560e+01
1.342963e+02	-2.079482e+01
1.350720e+02	-2.084411e+01
1.358522e+02	-2.089668e+01
1.366368e+02	-2.094443e+01
1.374260e+02	-2.099384e+01
1.382198e+02	-2.104606e+01
1.390182e+02	-2.109199e+01
1.398211e+02	-2.114525e+01
1.406287e+02	-2.119287e+01
1.414410e+02	-2.124320e+01
1.422579e+02	-2.129233e+01
1.430796e+02	-2.134238e+01
1.439060e+02	-2.139041e+01
1.447372e+02	-2.144138e+01
1.455732e+02	-2.148863e+01
1.464141e+02	-2.154077e+01
1.472597e+02	-2.159128e+01
1.481103e+02	-2.164103e+01
1.489658e+02	-2.168971e+01
1.498262e+02	-2.174127e+01
1.506916e+02	-2.178807e+01
1.515620e+02	-2.183879e+01
1.524374e+02	-2.188744e+01
1.533179e+02	-2.193879e+01
1.542034e+02	-2.198883e+01
1.550941e+02	-2.203724e+01
1.559899e+02	-2.208630e+01
1.568909e+02	-2.213570e+01
1.577971e+02	-2.218647e+01
1.587085e+02	-2.223570e+01
1.596252e+02	-2.228649e+01
1.605472e+02	-2.233788e+01
1.614745e+02	-2.238567e+01
1.624072e+02	-2.243643e+01
1.633453e+02	-2.248724e+01
1.642887e+02	-2.253498e+01
1.652377e+02	-2.258606e+01
1.661921e+02	-2.263389e+01
1.671520e+02	-2.268343e+01
1.681175e+02	-2.273469e+01
1.690885e+02	-2.278467e+01
1.700651e+02	-2.283468e+01
1.710474e+02	-2.288376e+01
1.720354e+02	-2.293506e+01
1.730291e+02	-2.298431e+01
1.740285e+02	-2.303462e+01
1.750337e+02	-2.308472e+01
1.760446e+02	-2.313132e+01
1.770615e+02	-2.318102e+01
1.780842e+02	-2.323498e+01
1.791128e+02	-2.328249e+01
1.801473e+02	-2.333066e+01
1.811878e+02	-2.338274e+01
1.822344e+02	-2.343208e+01
1.832870e+02	-2.348039e+01
1.843456e+02	-2.353118e+01
1.854104e+02	-2.357917e+01
1.864813e+02	-2.362900e+01
1.875584e+02	-2.368166e+01
1.886418e+02	-2.373144e+01
1.897313e+02	-2.377830e+01
1.908272e+02	-2.383037e+01
1.919294e+02	-2.387883e+01
1.930380e+02	-2.392669e+01
1.941530e+02	-2.397962e+01
1.952744e+02	-2.402984e+01
1.964023e+02	-2.407854e+01
1.975367e+02	-2.412895e+01
1.986777e+02	-2.417916e+01
1.998252e+02	-2.422831e+01
2.009794e+02	-2.428095e+01
2.021403e+02	-2.433000e+01
2.033078e+02	-2.437837e+01
2.044821e+02	-2.442996e+01
2.056632e+02	-2.448082e+01
2.068511e+02	-2.452805e+01
2.080459e+02	-2.457885e+01
2.092475e+02	-2.462852e+01
2.104561e+02	-2.467933e+01
2.116717e+02	-2.472517e+01
2.128943e+02	-2.478001e+01
2.141240e+02	-2.482608e+01
2.153608e+02	-2.487599e+01
2.166047e+02	-2.492813e+01
2.178558e+02	-2.497849e+01
2.191141e+02	-2.502827e+01
2.203797e+02	-2.507979e+01
2.216526e+02	-2.512731e+01
2.229329e+02	-2.517747e+01
2.242205e+02	-2.522928e+01
2.255156e+02	-2.527863e+01
2.268182e+02	-2.532725e+01
2.281283e+02	-2.537591e+01
2.294459e+02	-2.542460e+01
2.307712e+02	-2.547832e+01
2.321041e+02	-2.552766e+01
2.334447e+02	-2.557395e+01
2.347931e+02	-2.562453e+01
2.361493e+02	-2.567354e+01
2.375133e+02	-2.572630e+01
2.388851e+02	-2.577652e+01
2.402649e+02	-2.582629e+01
2.416527e+02	-2.587540e+01
2.430484e+02	-2.592275e+01
2.444523e+02	-2.597797e+01
2.458642e+02	-2.602669e+01
2.472843e+02	-2.607634e+01
2.487126e+02	-2.612513e+01
2.501492e+02	-2.617534e+01
2.515940e+02	-2.622469e+01
2.530472e+02	-2.627704e+01
2.545088e+02	-2.632569e+01
2.559789e+02	-2.637399e+01
2.574574e+02	-2.642763e+01
2.589444e+02	-2.647412e+01
2.604401e+02	-2.652786e+01
2.619444e+02	-2.657503e+01
2.634574e+02	-2.662720e+01
2.649791e+02	-2.667472e+01
2.665096e+02	-2.672639e+01
2.680489e+02	-2.677523e+01
2.695972e+02	-2.682676e+01
2.711544e+02	-2.687501e+01
2.727205e+02	-2.692379e+01
2.742958e+02	-2.697618e+01
2.758801e+02	-2.702838e+01
2.774736e+02	-2.707532e+01
2.790762e+02	-2.712891e+01
2.806882e+02	-2.717823e+01
2.823094e+02	-2.722556e+01
2.839400e+02	-2.727739e+01
2.855800e+02	-2.732566e+01
2.872295e+02	-2.737822e+01
2.888886e+02	-2.742412e+01
2.905572e+02	-2.747722e+01
2.922354e+02	-2.752484e+01
2.939234e+02	-2.757327e+01
2.956211e+02	-2.762316e+01
2.973286e+02	-2.768164e+01
2.990459e+02	-2.772418e+01
3.007732e+02	-2.777238e+01
3.025104e+02	-2.782398e+01
3.042577e+02	-2.787645e+01
3.060151e+02	-2.792209e+01
3.077826e+02	-2.797155e+01
3.095604e+02	-2.802316e+01
3.113484e+02	-2.807681e+01
3.131467e+02	-2.812488e+01
3.149554e+02	-2.817268e+01
3.167746e+02	-2.822866e+01
3.186043e+02	-2.827759e+01
3.204445e+02	-2.832804e+01
3.222954e+02	-2.837909e+01
3.241570e+02	-2.842518e+01
3.260293e+02	-2.847454e+01
3.279124e+02	-2.852377e+01
3.298064e+02	-2.857263e+01
3.317114e+02	-2.862948e+01
3.336273e+02	-2.867259e+01
3.355544e+02	-2.872274e+01
3.374925e+02	-2.877719e+01
3.394418e+02	-2.882960e+01
3.414024e+02	-2.887554e+01
3.433744e+02	-2.892929e+01
3.453577e+02	-2.897640e+01
3.473525e+02	-2.903104e+01
3.493588e+02	-2.907275e+01
3.513766e+02	-2.912768e+01
3.534062e+02	-2.917663e+01
3.554474e+02	-2.922445e+01
3.575005e+02	-2.927773e+01
3.595654e+02	-2.932368e+01
3.616422e+02	-2.937709e+01
3.637311e+02	-2.943066e+01
3.658320e+02	-2.947881e+01
3.679450e+02	-2.952193e+01
3.700702e+02	-2.957314e+01
3.722077e+02	-2.962231e+01
3.743576e+02	-2.967877e+01
3.765199e+02	-2.973190e+01
3.786946e+02	-2.977805e+01
3.808820e+02	-2.982540e+01
3.830819e+02	-2.987923e+01
3.852946e+02	-2.992422e+01
3.875200e+02	-2.997481e+01
3.897583e+02	-3.003131e+01
3.920096e+02	-3.007930e+01
3.942738e+02	-3.012771e+01
3.965511e+02	-3.017418e+01
3.988416e+02	-3.022975e+01
4.011452e+02	-3.027738e+01
4.034622e+02	-3.032747e+01
4.057926e+02	-3.038317e+01
4.081365e+02	-3.042608e+01
4.104938e+02	-3.047970e+01
4.128648e+02	-3.053219e+01
4.152495e+02	-3.057375e+01
4.176480e+02	-3.062882e+01
4.200603e+02	-3.068067e+01
4.224866e+02	-3.073216e+01
4.249268e+02	-3.077335e+01
4.273812e+02	-3.082696e+01
4.298497e+02	-3.088518e+01
4.323325e+02	-3.092439e+01
4.348297e+02	-3.097834e+01
4.373412e+02	-3.102901e+01
4.398673e+02	-3.108430e+01
4.424079e+02	-3.112860e+01
4.449633e+02	-3.117846e+01
4.475334e+02	-3.123049e+01
4.501183e+02	-3.128413e+01
4.527182e+02	-3.132708e+01
4.553330e+02	-3.137962e+01
4.579630e+02	-3.143516e+01
4.606082e+02	-3.148110e+01
4.632687e+02	-3.153158e+01
4.659445e+02	-3.158287e+01
4.686358e+02	-3.163530e+01
4.713426e+02	-3.168629e+01
4.740650e+02	-3.173339e+01
4.768032e+02	-3.178524e+01
4.795572e+02	-3.183073e+01
4.823271e+02	-3.188126e+01
4.851130e+02	-3.193195e+01
4.879150e+02	-3.199030e+01
4.907332e+02	-3.203192e+01
4.935676e+02	-3.208108e+01
4.964185e+02	-3.212899e+01
4.992858e+02	-3.218107e+01
5.021696e+02	-3.223545e+01
5.050701e+02	-3.228552e+01
5.079874e+02	-3.233842e+01
5.109215e+02	-3.238765e+01
5.138726e+02	-3.243630e+01
5.168407e+02	-3.248982e+01
5.198259e+02	-3.253359e+01
5.228284e+02	-3.259020e+01
5.258482e+02	-3.263951e+01
5.288855e+02	-3.268888e+01
5.319403e+02	-3.273544e+01
5.350128e+02	-3.278480e+01
5.381030e+02	-3.283819e+01
5.412111e+02	-3.288678e+01
5.443371e+02	-3.293307e+01
5.474812e+02	-3.298848e+01
5.506434e+02	-3.303847e+01
5.538239e+02	-3.308638e+01
5.570228e+02	-3.314000e+01
5.602401e+02	-3.318493e+01
5.634760e+02	-3.324417e+01
5.667306e+02	-3.328830e+01
5.700040e+02	-3.333883e+01
5.732964e+02	-3.338957e+01
5.766077e+02	-3.344083e+01
5.799382e+02	-3.349387e+01
5.832879e+02	-3.354485e+01
5.866569e+02	-3.359690e+01
5.900454e+02	-3.364300e+01
5.934535e+02	-3.368952e+01
5.968813e+02	-3.373953e+01
6.003288e+02	-3.379761e+01
6.037963e+02	-3.383733e+01
6.072838e+02	-3.390003e+01
6.107914e+02	-3.394731e+01
6.143194e+02	-3.398942e+01
6.178676e+02	-3.404915e+01
6.214364e+02	-3.409059e+01
6.250258e+02	-3.414278e+01
6.286359e+02	-3.420040e+01
6.322669e+02	-3.424430e+01
6.359189e+02	-3.429506e+01
6.395919e+02	-3.434330e+01
6.432862e+02	-3.439680e+01
6.470017e+02	-3.443716e+01
6.507388e+02	-3.450674e+01
6.544974e+02	-3.454866e+01
6.582778e+02	-3.460023e+01
6.620800e+02	-3.466124e+01
6.659041e+02	-3.469455e+01
6.697504e+02	-3.474342e+01
6.736188e+02	-3.480460e+01
6.775096e+02	-3.484251e+01
6.814229e+02	-3.490641e+01
6.853587e+02	-3.495393e+01
6.893173e+02	-3.500663e+01
6.932988e+02	-3.506211e+01
6.973033e+02	-3.510630e+01
7.013309e+02	-3.516076e+01
