Frequency(Hz)	Magnitude(dB)
1.000000e+01	-2.360422e+00
1.005776e+01	-2.381156e+00
1.011585e+01	-2.402940e+00
1.017428e+01	-2.424134e+00
1.023305e+01	-2.445503e+00
1.029215e+01	-2.467242e+00
1.035160e+01	-2.488922e+00
1.041139e+01	-2.510914e+00
1.047153e+01	-2.532908e+00
1.053201e+01	-2.555023e+00
1.059284e+01	-2.577267e+00
1.065403e+01	-2.599893e+00
1.071556e+01	-2.622504e+00
1.077746e+01	-2.645077e+00
1.083971e+01	-2.668149e+00
1.090232e+01	-2.690992e+00
1.096529e+01	-2.714263e+00
1.102862e+01	-2.737590e+00
1.109232e+01	-2.761098e+00
1.115639e+01	-2.784860e+00
1.122083e+01	-2.808299e+00
1.128564e+01	-2.832059e+00
1.135083e+01	-2.856150e+00
1.141639e+01	-2.880662e+00
1.148233e+01	-2.904905e+00
1.154865e+01	-2.929357e+00
1.161536e+01	-2.954092e+00
1.168245e+01	-2.978614e+00
1.174992e+01	-3.003450e+00
1.181779e+01	-3.028672e+00
1.188605e+01	-3.054045e+00
1.195470e+01	-3.079049e+00
1.202375e+01	-3.104656e+00
1.209320e+01	-3.130264e+00
1.216305e+01	-3.156172e+00
1.223330e+01	-3.181826e+00
1.230396e+01	-3.207837e+00
1.237503e+01	-3.233904e+00
1.244651e+01	-3.260225e+00
1.251840e+01	-3.286910e+00
1.259070e+01	-3.313749e+00
1.266343e+01	-3.340258e+00
1.273657e+01	-3.367284e+00
1.281014e+01	-3.394365e+00
1.288413e+01	-3.421658e+00
1.295855e+01	-3.448977e+00
1.303339e+01	-3.476202e+00
1.310867e+01	-3.504060e+00
1.318439e+01	-3.531637e+00
1.326054e+01	-3.559882e+00
1.333713e+01	-3.587862e+00
1.341417e+01	-3.615886e+00
1.349165e+01	-3.644368e+00
1.356958e+01	-3.672402e+00
1.364795e+01	-3.701294e+00
1.372678e+01	-3.730060e+00
1.380607e+01	-3.759075e+00
1.388581e+01	-3.788026e+00
1.396602e+01	-3.817073e+00
1.404668e+01	-3.846728e+00
1.412782e+01	-3.876137e+00
1.420942e+01	-3.905561e+00
1.429149e+01	-3.935677e+00
1.437404e+01	-3.965525e+00
1.445706e+01	-3.995183e+00
1.454057e+01	-4.025339e+00
1.462455e+01	-4.056008e+00
1.470902e+01	-4.086148e+00
1.479398e+01	-4.116669e+00
1.487943e+01	-4.147618e+00
1.496537e+01	-4.178607e+00
1.505181e+01	-4.209377e+00
1.513875e+01	-4.240383e+00
1.522619e+01	-4.271782e+00
1.531414e+01	-4.303211e+00
1.540259e+01	-4.334644e+00
1.549156e+01	-4.366215e+00
1.558103e+01	-4.398078e+00
1.567103e+01	-4.430128e+00
1.576155e+01	-4.462091e+00
1.585258e+01	-4.494243e+00
1.594415e+01	-4.526399e+00
1.603624e+01	-4.559105e+00
1.612886e+01	-4.591600e+00
1.622202e+01	-4.624292e+00
1.631572e+01	-4.657124e+00
1.640996e+01	-4.689817e+00
1.650474e+01	-4.723061e+00
1.660008e+01	-4.756578e+00
1.669596e+01	-4.789738e+00
1.679239e+01	-4.823312e+00
1.688938e+01	-4.857089e+00
1.698694e+01	-4.890655e+00
1.708505e+01	-4.924638e+00
1.718373e+01	-4.958374e+00
1.728299e+01	-4.992514e+00
1.738281e+01	-5.026761e+00
1.748322e+01	-5.061056e+00
1.758420e+01	-5.095423e+00
1.768576e+01	-5.130343e+00
1.778792e+01	-5.164903e+00
1.789066e+01	-5.199705e+00
1.799399e+01	-5.234949e+00
1.809793e+01	-5.270202e+00
1.820246e+01	-5.305100e+00
1.830760e+01	-5.340382e+00
1.841334e+01	-5.375969e+00
1.851969e+01	-5.411589e+00
1.862666e+01	-5.447560e+00
1.873425e+01	-5.483024e+00
1.884246e+01	-5.518814e+00
1.895129e+01	-5.555005e+00
1.906075e+01	-5.591074e+00
1.917085e+01	-5.627400e+00
1.928158e+01	-5.663786e+00
1.939295e+01	-5.700466e+00
1.950496e+01	-5.736897e+00
1.961762e+01	-5.773716e+00
1.973093e+01	-5.810519e+00
1.984490e+01	-5.847513e+00
1.995952e+01	-5.884534e+00
2.007480e+01	-5.921925e+00
2.019076e+01	-5.958978e+00
2.030738e+01	-5.996637e+00
2.042467e+01	-6.033937e+00
2.054264e+01	-6.071738e+00
2.066130e+01	-6.109535e+00
2.078064e+01	-6.147096e+00
2.090066e+01	-6.184938e+00
2.102139e+01	-6.222940e+00
2.114280e+01	-6.261182e+00
2.126492e+01	-6.299597e+00
2.138775e+01	-6.337719e+00
2.151128e+01	-6.376163e+00
2.163553e+01	-6.414809e+00
2.176050e+01	-6.453374e+00
2.188619e+01	-6.491889e+00
2.201260e+01	-6.531141e+00
2.213974e+01	-6.570197e+00
2.226762e+01	-6.609048e+00
2.239624e+01	-6.648096e+00
2.252560e+01	-6.687663e+00
2.265571e+01	-6.726510e+00
2.278656e+01	-6.766201e+00
2.291818e+01	-6.806048e+00
2.305055e+01	-6.845715e+00
2.318369e+01	-6.884876e+00
2.331760e+01	-6.924874e+00
2.345228e+01	-6.964780e+00
2.358774e+01	-7.004716e+00
2.372398e+01	-7.044910e+00
2.386101e+01	-7.084880e+00
2.399883e+01	-7.125669e+00
2.413745e+01	-7.165836e+00
2.427686e+01	-7.206254e+00
2.441709e+01	-7.246820e+00
2.455812e+01	-7.287096e+00
2.469997e+01	-7.328071e+00
2.484263e+01	-7.368937e+00
2.498612e+01	-7.410129e+00
2.513044e+01	-7.451042e+00
2.527559e+01	-7.492158e+00
2.542158e+01	-7.532943e+00
2.556842e+01	-7.574119e+00
2.571610e+01	-7.616078e+00
2.586463e+01	-7.657476e+00
2.601403e+01	-7.698467e+00
2.616428e+01	-7.740431e+00
2.631541e+01	-7.781733e+00
2.646740e+01	-7.823560e+00
2.662028e+01	-7.865328e+00
2.677404e+01	-7.907312e+00
2.692868e+01	-7.949410e+00
2.708422e+01	-7.991286e+00
2.724066e+01	-8.033245e+00
2.739800e+01	-8.075947e+00
2.755625e+01	-8.117985e+00
2.771541e+01	-8.160283e+00
2.787550e+01	-8.202613e+00
2.803650e+01	-8.245189e+00
2.819844e+01	-8.287505e+00
2.836131e+01	-8.330542e+00
2.852513e+01	-8.373179e+00
2.868989e+01	-8.415483e+00
2.885560e+01	-8.458969e+00
2.902227e+01	-8.501698e+00
2.918990e+01	-8.544982e+00
2.935850e+01	-8.587405e+00
2.952807e+01	-8.630582e+00
2.969863e+01	-8.674100e+00
2.987016e+01	-8.717168e+00
3.004269e+01	-8.760438e+00
3.021622e+01	-8.804353e+00
3.039075e+01	-8.847709e+00
3.056628e+01	-8.891079e+00
3.074283e+01	-8.934617e+00
3.092040e+01	-8.978949e+00
3.109900e+01	-9.021970e+00
3.127862e+01	-9.066303e+00
3.145929e+01	-9.109733e+00
3.164099e+01	-9.153727e+00
3.182375e+01	-9.197630e+00
3.200756e+01	-9.241344e+00
3.219244e+01	-9.285671e+00
3.237838e+01	-9.329872e+00
3.256540e+01	-9.373660e+00
3.275349e+01	-9.418788e+00
3.294268e+01	-9.462644e+00
3.313295e+01	-9.507065e+00
3.332433e+01	-9.551389e+00
3.351681e+01	-9.596584e+00
3.371040e+01	-9.640737e+00
3.390511e+01	-9.685412e+00
3.410094e+01	-9.729838e+00
3.429791e+01	-9.774551e+00
3.449601e+01	-9.819792e+00
3.469526e+01	-9.864297e+00
3.489566e+01	-9.909645e+00
3.509721e+01	-9.954025e+00
3.529993e+01	-9.999020e+00
3.550382e+01	-1.004378e+01
3.570889e+01	-1.008885e+01
3.591515e+01	-1.013423e+01
3.612259e+01	-1.017949e+01
3.633123e+01	-1.022522e+01
3.654108e+01	-1.027027e+01
3.675214e+01	-1.031539e+01
3.696442e+01	-1.036101e+01
3.717792e+01	-1.040610e+01
3.739266e+01	-1.045186e+01
3.760864e+01	-1.049745e+01
3.782587e+01	-1.054297e+01
3.804435e+01	-1.058870e+01
3.826409e+01	-1.063440e+01
3.848510e+01	-1.068015e+01
3.870739e+01	-1.072590e+01
3.893096e+01	-1.077144e+01
3.915583e+01	-1.081694e+01
3.938199e+01	-1.086313e+01
3.960946e+01	-1.090897e+01
3.983824e+01	-1.095521e+01
4.006834e+01	-1.100115e+01
4.029978e+01	-1.104742e+01
4.053255e+01	-1.109347e+01
4.076666e+01	-1.114009e+01
4.100213e+01	-1.118576e+01
4.123896e+01	-1.123215e+01
4.147715e+01	-1.127780e+01
4.171672e+01	-1.132447e+01
4.195767e+01	-1.137097e+01
4.220002e+01	-1.141815e+01
4.244377e+01	-1.146359e+01
4.268892e+01	-1.151037e+01
4.293549e+01	-1.155674e+01
4.318348e+01	-1.160278e+01
4.343291e+01	-1.164938e+01
4.368377e+01	-1.169696e+01
4.393609e+01	-1.174365e+01
4.418986e+01	-1.179044e+01
4.444510e+01	-1.183710e+01
4.470182e+01	-1.188356e+01
4.496001e+01	-1.193018e+01
4.521970e+01	-1.197681e+01
4.548089e+01	-1.202452e+01
4.574358e+01	-1.207134e+01
4.600779e+01	-1.211652e+01
4.627353e+01	-1.216533e+01
4.654081e+01	-1.221204e+01
4.680963e+01	-1.225880e+01
4.708000e+01	-1.230606e+01
4.735193e+01	-1.235290e+01
4.762543e+01	-1.240049e+01
4.790051e+01	-1.244776e+01
4.817719e+01	-1.249495e+01
4.845545e+01	-1.254174e+01
4.873533e+01	-1.258928e+01
4.901682e+01	-1.263646e+01
4.929994e+01	-1.268374e+01
4.958470e+01	-1.273125e+01
4.987110e+01	-1.277844e+01
5.015915e+01	-1.282587e+01
5.044887e+01	-1.287309e+01
5.074026e+01	-1.292040e+01
5.103333e+01	-1.296812e+01
5.132810e+01	-1.301527e+01
5.162457e+01	-1.306327e+01
5.192275e+01	-1.311066e+01
5.222265e+01	-1.315926e+01
5.252429e+01	-1.320601e+01
5.282767e+01	-1.325424e+01
5.313280e+01	-1.330126e+01
5.343969e+01	-1.334878e+01
5.374836e+01	-1.339667e+01
5.405880e+01	-1.344459e+01
5.437105e+01	-1.349210e+01
5.468509e+01	-1.354010e+01
5.500095e+01	-1.358711e+01
5.531863e+01	-1.363613e+01
5.563815e+01	-1.368349e+01
5.595951e+01	-1.373130e+01
5.628273e+01	-1.377944e+01
5.660782e+01	-1.382697e+01
5.693479e+01	-1.387538e+01
5.726364e+01	-1.392312e+01
5.759439e+01	-1.397134e+01
5.792705e+01	-1.401859e+01
5.826164e+01	-1.406761e+01
5.859815e+01	-1.411458e+01
5.893662e+01	-1.416379e+01
5.927703e+01	-1.421174e+01
5.961941e+01	-1.426071e+01
5.996377e+01	-1.430757e+01
6.031012e+01	-1.435562e+01
6.065847e+01	-1.440383e+01
6.100883e+01	-1.445270e+01
6.136121e+01	-1.450163e+01
6.171563e+01	-1.454935e+01
6.207210e+01	-1.459729e+01
6.243063e+01	-1.464539e+01
6.279122e+01	-1.469381e+01
6.315390e+01	-1.474323e+01
6.351868e+01	-1.479091e+01
6.388556e+01	-1.483906e+01
6.425456e+01	-1.488820e+01
6.462569e+01	-1.493559e+01
6.499897e+01	-1.498465e+01
6.537440e+01	-1.503194e+01
6.575200e+01	-1.508187e+01
6.613178e+01	-1.513009e+01
6.651375e+01	-1.517828e+01
6.689793e+01	-1.522678e+01
6.728433e+01	-1.527605e+01
6.767297e+01	-1.532409e+01
6.806384e+01	-1.537186e+01
6.845698e+01	-1.542081e+01
6.885238e+01	-1.547005e+01
6.925007e+01	-1.551812e+01
6.965005e+01	-1.556741e+01
7.005235e+01	-1.561499e+01
7.045697e+01	-1.566419e+01
7.086393e+01	-1.571374e+01
7.127323e+01	-1.576191e+01
7.168490e+01	-1.580978e+01
7.209895e+01	-1.585900e+01
7.251539e+01	-1.590700e+01
7.293424e+01	-1.595638e+01
7.335551e+01	-1.600583e+01
7.377920e+01	-1.605440e+01
7.420535e+01	-1.610340e+01
7.463396e+01	-1.615257e+01
7.506504e+01	-1.620111e+01
7.549861e+01	-1.624888e+01
7.593469e+01	-1.629911e+01
7.637328e+01	-1.634660e+01
7.681441e+01	-1.639676e+01
7.725809e+01	-1.644358e+01
7.770433e+01	-1.649304e+01
7.815315e+01	-1.654317e+01
7.860456e+01	-1.659109e+01
7.905857e+01	-1.664019e+01
7.951521e+01	-1.668859e+01
7.997449e+01	-1.673852e+01
8.043642e+01	-1.678785e+01
8.090102e+01	-1.683535e+01
8.136830e+01	-1.688427e+01
8.183828e+01	-1.693394e+01
8.231097e+01	-1.698396e+01
8.278640e+01	-1.703219e+01
8.326457e+01	-1.708256e+01
8.374550e+01	-1.713030e+01
8.422921e+01	-1.718023e+01
8.471572e+01	-1.722868e+01
8.520503e+01	-1.727816e+01
8.569717e+01	-1.732590e+01
8.619215e+01	-1.737549e+01
8.669000e+01	-1.742485e+01
8.719071e+01	-1.747358e+01
8.769432e+01	-1.752322e+01
8.820084e+01	-1.757250e+01
8.871029e+01	-1.762137e+01
8.922267e+01	-1.767002e+01
8.973802e+01	-1.771977e+01
9.025634e+01	-1.776949e+01
9.077766e+01	-1.781799e+01
9.130199e+01	-1.786660e+01
9.182935e+01	-1.791689e+01
9.235975e+01	-1.796530e+01
9.289321e+01	-1.801658e+01
9.342976e+01	-1.806303e+01
9.396941e+01	-1.811393e+01
9.451217e+01	-1.816290e+01
9.505807e+01	-1.821080e+01
9.560712e+01	-1.826246e+01
9.615934e+01	-1.831024e+01
9.671476e+01	-1.835874e+01
9.727338e+01	-1.840868e+01
9.783522e+01	-1.845826e+01
9.840032e+01	-1.850833e+01
9.896867e+01	-1.855619e+01
9.954031e+01	-1.860695e+01
1.001153e+02	-1.865543e+01
1.006935e+02	-1.870594e+01
1.012751e+02	-1.875527e+01
1.018601e+02	-1.880371e+01
1.024484e+02	-1.885437e+01
1.030402e+02	-1.890240e+01
1.036353e+02	-1.895267e+01
1.042339e+02	-1.900142e+01
1.048360e+02	-1.905113e+01
1.054415e+02	-1.910010e+01
1.060505e+02	-1.914874e+01
1.066631e+02	-1.920016e+01
1.072791e+02	-1.924948e+01
1.078988e+02	-1.930004e+01
1.085220e+02	-1.934836e+01
1.091488e+02	-1.939856e+01
1.097793e+02	-1.944746e+01
1.104133e+02	-1.949465e+01
1.110511e+02	-1.954572e+01
1.116925e+02	-1.959379e+01
1.123376e+02	-1.964578e+01
1.129865e+02	-1.969447e+01
1.136391e+02	-1.974528e+01
1.142955e+02	-1.979275e+01
1.149556e+02	-1.984238e+01
1.156196e+02	-1.989152e+01
1.162874e+02	-1.994064e+01
1.169591e+02	-1.999153e+01
1.176347e+02	-2.004072e+01
1.183141e+02	-2.008925e+01
1.189975e+02	-2.013842e+01
1.196848e+02	-2.018951e+01
1.203761e+02	-2.024004e+01
1.210714e+02	-2.028779e+01
1.217707e+02	-2.033747e+01
1.224740e+02	-2.038761e+01
1.231814e+02	-2.043760e+01
1.238929e+02	-2.048657e+01
1.246085e+02	-2.053736e+01
1.253283e+02	-2.058552e+01
1.260522e+02	-2.063633e+01
1.267802e+02	-2.068560e+01
1.275125e+02	-2.073482e+01
1.282490e+02	-2.078570e+01
1.289898e+02	-2.083303e+01
1.297348e+02	-2.088448e+01
1.304842e+02	-2.093470e+01
1.312378e+02	-2.098363e+01
1.319959e+02	-2.103301e+01
1.327583e+02	-2.108327e+01
1.335251e+02	-2.113205e+01
1.342963e+02	-2.118127e+01
1.350720e+02	-2.123052e+01
1.358522e+02	-2.127954e+01
1.366368e+02	-2.132924e+01
1.374260e+02	-2.137743e+01
1.382198e+02	-2.143157e+01
1.390182e+02	-2.147996e+01
1.398211e+02	-2.152969e+01
1.406287e+02	-2.158002e+01
1.414410e+02	-2.162912e+01
1.422579e+02	-2.167819e+01
1.430796e+02	-2.172684e+01
1.439060e+02	-2.177737e+01
1.447372e+02	-2.182859e+01
1.455732e+02	-2.187841e+01
1.464141e+02	-2.192692e+01
1.472597e+02	-2.197739e+01
1.481103e+02	-2.202798e+01
1.489658e+02	-2.207704e+01
1.498262e+02	-2.212767e+01
1.506916e+02	-2.217584e+01
1.515620e+02	-2.222613e+01
1.524374e+02	-2.227612e+01
1.533179e+02	-2.232563e+01
1.542034e+02	-2.237494e+01
1.550941e+02	-2.242587e+01
1.559899e+02	-2.247506e+01
1.568909e+02	-2.252401e+01
1.577971e+02	-2.257310e+01
1.587085e+02	-2.262336e+01
1.596252e+02	-2.267194e+01
1.605472e+02	-2.272423e+01
1.614745e+02	-2.277306e+01
1.624072e+02	-2.282114e+01
1.633453e+02	-2.287445e+01
1.642887e+02	-2.292378e+01
1.652377e+02	-2.297097e+01
1.661921e+02	-2.302295e+01
1.671520e+02	-2.307236e+01
1.681175e+02	-2.312085e+01
1.690885e+02	-2.317251e+01
1.700651e+02	-2.322200e+01
1.710474e+02	-2.326942e+01
1.720354e+02	-2.332016e+01
1.730291e+02	-2.337037e+01
1.740285e+02	-2.342085e+01
1.750337e+02	-2.347059e+01
1.760446e+02	-2.352046e+01
1.770615e+02	-2.357073e+01
1.780842e+02	-2.362036e+01
1.791128e+02	-2.366812e+01
1.801473e+02	-2.371911e+01
1.811878e+02	-2.376715e+01
1.822344e+02	-2.382002e+01
1.832870e+02	-2.386823e+01
1.843456e+02	-2.391912e+01
1.854104e+02	-2.396833e+01
1.864813e+02	-2.401629e+01
1.875584e+02	-2.407073e+01
1.886418e+02	-2.411795e+01
1.897313e+02	-2.416639e+01
1.908272e+02	-2.421834e+01
1.919294e+02	-2.426875e+01
1.930380e+02	-2.431885e+01
1.941530e+02	-2.436721e+01
1.952744e+02	-2.441916e+01
1.964023e+02	-2.446807e+01
1.975367e+02	-2.451682e+01
1.986777e+02	-2.456549e+01
1.998252e+02	-2.461501e+01
2.009794e+02	-2.466840e+01
2.021403e+02	-2.471564e+01
2.033078e+02	-2.476718e+01
2.044821e+02	-2.481980e+01
2.056632e+02	-2.486620e+01
2.068511e+02	-2.491888e+01
2.080459e+02	-2.496419e+01
2.092475e+02	-2.501512e+01
2.104561e+02	-2.506571e+01
2.116717e+02	-2.511627e+01
2.128943e+02	-2.516222e+01
2.141240e+02	-2.521393e+01
2.153608e+02	-2.526321e+01
2.166047e+02	-2.531487e+01
2.178558e+02	-2.536433e+01
2.191141e+02	-2.541576e+01
2.203797e+02	-2.546584e+01
2.216526e+02	-2.551307e+01
2.229329e+02	-2.556402e+01
2.242205e+02	-2.561680e+01
2.255156e+02	-2.566516e+01
2.268182e+02	-2.571744e+01
2.281283e+02	-2.576711e+01
2.294459e+02	-2.581251e+01
2.307712e+02	-2.586384e+01
2.321041e+02	-2.591341e+01
2.334447e+02	-2.596406e+01
2.347931e+02	-2.601573e+01
2.361493e+02	-2.606491e+01
2.375133e+02	-2.611158e+01
2.388851e+02	-2.616305e+01
2.402649e+02	-2.621319e+01
2.416527e+02	-2.626094e+01
2.430484e+02	-2.631245e+01
2.444523e+02	-2.635984e+01
2.458642e+02	-2.641742e+01
2.472843e+02	-2.646694e+01
2.487126e+02	-2.651712e+01
2.501492e+02	-2.655969e+01
2.515940e+02	-2.661334e+01
2.530472e+02	-2.666558e+01
2.545088e+02	-2.671174e+01
2.559789e+02	-2.676380e+01
2.574574e+02	-2.681651e+01
2.589444e+02	-2.686116e+01
2.604401e+02	-2.691382e+01
2.619444e+02	-2.696489e+01
2.634574e+02	-2.701237e+01
2.649791e+02	-2.706172e+01
2.665096e+02	-2.711194e+01
2.680489e+02	-2.716634e+01
2.695972e+02	-2.721131e+01
2.711544e+02	-2.726074e+01
2.727205e+02	-2.731387e+01
2.742958e+02	-2.736610e+01
2.758801e+02	-2.741146e+01
2.774736e+02	-2.746372e+01
2.790762e+02	-2.751175e+01
2.806882e+02	-2.756266e+01
2.823094e+02	-2.761921e+01
2.839400e+02	-2.766254e+01
2.855800e+02	-2.771201e+01
2.872295e+02	-2.776733e+01
2.888886e+02	-2.781218e+01
2.905572e+02	-2.786298e+01
2.922354e+02	-2.791650e+01
2.939234e+02	-2.796537e+01
2.956211e+02	-2.801264e+01
2.973286e+02	-2.806363e+01
2.990459e+02	-2.811395e+01
3.007732e+02	-2.816168e+01
3.025104e+02	-2.820949e+01
3.042577e+02	-2.826212e+01
3.060151e+02	-2.831384e+01
3.077826e+02	-2.836248e+01
3.095604e+02	-2.841217e+01
3.113484e+02	-2.846328e+01
3.131467e+02	-2.851673e+01
3.149554e+02	-2.855717e+01
3.167746e+02	-2.861315e+01
3.186043e+02	-2.866259e+01
3.204445e+02	-2.871586e+01
3.222954e+02	-2.876947e+01
3.241570e+02	-2.881498e+01
3.260293e+02	-2.886502e+01
3.279124e+02	-2.891619e+01
3.298064e+02	-2.896685e+01
3.317114e+02	-2.901314e+01
3.336273e+02	-2.906232e+01
3.355544e+02	-2.911569e+01
3.374925e+02	-2.916384e+01
3.394418e+02	-2.921543e+01
3.414024e+02	-2.926334e+01
3.433744e+02	-2.931512e+01
3.453577e+02	-2.936436e+01
3.473525e+02	-2.941757e+01
3.493588e+02	-2.946727e+01
3.513766e+02	-2.951878e+01
3.534062e+02	-2.956524e+01
3.554474e+02	-2.961745e+01
3.575005e+02	-2.966807e+01
3.595654e+02	-2.972061e+01
3.616422e+02	-2.976329e+01
3.637311e+02	-2.981875e+01
3.658320e+02	-2.986428e+01
3.679450e+02	-2.992209e+01
3.700702e+02	-2.996371e+01
3.722077e+02	-3.001518e+01
3.743576e+02	-3.006414e+01
3.765199e+02	-3.011663e+01
3.786946e+02	-3.016512e+01
3.808820e+02	-3.021945e+01
3.830819e+02	-3.026989e+01
3.852946e+02	-3.031429e+01
3.875200e+02	-3.037269e+01
3.897583e+02	-3.041921e+01
3.920096e+02	-3.046873e+01
3.942738e+02	-3.051935e+01
3.965511e+02	-3.056818e+01
3.988416e+02	-3.061438e+01
4.011452e+02	-3.066979e+01
4.034622e+02	-3.071425e+01
4.057926e+02	-3.076682e+01
4.081365e+02	-3.081669e+01
4.104938e+02	-3.087517e+01
4.128648e+02	-3.091652e+01
4.152495e+02	-3.097088e+01
4.176480e+02	-3.102333e+01
4.200603e+02	-3.106402e+01
4.224866e+02	-3.111440e+01
4.249268e+02	-3.116758e+01
4.273812e+02	-3.121746e+01
4.298497e+02	-3.127033e+01
4.323325e+02	-3.132284e+01
4.348297e+02	-3.136848e+01
4.373412e+02	-3.141665e+01
4.398673e+02	-3.147034e+01
4.424079e+02	-3.151995e+01
4.449633e+02	-3.156933e+01
4.475334e+02	-3.161530e+01
4.501183e+02	-3.167326e+01
4.527182e+02	-3.172152e+01
4.553330e+02	-3.176834e+01
4.579630e+02	-3.182349e+01
4.606082e+02	-3.187377e+01
4.632687e+02	-3.191715e+01
4.659445e+02	-3.197296e+01
4.686358e+02	-3.202116e+01
4.713426e+02	-3.207966e+01
4.740650e+02	-3.212196e+01
4.768032e+02	-3.216653e+01
4.795572e+02	-3.222193e+01
4.823271e+02	-3.227198e+01
4.851130e+02	-3.232347e+01
4.879150e+02	-3.237303e+01
4.907332e+02	-3.241985e+01
4.935676e+02	-3.247556e+01
4.964185e+02	-3.252455e+01
4.992858e+02	-3.257594e+01
5.021696e+02	-3.262063e+01
5.050701e+02	-3.267096e+01
5.079874e+02	-3.272829e+01
5.109215e+02	-3.277523e+01
5.138726e+02	-3.282042e+01
5.168407e+02	-3.287945e+01
5.198259e+02	-3.292908e+01
5.228284e+02	-3.297303e+01
5.258482e+02	-3.302545e+01
5.288855e+02	-3.307456e+01
5.319403e+02	-3.313054e+01
5.350128e+02	-3.316904e+01
5.381030e+02	-3.323118e+01
5.412111e+02	-3.327321e+01
5.443371e+02	-3.332477e+01
5.474812e+02	-3.336776e+01
5.506434e+02	-3.343096e+01
5.538239e+02	-3.347676e+01
5.570228e+02	-3.352927e+01
5.602401e+02	-3.357384e+01
5.634760e+02	-3.363617e+01
5.667306e+02	-3.367834e+01
5.700040e+02	-3.372857e+01
5.732964e+02	-3.377876e+01
5.766077e+02	-3.382610e+01
5.799382e+02	-3.387502e+01
5.832879e+02	-3.392462e+01
5.866569e+02	-3.398536e+01
5.900454e+02	-3.403034e+01
5.934535e+02	-3.408092e+01
5.968813e+02	-3.413350e+01
6.003288e+02	-3.417726e+01
6.037963e+02	-3.423501e+01
6.072838e+02	-3.427157e+01
6.107914e+02	-3.432622e+01
6.143194e+02	-3.438192e+01
6.178676e+02	-3.443404e+01
6.214364e+02	-3.448172e+01
6.250258e+02	-3.453223e+01
6.286359e+02	-3.458202e+01
6.322669e+02	-3.463344e+01
6.359189e+02	-3.467314e+01
6.395919e+02	-3.473282e+01
6.432862e+02	-3.478529e+01
6.470017e+02	-3.483291e+01
6.507388e+02	-3.488855e+01
6.544974e+02	-3.493877e+01
6.582778e+02	-3.498514e+01
6.620800e+02	-3.503957e+01
6.659041e+02	-3.508621e+01
6.697504e+02	-3.513144e+01
6.736188e+02	-3.519275e+01
6.775096e+02	-3.523570e+01
6.814229e+02	-3.529323e+01
6.853587e+02	-3.534164e+01
6.893173e+02	-3.539793e+01
6.932988e+02	-3.544012e+01
6.973033e+02	-3.549178e+01
7.013309e+02	-3.553976e+01
