Frequency(Hz)	Magnitude(dB)
1.000000e+01	-1.771694e-05
1.005776e+01	-1.792220e-05
1.011585e+01	-1.812983e-05
1.017428e+01	-1.833987e-05
1.023305e+01	-1.855234e-05
1.029215e+01	-1.876728e-05
1.035160e+01	-1.898470e-05
1.041139e+01	-1.920464e-05
1.047153e+01	-1.942713e-05
1.053201e+01	-1.965220e-05
1.059284e+01	-1.987988e-05
1.065403e+01	-2.011019e-05
1.071556e+01	-2.034317e-05
1.077746e+01	-2.057885e-05
1.083971e+01	-2.081726e-05
1.090232e+01	-2.105844e-05
1.096529e+01	-2.130240e-05
1.102862e+01	-2.154920e-05
1.109232e+01	-2.179885e-05
1.115639e+01	-2.205140e-05
1.122083e+01	-2.230687e-05
1.128564e+01	-2.256530e-05
1.135083e+01	-2.282672e-05
1.141639e+01	-2.309118e-05
1.148233e+01	-2.335869e-05
1.154865e+01	-2.362931e-05
1.161536e+01	-2.390306e-05
1.168245e+01	-2.417998e-05
1.174992e+01	-2.446011e-05
1.181779e+01	-2.474349e-05
1.188605e+01	-2.503015e-05
1.195470e+01	-2.532013e-05
1.202375e+01	-2.561347e-05
1.209320e+01	-2.591021e-05
1.216305e+01	-2.621039e-05
1.223330e+01	-2.651404e-05
1.230396e+01	-2.682121e-05
1.237503e+01	-2.713194e-05
1.244651e+01	-2.744627e-05
1.251840e+01	-2.776424e-05
1.259070e+01	-2.808590e-05
1.266343e+01	-2.841128e-05
1.273657e+01	-2.874043e-05
1.281014e+01	-2.907340e-05
1.288413e+01	-2.941022e-05
1.295855e+01	-2.975094e-05
1.303339e+01	-3.009561e-05
1.310867e+01	-3.044428e-05
1.318439e+01	-3.079698e-05
1.326054e+01	-3.115377e-05
1.333713e+01	-3.151470e-05
1.341417e+01	-3.187980e-05
1.349165e+01	-3.224914e-05
1.356958e+01	-3.262275e-05
1.364795e+01	-3.300069e-05
1.372678e+01	-3.338302e-05
1.380607e+01	-3.376977e-05
1.388581e+01	-3.416100e-05
1.396602e+01	-3.455676e-05
1.404668e+01	-3.495711e-05
1.412782e+01	-3.536209e-05
1.420942e+01	-3.577177e-05
1.429149e+01	-3.618620e-05
1.437404e+01	-3.660542e-05
1.445706e+01	-3.702950e-05
1.454057e+01	-3.745850e-05
1.462455e+01	-3.789246e-05
1.470902e+01	-3.833146e-05
1.479398e+01	-3.877554e-05
1.487943e+01	-3.922476e-05
1.496537e+01	-3.967919e-05
1.505181e+01	-4.013888e-05
1.513875e+01	-4.060390e-05
1.522619e+01	-4.107430e-05
1.531414e+01	-4.155016e-05
1.540259e+01	-4.203153e-05
1.549156e+01	-4.251847e-05
1.558103e+01	-4.301106e-05
1.567103e+01	-4.350935e-05
1.576155e+01	-4.401341e-05
1.585258e+01	-4.452332e-05
1.594415e+01	-4.503913e-05
1.603624e+01	-4.556092e-05
1.612886e+01	-4.608875e-05
1.622202e+01	-4.662270e-05
1.631572e+01	-4.716284e-05
1.640996e+01	-4.770923e-05
1.650474e+01	-4.826195e-05
1.660008e+01	-4.882107e-05
1.669596e+01	-4.938668e-05
1.679239e+01	-4.995883e-05
1.688938e+01	-5.053762e-05
1.698694e+01	-5.112310e-05
1.708505e+01	-5.171538e-05
1.718373e+01	-5.231451e-05
1.728299e+01	-5.292058e-05
1.738281e+01	-5.353368e-05
1.748322e+01	-5.415388e-05
1.758420e+01	-5.478126e-05
1.768576e+01	-5.541592e-05
1.778792e+01	-5.605792e-05
1.789066e+01	-5.670736e-05
1.799399e+01	-5.736433e-05
1.809793e+01	-5.802891e-05
1.820246e+01	-5.870118e-05
1.830760e+01	-5.938125e-05
1.841334e+01	-6.006919e-05
1.851969e+01	-6.076510e-05
1.862666e+01	-6.146908e-05
1.873425e+01	-6.218121e-05
1.884246e+01	-6.290159e-05
1.895129e+01	-6.363032e-05
1.906075e+01	-6.436749e-05
1.917085e+01	-6.511320e-05
1.928158e+01	-6.586755e-05
1.939295e+01	-6.663064e-05
1.950496e+01	-6.740257e-05
1.961762e+01	-6.818344e-05
1.973093e+01	-6.897336e-05
1.984490e+01	-6.977242e-05
1.995952e+01	-7.058075e-05
2.007480e+01	-7.139844e-05
2.019076e+01	-7.222561e-05
2.030738e+01	-7.306235e-05
2.042467e+01	-7.390879e-05
2.054264e+01	-7.476504e-05
2.066130e+01	-7.563121e-05
2.078064e+01	-7.650741e-05
2.090066e+01	-7.739376e-05
2.102139e+01	-7.829038e-05
2.114280e+01	-7.919739e-05
2.126492e+01	-8.011490e-05
2.138775e+01	-8.104305e-05
2.151128e+01	-8.198194e-05
2.163553e+01	-8.293172e-05
2.176050e+01	-8.389250e-05
2.188619e+01	-8.486441e-05
2.201260e+01	-8.584757e-05
2.213974e+01	-8.684213e-05
2.226762e+01	-8.784821e-05
2.239624e+01	-8.886595e-05
2.252560e+01	-8.989547e-05
2.265571e+01	-9.093693e-05
2.278656e+01	-9.199045e-05
2.291818e+01	-9.305617e-05
2.305055e+01	-9.413424e-05
2.318369e+01	-9.522480e-05
2.331760e+01	-9.632799e-05
2.345228e+01	-9.744397e-05
2.358774e+01	-9.857287e-05
2.372398e+01	-9.971485e-05
2.386101e+01	-1.008701e-04
2.399883e+01	-1.020387e-04
2.413745e+01	-1.032208e-04
2.427686e+01	-1.044166e-04
2.441709e+01	-1.056263e-04
2.455812e+01	-1.068500e-04
2.469997e+01	-1.080879e-04
2.484263e+01	-1.093401e-04
2.498612e+01	-1.106068e-04
2.513044e+01	-1.118882e-04
2.527559e+01	-1.131844e-04
2.542158e+01	-1.144957e-04
2.556842e+01	-1.158221e-04
2.571610e+01	-1.171639e-04
2.586463e+01	-1.185213e-04
2.601403e+01	-1.198944e-04
2.616428e+01	-1.212834e-04
2.631541e+01	-1.226885e-04
2.646740e+01	-1.241098e-04
2.662028e+01	-1.255476e-04
2.677404e+01	-1.270021e-04
2.692868e+01	-1.284735e-04
2.708422e+01	-1.299618e-04
2.724066e+01	-1.314675e-04
2.739800e+01	-1.329905e-04
2.755625e+01	-1.345312e-04
2.771541e+01	-1.360898e-04
2.787550e+01	-1.376664e-04
2.803650e+01	-1.392613e-04
2.819844e+01	-1.408746e-04
2.836131e+01	-1.425067e-04
2.852513e+01	-1.441576e-04
2.868989e+01	-1.458277e-04
2.885560e+01	-1.475171e-04
2.902227e+01	-1.492261e-04
2.918990e+01	-1.509549e-04
2.935850e+01	-1.527038e-04
2.952807e+01	-1.544728e-04
2.969863e+01	-1.562624e-04
2.987016e+01	-1.580727e-04
3.004269e+01	-1.599040e-04
3.021622e+01	-1.617565e-04
3.039075e+01	-1.636305e-04
3.056628e+01	-1.655261e-04
3.074283e+01	-1.674438e-04
3.092040e+01	-1.693836e-04
3.109900e+01	-1.713459e-04
3.127862e+01	-1.733310e-04
3.145929e+01	-1.753390e-04
3.164099e+01	-1.773703e-04
3.182375e+01	-1.794252e-04
3.200756e+01	-1.815038e-04
3.219244e+01	-1.836066e-04
3.237838e+01	-1.857336e-04
3.256540e+01	-1.878854e-04
3.275349e+01	-1.900620e-04
3.294268e+01	-1.922639e-04
3.313295e+01	-1.944913e-04
3.332433e+01	-1.967445e-04
3.351681e+01	-1.990238e-04
3.371040e+01	-2.013295e-04
3.390511e+01	-2.036619e-04
3.410094e+01	-2.060213e-04
3.429791e+01	-2.084080e-04
3.449601e+01	-2.108224e-04
3.469526e+01	-2.132648e-04
3.489566e+01	-2.157355e-04
3.509721e+01	-2.182348e-04
3.529993e+01	-2.207630e-04
3.550382e+01	-2.233206e-04
3.570889e+01	-2.259077e-04
3.591515e+01	-2.285249e-04
3.612259e+01	-2.311723e-04
3.633123e+01	-2.338504e-04
3.654108e+01	-2.365596e-04
3.675214e+01	-2.393001e-04
3.696442e+01	-2.420724e-04
3.717792e+01	-2.448768e-04
3.739266e+01	-2.477137e-04
3.760864e+01	-2.505834e-04
3.782587e+01	-2.534864e-04
3.804435e+01	-2.564231e-04
3.826409e+01	-2.593937e-04
3.848510e+01	-2.623988e-04
3.870739e+01	-2.654386e-04
3.893096e+01	-2.685137e-04
3.915583e+01	-2.716244e-04
3.938199e+01	-2.747712e-04
3.960946e+01	-2.779544e-04
3.983824e+01	-2.811744e-04
4.006834e+01	-2.844318e-04
4.029978e+01	-2.877269e-04
4.053255e+01	-2.910602e-04
4.076666e+01	-2.944321e-04
4.100213e+01	-2.978431e-04
4.123896e+01	-3.012935e-04
4.147715e+01	-3.047840e-04
4.171672e+01	-3.083149e-04
4.195767e+01	-3.118867e-04
4.220002e+01	-3.154998e-04
4.244377e+01	-3.191548e-04
4.268892e+01	-3.228522e-04
4.293549e+01	-3.265924e-04
4.318348e+01	-3.303759e-04
4.343291e+01	-3.342033e-04
4.368377e+01	-3.380749e-04
4.393609e+01	-3.419915e-04
4.418986e+01	-3.459534e-04
4.444510e+01	-3.499612e-04
4.470182e+01	-3.540154e-04
4.496001e+01	-3.581166e-04
4.521970e+01	-3.622653e-04
4.548089e+01	-3.664621e-04
4.574358e+01	-3.707075e-04
4.600779e+01	-3.750021e-04
4.627353e+01	-3.793464e-04
4.654081e+01	-3.837410e-04
4.680963e+01	-3.881866e-04
4.708000e+01	-3.926836e-04
4.735193e+01	-3.972327e-04
4.762543e+01	-4.018346e-04
4.790051e+01	-4.064897e-04
4.817719e+01	-4.111988e-04
4.845545e+01	-4.159624e-04
4.873533e+01	-4.207812e-04
4.901682e+01	-4.256559e-04
4.929994e+01	-4.305869e-04
4.958470e+01	-4.355752e-04
4.987110e+01	-4.406212e-04
5.015915e+01	-4.457256e-04
5.044887e+01	-4.508892e-04
5.074026e+01	-4.561126e-04
5.103333e+01	-4.613965e-04
5.132810e+01	-4.667416e-04
5.162457e+01	-4.721487e-04
5.192275e+01	-4.776184e-04
5.222265e+01	-4.831514e-04
5.252429e+01	-4.887485e-04
5.282767e+01	-4.944105e-04
5.313280e+01	-5.001380e-04
5.343969e+01	-5.059319e-04
5.374836e+01	-5.117929e-04
5.405880e+01	-5.177219e-04
5.437105e+01	-5.237194e-04
5.468509e+01	-5.297865e-04
5.500095e+01	-5.359239e-04
5.531863e+01	-5.421323e-04
5.563815e+01	-5.484126e-04
5.595951e+01	-5.547658e-04
5.628273e+01	-5.611925e-04
5.660782e+01	-5.676936e-04
5.693479e+01	-5.742701e-04
5.726364e+01	-5.809227e-04
5.759439e+01	-5.876524e-04
5.792705e+01	-5.944600e-04
5.826164e+01	-6.013465e-04
5.859815e+01	-6.083128e-04
5.893662e+01	-6.153598e-04
5.927703e+01	-6.224884e-04
5.961941e+01	-6.296996e-04
5.996377e+01	-6.369943e-04
6.031012e+01	-6.443735e-04
6.065847e+01	-6.518382e-04
6.100883e+01	-6.593893e-04
6.136121e+01	-6.670279e-04
6.171563e+01	-6.747550e-04
6.207210e+01	-6.825716e-04
6.243063e+01	-6.904788e-04
6.279122e+01	-6.984775e-04
6.315390e+01	-7.065689e-04
6.351868e+01	-7.147540e-04
6.388556e+01	-7.230340e-04
6.425456e+01	-7.314098e-04
6.462569e+01	-7.398827e-04
6.499897e+01	-7.484537e-04
6.537440e+01	-7.571240e-04
6.575200e+01	-7.658947e-04
6.613178e+01	-7.747670e-04
6.651375e+01	-7.837421e-04
6.689793e+01	-7.928211e-04
6.728433e+01	-8.020053e-04
6.767297e+01	-8.112959e-04
6.806384e+01	-8.206941e-04
6.845698e+01	-8.302012e-04
6.885238e+01	-8.398183e-04
6.925007e+01	-8.495469e-04
6.965005e+01	-8.593882e-04
7.005235e+01	-8.693434e-04
7.045697e+01	-8.794140e-04
7.086393e+01	-8.896012e-04
7.127323e+01	-8.999064e-04
7.168490e+01	-9.103310e-04
7.209895e+01	-9.208763e-04
7.251539e+01	-9.315437e-04
7.293424e+01	-9.423348e-04
7.335551e+01	-9.532508e-04
7.377920e+01	-9.642932e-04
7.420535e+01	-9.754635e-04
7.463396e+01	-9.867633e-04
7.506504e+01	-9.981939e-04
7.549861e+01	-1.009757e-03
7.593469e+01	-1.021454e-03
7.637328e+01	-1.033286e-03
7.681441e+01	-1.045256e-03
7.725809e+01	-1.057364e-03
7.770433e+01	-1.069612e-03
7.815315e+01	-1.082002e-03
7.860456e+01	-1.094536e-03
7.905857e+01	-1.107215e-03
7.951521e+01	-1.120041e-03
7.997449e+01	-1.133015e-03
8.043642e+01	-1.146139e-03
8.090102e+01	-1.159416e-03
8.136830e+01	-1.172846e-03
8.183828e+01	-1.186432e-03
8.231097e+01	-1.200176e-03
8.278640e+01	-1.214078e-03
8.326457e+01	-1.228141e-03
8.374550e+01	-1.242368e-03
8.422921e+01	-1.256759e-03
8.471572e+01	-1.271317e-03
8.520503e+01	-1.286043e-03
8.569717e+01	-1.300940e-03
8.619215e+01	-1.316009e-03
8.669000e+01	-1.331253e-03
8.719071e+01	-1.346674e-03
8.769432e+01	-1.362273e-03
8.820084e+01	-1.378053e-03
8.871029e+01	-1.394015e-03
8.922267e+01	-1.410163e-03
8.973802e+01	-1.426497e-03
9.025634e+01	-1.443021e-03
9.077766e+01	-1.459736e-03
9.130199e+01	-1.476644e-03
9.182935e+01	-1.493749e-03
9.235975e+01	-1.511051e-03
9.289321e+01	-1.528554e-03
9.342976e+01	-1.546260e-03
9.396941e+01	-1.564170e-03
9.451217e+01	-1.582288e-03
9.505807e+01	-1.600616e-03
9.560712e+01	-1.619156e-03
9.615934e+01	-1.637911e-03
9.671476e+01	-1.656883e-03
9.727338e+01	-1.676075e-03
9.783522e+01	-1.695489e-03
9.840032e+01	-1.715127e-03
9.896867e+01	-1.734994e-03
9.954031e+01	-1.755090e-03
1.001153e+02	-1.775419e-03
1.006935e+02	-1.795983e-03
1.012751e+02	-1.816786e-03
1.018601e+02	-1.837830e-03
1.024484e+02	-1.859117e-03
1.030402e+02	-1.880650e-03
1.036353e+02	-1.902434e-03
1.042339e+02	-1.924469e-03
1.048360e+02	-1.946759e-03
1.054415e+02	-1.969308e-03
1.060505e+02	-1.992118e-03
1.066631e+02	-2.015191e-03
1.072791e+02	-2.038533e-03
1.078988e+02	-2.062144e-03
1.085220e+02	-2.086029e-03
1.091488e+02	-2.110190e-03
1.097793e+02	-2.134631e-03
1.104133e+02	-2.159355e-03
1.110511e+02	-2.184366e-03
1.116925e+02	-2.209666e-03
1.123376e+02	-2.235259e-03
1.129865e+02	-2.261148e-03
1.136391e+02	-2.287337e-03
1.142955e+02	-2.313829e-03
1.149556e+02	-2.340628e-03
1.156196e+02	-2.367738e-03
1.162874e+02	-2.395161e-03
1.169591e+02	-2.422902e-03
1.176347e+02	-2.450964e-03
1.183141e+02	-2.479351e-03
1.189975e+02	-2.508067e-03
1.196848e+02	-2.537115e-03
1.203761e+02	-2.566499e-03
1.210714e+02	-2.596224e-03
1.217707e+02	-2.626293e-03
1.224740e+02	-2.656710e-03
1.231814e+02	-2.687479e-03
1.238929e+02	-2.718604e-03
1.246085e+02	-2.750090e-03
1.253283e+02	-2.781940e-03
1.260522e+02	-2.814159e-03
1.267802e+02	-2.846751e-03
1.275125e+02	-2.879721e-03
1.282490e+02	-2.913072e-03
1.289898e+02	-2.946809e-03
1.297348e+02	-2.980937e-03
1.304842e+02	-3.015460e-03
1.312378e+02	-3.050382e-03
1.319959e+02	-3.085709e-03
1.327583e+02	-3.121445e-03
1.335251e+02	-3.157595e-03
1.342963e+02	-3.194163e-03
1.350720e+02	-3.231154e-03
1.358522e+02	-3.268574e-03
1.366368e+02	-3.306427e-03
1.374260e+02	-3.344718e-03
1.382198e+02	-3.383452e-03
1.390182e+02	-3.422635e-03
1.398211e+02	-3.462271e-03
1.406287e+02	-3.502366e-03
1.414410e+02	-3.542926e-03
1.422579e+02	-3.583954e-03
1.430796e+02	-3.625458e-03
1.439060e+02	-3.667442e-03
1.447372e+02	-3.709912e-03
1.455732e+02	-3.752874e-03
1.464141e+02	-3.796333e-03
1.472597e+02	-3.840295e-03
1.481103e+02	-3.884766e-03
1.489658e+02	-3.929751e-03
1.498262e+02	-3.975258e-03
1.506916e+02	-4.021291e-03
1.515620e+02	-4.067857e-03
1.524374e+02	-4.114961e-03
1.533179e+02	-4.162611e-03
1.542034e+02	-4.210813e-03
1.550941e+02	-4.259572e-03
1.559899e+02	-4.308896e-03
1.568909e+02	-4.358791e-03
1.577971e+02	-4.409263e-03
1.587085e+02	-4.460319e-03
1.596252e+02	-4.511966e-03
1.605472e+02	-4.564211e-03
1.614745e+02	-4.617060e-03
1.624072e+02	-4.670521e-03
1.633453e+02	-4.724601e-03
1.642887e+02	-4.779306e-03
1.652377e+02	-4.834645e-03
1.661921e+02	-4.890624e-03
1.671520e+02	-4.947251e-03
1.681175e+02	-5.004533e-03
1.690885e+02	-5.062478e-03
1.700651e+02	-5.121093e-03
1.710474e+02	-5.180387e-03
1.720354e+02	-5.240367e-03
1.730291e+02	-5.301041e-03
1.740285e+02	-5.362416e-03
1.750337e+02	-5.424503e-03
1.760446e+02	-5.487307e-03
1.770615e+02	-5.550838e-03
1.780842e+02	-5.615104e-03
1.791128e+02	-5.680114e-03
1.801473e+02	-5.745876e-03
1.811878e+02	-5.812399e-03
1.822344e+02	-5.879691e-03
1.832870e+02	-5.947762e-03
1.843456e+02	-6.016621e-03
1.854104e+02	-6.086276e-03
1.864813e+02	-6.156737e-03
1.875584e+02	-6.228013e-03
1.886418e+02	-6.300114e-03
1.897313e+02	-6.373048e-03
1.908272e+02	-6.446827e-03
1.919294e+02	-6.521459e-03
1.930380e+02	-6.596954e-03
1.941530e+02	-6.673322e-03
1.952744e+02	-6.750574e-03
1.964023e+02	-6.828720e-03
1.975367e+02	-6.907769e-03
1.986777e+02	-6.987733e-03
1.998252e+02	-7.068622e-03
2.009794e+02	-7.150446e-03
2.021403e+02	-7.233216e-03
2.033078e+02	-7.316944e-03
2.044821e+02	-7.401640e-03
2.056632e+02	-7.487316e-03
2.068511e+02	-7.573983e-03
2.080459e+02	-7.661652e-03
2.092475e+02	-7.750334e-03
2.104561e+02	-7.840043e-03
2.116717e+02	-7.930788e-03
2.128943e+02	-8.022583e-03
2.141240e+02	-8.115440e-03
2.153608e+02	-8.209370e-03
2.166047e+02	-8.304387e-03
2.178558e+02	-8.400502e-03
2.191141e+02	-8.497728e-03
2.203797e+02	-8.596079e-03
2.216526e+02	-8.695567e-03
2.229329e+02	-8.796205e-03
2.242205e+02	-8.898006e-03
2.255156e+02	-9.000985e-03
2.268182e+02	-9.105154e-03
2.281283e+02	-9.210527e-03
2.294459e+02	-9.317119e-03
2.307712e+02	-9.424942e-03
2.321041e+02	-9.534012e-03
2.334447e+02	-9.644343e-03
2.347931e+02	-9.755950e-03
2.361493e+02	-9.868846e-03
2.375133e+02	-9.983047e-03
2.388851e+02	-1.009857e-02
2.402649e+02	-1.021542e-02
2.416527e+02	-1.033363e-02
2.430484e+02	-1.045321e-02
2.444523e+02	-1.057416e-02
2.458642e+02	-1.069651e-02
2.472843e+02	-1.082028e-02
2.487126e+02	-1.094548e-02
2.501492e+02	-1.107212e-02
2.515940e+02	-1.120023e-02
2.530472e+02	-1.132982e-02
2.545088e+02	-1.146090e-02
2.559789e+02	-1.159350e-02
2.574574e+02	-1.172763e-02
2.589444e+02	-1.186331e-02
2.604401e+02	-1.200056e-02
2.619444e+02	-1.213940e-02
2.634574e+02	-1.227984e-02
2.649791e+02	-1.242190e-02
2.665096e+02	-1.256560e-02
2.680489e+02	-1.271096e-02
2.695972e+02	-1.285800e-02
2.711544e+02	-1.300674e-02
2.727205e+02	-1.315720e-02
2.742958e+02	-1.330939e-02
2.758801e+02	-1.346335e-02
2.774736e+02	-1.361908e-02
2.790762e+02	-1.377661e-02
2.806882e+02	-1.393596e-02
2.823094e+02	-1.409714e-02
2.839400e+02	-1.426019e-02
2.855800e+02	-1.442513e-02
2.872295e+02	-1.459196e-02
2.888886e+02	-1.476073e-02
2.905572e+02	-1.493144e-02
2.922354e+02	-1.510412e-02
2.939234e+02	-1.527880e-02
2.956211e+02	-1.545549e-02
2.973286e+02	-1.563422e-02
2.990459e+02	-1.581502e-02
3.007732e+02	-1.599790e-02
3.025104e+02	-1.618289e-02
3.042577e+02	-1.637002e-02
3.060151e+02	-1.655931e-02
3.077826e+02	-1.675078e-02
3.095604e+02	-1.694446e-02
3.113484e+02	-1.714038e-02
3.131467e+02	-1.733856e-02
3.149554e+02	-1.753902e-02
3.167746e+02	-1.774180e-02
3.186043e+02	-1.794692e-02
3.204445e+02	-1.815440e-02
3.222954e+02	-1.836428e-02
3.241570e+02	-1.857658e-02
3.260293e+02	-1.879132e-02
3.279124e+02	-1.900855e-02
3.298064e+02	-1.922828e-02
3.317114e+02	-1.945054e-02
3.336273e+02	-1.967537e-02
3.355544e+02	-1.990279e-02
3.374925e+02	-2.013283e-02
3.394418e+02	-2.036553e-02
3.414024e+02	-2.060091e-02
3.433744e+02	-2.083900e-02
3.453577e+02	-2.107983e-02
3.473525e+02	-2.132345e-02
3.493588e+02	-2.156987e-02
3.513766e+02	-2.181913e-02
3.534062e+02	-2.207127e-02
3.554474e+02	-2.232631e-02
3.575005e+02	-2.258429e-02
3.595654e+02	-2.284525e-02
3.616422e+02	-2.310921e-02
3.637311e+02	-2.337621e-02
3.658320e+02	-2.364629e-02
3.679450e+02	-2.391948e-02
3.700702e+02	-2.419582e-02
3.722077e+02	-2.447534e-02
3.743576e+02	-2.475808e-02
3.765199e+02	-2.504408e-02
3.786946e+02	-2.533338e-02
3.808820e+02	-2.562600e-02
3.830819e+02	-2.592200e-02
3.852946e+02	-2.622140e-02
3.875200e+02	-2.652425e-02
3.897583e+02	-2.683059e-02
3.920096e+02	-2.714045e-02
3.942738e+02	-2.745389e-02
3.965511e+02	-2.777093e-02
3.988416e+02	-2.809161e-02
4.011452e+02	-2.841599e-02
4.034622e+02	-2.874411e-02
4.057926e+02	-2.907600e-02
4.081365e+02	-2.941171e-02
4.104938e+02	-2.975128e-02
4.128648e+02	-3.009476e-02
4.152495e+02	-3.044219e-02
4.176480e+02	-3.079361e-02
4.200603e+02	-3.114908e-02
4.224866e+02	-3.150864e-02
4.249268e+02	-3.187233e-02
4.273812e+02	-3.224021e-02
4.298497e+02	-3.261231e-02
4.323325e+02	-3.298869e-02
4.348297e+02	-3.336940e-02
4.373412e+02	-3.375449e-02
4.398673e+02	-3.414400e-02
4.424079e+02	-3.453799e-02
4.449633e+02	-3.493651e-02
4.475334e+02	-3.533961e-02
4.501183e+02	-3.574733e-02
4.527182e+02	-3.615975e-02
4.553330e+02	-3.657690e-02
4.579630e+02	-3.699884e-02
4.606082e+02	-3.742563e-02
4.632687e+02	-3.785732e-02
4.659445e+02	-3.829397e-02
4.686358e+02	-3.873563e-02
4.713426e+02	-3.918236e-02
4.740650e+02	-3.963423e-02
4.768032e+02	-4.009127e-02
4.795572e+02	-4.055357e-02
4.823271e+02	-4.102117e-02
4.851130e+02	-4.149413e-02
4.879150e+02	-4.197252e-02
4.907332e+02	-4.245640e-02
4.935676e+02	-4.294583e-02
4.964185e+02	-4.344088e-02
4.992858e+02	-4.394160e-02
5.021696e+02	-4.444806e-02
5.050701e+02	-4.496034e-02
5.079874e+02	-4.547848e-02
5.109215e+02	-4.600256e-02
5.138726e+02	-4.653265e-02
5.168407e+02	-4.706882e-02
5.198259e+02	-4.761113e-02
5.228284e+02	-4.815965e-02
5.258482e+02	-4.871446e-02
5.288855e+02	-4.927562e-02
5.319403e+02	-4.984321e-02
5.350128e+02	-5.041730e-02
5.381030e+02	-5.099796e-02
5.412111e+02	-5.158527e-02
5.443371e+02	-5.217930e-02
5.474812e+02	-5.278013e-02
5.506434e+02	-5.338784e-02
5.538239e+02	-5.400250e-02
5.570228e+02	-5.462419e-02
5.602401e+02	-5.525299e-02
5.634760e+02	-5.588899e-02
5.667306e+02	-5.653226e-02
5.700040e+02	-5.718288e-02
5.732964e+02	-5.784094e-02
5.766077e+02	-5.850653e-02
5.799382e+02	-5.917972e-02
5.832879e+02	-5.986060e-02
5.866569e+02	-6.054926e-02
5.900454e+02	-6.124579e-02
5.934535e+02	-6.195027e-02
5.968813e+02	-6.266279e-02
6.003288e+02	-6.338346e-02
6.037963e+02	-6.411235e-02
6.072838e+02	-6.484955e-02
6.107914e+02	-6.559517e-02
6.143194e+02	-6.634930e-02
6.178676e+02	-6.711203e-02
6.214364e+02	-6.788346e-02
6.250258e+02	-6.866369e-02
6.286359e+02	-6.945281e-02
6.322669e+02	-7.025093e-02
6.359189e+02	-7.105815e-02
6.395919e+02	-7.187456e-02
6.432862e+02	-7.270027e-02
6.470017e+02	-7.353539e-02
6.507388e+02	-7.438002e-02
6.544974e+02	-7.523427e-02
6.582778e+02	-7.609824e-02
6.620800e+02	-7.697205e-02
6.659041e+02	-7.785580e-02
6.697504e+02	-7.874960e-02
6.736188e+02	-7.965357e-02
6.775096e+02	-8.056782e-02
6.814229e+02	-8.149247e-02
6.853587e+02	-8.242762e-02
6.893173e+02	-8.337341e-02
6.932988e+02	-8.432994e-02
6.973033e+02	-8.529733e-02
7.013309e+02	-8.627572e-02
