Frequency(Hz)	Magnitude(dB)
1.000000e+01	-2.075364e+00
1.005776e+01	-2.094539e+00
1.011585e+01	-2.113832e+00
1.017428e+01	-2.133155e+00
1.023305e+01	-2.152545e+00
1.029215e+01	-2.172227e+00
1.035160e+01	-2.191923e+00
1.041139e+01	-2.211746e+00
1.047153e+01	-2.231775e+00
1.053201e+01	-2.252057e+00
1.059284e+01	-2.272189e+00
1.065403e+01	-2.292757e+00
1.071556e+01	-2.313373e+00
1.077746e+01	-2.333997e+00
1.083971e+01	-2.354977e+00
1.090232e+01	-2.375969e+00
1.096529e+01	-2.397057e+00
1.102862e+01	-2.418261e+00
1.109232e+01	-2.439749e+00
1.115639e+01	-2.461353e+00
1.122083e+01	-2.483125e+00
1.128564e+01	-2.504787e+00
1.135083e+01	-2.526752e+00
1.141639e+01	-2.549269e+00
1.148233e+01	-2.571423e+00
1.154865e+01	-2.593924e+00
1.161536e+01	-2.616218e+00
1.168245e+01	-2.639256e+00
1.174992e+01	-2.661691e+00
1.181779e+01	-2.685105e+00
1.188605e+01	-2.708212e+00
1.195470e+01	-2.731198e+00
1.202375e+01	-2.754798e+00
1.209320e+01	-2.778164e+00
1.216305e+01	-2.801969e+00
1.223330e+01	-2.825685e+00
1.230396e+01	-2.850005e+00
1.237503e+01	-2.873877e+00
1.244651e+01	-2.898203e+00
1.251840e+01	-2.922738e+00
1.259070e+01	-2.947219e+00
1.266343e+01	-2.972065e+00
1.273657e+01	-2.996980e+00
1.281014e+01	-3.021961e+00
1.288413e+01	-3.047071e+00
1.295855e+01	-3.071929e+00
1.303339e+01	-3.098011e+00
1.310867e+01	-3.123415e+00
1.318439e+01	-3.148836e+00
1.326054e+01	-3.174932e+00
1.333713e+01	-3.201019e+00
1.341417e+01	-3.226969e+00
1.349165e+01	-3.253244e+00
1.356958e+01	-3.279790e+00
1.364795e+01	-3.306391e+00
1.372678e+01	-3.333027e+00
1.380607e+01	-3.360191e+00
1.388581e+01	-3.387134e+00
1.396602e+01	-3.414358e+00
1.404668e+01	-3.441435e+00
1.412782e+01	-3.468589e+00
1.420942e+01	-3.496690e+00
1.429149e+01	-3.524547e+00
1.437404e+01	-3.552227e+00
1.445706e+01	-3.580311e+00
1.454057e+01	-3.608333e+00
1.462455e+01	-3.636792e+00
1.470902e+01	-3.665274e+00
1.479398e+01	-3.693717e+00
1.487943e+01	-3.722451e+00
1.496537e+01	-3.751424e+00
1.505181e+01	-3.780557e+00
1.513875e+01	-3.809551e+00
1.522619e+01	-3.838789e+00
1.531414e+01	-3.868114e+00
1.540259e+01	-3.897926e+00
1.549156e+01	-3.927304e+00
1.558103e+01	-3.957111e+00
1.567103e+01	-3.987032e+00
1.576155e+01	-4.017348e+00
1.585258e+01	-4.047716e+00
1.594415e+01	-4.078016e+00
1.603624e+01	-4.108424e+00
1.612886e+01	-4.139216e+00
1.622202e+01	-4.170072e+00
1.631572e+01	-4.201132e+00
1.640996e+01	-4.232349e+00
1.650474e+01	-4.263315e+00
1.660008e+01	-4.294498e+00
1.669596e+01	-4.325972e+00
1.679239e+01	-4.357533e+00
1.688938e+01	-4.389515e+00
1.698694e+01	-4.421275e+00
1.708505e+01	-4.453477e+00
1.718373e+01	-4.485479e+00
1.728299e+01	-4.517781e+00
1.738281e+01	-4.549996e+00
1.748322e+01	-4.582817e+00
1.758420e+01	-4.615398e+00
1.768576e+01	-4.648583e+00
1.778792e+01	-4.681042e+00
1.789066e+01	-4.714317e+00
1.799399e+01	-4.747617e+00
1.809793e+01	-4.780705e+00
1.820246e+01	-4.814414e+00
1.830760e+01	-4.847826e+00
1.841334e+01	-4.881613e+00
1.851969e+01	-4.915430e+00
1.862666e+01	-4.949310e+00
1.873425e+01	-4.983311e+00
1.884246e+01	-5.017508e+00
1.895129e+01	-5.051796e+00
1.906075e+01	-5.086290e+00
1.917085e+01	-5.120809e+00
1.928158e+01	-5.155744e+00
1.939295e+01	-5.190286e+00
1.950496e+01	-5.225349e+00
1.961762e+01	-5.260135e+00
1.973093e+01	-5.295699e+00
1.984490e+01	-5.330735e+00
1.995952e+01	-5.366272e+00
2.007480e+01	-5.401920e+00
2.019076e+01	-5.437610e+00
2.030738e+01	-5.473477e+00
2.042467e+01	-5.509272e+00
2.054264e+01	-5.545423e+00
2.066130e+01	-5.581513e+00
2.078064e+01	-5.617624e+00
2.090066e+01	-5.654077e+00
2.102139e+01	-5.690696e+00
2.114280e+01	-5.727048e+00
2.126492e+01	-5.763717e+00
2.138775e+01	-5.800493e+00
2.151128e+01	-5.837444e+00
2.163553e+01	-5.874620e+00
2.176050e+01	-5.911537e+00
2.188619e+01	-5.948949e+00
2.201260e+01	-5.986420e+00
2.213974e+01	-6.023699e+00
2.226762e+01	-6.061291e+00
2.239624e+01	-6.099010e+00
2.252560e+01	-6.137277e+00
2.265571e+01	-6.175021e+00
2.278656e+01	-6.212656e+00
2.291818e+01	-6.250769e+00
2.305055e+01	-6.289123e+00
2.318369e+01	-6.327251e+00
2.331760e+01	-6.365655e+00
2.345228e+01	-6.404413e+00
2.358774e+01	-6.442817e+00
2.372398e+01	-6.481900e+00
2.386101e+01	-6.520498e+00
2.399883e+01	-6.559577e+00
2.413745e+01	-6.599051e+00
2.427686e+01	-6.637904e+00
2.441709e+01	-6.676986e+00
2.455812e+01	-6.716353e+00
2.469997e+01	-6.755307e+00
2.484263e+01	-6.794824e+00
2.498612e+01	-6.834792e+00
2.513044e+01	-6.874108e+00
2.527559e+01	-6.914360e+00
2.542158e+01	-6.954127e+00
2.556842e+01	-6.994503e+00
2.571610e+01	-7.034314e+00
2.586463e+01	-7.074183e+00
2.601403e+01	-7.114767e+00
2.616428e+01	-7.154610e+00
2.631541e+01	-7.195283e+00
2.646740e+01	-7.235921e+00
2.662028e+01	-7.276828e+00
2.677404e+01	-7.317300e+00
2.692868e+01	-7.357670e+00
2.708422e+01	-7.398680e+00
2.724066e+01	-7.440014e+00
2.739800e+01	-7.481055e+00
2.755625e+01	-7.521837e+00
2.771541e+01	-7.563130e+00
2.787550e+01	-7.604341e+00
2.803650e+01	-7.645799e+00
2.819844e+01	-7.687431e+00
2.836131e+01	-7.728905e+00
2.852513e+01	-7.770498e+00
2.868989e+01	-7.812424e+00
2.885560e+01	-7.853922e+00
2.902227e+01	-7.895890e+00
2.918990e+01	-7.937905e+00
2.935850e+01	-7.979792e+00
2.952807e+01	-8.021999e+00
2.969863e+01	-8.064308e+00
2.987016e+01	-8.106476e+00
3.004269e+01	-8.149321e+00
3.021622e+01	-8.190879e+00
3.039075e+01	-8.233315e+00
3.056628e+01	-8.276428e+00
3.074283e+01	-8.318690e+00
3.092040e+01	-8.361478e+00
3.109900e+01	-8.404106e+00
3.127862e+01	-8.447043e+00
3.145929e+01	-8.489524e+00
3.164099e+01	-8.532869e+00
3.182375e+01	-8.576268e+00
3.200756e+01	-8.619136e+00
3.219244e+01	-8.662385e+00
3.237838e+01	-8.705703e+00
3.256540e+01	-8.748680e+00
3.275349e+01	-8.792381e+00
3.294268e+01	-8.835822e+00
3.313295e+01	-8.879955e+00
3.332433e+01	-8.922573e+00
3.351681e+01	-8.966352e+00
3.371040e+01	-9.010393e+00
3.390511e+01	-9.053730e+00
3.410094e+01	-9.097711e+00
3.429791e+01	-9.141910e+00
3.449601e+01	-9.185332e+00
3.469526e+01	-9.229375e+00
3.489566e+01	-9.273873e+00
3.509721e+01	-9.317464e+00
3.529993e+01	-9.362683e+00
3.550382e+01	-9.405810e+00
3.570889e+01	-9.450791e+00
3.591515e+01	-9.494833e+00
3.612259e+01	-9.539290e+00
3.633123e+01	-9.584098e+00
3.654108e+01	-9.628597e+00
3.675214e+01	-9.673079e+00
3.696442e+01	-9.718232e+00
3.717792e+01	-9.763056e+00
3.739266e+01	-9.807079e+00
3.760864e+01	-9.852234e+00
3.782587e+01	-9.897000e+00
3.804435e+01	-9.941916e+00
3.826409e+01	-9.987442e+00
3.848510e+01	-1.003200e+01
3.870739e+01	-1.007654e+01
3.893096e+01	-1.012267e+01
3.915583e+01	-1.016729e+01
3.938199e+01	-1.021216e+01
3.960946e+01	-1.025788e+01
3.983824e+01	-1.030347e+01
4.006834e+01	-1.034854e+01
4.029978e+01	-1.039436e+01
4.053255e+01	-1.043900e+01
4.076666e+01	-1.048527e+01
4.100213e+01	-1.053082e+01
4.123896e+01	-1.057616e+01
4.147715e+01	-1.062205e+01
4.171672e+01	-1.066768e+01
4.195767e+01	-1.071313e+01
4.220002e+01	-1.075909e+01
4.244377e+01	-1.080519e+01
4.268892e+01	-1.085140e+01
4.293549e+01	-1.089675e+01
4.318348e+01	-1.094230e+01
4.343291e+01	-1.098897e+01
4.368377e+01	-1.103532e+01
4.393609e+01	-1.108134e+01
4.418986e+01	-1.112716e+01
4.444510e+01	-1.117317e+01
4.470182e+01	-1.121984e+01
4.496001e+01	-1.126555e+01
4.521970e+01	-1.131200e+01
4.548089e+01	-1.135888e+01
4.574358e+01	-1.140487e+01
4.600779e+01	-1.145132e+01
4.627353e+01	-1.149746e+01
4.654081e+01	-1.154438e+01
4.680963e+01	-1.159114e+01
4.708000e+01	-1.163714e+01
4.735193e+01	-1.168364e+01
4.762543e+01	-1.173072e+01
4.790051e+01	-1.177723e+01
4.817719e+01	-1.182398e+01
4.845545e+01	-1.187124e+01
4.873533e+01	-1.191736e+01
4.901682e+01	-1.196443e+01
4.929994e+01	-1.201144e+01
4.958470e+01	-1.205872e+01
4.987110e+01	-1.210551e+01
5.015915e+01	-1.215251e+01
5.044887e+01	-1.219942e+01
5.074026e+01	-1.224589e+01
5.103333e+01	-1.229356e+01
5.132810e+01	-1.234028e+01
5.162457e+01	-1.238781e+01
5.192275e+01	-1.243432e+01
5.222265e+01	-1.248174e+01
5.252429e+01	-1.252922e+01
5.282767e+01	-1.257627e+01
5.313280e+01	-1.262400e+01
5.343969e+01	-1.267091e+01
5.374836e+01	-1.271836e+01
5.405880e+01	-1.276537e+01
5.437105e+01	-1.281325e+01
5.468509e+01	-1.286017e+01
5.500095e+01	-1.290762e+01
5.531863e+01	-1.295511e+01
5.563815e+01	-1.300303e+01
5.595951e+01	-1.305086e+01
5.628273e+01	-1.309797e+01
5.660782e+01	-1.314562e+01
5.693479e+01	-1.319337e+01
5.726364e+01	-1.324020e+01
5.759439e+01	-1.328802e+01
5.792705e+01	-1.333582e+01
5.826164e+01	-1.338411e+01
5.859815e+01	-1.343170e+01
5.893662e+01	-1.347964e+01
5.927703e+01	-1.352718e+01
5.961941e+01	-1.357510e+01
5.996377e+01	-1.362298e+01
6.031012e+01	-1.367040e+01
6.065847e+01	-1.371845e+01
6.100883e+01	-1.376602e+01
6.136121e+01	-1.381448e+01
6.171563e+01	-1.386217e+01
6.207210e+01	-1.391025e+01
6.243063e+01	-1.395776e+01
6.279122e+01	-1.400634e+01
6.315390e+01	-1.405411e+01
6.351868e+01	-1.410282e+01
6.388556e+01	-1.415071e+01
6.425456e+01	-1.419888e+01
6.462569e+01	-1.424794e+01
6.499897e+01	-1.429519e+01
6.537440e+01	-1.434267e+01
6.575200e+01	-1.439113e+01
6.613178e+01	-1.444037e+01
6.651375e+01	-1.448749e+01
6.689793e+01	-1.453611e+01
6.728433e+01	-1.458423e+01
6.767297e+01	-1.463278e+01
6.806384e+01	-1.468087e+01
6.845698e+01	-1.472958e+01
6.885238e+01	-1.477703e+01
6.925007e+01	-1.482655e+01
6.965005e+01	-1.487529e+01
7.005235e+01	-1.492226e+01
7.045697e+01	-1.497155e+01
7.086393e+01	-1.501902e+01
7.127323e+01	-1.506748e+01
7.168490e+01	-1.511696e+01
7.209895e+01	-1.516497e+01
7.251539e+01	-1.521286e+01
7.293424e+01	-1.526294e+01
7.335551e+01	-1.531057e+01
7.377920e+01	-1.535924e+01
7.420535e+01	-1.540731e+01
7.463396e+01	-1.545561e+01
7.506504e+01	-1.550483e+01
7.549861e+01	-1.555411e+01
7.593469e+01	-1.560202e+01
7.637328e+01	-1.565065e+01
7.681441e+01	-1.569967e+01
7.725809e+01	-1.574824e+01
7.770433e+01	-1.579693e+01
7.815315e+01	-1.584585e+01
7.860456e+01	-1.589511e+01
7.905857e+01	-1.594382e+01
7.951521e+01	-1.599265e+01
7.997449e+01	-1.604139e+01
8.043642e+01	-1.609041e+01
8.090102e+01	-1.613868e+01
8.136830e+01	-1.618859e+01
8.183828e+01	-1.623676e+01
8.231097e+01	-1.628440e+01
8.278640e+01	-1.633401e+01
8.326457e+01	-1.638282e+01
8.374550e+01	-1.643201e+01
8.422921e+01	-1.648101e+01
8.471572e+01	-1.652924e+01
8.520503e+01	-1.657866e+01
8.569717e+01	-1.662665e+01
8.619215e+01	-1.667670e+01
8.669000e+01	-1.672506e+01
8.719071e+01	-1.677513e+01
8.769432e+01	-1.682309e+01
8.820084e+01	-1.687149e+01
8.871029e+01	-1.692145e+01
8.922267e+01	-1.697023e+01
8.973802e+01	-1.701972e+01
9.025634e+01	-1.706830e+01
9.077766e+01	-1.711768e+01
9.130199e+01	-1.716570e+01
9.182935e+01	-1.721505e+01
9.235975e+01	-1.726440e+01
9.289321e+01	-1.731407e+01
9.342976e+01	-1.736262e+01
9.396941e+01	-1.741124e+01
9.451217e+01	-1.746265e+01
9.505807e+01	-1.751041e+01
9.560712e+01	-1.755878e+01
9.615934e+01	-1.760777e+01
9.671476e+01	-1.765826e+01
9.727338e+01	-1.770773e+01
9.783522e+01	-1.775661e+01
9.840032e+01	-1.780549e+01
9.896867e+01	-1.785434e+01
9.954031e+01	-1.790278e+01
1.001153e+02	-1.795331e+01
1.006935e+02	-1.800191e+01
1.012751e+02	-1.805047e+01
1.018601e+02	-1.809906e+01
1.024484e+02	-1.814988e+01
1.030402e+02	-1.819823e+01
1.036353e+02	-1.824800e+01
1.042339e+02	-1.829836e+01
1.048360e+02	-1.834664e+01
1.054415e+02	-1.839615e+01
1.060505e+02	-1.844695e+01
1.066631e+02	-1.849330e+01
1.072791e+02	-1.854390e+01
1.078988e+02	-1.859358e+01
1.085220e+02	-1.864370e+01
1.091488e+02	-1.869260e+01
1.097793e+02	-1.874247e+01
1.104133e+02	-1.879132e+01
1.110511e+02	-1.884089e+01
1.116925e+02	-1.888942e+01
1.123376e+02	-1.893912e+01
1.129865e+02	-1.898926e+01
1.136391e+02	-1.903857e+01
1.142955e+02	-1.908684e+01
1.149556e+02	-1.913692e+01
1.156196e+02	-1.918631e+01
1.162874e+02	-1.923513e+01
1.169591e+02	-1.928604e+01
1.176347e+02	-1.933441e+01
1.183141e+02	-1.938429e+01
1.189975e+02	-1.943310e+01
1.196848e+02	-1.948355e+01
1.203761e+02	-1.953258e+01
1.210714e+02	-1.958227e+01
1.217707e+02	-1.963154e+01
1.224740e+02	-1.968213e+01
1.231814e+02	-1.973134e+01
1.238929e+02	-1.978161e+01
1.246085e+02	-1.982843e+01
1.253283e+02	-1.987823e+01
1.260522e+02	-1.992857e+01
1.267802e+02	-1.997752e+01
1.275125e+02	-2.002747e+01
1.282490e+02	-2.007789e+01
1.289898e+02	-2.012667e+01
1.297348e+02	-2.017582e+01
1.304842e+02	-2.022691e+01
1.312378e+02	-2.027484e+01
1.319959e+02	-2.032486e+01
1.327583e+02	-2.037435e+01
1.335251e+02	-2.042353e+01
1.342963e+02	-2.047311e+01
1.350720e+02	-2.052473e+01
1.358522e+02	-2.057380e+01
1.366368e+02	-2.062165e+01
1.374260e+02	-2.067157e+01
1.382198e+02	-2.072234e+01
1.390182e+02	-2.077179e+01
1.398211e+02	-2.082285e+01
1.406287e+02	-2.087028e+01
1.414410e+02	-2.092192e+01
1.422579e+02	-2.096898e+01
1.430796e+02	-2.102037e+01
1.439060e+02	-2.106880e+01
1.447372e+02	-2.111677e+01
1.455732e+02	-2.116850e+01
1.464141e+02	-2.121919e+01
1.472597e+02	-2.126664e+01
1.481103e+02	-2.131676e+01
1.489658e+02	-2.136704e+01
1.498262e+02	-2.141696e+01
1.506916e+02	-2.146760e+01
1.515620e+02	-2.151541e+01
1.524374e+02	-2.156717e+01
1.533179e+02	-2.161416e+01
1.542034e+02	-2.166473e+01
1.550941e+02	-2.171479e+01
1.559899e+02	-2.176511e+01
1.568909e+02	-2.181407e+01
1.577971e+02	-2.186293e+01
1.587085e+02	-2.191288e+01
1.596252e+02	-2.196248e+01
1.605472e+02	-2.201448e+01
1.614745e+02	-2.206203e+01
1.624072e+02	-2.211200e+01
1.633453e+02	-2.216172e+01
1.642887e+02	-2.221210e+01
1.652377e+02	-2.226299e+01
1.661921e+02	-2.231280e+01
1.671520e+02	-2.236290e+01
1.681175e+02	-2.241054e+01
1.690885e+02	-2.246183e+01
1.700651e+02	-2.250881e+01
1.710474e+02	-2.255946e+01
1.720354e+02	-2.261052e+01
1.730291e+02	-2.266122e+01
1.740285e+02	-2.271054e+01
1.750337e+02	-2.276045e+01
1.760446e+02	-2.281012e+01
1.770615e+02	-2.285767e+01
1.780842e+02	-2.290890e+01
1.791128e+02	-2.295825e+01
1.801473e+02	-2.300785e+01
1.811878e+02	-2.305712e+01
1.822344e+02	-2.310538e+01
1.832870e+02	-2.315889e+01
1.843456e+02	-2.320813e+01
1.854104e+02	-2.325635e+01
1.864813e+02	-2.330772e+01
1.875584e+02	-2.335737e+01
1.886418e+02	-2.340665e+01
1.897313e+02	-2.345719e+01
1.908272e+02	-2.350792e+01
1.919294e+02	-2.355577e+01
1.930380e+02	-2.360563e+01
1.941530e+02	-2.365736e+01
1.952744e+02	-2.370563e+01
1.964023e+02	-2.375488e+01
1.975367e+02	-2.380850e+01
1.986777e+02	-2.385501e+01
1.998252e+02	-2.390801e+01
2.009794e+02	-2.395549e+01
2.021403e+02	-2.400585e+01
2.033078e+02	-2.405547e+01
2.044821e+02	-2.410628e+01
2.056632e+02	-2.415525e+01
2.068511e+02	-2.420498e+01
2.080459e+02	-2.425545e+01
2.092475e+02	-2.430268e+01
2.104561e+02	-2.435247e+01
2.116717e+02	-2.440480e+01
2.128943e+02	-2.445567e+01
2.141240e+02	-2.450652e+01
2.153608e+02	-2.455360e+01
2.166047e+02	-2.460144e+01
2.178558e+02	-2.465271e+01
2.191141e+02	-2.470375e+01
2.203797e+02	-2.475348e+01
2.216526e+02	-2.480128e+01
2.229329e+02	-2.485553e+01
2.242205e+02	-2.490357e+01
2.255156e+02	-2.495259e+01
2.268182e+02	-2.500138e+01
2.281283e+02	-2.505360e+01
2.294459e+02	-2.510009e+01
2.307712e+02	-2.515333e+01
2.321041e+02	-2.519918e+01
2.334447e+02	-2.525370e+01
2.347931e+02	-2.530030e+01
2.361493e+02	-2.535022e+01
2.375133e+02	-2.540295e+01
2.388851e+02	-2.545371e+01
2.402649e+02	-2.550038e+01
2.416527e+02	-2.555166e+01
2.430484e+02	-2.560233e+01
2.444523e+02	-2.565263e+01
2.458642e+02	-2.570032e+01
2.472843e+02	-2.575341e+01
2.487126e+02	-2.579861e+01
2.501492e+02	-2.584890e+01
2.515940e+02	-2.590161e+01
2.530472e+02	-2.595110e+01
2.545088e+02	-2.599886e+01
2.559789e+02	-2.605027e+01
2.574574e+02	-2.609939e+01
2.589444e+02	-2.615043e+01
2.604401e+02	-2.620202e+01
2.619444e+02	-2.625037e+01
2.634574e+02	-2.630363e+01
2.649791e+02	-2.635034e+01
2.665096e+02	-2.639709e+01
2.680489e+02	-2.645094e+01
2.695972e+02	-2.650414e+01
2.711544e+02	-2.655117e+01
2.727205e+02	-2.659798e+01
2.742958e+02	-2.665314e+01
2.758801e+02	-2.670135e+01
2.774736e+02	-2.674999e+01
2.790762e+02	-2.680111e+01
2.806882e+02	-2.685006e+01
2.823094e+02	-2.689909e+01
2.839400e+02	-2.695005e+01
2.855800e+02	-2.699945e+01
2.872295e+02	-2.705081e+01
2.888886e+02	-2.709976e+01
2.905572e+02	-2.714857e+01
2.922354e+02	-2.720056e+01
2.939234e+02	-2.724871e+01
2.956211e+02	-2.730475e+01
2.973286e+02	-2.735239e+01
2.990459e+02	-2.739597e+01
3.007732e+02	-2.745168e+01
3.025104e+02	-2.750166e+01
3.042577e+02	-2.754977e+01
3.060151e+02	-2.760041e+01
3.077826e+02	-2.765305e+01
3.095604e+02	-2.770025e+01
3.113484e+02	-2.774879e+01
3.131467e+02	-2.779909e+01
3.149554e+02	-2.785135e+01
3.167746e+02	-2.790304e+01
3.186043e+02	-2.794797e+01
3.204445e+02	-2.799854e+01
3.222954e+02	-2.804896e+01
3.241570e+02	-2.809956e+01
3.260293e+02	-2.815063e+01
3.279124e+02	-2.820326e+01
3.298064e+02	-2.825068e+01
3.317114e+02	-2.830080e+01
3.336273e+02	-2.835432e+01
3.355544e+02	-2.839941e+01
3.374925e+02	-2.845024e+01
3.394418e+02	-2.850072e+01
3.414024e+02	-2.855156e+01
3.433744e+02	-2.859971e+01
3.453577e+02	-2.864834e+01
3.473525e+02	-2.870301e+01
3.493588e+02	-2.875216e+01
3.513766e+02	-2.880151e+01
3.534062e+02	-2.884897e+01
3.554474e+02	-2.890185e+01
3.575005e+02	-2.894894e+01
3.595654e+02	-2.900062e+01
3.616422e+02	-2.905272e+01
3.637311e+02	-2.910527e+01
3.658320e+02	-2.915280e+01
3.679450e+02	-2.920253e+01
3.700702e+02	-2.925468e+01
3.722077e+02	-2.930546e+01
3.743576e+02	-2.935049e+01
3.765199e+02	-2.939658e+01
3.786946e+02	-2.945240e+01
3.808820e+02	-2.950303e+01
3.830819e+02	-2.955877e+01
3.852946e+02	-2.960519e+01
3.875200e+02	-2.964850e+01
3.897583e+02	-2.970127e+01
3.920096e+02	-2.974829e+01
3.942738e+02	-2.980309e+01
3.965511e+02	-2.985610e+01
3.988416e+02	-2.990297e+01
4.011452e+02	-2.995112e+01
4.034622e+02	-3.000463e+01
4.057926e+02	-3.005248e+01
4.081365e+02	-3.010062e+01
4.104938e+02	-3.014906e+01
4.128648e+02	-3.020509e+01
4.152495e+02	-3.025397e+01
4.176480e+02	-3.030534e+01
4.200603e+02	-3.035039e+01
4.224866e+02	-3.040740e+01
4.249268e+02	-3.045720e+01
4.273812e+02	-3.050045e+01
4.298497e+02	-3.055302e+01
4.323325e+02	-3.060265e+01
4.348297e+02	-3.065522e+01
4.373412e+02	-3.070257e+01
4.398673e+02	-3.075377e+01
4.424079e+02	-3.080670e+01
4.449633e+02	-3.084867e+01
4.475334e+02	-3.090142e+01
4.501183e+02	-3.096184e+01
4.527182e+02	-3.100232e+01
4.553330e+02	-3.105649e+01
4.579630e+02	-3.111031e+01
4.606082e+02	-3.115468e+01
4.632687e+02	-3.120233e+01
4.659445e+02	-3.125683e+01
4.686358e+02	-3.130891e+01
4.713426e+02	-3.135829e+01
4.740650e+02	-3.140860e+01
4.768032e+02	-3.145584e+01
4.795572e+02	-3.150487e+01
4.823271e+02	-3.155645e+01
4.851130e+02	-3.161084e+01
4.879150e+02	-3.166176e+01
4.907332e+02	-3.170716e+01
4.935676e+02	-3.175356e+01
4.964185e+02	-3.180749e+01
4.992858e+02	-3.185517e+01
5.021696e+02	-3.190732e+01
5.050701e+02	-3.196316e+01
5.079874e+02	-3.200628e+01
5.109215e+02	-3.206185e+01
5.138726e+02	-3.210748e+01
5.168407e+02	-3.216592e+01
5.198259e+02	-3.220888e+01
5.228284e+02	-3.226219e+01
5.258482e+02	-3.230604e+01
5.288855e+02	-3.236385e+01
5.319403e+02	-3.241479e+01
5.350128e+02	-3.245489e+01
5.381030e+02	-3.250974e+01
5.412111e+02	-3.256679e+01
5.443371e+02	-3.260887e+01
5.474812e+02	-3.265741e+01
5.506434e+02	-3.272022e+01
5.538239e+02	-3.276876e+01
5.570228e+02	-3.281814e+01
5.602401e+02	-3.286782e+01
5.634760e+02	-3.291153e+01
5.667306e+02	-3.295518e+01
5.700040e+02	-3.301433e+01
5.732964e+02	-3.305896e+01
5.766077e+02	-3.311415e+01
5.799382e+02	-3.317489e+01
5.832879e+02	-3.321707e+01
5.866569e+02	-3.326782e+01
5.900454e+02	-3.332124e+01
5.934535e+02	-3.336801e+01
5.968813e+02	-3.341637e+01
6.003288e+02	-3.346450e+01
6.037963e+02	-3.351679e+01
6.072838e+02	-3.355623e+01
6.107914e+02	-3.361198e+01
6.143194e+02	-3.366863e+01
6.178676e+02	-3.371612e+01
6.214364e+02	-3.375864e+01
6.250258e+02	-3.381577e+01
6.286359e+02	-3.386698e+01
6.322669e+02	-3.392175e+01
6.359189e+02	-3.396952e+01
6.395919e+02	-3.401524e+01
6.432862e+02	-3.406476e+01
6.470017e+02	-3.411825e+01
6.507388e+02	-3.416581e+01
6.544974e+02	-3.422110e+01
6.582778e+02	-3.426565e+01
6.620800e+02	-3.432173e+01
6.659041e+02	-3.437402e+01
6.697504e+02	-3.441205e+01
6.736188e+02	-3.447349e+01
6.775096e+02	-3.451912e+01
6.814229e+02	-3.456859e+01
6.853587e+02	-3.461583e+01
6.893173e+02	-3.466786e+01
6.932988e+02	-3.471955e+01
6.973033e+02	-3.477338e+01
7.013309e+02	-3.481976e+01
