Frequency(Hz)	Magnitude(dB)
1.000000e+01	-2.188250e+00
1.005776e+01	-2.208077e+00
1.011585e+01	-2.228224e+00
1.017428e+01	-2.248236e+00
1.023305e+01	-2.268746e+00
1.029215e+01	-2.289082e+00
1.035160e+01	-2.309466e+00
1.041139e+01	-2.330223e+00
1.047153e+01	-2.351274e+00
1.053201e+01	-2.372149e+00
1.059284e+01	-2.393325e+00
1.065403e+01	-2.414611e+00
1.071556e+01	-2.435857e+00
1.077746e+01	-2.457409e+00
1.083971e+01	-2.479219e+00
1.090232e+01	-2.500981e+00
1.096529e+01	-2.522723e+00
1.102862e+01	-2.544962e+00
1.109232e+01	-2.567420e+00
1.115639e+01	-2.589589e+00
1.122083e+01	-2.612315e+00
1.128564e+01	-2.635054e+00
1.135083e+01	-2.657929e+00
1.141639e+01	-2.680766e+00
1.148233e+01	-2.703845e+00
1.154865e+01	-2.727104e+00
1.161536e+01	-2.750391e+00
1.168245e+01	-2.773899e+00
1.174992e+01	-2.797724e+00
1.181779e+01	-2.821545e+00
1.188605e+01	-2.845705e+00
1.195470e+01	-2.869515e+00
1.202375e+01	-2.893802e+00
1.209320e+01	-2.918438e+00
1.216305e+01	-2.942903e+00
1.223330e+01	-2.967427e+00
1.230396e+01	-2.992393e+00
1.237503e+01	-3.017604e+00
1.244651e+01	-3.042341e+00
1.251840e+01	-3.067726e+00
1.259070e+01	-3.093314e+00
1.266343e+01	-3.118631e+00
1.273657e+01	-3.144373e+00
1.281014e+01	-3.170214e+00
1.288413e+01	-3.196099e+00
1.295855e+01	-3.222407e+00
1.303339e+01	-3.248653e+00
1.310867e+01	-3.275253e+00
1.318439e+01	-3.301704e+00
1.326054e+01	-3.328382e+00
1.333713e+01	-3.355354e+00
1.341417e+01	-3.382107e+00
1.349165e+01	-3.409319e+00
1.356958e+01	-3.436907e+00
1.364795e+01	-3.463782e+00
1.372678e+01	-3.491627e+00
1.380607e+01	-3.519322e+00
1.388581e+01	-3.547459e+00
1.396602e+01	-3.575365e+00
1.404668e+01	-3.603100e+00
1.412782e+01	-3.631653e+00
1.420942e+01	-3.660159e+00
1.429149e+01	-3.688701e+00
1.437404e+01	-3.717426e+00
1.445706e+01	-3.746427e+00
1.454057e+01	-3.775252e+00
1.462455e+01	-3.804126e+00
1.470902e+01	-3.833457e+00
1.479398e+01	-3.862607e+00
1.487943e+01	-3.892659e+00
1.496537e+01	-3.921942e+00
1.505181e+01	-3.951821e+00
1.513875e+01	-3.982023e+00
1.522619e+01	-4.012010e+00
1.531414e+01	-4.042460e+00
1.540259e+01	-4.072639e+00
1.549156e+01	-4.103344e+00
1.558103e+01	-4.133669e+00
1.567103e+01	-4.164486e+00
1.576155e+01	-4.195696e+00
1.585258e+01	-4.226345e+00
1.594415e+01	-4.257440e+00
1.603624e+01	-4.289009e+00
1.612886e+01	-4.320271e+00
1.622202e+01	-4.352028e+00
1.631572e+01	-4.383631e+00
1.640996e+01	-4.415743e+00
1.650474e+01	-4.447736e+00
1.660008e+01	-4.479527e+00
1.669596e+01	-4.512159e+00
1.679239e+01	-4.544464e+00
1.688938e+01	-4.576978e+00
1.698694e+01	-4.609818e+00
1.708505e+01	-4.642481e+00
1.718373e+01	-4.675213e+00
1.728299e+01	-4.708325e+00
1.738281e+01	-4.741177e+00
1.748322e+01	-4.774754e+00
1.758420e+01	-4.808058e+00
1.768576e+01	-4.841839e+00
1.778792e+01	-4.875476e+00
1.789066e+01	-4.909444e+00
1.799399e+01	-4.943017e+00
1.809793e+01	-4.977224e+00
1.820246e+01	-5.011314e+00
1.830760e+01	-5.045825e+00
1.841334e+01	-5.080350e+00
1.851969e+01	-5.114991e+00
1.862666e+01	-5.149445e+00
1.873425e+01	-5.184225e+00
1.884246e+01	-5.219220e+00
1.895129e+01	-5.254263e+00
1.906075e+01	-5.289381e+00
1.917085e+01	-5.324528e+00
1.928158e+01	-5.360076e+00
1.939295e+01	-5.395600e+00
1.950496e+01	-5.431255e+00
1.961762e+01	-5.466615e+00
1.973093e+01	-5.502767e+00
1.984490e+01	-5.538853e+00
1.995952e+01	-5.575062e+00
2.007480e+01	-5.611188e+00
2.019076e+01	-5.647453e+00
2.030738e+01	-5.683710e+00
2.042467e+01	-5.720521e+00
2.054264e+01	-5.757087e+00
2.066130e+01	-5.794033e+00
2.078064e+01	-5.830792e+00
2.090066e+01	-5.868109e+00
2.102139e+01	-5.905138e+00
2.114280e+01	-5.942255e+00
2.126492e+01	-5.979209e+00
2.138775e+01	-6.017073e+00
2.151128e+01	-6.054703e+00
2.163553e+01	-6.092301e+00
2.176050e+01	-6.130025e+00
2.188619e+01	-6.168198e+00
2.201260e+01	-6.205858e+00
2.213974e+01	-6.243955e+00
2.226762e+01	-6.282090e+00
2.239624e+01	-6.320550e+00
2.252560e+01	-6.358971e+00
2.265571e+01	-6.397511e+00
2.278656e+01	-6.436154e+00
2.291818e+01	-6.474649e+00
2.305055e+01	-6.513546e+00
2.318369e+01	-6.552436e+00
2.331760e+01	-6.591424e+00
2.345228e+01	-6.630729e+00
2.358774e+01	-6.669949e+00
2.372398e+01	-6.709087e+00
2.386101e+01	-6.748555e+00
2.399883e+01	-6.787992e+00
2.413745e+01	-6.827442e+00
2.427686e+01	-6.867458e+00
2.441709e+01	-6.907214e+00
2.455812e+01	-6.947003e+00
2.469997e+01	-6.986975e+00
2.484263e+01	-7.026757e+00
2.498612e+01	-7.067238e+00
2.513044e+01	-7.107497e+00
2.527559e+01	-7.147922e+00
2.542158e+01	-7.188360e+00
2.556842e+01	-7.228088e+00
2.571610e+01	-7.269350e+00
2.586463e+01	-7.309921e+00
2.601403e+01	-7.351051e+00
2.616428e+01	-7.391511e+00
2.631541e+01	-7.432926e+00
2.646740e+01	-7.473429e+00
2.662028e+01	-7.515024e+00
2.677404e+01	-7.555606e+00
2.692868e+01	-7.597332e+00
2.708422e+01	-7.638608e+00
2.724066e+01	-7.679936e+00
2.739800e+01	-7.721544e+00
2.755625e+01	-7.763048e+00
2.771541e+01	-7.804852e+00
2.787550e+01	-7.846863e+00
2.803650e+01	-7.888786e+00
2.819844e+01	-7.930241e+00
2.836131e+01	-7.972502e+00
2.852513e+01	-8.014104e+00
2.868989e+01	-8.056573e+00
2.885560e+01	-8.098833e+00
2.902227e+01	-8.141278e+00
2.918990e+01	-8.183731e+00
2.935850e+01	-8.226021e+00
2.952807e+01	-8.268677e+00
2.969863e+01	-8.311172e+00
2.987016e+01	-8.353926e+00
3.004269e+01	-8.396576e+00
3.021622e+01	-8.439540e+00
3.039075e+01	-8.482749e+00
3.056628e+01	-8.525318e+00
3.074283e+01	-8.568650e+00
3.092040e+01	-8.611782e+00
3.109900e+01	-8.654700e+00
3.127862e+01	-8.697756e+00
3.145929e+01	-8.741149e+00
3.164099e+01	-8.784184e+00
3.182375e+01	-8.828146e+00
3.200756e+01	-8.871639e+00
3.219244e+01	-8.915189e+00
3.237838e+01	-8.958722e+00
3.256540e+01	-9.002572e+00
3.275349e+01	-9.045931e+00
3.294268e+01	-9.090089e+00
3.313295e+01	-9.134254e+00
3.332433e+01	-9.178067e+00
3.351681e+01	-9.221656e+00
3.371040e+01	-9.265781e+00
3.390511e+01	-9.310240e+00
3.410094e+01	-9.354276e+00
3.429791e+01	-9.398232e+00
3.449601e+01	-9.442888e+00
3.469526e+01	-9.487025e+00
3.489566e+01	-9.531684e+00
3.509721e+01	-9.576262e+00
3.529993e+01	-9.620291e+00
3.550382e+01	-9.665315e+00
3.570889e+01	-9.709969e+00
3.591515e+01	-9.754737e+00
3.612259e+01	-9.799403e+00
3.633123e+01	-9.844366e+00
3.654108e+01	-9.888962e+00
3.675214e+01	-9.933966e+00
3.696442e+01	-9.978699e+00
3.717792e+01	-1.002418e+01
3.739266e+01	-1.006899e+01
3.760864e+01	-1.011411e+01
3.782587e+01	-1.015960e+01
3.804435e+01	-1.020394e+01
3.826409e+01	-1.024980e+01
3.848510e+01	-1.029535e+01
3.870739e+01	-1.034104e+01
3.893096e+01	-1.038587e+01
3.915583e+01	-1.043152e+01
3.938199e+01	-1.047684e+01
3.960946e+01	-1.052214e+01
3.983824e+01	-1.056811e+01
4.006834e+01	-1.061423e+01
4.029978e+01	-1.065948e+01
4.053255e+01	-1.070496e+01
4.076666e+01	-1.075083e+01
4.100213e+01	-1.079728e+01
4.123896e+01	-1.084324e+01
4.147715e+01	-1.088846e+01
4.171672e+01	-1.093496e+01
4.195767e+01	-1.098031e+01
4.220002e+01	-1.102678e+01
4.244377e+01	-1.107337e+01
4.268892e+01	-1.111874e+01
4.293549e+01	-1.116534e+01
4.318348e+01	-1.121179e+01
4.343291e+01	-1.125769e+01
4.368377e+01	-1.130346e+01
4.393609e+01	-1.135066e+01
4.418986e+01	-1.139695e+01
4.444510e+01	-1.144302e+01
4.470182e+01	-1.148956e+01
4.496001e+01	-1.153631e+01
4.521970e+01	-1.158231e+01
4.548089e+01	-1.162947e+01
4.574358e+01	-1.167599e+01
4.600779e+01	-1.172249e+01
4.627353e+01	-1.176912e+01
4.654081e+01	-1.181552e+01
4.680963e+01	-1.186257e+01
4.708000e+01	-1.190928e+01
4.735193e+01	-1.195600e+01
4.762543e+01	-1.200292e+01
4.790051e+01	-1.204954e+01
4.817719e+01	-1.209693e+01
4.845545e+01	-1.214360e+01
4.873533e+01	-1.219066e+01
4.901682e+01	-1.223796e+01
4.929994e+01	-1.228461e+01
4.958470e+01	-1.233176e+01
4.987110e+01	-1.237907e+01
5.015915e+01	-1.242648e+01
5.044887e+01	-1.247369e+01
5.074026e+01	-1.252091e+01
5.103333e+01	-1.256785e+01
5.132810e+01	-1.261543e+01
5.162457e+01	-1.266244e+01
5.192275e+01	-1.270950e+01
5.222265e+01	-1.275670e+01
5.252429e+01	-1.280367e+01
5.282767e+01	-1.285196e+01
5.313280e+01	-1.289958e+01
5.343969e+01	-1.294706e+01
5.374836e+01	-1.299438e+01
5.405880e+01	-1.304197e+01
5.437105e+01	-1.308923e+01
5.468509e+01	-1.313648e+01
5.500095e+01	-1.318487e+01
5.531863e+01	-1.323236e+01
5.563815e+01	-1.328004e+01
5.595951e+01	-1.332712e+01
5.628273e+01	-1.337546e+01
5.660782e+01	-1.342366e+01
5.693479e+01	-1.347106e+01
5.726364e+01	-1.351907e+01
5.759439e+01	-1.356598e+01
5.792705e+01	-1.361392e+01
5.826164e+01	-1.366185e+01
5.859815e+01	-1.370963e+01
5.893662e+01	-1.375717e+01
5.927703e+01	-1.380630e+01
5.961941e+01	-1.385361e+01
5.996377e+01	-1.390125e+01
6.031012e+01	-1.395056e+01
6.065847e+01	-1.399815e+01
6.100883e+01	-1.404556e+01
6.136121e+01	-1.409361e+01
6.171563e+01	-1.414217e+01
6.207210e+01	-1.418984e+01
6.243063e+01	-1.423802e+01
6.279122e+01	-1.428600e+01
6.315390e+01	-1.433458e+01
6.351868e+01	-1.438245e+01
6.388556e+01	-1.443137e+01
6.425456e+01	-1.448003e+01
6.462569e+01	-1.452790e+01
6.499897e+01	-1.457599e+01
6.537440e+01	-1.462429e+01
6.575200e+01	-1.467220e+01
6.613178e+01	-1.472122e+01
6.651375e+01	-1.476882e+01
6.689793e+01	-1.481798e+01
6.728433e+01	-1.486584e+01
6.767297e+01	-1.491492e+01
6.806384e+01	-1.496289e+01
6.845698e+01	-1.501108e+01
6.885238e+01	-1.506007e+01
6.925007e+01	-1.510774e+01
6.965005e+01	-1.515589e+01
7.005235e+01	-1.520475e+01
7.045697e+01	-1.525309e+01
7.086393e+01	-1.530164e+01
7.127323e+01	-1.535014e+01
7.168490e+01	-1.539936e+01
7.209895e+01	-1.544778e+01
7.251539e+01	-1.549680e+01
7.293424e+01	-1.554474e+01
7.335551e+01	-1.559380e+01
7.377920e+01	-1.564263e+01
7.420535e+01	-1.568972e+01
7.463396e+01	-1.573947e+01
7.506504e+01	-1.578846e+01
7.549861e+01	-1.583763e+01
7.593469e+01	-1.588518e+01
7.637328e+01	-1.593526e+01
7.681441e+01	-1.598287e+01
7.725809e+01	-1.603143e+01
7.770433e+01	-1.608186e+01
7.815315e+01	-1.612974e+01
7.860456e+01	-1.617891e+01
7.905857e+01	-1.622749e+01
7.951521e+01	-1.627635e+01
7.997449e+01	-1.632562e+01
8.043642e+01	-1.637470e+01
8.090102e+01	-1.642361e+01
8.136830e+01	-1.647220e+01
8.183828e+01	-1.652137e+01
8.231097e+01	-1.656942e+01
8.278640e+01	-1.661873e+01
8.326457e+01	-1.666803e+01
8.374550e+01	-1.671668e+01
8.422921e+01	-1.676527e+01
8.471572e+01	-1.681367e+01
8.520503e+01	-1.686426e+01
8.569717e+01	-1.691328e+01
8.619215e+01	-1.696154e+01
8.669000e+01	-1.701046e+01
8.719071e+01	-1.705801e+01
8.769432e+01	-1.710843e+01
8.820084e+01	-1.715747e+01
8.871029e+01	-1.720588e+01
8.922267e+01	-1.725607e+01
8.973802e+01	-1.730413e+01
9.025634e+01	-1.735386e+01
9.077766e+01	-1.740383e+01
9.130199e+01	-1.745254e+01
9.182935e+01	-1.750098e+01
9.235975e+01	-1.755004e+01
9.289321e+01	-1.759978e+01
9.342976e+01	-1.764919e+01
9.396941e+01	-1.769814e+01
9.451217e+01	-1.774652e+01
9.505807e+01	-1.779655e+01
9.560712e+01	-1.784635e+01
9.615934e+01	-1.789540e+01
9.671476e+01	-1.794344e+01
9.727338e+01	-1.799378e+01
9.783522e+01	-1.804169e+01
9.840032e+01	-1.809152e+01
9.896867e+01	-1.813989e+01
9.954031e+01	-1.818890e+01
1.001153e+02	-1.823915e+01
1.006935e+02	-1.828859e+01
1.012751e+02	-1.833792e+01
1.018601e+02	-1.838707e+01
1.024484e+02	-1.843624e+01
1.030402e+02	-1.848693e+01
1.036353e+02	-1.853442e+01
1.042339e+02	-1.858458e+01
1.048360e+02	-1.863374e+01
1.054415e+02	-1.868450e+01
1.060505e+02	-1.873332e+01
1.066631e+02	-1.878258e+01
1.072791e+02	-1.883205e+01
1.078988e+02	-1.888019e+01
1.085220e+02	-1.893044e+01
1.091488e+02	-1.897869e+01
1.097793e+02	-1.902752e+01
1.104133e+02	-1.907730e+01
1.110511e+02	-1.912741e+01
1.116925e+02	-1.917692e+01
1.123376e+02	-1.922794e+01
1.129865e+02	-1.927643e+01
1.136391e+02	-1.932497e+01
1.142955e+02	-1.937538e+01
1.149556e+02	-1.942401e+01
1.156196e+02	-1.947361e+01
1.162874e+02	-1.952213e+01
1.169591e+02	-1.957379e+01
1.176347e+02	-1.962343e+01
1.183141e+02	-1.967313e+01
1.189975e+02	-1.972164e+01
1.196848e+02	-1.977139e+01
1.203761e+02	-1.982089e+01
1.210714e+02	-1.987006e+01
1.217707e+02	-1.991704e+01
1.224740e+02	-1.996855e+01
1.231814e+02	-2.001720e+01
1.238929e+02	-2.006795e+01
1.246085e+02	-2.011829e+01
1.253283e+02	-2.016657e+01
1.260522e+02	-2.021796e+01
1.267802e+02	-2.026690e+01
1.275125e+02	-2.031558e+01
1.282490e+02	-2.036618e+01
1.289898e+02	-2.041577e+01
1.297348e+02	-2.046628e+01
1.304842e+02	-2.051453e+01
1.312378e+02	-2.056604e+01
1.319959e+02	-2.061439e+01
1.327583e+02	-2.066434e+01
1.335251e+02	-2.071406e+01
1.342963e+02	-2.076359e+01
1.350720e+02	-2.081265e+01
1.358522e+02	-2.086153e+01
1.366368e+02	-2.091109e+01
1.374260e+02	-2.095965e+01
1.382198e+02	-2.101083e+01
1.390182e+02	-2.105916e+01
1.398211e+02	-2.111135e+01
1.406287e+02	-2.115966e+01
1.414410e+02	-2.120775e+01
1.422579e+02	-2.125817e+01
1.430796e+02	-2.130796e+01
1.439060e+02	-2.135829e+01
1.447372e+02	-2.140731e+01
1.455732e+02	-2.145765e+01
1.464141e+02	-2.150783e+01
1.472597e+02	-2.155483e+01
1.481103e+02	-2.160662e+01
1.489658e+02	-2.165695e+01
1.498262e+02	-2.170700e+01
1.506916e+02	-2.175503e+01
1.515620e+02	-2.180582e+01
1.524374e+02	-2.185453e+01
1.533179e+02	-2.190601e+01
1.542034e+02	-2.195286e+01
1.550941e+02	-2.200411e+01
1.559899e+02	-2.205430e+01
1.568909e+02	-2.210480e+01
1.577971e+02	-2.215218e+01
1.587085e+02	-2.220338e+01
1.596252e+02	-2.225415e+01
1.605472e+02	-2.230216e+01
1.614745e+02	-2.235136e+01
1.624072e+02	-2.240315e+01
1.633453e+02	-2.245221e+01
1.642887e+02	-2.250238e+01
1.652377e+02	-2.255042e+01
1.661921e+02	-2.260052e+01
1.671520e+02	-2.265158e+01
1.681175e+02	-2.270121e+01
1.690885e+02	-2.275019e+01
1.700651e+02	-2.279959e+01
1.710474e+02	-2.285123e+01
1.720354e+02	-2.289896e+01
1.730291e+02	-2.294974e+01
1.740285e+02	-2.300161e+01
1.750337e+02	-2.304901e+01
1.760446e+02	-2.309985e+01
1.770615e+02	-2.314779e+01
1.780842e+02	-2.319570e+01
1.791128e+02	-2.324934e+01
1.801473e+02	-2.329840e+01
1.811878e+02	-2.334663e+01
1.822344e+02	-2.339885e+01
1.832870e+02	-2.344938e+01
1.843456e+02	-2.349890e+01
1.854104e+02	-2.354837e+01
1.864813e+02	-2.359824e+01
1.875584e+02	-2.364758e+01
1.886418e+02	-2.369694e+01
1.897313e+02	-2.375034e+01
1.908272e+02	-2.379686e+01
1.919294e+02	-2.384797e+01
1.930380e+02	-2.389704e+01
1.941530e+02	-2.394572e+01
1.952744e+02	-2.399718e+01
1.964023e+02	-2.404585e+01
1.975367e+02	-2.409637e+01
1.986777e+02	-2.414704e+01
1.998252e+02	-2.419575e+01
2.009794e+02	-2.424653e+01
2.021403e+02	-2.429337e+01
2.033078e+02	-2.434527e+01
2.044821e+02	-2.439647e+01
2.056632e+02	-2.444435e+01
2.068511e+02	-2.449051e+01
2.080459e+02	-2.454435e+01
2.092475e+02	-2.459473e+01
2.104561e+02	-2.464439e+01
2.116717e+02	-2.469520e+01
2.128943e+02	-2.474412e+01
2.141240e+02	-2.479357e+01
2.153608e+02	-2.484757e+01
2.166047e+02	-2.489488e+01
2.178558e+02	-2.494413e+01
2.191141e+02	-2.499256e+01
2.203797e+02	-2.504252e+01
2.216526e+02	-2.509431e+01
2.229329e+02	-2.514214e+01
2.242205e+02	-2.519518e+01
2.255156e+02	-2.524193e+01
2.268182e+02	-2.529562e+01
2.281283e+02	-2.534464e+01
2.294459e+02	-2.539133e+01
2.307712e+02	-2.544271e+01
2.321041e+02	-2.549308e+01
2.334447e+02	-2.554030e+01
2.347931e+02	-2.559279e+01
2.361493e+02	-2.564217e+01
2.375133e+02	-2.569192e+01
2.388851e+02	-2.574066e+01
2.402649e+02	-2.579208e+01
2.416527e+02	-2.584589e+01
2.430484e+02	-2.589298e+01
2.444523e+02	-2.594605e+01
2.458642e+02	-2.599171e+01
2.472843e+02	-2.604107e+01
2.487126e+02	-2.609401e+01
2.501492e+02	-2.614218e+01
2.515940e+02	-2.619123e+01
2.530472e+02	-2.624516e+01
2.545088e+02	-2.629297e+01
2.559789e+02	-2.634238e+01
2.574574e+02	-2.639067e+01
2.589444e+02	-2.643999e+01
2.604401e+02	-2.649294e+01
2.619444e+02	-2.654126e+01
2.634574e+02	-2.658989e+01
2.649791e+02	-2.663986e+01
2.665096e+02	-2.669107e+01
2.680489e+02	-2.674694e+01
2.695972e+02	-2.679256e+01
2.711544e+02	-2.683801e+01
2.727205e+02	-2.688923e+01
2.742958e+02	-2.694313e+01
2.758801e+02	-2.699263e+01
2.774736e+02	-2.704514e+01
2.790762e+02	-2.709322e+01
2.806882e+02	-2.714305e+01
2.823094e+02	-2.718932e+01
2.839400e+02	-2.724248e+01
2.855800e+02	-2.728760e+01
2.872295e+02	-2.734328e+01
2.888886e+02	-2.739249e+01
2.905572e+02	-2.743855e+01
2.922354e+02	-2.749035e+01
2.939234e+02	-2.754123e+01
2.956211e+02	-2.759154e+01
2.973286e+02	-2.764158e+01
2.990459e+02	-2.768940e+01
3.007732e+02	-2.773994e+01
3.025104e+02	-2.779354e+01
3.042577e+02	-2.784494e+01
3.060151e+02	-2.789396e+01
3.077826e+02	-2.794202e+01
3.095604e+02	-2.799182e+01
3.113484e+02	-2.804138e+01
3.131467e+02	-2.809265e+01
3.149554e+02	-2.813966e+01
3.167746e+02	-2.819091e+01
3.186043e+02	-2.823925e+01
3.204445e+02	-2.829002e+01
3.222954e+02	-2.834750e+01
3.241570e+02	-2.839258e+01
3.260293e+02	-2.844325e+01
3.279124e+02	-2.848774e+01
3.298064e+02	-2.854270e+01
3.317114e+02	-2.859159e+01
3.336273e+02	-2.864145e+01
3.355544e+02	-2.868896e+01
3.374925e+02	-2.873850e+01
3.394418e+02	-2.878912e+01
3.414024e+02	-2.884521e+01
3.433744e+02	-2.889317e+01
3.453577e+02	-2.894238e+01
3.473525e+02	-2.899610e+01
3.493588e+02	-2.904726e+01
3.513766e+02	-2.909178e+01
3.534062e+02	-2.914313e+01
3.554474e+02	-2.919466e+01
3.575005e+02	-2.923959e+01
3.595654e+02	-2.929334e+01
3.616422e+02	-2.934641e+01
3.637311e+02	-2.938946e+01
3.658320e+02	-2.944399e+01
3.679450e+02	-2.949771e+01
3.700702e+02	-2.953802e+01
3.722077e+02	-2.959189e+01
3.743576e+02	-2.964175e+01
3.765199e+02	-2.968942e+01
3.786946e+02	-2.974394e+01
3.808820e+02	-2.979480e+01
3.830819e+02	-2.984753e+01
3.852946e+02	-2.989650e+01
3.875200e+02	-2.994043e+01
3.897583e+02	-2.999315e+01
3.920096e+02	-3.004279e+01
3.942738e+02	-3.009325e+01
3.965511e+02	-3.014407e+01
3.988416e+02	-3.018833e+01
4.011452e+02	-3.025027e+01
4.034622e+02	-3.029485e+01
4.057926e+02	-3.034828e+01
4.081365e+02	-3.039513e+01
4.104938e+02	-3.044577e+01
4.128648e+02	-3.049482e+01
4.152495e+02	-3.054310e+01
4.176480e+02	-3.059672e+01
4.200603e+02	-3.064626e+01
4.224866e+02	-3.069437e+01
4.249268e+02	-3.073969e+01
4.273812e+02	-3.080058e+01
4.298497e+02	-3.085161e+01
4.323325e+02	-3.089593e+01
4.348297e+02	-3.094462e+01
4.373412e+02	-3.099543e+01
4.398673e+02	-3.104631e+01
4.424079e+02	-3.109708e+01
4.449633e+02	-3.114733e+01
4.475334e+02	-3.120255e+01
4.501183e+02	-3.124193e+01
4.527182e+02	-3.129566e+01
4.553330e+02	-3.134683e+01
4.579630e+02	-3.139668e+01
4.606082e+02	-3.144642e+01
4.632687e+02	-3.149571e+01
4.659445e+02	-3.154630e+01
4.686358e+02	-3.159888e+01
4.713426e+02	-3.164364e+01
4.740650e+02	-3.169689e+01
4.768032e+02	-3.175522e+01
4.795572e+02	-3.179424e+01
4.823271e+02	-3.185276e+01
4.851130e+02	-3.189864e+01
4.879150e+02	-3.194666e+01
4.907332e+02	-3.199785e+01
4.935676e+02	-3.204523e+01
4.964185e+02	-3.210052e+01
4.992858e+02	-3.215094e+01
5.021696e+02	-3.220260e+01
5.050701e+02	-3.225828e+01
5.079874e+02	-3.229983e+01
5.109215e+02	-3.234859e+01
5.138726e+02	-3.240101e+01
5.168407e+02	-3.245129e+01
5.198259e+02	-3.250230e+01
5.228284e+02	-3.255531e+01
5.258482e+02	-3.260034e+01
5.288855e+02	-3.265196e+01
5.319403e+02	-3.270468e+01
5.350128e+02	-3.276074e+01
5.381030e+02	-3.280086e+01
5.412111e+02	-3.285660e+01
5.443371e+02	-3.290211e+01
5.474812e+02	-3.296058e+01
5.506434e+02	-3.300653e+01
5.538239e+02	-3.305967e+01
5.570228e+02	-3.310239e+01
5.602401e+02	-3.315984e+01
5.634760e+02	-3.321395e+01
5.667306e+02	-3.326267e+01
5.700040e+02	-3.330771e+01
5.732964e+02	-3.335172e+01
5.766077e+02	-3.340057e+01
5.799382e+02	-3.345572e+01
5.832879e+02	-3.351355e+01
5.866569e+02	-3.355548e+01
5.900454e+02	-3.360703e+01
5.934535e+02	-3.365890e+01
5.968813e+02	-3.370904e+01
6.003288e+02	-3.375606e+01
6.037963e+02	-3.381551e+01
6.072838e+02	-3.386232e+01
6.107914e+02	-3.391121e+01
6.143194e+02	-3.395351e+01
6.178676e+02	-3.401742e+01
6.214364e+02	-3.407149e+01
6.250258e+02	-3.410906e+01
6.286359e+02	-3.415599e+01
6.322669e+02	-3.420679e+01
6.359189e+02	-3.426894e+01
6.395919e+02	-3.432056e+01
6.432862e+02	-3.436384e+01
6.470017e+02	-3.440246e+01
6.507388e+02	-3.445855e+01
6.544974e+02	-3.451582e+01
6.582778e+02	-3.456786e+01
6.620800e+02	-3.460884e+01
6.659041e+02	-3.467402e+01
6.697504e+02	-3.471036e+01
6.736188e+02	-3.476386e+01
6.775096e+02	-3.481982e+01
6.814229e+02	-3.486794e+01
6.853587e+02	-3.492153e+01
6.893173e+02	-3.497618e+01
6.932988e+02	-3.501232e+01
6.973033e+02	-3.507099e+01
7.013309e+02	-3.511331e+01
