Frequency(Hz)	Magnitude(dB)
1.000000e+01	-1.613184e-05
1.005776e+01	-1.631873e-05
1.011585e+01	-1.650779e-05
1.017428e+01	-1.669903e-05
1.023305e+01	-1.689250e-05
1.029215e+01	-1.708820e-05
1.035160e+01	-1.728617e-05
1.041139e+01	-1.748644e-05
1.047153e+01	-1.768902e-05
1.053201e+01	-1.789395e-05
1.059284e+01	-1.810126e-05
1.065403e+01	-1.831097e-05
1.071556e+01	-1.852310e-05
1.077746e+01	-1.873770e-05
1.083971e+01	-1.895478e-05
1.090232e+01	-1.917438e-05
1.096529e+01	-1.939652e-05
1.102862e+01	-1.962123e-05
1.109232e+01	-1.984855e-05
1.115639e+01	-2.007850e-05
1.122083e+01	-2.031111e-05
1.128564e+01	-2.054642e-05
1.135083e+01	-2.078446e-05
1.141639e+01	-2.102525e-05
1.148233e+01	-2.126883e-05
1.154865e+01	-2.151524e-05
1.161536e+01	-2.176450e-05
1.168245e+01	-2.201664e-05
1.174992e+01	-2.227171e-05
1.181779e+01	-2.252974e-05
1.188605e+01	-2.279075e-05
1.195470e+01	-2.305478e-05
1.202375e+01	-2.332188e-05
1.209320e+01	-2.359207e-05
1.216305e+01	-2.386539e-05
1.223330e+01	-2.414188e-05
1.230396e+01	-2.442157e-05
1.237503e+01	-2.470450e-05
1.244651e+01	-2.499070e-05
1.251840e+01	-2.528023e-05
1.259070e+01	-2.557310e-05
1.266343e+01	-2.586937e-05
1.273657e+01	-2.616908e-05
1.281014e+01	-2.647225e-05
1.288413e+01	-2.677894e-05
1.295855e+01	-2.708918e-05
1.303339e+01	-2.740302e-05
1.310867e+01	-2.772049e-05
1.318439e+01	-2.804163e-05
1.326054e+01	-2.836650e-05
1.333713e+01	-2.869514e-05
1.341417e+01	-2.902758e-05
1.349165e+01	-2.936387e-05
1.356958e+01	-2.970406e-05
1.364795e+01	-3.004818e-05
1.372678e+01	-3.039630e-05
1.380607e+01	-3.074845e-05
1.388581e+01	-3.110468e-05
1.396602e+01	-3.146503e-05
1.404668e+01	-3.182956e-05
1.412782e+01	-3.219831e-05
1.420942e+01	-3.257134e-05
1.429149e+01	-3.294869e-05
1.437404e+01	-3.333040e-05
1.445706e+01	-3.371655e-05
1.454057e+01	-3.410716e-05
1.462455e+01	-3.450230e-05
1.470902e+01	-3.490202e-05
1.479398e+01	-3.530636e-05
1.487943e+01	-3.571540e-05
1.496537e+01	-3.612917e-05
1.505181e+01	-3.654773e-05
1.513875e+01	-3.697115e-05
1.522619e+01	-3.739947e-05
1.531414e+01	-3.783275e-05
1.540259e+01	-3.827105e-05
1.549156e+01	-3.871443e-05
1.558103e+01	-3.916294e-05
1.567103e+01	-3.961665e-05
1.576155e+01	-4.007562e-05
1.585258e+01	-4.053991e-05
1.594415e+01	-4.100957e-05
1.603624e+01	-4.148468e-05
1.612886e+01	-4.196528e-05
1.622202e+01	-4.245146e-05
1.631572e+01	-4.294327e-05
1.640996e+01	-4.344078e-05
1.650474e+01	-4.394405e-05
1.660008e+01	-4.445315e-05
1.669596e+01	-4.496815e-05
1.679239e+01	-4.548912e-05
1.688938e+01	-4.601612e-05
1.698694e+01	-4.654922e-05
1.708505e+01	-4.708851e-05
1.718373e+01	-4.763404e-05
1.728299e+01	-4.818589e-05
1.738281e+01	-4.874413e-05
1.748322e+01	-4.930884e-05
1.758420e+01	-4.988010e-05
1.768576e+01	-5.045797e-05
1.778792e+01	-5.104254e-05
1.789066e+01	-5.163387e-05
1.799399e+01	-5.223206e-05
1.809793e+01	-5.283718e-05
1.820246e+01	-5.344931e-05
1.830760e+01	-5.406853e-05
1.841334e+01	-5.469493e-05
1.851969e+01	-5.532858e-05
1.862666e+01	-5.596957e-05
1.873425e+01	-5.661799e-05
1.884246e+01	-5.727392e-05
1.895129e+01	-5.793745e-05
1.906075e+01	-5.860867e-05
1.917085e+01	-5.928766e-05
1.928158e+01	-5.997452e-05
1.939295e+01	-6.066934e-05
1.950496e+01	-6.137221e-05
1.961762e+01	-6.208322e-05
1.973093e+01	-6.280246e-05
1.984490e+01	-6.353004e-05
1.995952e+01	-6.426605e-05
2.007480e+01	-6.501058e-05
2.019076e+01	-6.576374e-05
2.030738e+01	-6.652563e-05
2.042467e+01	-6.729634e-05
2.054264e+01	-6.807598e-05
2.066130e+01	-6.886465e-05
2.078064e+01	-6.966246e-05
2.090066e+01	-7.046952e-05
2.102139e+01	-7.128592e-05
2.114280e+01	-7.211178e-05
2.126492e+01	-7.294721e-05
2.138775e+01	-7.379232e-05
2.151128e+01	-7.464721e-05
2.163553e+01	-7.551201e-05
2.176050e+01	-7.638683e-05
2.188619e+01	-7.727179e-05
2.201260e+01	-7.816700e-05
2.213974e+01	-7.907257e-05
2.226762e+01	-7.998864e-05
2.239624e+01	-8.091533e-05
2.252560e+01	-8.185274e-05
2.265571e+01	-8.280102e-05
2.278656e+01	-8.376029e-05
2.291818e+01	-8.473066e-05
2.305055e+01	-8.571228e-05
2.318369e+01	-8.670527e-05
2.331760e+01	-8.770977e-05
2.345228e+01	-8.872590e-05
2.358774e+01	-8.975380e-05
2.372398e+01	-9.079361e-05
2.386101e+01	-9.184547e-05
2.399883e+01	-9.290952e-05
2.413745e+01	-9.398589e-05
2.427686e+01	-9.507473e-05
2.441709e+01	-9.617618e-05
2.455812e+01	-9.729040e-05
2.469997e+01	-9.841752e-05
2.484263e+01	-9.955770e-05
2.498612e+01	-1.007111e-04
2.513044e+01	-1.018778e-04
2.527559e+01	-1.030581e-04
2.542158e+01	-1.042521e-04
2.556842e+01	-1.054598e-04
2.571610e+01	-1.066816e-04
2.586463e+01	-1.079175e-04
2.601403e+01	-1.091678e-04
2.616428e+01	-1.104325e-04
2.631541e+01	-1.117119e-04
2.646740e+01	-1.130061e-04
2.662028e+01	-1.143152e-04
2.677404e+01	-1.156396e-04
2.692868e+01	-1.169793e-04
2.708422e+01	-1.183345e-04
2.724066e+01	-1.197054e-04
2.739800e+01	-1.210922e-04
2.755625e+01	-1.224951e-04
2.771541e+01	-1.239142e-04
2.787550e+01	-1.253498e-04
2.803650e+01	-1.268020e-04
2.819844e+01	-1.282710e-04
2.836131e+01	-1.297570e-04
2.852513e+01	-1.312603e-04
2.868989e+01	-1.327809e-04
2.885560e+01	-1.343192e-04
2.902227e+01	-1.358753e-04
2.918990e+01	-1.374494e-04
2.935850e+01	-1.390418e-04
2.952807e+01	-1.406526e-04
2.969863e+01	-1.422821e-04
2.987016e+01	-1.439304e-04
3.004269e+01	-1.455979e-04
3.021622e+01	-1.472847e-04
3.039075e+01	-1.489910e-04
3.056628e+01	-1.507170e-04
3.074283e+01	-1.524631e-04
3.092040e+01	-1.542294e-04
3.109900e+01	-1.560162e-04
3.127862e+01	-1.578236e-04
3.145929e+01	-1.596520e-04
3.164099e+01	-1.615016e-04
3.182375e+01	-1.633726e-04
3.200756e+01	-1.652653e-04
3.219244e+01	-1.671799e-04
3.237838e+01	-1.691167e-04
3.256540e+01	-1.710759e-04
3.275349e+01	-1.730578e-04
3.294268e+01	-1.750627e-04
3.313295e+01	-1.770908e-04
3.332433e+01	-1.791424e-04
3.351681e+01	-1.812178e-04
3.371040e+01	-1.833172e-04
3.390511e+01	-1.854409e-04
3.410094e+01	-1.875893e-04
3.429791e+01	-1.897625e-04
3.449601e+01	-1.919609e-04
3.469526e+01	-1.941848e-04
3.489566e+01	-1.964344e-04
3.509721e+01	-1.987101e-04
3.529993e+01	-2.010122e-04
3.550382e+01	-2.033409e-04
3.570889e+01	-2.056966e-04
3.591515e+01	-2.080796e-04
3.612259e+01	-2.104902e-04
3.633123e+01	-2.129287e-04
3.654108e+01	-2.153955e-04
3.675214e+01	-2.178909e-04
3.696442e+01	-2.204151e-04
3.717792e+01	-2.229686e-04
3.739266e+01	-2.255517e-04
3.760864e+01	-2.281647e-04
3.782587e+01	-2.308080e-04
3.804435e+01	-2.334819e-04
3.826409e+01	-2.361868e-04
3.848510e+01	-2.389230e-04
3.870739e+01	-2.416909e-04
3.893096e+01	-2.444909e-04
3.915583e+01	-2.473233e-04
3.938199e+01	-2.501885e-04
3.960946e+01	-2.530870e-04
3.983824e+01	-2.560189e-04
4.006834e+01	-2.589849e-04
4.029978e+01	-2.619852e-04
4.053255e+01	-2.650203e-04
4.076666e+01	-2.680905e-04
4.100213e+01	-2.711964e-04
4.123896e+01	-2.743381e-04
4.147715e+01	-2.775163e-04
4.171672e+01	-2.807313e-04
4.195767e+01	-2.839836e-04
4.220002e+01	-2.872735e-04
4.244377e+01	-2.906015e-04
4.268892e+01	-2.939681e-04
4.293549e+01	-2.973737e-04
4.318348e+01	-3.008187e-04
4.343291e+01	-3.043037e-04
4.368377e+01	-3.078290e-04
4.393609e+01	-3.113951e-04
4.418986e+01	-3.150026e-04
4.444510e+01	-3.186519e-04
4.470182e+01	-3.223434e-04
4.496001e+01	-3.260777e-04
4.521970e+01	-3.298553e-04
4.548089e+01	-3.336766e-04
4.574358e+01	-3.375422e-04
4.600779e+01	-3.414525e-04
4.627353e+01	-3.454082e-04
4.654081e+01	-3.494097e-04
4.680963e+01	-3.534575e-04
4.708000e+01	-3.575523e-04
4.735193e+01	-3.616944e-04
4.762543e+01	-3.658846e-04
4.790051e+01	-3.701233e-04
4.817719e+01	-3.744111e-04
4.845545e+01	-3.787485e-04
4.873533e+01	-3.831363e-04
4.901682e+01	-3.875748e-04
4.929994e+01	-3.920648e-04
4.958470e+01	-3.966067e-04
4.987110e+01	-4.012013e-04
5.015915e+01	-4.058491e-04
5.044887e+01	-4.105508e-04
5.074026e+01	-4.153069e-04
5.103333e+01	-4.201181e-04
5.132810e+01	-4.249851e-04
5.162457e+01	-4.299084e-04
5.192275e+01	-4.348887e-04
5.222265e+01	-4.399268e-04
5.252429e+01	-4.450232e-04
5.282767e+01	-4.501787e-04
5.313280e+01	-4.553938e-04
5.343969e+01	-4.606694e-04
5.374836e+01	-4.660061e-04
5.405880e+01	-4.714046e-04
5.437105e+01	-4.768657e-04
5.468509e+01	-4.823900e-04
5.500095e+01	-4.879783e-04
5.531863e+01	-4.936313e-04
5.563815e+01	-4.993499e-04
5.595951e+01	-5.051346e-04
5.628273e+01	-5.109864e-04
5.660782e+01	-5.169060e-04
5.693479e+01	-5.228941e-04
5.726364e+01	-5.289516e-04
5.759439e+01	-5.350793e-04
5.792705e+01	-5.412780e-04
5.826164e+01	-5.475484e-04
5.859815e+01	-5.538915e-04
5.893662e+01	-5.603081e-04
5.927703e+01	-5.667990e-04
5.961941e+01	-5.733651e-04
5.996377e+01	-5.800072e-04
6.031012e+01	-5.867263e-04
6.065847e+01	-5.935232e-04
6.100883e+01	-6.003989e-04
6.136121e+01	-6.073542e-04
6.171563e+01	-6.143901e-04
6.207210e+01	-6.215074e-04
6.243063e+01	-6.287072e-04
6.279122e+01	-6.359905e-04
6.315390e+01	-6.433580e-04
6.351868e+01	-6.508110e-04
6.388556e+01	-6.583502e-04
6.425456e+01	-6.659768e-04
6.462569e+01	-6.736917e-04
6.499897e+01	-6.814960e-04
6.537440e+01	-6.893907e-04
6.575200e+01	-6.973768e-04
6.613178e+01	-7.054555e-04
6.651375e+01	-7.136277e-04
6.689793e+01	-7.218946e-04
6.728433e+01	-7.302572e-04
6.767297e+01	-7.387168e-04
6.806384e+01	-7.472743e-04
6.845698e+01	-7.559309e-04
6.885238e+01	-7.646878e-04
6.925007e+01	-7.735461e-04
6.965005e+01	-7.825070e-04
7.005235e+01	-7.915718e-04
7.045697e+01	-8.007415e-04
7.086393e+01	-8.100174e-04
7.127323e+01	-8.194008e-04
7.168490e+01	-8.288929e-04
7.209895e+01	-8.384949e-04
7.251539e+01	-8.482082e-04
7.293424e+01	-8.580339e-04
7.335551e+01	-8.679735e-04
7.377920e+01	-8.780282e-04
7.420535e+01	-8.881993e-04
7.463396e+01	-8.984883e-04
7.506504e+01	-9.088965e-04
7.549861e+01	-9.194252e-04
7.593469e+01	-9.300758e-04
7.637328e+01	-9.408498e-04
7.681441e+01	-9.517486e-04
7.725809e+01	-9.627737e-04
7.770433e+01	-9.739264e-04
7.815315e+01	-9.852083e-04
7.860456e+01	-9.966209e-04
7.905857e+01	-1.008166e-03
7.951521e+01	-1.019844e-03
7.997449e+01	-1.031658e-03
8.043642e+01	-1.043609e-03
8.090102e+01	-1.055698e-03
8.136830e+01	-1.067927e-03
8.183828e+01	-1.080297e-03
8.231097e+01	-1.092811e-03
8.278640e+01	-1.105470e-03
8.326457e+01	-1.118276e-03
8.374550e+01	-1.131230e-03
8.422921e+01	-1.144333e-03
8.471572e+01	-1.157589e-03
8.520503e+01	-1.170998e-03
8.569717e+01	-1.184563e-03
8.619215e+01	-1.198284e-03
8.669000e+01	-1.212165e-03
8.719071e+01	-1.226206e-03
8.769432e+01	-1.240410e-03
8.820084e+01	-1.254778e-03
8.871029e+01	-1.269313e-03
8.922267e+01	-1.284016e-03
8.973802e+01	-1.298890e-03
9.025634e+01	-1.313936e-03
9.077766e+01	-1.329156e-03
9.130199e+01	-1.344552e-03
9.182935e+01	-1.360126e-03
9.235975e+01	-1.375881e-03
9.289321e+01	-1.391819e-03
9.342976e+01	-1.407941e-03
9.396941e+01	-1.424249e-03
9.451217e+01	-1.440747e-03
9.505807e+01	-1.457436e-03
9.560712e+01	-1.474318e-03
9.615934e+01	-1.491395e-03
9.671476e+01	-1.508670e-03
9.727338e+01	-1.526145e-03
9.783522e+01	-1.543823e-03
9.840032e+01	-1.561706e-03
9.896867e+01	-1.579795e-03
9.954031e+01	-1.598094e-03
1.001153e+02	-1.616605e-03
1.006935e+02	-1.635330e-03
1.012751e+02	-1.654272e-03
1.018601e+02	-1.673434e-03
1.024484e+02	-1.692817e-03
1.030402e+02	-1.712425e-03
1.036353e+02	-1.732260e-03
1.042339e+02	-1.752325e-03
1.048360e+02	-1.772622e-03
1.054415e+02	-1.793154e-03
1.060505e+02	-1.813924e-03
1.066631e+02	-1.834934e-03
1.072791e+02	-1.856188e-03
1.078988e+02	-1.877687e-03
1.085220e+02	-1.899436e-03
1.091488e+02	-1.921437e-03
1.097793e+02	-1.943692e-03
1.104133e+02	-1.966205e-03
1.110511e+02	-1.988979e-03
1.116925e+02	-2.012016e-03
1.123376e+02	-2.035321e-03
1.129865e+02	-2.058895e-03
1.136391e+02	-2.082742e-03
1.142955e+02	-2.106865e-03
1.149556e+02	-2.131268e-03
1.156196e+02	-2.155953e-03
1.162874e+02	-2.180924e-03
1.169591e+02	-2.206184e-03
1.176347e+02	-2.231737e-03
1.183141e+02	-2.257585e-03
1.189975e+02	-2.283733e-03
1.196848e+02	-2.310184e-03
1.203761e+02	-2.336941e-03
1.210714e+02	-2.364007e-03
1.217707e+02	-2.391388e-03
1.224740e+02	-2.419085e-03
1.231814e+02	-2.447103e-03
1.238929e+02	-2.475445e-03
1.246085e+02	-2.504115e-03
1.253283e+02	-2.533118e-03
1.260522e+02	-2.562456e-03
1.267802e+02	-2.592134e-03
1.275125e+02	-2.622155e-03
1.282490e+02	-2.652524e-03
1.289898e+02	-2.683245e-03
1.297348e+02	-2.714321e-03
1.304842e+02	-2.745757e-03
1.312378e+02	-2.777557e-03
1.319959e+02	-2.809726e-03
1.327583e+02	-2.842267e-03
1.335251e+02	-2.875184e-03
1.342963e+02	-2.908483e-03
1.350720e+02	-2.942167e-03
1.358522e+02	-2.976241e-03
1.366368e+02	-3.010709e-03
1.374260e+02	-3.045577e-03
1.382198e+02	-3.080848e-03
1.390182e+02	-3.116528e-03
1.398211e+02	-3.152621e-03
1.406287e+02	-3.189131e-03
1.414410e+02	-3.226064e-03
1.422579e+02	-3.263425e-03
1.430796e+02	-3.301218e-03
1.439060e+02	-3.339449e-03
1.447372e+02	-3.378122e-03
1.455732e+02	-3.417243e-03
1.464141e+02	-3.456817e-03
1.472597e+02	-3.496849e-03
1.481103e+02	-3.537345e-03
1.489658e+02	-3.578309e-03
1.498262e+02	-3.619747e-03
1.506916e+02	-3.661665e-03
1.515620e+02	-3.704068e-03
1.524374e+02	-3.746962e-03
1.533179e+02	-3.790353e-03
1.542034e+02	-3.834246e-03
1.550941e+02	-3.878647e-03
1.559899e+02	-3.923561e-03
1.568909e+02	-3.968996e-03
1.577971e+02	-4.014957e-03
1.587085e+02	-4.061449e-03
1.596252e+02	-4.108480e-03
1.605472e+02	-4.156055e-03
1.614745e+02	-4.204180e-03
1.624072e+02	-4.252863e-03
1.633453e+02	-4.302109e-03
1.642887e+02	-4.351925e-03
1.652377e+02	-4.402318e-03
1.661921e+02	-4.453294e-03
1.671520e+02	-4.504859e-03
1.681175e+02	-4.557022e-03
1.690885e+02	-4.609788e-03
1.700651e+02	-4.663165e-03
1.710474e+02	-4.717160e-03
1.720354e+02	-4.771779e-03
1.730291e+02	-4.827030e-03
1.740285e+02	-4.882921e-03
1.750337e+02	-4.939459e-03
1.760446e+02	-4.996651e-03
1.770615e+02	-5.054505e-03
1.780842e+02	-5.113028e-03
1.791128e+02	-5.172228e-03
1.801473e+02	-5.232114e-03
1.811878e+02	-5.292692e-03
1.822344e+02	-5.353971e-03
1.832870e+02	-5.415960e-03
1.843456e+02	-5.478665e-03
1.854104e+02	-5.542097e-03
1.864813e+02	-5.606262e-03
1.875584e+02	-5.671169e-03
1.886418e+02	-5.736828e-03
1.897313e+02	-5.803246e-03
1.908272e+02	-5.870432e-03
1.919294e+02	-5.938396e-03
1.930380e+02	-6.007146e-03
1.941530e+02	-6.076692e-03
1.952744e+02	-6.147042e-03
1.964023e+02	-6.218206e-03
1.975367e+02	-6.290193e-03
1.986777e+02	-6.363013e-03
1.998252e+02	-6.436675e-03
2.009794e+02	-6.511190e-03
2.021403e+02	-6.586566e-03
2.033078e+02	-6.662815e-03
2.044821e+02	-6.739945e-03
2.056632e+02	-6.817968e-03
2.068511e+02	-6.896893e-03
2.080459e+02	-6.976731e-03
2.092475e+02	-7.057492e-03
2.104561e+02	-7.139187e-03
2.116717e+02	-7.221828e-03
2.128943e+02	-7.305424e-03
2.141240e+02	-7.389987e-03
2.153608e+02	-7.475528e-03
2.166047e+02	-7.562058e-03
2.178558e+02	-7.649589e-03
2.191141e+02	-7.738132e-03
2.203797e+02	-7.827700e-03
2.216526e+02	-7.918303e-03
2.229329e+02	-8.009953e-03
2.242205e+02	-8.102664e-03
2.255156e+02	-8.196447e-03
2.268182e+02	-8.291314e-03
2.281283e+02	-8.387278e-03
2.294459e+02	-8.484351e-03
2.307712e+02	-8.582547e-03
2.321041e+02	-8.681878e-03
2.334447e+02	-8.782358e-03
2.347931e+02	-8.884000e-03
2.361493e+02	-8.986816e-03
2.375133e+02	-9.090822e-03
2.388851e+02	-9.196029e-03
2.402649e+02	-9.302453e-03
2.416527e+02	-9.410107e-03
2.430484e+02	-9.519006e-03
2.444523e+02	-9.629163e-03
2.458642e+02	-9.740594e-03
2.472843e+02	-9.853313e-03
2.487126e+02	-9.967335e-03
2.501492e+02	-1.008267e-02
2.515940e+02	-1.019935e-02
2.530472e+02	-1.031737e-02
2.545088e+02	-1.043675e-02
2.559789e+02	-1.055752e-02
2.574574e+02	-1.067968e-02
2.589444e+02	-1.080325e-02
2.604401e+02	-1.092825e-02
2.619444e+02	-1.105470e-02
2.634574e+02	-1.118260e-02
2.649791e+02	-1.131199e-02
2.665096e+02	-1.144287e-02
2.680489e+02	-1.157526e-02
2.695972e+02	-1.170918e-02
2.711544e+02	-1.184465e-02
2.727205e+02	-1.198168e-02
2.742958e+02	-1.212030e-02
2.758801e+02	-1.226051e-02
2.774736e+02	-1.240235e-02
2.790762e+02	-1.254583e-02
2.806882e+02	-1.269096e-02
2.823094e+02	-1.283777e-02
2.839400e+02	-1.298628e-02
2.855800e+02	-1.313650e-02
2.872295e+02	-1.328846e-02
2.888886e+02	-1.344217e-02
2.905572e+02	-1.359765e-02
2.922354e+02	-1.375493e-02
2.939234e+02	-1.391403e-02
2.956211e+02	-1.407497e-02
2.973286e+02	-1.423776e-02
2.990459e+02	-1.440244e-02
3.007732e+02	-1.456901e-02
3.025104e+02	-1.473751e-02
3.042577e+02	-1.490795e-02
3.060151e+02	-1.508036e-02
3.077826e+02	-1.525477e-02
3.095604e+02	-1.543118e-02
3.113484e+02	-1.560963e-02
3.131467e+02	-1.579015e-02
3.149554e+02	-1.597274e-02
3.167746e+02	-1.615744e-02
3.186043e+02	-1.634428e-02
3.204445e+02	-1.653327e-02
3.222954e+02	-1.672444e-02
3.241570e+02	-1.691782e-02
3.260293e+02	-1.711343e-02
3.279124e+02	-1.731130e-02
3.298064e+02	-1.751145e-02
3.317114e+02	-1.771391e-02
3.336273e+02	-1.791870e-02
3.355544e+02	-1.812586e-02
3.374925e+02	-1.833541e-02
3.394418e+02	-1.854737e-02
3.414024e+02	-1.876178e-02
3.433744e+02	-1.897867e-02
3.453577e+02	-1.919805e-02
3.473525e+02	-1.941997e-02
3.493588e+02	-1.964444e-02
3.513766e+02	-1.987151e-02
3.534062e+02	-2.010119e-02
3.554474e+02	-2.033352e-02
3.575005e+02	-2.056853e-02
3.595654e+02	-2.080625e-02
3.616422e+02	-2.104671e-02
3.637311e+02	-2.128994e-02
3.658320e+02	-2.153597e-02
3.679450e+02	-2.178485e-02
3.700702e+02	-2.203659e-02
3.722077e+02	-2.229123e-02
3.743576e+02	-2.254881e-02
3.765199e+02	-2.280935e-02
3.786946e+02	-2.307290e-02
3.808820e+02	-2.333948e-02
3.830819e+02	-2.360914e-02
3.852946e+02	-2.388190e-02
3.875200e+02	-2.415781e-02
3.897583e+02	-2.443689e-02
3.920096e+02	-2.471919e-02
3.942738e+02	-2.500475e-02
3.965511e+02	-2.529359e-02
3.988416e+02	-2.558575e-02
4.011452e+02	-2.588128e-02
4.034622e+02	-2.618022e-02
4.057926e+02	-2.648260e-02
4.081365e+02	-2.678845e-02
4.104938e+02	-2.709783e-02
4.128648e+02	-2.741078e-02
4.152495e+02	-2.772732e-02
4.176480e+02	-2.804751e-02
4.200603e+02	-2.837138e-02
4.224866e+02	-2.869898e-02
4.249268e+02	-2.903035e-02
4.273812e+02	-2.936554e-02
4.298497e+02	-2.970458e-02
4.323325e+02	-3.004752e-02
4.348297e+02	-3.039440e-02
4.373412e+02	-3.074528e-02
4.398673e+02	-3.110019e-02
4.424079e+02	-3.145919e-02
4.449633e+02	-3.182231e-02
4.475334e+02	-3.218961e-02
4.501183e+02	-3.256114e-02
4.527182e+02	-3.293693e-02
4.553330e+02	-3.331705e-02
4.579630e+02	-3.370153e-02
4.606082e+02	-3.409043e-02
4.632687e+02	-3.448381e-02
4.659445e+02	-3.488170e-02
4.686358e+02	-3.528417e-02
4.713426e+02	-3.569126e-02
4.740650e+02	-3.610303e-02
4.768032e+02	-3.651953e-02
4.795572e+02	-3.694082e-02
4.823271e+02	-3.736694e-02
4.851130e+02	-3.779796e-02
4.879150e+02	-3.823393e-02
4.907332e+02	-3.867490e-02
4.935676e+02	-3.912093e-02
4.964185e+02	-3.957209e-02
4.992858e+02	-4.002843e-02
5.021696e+02	-4.049000e-02
5.050701e+02	-4.095687e-02
5.079874e+02	-4.142910e-02
5.109215e+02	-4.190674e-02
5.138726e+02	-4.238987e-02
5.168407e+02	-4.287854e-02
5.198259e+02	-4.337281e-02
5.228284e+02	-4.387275e-02
5.258482e+02	-4.437843e-02
5.288855e+02	-4.488990e-02
5.319403e+02	-4.540724e-02
5.350128e+02	-4.593051e-02
5.381030e+02	-4.645977e-02
5.412111e+02	-4.699510e-02
5.443371e+02	-4.753657e-02
5.474812e+02	-4.808424e-02
5.506434e+02	-4.863818e-02
5.538239e+02	-4.919847e-02
5.570228e+02	-4.976517e-02
5.602401e+02	-5.033837e-02
5.634760e+02	-5.091813e-02
5.667306e+02	-5.150453e-02
5.700040e+02	-5.209764e-02
5.732964e+02	-5.269753e-02
5.766077e+02	-5.330430e-02
5.799382e+02	-5.391800e-02
5.832879e+02	-5.453873e-02
5.866569e+02	-5.516655e-02
5.900454e+02	-5.580156e-02
5.934535e+02	-5.644383e-02
5.968813e+02	-5.709345e-02
6.003288e+02	-5.775049e-02
6.037963e+02	-5.841504e-02
6.072838e+02	-5.908718e-02
6.107914e+02	-5.976701e-02
6.143194e+02	-6.045460e-02
6.178676e+02	-6.115005e-02
6.214364e+02	-6.185344e-02
6.250258e+02	-6.256486e-02
6.286359e+02	-6.328440e-02
6.322669e+02	-6.401216e-02
6.359189e+02	-6.474823e-02
6.395919e+02	-6.549270e-02
6.432862e+02	-6.624566e-02
6.470017e+02	-6.700721e-02
6.507388e+02	-6.777744e-02
6.544974e+02	-6.855646e-02
6.582778e+02	-6.934436e-02
6.620800e+02	-7.014125e-02
6.659041e+02	-7.094721e-02
6.697504e+02	-7.176236e-02
6.736188e+02	-7.258680e-02
6.775096e+02	-7.342063e-02
6.814229e+02	-7.426396e-02
6.853587e+02	-7.511688e-02
6.893173e+02	-7.597952e-02
6.932988e+02	-7.685198e-02
6.973033e+02	-7.773436e-02
7.013309e+02	-7.862679e-02
