Frequency(Hz)	Magnitude(dB)
1.000000e+01	-1.893015e+00
1.005776e+01	-1.910804e+00
1.011585e+01	-1.928587e+00
1.017428e+01	-1.946538e+00
1.023305e+01	-1.964691e+00
1.029215e+01	-1.982907e+00
1.035160e+01	-2.001497e+00
1.041139e+01	-2.019648e+00
1.047153e+01	-2.038456e+00
1.053201e+01	-2.057340e+00
1.059284e+01	-2.076094e+00
1.065403e+01	-2.095397e+00
1.071556e+01	-2.114530e+00
1.077746e+01	-2.133937e+00
1.083971e+01	-2.153425e+00
1.090232e+01	-2.172859e+00
1.096529e+01	-2.192871e+00
1.102862e+01	-2.212785e+00
1.109232e+01	-2.232693e+00
1.115639e+01	-2.252845e+00
1.122083e+01	-2.273076e+00
1.128564e+01	-2.293433e+00
1.135083e+01	-2.314273e+00
1.141639e+01	-2.334952e+00
1.148233e+01	-2.355778e+00
1.154865e+01	-2.376913e+00
1.161536e+01	-2.398047e+00
1.168245e+01	-2.419231e+00
1.174992e+01	-2.440764e+00
1.181779e+01	-2.462434e+00
1.188605e+01	-2.484142e+00
1.195470e+01	-2.505821e+00
1.202375e+01	-2.527939e+00
1.209320e+01	-2.550196e+00
1.216305e+01	-2.572384e+00
1.223330e+01	-2.594923e+00
1.230396e+01	-2.617441e+00
1.237503e+01	-2.640265e+00
1.244651e+01	-2.662782e+00
1.251840e+01	-2.685982e+00
1.259070e+01	-2.709081e+00
1.266343e+01	-2.732357e+00
1.273657e+01	-2.755929e+00
1.281014e+01	-2.779441e+00
1.288413e+01	-2.803219e+00
1.295855e+01	-2.826944e+00
1.303339e+01	-2.850940e+00
1.310867e+01	-2.875068e+00
1.318439e+01	-2.899610e+00
1.326054e+01	-2.923815e+00
1.333713e+01	-2.948572e+00
1.341417e+01	-2.973215e+00
1.349165e+01	-2.998227e+00
1.356958e+01	-3.023012e+00
1.364795e+01	-3.048151e+00
1.372678e+01	-3.073611e+00
1.380607e+01	-3.098896e+00
1.388581e+01	-3.124474e+00
1.396602e+01	-3.150412e+00
1.404668e+01	-3.176300e+00
1.412782e+01	-3.202348e+00
1.420942e+01	-3.228283e+00
1.429149e+01	-3.254774e+00
1.437404e+01	-3.281179e+00
1.445706e+01	-3.307711e+00
1.454057e+01	-3.334509e+00
1.462455e+01	-3.361434e+00
1.470902e+01	-3.388332e+00
1.479398e+01	-3.415442e+00
1.487943e+01	-3.442861e+00
1.496537e+01	-3.470295e+00
1.505181e+01	-3.497876e+00
1.513875e+01	-3.525480e+00
1.522619e+01	-3.553492e+00
1.531414e+01	-3.581539e+00
1.540259e+01	-3.609537e+00
1.549156e+01	-3.638019e+00
1.558103e+01	-3.666392e+00
1.567103e+01	-3.694957e+00
1.576155e+01	-3.723697e+00
1.585258e+01	-3.752578e+00
1.594415e+01	-3.781788e+00
1.603624e+01	-3.810831e+00
1.612886e+01	-3.840160e+00
1.622202e+01	-3.869551e+00
1.631572e+01	-3.899058e+00
1.640996e+01	-3.928760e+00
1.650474e+01	-3.958842e+00
1.660008e+01	-3.988956e+00
1.669596e+01	-4.018918e+00
1.679239e+01	-4.049000e+00
1.688938e+01	-4.079476e+00
1.698694e+01	-4.110101e+00
1.708505e+01	-4.140537e+00
1.718373e+01	-4.171389e+00
1.728299e+01	-4.202200e+00
1.738281e+01	-4.233834e+00
1.748322e+01	-4.264895e+00
1.758420e+01	-4.296272e+00
1.768576e+01	-4.327684e+00
1.778792e+01	-4.359157e+00
1.789066e+01	-4.391020e+00
1.799399e+01	-4.422942e+00
1.809793e+01	-4.454951e+00
1.820246e+01	-4.487100e+00
1.830760e+01	-4.519449e+00
1.841334e+01	-4.551997e+00
1.851969e+01	-4.584575e+00
1.862666e+01	-4.616911e+00
1.873425e+01	-4.649870e+00
1.884246e+01	-4.682783e+00
1.895129e+01	-4.715802e+00
1.906075e+01	-4.748900e+00
1.917085e+01	-4.782731e+00
1.928158e+01	-4.815820e+00
1.939295e+01	-4.849442e+00
1.950496e+01	-4.883372e+00
1.961762e+01	-4.917249e+00
1.973093e+01	-4.951134e+00
1.984490e+01	-4.985010e+00
1.995952e+01	-5.019326e+00
2.007480e+01	-5.053488e+00
2.019076e+01	-5.087973e+00
2.030738e+01	-5.122567e+00
2.042467e+01	-5.157474e+00
2.054264e+01	-5.192405e+00
2.066130e+01	-5.227163e+00
2.078064e+01	-5.262221e+00
2.090066e+01	-5.297458e+00
2.102139e+01	-5.332531e+00
2.114280e+01	-5.368117e+00
2.126492e+01	-5.403614e+00
2.138775e+01	-5.439495e+00
2.151128e+01	-5.475006e+00
2.163553e+01	-5.511026e+00
2.176050e+01	-5.546922e+00
2.188619e+01	-5.583008e+00
2.201260e+01	-5.619259e+00
2.213974e+01	-5.656006e+00
2.226762e+01	-5.692539e+00
2.239624e+01	-5.728825e+00
2.252560e+01	-5.765567e+00
2.265571e+01	-5.802509e+00
2.278656e+01	-5.839219e+00
2.291818e+01	-5.876367e+00
2.305055e+01	-5.913496e+00
2.318369e+01	-5.950770e+00
2.331760e+01	-5.988395e+00
2.345228e+01	-6.025741e+00
2.358774e+01	-6.063115e+00
2.372398e+01	-6.100993e+00
2.386101e+01	-6.138795e+00
2.399883e+01	-6.176580e+00
2.413745e+01	-6.214565e+00
2.427686e+01	-6.252764e+00
2.441709e+01	-6.291369e+00
2.455812e+01	-6.329503e+00
2.469997e+01	-6.367616e+00
2.484263e+01	-6.406360e+00
2.498612e+01	-6.444815e+00
2.513044e+01	-6.483855e+00
2.527559e+01	-6.522371e+00
2.542158e+01	-6.561306e+00
2.556842e+01	-6.600414e+00
2.571610e+01	-6.639430e+00
2.586463e+01	-6.678830e+00
2.601403e+01	-6.718055e+00
2.616428e+01	-6.757566e+00
2.631541e+01	-6.796944e+00
2.646740e+01	-6.836738e+00
2.662028e+01	-6.876518e+00
2.677404e+01	-6.916202e+00
2.692868e+01	-6.955802e+00
2.708422e+01	-6.996244e+00
2.724066e+01	-7.036288e+00
2.739800e+01	-7.076253e+00
2.755625e+01	-7.116665e+00
2.771541e+01	-7.157152e+00
2.787550e+01	-7.197400e+00
2.803650e+01	-7.237855e+00
2.819844e+01	-7.278683e+00
2.836131e+01	-7.319604e+00
2.852513e+01	-7.360013e+00
2.868989e+01	-7.401025e+00
2.885560e+01	-7.442134e+00
2.902227e+01	-7.483355e+00
2.918990e+01	-7.523704e+00
2.935850e+01	-7.565213e+00
2.952807e+01	-7.606728e+00
2.969863e+01	-7.647713e+00
2.987016e+01	-7.689494e+00
3.004269e+01	-7.731011e+00
3.021622e+01	-7.772743e+00
3.039075e+01	-7.814375e+00
3.056628e+01	-7.856122e+00
3.074283e+01	-7.898333e+00
3.092040e+01	-7.939937e+00
3.109900e+01	-7.982238e+00
3.127862e+01	-8.024185e+00
3.145929e+01	-8.066226e+00
3.164099e+01	-8.108354e+00
3.182375e+01	-8.150677e+00
3.200756e+01	-8.193378e+00
3.219244e+01	-8.236024e+00
3.237838e+01	-8.278001e+00
3.256540e+01	-8.321157e+00
3.275349e+01	-8.363784e+00
3.294268e+01	-8.405858e+00
3.313295e+01	-8.448795e+00
3.332433e+01	-8.492311e+00
3.351681e+01	-8.535304e+00
3.371040e+01	-8.578545e+00
3.390511e+01	-8.621775e+00
3.410094e+01	-8.664527e+00
3.429791e+01	-8.707608e+00
3.449601e+01	-8.750892e+00
3.469526e+01	-8.794510e+00
3.489566e+01	-8.837696e+00
3.509721e+01	-8.881040e+00
3.529993e+01	-8.925381e+00
3.550382e+01	-8.968809e+00
3.570889e+01	-9.012506e+00
3.591515e+01	-9.056418e+00
3.612259e+01	-9.099879e+00
3.633123e+01	-9.144250e+00
3.654108e+01	-9.187786e+00
3.675214e+01	-9.232176e+00
3.696442e+01	-9.276227e+00
3.717792e+01	-9.320118e+00
3.739266e+01	-9.363988e+00
3.760864e+01	-9.408858e+00
3.782587e+01	-9.453147e+00
3.804435e+01	-9.497230e+00
3.826409e+01	-9.541708e+00
3.848510e+01	-9.586652e+00
3.870739e+01	-9.630426e+00
3.893096e+01	-9.676100e+00
3.915583e+01	-9.720024e+00
3.938199e+01	-9.765264e+00
3.960946e+01	-9.809294e+00
3.983824e+01	-9.854136e+00
4.006834e+01	-9.899268e+00
4.029978e+01	-9.944537e+00
4.053255e+01	-9.989009e+00
4.076666e+01	-1.003446e+01
4.100213e+01	-1.007935e+01
4.123896e+01	-1.012442e+01
4.147715e+01	-1.016975e+01
4.171672e+01	-1.021472e+01
4.195767e+01	-1.025998e+01
4.220002e+01	-1.030517e+01
4.244377e+01	-1.035057e+01
4.268892e+01	-1.039638e+01
4.293549e+01	-1.044138e+01
4.318348e+01	-1.048782e+01
4.343291e+01	-1.053308e+01
4.368377e+01	-1.057900e+01
4.393609e+01	-1.062354e+01
4.418986e+01	-1.067018e+01
4.444510e+01	-1.071550e+01
4.470182e+01	-1.076183e+01
4.496001e+01	-1.080707e+01
4.521970e+01	-1.085374e+01
4.548089e+01	-1.089939e+01
4.574358e+01	-1.094523e+01
4.600779e+01	-1.099085e+01
4.627353e+01	-1.103762e+01
4.654081e+01	-1.108366e+01
4.680963e+01	-1.112989e+01
4.708000e+01	-1.117556e+01
4.735193e+01	-1.122230e+01
4.762543e+01	-1.126879e+01
4.790051e+01	-1.131440e+01
4.817719e+01	-1.136108e+01
4.845545e+01	-1.140708e+01
4.873533e+01	-1.145401e+01
4.901682e+01	-1.150036e+01
4.929994e+01	-1.154669e+01
4.958470e+01	-1.159355e+01
4.987110e+01	-1.163976e+01
5.015915e+01	-1.168655e+01
5.044887e+01	-1.173307e+01
5.074026e+01	-1.178012e+01
5.103333e+01	-1.182682e+01
5.132810e+01	-1.187332e+01
5.162457e+01	-1.192041e+01
5.192275e+01	-1.196625e+01
5.222265e+01	-1.201401e+01
5.252429e+01	-1.206025e+01
5.282767e+01	-1.210763e+01
5.313280e+01	-1.215523e+01
5.343969e+01	-1.220135e+01
5.374836e+01	-1.224888e+01
5.405880e+01	-1.229530e+01
5.437105e+01	-1.234293e+01
5.468509e+01	-1.238941e+01
5.500095e+01	-1.243685e+01
5.531863e+01	-1.248516e+01
5.563815e+01	-1.253129e+01
5.595951e+01	-1.257837e+01
5.628273e+01	-1.262563e+01
5.660782e+01	-1.267317e+01
5.693479e+01	-1.272089e+01
5.726364e+01	-1.276875e+01
5.759439e+01	-1.281617e+01
5.792705e+01	-1.286275e+01
5.826164e+01	-1.291055e+01
5.859815e+01	-1.295816e+01
5.893662e+01	-1.300515e+01
5.927703e+01	-1.305176e+01
5.961941e+01	-1.310001e+01
5.996377e+01	-1.314767e+01
6.031012e+01	-1.319620e+01
6.065847e+01	-1.324338e+01
6.100883e+01	-1.329069e+01
6.136121e+01	-1.333893e+01
6.171563e+01	-1.338563e+01
6.207210e+01	-1.343311e+01
6.243063e+01	-1.348134e+01
6.279122e+01	-1.352933e+01
6.315390e+01	-1.357790e+01
6.351868e+01	-1.362543e+01
6.388556e+01	-1.367350e+01
6.425456e+01	-1.372128e+01
6.462569e+01	-1.376868e+01
6.499897e+01	-1.381690e+01
6.537440e+01	-1.386442e+01
6.575200e+01	-1.391281e+01
6.613178e+01	-1.395971e+01
6.651375e+01	-1.400870e+01
6.689793e+01	-1.405660e+01
6.728433e+01	-1.410641e+01
6.767297e+01	-1.415309e+01
6.806384e+01	-1.420130e+01
6.845698e+01	-1.424898e+01
6.885238e+01	-1.429870e+01
6.925007e+01	-1.434574e+01
6.965005e+01	-1.439391e+01
7.005235e+01	-1.444329e+01
7.045697e+01	-1.449003e+01
7.086393e+01	-1.453874e+01
7.127323e+01	-1.458645e+01
7.168490e+01	-1.463549e+01
7.209895e+01	-1.468343e+01
7.251539e+01	-1.473164e+01
7.293424e+01	-1.478044e+01
7.335551e+01	-1.482853e+01
7.377920e+01	-1.487653e+01
7.420535e+01	-1.492545e+01
7.463396e+01	-1.497316e+01
7.506504e+01	-1.502152e+01
7.549861e+01	-1.507147e+01
7.593469e+01	-1.511914e+01
7.637328e+01	-1.516744e+01
7.681441e+01	-1.521598e+01
7.725809e+01	-1.526448e+01
7.770433e+01	-1.531256e+01
7.815315e+01	-1.536129e+01
7.860456e+01	-1.541048e+01
7.905857e+01	-1.546066e+01
7.951521e+01	-1.550729e+01
7.997449e+01	-1.555607e+01
8.043642e+01	-1.560560e+01
8.090102e+01	-1.565319e+01
8.136830e+01	-1.570319e+01
8.183828e+01	-1.575083e+01
8.231097e+01	-1.580032e+01
8.278640e+01	-1.584831e+01
8.326457e+01	-1.589764e+01
8.374550e+01	-1.594597e+01
8.422921e+01	-1.599455e+01
8.471572e+01	-1.604368e+01
8.520503e+01	-1.609133e+01
8.569717e+01	-1.614083e+01
8.619215e+01	-1.618994e+01
8.669000e+01	-1.623900e+01
8.719071e+01	-1.628839e+01
8.769432e+01	-1.633696e+01
8.820084e+01	-1.638472e+01
8.871029e+01	-1.643465e+01
8.922267e+01	-1.648381e+01
8.973802e+01	-1.653250e+01
9.025634e+01	-1.658058e+01
9.077766e+01	-1.662951e+01
9.130199e+01	-1.667915e+01
9.182935e+01	-1.672803e+01
9.235975e+01	-1.677728e+01
9.289321e+01	-1.682606e+01
9.342976e+01	-1.687512e+01
9.396941e+01	-1.692403e+01
9.451217e+01	-1.697362e+01
9.505807e+01	-1.702228e+01
9.560712e+01	-1.706980e+01
9.615934e+01	-1.711982e+01
9.671476e+01	-1.716865e+01
9.727338e+01	-1.721851e+01
9.783522e+01	-1.726606e+01
9.840032e+01	-1.731572e+01
9.896867e+01	-1.736497e+01
9.954031e+01	-1.741459e+01
1.001153e+02	-1.746319e+01
1.006935e+02	-1.751286e+01
1.012751e+02	-1.756247e+01
1.018601e+02	-1.761130e+01
1.024484e+02	-1.766133e+01
1.030402e+02	-1.770827e+01
1.036353e+02	-1.775824e+01
1.042339e+02	-1.780812e+01
1.048360e+02	-1.785729e+01
1.054415e+02	-1.790726e+01
1.060505e+02	-1.795528e+01
1.066631e+02	-1.800401e+01
1.072791e+02	-1.805505e+01
1.078988e+02	-1.810268e+01
1.085220e+02	-1.815191e+01
1.091488e+02	-1.820256e+01
1.097793e+02	-1.825044e+01
1.104133e+02	-1.830110e+01
1.110511e+02	-1.835013e+01
1.116925e+02	-1.839756e+01
1.123376e+02	-1.844862e+01
1.129865e+02	-1.849810e+01
1.136391e+02	-1.854743e+01
1.142955e+02	-1.859596e+01
1.149556e+02	-1.864511e+01
1.156196e+02	-1.869487e+01
1.162874e+02	-1.874262e+01
1.169591e+02	-1.879420e+01
1.176347e+02	-1.884351e+01
1.183141e+02	-1.889178e+01
1.189975e+02	-1.894140e+01
1.196848e+02	-1.899167e+01
1.203761e+02	-1.904098e+01
1.210714e+02	-1.909074e+01
1.217707e+02	-1.913949e+01
1.224740e+02	-1.919013e+01
1.231814e+02	-1.923892e+01
1.238929e+02	-1.928722e+01
1.246085e+02	-1.933717e+01
1.253283e+02	-1.938712e+01
1.260522e+02	-1.943557e+01
1.267802e+02	-1.948467e+01
1.275125e+02	-1.953592e+01
1.282490e+02	-1.958287e+01
1.289898e+02	-1.963358e+01
1.297348e+02	-1.968407e+01
1.304842e+02	-1.973245e+01
1.312378e+02	-1.978244e+01
1.319959e+02	-1.983147e+01
1.327583e+02	-1.988200e+01
1.335251e+02	-1.993246e+01
1.342963e+02	-1.998134e+01
1.350720e+02	-2.003005e+01
1.358522e+02	-2.007918e+01
1.366368e+02	-2.012982e+01
1.374260e+02	-2.017829e+01
1.382198e+02	-2.022754e+01
1.390182e+02	-2.027790e+01
1.398211e+02	-2.032557e+01
1.406287e+02	-2.037899e+01
1.414410e+02	-2.042804e+01
1.422579e+02	-2.047605e+01
1.430796e+02	-2.052550e+01
1.439060e+02	-2.057565e+01
1.447372e+02	-2.062546e+01
1.455732e+02	-2.067528e+01
1.464141e+02	-2.072378e+01
1.472597e+02	-2.077346e+01
1.481103e+02	-2.082541e+01
1.489658e+02	-2.087233e+01
1.498262e+02	-2.092296e+01
1.506916e+02	-2.097219e+01
1.515620e+02	-2.102231e+01
1.524374e+02	-2.107169e+01
1.533179e+02	-2.112323e+01
1.542034e+02	-2.117250e+01
1.550941e+02	-2.122137e+01
1.559899e+02	-2.127076e+01
1.568909e+02	-2.132039e+01
1.577971e+02	-2.136837e+01
1.587085e+02	-2.141943e+01
1.596252e+02	-2.146962e+01
1.605472e+02	-2.151816e+01
1.614745e+02	-2.156985e+01
1.624072e+02	-2.161907e+01
1.633453e+02	-2.166783e+01
1.642887e+02	-2.171845e+01
1.652377e+02	-2.176723e+01
1.661921e+02	-2.181571e+01
1.671520e+02	-2.186511e+01
1.681175e+02	-2.191782e+01
1.690885e+02	-2.196609e+01
1.700651e+02	-2.201503e+01
1.710474e+02	-2.206455e+01
1.720354e+02	-2.211557e+01
1.730291e+02	-2.216632e+01
1.740285e+02	-2.221408e+01
1.750337e+02	-2.226545e+01
1.760446e+02	-2.231708e+01
1.770615e+02	-2.236418e+01
1.780842e+02	-2.241553e+01
1.791128e+02	-2.246559e+01
1.801473e+02	-2.251327e+01
1.811878e+02	-2.256424e+01
1.822344e+02	-2.261261e+01
1.832870e+02	-2.266345e+01
1.843456e+02	-2.271159e+01
1.854104e+02	-2.276481e+01
1.864813e+02	-2.281248e+01
1.875584e+02	-2.286222e+01
1.886418e+02	-2.291266e+01
1.897313e+02	-2.296149e+01
1.908272e+02	-2.301133e+01
1.919294e+02	-2.305859e+01
1.930380e+02	-2.311266e+01
1.941530e+02	-2.316143e+01
1.952744e+02	-2.320736e+01
1.964023e+02	-2.325920e+01
1.975367e+02	-2.331054e+01
1.986777e+02	-2.335940e+01
1.998252e+02	-2.341040e+01
2.009794e+02	-2.346020e+01
2.021403e+02	-2.351104e+01
2.033078e+02	-2.355711e+01
2.044821e+02	-2.360943e+01
2.056632e+02	-2.366033e+01
2.068511e+02	-2.371022e+01
2.080459e+02	-2.375823e+01
2.092475e+02	-2.380911e+01
2.104561e+02	-2.385992e+01
2.116717e+02	-2.390802e+01
2.128943e+02	-2.395968e+01
2.141240e+02	-2.400605e+01
2.153608e+02	-2.405616e+01
2.166047e+02	-2.410642e+01
2.178558e+02	-2.415763e+01
2.191141e+02	-2.420663e+01
2.203797e+02	-2.425673e+01
2.216526e+02	-2.430618e+01
2.229329e+02	-2.435582e+01
2.242205e+02	-2.440660e+01
2.255156e+02	-2.445779e+01
2.268182e+02	-2.450671e+01
2.281283e+02	-2.455828e+01
2.294459e+02	-2.460532e+01
2.307712e+02	-2.465574e+01
2.321041e+02	-2.470662e+01
2.334447e+02	-2.475466e+01
2.347931e+02	-2.480451e+01
2.361493e+02	-2.485743e+01
2.375133e+02	-2.490784e+01
2.388851e+02	-2.495642e+01
2.402649e+02	-2.500448e+01
2.416527e+02	-2.505861e+01
2.430484e+02	-2.510700e+01
2.444523e+02	-2.515865e+01
2.458642e+02	-2.520361e+01
2.472843e+02	-2.525722e+01
2.487126e+02	-2.530469e+01
2.501492e+02	-2.535807e+01
2.515940e+02	-2.540583e+01
2.530472e+02	-2.545528e+01
2.545088e+02	-2.550259e+01
2.559789e+02	-2.555552e+01
2.574574e+02	-2.560616e+01
2.589444e+02	-2.565348e+01
2.604401e+02	-2.570433e+01
2.619444e+02	-2.575560e+01
2.634574e+02	-2.580532e+01
2.649791e+02	-2.585359e+01
2.665096e+02	-2.590705e+01
2.680489e+02	-2.595594e+01
2.695972e+02	-2.600371e+01
2.711544e+02	-2.605262e+01
2.727205e+02	-2.610573e+01
2.742958e+02	-2.615167e+01
2.758801e+02	-2.620055e+01
2.774736e+02	-2.625459e+01
2.790762e+02	-2.630333e+01
2.806882e+02	-2.635289e+01
2.823094e+02	-2.640510e+01
2.839400e+02	-2.645310e+01
2.855800e+02	-2.650298e+01
2.872295e+02	-2.655816e+01
2.888886e+02	-2.660305e+01
2.905572e+02	-2.665803e+01
2.922354e+02	-2.670516e+01
2.939234e+02	-2.675538e+01
2.956211e+02	-2.680374e+01
2.973286e+02	-2.685406e+01
2.990459e+02	-2.690491e+01
3.007732e+02	-2.695600e+01
3.025104e+02	-2.700154e+01
3.042577e+02	-2.705626e+01
3.060151e+02	-2.710215e+01
3.077826e+02	-2.715458e+01
3.095604e+02	-2.720242e+01
3.113484e+02	-2.725420e+01
3.131467e+02	-2.730178e+01
3.149554e+02	-2.735476e+01
3.167746e+02	-2.740473e+01
3.186043e+02	-2.745312e+01
3.204445e+02	-2.750580e+01
3.222954e+02	-2.755548e+01
3.241570e+02	-2.760476e+01
3.260293e+02	-2.765689e+01
3.279124e+02	-2.770264e+01
3.298064e+02	-2.775430e+01
3.317114e+02	-2.780641e+01
3.336273e+02	-2.784920e+01
3.355544e+02	-2.790304e+01
3.374925e+02	-2.795400e+01
3.394418e+02	-2.800517e+01
3.414024e+02	-2.805754e+01
3.433744e+02	-2.810484e+01
3.453577e+02	-2.815332e+01
3.473525e+02	-2.820429e+01
3.493588e+02	-2.825792e+01
3.513766e+02	-2.830816e+01
3.534062e+02	-2.835799e+01
3.554474e+02	-2.840407e+01
3.575005e+02	-2.845652e+01
3.595654e+02	-2.850266e+01
3.616422e+02	-2.855155e+01
3.637311e+02	-2.860820e+01
3.658320e+02	-2.865034e+01
3.679450e+02	-2.870310e+01
3.700702e+02	-2.875451e+01
3.722077e+02	-2.880505e+01
3.743576e+02	-2.885845e+01
3.765199e+02	-2.890520e+01
3.786946e+02	-2.895520e+01
3.808820e+02	-2.900931e+01
3.830819e+02	-2.905968e+01
3.852946e+02	-2.910446e+01
3.875200e+02	-2.915317e+01
3.897583e+02	-2.920621e+01
3.920096e+02	-2.925694e+01
3.942738e+02	-2.930714e+01
3.965511e+02	-2.935606e+01
3.988416e+02	-2.940452e+01
4.011452e+02	-2.945477e+01
4.034622e+02	-2.950254e+01
4.057926e+02	-2.955480e+01
4.081365e+02	-2.960768e+01
4.104938e+02	-2.965472e+01
4.128648e+02	-2.970793e+01
4.152495e+02	-2.975767e+01
4.176480e+02	-2.980377e+01
4.200603e+02	-2.985723e+01
4.224866e+02	-2.991013e+01
4.249268e+02	-2.995769e+01
4.273812e+02	-3.000214e+01
4.298497e+02	-3.005725e+01
4.323325e+02	-3.011707e+01
4.348297e+02	-3.015695e+01
4.373412e+02	-3.021063e+01
4.398673e+02	-3.025118e+01
4.424079e+02	-3.030699e+01
4.449633e+02	-3.035681e+01
4.475334e+02	-3.040950e+01
4.501183e+02	-3.045816e+01
4.527182e+02	-3.051111e+01
4.553330e+02	-3.055806e+01
4.579630e+02	-3.061830e+01
4.606082e+02	-3.065986e+01
4.632687e+02	-3.070788e+01
4.659445e+02	-3.076766e+01
4.686358e+02	-3.081365e+01
4.713426e+02	-3.086076e+01
4.740650e+02	-3.090967e+01
4.768032e+02	-3.095969e+01
4.795572e+02	-3.101341e+01
4.823271e+02	-3.105472e+01
4.851130e+02	-3.111034e+01
4.879150e+02	-3.116054e+01
4.907332e+02	-3.121437e+01
4.935676e+02	-3.126221e+01
4.964185e+02	-3.131265e+01
4.992858e+02	-3.136774e+01
5.021696e+02	-3.141583e+01
5.050701e+02	-3.146226e+01
5.079874e+02	-3.151727e+01
5.109215e+02	-3.156548e+01
5.138726e+02	-3.161178e+01
5.168407e+02	-3.166017e+01
5.198259e+02	-3.171271e+01
5.228284e+02	-3.176282e+01
5.258482e+02	-3.181448e+01
5.288855e+02	-3.186902e+01
5.319403e+02	-3.192061e+01
5.350128e+02	-3.196308e+01
5.381030e+02	-3.201523e+01
5.412111e+02	-3.206483e+01
5.443371e+02	-3.211688e+01
5.474812e+02	-3.216604e+01
5.506434e+02	-3.221904e+01
5.538239e+02	-3.226731e+01
5.570228e+02	-3.231558e+01
5.602401e+02	-3.236668e+01
5.634760e+02	-3.241980e+01
5.667306e+02	-3.246786e+01
5.700040e+02	-3.251406e+01
5.732964e+02	-3.256416e+01
5.766077e+02	-3.261635e+01
5.799382e+02	-3.266698e+01
5.832879e+02	-3.271350e+01
5.866569e+02	-3.277136e+01
5.900454e+02	-3.282067e+01
5.934535e+02	-3.286627e+01
5.968813e+02	-3.291860e+01
6.003288e+02	-3.296960e+01
6.037963e+02	-3.302433e+01
6.072838e+02	-3.307142e+01
6.107914e+02	-3.312693e+01
6.143194e+02	-3.316873e+01
6.178676e+02	-3.322442e+01
6.214364e+02	-3.327752e+01
6.250258e+02	-3.331559e+01
6.286359e+02	-3.336383e+01
6.322669e+02	-3.342023e+01
6.359189e+02	-3.347397e+01
6.395919e+02	-3.352791e+01
6.432862e+02	-3.357815e+01
6.470017e+02	-3.362735e+01
6.507388e+02	-3.367576e+01
6.544974e+02	-3.372344e+01
6.582778e+02	-3.377135e+01
6.620800e+02	-3.382862e+01
6.659041e+02	-3.386944e+01
6.697504e+02	-3.393766e+01
6.736188e+02	-3.397166e+01
6.775096e+02	-3.402651e+01
6.814229e+02	-3.407355e+01
6.853587e+02	-3.412462e+01
6.893173e+02	-3.417487e+01
6.932988e+02	-3.422123e+01
6.973033e+02	-3.428167e+01
7.013309e+02	-3.432731e+01
