Frequency(Hz)	Magnitude(dB)
1.000000e+01	-1.921599e-05
1.005776e+01	-1.943861e-05
1.011585e+01	-1.966381e-05
1.017428e+01	-1.989162e-05
1.023305e+01	-2.012207e-05
1.029215e+01	-2.035519e-05
1.035160e+01	-2.059101e-05
1.041139e+01	-2.082956e-05
1.047153e+01	-2.107088e-05
1.053201e+01	-2.131499e-05
1.059284e+01	-2.156193e-05
1.065403e+01	-2.181173e-05
1.071556e+01	-2.206442e-05
1.077746e+01	-2.232004e-05
1.083971e+01	-2.257863e-05
1.090232e+01	-2.284021e-05
1.096529e+01	-2.310482e-05
1.102862e+01	-2.337249e-05
1.109232e+01	-2.364327e-05
1.115639e+01	-2.391718e-05
1.122083e+01	-2.419427e-05
1.128564e+01	-2.447456e-05
1.135083e+01	-2.475811e-05
1.141639e+01	-2.504494e-05
1.148233e+01	-2.533509e-05
1.154865e+01	-2.562860e-05
1.161536e+01	-2.592551e-05
1.168245e+01	-2.622587e-05
1.174992e+01	-2.652970e-05
1.181779e+01	-2.683705e-05
1.188605e+01	-2.714797e-05
1.195470e+01	-2.746248e-05
1.202375e+01	-2.778064e-05
1.209320e+01	-2.810249e-05
1.216305e+01	-2.842806e-05
1.223330e+01	-2.875741e-05
1.230396e+01	-2.909057e-05
1.237503e+01	-2.942759e-05
1.244651e+01	-2.976852e-05
1.251840e+01	-3.011339e-05
1.259070e+01	-3.046226e-05
1.266343e+01	-3.081518e-05
1.273657e+01	-3.117218e-05
1.281014e+01	-3.153331e-05
1.288413e+01	-3.189863e-05
1.295855e+01	-3.226819e-05
1.303339e+01	-3.264202e-05
1.310867e+01	-3.302019e-05
1.318439e+01	-3.340274e-05
1.326054e+01	-3.378971e-05
1.333713e+01	-3.418118e-05
1.341417e+01	-3.457717e-05
1.349165e+01	-3.497776e-05
1.356958e+01	-3.538298e-05
1.364795e+01	-3.579290e-05
1.372678e+01	-3.620757e-05
1.380607e+01	-3.662704e-05
1.388581e+01	-3.705138e-05
1.396602e+01	-3.748063e-05
1.404668e+01	-3.791485e-05
1.412782e+01	-3.835410e-05
1.420942e+01	-3.879844e-05
1.429149e+01	-3.924793e-05
1.437404e+01	-3.970263e-05
1.445706e+01	-4.016259e-05
1.454057e+01	-4.062788e-05
1.462455e+01	-4.109857e-05
1.470902e+01	-4.157470e-05
1.479398e+01	-4.205635e-05
1.487943e+01	-4.254359e-05
1.496537e+01	-4.303646e-05
1.505181e+01	-4.353505e-05
1.513875e+01	-4.403941e-05
1.522619e+01	-4.454962e-05
1.531414e+01	-4.506574e-05
1.540259e+01	-4.558783e-05
1.549156e+01	-4.611598e-05
1.558103e+01	-4.665024e-05
1.567103e+01	-4.719070e-05
1.576155e+01	-4.773741e-05
1.585258e+01	-4.829046e-05
1.594415e+01	-4.884991e-05
1.603624e+01	-4.941585e-05
1.612886e+01	-4.998834e-05
1.622202e+01	-5.056747e-05
1.631572e+01	-5.115330e-05
1.640996e+01	-5.174592e-05
1.650474e+01	-5.234541e-05
1.660008e+01	-5.295185e-05
1.669596e+01	-5.356530e-05
1.679239e+01	-5.418587e-05
1.688938e+01	-5.481362e-05
1.698694e+01	-5.544865e-05
1.708505e+01	-5.609103e-05
1.718373e+01	-5.674086e-05
1.728299e+01	-5.739821e-05
1.738281e+01	-5.806318e-05
1.748322e+01	-5.873586e-05
1.758420e+01	-5.941632e-05
1.768576e+01	-6.010467e-05
1.778792e+01	-6.080100e-05
1.789066e+01	-6.150539e-05
1.799399e+01	-6.221794e-05
1.809793e+01	-6.293875e-05
1.820246e+01	-6.366791e-05
1.830760e+01	-6.440551e-05
1.841334e+01	-6.515166e-05
1.851969e+01	-6.590646e-05
1.862666e+01	-6.667000e-05
1.873425e+01	-6.744238e-05
1.884246e+01	-6.822371e-05
1.895129e+01	-6.901410e-05
1.906075e+01	-6.981364e-05
1.917085e+01	-7.062244e-05
1.928158e+01	-7.144062e-05
1.939295e+01	-7.226827e-05
1.950496e+01	-7.310551e-05
1.961762e+01	-7.395245e-05
1.973093e+01	-7.480920e-05
1.984490e+01	-7.567588e-05
1.995952e+01	-7.655260e-05
2.007480e+01	-7.743948e-05
2.019076e+01	-7.833663e-05
2.030738e+01	-7.924417e-05
2.042467e+01	-8.016223e-05
2.054264e+01	-8.109092e-05
2.066130e+01	-8.203037e-05
2.078064e+01	-8.298071e-05
2.090066e+01	-8.394205e-05
2.102139e+01	-8.491454e-05
2.114280e+01	-8.589828e-05
2.126492e+01	-8.689343e-05
2.138775e+01	-8.790010e-05
2.151128e+01	-8.891844e-05
2.163553e+01	-8.994858e-05
2.176050e+01	-9.099064e-05
2.188619e+01	-9.204479e-05
2.201260e+01	-9.311114e-05
2.213974e+01	-9.418985e-05
2.226762e+01	-9.528105e-05
2.239624e+01	-9.638489e-05
2.252560e+01	-9.750153e-05
2.265571e+01	-9.863110e-05
2.278656e+01	-9.977375e-05
2.291818e+01	-1.009296e-04
2.305055e+01	-1.020989e-04
2.318369e+01	-1.032818e-04
2.331760e+01	-1.044783e-04
2.345228e+01	-1.056887e-04
2.358774e+01	-1.069131e-04
2.372398e+01	-1.081517e-04
2.386101e+01	-1.094047e-04
2.399883e+01	-1.106721e-04
2.413745e+01	-1.119543e-04
2.427686e+01	-1.132513e-04
2.441709e+01	-1.145633e-04
2.455812e+01	-1.158905e-04
2.469997e+01	-1.172332e-04
2.484263e+01	-1.185913e-04
2.498612e+01	-1.199652e-04
2.513044e+01	-1.213550e-04
2.527559e+01	-1.227609e-04
2.542158e+01	-1.241831e-04
2.556842e+01	-1.256218e-04
2.571610e+01	-1.270771e-04
2.586463e+01	-1.285494e-04
2.601403e+01	-1.300386e-04
2.616428e+01	-1.315451e-04
2.631541e+01	-1.330691e-04
2.646740e+01	-1.346107e-04
2.662028e+01	-1.361702e-04
2.677404e+01	-1.377477e-04
2.692868e+01	-1.393435e-04
2.708422e+01	-1.409579e-04
2.724066e+01	-1.425909e-04
2.739800e+01	-1.442428e-04
2.755625e+01	-1.459139e-04
2.771541e+01	-1.476043e-04
2.787550e+01	-1.493143e-04
2.803650e+01	-1.510441e-04
2.819844e+01	-1.527940e-04
2.836131e+01	-1.545641e-04
2.852513e+01	-1.563547e-04
2.868989e+01	-1.581661e-04
2.885560e+01	-1.599985e-04
2.902227e+01	-1.618521e-04
2.918990e+01	-1.637271e-04
2.935850e+01	-1.656239e-04
2.952807e+01	-1.675427e-04
2.969863e+01	-1.694837e-04
2.987016e+01	-1.714471e-04
3.004269e+01	-1.734334e-04
3.021622e+01	-1.754426e-04
3.039075e+01	-1.774751e-04
3.056628e+01	-1.795312e-04
3.074283e+01	-1.816110e-04
3.092040e+01	-1.837150e-04
3.109900e+01	-1.858434e-04
3.127862e+01	-1.879964e-04
3.145929e+01	-1.901743e-04
3.164099e+01	-1.923775e-04
3.182375e+01	-1.946062e-04
3.200756e+01	-1.968607e-04
3.219244e+01	-1.991413e-04
3.237838e+01	-2.014484e-04
3.256540e+01	-2.037822e-04
3.275349e+01	-2.061430e-04
3.294268e+01	-2.085311e-04
3.313295e+01	-2.109470e-04
3.332433e+01	-2.133908e-04
3.351681e+01	-2.158629e-04
3.371040e+01	-2.183637e-04
3.390511e+01	-2.208934e-04
3.410094e+01	-2.234525e-04
3.429791e+01	-2.260412e-04
3.449601e+01	-2.286599e-04
3.469526e+01	-2.313089e-04
3.489566e+01	-2.339886e-04
3.509721e+01	-2.366993e-04
3.529993e+01	-2.394415e-04
3.550382e+01	-2.422154e-04
3.570889e+01	-2.450214e-04
3.591515e+01	-2.478600e-04
3.612259e+01	-2.507315e-04
3.633123e+01	-2.536362e-04
3.654108e+01	-2.565745e-04
3.675214e+01	-2.595469e-04
3.696442e+01	-2.625538e-04
3.717792e+01	-2.655954e-04
3.739266e+01	-2.686723e-04
3.760864e+01	-2.717849e-04
3.782587e+01	-2.749335e-04
3.804435e+01	-2.781185e-04
3.826409e+01	-2.813405e-04
3.848510e+01	-2.845998e-04
3.870739e+01	-2.878969e-04
3.893096e+01	-2.912321e-04
3.915583e+01	-2.946060e-04
3.938199e+01	-2.980190e-04
3.960946e+01	-3.014715e-04
3.983824e+01	-3.049640e-04
4.006834e+01	-3.084970e-04
4.029978e+01	-3.120709e-04
4.053255e+01	-3.156862e-04
4.076666e+01	-3.193434e-04
4.100213e+01	-3.230429e-04
4.123896e+01	-3.267853e-04
4.147715e+01	-3.305711e-04
4.171672e+01	-3.344007e-04
4.195767e+01	-3.382746e-04
4.220002e+01	-3.421935e-04
4.244377e+01	-3.461577e-04
4.268892e+01	-3.501679e-04
4.293549e+01	-3.542245e-04
4.318348e+01	-3.583282e-04
4.343291e+01	-3.624793e-04
4.368377e+01	-3.666786e-04
4.393609e+01	-3.709265e-04
4.418986e+01	-3.752236e-04
4.444510e+01	-3.795704e-04
4.470182e+01	-3.839677e-04
4.496001e+01	-3.884158e-04
4.521970e+01	-3.929155e-04
4.548089e+01	-3.974674e-04
4.574358e+01	-4.020719e-04
4.600779e+01	-4.067298e-04
4.627353e+01	-4.114417e-04
4.654081e+01	-4.162081e-04
4.680963e+01	-4.210298e-04
4.708000e+01	-4.259073e-04
4.735193e+01	-4.308413e-04
4.762543e+01	-4.358325e-04
4.790051e+01	-4.408814e-04
4.817719e+01	-4.459889e-04
4.845545e+01	-4.511555e-04
4.873533e+01	-4.563820e-04
4.901682e+01	-4.616691e-04
4.929994e+01	-4.670173e-04
4.958470e+01	-4.724276e-04
4.987110e+01	-4.779005e-04
5.015915e+01	-4.834368e-04
5.044887e+01	-4.890372e-04
5.074026e+01	-4.947025e-04
5.103333e+01	-5.004334e-04
5.132810e+01	-5.062308e-04
5.162457e+01	-5.120952e-04
5.192275e+01	-5.180277e-04
5.222265e+01	-5.240288e-04
5.252429e+01	-5.300994e-04
5.282767e+01	-5.362404e-04
5.313280e+01	-5.424525e-04
5.343969e+01	-5.487366e-04
5.374836e+01	-5.550934e-04
5.405880e+01	-5.615239e-04
5.437105e+01	-5.680289e-04
5.468509e+01	-5.746092e-04
5.500095e+01	-5.812658e-04
5.531863e+01	-5.879995e-04
5.563815e+01	-5.948111e-04
5.595951e+01	-6.017017e-04
5.628273e+01	-6.086721e-04
5.660782e+01	-6.157232e-04
5.693479e+01	-6.228561e-04
5.726364e+01	-6.300715e-04
5.759439e+01	-6.373705e-04
5.792705e+01	-6.447541e-04
5.826164e+01	-6.522232e-04
5.859815e+01	-6.597788e-04
5.893662e+01	-6.674219e-04
5.927703e+01	-6.751536e-04
5.961941e+01	-6.829748e-04
5.996377e+01	-6.908866e-04
6.031012e+01	-6.988901e-04
6.065847e+01	-7.069863e-04
6.100883e+01	-7.151762e-04
6.136121e+01	-7.234610e-04
6.171563e+01	-7.318418e-04
6.207210e+01	-7.403197e-04
6.243063e+01	-7.488958e-04
6.279122e+01	-7.575712e-04
6.315390e+01	-7.663471e-04
6.351868e+01	-7.752246e-04
6.388556e+01	-7.842050e-04
6.425456e+01	-7.932894e-04
6.462569e+01	-8.024790e-04
6.499897e+01	-8.117751e-04
6.537440e+01	-8.211788e-04
6.575200e+01	-8.306915e-04
6.613178e+01	-8.403144e-04
6.651375e+01	-8.500487e-04
6.689793e+01	-8.598958e-04
6.728433e+01	-8.698569e-04
6.767297e+01	-8.799334e-04
6.806384e+01	-8.901266e-04
6.845698e+01	-9.004379e-04
6.885238e+01	-9.108686e-04
6.925007e+01	-9.214202e-04
6.965005e+01	-9.320939e-04
7.005235e+01	-9.428913e-04
7.045697e+01	-9.538138e-04
7.086393e+01	-9.648627e-04
7.127323e+01	-9.760397e-04
7.168490e+01	-9.873461e-04
7.209895e+01	-9.987834e-04
7.251539e+01	-1.010353e-03
7.293424e+01	-1.022057e-03
7.335551e+01	-1.033897e-03
7.377920e+01	-1.045873e-03
7.420535e+01	-1.057988e-03
7.463396e+01	-1.070244e-03
7.506504e+01	-1.082641e-03
7.549861e+01	-1.095182e-03
7.593469e+01	-1.107869e-03
7.637328e+01	-1.120702e-03
7.681441e+01	-1.133684e-03
7.725809e+01	-1.146816e-03
7.770433e+01	-1.160101e-03
7.815315e+01	-1.173539e-03
7.860456e+01	-1.187133e-03
7.905857e+01	-1.200884e-03
7.951521e+01	-1.214795e-03
7.997449e+01	-1.228867e-03
8.043642e+01	-1.243101e-03
8.090102e+01	-1.257501e-03
8.136830e+01	-1.272067e-03
8.183828e+01	-1.286802e-03
8.231097e+01	-1.301708e-03
8.278640e+01	-1.316786e-03
8.326457e+01	-1.332039e-03
8.374550e+01	-1.347469e-03
8.422921e+01	-1.363077e-03
8.471572e+01	-1.378867e-03
8.520503e+01	-1.394839e-03
8.569717e+01	-1.410996e-03
8.619215e+01	-1.427340e-03
8.669000e+01	-1.443873e-03
8.719071e+01	-1.460598e-03
8.769432e+01	-1.477516e-03
8.820084e+01	-1.494631e-03
8.871029e+01	-1.511943e-03
8.922267e+01	-1.529457e-03
8.973802e+01	-1.547173e-03
9.025634e+01	-1.565094e-03
9.077766e+01	-1.583223e-03
9.130199e+01	-1.601561e-03
9.182935e+01	-1.620112e-03
9.235975e+01	-1.638878e-03
9.289321e+01	-1.657861e-03
9.342976e+01	-1.677064e-03
9.396941e+01	-1.696490e-03
9.451217e+01	-1.716140e-03
9.505807e+01	-1.736018e-03
9.560712e+01	-1.756126e-03
9.615934e+01	-1.776468e-03
9.671476e+01	-1.797044e-03
9.727338e+01	-1.817859e-03
9.783522e+01	-1.838915e-03
9.840032e+01	-1.860215e-03
9.896867e+01	-1.881761e-03
9.954031e+01	-1.903557e-03
1.001153e+02	-1.925605e-03
1.006935e+02	-1.947909e-03
1.012751e+02	-1.970471e-03
1.018601e+02	-1.993294e-03
1.024484e+02	-2.016382e-03
1.030402e+02	-2.039736e-03
1.036353e+02	-2.063362e-03
1.042339e+02	-2.087260e-03
1.048360e+02	-2.111436e-03
1.054415e+02	-2.135892e-03
1.060505e+02	-2.160630e-03
1.066631e+02	-2.185655e-03
1.072791e+02	-2.210970e-03
1.078988e+02	-2.236578e-03
1.085220e+02	-2.262483e-03
1.091488e+02	-2.288688e-03
1.097793e+02	-2.315196e-03
1.104133e+02	-2.342011e-03
1.110511e+02	-2.369136e-03
1.116925e+02	-2.396575e-03
1.123376e+02	-2.424333e-03
1.129865e+02	-2.452411e-03
1.136391e+02	-2.480815e-03
1.142955e+02	-2.509548e-03
1.149556e+02	-2.538613e-03
1.156196e+02	-2.568015e-03
1.162874e+02	-2.597757e-03
1.169591e+02	-2.627843e-03
1.176347e+02	-2.658278e-03
1.183141e+02	-2.689066e-03
1.189975e+02	-2.720209e-03
1.196848e+02	-2.751714e-03
1.203761e+02	-2.783583e-03
1.210714e+02	-2.815821e-03
1.217707e+02	-2.848432e-03
1.224740e+02	-2.881421e-03
1.231814e+02	-2.914792e-03
1.238929e+02	-2.948549e-03
1.246085e+02	-2.982697e-03
1.253283e+02	-3.017240e-03
1.260522e+02	-3.052184e-03
1.267802e+02	-3.087531e-03
1.275125e+02	-3.123288e-03
1.282490e+02	-3.159459e-03
1.289898e+02	-3.196049e-03
1.297348e+02	-3.233062e-03
1.304842e+02	-3.270504e-03
1.312378e+02	-3.308379e-03
1.319959e+02	-3.346693e-03
1.327583e+02	-3.385450e-03
1.335251e+02	-3.424656e-03
1.342963e+02	-3.464315e-03
1.350720e+02	-3.504434e-03
1.358522e+02	-3.545017e-03
1.366368e+02	-3.586070e-03
1.374260e+02	-3.627598e-03
1.382198e+02	-3.669607e-03
1.390182e+02	-3.712102e-03
1.398211e+02	-3.755090e-03
1.406287e+02	-3.798574e-03
1.414410e+02	-3.842562e-03
1.422579e+02	-3.887059e-03
1.430796e+02	-3.932071e-03
1.439060e+02	-3.977605e-03
1.447372e+02	-4.023665e-03
1.455732e+02	-4.070258e-03
1.464141e+02	-4.117391e-03
1.472597e+02	-4.165069e-03
1.481103e+02	-4.213299e-03
1.489658e+02	-4.262087e-03
1.498262e+02	-4.311440e-03
1.506916e+02	-4.361364e-03
1.515620e+02	-4.411866e-03
1.524374e+02	-4.462952e-03
1.533179e+02	-4.514629e-03
1.542034e+02	-4.566905e-03
1.550941e+02	-4.619786e-03
1.559899e+02	-4.673278e-03
1.568909e+02	-4.727390e-03
1.577971e+02	-4.782127e-03
1.587085e+02	-4.837499e-03
1.596252e+02	-4.893511e-03
1.605472e+02	-4.950171e-03
1.614745e+02	-5.007487e-03
1.624072e+02	-5.065466e-03
1.633453e+02	-5.124116e-03
1.642887e+02	-5.183445e-03
1.652377e+02	-5.243460e-03
1.661921e+02	-5.304169e-03
1.671520e+02	-5.365582e-03
1.681175e+02	-5.427704e-03
1.690885e+02	-5.490546e-03
1.700651e+02	-5.554114e-03
1.710474e+02	-5.618418e-03
1.720354e+02	-5.683467e-03
1.730291e+02	-5.749267e-03
1.740285e+02	-5.815829e-03
1.750337e+02	-5.883161e-03
1.760446e+02	-5.951273e-03
1.770615e+02	-6.020172e-03
1.780842e+02	-6.089868e-03
1.791128e+02	-6.160370e-03
1.801473e+02	-6.231688e-03
1.811878e+02	-6.303832e-03
1.822344e+02	-6.376809e-03
1.832870e+02	-6.450631e-03
1.843456e+02	-6.525307e-03
1.854104e+02	-6.600847e-03
1.864813e+02	-6.677261e-03
1.875584e+02	-6.754558e-03
1.886418e+02	-6.832749e-03
1.897313e+02	-6.911845e-03
1.908272e+02	-6.991856e-03
1.919294e+02	-7.072793e-03
1.930380e+02	-7.154665e-03
1.941530e+02	-7.237484e-03
1.952744e+02	-7.321262e-03
1.964023e+02	-7.406008e-03
1.975367e+02	-7.491734e-03
1.986777e+02	-7.578452e-03
1.998252e+02	-7.666172e-03
2.009794e+02	-7.754907e-03
2.021403e+02	-7.844668e-03
2.033078e+02	-7.935468e-03
2.044821e+02	-8.027317e-03
2.056632e+02	-8.120228e-03
2.068511e+02	-8.214214e-03
2.080459e+02	-8.309286e-03
2.092475e+02	-8.405458e-03
2.104561e+02	-8.502742e-03
2.116717e+02	-8.601150e-03
2.128943e+02	-8.700697e-03
2.141240e+02	-8.801394e-03
2.153608e+02	-8.903255e-03
2.166047e+02	-9.006295e-03
2.178558e+02	-9.110525e-03
2.191141e+02	-9.215960e-03
2.203797e+02	-9.322615e-03
2.216526e+02	-9.430502e-03
2.229329e+02	-9.539636e-03
2.242205e+02	-9.650032e-03
2.255156e+02	-9.761704e-03
2.268182e+02	-9.874667e-03
2.281283e+02	-9.988935e-03
2.294459e+02	-1.010452e-02
2.307712e+02	-1.022145e-02
2.321041e+02	-1.033973e-02
2.334447e+02	-1.045937e-02
2.347931e+02	-1.058040e-02
2.361493e+02	-1.070282e-02
2.375133e+02	-1.082666e-02
2.388851e+02	-1.095193e-02
2.402649e+02	-1.107865e-02
2.416527e+02	-1.120683e-02
2.430484e+02	-1.133650e-02
2.444523e+02	-1.146766e-02
2.458642e+02	-1.160034e-02
2.472843e+02	-1.173455e-02
2.487126e+02	-1.187031e-02
2.501492e+02	-1.200764e-02
2.515940e+02	-1.214656e-02
2.530472e+02	-1.228708e-02
2.545088e+02	-1.242922e-02
2.559789e+02	-1.257301e-02
2.574574e+02	-1.271845e-02
2.589444e+02	-1.286558e-02
2.604401e+02	-1.301441e-02
2.619444e+02	-1.316496e-02
2.634574e+02	-1.331724e-02
2.649791e+02	-1.347128e-02
2.665096e+02	-1.362711e-02
2.680489e+02	-1.378473e-02
2.695972e+02	-1.394417e-02
2.711544e+02	-1.410545e-02
2.727205e+02	-1.426860e-02
2.742958e+02	-1.443363e-02
2.758801e+02	-1.460056e-02
2.774736e+02	-1.476943e-02
2.790762e+02	-1.494024e-02
2.806882e+02	-1.511302e-02
2.823094e+02	-1.528780e-02
2.839400e+02	-1.546460e-02
2.855800e+02	-1.564344e-02
2.872295e+02	-1.582434e-02
2.888886e+02	-1.600733e-02
2.905572e+02	-1.619243e-02
2.922354e+02	-1.637967e-02
2.939234e+02	-1.656907e-02
2.956211e+02	-1.676065e-02
2.973286e+02	-1.695445e-02
2.990459e+02	-1.715048e-02
3.007732e+02	-1.734877e-02
3.025104e+02	-1.754936e-02
3.042577e+02	-1.775225e-02
3.060151e+02	-1.795749e-02
3.077826e+02	-1.816510e-02
3.095604e+02	-1.837510e-02
3.113484e+02	-1.858752e-02
3.131467e+02	-1.880239e-02
3.149554e+02	-1.901975e-02
3.167746e+02	-1.923960e-02
3.186043e+02	-1.946200e-02
3.204445e+02	-1.968696e-02
3.222954e+02	-1.991451e-02
3.241570e+02	-2.014469e-02
3.260293e+02	-2.037752e-02
3.279124e+02	-2.061304e-02
3.298064e+02	-2.085127e-02
3.317114e+02	-2.109225e-02
3.336273e+02	-2.133600e-02
3.355544e+02	-2.158257e-02
3.374925e+02	-2.183198e-02
3.394418e+02	-2.208426e-02
3.414024e+02	-2.233945e-02
3.433744e+02	-2.259759e-02
3.453577e+02	-2.285869e-02
3.473525e+02	-2.312281e-02
3.493588e+02	-2.338997e-02
3.513766e+02	-2.366021e-02
3.534062e+02	-2.393356e-02
3.554474e+02	-2.421006e-02
3.575005e+02	-2.448975e-02
3.595654e+02	-2.477265e-02
3.616422e+02	-2.505882e-02
3.637311e+02	-2.534828e-02
3.658320e+02	-2.564108e-02
3.679450e+02	-2.593725e-02
3.700702e+02	-2.623683e-02
3.722077e+02	-2.653986e-02
3.743576e+02	-2.684637e-02
3.765199e+02	-2.715642e-02
3.786946e+02	-2.747004e-02
3.808820e+02	-2.778726e-02
3.830819e+02	-2.810814e-02
3.852946e+02	-2.843271e-02
3.875200e+02	-2.876101e-02
3.897583e+02	-2.909310e-02
3.920096e+02	-2.942900e-02
3.942738e+02	-2.976877e-02
3.965511e+02	-3.011245e-02
3.988416e+02	-3.046009e-02
4.011452e+02	-3.081172e-02
4.034622e+02	-3.116740e-02
4.057926e+02	-3.152716e-02
4.081365e+02	-3.189107e-02
4.104938e+02	-3.225916e-02
4.128648e+02	-3.263148e-02
4.152495e+02	-3.300808e-02
4.176480e+02	-3.338902e-02
4.200603e+02	-3.377433e-02
4.224866e+02	-3.416407e-02
4.249268e+02	-3.455829e-02
4.273812e+02	-3.495704e-02
4.298497e+02	-3.536037e-02
4.323325e+02	-3.576834e-02
4.348297e+02	-3.618099e-02
4.373412e+02	-3.659839e-02
4.398673e+02	-3.702058e-02
4.424079e+02	-3.744761e-02
4.449633e+02	-3.787956e-02
4.475334e+02	-3.831646e-02
4.501183e+02	-3.875838e-02
4.527182e+02	-3.920537e-02
4.553330e+02	-3.965750e-02
4.579630e+02	-4.011481e-02
4.606082e+02	-4.057738e-02
4.632687e+02	-4.104525e-02
4.659445e+02	-4.151849e-02
4.686358e+02	-4.199716e-02
4.713426e+02	-4.248132e-02
4.740650e+02	-4.297104e-02
4.768032e+02	-4.346637e-02
4.795572e+02	-4.396739e-02
4.823271e+02	-4.447415e-02
4.851130e+02	-4.498671e-02
4.879150e+02	-4.550516e-02
4.907332e+02	-4.602955e-02
4.935676e+02	-4.655995e-02
4.964185e+02	-4.709643e-02
4.992858e+02	-4.763905e-02
5.021696e+02	-4.818789e-02
5.050701e+02	-4.874302e-02
5.079874e+02	-4.930451e-02
5.109215e+02	-4.987243e-02
5.138726e+02	-5.044685e-02
5.168407e+02	-5.102785e-02
5.198259e+02	-5.161550e-02
5.228284e+02	-5.220988e-02
5.258482e+02	-5.281106e-02
5.288855e+02	-5.341912e-02
5.319403e+02	-5.403414e-02
5.350128e+02	-5.465619e-02
5.381030e+02	-5.528536e-02
5.412111e+02	-5.592173e-02
5.443371e+02	-5.656537e-02
5.474812e+02	-5.721637e-02
5.506434e+02	-5.787481e-02
5.538239e+02	-5.854078e-02
5.570228e+02	-5.921436e-02
5.602401e+02	-5.989564e-02
5.634760e+02	-6.058470e-02
5.667306e+02	-6.128163e-02
5.700040e+02	-6.198652e-02
5.732964e+02	-6.269946e-02
5.766077e+02	-6.342054e-02
5.799382e+02	-6.414985e-02
5.832879e+02	-6.488749e-02
5.866569e+02	-6.563354e-02
5.900454e+02	-6.638811e-02
5.934535e+02	-6.715128e-02
5.968813e+02	-6.792316e-02
6.003288e+02	-6.870383e-02
6.037963e+02	-6.949341e-02
6.072838e+02	-7.029199e-02
6.107914e+02	-7.109968e-02
6.143194e+02	-7.191656e-02
6.178676e+02	-7.274275e-02
6.214364e+02	-7.357835e-02
6.250258e+02	-7.442347e-02
6.286359e+02	-7.527821e-02
6.322669e+02	-7.614268e-02
6.359189e+02	-7.701699e-02
6.395919e+02	-7.790125e-02
6.432862e+02	-7.879557e-02
6.470017e+02	-7.970006e-02
6.507388e+02	-8.061484e-02
6.544974e+02	-8.154002e-02
6.582778e+02	-8.247571e-02
6.620800e+02	-8.342204e-02
6.659041e+02	-8.437912e-02
6.697504e+02	-8.534708e-02
6.736188e+02	-8.632602e-02
6.775096e+02	-8.731609e-02
6.814229e+02	-8.831739e-02
6.853587e+02	-8.933005e-02
6.893173e+02	-9.035421e-02
6.932988e+02	-9.138998e-02
6.973033e+02	-9.243750e-02
7.013309e+02	-9.349690e-02
