Frequency(Hz)	Magnitude(dB)
1.000000e+01	-1.736251e-05
1.005776e+01	-1.756366e-05
1.011585e+01	-1.776714e-05
1.017428e+01	-1.797298e-05
1.023305e+01	-1.818120e-05
1.029215e+01	-1.839183e-05
1.035160e+01	-1.860491e-05
1.041139e+01	-1.882045e-05
1.047153e+01	-1.903849e-05
1.053201e+01	-1.925905e-05
1.059284e+01	-1.948217e-05
1.065403e+01	-1.970788e-05
1.071556e+01	-1.993620e-05
1.077746e+01	-2.016717e-05
1.083971e+01	-2.040081e-05
1.090232e+01	-2.063716e-05
1.096529e+01	-2.087624e-05
1.102862e+01	-2.111810e-05
1.109232e+01	-2.136276e-05
1.115639e+01	-2.161025e-05
1.122083e+01	-2.186061e-05
1.128564e+01	-2.211387e-05
1.135083e+01	-2.237007e-05
1.141639e+01	-2.262923e-05
1.148233e+01	-2.289140e-05
1.154865e+01	-2.315660e-05
1.161536e+01	-2.342487e-05
1.168245e+01	-2.369626e-05
1.174992e+01	-2.397078e-05
1.181779e+01	-2.424849e-05
1.188605e+01	-2.452942e-05
1.195470e+01	-2.481359e-05
1.202375e+01	-2.510107e-05
1.209320e+01	-2.539187e-05
1.216305e+01	-2.568604e-05
1.223330e+01	-2.598362e-05
1.230396e+01	-2.628465e-05
1.237503e+01	-2.658916e-05
1.244651e+01	-2.689720e-05
1.251840e+01	-2.720881e-05
1.259070e+01	-2.752403e-05
1.266343e+01	-2.784291e-05
1.273657e+01	-2.816547e-05
1.281014e+01	-2.849178e-05
1.288413e+01	-2.882186e-05
1.295855e+01	-2.915577e-05
1.303339e+01	-2.949354e-05
1.310867e+01	-2.983523e-05
1.318439e+01	-3.018088e-05
1.326054e+01	-3.053054e-05
1.333713e+01	-3.088424e-05
1.341417e+01	-3.124204e-05
1.349165e+01	-3.160399e-05
1.356958e+01	-3.197013e-05
1.364795e+01	-3.234051e-05
1.372678e+01	-3.271518e-05
1.380607e+01	-3.309419e-05
1.388581e+01	-3.347760e-05
1.396602e+01	-3.386544e-05
1.404668e+01	-3.425778e-05
1.412782e+01	-3.465467e-05
1.420942e+01	-3.505615e-05
1.429149e+01	-3.546228e-05
1.437404e+01	-3.587312e-05
1.445706e+01	-3.628872e-05
1.454057e+01	-3.670913e-05
1.462455e+01	-3.713442e-05
1.470902e+01	-3.756463e-05
1.479398e+01	-3.799982e-05
1.487943e+01	-3.844006e-05
1.496537e+01	-3.888540e-05
1.505181e+01	-3.933589e-05
1.513875e+01	-3.979161e-05
1.522619e+01	-4.025260e-05
1.531414e+01	-4.071894e-05
1.540259e+01	-4.119068e-05
1.549156e+01	-4.166788e-05
1.558103e+01	-4.215061e-05
1.567103e+01	-4.263894e-05
1.576155e+01	-4.313292e-05
1.585258e+01	-4.363262e-05
1.594415e+01	-4.413811e-05
1.603624e+01	-4.464946e-05
1.612886e+01	-4.516674e-05
1.622202e+01	-4.569001e-05
1.631572e+01	-4.621933e-05
1.640996e+01	-4.675479e-05
1.650474e+01	-4.729646e-05
1.660008e+01	-4.784440e-05
1.669596e+01	-4.839869e-05
1.679239e+01	-4.895940e-05
1.688938e+01	-4.952660e-05
1.698694e+01	-5.010038e-05
1.708505e+01	-5.068080e-05
1.718373e+01	-5.126795e-05
1.728299e+01	-5.186190e-05
1.738281e+01	-5.246273e-05
1.748322e+01	-5.307052e-05
1.758420e+01	-5.368535e-05
1.768576e+01	-5.430731e-05
1.778792e+01	-5.493647e-05
1.789066e+01	-5.557292e-05
1.799399e+01	-5.621675e-05
1.809793e+01	-5.686803e-05
1.820246e+01	-5.752686e-05
1.830760e+01	-5.819332e-05
1.841334e+01	-5.886750e-05
1.851969e+01	-5.954949e-05
1.862666e+01	-6.023938e-05
1.873425e+01	-6.093727e-05
1.884246e+01	-6.164324e-05
1.895129e+01	-6.235739e-05
1.906075e+01	-6.307981e-05
1.917085e+01	-6.381060e-05
1.928158e+01	-6.454986e-05
1.939295e+01	-6.529768e-05
1.950496e+01	-6.605417e-05
1.961762e+01	-6.681942e-05
1.973093e+01	-6.759353e-05
1.984490e+01	-6.837662e-05
1.995952e+01	-6.916877e-05
2.007480e+01	-6.997011e-05
2.019076e+01	-7.078072e-05
2.030738e+01	-7.160073e-05
2.042467e+01	-7.243024e-05
2.054264e+01	-7.326936e-05
2.066130e+01	-7.411819e-05
2.078064e+01	-7.497687e-05
2.090066e+01	-7.584549e-05
2.102139e+01	-7.672417e-05
2.114280e+01	-7.761303e-05
2.126492e+01	-7.851219e-05
2.138775e+01	-7.942177e-05
2.151128e+01	-8.034189e-05
2.163553e+01	-8.127266e-05
2.176050e+01	-8.221422e-05
2.188619e+01	-8.316668e-05
2.201260e+01	-8.413018e-05
2.213974e+01	-8.510485e-05
2.226762e+01	-8.609080e-05
2.239624e+01	-8.708818e-05
2.252560e+01	-8.809711e-05
2.265571e+01	-8.911773e-05
2.278656e+01	-9.015017e-05
2.291818e+01	-9.119457e-05
2.305055e+01	-9.225108e-05
2.318369e+01	-9.331982e-05
2.331760e+01	-9.440094e-05
2.345228e+01	-9.549459e-05
2.358774e+01	-9.660091e-05
2.372398e+01	-9.772005e-05
2.386101e+01	-9.885215e-05
2.399883e+01	-9.999737e-05
2.413745e+01	-1.011559e-04
2.427686e+01	-1.023278e-04
2.441709e+01	-1.035132e-04
2.455812e+01	-1.047125e-04
2.469997e+01	-1.059256e-04
2.484263e+01	-1.071527e-04
2.498612e+01	-1.083941e-04
2.513044e+01	-1.096499e-04
2.527559e+01	-1.109202e-04
2.542158e+01	-1.122052e-04
2.556842e+01	-1.135051e-04
2.571610e+01	-1.148201e-04
2.586463e+01	-1.161503e-04
2.601403e+01	-1.174959e-04
2.616428e+01	-1.188571e-04
2.631541e+01	-1.202341e-04
2.646740e+01	-1.216270e-04
2.662028e+01	-1.230361e-04
2.677404e+01	-1.244614e-04
2.692868e+01	-1.259033e-04
2.708422e+01	-1.273620e-04
2.724066e+01	-1.288375e-04
2.739800e+01	-1.303301e-04
2.755625e+01	-1.318399e-04
2.771541e+01	-1.333673e-04
2.787550e+01	-1.349124e-04
2.803650e+01	-1.364754e-04
2.819844e+01	-1.380564e-04
2.836131e+01	-1.396558e-04
2.852513e+01	-1.412738e-04
2.868989e+01	-1.429104e-04
2.885560e+01	-1.445661e-04
2.902227e+01	-1.462409e-04
2.918990e+01	-1.479351e-04
2.935850e+01	-1.496489e-04
2.952807e+01	-1.513826e-04
2.969863e+01	-1.531364e-04
2.987016e+01	-1.549105e-04
3.004269e+01	-1.567051e-04
3.021622e+01	-1.585206e-04
3.039075e+01	-1.603571e-04
3.056628e+01	-1.622148e-04
3.074283e+01	-1.640941e-04
3.092040e+01	-1.659951e-04
3.109900e+01	-1.679182e-04
3.127862e+01	-1.698635e-04
3.145929e+01	-1.718314e-04
3.164099e+01	-1.738221e-04
3.182375e+01	-1.758358e-04
3.200756e+01	-1.778729e-04
3.219244e+01	-1.799335e-04
3.237838e+01	-1.820181e-04
3.256540e+01	-1.841268e-04
3.275349e+01	-1.862599e-04
3.294268e+01	-1.884177e-04
3.313295e+01	-1.906005e-04
3.332433e+01	-1.928086e-04
3.351681e+01	-1.950423e-04
3.371040e+01	-1.973019e-04
3.390511e+01	-1.995876e-04
3.410094e+01	-2.018999e-04
3.429791e+01	-2.042389e-04
3.449601e+01	-2.066050e-04
3.469526e+01	-2.089985e-04
3.489566e+01	-2.114197e-04
3.509721e+01	-2.138690e-04
3.529993e+01	-2.163467e-04
3.550382e+01	-2.188531e-04
3.570889e+01	-2.213885e-04
3.591515e+01	-2.239533e-04
3.612259e+01	-2.265478e-04
3.633123e+01	-2.291723e-04
3.654108e+01	-2.318273e-04
3.675214e+01	-2.345130e-04
3.696442e+01	-2.372298e-04
3.717792e+01	-2.399781e-04
3.739266e+01	-2.427582e-04
3.760864e+01	-2.455706e-04
3.782587e+01	-2.484155e-04
3.804435e+01	-2.512934e-04
3.826409e+01	-2.542046e-04
3.848510e+01	-2.571495e-04
3.870739e+01	-2.601286e-04
3.893096e+01	-2.631422e-04
3.915583e+01	-2.661907e-04
3.938199e+01	-2.692745e-04
3.960946e+01	-2.723940e-04
3.983824e+01	-2.755496e-04
4.006834e+01	-2.787419e-04
4.029978e+01	-2.819710e-04
4.053255e+01	-2.852377e-04
4.076666e+01	-2.885421e-04
4.100213e+01	-2.918848e-04
4.123896e+01	-2.952663e-04
4.147715e+01	-2.986869e-04
4.171672e+01	-3.021472e-04
4.195767e+01	-3.056475e-04
4.220002e+01	-3.091884e-04
4.244377e+01	-3.127703e-04
4.268892e+01	-3.163937e-04
4.293549e+01	-3.200591e-04
4.318348e+01	-3.237669e-04
4.343291e+01	-3.275177e-04
4.368377e+01	-3.313119e-04
4.393609e+01	-3.351501e-04
4.418986e+01	-3.390328e-04
4.444510e+01	-3.429604e-04
4.470182e+01	-3.469335e-04
4.496001e+01	-3.509527e-04
4.521970e+01	-3.550184e-04
4.548089e+01	-3.591312e-04
4.574358e+01	-3.632917e-04
4.600779e+01	-3.675003e-04
4.627353e+01	-3.717578e-04
4.654081e+01	-3.760645e-04
4.680963e+01	-3.804211e-04
4.708000e+01	-3.848282e-04
4.735193e+01	-3.892863e-04
4.762543e+01	-3.937961e-04
4.790051e+01	-3.983581e-04
4.817719e+01	-4.029730e-04
4.845545e+01	-4.076414e-04
4.873533e+01	-4.123638e-04
4.901682e+01	-4.171409e-04
4.929994e+01	-4.219733e-04
4.958470e+01	-4.268618e-04
4.987110e+01	-4.318069e-04
5.015915e+01	-4.368092e-04
5.044887e+01	-4.418695e-04
5.074026e+01	-4.469884e-04
5.103333e+01	-4.521666e-04
5.132810e+01	-4.574048e-04
5.162457e+01	-4.627037e-04
5.192275e+01	-4.680640e-04
5.222265e+01	-4.734863e-04
5.252429e+01	-4.789715e-04
5.282767e+01	-4.845202e-04
5.313280e+01	-4.901332e-04
5.343969e+01	-4.958112e-04
5.374836e+01	-5.015550e-04
5.405880e+01	-5.073653e-04
5.437105e+01	-5.132429e-04
5.468509e+01	-5.191886e-04
5.500095e+01	-5.252032e-04
5.531863e+01	-5.312874e-04
5.563815e+01	-5.374422e-04
5.595951e+01	-5.436682e-04
5.628273e+01	-5.499663e-04
5.660782e+01	-5.563374e-04
5.693479e+01	-5.627823e-04
5.726364e+01	-5.693019e-04
5.759439e+01	-5.758970e-04
5.792705e+01	-5.825685e-04
5.826164e+01	-5.893172e-04
5.859815e+01	-5.961442e-04
5.893662e+01	-6.030502e-04
5.927703e+01	-6.100362e-04
5.961941e+01	-6.171031e-04
5.996377e+01	-6.242519e-04
6.031012e+01	-6.314835e-04
6.065847e+01	-6.387989e-04
6.100883e+01	-6.461990e-04
6.136121e+01	-6.536848e-04
6.171563e+01	-6.612574e-04
6.207210e+01	-6.689176e-04
6.243063e+01	-6.766666e-04
6.279122e+01	-6.845054e-04
6.315390e+01	-6.924349e-04
6.351868e+01	-7.004563e-04
6.388556e+01	-7.085707e-04
6.425456e+01	-7.167790e-04
6.462569e+01	-7.250823e-04
6.499897e+01	-7.334819e-04
6.537440e+01	-7.419788e-04
6.575200e+01	-7.505741e-04
6.613178e+01	-7.592689e-04
6.651375e+01	-7.680645e-04
6.689793e+01	-7.769619e-04
6.728433e+01	-7.859624e-04
6.767297e+01	-7.950672e-04
6.806384e+01	-8.042774e-04
6.845698e+01	-8.135943e-04
6.885238e+01	-8.230191e-04
6.925007e+01	-8.325531e-04
6.965005e+01	-8.421975e-04
7.005235e+01	-8.519536e-04
7.045697e+01	-8.618228e-04
7.086393e+01	-8.718062e-04
7.127323e+01	-8.819053e-04
7.168490e+01	-8.921214e-04
7.209895e+01	-9.024558e-04
7.251539e+01	-9.129099e-04
7.293424e+01	-9.234851e-04
7.335551e+01	-9.341827e-04
7.377920e+01	-9.450043e-04
7.420535e+01	-9.559513e-04
7.463396e+01	-9.670250e-04
7.506504e+01	-9.782270e-04
7.549861e+01	-9.895587e-04
7.593469e+01	-1.001022e-03
7.637328e+01	-1.012617e-03
7.681441e+01	-1.024348e-03
7.725809e+01	-1.036213e-03
7.770433e+01	-1.048217e-03
7.815315e+01	-1.060359e-03
7.860456e+01	-1.072642e-03
7.905857e+01	-1.085068e-03
7.951521e+01	-1.097637e-03
7.997449e+01	-1.110352e-03
8.043642e+01	-1.123214e-03
8.090102e+01	-1.136225e-03
8.136830e+01	-1.149386e-03
8.183828e+01	-1.162701e-03
8.231097e+01	-1.176169e-03
8.278640e+01	-1.189793e-03
8.326457e+01	-1.203575e-03
8.374550e+01	-1.217517e-03
8.422921e+01	-1.231620e-03
8.471572e+01	-1.245887e-03
8.520503e+01	-1.260319e-03
8.569717e+01	-1.274918e-03
8.619215e+01	-1.289686e-03
8.669000e+01	-1.304625e-03
8.719071e+01	-1.319737e-03
8.769432e+01	-1.335024e-03
8.820084e+01	-1.350489e-03
8.871029e+01	-1.366132e-03
8.922267e+01	-1.381956e-03
8.973802e+01	-1.397964e-03
9.025634e+01	-1.414157e-03
9.077766e+01	-1.430538e-03
9.130199e+01	-1.447108e-03
9.182935e+01	-1.463871e-03
9.235975e+01	-1.480827e-03
9.289321e+01	-1.497980e-03
9.342976e+01	-1.515332e-03
9.396941e+01	-1.532884e-03
9.451217e+01	-1.550640e-03
9.505807e+01	-1.568601e-03
9.560712e+01	-1.586770e-03
9.615934e+01	-1.605150e-03
9.671476e+01	-1.623743e-03
9.727338e+01	-1.642551e-03
9.783522e+01	-1.661576e-03
9.840032e+01	-1.680822e-03
9.896867e+01	-1.700291e-03
9.954031e+01	-1.719986e-03
1.001153e+02	-1.739908e-03
1.006935e+02	-1.760062e-03
1.012751e+02	-1.780448e-03
1.018601e+02	-1.801071e-03
1.024484e+02	-1.821932e-03
1.030402e+02	-1.843035e-03
1.036353e+02	-1.864383e-03
1.042339e+02	-1.885978e-03
1.048360e+02	-1.907822e-03
1.054415e+02	-1.929920e-03
1.060505e+02	-1.952274e-03
1.066631e+02	-1.974886e-03
1.072791e+02	-1.997760e-03
1.078988e+02	-2.020900e-03
1.085220e+02	-2.044307e-03
1.091488e+02	-2.067985e-03
1.097793e+02	-2.091937e-03
1.104133e+02	-2.116167e-03
1.110511e+02	-2.140677e-03
1.116925e+02	-2.165472e-03
1.123376e+02	-2.190553e-03
1.129865e+02	-2.215924e-03
1.136391e+02	-2.241590e-03
1.142955e+02	-2.267553e-03
1.149556e+02	-2.293816e-03
1.156196e+02	-2.320383e-03
1.162874e+02	-2.347258e-03
1.169591e+02	-2.374444e-03
1.176347e+02	-2.401945e-03
1.183141e+02	-2.429765e-03
1.189975e+02	-2.457906e-03
1.196848e+02	-2.486373e-03
1.203761e+02	-2.515170e-03
1.210714e+02	-2.544301e-03
1.217707e+02	-2.573768e-03
1.224740e+02	-2.603577e-03
1.231814e+02	-2.633731e-03
1.238929e+02	-2.664234e-03
1.246085e+02	-2.695091e-03
1.253283e+02	-2.726304e-03
1.260522e+02	-2.757879e-03
1.267802e+02	-2.789820e-03
1.275125e+02	-2.822130e-03
1.282490e+02	-2.854814e-03
1.289898e+02	-2.887877e-03
1.297348e+02	-2.921322e-03
1.304842e+02	-2.955155e-03
1.312378e+02	-2.989380e-03
1.319959e+02	-3.024000e-03
1.327583e+02	-3.059022e-03
1.335251e+02	-3.094449e-03
1.342963e+02	-3.130286e-03
1.350720e+02	-3.166538e-03
1.358522e+02	-3.203209e-03
1.366368e+02	-3.240306e-03
1.374260e+02	-3.277831e-03
1.382198e+02	-3.315791e-03
1.390182e+02	-3.354191e-03
1.398211e+02	-3.393035e-03
1.406287e+02	-3.432328e-03
1.414410e+02	-3.472077e-03
1.422579e+02	-3.512285e-03
1.430796e+02	-3.552959e-03
1.439060e+02	-3.594104e-03
1.447372e+02	-3.635725e-03
1.455732e+02	-3.677828e-03
1.464141e+02	-3.720419e-03
1.472597e+02	-3.763502e-03
1.481103e+02	-3.807084e-03
1.489658e+02	-3.851171e-03
1.498262e+02	-3.895767e-03
1.506916e+02	-3.940880e-03
1.515620e+02	-3.986515e-03
1.524374e+02	-4.032679e-03
1.533179e+02	-4.079376e-03
1.542034e+02	-4.126614e-03
1.550941e+02	-4.174399e-03
1.559899e+02	-4.222737e-03
1.568909e+02	-4.271635e-03
1.577971e+02	-4.321098e-03
1.587085e+02	-4.371134e-03
1.596252e+02	-4.421749e-03
1.605472e+02	-4.472949e-03
1.614745e+02	-4.524743e-03
1.624072e+02	-4.577135e-03
1.633453e+02	-4.630134e-03
1.642887e+02	-4.683746e-03
1.652377e+02	-4.737979e-03
1.661921e+02	-4.792840e-03
1.671520e+02	-4.848335e-03
1.681175e+02	-4.904472e-03
1.690885e+02	-4.961259e-03
1.700651e+02	-5.018703e-03
1.710474e+02	-5.076812e-03
1.720354e+02	-5.135594e-03
1.730291e+02	-5.195055e-03
1.740285e+02	-5.255205e-03
1.750337e+02	-5.316050e-03
1.760446e+02	-5.377600e-03
1.770615e+02	-5.439862e-03
1.780842e+02	-5.502844e-03
1.791128e+02	-5.566555e-03
1.801473e+02	-5.631003e-03
1.811878e+02	-5.696196e-03
1.822344e+02	-5.762144e-03
1.832870e+02	-5.828855e-03
1.843456e+02	-5.896338e-03
1.854104e+02	-5.964602e-03
1.864813e+02	-6.033655e-03
1.875584e+02	-6.103507e-03
1.886418e+02	-6.174168e-03
1.897313e+02	-6.245645e-03
1.908272e+02	-6.317950e-03
1.919294e+02	-6.391091e-03
1.930380e+02	-6.465078e-03
1.941530e+02	-6.539921e-03
1.952744e+02	-6.615630e-03
1.964023e+02	-6.692215e-03
1.975367e+02	-6.769685e-03
1.986777e+02	-6.848052e-03
1.998252e+02	-6.927325e-03
2.009794e+02	-7.007514e-03
2.021403e+02	-7.088632e-03
2.033078e+02	-7.170687e-03
2.044821e+02	-7.253692e-03
2.056632e+02	-7.337657e-03
2.068511e+02	-7.422593e-03
2.080459e+02	-7.508511e-03
2.092475e+02	-7.595422e-03
2.104561e+02	-7.683339e-03
2.116717e+02	-7.772273e-03
2.128943e+02	-7.862235e-03
2.141240e+02	-7.953237e-03
2.153608e+02	-8.045292e-03
2.166047e+02	-8.138411e-03
2.178558e+02	-8.232607e-03
2.191141e+02	-8.327892e-03
2.203797e+02	-8.424279e-03
2.216526e+02	-8.521780e-03
2.229329e+02	-8.620409e-03
2.242205e+02	-8.720178e-03
2.255156e+02	-8.821101e-03
2.268182e+02	-8.923190e-03
2.281283e+02	-9.026460e-03
2.294459e+02	-9.130923e-03
2.307712e+02	-9.236594e-03
2.321041e+02	-9.343487e-03
2.334447e+02	-9.451616e-03
2.347931e+02	-9.560994e-03
2.361493e+02	-9.671637e-03
2.375133e+02	-9.783559e-03
2.388851e+02	-9.896774e-03
2.402649e+02	-1.001130e-02
2.416527e+02	-1.012715e-02
2.430484e+02	-1.024433e-02
2.444523e+02	-1.036287e-02
2.458642e+02	-1.048278e-02
2.472843e+02	-1.060408e-02
2.487126e+02	-1.072678e-02
2.501492e+02	-1.085090e-02
2.515940e+02	-1.097645e-02
2.530472e+02	-1.110345e-02
2.545088e+02	-1.123192e-02
2.559789e+02	-1.136187e-02
2.574574e+02	-1.149333e-02
2.589444e+02	-1.162630e-02
2.604401e+02	-1.176081e-02
2.619444e+02	-1.189688e-02
2.634574e+02	-1.203452e-02
2.649791e+02	-1.217374e-02
2.665096e+02	-1.231458e-02
2.680489e+02	-1.245704e-02
2.695972e+02	-1.260115e-02
2.711544e+02	-1.274692e-02
2.727205e+02	-1.289438e-02
2.742958e+02	-1.304354e-02
2.758801e+02	-1.319442e-02
2.774736e+02	-1.334704e-02
2.790762e+02	-1.350143e-02
2.806882e+02	-1.365760e-02
2.823094e+02	-1.381558e-02
2.839400e+02	-1.397537e-02
2.855800e+02	-1.413702e-02
2.872295e+02	-1.430053e-02
2.888886e+02	-1.446593e-02
2.905572e+02	-1.463323e-02
2.922354e+02	-1.480247e-02
2.939234e+02	-1.497367e-02
2.956211e+02	-1.514684e-02
2.973286e+02	-1.532201e-02
2.990459e+02	-1.549920e-02
3.007732e+02	-1.567844e-02
3.025104e+02	-1.585974e-02
3.042577e+02	-1.604314e-02
3.060151e+02	-1.622866e-02
3.077826e+02	-1.641631e-02
3.095604e+02	-1.660613e-02
3.113484e+02	-1.679815e-02
3.131467e+02	-1.699238e-02
3.149554e+02	-1.718885e-02
3.167746e+02	-1.738758e-02
3.186043e+02	-1.758861e-02
3.204445e+02	-1.779196e-02
3.222954e+02	-1.799766e-02
3.241570e+02	-1.820573e-02
3.260293e+02	-1.841620e-02
3.279124e+02	-1.862909e-02
3.298064e+02	-1.884445e-02
3.317114e+02	-1.906228e-02
3.336273e+02	-1.928263e-02
3.355544e+02	-1.950552e-02
3.374925e+02	-1.973098e-02
3.394418e+02	-1.995905e-02
3.414024e+02	-2.018974e-02
3.433744e+02	-2.042309e-02
3.453577e+02	-2.065913e-02
3.473525e+02	-2.089789e-02
3.493588e+02	-2.113941e-02
3.513766e+02	-2.138371e-02
3.534062e+02	-2.163083e-02
3.554474e+02	-2.188079e-02
3.575005e+02	-2.213364e-02
3.595654e+02	-2.238940e-02
3.616422e+02	-2.264811e-02
3.637311e+02	-2.290980e-02
3.658320e+02	-2.317450e-02
3.679450e+02	-2.344226e-02
3.700702e+02	-2.371310e-02
3.722077e+02	-2.398706e-02
3.743576e+02	-2.426418e-02
3.765199e+02	-2.454448e-02
3.786946e+02	-2.482802e-02
3.808820e+02	-2.511483e-02
3.830819e+02	-2.540494e-02
3.852946e+02	-2.569838e-02
3.875200e+02	-2.599521e-02
3.897583e+02	-2.629546e-02
3.920096e+02	-2.659916e-02
3.942738e+02	-2.690636e-02
3.965511e+02	-2.721710e-02
3.988416e+02	-2.753141e-02
4.011452e+02	-2.784935e-02
4.034622e+02	-2.817094e-02
4.057926e+02	-2.849623e-02
4.081365e+02	-2.882527e-02
4.104938e+02	-2.915809e-02
4.128648e+02	-2.949475e-02
4.152495e+02	-2.983527e-02
4.176480e+02	-3.017972e-02
4.200603e+02	-3.052812e-02
4.224866e+02	-3.088054e-02
4.249268e+02	-3.123701e-02
4.273812e+02	-3.159758e-02
4.298497e+02	-3.196229e-02
4.323325e+02	-3.233120e-02
4.348297e+02	-3.270435e-02
4.373412e+02	-3.308179e-02
4.398673e+02	-3.346357e-02
4.424079e+02	-3.384974e-02
4.449633e+02	-3.424035e-02
4.475334e+02	-3.463544e-02
4.501183e+02	-3.503508e-02
4.527182e+02	-3.543931e-02
4.553330e+02	-3.584819e-02
4.579630e+02	-3.626176e-02
4.606082e+02	-3.668008e-02
4.632687e+02	-3.710321e-02
4.659445e+02	-3.753120e-02
4.686358e+02	-3.796410e-02
4.713426e+02	-3.840197e-02
4.740650e+02	-3.884487e-02
4.768032e+02	-3.929286e-02
4.795572e+02	-3.974599e-02
4.823271e+02	-4.020432e-02
4.851130e+02	-4.066791e-02
4.879150e+02	-4.113682e-02
4.907332e+02	-4.161111e-02
4.935676e+02	-4.209085e-02
4.964185e+02	-4.257609e-02
4.992858e+02	-4.306689e-02
5.021696e+02	-4.356332e-02
5.050701e+02	-4.406545e-02
5.079874e+02	-4.457333e-02
5.109215e+02	-4.508704e-02
5.138726e+02	-4.560663e-02
5.168407e+02	-4.613219e-02
5.198259e+02	-4.666376e-02
5.228284e+02	-4.720143e-02
5.258482e+02	-4.774526e-02
5.288855e+02	-4.829532e-02
5.319403e+02	-4.885168e-02
5.350128e+02	-4.941441e-02
5.381030e+02	-4.998359e-02
5.412111e+02	-5.055929e-02
5.443371e+02	-5.114157e-02
5.474812e+02	-5.173053e-02
5.506434e+02	-5.232622e-02
5.538239e+02	-5.292873e-02
5.570228e+02	-5.353814e-02
5.602401e+02	-5.415452e-02
5.634760e+02	-5.477795e-02
5.667306e+02	-5.540851e-02
5.700040e+02	-5.604629e-02
5.732964e+02	-5.669135e-02
5.766077e+02	-5.734380e-02
5.799382e+02	-5.800370e-02
5.832879e+02	-5.867114e-02
5.866569e+02	-5.934621e-02
5.900454e+02	-6.002899e-02
5.934535e+02	-6.071958e-02
5.968813e+02	-6.141805e-02
6.003288e+02	-6.212450e-02
6.037963e+02	-6.283901e-02
6.072838e+02	-6.356169e-02
6.107914e+02	-6.429261e-02
6.143194e+02	-6.503188e-02
6.178676e+02	-6.577958e-02
6.214364e+02	-6.653581e-02
6.250258e+02	-6.730067e-02
6.286359e+02	-6.807425e-02
6.322669e+02	-6.885665e-02
6.359189e+02	-6.964797e-02
6.395919e+02	-7.044831e-02
6.432862e+02	-7.125778e-02
6.470017e+02	-7.207646e-02
6.507388e+02	-7.290448e-02
6.544974e+02	-7.374192e-02
6.582778e+02	-7.458890e-02
6.620800e+02	-7.544553e-02
6.659041e+02	-7.631190e-02
6.697504e+02	-7.718814e-02
6.736188e+02	-7.807435e-02
6.775096e+02	-7.897064e-02
6.814229e+02	-7.987712e-02
6.853587e+02	-8.079391e-02
6.893173e+02	-8.172113e-02
6.932988e+02	-8.265888e-02
6.973033e+02	-8.360729e-02
7.013309e+02	-8.456648e-02
