Frequency(Hz)	Magnitude(dB)
1.000000e+01	-2.006073e+00
1.005776e+01	-2.024628e+00
1.011585e+01	-2.043552e+00
1.017428e+01	-2.062294e+00
1.023305e+01	-2.081199e+00
1.029215e+01	-2.100381e+00
1.035160e+01	-2.119824e+00
1.041139e+01	-2.139095e+00
1.047153e+01	-2.158423e+00
1.053201e+01	-2.178028e+00
1.059284e+01	-2.197878e+00
1.065403e+01	-2.218094e+00
1.071556e+01	-2.237940e+00
1.077746e+01	-2.258236e+00
1.083971e+01	-2.278625e+00
1.090232e+01	-2.299020e+00
1.096529e+01	-2.319730e+00
1.102862e+01	-2.340416e+00
1.109232e+01	-2.361318e+00
1.115639e+01	-2.382533e+00
1.122083e+01	-2.403630e+00
1.128564e+01	-2.424864e+00
1.135083e+01	-2.446501e+00
1.141639e+01	-2.468013e+00
1.148233e+01	-2.489755e+00
1.154865e+01	-2.511891e+00
1.161536e+01	-2.533608e+00
1.168245e+01	-2.555891e+00
1.174992e+01	-2.578093e+00
1.181779e+01	-2.600796e+00
1.188605e+01	-2.623279e+00
1.195470e+01	-2.646124e+00
1.202375e+01	-2.668896e+00
1.209320e+01	-2.692059e+00
1.216305e+01	-2.715289e+00
1.223330e+01	-2.738225e+00
1.230396e+01	-2.762208e+00
1.237503e+01	-2.785492e+00
1.244651e+01	-2.809228e+00
1.251840e+01	-2.833140e+00
1.259070e+01	-2.857319e+00
1.266343e+01	-2.881424e+00
1.273657e+01	-2.905893e+00
1.281014e+01	-2.930130e+00
1.288413e+01	-2.954784e+00
1.295855e+01	-2.979696e+00
1.303339e+01	-3.004503e+00
1.310867e+01	-3.029615e+00
1.318439e+01	-3.054828e+00
1.326054e+01	-3.080274e+00
1.333713e+01	-3.105742e+00
1.341417e+01	-3.131164e+00
1.349165e+01	-3.157045e+00
1.356958e+01	-3.182951e+00
1.364795e+01	-3.209215e+00
1.372678e+01	-3.235340e+00
1.380607e+01	-3.261689e+00
1.388581e+01	-3.288220e+00
1.396602e+01	-3.314853e+00
1.404668e+01	-3.341399e+00
1.412782e+01	-3.368644e+00
1.420942e+01	-3.395289e+00
1.429149e+01	-3.422659e+00
1.437404e+01	-3.449976e+00
1.445706e+01	-3.477584e+00
1.454057e+01	-3.505103e+00
1.462455e+01	-3.532989e+00
1.470902e+01	-3.560759e+00
1.479398e+01	-3.588783e+00
1.487943e+01	-3.617268e+00
1.496537e+01	-3.645145e+00
1.505181e+01	-3.674055e+00
1.513875e+01	-3.702624e+00
1.522619e+01	-3.731340e+00
1.531414e+01	-3.760126e+00
1.540259e+01	-3.789489e+00
1.549156e+01	-3.818357e+00
1.558103e+01	-3.847838e+00
1.567103e+01	-3.877327e+00
1.576155e+01	-3.906602e+00
1.585258e+01	-3.936572e+00
1.594415e+01	-3.966616e+00
1.603624e+01	-3.996622e+00
1.612886e+01	-4.026840e+00
1.622202e+01	-4.056962e+00
1.631572e+01	-4.087675e+00
1.640996e+01	-4.118037e+00
1.650474e+01	-4.148940e+00
1.660008e+01	-4.179750e+00
1.669596e+01	-4.210743e+00
1.679239e+01	-4.241853e+00
1.688938e+01	-4.273349e+00
1.698694e+01	-4.304228e+00
1.708505e+01	-4.335801e+00
1.718373e+01	-4.367172e+00
1.728299e+01	-4.399160e+00
1.738281e+01	-4.431179e+00
1.748322e+01	-4.463423e+00
1.758420e+01	-4.495569e+00
1.768576e+01	-4.528038e+00
1.778792e+01	-4.560347e+00
1.789066e+01	-4.592601e+00
1.799399e+01	-4.625505e+00
1.809793e+01	-4.658113e+00
1.820246e+01	-4.691444e+00
1.830760e+01	-4.724536e+00
1.841334e+01	-4.757557e+00
1.851969e+01	-4.791101e+00
1.862666e+01	-4.824576e+00
1.873425e+01	-4.858204e+00
1.884246e+01	-4.892102e+00
1.895129e+01	-4.925792e+00
1.906075e+01	-4.959789e+00
1.917085e+01	-4.993970e+00
1.928158e+01	-5.028145e+00
1.939295e+01	-5.062635e+00
1.950496e+01	-5.097285e+00
1.961762e+01	-5.131724e+00
1.973093e+01	-5.166227e+00
1.984490e+01	-5.201450e+00
1.995952e+01	-5.236240e+00
2.007480e+01	-5.271276e+00
2.019076e+01	-5.306788e+00
2.030738e+01	-5.341926e+00
2.042467e+01	-5.377467e+00
2.054264e+01	-5.413136e+00
2.066130e+01	-5.448851e+00
2.078064e+01	-5.484543e+00
2.090066e+01	-5.520419e+00
2.102139e+01	-5.556643e+00
2.114280e+01	-5.592650e+00
2.126492e+01	-5.628999e+00
2.138775e+01	-5.664983e+00
2.151128e+01	-5.701967e+00
2.163553e+01	-5.738280e+00
2.176050e+01	-5.775174e+00
2.188619e+01	-5.812130e+00
2.201260e+01	-5.849072e+00
2.213974e+01	-5.886174e+00
2.226762e+01	-5.923448e+00
2.239624e+01	-5.960798e+00
2.252560e+01	-5.998273e+00
2.265571e+01	-6.035448e+00
2.278656e+01	-6.073113e+00
2.291818e+01	-6.110658e+00
2.305055e+01	-6.148354e+00
2.318369e+01	-6.186643e+00
2.331760e+01	-6.224708e+00
2.345228e+01	-6.262955e+00
2.358774e+01	-6.300909e+00
2.372398e+01	-6.339528e+00
2.386101e+01	-6.377784e+00
2.399883e+01	-6.416107e+00
2.413745e+01	-6.455351e+00
2.427686e+01	-6.493811e+00
2.441709e+01	-6.532883e+00
2.455812e+01	-6.571968e+00
2.469997e+01	-6.610952e+00
2.484263e+01	-6.649852e+00
2.498612e+01	-6.689223e+00
2.513044e+01	-6.728434e+00
2.527559e+01	-6.767861e+00
2.542158e+01	-6.807427e+00
2.556842e+01	-6.847006e+00
2.571610e+01	-6.886572e+00
2.586463e+01	-6.926635e+00
2.601403e+01	-6.966574e+00
2.616428e+01	-7.006713e+00
2.631541e+01	-7.046928e+00
2.646740e+01	-7.087225e+00
2.662028e+01	-7.126919e+00
2.677404e+01	-7.167633e+00
2.692868e+01	-7.208050e+00
2.708422e+01	-7.248686e+00
2.724066e+01	-7.289478e+00
2.739800e+01	-7.329784e+00
2.755625e+01	-7.370957e+00
2.771541e+01	-7.411962e+00
2.787550e+01	-7.452636e+00
2.803650e+01	-7.493542e+00
2.819844e+01	-7.535162e+00
2.836131e+01	-7.576252e+00
2.852513e+01	-7.617694e+00
2.868989e+01	-7.659279e+00
2.885560e+01	-7.700635e+00
2.902227e+01	-7.741778e+00
2.918990e+01	-7.783164e+00
2.935850e+01	-7.825075e+00
2.952807e+01	-7.867072e+00
2.969863e+01	-7.908841e+00
2.987016e+01	-7.950888e+00
3.004269e+01	-7.993358e+00
3.021622e+01	-8.035135e+00
3.039075e+01	-8.077310e+00
3.056628e+01	-8.119826e+00
3.074283e+01	-8.162043e+00
3.092040e+01	-8.204461e+00
3.109900e+01	-8.246832e+00
3.127862e+01	-8.289665e+00
3.145929e+01	-8.332220e+00
3.164099e+01	-8.374934e+00
3.182375e+01	-8.417732e+00
3.200756e+01	-8.460481e+00
3.219244e+01	-8.503199e+00
3.237838e+01	-8.546325e+00
3.256540e+01	-8.589675e+00
3.275349e+01	-8.632563e+00
3.294268e+01	-8.675937e+00
3.313295e+01	-8.718601e+00
3.332433e+01	-8.762272e+00
3.351681e+01	-8.805998e+00
3.371040e+01	-8.849197e+00
3.390511e+01	-8.892725e+00
3.410094e+01	-8.936985e+00
3.429791e+01	-8.980025e+00
3.449601e+01	-9.023558e+00
3.469526e+01	-9.067447e+00
3.489566e+01	-9.111579e+00
3.509721e+01	-9.155717e+00
3.529993e+01	-9.199553e+00
3.550382e+01	-9.243881e+00
3.570889e+01	-9.287626e+00
3.591515e+01	-9.331679e+00
3.612259e+01	-9.375743e+00
3.633123e+01	-9.420142e+00
3.654108e+01	-9.464261e+00
3.675214e+01	-9.508998e+00
3.696442e+01	-9.553685e+00
3.717792e+01	-9.598052e+00
3.739266e+01	-9.642334e+00
3.760864e+01	-9.686779e+00
3.782587e+01	-9.731746e+00
3.804435e+01	-9.776126e+00
3.826409e+01	-9.821489e+00
3.848510e+01	-9.865942e+00
3.870739e+01	-9.910919e+00
3.893096e+01	-9.955977e+00
3.915583e+01	-1.000131e+01
3.938199e+01	-1.004595e+01
3.960946e+01	-1.009125e+01
3.983824e+01	-1.013643e+01
4.006834e+01	-1.018157e+01
4.029978e+01	-1.022629e+01
4.053255e+01	-1.027106e+01
4.076666e+01	-1.031770e+01
4.100213e+01	-1.036296e+01
4.123896e+01	-1.040834e+01
4.147715e+01	-1.045376e+01
4.171672e+01	-1.049907e+01
4.195767e+01	-1.054486e+01
4.220002e+01	-1.058966e+01
4.244377e+01	-1.063575e+01
4.268892e+01	-1.068161e+01
4.293549e+01	-1.072763e+01
4.318348e+01	-1.077376e+01
4.343291e+01	-1.081952e+01
4.368377e+01	-1.086515e+01
4.393609e+01	-1.091145e+01
4.418986e+01	-1.095718e+01
4.444510e+01	-1.100350e+01
4.470182e+01	-1.104921e+01
4.496001e+01	-1.109574e+01
4.521970e+01	-1.114144e+01
4.548089e+01	-1.118753e+01
4.574358e+01	-1.123419e+01
4.600779e+01	-1.128061e+01
4.627353e+01	-1.132641e+01
4.654081e+01	-1.137286e+01
4.680963e+01	-1.142009e+01
4.708000e+01	-1.146587e+01
4.735193e+01	-1.151221e+01
4.762543e+01	-1.155820e+01
4.790051e+01	-1.160609e+01
4.817719e+01	-1.165194e+01
4.845545e+01	-1.169892e+01
4.873533e+01	-1.174531e+01
4.901682e+01	-1.179193e+01
4.929994e+01	-1.183836e+01
4.958470e+01	-1.188537e+01
4.987110e+01	-1.193240e+01
5.015915e+01	-1.197931e+01
5.044887e+01	-1.202579e+01
5.074026e+01	-1.207266e+01
5.103333e+01	-1.212028e+01
5.132810e+01	-1.216654e+01
5.162457e+01	-1.221390e+01
5.192275e+01	-1.226119e+01
5.222265e+01	-1.230779e+01
5.252429e+01	-1.235516e+01
5.282767e+01	-1.240249e+01
5.313280e+01	-1.244928e+01
5.343969e+01	-1.249647e+01
5.374836e+01	-1.254400e+01
5.405880e+01	-1.259107e+01
5.437105e+01	-1.263805e+01
5.468509e+01	-1.268474e+01
5.500095e+01	-1.273262e+01
5.531863e+01	-1.278016e+01
5.563815e+01	-1.282770e+01
5.595951e+01	-1.287438e+01
5.628273e+01	-1.292168e+01
5.660782e+01	-1.297033e+01
5.693479e+01	-1.301679e+01
5.726364e+01	-1.306477e+01
5.759439e+01	-1.311284e+01
5.792705e+01	-1.316055e+01
5.826164e+01	-1.320803e+01
5.859815e+01	-1.325480e+01
5.893662e+01	-1.330290e+01
5.927703e+01	-1.335170e+01
5.961941e+01	-1.339901e+01
5.996377e+01	-1.344667e+01
6.031012e+01	-1.349443e+01
6.065847e+01	-1.354195e+01
6.100883e+01	-1.359024e+01
6.136121e+01	-1.363772e+01
6.171563e+01	-1.368546e+01
6.207210e+01	-1.373401e+01
6.243063e+01	-1.378083e+01
6.279122e+01	-1.382981e+01
6.315390e+01	-1.387670e+01
6.351868e+01	-1.392486e+01
6.388556e+01	-1.397308e+01
6.425456e+01	-1.402154e+01
6.462569e+01	-1.406980e+01
6.499897e+01	-1.411796e+01
6.537440e+01	-1.416536e+01
6.575200e+01	-1.421338e+01
6.613178e+01	-1.426162e+01
6.651375e+01	-1.431004e+01
6.689793e+01	-1.435895e+01
6.728433e+01	-1.440660e+01
6.767297e+01	-1.445443e+01
6.806384e+01	-1.450280e+01
6.845698e+01	-1.455084e+01
6.885238e+01	-1.459948e+01
6.925007e+01	-1.464689e+01
6.965005e+01	-1.469648e+01
7.005235e+01	-1.474437e+01
7.045697e+01	-1.479230e+01
7.086393e+01	-1.484113e+01
7.127323e+01	-1.488886e+01
7.168490e+01	-1.493903e+01
7.209895e+01	-1.498693e+01
7.251539e+01	-1.503431e+01
7.293424e+01	-1.508238e+01
7.335551e+01	-1.513150e+01
7.377920e+01	-1.518012e+01
7.420535e+01	-1.522887e+01
7.463396e+01	-1.527660e+01
7.506504e+01	-1.532634e+01
7.549861e+01	-1.537396e+01
7.593469e+01	-1.542247e+01
7.637328e+01	-1.547116e+01
7.681441e+01	-1.552039e+01
7.725809e+01	-1.556829e+01
7.770433e+01	-1.561719e+01
7.815315e+01	-1.566615e+01
7.860456e+01	-1.571548e+01
7.905857e+01	-1.576262e+01
7.951521e+01	-1.581242e+01
7.997449e+01	-1.586080e+01
8.043642e+01	-1.591068e+01
8.090102e+01	-1.595793e+01
8.136830e+01	-1.600774e+01
8.183828e+01	-1.605571e+01
8.231097e+01	-1.610488e+01
8.278640e+01	-1.615264e+01
8.326457e+01	-1.620191e+01
8.374550e+01	-1.625073e+01
8.422921e+01	-1.630023e+01
8.471572e+01	-1.634887e+01
8.520503e+01	-1.639918e+01
8.569717e+01	-1.644642e+01
8.619215e+01	-1.649617e+01
8.669000e+01	-1.654540e+01
8.719071e+01	-1.659460e+01
8.769432e+01	-1.664284e+01
8.820084e+01	-1.669164e+01
8.871029e+01	-1.674030e+01
8.922267e+01	-1.678948e+01
8.973802e+01	-1.683846e+01
9.025634e+01	-1.688786e+01
9.077766e+01	-1.693519e+01
9.130199e+01	-1.698560e+01
9.182935e+01	-1.703415e+01
9.235975e+01	-1.708376e+01
9.289321e+01	-1.713223e+01
9.342976e+01	-1.718248e+01
9.396941e+01	-1.723057e+01
9.451217e+01	-1.728041e+01
9.505807e+01	-1.732921e+01
9.560712e+01	-1.737835e+01
9.615934e+01	-1.742705e+01
9.671476e+01	-1.747549e+01
9.727338e+01	-1.752472e+01
9.783522e+01	-1.757469e+01
9.840032e+01	-1.762301e+01
9.896867e+01	-1.767303e+01
9.954031e+01	-1.772118e+01
1.001153e+02	-1.777137e+01
1.006935e+02	-1.782002e+01
1.012751e+02	-1.787135e+01
1.018601e+02	-1.791906e+01
1.024484e+02	-1.796931e+01
1.030402e+02	-1.801754e+01
1.036353e+02	-1.806750e+01
1.042339e+02	-1.811596e+01
1.048360e+02	-1.816386e+01
1.054415e+02	-1.821476e+01
1.060505e+02	-1.826407e+01
1.066631e+02	-1.831298e+01
1.072791e+02	-1.836239e+01
1.078988e+02	-1.841169e+01
1.085220e+02	-1.846294e+01
1.091488e+02	-1.850909e+01
1.097793e+02	-1.855921e+01
1.104133e+02	-1.860922e+01
1.110511e+02	-1.865759e+01
1.116925e+02	-1.870761e+01
1.123376e+02	-1.875579e+01
1.129865e+02	-1.880603e+01
1.136391e+02	-1.885627e+01
1.142955e+02	-1.890515e+01
1.149556e+02	-1.895444e+01
1.156196e+02	-1.900253e+01
1.162874e+02	-1.905262e+01
1.169591e+02	-1.910284e+01
1.176347e+02	-1.915173e+01
1.183141e+02	-1.920165e+01
1.189975e+02	-1.925145e+01
1.196848e+02	-1.930152e+01
1.203761e+02	-1.934869e+01
1.210714e+02	-1.939910e+01
1.217707e+02	-1.944960e+01
1.224740e+02	-1.949804e+01
1.231814e+02	-1.954863e+01
1.238929e+02	-1.959908e+01
1.246085e+02	-1.964708e+01
1.253283e+02	-1.969536e+01
1.260522e+02	-1.974493e+01
1.267802e+02	-1.979637e+01
1.275125e+02	-1.984553e+01
1.282490e+02	-1.989302e+01
1.289898e+02	-1.994204e+01
1.297348e+02	-1.999450e+01
1.304842e+02	-2.004418e+01
1.312378e+02	-2.009310e+01
1.319959e+02	-2.014286e+01
1.327583e+02	-2.019202e+01
1.335251e+02	-2.024125e+01
1.342963e+02	-2.029070e+01
1.350720e+02	-2.033978e+01
1.358522e+02	-2.038958e+01
1.366368e+02	-2.043873e+01
1.374260e+02	-2.048944e+01
1.382198e+02	-2.053976e+01
1.390182e+02	-2.058755e+01
1.398211e+02	-2.063715e+01
1.406287e+02	-2.068835e+01
1.414410e+02	-2.073590e+01
1.422579e+02	-2.078737e+01
1.430796e+02	-2.083703e+01
1.439060e+02	-2.088683e+01
1.447372e+02	-2.093642e+01
1.455732e+02	-2.098627e+01
1.464141e+02	-2.103537e+01
1.472597e+02	-2.108294e+01
1.481103e+02	-2.113457e+01
1.489658e+02	-2.118382e+01
1.498262e+02	-2.123349e+01
1.506916e+02	-2.128260e+01
1.515620e+02	-2.133402e+01
1.524374e+02	-2.138354e+01
1.533179e+02	-2.143195e+01
1.542034e+02	-2.148164e+01
1.550941e+02	-2.153156e+01
1.559899e+02	-2.158016e+01
1.568909e+02	-2.163109e+01
1.577971e+02	-2.168230e+01
1.587085e+02	-2.173066e+01
1.596252e+02	-2.178230e+01
1.605472e+02	-2.183057e+01
1.614745e+02	-2.188045e+01
1.624072e+02	-2.192820e+01
1.633453e+02	-2.197901e+01
1.642887e+02	-2.202726e+01
1.652377e+02	-2.207906e+01
1.661921e+02	-2.212921e+01
1.671520e+02	-2.217765e+01
1.681175e+02	-2.222717e+01
1.690885e+02	-2.227663e+01
1.700651e+02	-2.232939e+01
1.710474e+02	-2.237862e+01
1.720354e+02	-2.242577e+01
1.730291e+02	-2.247431e+01
1.740285e+02	-2.252716e+01
1.750337e+02	-2.257596e+01
1.760446e+02	-2.262632e+01
1.770615e+02	-2.267512e+01
1.780842e+02	-2.272467e+01
1.791128e+02	-2.277237e+01
1.801473e+02	-2.282370e+01
1.811878e+02	-2.287363e+01
1.822344e+02	-2.292368e+01
1.832870e+02	-2.297381e+01
1.843456e+02	-2.302520e+01
1.854104e+02	-2.307033e+01
1.864813e+02	-2.312211e+01
1.875584e+02	-2.317175e+01
1.886418e+02	-2.322334e+01
1.897313e+02	-2.327469e+01
1.908272e+02	-2.332405e+01
1.919294e+02	-2.337187e+01
1.930380e+02	-2.342191e+01
1.941530e+02	-2.347331e+01
1.952744e+02	-2.352320e+01
1.964023e+02	-2.357250e+01
1.975367e+02	-2.362239e+01
1.986777e+02	-2.366844e+01
1.998252e+02	-2.372140e+01
2.009794e+02	-2.377101e+01
2.021403e+02	-2.382136e+01
2.033078e+02	-2.387194e+01
2.044821e+02	-2.392156e+01
2.056632e+02	-2.397123e+01
2.068511e+02	-2.402149e+01
2.080459e+02	-2.406823e+01
2.092475e+02	-2.412099e+01
2.104561e+02	-2.416924e+01
2.116717e+02	-2.422042e+01
2.128943e+02	-2.427232e+01
2.141240e+02	-2.431976e+01
2.153608e+02	-2.436971e+01
2.166047e+02	-2.442066e+01
2.178558e+02	-2.446787e+01
2.191141e+02	-2.451927e+01
2.203797e+02	-2.456953e+01
2.216526e+02	-2.461611e+01
2.229329e+02	-2.466970e+01
2.242205e+02	-2.471675e+01
2.255156e+02	-2.476762e+01
2.268182e+02	-2.481890e+01
2.281283e+02	-2.486871e+01
2.294459e+02	-2.491806e+01
2.307712e+02	-2.496590e+01
2.321041e+02	-2.501900e+01
2.334447e+02	-2.506731e+01
2.347931e+02	-2.511566e+01
2.361493e+02	-2.516686e+01
2.375133e+02	-2.521594e+01
2.388851e+02	-2.526832e+01
2.402649e+02	-2.531830e+01
2.416527e+02	-2.536543e+01
2.430484e+02	-2.541849e+01
2.444523e+02	-2.546544e+01
2.458642e+02	-2.551374e+01
2.472843e+02	-2.556481e+01
2.487126e+02	-2.561907e+01
2.501492e+02	-2.566681e+01
2.515940e+02	-2.571935e+01
2.530472e+02	-2.576880e+01
2.545088e+02	-2.581735e+01
2.559789e+02	-2.586632e+01
2.574574e+02	-2.591821e+01
2.589444e+02	-2.596621e+01
2.604401e+02	-2.601857e+01
2.619444e+02	-2.607128e+01
2.634574e+02	-2.611658e+01
2.649791e+02	-2.616819e+01
2.665096e+02	-2.621867e+01
2.680489e+02	-2.626647e+01
2.695972e+02	-2.631448e+01
2.711544e+02	-2.636515e+01
2.727205e+02	-2.641504e+01
2.742958e+02	-2.646583e+01
2.758801e+02	-2.651648e+01
2.774736e+02	-2.656741e+01
2.790762e+02	-2.661470e+01
2.806882e+02	-2.666456e+01
2.823094e+02	-2.671411e+01
2.839400e+02	-2.676851e+01
2.855800e+02	-2.681742e+01
2.872295e+02	-2.687078e+01
2.888886e+02	-2.691826e+01
2.905572e+02	-2.696949e+01
2.922354e+02	-2.701708e+01
2.939234e+02	-2.706268e+01
2.956211e+02	-2.711428e+01
2.973286e+02	-2.716841e+01
2.990459e+02	-2.721466e+01
3.007732e+02	-2.726744e+01
3.025104e+02	-2.731630e+01
3.042577e+02	-2.736424e+01
3.060151e+02	-2.741422e+01
3.077826e+02	-2.746625e+01
3.095604e+02	-2.751249e+01
3.113484e+02	-2.756415e+01
3.131467e+02	-2.761386e+01
3.149554e+02	-2.766779e+01
3.167746e+02	-2.771587e+01
3.186043e+02	-2.776560e+01
3.204445e+02	-2.782102e+01
3.222954e+02	-2.786482e+01
3.241570e+02	-2.791306e+01
3.260293e+02	-2.797128e+01
3.279124e+02	-2.801692e+01
3.298064e+02	-2.806204e+01
3.317114e+02	-2.811531e+01
3.336273e+02	-2.816609e+01
3.355544e+02	-2.821955e+01
3.374925e+02	-2.826646e+01
3.394418e+02	-2.831502e+01
3.414024e+02	-2.836634e+01
3.433744e+02	-2.841438e+01
3.453577e+02	-2.846666e+01
3.473525e+02	-2.852266e+01
3.493588e+02	-2.856194e+01
3.513766e+02	-2.861816e+01
3.534062e+02	-2.866698e+01
3.554474e+02	-2.871395e+01
3.575005e+02	-2.876740e+01
3.595654e+02	-2.882185e+01
3.616422e+02	-2.886859e+01
3.637311e+02	-2.891496e+01
3.658320e+02	-2.896351e+01
3.679450e+02	-2.901683e+01
3.700702e+02	-2.906819e+01
3.722077e+02	-2.911780e+01
3.743576e+02	-2.917210e+01
3.765199e+02	-2.922341e+01
3.786946e+02	-2.926746e+01
3.808820e+02	-2.931537e+01
3.830819e+02	-2.936648e+01
3.852946e+02	-2.941617e+01
3.875200e+02	-2.947696e+01
3.897583e+02	-2.951713e+01
3.920096e+02	-2.956817e+01
3.942738e+02	-2.961920e+01
3.965511e+02	-2.966379e+01
3.988416e+02	-2.971735e+01
4.011452e+02	-2.977148e+01
4.034622e+02	-2.982028e+01
4.057926e+02	-2.986785e+01
4.081365e+02	-2.991745e+01
4.104938e+02	-2.997211e+01
4.128648e+02	-3.002095e+01
4.152495e+02	-3.006612e+01
4.176480e+02	-3.012284e+01
4.200603e+02	-3.016640e+01
4.224866e+02	-3.022277e+01
4.249268e+02	-3.026777e+01
4.273812e+02	-3.031956e+01
4.298497e+02	-3.037801e+01
4.323325e+02	-3.042204e+01
4.348297e+02	-3.047061e+01
4.373412e+02	-3.052017e+01
4.398673e+02	-3.057028e+01
4.424079e+02	-3.062429e+01
4.449633e+02	-3.067190e+01
4.475334e+02	-3.072420e+01
4.501183e+02	-3.077344e+01
4.527182e+02	-3.081580e+01
4.553330e+02	-3.086802e+01
4.579630e+02	-3.092150e+01
4.606082e+02	-3.097283e+01
4.632687e+02	-3.102450e+01
4.659445e+02	-3.106998e+01
4.686358e+02	-3.112485e+01
4.713426e+02	-3.117224e+01
4.740650e+02	-3.122067e+01
4.768032e+02	-3.127073e+01
4.795572e+02	-3.132165e+01
4.823271e+02	-3.136894e+01
4.851130e+02	-3.142207e+01
4.879150e+02	-3.147235e+01
4.907332e+02	-3.151726e+01
4.935676e+02	-3.157437e+01
4.964185e+02	-3.162613e+01
4.992858e+02	-3.166653e+01
5.021696e+02	-3.172683e+01
5.050701e+02	-3.177532e+01
5.079874e+02	-3.182502e+01
5.109215e+02	-3.187862e+01
5.138726e+02	-3.192821e+01
5.168407e+02	-3.197168e+01
5.198259e+02	-3.202106e+01
5.228284e+02	-3.207340e+01
5.258482e+02	-3.212604e+01
5.288855e+02	-3.217753e+01
5.319403e+02	-3.222602e+01
5.350128e+02	-3.227980e+01
5.381030e+02	-3.232157e+01
5.412111e+02	-3.237685e+01
5.443371e+02	-3.242419e+01
5.474812e+02	-3.247172e+01
5.506434e+02	-3.252510e+01
5.538239e+02	-3.257803e+01
5.570228e+02	-3.262932e+01
5.602401e+02	-3.267600e+01
5.634760e+02	-3.273009e+01
5.667306e+02	-3.277731e+01
5.700040e+02	-3.283102e+01
5.732964e+02	-3.287253e+01
5.766077e+02	-3.292882e+01
5.799382e+02	-3.298478e+01
5.832879e+02	-3.302842e+01
5.866569e+02	-3.308622e+01
5.900454e+02	-3.313662e+01
5.934535e+02	-3.318773e+01
5.968813e+02	-3.323602e+01
6.003288e+02	-3.328316e+01
6.037963e+02	-3.333527e+01
6.072838e+02	-3.338438e+01
6.107914e+02	-3.343250e+01
6.143194e+02	-3.348456e+01
6.178676e+02	-3.353696e+01
6.214364e+02	-3.357695e+01
6.250258e+02	-3.362565e+01
6.286359e+02	-3.367268e+01
6.322669e+02	-3.373436e+01
6.359189e+02	-3.378170e+01
6.395919e+02	-3.383701e+01
6.432862e+02	-3.388911e+01
6.470017e+02	-3.393829e+01
6.507388e+02	-3.398828e+01
6.544974e+02	-3.403589e+01
6.582778e+02	-3.408184e+01
6.620800e+02	-3.413406e+01
6.659041e+02	-3.419109e+01
6.697504e+02	-3.423460e+01
6.736188e+02	-3.428833e+01
6.775096e+02	-3.433942e+01
6.814229e+02	-3.438722e+01
6.853587e+02	-3.443236e+01
6.893173e+02	-3.448093e+01
6.932988e+02	-3.453891e+01
6.973033e+02	-3.458687e+01
7.013309e+02	-3.463762e+01
