Frequency(Hz)	Magnitude(dB)
1.000000e+01	-2.216676e+00
1.005776e+01	-2.236805e+00
1.011585e+01	-2.256908e+00
1.017428e+01	-2.277294e+00
1.023305e+01	-2.297801e+00
1.029215e+01	-2.318554e+00
1.035160e+01	-2.339286e+00
1.041139e+01	-2.360225e+00
1.047153e+01	-2.381144e+00
1.053201e+01	-2.402497e+00
1.059284e+01	-2.423751e+00
1.065403e+01	-2.445361e+00
1.071556e+01	-2.466787e+00
1.077746e+01	-2.488575e+00
1.083971e+01	-2.510290e+00
1.090232e+01	-2.532336e+00
1.096529e+01	-2.554605e+00
1.102862e+01	-2.577179e+00
1.109232e+01	-2.599301e+00
1.115639e+01	-2.622048e+00
1.122083e+01	-2.644956e+00
1.128564e+01	-2.667649e+00
1.135083e+01	-2.690834e+00
1.141639e+01	-2.713730e+00
1.148233e+01	-2.737207e+00
1.154865e+01	-2.760397e+00
1.161536e+01	-2.784378e+00
1.168245e+01	-2.807866e+00
1.174992e+01	-2.831900e+00
1.181779e+01	-2.855855e+00
1.188605e+01	-2.879974e+00
1.195470e+01	-2.904243e+00
1.202375e+01	-2.928713e+00
1.209320e+01	-2.953420e+00
1.216305e+01	-2.978250e+00
1.223330e+01	-3.003070e+00
1.230396e+01	-3.028308e+00
1.237503e+01	-3.053357e+00
1.244651e+01	-3.078821e+00
1.251840e+01	-3.104261e+00
1.259070e+01	-3.129538e+00
1.266343e+01	-3.155555e+00
1.273657e+01	-3.181423e+00
1.281014e+01	-3.207751e+00
1.288413e+01	-3.233728e+00
1.295855e+01	-3.259918e+00
1.303339e+01	-3.286454e+00
1.310867e+01	-3.313003e+00
1.318439e+01	-3.340036e+00
1.326054e+01	-3.366868e+00
1.333713e+01	-3.393857e+00
1.341417e+01	-3.421327e+00
1.349165e+01	-3.448432e+00
1.356958e+01	-3.475577e+00
1.364795e+01	-3.503449e+00
1.372678e+01	-3.531444e+00
1.380607e+01	-3.559231e+00
1.388581e+01	-3.587387e+00
1.396602e+01	-3.615268e+00
1.404668e+01	-3.643930e+00
1.412782e+01	-3.672174e+00
1.420942e+01	-3.700806e+00
1.429149e+01	-3.729530e+00
1.437404e+01	-3.758385e+00
1.445706e+01	-3.787779e+00
1.454057e+01	-3.816750e+00
1.462455e+01	-3.846220e+00
1.470902e+01	-3.875750e+00
1.479398e+01	-3.905180e+00
1.487943e+01	-3.934660e+00
1.496537e+01	-3.964729e+00
1.505181e+01	-3.994770e+00
1.513875e+01	-4.024916e+00
1.522619e+01	-4.055280e+00
1.531414e+01	-4.085494e+00
1.540259e+01	-4.116031e+00
1.549156e+01	-4.146920e+00
1.558103e+01	-4.177639e+00
1.567103e+01	-4.208746e+00
1.576155e+01	-4.239785e+00
1.585258e+01	-4.271322e+00
1.594415e+01	-4.302520e+00
1.603624e+01	-4.334126e+00
1.612886e+01	-4.365713e+00
1.622202e+01	-4.397267e+00
1.631572e+01	-4.429526e+00
1.640996e+01	-4.461437e+00
1.650474e+01	-4.493720e+00
1.660008e+01	-4.525893e+00
1.669596e+01	-4.558454e+00
1.679239e+01	-4.590888e+00
1.688938e+01	-4.623709e+00
1.698694e+01	-4.656604e+00
1.708505e+01	-4.689499e+00
1.718373e+01	-4.722513e+00
1.728299e+01	-4.755766e+00
1.738281e+01	-4.789096e+00
1.748322e+01	-4.822818e+00
1.758420e+01	-4.856173e+00
1.768576e+01	-4.890241e+00
1.778792e+01	-4.924025e+00
1.789066e+01	-4.957945e+00
1.799399e+01	-4.991743e+00
1.809793e+01	-5.026235e+00
1.820246e+01	-5.060618e+00
1.830760e+01	-5.095200e+00
1.841334e+01	-5.129574e+00
1.851969e+01	-5.164305e+00
1.862666e+01	-5.199326e+00
1.873425e+01	-5.234375e+00
1.884246e+01	-5.269436e+00
1.895129e+01	-5.304621e+00
1.906075e+01	-5.339663e+00
1.917085e+01	-5.375343e+00
1.928158e+01	-5.411002e+00
1.939295e+01	-5.446695e+00
1.950496e+01	-5.482382e+00
1.961762e+01	-5.518169e+00
1.973093e+01	-5.554329e+00
1.984490e+01	-5.590396e+00
1.995952e+01	-5.626851e+00
2.007480e+01	-5.663058e+00
2.019076e+01	-5.699832e+00
2.030738e+01	-5.736297e+00
2.042467e+01	-5.773209e+00
2.054264e+01	-5.809957e+00
2.066130e+01	-5.846835e+00
2.078064e+01	-5.884170e+00
2.090066e+01	-5.921116e+00
2.102139e+01	-5.958217e+00
2.114280e+01	-5.995698e+00
2.126492e+01	-6.033193e+00
2.138775e+01	-6.070669e+00
2.151128e+01	-6.108558e+00
2.163553e+01	-6.146401e+00
2.176050e+01	-6.184267e+00
2.188619e+01	-6.222733e+00
2.201260e+01	-6.260306e+00
2.213974e+01	-6.298856e+00
2.226762e+01	-6.337635e+00
2.239624e+01	-6.375282e+00
2.252560e+01	-6.414260e+00
2.265571e+01	-6.452574e+00
2.278656e+01	-6.491443e+00
2.291818e+01	-6.530537e+00
2.305055e+01	-6.569138e+00
2.318369e+01	-6.608431e+00
2.331760e+01	-6.647307e+00
2.345228e+01	-6.686593e+00
2.358774e+01	-6.726063e+00
2.372398e+01	-6.765417e+00
2.386101e+01	-6.805122e+00
2.399883e+01	-6.844161e+00
2.413745e+01	-6.884240e+00
2.427686e+01	-6.924170e+00
2.441709e+01	-6.964031e+00
2.455812e+01	-7.004570e+00
2.469997e+01	-7.044514e+00
2.484263e+01	-7.084508e+00
2.498612e+01	-7.125003e+00
2.513044e+01	-7.165005e+00
2.527559e+01	-7.205694e+00
2.542158e+01	-7.246262e+00
2.556842e+01	-7.286980e+00
2.571610e+01	-7.327660e+00
2.586463e+01	-7.368183e+00
2.601403e+01	-7.409905e+00
2.616428e+01	-7.450099e+00
2.631541e+01	-7.491113e+00
2.646740e+01	-7.532360e+00
2.662028e+01	-7.573816e+00
2.677404e+01	-7.614795e+00
2.692868e+01	-7.656295e+00
2.708422e+01	-7.697743e+00
2.724066e+01	-7.739334e+00
2.739800e+01	-7.781121e+00
2.755625e+01	-7.822793e+00
2.771541e+01	-7.864443e+00
2.787550e+01	-7.906728e+00
2.803650e+01	-7.948442e+00
2.819844e+01	-7.990870e+00
2.836131e+01	-8.033045e+00
2.852513e+01	-8.074353e+00
2.868989e+01	-8.117110e+00
2.885560e+01	-8.158963e+00
2.902227e+01	-8.201858e+00
2.918990e+01	-8.244570e+00
2.935850e+01	-8.286624e+00
2.952807e+01	-8.329700e+00
2.969863e+01	-8.372025e+00
2.987016e+01	-8.415127e+00
3.004269e+01	-8.458003e+00
3.021622e+01	-8.500758e+00
3.039075e+01	-8.543778e+00
3.056628e+01	-8.587147e+00
3.074283e+01	-8.630439e+00
3.092040e+01	-8.673134e+00
3.109900e+01	-8.716472e+00
3.127862e+01	-8.759819e+00
3.145929e+01	-8.803211e+00
3.164099e+01	-8.846532e+00
3.182375e+01	-8.889979e+00
3.200756e+01	-8.933901e+00
3.219244e+01	-8.977521e+00
3.237838e+01	-9.021298e+00
3.256540e+01	-9.065348e+00
3.275349e+01	-9.109186e+00
3.294268e+01	-9.152814e+00
3.313295e+01	-9.196787e+00
3.332433e+01	-9.240834e+00
3.351681e+01	-9.284786e+00
3.371040e+01	-9.328470e+00
3.390511e+01	-9.373419e+00
3.410094e+01	-9.417492e+00
3.429791e+01	-9.461966e+00
3.449601e+01	-9.506313e+00
3.469526e+01	-9.550258e+00
3.489566e+01	-9.595145e+00
3.509721e+01	-9.639415e+00
3.529993e+01	-9.684422e+00
3.550382e+01	-9.729102e+00
3.570889e+01	-9.773913e+00
3.591515e+01	-9.818872e+00
3.612259e+01	-9.863548e+00
3.633123e+01	-9.908713e+00
3.654108e+01	-9.953402e+00
3.675214e+01	-9.998191e+00
3.696442e+01	-1.004357e+01
3.717792e+01	-1.008858e+01
3.739266e+01	-1.013357e+01
3.760864e+01	-1.017913e+01
3.782587e+01	-1.022381e+01
3.804435e+01	-1.026922e+01
3.826409e+01	-1.031504e+01
3.848510e+01	-1.036070e+01
3.870739e+01	-1.040541e+01
3.893096e+01	-1.045120e+01
3.915583e+01	-1.049630e+01
3.938199e+01	-1.054247e+01
3.960946e+01	-1.058764e+01
3.983824e+01	-1.063307e+01
4.006834e+01	-1.067914e+01
4.029978e+01	-1.072502e+01
4.053255e+01	-1.077060e+01
4.076666e+01	-1.081618e+01
4.100213e+01	-1.086279e+01
4.123896e+01	-1.090883e+01
4.147715e+01	-1.095458e+01
4.171672e+01	-1.100064e+01
4.195767e+01	-1.104662e+01
4.220002e+01	-1.109260e+01
4.244377e+01	-1.113918e+01
4.268892e+01	-1.118487e+01
4.293549e+01	-1.123165e+01
4.318348e+01	-1.127802e+01
4.343291e+01	-1.132336e+01
4.368377e+01	-1.137015e+01
4.393609e+01	-1.141652e+01
4.418986e+01	-1.146277e+01
4.444510e+01	-1.150936e+01
4.470182e+01	-1.155602e+01
4.496001e+01	-1.160279e+01
4.521970e+01	-1.164890e+01
4.548089e+01	-1.169566e+01
4.574358e+01	-1.174260e+01
4.600779e+01	-1.178924e+01
4.627353e+01	-1.183575e+01
4.654081e+01	-1.188234e+01
4.680963e+01	-1.192916e+01
4.708000e+01	-1.197581e+01
4.735193e+01	-1.202316e+01
4.762543e+01	-1.206984e+01
4.790051e+01	-1.211733e+01
4.817719e+01	-1.216476e+01
4.845545e+01	-1.221114e+01
4.873533e+01	-1.225845e+01
4.901682e+01	-1.230533e+01
4.929994e+01	-1.235214e+01
4.958470e+01	-1.239849e+01
4.987110e+01	-1.244613e+01
5.015915e+01	-1.249416e+01
5.044887e+01	-1.254030e+01
5.074026e+01	-1.258784e+01
5.103333e+01	-1.263547e+01
5.132810e+01	-1.268312e+01
5.162457e+01	-1.272972e+01
5.192275e+01	-1.277682e+01
5.222265e+01	-1.282476e+01
5.252429e+01	-1.287215e+01
5.282767e+01	-1.292016e+01
5.313280e+01	-1.296735e+01
5.343969e+01	-1.301469e+01
5.374836e+01	-1.306214e+01
5.405880e+01	-1.310964e+01
5.437105e+01	-1.315749e+01
5.468509e+01	-1.320503e+01
5.500095e+01	-1.325264e+01
5.531863e+01	-1.330054e+01
5.563815e+01	-1.334761e+01
5.595951e+01	-1.339571e+01
5.628273e+01	-1.344378e+01
5.660782e+01	-1.349174e+01
5.693479e+01	-1.353944e+01
5.726364e+01	-1.358608e+01
5.759439e+01	-1.363455e+01
5.792705e+01	-1.368306e+01
5.826164e+01	-1.373006e+01
5.859815e+01	-1.377862e+01
5.893662e+01	-1.382656e+01
5.927703e+01	-1.387481e+01
5.961941e+01	-1.392282e+01
5.996377e+01	-1.397058e+01
6.031012e+01	-1.401817e+01
6.065847e+01	-1.406679e+01
6.100883e+01	-1.411456e+01
6.136121e+01	-1.416286e+01
6.171563e+01	-1.421048e+01
6.207210e+01	-1.425999e+01
6.243063e+01	-1.430705e+01
6.279122e+01	-1.435524e+01
6.315390e+01	-1.440302e+01
6.351868e+01	-1.445069e+01
6.388556e+01	-1.449995e+01
6.425456e+01	-1.454836e+01
6.462569e+01	-1.459635e+01
6.499897e+01	-1.464403e+01
6.537440e+01	-1.469358e+01
6.575200e+01	-1.474113e+01
6.613178e+01	-1.478938e+01
6.651375e+01	-1.483872e+01
6.689793e+01	-1.488554e+01
6.728433e+01	-1.493393e+01
6.767297e+01	-1.498384e+01
6.806384e+01	-1.503216e+01
6.845698e+01	-1.508107e+01
6.885238e+01	-1.513009e+01
6.925007e+01	-1.517745e+01
6.965005e+01	-1.522625e+01
7.005235e+01	-1.527402e+01
7.045697e+01	-1.532364e+01
7.086393e+01	-1.537205e+01
7.127323e+01	-1.542012e+01
7.168490e+01	-1.546887e+01
7.209895e+01	-1.551731e+01
7.251539e+01	-1.556578e+01
7.293424e+01	-1.561474e+01
7.335551e+01	-1.566373e+01
7.377920e+01	-1.571212e+01
7.420535e+01	-1.575993e+01
7.463396e+01	-1.580927e+01
7.506504e+01	-1.585790e+01
7.549861e+01	-1.590624e+01
7.593469e+01	-1.595675e+01
7.637328e+01	-1.600460e+01
7.681441e+01	-1.605322e+01
7.725809e+01	-1.610242e+01
7.770433e+01	-1.615137e+01
7.815315e+01	-1.619890e+01
7.860456e+01	-1.624740e+01
7.905857e+01	-1.629785e+01
7.951521e+01	-1.634586e+01
7.997449e+01	-1.639500e+01
8.043642e+01	-1.644464e+01
8.090102e+01	-1.649219e+01
8.136830e+01	-1.654172e+01
8.183828e+01	-1.659017e+01
8.231097e+01	-1.663898e+01
8.278640e+01	-1.668867e+01
8.326457e+01	-1.673727e+01
8.374550e+01	-1.678468e+01
8.422921e+01	-1.683429e+01
8.471572e+01	-1.688473e+01
8.520503e+01	-1.693323e+01
8.569717e+01	-1.698263e+01
8.619215e+01	-1.703231e+01
8.669000e+01	-1.708015e+01
8.719071e+01	-1.712985e+01
8.769432e+01	-1.717946e+01
8.820084e+01	-1.722779e+01
8.871029e+01	-1.727710e+01
8.922267e+01	-1.732648e+01
8.973802e+01	-1.737466e+01
9.025634e+01	-1.742392e+01
9.077766e+01	-1.747379e+01
9.130199e+01	-1.752235e+01
9.182935e+01	-1.757135e+01
9.235975e+01	-1.762107e+01
9.289321e+01	-1.767054e+01
9.342976e+01	-1.771964e+01
9.396941e+01	-1.776848e+01
9.451217e+01	-1.781739e+01
9.505807e+01	-1.786653e+01
9.560712e+01	-1.791519e+01
9.615934e+01	-1.796479e+01
9.671476e+01	-1.801499e+01
9.727338e+01	-1.806415e+01
9.783522e+01	-1.811251e+01
9.840032e+01	-1.816254e+01
9.896867e+01	-1.821268e+01
9.954031e+01	-1.825982e+01
1.001153e+02	-1.831063e+01
1.006935e+02	-1.835920e+01
1.012751e+02	-1.840951e+01
1.018601e+02	-1.845866e+01
1.024484e+02	-1.850730e+01
1.030402e+02	-1.855725e+01
1.036353e+02	-1.860599e+01
1.042339e+02	-1.865534e+01
1.048360e+02	-1.870476e+01
1.054415e+02	-1.875292e+01
1.060505e+02	-1.880171e+01
1.066631e+02	-1.885185e+01
1.072791e+02	-1.890102e+01
1.078988e+02	-1.895344e+01
1.085220e+02	-1.900086e+01
1.091488e+02	-1.904890e+01
1.097793e+02	-1.909897e+01
1.104133e+02	-1.914864e+01
1.110511e+02	-1.919849e+01
1.116925e+02	-1.924844e+01
1.123376e+02	-1.929544e+01
1.129865e+02	-1.934701e+01
1.136391e+02	-1.939669e+01
1.142955e+02	-1.944538e+01
1.149556e+02	-1.949561e+01
1.156196e+02	-1.954539e+01
1.162874e+02	-1.959488e+01
1.169591e+02	-1.964319e+01
1.176347e+02	-1.969380e+01
1.183141e+02	-1.974259e+01
1.189975e+02	-1.979194e+01
1.196848e+02	-1.984098e+01
1.203761e+02	-1.989186e+01
1.210714e+02	-1.994062e+01
1.217707e+02	-1.999071e+01
1.224740e+02	-2.004020e+01
1.231814e+02	-2.008999e+01
1.238929e+02	-2.013889e+01
1.246085e+02	-2.018772e+01
1.253283e+02	-2.023824e+01
1.260522e+02	-2.028719e+01
1.267802e+02	-2.033687e+01
1.275125e+02	-2.038736e+01
1.282490e+02	-2.043557e+01
1.289898e+02	-2.048552e+01
1.297348e+02	-2.053503e+01
1.304842e+02	-2.058451e+01
1.312378e+02	-2.063564e+01
1.319959e+02	-2.068392e+01
1.327583e+02	-2.073349e+01
1.335251e+02	-2.078359e+01
1.342963e+02	-2.083438e+01
1.350720e+02	-2.088329e+01
1.358522e+02	-2.093102e+01
1.366368e+02	-2.098108e+01
1.374260e+02	-2.103211e+01
1.382198e+02	-2.108233e+01
1.390182e+02	-2.113134e+01
1.398211e+02	-2.118195e+01
1.406287e+02	-2.123040e+01
1.414410e+02	-2.127957e+01
1.422579e+02	-2.133066e+01
1.430796e+02	-2.137673e+01
1.439060e+02	-2.142805e+01
1.447372e+02	-2.147680e+01
1.455732e+02	-2.152877e+01
1.464141e+02	-2.157818e+01
1.472597e+02	-2.162714e+01
1.481103e+02	-2.167771e+01
1.489658e+02	-2.172566e+01
1.498262e+02	-2.177665e+01
1.506916e+02	-2.182724e+01
1.515620e+02	-2.187515e+01
1.524374e+02	-2.192526e+01
1.533179e+02	-2.197601e+01
1.542034e+02	-2.202446e+01
1.550941e+02	-2.207627e+01
1.559899e+02	-2.212438e+01
1.568909e+02	-2.217421e+01
1.577971e+02	-2.222431e+01
1.587085e+02	-2.227424e+01
1.596252e+02	-2.232378e+01
1.605472e+02	-2.237321e+01
1.614745e+02	-2.242400e+01
1.624072e+02	-2.247472e+01
1.633453e+02	-2.252362e+01
1.642887e+02	-2.257330e+01
1.652377e+02	-2.262225e+01
1.661921e+02	-2.267325e+01
1.671520e+02	-2.272102e+01
1.681175e+02	-2.276883e+01
1.690885e+02	-2.282229e+01
1.700651e+02	-2.287227e+01
1.710474e+02	-2.292081e+01
1.720354e+02	-2.297264e+01
1.730291e+02	-2.302060e+01
1.740285e+02	-2.307167e+01
1.750337e+02	-2.312296e+01
1.760446e+02	-2.317013e+01
1.770615e+02	-2.321987e+01
1.780842e+02	-2.327084e+01
1.791128e+02	-2.331963e+01
1.801473e+02	-2.337030e+01
1.811878e+02	-2.342116e+01
1.822344e+02	-2.346760e+01
1.832870e+02	-2.351980e+01
1.843456e+02	-2.356833e+01
1.854104e+02	-2.361848e+01
1.864813e+02	-2.366775e+01
1.875584e+02	-2.371584e+01
1.886418e+02	-2.376924e+01
1.897313e+02	-2.381872e+01
1.908272e+02	-2.387005e+01
1.919294e+02	-2.391837e+01
1.930380e+02	-2.396777e+01
1.941530e+02	-2.401606e+01
1.952744e+02	-2.406532e+01
1.964023e+02	-2.411614e+01
1.975367e+02	-2.416626e+01
1.986777e+02	-2.421851e+01
1.998252e+02	-2.426861e+01
2.009794e+02	-2.431642e+01
2.021403e+02	-2.436864e+01
2.033078e+02	-2.441556e+01
2.044821e+02	-2.446428e+01
2.056632e+02	-2.451598e+01
2.068511e+02	-2.456492e+01
2.080459e+02	-2.461329e+01
2.092475e+02	-2.466519e+01
2.104561e+02	-2.471520e+01
2.116717e+02	-2.476646e+01
2.128943e+02	-2.481636e+01
2.141240e+02	-2.486324e+01
2.153608e+02	-2.491271e+01
2.166047e+02	-2.496152e+01
2.178558e+02	-2.501469e+01
2.191141e+02	-2.506724e+01
2.203797e+02	-2.511408e+01
2.216526e+02	-2.516554e+01
2.229329e+02	-2.521528e+01
2.242205e+02	-2.526592e+01
2.255156e+02	-2.531098e+01
2.268182e+02	-2.536277e+01
2.281283e+02	-2.541460e+01
2.294459e+02	-2.546256e+01
2.307712e+02	-2.551522e+01
2.321041e+02	-2.556218e+01
2.334447e+02	-2.561415e+01
2.347931e+02	-2.566589e+01
2.361493e+02	-2.571561e+01
2.375133e+02	-2.576276e+01
2.388851e+02	-2.581203e+01
2.402649e+02	-2.586610e+01
2.416527e+02	-2.591258e+01
2.430484e+02	-2.595960e+01
2.444523e+02	-2.600992e+01
2.458642e+02	-2.606534e+01
2.472843e+02	-2.611478e+01
2.487126e+02	-2.616715e+01
2.501492e+02	-2.621490e+01
2.515940e+02	-2.626309e+01
2.530472e+02	-2.631236e+01
2.545088e+02	-2.636248e+01
2.559789e+02	-2.641200e+01
2.574574e+02	-2.646424e+01
2.589444e+02	-2.651209e+01
2.604401e+02	-2.656175e+01
2.619444e+02	-2.661271e+01
2.634574e+02	-2.666055e+01
2.649791e+02	-2.671248e+01
2.665096e+02	-2.676042e+01
2.680489e+02	-2.681423e+01
2.695972e+02	-2.686228e+01
2.711544e+02	-2.691388e+01
2.727205e+02	-2.696292e+01
2.742958e+02	-2.701273e+01
2.758801e+02	-2.706416e+01
2.774736e+02	-2.711632e+01
2.790762e+02	-2.716049e+01
2.806882e+02	-2.721369e+01
2.823094e+02	-2.726270e+01
2.839400e+02	-2.731047e+01
2.855800e+02	-2.736420e+01
2.872295e+02	-2.741091e+01
2.888886e+02	-2.745978e+01
2.905572e+02	-2.750961e+01
2.922354e+02	-2.756156e+01
2.939234e+02	-2.761477e+01
2.956211e+02	-2.766424e+01
2.973286e+02	-2.771296e+01
2.990459e+02	-2.776026e+01
3.007732e+02	-2.780996e+01
3.025104e+02	-2.786228e+01
3.042577e+02	-2.791587e+01
3.060151e+02	-2.796215e+01
3.077826e+02	-2.801202e+01
3.095604e+02	-2.806499e+01
3.113484e+02	-2.811192e+01
3.131467e+02	-2.816035e+01
3.149554e+02	-2.821263e+01
3.167746e+02	-2.826446e+01
3.186043e+02	-2.831491e+01
3.204445e+02	-2.836176e+01
3.222954e+02	-2.841507e+01
3.241570e+02	-2.846321e+01
3.260293e+02	-2.851590e+01
3.279124e+02	-2.856086e+01
3.298064e+02	-2.861347e+01
3.317114e+02	-2.866244e+01
3.336273e+02	-2.871425e+01
3.355544e+02	-2.876172e+01
3.374925e+02	-2.881410e+01
3.394418e+02	-2.886056e+01
3.414024e+02	-2.890997e+01
3.433744e+02	-2.896268e+01
3.453577e+02	-2.901191e+01
3.473525e+02	-2.905989e+01
3.493588e+02	-2.911544e+01
3.513766e+02	-2.916711e+01
3.534062e+02	-2.921533e+01
3.554474e+02	-2.926062e+01
3.575005e+02	-2.931065e+01
3.595654e+02	-2.936486e+01
3.616422e+02	-2.941715e+01
3.637311e+02	-2.946372e+01
3.658320e+02	-2.951501e+01
3.679450e+02	-2.956414e+01
3.700702e+02	-2.961290e+01
3.722077e+02	-2.966244e+01
3.743576e+02	-2.971219e+01
3.765199e+02	-2.976390e+01
3.786946e+02	-2.981866e+01
3.808820e+02	-2.986269e+01
3.830819e+02	-2.991249e+01
3.852946e+02	-2.997068e+01
3.875200e+02	-3.001423e+01
3.897583e+02	-3.006929e+01
3.920096e+02	-3.011667e+01
3.942738e+02	-3.016637e+01
3.965511e+02	-3.021921e+01
3.988416e+02	-3.026806e+01
4.011452e+02	-3.031474e+01
4.034622e+02	-3.036889e+01
4.057926e+02	-3.041605e+01
4.081365e+02	-3.046343e+01
4.104938e+02	-3.051617e+01
4.128648e+02	-3.056402e+01
4.152495e+02	-3.061566e+01
4.176480e+02	-3.066124e+01
4.200603e+02	-3.071406e+01
4.224866e+02	-3.076931e+01
4.249268e+02	-3.081482e+01
4.273812e+02	-3.086958e+01
4.298497e+02	-3.092065e+01
4.323325e+02	-3.096647e+01
4.348297e+02	-3.101623e+01
4.373412e+02	-3.106532e+01
4.398673e+02	-3.111301e+01
4.424079e+02	-3.116551e+01
4.449633e+02	-3.122031e+01
4.475334e+02	-3.125917e+01
4.501183e+02	-3.131837e+01
4.527182e+02	-3.136513e+01
4.553330e+02	-3.141564e+01
4.579630e+02	-3.146825e+01
4.606082e+02	-3.151942e+01
4.632687e+02	-3.156449e+01
4.659445e+02	-3.161844e+01
4.686358e+02	-3.167184e+01
4.713426e+02	-3.171533e+01
4.740650e+02	-3.176251e+01
4.768032e+02	-3.182026e+01
4.795572e+02	-3.186579e+01
4.823271e+02	-3.192067e+01
4.851130e+02	-3.196645e+01
4.879150e+02	-3.201898e+01
4.907332e+02	-3.207535e+01
4.935676e+02	-3.211617e+01
4.964185e+02	-3.216782e+01
4.992858e+02	-3.221795e+01
5.021696e+02	-3.227082e+01
5.050701e+02	-3.232445e+01
5.079874e+02	-3.237216e+01
5.109215e+02	-3.241872e+01
5.138726e+02	-3.246870e+01
5.168407e+02	-3.252278e+01
5.198259e+02	-3.256769e+01
5.228284e+02	-3.262531e+01
5.258482e+02	-3.267706e+01
5.288855e+02	-3.272279e+01
5.319403e+02	-3.277212e+01
5.350128e+02	-3.281884e+01
5.381030e+02	-3.287827e+01
5.412111e+02	-3.292280e+01
5.443371e+02	-3.297446e+01
5.474812e+02	-3.303027e+01
5.506434e+02	-3.307482e+01
5.538239e+02	-3.312051e+01
5.570228e+02	-3.317146e+01
5.602401e+02	-3.322847e+01
5.634760e+02	-3.327440e+01
5.667306e+02	-3.331914e+01
5.700040e+02	-3.337716e+01
5.732964e+02	-3.342433e+01
5.766077e+02	-3.347401e+01
5.799382e+02	-3.352537e+01
5.832879e+02	-3.357811e+01
5.866569e+02	-3.362652e+01
5.900454e+02	-3.367135e+01
5.934535e+02	-3.372400e+01
5.968813e+02	-3.377752e+01
6.003288e+02	-3.382613e+01
6.037963e+02	-3.387898e+01
6.072838e+02	-3.393171e+01
6.107914e+02	-3.397428e+01
6.143194e+02	-3.403355e+01
6.178676e+02	-3.407862e+01
6.214364e+02	-3.412288e+01
6.250258e+02	-3.417397e+01
6.286359e+02	-3.422689e+01
6.322669e+02	-3.428461e+01
6.359189e+02	-3.432833e+01
6.395919e+02	-3.437504e+01
6.432862e+02	-3.442498e+01
6.470017e+02	-3.447625e+01
6.507388e+02	-3.453490e+01
6.544974e+02	-3.458693e+01
6.582778e+02	-3.462981e+01
6.620800e+02	-3.468867e+01
6.659041e+02	-3.474015e+01
6.697504e+02	-3.478302e+01
6.736188e+02	-3.483619e+01
6.775096e+02	-3.489041e+01
6.814229e+02	-3.494078e+01
6.853587e+02	-3.498338e+01
6.893173e+02	-3.503145e+01
6.932988e+02	-3.508619e+01
6.973033e+02	-3.513724e+01
7.013309e+02	-3.518700e+01
