Frequency(Hz)	Magnitude(dB)
1.000000e+01	-2.001251e+00
1.005776e+01	-2.019770e+00
1.011585e+01	-2.038251e+00
1.017428e+01	-2.057082e+00
1.023305e+01	-2.076102e+00
1.029215e+01	-2.095138e+00
1.035160e+01	-2.114213e+00
1.041139e+01	-2.133605e+00
1.047153e+01	-2.153071e+00
1.053201e+01	-2.172799e+00
1.059284e+01	-2.192660e+00
1.065403e+01	-2.212293e+00
1.071556e+01	-2.232510e+00
1.077746e+01	-2.252687e+00
1.083971e+01	-2.273017e+00
1.090232e+01	-2.293349e+00
1.096529e+01	-2.314052e+00
1.102862e+01	-2.334527e+00
1.109232e+01	-2.355787e+00
1.115639e+01	-2.376666e+00
1.122083e+01	-2.397944e+00
1.128564e+01	-2.419028e+00
1.135083e+01	-2.440511e+00
1.141639e+01	-2.462338e+00
1.148233e+01	-2.483942e+00
1.154865e+01	-2.505646e+00
1.161536e+01	-2.527728e+00
1.168245e+01	-2.549783e+00
1.174992e+01	-2.572281e+00
1.181779e+01	-2.594449e+00
1.188605e+01	-2.617222e+00
1.195470e+01	-2.639849e+00
1.202375e+01	-2.662640e+00
1.209320e+01	-2.685633e+00
1.216305e+01	-2.708864e+00
1.223330e+01	-2.732199e+00
1.230396e+01	-2.755584e+00
1.237503e+01	-2.778975e+00
1.244651e+01	-2.803135e+00
1.251840e+01	-2.826851e+00
1.259070e+01	-2.850702e+00
1.266343e+01	-2.874904e+00
1.273657e+01	-2.899272e+00
1.281014e+01	-2.923697e+00
1.288413e+01	-2.948154e+00
1.295855e+01	-2.973045e+00
1.303339e+01	-2.997596e+00
1.310867e+01	-3.022739e+00
1.318439e+01	-3.047951e+00
1.326054e+01	-3.073090e+00
1.333713e+01	-3.098759e+00
1.341417e+01	-3.124307e+00
1.349165e+01	-3.149996e+00
1.356958e+01	-3.175913e+00
1.364795e+01	-3.202012e+00
1.372678e+01	-3.227887e+00
1.380607e+01	-3.254504e+00
1.388581e+01	-3.280698e+00
1.396602e+01	-3.307342e+00
1.404668e+01	-3.334230e+00
1.412782e+01	-3.361138e+00
1.420942e+01	-3.388143e+00
1.429149e+01	-3.415332e+00
1.437404e+01	-3.442362e+00
1.445706e+01	-3.470018e+00
1.454057e+01	-3.497559e+00
1.462455e+01	-3.525457e+00
1.470902e+01	-3.552942e+00
1.479398e+01	-3.581293e+00
1.487943e+01	-3.609242e+00
1.496537e+01	-3.637714e+00
1.505181e+01	-3.666154e+00
1.513875e+01	-3.694704e+00
1.522619e+01	-3.723455e+00
1.531414e+01	-3.752518e+00
1.540259e+01	-3.781504e+00
1.549156e+01	-3.810337e+00
1.558103e+01	-3.839693e+00
1.567103e+01	-3.869093e+00
1.576155e+01	-3.898930e+00
1.585258e+01	-3.928410e+00
1.594415e+01	-3.958348e+00
1.603624e+01	-3.988288e+00
1.612886e+01	-4.018400e+00
1.622202e+01	-4.048751e+00
1.631572e+01	-4.079370e+00
1.640996e+01	-4.109563e+00
1.650474e+01	-4.140230e+00
1.660008e+01	-4.170901e+00
1.669596e+01	-4.202084e+00
1.679239e+01	-4.232998e+00
1.688938e+01	-4.264378e+00
1.698694e+01	-4.295795e+00
1.708505e+01	-4.327406e+00
1.718373e+01	-4.358711e+00
1.728299e+01	-4.390869e+00
1.738281e+01	-4.422460e+00
1.748322e+01	-4.454421e+00
1.758420e+01	-4.486925e+00
1.768576e+01	-4.519012e+00
1.778792e+01	-4.551336e+00
1.789066e+01	-4.583904e+00
1.799399e+01	-4.616889e+00
1.809793e+01	-4.649563e+00
1.820246e+01	-4.682314e+00
1.830760e+01	-4.715507e+00
1.841334e+01	-4.748658e+00
1.851969e+01	-4.782214e+00
1.862666e+01	-4.815358e+00
1.873425e+01	-4.849150e+00
1.884246e+01	-4.882471e+00
1.895129e+01	-4.916474e+00
1.906075e+01	-4.950684e+00
1.917085e+01	-4.984905e+00
1.928158e+01	-5.018552e+00
1.939295e+01	-5.053315e+00
1.950496e+01	-5.087366e+00
1.961762e+01	-5.122162e+00
1.973093e+01	-5.157201e+00
1.984490e+01	-5.191791e+00
1.995952e+01	-5.226615e+00
2.007480e+01	-5.261500e+00
2.019076e+01	-5.297107e+00
2.030738e+01	-5.332166e+00
2.042467e+01	-5.367838e+00
2.054264e+01	-5.403173e+00
2.066130e+01	-5.438651e+00
2.078064e+01	-5.474997e+00
2.090066e+01	-5.510487e+00
2.102139e+01	-5.546695e+00
2.114280e+01	-5.582682e+00
2.126492e+01	-5.619131e+00
2.138775e+01	-5.655353e+00
2.151128e+01	-5.691908e+00
2.163553e+01	-5.728661e+00
2.176050e+01	-5.765112e+00
2.188619e+01	-5.802013e+00
2.201260e+01	-5.839191e+00
2.213974e+01	-5.876436e+00
2.226762e+01	-5.912886e+00
2.239624e+01	-5.950124e+00
2.252560e+01	-5.987627e+00
2.265571e+01	-6.025119e+00
2.278656e+01	-6.062638e+00
2.291818e+01	-6.100372e+00
2.305055e+01	-6.138445e+00
2.318369e+01	-6.175905e+00
2.331760e+01	-6.214078e+00
2.345228e+01	-6.252086e+00
2.358774e+01	-6.290595e+00
2.372398e+01	-6.328581e+00
2.386101e+01	-6.367107e+00
2.399883e+01	-6.405601e+00
2.413745e+01	-6.444429e+00
2.427686e+01	-6.483034e+00
2.441709e+01	-6.521609e+00
2.455812e+01	-6.560916e+00
2.469997e+01	-6.599879e+00
2.484263e+01	-6.639159e+00
2.498612e+01	-6.678180e+00
2.513044e+01	-6.717605e+00
2.527559e+01	-6.757181e+00
2.542158e+01	-6.796475e+00
2.556842e+01	-6.835971e+00
2.571610e+01	-6.875576e+00
2.586463e+01	-6.915700e+00
2.601403e+01	-6.955493e+00
2.616428e+01	-6.995388e+00
2.631541e+01	-7.035848e+00
2.646740e+01	-7.075509e+00
2.662028e+01	-7.115878e+00
2.677404e+01	-7.156325e+00
2.692868e+01	-7.197025e+00
2.708422e+01	-7.237821e+00
2.724066e+01	-7.277736e+00
2.739800e+01	-7.318786e+00
2.755625e+01	-7.359363e+00
2.771541e+01	-7.400674e+00
2.787550e+01	-7.441281e+00
2.803650e+01	-7.482370e+00
2.819844e+01	-7.523520e+00
2.836131e+01	-7.564858e+00
2.852513e+01	-7.606237e+00
2.868989e+01	-7.647221e+00
2.885560e+01	-7.689092e+00
2.902227e+01	-7.730433e+00
2.918990e+01	-7.771812e+00
2.935850e+01	-7.813854e+00
2.952807e+01	-7.855678e+00
2.969863e+01	-7.897511e+00
2.987016e+01	-7.939274e+00
3.004269e+01	-7.981599e+00
3.021622e+01	-8.023857e+00
3.039075e+01	-8.065807e+00
3.056628e+01	-8.107963e+00
3.074283e+01	-8.150090e+00
3.092040e+01	-8.192437e+00
3.109900e+01	-8.234998e+00
3.127862e+01	-8.278032e+00
3.145929e+01	-8.320621e+00
3.164099e+01	-8.363318e+00
3.182375e+01	-8.405691e+00
3.200756e+01	-8.448626e+00
3.219244e+01	-8.491929e+00
3.237838e+01	-8.534588e+00
3.256540e+01	-8.577463e+00
3.275349e+01	-8.620598e+00
3.294268e+01	-8.663783e+00
3.313295e+01	-8.707277e+00
3.332433e+01	-8.750646e+00
3.351681e+01	-8.793705e+00
3.371040e+01	-8.837445e+00
3.390511e+01	-8.880918e+00
3.410094e+01	-8.924294e+00
3.429791e+01	-8.967741e+00
3.449601e+01	-9.011908e+00
3.469526e+01	-9.055497e+00
3.489566e+01	-9.099178e+00
3.509721e+01	-9.143257e+00
3.529993e+01	-9.187289e+00
3.550382e+01	-9.231297e+00
3.570889e+01	-9.275422e+00
3.591515e+01	-9.319274e+00
3.612259e+01	-9.363591e+00
3.633123e+01	-9.408281e+00
3.654108e+01	-9.452252e+00
3.675214e+01	-9.496543e+00
3.696442e+01	-9.541152e+00
3.717792e+01	-9.585715e+00
3.739266e+01	-9.630432e+00
3.760864e+01	-9.674759e+00
3.782587e+01	-9.719490e+00
3.804435e+01	-9.764198e+00
3.826409e+01	-9.809140e+00
3.848510e+01	-9.853741e+00
3.870739e+01	-9.898127e+00
3.893096e+01	-9.943401e+00
3.915583e+01	-9.988209e+00
3.938199e+01	-1.003354e+01
3.960946e+01	-1.007908e+01
3.983824e+01	-1.012396e+01
4.006834e+01	-1.016914e+01
4.029978e+01	-1.021434e+01
4.053255e+01	-1.025929e+01
4.076666e+01	-1.030508e+01
4.100213e+01	-1.034984e+01
4.123896e+01	-1.039565e+01
4.147715e+01	-1.044114e+01
4.171672e+01	-1.048645e+01
4.195767e+01	-1.053239e+01
4.220002e+01	-1.057776e+01
4.244377e+01	-1.062342e+01
4.268892e+01	-1.066896e+01
4.293549e+01	-1.071530e+01
4.318348e+01	-1.076111e+01
4.343291e+01	-1.080675e+01
4.368377e+01	-1.085292e+01
4.393609e+01	-1.089852e+01
4.418986e+01	-1.094404e+01
4.444510e+01	-1.099042e+01
4.470182e+01	-1.103713e+01
4.496001e+01	-1.108354e+01
4.521970e+01	-1.112897e+01
4.548089e+01	-1.117544e+01
4.574358e+01	-1.122169e+01
4.600779e+01	-1.126815e+01
4.627353e+01	-1.131449e+01
4.654081e+01	-1.136059e+01
4.680963e+01	-1.140689e+01
4.708000e+01	-1.145286e+01
4.735193e+01	-1.149981e+01
4.762543e+01	-1.154648e+01
4.790051e+01	-1.159257e+01
4.817719e+01	-1.163905e+01
4.845545e+01	-1.168606e+01
4.873533e+01	-1.173288e+01
4.901682e+01	-1.177941e+01
4.929994e+01	-1.182625e+01
4.958470e+01	-1.187218e+01
4.987110e+01	-1.191938e+01
5.015915e+01	-1.196620e+01
5.044887e+01	-1.201348e+01
5.074026e+01	-1.206007e+01
5.103333e+01	-1.210738e+01
5.132810e+01	-1.215415e+01
5.162457e+01	-1.220176e+01
5.192275e+01	-1.224837e+01
5.222265e+01	-1.229518e+01
5.252429e+01	-1.234170e+01
5.282767e+01	-1.238918e+01
5.313280e+01	-1.243625e+01
5.343969e+01	-1.248354e+01
5.374836e+01	-1.253027e+01
5.405880e+01	-1.257762e+01
5.437105e+01	-1.262585e+01
5.468509e+01	-1.267282e+01
5.500095e+01	-1.271988e+01
5.531863e+01	-1.276700e+01
5.563815e+01	-1.281410e+01
5.595951e+01	-1.286232e+01
5.628273e+01	-1.290982e+01
5.660782e+01	-1.295636e+01
5.693479e+01	-1.300387e+01
5.726364e+01	-1.305247e+01
5.759439e+01	-1.309974e+01
5.792705e+01	-1.314642e+01
5.826164e+01	-1.319439e+01
5.859815e+01	-1.324267e+01
5.893662e+01	-1.328995e+01
5.927703e+01	-1.333816e+01
5.961941e+01	-1.338588e+01
5.996377e+01	-1.343342e+01
6.031012e+01	-1.348107e+01
6.065847e+01	-1.352874e+01
6.100883e+01	-1.357690e+01
6.136121e+01	-1.362471e+01
6.171563e+01	-1.367272e+01
6.207210e+01	-1.372092e+01
6.243063e+01	-1.376856e+01
6.279122e+01	-1.381587e+01
6.315390e+01	-1.386373e+01
6.351868e+01	-1.391213e+01
6.388556e+01	-1.396068e+01
6.425456e+01	-1.400789e+01
6.462569e+01	-1.405534e+01
6.499897e+01	-1.410387e+01
6.537440e+01	-1.415214e+01
6.575200e+01	-1.420085e+01
6.613178e+01	-1.424897e+01
6.651375e+01	-1.429637e+01
6.689793e+01	-1.434552e+01
6.728433e+01	-1.439256e+01
6.767297e+01	-1.444151e+01
6.806384e+01	-1.448881e+01
6.845698e+01	-1.453792e+01
6.885238e+01	-1.458618e+01
6.925007e+01	-1.463453e+01
6.965005e+01	-1.468319e+01
7.005235e+01	-1.473107e+01
7.045697e+01	-1.477984e+01
7.086393e+01	-1.482812e+01
7.127323e+01	-1.487696e+01
7.168490e+01	-1.492471e+01
7.209895e+01	-1.497338e+01
7.251539e+01	-1.502091e+01
7.293424e+01	-1.506971e+01
7.335551e+01	-1.511774e+01
7.377920e+01	-1.516678e+01
7.420535e+01	-1.521591e+01
7.463396e+01	-1.526375e+01
7.506504e+01	-1.531354e+01
7.549861e+01	-1.536110e+01
7.593469e+01	-1.540997e+01
7.637328e+01	-1.545830e+01
7.681441e+01	-1.550644e+01
7.725809e+01	-1.555601e+01
7.770433e+01	-1.560442e+01
7.815315e+01	-1.565196e+01
7.860456e+01	-1.570219e+01
7.905857e+01	-1.575019e+01
7.951521e+01	-1.579950e+01
7.997449e+01	-1.584842e+01
8.043642e+01	-1.589676e+01
8.090102e+01	-1.594545e+01
8.136830e+01	-1.599325e+01
8.183828e+01	-1.604313e+01
8.231097e+01	-1.609183e+01
8.278640e+01	-1.614019e+01
8.326457e+01	-1.618977e+01
8.374550e+01	-1.623812e+01
8.422921e+01	-1.628740e+01
8.471572e+01	-1.633596e+01
8.520503e+01	-1.638492e+01
8.569717e+01	-1.643427e+01
8.619215e+01	-1.648256e+01
8.669000e+01	-1.653193e+01
8.719071e+01	-1.657909e+01
8.769432e+01	-1.662906e+01
8.820084e+01	-1.667846e+01
8.871029e+01	-1.672831e+01
8.922267e+01	-1.677563e+01
8.973802e+01	-1.682595e+01
9.025634e+01	-1.687504e+01
9.077766e+01	-1.692303e+01
9.130199e+01	-1.697191e+01
9.182935e+01	-1.702144e+01
9.235975e+01	-1.706919e+01
9.289321e+01	-1.711844e+01
9.342976e+01	-1.716783e+01
9.396941e+01	-1.721741e+01
9.451217e+01	-1.726625e+01
9.505807e+01	-1.731510e+01
9.560712e+01	-1.736507e+01
9.615934e+01	-1.741290e+01
9.671476e+01	-1.746296e+01
9.727338e+01	-1.751179e+01
9.783522e+01	-1.756111e+01
9.840032e+01	-1.760984e+01
9.896867e+01	-1.765842e+01
9.954031e+01	-1.770887e+01
1.001153e+02	-1.775849e+01
1.006935e+02	-1.780813e+01
1.012751e+02	-1.785622e+01
1.018601e+02	-1.790559e+01
1.024484e+02	-1.795390e+01
1.030402e+02	-1.800412e+01
1.036353e+02	-1.805244e+01
1.042339e+02	-1.810225e+01
1.048360e+02	-1.815230e+01
1.054415e+02	-1.820103e+01
1.060505e+02	-1.824986e+01
1.066631e+02	-1.829880e+01
1.072791e+02	-1.835016e+01
1.078988e+02	-1.839813e+01
1.085220e+02	-1.844784e+01
1.091488e+02	-1.849659e+01
1.097793e+02	-1.854625e+01
1.104133e+02	-1.859670e+01
1.110511e+02	-1.864592e+01
1.116925e+02	-1.869300e+01
1.123376e+02	-1.874361e+01
1.129865e+02	-1.879280e+01
1.136391e+02	-1.884159e+01
1.142955e+02	-1.889139e+01
1.149556e+02	-1.894108e+01
1.156196e+02	-1.898988e+01
1.162874e+02	-1.903943e+01
1.169591e+02	-1.908852e+01
1.176347e+02	-1.913925e+01
1.183141e+02	-1.918912e+01
1.189975e+02	-1.923739e+01
1.196848e+02	-1.928708e+01
1.203761e+02	-1.933602e+01
1.210714e+02	-1.938480e+01
1.217707e+02	-1.943455e+01
1.224740e+02	-1.948525e+01
1.231814e+02	-1.953216e+01
1.238929e+02	-1.958312e+01
1.246085e+02	-1.963213e+01
1.253283e+02	-1.968278e+01
1.260522e+02	-1.973105e+01
1.267802e+02	-1.978343e+01
1.275125e+02	-1.983154e+01
1.282490e+02	-1.988188e+01
1.289898e+02	-1.993123e+01
1.297348e+02	-1.997927e+01
1.304842e+02	-2.003057e+01
1.312378e+02	-2.007883e+01
1.319959e+02	-2.013006e+01
1.327583e+02	-2.017782e+01
1.335251e+02	-2.022809e+01
1.342963e+02	-2.027629e+01
1.350720e+02	-2.032712e+01
1.358522e+02	-2.037720e+01
1.366368e+02	-2.042506e+01
1.374260e+02	-2.047556e+01
1.382198e+02	-2.052590e+01
1.390182e+02	-2.057479e+01
1.398211e+02	-2.062601e+01
1.406287e+02	-2.067382e+01
1.414410e+02	-2.072295e+01
1.422579e+02	-2.077253e+01
1.430796e+02	-2.082182e+01
1.439060e+02	-2.087296e+01
1.447372e+02	-2.092400e+01
1.455732e+02	-2.097198e+01
1.464141e+02	-2.102154e+01
1.472597e+02	-2.107121e+01
1.481103e+02	-2.112288e+01
1.489658e+02	-2.116895e+01
1.498262e+02	-2.122170e+01
1.506916e+02	-2.127025e+01
1.515620e+02	-2.132135e+01
1.524374e+02	-2.137005e+01
1.533179e+02	-2.141923e+01
1.542034e+02	-2.146818e+01
1.550941e+02	-2.151745e+01
1.559899e+02	-2.156691e+01
1.568909e+02	-2.161756e+01
1.577971e+02	-2.166585e+01
1.587085e+02	-2.171695e+01
1.596252e+02	-2.176484e+01
1.605472e+02	-2.181462e+01
1.614745e+02	-2.186341e+01
1.624072e+02	-2.191658e+01
1.633453e+02	-2.196532e+01
1.642887e+02	-2.201597e+01
1.652377e+02	-2.206608e+01
1.661921e+02	-2.211491e+01
1.671520e+02	-2.216305e+01
1.681175e+02	-2.221294e+01
1.690885e+02	-2.226549e+01
1.700651e+02	-2.231407e+01
1.710474e+02	-2.236455e+01
1.720354e+02	-2.241296e+01
1.730291e+02	-2.246342e+01
1.740285e+02	-2.251246e+01
1.750337e+02	-2.256290e+01
1.760446e+02	-2.261095e+01
1.770615e+02	-2.266144e+01
1.780842e+02	-2.271191e+01
1.791128e+02	-2.276169e+01
1.801473e+02	-2.281195e+01
1.811878e+02	-2.286086e+01
1.822344e+02	-2.291105e+01
1.832870e+02	-2.296048e+01
1.843456e+02	-2.300898e+01
1.854104e+02	-2.306140e+01
1.864813e+02	-2.311102e+01
1.875584e+02	-2.316079e+01
1.886418e+02	-2.320995e+01
1.897313e+02	-2.325937e+01
1.908272e+02	-2.330876e+01
1.919294e+02	-2.335819e+01
1.930380e+02	-2.340704e+01
1.941530e+02	-2.345736e+01
1.952744e+02	-2.350850e+01
1.964023e+02	-2.355741e+01
1.975367e+02	-2.360563e+01
1.986777e+02	-2.365673e+01
1.998252e+02	-2.370803e+01
2.009794e+02	-2.375633e+01
2.021403e+02	-2.380662e+01
2.033078e+02	-2.385820e+01
2.044821e+02	-2.390966e+01
2.056632e+02	-2.395986e+01
2.068511e+02	-2.400613e+01
2.080459e+02	-2.405900e+01
2.092475e+02	-2.410786e+01
2.104561e+02	-2.415358e+01
2.116717e+02	-2.420715e+01
2.128943e+02	-2.425785e+01
2.141240e+02	-2.430532e+01
2.153608e+02	-2.435872e+01
2.166047e+02	-2.440541e+01
2.178558e+02	-2.445861e+01
2.191141e+02	-2.450254e+01
2.203797e+02	-2.455596e+01
2.216526e+02	-2.460580e+01
2.229329e+02	-2.465694e+01
2.242205e+02	-2.470476e+01
2.255156e+02	-2.475312e+01
2.268182e+02	-2.480733e+01
2.281283e+02	-2.485653e+01
2.294459e+02	-2.490605e+01
2.307712e+02	-2.495486e+01
2.321041e+02	-2.500616e+01
2.334447e+02	-2.505685e+01
2.347931e+02	-2.510469e+01
2.361493e+02	-2.515537e+01
2.375133e+02	-2.520523e+01
2.388851e+02	-2.525568e+01
2.402649e+02	-2.530532e+01
2.416527e+02	-2.535392e+01
2.430484e+02	-2.540310e+01
2.444523e+02	-2.545368e+01
2.458642e+02	-2.550284e+01
2.472843e+02	-2.555453e+01
2.487126e+02	-2.560334e+01
2.501492e+02	-2.565378e+01
2.515940e+02	-2.570526e+01
2.530472e+02	-2.575259e+01
2.545088e+02	-2.580614e+01
2.559789e+02	-2.585424e+01
2.574574e+02	-2.590114e+01
2.589444e+02	-2.595186e+01
2.604401e+02	-2.600241e+01
2.619444e+02	-2.605314e+01
2.634574e+02	-2.610848e+01
2.649791e+02	-2.615238e+01
2.665096e+02	-2.620534e+01
2.680489e+02	-2.625269e+01
2.695972e+02	-2.630216e+01
2.711544e+02	-2.635418e+01
2.727205e+02	-2.640327e+01
2.742958e+02	-2.645373e+01
2.758801e+02	-2.649978e+01
2.774736e+02	-2.655583e+01
2.790762e+02	-2.660376e+01
2.806882e+02	-2.665275e+01
2.823094e+02	-2.670141e+01
2.839400e+02	-2.675329e+01
2.855800e+02	-2.680326e+01
2.872295e+02	-2.685321e+01
2.888886e+02	-2.690538e+01
2.905572e+02	-2.695249e+01
2.922354e+02	-2.700500e+01
2.939234e+02	-2.705465e+01
2.956211e+02	-2.710703e+01
2.973286e+02	-2.715089e+01
2.990459e+02	-2.720219e+01
3.007732e+02	-2.725380e+01
3.025104e+02	-2.730211e+01
3.042577e+02	-2.735238e+01
3.060151e+02	-2.740321e+01
3.077826e+02	-2.745249e+01
3.095604e+02	-2.750510e+01
3.113484e+02	-2.755013e+01
3.131467e+02	-2.760196e+01
3.149554e+02	-2.765398e+01
3.167746e+02	-2.770280e+01
3.186043e+02	-2.775202e+01
3.204445e+02	-2.780480e+01
3.222954e+02	-2.785169e+01
3.241570e+02	-2.790595e+01
3.260293e+02	-2.795892e+01
3.279124e+02	-2.800282e+01
3.298064e+02	-2.805620e+01
3.317114e+02	-2.809804e+01
3.336273e+02	-2.815264e+01
3.355544e+02	-2.820346e+01
3.374925e+02	-2.825580e+01
3.394418e+02	-2.830527e+01
3.414024e+02	-2.835819e+01
3.433744e+02	-2.840343e+01
3.453577e+02	-2.845094e+01
3.473525e+02	-2.850421e+01
3.493588e+02	-2.855306e+01
3.513766e+02	-2.860430e+01
3.534062e+02	-2.865351e+01
3.554474e+02	-2.870244e+01
3.575005e+02	-2.875585e+01
3.595654e+02	-2.880128e+01
3.616422e+02	-2.885301e+01
3.637311e+02	-2.890184e+01
3.658320e+02	-2.895307e+01
3.679450e+02	-2.900002e+01
3.700702e+02	-2.905299e+01
3.722077e+02	-2.910585e+01
3.743576e+02	-2.915634e+01
3.765199e+02	-2.920146e+01
3.786946e+02	-2.925445e+01
3.808820e+02	-2.930491e+01
3.830819e+02	-2.935508e+01
3.852946e+02	-2.940463e+01
3.875200e+02	-2.945464e+01
3.897583e+02	-2.950801e+01
3.920096e+02	-2.955916e+01
3.942738e+02	-2.960509e+01
3.965511e+02	-2.965423e+01
3.988416e+02	-2.970572e+01
4.011452e+02	-2.975783e+01
4.034622e+02	-2.980470e+01
4.057926e+02	-2.985738e+01
4.081365e+02	-2.990355e+01
4.104938e+02	-2.995609e+01
4.128648e+02	-3.000327e+01
4.152495e+02	-3.006125e+01
4.176480e+02	-3.010792e+01
4.200603e+02	-3.016040e+01
4.224866e+02	-3.020540e+01
4.249268e+02	-3.025533e+01
4.273812e+02	-3.030673e+01
4.298497e+02	-3.035159e+01
4.323325e+02	-3.040545e+01
4.348297e+02	-3.045476e+01
4.373412e+02	-3.050481e+01
4.398673e+02	-3.056006e+01
4.424079e+02	-3.060929e+01
4.449633e+02	-3.066300e+01
4.475334e+02	-3.070787e+01
4.501183e+02	-3.075463e+01
4.527182e+02	-3.081366e+01
4.553330e+02	-3.085730e+01
4.579630e+02	-3.090739e+01
4.606082e+02	-3.095951e+01
4.632687e+02	-3.100340e+01
4.659445e+02	-3.105394e+01
4.686358e+02	-3.110734e+01
4.713426e+02	-3.115860e+01
4.740650e+02	-3.120587e+01
4.768032e+02	-3.125859e+01
4.795572e+02	-3.130462e+01
4.823271e+02	-3.135934e+01
4.851130e+02	-3.141306e+01
4.879150e+02	-3.146331e+01
4.907332e+02	-3.150545e+01
4.935676e+02	-3.155455e+01
4.964185e+02	-3.161488e+01
4.992858e+02	-3.166337e+01
5.021696e+02	-3.171410e+01
5.050701e+02	-3.176448e+01
5.079874e+02	-3.181442e+01
5.109215e+02	-3.185400e+01
5.138726e+02	-3.191089e+01
5.168407e+02	-3.195467e+01
5.198259e+02	-3.201263e+01
5.228284e+02	-3.206455e+01
5.258482e+02	-3.211891e+01
5.288855e+02	-3.215938e+01
5.319403e+02	-3.221274e+01
5.350128e+02	-3.227032e+01
5.381030e+02	-3.230812e+01
5.412111e+02	-3.236232e+01
5.443371e+02	-3.241655e+01
5.474812e+02	-3.246624e+01
5.506434e+02	-3.251608e+01
5.538239e+02	-3.256939e+01
5.570228e+02	-3.260907e+01
5.602401e+02	-3.266676e+01
5.634760e+02	-3.271716e+01
5.667306e+02	-3.276103e+01
5.700040e+02	-3.280869e+01
5.732964e+02	-3.285877e+01
5.766077e+02	-3.291751e+01
5.799382e+02	-3.296874e+01
5.832879e+02	-3.301356e+01
5.866569e+02	-3.306172e+01
5.900454e+02	-3.311857e+01
5.934535e+02	-3.316656e+01
5.968813e+02	-3.320985e+01
6.003288e+02	-3.326625e+01
6.037963e+02	-3.332265e+01
6.072838e+02	-3.336607e+01
6.107914e+02	-3.342197e+01
6.143194e+02	-3.347178e+01
6.178676e+02	-3.351317e+01
6.214364e+02	-3.356510e+01
6.250258e+02	-3.362312e+01
6.286359e+02	-3.366972e+01
6.322669e+02	-3.371625e+01
6.359189e+02	-3.377435e+01
6.395919e+02	-3.381786e+01
6.432862e+02	-3.387426e+01
6.470017e+02	-3.392521e+01
6.507388e+02	-3.397562e+01
6.544974e+02	-3.402365e+01
6.582778e+02	-3.407426e+01
6.620800e+02	-3.412457e+01
6.659041e+02	-3.416912e+01
6.697504e+02	-3.422863e+01
6.736188e+02	-3.427959e+01
6.775096e+02	-3.432038e+01
6.814229e+02	-3.437859e+01
6.853587e+02	-3.442478e+01
6.893173e+02	-3.447465e+01
6.932988e+02	-3.453238e+01
6.973033e+02	-3.458033e+01
7.013309e+02	-3.462861e+01
