Frequency(Hz)	Magnitude(dB)
1.000000e+01	-1.999723e+00
1.005776e+01	-2.018112e+00
1.011585e+01	-2.036767e+00
1.017428e+01	-2.055423e+00
1.023305e+01	-2.074590e+00
1.029215e+01	-2.093496e+00
1.035160e+01	-2.112641e+00
1.041139e+01	-2.132186e+00
1.047153e+01	-2.151442e+00
1.053201e+01	-2.171067e+00
1.059284e+01	-2.190950e+00
1.065403e+01	-2.210930e+00
1.071556e+01	-2.230992e+00
1.077746e+01	-2.251139e+00
1.083971e+01	-2.271115e+00
1.090232e+01	-2.291829e+00
1.096529e+01	-2.311973e+00
1.102862e+01	-2.333158e+00
1.109232e+01	-2.353907e+00
1.115639e+01	-2.374988e+00
1.122083e+01	-2.396001e+00
1.128564e+01	-2.417489e+00
1.135083e+01	-2.438621e+00
1.141639e+01	-2.460413e+00
1.148233e+01	-2.482113e+00
1.154865e+01	-2.503773e+00
1.161536e+01	-2.526001e+00
1.168245e+01	-2.548177e+00
1.174992e+01	-2.570356e+00
1.181779e+01	-2.592885e+00
1.188605e+01	-2.615070e+00
1.195470e+01	-2.638045e+00
1.202375e+01	-2.660867e+00
1.209320e+01	-2.683918e+00
1.216305e+01	-2.706791e+00
1.223330e+01	-2.730185e+00
1.230396e+01	-2.753696e+00
1.237503e+01	-2.777211e+00
1.244651e+01	-2.800842e+00
1.251840e+01	-2.824862e+00
1.259070e+01	-2.848762e+00
1.266343e+01	-2.872969e+00
1.273657e+01	-2.897080e+00
1.281014e+01	-2.921478e+00
1.288413e+01	-2.945940e+00
1.295855e+01	-2.970840e+00
1.303339e+01	-2.995628e+00
1.310867e+01	-3.020774e+00
1.318439e+01	-3.045907e+00
1.326054e+01	-3.071121e+00
1.333713e+01	-3.096150e+00
1.341417e+01	-3.122366e+00
1.349165e+01	-3.147809e+00
1.356958e+01	-3.173835e+00
1.364795e+01	-3.199787e+00
1.372678e+01	-3.226091e+00
1.380607e+01	-3.252118e+00
1.388581e+01	-3.278588e+00
1.396602e+01	-3.305273e+00
1.404668e+01	-3.331774e+00
1.412782e+01	-3.358724e+00
1.420942e+01	-3.385854e+00
1.429149e+01	-3.412865e+00
1.437404e+01	-3.440138e+00
1.445706e+01	-3.467674e+00
1.454057e+01	-3.495436e+00
1.462455e+01	-3.522998e+00
1.470902e+01	-3.550726e+00
1.479398e+01	-3.578879e+00
1.487943e+01	-3.607346e+00
1.496537e+01	-3.635378e+00
1.505181e+01	-3.663695e+00
1.513875e+01	-3.692344e+00
1.522619e+01	-3.721022e+00
1.531414e+01	-3.749991e+00
1.540259e+01	-3.778890e+00
1.549156e+01	-3.807895e+00
1.558103e+01	-3.837325e+00
1.567103e+01	-3.866857e+00
1.576155e+01	-3.896491e+00
1.585258e+01	-3.926289e+00
1.594415e+01	-3.955723e+00
1.603624e+01	-3.985789e+00
1.612886e+01	-4.015843e+00
1.622202e+01	-4.046245e+00
1.631572e+01	-4.076651e+00
1.640996e+01	-4.107044e+00
1.650474e+01	-4.137901e+00
1.660008e+01	-4.168249e+00
1.669596e+01	-4.199819e+00
1.679239e+01	-4.230638e+00
1.688938e+01	-4.261692e+00
1.698694e+01	-4.293410e+00
1.708505e+01	-4.324815e+00
1.718373e+01	-4.356327e+00
1.728299e+01	-4.388103e+00
1.738281e+01	-4.419732e+00
1.748322e+01	-4.452000e+00
1.758420e+01	-4.483770e+00
1.768576e+01	-4.516251e+00
1.778792e+01	-4.548642e+00
1.789066e+01	-4.581251e+00
1.799399e+01	-4.613995e+00
1.809793e+01	-4.646635e+00
1.820246e+01	-4.679816e+00
1.830760e+01	-4.712607e+00
1.841334e+01	-4.745563e+00
1.851969e+01	-4.779029e+00
1.862666e+01	-4.812978e+00
1.873425e+01	-4.846308e+00
1.884246e+01	-4.879981e+00
1.895129e+01	-4.913650e+00
1.906075e+01	-4.947652e+00
1.917085e+01	-4.981885e+00
1.928158e+01	-5.015771e+00
1.939295e+01	-5.050311e+00
1.950496e+01	-5.084900e+00
1.961762e+01	-5.119615e+00
1.973093e+01	-5.154314e+00
1.984490e+01	-5.188748e+00
1.995952e+01	-5.224096e+00
2.007480e+01	-5.259161e+00
2.019076e+01	-5.294124e+00
2.030738e+01	-5.329579e+00
2.042467e+01	-5.364812e+00
2.054264e+01	-5.400080e+00
2.066130e+01	-5.435777e+00
2.078064e+01	-5.471850e+00
2.090066e+01	-5.507655e+00
2.102139e+01	-5.543828e+00
2.114280e+01	-5.579826e+00
2.126492e+01	-5.615984e+00
2.138775e+01	-5.652310e+00
2.151128e+01	-5.688918e+00
2.163553e+01	-5.725292e+00
2.176050e+01	-5.762084e+00
2.188619e+01	-5.798976e+00
2.201260e+01	-5.835812e+00
2.213974e+01	-5.872697e+00
2.226762e+01	-5.909988e+00
2.239624e+01	-5.947282e+00
2.252560e+01	-5.984501e+00
2.265571e+01	-6.022092e+00
2.278656e+01	-6.059460e+00
2.291818e+01	-6.097540e+00
2.305055e+01	-6.134914e+00
2.318369e+01	-6.172930e+00
2.331760e+01	-6.211216e+00
2.345228e+01	-6.249077e+00
2.358774e+01	-6.287500e+00
2.372398e+01	-6.325777e+00
2.386101e+01	-6.364243e+00
2.399883e+01	-6.402473e+00
2.413745e+01	-6.441198e+00
2.427686e+01	-6.480134e+00
2.441709e+01	-6.519125e+00
2.455812e+01	-6.557876e+00
2.469997e+01	-6.596676e+00
2.484263e+01	-6.635984e+00
2.498612e+01	-6.674685e+00
2.513044e+01	-6.714495e+00
2.527559e+01	-6.753951e+00
2.542158e+01	-6.793342e+00
2.556842e+01	-6.833020e+00
2.571610e+01	-6.872619e+00
2.586463e+01	-6.912641e+00
2.601403e+01	-6.952479e+00
2.616428e+01	-6.992291e+00
2.631541e+01	-7.032531e+00
2.646740e+01	-7.072278e+00
2.662028e+01	-7.112522e+00
2.677404e+01	-7.153102e+00
2.692868e+01	-7.193319e+00
2.708422e+01	-7.234136e+00
2.724066e+01	-7.274451e+00
2.739800e+01	-7.315364e+00
2.755625e+01	-7.356147e+00
2.771541e+01	-7.397139e+00
2.787550e+01	-7.438448e+00
2.803650e+01	-7.478584e+00
2.819844e+01	-7.520282e+00
2.836131e+01	-7.561670e+00
2.852513e+01	-7.602827e+00
2.868989e+01	-7.643947e+00
2.885560e+01	-7.685586e+00
2.902227e+01	-7.727309e+00
2.918990e+01	-7.768676e+00
2.935850e+01	-7.810191e+00
2.952807e+01	-7.852386e+00
2.969863e+01	-7.894200e+00
2.987016e+01	-7.935997e+00
3.004269e+01	-7.977944e+00
3.021622e+01	-8.019980e+00
3.039075e+01	-8.062326e+00
3.056628e+01	-8.104347e+00
3.074283e+01	-8.147066e+00
3.092040e+01	-8.189231e+00
3.109900e+01	-8.231701e+00
3.127862e+01	-8.274333e+00
3.145929e+01	-8.317212e+00
3.164099e+01	-8.359727e+00
3.182375e+01	-8.402191e+00
3.200756e+01	-8.445310e+00
3.219244e+01	-8.488184e+00
3.237838e+01	-8.531222e+00
3.256540e+01	-8.574093e+00
3.275349e+01	-8.617168e+00
3.294268e+01	-8.660188e+00
3.313295e+01	-8.703426e+00
3.332433e+01	-8.747314e+00
3.351681e+01	-8.790865e+00
3.371040e+01	-8.833685e+00
3.390511e+01	-8.877463e+00
3.410094e+01	-8.920609e+00
3.429791e+01	-8.964457e+00
3.449601e+01	-9.008179e+00
3.469526e+01	-9.051918e+00
3.489566e+01	-9.095809e+00
3.509721e+01	-9.139598e+00
3.529993e+01	-9.183454e+00
3.550382e+01	-9.227761e+00
3.570889e+01	-9.272040e+00
3.591515e+01	-9.315992e+00
3.612259e+01	-9.360125e+00
3.633123e+01	-9.404289e+00
3.654108e+01	-9.448777e+00
3.675214e+01	-9.493233e+00
3.696442e+01	-9.537611e+00
3.717792e+01	-9.582551e+00
3.739266e+01	-9.625907e+00
3.760864e+01	-9.671284e+00
3.782587e+01	-9.715933e+00
3.804435e+01	-9.760653e+00
3.826409e+01	-9.805008e+00
3.848510e+01	-9.849698e+00
3.870739e+01	-9.895180e+00
3.893096e+01	-9.939978e+00
3.915583e+01	-9.985051e+00
3.938199e+01	-1.002963e+01
3.960946e+01	-1.007484e+01
3.983824e+01	-1.011987e+01
4.006834e+01	-1.016560e+01
4.029978e+01	-1.021063e+01
4.053255e+01	-1.025526e+01
4.076666e+01	-1.030128e+01
4.100213e+01	-1.034627e+01
4.123896e+01	-1.039249e+01
4.147715e+01	-1.043799e+01
4.171672e+01	-1.048247e+01
4.195767e+01	-1.052877e+01
4.220002e+01	-1.057397e+01
4.244377e+01	-1.061971e+01
4.268892e+01	-1.066540e+01
4.293549e+01	-1.071112e+01
4.318348e+01	-1.075720e+01
4.343291e+01	-1.080289e+01
4.368377e+01	-1.084888e+01
4.393609e+01	-1.089502e+01
4.418986e+01	-1.094055e+01
4.444510e+01	-1.098707e+01
4.470182e+01	-1.103266e+01
4.496001e+01	-1.107876e+01
4.521970e+01	-1.112462e+01
4.548089e+01	-1.117131e+01
4.574358e+01	-1.121765e+01
4.600779e+01	-1.126417e+01
4.627353e+01	-1.130999e+01
4.654081e+01	-1.135713e+01
4.680963e+01	-1.140321e+01
4.708000e+01	-1.144894e+01
4.735193e+01	-1.149605e+01
4.762543e+01	-1.154275e+01
4.790051e+01	-1.158857e+01
4.817719e+01	-1.163577e+01
4.845545e+01	-1.168113e+01
4.873533e+01	-1.172858e+01
4.901682e+01	-1.177527e+01
4.929994e+01	-1.182173e+01
4.958470e+01	-1.186895e+01
4.987110e+01	-1.191521e+01
5.015915e+01	-1.196244e+01
5.044887e+01	-1.200903e+01
5.074026e+01	-1.205613e+01
5.103333e+01	-1.210274e+01
5.132810e+01	-1.215003e+01
5.162457e+01	-1.219672e+01
5.192275e+01	-1.224362e+01
5.222265e+01	-1.229066e+01
5.252429e+01	-1.233841e+01
5.282767e+01	-1.238587e+01
5.313280e+01	-1.243185e+01
5.343969e+01	-1.247949e+01
5.374836e+01	-1.252670e+01
5.405880e+01	-1.257413e+01
5.437105e+01	-1.262154e+01
5.468509e+01	-1.266911e+01
5.500095e+01	-1.271658e+01
5.531863e+01	-1.276277e+01
5.563815e+01	-1.281085e+01
5.595951e+01	-1.285829e+01
5.628273e+01	-1.290557e+01
5.660782e+01	-1.295316e+01
5.693479e+01	-1.300001e+01
5.726364e+01	-1.304883e+01
5.759439e+01	-1.309560e+01
5.792705e+01	-1.314381e+01
5.826164e+01	-1.319082e+01
5.859815e+01	-1.323889e+01
5.893662e+01	-1.328578e+01
5.927703e+01	-1.333404e+01
5.961941e+01	-1.338147e+01
5.996377e+01	-1.342953e+01
6.031012e+01	-1.347792e+01
6.065847e+01	-1.352431e+01
6.100883e+01	-1.357320e+01
6.136121e+01	-1.362005e+01
6.171563e+01	-1.366836e+01
6.207210e+01	-1.371680e+01
6.243063e+01	-1.376440e+01
6.279122e+01	-1.381269e+01
6.315390e+01	-1.386025e+01
6.351868e+01	-1.390791e+01
6.388556e+01	-1.395600e+01
6.425456e+01	-1.400445e+01
6.462569e+01	-1.405203e+01
6.499897e+01	-1.410066e+01
6.537440e+01	-1.414876e+01
6.575200e+01	-1.419698e+01
6.613178e+01	-1.424386e+01
6.651375e+01	-1.429221e+01
6.689793e+01	-1.434132e+01
6.728433e+01	-1.438882e+01
6.767297e+01	-1.443740e+01
6.806384e+01	-1.448573e+01
6.845698e+01	-1.453376e+01
6.885238e+01	-1.458256e+01
6.925007e+01	-1.462978e+01
6.965005e+01	-1.467873e+01
7.005235e+01	-1.472657e+01
7.045697e+01	-1.477607e+01
7.086393e+01	-1.482364e+01
7.127323e+01	-1.487201e+01
7.168490e+01	-1.492013e+01
7.209895e+01	-1.496906e+01
7.251539e+01	-1.501693e+01
7.293424e+01	-1.506664e+01
7.335551e+01	-1.511396e+01
7.377920e+01	-1.516319e+01
7.420535e+01	-1.521153e+01
7.463396e+01	-1.526034e+01
7.506504e+01	-1.530731e+01
7.549861e+01	-1.535694e+01
7.593469e+01	-1.540621e+01
7.637328e+01	-1.545421e+01
7.681441e+01	-1.550307e+01
7.725809e+01	-1.555152e+01
7.770433e+01	-1.559980e+01
7.815315e+01	-1.564983e+01
7.860456e+01	-1.569734e+01
7.905857e+01	-1.574689e+01
7.951521e+01	-1.579505e+01
7.997449e+01	-1.584378e+01
8.043642e+01	-1.589202e+01
8.090102e+01	-1.594142e+01
8.136830e+01	-1.599025e+01
8.183828e+01	-1.603882e+01
8.231097e+01	-1.608928e+01
8.278640e+01	-1.613632e+01
8.326457e+01	-1.618550e+01
8.374550e+01	-1.623527e+01
8.422921e+01	-1.628258e+01
8.471572e+01	-1.633096e+01
8.520503e+01	-1.638015e+01
8.569717e+01	-1.642957e+01
8.619215e+01	-1.647861e+01
8.669000e+01	-1.652689e+01
8.719071e+01	-1.657650e+01
8.769432e+01	-1.662499e+01
8.820084e+01	-1.667464e+01
8.871029e+01	-1.672302e+01
8.922267e+01	-1.677217e+01
8.973802e+01	-1.682099e+01
9.025634e+01	-1.686951e+01
9.077766e+01	-1.691901e+01
9.130199e+01	-1.696878e+01
9.182935e+01	-1.701628e+01
9.235975e+01	-1.706572e+01
9.289321e+01	-1.711459e+01
9.342976e+01	-1.716413e+01
9.396941e+01	-1.721309e+01
9.451217e+01	-1.726235e+01
9.505807e+01	-1.731238e+01
9.560712e+01	-1.736179e+01
9.615934e+01	-1.740946e+01
9.671476e+01	-1.745839e+01
9.727338e+01	-1.750779e+01
9.783522e+01	-1.755878e+01
9.840032e+01	-1.760711e+01
9.896867e+01	-1.765622e+01
9.954031e+01	-1.770516e+01
1.001153e+02	-1.775478e+01
1.006935e+02	-1.780337e+01
1.012751e+02	-1.785155e+01
1.018601e+02	-1.790092e+01
1.024484e+02	-1.795062e+01
1.030402e+02	-1.800027e+01
1.036353e+02	-1.804862e+01
1.042339e+02	-1.809888e+01
1.048360e+02	-1.814675e+01
1.054415e+02	-1.819700e+01
1.060505e+02	-1.824561e+01
1.066631e+02	-1.829545e+01
1.072791e+02	-1.834404e+01
1.078988e+02	-1.839435e+01
1.085220e+02	-1.844320e+01
1.091488e+02	-1.849228e+01
1.097793e+02	-1.853950e+01
1.104133e+02	-1.859256e+01
1.110511e+02	-1.863996e+01
1.116925e+02	-1.869100e+01
1.123376e+02	-1.873966e+01
1.129865e+02	-1.878804e+01
1.136391e+02	-1.883778e+01
1.142955e+02	-1.888690e+01
1.149556e+02	-1.893596e+01
1.156196e+02	-1.898630e+01
1.162874e+02	-1.903593e+01
1.169591e+02	-1.908565e+01
1.176347e+02	-1.913427e+01
1.183141e+02	-1.918493e+01
1.189975e+02	-1.923282e+01
1.196848e+02	-1.928271e+01
1.203761e+02	-1.933230e+01
1.210714e+02	-1.937989e+01
1.217707e+02	-1.943163e+01
1.224740e+02	-1.948072e+01
1.231814e+02	-1.952959e+01
1.238929e+02	-1.957910e+01
1.246085e+02	-1.962952e+01
1.253283e+02	-1.967913e+01
1.260522e+02	-1.972741e+01
1.267802e+02	-1.977783e+01
1.275125e+02	-1.982678e+01
1.282490e+02	-1.987736e+01
1.289898e+02	-1.992681e+01
1.297348e+02	-1.997710e+01
1.304842e+02	-2.002569e+01
1.312378e+02	-2.007367e+01
1.319959e+02	-2.012457e+01
1.327583e+02	-2.017200e+01
1.335251e+02	-2.022271e+01
1.342963e+02	-2.027343e+01
1.350720e+02	-2.032363e+01
1.358522e+02	-2.037152e+01
1.366368e+02	-2.042111e+01
1.374260e+02	-2.047305e+01
1.382198e+02	-2.052162e+01
1.390182e+02	-2.057006e+01
1.398211e+02	-2.062105e+01
1.406287e+02	-2.066992e+01
1.414410e+02	-2.072064e+01
1.422579e+02	-2.076945e+01
1.430796e+02	-2.081898e+01
1.439060e+02	-2.086634e+01
1.447372e+02	-2.091834e+01
1.455732e+02	-2.096653e+01
1.464141e+02	-2.101907e+01
1.472597e+02	-2.106609e+01
1.481103e+02	-2.111621e+01
1.489658e+02	-2.116706e+01
1.498262e+02	-2.121828e+01
1.506916e+02	-2.126620e+01
1.515620e+02	-2.131498e+01
1.524374e+02	-2.136456e+01
1.533179e+02	-2.141315e+01
1.542034e+02	-2.146454e+01
1.550941e+02	-2.151458e+01
1.559899e+02	-2.156365e+01
1.568909e+02	-2.161326e+01
1.577971e+02	-2.166233e+01
1.587085e+02	-2.171191e+01
1.596252e+02	-2.176370e+01
1.605472e+02	-2.181247e+01
1.614745e+02	-2.186438e+01
1.624072e+02	-2.191213e+01
1.633453e+02	-2.196039e+01
1.642887e+02	-2.201035e+01
1.652377e+02	-2.205890e+01
1.661921e+02	-2.211111e+01
1.671520e+02	-2.215975e+01
1.681175e+02	-2.221125e+01
1.690885e+02	-2.225900e+01
1.700651e+02	-2.230957e+01
1.710474e+02	-2.235825e+01
1.720354e+02	-2.240955e+01
1.730291e+02	-2.245726e+01
1.740285e+02	-2.250774e+01
1.750337e+02	-2.255928e+01
1.760446e+02	-2.260915e+01
1.770615e+02	-2.265568e+01
1.780842e+02	-2.270696e+01
1.791128e+02	-2.275789e+01
1.801473e+02	-2.280749e+01
1.811878e+02	-2.285446e+01
1.822344e+02	-2.290891e+01
1.832870e+02	-2.295617e+01
1.843456e+02	-2.300649e+01
1.854104e+02	-2.305501e+01
1.864813e+02	-2.310628e+01
1.875584e+02	-2.315740e+01
1.886418e+02	-2.320604e+01
1.897313e+02	-2.325802e+01
1.908272e+02	-2.330799e+01
1.919294e+02	-2.335471e+01
1.930380e+02	-2.340639e+01
1.941530e+02	-2.345532e+01
1.952744e+02	-2.350696e+01
1.964023e+02	-2.355473e+01
1.975367e+02	-2.360457e+01
1.986777e+02	-2.365428e+01
1.998252e+02	-2.370169e+01
2.009794e+02	-2.375403e+01
2.021403e+02	-2.380512e+01
2.033078e+02	-2.385398e+01
2.044821e+02	-2.390427e+01
2.056632e+02	-2.395515e+01
2.068511e+02	-2.400239e+01
2.080459e+02	-2.405301e+01
2.092475e+02	-2.410268e+01
2.104561e+02	-2.415481e+01
2.116717e+02	-2.420091e+01
2.128943e+02	-2.425062e+01
2.141240e+02	-2.430575e+01
2.153608e+02	-2.435406e+01
2.166047e+02	-2.440078e+01
2.178558e+02	-2.445053e+01
2.191141e+02	-2.450143e+01
2.203797e+02	-2.454902e+01
2.216526e+02	-2.460063e+01
2.229329e+02	-2.465041e+01
2.242205e+02	-2.470187e+01
2.255156e+02	-2.475142e+01
2.268182e+02	-2.479971e+01
2.281283e+02	-2.485063e+01
2.294459e+02	-2.489982e+01
2.307712e+02	-2.495103e+01
2.321041e+02	-2.499987e+01
2.334447e+02	-2.505133e+01
2.347931e+02	-2.510192e+01
2.361493e+02	-2.515246e+01
2.375133e+02	-2.520022e+01
2.388851e+02	-2.525029e+01
2.402649e+02	-2.529930e+01
2.416527e+02	-2.534952e+01
2.430484e+02	-2.540206e+01
2.444523e+02	-2.545022e+01
2.458642e+02	-2.550053e+01
2.472843e+02	-2.554993e+01
2.487126e+02	-2.559964e+01
2.501492e+02	-2.565216e+01
2.515940e+02	-2.569884e+01
2.530472e+02	-2.574727e+01
2.545088e+02	-2.580015e+01
2.559789e+02	-2.584804e+01
2.574574e+02	-2.590082e+01
2.589444e+02	-2.595040e+01
2.604401e+02	-2.600141e+01
2.619444e+02	-2.604890e+01
2.634574e+02	-2.610151e+01
2.649791e+02	-2.615253e+01
2.665096e+02	-2.619950e+01
2.680489e+02	-2.625109e+01
2.695972e+02	-2.629833e+01
2.711544e+02	-2.635065e+01
2.727205e+02	-2.640085e+01
2.742958e+02	-2.645286e+01
2.758801e+02	-2.650096e+01
2.774736e+02	-2.654745e+01
2.790762e+02	-2.660017e+01
2.806882e+02	-2.664844e+01
2.823094e+02	-2.670072e+01
2.839400e+02	-2.674684e+01
2.855800e+02	-2.679683e+01
2.872295e+02	-2.685106e+01
2.888886e+02	-2.689617e+01
2.905572e+02	-2.694783e+01
2.922354e+02	-2.699559e+01
2.939234e+02	-2.705112e+01
2.956211e+02	-2.709994e+01
2.973286e+02	-2.714936e+01
2.990459e+02	-2.719559e+01
3.007732e+02	-2.724913e+01
3.025104e+02	-2.729874e+01
3.042577e+02	-2.735213e+01
3.060151e+02	-2.739941e+01
3.077826e+02	-2.745084e+01
3.095604e+02	-2.749722e+01
3.113484e+02	-2.755017e+01
3.131467e+02	-2.759978e+01
3.149554e+02	-2.765045e+01
3.167746e+02	-2.769461e+01
3.186043e+02	-2.774522e+01
3.204445e+02	-2.780045e+01
3.222954e+02	-2.785218e+01
3.241570e+02	-2.790041e+01
3.260293e+02	-2.794852e+01
3.279124e+02	-2.799981e+01
3.298064e+02	-2.804801e+01
3.317114e+02	-2.809738e+01
3.336273e+02	-2.814667e+01
3.355544e+02	-2.820036e+01
3.374925e+02	-2.824904e+01
3.394418e+02	-2.829733e+01
3.414024e+02	-2.835079e+01
3.433744e+02	-2.840105e+01
3.453577e+02	-2.844790e+01
3.473525e+02	-2.849968e+01
3.493588e+02	-2.855213e+01
3.513766e+02	-2.859757e+01
3.534062e+02	-2.865101e+01
3.554474e+02	-2.870223e+01
3.575005e+02	-2.875251e+01
3.595654e+02	-2.880015e+01
3.616422e+02	-2.884719e+01
3.637311e+02	-2.890060e+01
3.658320e+02	-2.894710e+01
3.679450e+02	-2.899966e+01
3.700702e+02	-2.905377e+01
3.722077e+02	-2.909861e+01
3.743576e+02	-2.915432e+01
3.765199e+02	-2.919987e+01
3.786946e+02	-2.925550e+01
3.808820e+02	-2.929922e+01
3.830819e+02	-2.935509e+01
3.852946e+02	-2.939930e+01
3.875200e+02	-2.945093e+01
3.897583e+02	-2.949811e+01
3.920096e+02	-2.954993e+01
3.942738e+02	-2.959893e+01
3.965511e+02	-2.965174e+01
3.988416e+02	-2.970116e+01
4.011452e+02	-2.975188e+01
4.034622e+02	-2.980198e+01
4.057926e+02	-2.985577e+01
4.081365e+02	-2.990115e+01
4.104938e+02	-2.995000e+01
4.128648e+02	-2.999897e+01
4.152495e+02	-3.005029e+01
4.176480e+02	-3.010527e+01
4.200603e+02	-3.014610e+01
4.224866e+02	-3.020130e+01
4.249268e+02	-3.025304e+01
4.273812e+02	-3.030468e+01
4.298497e+02	-3.035288e+01
4.323325e+02	-3.040174e+01
4.348297e+02	-3.045202e+01
4.373412e+02	-3.050224e+01
4.398673e+02	-3.055717e+01
4.424079e+02	-3.059909e+01
4.449633e+02	-3.065519e+01
4.475334e+02	-3.070047e+01
4.501183e+02	-3.075731e+01
4.527182e+02	-3.080150e+01
4.553330e+02	-3.085575e+01
4.579630e+02	-3.090580e+01
4.606082e+02	-3.095279e+01
4.632687e+02	-3.101101e+01
4.659445e+02	-3.105667e+01
4.686358e+02	-3.110735e+01
4.713426e+02	-3.115889e+01
4.740650e+02	-3.120162e+01
4.768032e+02	-3.125957e+01
4.795572e+02	-3.130750e+01
4.823271e+02	-3.135651e+01
4.851130e+02	-3.140749e+01
4.879150e+02	-3.145130e+01
4.907332e+02	-3.150956e+01
4.935676e+02	-3.155762e+01
4.964185e+02	-3.160544e+01
4.992858e+02	-3.166009e+01
5.021696e+02	-3.170332e+01
5.050701e+02	-3.175926e+01
5.079874e+02	-3.181186e+01
5.109215e+02	-3.185506e+01
5.138726e+02	-3.190273e+01
5.168407e+02	-3.195614e+01
5.198259e+02	-3.201246e+01
5.228284e+02	-3.205787e+01
5.258482e+02	-3.210631e+01
5.288855e+02	-3.215657e+01
5.319403e+02	-3.220424e+01
5.350128e+02	-3.226011e+01
5.381030e+02	-3.231113e+01
5.412111e+02	-3.235833e+01
5.443371e+02	-3.240893e+01
5.474812e+02	-3.245711e+01
5.506434e+02	-3.250713e+01
5.538239e+02	-3.256207e+01
5.570228e+02	-3.261102e+01
5.602401e+02	-3.265852e+01
5.634760e+02	-3.271419e+01
5.667306e+02	-3.276096e+01
5.700040e+02	-3.281515e+01
5.732964e+02	-3.285802e+01
5.766077e+02	-3.291296e+01
5.799382e+02	-3.296134e+01
5.832879e+02	-3.301308e+01
5.866569e+02	-3.305613e+01
5.900454e+02	-3.311389e+01
5.934535e+02	-3.315839e+01
5.968813e+02	-3.321242e+01
6.003288e+02	-3.326431e+01
6.037963e+02	-3.331867e+01
6.072838e+02	-3.336648e+01
6.107914e+02	-3.341508e+01
6.143194e+02	-3.346913e+01
6.178676e+02	-3.351683e+01
6.214364e+02	-3.356435e+01
6.250258e+02	-3.362059e+01
6.286359e+02	-3.366951e+01
6.322669e+02	-3.371317e+01
6.359189e+02	-3.376263e+01
6.395919e+02	-3.382122e+01
6.432862e+02	-3.386582e+01
6.470017e+02	-3.391731e+01
6.507388e+02	-3.397379e+01
6.544974e+02	-3.401949e+01
6.582778e+02	-3.407182e+01
6.620800e+02	-3.411272e+01
6.659041e+02	-3.417566e+01
6.697504e+02	-3.422215e+01
6.736188e+02	-3.426089e+01
6.775096e+02	-3.432221e+01
6.814229e+02	-3.436856e+01
6.853587e+02	-3.441953e+01
6.893173e+02	-3.447405e+01
6.932988e+02	-3.452198e+01
6.973033e+02	-3.457377e+01
7.013309e+02	-3.462212e+01
