Frequency(Hz)	Magnitude(dB)
1.000000e+01	-2.029737e+00
1.005776e+01	-2.048384e+00
1.011585e+01	-2.067387e+00
1.017428e+01	-2.086259e+00
1.023305e+01	-2.105456e+00
1.029215e+01	-2.124755e+00
1.035160e+01	-2.144297e+00
1.041139e+01	-2.163620e+00
1.047153e+01	-2.183395e+00
1.053201e+01	-2.203171e+00
1.059284e+01	-2.223397e+00
1.065403e+01	-2.243395e+00
1.071556e+01	-2.263806e+00
1.077746e+01	-2.284206e+00
1.083971e+01	-2.304620e+00
1.090232e+01	-2.325343e+00
1.096529e+01	-2.346201e+00
1.102862e+01	-2.366982e+00
1.109232e+01	-2.388129e+00
1.115639e+01	-2.409297e+00
1.122083e+01	-2.430763e+00
1.128564e+01	-2.452169e+00
1.135083e+01	-2.474013e+00
1.141639e+01	-2.495580e+00
1.148233e+01	-2.517533e+00
1.154865e+01	-2.539802e+00
1.161536e+01	-2.561965e+00
1.168245e+01	-2.584264e+00
1.174992e+01	-2.606679e+00
1.181779e+01	-2.629214e+00
1.188605e+01	-2.652302e+00
1.195470e+01	-2.675032e+00
1.202375e+01	-2.698115e+00
1.209320e+01	-2.721659e+00
1.216305e+01	-2.744742e+00
1.223330e+01	-2.768286e+00
1.230396e+01	-2.792062e+00
1.237503e+01	-2.815584e+00
1.244651e+01	-2.839646e+00
1.251840e+01	-2.863722e+00
1.259070e+01	-2.888120e+00
1.266343e+01	-2.912420e+00
1.273657e+01	-2.936946e+00
1.281014e+01	-2.961461e+00
1.288413e+01	-2.986603e+00
1.295855e+01	-3.011261e+00
1.303339e+01	-3.036486e+00
1.310867e+01	-3.061687e+00
1.318439e+01	-3.086967e+00
1.326054e+01	-3.112545e+00
1.333713e+01	-3.138248e+00
1.341417e+01	-3.163903e+00
1.349165e+01	-3.189931e+00
1.356958e+01	-3.216066e+00
1.364795e+01	-3.242281e+00
1.372678e+01	-3.268905e+00
1.380607e+01	-3.295228e+00
1.388581e+01	-3.322086e+00
1.396602e+01	-3.349049e+00
1.404668e+01	-3.375812e+00
1.412782e+01	-3.402759e+00
1.420942e+01	-3.430005e+00
1.429149e+01	-3.457346e+00
1.437404e+01	-3.484889e+00
1.445706e+01	-3.512796e+00
1.454057e+01	-3.540285e+00
1.462455e+01	-3.568521e+00
1.470902e+01	-3.596344e+00
1.479398e+01	-3.624703e+00
1.487943e+01	-3.653226e+00
1.496537e+01	-3.681852e+00
1.505181e+01	-3.710381e+00
1.513875e+01	-3.739151e+00
1.522619e+01	-3.768022e+00
1.531414e+01	-3.797332e+00
1.540259e+01	-3.826411e+00
1.549156e+01	-3.855685e+00
1.558103e+01	-3.885277e+00
1.567103e+01	-3.914918e+00
1.576155e+01	-3.944631e+00
1.585258e+01	-3.974637e+00
1.594415e+01	-4.004687e+00
1.603624e+01	-4.034905e+00
1.612886e+01	-4.065268e+00
1.622202e+01	-4.095777e+00
1.631572e+01	-4.126112e+00
1.640996e+01	-4.157129e+00
1.650474e+01	-4.187710e+00
1.660008e+01	-4.218761e+00
1.669596e+01	-4.250379e+00
1.679239e+01	-4.281263e+00
1.688938e+01	-4.312612e+00
1.698694e+01	-4.344435e+00
1.708505e+01	-4.376007e+00
1.718373e+01	-4.407641e+00
1.728299e+01	-4.439897e+00
1.738281e+01	-4.471903e+00
1.748322e+01	-4.504370e+00
1.758420e+01	-4.536296e+00
1.768576e+01	-4.568957e+00
1.778792e+01	-4.601449e+00
1.789066e+01	-4.634500e+00
1.799399e+01	-4.667484e+00
1.809793e+01	-4.699978e+00
1.820246e+01	-4.733389e+00
1.830760e+01	-4.766579e+00
1.841334e+01	-4.799985e+00
1.851969e+01	-4.833423e+00
1.862666e+01	-4.867175e+00
1.873425e+01	-4.901057e+00
1.884246e+01	-4.934876e+00
1.895129e+01	-4.969096e+00
1.906075e+01	-5.003344e+00
1.917085e+01	-5.037145e+00
1.928158e+01	-5.071979e+00
1.939295e+01	-5.106126e+00
1.950496e+01	-5.140933e+00
1.961762e+01	-5.175772e+00
1.973093e+01	-5.210593e+00
1.984490e+01	-5.245527e+00
1.995952e+01	-5.280835e+00
2.007480e+01	-5.316042e+00
2.019076e+01	-5.351238e+00
2.030738e+01	-5.387064e+00
2.042467e+01	-5.422691e+00
2.054264e+01	-5.458204e+00
2.066130e+01	-5.494097e+00
2.078064e+01	-5.530214e+00
2.090066e+01	-5.566160e+00
2.102139e+01	-5.602512e+00
2.114280e+01	-5.638370e+00
2.126492e+01	-5.675165e+00
2.138775e+01	-5.711787e+00
2.151128e+01	-5.748172e+00
2.163553e+01	-5.785042e+00
2.176050e+01	-5.821819e+00
2.188619e+01	-5.858759e+00
2.201260e+01	-5.896154e+00
2.213974e+01	-5.933183e+00
2.226762e+01	-5.970984e+00
2.239624e+01	-6.007921e+00
2.252560e+01	-6.045157e+00
2.265571e+01	-6.083112e+00
2.278656e+01	-6.120882e+00
2.291818e+01	-6.158920e+00
2.305055e+01	-6.196566e+00
2.318369e+01	-6.234910e+00
2.331760e+01	-6.273078e+00
2.345228e+01	-6.311708e+00
2.358774e+01	-6.349953e+00
2.372398e+01	-6.388360e+00
2.386101e+01	-6.426640e+00
2.399883e+01	-6.465427e+00
2.413745e+01	-6.504160e+00
2.427686e+01	-6.543115e+00
2.441709e+01	-6.581600e+00
2.455812e+01	-6.621255e+00
2.469997e+01	-6.660288e+00
2.484263e+01	-6.700058e+00
2.498612e+01	-6.739066e+00
2.513044e+01	-6.778137e+00
2.527559e+01	-6.817891e+00
2.542158e+01	-6.857696e+00
2.556842e+01	-6.897183e+00
2.571610e+01	-6.937452e+00
2.586463e+01	-6.977243e+00
2.601403e+01	-7.017514e+00
2.616428e+01	-7.057638e+00
2.631541e+01	-7.097960e+00
2.646740e+01	-7.137822e+00
2.662028e+01	-7.178070e+00
2.677404e+01	-7.218962e+00
2.692868e+01	-7.259596e+00
2.708422e+01	-7.300145e+00
2.724066e+01	-7.340847e+00
2.739800e+01	-7.382078e+00
2.755625e+01	-7.422866e+00
2.771541e+01	-7.463897e+00
2.787550e+01	-7.504798e+00
2.803650e+01	-7.546214e+00
2.819844e+01	-7.586959e+00
2.836131e+01	-7.628557e+00
2.852513e+01	-7.669804e+00
2.868989e+01	-7.711558e+00
2.885560e+01	-7.753570e+00
2.902227e+01	-7.794658e+00
2.918990e+01	-7.836551e+00
2.935850e+01	-7.878131e+00
2.952807e+01	-7.920062e+00
2.969863e+01	-7.962283e+00
2.987016e+01	-8.004365e+00
3.004269e+01	-8.046307e+00
3.021622e+01	-8.088580e+00
3.039075e+01	-8.130836e+00
3.056628e+01	-8.173109e+00
3.074283e+01	-8.215936e+00
3.092040e+01	-8.258163e+00
3.109900e+01	-8.300514e+00
3.127862e+01	-8.343421e+00
3.145929e+01	-8.386013e+00
3.164099e+01	-8.429331e+00
3.182375e+01	-8.471575e+00
3.200756e+01	-8.515058e+00
3.219244e+01	-8.557770e+00
3.237838e+01	-8.600609e+00
3.256540e+01	-8.643948e+00
3.275349e+01	-8.687363e+00
3.294268e+01	-8.730471e+00
3.313295e+01	-8.773870e+00
3.332433e+01	-8.817438e+00
3.351681e+01	-8.860854e+00
3.371040e+01	-8.904491e+00
3.390511e+01	-8.947976e+00
3.410094e+01	-8.991724e+00
3.429791e+01	-9.035501e+00
3.449601e+01	-9.079388e+00
3.469526e+01	-9.122984e+00
3.489566e+01	-9.167534e+00
3.509721e+01	-9.211150e+00
3.529993e+01	-9.255011e+00
3.550382e+01	-9.299328e+00
3.570889e+01	-9.343296e+00
3.591515e+01	-9.387936e+00
3.612259e+01	-9.432045e+00
3.633123e+01	-9.475943e+00
3.654108e+01	-9.520999e+00
3.675214e+01	-9.565311e+00
3.696442e+01	-9.609881e+00
3.717792e+01	-9.654820e+00
3.739266e+01	-9.698969e+00
3.760864e+01	-9.744033e+00
3.782587e+01	-9.788348e+00
3.804435e+01	-9.833138e+00
3.826409e+01	-9.877907e+00
3.848510e+01	-9.923218e+00
3.870739e+01	-9.968043e+00
3.893096e+01	-1.001270e+01
3.915583e+01	-1.005773e+01
3.938199e+01	-1.010311e+01
3.960946e+01	-1.014779e+01
3.983824e+01	-1.019305e+01
4.006834e+01	-1.023886e+01
4.029978e+01	-1.028444e+01
4.053255e+01	-1.033005e+01
4.076666e+01	-1.037447e+01
4.100213e+01	-1.042041e+01
4.123896e+01	-1.046621e+01
4.147715e+01	-1.051152e+01
4.171672e+01	-1.055730e+01
4.195767e+01	-1.060229e+01
4.220002e+01	-1.064855e+01
4.244377e+01	-1.069413e+01
4.268892e+01	-1.073968e+01
4.293549e+01	-1.078566e+01
4.318348e+01	-1.083148e+01
4.343291e+01	-1.087776e+01
4.368377e+01	-1.092358e+01
4.393609e+01	-1.096965e+01
4.418986e+01	-1.101556e+01
4.444510e+01	-1.106177e+01
4.470182e+01	-1.110750e+01
4.496001e+01	-1.115413e+01
4.521970e+01	-1.119977e+01
4.548089e+01	-1.124644e+01
4.574358e+01	-1.129204e+01
4.600779e+01	-1.133928e+01
4.627353e+01	-1.138537e+01
4.654081e+01	-1.143168e+01
4.680963e+01	-1.147773e+01
4.708000e+01	-1.152513e+01
4.735193e+01	-1.157166e+01
4.762543e+01	-1.161779e+01
4.790051e+01	-1.166422e+01
4.817719e+01	-1.171061e+01
4.845545e+01	-1.175772e+01
4.873533e+01	-1.180436e+01
4.901682e+01	-1.185128e+01
4.929994e+01	-1.189835e+01
4.958470e+01	-1.194457e+01
4.987110e+01	-1.199092e+01
5.015915e+01	-1.203866e+01
5.044887e+01	-1.208459e+01
5.074026e+01	-1.213243e+01
5.103333e+01	-1.218017e+01
5.132810e+01	-1.222639e+01
5.162457e+01	-1.227304e+01
5.192275e+01	-1.232040e+01
5.222265e+01	-1.236740e+01
5.252429e+01	-1.241466e+01
5.282767e+01	-1.246193e+01
5.313280e+01	-1.250878e+01
5.343969e+01	-1.255608e+01
5.374836e+01	-1.260370e+01
5.405880e+01	-1.265099e+01
5.437105e+01	-1.269832e+01
5.468509e+01	-1.274534e+01
5.500095e+01	-1.279255e+01
5.531863e+01	-1.284122e+01
5.563815e+01	-1.288756e+01
5.595951e+01	-1.293539e+01
5.628273e+01	-1.298303e+01
5.660782e+01	-1.303072e+01
5.693479e+01	-1.307766e+01
5.726364e+01	-1.312533e+01
5.759439e+01	-1.317280e+01
5.792705e+01	-1.321989e+01
5.826164e+01	-1.326813e+01
5.859815e+01	-1.331603e+01
5.893662e+01	-1.336350e+01
5.927703e+01	-1.341113e+01
5.961941e+01	-1.345937e+01
5.996377e+01	-1.350652e+01
6.031012e+01	-1.355479e+01
6.065847e+01	-1.360240e+01
6.100883e+01	-1.365094e+01
6.136121e+01	-1.369917e+01
6.171563e+01	-1.374626e+01
6.207210e+01	-1.379385e+01
6.243063e+01	-1.384190e+01
6.279122e+01	-1.388994e+01
6.315390e+01	-1.393838e+01
6.351868e+01	-1.398699e+01
6.388556e+01	-1.403441e+01
6.425456e+01	-1.408187e+01
6.462569e+01	-1.413061e+01
6.499897e+01	-1.417842e+01
6.537440e+01	-1.422683e+01
6.575200e+01	-1.427483e+01
6.613178e+01	-1.432298e+01
6.651375e+01	-1.437198e+01
6.689793e+01	-1.441984e+01
6.728433e+01	-1.446758e+01
6.767297e+01	-1.451671e+01
6.806384e+01	-1.456492e+01
6.845698e+01	-1.461238e+01
6.885238e+01	-1.465956e+01
6.925007e+01	-1.470879e+01
6.965005e+01	-1.475715e+01
7.005235e+01	-1.480579e+01
7.045697e+01	-1.485414e+01
7.086393e+01	-1.490285e+01
7.127323e+01	-1.495036e+01
7.168490e+01	-1.499883e+01
7.209895e+01	-1.504780e+01
7.251539e+01	-1.509609e+01
7.293424e+01	-1.514472e+01
7.335551e+01	-1.519354e+01
7.377920e+01	-1.524121e+01
7.420535e+01	-1.529040e+01
7.463396e+01	-1.533865e+01
7.506504e+01	-1.538850e+01
7.549861e+01	-1.543654e+01
7.593469e+01	-1.548400e+01
7.637328e+01	-1.553230e+01
7.681441e+01	-1.558023e+01
7.725809e+01	-1.563087e+01
7.770433e+01	-1.567906e+01
7.815315e+01	-1.572804e+01
7.860456e+01	-1.577692e+01
7.905857e+01	-1.582605e+01
7.951521e+01	-1.587375e+01
7.997449e+01	-1.592238e+01
8.043642e+01	-1.597141e+01
8.090102e+01	-1.602032e+01
8.136830e+01	-1.607016e+01
8.183828e+01	-1.611862e+01
8.231097e+01	-1.616698e+01
8.278640e+01	-1.621489e+01
8.326457e+01	-1.626366e+01
8.374550e+01	-1.631379e+01
8.422921e+01	-1.636322e+01
8.471572e+01	-1.641063e+01
8.520503e+01	-1.645979e+01
8.569717e+01	-1.650914e+01
8.619215e+01	-1.655754e+01
8.669000e+01	-1.660668e+01
8.719071e+01	-1.665571e+01
8.769432e+01	-1.670514e+01
8.820084e+01	-1.675445e+01
8.871029e+01	-1.680240e+01
8.922267e+01	-1.685148e+01
8.973802e+01	-1.690040e+01
9.025634e+01	-1.694860e+01
9.077766e+01	-1.699903e+01
9.130199e+01	-1.704766e+01
9.182935e+01	-1.709676e+01
9.235975e+01	-1.714656e+01
9.289321e+01	-1.719539e+01
9.342976e+01	-1.724359e+01
9.396941e+01	-1.729239e+01
9.451217e+01	-1.734257e+01
9.505807e+01	-1.739140e+01
9.560712e+01	-1.744011e+01
9.615934e+01	-1.748801e+01
9.671476e+01	-1.753793e+01
9.727338e+01	-1.758741e+01
9.783522e+01	-1.763666e+01
9.840032e+01	-1.768654e+01
9.896867e+01	-1.773514e+01
9.954031e+01	-1.778400e+01
1.001153e+02	-1.783441e+01
1.006935e+02	-1.788239e+01
1.012751e+02	-1.793192e+01
1.018601e+02	-1.798137e+01
1.024484e+02	-1.803060e+01
1.030402e+02	-1.807989e+01
1.036353e+02	-1.812900e+01
1.042339e+02	-1.817835e+01
1.048360e+02	-1.822807e+01
1.054415e+02	-1.827638e+01
1.060505e+02	-1.832715e+01
1.066631e+02	-1.837478e+01
1.072791e+02	-1.842611e+01
1.078988e+02	-1.847234e+01
1.085220e+02	-1.852366e+01
1.091488e+02	-1.857212e+01
1.097793e+02	-1.862139e+01
1.104133e+02	-1.867177e+01
1.110511e+02	-1.872115e+01
1.116925e+02	-1.877067e+01
1.123376e+02	-1.882001e+01
1.129865e+02	-1.886852e+01
1.136391e+02	-1.891735e+01
1.142955e+02	-1.896616e+01
1.149556e+02	-1.901731e+01
1.156196e+02	-1.906717e+01
1.162874e+02	-1.911502e+01
1.169591e+02	-1.916633e+01
1.176347e+02	-1.921471e+01
1.183141e+02	-1.926291e+01
1.189975e+02	-1.931463e+01
1.196848e+02	-1.936335e+01
1.203761e+02	-1.941299e+01
1.210714e+02	-1.946099e+01
1.217707e+02	-1.951247e+01
1.224740e+02	-1.955987e+01
1.231814e+02	-1.960951e+01
1.238929e+02	-1.965870e+01
1.246085e+02	-1.970832e+01
1.253283e+02	-1.975858e+01
1.260522e+02	-1.980851e+01
1.267802e+02	-1.985704e+01
1.275125e+02	-1.990694e+01
1.282490e+02	-1.995732e+01
1.289898e+02	-2.000626e+01
1.297348e+02	-2.005598e+01
1.304842e+02	-2.010625e+01
1.312378e+02	-2.015585e+01
1.319959e+02	-2.020443e+01
1.327583e+02	-2.025379e+01
1.335251e+02	-2.030387e+01
1.342963e+02	-2.035309e+01
1.350720e+02	-2.040443e+01
1.358522e+02	-2.045321e+01
1.366368e+02	-2.050274e+01
1.374260e+02	-2.055394e+01
1.382198e+02	-2.060019e+01
1.390182e+02	-2.065049e+01
1.398211e+02	-2.070064e+01
1.406287e+02	-2.075089e+01
1.414410e+02	-2.080013e+01
1.422579e+02	-2.084904e+01
1.430796e+02	-2.089837e+01
1.439060e+02	-2.094894e+01
1.447372e+02	-2.099860e+01
1.455732e+02	-2.104942e+01
1.464141e+02	-2.109895e+01
1.472597e+02	-2.114744e+01
1.481103e+02	-2.119643e+01
1.489658e+02	-2.124690e+01
1.498262e+02	-2.129593e+01
1.506916e+02	-2.134412e+01
1.515620e+02	-2.139695e+01
1.524374e+02	-2.144524e+01
1.533179e+02	-2.149443e+01
1.542034e+02	-2.154335e+01
1.550941e+02	-2.159565e+01
1.559899e+02	-2.164456e+01
1.568909e+02	-2.169309e+01
1.577971e+02	-2.174395e+01
1.587085e+02	-2.179313e+01
1.596252e+02	-2.184385e+01
1.605472e+02	-2.189472e+01
1.614745e+02	-2.194003e+01
1.624072e+02	-2.199240e+01
1.633453e+02	-2.204094e+01
1.642887e+02	-2.209281e+01
1.652377e+02	-2.214235e+01
1.661921e+02	-2.218944e+01
1.671520e+02	-2.224050e+01
1.681175e+02	-2.229113e+01
1.690885e+02	-2.234125e+01
1.700651e+02	-2.239258e+01
1.710474e+02	-2.244149e+01
1.720354e+02	-2.248884e+01
1.730291e+02	-2.253868e+01
1.740285e+02	-2.258748e+01
1.750337e+02	-2.264082e+01
1.760446e+02	-2.268936e+01
1.770615e+02	-2.273929e+01
1.780842e+02	-2.279029e+01
1.791128e+02	-2.283840e+01
1.801473e+02	-2.288831e+01
1.811878e+02	-2.293929e+01
1.822344e+02	-2.298617e+01
1.832870e+02	-2.303504e+01
1.843456e+02	-2.308849e+01
1.854104e+02	-2.313631e+01
1.864813e+02	-2.318729e+01
1.875584e+02	-2.323749e+01
1.886418e+02	-2.328632e+01
1.897313e+02	-2.333748e+01
1.908272e+02	-2.338609e+01
1.919294e+02	-2.343452e+01
1.930380e+02	-2.348621e+01
1.941530e+02	-2.353386e+01
1.952744e+02	-2.358571e+01
1.964023e+02	-2.363554e+01
1.975367e+02	-2.368590e+01
1.986777e+02	-2.373493e+01
1.998252e+02	-2.378332e+01
2.009794e+02	-2.383628e+01
2.021403e+02	-2.388587e+01
2.033078e+02	-2.393514e+01
2.044821e+02	-2.398440e+01
2.056632e+02	-2.403507e+01
2.068511e+02	-2.408597e+01
2.080459e+02	-2.413204e+01
2.092475e+02	-2.418397e+01
2.104561e+02	-2.423165e+01
2.116717e+02	-2.428268e+01
2.128943e+02	-2.433377e+01
2.141240e+02	-2.438625e+01
2.153608e+02	-2.443026e+01
2.166047e+02	-2.448301e+01
2.178558e+02	-2.453105e+01
2.191141e+02	-2.458172e+01
2.203797e+02	-2.463384e+01
2.216526e+02	-2.468306e+01
2.229329e+02	-2.473075e+01
2.242205e+02	-2.478457e+01
2.255156e+02	-2.483365e+01
2.268182e+02	-2.488261e+01
2.281283e+02	-2.492994e+01
2.294459e+02	-2.498108e+01
2.307712e+02	-2.503203e+01
2.321041e+02	-2.508205e+01
2.334447e+02	-2.513079e+01
2.347931e+02	-2.518201e+01
2.361493e+02	-2.522994e+01
2.375133e+02	-2.528043e+01
2.388851e+02	-2.533339e+01
2.402649e+02	-2.538046e+01
2.416527e+02	-2.543152e+01
2.430484e+02	-2.547862e+01
2.444523e+02	-2.553036e+01
2.458642e+02	-2.557948e+01
2.472843e+02	-2.563167e+01
2.487126e+02	-2.567986e+01
2.501492e+02	-2.572946e+01
2.515940e+02	-2.578267e+01
2.530472e+02	-2.583352e+01
2.545088e+02	-2.587996e+01
2.559789e+02	-2.593213e+01
2.574574e+02	-2.597676e+01
2.589444e+02	-2.603098e+01
2.604401e+02	-2.607711e+01
2.619444e+02	-2.612667e+01
2.634574e+02	-2.617856e+01
2.649791e+02	-2.622938e+01
2.665096e+02	-2.627970e+01
2.680489e+02	-2.632903e+01
2.695972e+02	-2.637776e+01
2.711544e+02	-2.642975e+01
2.727205e+02	-2.647826e+01
2.742958e+02	-2.653332e+01
2.758801e+02	-2.658001e+01
2.774736e+02	-2.663140e+01
2.790762e+02	-2.667899e+01
2.806882e+02	-2.672907e+01
2.823094e+02	-2.677838e+01
2.839400e+02	-2.682979e+01
2.855800e+02	-2.688113e+01
2.872295e+02	-2.693040e+01
2.888886e+02	-2.698134e+01
2.905572e+02	-2.703293e+01
2.922354e+02	-2.708017e+01
2.939234e+02	-2.712991e+01
2.956211e+02	-2.718348e+01
2.973286e+02	-2.723048e+01
2.990459e+02	-2.728110e+01
3.007732e+02	-2.732693e+01
3.025104e+02	-2.738004e+01
3.042577e+02	-2.743011e+01
3.060151e+02	-2.747793e+01
3.077826e+02	-2.752677e+01
3.095604e+02	-2.757679e+01
3.113484e+02	-2.762844e+01
3.131467e+02	-2.767782e+01
3.149554e+02	-2.772984e+01
3.167746e+02	-2.777931e+01
3.186043e+02	-2.782525e+01
3.204445e+02	-2.787904e+01
3.222954e+02	-2.792940e+01
3.241570e+02	-2.797943e+01
3.260293e+02	-2.802758e+01
3.279124e+02	-2.808065e+01
3.298064e+02	-2.812996e+01
3.317114e+02	-2.818295e+01
3.336273e+02	-2.822972e+01
3.355544e+02	-2.827638e+01
3.374925e+02	-2.833283e+01
3.394418e+02	-2.837756e+01
3.414024e+02	-2.842779e+01
3.433744e+02	-2.848149e+01
3.453577e+02	-2.852989e+01
3.473525e+02	-2.857965e+01
3.493588e+02	-2.863693e+01
3.513766e+02	-2.867602e+01
3.534062e+02	-2.872913e+01
3.554474e+02	-2.877631e+01
3.575005e+02	-2.883169e+01
3.595654e+02	-2.888562e+01
3.616422e+02	-2.893320e+01
3.637311e+02	-2.898426e+01
3.658320e+02	-2.903723e+01
3.679450e+02	-2.907934e+01
3.700702e+02	-2.913186e+01
3.722077e+02	-2.918319e+01
3.743576e+02	-2.923497e+01
3.765199e+02	-2.928186e+01
3.786946e+02	-2.933061e+01
3.808820e+02	-2.938039e+01
3.830819e+02	-2.943174e+01
3.852946e+02	-2.948058e+01
3.875200e+02	-2.953266e+01
3.897583e+02	-2.957972e+01
3.920096e+02	-2.963089e+01
3.942738e+02	-2.967965e+01
3.965511e+02	-2.973341e+01
3.988416e+02	-2.978305e+01
4.011452e+02	-2.983092e+01
4.034622e+02	-2.988354e+01
4.057926e+02	-2.992984e+01
4.081365e+02	-2.997954e+01
4.104938e+02	-3.003209e+01
4.128648e+02	-3.007863e+01
4.152495e+02	-3.013229e+01
4.176480e+02	-3.017709e+01
4.200603e+02	-3.022989e+01
4.224866e+02	-3.028171e+01
4.249268e+02	-3.033509e+01
4.273812e+02	-3.038575e+01
4.298497e+02	-3.043672e+01
4.323325e+02	-3.048093e+01
4.348297e+02	-3.053805e+01
4.373412e+02	-3.058104e+01
4.398673e+02	-3.063765e+01
4.424079e+02	-3.068419e+01
4.449633e+02	-3.073289e+01
4.475334e+02	-3.078483e+01
4.501183e+02	-3.083714e+01
4.527182e+02	-3.088582e+01
4.553330e+02	-3.093992e+01
4.579630e+02	-3.098564e+01
4.606082e+02	-3.103954e+01
4.632687e+02	-3.108698e+01
4.659445e+02	-3.113843e+01
4.686358e+02	-3.118196e+01
4.713426e+02	-3.123792e+01
4.740650e+02	-3.128005e+01
4.768032e+02	-3.133756e+01
4.795572e+02	-3.139480e+01
4.823271e+02	-3.143524e+01
4.851130e+02	-3.147668e+01
4.879150e+02	-3.154046e+01
4.907332e+02	-3.159357e+01
4.935676e+02	-3.163805e+01
4.964185e+02	-3.169240e+01
4.992858e+02	-3.173790e+01
5.021696e+02	-3.179148e+01
5.050701e+02	-3.183415e+01
5.079874e+02	-3.188982e+01
5.109215e+02	-3.194026e+01
5.138726e+02	-3.198046e+01
5.168407e+02	-3.203448e+01
5.198259e+02	-3.208981e+01
5.228284e+02	-3.214210e+01
5.258482e+02	-3.218840e+01
5.288855e+02	-3.223963e+01
5.319403e+02	-3.229720e+01
5.350128e+02	-3.233845e+01
5.381030e+02	-3.239290e+01
5.412111e+02	-3.243595e+01
5.443371e+02	-3.248844e+01
5.474812e+02	-3.254032e+01
5.506434e+02	-3.259684e+01
5.538239e+02	-3.263928e+01
5.570228e+02	-3.269144e+01
5.602401e+02	-3.274283e+01
5.634760e+02	-3.279440e+01
5.667306e+02	-3.284726e+01
5.700040e+02	-3.288945e+01
5.732964e+02	-3.294109e+01
5.766077e+02	-3.298887e+01
5.799382e+02	-3.304121e+01
5.832879e+02	-3.309770e+01
5.866569e+02	-3.314418e+01
5.900454e+02	-3.318943e+01
5.934535e+02	-3.324034e+01
5.968813e+02	-3.329698e+01
6.003288e+02	-3.334435e+01
6.037963e+02	-3.340020e+01
6.072838e+02	-3.344587e+01
6.107914e+02	-3.349841e+01
6.143194e+02	-3.354713e+01
6.178676e+02	-3.359410e+01
6.214364e+02	-3.364273e+01
6.250258e+02	-3.369781e+01
6.286359e+02	-3.374756e+01
6.322669e+02	-3.380142e+01
6.359189e+02	-3.384547e+01
6.395919e+02	-3.390023e+01
6.432862e+02	-3.394390e+01
6.470017e+02	-3.400343e+01
6.507388e+02	-3.404638e+01
6.544974e+02	-3.410246e+01
6.582778e+02	-3.414815e+01
6.620800e+02	-3.419618e+01
6.659041e+02	-3.424926e+01
6.697504e+02	-3.430059e+01
6.736188e+02	-3.435076e+01
6.775096e+02	-3.439579e+01
6.814229e+02	-3.445213e+01
6.853587e+02	-3.450708e+01
6.893173e+02	-3.455317e+01
6.932988e+02	-3.460786e+01
6.973033e+02	-3.465373e+01
7.013309e+02	-3.469823e+01
