Frequency(Hz)	Magnitude(dB)
1.000000e+01	-2.075017e+00
1.005776e+01	-2.093836e+00
1.011585e+01	-2.113061e+00
1.017428e+01	-2.132456e+00
1.023305e+01	-2.152078e+00
1.029215e+01	-2.171590e+00
1.035160e+01	-2.191377e+00
1.041139e+01	-2.211261e+00
1.047153e+01	-2.231378e+00
1.053201e+01	-2.251368e+00
1.059284e+01	-2.271732e+00
1.065403e+01	-2.292151e+00
1.071556e+01	-2.312823e+00
1.077746e+01	-2.333456e+00
1.083971e+01	-2.354267e+00
1.090232e+01	-2.375164e+00
1.096529e+01	-2.396686e+00
1.102862e+01	-2.417821e+00
1.109232e+01	-2.439234e+00
1.115639e+01	-2.460962e+00
1.122083e+01	-2.482471e+00
1.128564e+01	-2.504281e+00
1.135083e+01	-2.526170e+00
1.141639e+01	-2.548496e+00
1.148233e+01	-2.570911e+00
1.154865e+01	-2.593091e+00
1.161536e+01	-2.615726e+00
1.168245e+01	-2.638647e+00
1.174992e+01	-2.661385e+00
1.181779e+01	-2.684456e+00
1.188605e+01	-2.707486e+00
1.195470e+01	-2.730553e+00
1.202375e+01	-2.754012e+00
1.209320e+01	-2.777797e+00
1.216305e+01	-2.801443e+00
1.223330e+01	-2.825148e+00
1.230396e+01	-2.849264e+00
1.237503e+01	-2.873283e+00
1.244651e+01	-2.897685e+00
1.251840e+01	-2.921977e+00
1.259070e+01	-2.946820e+00
1.266343e+01	-2.971254e+00
1.273657e+01	-2.996147e+00
1.281014e+01	-3.021243e+00
1.288413e+01	-3.046353e+00
1.295855e+01	-3.071657e+00
1.303339e+01	-3.097178e+00
1.310867e+01	-3.122530e+00
1.318439e+01	-3.148550e+00
1.326054e+01	-3.174439e+00
1.333713e+01	-3.200402e+00
1.341417e+01	-3.226344e+00
1.349165e+01	-3.252836e+00
1.356958e+01	-3.279113e+00
1.364795e+01	-3.305790e+00
1.372678e+01	-3.332452e+00
1.380607e+01	-3.359353e+00
1.388581e+01	-3.386431e+00
1.396602e+01	-3.413567e+00
1.404668e+01	-3.440883e+00
1.412782e+01	-3.468386e+00
1.420942e+01	-3.495934e+00
1.429149e+01	-3.523493e+00
1.437404e+01	-3.551396e+00
1.445706e+01	-3.579501e+00
1.454057e+01	-3.607501e+00
1.462455e+01	-3.635940e+00
1.470902e+01	-3.664478e+00
1.479398e+01	-3.692925e+00
1.487943e+01	-3.721818e+00
1.496537e+01	-3.750478e+00
1.505181e+01	-3.779526e+00
1.513875e+01	-3.808410e+00
1.522619e+01	-3.838028e+00
1.531414e+01	-3.867517e+00
1.540259e+01	-3.896791e+00
1.549156e+01	-3.926642e+00
1.558103e+01	-3.956590e+00
1.567103e+01	-3.986772e+00
1.576155e+01	-4.016473e+00
1.585258e+01	-4.046904e+00
1.594415e+01	-4.077196e+00
1.603624e+01	-4.107993e+00
1.612886e+01	-4.138412e+00
1.622202e+01	-4.169125e+00
1.631572e+01	-4.200369e+00
1.640996e+01	-4.231469e+00
1.650474e+01	-4.262484e+00
1.660008e+01	-4.293815e+00
1.669596e+01	-4.325362e+00
1.679239e+01	-4.356987e+00
1.688938e+01	-4.388741e+00
1.698694e+01	-4.420703e+00
1.708505e+01	-4.452673e+00
1.718373e+01	-4.484728e+00
1.728299e+01	-4.516861e+00
1.738281e+01	-4.549669e+00
1.748322e+01	-4.582101e+00
1.758420e+01	-4.614431e+00
1.768576e+01	-4.647360e+00
1.778792e+01	-4.680530e+00
1.789066e+01	-4.713581e+00
1.799399e+01	-4.746626e+00
1.809793e+01	-4.780029e+00
1.820246e+01	-4.813003e+00
1.830760e+01	-4.847054e+00
1.841334e+01	-4.880866e+00
1.851969e+01	-4.914034e+00
1.862666e+01	-4.948441e+00
1.873425e+01	-4.982487e+00
1.884246e+01	-5.016949e+00
1.895129e+01	-5.050896e+00
1.906075e+01	-5.085756e+00
1.917085e+01	-5.120474e+00
1.928158e+01	-5.154659e+00
1.939295e+01	-5.189493e+00
1.950496e+01	-5.224499e+00
1.961762e+01	-5.259699e+00
1.973093e+01	-5.294577e+00
1.984490e+01	-5.330122e+00
1.995952e+01	-5.365774e+00
2.007480e+01	-5.400868e+00
2.019076e+01	-5.436863e+00
2.030738e+01	-5.472579e+00
2.042467e+01	-5.508093e+00
2.054264e+01	-5.544406e+00
2.066130e+01	-5.580538e+00
2.078064e+01	-5.616618e+00
2.090066e+01	-5.653352e+00
2.102139e+01	-5.689601e+00
2.114280e+01	-5.726578e+00
2.126492e+01	-5.762812e+00
2.138775e+01	-5.799794e+00
2.151128e+01	-5.836346e+00
2.163553e+01	-5.873671e+00
2.176050e+01	-5.910672e+00
2.188619e+01	-5.948026e+00
2.201260e+01	-5.985555e+00
2.213974e+01	-6.023148e+00
2.226762e+01	-6.060153e+00
2.239624e+01	-6.097933e+00
2.252560e+01	-6.135799e+00
2.265571e+01	-6.174005e+00
2.278656e+01	-6.211695e+00
2.291818e+01	-6.250405e+00
2.305055e+01	-6.288160e+00
2.318369e+01	-6.326302e+00
2.331760e+01	-6.364774e+00
2.345228e+01	-6.403133e+00
2.358774e+01	-6.442172e+00
2.372398e+01	-6.480768e+00
2.386101e+01	-6.519608e+00
2.399883e+01	-6.558361e+00
2.413745e+01	-6.597341e+00
2.427686e+01	-6.636412e+00
2.441709e+01	-6.675987e+00
2.455812e+01	-6.715335e+00
2.469997e+01	-6.754550e+00
2.484263e+01	-6.794359e+00
2.498612e+01	-6.833710e+00
2.513044e+01	-6.873404e+00
2.527559e+01	-6.913184e+00
2.542158e+01	-6.953291e+00
2.556842e+01	-6.993292e+00
2.571610e+01	-7.033580e+00
2.586463e+01	-7.073543e+00
2.601403e+01	-7.113621e+00
2.616428e+01	-7.154041e+00
2.631541e+01	-7.194506e+00
2.646740e+01	-7.234843e+00
2.662028e+01	-7.275552e+00
2.677404e+01	-7.316161e+00
2.692868e+01	-7.356917e+00
2.708422e+01	-7.397910e+00
2.724066e+01	-7.438696e+00
2.739800e+01	-7.480016e+00
2.755625e+01	-7.520558e+00
2.771541e+01	-7.562359e+00
2.787550e+01	-7.603746e+00
2.803650e+01	-7.644940e+00
2.819844e+01	-7.686458e+00
2.836131e+01	-7.727702e+00
2.852513e+01	-7.769659e+00
2.868989e+01	-7.811419e+00
2.885560e+01	-7.852962e+00
2.902227e+01	-7.895354e+00
2.918990e+01	-7.936811e+00
2.935850e+01	-7.978692e+00
2.952807e+01	-8.021219e+00
2.969863e+01	-8.062922e+00
2.987016e+01	-8.105943e+00
3.004269e+01	-8.147675e+00
3.021622e+01	-8.190350e+00
3.039075e+01	-8.232837e+00
3.056628e+01	-8.275545e+00
3.074283e+01	-8.318251e+00
3.092040e+01	-8.360751e+00
3.109900e+01	-8.403020e+00
3.127862e+01	-8.446288e+00
3.145929e+01	-8.488810e+00
3.164099e+01	-8.532148e+00
3.182375e+01	-8.574854e+00
3.200756e+01	-8.617888e+00
3.219244e+01	-8.661279e+00
3.237838e+01	-8.704737e+00
3.256540e+01	-8.747844e+00
3.275349e+01	-8.791419e+00
3.294268e+01	-8.834844e+00
3.313295e+01	-8.878528e+00
3.332433e+01	-8.922138e+00
3.351681e+01	-8.965914e+00
3.371040e+01	-9.009060e+00
3.390511e+01	-9.053296e+00
3.410094e+01	-9.096792e+00
3.429791e+01	-9.140400e+00
3.449601e+01	-9.184763e+00
3.469526e+01	-9.228640e+00
3.489566e+01	-9.272658e+00
3.509721e+01	-9.316750e+00
3.529993e+01	-9.361115e+00
3.550382e+01	-9.405388e+00
3.570889e+01	-9.449490e+00
3.591515e+01	-9.494003e+00
3.612259e+01	-9.538647e+00
3.633123e+01	-9.582438e+00
3.654108e+01	-9.627629e+00
3.675214e+01	-9.671881e+00
3.696442e+01	-9.716348e+00
3.717792e+01	-9.761900e+00
3.739266e+01	-9.806298e+00
3.760864e+01	-9.850931e+00
3.782587e+01	-9.895803e+00
3.804435e+01	-9.941311e+00
3.826409e+01	-9.985614e+00
3.848510e+01	-1.003101e+01
3.870739e+01	-1.007579e+01
3.893096e+01	-1.012123e+01
3.915583e+01	-1.016653e+01
3.938199e+01	-1.021178e+01
3.960946e+01	-1.025699e+01
3.983824e+01	-1.030209e+01
4.006834e+01	-1.034762e+01
4.029978e+01	-1.039243e+01
4.053255e+01	-1.043819e+01
4.076666e+01	-1.048420e+01
4.100213e+01	-1.052954e+01
4.123896e+01	-1.057574e+01
4.147715e+01	-1.062072e+01
4.171672e+01	-1.066659e+01
4.195767e+01	-1.071261e+01
4.220002e+01	-1.075837e+01
4.244377e+01	-1.080398e+01
4.268892e+01	-1.084992e+01
4.293549e+01	-1.089542e+01
4.318348e+01	-1.094199e+01
4.343291e+01	-1.098766e+01
4.368377e+01	-1.103419e+01
4.393609e+01	-1.107976e+01
4.418986e+01	-1.112642e+01
4.444510e+01	-1.117220e+01
4.470182e+01	-1.121825e+01
4.496001e+01	-1.126484e+01
4.521970e+01	-1.131113e+01
4.548089e+01	-1.135696e+01
4.574358e+01	-1.140367e+01
4.600779e+01	-1.145044e+01
4.627353e+01	-1.149711e+01
4.654081e+01	-1.154329e+01
4.680963e+01	-1.158979e+01
4.708000e+01	-1.163643e+01
4.735193e+01	-1.168291e+01
4.762543e+01	-1.172944e+01
4.790051e+01	-1.177612e+01
4.817719e+01	-1.182269e+01
4.845545e+01	-1.187001e+01
4.873533e+01	-1.191668e+01
4.901682e+01	-1.196319e+01
4.929994e+01	-1.200976e+01
4.958470e+01	-1.205758e+01
4.987110e+01	-1.210430e+01
5.015915e+01	-1.215107e+01
5.044887e+01	-1.219771e+01
5.074026e+01	-1.224492e+01
5.103333e+01	-1.229190e+01
5.132810e+01	-1.233940e+01
5.162457e+01	-1.238669e+01
5.192275e+01	-1.243374e+01
5.222265e+01	-1.248042e+01
5.252429e+01	-1.252811e+01
5.282767e+01	-1.257555e+01
5.313280e+01	-1.262264e+01
5.343969e+01	-1.266977e+01
5.374836e+01	-1.271707e+01
5.405880e+01	-1.276436e+01
5.437105e+01	-1.281141e+01
5.468509e+01	-1.285980e+01
5.500095e+01	-1.290688e+01
5.531863e+01	-1.295445e+01
5.563815e+01	-1.300167e+01
5.595951e+01	-1.304928e+01
5.628273e+01	-1.309640e+01
5.660782e+01	-1.314440e+01
5.693479e+01	-1.319176e+01
5.726364e+01	-1.323883e+01
5.759439e+01	-1.328683e+01
5.792705e+01	-1.333479e+01
5.826164e+01	-1.338289e+01
5.859815e+01	-1.343003e+01
5.893662e+01	-1.347812e+01
5.927703e+01	-1.352602e+01
5.961941e+01	-1.357344e+01
5.996377e+01	-1.362282e+01
6.031012e+01	-1.366931e+01
6.065847e+01	-1.371760e+01
6.100883e+01	-1.376509e+01
6.136121e+01	-1.381354e+01
6.171563e+01	-1.386076e+01
6.207210e+01	-1.390867e+01
6.243063e+01	-1.395689e+01
6.279122e+01	-1.400519e+01
6.315390e+01	-1.405371e+01
6.351868e+01	-1.410098e+01
6.388556e+01	-1.414949e+01
6.425456e+01	-1.419735e+01
6.462569e+01	-1.424511e+01
6.499897e+01	-1.429395e+01
6.537440e+01	-1.434229e+01
6.575200e+01	-1.438943e+01
6.613178e+01	-1.443784e+01
6.651375e+01	-1.448647e+01
6.689793e+01	-1.453539e+01
6.728433e+01	-1.458266e+01
6.767297e+01	-1.463189e+01
6.806384e+01	-1.467945e+01
6.845698e+01	-1.472861e+01
6.885238e+01	-1.477688e+01
6.925007e+01	-1.482493e+01
6.965005e+01	-1.487349e+01
7.005235e+01	-1.492131e+01
7.045697e+01	-1.497062e+01
7.086393e+01	-1.501862e+01
7.127323e+01	-1.506713e+01
7.168490e+01	-1.511605e+01
7.209895e+01	-1.516359e+01
7.251539e+01	-1.521257e+01
7.293424e+01	-1.526173e+01
7.335551e+01	-1.530970e+01
7.377920e+01	-1.535822e+01
7.420535e+01	-1.540671e+01
7.463396e+01	-1.545592e+01
7.506504e+01	-1.550383e+01
7.549861e+01	-1.555310e+01
7.593469e+01	-1.560169e+01
7.637328e+01	-1.564942e+01
7.681441e+01	-1.569905e+01
7.725809e+01	-1.574795e+01
7.770433e+01	-1.579633e+01
7.815315e+01	-1.584479e+01
7.860456e+01	-1.589271e+01
7.905857e+01	-1.594267e+01
7.951521e+01	-1.599142e+01
7.997449e+01	-1.604039e+01
8.043642e+01	-1.608894e+01
8.090102e+01	-1.613754e+01
8.136830e+01	-1.618589e+01
8.183828e+01	-1.623514e+01
8.231097e+01	-1.628366e+01
8.278640e+01	-1.633252e+01
8.326457e+01	-1.638091e+01
8.374550e+01	-1.643082e+01
8.422921e+01	-1.647852e+01
8.471572e+01	-1.652756e+01
8.520503e+01	-1.657773e+01
8.569717e+01	-1.662630e+01
8.619215e+01	-1.667568e+01
8.669000e+01	-1.672361e+01
8.719071e+01	-1.677372e+01
8.769432e+01	-1.682187e+01
8.820084e+01	-1.687099e+01
8.871029e+01	-1.692052e+01
8.922267e+01	-1.696935e+01
8.973802e+01	-1.701811e+01
9.025634e+01	-1.706706e+01
9.077766e+01	-1.711638e+01
9.130199e+01	-1.716658e+01
9.182935e+01	-1.721490e+01
9.235975e+01	-1.726246e+01
9.289321e+01	-1.731290e+01
9.342976e+01	-1.736174e+01
9.396941e+01	-1.741053e+01
9.451217e+01	-1.745982e+01
9.505807e+01	-1.750962e+01
9.560712e+01	-1.755792e+01
9.615934e+01	-1.760810e+01
9.671476e+01	-1.765697e+01
9.727338e+01	-1.770566e+01
9.783522e+01	-1.775436e+01
9.840032e+01	-1.780400e+01
9.896867e+01	-1.785442e+01
9.954031e+01	-1.790116e+01
1.001153e+02	-1.795244e+01
1.006935e+02	-1.799981e+01
1.012751e+02	-1.804973e+01
1.018601e+02	-1.809954e+01
1.024484e+02	-1.814951e+01
1.030402e+02	-1.819843e+01
1.036353e+02	-1.824673e+01
1.042339e+02	-1.829517e+01
1.048360e+02	-1.834613e+01
1.054415e+02	-1.839491e+01
1.060505e+02	-1.844378e+01
1.066631e+02	-1.849454e+01
1.072791e+02	-1.854287e+01
1.078988e+02	-1.859196e+01
1.085220e+02	-1.864122e+01
1.091488e+02	-1.869196e+01
1.097793e+02	-1.874127e+01
1.104133e+02	-1.878877e+01
1.110511e+02	-1.883989e+01
1.116925e+02	-1.888898e+01
1.123376e+02	-1.893867e+01
1.129865e+02	-1.898632e+01
1.136391e+02	-1.903717e+01
1.142955e+02	-1.908630e+01
1.149556e+02	-1.913447e+01
1.156196e+02	-1.918399e+01
1.162874e+02	-1.923469e+01
1.169591e+02	-1.928289e+01
1.176347e+02	-1.933295e+01
1.183141e+02	-1.938325e+01
1.189975e+02	-1.943167e+01
1.196848e+02	-1.948161e+01
1.203761e+02	-1.953054e+01
1.210714e+02	-1.958185e+01
1.217707e+02	-1.962961e+01
1.224740e+02	-1.968017e+01
1.231814e+02	-1.972957e+01
1.238929e+02	-1.977957e+01
1.246085e+02	-1.982824e+01
1.253283e+02	-1.987810e+01
1.260522e+02	-1.992622e+01
1.267802e+02	-1.997738e+01
1.275125e+02	-2.002659e+01
1.282490e+02	-2.007466e+01
1.289898e+02	-2.012786e+01
1.297348e+02	-2.017610e+01
1.304842e+02	-2.022385e+01
1.312378e+02	-2.027364e+01
1.319959e+02	-2.032261e+01
1.327583e+02	-2.037461e+01
1.335251e+02	-2.042160e+01
1.342963e+02	-2.047311e+01
1.350720e+02	-2.052301e+01
1.358522e+02	-2.057142e+01
1.366368e+02	-2.062072e+01
1.374260e+02	-2.067288e+01
1.382198e+02	-2.071971e+01
1.390182e+02	-2.076857e+01
1.398211e+02	-2.081984e+01
1.406287e+02	-2.087092e+01
1.414410e+02	-2.091866e+01
1.422579e+02	-2.096858e+01
1.430796e+02	-2.101841e+01
1.439060e+02	-2.106567e+01
1.447372e+02	-2.111680e+01
1.455732e+02	-2.116677e+01
1.464141e+02	-2.121744e+01
1.472597e+02	-2.126714e+01
1.481103e+02	-2.131592e+01
1.489658e+02	-2.136613e+01
1.498262e+02	-2.141738e+01
1.506916e+02	-2.146505e+01
1.515620e+02	-2.151297e+01
1.524374e+02	-2.156703e+01
1.533179e+02	-2.161397e+01
1.542034e+02	-2.166462e+01
1.550941e+02	-2.171260e+01
1.559899e+02	-2.176349e+01
1.568909e+02	-2.181416e+01
1.577971e+02	-2.186337e+01
1.587085e+02	-2.191048e+01
1.596252e+02	-2.196380e+01
1.605472e+02	-2.200985e+01
1.614745e+02	-2.206044e+01
1.624072e+02	-2.211110e+01
1.633453e+02	-2.216244e+01
1.642887e+02	-2.221092e+01
1.652377e+02	-2.226042e+01
1.661921e+02	-2.230930e+01
1.671520e+02	-2.236055e+01
1.681175e+02	-2.240845e+01
1.690885e+02	-2.245893e+01
1.700651e+02	-2.250964e+01
1.710474e+02	-2.256005e+01
1.720354e+02	-2.260634e+01
1.730291e+02	-2.265622e+01
1.740285e+02	-2.270768e+01
1.750337e+02	-2.275823e+01
1.760446e+02	-2.280774e+01
1.770615e+02	-2.285712e+01
1.780842e+02	-2.290929e+01
1.791128e+02	-2.295757e+01
1.801473e+02	-2.300686e+01
1.811878e+02	-2.305814e+01
1.822344e+02	-2.310550e+01
1.832870e+02	-2.315743e+01
1.843456e+02	-2.320606e+01
1.854104e+02	-2.325645e+01
1.864813e+02	-2.330606e+01
1.875584e+02	-2.335833e+01
1.886418e+02	-2.340501e+01
1.897313e+02	-2.345566e+01
1.908272e+02	-2.350467e+01
1.919294e+02	-2.355367e+01
1.930380e+02	-2.360427e+01
1.941530e+02	-2.365652e+01
1.952744e+02	-2.370578e+01
1.964023e+02	-2.375409e+01
1.975367e+02	-2.380293e+01
1.986777e+02	-2.385441e+01
1.998252e+02	-2.390408e+01
2.009794e+02	-2.395286e+01
2.021403e+02	-2.400239e+01
2.033078e+02	-2.405401e+01
2.044821e+02	-2.410470e+01
2.056632e+02	-2.415324e+01
2.068511e+02	-2.420260e+01
2.080459e+02	-2.425168e+01
2.092475e+02	-2.430321e+01
2.104561e+02	-2.435357e+01
2.116717e+02	-2.440221e+01
2.128943e+02	-2.445430e+01
2.141240e+02	-2.450109e+01
2.153608e+02	-2.455129e+01
2.166047e+02	-2.460237e+01
2.178558e+02	-2.465196e+01
2.191141e+02	-2.470201e+01
2.203797e+02	-2.475144e+01
2.216526e+02	-2.480164e+01
2.229329e+02	-2.484925e+01
2.242205e+02	-2.490239e+01
2.255156e+02	-2.495367e+01
2.268182e+02	-2.500138e+01
2.281283e+02	-2.505119e+01
2.294459e+02	-2.510206e+01
2.307712e+02	-2.515401e+01
2.321041e+02	-2.519945e+01
2.334447e+02	-2.525175e+01
2.347931e+02	-2.529949e+01
2.361493e+02	-2.535098e+01
2.375133e+02	-2.540203e+01
2.388851e+02	-2.545204e+01
2.402649e+02	-2.550124e+01
2.416527e+02	-2.554984e+01
2.430484e+02	-2.559938e+01
2.444523e+02	-2.565131e+01
2.458642e+02	-2.569780e+01
2.472843e+02	-2.575011e+01
2.487126e+02	-2.580108e+01
2.501492e+02	-2.585084e+01
2.515940e+02	-2.590125e+01
2.530472e+02	-2.594935e+01
2.545088e+02	-2.599855e+01
2.559789e+02	-2.605258e+01
2.574574e+02	-2.610082e+01
2.589444e+02	-2.615050e+01
2.604401e+02	-2.620069e+01
2.619444e+02	-2.625028e+01
2.634574e+02	-2.629854e+01
2.649791e+02	-2.635030e+01
2.665096e+02	-2.640214e+01
2.680489e+02	-2.644960e+01
2.695972e+02	-2.650053e+01
2.711544e+02	-2.654794e+01
2.727205e+02	-2.660077e+01
2.742958e+02	-2.664779e+01
2.758801e+02	-2.669744e+01
2.774736e+02	-2.674904e+01
2.790762e+02	-2.679847e+01
2.806882e+02	-2.684787e+01
2.823094e+02	-2.690259e+01
2.839400e+02	-2.695085e+01
2.855800e+02	-2.699650e+01
2.872295e+02	-2.705220e+01
2.888886e+02	-2.709898e+01
2.905572e+02	-2.715057e+01
2.922354e+02	-2.720053e+01
2.939234e+02	-2.724927e+01
2.956211e+02	-2.730102e+01
2.973286e+02	-2.734795e+01
2.990459e+02	-2.739835e+01
3.007732e+02	-2.744905e+01
3.025104e+02	-2.749967e+01
3.042577e+02	-2.755108e+01
3.060151e+02	-2.759781e+01
3.077826e+02	-2.764993e+01
3.095604e+02	-2.769619e+01
3.113484e+02	-2.775554e+01
3.131467e+02	-2.780046e+01
3.149554e+02	-2.784865e+01
3.167746e+02	-2.789860e+01
3.186043e+02	-2.795013e+01
3.204445e+02	-2.799689e+01
3.222954e+02	-2.804690e+01
3.241570e+02	-2.809703e+01
3.260293e+02	-2.814622e+01
3.279124e+02	-2.819913e+01
3.298064e+02	-2.825114e+01
3.317114e+02	-2.829995e+01
3.336273e+02	-2.834862e+01
3.355544e+02	-2.840033e+01
3.374925e+02	-2.844972e+01
3.394418e+02	-2.850069e+01
3.414024e+02	-2.855247e+01
3.433744e+02	-2.860022e+01
3.453577e+02	-2.865293e+01
3.473525e+02	-2.869761e+01
3.493588e+02	-2.874652e+01
3.513766e+02	-2.880142e+01
3.534062e+02	-2.884575e+01
3.554474e+02	-2.889885e+01
3.575005e+02	-2.895297e+01
3.595654e+02	-2.899938e+01
3.616422e+02	-2.905572e+01
3.637311e+02	-2.910310e+01
3.658320e+02	-2.915249e+01
3.679450e+02	-2.919902e+01
3.700702e+02	-2.925178e+01
3.722077e+02	-2.929714e+01
3.743576e+02	-2.935163e+01
3.765199e+02	-2.940042e+01
3.786946e+02	-2.945077e+01
3.808820e+02	-2.950243e+01
3.830819e+02	-2.955140e+01
3.852946e+02	-2.960198e+01
3.875200e+02	-2.965257e+01
3.897583e+02	-2.970142e+01
3.920096e+02	-2.975368e+01
3.942738e+02	-2.979934e+01
3.965511e+02	-2.985015e+01
3.988416e+02	-2.990363e+01
4.011452e+02	-2.995438e+01
4.034622e+02	-3.000010e+01
4.057926e+02	-3.005323e+01
4.081365e+02	-3.010808e+01
4.104938e+02	-3.015164e+01
4.128648e+02	-3.019922e+01
4.152495e+02	-3.025716e+01
4.176480e+02	-3.030110e+01
4.200603e+02	-3.035346e+01
4.224866e+02	-3.040188e+01
4.249268e+02	-3.045321e+01
4.273812e+02	-3.050333e+01
4.298497e+02	-3.055316e+01
4.323325e+02	-3.060042e+01
4.348297e+02	-3.065411e+01
4.373412e+02	-3.070440e+01
4.398673e+02	-3.075679e+01
4.424079e+02	-3.080136e+01
4.449633e+02	-3.084779e+01
4.475334e+02	-3.090491e+01
4.501183e+02	-3.095262e+01
4.527182e+02	-3.100434e+01
4.553330e+02	-3.104927e+01
4.579630e+02	-3.110558e+01
4.606082e+02	-3.116226e+01
4.632687e+02	-3.120296e+01
4.659445e+02	-3.125854e+01
4.686358e+02	-3.130617e+01
4.713426e+02	-3.134994e+01
4.740650e+02	-3.140724e+01
4.768032e+02	-3.145810e+01
4.795572e+02	-3.150324e+01
4.823271e+02	-3.155656e+01
4.851130e+02	-3.160070e+01
4.879150e+02	-3.165677e+01
4.907332e+02	-3.170141e+01
4.935676e+02	-3.175683e+01
4.964185e+02	-3.180984e+01
4.992858e+02	-3.185411e+01
5.021696e+02	-3.190931e+01
5.050701e+02	-3.195231e+01
5.079874e+02	-3.201110e+01
5.109215e+02	-3.205593e+01
5.138726e+02	-3.210861e+01
5.168407e+02	-3.215842e+01
5.198259e+02	-3.221009e+01
5.228284e+02	-3.226089e+01
5.258482e+02	-3.230157e+01
5.288855e+02	-3.235631e+01
5.319403e+02	-3.241241e+01
5.350128e+02	-3.246820e+01
5.381030e+02	-3.251105e+01
5.412111e+02	-3.255747e+01
5.443371e+02	-3.261471e+01
5.474812e+02	-3.266663e+01
5.506434e+02	-3.270558e+01
5.538239e+02	-3.275903e+01
5.570228e+02	-3.280864e+01
5.602401e+02	-3.285770e+01
5.634760e+02	-3.291501e+01
5.667306e+02	-3.296606e+01
5.700040e+02	-3.301411e+01
5.732964e+02	-3.306443e+01
5.766077e+02	-3.311467e+01
5.799382e+02	-3.316464e+01
5.832879e+02	-3.320798e+01
5.866569e+02	-3.325526e+01
5.900454e+02	-3.330998e+01
5.934535e+02	-3.336769e+01
5.968813e+02	-3.341251e+01
6.003288e+02	-3.346254e+01
6.037963e+02	-3.351270e+01
6.072838e+02	-3.356396e+01
6.107914e+02	-3.361441e+01
6.143194e+02	-3.366261e+01
6.178676e+02	-3.371552e+01
6.214364e+02	-3.376384e+01
6.250258e+02	-3.381790e+01
6.286359e+02	-3.386164e+01
6.322669e+02	-3.391718e+01
6.359189e+02	-3.396911e+01
6.395919e+02	-3.400978e+01
6.432862e+02	-3.407637e+01
6.470017e+02	-3.412050e+01
6.507388e+02	-3.416307e+01
6.544974e+02	-3.421338e+01
6.582778e+02	-3.426493e+01
6.620800e+02	-3.431536e+01
6.659041e+02	-3.436410e+01
6.697504e+02	-3.442300e+01
6.736188e+02	-3.447662e+01
6.775096e+02	-3.451952e+01
6.814229e+02	-3.457365e+01
6.853587e+02	-3.463490e+01
6.893173e+02	-3.467226e+01
6.932988e+02	-3.472332e+01
6.973033e+02	-3.476855e+01
7.013309e+02	-3.482040e+01
