Frequency(Hz)	Magnitude(dB)
1.000000e+01	-2.012451e+00
1.005776e+01	-2.030995e+00
1.011585e+01	-2.049975e+00
1.017428e+01	-2.068815e+00
1.023305e+01	-2.087553e+00
1.029215e+01	-2.106970e+00
1.035160e+01	-2.126135e+00
1.041139e+01	-2.145709e+00
1.047153e+01	-2.165132e+00
1.053201e+01	-2.184748e+00
1.059284e+01	-2.204701e+00
1.065403e+01	-2.224848e+00
1.071556e+01	-2.244951e+00
1.077746e+01	-2.265260e+00
1.083971e+01	-2.285510e+00
1.090232e+01	-2.306155e+00
1.096529e+01	-2.326712e+00
1.102862e+01	-2.347874e+00
1.109232e+01	-2.368473e+00
1.115639e+01	-2.389704e+00
1.122083e+01	-2.410905e+00
1.128564e+01	-2.432284e+00
1.135083e+01	-2.453869e+00
1.141639e+01	-2.475423e+00
1.148233e+01	-2.497187e+00
1.154865e+01	-2.519189e+00
1.161536e+01	-2.541426e+00
1.168245e+01	-2.563421e+00
1.174992e+01	-2.585896e+00
1.181779e+01	-2.608192e+00
1.188605e+01	-2.631188e+00
1.195470e+01	-2.653821e+00
1.202375e+01	-2.676666e+00
1.209320e+01	-2.700088e+00
1.216305e+01	-2.723018e+00
1.223330e+01	-2.746609e+00
1.230396e+01	-2.770112e+00
1.237503e+01	-2.793567e+00
1.244651e+01	-2.817519e+00
1.251840e+01	-2.841451e+00
1.259070e+01	-2.865544e+00
1.266343e+01	-2.889872e+00
1.273657e+01	-2.914300e+00
1.281014e+01	-2.938833e+00
1.288413e+01	-2.963376e+00
1.295855e+01	-2.988004e+00
1.303339e+01	-3.013275e+00
1.310867e+01	-3.038148e+00
1.318439e+01	-3.063716e+00
1.326054e+01	-3.089071e+00
1.333713e+01	-3.114338e+00
1.341417e+01	-3.140130e+00
1.349165e+01	-3.165990e+00
1.356958e+01	-3.191768e+00
1.364795e+01	-3.217859e+00
1.372678e+01	-3.244361e+00
1.380607e+01	-3.270351e+00
1.388581e+01	-3.297176e+00
1.396602e+01	-3.323909e+00
1.404668e+01	-3.350716e+00
1.412782e+01	-3.377568e+00
1.420942e+01	-3.404609e+00
1.429149e+01	-3.432001e+00
1.437404e+01	-3.459397e+00
1.445706e+01	-3.486797e+00
1.454057e+01	-3.514543e+00
1.462455e+01	-3.542306e+00
1.470902e+01	-3.570307e+00
1.479398e+01	-3.598481e+00
1.487943e+01	-3.626644e+00
1.496537e+01	-3.655100e+00
1.505181e+01	-3.683679e+00
1.513875e+01	-3.712437e+00
1.522619e+01	-3.741242e+00
1.531414e+01	-3.770230e+00
1.540259e+01	-3.799331e+00
1.549156e+01	-3.828562e+00
1.558103e+01	-3.857858e+00
1.567103e+01	-3.887374e+00
1.576155e+01	-3.916981e+00
1.585258e+01	-3.946905e+00
1.594415e+01	-3.976870e+00
1.603624e+01	-4.007114e+00
1.612886e+01	-4.036992e+00
1.622202e+01	-4.067530e+00
1.631572e+01	-4.097956e+00
1.640996e+01	-4.128430e+00
1.650474e+01	-4.159404e+00
1.660008e+01	-4.190268e+00
1.669596e+01	-4.221316e+00
1.679239e+01	-4.252290e+00
1.688938e+01	-4.283794e+00
1.698694e+01	-4.315103e+00
1.708505e+01	-4.346539e+00
1.718373e+01	-4.378348e+00
1.728299e+01	-4.410222e+00
1.738281e+01	-4.442002e+00
1.748322e+01	-4.474387e+00
1.758420e+01	-4.506301e+00
1.768576e+01	-4.538718e+00
1.778792e+01	-4.571457e+00
1.789066e+01	-4.604117e+00
1.799399e+01	-4.637053e+00
1.809793e+01	-4.669735e+00
1.820246e+01	-4.702689e+00
1.830760e+01	-4.735952e+00
1.841334e+01	-4.769381e+00
1.851969e+01	-4.802623e+00
1.862666e+01	-4.835921e+00
1.873425e+01	-4.869787e+00
1.884246e+01	-4.903459e+00
1.895129e+01	-4.937300e+00
1.906075e+01	-4.971565e+00
1.917085e+01	-5.005495e+00
1.928158e+01	-5.040025e+00
1.939295e+01	-5.074273e+00
1.950496e+01	-5.109119e+00
1.961762e+01	-5.143669e+00
1.973093e+01	-5.178452e+00
1.984490e+01	-5.213408e+00
1.995952e+01	-5.248591e+00
2.007480e+01	-5.283435e+00
2.019076e+01	-5.318614e+00
2.030738e+01	-5.354163e+00
2.042467e+01	-5.389688e+00
2.054264e+01	-5.425052e+00
2.066130e+01	-5.460986e+00
2.078064e+01	-5.497002e+00
2.090066e+01	-5.532931e+00
2.102139e+01	-5.568887e+00
2.114280e+01	-5.604944e+00
2.126492e+01	-5.641177e+00
2.138775e+01	-5.677833e+00
2.151128e+01	-5.714027e+00
2.163553e+01	-5.751019e+00
2.176050e+01	-5.787487e+00
2.188619e+01	-5.824573e+00
2.201260e+01	-5.861635e+00
2.213974e+01	-5.898795e+00
2.226762e+01	-5.935993e+00
2.239624e+01	-5.973407e+00
2.252560e+01	-6.010927e+00
2.265571e+01	-6.048242e+00
2.278656e+01	-6.086056e+00
2.291818e+01	-6.123681e+00
2.305055e+01	-6.161480e+00
2.318369e+01	-6.199732e+00
2.331760e+01	-6.237759e+00
2.345228e+01	-6.276018e+00
2.358774e+01	-6.313910e+00
2.372398e+01	-6.352557e+00
2.386101e+01	-6.390930e+00
2.399883e+01	-6.429698e+00
2.413745e+01	-6.468214e+00
2.427686e+01	-6.506916e+00
2.441709e+01	-6.546020e+00
2.455812e+01	-6.584976e+00
2.469997e+01	-6.624335e+00
2.484263e+01	-6.663175e+00
2.498612e+01	-6.702133e+00
2.513044e+01	-6.742301e+00
2.527559e+01	-6.781110e+00
2.542158e+01	-6.820634e+00
2.556842e+01	-6.860625e+00
2.571610e+01	-6.900105e+00
2.586463e+01	-6.939931e+00
2.601403e+01	-6.980169e+00
2.616428e+01	-7.020323e+00
2.631541e+01	-7.060201e+00
2.646740e+01	-7.100437e+00
2.662028e+01	-7.140790e+00
2.677404e+01	-7.181626e+00
2.692868e+01	-7.222152e+00
2.708422e+01	-7.262407e+00
2.724066e+01	-7.303461e+00
2.739800e+01	-7.343725e+00
2.755625e+01	-7.384534e+00
2.771541e+01	-7.425471e+00
2.787550e+01	-7.466495e+00
2.803650e+01	-7.507925e+00
2.819844e+01	-7.549005e+00
2.836131e+01	-7.590111e+00
2.852513e+01	-7.631829e+00
2.868989e+01	-7.672999e+00
2.885560e+01	-7.714385e+00
2.902227e+01	-7.756048e+00
2.918990e+01	-7.797494e+00
2.935850e+01	-7.839103e+00
2.952807e+01	-7.881408e+00
2.969863e+01	-7.923283e+00
2.987016e+01	-7.965253e+00
3.004269e+01	-8.007596e+00
3.021622e+01	-8.049158e+00
3.039075e+01	-8.091527e+00
3.056628e+01	-8.134050e+00
3.074283e+01	-8.176613e+00
3.092040e+01	-8.219161e+00
3.109900e+01	-8.261268e+00
3.127862e+01	-8.304234e+00
3.145929e+01	-8.346854e+00
3.164099e+01	-8.389408e+00
3.182375e+01	-8.432041e+00
3.200756e+01	-8.474881e+00
3.219244e+01	-8.518258e+00
3.237838e+01	-8.561261e+00
3.256540e+01	-8.604220e+00
3.275349e+01	-8.647248e+00
3.294268e+01	-8.690315e+00
3.313295e+01	-8.733431e+00
3.332433e+01	-8.777369e+00
3.351681e+01	-8.820920e+00
3.371040e+01	-8.864472e+00
3.390511e+01	-8.907748e+00
3.410094e+01	-8.951398e+00
3.429791e+01	-8.995070e+00
3.449601e+01	-9.038605e+00
3.469526e+01	-9.082691e+00
3.489566e+01	-9.125890e+00
3.509721e+01	-9.170915e+00
3.529993e+01	-9.214592e+00
3.550382e+01	-9.258234e+00
3.570889e+01	-9.302560e+00
3.591515e+01	-9.347085e+00
3.612259e+01	-9.390881e+00
3.633123e+01	-9.435401e+00
3.654108e+01	-9.479417e+00
3.675214e+01	-9.523427e+00
3.696442e+01	-9.567424e+00
3.717792e+01	-9.612767e+00
3.739266e+01	-9.657170e+00
3.760864e+01	-9.701944e+00
3.782587e+01	-9.747066e+00
3.804435e+01	-9.791774e+00
3.826409e+01	-9.836535e+00
3.848510e+01	-9.881485e+00
3.870739e+01	-9.926671e+00
3.893096e+01	-9.971121e+00
3.915583e+01	-1.001653e+01
3.938199e+01	-1.006178e+01
3.960946e+01	-1.010672e+01
3.983824e+01	-1.015152e+01
4.006834e+01	-1.019708e+01
4.029978e+01	-1.024183e+01
4.053255e+01	-1.028752e+01
4.076666e+01	-1.033285e+01
4.100213e+01	-1.037801e+01
4.123896e+01	-1.042387e+01
4.147715e+01	-1.046936e+01
4.171672e+01	-1.051451e+01
4.195767e+01	-1.055996e+01
4.220002e+01	-1.060600e+01
4.244377e+01	-1.065183e+01
4.268892e+01	-1.069748e+01
4.293549e+01	-1.074379e+01
4.318348e+01	-1.078925e+01
4.343291e+01	-1.083540e+01
4.368377e+01	-1.088109e+01
4.393609e+01	-1.092722e+01
4.418986e+01	-1.097319e+01
4.444510e+01	-1.101910e+01
4.470182e+01	-1.106534e+01
4.496001e+01	-1.111096e+01
4.521970e+01	-1.115743e+01
4.548089e+01	-1.120289e+01
4.574358e+01	-1.125002e+01
4.600779e+01	-1.129631e+01
4.627353e+01	-1.134199e+01
4.654081e+01	-1.138909e+01
4.680963e+01	-1.143494e+01
4.708000e+01	-1.148159e+01
4.735193e+01	-1.152831e+01
4.762543e+01	-1.157430e+01
4.790051e+01	-1.162094e+01
4.817719e+01	-1.166782e+01
4.845545e+01	-1.171521e+01
4.873533e+01	-1.176075e+01
4.901682e+01	-1.180799e+01
4.929994e+01	-1.185442e+01
4.958470e+01	-1.190188e+01
4.987110e+01	-1.194796e+01
5.015915e+01	-1.199466e+01
5.044887e+01	-1.204199e+01
5.074026e+01	-1.208854e+01
5.103333e+01	-1.213530e+01
5.132810e+01	-1.218256e+01
5.162457e+01	-1.222994e+01
5.192275e+01	-1.227675e+01
5.222265e+01	-1.232413e+01
5.252429e+01	-1.237098e+01
5.282767e+01	-1.241807e+01
5.313280e+01	-1.246536e+01
5.343969e+01	-1.251258e+01
5.374836e+01	-1.255976e+01
5.405880e+01	-1.260720e+01
5.437105e+01	-1.265366e+01
5.468509e+01	-1.270082e+01
5.500095e+01	-1.274941e+01
5.531863e+01	-1.279590e+01
5.563815e+01	-1.284406e+01
5.595951e+01	-1.289120e+01
5.628273e+01	-1.293912e+01
5.660782e+01	-1.298604e+01
5.693479e+01	-1.303328e+01
5.726364e+01	-1.308105e+01
5.759439e+01	-1.312883e+01
5.792705e+01	-1.317614e+01
5.826164e+01	-1.322457e+01
5.859815e+01	-1.327157e+01
5.893662e+01	-1.331953e+01
5.927703e+01	-1.336694e+01
5.961941e+01	-1.341510e+01
5.996377e+01	-1.346202e+01
6.031012e+01	-1.351046e+01
6.065847e+01	-1.355861e+01
6.100883e+01	-1.360594e+01
6.136121e+01	-1.365443e+01
6.171563e+01	-1.370214e+01
6.207210e+01	-1.375031e+01
6.243063e+01	-1.379771e+01
6.279122e+01	-1.384587e+01
6.315390e+01	-1.389342e+01
6.351868e+01	-1.394166e+01
6.388556e+01	-1.398946e+01
6.425456e+01	-1.403737e+01
6.462569e+01	-1.408613e+01
6.499897e+01	-1.413414e+01
6.537440e+01	-1.418233e+01
6.575200e+01	-1.423017e+01
6.613178e+01	-1.427746e+01
6.651375e+01	-1.432636e+01
6.689793e+01	-1.437443e+01
6.728433e+01	-1.442345e+01
6.767297e+01	-1.447074e+01
6.806384e+01	-1.451997e+01
6.845698e+01	-1.456768e+01
6.885238e+01	-1.461559e+01
6.925007e+01	-1.466431e+01
6.965005e+01	-1.471281e+01
7.005235e+01	-1.476120e+01
7.045697e+01	-1.480955e+01
7.086393e+01	-1.485726e+01
7.127323e+01	-1.490571e+01
7.168490e+01	-1.495375e+01
7.209895e+01	-1.500382e+01
7.251539e+01	-1.505194e+01
7.293424e+01	-1.510004e+01
7.335551e+01	-1.514787e+01
7.377920e+01	-1.519749e+01
7.420535e+01	-1.524576e+01
7.463396e+01	-1.529405e+01
7.506504e+01	-1.534227e+01
7.549861e+01	-1.539064e+01
7.593469e+01	-1.543948e+01
7.637328e+01	-1.548852e+01
7.681441e+01	-1.553703e+01
7.725809e+01	-1.558577e+01
7.770433e+01	-1.563403e+01
7.815315e+01	-1.568313e+01
7.860456e+01	-1.573173e+01
7.905857e+01	-1.578027e+01
7.951521e+01	-1.582926e+01
7.997449e+01	-1.587730e+01
8.043642e+01	-1.592670e+01
8.090102e+01	-1.597519e+01
8.136830e+01	-1.602520e+01
8.183828e+01	-1.607265e+01
8.231097e+01	-1.612194e+01
8.278640e+01	-1.617120e+01
8.326457e+01	-1.621927e+01
8.374550e+01	-1.626737e+01
8.422921e+01	-1.631770e+01
8.471572e+01	-1.636633e+01
8.520503e+01	-1.641431e+01
8.569717e+01	-1.646360e+01
8.619215e+01	-1.651237e+01
8.669000e+01	-1.656059e+01
8.719071e+01	-1.660983e+01
8.769432e+01	-1.665901e+01
8.820084e+01	-1.670767e+01
8.871029e+01	-1.675689e+01
8.922267e+01	-1.680547e+01
8.973802e+01	-1.685519e+01
9.025634e+01	-1.690305e+01
9.077766e+01	-1.695412e+01
9.130199e+01	-1.700177e+01
9.182935e+01	-1.705038e+01
9.235975e+01	-1.709979e+01
9.289321e+01	-1.714914e+01
9.342976e+01	-1.719927e+01
9.396941e+01	-1.724756e+01
9.451217e+01	-1.729589e+01
9.505807e+01	-1.734526e+01
9.560712e+01	-1.739393e+01
9.615934e+01	-1.744337e+01
9.671476e+01	-1.749317e+01
9.727338e+01	-1.754216e+01
9.783522e+01	-1.759059e+01
9.840032e+01	-1.764067e+01
9.896867e+01	-1.768906e+01
9.954031e+01	-1.773868e+01
1.001153e+02	-1.778759e+01
1.006935e+02	-1.783838e+01
1.012751e+02	-1.788694e+01
1.018601e+02	-1.793519e+01
1.024484e+02	-1.798478e+01
1.030402e+02	-1.803286e+01
1.036353e+02	-1.808403e+01
1.042339e+02	-1.813215e+01
1.048360e+02	-1.818225e+01
1.054415e+02	-1.823084e+01
1.060505e+02	-1.828190e+01
1.066631e+02	-1.833018e+01
1.072791e+02	-1.837991e+01
1.078988e+02	-1.842957e+01
1.085220e+02	-1.847765e+01
1.091488e+02	-1.852790e+01
1.097793e+02	-1.857594e+01
1.104133e+02	-1.862498e+01
1.110511e+02	-1.867604e+01
1.116925e+02	-1.872528e+01
1.123376e+02	-1.877348e+01
1.129865e+02	-1.882397e+01
1.136391e+02	-1.887154e+01
1.142955e+02	-1.892208e+01
1.149556e+02	-1.897117e+01
1.156196e+02	-1.902170e+01
1.162874e+02	-1.907057e+01
1.169591e+02	-1.911988e+01
1.176347e+02	-1.916854e+01
1.183141e+02	-1.921931e+01
1.189975e+02	-1.926742e+01
1.196848e+02	-1.931686e+01
1.203761e+02	-1.936661e+01
1.210714e+02	-1.941516e+01
1.217707e+02	-1.946465e+01
1.224740e+02	-1.951647e+01
1.231814e+02	-1.956518e+01
1.238929e+02	-1.961500e+01
1.246085e+02	-1.966416e+01
1.253283e+02	-1.971289e+01
1.260522e+02	-1.976196e+01
1.267802e+02	-1.981250e+01
1.275125e+02	-1.986166e+01
1.282490e+02	-1.991126e+01
1.289898e+02	-1.995939e+01
1.297348e+02	-2.000977e+01
1.304842e+02	-2.005888e+01
1.312378e+02	-2.010932e+01
1.319959e+02	-2.015827e+01
1.327583e+02	-2.020937e+01
1.335251e+02	-2.025905e+01
1.342963e+02	-2.030847e+01
1.350720e+02	-2.035791e+01
1.358522e+02	-2.040694e+01
1.366368e+02	-2.045693e+01
1.374260e+02	-2.050648e+01
1.382198e+02	-2.055609e+01
1.390182e+02	-2.060335e+01
1.398211e+02	-2.065433e+01
1.406287e+02	-2.070436e+01
1.414410e+02	-2.075427e+01
1.422579e+02	-2.080343e+01
1.430796e+02	-2.085364e+01
1.439060e+02	-2.090261e+01
1.447372e+02	-2.095299e+01
1.455732e+02	-2.100098e+01
1.464141e+02	-2.105133e+01
1.472597e+02	-2.110258e+01
1.481103e+02	-2.115281e+01
1.489658e+02	-2.120119e+01
1.498262e+02	-2.124989e+01
1.506916e+02	-2.129875e+01
1.515620e+02	-2.134811e+01
1.524374e+02	-2.140046e+01
1.533179e+02	-2.144892e+01
1.542034e+02	-2.149883e+01
1.550941e+02	-2.154862e+01
1.559899e+02	-2.159717e+01
1.568909e+02	-2.164883e+01
1.577971e+02	-2.169832e+01
1.587085e+02	-2.174668e+01
1.596252e+02	-2.179643e+01
1.605472e+02	-2.184912e+01
1.614745e+02	-2.189502e+01
1.624072e+02	-2.194710e+01
1.633453e+02	-2.199693e+01
1.642887e+02	-2.204508e+01
1.652377e+02	-2.209454e+01
1.661921e+02	-2.214613e+01
1.671520e+02	-2.219537e+01
1.681175e+02	-2.224599e+01
1.690885e+02	-2.229329e+01
1.700651e+02	-2.234500e+01
1.710474e+02	-2.239402e+01
1.720354e+02	-2.244585e+01
1.730291e+02	-2.249106e+01
1.740285e+02	-2.254351e+01
1.750337e+02	-2.259241e+01
1.760446e+02	-2.264336e+01
1.770615e+02	-2.269199e+01
1.780842e+02	-2.274295e+01
1.791128e+02	-2.278972e+01
1.801473e+02	-2.284213e+01
1.811878e+02	-2.289151e+01
1.822344e+02	-2.294065e+01
1.832870e+02	-2.299115e+01
1.843456e+02	-2.303920e+01
1.854104e+02	-2.309156e+01
1.864813e+02	-2.313830e+01
1.875584e+02	-2.318993e+01
1.886418e+02	-2.324317e+01
1.897313e+02	-2.329144e+01
1.908272e+02	-2.333939e+01
1.919294e+02	-2.338915e+01
1.930380e+02	-2.344014e+01
1.941530e+02	-2.348987e+01
1.952744e+02	-2.353913e+01
1.964023e+02	-2.359072e+01
1.975367e+02	-2.363826e+01
1.986777e+02	-2.369041e+01
1.998252e+02	-2.373754e+01
2.009794e+02	-2.378698e+01
2.021403e+02	-2.383979e+01
2.033078e+02	-2.388753e+01
2.044821e+02	-2.393688e+01
2.056632e+02	-2.398570e+01
2.068511e+02	-2.403540e+01
2.080459e+02	-2.408830e+01
2.092475e+02	-2.413712e+01
2.104561e+02	-2.418842e+01
2.116717e+02	-2.423648e+01
2.128943e+02	-2.428586e+01
2.141240e+02	-2.433817e+01
2.153608e+02	-2.438478e+01
2.166047e+02	-2.443529e+01
2.178558e+02	-2.448595e+01
2.191141e+02	-2.453730e+01
2.203797e+02	-2.458550e+01
2.216526e+02	-2.463834e+01
2.229329e+02	-2.468363e+01
2.242205e+02	-2.473792e+01
2.255156e+02	-2.478529e+01
2.268182e+02	-2.483723e+01
2.281283e+02	-2.488584e+01
2.294459e+02	-2.493555e+01
2.307712e+02	-2.498316e+01
2.321041e+02	-2.503458e+01
2.334447e+02	-2.508546e+01
2.347931e+02	-2.513754e+01
2.361493e+02	-2.518432e+01
2.375133e+02	-2.523383e+01
2.388851e+02	-2.528642e+01
2.402649e+02	-2.533718e+01
2.416527e+02	-2.538082e+01
2.430484e+02	-2.543537e+01
2.444523e+02	-2.548732e+01
2.458642e+02	-2.553278e+01
2.472843e+02	-2.558623e+01
2.487126e+02	-2.563453e+01
2.501492e+02	-2.568296e+01
2.515940e+02	-2.573102e+01
2.530472e+02	-2.578490e+01
2.545088e+02	-2.583437e+01
2.559789e+02	-2.588190e+01
2.574574e+02	-2.593633e+01
2.589444e+02	-2.598472e+01
2.604401e+02	-2.603368e+01
2.619444e+02	-2.608198e+01
2.634574e+02	-2.613455e+01
2.649791e+02	-2.618641e+01
2.665096e+02	-2.623517e+01
2.680489e+02	-2.628463e+01
2.695972e+02	-2.633551e+01
2.711544e+02	-2.638539e+01
2.727205e+02	-2.643444e+01
2.742958e+02	-2.648445e+01
2.758801e+02	-2.653548e+01
2.774736e+02	-2.658532e+01
2.790762e+02	-2.663242e+01
2.806882e+02	-2.668672e+01
2.823094e+02	-2.673498e+01
2.839400e+02	-2.678567e+01
2.855800e+02	-2.683599e+01
2.872295e+02	-2.688762e+01
2.888886e+02	-2.693334e+01
2.905572e+02	-2.698050e+01
2.922354e+02	-2.703786e+01
2.939234e+02	-2.708519e+01
2.956211e+02	-2.713185e+01
2.973286e+02	-2.717918e+01
2.990459e+02	-2.723612e+01
3.007732e+02	-2.728179e+01
3.025104e+02	-2.733317e+01
3.042577e+02	-2.738075e+01
3.060151e+02	-2.743516e+01
3.077826e+02	-2.748502e+01
3.095604e+02	-2.753102e+01
3.113484e+02	-2.758140e+01
3.131467e+02	-2.763236e+01
3.149554e+02	-2.768174e+01
3.167746e+02	-2.773215e+01
3.186043e+02	-2.778527e+01
3.204445e+02	-2.783315e+01
3.222954e+02	-2.788523e+01
3.241570e+02	-2.793543e+01
3.260293e+02	-2.798444e+01
3.279124e+02	-2.803383e+01
3.298064e+02	-2.808268e+01
3.317114e+02	-2.813409e+01
3.336273e+02	-2.818421e+01
3.355544e+02	-2.823625e+01
3.374925e+02	-2.828158e+01
3.394418e+02	-2.833617e+01
3.414024e+02	-2.838629e+01
3.433744e+02	-2.843705e+01
3.453577e+02	-2.848377e+01
3.473525e+02	-2.853489e+01
3.493588e+02	-2.858500e+01
3.513766e+02	-2.863483e+01
3.534062e+02	-2.868801e+01
3.554474e+02	-2.873071e+01
3.575005e+02	-2.878386e+01
3.595654e+02	-2.883258e+01
3.616422e+02	-2.888906e+01
3.637311e+02	-2.893296e+01
3.658320e+02	-2.898315e+01
3.679450e+02	-2.903412e+01
3.700702e+02	-2.908591e+01
3.722077e+02	-2.913543e+01
3.743576e+02	-2.918793e+01
3.765199e+02	-2.923071e+01
3.786946e+02	-2.928219e+01
3.808820e+02	-2.933424e+01
3.830819e+02	-2.938973e+01
3.852946e+02	-2.943245e+01
3.875200e+02	-2.948441e+01
3.897583e+02	-2.953418e+01
3.920096e+02	-2.958309e+01
3.942738e+02	-2.963327e+01
3.965511e+02	-2.968365e+01
3.988416e+02	-2.973351e+01
4.011452e+02	-2.978408e+01
4.034622e+02	-2.984161e+01
4.057926e+02	-2.988789e+01
4.081365e+02	-2.993383e+01
4.104938e+02	-2.998723e+01
4.128648e+02	-3.003395e+01
4.152495e+02	-3.009101e+01
4.176480e+02	-3.014028e+01
4.200603e+02	-3.018577e+01
4.224866e+02	-3.023470e+01
4.249268e+02	-3.028406e+01
4.273812e+02	-3.033456e+01
4.298497e+02	-3.038507e+01
4.323325e+02	-3.044123e+01
4.348297e+02	-3.048936e+01
4.373412e+02	-3.053873e+01
4.398673e+02	-3.059261e+01
4.424079e+02	-3.063866e+01
4.449633e+02	-3.069114e+01
4.475334e+02	-3.073784e+01
4.501183e+02	-3.079124e+01
4.527182e+02	-3.083634e+01
4.553330e+02	-3.088997e+01
4.579630e+02	-3.094662e+01
4.606082e+02	-3.098689e+01
4.632687e+02	-3.104410e+01
4.659445e+02	-3.108849e+01
4.686358e+02	-3.114136e+01
4.713426e+02	-3.118726e+01
4.740650e+02	-3.123721e+01
4.768032e+02	-3.128786e+01
4.795572e+02	-3.133621e+01
4.823271e+02	-3.139457e+01
4.851130e+02	-3.143899e+01
4.879150e+02	-3.148924e+01
4.907332e+02	-3.154019e+01
4.935676e+02	-3.158931e+01
4.964185e+02	-3.163807e+01
4.992858e+02	-3.169192e+01
5.021696e+02	-3.174464e+01
5.050701e+02	-3.179297e+01
5.079874e+02	-3.184400e+01
5.109215e+02	-3.188374e+01
5.138726e+02	-3.194451e+01
5.168407e+02	-3.200150e+01
5.198259e+02	-3.203877e+01
5.228284e+02	-3.209231e+01
5.258482e+02	-3.214372e+01
5.288855e+02	-3.219799e+01
5.319403e+02	-3.224388e+01
5.350128e+02	-3.228795e+01
5.381030e+02	-3.234523e+01
5.412111e+02	-3.239682e+01
5.443371e+02	-3.244469e+01
5.474812e+02	-3.249485e+01
5.506434e+02	-3.254878e+01
5.538239e+02	-3.258944e+01
5.570228e+02	-3.264040e+01
5.602401e+02	-3.270196e+01
5.634760e+02	-3.275017e+01
5.667306e+02	-3.280111e+01
5.700040e+02	-3.284367e+01
5.732964e+02	-3.289817e+01
5.766077e+02	-3.295112e+01
5.799382e+02	-3.300119e+01
5.832879e+02	-3.304242e+01
5.866569e+02	-3.309774e+01
5.900454e+02	-3.314924e+01
5.934535e+02	-3.318836e+01
5.968813e+02	-3.325032e+01
6.003288e+02	-3.330071e+01
6.037963e+02	-3.335415e+01
6.072838e+02	-3.339681e+01
6.107914e+02	-3.345339e+01
6.143194e+02	-3.349519e+01
6.178676e+02	-3.354717e+01
6.214364e+02	-3.360063e+01
6.250258e+02	-3.365034e+01
6.286359e+02	-3.369767e+01
6.322669e+02	-3.374674e+01
6.359189e+02	-3.380381e+01
6.395919e+02	-3.385248e+01
6.432862e+02	-3.390093e+01
6.470017e+02	-3.395479e+01
6.507388e+02	-3.400094e+01
6.544974e+02	-3.405818e+01
6.582778e+02	-3.410994e+01
6.620800e+02	-3.415723e+01
6.659041e+02	-3.420039e+01
6.697504e+02	-3.425989e+01
6.736188e+02	-3.430172e+01
6.775096e+02	-3.435368e+01
6.814229e+02	-3.440400e+01
6.853587e+02	-3.445560e+01
6.893173e+02	-3.450696e+01
6.932988e+02	-3.455738e+01
6.973033e+02	-3.460603e+01
7.013309e+02	-3.465451e+01
