Frequency(Hz)	Magnitude(dB)
1.000000e+01	-2.329429e+00
1.005776e+01	-2.350282e+00
1.011585e+01	-2.371249e+00
1.017428e+01	-2.392450e+00
1.023305e+01	-2.413688e+00
1.029215e+01	-2.435337e+00
1.035160e+01	-2.456674e+00
1.041139e+01	-2.478359e+00
1.047153e+01	-2.500161e+00
1.053201e+01	-2.522039e+00
1.059284e+01	-2.544352e+00
1.065403e+01	-2.566396e+00
1.071556e+01	-2.588708e+00
1.077746e+01	-2.611641e+00
1.083971e+01	-2.633998e+00
1.090232e+01	-2.656857e+00
1.096529e+01	-2.679927e+00
1.102862e+01	-2.703087e+00
1.109232e+01	-2.726315e+00
1.115639e+01	-2.749691e+00
1.122083e+01	-2.773099e+00
1.128564e+01	-2.796468e+00
1.135083e+01	-2.820622e+00
1.141639e+01	-2.844771e+00
1.148233e+01	-2.868812e+00
1.154865e+01	-2.892817e+00
1.161536e+01	-2.917254e+00
1.168245e+01	-2.941832e+00
1.174992e+01	-2.966540e+00
1.181779e+01	-2.991551e+00
1.188605e+01	-3.016450e+00
1.195470e+01	-3.041316e+00
1.202375e+01	-3.066818e+00
1.209320e+01	-3.092211e+00
1.216305e+01	-3.117714e+00
1.223330e+01	-3.143160e+00
1.230396e+01	-3.169118e+00
1.237503e+01	-3.195253e+00
1.244651e+01	-3.221317e+00
1.251840e+01	-3.247689e+00
1.259070e+01	-3.274083e+00
1.266343e+01	-3.300738e+00
1.273657e+01	-3.327356e+00
1.281014e+01	-3.354280e+00
1.288413e+01	-3.381239e+00
1.295855e+01	-3.408257e+00
1.303339e+01	-3.435630e+00
1.310867e+01	-3.462951e+00
1.318439e+01	-3.490494e+00
1.326054e+01	-3.518026e+00
1.333713e+01	-3.546173e+00
1.341417e+01	-3.574129e+00
1.349165e+01	-3.602379e+00
1.356958e+01	-3.630432e+00
1.364795e+01	-3.658946e+00
1.372678e+01	-3.687391e+00
1.380607e+01	-3.716006e+00
1.388581e+01	-3.744886e+00
1.396602e+01	-3.774002e+00
1.404668e+01	-3.803092e+00
1.412782e+01	-3.832442e+00
1.420942e+01	-3.861768e+00
1.429149e+01	-3.891326e+00
1.437404e+01	-3.921009e+00
1.445706e+01	-3.950627e+00
1.454057e+01	-3.980724e+00
1.462455e+01	-4.010842e+00
1.470902e+01	-4.041079e+00
1.479398e+01	-4.071286e+00
1.487943e+01	-4.102022e+00
1.496537e+01	-4.132616e+00
1.505181e+01	-4.163212e+00
1.513875e+01	-4.194210e+00
1.522619e+01	-4.225361e+00
1.531414e+01	-4.256348e+00
1.540259e+01	-4.287795e+00
1.549156e+01	-4.319168e+00
1.558103e+01	-4.350886e+00
1.567103e+01	-4.382438e+00
1.576155e+01	-4.414072e+00
1.585258e+01	-4.446424e+00
1.594415e+01	-4.478479e+00
1.603624e+01	-4.510967e+00
1.612886e+01	-4.543136e+00
1.622202e+01	-4.575424e+00
1.631572e+01	-4.608407e+00
1.640996e+01	-4.641019e+00
1.650474e+01	-4.673928e+00
1.660008e+01	-4.707068e+00
1.669596e+01	-4.740271e+00
1.679239e+01	-4.773126e+00
1.688938e+01	-4.806893e+00
1.698694e+01	-4.840328e+00
1.708505e+01	-4.874148e+00
1.718373e+01	-4.907969e+00
1.728299e+01	-4.941735e+00
1.738281e+01	-4.975765e+00
1.748322e+01	-5.010301e+00
1.758420e+01	-5.044605e+00
1.768576e+01	-5.078743e+00
1.778792e+01	-5.113296e+00
1.789066e+01	-5.147841e+00
1.799399e+01	-5.182886e+00
1.809793e+01	-5.217836e+00
1.820246e+01	-5.252666e+00
1.830760e+01	-5.287962e+00
1.841334e+01	-5.323194e+00
1.851969e+01	-5.358556e+00
1.862666e+01	-5.394104e+00
1.873425e+01	-5.429605e+00
1.884246e+01	-5.465882e+00
1.895129e+01	-5.501282e+00
1.906075e+01	-5.537350e+00
1.917085e+01	-5.573459e+00
1.928158e+01	-5.609619e+00
1.939295e+01	-5.645990e+00
1.950496e+01	-5.682537e+00
1.961762e+01	-5.719341e+00
1.973093e+01	-5.755860e+00
1.984490e+01	-5.792811e+00
1.995952e+01	-5.829352e+00
2.007480e+01	-5.866087e+00
2.019076e+01	-5.903528e+00
2.030738e+01	-5.940751e+00
2.042467e+01	-5.978302e+00
2.054264e+01	-6.015507e+00
2.066130e+01	-6.053132e+00
2.078064e+01	-6.090877e+00
2.090066e+01	-6.128577e+00
2.102139e+01	-6.166691e+00
2.114280e+01	-6.204499e+00
2.126492e+01	-6.242634e+00
2.138775e+01	-6.280812e+00
2.151128e+01	-6.318869e+00
2.163553e+01	-6.357639e+00
2.176050e+01	-6.395878e+00
2.188619e+01	-6.434932e+00
2.201260e+01	-6.473459e+00
2.213974e+01	-6.512532e+00
2.226762e+01	-6.551229e+00
2.239624e+01	-6.589837e+00
2.252560e+01	-6.629167e+00
2.265571e+01	-6.668342e+00
2.278656e+01	-6.707562e+00
2.291818e+01	-6.746607e+00
2.305055e+01	-6.786601e+00
2.318369e+01	-6.826088e+00
2.331760e+01	-6.865896e+00
2.345228e+01	-6.905229e+00
2.358774e+01	-6.945575e+00
2.372398e+01	-6.985407e+00
2.386101e+01	-7.025576e+00
2.399883e+01	-7.065673e+00
2.413745e+01	-7.105802e+00
2.427686e+01	-7.145791e+00
2.441709e+01	-7.186964e+00
2.455812e+01	-7.226919e+00
2.469997e+01	-7.267545e+00
2.484263e+01	-7.308522e+00
2.498612e+01	-7.349002e+00
2.513044e+01	-7.390148e+00
2.527559e+01	-7.431066e+00
2.542158e+01	-7.472140e+00
2.556842e+01	-7.513091e+00
2.571610e+01	-7.554407e+00
2.586463e+01	-7.595093e+00
2.601403e+01	-7.636746e+00
2.616428e+01	-7.678264e+00
2.631541e+01	-7.719743e+00
2.646740e+01	-7.761010e+00
2.662028e+01	-7.803357e+00
2.677404e+01	-7.845157e+00
2.692868e+01	-7.887006e+00
2.708422e+01	-7.928588e+00
2.724066e+01	-7.970751e+00
2.739800e+01	-8.012933e+00
2.755625e+01	-8.054781e+00
2.771541e+01	-8.097436e+00
2.787550e+01	-8.139460e+00
2.803650e+01	-8.181815e+00
2.819844e+01	-8.224251e+00
2.836131e+01	-8.267202e+00
2.852513e+01	-8.309422e+00
2.868989e+01	-8.352432e+00
2.885560e+01	-8.395202e+00
2.902227e+01	-8.437882e+00
2.918990e+01	-8.480245e+00
2.935850e+01	-8.523683e+00
2.952807e+01	-8.566479e+00
2.969863e+01	-8.609334e+00
2.987016e+01	-8.652866e+00
3.004269e+01	-8.696625e+00
3.021622e+01	-8.739513e+00
3.039075e+01	-8.782950e+00
3.056628e+01	-8.826474e+00
3.074283e+01	-8.869774e+00
3.092040e+01	-8.913311e+00
3.109900e+01	-8.956961e+00
3.127862e+01	-9.000692e+00
3.145929e+01	-9.044265e+00
3.164099e+01	-9.088096e+00
3.182375e+01	-9.132370e+00
3.200756e+01	-9.176114e+00
3.219244e+01	-9.220375e+00
3.237838e+01	-9.263701e+00
3.256540e+01	-9.308120e+00
3.275349e+01	-9.352571e+00
3.294268e+01	-9.397096e+00
3.313295e+01	-9.441131e+00
3.332433e+01	-9.485451e+00
3.351681e+01	-9.529954e+00
3.371040e+01	-9.574535e+00
3.390511e+01	-9.618367e+00
3.410094e+01	-9.663738e+00
3.429791e+01	-9.708129e+00
3.449601e+01	-9.752986e+00
3.469526e+01	-9.797240e+00
3.489566e+01	-9.842437e+00
3.509721e+01	-9.886847e+00
3.529993e+01	-9.932315e+00
3.550382e+01	-9.976944e+00
3.570889e+01	-1.002223e+01
3.591515e+01	-1.006717e+01
3.612259e+01	-1.011249e+01
3.633123e+01	-1.015796e+01
3.654108e+01	-1.020222e+01
3.675214e+01	-1.024810e+01
3.696442e+01	-1.029394e+01
3.717792e+01	-1.033903e+01
3.739266e+01	-1.038407e+01
3.760864e+01	-1.042924e+01
3.782587e+01	-1.047511e+01
3.804435e+01	-1.052078e+01
3.826409e+01	-1.056649e+01
3.848510e+01	-1.061225e+01
3.870739e+01	-1.065743e+01
3.893096e+01	-1.070351e+01
3.915583e+01	-1.074860e+01
3.938199e+01	-1.079504e+01
3.960946e+01	-1.084123e+01
3.983824e+01	-1.088681e+01
4.006834e+01	-1.093290e+01
4.029978e+01	-1.097927e+01
4.053255e+01	-1.102521e+01
4.076666e+01	-1.107144e+01
4.100213e+01	-1.111680e+01
4.123896e+01	-1.116336e+01
4.147715e+01	-1.120980e+01
4.171672e+01	-1.125585e+01
4.195767e+01	-1.130294e+01
4.220002e+01	-1.134863e+01
4.244377e+01	-1.139457e+01
4.268892e+01	-1.144084e+01
4.293549e+01	-1.148750e+01
4.318348e+01	-1.153411e+01
4.343291e+01	-1.158066e+01
4.368377e+01	-1.162719e+01
4.393609e+01	-1.167337e+01
4.418986e+01	-1.172108e+01
4.444510e+01	-1.176653e+01
4.470182e+01	-1.181374e+01
4.496001e+01	-1.186062e+01
4.521970e+01	-1.190758e+01
4.548089e+01	-1.195378e+01
4.574358e+01	-1.200078e+01
4.600779e+01	-1.204848e+01
4.627353e+01	-1.209556e+01
4.654081e+01	-1.214184e+01
4.680963e+01	-1.218862e+01
4.708000e+01	-1.223622e+01
4.735193e+01	-1.228316e+01
4.762543e+01	-1.232938e+01
4.790051e+01	-1.237748e+01
4.817719e+01	-1.242391e+01
4.845545e+01	-1.247091e+01
4.873533e+01	-1.251901e+01
4.901682e+01	-1.256619e+01
4.929994e+01	-1.261291e+01
4.958470e+01	-1.266048e+01
4.987110e+01	-1.270724e+01
5.015915e+01	-1.275510e+01
5.044887e+01	-1.280305e+01
5.074026e+01	-1.285063e+01
5.103333e+01	-1.289683e+01
5.132810e+01	-1.294492e+01
5.162457e+01	-1.299279e+01
5.192275e+01	-1.304023e+01
5.222265e+01	-1.308785e+01
5.252429e+01	-1.313570e+01
5.282767e+01	-1.318255e+01
5.313280e+01	-1.323070e+01
5.343969e+01	-1.327805e+01
5.374836e+01	-1.332597e+01
5.405880e+01	-1.337353e+01
5.437105e+01	-1.342107e+01
5.468509e+01	-1.346882e+01
5.500095e+01	-1.351619e+01
5.531863e+01	-1.356451e+01
5.563815e+01	-1.361243e+01
5.595951e+01	-1.366040e+01
5.628273e+01	-1.370786e+01
5.660782e+01	-1.375556e+01
5.693479e+01	-1.380310e+01
5.726364e+01	-1.385253e+01
5.759439e+01	-1.390034e+01
5.792705e+01	-1.394800e+01
5.826164e+01	-1.399571e+01
5.859815e+01	-1.404361e+01
5.893662e+01	-1.409190e+01
5.927703e+01	-1.414044e+01
5.961941e+01	-1.418830e+01
5.996377e+01	-1.423550e+01
6.031012e+01	-1.428421e+01
6.065847e+01	-1.433213e+01
6.100883e+01	-1.438024e+01
6.136121e+01	-1.442892e+01
6.171563e+01	-1.447780e+01
6.207210e+01	-1.452584e+01
6.243063e+01	-1.457380e+01
6.279122e+01	-1.462174e+01
6.315390e+01	-1.467034e+01
6.351868e+01	-1.471863e+01
6.388556e+01	-1.476775e+01
6.425456e+01	-1.481496e+01
6.462569e+01	-1.486403e+01
6.499897e+01	-1.491237e+01
6.537440e+01	-1.496083e+01
6.575200e+01	-1.500910e+01
6.613178e+01	-1.505837e+01
6.651375e+01	-1.510629e+01
6.689793e+01	-1.515450e+01
6.728433e+01	-1.520329e+01
6.767297e+01	-1.525169e+01
6.806384e+01	-1.530034e+01
6.845698e+01	-1.534921e+01
6.885238e+01	-1.539711e+01
6.925007e+01	-1.544601e+01
6.965005e+01	-1.549478e+01
7.005235e+01	-1.554288e+01
7.045697e+01	-1.559192e+01
7.086393e+01	-1.563914e+01
7.127323e+01	-1.568942e+01
7.168490e+01	-1.573801e+01
7.209895e+01	-1.578693e+01
7.251539e+01	-1.583553e+01
7.293424e+01	-1.588414e+01
7.335551e+01	-1.593213e+01
7.377920e+01	-1.598118e+01
7.420535e+01	-1.603062e+01
7.463396e+01	-1.607854e+01
7.506504e+01	-1.612724e+01
7.549861e+01	-1.617714e+01
7.593469e+01	-1.622444e+01
7.637328e+01	-1.627414e+01
7.681441e+01	-1.632311e+01
7.725809e+01	-1.637149e+01
7.770433e+01	-1.642059e+01
7.815315e+01	-1.646975e+01
7.860456e+01	-1.651877e+01
7.905857e+01	-1.656678e+01
7.951521e+01	-1.661633e+01
7.997449e+01	-1.666411e+01
8.043642e+01	-1.671480e+01
8.090102e+01	-1.676470e+01
8.136830e+01	-1.681394e+01
8.183828e+01	-1.686206e+01
8.231097e+01	-1.691176e+01
8.278640e+01	-1.696074e+01
8.326457e+01	-1.700918e+01
8.374550e+01	-1.705741e+01
8.422921e+01	-1.710709e+01
8.471572e+01	-1.715535e+01
8.520503e+01	-1.720541e+01
8.569717e+01	-1.725391e+01
8.619215e+01	-1.730341e+01
8.669000e+01	-1.735209e+01
8.719071e+01	-1.740202e+01
8.769432e+01	-1.744854e+01
8.820084e+01	-1.749885e+01
8.871029e+01	-1.754851e+01
8.922267e+01	-1.759718e+01
8.973802e+01	-1.764672e+01
9.025634e+01	-1.769670e+01
9.077766e+01	-1.774551e+01
9.130199e+01	-1.779546e+01
9.182935e+01	-1.784267e+01
9.235975e+01	-1.789096e+01
9.289321e+01	-1.794088e+01
9.342976e+01	-1.799145e+01
9.396941e+01	-1.803933e+01
9.451217e+01	-1.808937e+01
9.505807e+01	-1.813922e+01
9.560712e+01	-1.818982e+01
9.615934e+01	-1.823710e+01
9.671476e+01	-1.828717e+01
9.727338e+01	-1.833605e+01
9.783522e+01	-1.838718e+01
9.840032e+01	-1.843536e+01
9.896867e+01	-1.848341e+01
9.954031e+01	-1.853368e+01
1.001153e+02	-1.858340e+01
1.006935e+02	-1.863164e+01
1.012751e+02	-1.868324e+01
1.018601e+02	-1.873052e+01
1.024484e+02	-1.877982e+01
1.030402e+02	-1.882968e+01
1.036353e+02	-1.887767e+01
1.042339e+02	-1.892884e+01
1.048360e+02	-1.897804e+01
1.054415e+02	-1.902802e+01
1.060505e+02	-1.907621e+01
1.066631e+02	-1.912505e+01
1.072791e+02	-1.917464e+01
1.078988e+02	-1.922509e+01
1.085220e+02	-1.927447e+01
1.091488e+02	-1.932358e+01
1.097793e+02	-1.937357e+01
1.104133e+02	-1.942348e+01
1.110511e+02	-1.947232e+01
1.116925e+02	-1.952313e+01
1.123376e+02	-1.957010e+01
1.129865e+02	-1.962030e+01
1.136391e+02	-1.967038e+01
1.142955e+02	-1.971804e+01
1.149556e+02	-1.976879e+01
1.156196e+02	-1.981777e+01
1.162874e+02	-1.986727e+01
1.169591e+02	-1.991715e+01
1.176347e+02	-1.996806e+01
1.183141e+02	-2.001718e+01
1.189975e+02	-2.006775e+01
1.196848e+02	-2.011651e+01
1.203761e+02	-2.016573e+01
1.210714e+02	-2.021506e+01
1.217707e+02	-2.026483e+01
1.224740e+02	-2.031442e+01
1.231814e+02	-2.036371e+01
1.238929e+02	-2.041330e+01
1.246085e+02	-2.046263e+01
1.253283e+02	-2.051339e+01
1.260522e+02	-2.056140e+01
1.267802e+02	-2.061107e+01
1.275125e+02	-2.065890e+01
1.282490e+02	-2.070985e+01
1.289898e+02	-2.076002e+01
1.297348e+02	-2.080975e+01
1.304842e+02	-2.085953e+01
1.312378e+02	-2.091015e+01
1.319959e+02	-2.096046e+01
1.327583e+02	-2.100888e+01
1.335251e+02	-2.105689e+01
1.342963e+02	-2.110649e+01
1.350720e+02	-2.115702e+01
1.358522e+02	-2.120714e+01
1.366368e+02	-2.125602e+01
1.374260e+02	-2.130650e+01
1.382198e+02	-2.135642e+01
1.390182e+02	-2.140628e+01
1.398211e+02	-2.145742e+01
1.406287e+02	-2.150559e+01
1.414410e+02	-2.155408e+01
1.422579e+02	-2.160391e+01
1.430796e+02	-2.165369e+01
1.439060e+02	-2.170295e+01
1.447372e+02	-2.175216e+01
1.455732e+02	-2.180557e+01
1.464141e+02	-2.185220e+01
1.472597e+02	-2.190302e+01
1.481103e+02	-2.195333e+01
1.489658e+02	-2.200193e+01
1.498262e+02	-2.205349e+01
1.506916e+02	-2.210056e+01
1.515620e+02	-2.215265e+01
1.524374e+02	-2.220324e+01
1.533179e+02	-2.225070e+01
1.542034e+02	-2.230035e+01
1.550941e+02	-2.235074e+01
1.559899e+02	-2.240140e+01
1.568909e+02	-2.244898e+01
1.577971e+02	-2.250027e+01
1.587085e+02	-2.254989e+01
1.596252e+02	-2.259861e+01
1.605472e+02	-2.264985e+01
1.614745e+02	-2.270012e+01
1.624072e+02	-2.274945e+01
1.633453e+02	-2.279831e+01
1.642887e+02	-2.284857e+01
1.652377e+02	-2.289840e+01
1.661921e+02	-2.294710e+01
1.671520e+02	-2.299884e+01
1.681175e+02	-2.304524e+01
1.690885e+02	-2.309443e+01
1.700651e+02	-2.314583e+01
1.710474e+02	-2.319511e+01
1.720354e+02	-2.324902e+01
1.730291e+02	-2.329495e+01
1.740285e+02	-2.334577e+01
1.750337e+02	-2.339496e+01
1.760446e+02	-2.344646e+01
1.770615e+02	-2.349805e+01
1.780842e+02	-2.354595e+01
1.791128e+02	-2.359482e+01
1.801473e+02	-2.364550e+01
1.811878e+02	-2.369398e+01
1.822344e+02	-2.374659e+01
1.832870e+02	-2.379672e+01
1.843456e+02	-2.384633e+01
1.854104e+02	-2.389250e+01
1.864813e+02	-2.394312e+01
1.875584e+02	-2.399409e+01
1.886418e+02	-2.404417e+01
1.897313e+02	-2.409370e+01
1.908272e+02	-2.414487e+01
1.919294e+02	-2.419200e+01
1.930380e+02	-2.424121e+01
1.941530e+02	-2.429043e+01
1.952744e+02	-2.434132e+01
1.964023e+02	-2.439224e+01
1.975367e+02	-2.444302e+01
1.986777e+02	-2.449042e+01
1.998252e+02	-2.454289e+01
2.009794e+02	-2.459148e+01
2.021403e+02	-2.464345e+01
2.033078e+02	-2.469336e+01
2.044821e+02	-2.474139e+01
2.056632e+02	-2.479168e+01
2.068511e+02	-2.484222e+01
2.080459e+02	-2.489409e+01
2.092475e+02	-2.494169e+01
2.104561e+02	-2.498842e+01
2.116717e+02	-2.504061e+01
2.128943e+02	-2.509113e+01
2.141240e+02	-2.514333e+01
2.153608e+02	-2.519073e+01
2.166047e+02	-2.524148e+01
2.178558e+02	-2.529023e+01
2.191141e+02	-2.534213e+01
2.203797e+02	-2.539099e+01
2.216526e+02	-2.543765e+01
2.229329e+02	-2.548940e+01
2.242205e+02	-2.554276e+01
2.255156e+02	-2.559034e+01
2.268182e+02	-2.564119e+01
2.281283e+02	-2.569229e+01
2.294459e+02	-2.574017e+01
2.307712e+02	-2.579076e+01
2.321041e+02	-2.583966e+01
2.334447e+02	-2.589139e+01
2.347931e+02	-2.594028e+01
2.361493e+02	-2.598693e+01
2.375133e+02	-2.603961e+01
2.388851e+02	-2.609075e+01
2.402649e+02	-2.613738e+01
2.416527e+02	-2.618892e+01
2.430484e+02	-2.624279e+01
2.444523e+02	-2.628483e+01
2.458642e+02	-2.633871e+01
2.472843e+02	-2.638902e+01
2.487126e+02	-2.643591e+01
2.501492e+02	-2.648971e+01
2.515940e+02	-2.653750e+01
2.530472e+02	-2.659054e+01
2.545088e+02	-2.663660e+01
2.559789e+02	-2.668976e+01
2.574574e+02	-2.673640e+01
2.589444e+02	-2.679005e+01
2.604401e+02	-2.683838e+01
2.619444e+02	-2.688672e+01
2.634574e+02	-2.693981e+01
2.649791e+02	-2.698868e+01
2.665096e+02	-2.704055e+01
2.680489e+02	-2.708964e+01
2.695972e+02	-2.714025e+01
2.711544e+02	-2.718427e+01
2.727205e+02	-2.724125e+01
2.742958e+02	-2.729261e+01
2.758801e+02	-2.734060e+01
2.774736e+02	-2.739132e+01
2.790762e+02	-2.743709e+01
2.806882e+02	-2.749183e+01
2.823094e+02	-2.753474e+01
2.839400e+02	-2.759026e+01
2.855800e+02	-2.763819e+01
2.872295e+02	-2.768857e+01
2.888886e+02	-2.773828e+01
2.905572e+02	-2.778951e+01
2.922354e+02	-2.784053e+01
2.939234e+02	-2.788686e+01
2.956211e+02	-2.793838e+01
2.973286e+02	-2.798903e+01
2.990459e+02	-2.803742e+01
3.007732e+02	-2.808615e+01
3.025104e+02	-2.813820e+01
3.042577e+02	-2.818723e+01
3.060151e+02	-2.824035e+01
3.077826e+02	-2.828771e+01
3.095604e+02	-2.834319e+01
3.113484e+02	-2.839074e+01
3.131467e+02	-2.843917e+01
3.149554e+02	-2.848613e+01
3.167746e+02	-2.854088e+01
3.186043e+02	-2.858687e+01
3.204445e+02	-2.864256e+01
3.222954e+02	-2.868596e+01
3.241570e+02	-2.874301e+01
3.260293e+02	-2.878769e+01
3.279124e+02	-2.884095e+01
3.298064e+02	-2.888667e+01
3.317114e+02	-2.894001e+01
3.336273e+02	-2.899014e+01
3.355544e+02	-2.903943e+01
3.374925e+02	-2.909181e+01
3.394418e+02	-2.914185e+01
3.414024e+02	-2.919243e+01
3.433744e+02	-2.924030e+01
3.453577e+02	-2.929071e+01
3.473525e+02	-2.933732e+01
3.493588e+02	-2.938730e+01
3.513766e+02	-2.943544e+01
3.534062e+02	-2.948950e+01
3.554474e+02	-2.954186e+01
3.575005e+02	-2.959332e+01
3.595654e+02	-2.963799e+01
3.616422e+02	-2.968786e+01
3.637311e+02	-2.973928e+01
3.658320e+02	-2.979378e+01
3.679450e+02	-2.983977e+01
3.700702e+02	-2.988913e+01
3.722077e+02	-2.994074e+01
3.743576e+02	-2.999024e+01
3.765199e+02	-3.004030e+01
3.786946e+02	-3.008887e+01
3.808820e+02	-3.014222e+01
3.830819e+02	-3.018984e+01
3.852946e+02	-3.023700e+01
3.875200e+02	-3.029274e+01
3.897583e+02	-3.033656e+01
3.920096e+02	-3.039208e+01
3.942738e+02	-3.044040e+01
3.965511e+02	-3.049728e+01
3.988416e+02	-3.054597e+01
4.011452e+02	-3.059054e+01
4.034622e+02	-3.063738e+01
4.057926e+02	-3.069391e+01
4.081365e+02	-3.074837e+01
4.104938e+02	-3.079029e+01
4.128648e+02	-3.084085e+01
4.152495e+02	-3.089048e+01
4.176480e+02	-3.094387e+01
4.200603e+02	-3.100060e+01
4.224866e+02	-3.104705e+01
4.249268e+02	-3.109026e+01
4.273812e+02	-3.114164e+01
4.298497e+02	-3.118707e+01
4.323325e+02	-3.124247e+01
4.348297e+02	-3.128903e+01
4.373412e+02	-3.134654e+01
4.398673e+02	-3.139675e+01
4.424079e+02	-3.144511e+01
4.449633e+02	-3.149441e+01
4.475334e+02	-3.154198e+01
4.501183e+02	-3.159670e+01
4.527182e+02	-3.164364e+01
4.553330e+02	-3.169983e+01
4.579630e+02	-3.174852e+01
4.606082e+02	-3.179367e+01
4.632687e+02	-3.184845e+01
4.659445e+02	-3.189969e+01
4.686358e+02	-3.194744e+01
4.713426e+02	-3.199508e+01
4.740650e+02	-3.204820e+01
4.768032e+02	-3.209508e+01
4.795572e+02	-3.214847e+01
4.823271e+02	-3.219429e+01
4.851130e+02	-3.224988e+01
4.879150e+02	-3.229365e+01
4.907332e+02	-3.234972e+01
4.935676e+02	-3.239967e+01
4.964185e+02	-3.244527e+01
4.992858e+02	-3.249560e+01
5.021696e+02	-3.254787e+01
5.050701e+02	-3.260568e+01
5.079874e+02	-3.264890e+01
5.109215e+02	-3.269721e+01
5.138726e+02	-3.275087e+01
5.168407e+02	-3.281059e+01
5.198259e+02	-3.284812e+01
5.228284e+02	-3.290561e+01
5.258482e+02	-3.295584e+01
5.288855e+02	-3.299897e+01
5.319403e+02	-3.304891e+01
5.350128e+02	-3.309523e+01
5.381030e+02	-3.315515e+01
5.412111e+02	-3.320305e+01
5.443371e+02	-3.325255e+01
5.474812e+02	-3.330503e+01
5.506434e+02	-3.334983e+01
5.538239e+02	-3.339966e+01
5.570228e+02	-3.344837e+01
5.602401e+02	-3.350404e+01
5.634760e+02	-3.354830e+01
5.667306e+02	-3.359929e+01
5.700040e+02	-3.364948e+01
5.732964e+02	-3.370410e+01
5.766077e+02	-3.375338e+01
5.799382e+02	-3.380478e+01
5.832879e+02	-3.385824e+01
5.866569e+02	-3.391332e+01
5.900454e+02	-3.395667e+01
5.934535e+02	-3.400459e+01
5.968813e+02	-3.405679e+01
6.003288e+02	-3.410762e+01
6.037963e+02	-3.415911e+01
6.072838e+02	-3.421279e+01
6.107914e+02	-3.425963e+01
6.143194e+02	-3.430615e+01
6.178676e+02	-3.435687e+01
6.214364e+02	-3.441183e+01
6.250258e+02	-3.446397e+01
6.286359e+02	-3.450770e+01
6.322669e+02	-3.455809e+01
6.359189e+02	-3.460956e+01
6.395919e+02	-3.465926e+01
6.432862e+02	-3.470297e+01
6.470017e+02	-3.476272e+01
6.507388e+02	-3.481063e+01
6.544974e+02	-3.486115e+01
6.582778e+02	-3.491333e+01
6.620800e+02	-3.495778e+01
6.659041e+02	-3.501391e+01
6.697504e+02	-3.505988e+01
6.736188e+02	-3.510996e+01
6.775096e+02	-3.515613e+01
6.814229e+02	-3.520858e+01
6.853587e+02	-3.526371e+01
6.893173e+02	-3.531260e+01
6.932988e+02	-3.536354e+01
6.973033e+02	-3.541583e+01
7.013309e+02	-3.545630e+01
