Frequency(Hz)	Magnitude(dB)
1.000000e+01	-2.207612e+00
1.005776e+01	-2.227300e+00
1.011585e+01	-2.247667e+00
1.017428e+01	-2.267998e+00
1.023305e+01	-2.288262e+00
1.029215e+01	-2.308807e+00
1.035160e+01	-2.329484e+00
1.041139e+01	-2.350447e+00
1.047153e+01	-2.371215e+00
1.053201e+01	-2.392426e+00
1.059284e+01	-2.413627e+00
1.065403e+01	-2.435269e+00
1.071556e+01	-2.456800e+00
1.077746e+01	-2.478352e+00
1.083971e+01	-2.500231e+00
1.090232e+01	-2.522387e+00
1.096529e+01	-2.544315e+00
1.102862e+01	-2.566591e+00
1.109232e+01	-2.588980e+00
1.115639e+01	-2.611381e+00
1.122083e+01	-2.634033e+00
1.128564e+01	-2.656992e+00
1.135083e+01	-2.680139e+00
1.141639e+01	-2.703139e+00
1.148233e+01	-2.726260e+00
1.154865e+01	-2.749680e+00
1.161536e+01	-2.773296e+00
1.168245e+01	-2.796827e+00
1.174992e+01	-2.820828e+00
1.181779e+01	-2.844838e+00
1.188605e+01	-2.868844e+00
1.195470e+01	-2.893033e+00
1.202375e+01	-2.917455e+00
1.209320e+01	-2.942068e+00
1.216305e+01	-2.966654e+00
1.223330e+01	-2.991518e+00
1.230396e+01	-3.016440e+00
1.237503e+01	-3.041734e+00
1.244651e+01	-3.066431e+00
1.251840e+01	-3.092283e+00
1.259070e+01	-3.117706e+00
1.266343e+01	-3.143668e+00
1.273657e+01	-3.169395e+00
1.281014e+01	-3.195378e+00
1.288413e+01	-3.221444e+00
1.295855e+01	-3.247576e+00
1.303339e+01	-3.274035e+00
1.310867e+01	-3.300606e+00
1.318439e+01	-3.327422e+00
1.326054e+01	-3.354133e+00
1.333713e+01	-3.381169e+00
1.341417e+01	-3.408551e+00
1.349165e+01	-3.435694e+00
1.356958e+01	-3.463116e+00
1.364795e+01	-3.490818e+00
1.372678e+01	-3.518380e+00
1.380607e+01	-3.546449e+00
1.388581e+01	-3.574162e+00
1.396602e+01	-3.602243e+00
1.404668e+01	-3.630914e+00
1.412782e+01	-3.659034e+00
1.420942e+01	-3.687632e+00
1.429149e+01	-3.715986e+00
1.437404e+01	-3.744749e+00
1.445706e+01	-3.773870e+00
1.454057e+01	-3.802985e+00
1.462455e+01	-3.832498e+00
1.470902e+01	-3.861789e+00
1.479398e+01	-3.891127e+00
1.487943e+01	-3.921160e+00
1.496537e+01	-3.950880e+00
1.505181e+01	-3.980815e+00
1.513875e+01	-4.010675e+00
1.522619e+01	-4.041114e+00
1.531414e+01	-4.071507e+00
1.540259e+01	-4.102012e+00
1.549156e+01	-4.132618e+00
1.558103e+01	-4.163367e+00
1.567103e+01	-4.194257e+00
1.576155e+01	-4.225496e+00
1.585258e+01	-4.256523e+00
1.594415e+01	-4.287839e+00
1.603624e+01	-4.319130e+00
1.612886e+01	-4.351107e+00
1.622202e+01	-4.382648e+00
1.631572e+01	-4.414465e+00
1.640996e+01	-4.446315e+00
1.650474e+01	-4.478677e+00
1.660008e+01	-4.510650e+00
1.669596e+01	-4.543354e+00
1.679239e+01	-4.575886e+00
1.688938e+01	-4.608335e+00
1.698694e+01	-4.641191e+00
1.708505e+01	-4.674048e+00
1.718373e+01	-4.707153e+00
1.728299e+01	-4.740308e+00
1.738281e+01	-4.773707e+00
1.748322e+01	-4.806804e+00
1.758420e+01	-4.840565e+00
1.768576e+01	-4.874140e+00
1.778792e+01	-4.908073e+00
1.789066e+01	-4.942261e+00
1.799399e+01	-4.975806e+00
1.809793e+01	-5.010413e+00
1.820246e+01	-5.044445e+00
1.830760e+01	-5.079010e+00
1.841334e+01	-5.113634e+00
1.851969e+01	-5.148543e+00
1.862666e+01	-5.182840e+00
1.873425e+01	-5.217880e+00
1.884246e+01	-5.252791e+00
1.895129e+01	-5.288295e+00
1.906075e+01	-5.323474e+00
1.917085e+01	-5.358952e+00
1.928158e+01	-5.394283e+00
1.939295e+01	-5.429901e+00
1.950496e+01	-5.465428e+00
1.961762e+01	-5.501520e+00
1.973093e+01	-5.537842e+00
1.984490e+01	-5.573613e+00
1.995952e+01	-5.609876e+00
2.007480e+01	-5.646097e+00
2.019076e+01	-5.682624e+00
2.030738e+01	-5.719158e+00
2.042467e+01	-5.755802e+00
2.054264e+01	-5.792665e+00
2.066130e+01	-5.829694e+00
2.078064e+01	-5.866482e+00
2.090066e+01	-5.903712e+00
2.102139e+01	-5.940798e+00
2.114280e+01	-5.978240e+00
2.126492e+01	-6.015785e+00
2.138775e+01	-6.053341e+00
2.151128e+01	-6.090950e+00
2.163553e+01	-6.128813e+00
2.176050e+01	-6.166770e+00
2.188619e+01	-6.205124e+00
2.201260e+01	-6.242857e+00
2.213974e+01	-6.280976e+00
2.226762e+01	-6.319058e+00
2.239624e+01	-6.357540e+00
2.252560e+01	-6.396334e+00
2.265571e+01	-6.434836e+00
2.278656e+01	-6.473194e+00
2.291818e+01	-6.512202e+00
2.305055e+01	-6.551370e+00
2.318369e+01	-6.590294e+00
2.331760e+01	-6.629298e+00
2.345228e+01	-6.668541e+00
2.358774e+01	-6.707729e+00
2.372398e+01	-6.747465e+00
2.386101e+01	-6.786760e+00
2.399883e+01	-6.825743e+00
2.413745e+01	-6.865677e+00
2.427686e+01	-6.905506e+00
2.441709e+01	-6.945521e+00
2.455812e+01	-6.985922e+00
2.469997e+01	-7.025152e+00
2.484263e+01	-7.065700e+00
2.498612e+01	-7.105754e+00
2.513044e+01	-7.146145e+00
2.527559e+01	-7.186548e+00
2.542158e+01	-7.227306e+00
2.556842e+01	-7.267457e+00
2.571610e+01	-7.308443e+00
2.586463e+01	-7.349322e+00
2.601403e+01	-7.390132e+00
2.616428e+01	-7.431119e+00
2.631541e+01	-7.472182e+00
2.646740e+01	-7.513347e+00
2.662028e+01	-7.554551e+00
2.677404e+01	-7.595402e+00
2.692868e+01	-7.637477e+00
2.708422e+01	-7.678596e+00
2.724066e+01	-7.719754e+00
2.739800e+01	-7.761743e+00
2.755625e+01	-7.803520e+00
2.771541e+01	-7.845063e+00
2.787550e+01	-7.886991e+00
2.803650e+01	-7.928989e+00
2.819844e+01	-7.971139e+00
2.836131e+01	-8.012756e+00
2.852513e+01	-8.055088e+00
2.868989e+01	-8.097277e+00
2.885560e+01	-8.139905e+00
2.902227e+01	-8.181817e+00
2.918990e+01	-8.224774e+00
2.935850e+01	-8.267304e+00
2.952807e+01	-8.310213e+00
2.969863e+01	-8.352091e+00
2.987016e+01	-8.394570e+00
3.004269e+01	-8.437794e+00
3.021622e+01	-8.481364e+00
3.039075e+01	-8.524226e+00
3.056628e+01	-8.566890e+00
3.074283e+01	-8.609688e+00
3.092040e+01	-8.652914e+00
3.109900e+01	-8.696404e+00
3.127862e+01	-8.739321e+00
3.145929e+01	-8.783073e+00
3.164099e+01	-8.826375e+00
3.182375e+01	-8.870366e+00
3.200756e+01	-8.913471e+00
3.219244e+01	-8.956813e+00
3.237838e+01	-9.000918e+00
3.256540e+01	-9.044494e+00
3.275349e+01	-9.088199e+00
3.294268e+01	-9.132384e+00
3.313295e+01	-9.176053e+00
3.332433e+01	-9.220496e+00
3.351681e+01	-9.264142e+00
3.371040e+01	-9.308574e+00
3.390511e+01	-9.352571e+00
3.410094e+01	-9.396834e+00
3.429791e+01	-9.441415e+00
3.449601e+01	-9.485462e+00
3.469526e+01	-9.530114e+00
3.489566e+01	-9.574577e+00
3.509721e+01	-9.619005e+00
3.529993e+01	-9.662908e+00
3.550382e+01	-9.708389e+00
3.570889e+01	-9.752999e+00
3.591515e+01	-9.797627e+00
3.612259e+01	-9.842232e+00
3.633123e+01	-9.887803e+00
3.654108e+01	-9.931927e+00
3.675214e+01	-9.977889e+00
3.696442e+01	-1.002263e+01
3.717792e+01	-1.006701e+01
3.739266e+01	-1.011231e+01
3.760864e+01	-1.015816e+01
3.782587e+01	-1.020334e+01
3.804435e+01	-1.024841e+01
3.826409e+01	-1.029310e+01
3.848510e+01	-1.033898e+01
3.870739e+01	-1.038412e+01
3.893096e+01	-1.042967e+01
3.915583e+01	-1.047544e+01
3.938199e+01	-1.052056e+01
3.960946e+01	-1.056636e+01
3.983824e+01	-1.061211e+01
4.006834e+01	-1.065754e+01
4.029978e+01	-1.070313e+01
4.053255e+01	-1.074899e+01
4.076666e+01	-1.079514e+01
4.100213e+01	-1.084128e+01
4.123896e+01	-1.088689e+01
4.147715e+01	-1.093321e+01
4.171672e+01	-1.097891e+01
4.195767e+01	-1.102464e+01
4.220002e+01	-1.107123e+01
4.244377e+01	-1.111730e+01
4.268892e+01	-1.116317e+01
4.293549e+01	-1.121010e+01
4.318348e+01	-1.125588e+01
4.343291e+01	-1.130211e+01
4.368377e+01	-1.134787e+01
4.393609e+01	-1.139535e+01
4.418986e+01	-1.144085e+01
4.444510e+01	-1.148833e+01
4.470182e+01	-1.153382e+01
4.496001e+01	-1.158097e+01
4.521970e+01	-1.162755e+01
4.548089e+01	-1.167433e+01
4.574358e+01	-1.172058e+01
4.600779e+01	-1.176713e+01
4.627353e+01	-1.181426e+01
4.654081e+01	-1.186073e+01
4.680963e+01	-1.190729e+01
4.708000e+01	-1.195451e+01
4.735193e+01	-1.200153e+01
4.762543e+01	-1.204835e+01
4.790051e+01	-1.209605e+01
4.817719e+01	-1.214167e+01
4.845545e+01	-1.219013e+01
4.873533e+01	-1.223543e+01
4.901682e+01	-1.228313e+01
4.929994e+01	-1.233048e+01
4.958470e+01	-1.237724e+01
4.987110e+01	-1.242504e+01
5.015915e+01	-1.247204e+01
5.044887e+01	-1.251919e+01
5.074026e+01	-1.256630e+01
5.103333e+01	-1.261362e+01
5.132810e+01	-1.266066e+01
5.162457e+01	-1.270828e+01
5.192275e+01	-1.275541e+01
5.222265e+01	-1.280319e+01
5.252429e+01	-1.284932e+01
5.282767e+01	-1.289725e+01
5.313280e+01	-1.294522e+01
5.343969e+01	-1.299261e+01
5.374836e+01	-1.304022e+01
5.405880e+01	-1.308752e+01
5.437105e+01	-1.313515e+01
5.468509e+01	-1.318256e+01
5.500095e+01	-1.322994e+01
5.531863e+01	-1.327764e+01
5.563815e+01	-1.332623e+01
5.595951e+01	-1.337388e+01
5.628273e+01	-1.342118e+01
5.660782e+01	-1.346949e+01
5.693479e+01	-1.351704e+01
5.726364e+01	-1.356485e+01
5.759439e+01	-1.361254e+01
5.792705e+01	-1.366066e+01
5.826164e+01	-1.370799e+01
5.859815e+01	-1.375542e+01
5.893662e+01	-1.380413e+01
5.927703e+01	-1.385222e+01
5.961941e+01	-1.390067e+01
5.996377e+01	-1.394841e+01
6.031012e+01	-1.399575e+01
6.065847e+01	-1.404467e+01
6.100883e+01	-1.409235e+01
6.136121e+01	-1.414070e+01
6.171563e+01	-1.418852e+01
6.207210e+01	-1.423639e+01
6.243063e+01	-1.428506e+01
6.279122e+01	-1.433317e+01
6.315390e+01	-1.438082e+01
6.351868e+01	-1.442945e+01
6.388556e+01	-1.447793e+01
6.425456e+01	-1.452522e+01
6.462569e+01	-1.457453e+01
6.499897e+01	-1.462220e+01
6.537440e+01	-1.467027e+01
6.575200e+01	-1.471861e+01
6.613178e+01	-1.476775e+01
6.651375e+01	-1.481646e+01
6.689793e+01	-1.486382e+01
6.728433e+01	-1.491223e+01
6.767297e+01	-1.496126e+01
6.806384e+01	-1.500917e+01
6.845698e+01	-1.505802e+01
6.885238e+01	-1.510527e+01
6.925007e+01	-1.515436e+01
6.965005e+01	-1.520424e+01
7.005235e+01	-1.525236e+01
7.045697e+01	-1.530075e+01
7.086393e+01	-1.534889e+01
7.127323e+01	-1.539781e+01
7.168490e+01	-1.544628e+01
7.209895e+01	-1.549494e+01
7.251539e+01	-1.554323e+01
7.293424e+01	-1.559164e+01
7.335551e+01	-1.564036e+01
7.377920e+01	-1.568878e+01
7.420535e+01	-1.573827e+01
7.463396e+01	-1.578684e+01
7.506504e+01	-1.583500e+01
7.549861e+01	-1.588443e+01
7.593469e+01	-1.593324e+01
7.637328e+01	-1.598139e+01
7.681441e+01	-1.603051e+01
7.725809e+01	-1.607872e+01
7.770433e+01	-1.612804e+01
7.815315e+01	-1.617612e+01
7.860456e+01	-1.622539e+01
7.905857e+01	-1.627511e+01
7.951521e+01	-1.632389e+01
7.997449e+01	-1.637176e+01
8.043642e+01	-1.642104e+01
8.090102e+01	-1.647016e+01
8.136830e+01	-1.652027e+01
8.183828e+01	-1.656793e+01
8.231097e+01	-1.661721e+01
8.278640e+01	-1.666552e+01
8.326457e+01	-1.671506e+01
8.374550e+01	-1.676315e+01
8.422921e+01	-1.681461e+01
8.471572e+01	-1.686064e+01
8.520503e+01	-1.691036e+01
8.569717e+01	-1.695966e+01
8.619215e+01	-1.700993e+01
8.669000e+01	-1.705710e+01
8.719071e+01	-1.710722e+01
8.769432e+01	-1.715573e+01
8.820084e+01	-1.720474e+01
8.871029e+01	-1.725407e+01
8.922267e+01	-1.730234e+01
8.973802e+01	-1.735246e+01
9.025634e+01	-1.740101e+01
9.077766e+01	-1.744991e+01
9.130199e+01	-1.749986e+01
9.182935e+01	-1.754839e+01
9.235975e+01	-1.759863e+01
9.289321e+01	-1.764577e+01
9.342976e+01	-1.769523e+01
9.396941e+01	-1.774440e+01
9.451217e+01	-1.779507e+01
9.505807e+01	-1.784475e+01
9.560712e+01	-1.789349e+01
9.615934e+01	-1.794088e+01
9.671476e+01	-1.799198e+01
9.727338e+01	-1.803975e+01
9.783522e+01	-1.809095e+01
9.840032e+01	-1.813930e+01
9.896867e+01	-1.818725e+01
9.954031e+01	-1.823830e+01
1.001153e+02	-1.828663e+01
1.006935e+02	-1.833631e+01
1.012751e+02	-1.838661e+01
1.018601e+02	-1.843466e+01
1.024484e+02	-1.848467e+01
1.030402e+02	-1.853320e+01
1.036353e+02	-1.858346e+01
1.042339e+02	-1.863183e+01
1.048360e+02	-1.868200e+01
1.054415e+02	-1.873004e+01
1.060505e+02	-1.877987e+01
1.066631e+02	-1.882934e+01
1.072791e+02	-1.887912e+01
1.078988e+02	-1.892917e+01
1.085220e+02	-1.897750e+01
1.091488e+02	-1.902673e+01
1.097793e+02	-1.907726e+01
1.104133e+02	-1.912666e+01
1.110511e+02	-1.917610e+01
1.116925e+02	-1.922496e+01
1.123376e+02	-1.927310e+01
1.129865e+02	-1.932403e+01
1.136391e+02	-1.937378e+01
1.142955e+02	-1.942206e+01
1.149556e+02	-1.947168e+01
1.156196e+02	-1.952108e+01
1.162874e+02	-1.957151e+01
1.169591e+02	-1.962062e+01
1.176347e+02	-1.967005e+01
1.183141e+02	-1.971916e+01
1.189975e+02	-1.976852e+01
1.196848e+02	-1.981916e+01
1.203761e+02	-1.986772e+01
1.210714e+02	-1.991860e+01
1.217707e+02	-1.996704e+01
1.224740e+02	-2.001657e+01
1.231814e+02	-2.006446e+01
1.238929e+02	-2.011684e+01
1.246085e+02	-2.016557e+01
1.253283e+02	-2.021404e+01
1.260522e+02	-2.026499e+01
1.267802e+02	-2.031615e+01
1.275125e+02	-2.036460e+01
1.282490e+02	-2.041390e+01
1.289898e+02	-2.046314e+01
1.297348e+02	-2.051290e+01
1.304842e+02	-2.056193e+01
1.312378e+02	-2.061301e+01
1.319959e+02	-2.066110e+01
1.327583e+02	-2.071057e+01
1.335251e+02	-2.076133e+01
1.342963e+02	-2.081008e+01
1.350720e+02	-2.085962e+01
1.358522e+02	-2.091020e+01
1.366368e+02	-2.095907e+01
1.374260e+02	-2.101037e+01
1.382198e+02	-2.105862e+01
1.390182e+02	-2.110690e+01
1.398211e+02	-2.115980e+01
1.406287e+02	-2.120895e+01
1.414410e+02	-2.125710e+01
1.422579e+02	-2.130790e+01
1.430796e+02	-2.135668e+01
1.439060e+02	-2.140658e+01
1.447372e+02	-2.145514e+01
1.455732e+02	-2.150599e+01
1.464141e+02	-2.155512e+01
1.472597e+02	-2.160341e+01
1.481103e+02	-2.165417e+01
1.489658e+02	-2.170463e+01
1.498262e+02	-2.175464e+01
1.506916e+02	-2.180401e+01
1.515620e+02	-2.185435e+01
1.524374e+02	-2.190335e+01
1.533179e+02	-2.195205e+01
1.542034e+02	-2.200203e+01
1.550941e+02	-2.204912e+01
1.559899e+02	-2.210109e+01
1.568909e+02	-2.215201e+01
1.577971e+02	-2.220149e+01
1.587085e+02	-2.225073e+01
1.596252e+02	-2.230141e+01
1.605472e+02	-2.235167e+01
1.614745e+02	-2.239868e+01
1.624072e+02	-2.244856e+01
1.633453e+02	-2.250025e+01
1.642887e+02	-2.254885e+01
1.652377e+02	-2.259786e+01
1.661921e+02	-2.264949e+01
1.671520e+02	-2.269852e+01
1.681175e+02	-2.274990e+01
1.690885e+02	-2.280173e+01
1.700651e+02	-2.284918e+01
1.710474e+02	-2.289938e+01
1.720354e+02	-2.294845e+01
1.730291e+02	-2.299457e+01
1.740285e+02	-2.304660e+01
1.750337e+02	-2.309737e+01
1.760446e+02	-2.314690e+01
1.770615e+02	-2.319734e+01
1.780842e+02	-2.324777e+01
1.791128e+02	-2.329646e+01
1.801473e+02	-2.334684e+01
1.811878e+02	-2.339720e+01
1.822344e+02	-2.344421e+01
1.832870e+02	-2.349726e+01
1.843456e+02	-2.354498e+01
1.854104e+02	-2.359545e+01
1.864813e+02	-2.364617e+01
1.875584e+02	-2.369619e+01
1.886418e+02	-2.374435e+01
1.897313e+02	-2.379404e+01
1.908272e+02	-2.384588e+01
1.919294e+02	-2.389403e+01
1.930380e+02	-2.394466e+01
1.941530e+02	-2.399375e+01
1.952744e+02	-2.404269e+01
1.964023e+02	-2.409292e+01
1.975367e+02	-2.414286e+01
1.986777e+02	-2.419443e+01
1.998252e+02	-2.424214e+01
2.009794e+02	-2.429383e+01
2.021403e+02	-2.434357e+01
2.033078e+02	-2.439418e+01
2.044821e+02	-2.444266e+01
2.056632e+02	-2.449446e+01
2.068511e+02	-2.454424e+01
2.080459e+02	-2.459189e+01
2.092475e+02	-2.464260e+01
2.104561e+02	-2.469324e+01
2.116717e+02	-2.474271e+01
2.128943e+02	-2.479339e+01
2.141240e+02	-2.484050e+01
2.153608e+02	-2.489278e+01
2.166047e+02	-2.494299e+01
2.178558e+02	-2.499183e+01
2.191141e+02	-2.504346e+01
2.203797e+02	-2.509728e+01
2.216526e+02	-2.514181e+01
2.229329e+02	-2.519370e+01
2.242205e+02	-2.524027e+01
2.255156e+02	-2.529050e+01
2.268182e+02	-2.534142e+01
2.281283e+02	-2.539224e+01
2.294459e+02	-2.544034e+01
2.307712e+02	-2.548793e+01
2.321041e+02	-2.554184e+01
2.334447e+02	-2.559216e+01
2.347931e+02	-2.564019e+01
2.361493e+02	-2.569521e+01
2.375133e+02	-2.573794e+01
2.388851e+02	-2.579310e+01
2.402649e+02	-2.584257e+01
2.416527e+02	-2.589030e+01
2.430484e+02	-2.594153e+01
2.444523e+02	-2.599133e+01
2.458642e+02	-2.604185e+01
2.472843e+02	-2.609227e+01
2.487126e+02	-2.614196e+01
2.501492e+02	-2.619237e+01
2.515940e+02	-2.624086e+01
2.530472e+02	-2.628644e+01
2.545088e+02	-2.634163e+01
2.559789e+02	-2.638928e+01
2.574574e+02	-2.644079e+01
2.589444e+02	-2.649161e+01
2.604401e+02	-2.654207e+01
2.619444e+02	-2.659008e+01
2.634574e+02	-2.664067e+01
2.649791e+02	-2.669208e+01
2.665096e+02	-2.673805e+01
2.680489e+02	-2.679069e+01
2.695972e+02	-2.683722e+01
2.711544e+02	-2.689133e+01
2.727205e+02	-2.693920e+01
2.742958e+02	-2.699423e+01
2.758801e+02	-2.703941e+01
2.774736e+02	-2.708842e+01
2.790762e+02	-2.714107e+01
2.806882e+02	-2.718685e+01
2.823094e+02	-2.724309e+01
2.839400e+02	-2.728542e+01
2.855800e+02	-2.734001e+01
2.872295e+02	-2.738994e+01
2.888886e+02	-2.743852e+01
2.905572e+02	-2.749103e+01
2.922354e+02	-2.753969e+01
2.939234e+02	-2.759293e+01
2.956211e+02	-2.763680e+01
2.973286e+02	-2.768989e+01
2.990459e+02	-2.773812e+01
3.007732e+02	-2.779043e+01
3.025104e+02	-2.783739e+01
3.042577e+02	-2.788706e+01
3.060151e+02	-2.794182e+01
3.077826e+02	-2.799114e+01
3.095604e+02	-2.803965e+01
3.113484e+02	-2.809114e+01
3.131467e+02	-2.813576e+01
3.149554e+02	-2.819011e+01
3.167746e+02	-2.823972e+01
3.186043e+02	-2.829138e+01
3.204445e+02	-2.833966e+01
3.222954e+02	-2.839021e+01
3.241570e+02	-2.844398e+01
3.260293e+02	-2.849386e+01
3.279124e+02	-2.853843e+01
3.298064e+02	-2.859560e+01
3.317114e+02	-2.863584e+01
3.336273e+02	-2.869160e+01
3.355544e+02	-2.874248e+01
3.374925e+02	-2.879620e+01
3.394418e+02	-2.883400e+01
3.414024e+02	-2.889046e+01
3.433744e+02	-2.894295e+01
3.453577e+02	-2.898986e+01
3.473525e+02	-2.903940e+01
3.493588e+02	-2.908785e+01
3.513766e+02	-2.914074e+01
3.534062e+02	-2.919073e+01
3.554474e+02	-2.924317e+01
3.575005e+02	-2.928531e+01
3.595654e+02	-2.934561e+01
3.616422e+02	-2.938995e+01
3.637311e+02	-2.944640e+01
3.658320e+02	-2.949458e+01
3.679450e+02	-2.954211e+01
3.700702e+02	-2.959520e+01
3.722077e+02	-2.964223e+01
3.743576e+02	-2.969136e+01
3.765199e+02	-2.973746e+01
3.786946e+02	-2.978770e+01
3.808820e+02	-2.984248e+01
3.830819e+02	-2.989206e+01
3.852946e+02	-2.994207e+01
3.875200e+02	-2.999997e+01
3.897583e+02	-3.004057e+01
3.920096e+02	-3.009263e+01
3.942738e+02	-3.014481e+01
3.965511e+02	-3.019126e+01
3.988416e+02	-3.023653e+01
4.011452e+02	-3.029405e+01
4.034622e+02	-3.034991e+01
4.057926e+02	-3.038668e+01
4.081365e+02	-3.044504e+01
4.104938e+02	-3.049279e+01
4.128648e+02	-3.054411e+01
4.152495e+02	-3.059454e+01
4.176480e+02	-3.064549e+01
4.200603e+02	-3.069891e+01
4.224866e+02	-3.075203e+01
4.249268e+02	-3.079647e+01
4.273812e+02	-3.084523e+01
4.298497e+02	-3.089558e+01
4.323325e+02	-3.094307e+01
4.348297e+02	-3.099523e+01
4.373412e+02	-3.104720e+01
4.398673e+02	-3.109271e+01
4.424079e+02	-3.114810e+01
4.449633e+02	-3.119425e+01
4.475334e+02	-3.125054e+01
4.501183e+02	-3.129704e+01
4.527182e+02	-3.135158e+01
4.553330e+02	-3.139863e+01
4.579630e+02	-3.144619e+01
4.606082e+02	-3.149669e+01
4.632687e+02	-3.154405e+01
4.659445e+02	-3.160162e+01
4.686358e+02	-3.164866e+01
4.713426e+02	-3.169308e+01
4.740650e+02	-3.174598e+01
4.768032e+02	-3.179767e+01
4.795572e+02	-3.184839e+01
4.823271e+02	-3.189690e+01
4.851130e+02	-3.194442e+01
4.879150e+02	-3.200195e+01
4.907332e+02	-3.204658e+01
4.935676e+02	-3.210537e+01
4.964185e+02	-3.214792e+01
4.992858e+02	-3.220318e+01
5.021696e+02	-3.224357e+01
5.050701e+02	-3.230444e+01
5.079874e+02	-3.234917e+01
5.109215e+02	-3.240068e+01
5.138726e+02	-3.244963e+01
5.168407e+02	-3.250046e+01
5.198259e+02	-3.255078e+01
5.228284e+02	-3.259894e+01
5.258482e+02	-3.265246e+01
5.288855e+02	-3.270123e+01
5.319403e+02	-3.274814e+01
5.350128e+02	-3.280619e+01
5.381030e+02	-3.284961e+01
5.412111e+02	-3.290307e+01
5.443371e+02	-3.295370e+01
5.474812e+02	-3.300711e+01
5.506434e+02	-3.305842e+01
5.538239e+02	-3.310348e+01
5.570228e+02	-3.314948e+01
5.602401e+02	-3.320385e+01
5.634760e+02	-3.325691e+01
5.667306e+02	-3.330901e+01
5.700040e+02	-3.335202e+01
5.732964e+02	-3.340135e+01
5.766077e+02	-3.345818e+01
5.799382e+02	-3.350399e+01
5.832879e+02	-3.355347e+01
5.866569e+02	-3.360286e+01
5.900454e+02	-3.365487e+01
5.934535e+02	-3.370774e+01
5.968813e+02	-3.375698e+01
6.003288e+02	-3.380656e+01
6.037963e+02	-3.385650e+01
6.072838e+02	-3.390846e+01
6.107914e+02	-3.395661e+01
6.143194e+02	-3.400005e+01
6.178676e+02	-3.406080e+01
6.214364e+02	-3.410655e+01
6.250258e+02	-3.415284e+01
6.286359e+02	-3.421120e+01
6.322669e+02	-3.425487e+01
6.359189e+02	-3.430937e+01
6.395919e+02	-3.436282e+01
6.432862e+02	-3.441608e+01
6.470017e+02	-3.446344e+01
6.507388e+02	-3.451722e+01
6.544974e+02	-3.455544e+01
6.582778e+02	-3.461645e+01
6.620800e+02	-3.466249e+01
6.659041e+02	-3.471412e+01
6.697504e+02	-3.475288e+01
6.736188e+02	-3.481288e+01
6.775096e+02	-3.486263e+01
6.814229e+02	-3.491006e+01
6.853587e+02	-3.495984e+01
6.893173e+02	-3.501781e+01
6.932988e+02	-3.507723e+01
6.973033e+02	-3.511078e+01
7.013309e+02	-3.516599e+01
