Frequency(Hz)	Magnitude(dB)
1.000000e+01	-1.452150e-05
1.005776e+01	-1.468973e-05
1.011585e+01	-1.485992e-05
1.017428e+01	-1.503207e-05
1.023305e+01	-1.520622e-05
1.029215e+01	-1.538239e-05
1.035160e+01	-1.556060e-05
1.041139e+01	-1.574087e-05
1.047153e+01	-1.592324e-05
1.053201e+01	-1.610771e-05
1.059284e+01	-1.629432e-05
1.065403e+01	-1.648310e-05
1.071556e+01	-1.667406e-05
1.077746e+01	-1.686723e-05
1.083971e+01	-1.706264e-05
1.090232e+01	-1.726032e-05
1.096529e+01	-1.746028e-05
1.102862e+01	-1.766256e-05
1.109232e+01	-1.786719e-05
1.115639e+01	-1.807419e-05
1.122083e+01	-1.828358e-05
1.128564e+01	-1.849540e-05
1.135083e+01	-1.870967e-05
1.141639e+01	-1.892643e-05
1.148233e+01	-1.914570e-05
1.154865e+01	-1.936751e-05
1.161536e+01	-1.959188e-05
1.168245e+01	-1.981886e-05
1.174992e+01	-2.004847e-05
1.181779e+01	-2.028073e-05
1.188605e+01	-2.051569e-05
1.195470e+01	-2.075337e-05
1.202375e+01	-2.099380e-05
1.209320e+01	-2.123702e-05
1.216305e+01	-2.148306e-05
1.223330e+01	-2.173194e-05
1.230396e+01	-2.198371e-05
1.237503e+01	-2.223840e-05
1.244651e+01	-2.249604e-05
1.251840e+01	-2.275666e-05
1.259070e+01	-2.302030e-05
1.266343e+01	-2.328700e-05
1.273657e+01	-2.355678e-05
1.281014e+01	-2.382969e-05
1.288413e+01	-2.410577e-05
1.295855e+01	-2.438504e-05
1.303339e+01	-2.466755e-05
1.310867e+01	-2.495333e-05
1.318439e+01	-2.524242e-05
1.326054e+01	-2.553486e-05
1.333713e+01	-2.583068e-05
1.341417e+01	-2.612994e-05
1.349165e+01	-2.643266e-05
1.356958e+01	-2.673889e-05
1.364795e+01	-2.704866e-05
1.372678e+01	-2.736203e-05
1.380607e+01	-2.767903e-05
1.388581e+01	-2.799969e-05
1.396602e+01	-2.832408e-05
1.404668e+01	-2.865222e-05
1.412782e+01	-2.898416e-05
1.420942e+01	-2.931995e-05
1.429149e+01	-2.965963e-05
1.437404e+01	-3.000324e-05
1.445706e+01	-3.035084e-05
1.454057e+01	-3.070246e-05
1.462455e+01	-3.105815e-05
1.470902e+01	-3.141797e-05
1.479398e+01	-3.178196e-05
1.487943e+01	-3.215016e-05
1.496537e+01	-3.252262e-05
1.505181e+01	-3.289941e-05
1.513875e+01	-3.328055e-05
1.522619e+01	-3.366612e-05
1.531414e+01	-3.405615e-05
1.540259e+01	-3.445070e-05
1.549156e+01	-3.484981e-05
1.558103e+01	-3.525356e-05
1.567103e+01	-3.566198e-05
1.576155e+01	-3.607513e-05
1.585258e+01	-3.649307e-05
1.594415e+01	-3.691585e-05
1.603624e+01	-3.734353e-05
1.612886e+01	-3.777616e-05
1.622202e+01	-3.821381e-05
1.631572e+01	-3.865652e-05
1.640996e+01	-3.910437e-05
1.650474e+01	-3.955740e-05
1.660008e+01	-4.001568e-05
1.669596e+01	-4.047927e-05
1.679239e+01	-4.094823e-05
1.688938e+01	-4.142263e-05
1.698694e+01	-4.190252e-05
1.708505e+01	-4.238797e-05
1.718373e+01	-4.287904e-05
1.728299e+01	-4.337581e-05
1.738281e+01	-4.387832e-05
1.748322e+01	-4.438666e-05
1.758420e+01	-4.490089e-05
1.768576e+01	-4.542108e-05
1.778792e+01	-4.594729e-05
1.789066e+01	-4.647960e-05
1.799399e+01	-4.701808e-05
1.809793e+01	-4.756279e-05
1.820246e+01	-4.811382e-05
1.830760e+01	-4.867123e-05
1.841334e+01	-4.923510e-05
1.851969e+01	-4.980549e-05
1.862666e+01	-5.038250e-05
1.873425e+01	-5.096619e-05
1.884246e+01	-5.155665e-05
1.895129e+01	-5.215394e-05
1.906075e+01	-5.275816e-05
1.917085e+01	-5.336937e-05
1.928158e+01	-5.398767e-05
1.939295e+01	-5.461312e-05
1.950496e+01	-5.524583e-05
1.961762e+01	-5.588586e-05
1.973093e+01	-5.653331e-05
1.984490e+01	-5.718826e-05
1.995952e+01	-5.785080e-05
2.007480e+01	-5.852101e-05
2.019076e+01	-5.919899e-05
2.030738e+01	-5.988482e-05
2.042467e+01	-6.057860e-05
2.054264e+01	-6.128042e-05
2.066130e+01	-6.199036e-05
2.078064e+01	-6.270853e-05
2.090066e+01	-6.343502e-05
2.102139e+01	-6.416993e-05
2.114280e+01	-6.491335e-05
2.126492e+01	-6.566538e-05
2.138775e+01	-6.642613e-05
2.151128e+01	-6.719569e-05
2.163553e+01	-6.797416e-05
2.176050e+01	-6.876166e-05
2.188619e+01	-6.955827e-05
2.201260e+01	-7.036412e-05
2.213974e+01	-7.117930e-05
2.226762e+01	-7.200393e-05
2.239624e+01	-7.283810e-05
2.252560e+01	-7.368195e-05
2.265571e+01	-7.453557e-05
2.278656e+01	-7.539907e-05
2.291818e+01	-7.627259e-05
2.305055e+01	-7.715622e-05
2.318369e+01	-7.805009e-05
2.331760e+01	-7.895431e-05
2.345228e+01	-7.986901e-05
2.358774e+01	-8.079430e-05
2.372398e+01	-8.173032e-05
2.386101e+01	-8.267718e-05
2.399883e+01	-8.363501e-05
2.413745e+01	-8.460393e-05
2.427686e+01	-8.558409e-05
2.441709e+01	-8.657559e-05
2.455812e+01	-8.757858e-05
2.469997e+01	-8.859320e-05
2.484263e+01	-8.961956e-05
2.498612e+01	-9.065782e-05
2.513044e+01	-9.170810e-05
2.527559e+01	-9.277056e-05
2.542158e+01	-9.384532e-05
2.556842e+01	-9.493253e-05
2.571610e+01	-9.603234e-05
2.586463e+01	-9.714489e-05
2.601403e+01	-9.827032e-05
2.616428e+01	-9.940880e-05
2.631541e+01	-1.005605e-04
2.646740e+01	-1.017255e-04
2.662028e+01	-1.029040e-04
2.677404e+01	-1.040961e-04
2.692868e+01	-1.053021e-04
2.708422e+01	-1.065220e-04
2.724066e+01	-1.077561e-04
2.739800e+01	-1.090045e-04
2.755625e+01	-1.102673e-04
2.771541e+01	-1.115448e-04
2.787550e+01	-1.128370e-04
2.803650e+01	-1.141443e-04
2.819844e+01	-1.154666e-04
2.836131e+01	-1.168043e-04
2.852513e+01	-1.181575e-04
2.868989e+01	-1.195264e-04
2.885560e+01	-1.209111e-04
2.902227e+01	-1.223119e-04
2.918990e+01	-1.237289e-04
2.935850e+01	-1.251623e-04
2.952807e+01	-1.266123e-04
2.969863e+01	-1.280791e-04
2.987016e+01	-1.295630e-04
3.004269e+01	-1.310640e-04
3.021622e+01	-1.325823e-04
3.039075e+01	-1.341183e-04
3.056628e+01	-1.356721e-04
3.074283e+01	-1.372439e-04
3.092040e+01	-1.388339e-04
3.109900e+01	-1.404423e-04
3.127862e+01	-1.420693e-04
3.145929e+01	-1.437152e-04
3.164099e+01	-1.453801e-04
3.182375e+01	-1.470644e-04
3.200756e+01	-1.487681e-04
3.219244e+01	-1.504916e-04
3.237838e+01	-1.522351e-04
3.256540e+01	-1.539987e-04
3.275349e+01	-1.557828e-04
3.294268e+01	-1.575876e-04
3.313295e+01	-1.594132e-04
3.332433e+01	-1.612600e-04
3.351681e+01	-1.631283e-04
3.371040e+01	-1.650181e-04
3.390511e+01	-1.669298e-04
3.410094e+01	-1.688637e-04
3.429791e+01	-1.708200e-04
3.449601e+01	-1.727990e-04
3.469526e+01	-1.748009e-04
3.489566e+01	-1.768260e-04
3.509721e+01	-1.788745e-04
3.529993e+01	-1.809468e-04
3.550382e+01	-1.830430e-04
3.570889e+01	-1.851636e-04
3.591515e+01	-1.873087e-04
3.612259e+01	-1.894787e-04
3.633123e+01	-1.916738e-04
3.654108e+01	-1.938943e-04
3.675214e+01	-1.961406e-04
3.696442e+01	-1.984129e-04
3.717792e+01	-2.007115e-04
3.739266e+01	-2.030368e-04
3.760864e+01	-2.053890e-04
3.782587e+01	-2.077684e-04
3.804435e+01	-2.101754e-04
3.826409e+01	-2.126103e-04
3.848510e+01	-2.150734e-04
3.870739e+01	-2.175650e-04
3.893096e+01	-2.200855e-04
3.915583e+01	-2.226351e-04
3.938199e+01	-2.252144e-04
3.960946e+01	-2.278235e-04
3.983824e+01	-2.304628e-04
4.006834e+01	-2.331327e-04
4.029978e+01	-2.358335e-04
4.053255e+01	-2.385657e-04
4.076666e+01	-2.413294e-04
4.100213e+01	-2.441252e-04
4.123896e+01	-2.469534e-04
4.147715e+01	-2.498143e-04
4.171672e+01	-2.527084e-04
4.195767e+01	-2.556360e-04
4.220002e+01	-2.585976e-04
4.244377e+01	-2.615934e-04
4.268892e+01	-2.646239e-04
4.293549e+01	-2.676896e-04
4.318348e+01	-2.707907e-04
4.343291e+01	-2.739278e-04
4.368377e+01	-2.771013e-04
4.393609e+01	-2.803115e-04
4.418986e+01	-2.835588e-04
4.444510e+01	-2.868438e-04
4.470182e+01	-2.901669e-04
4.496001e+01	-2.935284e-04
4.521970e+01	-2.969289e-04
4.548089e+01	-3.003688e-04
4.574358e+01	-3.038486e-04
4.600779e+01	-3.073686e-04
4.627353e+01	-3.109294e-04
4.654081e+01	-3.145315e-04
4.680963e+01	-3.181753e-04
4.708000e+01	-3.218613e-04
4.735193e+01	-3.255900e-04
4.762543e+01	-3.293619e-04
4.790051e+01	-3.331775e-04
4.817719e+01	-3.370373e-04
4.845545e+01	-3.409419e-04
4.873533e+01	-3.448916e-04
4.901682e+01	-3.488871e-04
4.929994e+01	-3.529289e-04
4.958470e+01	-3.570175e-04
4.987110e+01	-3.611535e-04
5.015915e+01	-3.653374e-04
5.044887e+01	-3.695697e-04
5.074026e+01	-3.738511e-04
5.103333e+01	-3.781821e-04
5.132810e+01	-3.825632e-04
5.162457e+01	-3.869951e-04
5.192275e+01	-3.914784e-04
5.222265e+01	-3.960136e-04
5.252429e+01	-4.006013e-04
5.282767e+01	-4.052421e-04
5.313280e+01	-4.099368e-04
5.343969e+01	-4.146858e-04
5.374836e+01	-4.194898e-04
5.405880e+01	-4.243495e-04
5.437105e+01	-4.292654e-04
5.468509e+01	-4.342383e-04
5.500095e+01	-4.392688e-04
5.531863e+01	-4.443576e-04
5.563815e+01	-4.495054e-04
5.595951e+01	-4.547127e-04
5.628273e+01	-4.599804e-04
5.660782e+01	-4.653092e-04
5.693479e+01	-4.706996e-04
5.726364e+01	-4.761525e-04
5.759439e+01	-4.816685e-04
5.792705e+01	-4.872485e-04
5.826164e+01	-4.928931e-04
5.859815e+01	-4.986030e-04
5.893662e+01	-5.043792e-04
5.927703e+01	-5.102222e-04
5.961941e+01	-5.161329e-04
5.996377e+01	-5.221121e-04
6.031012e+01	-5.281605e-04
6.065847e+01	-5.342790e-04
6.100883e+01	-5.404684e-04
6.136121e+01	-5.467295e-04
6.171563e+01	-5.530631e-04
6.207210e+01	-5.594701e-04
6.243063e+01	-5.659513e-04
6.279122e+01	-5.725076e-04
6.315390e+01	-5.791398e-04
6.351868e+01	-5.858488e-04
6.388556e+01	-5.926356e-04
6.425456e+01	-5.995009e-04
6.462569e+01	-6.064458e-04
6.499897e+01	-6.134712e-04
6.537440e+01	-6.205779e-04
6.575200e+01	-6.277670e-04
6.613178e+01	-6.350393e-04
6.651375e+01	-6.423958e-04
6.689793e+01	-6.498376e-04
6.728433e+01	-6.573656e-04
6.767297e+01	-6.649808e-04
6.806384e+01	-6.726842e-04
6.845698e+01	-6.804768e-04
6.885238e+01	-6.883597e-04
6.925007e+01	-6.963339e-04
6.965005e+01	-7.044004e-04
7.005235e+01	-7.125604e-04
7.045697e+01	-7.208150e-04
7.086393e+01	-7.291651e-04
7.127323e+01	-7.376120e-04
7.168490e+01	-7.461567e-04
7.209895e+01	-7.548003e-04
7.251539e+01	-7.635441e-04
7.293424e+01	-7.723892e-04
7.335551e+01	-7.813368e-04
7.377920e+01	-7.903879e-04
7.420535e+01	-7.995440e-04
7.463396e+01	-8.088060e-04
7.506504e+01	-8.181754e-04
7.549861e+01	-8.276533e-04
7.593469e+01	-8.372409e-04
7.637328e+01	-8.469397e-04
7.681441e+01	-8.567507e-04
7.725809e+01	-8.666754e-04
7.770433e+01	-8.767151e-04
7.815315e+01	-8.868710e-04
7.860456e+01	-8.971446e-04
7.905857e+01	-9.075372e-04
7.951521e+01	-9.180501e-04
7.997449e+01	-9.286849e-04
8.043642e+01	-9.394428e-04
8.090102e+01	-9.503253e-04
8.136830e+01	-9.613338e-04
8.183828e+01	-9.724699e-04
8.231097e+01	-9.837349e-04
8.278640e+01	-9.951305e-04
8.326457e+01	-1.006658e-03
8.374550e+01	-1.018319e-03
8.422921e+01	-1.030115e-03
8.471572e+01	-1.042048e-03
8.520503e+01	-1.054119e-03
8.569717e+01	-1.066330e-03
8.619215e+01	-1.078682e-03
8.669000e+01	-1.091177e-03
8.719071e+01	-1.103817e-03
8.769432e+01	-1.116603e-03
8.820084e+01	-1.129538e-03
8.871029e+01	-1.142622e-03
8.922267e+01	-1.155858e-03
8.973802e+01	-1.169247e-03
9.025634e+01	-1.182791e-03
9.077766e+01	-1.196492e-03
9.130199e+01	-1.210352e-03
9.182935e+01	-1.224372e-03
9.235975e+01	-1.238555e-03
9.289321e+01	-1.252902e-03
9.342976e+01	-1.267415e-03
9.396941e+01	-1.282096e-03
9.451217e+01	-1.296947e-03
9.505807e+01	-1.311971e-03
9.560712e+01	-1.327168e-03
9.615934e+01	-1.342541e-03
9.671476e+01	-1.358092e-03
9.727338e+01	-1.373824e-03
9.783522e+01	-1.389737e-03
9.840032e+01	-1.405835e-03
9.896867e+01	-1.422119e-03
9.954031e+01	-1.438592e-03
1.001153e+02	-1.455256e-03
1.006935e+02	-1.472113e-03
1.012751e+02	-1.489165e-03
1.018601e+02	-1.506414e-03
1.024484e+02	-1.523863e-03
1.030402e+02	-1.541514e-03
1.036353e+02	-1.559370e-03
1.042339e+02	-1.577433e-03
1.048360e+02	-1.595704e-03
1.054415e+02	-1.614187e-03
1.060505e+02	-1.632885e-03
1.066631e+02	-1.651798e-03
1.072791e+02	-1.670931e-03
1.078988e+02	-1.690286e-03
1.085220e+02	-1.709864e-03
1.091488e+02	-1.729670e-03
1.097793e+02	-1.749704e-03
1.104133e+02	-1.769971e-03
1.110511e+02	-1.790472e-03
1.116925e+02	-1.811211e-03
1.123376e+02	-1.832190e-03
1.129865e+02	-1.853412e-03
1.136391e+02	-1.874879e-03
1.142955e+02	-1.896596e-03
1.149556e+02	-1.918563e-03
1.156196e+02	-1.940785e-03
1.162874e+02	-1.963265e-03
1.169591e+02	-1.986005e-03
1.176347e+02	-2.009008e-03
1.183141e+02	-2.032277e-03
1.189975e+02	-2.055816e-03
1.196848e+02	-2.079628e-03
1.203761e+02	-2.103715e-03
1.210714e+02	-2.128081e-03
1.217707e+02	-2.152729e-03
1.224740e+02	-2.177663e-03
1.231814e+02	-2.202885e-03
1.238929e+02	-2.228400e-03
1.246085e+02	-2.254210e-03
1.253283e+02	-2.280318e-03
1.260522e+02	-2.306729e-03
1.267802e+02	-2.333446e-03
1.275125e+02	-2.360472e-03
1.282490e+02	-2.387812e-03
1.289898e+02	-2.415467e-03
1.297348e+02	-2.443443e-03
1.304842e+02	-2.471743e-03
1.312378e+02	-2.500371e-03
1.319959e+02	-2.529330e-03
1.327583e+02	-2.558624e-03
1.335251e+02	-2.588258e-03
1.342963e+02	-2.618234e-03
1.350720e+02	-2.648558e-03
1.358522e+02	-2.679233e-03
1.366368e+02	-2.710263e-03
1.374260e+02	-2.741652e-03
1.382198e+02	-2.773404e-03
1.390182e+02	-2.805525e-03
1.398211e+02	-2.838017e-03
1.406287e+02	-2.870885e-03
1.414410e+02	-2.904134e-03
1.422579e+02	-2.937768e-03
1.430796e+02	-2.971791e-03
1.439060e+02	-3.006208e-03
1.447372e+02	-3.041023e-03
1.455732e+02	-3.076242e-03
1.464141e+02	-3.111868e-03
1.472597e+02	-3.147907e-03
1.481103e+02	-3.184363e-03
1.489658e+02	-3.221241e-03
1.498262e+02	-3.258546e-03
1.506916e+02	-3.296282e-03
1.515620e+02	-3.334456e-03
1.524374e+02	-3.373071e-03
1.533179e+02	-3.412134e-03
1.542034e+02	-3.451649e-03
1.550941e+02	-3.491621e-03
1.559899e+02	-3.532056e-03
1.568909e+02	-3.572959e-03
1.577971e+02	-3.614335e-03
1.587085e+02	-3.656190e-03
1.596252e+02	-3.698530e-03
1.605472e+02	-3.741360e-03
1.614745e+02	-3.784686e-03
1.624072e+02	-3.828513e-03
1.633453e+02	-3.872848e-03
1.642887e+02	-3.917695e-03
1.652377e+02	-3.963062e-03
1.661921e+02	-4.008954e-03
1.671520e+02	-4.055377e-03
1.681175e+02	-4.102337e-03
1.690885e+02	-4.149841e-03
1.700651e+02	-4.197895e-03
1.710474e+02	-4.246505e-03
1.720354e+02	-4.295677e-03
1.730291e+02	-4.345419e-03
1.740285e+02	-4.395736e-03
1.750337e+02	-4.446636e-03
1.760446e+02	-4.498125e-03
1.770615e+02	-4.550209e-03
1.780842e+02	-4.602896e-03
1.791128e+02	-4.656194e-03
1.801473e+02	-4.710107e-03
1.811878e+02	-4.764645e-03
1.822344e+02	-4.819814e-03
1.832870e+02	-4.875622e-03
1.843456e+02	-4.932075e-03
1.854104e+02	-4.989181e-03
1.864813e+02	-5.046949e-03
1.875584e+02	-5.105384e-03
1.886418e+02	-5.164496e-03
1.897313e+02	-5.224292e-03
1.908272e+02	-5.284780e-03
1.919294e+02	-5.345968e-03
1.930380e+02	-5.407864e-03
1.941530e+02	-5.470475e-03
1.952744e+02	-5.533812e-03
1.964023e+02	-5.597881e-03
1.975367e+02	-5.662692e-03
1.986777e+02	-5.728252e-03
1.998252e+02	-5.794571e-03
2.009794e+02	-5.861657e-03
2.021403e+02	-5.929519e-03
2.033078e+02	-5.998167e-03
2.044821e+02	-6.067608e-03
2.056632e+02	-6.137853e-03
2.068511e+02	-6.208911e-03
2.080459e+02	-6.280791e-03
2.092475e+02	-6.353502e-03
2.104561e+02	-6.427054e-03
2.116717e+02	-6.501457e-03
2.128943e+02	-6.576721e-03
2.141240e+02	-6.652856e-03
2.153608e+02	-6.729871e-03
2.166047e+02	-6.807777e-03
2.178558e+02	-6.886584e-03
2.191141e+02	-6.966303e-03
2.203797e+02	-7.046943e-03
2.216526e+02	-7.128517e-03
2.229329e+02	-7.211034e-03
2.242205e+02	-7.294505e-03
2.255156e+02	-7.378942e-03
2.268182e+02	-7.464355e-03
2.281283e+02	-7.550756e-03
2.294459e+02	-7.638156e-03
2.307712e+02	-7.726567e-03
2.321041e+02	-7.816001e-03
2.334447e+02	-7.906469e-03
2.347931e+02	-7.997982e-03
2.361493e+02	-8.090555e-03
2.375133e+02	-8.184197e-03
2.388851e+02	-8.278923e-03
2.402649e+02	-8.374743e-03
2.416527e+02	-8.471672e-03
2.430484e+02	-8.569721e-03
2.444523e+02	-8.668904e-03
2.458642e+02	-8.769234e-03
2.472843e+02	-8.870724e-03
2.487126e+02	-8.973387e-03
2.501492e+02	-9.077237e-03
2.515940e+02	-9.182287e-03
2.530472e+02	-9.288552e-03
2.545088e+02	-9.396046e-03
2.559789e+02	-9.504782e-03
2.574574e+02	-9.614775e-03
2.589444e+02	-9.726039e-03
2.604401e+02	-9.838590e-03
2.619444e+02	-9.952441e-03
2.634574e+02	-1.006761e-02
2.649791e+02	-1.018411e-02
2.665096e+02	-1.030195e-02
2.680489e+02	-1.042116e-02
2.695972e+02	-1.054174e-02
2.711544e+02	-1.066372e-02
2.727205e+02	-1.078711e-02
2.742958e+02	-1.091192e-02
2.758801e+02	-1.103818e-02
2.774736e+02	-1.116590e-02
2.790762e+02	-1.129509e-02
2.806882e+02	-1.142577e-02
2.823094e+02	-1.155796e-02
2.839400e+02	-1.169169e-02
2.855800e+02	-1.182695e-02
2.872295e+02	-1.196378e-02
2.888886e+02	-1.210219e-02
2.905572e+02	-1.224220e-02
2.922354e+02	-1.238382e-02
2.939234e+02	-1.252709e-02
2.956211e+02	-1.267200e-02
2.973286e+02	-1.281859e-02
2.990459e+02	-1.296688e-02
3.007732e+02	-1.311688e-02
3.025104e+02	-1.326861e-02
3.042577e+02	-1.342209e-02
3.060151e+02	-1.357734e-02
3.077826e+02	-1.373439e-02
3.095604e+02	-1.389325e-02
3.113484e+02	-1.405395e-02
3.131467e+02	-1.421650e-02
3.149554e+02	-1.438092e-02
3.167746e+02	-1.454725e-02
3.186043e+02	-1.471550e-02
3.204445e+02	-1.488569e-02
3.222954e+02	-1.505784e-02
3.241570e+02	-1.523198e-02
3.260293e+02	-1.540814e-02
3.279124e+02	-1.558632e-02
3.298064e+02	-1.576656e-02
3.317114e+02	-1.594889e-02
3.336273e+02	-1.613332e-02
3.355544e+02	-1.631987e-02
3.374925e+02	-1.650858e-02
3.394418e+02	-1.669947e-02
3.414024e+02	-1.689256e-02
3.433744e+02	-1.708788e-02
3.453577e+02	-1.728545e-02
3.473525e+02	-1.748530e-02
3.493588e+02	-1.768746e-02
3.513766e+02	-1.789195e-02
3.534062e+02	-1.809880e-02
3.554474e+02	-1.830803e-02
3.575005e+02	-1.851968e-02
3.595654e+02	-1.873377e-02
3.616422e+02	-1.895033e-02
3.637311e+02	-1.916939e-02
3.658320e+02	-1.939098e-02
3.679450e+02	-1.961512e-02
3.700702e+02	-1.984184e-02
3.722077e+02	-2.007118e-02
3.743576e+02	-2.030317e-02
3.765199e+02	-2.053782e-02
3.786946e+02	-2.077519e-02
3.808820e+02	-2.101529e-02
3.830819e+02	-2.125816e-02
3.852946e+02	-2.150383e-02
3.875200e+02	-2.175233e-02
3.897583e+02	-2.200370e-02
3.920096e+02	-2.225796e-02
3.942738e+02	-2.251515e-02
3.965511e+02	-2.277531e-02
3.988416e+02	-2.303847e-02
4.011452e+02	-2.330465e-02
4.034622e+02	-2.357391e-02
4.057926e+02	-2.384627e-02
4.081365e+02	-2.412176e-02
4.104938e+02	-2.440043e-02
4.128648e+02	-2.468231e-02
4.152495e+02	-2.496744e-02
4.176480e+02	-2.525585e-02
4.200603e+02	-2.554758e-02
4.224866e+02	-2.584267e-02
4.249268e+02	-2.614116e-02
4.273812e+02	-2.644309e-02
4.298497e+02	-2.674849e-02
4.323325e+02	-2.705741e-02
4.348297e+02	-2.736989e-02
4.373412e+02	-2.768596e-02
4.398673e+02	-2.800567e-02
4.424079e+02	-2.832906e-02
4.449633e+02	-2.865618e-02
4.475334e+02	-2.898705e-02
4.501183e+02	-2.932174e-02
4.527182e+02	-2.966027e-02
4.553330e+02	-3.000271e-02
4.579630e+02	-3.034908e-02
4.606082e+02	-3.069943e-02
4.632687e+02	-3.105382e-02
4.659445e+02	-3.141228e-02
4.686358e+02	-3.177486e-02
4.713426e+02	-3.214162e-02
4.740650e+02	-3.251259e-02
4.768032e+02	-3.288782e-02
4.795572e+02	-3.326737e-02
4.823271e+02	-3.365129e-02
4.851130e+02	-3.403961e-02
4.879150e+02	-3.443240e-02
4.907332e+02	-3.482971e-02
4.935676e+02	-3.523158e-02
4.964185e+02	-3.563807e-02
4.992858e+02	-3.604922e-02
5.021696e+02	-3.646510e-02
5.050701e+02	-3.688576e-02
5.079874e+02	-3.731125e-02
5.109215e+02	-3.774163e-02
5.138726e+02	-3.817695e-02
5.168407e+02	-3.861727e-02
5.198259e+02	-3.906264e-02
5.228284e+02	-3.951313e-02
5.258482e+02	-3.996879e-02
5.288855e+02	-4.042968e-02
5.319403e+02	-4.089585e-02
5.350128e+02	-4.136738e-02
5.381030e+02	-4.184432e-02
5.412111e+02	-4.232673e-02
5.443371e+02	-4.281467e-02
5.474812e+02	-4.330821e-02
5.506434e+02	-4.380741e-02
5.538239e+02	-4.431234e-02
5.570228e+02	-4.482305e-02
5.602401e+02	-4.533962e-02
5.634760e+02	-4.586211e-02
5.667306e+02	-4.639059e-02
5.700040e+02	-4.692513e-02
5.732964e+02	-4.746579e-02
5.766077e+02	-4.801265e-02
5.799382e+02	-4.856577e-02
5.832879e+02	-4.912523e-02
5.866569e+02	-4.969110e-02
5.900454e+02	-5.026345e-02
5.934535e+02	-5.084235e-02
5.968813e+02	-5.142787e-02
6.003288e+02	-5.202010e-02
6.037963e+02	-5.261911e-02
6.072838e+02	-5.322498e-02
6.107914e+02	-5.383777e-02
6.143194e+02	-5.445758e-02
6.178676e+02	-5.508448e-02
6.214364e+02	-5.571855e-02
6.250258e+02	-5.635987e-02
6.286359e+02	-5.700852e-02
6.322669e+02	-5.766459e-02
6.359189e+02	-5.832816e-02
6.395919e+02	-5.899931e-02
6.432862e+02	-5.967813e-02
6.470017e+02	-6.036470e-02
6.507388e+02	-6.105912e-02
6.544974e+02	-6.176147e-02
6.582778e+02	-6.247184e-02
6.620800e+02	-6.319033e-02
6.659041e+02	-6.391701e-02
6.697504e+02	-6.465199e-02
6.736188e+02	-6.539536e-02
6.775096e+02	-6.614720e-02
6.814229e+02	-6.690763e-02
6.853587e+02	-6.767673e-02
6.893173e+02	-6.845460e-02
6.932988e+02	-6.924134e-02
6.973033e+02	-7.003704e-02
7.013309e+02	-7.084182e-02
