Frequency(Hz)	Magnitude(dB)
1.000000e+01	-1.663579e-05
1.005776e+01	-1.682852e-05
1.011585e+01	-1.702348e-05
1.017428e+01	-1.722071e-05
1.023305e+01	-1.742021e-05
1.029215e+01	-1.762203e-05
1.035160e+01	-1.782619e-05
1.041139e+01	-1.803271e-05
1.047153e+01	-1.824162e-05
1.053201e+01	-1.845295e-05
1.059284e+01	-1.866674e-05
1.065403e+01	-1.888299e-05
1.071556e+01	-1.910176e-05
1.077746e+01	-1.932306e-05
1.083971e+01	-1.954692e-05
1.090232e+01	-1.977338e-05
1.096529e+01	-2.000246e-05
1.102862e+01	-2.023419e-05
1.109232e+01	-2.046861e-05
1.115639e+01	-2.070574e-05
1.122083e+01	-2.094562e-05
1.128564e+01	-2.118828e-05
1.135083e+01	-2.143376e-05
1.141639e+01	-2.168207e-05
1.148233e+01	-2.193326e-05
1.154865e+01	-2.218736e-05
1.161536e+01	-2.244441e-05
1.168245e+01	-2.270444e-05
1.174992e+01	-2.296747e-05
1.181779e+01	-2.323356e-05
1.188605e+01	-2.350272e-05
1.195470e+01	-2.377501e-05
1.202375e+01	-2.405045e-05
1.209320e+01	-2.432908e-05
1.216305e+01	-2.461094e-05
1.223330e+01	-2.489606e-05
1.230396e+01	-2.518449e-05
1.237503e+01	-2.547625e-05
1.244651e+01	-2.577140e-05
1.251840e+01	-2.606997e-05
1.259070e+01	-2.637200e-05
1.266343e+01	-2.667752e-05
1.273657e+01	-2.698659e-05
1.281014e+01	-2.729924e-05
1.288413e+01	-2.761550e-05
1.295855e+01	-2.793544e-05
1.303339e+01	-2.825908e-05
1.310867e+01	-2.858646e-05
1.318439e+01	-2.891764e-05
1.326054e+01	-2.925266e-05
1.333713e+01	-2.959156e-05
1.341417e+01	-2.993439e-05
1.349165e+01	-3.028118e-05
1.356958e+01	-3.063200e-05
1.364795e+01	-3.098688e-05
1.372678e+01	-3.134587e-05
1.380607e+01	-3.170902e-05
1.388581e+01	-3.207637e-05
1.396602e+01	-3.244799e-05
1.404668e+01	-3.282390e-05
1.412782e+01	-3.320418e-05
1.420942e+01	-3.358885e-05
1.429149e+01	-3.397799e-05
1.437404e+01	-3.437163e-05
1.445706e+01	-3.476984e-05
1.454057e+01	-3.517265e-05
1.462455e+01	-3.558014e-05
1.470902e+01	-3.599234e-05
1.479398e+01	-3.640932e-05
1.487943e+01	-3.683113e-05
1.496537e+01	-3.725783e-05
1.505181e+01	-3.768947e-05
1.513875e+01	-3.812611e-05
1.522619e+01	-3.856781e-05
1.531414e+01	-3.901463e-05
1.540259e+01	-3.946662e-05
1.549156e+01	-3.992385e-05
1.558103e+01	-4.038638e-05
1.567103e+01	-4.085426e-05
1.576155e+01	-4.132757e-05
1.585258e+01	-4.180636e-05
1.594415e+01	-4.229069e-05
1.603624e+01	-4.278064e-05
1.612886e+01	-4.327626e-05
1.622202e+01	-4.377763e-05
1.631572e+01	-4.428480e-05
1.640996e+01	-4.479785e-05
1.650474e+01	-4.531684e-05
1.660008e+01	-4.584185e-05
1.669596e+01	-4.637294e-05
1.679239e+01	-4.691018e-05
1.688938e+01	-4.745364e-05
1.698694e+01	-4.800340e-05
1.708505e+01	-4.855953e-05
1.718373e+01	-4.912210e-05
1.728299e+01	-4.969119e-05
1.738281e+01	-5.026688e-05
1.748322e+01	-5.084923e-05
1.758420e+01	-5.143833e-05
1.768576e+01	-5.203425e-05
1.778792e+01	-5.263708e-05
1.789066e+01	-5.324689e-05
1.799399e+01	-5.386377e-05
1.809793e+01	-5.448779e-05
1.820246e+01	-5.511904e-05
1.830760e+01	-5.575761e-05
1.841334e+01	-5.640357e-05
1.851969e+01	-5.705702e-05
1.862666e+01	-5.771804e-05
1.873425e+01	-5.838671e-05
1.884246e+01	-5.906313e-05
1.895129e+01	-5.974739e-05
1.906075e+01	-6.043958e-05
1.917085e+01	-6.113978e-05
1.928158e+01	-6.184810e-05
1.939295e+01	-6.256462e-05
1.950496e+01	-6.328944e-05
1.961762e+01	-6.402266e-05
1.973093e+01	-6.476438e-05
1.984490e+01	-6.551469e-05
1.995952e+01	-6.627369e-05
2.007480e+01	-6.704148e-05
2.019076e+01	-6.781817e-05
2.030738e+01	-6.860385e-05
2.042467e+01	-6.939864e-05
2.054264e+01	-7.020264e-05
2.066130e+01	-7.101595e-05
2.078064e+01	-7.183868e-05
2.090066e+01	-7.267095e-05
2.102139e+01	-7.351285e-05
2.114280e+01	-7.436451e-05
2.126492e+01	-7.522604e-05
2.138775e+01	-7.609755e-05
2.151128e+01	-7.697915e-05
2.163553e+01	-7.787097e-05
2.176050e+01	-7.877312e-05
2.188619e+01	-7.968572e-05
2.201260e+01	-8.060889e-05
2.213974e+01	-8.154276e-05
2.226762e+01	-8.248744e-05
2.239624e+01	-8.344307e-05
2.252560e+01	-8.440978e-05
2.265571e+01	-8.538768e-05
2.278656e+01	-8.637691e-05
2.291818e+01	-8.737760e-05
2.305055e+01	-8.838988e-05
2.318369e+01	-8.941389e-05
2.331760e+01	-9.044977e-05
2.345228e+01	-9.149764e-05
2.358774e+01	-9.255765e-05
2.372398e+01	-9.362995e-05
2.386101e+01	-9.471467e-05
2.399883e+01	-9.581195e-05
2.413745e+01	-9.692195e-05
2.427686e+01	-9.804480e-05
2.441709e+01	-9.918067e-05
2.455812e+01	-1.003297e-04
2.469997e+01	-1.014920e-04
2.484263e+01	-1.026678e-04
2.498612e+01	-1.038572e-04
2.513044e+01	-1.050604e-04
2.527559e+01	-1.062776e-04
2.542158e+01	-1.075088e-04
2.556842e+01	-1.087543e-04
2.571610e+01	-1.100143e-04
2.586463e+01	-1.112888e-04
2.601403e+01	-1.125781e-04
2.616428e+01	-1.138823e-04
2.631541e+01	-1.152017e-04
2.646740e+01	-1.165363e-04
2.662028e+01	-1.178864e-04
2.677404e+01	-1.192521e-04
2.692868e+01	-1.206336e-04
2.708422e+01	-1.220312e-04
2.724066e+01	-1.234449e-04
2.739800e+01	-1.248751e-04
2.755625e+01	-1.263218e-04
2.771541e+01	-1.277852e-04
2.787550e+01	-1.292656e-04
2.803650e+01	-1.307632e-04
2.819844e+01	-1.322781e-04
2.836131e+01	-1.338105e-04
2.852513e+01	-1.353607e-04
2.868989e+01	-1.369289e-04
2.885560e+01	-1.385152e-04
2.902227e+01	-1.401200e-04
2.918990e+01	-1.417433e-04
2.935850e+01	-1.433854e-04
2.952807e+01	-1.450465e-04
2.969863e+01	-1.467269e-04
2.987016e+01	-1.484267e-04
3.004269e+01	-1.501463e-04
3.021622e+01	-1.518857e-04
3.039075e+01	-1.536453e-04
3.056628e+01	-1.554253e-04
3.074283e+01	-1.572259e-04
3.092040e+01	-1.590474e-04
3.109900e+01	-1.608900e-04
3.127862e+01	-1.627539e-04
3.145929e+01	-1.646394e-04
3.164099e+01	-1.665468e-04
3.182375e+01	-1.684762e-04
3.200756e+01	-1.704280e-04
3.219244e+01	-1.724024e-04
3.237838e+01	-1.743997e-04
3.256540e+01	-1.764202e-04
3.275349e+01	-1.784640e-04
3.294268e+01	-1.805315e-04
3.313295e+01	-1.826230e-04
3.332433e+01	-1.847387e-04
3.351681e+01	-1.868789e-04
3.371040e+01	-1.890439e-04
3.390511e+01	-1.912339e-04
3.410094e+01	-1.934494e-04
3.429791e+01	-1.956905e-04
3.449601e+01	-1.979576e-04
3.469526e+01	-2.002509e-04
3.489566e+01	-2.025708e-04
3.509721e+01	-2.049176e-04
3.529993e+01	-2.072916e-04
3.550382e+01	-2.096931e-04
3.570889e+01	-2.121223e-04
3.591515e+01	-2.145798e-04
3.612259e+01	-2.170657e-04
3.633123e+01	-2.195804e-04
3.654108e+01	-2.221242e-04
3.675214e+01	-2.246975e-04
3.696442e+01	-2.273006e-04
3.717792e+01	-2.299339e-04
3.739266e+01	-2.325977e-04
3.760864e+01	-2.352923e-04
3.782587e+01	-2.380182e-04
3.804435e+01	-2.407756e-04
3.826409e+01	-2.435650e-04
3.848510e+01	-2.463867e-04
3.870739e+01	-2.492410e-04
3.893096e+01	-2.521285e-04
3.915583e+01	-2.550494e-04
3.938199e+01	-2.580041e-04
3.960946e+01	-2.609931e-04
3.983824e+01	-2.640167e-04
4.006834e+01	-2.670753e-04
4.029978e+01	-2.701693e-04
4.053255e+01	-2.732992e-04
4.076666e+01	-2.764654e-04
4.100213e+01	-2.796682e-04
4.123896e+01	-2.829081e-04
4.147715e+01	-2.861856e-04
4.171672e+01	-2.895010e-04
4.195767e+01	-2.928548e-04
4.220002e+01	-2.962475e-04
4.244377e+01	-2.996795e-04
4.268892e+01	-3.031513e-04
4.293549e+01	-3.066632e-04
4.318348e+01	-3.102159e-04
4.343291e+01	-3.138097e-04
4.368377e+01	-3.174451e-04
4.393609e+01	-3.211227e-04
4.418986e+01	-3.248428e-04
4.444510e+01	-3.286061e-04
4.470182e+01	-3.324129e-04
4.496001e+01	-3.362639e-04
4.521970e+01	-3.401594e-04
4.548089e+01	-3.441001e-04
4.574358e+01	-3.480865e-04
4.600779e+01	-3.521190e-04
4.627353e+01	-3.561982e-04
4.654081e+01	-3.603247e-04
4.680963e+01	-3.644990e-04
4.708000e+01	-3.687216e-04
4.735193e+01	-3.729932e-04
4.762543e+01	-3.773142e-04
4.790051e+01	-3.816853e-04
4.817719e+01	-3.861071e-04
4.845545e+01	-3.905800e-04
4.873533e+01	-3.951048e-04
4.901682e+01	-3.996820e-04
4.929994e+01	-4.043122e-04
4.958470e+01	-4.089960e-04
4.987110e+01	-4.137341e-04
5.015915e+01	-4.185271e-04
5.044887e+01	-4.233756e-04
5.074026e+01	-4.282803e-04
5.103333e+01	-4.332418e-04
5.132810e+01	-4.382608e-04
5.162457e+01	-4.433379e-04
5.192275e+01	-4.484738e-04
5.222265e+01	-4.536693e-04
5.252429e+01	-4.589249e-04
5.282767e+01	-4.642414e-04
5.313280e+01	-4.696194e-04
5.343969e+01	-4.750598e-04
5.374836e+01	-4.805632e-04
5.405880e+01	-4.861303e-04
5.437105e+01	-4.917620e-04
5.468509e+01	-4.974588e-04
5.500095e+01	-5.032217e-04
5.531863e+01	-5.090513e-04
5.563815e+01	-5.149485e-04
5.595951e+01	-5.209139e-04
5.628273e+01	-5.269485e-04
5.660782e+01	-5.330530e-04
5.693479e+01	-5.392282e-04
5.726364e+01	-5.454749e-04
5.759439e+01	-5.517940e-04
5.792705e+01	-5.581862e-04
5.826164e+01	-5.646526e-04
5.859815e+01	-5.711938e-04
5.893662e+01	-5.778108e-04
5.927703e+01	-5.845044e-04
5.961941e+01	-5.912756e-04
5.996377e+01	-5.981252e-04
6.031012e+01	-6.050542e-04
6.065847e+01	-6.120634e-04
6.100883e+01	-6.191538e-04
6.136121e+01	-6.263264e-04
6.171563e+01	-6.335820e-04
6.207210e+01	-6.409217e-04
6.243063e+01	-6.483464e-04
6.279122e+01	-6.558571e-04
6.315390e+01	-6.634548e-04
6.351868e+01	-6.711405e-04
6.388556e+01	-6.789153e-04
6.425456e+01	-6.867801e-04
6.462569e+01	-6.947360e-04
6.499897e+01	-7.027840e-04
6.537440e+01	-7.109253e-04
6.575200e+01	-7.191609e-04
6.613178e+01	-7.274918e-04
6.651375e+01	-7.359193e-04
6.689793e+01	-7.444444e-04
6.728433e+01	-7.530683e-04
6.767297e+01	-7.617920e-04
6.806384e+01	-7.706168e-04
6.845698e+01	-7.795438e-04
6.885238e+01	-7.885742e-04
6.925007e+01	-7.977092e-04
6.965005e+01	-8.069500e-04
7.005235e+01	-8.162979e-04
7.045697e+01	-8.257540e-04
7.086393e+01	-8.353197e-04
7.127323e+01	-8.449962e-04
7.168490e+01	-8.547847e-04
7.209895e+01	-8.646866e-04
7.251539e+01	-8.747033e-04
7.293424e+01	-8.848359e-04
7.335551e+01	-8.950859e-04
7.377920e+01	-9.054547e-04
7.420535e+01	-9.159435e-04
7.463396e+01	-9.265538e-04
7.506504e+01	-9.372870e-04
7.549861e+01	-9.481446e-04
7.593469e+01	-9.591279e-04
7.637328e+01	-9.702384e-04
7.681441e+01	-9.814776e-04
7.725809e+01	-9.928470e-04
7.770433e+01	-1.004348e-03
7.815315e+01	-1.015982e-03
7.860456e+01	-1.027751e-03
7.905857e+01	-1.039657e-03
7.951521e+01	-1.051700e-03
7.997449e+01	-1.063883e-03
8.043642e+01	-1.076207e-03
8.090102e+01	-1.088673e-03
8.136830e+01	-1.101284e-03
8.183828e+01	-1.114041e-03
8.231097e+01	-1.126946e-03
8.278640e+01	-1.140000e-03
8.326457e+01	-1.153206e-03
8.374550e+01	-1.166564e-03
8.422921e+01	-1.180077e-03
8.471572e+01	-1.193747e-03
8.520503e+01	-1.207575e-03
8.569717e+01	-1.221563e-03
8.619215e+01	-1.235713e-03
8.669000e+01	-1.250027e-03
8.719071e+01	-1.264507e-03
8.769432e+01	-1.279154e-03
8.820084e+01	-1.293971e-03
8.871029e+01	-1.308960e-03
8.922267e+01	-1.324123e-03
8.973802e+01	-1.339461e-03
9.025634e+01	-1.354976e-03
9.077766e+01	-1.370671e-03
9.130199e+01	-1.386548e-03
9.182935e+01	-1.402609e-03
9.235975e+01	-1.418856e-03
9.289321e+01	-1.435291e-03
9.342976e+01	-1.451917e-03
9.396941e+01	-1.468735e-03
9.451217e+01	-1.485748e-03
9.505807e+01	-1.502958e-03
9.560712e+01	-1.520367e-03
9.615934e+01	-1.537977e-03
9.671476e+01	-1.555792e-03
9.727338e+01	-1.573813e-03
9.783522e+01	-1.592043e-03
9.840032e+01	-1.610484e-03
9.896867e+01	-1.629138e-03
9.954031e+01	-1.648008e-03
1.001153e+02	-1.667097e-03
1.006935e+02	-1.686407e-03
1.012751e+02	-1.705941e-03
1.018601e+02	-1.725701e-03
1.024484e+02	-1.745690e-03
1.030402e+02	-1.765910e-03
1.036353e+02	-1.786364e-03
1.042339e+02	-1.807055e-03
1.048360e+02	-1.827986e-03
1.054415e+02	-1.849159e-03
1.060505e+02	-1.870578e-03
1.066631e+02	-1.892244e-03
1.072791e+02	-1.914161e-03
1.078988e+02	-1.936332e-03
1.085220e+02	-1.958760e-03
1.091488e+02	-1.981448e-03
1.097793e+02	-2.004398e-03
1.104133e+02	-2.027614e-03
1.110511e+02	-2.051099e-03
1.116925e+02	-2.074856e-03
1.123376e+02	-2.098888e-03
1.129865e+02	-2.123198e-03
1.136391e+02	-2.147790e-03
1.142955e+02	-2.172666e-03
1.149556e+02	-2.197831e-03
1.156196e+02	-2.223287e-03
1.162874e+02	-2.249038e-03
1.169591e+02	-2.275086e-03
1.176347e+02	-2.301437e-03
1.183141e+02	-2.328093e-03
1.189975e+02	-2.355057e-03
1.196848e+02	-2.382333e-03
1.203761e+02	-2.409926e-03
1.210714e+02	-2.437837e-03
1.217707e+02	-2.466072e-03
1.224740e+02	-2.494634e-03
1.231814e+02	-2.523527e-03
1.238929e+02	-2.552754e-03
1.246085e+02	-2.582319e-03
1.253283e+02	-2.612227e-03
1.260522e+02	-2.642481e-03
1.267802e+02	-2.673086e-03
1.275125e+02	-2.704045e-03
1.282490e+02	-2.735362e-03
1.289898e+02	-2.767042e-03
1.297348e+02	-2.799088e-03
1.304842e+02	-2.831506e-03
1.312378e+02	-2.864299e-03
1.319959e+02	-2.897471e-03
1.327583e+02	-2.931028e-03
1.335251e+02	-2.964973e-03
1.342963e+02	-2.999311e-03
1.350720e+02	-3.034047e-03
1.358522e+02	-3.069185e-03
1.366368e+02	-3.104729e-03
1.374260e+02	-3.140685e-03
1.382198e+02	-3.177058e-03
1.390182e+02	-3.213851e-03
1.398211e+02	-3.251070e-03
1.406287e+02	-3.288720e-03
1.414410e+02	-3.326807e-03
1.422579e+02	-3.365334e-03
1.430796e+02	-3.404306e-03
1.439060e+02	-3.443731e-03
1.447372e+02	-3.483611e-03
1.455732e+02	-3.523953e-03
1.464141e+02	-3.564762e-03
1.472597e+02	-3.606044e-03
1.481103e+02	-3.647803e-03
1.489658e+02	-3.690046e-03
1.498262e+02	-3.732778e-03
1.506916e+02	-3.776004e-03
1.515620e+02	-3.819731e-03
1.524374e+02	-3.863964e-03
1.533179e+02	-3.908709e-03
1.542034e+02	-3.953971e-03
1.550941e+02	-3.999758e-03
1.559899e+02	-4.046075e-03
1.568909e+02	-4.092927e-03
1.577971e+02	-4.140322e-03
1.587085e+02	-4.188266e-03
1.596252e+02	-4.236764e-03
1.605472e+02	-4.285824e-03
1.614745e+02	-4.335452e-03
1.624072e+02	-4.385653e-03
1.633453e+02	-4.436436e-03
1.642887e+02	-4.487807e-03
1.652377e+02	-4.539772e-03
1.661921e+02	-4.592339e-03
1.671520e+02	-4.645514e-03
1.681175e+02	-4.699304e-03
1.690885e+02	-4.753717e-03
1.700651e+02	-4.808759e-03
1.710474e+02	-4.864439e-03
1.720354e+02	-4.920763e-03
1.730291e+02	-4.977738e-03
1.740285e+02	-5.035373e-03
1.750337e+02	-5.093675e-03
1.760446e+02	-5.152651e-03
1.770615e+02	-5.212310e-03
1.780842e+02	-5.272659e-03
1.791128e+02	-5.333707e-03
1.801473e+02	-5.395461e-03
1.811878e+02	-5.457929e-03
1.822344e+02	-5.521120e-03
1.832870e+02	-5.585043e-03
1.843456e+02	-5.649705e-03
1.854104e+02	-5.715115e-03
1.864813e+02	-5.781282e-03
1.875584e+02	-5.848214e-03
1.886418e+02	-5.915921e-03
1.897313e+02	-5.984411e-03
1.908272e+02	-6.053694e-03
1.919294e+02	-6.123778e-03
1.930380e+02	-6.194672e-03
1.941530e+02	-6.266387e-03
1.952744e+02	-6.338932e-03
1.964023e+02	-6.412316e-03
1.975367e+02	-6.486548e-03
1.986777e+02	-6.561640e-03
1.998252e+02	-6.637600e-03
2.009794e+02	-6.714439e-03
2.021403e+02	-6.792166e-03
2.033078e+02	-6.870793e-03
2.044821e+02	-6.950329e-03
2.056632e+02	-7.030785e-03
2.068511e+02	-7.112171e-03
2.080459e+02	-7.194499e-03
2.092475e+02	-7.277779e-03
2.104561e+02	-7.362022e-03
2.116717e+02	-7.447240e-03
2.128943e+02	-7.533443e-03
2.141240e+02	-7.620643e-03
2.153608e+02	-7.708852e-03
2.166047e+02	-7.798080e-03
2.178558e+02	-7.888341e-03
2.191141e+02	-7.979645e-03
2.203797e+02	-8.072005e-03
2.216526e+02	-8.165433e-03
2.229329e+02	-8.259942e-03
2.242205e+02	-8.355543e-03
2.255156e+02	-8.452249e-03
2.268182e+02	-8.550074e-03
2.281283e+02	-8.649030e-03
2.294459e+02	-8.749130e-03
2.307712e+02	-8.850387e-03
2.321041e+02	-8.952815e-03
2.334447e+02	-9.056427e-03
2.347931e+02	-9.161237e-03
2.361493e+02	-9.267259e-03
2.375133e+02	-9.374506e-03
2.388851e+02	-9.482993e-03
2.402649e+02	-9.592735e-03
2.416527e+02	-9.703744e-03
2.430484e+02	-9.816037e-03
2.444523e+02	-9.929628e-03
2.458642e+02	-1.004453e-02
2.472843e+02	-1.016076e-02
2.487126e+02	-1.027834e-02
2.501492e+02	-1.039727e-02
2.515940e+02	-1.051758e-02
2.530472e+02	-1.063928e-02
2.545088e+02	-1.076239e-02
2.559789e+02	-1.088691e-02
2.574574e+02	-1.101288e-02
2.589444e+02	-1.114030e-02
2.604401e+02	-1.126920e-02
2.619444e+02	-1.139958e-02
2.634574e+02	-1.153148e-02
2.649791e+02	-1.166489e-02
2.665096e+02	-1.179985e-02
2.680489e+02	-1.193636e-02
2.695972e+02	-1.207446e-02
2.711544e+02	-1.221414e-02
2.727205e+02	-1.235545e-02
2.742958e+02	-1.249838e-02
2.758801e+02	-1.264297e-02
2.774736e+02	-1.278922e-02
2.790762e+02	-1.293717e-02
2.806882e+02	-1.308682e-02
2.823094e+02	-1.323820e-02
2.839400e+02	-1.339133e-02
2.855800e+02	-1.354623e-02
2.872295e+02	-1.370292e-02
2.888886e+02	-1.386142e-02
2.905572e+02	-1.402175e-02
2.922354e+02	-1.418393e-02
2.939234e+02	-1.434798e-02
2.956211e+02	-1.451392e-02
2.973286e+02	-1.468179e-02
2.990459e+02	-1.485159e-02
3.007732e+02	-1.502335e-02
3.025104e+02	-1.519709e-02
3.042577e+02	-1.537284e-02
3.060151e+02	-1.555062e-02
3.077826e+02	-1.573045e-02
3.095604e+02	-1.591236e-02
3.113484e+02	-1.609636e-02
3.131467e+02	-1.628249e-02
3.149554e+02	-1.647077e-02
3.167746e+02	-1.666122e-02
3.186043e+02	-1.685387e-02
3.204445e+02	-1.704874e-02
3.222954e+02	-1.724586e-02
3.241570e+02	-1.744526e-02
3.260293e+02	-1.764695e-02
3.279124e+02	-1.785097e-02
3.298064e+02	-1.805735e-02
3.317114e+02	-1.826611e-02
3.336273e+02	-1.847727e-02
3.355544e+02	-1.869088e-02
3.374925e+02	-1.890694e-02
3.394418e+02	-1.912550e-02
3.414024e+02	-1.934658e-02
3.433744e+02	-1.957021e-02
3.453577e+02	-1.979641e-02
3.473525e+02	-2.002523e-02
3.493588e+02	-2.025668e-02
3.513766e+02	-2.049081e-02
3.534062e+02	-2.072763e-02
3.554474e+02	-2.096718e-02
3.575005e+02	-2.120950e-02
3.595654e+02	-2.145461e-02
3.616422e+02	-2.170254e-02
3.637311e+02	-2.195333e-02
3.658320e+02	-2.220701e-02
3.679450e+02	-2.246362e-02
3.700702e+02	-2.272318e-02
3.722077e+02	-2.298574e-02
3.743576e+02	-2.325132e-02
3.765199e+02	-2.351996e-02
3.786946e+02	-2.379170e-02
3.808820e+02	-2.406656e-02
3.830819e+02	-2.434460e-02
3.852946e+02	-2.462583e-02
3.875200e+02	-2.491031e-02
3.897583e+02	-2.519806e-02
3.920096e+02	-2.548913e-02
3.942738e+02	-2.578354e-02
3.965511e+02	-2.608135e-02
3.988416e+02	-2.638259e-02
4.011452e+02	-2.668730e-02
4.034622e+02	-2.699551e-02
4.057926e+02	-2.730728e-02
4.081365e+02	-2.762263e-02
4.104938e+02	-2.794161e-02
4.128648e+02	-2.826427e-02
4.152495e+02	-2.859063e-02
4.176480e+02	-2.892076e-02
4.200603e+02	-2.925468e-02
4.224866e+02	-2.959245e-02
4.249268e+02	-2.993410e-02
4.273812e+02	-3.027968e-02
4.298497e+02	-3.062923e-02
4.323325e+02	-3.098281e-02
4.348297e+02	-3.134046e-02
4.373412e+02	-3.170222e-02
4.398673e+02	-3.206813e-02
4.424079e+02	-3.243826e-02
4.449633e+02	-3.281264e-02
4.475334e+02	-3.319133e-02
4.501183e+02	-3.357437e-02
4.527182e+02	-3.396181e-02
4.553330e+02	-3.435371e-02
4.579630e+02	-3.475011e-02
4.606082e+02	-3.515106e-02
4.632687e+02	-3.555662e-02
4.659445e+02	-3.596685e-02
4.686358e+02	-3.638178e-02
4.713426e+02	-3.680148e-02
4.740650e+02	-3.722600e-02
4.768032e+02	-3.765540e-02
4.795572e+02	-3.808973e-02
4.823271e+02	-3.852905e-02
4.851130e+02	-3.897341e-02
4.879150e+02	-3.942287e-02
4.907332e+02	-3.987750e-02
4.935676e+02	-4.033734e-02
4.964185e+02	-4.080245e-02
4.992858e+02	-4.127291e-02
5.021696e+02	-4.174876e-02
5.050701e+02	-4.223008e-02
5.079874e+02	-4.271691e-02
5.109215e+02	-4.320933e-02
5.138726e+02	-4.370740e-02
5.168407e+02	-4.421117e-02
5.198259e+02	-4.472073e-02
5.228284e+02	-4.523613e-02
5.258482e+02	-4.575743e-02
5.288855e+02	-4.628471e-02
5.319403e+02	-4.681804e-02
5.350128e+02	-4.735747e-02
5.381030e+02	-4.790309e-02
5.412111e+02	-4.845496e-02
5.443371e+02	-4.901315e-02
5.474812e+02	-4.957773e-02
5.506434e+02	-5.014878e-02
5.538239e+02	-5.072637e-02
5.570228e+02	-5.131057e-02
5.602401e+02	-5.190146e-02
5.634760e+02	-5.249911e-02
5.667306e+02	-5.310360e-02
5.700040e+02	-5.371501e-02
5.732964e+02	-5.433341e-02
5.766077e+02	-5.495889e-02
5.799382e+02	-5.559152e-02
5.832879e+02	-5.623139e-02
5.866569e+02	-5.687857e-02
5.900454e+02	-5.753315e-02
5.934535e+02	-5.819522e-02
5.968813e+02	-5.886485e-02
6.003288e+02	-5.954214e-02
6.037963e+02	-6.022716e-02
6.072838e+02	-6.092001e-02
6.107914e+02	-6.162077e-02
6.143194e+02	-6.232953e-02
6.178676e+02	-6.304639e-02
6.214364e+02	-6.377143e-02
6.250258e+02	-6.450475e-02
6.286359e+02	-6.524644e-02
6.322669e+02	-6.599659e-02
6.359189e+02	-6.675529e-02
6.395919e+02	-6.752266e-02
6.432862e+02	-6.829877e-02
6.470017e+02	-6.908373e-02
6.507388e+02	-6.987764e-02
6.544974e+02	-7.068061e-02
6.582778e+02	-7.149272e-02
6.620800e+02	-7.231408e-02
6.659041e+02	-7.314480e-02
6.697504e+02	-7.398498e-02
6.736188e+02	-7.483474e-02
6.775096e+02	-7.569416e-02
6.814229e+02	-7.656337e-02
6.853587e+02	-7.744247e-02
6.893173e+02	-7.833157e-02
6.932988e+02	-7.923078e-02
6.973033e+02	-8.014023e-02
7.013309e+02	-8.106001e-02
