Frequency(Hz)	Magnitude(dB)
1.000000e+01	-2.162543e+00
1.005776e+01	-2.182345e+00
1.011585e+01	-2.201990e+00
1.017428e+01	-2.221819e+00
1.023305e+01	-2.242224e+00
1.029215e+01	-2.262384e+00
1.035160e+01	-2.282757e+00
1.041139e+01	-2.303099e+00
1.047153e+01	-2.324074e+00
1.053201e+01	-2.344685e+00
1.059284e+01	-2.365612e+00
1.065403e+01	-2.386795e+00
1.071556e+01	-2.407828e+00
1.077746e+01	-2.429287e+00
1.083971e+01	-2.450752e+00
1.090232e+01	-2.472546e+00
1.096529e+01	-2.494125e+00
1.102862e+01	-2.516132e+00
1.109232e+01	-2.538308e+00
1.115639e+01	-2.560435e+00
1.122083e+01	-2.582801e+00
1.128564e+01	-2.605327e+00
1.135083e+01	-2.627864e+00
1.141639e+01	-2.650849e+00
1.148233e+01	-2.673679e+00
1.154865e+01	-2.696667e+00
1.161536e+01	-2.720032e+00
1.168245e+01	-2.743291e+00
1.174992e+01	-2.766677e+00
1.181779e+01	-2.790605e+00
1.188605e+01	-2.814138e+00
1.195470e+01	-2.838222e+00
1.202375e+01	-2.862349e+00
1.209320e+01	-2.886370e+00
1.216305e+01	-2.910703e+00
1.223330e+01	-2.935438e+00
1.230396e+01	-2.960005e+00
1.237503e+01	-2.984649e+00
1.244651e+01	-3.009667e+00
1.251840e+01	-3.034739e+00
1.259070e+01	-3.060017e+00
1.266343e+01	-3.085347e+00
1.273657e+01	-3.110778e+00
1.281014e+01	-3.136679e+00
1.288413e+01	-3.162479e+00
1.295855e+01	-3.188411e+00
1.303339e+01	-3.214300e+00
1.310867e+01	-3.240474e+00
1.318439e+01	-3.267197e+00
1.326054e+01	-3.293503e+00
1.333713e+01	-3.320072e+00
1.341417e+01	-3.346826e+00
1.349165e+01	-3.373943e+00
1.356958e+01	-3.401010e+00
1.364795e+01	-3.428281e+00
1.372678e+01	-3.455518e+00
1.380607e+01	-3.483331e+00
1.388581e+01	-3.510879e+00
1.396602e+01	-3.538567e+00
1.404668e+01	-3.566322e+00
1.412782e+01	-3.594626e+00
1.420942e+01	-3.622838e+00
1.429149e+01	-3.651293e+00
1.437404e+01	-3.679670e+00
1.445706e+01	-3.708443e+00
1.454057e+01	-3.737262e+00
1.462455e+01	-3.766200e+00
1.470902e+01	-3.795131e+00
1.479398e+01	-3.824569e+00
1.487943e+01	-3.853835e+00
1.496537e+01	-3.883203e+00
1.505181e+01	-3.912974e+00
1.513875e+01	-3.942723e+00
1.522619e+01	-3.972604e+00
1.531414e+01	-4.002645e+00
1.540259e+01	-4.033107e+00
1.549156e+01	-4.063256e+00
1.558103e+01	-4.093592e+00
1.567103e+01	-4.124187e+00
1.576155e+01	-4.154942e+00
1.585258e+01	-4.185840e+00
1.594415e+01	-4.217010e+00
1.603624e+01	-4.247853e+00
1.612886e+01	-4.279361e+00
1.622202e+01	-4.310925e+00
1.631572e+01	-4.342166e+00
1.640996e+01	-4.374143e+00
1.650474e+01	-4.405793e+00
1.660008e+01	-4.437777e+00
1.669596e+01	-4.469641e+00
1.679239e+01	-4.502111e+00
1.688938e+01	-4.534477e+00
1.698694e+01	-4.566904e+00
1.708505e+01	-4.599454e+00
1.718373e+01	-4.632332e+00
1.728299e+01	-4.665464e+00
1.738281e+01	-4.698288e+00
1.748322e+01	-4.731382e+00
1.758420e+01	-4.764704e+00
1.768576e+01	-4.797799e+00
1.778792e+01	-4.831341e+00
1.789066e+01	-4.864741e+00
1.799399e+01	-4.898888e+00
1.809793e+01	-4.932676e+00
1.820246e+01	-4.966874e+00
1.830760e+01	-5.000627e+00
1.841334e+01	-5.035301e+00
1.851969e+01	-5.069499e+00
1.862666e+01	-5.103918e+00
1.873425e+01	-5.139177e+00
1.884246e+01	-5.173333e+00
1.895129e+01	-5.208437e+00
1.906075e+01	-5.243389e+00
1.917085e+01	-5.278501e+00
1.928158e+01	-5.313829e+00
1.939295e+01	-5.349047e+00
1.950496e+01	-5.384900e+00
1.961762e+01	-5.420379e+00
1.973093e+01	-5.455913e+00
1.984490e+01	-5.492237e+00
1.995952e+01	-5.527583e+00
2.007480e+01	-5.563838e+00
2.019076e+01	-5.600092e+00
2.030738e+01	-5.636019e+00
2.042467e+01	-5.672859e+00
2.054264e+01	-5.709252e+00
2.066130e+01	-5.746237e+00
2.078064e+01	-5.782790e+00
2.090066e+01	-5.819722e+00
2.102139e+01	-5.856541e+00
2.114280e+01	-5.893589e+00
2.126492e+01	-5.930725e+00
2.138775e+01	-5.968090e+00
2.151128e+01	-6.005734e+00
2.163553e+01	-6.042932e+00
2.176050e+01	-6.080692e+00
2.188619e+01	-6.118629e+00
2.201260e+01	-6.156171e+00
2.213974e+01	-6.194144e+00
2.226762e+01	-6.232554e+00
2.239624e+01	-6.270675e+00
2.252560e+01	-6.308802e+00
2.265571e+01	-6.347055e+00
2.278656e+01	-6.385739e+00
2.291818e+01	-6.423847e+00
2.305055e+01	-6.462862e+00
2.318369e+01	-6.501739e+00
2.331760e+01	-6.540610e+00
2.345228e+01	-6.579631e+00
2.358774e+01	-6.618730e+00
2.372398e+01	-6.657768e+00
2.386101e+01	-6.697357e+00
2.399883e+01	-6.736279e+00
2.413745e+01	-6.776157e+00
2.427686e+01	-6.815449e+00
2.441709e+01	-6.855372e+00
2.455812e+01	-6.895123e+00
2.469997e+01	-6.934882e+00
2.484263e+01	-6.974995e+00
2.498612e+01	-7.014822e+00
2.513044e+01	-7.055202e+00
2.527559e+01	-7.094943e+00
2.542158e+01	-7.134849e+00
2.556842e+01	-7.175877e+00
2.571610e+01	-7.215814e+00
2.586463e+01	-7.257150e+00
2.601403e+01	-7.297680e+00
2.616428e+01	-7.338760e+00
2.631541e+01	-7.378824e+00
2.646740e+01	-7.420090e+00
2.662028e+01	-7.461130e+00
2.677404e+01	-7.502178e+00
2.692868e+01	-7.543127e+00
2.708422e+01	-7.584103e+00
2.724066e+01	-7.626001e+00
2.739800e+01	-7.667692e+00
2.755625e+01	-7.708688e+00
2.771541e+01	-7.750449e+00
2.787550e+01	-7.792160e+00
2.803650e+01	-7.833574e+00
2.819844e+01	-7.875528e+00
2.836131e+01	-7.917312e+00
2.852513e+01	-7.959318e+00
2.868989e+01	-8.002242e+00
2.885560e+01	-8.043914e+00
2.902227e+01	-8.085959e+00
2.918990e+01	-8.127838e+00
2.935850e+01	-8.170726e+00
2.952807e+01	-8.213212e+00
2.969863e+01	-8.255528e+00
2.987016e+01	-8.298231e+00
3.004269e+01	-8.340651e+00
3.021622e+01	-8.383569e+00
3.039075e+01	-8.426011e+00
3.056628e+01	-8.468817e+00
3.074283e+01	-8.512102e+00
3.092040e+01	-8.555513e+00
3.109900e+01	-8.598215e+00
3.127862e+01	-8.641405e+00
3.145929e+01	-8.684885e+00
3.164099e+01	-8.727933e+00
3.182375e+01	-8.771508e+00
3.200756e+01	-8.814461e+00
3.219244e+01	-8.858267e+00
3.237838e+01	-8.901891e+00
3.256540e+01	-8.944704e+00
3.275349e+01	-8.988694e+00
3.294268e+01	-9.032579e+00
3.313295e+01	-9.076836e+00
3.332433e+01	-9.120161e+00
3.351681e+01	-9.164698e+00
3.371040e+01	-9.208247e+00
3.390511e+01	-9.251929e+00
3.410094e+01	-9.296439e+00
3.429791e+01	-9.340022e+00
3.449601e+01	-9.384916e+00
3.469526e+01	-9.428820e+00
3.489566e+01	-9.473240e+00
3.509721e+01	-9.517990e+00
3.529993e+01	-9.562663e+00
3.550382e+01	-9.606919e+00
3.570889e+01	-9.651918e+00
3.591515e+01	-9.695806e+00
3.612259e+01	-9.740931e+00
3.633123e+01	-9.785370e+00
3.654108e+01	-9.829774e+00
3.675214e+01	-9.875279e+00
3.696442e+01	-9.920795e+00
3.717792e+01	-9.964747e+00
3.739266e+01	-1.001009e+01
3.760864e+01	-1.005457e+01
3.782587e+01	-1.010040e+01
3.804435e+01	-1.014542e+01
3.826409e+01	-1.019073e+01
3.848510e+01	-1.023600e+01
3.870739e+01	-1.028137e+01
3.893096e+01	-1.032635e+01
3.915583e+01	-1.037171e+01
3.938199e+01	-1.041734e+01
3.960946e+01	-1.046307e+01
3.983824e+01	-1.050817e+01
4.006834e+01	-1.055380e+01
4.029978e+01	-1.059958e+01
4.053255e+01	-1.064510e+01
4.076666e+01	-1.069094e+01
4.100213e+01	-1.073686e+01
4.123896e+01	-1.078246e+01
4.147715e+01	-1.082833e+01
4.171672e+01	-1.087507e+01
4.195767e+01	-1.092008e+01
4.220002e+01	-1.096714e+01
4.244377e+01	-1.101225e+01
4.268892e+01	-1.105866e+01
4.293549e+01	-1.110501e+01
4.318348e+01	-1.115132e+01
4.343291e+01	-1.119754e+01
4.368377e+01	-1.124329e+01
4.393609e+01	-1.128931e+01
4.418986e+01	-1.133685e+01
4.444510e+01	-1.138251e+01
4.470182e+01	-1.142939e+01
4.496001e+01	-1.147520e+01
4.521970e+01	-1.152190e+01
4.548089e+01	-1.156854e+01
4.574358e+01	-1.161531e+01
4.600779e+01	-1.166203e+01
4.627353e+01	-1.170807e+01
4.654081e+01	-1.175470e+01
4.680963e+01	-1.180126e+01
4.708000e+01	-1.184732e+01
4.735193e+01	-1.189578e+01
4.762543e+01	-1.194235e+01
4.790051e+01	-1.198851e+01
4.817719e+01	-1.203563e+01
4.845545e+01	-1.208237e+01
4.873533e+01	-1.212902e+01
4.901682e+01	-1.217656e+01
4.929994e+01	-1.222360e+01
4.958470e+01	-1.227127e+01
4.987110e+01	-1.231681e+01
5.015915e+01	-1.236479e+01
5.044887e+01	-1.241163e+01
5.074026e+01	-1.245883e+01
5.103333e+01	-1.250606e+01
5.132810e+01	-1.255351e+01
5.162457e+01	-1.260060e+01
5.192275e+01	-1.264812e+01
5.222265e+01	-1.269574e+01
5.252429e+01	-1.274293e+01
5.282767e+01	-1.279019e+01
5.313280e+01	-1.283791e+01
5.343969e+01	-1.288489e+01
5.374836e+01	-1.293235e+01
5.405880e+01	-1.297978e+01
5.437105e+01	-1.302656e+01
5.468509e+01	-1.307495e+01
5.500095e+01	-1.312265e+01
5.531863e+01	-1.317023e+01
5.563815e+01	-1.321767e+01
5.595951e+01	-1.326523e+01
5.628273e+01	-1.331327e+01
5.660782e+01	-1.336098e+01
5.693479e+01	-1.340869e+01
5.726364e+01	-1.345575e+01
5.759439e+01	-1.350412e+01
5.792705e+01	-1.355149e+01
5.826164e+01	-1.359974e+01
5.859815e+01	-1.364787e+01
5.893662e+01	-1.369490e+01
5.927703e+01	-1.374288e+01
5.961941e+01	-1.379118e+01
5.996377e+01	-1.383895e+01
6.031012e+01	-1.388693e+01
6.065847e+01	-1.393540e+01
6.100883e+01	-1.398316e+01
6.136121e+01	-1.403117e+01
6.171563e+01	-1.408006e+01
6.207210e+01	-1.412793e+01
6.243063e+01	-1.417576e+01
6.279122e+01	-1.422340e+01
6.315390e+01	-1.427218e+01
6.351868e+01	-1.431992e+01
6.388556e+01	-1.436780e+01
6.425456e+01	-1.441636e+01
6.462569e+01	-1.446531e+01
6.499897e+01	-1.451271e+01
6.537440e+01	-1.456016e+01
6.575200e+01	-1.460869e+01
6.613178e+01	-1.465743e+01
6.651375e+01	-1.470568e+01
6.689793e+01	-1.475490e+01
6.728433e+01	-1.480357e+01
6.767297e+01	-1.485104e+01
6.806384e+01	-1.489935e+01
6.845698e+01	-1.494707e+01
6.885238e+01	-1.499605e+01
6.925007e+01	-1.504495e+01
6.965005e+01	-1.509319e+01
7.005235e+01	-1.514147e+01
7.045697e+01	-1.519090e+01
7.086393e+01	-1.523768e+01
7.127323e+01	-1.528712e+01
7.168490e+01	-1.533523e+01
7.209895e+01	-1.538377e+01
7.251539e+01	-1.543256e+01
7.293424e+01	-1.548194e+01
7.335551e+01	-1.553016e+01
7.377920e+01	-1.557953e+01
7.420535e+01	-1.562754e+01
7.463396e+01	-1.567541e+01
7.506504e+01	-1.572561e+01
7.549861e+01	-1.577433e+01
7.593469e+01	-1.582238e+01
7.637328e+01	-1.587018e+01
7.681441e+01	-1.591943e+01
7.725809e+01	-1.596826e+01
7.770433e+01	-1.601733e+01
7.815315e+01	-1.606513e+01
7.860456e+01	-1.611383e+01
7.905857e+01	-1.616424e+01
7.951521e+01	-1.621271e+01
7.997449e+01	-1.626038e+01
8.043642e+01	-1.630996e+01
8.090102e+01	-1.635860e+01
8.136830e+01	-1.640755e+01
8.183828e+01	-1.645615e+01
8.231097e+01	-1.650623e+01
8.278640e+01	-1.655428e+01
8.326457e+01	-1.660409e+01
8.374550e+01	-1.665336e+01
8.422921e+01	-1.670096e+01
8.471572e+01	-1.674967e+01
8.520503e+01	-1.679919e+01
8.569717e+01	-1.684804e+01
8.619215e+01	-1.689684e+01
8.669000e+01	-1.694677e+01
8.719071e+01	-1.699525e+01
8.769432e+01	-1.704338e+01
8.820084e+01	-1.709370e+01
8.871029e+01	-1.714174e+01
8.922267e+01	-1.719137e+01
8.973802e+01	-1.724046e+01
9.025634e+01	-1.729005e+01
9.077766e+01	-1.733980e+01
9.130199e+01	-1.738985e+01
9.182935e+01	-1.743722e+01
9.235975e+01	-1.748728e+01
9.289321e+01	-1.753484e+01
9.342976e+01	-1.758367e+01
9.396941e+01	-1.763423e+01
9.451217e+01	-1.768374e+01
9.505807e+01	-1.773109e+01
9.560712e+01	-1.778148e+01
9.615934e+01	-1.782995e+01
9.671476e+01	-1.787869e+01
9.727338e+01	-1.792749e+01
9.783522e+01	-1.797909e+01
9.840032e+01	-1.802736e+01
9.896867e+01	-1.807707e+01
9.954031e+01	-1.812601e+01
1.001153e+02	-1.817545e+01
1.006935e+02	-1.822406e+01
1.012751e+02	-1.827475e+01
1.018601e+02	-1.832270e+01
1.024484e+02	-1.837331e+01
1.030402e+02	-1.842219e+01
1.036353e+02	-1.847096e+01
1.042339e+02	-1.852066e+01
1.048360e+02	-1.856936e+01
1.054415e+02	-1.861863e+01
1.060505e+02	-1.866716e+01
1.066631e+02	-1.871869e+01
1.072791e+02	-1.876681e+01
1.078988e+02	-1.881738e+01
1.085220e+02	-1.886620e+01
1.091488e+02	-1.891486e+01
1.097793e+02	-1.896541e+01
1.104133e+02	-1.901455e+01
1.110511e+02	-1.906261e+01
1.116925e+02	-1.911255e+01
1.123376e+02	-1.916145e+01
1.129865e+02	-1.921228e+01
1.136391e+02	-1.926162e+01
1.142955e+02	-1.931076e+01
1.149556e+02	-1.935956e+01
1.156196e+02	-1.940998e+01
1.162874e+02	-1.945838e+01
1.169591e+02	-1.950840e+01
1.176347e+02	-1.955815e+01
1.183141e+02	-1.960720e+01
1.189975e+02	-1.965756e+01
1.196848e+02	-1.970634e+01
1.203761e+02	-1.975813e+01
1.210714e+02	-1.980588e+01
1.217707e+02	-1.985444e+01
1.224740e+02	-1.990316e+01
1.231814e+02	-1.995297e+01
1.238929e+02	-2.000363e+01
1.246085e+02	-2.005172e+01
1.253283e+02	-2.010310e+01
1.260522e+02	-2.015201e+01
1.267802e+02	-2.020089e+01
1.275125e+02	-2.025119e+01
1.282490e+02	-2.030257e+01
1.289898e+02	-2.035076e+01
1.297348e+02	-2.039997e+01
1.304842e+02	-2.044953e+01
1.312378e+02	-2.050013e+01
1.319959e+02	-2.054813e+01
1.327583e+02	-2.059834e+01
1.335251e+02	-2.064761e+01
1.342963e+02	-2.069866e+01
1.350720e+02	-2.074663e+01
1.358522e+02	-2.079805e+01
1.366368e+02	-2.084553e+01
1.374260e+02	-2.089793e+01
1.382198e+02	-2.094478e+01
1.390182e+02	-2.099522e+01
1.398211e+02	-2.104708e+01
1.406287e+02	-2.109447e+01
1.414410e+02	-2.114395e+01
1.422579e+02	-2.119421e+01
1.430796e+02	-2.124251e+01
1.439060e+02	-2.129421e+01
1.447372e+02	-2.134316e+01
1.455732e+02	-2.139302e+01
1.464141e+02	-2.144147e+01
1.472597e+02	-2.149204e+01
1.481103e+02	-2.154154e+01
1.489658e+02	-2.159025e+01
1.498262e+02	-2.164104e+01
1.506916e+02	-2.168993e+01
1.515620e+02	-2.173970e+01
1.524374e+02	-2.179042e+01
1.533179e+02	-2.183957e+01
1.542034e+02	-2.188909e+01
1.550941e+02	-2.193835e+01
1.559899e+02	-2.198954e+01
1.568909e+02	-2.203986e+01
1.577971e+02	-2.208899e+01
1.587085e+02	-2.213809e+01
1.596252e+02	-2.218799e+01
1.605472e+02	-2.223734e+01
1.614745e+02	-2.228845e+01
1.624072e+02	-2.233595e+01
1.633453e+02	-2.238803e+01
1.642887e+02	-2.243562e+01
1.652377e+02	-2.248642e+01
1.661921e+02	-2.253571e+01
1.671520e+02	-2.258626e+01
1.681175e+02	-2.263417e+01
1.690885e+02	-2.268365e+01
1.700651e+02	-2.273566e+01
1.710474e+02	-2.278468e+01
1.720354e+02	-2.283467e+01
1.730291e+02	-2.288398e+01
1.740285e+02	-2.293547e+01
1.750337e+02	-2.298569e+01
1.760446e+02	-2.303551e+01
1.770615e+02	-2.308180e+01
1.780842e+02	-2.313309e+01
1.791128e+02	-2.318113e+01
1.801473e+02	-2.323294e+01
1.811878e+02	-2.328298e+01
1.822344e+02	-2.333308e+01
1.832870e+02	-2.338317e+01
1.843456e+02	-2.343084e+01
1.854104e+02	-2.348415e+01
1.864813e+02	-2.353306e+01
1.875584e+02	-2.358058e+01
1.886418e+02	-2.363218e+01
1.897313e+02	-2.368170e+01
1.908272e+02	-2.373358e+01
1.919294e+02	-2.378293e+01
1.930380e+02	-2.383191e+01
1.941530e+02	-2.387968e+01
1.952744e+02	-2.393122e+01
1.964023e+02	-2.398229e+01
1.975367e+02	-2.403032e+01
1.986777e+02	-2.407786e+01
1.998252e+02	-2.412859e+01
2.009794e+02	-2.417869e+01
2.021403e+02	-2.422950e+01
2.033078e+02	-2.428064e+01
2.044821e+02	-2.433014e+01
2.056632e+02	-2.438076e+01
2.068511e+02	-2.443004e+01
2.080459e+02	-2.447993e+01
2.092475e+02	-2.453027e+01
2.104561e+02	-2.458004e+01
2.116717e+02	-2.462849e+01
2.128943e+02	-2.467768e+01
2.141240e+02	-2.472891e+01
2.153608e+02	-2.477821e+01
2.166047e+02	-2.482948e+01
2.178558e+02	-2.487754e+01
2.191141e+02	-2.492768e+01
2.203797e+02	-2.498043e+01
2.216526e+02	-2.502849e+01
2.229329e+02	-2.507585e+01
2.242205e+02	-2.513101e+01
2.255156e+02	-2.518245e+01
2.268182e+02	-2.522678e+01
2.281283e+02	-2.527346e+01
2.294459e+02	-2.532513e+01
2.307712e+02	-2.537873e+01
2.321041e+02	-2.542414e+01
2.334447e+02	-2.547761e+01
2.347931e+02	-2.552734e+01
2.361493e+02	-2.557750e+01
2.375133e+02	-2.562688e+01
2.388851e+02	-2.567893e+01
2.402649e+02	-2.572675e+01
2.416527e+02	-2.577812e+01
2.430484e+02	-2.582725e+01
2.444523e+02	-2.587958e+01
2.458642e+02	-2.592544e+01
2.472843e+02	-2.597668e+01
2.487126e+02	-2.602571e+01
2.501492e+02	-2.608034e+01
2.515940e+02	-2.612895e+01
2.530472e+02	-2.617744e+01
2.545088e+02	-2.622486e+01
2.559789e+02	-2.627844e+01
2.574574e+02	-2.632512e+01
2.589444e+02	-2.637818e+01
2.604401e+02	-2.642763e+01
2.619444e+02	-2.647830e+01
2.634574e+02	-2.652503e+01
2.649791e+02	-2.657340e+01
2.665096e+02	-2.662551e+01
2.680489e+02	-2.667978e+01
2.695972e+02	-2.672772e+01
2.711544e+02	-2.677754e+01
2.727205e+02	-2.682466e+01
2.742958e+02	-2.687367e+01
2.758801e+02	-2.692299e+01
2.774736e+02	-2.697499e+01
2.790762e+02	-2.702477e+01
2.806882e+02	-2.707500e+01
2.823094e+02	-2.712548e+01
2.839400e+02	-2.717455e+01
2.855800e+02	-2.722500e+01
2.872295e+02	-2.727845e+01
2.888886e+02	-2.732739e+01
2.905572e+02	-2.737963e+01
2.922354e+02	-2.742490e+01
2.939234e+02	-2.747760e+01
2.956211e+02	-2.752438e+01
2.973286e+02	-2.757889e+01
2.990459e+02	-2.762769e+01
3.007732e+02	-2.767563e+01
3.025104e+02	-2.772443e+01
3.042577e+02	-2.777755e+01
3.060151e+02	-2.782617e+01
3.077826e+02	-2.787726e+01
3.095604e+02	-2.792932e+01
3.113484e+02	-2.797834e+01
3.131467e+02	-2.802453e+01
3.149554e+02	-2.807683e+01
3.167746e+02	-2.812496e+01
3.186043e+02	-2.817549e+01
3.204445e+02	-2.822647e+01
3.222954e+02	-2.827755e+01
3.241570e+02	-2.832556e+01
3.260293e+02	-2.837873e+01
3.279124e+02	-2.842810e+01
3.298064e+02	-2.847551e+01
3.317114e+02	-2.853023e+01
3.336273e+02	-2.857154e+01
3.355544e+02	-2.862824e+01
3.374925e+02	-2.867549e+01
3.394418e+02	-2.872324e+01
3.414024e+02	-2.877491e+01
3.433744e+02	-2.882780e+01
3.453577e+02	-2.887532e+01
3.473525e+02	-2.892645e+01
3.493588e+02	-2.897837e+01
3.513766e+02	-2.902394e+01
3.534062e+02	-2.907972e+01
3.554474e+02	-2.912468e+01
3.575005e+02	-2.917549e+01
3.595654e+02	-2.923241e+01
3.616422e+02	-2.927523e+01
3.637311e+02	-2.932452e+01
3.658320e+02	-2.937182e+01
3.679450e+02	-2.943362e+01
3.700702e+02	-2.948004e+01
3.722077e+02	-2.952947e+01
3.743576e+02	-2.957691e+01
3.765199e+02	-2.962979e+01
3.786946e+02	-2.967914e+01
3.808820e+02	-2.973017e+01
3.830819e+02	-2.977731e+01
3.852946e+02	-2.983160e+01
3.875200e+02	-2.987557e+01
3.897583e+02	-2.992690e+01
3.920096e+02	-2.997638e+01
3.942738e+02	-3.002531e+01
3.965511e+02	-3.007727e+01
3.988416e+02	-3.013016e+01
4.011452e+02	-3.017617e+01
4.034622e+02	-3.022783e+01
4.057926e+02	-3.027942e+01
4.081365e+02	-3.032819e+01
4.104938e+02	-3.037651e+01
4.128648e+02	-3.042889e+01
4.152495e+02	-3.048110e+01
4.176480e+02	-3.052819e+01
4.200603e+02	-3.058193e+01
4.224866e+02	-3.063157e+01
4.249268e+02	-3.067853e+01
4.273812e+02	-3.072631e+01
4.298497e+02	-3.078279e+01
4.323325e+02	-3.083316e+01
4.348297e+02	-3.087814e+01
4.373412e+02	-3.093276e+01
4.398673e+02	-3.097878e+01
4.424079e+02	-3.103008e+01
4.449633e+02	-3.108015e+01
4.475334e+02	-3.112534e+01
4.501183e+02	-3.118125e+01
4.527182e+02	-3.123068e+01
4.553330e+02	-3.128166e+01
4.579630e+02	-3.132978e+01
4.606082e+02	-3.137227e+01
4.632687e+02	-3.143132e+01
4.659445e+02	-3.147622e+01
4.686358e+02	-3.153444e+01
4.713426e+02	-3.158134e+01
4.740650e+02	-3.163219e+01
4.768032e+02	-3.168455e+01
4.795572e+02	-3.172809e+01
4.823271e+02	-3.178259e+01
4.851130e+02	-3.183728e+01
4.879150e+02	-3.188487e+01
4.907332e+02	-3.193088e+01
4.935676e+02	-3.198120e+01
4.964185e+02	-3.203217e+01
4.992858e+02	-3.208564e+01
5.021696e+02	-3.213143e+01
5.050701e+02	-3.218712e+01
5.079874e+02	-3.223159e+01
5.109215e+02	-3.229046e+01
5.138726e+02	-3.234247e+01
5.168407e+02	-3.237790e+01
5.198259e+02	-3.243254e+01
5.228284e+02	-3.248249e+01
5.258482e+02	-3.253389e+01
5.288855e+02	-3.258396e+01
5.319403e+02	-3.263230e+01
5.350128e+02	-3.268506e+01
5.381030e+02	-3.272875e+01
5.412111e+02	-3.278788e+01
5.443371e+02	-3.283660e+01
5.474812e+02	-3.289310e+01
5.506434e+02	-3.294029e+01
5.538239e+02	-3.299348e+01
5.570228e+02	-3.304582e+01
5.602401e+02	-3.308027e+01
5.634760e+02	-3.314065e+01
5.667306e+02	-3.318950e+01
5.700040e+02	-3.324291e+01
5.732964e+02	-3.329162e+01
5.766077e+02	-3.334500e+01
5.799382e+02	-3.338651e+01
5.832879e+02	-3.344219e+01
5.866569e+02	-3.349375e+01
5.900454e+02	-3.353616e+01
5.934535e+02	-3.359227e+01
5.968813e+02	-3.364006e+01
6.003288e+02	-3.368747e+01
6.037963e+02	-3.373992e+01
6.072838e+02	-3.378913e+01
6.107914e+02	-3.383989e+01
6.143194e+02	-3.388990e+01
6.178676e+02	-3.393971e+01
6.214364e+02	-3.399745e+01
6.250258e+02	-3.404134e+01
6.286359e+02	-3.409798e+01
6.322669e+02	-3.414378e+01
6.359189e+02	-3.419387e+01
6.395919e+02	-3.424131e+01
6.432862e+02	-3.428783e+01
6.470017e+02	-3.434202e+01
6.507388e+02	-3.439243e+01
6.544974e+02	-3.444938e+01
6.582778e+02	-3.450164e+01
6.620800e+02	-3.453743e+01
6.659041e+02	-3.459357e+01
6.697504e+02	-3.465180e+01
6.736188e+02	-3.469500e+01
6.775096e+02	-3.474461e+01
6.814229e+02	-3.479714e+01
6.853587e+02	-3.484661e+01
6.893173e+02	-3.490234e+01
6.932988e+02	-3.495315e+01
6.973033e+02	-3.499820e+01
7.013309e+02	-3.504977e+01
