Frequency(Hz)	Magnitude(dB)
1.000000e+01	-1.680652e-05
1.005776e+01	-1.700123e-05
1.011585e+01	-1.719819e-05
1.017428e+01	-1.739744e-05
1.023305e+01	-1.759899e-05
1.029215e+01	-1.780288e-05
1.035160e+01	-1.800913e-05
1.041139e+01	-1.821777e-05
1.047153e+01	-1.842883e-05
1.053201e+01	-1.864233e-05
1.059284e+01	-1.885831e-05
1.065403e+01	-1.907679e-05
1.071556e+01	-1.929780e-05
1.077746e+01	-1.952137e-05
1.083971e+01	-1.974753e-05
1.090232e+01	-1.997631e-05
1.096529e+01	-2.020774e-05
1.102862e+01	-2.044185e-05
1.109232e+01	-2.067867e-05
1.115639e+01	-2.091824e-05
1.122083e+01	-2.116058e-05
1.128564e+01	-2.140573e-05
1.135083e+01	-2.165372e-05
1.141639e+01	-2.190459e-05
1.148233e+01	-2.215836e-05
1.154865e+01	-2.241507e-05
1.161536e+01	-2.267475e-05
1.168245e+01	-2.293745e-05
1.174992e+01	-2.320318e-05
1.181779e+01	-2.347200e-05
1.188605e+01	-2.374393e-05
1.195470e+01	-2.401900e-05
1.202375e+01	-2.429727e-05
1.209320e+01	-2.457876e-05
1.216305e+01	-2.486351e-05
1.223330e+01	-2.515156e-05
1.230396e+01	-2.544295e-05
1.237503e+01	-2.573771e-05
1.244651e+01	-2.603589e-05
1.251840e+01	-2.633752e-05
1.259070e+01	-2.664265e-05
1.266343e+01	-2.695131e-05
1.273657e+01	-2.726355e-05
1.281014e+01	-2.757940e-05
1.288413e+01	-2.789892e-05
1.295855e+01	-2.822213e-05
1.303339e+01	-2.854909e-05
1.310867e+01	-2.887984e-05
1.318439e+01	-2.921442e-05
1.326054e+01	-2.955288e-05
1.333713e+01	-2.989525e-05
1.341417e+01	-3.024160e-05
1.349165e+01	-3.059195e-05
1.356958e+01	-3.094637e-05
1.364795e+01	-3.130489e-05
1.372678e+01	-3.166756e-05
1.380607e+01	-3.203444e-05
1.388581e+01	-3.240557e-05
1.396602e+01	-3.278099e-05
1.404668e+01	-3.316077e-05
1.412782e+01	-3.354494e-05
1.420942e+01	-3.393357e-05
1.429149e+01	-3.432670e-05
1.437404e+01	-3.472438e-05
1.445706e+01	-3.512667e-05
1.454057e+01	-3.553362e-05
1.462455e+01	-3.594529e-05
1.470902e+01	-3.636172e-05
1.479398e+01	-3.678298e-05
1.487943e+01	-3.720912e-05
1.496537e+01	-3.764020e-05
1.505181e+01	-3.807627e-05
1.513875e+01	-3.851739e-05
1.522619e+01	-3.896362e-05
1.531414e+01	-3.941502e-05
1.540259e+01	-3.987165e-05
1.549156e+01	-4.033358e-05
1.558103e+01	-4.080085e-05
1.567103e+01	-4.127354e-05
1.576155e+01	-4.175170e-05
1.585258e+01	-4.223540e-05
1.594415e+01	-4.272471e-05
1.603624e+01	-4.321969e-05
1.612886e+01	-4.372040e-05
1.622202e+01	-4.422691e-05
1.631572e+01	-4.473928e-05
1.640996e+01	-4.525760e-05
1.650474e+01	-4.578192e-05
1.660008e+01	-4.631231e-05
1.669596e+01	-4.684885e-05
1.679239e+01	-4.739160e-05
1.688938e+01	-4.794065e-05
1.698694e+01	-4.849605e-05
1.708505e+01	-4.905789e-05
1.718373e+01	-4.962623e-05
1.728299e+01	-5.020116e-05
1.738281e+01	-5.078275e-05
1.748322e+01	-5.137108e-05
1.758420e+01	-5.196623e-05
1.768576e+01	-5.256827e-05
1.778792e+01	-5.317728e-05
1.789066e+01	-5.379335e-05
1.799399e+01	-5.441656e-05
1.809793e+01	-5.504698e-05
1.820246e+01	-5.568472e-05
1.830760e+01	-5.632983e-05
1.841334e+01	-5.698243e-05
1.851969e+01	-5.764258e-05
1.862666e+01	-5.831038e-05
1.873425e+01	-5.898592e-05
1.884246e+01	-5.966928e-05
1.895129e+01	-6.036056e-05
1.906075e+01	-6.105985e-05
1.917085e+01	-6.176724e-05
1.928158e+01	-6.248283e-05
1.939295e+01	-6.320670e-05
1.950496e+01	-6.393897e-05
1.961762e+01	-6.467971e-05
1.973093e+01	-6.542904e-05
1.984490e+01	-6.618705e-05
1.995952e+01	-6.695383e-05
2.007480e+01	-6.772951e-05
2.019076e+01	-6.851417e-05
2.030738e+01	-6.930792e-05
2.042467e+01	-7.011086e-05
2.054264e+01	-7.092311e-05
2.066130e+01	-7.174477e-05
2.078064e+01	-7.257594e-05
2.090066e+01	-7.341675e-05
2.102139e+01	-7.426729e-05
2.114280e+01	-7.512769e-05
2.126492e+01	-7.599806e-05
2.138775e+01	-7.687851e-05
2.151128e+01	-7.776916e-05
2.163553e+01	-7.867013e-05
2.176050e+01	-7.958154e-05
2.188619e+01	-8.050351e-05
2.201260e+01	-8.143615e-05
2.213974e+01	-8.237960e-05
2.226762e+01	-8.333399e-05
2.239624e+01	-8.429942e-05
2.252560e+01	-8.527605e-05
2.265571e+01	-8.626398e-05
2.278656e+01	-8.726337e-05
2.291818e+01	-8.827433e-05
2.305055e+01	-8.929700e-05
2.318369e+01	-9.033152e-05
2.331760e+01	-9.137802e-05
2.345228e+01	-9.243665e-05
2.358774e+01	-9.350755e-05
2.372398e+01	-9.459084e-05
2.386101e+01	-9.568669e-05
2.399883e+01	-9.679524e-05
2.413745e+01	-9.791663e-05
2.427686e+01	-9.905100e-05
2.441709e+01	-1.001985e-04
2.455812e+01	-1.013593e-04
2.469997e+01	-1.025336e-04
2.484263e+01	-1.037215e-04
2.498612e+01	-1.049231e-04
2.513044e+01	-1.061386e-04
2.527559e+01	-1.073683e-04
2.542158e+01	-1.086122e-04
2.556842e+01	-1.098704e-04
2.571610e+01	-1.111433e-04
2.586463e+01	-1.124309e-04
2.601403e+01	-1.137334e-04
2.616428e+01	-1.150511e-04
2.631541e+01	-1.163839e-04
2.646740e+01	-1.177323e-04
2.662028e+01	-1.190962e-04
2.677404e+01	-1.204759e-04
2.692868e+01	-1.218717e-04
2.708422e+01	-1.232836e-04
2.724066e+01	-1.247118e-04
2.739800e+01	-1.261566e-04
2.755625e+01	-1.276182e-04
2.771541e+01	-1.290966e-04
2.787550e+01	-1.305922e-04
2.803650e+01	-1.321052e-04
2.819844e+01	-1.336356e-04
2.836131e+01	-1.351838e-04
2.852513e+01	-1.367499e-04
2.868989e+01	-1.383342e-04
2.885560e+01	-1.399368e-04
2.902227e+01	-1.415580e-04
2.918990e+01	-1.431979e-04
2.935850e+01	-1.448569e-04
2.952807e+01	-1.465351e-04
2.969863e+01	-1.482327e-04
2.987016e+01	-1.499500e-04
3.004269e+01	-1.516871e-04
3.021622e+01	-1.534445e-04
3.039075e+01	-1.552221e-04
3.056628e+01	-1.570204e-04
3.074283e+01	-1.588395e-04
3.092040e+01	-1.606796e-04
3.109900e+01	-1.625411e-04
3.127862e+01	-1.644242e-04
3.145929e+01	-1.663290e-04
3.164099e+01	-1.682560e-04
3.182375e+01	-1.702052e-04
3.200756e+01	-1.721771e-04
3.219244e+01	-1.741717e-04
3.237838e+01	-1.761895e-04
3.256540e+01	-1.782307e-04
3.275349e+01	-1.802955e-04
3.294268e+01	-1.823842e-04
3.313295e+01	-1.844971e-04
3.332433e+01	-1.866346e-04
3.351681e+01	-1.887967e-04
3.371040e+01	-1.909839e-04
3.390511e+01	-1.931965e-04
3.410094e+01	-1.954347e-04
3.429791e+01	-1.976988e-04
3.449601e+01	-1.999891e-04
3.469526e+01	-2.023060e-04
3.489566e+01	-2.046497e-04
3.509721e+01	-2.070206e-04
3.529993e+01	-2.094189e-04
3.550382e+01	-2.118450e-04
3.570889e+01	-2.142993e-04
3.591515e+01	-2.167819e-04
3.612259e+01	-2.192933e-04
3.633123e+01	-2.218338e-04
3.654108e+01	-2.244038e-04
3.675214e+01	-2.270035e-04
3.696442e+01	-2.296333e-04
3.717792e+01	-2.322936e-04
3.739266e+01	-2.349847e-04
3.760864e+01	-2.377070e-04
3.782587e+01	-2.404608e-04
3.804435e+01	-2.432466e-04
3.826409e+01	-2.460646e-04
3.848510e+01	-2.489152e-04
3.870739e+01	-2.517989e-04
3.893096e+01	-2.547160e-04
3.915583e+01	-2.576668e-04
3.938199e+01	-2.606519e-04
3.960946e+01	-2.636715e-04
3.983824e+01	-2.667261e-04
4.006834e+01	-2.698161e-04
4.029978e+01	-2.729419e-04
4.053255e+01	-2.761039e-04
4.076666e+01	-2.793026e-04
4.100213e+01	-2.825383e-04
4.123896e+01	-2.858114e-04
4.147715e+01	-2.891225e-04
4.171672e+01	-2.924720e-04
4.195767e+01	-2.958602e-04
4.220002e+01	-2.992877e-04
4.244377e+01	-3.027550e-04
4.268892e+01	-3.062623e-04
4.293549e+01	-3.098103e-04
4.318348e+01	-3.133995e-04
4.343291e+01	-3.170301e-04
4.368377e+01	-3.207029e-04
4.393609e+01	-3.244182e-04
4.418986e+01	-3.281765e-04
4.444510e+01	-3.319784e-04
4.470182e+01	-3.358243e-04
4.496001e+01	-3.397148e-04
4.521970e+01	-3.436503e-04
4.548089e+01	-3.476314e-04
4.574358e+01	-3.516587e-04
4.600779e+01	-3.557326e-04
4.627353e+01	-3.598536e-04
4.654081e+01	-3.640225e-04
4.680963e+01	-3.682396e-04
4.708000e+01	-3.725056e-04
4.735193e+01	-3.768210e-04
4.762543e+01	-3.811864e-04
4.790051e+01	-3.856023e-04
4.817719e+01	-3.900694e-04
4.845545e+01	-3.945883e-04
4.873533e+01	-3.991595e-04
4.901682e+01	-4.037836e-04
4.929994e+01	-4.084614e-04
4.958470e+01	-4.131933e-04
4.987110e+01	-4.179800e-04
5.015915e+01	-4.228222e-04
5.044887e+01	-4.277205e-04
5.074026e+01	-4.326755e-04
5.103333e+01	-4.376879e-04
5.132810e+01	-4.427584e-04
5.162457e+01	-4.478876e-04
5.192275e+01	-4.530762e-04
5.222265e+01	-4.583249e-04
5.252429e+01	-4.636345e-04
5.282767e+01	-4.690055e-04
5.313280e+01	-4.744388e-04
5.343969e+01	-4.799350e-04
5.374836e+01	-4.854948e-04
5.405880e+01	-4.911191e-04
5.437105e+01	-4.968085e-04
5.468509e+01	-5.025639e-04
5.500095e+01	-5.083859e-04
5.531863e+01	-5.142753e-04
5.563815e+01	-5.202330e-04
5.595951e+01	-5.262597e-04
5.628273e+01	-5.323562e-04
5.660782e+01	-5.385233e-04
5.693479e+01	-5.447618e-04
5.726364e+01	-5.510726e-04
5.759439e+01	-5.574565e-04
5.792705e+01	-5.639144e-04
5.826164e+01	-5.704471e-04
5.859815e+01	-5.770554e-04
5.893662e+01	-5.837403e-04
5.927703e+01	-5.905027e-04
5.961941e+01	-5.973433e-04
5.996377e+01	-6.042632e-04
6.031012e+01	-6.112633e-04
6.065847e+01	-6.183445e-04
6.100883e+01	-6.255076e-04
6.136121e+01	-6.327538e-04
6.171563e+01	-6.400839e-04
6.207210e+01	-6.474989e-04
6.243063e+01	-6.549998e-04
6.279122e+01	-6.625875e-04
6.315390e+01	-6.702632e-04
6.351868e+01	-6.780278e-04
6.388556e+01	-6.858823e-04
6.425456e+01	-6.938278e-04
6.462569e+01	-7.018653e-04
6.499897e+01	-7.099960e-04
6.537440e+01	-7.182208e-04
6.575200e+01	-7.265409e-04
6.613178e+01	-7.349573e-04
6.651375e+01	-7.434713e-04
6.689793e+01	-7.520839e-04
6.728433e+01	-7.607962e-04
6.767297e+01	-7.696094e-04
6.806384e+01	-7.785248e-04
6.845698e+01	-7.875434e-04
6.885238e+01	-7.966665e-04
6.925007e+01	-8.058952e-04
6.965005e+01	-8.152308e-04
7.005235e+01	-8.246746e-04
7.045697e+01	-8.342278e-04
7.086393e+01	-8.438916e-04
7.127323e+01	-8.536674e-04
7.168490e+01	-8.635563e-04
7.209895e+01	-8.735599e-04
7.251539e+01	-8.836793e-04
7.293424e+01	-8.939159e-04
7.335551e+01	-9.042711e-04
7.377920e+01	-9.147462e-04
7.420535e+01	-9.253426e-04
7.463396e+01	-9.360618e-04
7.506504e+01	-9.469052e-04
7.549861e+01	-9.578741e-04
7.593469e+01	-9.689701e-04
7.637328e+01	-9.801946e-04
7.681441e+01	-9.915492e-04
7.725809e+01	-1.003035e-03
7.770433e+01	-1.014654e-03
7.815315e+01	-1.026408e-03
7.860456e+01	-1.038298e-03
7.905857e+01	-1.050325e-03
7.951521e+01	-1.062492e-03
7.997449e+01	-1.074800e-03
8.043642e+01	-1.087250e-03
8.090102e+01	-1.099845e-03
8.136830e+01	-1.112585e-03
8.183828e+01	-1.125473e-03
8.231097e+01	-1.138510e-03
8.278640e+01	-1.151698e-03
8.326457e+01	-1.165039e-03
8.374550e+01	-1.178535e-03
8.422921e+01	-1.192186e-03
8.471572e+01	-1.205996e-03
8.520503e+01	-1.219966e-03
8.569717e+01	-1.234098e-03
8.619215e+01	-1.248393e-03
8.669000e+01	-1.262854e-03
8.719071e+01	-1.277482e-03
8.769432e+01	-1.292280e-03
8.820084e+01	-1.307249e-03
8.871029e+01	-1.322392e-03
8.922267e+01	-1.337710e-03
8.973802e+01	-1.353205e-03
9.025634e+01	-1.368880e-03
9.077766e+01	-1.384736e-03
9.130199e+01	-1.400776e-03
9.182935e+01	-1.417002e-03
9.235975e+01	-1.433415e-03
9.289321e+01	-1.450019e-03
9.342976e+01	-1.466815e-03
9.396941e+01	-1.483806e-03
9.451217e+01	-1.500993e-03
9.505807e+01	-1.518379e-03
9.560712e+01	-1.535967e-03
9.615934e+01	-1.553759e-03
9.671476e+01	-1.571756e-03
9.727338e+01	-1.589962e-03
9.783522e+01	-1.608379e-03
9.840032e+01	-1.627009e-03
9.896867e+01	-1.645854e-03
9.954031e+01	-1.664918e-03
1.001153e+02	-1.684203e-03
1.006935e+02	-1.703711e-03
1.012751e+02	-1.723445e-03
1.018601e+02	-1.743408e-03
1.024484e+02	-1.763602e-03
1.030402e+02	-1.784029e-03
1.036353e+02	-1.804693e-03
1.042339e+02	-1.825597e-03
1.048360e+02	-1.846742e-03
1.054415e+02	-1.868133e-03
1.060505e+02	-1.889771e-03
1.066631e+02	-1.911660e-03
1.072791e+02	-1.933802e-03
1.078988e+02	-1.956200e-03
1.085220e+02	-1.978858e-03
1.091488e+02	-2.001779e-03
1.097793e+02	-2.024964e-03
1.104133e+02	-2.048419e-03
1.110511e+02	-2.072144e-03
1.116925e+02	-2.096145e-03
1.123376e+02	-2.120423e-03
1.129865e+02	-2.144983e-03
1.136391e+02	-2.169827e-03
1.142955e+02	-2.194959e-03
1.149556e+02	-2.220381e-03
1.156196e+02	-2.246098e-03
1.162874e+02	-2.272113e-03
1.169591e+02	-2.298429e-03
1.176347e+02	-2.325050e-03
1.183141e+02	-2.351979e-03
1.189975e+02	-2.379220e-03
1.196848e+02	-2.406776e-03
1.203761e+02	-2.434651e-03
1.210714e+02	-2.462849e-03
1.217707e+02	-2.491374e-03
1.224740e+02	-2.520229e-03
1.231814e+02	-2.549418e-03
1.238929e+02	-2.578945e-03
1.246085e+02	-2.608814e-03
1.253283e+02	-2.639028e-03
1.260522e+02	-2.669593e-03
1.267802e+02	-2.700511e-03
1.275125e+02	-2.731787e-03
1.282490e+02	-2.763426e-03
1.289898e+02	-2.795430e-03
1.297348e+02	-2.827805e-03
1.304842e+02	-2.860556e-03
1.312378e+02	-2.893685e-03
1.319959e+02	-2.927198e-03
1.327583e+02	-2.961098e-03
1.335251e+02	-2.995392e-03
1.342963e+02	-3.030082e-03
1.350720e+02	-3.065174e-03
1.358522e+02	-3.100672e-03
1.366368e+02	-3.136581e-03
1.374260e+02	-3.172906e-03
1.382198e+02	-3.209651e-03
1.390182e+02	-3.246822e-03
1.398211e+02	-3.284423e-03
1.406287e+02	-3.322459e-03
1.414410e+02	-3.360936e-03
1.422579e+02	-3.399858e-03
1.430796e+02	-3.439231e-03
1.439060e+02	-3.479059e-03
1.447372e+02	-3.519349e-03
1.455732e+02	-3.560104e-03
1.464141e+02	-3.601332e-03
1.472597e+02	-3.643037e-03
1.481103e+02	-3.685224e-03
1.489658e+02	-3.727900e-03
1.498262e+02	-3.771070e-03
1.506916e+02	-3.814740e-03
1.515620e+02	-3.858915e-03
1.524374e+02	-3.903601e-03
1.533179e+02	-3.948805e-03
1.542034e+02	-3.994532e-03
1.550941e+02	-4.040788e-03
1.559899e+02	-4.087580e-03
1.568909e+02	-4.134913e-03
1.577971e+02	-4.182794e-03
1.587085e+02	-4.231229e-03
1.596252e+02	-4.280224e-03
1.605472e+02	-4.329787e-03
1.614745e+02	-4.379923e-03
1.624072e+02	-4.430640e-03
1.633453e+02	-4.481944e-03
1.642887e+02	-4.533841e-03
1.652377e+02	-4.586339e-03
1.661921e+02	-4.639444e-03
1.671520e+02	-4.693165e-03
1.681175e+02	-4.747506e-03
1.690885e+02	-4.802477e-03
1.700651e+02	-4.858084e-03
1.710474e+02	-4.914334e-03
1.720354e+02	-4.971235e-03
1.730291e+02	-5.028795e-03
1.740285e+02	-5.087020e-03
1.750337e+02	-5.145920e-03
1.760446e+02	-5.205501e-03
1.770615e+02	-5.265771e-03
1.780842e+02	-5.326739e-03
1.791128e+02	-5.388412e-03
1.801473e+02	-5.450799e-03
1.811878e+02	-5.513908e-03
1.822344e+02	-5.577747e-03
1.832870e+02	-5.642325e-03
1.843456e+02	-5.707649e-03
1.854104e+02	-5.773730e-03
1.864813e+02	-5.840575e-03
1.875584e+02	-5.908193e-03
1.886418e+02	-5.976594e-03
1.897313e+02	-6.045786e-03
1.908272e+02	-6.115779e-03
1.919294e+02	-6.186581e-03
1.930380e+02	-6.258202e-03
1.941530e+02	-6.330652e-03
1.952744e+02	-6.403940e-03
1.964023e+02	-6.478076e-03
1.975367e+02	-6.553070e-03
1.986777e+02	-6.628930e-03
1.998252e+02	-6.705669e-03
2.009794e+02	-6.783295e-03
2.021403e+02	-6.861819e-03
2.033078e+02	-6.941251e-03
2.044821e+02	-7.021602e-03
2.056632e+02	-7.102882e-03
2.068511e+02	-7.185103e-03
2.080459e+02	-7.268274e-03
2.092475e+02	-7.352408e-03
2.104561e+02	-7.437514e-03
2.116717e+02	-7.523605e-03
2.128943e+02	-7.610691e-03
2.141240e+02	-7.698785e-03
2.153608e+02	-7.787897e-03
2.166047e+02	-7.878039e-03
2.178558e+02	-7.969225e-03
2.191141e+02	-8.061464e-03
2.203797e+02	-8.154770e-03
2.216526e+02	-8.249156e-03
2.229329e+02	-8.344632e-03
2.242205e+02	-8.441213e-03
2.255156e+02	-8.538910e-03
2.268182e+02	-8.637736e-03
2.281283e+02	-8.737706e-03
2.294459e+02	-8.838831e-03
2.307712e+02	-8.941126e-03
2.321041e+02	-9.044603e-03
2.334447e+02	-9.149276e-03
2.347931e+02	-9.255159e-03
2.361493e+02	-9.362267e-03
2.375133e+02	-9.470613e-03
2.388851e+02	-9.580211e-03
2.402649e+02	-9.691076e-03
2.416527e+02	-9.803222e-03
2.430484e+02	-9.916665e-03
2.444523e+02	-1.003142e-02
2.458642e+02	-1.014750e-02
2.472843e+02	-1.026492e-02
2.487126e+02	-1.038370e-02
2.501492e+02	-1.050385e-02
2.515940e+02	-1.062539e-02
2.530472e+02	-1.074834e-02
2.545088e+02	-1.087270e-02
2.559789e+02	-1.099851e-02
2.574574e+02	-1.112576e-02
2.589444e+02	-1.125449e-02
2.604401e+02	-1.138471e-02
2.619444e+02	-1.151642e-02
2.634574e+02	-1.164967e-02
2.649791e+02	-1.178445e-02
2.665096e+02	-1.192078e-02
2.680489e+02	-1.205870e-02
2.695972e+02	-1.219820e-02
2.711544e+02	-1.233932e-02
2.727205e+02	-1.248207e-02
2.742958e+02	-1.262647e-02
2.758801e+02	-1.277253e-02
2.774736e+02	-1.292028e-02
2.790762e+02	-1.306974e-02
2.806882e+02	-1.322093e-02
2.823094e+02	-1.337386e-02
2.839400e+02	-1.352856e-02
2.855800e+02	-1.368504e-02
2.872295e+02	-1.384333e-02
2.888886e+02	-1.400345e-02
2.905572e+02	-1.416542e-02
2.922354e+02	-1.432926e-02
2.939234e+02	-1.449499e-02
2.956211e+02	-1.466263e-02
2.973286e+02	-1.483221e-02
2.990459e+02	-1.500375e-02
3.007732e+02	-1.517727e-02
3.025104e+02	-1.535279e-02
3.042577e+02	-1.553033e-02
3.060151e+02	-1.570993e-02
3.077826e+02	-1.589160e-02
3.095604e+02	-1.607537e-02
3.113484e+02	-1.626125e-02
3.131467e+02	-1.644929e-02
3.149554e+02	-1.663949e-02
3.167746e+02	-1.683189e-02
3.186043e+02	-1.702650e-02
3.204445e+02	-1.722337e-02
3.222954e+02	-1.742250e-02
3.241570e+02	-1.762394e-02
3.260293e+02	-1.782770e-02
3.279124e+02	-1.803380e-02
3.298064e+02	-1.824229e-02
3.317114e+02	-1.845318e-02
3.336273e+02	-1.866650e-02
3.355544e+02	-1.888229e-02
3.374925e+02	-1.910056e-02
3.394418e+02	-1.932135e-02
3.414024e+02	-1.954469e-02
3.433744e+02	-1.977060e-02
3.453577e+02	-1.999912e-02
3.473525e+02	-2.023028e-02
3.493588e+02	-2.046410e-02
3.513766e+02	-2.070061e-02
3.534062e+02	-2.093985e-02
3.554474e+02	-2.118185e-02
3.575005e+02	-2.142664e-02
3.595654e+02	-2.167425e-02
3.616422e+02	-2.192472e-02
3.637311e+02	-2.217807e-02
3.658320e+02	-2.243435e-02
3.679450e+02	-2.269357e-02
3.700702e+02	-2.295579e-02
3.722077e+02	-2.322102e-02
3.743576e+02	-2.348931e-02
3.765199e+02	-2.376070e-02
3.786946e+02	-2.403521e-02
3.808820e+02	-2.431288e-02
3.830819e+02	-2.459375e-02
3.852946e+02	-2.487786e-02
3.875200e+02	-2.516523e-02
3.897583e+02	-2.545592e-02
3.920096e+02	-2.574996e-02
3.942738e+02	-2.604738e-02
3.965511e+02	-2.634823e-02
3.988416e+02	-2.665254e-02
4.011452e+02	-2.696036e-02
4.034622e+02	-2.727172e-02
4.057926e+02	-2.758666e-02
4.081365e+02	-2.790523e-02
4.104938e+02	-2.822746e-02
4.128648e+02	-2.855341e-02
4.152495e+02	-2.888310e-02
4.176480e+02	-2.921659e-02
4.200603e+02	-2.955392e-02
4.224866e+02	-2.989513e-02
4.249268e+02	-3.024026e-02
4.273812e+02	-3.058936e-02
4.298497e+02	-3.094248e-02
4.323325e+02	-3.129967e-02
4.348297e+02	-3.166096e-02
4.373412e+02	-3.202640e-02
4.398673e+02	-3.239605e-02
4.424079e+02	-3.276994e-02
4.449633e+02	-3.314814e-02
4.475334e+02	-3.353068e-02
4.501183e+02	-3.391762e-02
4.527182e+02	-3.430901e-02
4.553330e+02	-3.470490e-02
4.579630e+02	-3.510533e-02
4.606082e+02	-3.551037e-02
4.632687e+02	-3.592006e-02
4.659445e+02	-3.633446e-02
4.686358e+02	-3.675362e-02
4.713426e+02	-3.717759e-02
4.740650e+02	-3.760644e-02
4.768032e+02	-3.804020e-02
4.795572e+02	-3.847895e-02
4.823271e+02	-3.892274e-02
4.851130e+02	-3.937162e-02
4.879150e+02	-3.982565e-02
4.907332e+02	-4.028490e-02
4.935676e+02	-4.074942e-02
4.964185e+02	-4.121926e-02
4.992858e+02	-4.169450e-02
5.021696e+02	-4.217519e-02
5.050701e+02	-4.266140e-02
5.079874e+02	-4.315318e-02
5.109215e+02	-4.365061e-02
5.138726e+02	-4.415373e-02
5.168407e+02	-4.466263e-02
5.198259e+02	-4.517736e-02
5.228284e+02	-4.569800e-02
5.258482e+02	-4.622460e-02
5.288855e+02	-4.675723e-02
5.319403e+02	-4.729597e-02
5.350128e+02	-4.784089e-02
5.381030e+02	-4.839204e-02
5.412111e+02	-4.894951e-02
5.443371e+02	-4.951337e-02
5.474812e+02	-5.008368e-02
5.506434e+02	-5.066052e-02
5.538239e+02	-5.124397e-02
5.570228e+02	-5.183410e-02
5.602401e+02	-5.243098e-02
5.634760e+02	-5.303469e-02
5.667306e+02	-5.364531e-02
5.700040e+02	-5.426292e-02
5.732964e+02	-5.488759e-02
5.766077e+02	-5.551941e-02
5.799382e+02	-5.615845e-02
5.832879e+02	-5.680481e-02
5.866569e+02	-5.745855e-02
5.900454e+02	-5.811976e-02
5.934535e+02	-5.878853e-02
5.968813e+02	-5.946494e-02
6.003288e+02	-6.014909e-02
6.037963e+02	-6.084104e-02
6.072838e+02	-6.154091e-02
6.107914e+02	-6.224876e-02
6.143194e+02	-6.296470e-02
6.178676e+02	-6.368881e-02
6.214364e+02	-6.442118e-02
6.250258e+02	-6.516192e-02
6.286359e+02	-6.591111e-02
6.322669e+02	-6.666884e-02
6.359189e+02	-6.743522e-02
6.395919e+02	-6.821034e-02
6.432862e+02	-6.899429e-02
6.470017e+02	-6.978719e-02
6.507388e+02	-7.058912e-02
6.544974e+02	-7.140019e-02
6.582778e+02	-7.222050e-02
6.620800e+02	-7.305016e-02
6.659041e+02	-7.388926e-02
6.697504e+02	-7.473793e-02
6.736188e+02	-7.559625e-02
6.775096e+02	-7.646435e-02
6.814229e+02	-7.734232e-02
6.853587e+02	-7.823029e-02
6.893173e+02	-7.912835e-02
6.932988e+02	-8.003663e-02
6.973033e+02	-8.095524e-02
7.013309e+02	-8.188429e-02
