Frequency(Hz)	Magnitude(dB)
1.000000e+01	-1.980160e+00
1.005776e+01	-1.998646e+00
1.011585e+01	-2.017081e+00
1.017428e+01	-2.035849e+00
1.023305e+01	-2.054562e+00
1.029215e+01	-2.073353e+00
1.035160e+01	-2.092460e+00
1.041139e+01	-2.111701e+00
1.047153e+01	-2.130953e+00
1.053201e+01	-2.150298e+00
1.059284e+01	-2.170229e+00
1.065403e+01	-2.189722e+00
1.071556e+01	-2.209734e+00
1.077746e+01	-2.229580e+00
1.083971e+01	-2.250053e+00
1.090232e+01	-2.270174e+00
1.096529e+01	-2.290755e+00
1.102862e+01	-2.311278e+00
1.109232e+01	-2.331896e+00
1.115639e+01	-2.352711e+00
1.122083e+01	-2.373696e+00
1.128564e+01	-2.394929e+00
1.135083e+01	-2.416278e+00
1.141639e+01	-2.437475e+00
1.148233e+01	-2.458956e+00
1.154865e+01	-2.480751e+00
1.161536e+01	-2.502543e+00
1.168245e+01	-2.524547e+00
1.174992e+01	-2.546630e+00
1.181779e+01	-2.568930e+00
1.188605e+01	-2.591486e+00
1.195470e+01	-2.614078e+00
1.202375e+01	-2.636696e+00
1.209320e+01	-2.659455e+00
1.216305e+01	-2.682470e+00
1.223330e+01	-2.705596e+00
1.230396e+01	-2.728977e+00
1.237503e+01	-2.752329e+00
1.244651e+01	-2.775994e+00
1.251840e+01	-2.799445e+00
1.259070e+01	-2.823547e+00
1.266343e+01	-2.847121e+00
1.273657e+01	-2.871541e+00
1.281014e+01	-2.895609e+00
1.288413e+01	-2.920109e+00
1.295855e+01	-2.944891e+00
1.303339e+01	-2.969558e+00
1.310867e+01	-2.994435e+00
1.318439e+01	-3.019316e+00
1.326054e+01	-3.044567e+00
1.333713e+01	-3.069657e+00
1.341417e+01	-3.095347e+00
1.349165e+01	-3.120876e+00
1.356958e+01	-3.146370e+00
1.364795e+01	-3.172272e+00
1.372678e+01	-3.198322e+00
1.380607e+01	-3.224370e+00
1.388581e+01	-3.250708e+00
1.396602e+01	-3.277151e+00
1.404668e+01	-3.303805e+00
1.412782e+01	-3.330490e+00
1.420942e+01	-3.357181e+00
1.429149e+01	-3.384144e+00
1.437404e+01	-3.411435e+00
1.445706e+01	-3.438804e+00
1.454057e+01	-3.466192e+00
1.462455e+01	-3.493811e+00
1.470902e+01	-3.521479e+00
1.479398e+01	-3.549434e+00
1.487943e+01	-3.577302e+00
1.496537e+01	-3.605443e+00
1.505181e+01	-3.633723e+00
1.513875e+01	-3.662074e+00
1.522619e+01	-3.690649e+00
1.531414e+01	-3.719529e+00
1.540259e+01	-3.748261e+00
1.549156e+01	-3.777242e+00
1.558103e+01	-3.806311e+00
1.567103e+01	-3.835535e+00
1.576155e+01	-3.865093e+00
1.585258e+01	-3.894503e+00
1.594415e+01	-3.924423e+00
1.603624e+01	-3.954502e+00
1.612886e+01	-3.984101e+00
1.622202e+01	-4.014231e+00
1.631572e+01	-4.044355e+00
1.640996e+01	-4.074847e+00
1.650474e+01	-4.105270e+00
1.660008e+01	-4.136319e+00
1.669596e+01	-4.166545e+00
1.679239e+01	-4.197944e+00
1.688938e+01	-4.229133e+00
1.698694e+01	-4.260243e+00
1.708505e+01	-4.291422e+00
1.718373e+01	-4.322756e+00
1.728299e+01	-4.354476e+00
1.738281e+01	-4.386115e+00
1.748322e+01	-4.418056e+00
1.758420e+01	-4.450077e+00
1.768576e+01	-4.482242e+00
1.778792e+01	-4.514528e+00
1.789066e+01	-4.546964e+00
1.799399e+01	-4.579406e+00
1.809793e+01	-4.612144e+00
1.820246e+01	-4.644953e+00
1.830760e+01	-4.677808e+00
1.841334e+01	-4.711032e+00
1.851969e+01	-4.744335e+00
1.862666e+01	-4.777157e+00
1.873425e+01	-4.810626e+00
1.884246e+01	-4.844421e+00
1.895129e+01	-4.877908e+00
1.906075e+01	-4.911705e+00
1.917085e+01	-4.945552e+00
1.928158e+01	-4.980022e+00
1.939295e+01	-5.014453e+00
1.950496e+01	-5.048453e+00
1.961762e+01	-5.082667e+00
1.973093e+01	-5.117218e+00
1.984490e+01	-5.151992e+00
1.995952e+01	-5.186950e+00
2.007480e+01	-5.221816e+00
2.019076e+01	-5.256775e+00
2.030738e+01	-5.291826e+00
2.042467e+01	-5.327052e+00
2.054264e+01	-5.362609e+00
2.066130e+01	-5.398428e+00
2.078064e+01	-5.433934e+00
2.090066e+01	-5.469474e+00
2.102139e+01	-5.505320e+00
2.114280e+01	-5.541383e+00
2.126492e+01	-5.577646e+00
2.138775e+01	-5.614038e+00
2.151128e+01	-5.650159e+00
2.163553e+01	-5.686810e+00
2.176050e+01	-5.723264e+00
2.188619e+01	-5.760232e+00
2.201260e+01	-5.796867e+00
2.213974e+01	-5.833829e+00
2.226762e+01	-5.870793e+00
2.239624e+01	-5.908088e+00
2.252560e+01	-5.945090e+00
2.265571e+01	-5.982448e+00
2.278656e+01	-6.019776e+00
2.291818e+01	-6.057354e+00
2.305055e+01	-6.095196e+00
2.318369e+01	-6.132998e+00
2.331760e+01	-6.170893e+00
2.345228e+01	-6.208793e+00
2.358774e+01	-6.247042e+00
2.372398e+01	-6.285451e+00
2.386101e+01	-6.323135e+00
2.399883e+01	-6.361863e+00
2.413745e+01	-6.400292e+00
2.427686e+01	-6.438870e+00
2.441709e+01	-6.477775e+00
2.455812e+01	-6.516483e+00
2.469997e+01	-6.555609e+00
2.484263e+01	-6.594699e+00
2.498612e+01	-6.633797e+00
2.513044e+01	-6.672995e+00
2.527559e+01	-6.712170e+00
2.542158e+01	-6.751638e+00
2.556842e+01	-6.790875e+00
2.571610e+01	-6.830788e+00
2.586463e+01	-6.870317e+00
2.601403e+01	-6.910274e+00
2.616428e+01	-6.950094e+00
2.631541e+01	-6.990163e+00
2.646740e+01	-7.030258e+00
2.662028e+01	-7.070227e+00
2.677404e+01	-7.110494e+00
2.692868e+01	-7.150247e+00
2.708422e+01	-7.191223e+00
2.724066e+01	-7.231843e+00
2.739800e+01	-7.272493e+00
2.755625e+01	-7.312923e+00
2.771541e+01	-7.354031e+00
2.787550e+01	-7.394671e+00
2.803650e+01	-7.435735e+00
2.819844e+01	-7.476645e+00
2.836131e+01	-7.518224e+00
2.852513e+01	-7.559056e+00
2.868989e+01	-7.600202e+00
2.885560e+01	-7.641673e+00
2.902227e+01	-7.683462e+00
2.918990e+01	-7.724688e+00
2.935850e+01	-7.766327e+00
2.952807e+01	-7.808211e+00
2.969863e+01	-7.850111e+00
2.987016e+01	-7.891472e+00
3.004269e+01	-7.933542e+00
3.021622e+01	-7.975508e+00
3.039075e+01	-8.017487e+00
3.056628e+01	-8.060134e+00
3.074283e+01	-8.101794e+00
3.092040e+01	-8.144310e+00
3.109900e+01	-8.186881e+00
3.127862e+01	-8.229353e+00
3.145929e+01	-8.271798e+00
3.164099e+01	-8.314533e+00
3.182375e+01	-8.357313e+00
3.200756e+01	-8.400323e+00
3.219244e+01	-8.442450e+00
3.237838e+01	-8.485678e+00
3.256540e+01	-8.528429e+00
3.275349e+01	-8.571592e+00
3.294268e+01	-8.615115e+00
3.313295e+01	-8.658038e+00
3.332433e+01	-8.701483e+00
3.351681e+01	-8.744720e+00
3.371040e+01	-8.787671e+00
3.390511e+01	-8.831197e+00
3.410094e+01	-8.874728e+00
3.429791e+01	-8.918573e+00
3.449601e+01	-8.962134e+00
3.469526e+01	-9.005759e+00
3.489566e+01	-9.049602e+00
3.509721e+01	-9.093094e+00
3.529993e+01	-9.137104e+00
3.550382e+01	-9.180809e+00
3.570889e+01	-9.225325e+00
3.591515e+01	-9.269412e+00
3.612259e+01	-9.313434e+00
3.633123e+01	-9.357961e+00
3.654108e+01	-9.401612e+00
3.675214e+01	-9.446228e+00
3.696442e+01	-9.490898e+00
3.717792e+01	-9.534946e+00
3.739266e+01	-9.579433e+00
3.760864e+01	-9.624074e+00
3.782587e+01	-9.668670e+00
3.804435e+01	-9.713423e+00
3.826409e+01	-9.758301e+00
3.848510e+01	-9.802767e+00
3.870739e+01	-9.847391e+00
3.893096e+01	-9.892190e+00
3.915583e+01	-9.937338e+00
3.938199e+01	-9.982136e+00
3.960946e+01	-1.002781e+01
3.983824e+01	-1.007232e+01
4.006834e+01	-1.011776e+01
4.029978e+01	-1.016227e+01
4.053255e+01	-1.020759e+01
4.076666e+01	-1.025306e+01
4.100213e+01	-1.029879e+01
4.123896e+01	-1.034410e+01
4.147715e+01	-1.038933e+01
4.171672e+01	-1.043468e+01
4.195767e+01	-1.048004e+01
4.220002e+01	-1.052592e+01
4.244377e+01	-1.057174e+01
4.268892e+01	-1.061718e+01
4.293549e+01	-1.066267e+01
4.318348e+01	-1.070855e+01
4.343291e+01	-1.075443e+01
4.368377e+01	-1.080043e+01
4.393609e+01	-1.084682e+01
4.418986e+01	-1.089267e+01
4.444510e+01	-1.093814e+01
4.470182e+01	-1.098442e+01
4.496001e+01	-1.102995e+01
4.521970e+01	-1.107653e+01
4.548089e+01	-1.112229e+01
4.574358e+01	-1.116852e+01
4.600779e+01	-1.121454e+01
4.627353e+01	-1.126125e+01
4.654081e+01	-1.130755e+01
4.680963e+01	-1.135384e+01
4.708000e+01	-1.140023e+01
4.735193e+01	-1.144672e+01
4.762543e+01	-1.149306e+01
4.790051e+01	-1.153967e+01
4.817719e+01	-1.158626e+01
4.845545e+01	-1.163264e+01
4.873533e+01	-1.167924e+01
4.901682e+01	-1.172582e+01
4.929994e+01	-1.177304e+01
4.958470e+01	-1.182027e+01
4.987110e+01	-1.186641e+01
5.015915e+01	-1.191247e+01
5.044887e+01	-1.195958e+01
5.074026e+01	-1.200658e+01
5.103333e+01	-1.205280e+01
5.132810e+01	-1.210013e+01
5.162457e+01	-1.214663e+01
5.192275e+01	-1.219423e+01
5.222265e+01	-1.224103e+01
5.252429e+01	-1.228846e+01
5.282767e+01	-1.233507e+01
5.313280e+01	-1.238314e+01
5.343969e+01	-1.242983e+01
5.374836e+01	-1.247714e+01
5.405880e+01	-1.252349e+01
5.437105e+01	-1.257147e+01
5.468509e+01	-1.261872e+01
5.500095e+01	-1.266545e+01
5.531863e+01	-1.271369e+01
5.563815e+01	-1.276068e+01
5.595951e+01	-1.280884e+01
5.628273e+01	-1.285577e+01
5.660782e+01	-1.290233e+01
5.693479e+01	-1.295109e+01
5.726364e+01	-1.299824e+01
5.759439e+01	-1.304549e+01
5.792705e+01	-1.309309e+01
5.826164e+01	-1.314067e+01
5.859815e+01	-1.318914e+01
5.893662e+01	-1.323596e+01
5.927703e+01	-1.328411e+01
5.961941e+01	-1.333160e+01
5.996377e+01	-1.337902e+01
6.031012e+01	-1.342707e+01
6.065847e+01	-1.347463e+01
6.100883e+01	-1.352174e+01
6.136121e+01	-1.356988e+01
6.171563e+01	-1.361749e+01
6.207210e+01	-1.366601e+01
6.243063e+01	-1.371354e+01
6.279122e+01	-1.376064e+01
6.315390e+01	-1.380972e+01
6.351868e+01	-1.385768e+01
6.388556e+01	-1.390529e+01
6.425456e+01	-1.395340e+01
6.462569e+01	-1.400105e+01
6.499897e+01	-1.404891e+01
6.537440e+01	-1.409723e+01
6.575200e+01	-1.414491e+01
6.613178e+01	-1.419407e+01
6.651375e+01	-1.424240e+01
6.689793e+01	-1.428974e+01
6.728433e+01	-1.433759e+01
6.767297e+01	-1.438655e+01
6.806384e+01	-1.443507e+01
6.845698e+01	-1.448322e+01
6.885238e+01	-1.453105e+01
6.925007e+01	-1.457923e+01
6.965005e+01	-1.462781e+01
7.005235e+01	-1.467590e+01
7.045697e+01	-1.472385e+01
7.086393e+01	-1.477234e+01
7.127323e+01	-1.482015e+01
7.168490e+01	-1.486992e+01
7.209895e+01	-1.491824e+01
7.251539e+01	-1.496671e+01
7.293424e+01	-1.501447e+01
7.335551e+01	-1.506296e+01
7.377920e+01	-1.511081e+01
7.420535e+01	-1.516038e+01
7.463396e+01	-1.520815e+01
7.506504e+01	-1.525806e+01
7.549861e+01	-1.530653e+01
7.593469e+01	-1.535420e+01
7.637328e+01	-1.540333e+01
7.681441e+01	-1.545086e+01
7.725809e+01	-1.550035e+01
7.770433e+01	-1.554913e+01
7.815315e+01	-1.559686e+01
7.860456e+01	-1.564615e+01
7.905857e+01	-1.569543e+01
7.951521e+01	-1.574251e+01
7.997449e+01	-1.579267e+01
8.043642e+01	-1.584116e+01
8.090102e+01	-1.589013e+01
8.136830e+01	-1.593847e+01
8.183828e+01	-1.598587e+01
8.231097e+01	-1.603591e+01
8.278640e+01	-1.608535e+01
8.326457e+01	-1.613353e+01
8.374550e+01	-1.618322e+01
8.422921e+01	-1.623054e+01
8.471572e+01	-1.627982e+01
8.520503e+01	-1.632879e+01
8.569717e+01	-1.637798e+01
8.619215e+01	-1.642585e+01
8.669000e+01	-1.647534e+01
8.719071e+01	-1.652402e+01
8.769432e+01	-1.657320e+01
8.820084e+01	-1.662177e+01
8.871029e+01	-1.667064e+01
8.922267e+01	-1.671927e+01
8.973802e+01	-1.676889e+01
9.025634e+01	-1.681889e+01
9.077766e+01	-1.686644e+01
9.130199e+01	-1.691494e+01
9.182935e+01	-1.696498e+01
9.235975e+01	-1.701592e+01
9.289321e+01	-1.706390e+01
9.342976e+01	-1.711188e+01
9.396941e+01	-1.716032e+01
9.451217e+01	-1.721061e+01
9.505807e+01	-1.725911e+01
9.560712e+01	-1.730950e+01
9.615934e+01	-1.735745e+01
9.671476e+01	-1.740725e+01
9.727338e+01	-1.745518e+01
9.783522e+01	-1.750414e+01
9.840032e+01	-1.755429e+01
9.896867e+01	-1.760276e+01
9.954031e+01	-1.765278e+01
1.001153e+02	-1.770398e+01
1.006935e+02	-1.775105e+01
1.012751e+02	-1.780069e+01
1.018601e+02	-1.784967e+01
1.024484e+02	-1.789845e+01
1.030402e+02	-1.794775e+01
1.036353e+02	-1.799628e+01
1.042339e+02	-1.804585e+01
1.048360e+02	-1.809565e+01
1.054415e+02	-1.814604e+01
1.060505e+02	-1.819495e+01
1.066631e+02	-1.824337e+01
1.072791e+02	-1.829154e+01
1.078988e+02	-1.834119e+01
1.085220e+02	-1.839253e+01
1.091488e+02	-1.843863e+01
1.097793e+02	-1.848800e+01
1.104133e+02	-1.853932e+01
1.110511e+02	-1.858941e+01
1.116925e+02	-1.863825e+01
1.123376e+02	-1.868660e+01
1.129865e+02	-1.873547e+01
1.136391e+02	-1.878614e+01
1.142955e+02	-1.883683e+01
1.149556e+02	-1.888481e+01
1.156196e+02	-1.893308e+01
1.162874e+02	-1.898402e+01
1.169591e+02	-1.903319e+01
1.176347e+02	-1.908163e+01
1.183141e+02	-1.913124e+01
1.189975e+02	-1.918171e+01
1.196848e+02	-1.923140e+01
1.203761e+02	-1.927874e+01
1.210714e+02	-1.932852e+01
1.217707e+02	-1.937829e+01
1.224740e+02	-1.942650e+01
1.231814e+02	-1.947896e+01
1.238929e+02	-1.952747e+01
1.246085e+02	-1.957633e+01
1.253283e+02	-1.962461e+01
1.260522e+02	-1.967615e+01
1.267802e+02	-1.972621e+01
1.275125e+02	-1.977501e+01
1.282490e+02	-1.982467e+01
1.289898e+02	-1.987483e+01
1.297348e+02	-1.992204e+01
1.304842e+02	-1.997211e+01
1.312378e+02	-2.002278e+01
1.319959e+02	-2.007198e+01
1.327583e+02	-2.011979e+01
1.335251e+02	-2.017196e+01
1.342963e+02	-2.022076e+01
1.350720e+02	-2.027034e+01
1.358522e+02	-2.032037e+01
1.366368e+02	-2.036874e+01
1.374260e+02	-2.042000e+01
1.382198e+02	-2.046890e+01
1.390182e+02	-2.051920e+01
1.398211e+02	-2.056716e+01
1.406287e+02	-2.061820e+01
1.414410e+02	-2.066856e+01
1.422579e+02	-2.071616e+01
1.430796e+02	-2.076714e+01
1.439060e+02	-2.081668e+01
1.447372e+02	-2.086425e+01
1.455732e+02	-2.091456e+01
1.464141e+02	-2.096577e+01
1.472597e+02	-2.101506e+01
1.481103e+02	-2.106349e+01
1.489658e+02	-2.111530e+01
1.498262e+02	-2.116318e+01
1.506916e+02	-2.121128e+01
1.515620e+02	-2.126087e+01
1.524374e+02	-2.131055e+01
1.533179e+02	-2.136477e+01
1.542034e+02	-2.141159e+01
1.550941e+02	-2.146076e+01
1.559899e+02	-2.151184e+01
1.568909e+02	-2.156126e+01
1.577971e+02	-2.161058e+01
1.587085e+02	-2.166056e+01
1.596252e+02	-2.170838e+01
1.605472e+02	-2.175985e+01
1.614745e+02	-2.180859e+01
1.624072e+02	-2.185746e+01
1.633453e+02	-2.190983e+01
1.642887e+02	-2.195871e+01
1.652377e+02	-2.200676e+01
1.661921e+02	-2.205769e+01
1.671520e+02	-2.210664e+01
1.681175e+02	-2.215450e+01
1.690885e+02	-2.220639e+01
1.700651e+02	-2.225664e+01
1.710474e+02	-2.230621e+01
1.720354e+02	-2.235655e+01
1.730291e+02	-2.240425e+01
1.740285e+02	-2.245714e+01
1.750337e+02	-2.250607e+01
1.760446e+02	-2.255561e+01
1.770615e+02	-2.260630e+01
1.780842e+02	-2.265467e+01
1.791128e+02	-2.270591e+01
1.801473e+02	-2.275582e+01
1.811878e+02	-2.280348e+01
1.822344e+02	-2.285256e+01
1.832870e+02	-2.290362e+01
1.843456e+02	-2.295252e+01
1.854104e+02	-2.300371e+01
1.864813e+02	-2.305364e+01
1.875584e+02	-2.310251e+01
1.886418e+02	-2.315235e+01
1.897313e+02	-2.320237e+01
1.908272e+02	-2.325183e+01
1.919294e+02	-2.330119e+01
1.930380e+02	-2.335182e+01
1.941530e+02	-2.340356e+01
1.952744e+02	-2.345125e+01
1.964023e+02	-2.349958e+01
1.975367e+02	-2.355119e+01
1.986777e+02	-2.360104e+01
1.998252e+02	-2.365220e+01
2.009794e+02	-2.370303e+01
2.021403e+02	-2.375245e+01
2.033078e+02	-2.379909e+01
2.044821e+02	-2.384966e+01
2.056632e+02	-2.390105e+01
2.068511e+02	-2.395217e+01
2.080459e+02	-2.399933e+01
2.092475e+02	-2.404807e+01
2.104561e+02	-2.409853e+01
2.116717e+02	-2.415083e+01
2.128943e+02	-2.420166e+01
2.141240e+02	-2.425020e+01
2.153608e+02	-2.429903e+01
2.166047e+02	-2.434785e+01
2.178558e+02	-2.439966e+01
2.191141e+02	-2.444630e+01
2.203797e+02	-2.449782e+01
2.216526e+02	-2.454811e+01
2.229329e+02	-2.459733e+01
2.242205e+02	-2.464763e+01
2.255156e+02	-2.469788e+01
2.268182e+02	-2.475069e+01
2.281283e+02	-2.479915e+01
2.294459e+02	-2.484857e+01
2.307712e+02	-2.489790e+01
2.321041e+02	-2.494794e+01
2.334447e+02	-2.499755e+01
2.347931e+02	-2.504601e+01
2.361493e+02	-2.510082e+01
2.375133e+02	-2.514953e+01
2.388851e+02	-2.519852e+01
2.402649e+02	-2.524727e+01
2.416527e+02	-2.529975e+01
2.430484e+02	-2.534654e+01
2.444523e+02	-2.539868e+01
2.458642e+02	-2.544641e+01
2.472843e+02	-2.549646e+01
2.487126e+02	-2.554588e+01
2.501492e+02	-2.559517e+01
2.515940e+02	-2.564540e+01
2.530472e+02	-2.569784e+01
2.545088e+02	-2.574525e+01
2.559789e+02	-2.579592e+01
2.574574e+02	-2.584373e+01
2.589444e+02	-2.589267e+01
2.604401e+02	-2.594825e+01
2.619444e+02	-2.599401e+01
2.634574e+02	-2.604838e+01
2.649791e+02	-2.609370e+01
2.665096e+02	-2.614648e+01
2.680489e+02	-2.619877e+01
2.695972e+02	-2.624281e+01
2.711544e+02	-2.629650e+01
2.727205e+02	-2.634456e+01
2.742958e+02	-2.639456e+01
2.758801e+02	-2.644269e+01
2.774736e+02	-2.649499e+01
2.790762e+02	-2.654415e+01
2.806882e+02	-2.659531e+01
2.823094e+02	-2.664592e+01
2.839400e+02	-2.669357e+01
2.855800e+02	-2.674695e+01
2.872295e+02	-2.679350e+01
2.888886e+02	-2.684271e+01
2.905572e+02	-2.689391e+01
2.922354e+02	-2.694609e+01
2.939234e+02	-2.699452e+01
2.956211e+02	-2.704579e+01
2.973286e+02	-2.709807e+01
2.990459e+02	-2.714852e+01
3.007732e+02	-2.719397e+01
3.025104e+02	-2.724356e+01
3.042577e+02	-2.729714e+01
3.060151e+02	-2.734611e+01
3.077826e+02	-2.739459e+01
3.095604e+02	-2.744472e+01
3.113484e+02	-2.749625e+01
3.131467e+02	-2.754437e+01
3.149554e+02	-2.759454e+01
3.167746e+02	-2.764495e+01
3.186043e+02	-2.769293e+01
3.204445e+02	-2.774614e+01
3.222954e+02	-2.779542e+01
3.241570e+02	-2.784470e+01
3.260293e+02	-2.789465e+01
3.279124e+02	-2.794516e+01
3.298064e+02	-2.799754e+01
3.317114e+02	-2.804522e+01
3.336273e+02	-2.809730e+01
3.355544e+02	-2.814513e+01
3.374925e+02	-2.819101e+01
3.394418e+02	-2.824623e+01
3.414024e+02	-2.829424e+01
3.433744e+02	-2.834822e+01
3.453577e+02	-2.839186e+01
3.473525e+02	-2.844554e+01
3.493588e+02	-2.850054e+01
3.513766e+02	-2.854493e+01
3.534062e+02	-2.859367e+01
3.554474e+02	-2.864824e+01
3.575005e+02	-2.869861e+01
3.595654e+02	-2.874566e+01
3.616422e+02	-2.879351e+01
3.637311e+02	-2.884608e+01
3.658320e+02	-2.889630e+01
3.679450e+02	-2.894514e+01
3.700702e+02	-2.899198e+01
3.722077e+02	-2.904764e+01
3.743576e+02	-2.909766e+01
3.765199e+02	-2.914756e+01
3.786946e+02	-2.919303e+01
3.808820e+02	-2.924673e+01
3.830819e+02	-2.929410e+01
3.852946e+02	-2.934339e+01
3.875200e+02	-2.939637e+01
3.897583e+02	-2.944522e+01
3.920096e+02	-2.949534e+01
3.942738e+02	-2.954758e+01
3.965511e+02	-2.960058e+01
3.988416e+02	-2.964971e+01
4.011452e+02	-2.969455e+01
4.034622e+02	-2.974823e+01
4.057926e+02	-2.980082e+01
4.081365e+02	-2.984513e+01
4.104938e+02	-2.989672e+01
4.128648e+02	-2.994479e+01
4.152495e+02	-2.999645e+01
4.176480e+02	-3.004991e+01
4.200603e+02	-3.009457e+01
4.224866e+02	-3.015219e+01
4.249268e+02	-3.020465e+01
4.273812e+02	-3.024873e+01
4.298497e+02	-3.029262e+01
4.323325e+02	-3.034716e+01
4.348297e+02	-3.040577e+01
4.373412e+02	-3.045174e+01
4.398673e+02	-3.049945e+01
4.424079e+02	-3.055375e+01
4.449633e+02	-3.059798e+01
4.475334e+02	-3.064646e+01
4.501183e+02	-3.070605e+01
4.527182e+02	-3.074807e+01
4.553330e+02	-3.079874e+01
4.579630e+02	-3.085176e+01
4.606082e+02	-3.089623e+01
4.632687e+02	-3.094705e+01
4.659445e+02	-3.099978e+01
4.686358e+02	-3.105325e+01
4.713426e+02	-3.110466e+01
4.740650e+02	-3.114651e+01
4.768032e+02	-3.119984e+01
4.795572e+02	-3.125818e+01
4.823271e+02	-3.130444e+01
4.851130e+02	-3.134982e+01
4.879150e+02	-3.139745e+01
4.907332e+02	-3.144568e+01
4.935676e+02	-3.149494e+01
4.964185e+02	-3.154966e+01
4.992858e+02	-3.159657e+01
5.021696e+02	-3.165173e+01
5.050701e+02	-3.169842e+01
5.079874e+02	-3.175067e+01
5.109215e+02	-3.180316e+01
5.138726e+02	-3.184887e+01
5.168407e+02	-3.190163e+01
5.198259e+02	-3.195767e+01
5.228284e+02	-3.200674e+01
5.258482e+02	-3.205224e+01
5.288855e+02	-3.209889e+01
5.319403e+02	-3.215569e+01
5.350128e+02	-3.220331e+01
5.381030e+02	-3.225527e+01
5.412111e+02	-3.230910e+01
5.443371e+02	-3.235586e+01
5.474812e+02	-3.240836e+01
5.506434e+02	-3.245293e+01
5.538239e+02	-3.250416e+01
5.570228e+02	-3.255541e+01
5.602401e+02	-3.260989e+01
5.634760e+02	-3.266163e+01
5.667306e+02	-3.270961e+01
5.700040e+02	-3.275454e+01
5.732964e+02	-3.281209e+01
5.766077e+02	-3.286264e+01
5.799382e+02	-3.291016e+01
5.832879e+02	-3.295501e+01
5.866569e+02	-3.300274e+01
5.900454e+02	-3.305474e+01
5.934535e+02	-3.311531e+01
5.968813e+02	-3.315833e+01
6.003288e+02	-3.320750e+01
6.037963e+02	-3.326005e+01
6.072838e+02	-3.331168e+01
6.107914e+02	-3.336034e+01
6.143194e+02	-3.340848e+01
6.178676e+02	-3.345703e+01
6.214364e+02	-3.351423e+01
6.250258e+02	-3.356310e+01
6.286359e+02	-3.359856e+01
6.322669e+02	-3.365642e+01
6.359189e+02	-3.371859e+01
6.395919e+02	-3.376158e+01
6.432862e+02	-3.381162e+01
6.470017e+02	-3.386360e+01
6.507388e+02	-3.391513e+01
6.544974e+02	-3.396454e+01
6.582778e+02	-3.401573e+01
6.620800e+02	-3.407112e+01
6.659041e+02	-3.411601e+01
6.697504e+02	-3.416851e+01
6.736188e+02	-3.421274e+01
6.775096e+02	-3.427132e+01
6.814229e+02	-3.431274e+01
6.853587e+02	-3.436738e+01
6.893173e+02	-3.441857e+01
6.932988e+02	-3.446715e+01
6.973033e+02	-3.451459e+01
7.013309e+02	-3.456339e+01
