Frequency(Hz)	Magnitude(dB)
1.000000e+01	-1.650612e-05
1.005776e+01	-1.669735e-05
1.011585e+01	-1.689079e-05
1.017428e+01	-1.708647e-05
1.023305e+01	-1.728443e-05
1.029215e+01	-1.748467e-05
1.035160e+01	-1.768723e-05
1.041139e+01	-1.789215e-05
1.047153e+01	-1.809943e-05
1.053201e+01	-1.830912e-05
1.059284e+01	-1.852123e-05
1.065403e+01	-1.873581e-05
1.071556e+01	-1.895287e-05
1.077746e+01	-1.917244e-05
1.083971e+01	-1.939456e-05
1.090232e+01	-1.961925e-05
1.096529e+01	-1.984654e-05
1.102862e+01	-2.007647e-05
1.109232e+01	-2.030906e-05
1.115639e+01	-2.054435e-05
1.122083e+01	-2.078236e-05
1.128564e+01	-2.102313e-05
1.135083e+01	-2.126668e-05
1.141639e+01	-2.151306e-05
1.148233e+01	-2.176230e-05
1.154865e+01	-2.201442e-05
1.161536e+01	-2.226946e-05
1.168245e+01	-2.252746e-05
1.174992e+01	-2.278845e-05
1.181779e+01	-2.305246e-05
1.188605e+01	-2.331952e-05
1.195470e+01	-2.358969e-05
1.202375e+01	-2.386298e-05
1.209320e+01	-2.413944e-05
1.216305e+01	-2.441910e-05
1.223330e+01	-2.470200e-05
1.230396e+01	-2.498818e-05
1.237503e+01	-2.527767e-05
1.244651e+01	-2.557052e-05
1.251840e+01	-2.586676e-05
1.259070e+01	-2.616643e-05
1.266343e+01	-2.646958e-05
1.273657e+01	-2.677624e-05
1.281014e+01	-2.708644e-05
1.288413e+01	-2.740025e-05
1.295855e+01	-2.771769e-05
1.303339e+01	-2.803880e-05
1.310867e+01	-2.836364e-05
1.318439e+01	-2.869224e-05
1.326054e+01	-2.902465e-05
1.333713e+01	-2.936090e-05
1.341417e+01	-2.970106e-05
1.349165e+01	-3.004515e-05
1.356958e+01	-3.039323e-05
1.364795e+01	-3.074534e-05
1.372678e+01	-3.110153e-05
1.380607e+01	-3.146185e-05
1.388581e+01	-3.182635e-05
1.396602e+01	-3.219506e-05
1.404668e+01	-3.256805e-05
1.412782e+01	-3.294536e-05
1.420942e+01	-3.332704e-05
1.429149e+01	-3.371314e-05
1.437404e+01	-3.410371e-05
1.445706e+01	-3.449881e-05
1.454057e+01	-3.489849e-05
1.462455e+01	-3.530280e-05
1.470902e+01	-3.571179e-05
1.479398e+01	-3.612552e-05
1.487943e+01	-3.654404e-05
1.496537e+01	-3.696741e-05
1.505181e+01	-3.739569e-05
1.513875e+01	-3.782893e-05
1.522619e+01	-3.826718e-05
1.531414e+01	-3.871052e-05
1.540259e+01	-3.915899e-05
1.549156e+01	-3.961265e-05
1.558103e+01	-4.007157e-05
1.567103e+01	-4.053581e-05
1.576155e+01	-4.100543e-05
1.585258e+01	-4.148049e-05
1.594415e+01	-4.196105e-05
1.603624e+01	-4.244717e-05
1.612886e+01	-4.293893e-05
1.622202e+01	-4.343639e-05
1.631572e+01	-4.393961e-05
1.640996e+01	-4.444866e-05
1.650474e+01	-4.496361e-05
1.660008e+01	-4.548452e-05
1.669596e+01	-4.601147e-05
1.679239e+01	-4.654452e-05
1.688938e+01	-4.708375e-05
1.698694e+01	-4.762923e-05
1.708505e+01	-4.818102e-05
1.718373e+01	-4.873921e-05
1.728299e+01	-4.930386e-05
1.738281e+01	-4.987506e-05
1.748322e+01	-5.045287e-05
1.758420e+01	-5.103738e-05
1.768576e+01	-5.162866e-05
1.778792e+01	-5.222679e-05
1.789066e+01	-5.283185e-05
1.799399e+01	-5.344391e-05
1.809793e+01	-5.406307e-05
1.820246e+01	-5.468940e-05
1.830760e+01	-5.532299e-05
1.841334e+01	-5.596392e-05
1.851969e+01	-5.661227e-05
1.862666e+01	-5.726814e-05
1.873425e+01	-5.793160e-05
1.884246e+01	-5.860275e-05
1.895129e+01	-5.928168e-05
1.906075e+01	-5.996847e-05
1.917085e+01	-6.066321e-05
1.928158e+01	-6.136601e-05
1.939295e+01	-6.207695e-05
1.950496e+01	-6.279612e-05
1.961762e+01	-6.352362e-05
1.973093e+01	-6.425956e-05
1.984490e+01	-6.500402e-05
1.995952e+01	-6.575710e-05
2.007480e+01	-6.651891e-05
2.019076e+01	-6.728954e-05
2.030738e+01	-6.806911e-05
2.042467e+01	-6.885770e-05
2.054264e+01	-6.965543e-05
2.066130e+01	-7.046240e-05
2.078064e+01	-7.127872e-05
2.090066e+01	-7.210450e-05
2.102139e+01	-7.293984e-05
2.114280e+01	-7.378486e-05
2.126492e+01	-7.463967e-05
2.138775e+01	-7.550439e-05
2.151128e+01	-7.637912e-05
2.163553e+01	-7.726398e-05
2.176050e+01	-7.815910e-05
2.188619e+01	-7.906459e-05
2.201260e+01	-7.998056e-05
2.213974e+01	-8.090715e-05
2.226762e+01	-8.184448e-05
2.239624e+01	-8.279266e-05
2.252560e+01	-8.375183e-05
2.265571e+01	-8.472210e-05
2.278656e+01	-8.570362e-05
2.291818e+01	-8.669651e-05
2.305055e+01	-8.770091e-05
2.318369e+01	-8.871694e-05
2.331760e+01	-8.974474e-05
2.345228e+01	-9.078444e-05
2.358774e+01	-9.183620e-05
2.372398e+01	-9.290013e-05
2.386101e+01	-9.397639e-05
2.399883e+01	-9.506513e-05
2.413745e+01	-9.616647e-05
2.427686e+01	-9.728057e-05
2.441709e+01	-9.840758e-05
2.455812e+01	-9.954765e-05
2.469997e+01	-1.007009e-04
2.484263e+01	-1.018676e-04
2.498612e+01	-1.030477e-04
2.513044e+01	-1.042415e-04
2.527559e+01	-1.054492e-04
2.542158e+01	-1.066708e-04
2.556842e+01	-1.079066e-04
2.571610e+01	-1.091567e-04
2.586463e+01	-1.104213e-04
2.601403e+01	-1.117006e-04
2.616428e+01	-1.129946e-04
2.631541e+01	-1.143037e-04
2.646740e+01	-1.156279e-04
2.662028e+01	-1.169675e-04
2.677404e+01	-1.183226e-04
2.692868e+01	-1.196933e-04
2.708422e+01	-1.210800e-04
2.724066e+01	-1.224827e-04
2.739800e+01	-1.239017e-04
2.755625e+01	-1.253371e-04
2.771541e+01	-1.267892e-04
2.787550e+01	-1.282580e-04
2.803650e+01	-1.297439e-04
2.819844e+01	-1.312470e-04
2.836131e+01	-1.327675e-04
2.852513e+01	-1.343057e-04
2.868989e+01	-1.358616e-04
2.885560e+01	-1.374356e-04
2.902227e+01	-1.390278e-04
2.918990e+01	-1.406384e-04
2.935850e+01	-1.422677e-04
2.952807e+01	-1.439159e-04
2.969863e+01	-1.455832e-04
2.987016e+01	-1.472698e-04
3.004269e+01	-1.489759e-04
3.021622e+01	-1.507018e-04
3.039075e+01	-1.524477e-04
3.056628e+01	-1.542138e-04
3.074283e+01	-1.560004e-04
3.092040e+01	-1.578077e-04
3.109900e+01	-1.596359e-04
3.127862e+01	-1.614853e-04
3.145929e+01	-1.633561e-04
3.164099e+01	-1.652486e-04
3.182375e+01	-1.671630e-04
3.200756e+01	-1.690996e-04
3.219244e+01	-1.710586e-04
3.237838e+01	-1.730403e-04
3.256540e+01	-1.750450e-04
3.275349e+01	-1.770729e-04
3.294268e+01	-1.791243e-04
3.313295e+01	-1.811995e-04
3.332433e+01	-1.832987e-04
3.351681e+01	-1.854222e-04
3.371040e+01	-1.875703e-04
3.390511e+01	-1.897433e-04
3.410094e+01	-1.919415e-04
3.429791e+01	-1.941652e-04
3.449601e+01	-1.964146e-04
3.469526e+01	-1.986900e-04
3.489566e+01	-2.009919e-04
3.509721e+01	-2.033204e-04
3.529993e+01	-2.056758e-04
3.550382e+01	-2.080586e-04
3.570889e+01	-2.104689e-04
3.591515e+01	-2.129072e-04
3.612259e+01	-2.153737e-04
3.633123e+01	-2.178688e-04
3.654108e+01	-2.203929e-04
3.675214e+01	-2.229461e-04
3.696442e+01	-2.255289e-04
3.717792e+01	-2.281417e-04
3.739266e+01	-2.307847e-04
3.760864e+01	-2.334583e-04
3.782587e+01	-2.361629e-04
3.804435e+01	-2.388989e-04
3.826409e+01	-2.416665e-04
3.848510e+01	-2.444662e-04
3.870739e+01	-2.472983e-04
3.893096e+01	-2.501633e-04
3.915583e+01	-2.530614e-04
3.938199e+01	-2.559931e-04
3.960946e+01	-2.589588e-04
3.983824e+01	-2.619588e-04
4.006834e+01	-2.649935e-04
4.029978e+01	-2.680635e-04
4.053255e+01	-2.711690e-04
4.076666e+01	-2.743104e-04
4.100213e+01	-2.774883e-04
4.123896e+01	-2.807030e-04
4.147715e+01	-2.839549e-04
4.171672e+01	-2.872445e-04
4.195767e+01	-2.905722e-04
4.220002e+01	-2.939384e-04
4.244377e+01	-2.973437e-04
4.268892e+01	-3.007883e-04
4.293549e+01	-3.042729e-04
4.318348e+01	-3.077979e-04
4.343291e+01	-3.113637e-04
4.368377e+01	-3.149708e-04
4.393609e+01	-3.186197e-04
4.418986e+01	-3.223109e-04
4.444510e+01	-3.260448e-04
4.470182e+01	-3.298219e-04
4.496001e+01	-3.336429e-04
4.521970e+01	-3.375081e-04
4.548089e+01	-3.414180e-04
4.574358e+01	-3.453733e-04
4.600779e+01	-3.493744e-04
4.627353e+01	-3.534218e-04
4.654081e+01	-3.575162e-04
4.680963e+01	-3.616579e-04
4.708000e+01	-3.658476e-04
4.735193e+01	-3.700859e-04
4.762543e+01	-3.743733e-04
4.790051e+01	-3.787103e-04
4.817719e+01	-3.830976e-04
4.845545e+01	-3.875357e-04
4.873533e+01	-3.920252e-04
4.901682e+01	-3.965667e-04
4.929994e+01	-4.011608e-04
4.958470e+01	-4.058081e-04
4.987110e+01	-4.105093e-04
5.015915e+01	-4.152650e-04
5.044887e+01	-4.200757e-04
5.074026e+01	-4.249421e-04
5.103333e+01	-4.298650e-04
5.132810e+01	-4.348448e-04
5.162457e+01	-4.398824e-04
5.192275e+01	-4.449783e-04
5.222265e+01	-4.501332e-04
5.252429e+01	-4.553478e-04
5.282767e+01	-4.606229e-04
5.313280e+01	-4.659590e-04
5.343969e+01	-4.713570e-04
5.374836e+01	-4.768175e-04
5.405880e+01	-4.823413e-04
5.437105e+01	-4.879290e-04
5.468509e+01	-4.935815e-04
5.500095e+01	-4.992994e-04
5.531863e+01	-5.050836e-04
5.563815e+01	-5.109348e-04
5.595951e+01	-5.168538e-04
5.628273e+01	-5.228413e-04
5.660782e+01	-5.288982e-04
5.693479e+01	-5.350253e-04
5.726364e+01	-5.412233e-04
5.759439e+01	-5.474931e-04
5.792705e+01	-5.538356e-04
5.826164e+01	-5.602515e-04
5.859815e+01	-5.667417e-04
5.893662e+01	-5.733072e-04
5.927703e+01	-5.799486e-04
5.961941e+01	-5.866671e-04
5.996377e+01	-5.934633e-04
6.031012e+01	-6.003382e-04
6.065847e+01	-6.072928e-04
6.100883e+01	-6.143280e-04
6.136121e+01	-6.214447e-04
6.171563e+01	-6.286437e-04
6.207210e+01	-6.359262e-04
6.243063e+01	-6.432931e-04
6.279122e+01	-6.507452e-04
6.315390e+01	-6.582837e-04
6.351868e+01	-6.659095e-04
6.388556e+01	-6.736237e-04
6.425456e+01	-6.814272e-04
6.462569e+01	-6.893211e-04
6.499897e+01	-6.973064e-04
6.537440e+01	-7.053842e-04
6.575200e+01	-7.135556e-04
6.613178e+01	-7.218217e-04
6.651375e+01	-7.301835e-04
6.689793e+01	-7.386421e-04
6.728433e+01	-7.471988e-04
6.767297e+01	-7.558545e-04
6.806384e+01	-7.646105e-04
6.845698e+01	-7.734680e-04
6.885238e+01	-7.824280e-04
6.925007e+01	-7.914918e-04
6.965005e+01	-8.006606e-04
7.005235e+01	-8.099356e-04
7.045697e+01	-8.193181e-04
7.086393e+01	-8.288092e-04
7.127323e+01	-8.384102e-04
7.168490e+01	-8.481225e-04
7.209895e+01	-8.579473e-04
7.251539e+01	-8.678858e-04
7.293424e+01	-8.779395e-04
7.335551e+01	-8.881096e-04
7.377920e+01	-8.983976e-04
7.420535e+01	-9.088047e-04
7.463396e+01	-9.193323e-04
7.506504e+01	-9.299819e-04
7.549861e+01	-9.407548e-04
7.593469e+01	-9.516525e-04
7.637328e+01	-9.626764e-04
7.681441e+01	-9.738281e-04
7.725809e+01	-9.851088e-04
7.770433e+01	-9.965203e-04
7.815315e+01	-1.008064e-03
7.860456e+01	-1.019741e-03
7.905857e+01	-1.031554e-03
7.951521e+01	-1.043503e-03
7.997449e+01	-1.055591e-03
8.043642e+01	-1.067819e-03
8.090102e+01	-1.080188e-03
8.136830e+01	-1.092701e-03
8.183828e+01	-1.105359e-03
8.231097e+01	-1.118163e-03
8.278640e+01	-1.131115e-03
8.326457e+01	-1.144218e-03
8.374550e+01	-1.157472e-03
8.422921e+01	-1.170880e-03
8.471572e+01	-1.184443e-03
8.520503e+01	-1.198163e-03
8.569717e+01	-1.212042e-03
8.619215e+01	-1.226082e-03
8.669000e+01	-1.240285e-03
8.719071e+01	-1.254652e-03
8.769432e+01	-1.269185e-03
8.820084e+01	-1.283887e-03
8.871029e+01	-1.298759e-03
8.922267e+01	-1.313803e-03
8.973802e+01	-1.329021e-03
9.025634e+01	-1.344416e-03
9.077766e+01	-1.359989e-03
9.130199e+01	-1.375742e-03
9.182935e+01	-1.391678e-03
9.235975e+01	-1.407799e-03
9.289321e+01	-1.424106e-03
9.342976e+01	-1.440601e-03
9.396941e+01	-1.457288e-03
9.451217e+01	-1.474169e-03
9.505807e+01	-1.491244e-03
9.560712e+01	-1.508518e-03
9.615934e+01	-1.525991e-03
9.671476e+01	-1.543667e-03
9.727338e+01	-1.561548e-03
9.783522e+01	-1.579635e-03
9.840032e+01	-1.597933e-03
9.896867e+01	-1.616442e-03
9.954031e+01	-1.635165e-03
1.001153e+02	-1.654105e-03
1.006935e+02	-1.673265e-03
1.012751e+02	-1.692646e-03
1.018601e+02	-1.712252e-03
1.024484e+02	-1.732085e-03
1.030402e+02	-1.752148e-03
1.036353e+02	-1.772443e-03
1.042339e+02	-1.792973e-03
1.048360e+02	-1.813740e-03
1.054415e+02	-1.834749e-03
1.060505e+02	-1.856000e-03
1.066631e+02	-1.877498e-03
1.072791e+02	-1.899244e-03
1.078988e+02	-1.921243e-03
1.085220e+02	-1.943496e-03
1.091488e+02	-1.966007e-03
1.097793e+02	-1.988778e-03
1.104133e+02	-2.011813e-03
1.110511e+02	-2.035115e-03
1.116925e+02	-2.058687e-03
1.123376e+02	-2.082532e-03
1.129865e+02	-2.106652e-03
1.136391e+02	-2.131053e-03
1.142955e+02	-2.155735e-03
1.149556e+02	-2.180704e-03
1.156196e+02	-2.205961e-03
1.162874e+02	-2.231511e-03
1.169591e+02	-2.257357e-03
1.176347e+02	-2.283503e-03
1.183141e+02	-2.309951e-03
1.189975e+02	-2.336705e-03
1.196848e+02	-2.363769e-03
1.203761e+02	-2.391146e-03
1.210714e+02	-2.418840e-03
1.217707e+02	-2.446855e-03
1.224740e+02	-2.475195e-03
1.231814e+02	-2.503862e-03
1.238929e+02	-2.532862e-03
1.246085e+02	-2.562197e-03
1.253283e+02	-2.591872e-03
1.260522e+02	-2.621890e-03
1.267802e+02	-2.652256e-03
1.275125e+02	-2.682974e-03
1.282490e+02	-2.714047e-03
1.289898e+02	-2.745480e-03
1.297348e+02	-2.777277e-03
1.304842e+02	-2.809442e-03
1.312378e+02	-2.841980e-03
1.319959e+02	-2.874894e-03
1.327583e+02	-2.908189e-03
1.335251e+02	-2.941870e-03
1.342963e+02	-2.975940e-03
1.350720e+02	-3.010405e-03
1.358522e+02	-3.045269e-03
1.366368e+02	-3.080537e-03
1.374260e+02	-3.116213e-03
1.382198e+02	-3.152302e-03
1.390182e+02	-3.188809e-03
1.398211e+02	-3.225738e-03
1.406287e+02	-3.263095e-03
1.414410e+02	-3.300885e-03
1.422579e+02	-3.339112e-03
1.430796e+02	-3.377781e-03
1.439060e+02	-3.416898e-03
1.447372e+02	-3.456468e-03
1.455732e+02	-3.496496e-03
1.464141e+02	-3.536987e-03
1.472597e+02	-3.577947e-03
1.481103e+02	-3.619382e-03
1.489658e+02	-3.661295e-03
1.498262e+02	-3.703694e-03
1.506916e+02	-3.746584e-03
1.515620e+02	-3.789970e-03
1.524374e+02	-3.833859e-03
1.533179e+02	-3.878255e-03
1.542034e+02	-3.923165e-03
1.550941e+02	-3.968595e-03
1.559899e+02	-4.014551e-03
1.568909e+02	-4.061039e-03
1.577971e+02	-4.108065e-03
1.587085e+02	-4.155635e-03
1.596252e+02	-4.203756e-03
1.605472e+02	-4.252434e-03
1.614745e+02	-4.301675e-03
1.624072e+02	-4.351486e-03
1.633453e+02	-4.401873e-03
1.642887e+02	-4.452844e-03
1.652377e+02	-4.504404e-03
1.661921e+02	-4.556562e-03
1.671520e+02	-4.609323e-03
1.681175e+02	-4.662694e-03
1.690885e+02	-4.716683e-03
1.700651e+02	-4.771297e-03
1.710474e+02	-4.826543e-03
1.720354e+02	-4.882428e-03
1.730291e+02	-4.938960e-03
1.740285e+02	-4.996146e-03
1.750337e+02	-5.053994e-03
1.760446e+02	-5.112512e-03
1.770615e+02	-5.171706e-03
1.780842e+02	-5.231585e-03
1.791128e+02	-5.292158e-03
1.801473e+02	-5.353431e-03
1.811878e+02	-5.415413e-03
1.822344e+02	-5.478112e-03
1.832870e+02	-5.541537e-03
1.843456e+02	-5.605696e-03
1.854104e+02	-5.670597e-03
1.864813e+02	-5.736248e-03
1.875584e+02	-5.802660e-03
1.886418e+02	-5.869840e-03
1.897313e+02	-5.937797e-03
1.908272e+02	-6.006540e-03
1.919294e+02	-6.076078e-03
1.930380e+02	-6.146421e-03
1.941530e+02	-6.217578e-03
1.952744e+02	-6.289558e-03
1.964023e+02	-6.362371e-03
1.975367e+02	-6.436026e-03
1.986777e+02	-6.510533e-03
1.998252e+02	-6.585901e-03
2.009794e+02	-6.662142e-03
2.021403e+02	-6.739265e-03
2.033078e+02	-6.817279e-03
2.044821e+02	-6.896196e-03
2.056632e+02	-6.976026e-03
2.068511e+02	-7.056779e-03
2.080459e+02	-7.138467e-03
2.092475e+02	-7.221099e-03
2.104561e+02	-7.304686e-03
2.116717e+02	-7.389241e-03
2.128943e+02	-7.474773e-03
2.141240e+02	-7.561295e-03
2.153608e+02	-7.648817e-03
2.166047e+02	-7.737351e-03
2.178558e+02	-7.826910e-03
2.191141e+02	-7.917503e-03
2.203797e+02	-8.009145e-03
2.216526e+02	-8.101846e-03
2.229329e+02	-8.195619e-03
2.242205e+02	-8.290477e-03
2.255156e+02	-8.386431e-03
2.268182e+02	-8.483495e-03
2.281283e+02	-8.581681e-03
2.294459e+02	-8.681002e-03
2.307712e+02	-8.781472e-03
2.321041e+02	-8.883103e-03
2.334447e+02	-8.985909e-03
2.347931e+02	-9.089904e-03
2.361493e+02	-9.195101e-03
2.375133e+02	-9.301514e-03
2.388851e+02	-9.409157e-03
2.402649e+02	-9.518045e-03
2.416527e+02	-9.628191e-03
2.430484e+02	-9.739611e-03
2.444523e+02	-9.852319e-03
2.458642e+02	-9.966329e-03
2.472843e+02	-1.008166e-02
2.487126e+02	-1.019832e-02
2.501492e+02	-1.031633e-02
2.515940e+02	-1.043570e-02
2.530472e+02	-1.055645e-02
2.545088e+02	-1.067860e-02
2.559789e+02	-1.080216e-02
2.574574e+02	-1.092715e-02
2.589444e+02	-1.105358e-02
2.604401e+02	-1.118147e-02
2.619444e+02	-1.131085e-02
2.634574e+02	-1.144171e-02
2.649791e+02	-1.157409e-02
2.665096e+02	-1.170800e-02
2.680489e+02	-1.184345e-02
2.695972e+02	-1.198047e-02
2.711544e+02	-1.211907e-02
2.727205e+02	-1.225928e-02
2.742958e+02	-1.240110e-02
2.758801e+02	-1.254456e-02
2.774736e+02	-1.268968e-02
2.790762e+02	-1.283648e-02
2.806882e+02	-1.298497e-02
2.823094e+02	-1.313517e-02
2.839400e+02	-1.328711e-02
2.855800e+02	-1.344081e-02
2.872295e+02	-1.359628e-02
2.888886e+02	-1.375355e-02
2.905572e+02	-1.391263e-02
2.922354e+02	-1.407355e-02
2.939234e+02	-1.423633e-02
2.956211e+02	-1.440098e-02
2.973286e+02	-1.456754e-02
2.990459e+02	-1.473602e-02
3.007732e+02	-1.490645e-02
3.025104e+02	-1.507884e-02
3.042577e+02	-1.525323e-02
3.060151e+02	-1.542963e-02
3.077826e+02	-1.560806e-02
3.095604e+02	-1.578855e-02
3.113484e+02	-1.597113e-02
3.131467e+02	-1.615581e-02
3.149554e+02	-1.634263e-02
3.167746e+02	-1.653160e-02
3.186043e+02	-1.672275e-02
3.204445e+02	-1.691611e-02
3.222954e+02	-1.711170e-02
3.241570e+02	-1.730955e-02
3.260293e+02	-1.750968e-02
3.279124e+02	-1.771212e-02
3.298064e+02	-1.791689e-02
3.317114e+02	-1.812403e-02
3.336273e+02	-1.833356e-02
3.355544e+02	-1.854550e-02
3.374925e+02	-1.875989e-02
3.394418e+02	-1.897675e-02
3.414024e+02	-1.919612e-02
3.433744e+02	-1.941801e-02
3.453577e+02	-1.964246e-02
3.473525e+02	-1.986950e-02
3.493588e+02	-2.009916e-02
3.513766e+02	-2.033147e-02
3.534062e+02	-2.056645e-02
3.554474e+02	-2.080415e-02
3.575005e+02	-2.104458e-02
3.595654e+02	-2.128779e-02
3.616422e+02	-2.153380e-02
3.637311e+02	-2.178265e-02
3.658320e+02	-2.203436e-02
3.679450e+02	-2.228898e-02
3.700702e+02	-2.254653e-02
3.722077e+02	-2.280705e-02
3.743576e+02	-2.307057e-02
3.765199e+02	-2.333713e-02
3.786946e+02	-2.360676e-02
3.808820e+02	-2.387950e-02
3.830819e+02	-2.415537e-02
3.852946e+02	-2.443443e-02
3.875200e+02	-2.471670e-02
3.897583e+02	-2.500222e-02
3.920096e+02	-2.529104e-02
3.942738e+02	-2.558317e-02
3.965511e+02	-2.587867e-02
3.988416e+02	-2.617758e-02
4.011452e+02	-2.647993e-02
4.034622e+02	-2.678575e-02
4.057926e+02	-2.709510e-02
4.081365e+02	-2.740801e-02
4.104938e+02	-2.772452e-02
4.128648e+02	-2.804468e-02
4.152495e+02	-2.836852e-02
4.176480e+02	-2.869609e-02
4.200603e+02	-2.902743e-02
4.224866e+02	-2.936258e-02
4.249268e+02	-2.970158e-02
4.273812e+02	-3.004449e-02
4.298497e+02	-3.039134e-02
4.323325e+02	-3.074218e-02
4.348297e+02	-3.109706e-02
4.373412e+02	-3.145602e-02
4.398673e+02	-3.181911e-02
4.424079e+02	-3.218637e-02
4.449633e+02	-3.255785e-02
4.475334e+02	-3.293361e-02
4.501183e+02	-3.331369e-02
4.527182e+02	-3.369813e-02
4.553330e+02	-3.408700e-02
4.579630e+02	-3.448033e-02
4.606082e+02	-3.487819e-02
4.632687e+02	-3.528062e-02
4.659445e+02	-3.568767e-02
4.686358e+02	-3.609940e-02
4.713426e+02	-3.651585e-02
4.740650e+02	-3.693710e-02
4.768032e+02	-3.736318e-02
4.795572e+02	-3.779415e-02
4.823271e+02	-3.823007e-02
4.851130e+02	-3.867100e-02
4.879150e+02	-3.911699e-02
4.907332e+02	-3.956810e-02
4.935676e+02	-4.002439e-02
4.964185e+02	-4.048592e-02
4.992858e+02	-4.095274e-02
5.021696e+02	-4.142492e-02
5.050701e+02	-4.190252e-02
5.079874e+02	-4.238560e-02
5.109215e+02	-4.287422e-02
5.138726e+02	-4.336844e-02
5.168407e+02	-4.386833e-02
5.198259e+02	-4.437396e-02
5.228284e+02	-4.488538e-02
5.258482e+02	-4.540267e-02
5.288855e+02	-4.592588e-02
5.319403e+02	-4.645509e-02
5.350128e+02	-4.699037e-02
5.381030e+02	-4.753178e-02
5.412111e+02	-4.807940e-02
5.443371e+02	-4.863328e-02
5.474812e+02	-4.919352e-02
5.506434e+02	-4.976017e-02
5.538239e+02	-5.033330e-02
5.570228e+02	-5.091300e-02
5.602401e+02	-5.149934e-02
5.634760e+02	-5.209239e-02
5.667306e+02	-5.269223e-02
5.700040e+02	-5.329893e-02
5.732964e+02	-5.391257e-02
5.766077e+02	-5.453324e-02
5.799382e+02	-5.516100e-02
5.832879e+02	-5.579595e-02
5.866569e+02	-5.643815e-02
5.900454e+02	-5.708770e-02
5.934535e+02	-5.774468e-02
5.968813e+02	-5.840916e-02
6.003288e+02	-5.908124e-02
6.037963e+02	-5.976099e-02
6.072838e+02	-6.044852e-02
6.107914e+02	-6.114390e-02
6.143194e+02	-6.184721e-02
6.178676e+02	-6.255857e-02
6.214364e+02	-6.327804e-02
6.250258e+02	-6.400573e-02
6.286359e+02	-6.474172e-02
6.322669e+02	-6.548611e-02
6.359189e+02	-6.623900e-02
6.395919e+02	-6.700047e-02
6.432862e+02	-6.777063e-02
6.470017e+02	-6.854957e-02
6.507388e+02	-6.933739e-02
6.544974e+02	-7.013420e-02
6.582778e+02	-7.094008e-02
6.620800e+02	-7.175515e-02
6.659041e+02	-7.257951e-02
6.697504e+02	-7.341325e-02
6.736188e+02	-7.425649e-02
6.775096e+02	-7.510934e-02
6.814229e+02	-7.597189e-02
6.853587e+02	-7.684426e-02
6.893173e+02	-7.772655e-02
6.932988e+02	-7.861889e-02
6.973033e+02	-7.952137e-02
7.013309e+02	-8.043412e-02
