Frequency(Hz)	Magnitude(dB)
1.000000e+01	-2.113032e+00
1.005776e+01	-2.132363e+00
1.011585e+01	-2.151868e+00
1.017428e+01	-2.171480e+00
1.023305e+01	-2.191166e+00
1.029215e+01	-2.211289e+00
1.035160e+01	-2.231153e+00
1.041139e+01	-2.251183e+00
1.047153e+01	-2.271561e+00
1.053201e+01	-2.292095e+00
1.059284e+01	-2.312407e+00
1.065403e+01	-2.333086e+00
1.071556e+01	-2.354146e+00
1.077746e+01	-2.375010e+00
1.083971e+01	-2.396323e+00
1.090232e+01	-2.417547e+00
1.096529e+01	-2.439076e+00
1.102862e+01	-2.460774e+00
1.109232e+01	-2.482191e+00
1.115639e+01	-2.504273e+00
1.122083e+01	-2.526215e+00
1.128564e+01	-2.548427e+00
1.135083e+01	-2.570556e+00
1.141639e+01	-2.593132e+00
1.148233e+01	-2.615570e+00
1.154865e+01	-2.638231e+00
1.161536e+01	-2.661144e+00
1.168245e+01	-2.684007e+00
1.174992e+01	-2.707221e+00
1.181779e+01	-2.730397e+00
1.188605e+01	-2.753835e+00
1.195470e+01	-2.777609e+00
1.202375e+01	-2.801050e+00
1.209320e+01	-2.825181e+00
1.216305e+01	-2.849090e+00
1.223330e+01	-2.873297e+00
1.230396e+01	-2.897479e+00
1.237503e+01	-2.921988e+00
1.244651e+01	-2.946385e+00
1.251840e+01	-2.971182e+00
1.259070e+01	-2.996380e+00
1.266343e+01	-3.021014e+00
1.273657e+01	-3.046261e+00
1.281014e+01	-3.071336e+00
1.288413e+01	-3.096915e+00
1.295855e+01	-3.122477e+00
1.303339e+01	-3.148189e+00
1.310867e+01	-3.174127e+00
1.318439e+01	-3.200133e+00
1.326054e+01	-3.226362e+00
1.333713e+01	-3.252482e+00
1.341417e+01	-3.278961e+00
1.349165e+01	-3.305673e+00
1.356958e+01	-3.332167e+00
1.364795e+01	-3.359176e+00
1.372678e+01	-3.386090e+00
1.380607e+01	-3.413300e+00
1.388581e+01	-3.440777e+00
1.396602e+01	-3.468311e+00
1.404668e+01	-3.495375e+00
1.412782e+01	-3.523318e+00
1.420942e+01	-3.551274e+00
1.429149e+01	-3.579141e+00
1.437404e+01	-3.607571e+00
1.445706e+01	-3.635388e+00
1.454057e+01	-3.663997e+00
1.462455e+01	-3.692794e+00
1.470902e+01	-3.721438e+00
1.479398e+01	-3.750371e+00
1.487943e+01	-3.779223e+00
1.496537e+01	-3.808446e+00
1.505181e+01	-3.837897e+00
1.513875e+01	-3.867029e+00
1.522619e+01	-3.896775e+00
1.531414e+01	-3.926436e+00
1.540259e+01	-3.956349e+00
1.549156e+01	-3.986464e+00
1.558103e+01	-4.016445e+00
1.567103e+01	-4.046607e+00
1.576155e+01	-4.076757e+00
1.585258e+01	-4.107592e+00
1.594415e+01	-4.138354e+00
1.603624e+01	-4.169043e+00
1.612886e+01	-4.199780e+00
1.622202e+01	-4.231488e+00
1.631572e+01	-4.262075e+00
1.640996e+01	-4.293685e+00
1.650474e+01	-4.325273e+00
1.660008e+01	-4.356692e+00
1.669596e+01	-4.388311e+00
1.679239e+01	-4.420059e+00
1.688938e+01	-4.452561e+00
1.698694e+01	-4.484554e+00
1.708505e+01	-4.516713e+00
1.718373e+01	-4.548878e+00
1.728299e+01	-4.581675e+00
1.738281e+01	-4.614462e+00
1.748322e+01	-4.647237e+00
1.758420e+01	-4.680136e+00
1.768576e+01	-4.713155e+00
1.778792e+01	-4.746124e+00
1.789066e+01	-4.779689e+00
1.799399e+01	-4.812939e+00
1.809793e+01	-4.846795e+00
1.820246e+01	-4.880144e+00
1.830760e+01	-4.914008e+00
1.841334e+01	-4.948129e+00
1.851969e+01	-4.982148e+00
1.862666e+01	-5.016416e+00
1.873425e+01	-5.050750e+00
1.884246e+01	-5.085423e+00
1.895129e+01	-5.119843e+00
1.906075e+01	-5.154551e+00
1.917085e+01	-5.189127e+00
1.928158e+01	-5.223987e+00
1.939295e+01	-5.259070e+00
1.950496e+01	-5.294414e+00
1.961762e+01	-5.329925e+00
1.973093e+01	-5.365407e+00
1.984490e+01	-5.400893e+00
1.995952e+01	-5.436597e+00
2.007480e+01	-5.472280e+00
2.019076e+01	-5.508093e+00
2.030738e+01	-5.543911e+00
2.042467e+01	-5.579989e+00
2.054264e+01	-5.616555e+00
2.066130e+01	-5.652852e+00
2.078064e+01	-5.689302e+00
2.090066e+01	-5.725865e+00
2.102139e+01	-5.762528e+00
2.114280e+01	-5.799486e+00
2.126492e+01	-5.836075e+00
2.138775e+01	-5.873193e+00
2.151128e+01	-5.910230e+00
2.163553e+01	-5.947710e+00
2.176050e+01	-5.985100e+00
2.188619e+01	-6.022303e+00
2.201260e+01	-6.060225e+00
2.213974e+01	-6.097560e+00
2.226762e+01	-6.135554e+00
2.239624e+01	-6.173353e+00
2.252560e+01	-6.211626e+00
2.265571e+01	-6.249973e+00
2.278656e+01	-6.287768e+00
2.291818e+01	-6.326563e+00
2.305055e+01	-6.364731e+00
2.318369e+01	-6.403327e+00
2.331760e+01	-6.441840e+00
2.345228e+01	-6.480736e+00
2.358774e+01	-6.519281e+00
2.372398e+01	-6.558133e+00
2.386101e+01	-6.596971e+00
2.399883e+01	-6.636096e+00
2.413745e+01	-6.675732e+00
2.427686e+01	-6.714564e+00
2.441709e+01	-6.754165e+00
2.455812e+01	-6.794004e+00
2.469997e+01	-6.833450e+00
2.484263e+01	-6.872803e+00
2.498612e+01	-6.912781e+00
2.513044e+01	-6.952658e+00
2.527559e+01	-6.992771e+00
2.542158e+01	-7.032840e+00
2.556842e+01	-7.072879e+00
2.571610e+01	-7.113209e+00
2.586463e+01	-7.153480e+00
2.601403e+01	-7.194265e+00
2.616428e+01	-7.234757e+00
2.631541e+01	-7.274927e+00
2.646740e+01	-7.315452e+00
2.662028e+01	-7.356538e+00
2.677404e+01	-7.397419e+00
2.692868e+01	-7.438543e+00
2.708422e+01	-7.479454e+00
2.724066e+01	-7.520896e+00
2.739800e+01	-7.561993e+00
2.755625e+01	-7.603270e+00
2.771541e+01	-7.644685e+00
2.787550e+01	-7.686148e+00
2.803650e+01	-7.727968e+00
2.819844e+01	-7.769156e+00
2.836131e+01	-7.810691e+00
2.852513e+01	-7.852526e+00
2.868989e+01	-7.894418e+00
2.885560e+01	-7.936781e+00
2.902227e+01	-7.978735e+00
2.918990e+01	-8.020283e+00
2.935850e+01	-8.062784e+00
2.952807e+01	-8.104736e+00
2.969863e+01	-8.147313e+00
2.987016e+01	-8.189779e+00
3.004269e+01	-8.231808e+00
3.021622e+01	-8.274737e+00
3.039075e+01	-8.317682e+00
3.056628e+01	-8.359784e+00
3.074283e+01	-8.402994e+00
3.092040e+01	-8.445554e+00
3.109900e+01	-8.488774e+00
3.127862e+01	-8.531767e+00
3.145929e+01	-8.574446e+00
3.164099e+01	-8.617513e+00
3.182375e+01	-8.661074e+00
3.200756e+01	-8.704145e+00
3.219244e+01	-8.747980e+00
3.237838e+01	-8.790982e+00
3.256540e+01	-8.834242e+00
3.275349e+01	-8.877989e+00
3.294268e+01	-8.921900e+00
3.313295e+01	-8.965259e+00
3.332433e+01	-9.008808e+00
3.351681e+01	-9.052626e+00
3.371040e+01	-9.096477e+00
3.390511e+01	-9.140567e+00
3.410094e+01	-9.184300e+00
3.429791e+01	-9.228273e+00
3.449601e+01	-9.272482e+00
3.469526e+01	-9.316256e+00
3.489566e+01	-9.360612e+00
3.509721e+01	-9.405013e+00
3.529993e+01	-9.449231e+00
3.550382e+01	-9.493892e+00
3.570889e+01	-9.537728e+00
3.591515e+01	-9.582495e+00
3.612259e+01	-9.627202e+00
3.633123e+01	-9.671700e+00
3.654108e+01	-9.716115e+00
3.675214e+01	-9.760687e+00
3.696442e+01	-9.805786e+00
3.717792e+01	-9.850938e+00
3.739266e+01	-9.895904e+00
3.760864e+01	-9.940910e+00
3.782587e+01	-9.985631e+00
3.804435e+01	-1.003072e+01
3.826409e+01	-1.007555e+01
3.848510e+01	-1.012062e+01
3.870739e+01	-1.016620e+01
3.893096e+01	-1.021135e+01
3.915583e+01	-1.025655e+01
3.938199e+01	-1.030176e+01
3.960946e+01	-1.034670e+01
3.983824e+01	-1.039305e+01
4.006834e+01	-1.043805e+01
4.029978e+01	-1.048378e+01
4.053255e+01	-1.052946e+01
4.076666e+01	-1.057493e+01
4.100213e+01	-1.062049e+01
4.123896e+01	-1.066636e+01
4.147715e+01	-1.071209e+01
4.171672e+01	-1.075717e+01
4.195767e+01	-1.080340e+01
4.220002e+01	-1.084952e+01
4.244377e+01	-1.089532e+01
4.268892e+01	-1.094126e+01
4.293549e+01	-1.098743e+01
4.318348e+01	-1.103364e+01
4.343291e+01	-1.108004e+01
4.368377e+01	-1.112602e+01
4.393609e+01	-1.117147e+01
4.418986e+01	-1.121835e+01
4.444510e+01	-1.126443e+01
4.470182e+01	-1.131078e+01
4.496001e+01	-1.135765e+01
4.521970e+01	-1.140415e+01
4.548089e+01	-1.144949e+01
4.574358e+01	-1.149634e+01
4.600779e+01	-1.154325e+01
4.627353e+01	-1.158933e+01
4.654081e+01	-1.163572e+01
4.680963e+01	-1.168192e+01
4.708000e+01	-1.172940e+01
4.735193e+01	-1.177558e+01
4.762543e+01	-1.182260e+01
4.790051e+01	-1.186956e+01
4.817719e+01	-1.191640e+01
4.845545e+01	-1.196281e+01
4.873533e+01	-1.201028e+01
4.901682e+01	-1.205640e+01
4.929994e+01	-1.210354e+01
4.958470e+01	-1.215117e+01
4.987110e+01	-1.219811e+01
5.015915e+01	-1.224438e+01
5.044887e+01	-1.229226e+01
5.074026e+01	-1.233843e+01
5.103333e+01	-1.238574e+01
5.132810e+01	-1.243316e+01
5.162457e+01	-1.248047e+01
5.192275e+01	-1.252685e+01
5.222265e+01	-1.257386e+01
5.252429e+01	-1.262211e+01
5.282767e+01	-1.266906e+01
5.313280e+01	-1.271644e+01
5.343969e+01	-1.276436e+01
5.374836e+01	-1.281104e+01
5.405880e+01	-1.285883e+01
5.437105e+01	-1.290590e+01
5.468509e+01	-1.295455e+01
5.500095e+01	-1.300169e+01
5.531863e+01	-1.304930e+01
5.563815e+01	-1.309609e+01
5.595951e+01	-1.314394e+01
5.628273e+01	-1.319233e+01
5.660782e+01	-1.323963e+01
5.693479e+01	-1.328640e+01
5.726364e+01	-1.333472e+01
5.759439e+01	-1.338183e+01
5.792705e+01	-1.343019e+01
5.826164e+01	-1.347748e+01
5.859815e+01	-1.352588e+01
5.893662e+01	-1.357320e+01
5.927703e+01	-1.362184e+01
5.961941e+01	-1.366951e+01
5.996377e+01	-1.371627e+01
6.031012e+01	-1.376542e+01
6.065847e+01	-1.381233e+01
6.100883e+01	-1.386078e+01
6.136121e+01	-1.390866e+01
6.171563e+01	-1.395731e+01
6.207210e+01	-1.400448e+01
6.243063e+01	-1.405220e+01
6.279122e+01	-1.410150e+01
6.315390e+01	-1.414850e+01
6.351868e+01	-1.419744e+01
6.388556e+01	-1.424540e+01
6.425456e+01	-1.429330e+01
6.462569e+01	-1.434239e+01
6.499897e+01	-1.438981e+01
6.537440e+01	-1.443797e+01
6.575200e+01	-1.448650e+01
6.613178e+01	-1.453417e+01
6.651375e+01	-1.458315e+01
6.689793e+01	-1.463135e+01
6.728433e+01	-1.467892e+01
6.767297e+01	-1.472819e+01
6.806384e+01	-1.477679e+01
6.845698e+01	-1.482553e+01
6.885238e+01	-1.487271e+01
6.925007e+01	-1.492119e+01
6.965005e+01	-1.496937e+01
7.005235e+01	-1.501848e+01
7.045697e+01	-1.506624e+01
7.086393e+01	-1.511547e+01
7.127323e+01	-1.516290e+01
7.168490e+01	-1.521184e+01
7.209895e+01	-1.526113e+01
7.251539e+01	-1.530934e+01
7.293424e+01	-1.535803e+01
7.335551e+01	-1.540644e+01
7.377920e+01	-1.545472e+01
7.420535e+01	-1.550383e+01
7.463396e+01	-1.555198e+01
7.506504e+01	-1.560073e+01
7.549861e+01	-1.564920e+01
7.593469e+01	-1.569663e+01
7.637328e+01	-1.574653e+01
7.681441e+01	-1.579536e+01
7.725809e+01	-1.584416e+01
7.770433e+01	-1.589392e+01
7.815315e+01	-1.594174e+01
7.860456e+01	-1.599084e+01
7.905857e+01	-1.604001e+01
7.951521e+01	-1.608807e+01
7.997449e+01	-1.613718e+01
8.043642e+01	-1.618507e+01
8.090102e+01	-1.623410e+01
8.136830e+01	-1.628332e+01
8.183828e+01	-1.633230e+01
8.231097e+01	-1.638190e+01
8.278640e+01	-1.642922e+01
8.326457e+01	-1.647796e+01
8.374550e+01	-1.652814e+01
8.422921e+01	-1.657726e+01
8.471572e+01	-1.662598e+01
8.520503e+01	-1.667450e+01
8.569717e+01	-1.672349e+01
8.619215e+01	-1.677282e+01
8.669000e+01	-1.682062e+01
8.719071e+01	-1.687095e+01
8.769432e+01	-1.691943e+01
8.820084e+01	-1.696879e+01
8.871029e+01	-1.701768e+01
8.922267e+01	-1.706693e+01
8.973802e+01	-1.711566e+01
9.025634e+01	-1.716363e+01
9.077766e+01	-1.721479e+01
9.130199e+01	-1.726274e+01
9.182935e+01	-1.731130e+01
9.235975e+01	-1.736070e+01
9.289321e+01	-1.740999e+01
9.342976e+01	-1.746024e+01
9.396941e+01	-1.750876e+01
9.451217e+01	-1.755781e+01
9.505807e+01	-1.760591e+01
9.560712e+01	-1.765613e+01
9.615934e+01	-1.770403e+01
9.671476e+01	-1.775466e+01
9.727338e+01	-1.780379e+01
9.783522e+01	-1.785246e+01
9.840032e+01	-1.790246e+01
9.896867e+01	-1.795017e+01
9.954031e+01	-1.800057e+01
1.001153e+02	-1.805013e+01
1.006935e+02	-1.809868e+01
1.012751e+02	-1.814763e+01
1.018601e+02	-1.819741e+01
1.024484e+02	-1.824682e+01
1.030402e+02	-1.829549e+01
1.036353e+02	-1.834550e+01
1.042339e+02	-1.839464e+01
1.048360e+02	-1.844351e+01
1.054415e+02	-1.849325e+01
1.060505e+02	-1.854297e+01
1.066631e+02	-1.859217e+01
1.072791e+02	-1.864170e+01
1.078988e+02	-1.869002e+01
1.085220e+02	-1.874055e+01
1.091488e+02	-1.878942e+01
1.097793e+02	-1.883833e+01
1.104133e+02	-1.888712e+01
1.110511e+02	-1.893877e+01
1.116925e+02	-1.898662e+01
1.123376e+02	-1.903690e+01
1.129865e+02	-1.908504e+01
1.136391e+02	-1.913395e+01
1.142955e+02	-1.918441e+01
1.149556e+02	-1.923326e+01
1.156196e+02	-1.928294e+01
1.162874e+02	-1.933210e+01
1.169591e+02	-1.938229e+01
1.176347e+02	-1.943201e+01
1.183141e+02	-1.948273e+01
1.189975e+02	-1.953068e+01
1.196848e+02	-1.957859e+01
1.203761e+02	-1.962852e+01
1.210714e+02	-1.967867e+01
1.217707e+02	-1.972914e+01
1.224740e+02	-1.977947e+01
1.231814e+02	-1.982901e+01
1.238929e+02	-1.987791e+01
1.246085e+02	-1.992697e+01
1.253283e+02	-1.997679e+01
1.260522e+02	-2.002488e+01
1.267802e+02	-2.007609e+01
1.275125e+02	-2.012523e+01
1.282490e+02	-2.017658e+01
1.289898e+02	-2.022337e+01
1.297348e+02	-2.027211e+01
1.304842e+02	-2.032350e+01
1.312378e+02	-2.037348e+01
1.319959e+02	-2.042443e+01
1.327583e+02	-2.047286e+01
1.335251e+02	-2.051931e+01
1.342963e+02	-2.057114e+01
1.350720e+02	-2.062173e+01
1.358522e+02	-2.067014e+01
1.366368e+02	-2.071950e+01
1.374260e+02	-2.076919e+01
1.382198e+02	-2.081882e+01
1.390182e+02	-2.086968e+01
1.398211e+02	-2.091827e+01
1.406287e+02	-2.096722e+01
1.414410e+02	-2.102028e+01
1.422579e+02	-2.106941e+01
1.430796e+02	-2.111662e+01
1.439060e+02	-2.116614e+01
1.447372e+02	-2.121551e+01
1.455732e+02	-2.126607e+01
1.464141e+02	-2.131627e+01
1.472597e+02	-2.136762e+01
1.481103e+02	-2.141474e+01
1.489658e+02	-2.146600e+01
1.498262e+02	-2.151446e+01
1.506916e+02	-2.156530e+01
1.515620e+02	-2.161390e+01
1.524374e+02	-2.166359e+01
1.533179e+02	-2.171141e+01
1.542034e+02	-2.176163e+01
1.550941e+02	-2.181361e+01
1.559899e+02	-2.186388e+01
1.568909e+02	-2.191059e+01
1.577971e+02	-2.196147e+01
1.587085e+02	-2.201156e+01
1.596252e+02	-2.206089e+01
1.605472e+02	-2.210996e+01
1.614745e+02	-2.216073e+01
1.624072e+02	-2.220972e+01
1.633453e+02	-2.225847e+01
1.642887e+02	-2.231086e+01
1.652377e+02	-2.235885e+01
1.661921e+02	-2.240948e+01
1.671520e+02	-2.245951e+01
1.681175e+02	-2.250871e+01
1.690885e+02	-2.255911e+01
1.700651e+02	-2.260883e+01
1.710474e+02	-2.265858e+01
1.720354e+02	-2.270794e+01
1.730291e+02	-2.275816e+01
1.740285e+02	-2.280978e+01
1.750337e+02	-2.285861e+01
1.760446e+02	-2.290645e+01
1.770615e+02	-2.295947e+01
1.780842e+02	-2.300640e+01
1.791128e+02	-2.305814e+01
1.801473e+02	-2.310619e+01
1.811878e+02	-2.315602e+01
1.822344e+02	-2.320517e+01
1.832870e+02	-2.325688e+01
1.843456e+02	-2.330658e+01
1.854104e+02	-2.335615e+01
1.864813e+02	-2.340616e+01
1.875584e+02	-2.345459e+01
1.886418e+02	-2.350665e+01
1.897313e+02	-2.355432e+01
1.908272e+02	-2.360582e+01
1.919294e+02	-2.365331e+01
1.930380e+02	-2.370562e+01
1.941530e+02	-2.375667e+01
1.952744e+02	-2.380443e+01
1.964023e+02	-2.385385e+01
1.975367e+02	-2.390388e+01
1.986777e+02	-2.395286e+01
1.998252e+02	-2.400156e+01
2.009794e+02	-2.405169e+01
2.021403e+02	-2.410273e+01
2.033078e+02	-2.415314e+01
2.044821e+02	-2.420207e+01
2.056632e+02	-2.425012e+01
2.068511e+02	-2.430519e+01
2.080459e+02	-2.435167e+01
2.092475e+02	-2.440420e+01
2.104561e+02	-2.445271e+01
2.116717e+02	-2.450160e+01
2.128943e+02	-2.455143e+01
2.141240e+02	-2.460057e+01
2.153608e+02	-2.464998e+01
2.166047e+02	-2.469990e+01
2.178558e+02	-2.475099e+01
2.191141e+02	-2.480211e+01
2.203797e+02	-2.485221e+01
2.216526e+02	-2.490182e+01
2.229329e+02	-2.495050e+01
2.242205e+02	-2.500183e+01
2.255156e+02	-2.505020e+01
2.268182e+02	-2.510426e+01
2.281283e+02	-2.515131e+01
2.294459e+02	-2.519933e+01
2.307712e+02	-2.525069e+01
2.321041e+02	-2.529862e+01
2.334447e+02	-2.534930e+01
2.347931e+02	-2.539936e+01
2.361493e+02	-2.544845e+01
2.375133e+02	-2.549875e+01
2.388851e+02	-2.555191e+01
2.402649e+02	-2.560034e+01
2.416527e+02	-2.564847e+01
2.430484e+02	-2.570000e+01
2.444523e+02	-2.574850e+01
2.458642e+02	-2.579638e+01
2.472843e+02	-2.585171e+01
2.487126e+02	-2.589857e+01
2.501492e+02	-2.594827e+01
2.515940e+02	-2.599827e+01
2.530472e+02	-2.604959e+01
2.545088e+02	-2.610332e+01
2.559789e+02	-2.615006e+01
2.574574e+02	-2.620029e+01
2.589444e+02	-2.624878e+01
2.604401e+02	-2.629621e+01
2.619444e+02	-2.634729e+01
2.634574e+02	-2.639745e+01
2.649791e+02	-2.644852e+01
2.665096e+02	-2.649881e+01
2.680489e+02	-2.655040e+01
2.695972e+02	-2.659922e+01
2.711544e+02	-2.665238e+01
2.727205e+02	-2.670033e+01
2.742958e+02	-2.674975e+01
2.758801e+02	-2.679805e+01
2.774736e+02	-2.685005e+01
2.790762e+02	-2.689842e+01
2.806882e+02	-2.695444e+01
2.823094e+02	-2.699946e+01
2.839400e+02	-2.704827e+01
2.855800e+02	-2.709699e+01
2.872295e+02	-2.714847e+01
2.888886e+02	-2.719774e+01
2.905572e+02	-2.724523e+01
2.922354e+02	-2.730076e+01
2.939234e+02	-2.734732e+01
2.956211e+02	-2.739983e+01
2.973286e+02	-2.744992e+01
2.990459e+02	-2.749759e+01
3.007732e+02	-2.754786e+01
3.025104e+02	-2.760227e+01
3.042577e+02	-2.764707e+01
3.060151e+02	-2.770239e+01
3.077826e+02	-2.774776e+01
3.095604e+02	-2.779836e+01
3.113484e+02	-2.784921e+01
3.131467e+02	-2.790316e+01
3.149554e+02	-2.794636e+01
3.167746e+02	-2.799815e+01
3.186043e+02	-2.804725e+01
3.204445e+02	-2.809730e+01
3.222954e+02	-2.815124e+01
3.241570e+02	-2.819925e+01
3.260293e+02	-2.825425e+01
3.279124e+02	-2.830084e+01
3.298064e+02	-2.834835e+01
3.317114e+02	-2.839965e+01
3.336273e+02	-2.844559e+01
3.355544e+02	-2.849937e+01
3.374925e+02	-2.854936e+01
3.394418e+02	-2.859866e+01
3.414024e+02	-2.865163e+01
3.433744e+02	-2.869719e+01
3.453577e+02	-2.874908e+01
3.473525e+02	-2.879963e+01
3.493588e+02	-2.885024e+01
3.513766e+02	-2.889832e+01
3.534062e+02	-2.895202e+01
3.554474e+02	-2.900089e+01
3.575005e+02	-2.904956e+01
3.595654e+02	-2.909862e+01
3.616422e+02	-2.914769e+01
3.637311e+02	-2.919235e+01
3.658320e+02	-2.925055e+01
3.679450e+02	-2.930254e+01
3.700702e+02	-2.934930e+01
3.722077e+02	-2.940436e+01
3.743576e+02	-2.945165e+01
3.765199e+02	-2.950092e+01
3.786946e+02	-2.954771e+01
3.808820e+02	-2.960551e+01
3.830819e+02	-2.964891e+01
3.852946e+02	-2.970076e+01
3.875200e+02	-2.974744e+01
3.897583e+02	-2.979752e+01
3.920096e+02	-2.985265e+01
3.942738e+02	-2.990472e+01
3.965511e+02	-2.995212e+01
3.988416e+02	-3.000289e+01
4.011452e+02	-3.004897e+01
4.034622e+02	-3.010084e+01
4.057926e+02	-3.015071e+01
4.081365e+02	-3.019930e+01
4.104938e+02	-3.025182e+01
4.128648e+02	-3.029926e+01
4.152495e+02	-3.035014e+01
4.176480e+02	-3.039866e+01
4.200603e+02	-3.045415e+01
4.224866e+02	-3.050151e+01
4.249268e+02	-3.055423e+01
4.273812e+02	-3.060010e+01
4.298497e+02	-3.065081e+01
4.323325e+02	-3.070818e+01
4.348297e+02	-3.074600e+01
4.373412e+02	-3.079778e+01
4.398673e+02	-3.085417e+01
4.424079e+02	-3.090533e+01
4.449633e+02	-3.095746e+01
4.475334e+02	-3.100362e+01
4.501183e+02	-3.105309e+01
4.527182e+02	-3.110456e+01
4.553330e+02	-3.116101e+01
4.579630e+02	-3.120806e+01
4.606082e+02	-3.124861e+01
4.632687e+02	-3.130065e+01
4.659445e+02	-3.135530e+01
4.686358e+02	-3.139909e+01
4.713426e+02	-3.145275e+01
4.740650e+02	-3.150839e+01
4.768032e+02	-3.155399e+01
4.795572e+02	-3.160063e+01
4.823271e+02	-3.165706e+01
4.851130e+02	-3.170683e+01
4.879150e+02	-3.175745e+01
4.907332e+02	-3.180074e+01
4.935676e+02	-3.186154e+01
4.964185e+02	-3.190440e+01
4.992858e+02	-3.195483e+01
5.021696e+02	-3.200616e+01
5.050701e+02	-3.205228e+01
5.079874e+02	-3.210693e+01
5.109215e+02	-3.215608e+01
5.138726e+02	-3.220939e+01
5.168407e+02	-3.225656e+01
5.198259e+02	-3.230785e+01
5.228284e+02	-3.236075e+01
5.258482e+02	-3.240623e+01
5.288855e+02	-3.245627e+01
5.319403e+02	-3.250913e+01
5.350128e+02	-3.255624e+01
5.381030e+02	-3.260999e+01
5.412111e+02	-3.265980e+01
5.443371e+02	-3.271095e+01
5.474812e+02	-3.276005e+01
5.506434e+02	-3.281332e+01
5.538239e+02	-3.285631e+01
5.570228e+02	-3.290995e+01
5.602401e+02	-3.295667e+01
5.634760e+02	-3.301242e+01
5.667306e+02	-3.306422e+01
5.700040e+02	-3.311281e+01
5.732964e+02	-3.316648e+01
5.766077e+02	-3.321546e+01
5.799382e+02	-3.326667e+01
5.832879e+02	-3.331305e+01
5.866569e+02	-3.336288e+01
5.900454e+02	-3.341339e+01
5.934535e+02	-3.346519e+01
5.968813e+02	-3.351944e+01
6.003288e+02	-3.356652e+01
6.037963e+02	-3.361937e+01
6.072838e+02	-3.366450e+01
6.107914e+02	-3.371762e+01
6.143194e+02	-3.376209e+01
6.178676e+02	-3.381385e+01
6.214364e+02	-3.386250e+01
6.250258e+02	-3.392077e+01
6.286359e+02	-3.397309e+01
6.322669e+02	-3.401437e+01
6.359189e+02	-3.406972e+01
6.395919e+02	-3.412757e+01
6.432862e+02	-3.416921e+01
6.470017e+02	-3.421012e+01
6.507388e+02	-3.427008e+01
6.544974e+02	-3.432489e+01
6.582778e+02	-3.436392e+01
6.620800e+02	-3.441440e+01
6.659041e+02	-3.446587e+01
6.697504e+02	-3.451827e+01
6.736188e+02	-3.456679e+01
6.775096e+02	-3.462555e+01
6.814229e+02	-3.467105e+01
6.853587e+02	-3.471783e+01
6.893173e+02	-3.477265e+01
6.932988e+02	-3.482169e+01
6.973033e+02	-3.487694e+01
7.013309e+02	-3.491504e+01
