Frequency(Hz)	Magnitude(dB)
1.000000e+01	-1.788483e-05
1.005776e+01	-1.809203e-05
1.011585e+01	-1.830164e-05
1.017428e+01	-1.851366e-05
1.023305e+01	-1.872815e-05
1.029215e+01	-1.894512e-05
1.035160e+01	-1.916460e-05
1.041139e+01	-1.938663e-05
1.047153e+01	-1.961123e-05
1.053201e+01	-1.983843e-05
1.059284e+01	-2.006826e-05
1.065403e+01	-2.030076e-05
1.071556e+01	-2.053595e-05
1.077746e+01	-2.077386e-05
1.083971e+01	-2.101453e-05
1.090232e+01	-2.125799e-05
1.096529e+01	-2.150427e-05
1.102862e+01	-2.175340e-05
1.109232e+01	-2.200542e-05
1.115639e+01	-2.226036e-05
1.122083e+01	-2.251825e-05
1.128564e+01	-2.277913e-05
1.135083e+01	-2.304303e-05
1.141639e+01	-2.330999e-05
1.148233e+01	-2.358005e-05
1.154865e+01	-2.385323e-05
1.161536e+01	-2.412957e-05
1.168245e+01	-2.440912e-05
1.174992e+01	-2.469191e-05
1.181779e+01	-2.497797e-05
1.188605e+01	-2.526734e-05
1.195470e+01	-2.556007e-05
1.202375e+01	-2.585619e-05
1.209320e+01	-2.615574e-05
1.216305e+01	-2.645876e-05
1.223330e+01	-2.676529e-05
1.230396e+01	-2.707538e-05
1.237503e+01	-2.738905e-05
1.244651e+01	-2.770636e-05
1.251840e+01	-2.802734e-05
1.259070e+01	-2.835205e-05
1.266343e+01	-2.868051e-05
1.273657e+01	-2.901278e-05
1.281014e+01	-2.934890e-05
1.288413e+01	-2.968892e-05
1.295855e+01	-3.003287e-05
1.303339e+01	-3.038081e-05
1.310867e+01	-3.073278e-05
1.318439e+01	-3.108882e-05
1.326054e+01	-3.144900e-05
1.333713e+01	-3.181334e-05
1.341417e+01	-3.218191e-05
1.349165e+01	-3.255474e-05
1.356958e+01	-3.293189e-05
1.364795e+01	-3.331342e-05
1.372678e+01	-3.369936e-05
1.380607e+01	-3.408978e-05
1.388581e+01	-3.448472e-05
1.396602e+01	-3.488423e-05
1.404668e+01	-3.528837e-05
1.412782e+01	-3.569719e-05
1.420942e+01	-3.611076e-05
1.429149e+01	-3.652911e-05
1.437404e+01	-3.695230e-05
1.445706e+01	-3.738041e-05
1.454057e+01	-3.781347e-05
1.462455e+01	-3.825154e-05
1.470902e+01	-3.869470e-05
1.479398e+01	-3.914298e-05
1.487943e+01	-3.959646e-05
1.496537e+01	-4.005520e-05
1.505181e+01	-4.051925e-05
1.513875e+01	-4.098867e-05
1.522619e+01	-4.146353e-05
1.531414e+01	-4.194390e-05
1.540259e+01	-4.242983e-05
1.549156e+01	-4.292139e-05
1.558103e+01	-4.341864e-05
1.567103e+01	-4.392166e-05
1.576155e+01	-4.443050e-05
1.585258e+01	-4.494523e-05
1.594415e+01	-4.546593e-05
1.603624e+01	-4.599267e-05
1.612886e+01	-4.652550e-05
1.622202e+01	-4.706451e-05
1.631572e+01	-4.760976e-05
1.640996e+01	-4.816133e-05
1.650474e+01	-4.871929e-05
1.660008e+01	-4.928372e-05
1.669596e+01	-4.985468e-05
1.679239e+01	-5.043225e-05
1.688938e+01	-5.101652e-05
1.698694e+01	-5.160756e-05
1.708505e+01	-5.220544e-05
1.718373e+01	-5.281026e-05
1.728299e+01	-5.342207e-05
1.738281e+01	-5.404098e-05
1.748322e+01	-5.466706e-05
1.758420e+01	-5.530038e-05
1.768576e+01	-5.594105e-05
1.778792e+01	-5.658914e-05
1.789066e+01	-5.724474e-05
1.799399e+01	-5.790793e-05
1.809793e+01	-5.857880e-05
1.820246e+01	-5.925745e-05
1.830760e+01	-5.994396e-05
1.841334e+01	-6.063842e-05
1.851969e+01	-6.134093e-05
1.862666e+01	-6.205158e-05
1.873425e+01	-6.277046e-05
1.884246e+01	-6.349766e-05
1.895129e+01	-6.423330e-05
1.906075e+01	-6.497745e-05
1.917085e+01	-6.573023e-05
1.928158e+01	-6.649173e-05
1.939295e+01	-6.726205e-05
1.950496e+01	-6.804129e-05
1.961762e+01	-6.882956e-05
1.973093e+01	-6.962696e-05
1.984490e+01	-7.043360e-05
1.995952e+01	-7.124959e-05
2.007480e+01	-7.207503e-05
2.019076e+01	-7.291003e-05
2.030738e+01	-7.375471e-05
2.042467e+01	-7.460917e-05
2.054264e+01	-7.547353e-05
2.066130e+01	-7.634791e-05
2.078064e+01	-7.723241e-05
2.090066e+01	-7.812716e-05
2.102139e+01	-7.903228e-05
2.114280e+01	-7.994788e-05
2.126492e+01	-8.087409e-05
2.138775e+01	-8.181103e-05
2.151128e+01	-8.275882e-05
2.163553e+01	-8.371760e-05
2.176050e+01	-8.468748e-05
2.188619e+01	-8.566860e-05
2.201260e+01	-8.666109e-05
2.213974e+01	-8.766507e-05
2.226762e+01	-8.868068e-05
2.239624e+01	-8.970806e-05
2.252560e+01	-9.074734e-05
2.265571e+01	-9.179867e-05
2.278656e+01	-9.286217e-05
2.291818e+01	-9.393799e-05
2.305055e+01	-9.502628e-05
2.318369e+01	-9.612717e-05
2.331760e+01	-9.724082e-05
2.345228e+01	-9.836737e-05
2.358774e+01	-9.950697e-05
2.372398e+01	-1.006598e-04
2.386101e+01	-1.018259e-04
2.399883e+01	-1.030056e-04
2.413745e+01	-1.041989e-04
2.427686e+01	-1.054061e-04
2.441709e+01	-1.066272e-04
2.455812e+01	-1.078625e-04
2.469997e+01	-1.091121e-04
2.484263e+01	-1.103762e-04
2.498612e+01	-1.116549e-04
2.513044e+01	-1.129485e-04
2.527559e+01	-1.142570e-04
2.542158e+01	-1.155807e-04
2.556842e+01	-1.169197e-04
2.571610e+01	-1.182742e-04
2.586463e+01	-1.196444e-04
2.601403e+01	-1.210305e-04
2.616428e+01	-1.224327e-04
2.631541e+01	-1.238511e-04
2.646740e+01	-1.252859e-04
2.662028e+01	-1.267374e-04
2.677404e+01	-1.282056e-04
2.692868e+01	-1.296909e-04
2.708422e+01	-1.311934e-04
2.724066e+01	-1.327133e-04
2.739800e+01	-1.342508e-04
2.755625e+01	-1.358061e-04
2.771541e+01	-1.373794e-04
2.787550e+01	-1.389710e-04
2.803650e+01	-1.405809e-04
2.819844e+01	-1.422096e-04
2.836131e+01	-1.438571e-04
2.852513e+01	-1.455237e-04
2.868989e+01	-1.472096e-04
2.885560e+01	-1.489150e-04
2.902227e+01	-1.506402e-04
2.918990e+01	-1.523854e-04
2.935850e+01	-1.541508e-04
2.952807e+01	-1.559367e-04
2.969863e+01	-1.577432e-04
2.987016e+01	-1.595707e-04
3.004269e+01	-1.614193e-04
3.021622e+01	-1.632893e-04
3.039075e+01	-1.651811e-04
3.056628e+01	-1.670947e-04
3.074283e+01	-1.690305e-04
3.092040e+01	-1.709887e-04
3.109900e+01	-1.729696e-04
3.127862e+01	-1.749735e-04
3.145929e+01	-1.770006e-04
3.164099e+01	-1.790511e-04
3.182375e+01	-1.811254e-04
3.200756e+01	-1.832238e-04
3.219244e+01	-1.853464e-04
3.237838e+01	-1.874937e-04
3.256540e+01	-1.896658e-04
3.275349e+01	-1.918631e-04
3.294268e+01	-1.940858e-04
3.313295e+01	-1.963343e-04
3.332433e+01	-1.986088e-04
3.351681e+01	-2.009097e-04
3.371040e+01	-2.032373e-04
3.390511e+01	-2.055918e-04
3.410094e+01	-2.079736e-04
3.429791e+01	-2.103829e-04
3.449601e+01	-2.128202e-04
3.469526e+01	-2.152857e-04
3.489566e+01	-2.177798e-04
3.509721e+01	-2.203028e-04
3.529993e+01	-2.228550e-04
3.550382e+01	-2.254368e-04
3.570889e+01	-2.280484e-04
3.591515e+01	-2.306904e-04
3.612259e+01	-2.333629e-04
3.633123e+01	-2.360664e-04
3.654108e+01	-2.388012e-04
3.675214e+01	-2.415677e-04
3.696442e+01	-2.443663e-04
3.717792e+01	-2.471973e-04
3.739266e+01	-2.500610e-04
3.760864e+01	-2.529580e-04
3.782587e+01	-2.558885e-04
3.804435e+01	-2.588529e-04
3.826409e+01	-2.618517e-04
3.848510e+01	-2.648853e-04
3.870739e+01	-2.679539e-04
3.893096e+01	-2.710582e-04
3.915583e+01	-2.741983e-04
3.938199e+01	-2.773749e-04
3.960946e+01	-2.805883e-04
3.983824e+01	-2.838388e-04
4.006834e+01	-2.871271e-04
4.029978e+01	-2.904534e-04
4.053255e+01	-2.938183e-04
4.076666e+01	-2.972221e-04
4.100213e+01	-3.006654e-04
4.123896e+01	-3.041486e-04
4.147715e+01	-3.076721e-04
4.171672e+01	-3.112365e-04
4.195767e+01	-3.148421e-04
4.220002e+01	-3.184895e-04
4.244377e+01	-3.221791e-04
4.268892e+01	-3.259115e-04
4.293549e+01	-3.296872e-04
4.318348e+01	-3.335065e-04
4.343291e+01	-3.373702e-04
4.368377e+01	-3.412785e-04
4.393609e+01	-3.452322e-04
4.418986e+01	-3.492316e-04
4.444510e+01	-3.532774e-04
4.470182e+01	-3.573701e-04
4.496001e+01	-3.615101e-04
4.521970e+01	-3.656981e-04
4.548089e+01	-3.699347e-04
4.574358e+01	-3.742203e-04
4.600779e+01	-3.785555e-04
4.627353e+01	-3.829410e-04
4.654081e+01	-3.873773e-04
4.680963e+01	-3.918650e-04
4.708000e+01	-3.964046e-04
4.735193e+01	-4.009969e-04
4.762543e+01	-4.056423e-04
4.790051e+01	-4.103416e-04
4.817719e+01	-4.150953e-04
4.845545e+01	-4.199040e-04
4.873533e+01	-4.247685e-04
4.901682e+01	-4.296893e-04
4.929994e+01	-4.346671e-04
4.958470e+01	-4.397026e-04
4.987110e+01	-4.447964e-04
5.015915e+01	-4.499493e-04
5.044887e+01	-4.551618e-04
5.074026e+01	-4.604347e-04
5.103333e+01	-4.657686e-04
5.132810e+01	-4.711644e-04
5.162457e+01	-4.766227e-04
5.192275e+01	-4.821442e-04
5.222265e+01	-4.877296e-04
5.252429e+01	-4.933798e-04
5.282767e+01	-4.990954e-04
5.313280e+01	-5.048772e-04
5.343969e+01	-5.107260e-04
5.374836e+01	-5.166426e-04
5.405880e+01	-5.226277e-04
5.437105e+01	-5.286821e-04
5.468509e+01	-5.348066e-04
5.500095e+01	-5.410021e-04
5.531863e+01	-5.472694e-04
5.563815e+01	-5.536093e-04
5.595951e+01	-5.600226e-04
5.628273e+01	-5.665102e-04
5.660782e+01	-5.730729e-04
5.693479e+01	-5.797117e-04
5.726364e+01	-5.864273e-04
5.759439e+01	-5.932208e-04
5.792705e+01	-6.000929e-04
5.826164e+01	-6.070447e-04
5.859815e+01	-6.140770e-04
5.893662e+01	-6.211907e-04
5.927703e+01	-6.283869e-04
5.961941e+01	-6.356664e-04
5.996377e+01	-6.430302e-04
6.031012e+01	-6.504793e-04
6.065847e+01	-6.580147e-04
6.100883e+01	-6.656374e-04
6.136121e+01	-6.733484e-04
6.171563e+01	-6.811487e-04
6.207210e+01	-6.890394e-04
6.243063e+01	-6.970215e-04
6.279122e+01	-7.050960e-04
6.315390e+01	-7.132641e-04
6.351868e+01	-7.215267e-04
6.388556e+01	-7.298851e-04
6.425456e+01	-7.383403e-04
6.462569e+01	-7.468935e-04
6.499897e+01	-7.555457e-04
6.537440e+01	-7.642981e-04
6.575200e+01	-7.731519e-04
6.613178e+01	-7.821083e-04
6.651375e+01	-7.911684e-04
6.689793e+01	-8.003335e-04
6.728433e+01	-8.096047e-04
6.767297e+01	-8.189833e-04
6.806384e+01	-8.284705e-04
6.845698e+01	-8.380677e-04
6.885238e+01	-8.477760e-04
6.925007e+01	-8.575967e-04
6.965005e+01	-8.675312e-04
7.005235e+01	-8.775808e-04
7.045697e+01	-8.877468e-04
7.086393e+01	-8.980305e-04
7.127323e+01	-9.084333e-04
7.168490e+01	-9.189567e-04
7.209895e+01	-9.296019e-04
7.251539e+01	-9.403704e-04
7.293424e+01	-9.512637e-04
7.335551e+01	-9.622831e-04
7.377920e+01	-9.734302e-04
7.420535e+01	-9.847063e-04
7.463396e+01	-9.961131e-04
7.506504e+01	-1.007652e-03
7.549861e+01	-1.019325e-03
7.593469e+01	-1.031132e-03
7.637328e+01	-1.043077e-03
7.681441e+01	-1.055160e-03
7.725809e+01	-1.067383e-03
7.770433e+01	-1.079747e-03
7.815315e+01	-1.092254e-03
7.860456e+01	-1.104907e-03
7.905857e+01	-1.117706e-03
7.951521e+01	-1.130653e-03
7.997449e+01	-1.143750e-03
8.043642e+01	-1.156999e-03
8.090102e+01	-1.170402e-03
8.136830e+01	-1.183959e-03
8.183828e+01	-1.197674e-03
8.231097e+01	-1.211547e-03
8.278640e+01	-1.225581e-03
8.326457e+01	-1.239778e-03
8.374550e+01	-1.254139e-03
8.422921e+01	-1.268667e-03
8.471572e+01	-1.283362e-03
8.520503e+01	-1.298228e-03
8.569717e+01	-1.313266e-03
8.619215e+01	-1.328478e-03
8.669000e+01	-1.343867e-03
8.719071e+01	-1.359433e-03
8.769432e+01	-1.375180e-03
8.820084e+01	-1.391110e-03
8.871029e+01	-1.407223e-03
8.922267e+01	-1.423524e-03
8.973802e+01	-1.440013e-03
9.025634e+01	-1.456693e-03
9.077766e+01	-1.473566e-03
9.130199e+01	-1.490635e-03
9.182935e+01	-1.507901e-03
9.235975e+01	-1.525368e-03
9.289321e+01	-1.543037e-03
9.342976e+01	-1.560910e-03
9.396941e+01	-1.578990e-03
9.451217e+01	-1.597280e-03
9.505807e+01	-1.615781e-03
9.560712e+01	-1.634497e-03
9.615934e+01	-1.653429e-03
9.671476e+01	-1.672581e-03
9.727338e+01	-1.691955e-03
9.783522e+01	-1.711553e-03
9.840032e+01	-1.731377e-03
9.896867e+01	-1.751432e-03
9.954031e+01	-1.771719e-03
1.001153e+02	-1.792240e-03
1.006935e+02	-1.812999e-03
1.012751e+02	-1.833999e-03
1.018601e+02	-1.855242e-03
1.024484e+02	-1.876731e-03
1.030402e+02	-1.898468e-03
1.036353e+02	-1.920458e-03
1.042339e+02	-1.942702e-03
1.048360e+02	-1.965203e-03
1.054415e+02	-1.987966e-03
1.060505e+02	-2.010991e-03
1.066631e+02	-2.034284e-03
1.072791e+02	-2.057846e-03
1.078988e+02	-2.081681e-03
1.085220e+02	-2.105792e-03
1.091488e+02	-2.130182e-03
1.097793e+02	-2.154855e-03
1.104133e+02	-2.179813e-03
1.110511e+02	-2.205060e-03
1.116925e+02	-2.230600e-03
1.123376e+02	-2.256435e-03
1.129865e+02	-2.282570e-03
1.136391e+02	-2.309007e-03
1.142955e+02	-2.335750e-03
1.149556e+02	-2.362803e-03
1.156196e+02	-2.390169e-03
1.162874e+02	-2.417852e-03
1.169591e+02	-2.445856e-03
1.176347e+02	-2.474184e-03
1.183141e+02	-2.502839e-03
1.189975e+02	-2.531827e-03
1.196848e+02	-2.561150e-03
1.203761e+02	-2.590813e-03
1.210714e+02	-2.620819e-03
1.217707e+02	-2.651173e-03
1.224740e+02	-2.681878e-03
1.231814e+02	-2.712938e-03
1.238929e+02	-2.744359e-03
1.246085e+02	-2.776143e-03
1.253283e+02	-2.808294e-03
1.260522e+02	-2.840819e-03
1.267802e+02	-2.873719e-03
1.275125e+02	-2.907001e-03
1.282490e+02	-2.940668e-03
1.289898e+02	-2.974725e-03
1.297348e+02	-3.009176e-03
1.304842e+02	-3.044026e-03
1.312378e+02	-3.079279e-03
1.319959e+02	-3.114940e-03
1.327583e+02	-3.151015e-03
1.335251e+02	-3.187507e-03
1.342963e+02	-3.224421e-03
1.350720e+02	-3.261763e-03
1.358522e+02	-3.299537e-03
1.366368e+02	-3.337748e-03
1.374260e+02	-3.376402e-03
1.382198e+02	-3.415503e-03
1.390182e+02	-3.455056e-03
1.398211e+02	-3.495068e-03
1.406287e+02	-3.535543e-03
1.414410e+02	-3.576486e-03
1.422579e+02	-3.617903e-03
1.430796e+02	-3.659800e-03
1.439060e+02	-3.702182e-03
1.447372e+02	-3.745054e-03
1.455732e+02	-3.788422e-03
1.464141e+02	-3.832293e-03
1.472597e+02	-3.876671e-03
1.481103e+02	-3.921563e-03
1.489658e+02	-3.966975e-03
1.498262e+02	-4.012912e-03
1.506916e+02	-4.059381e-03
1.515620e+02	-4.106387e-03
1.524374e+02	-4.153938e-03
1.533179e+02	-4.202039e-03
1.542034e+02	-4.250697e-03
1.550941e+02	-4.299918e-03
1.559899e+02	-4.349709e-03
1.568909e+02	-4.400076e-03
1.577971e+02	-4.451026e-03
1.587085e+02	-4.502565e-03
1.596252e+02	-4.554701e-03
1.605472e+02	-4.607440e-03
1.614745e+02	-4.660790e-03
1.624072e+02	-4.714757e-03
1.633453e+02	-4.769349e-03
1.642887e+02	-4.824572e-03
1.652377e+02	-4.880435e-03
1.661921e+02	-4.936944e-03
1.671520e+02	-4.994106e-03
1.681175e+02	-5.051931e-03
1.690885e+02	-5.110424e-03
1.700651e+02	-5.169594e-03
1.710474e+02	-5.229449e-03
1.720354e+02	-5.289997e-03
1.730291e+02	-5.351245e-03
1.740285e+02	-5.413202e-03
1.750337e+02	-5.475876e-03
1.760446e+02	-5.539274e-03
1.770615e+02	-5.603407e-03
1.780842e+02	-5.668281e-03
1.791128e+02	-5.733906e-03
1.801473e+02	-5.800291e-03
1.811878e+02	-5.867443e-03
1.822344e+02	-5.935372e-03
1.832870e+02	-6.004088e-03
1.843456e+02	-6.073598e-03
1.854104e+02	-6.143912e-03
1.864813e+02	-6.215040e-03
1.875584e+02	-6.286990e-03
1.886418e+02	-6.359773e-03
1.897313e+02	-6.433398e-03
1.908272e+02	-6.507875e-03
1.919294e+02	-6.583213e-03
1.930380e+02	-6.659422e-03
1.941530e+02	-6.736514e-03
1.952744e+02	-6.814496e-03
1.964023e+02	-6.893381e-03
1.975367e+02	-6.973179e-03
1.986777e+02	-7.053899e-03
1.998252e+02	-7.135553e-03
2.009794e+02	-7.218151e-03
2.021403e+02	-7.301705e-03
2.033078e+02	-7.386225e-03
2.044821e+02	-7.471722e-03
2.056632e+02	-7.558209e-03
2.068511e+02	-7.645695e-03
2.080459e+02	-7.734193e-03
2.092475e+02	-7.823715e-03
2.104561e+02	-7.914272e-03
2.116717e+02	-8.005876e-03
2.128943e+02	-8.098540e-03
2.141240e+02	-8.192274e-03
2.153608e+02	-8.287093e-03
2.166047e+02	-8.383008e-03
2.178558e+02	-8.480033e-03
2.191141e+02	-8.578179e-03
2.203797e+02	-8.677460e-03
2.216526e+02	-8.777888e-03
2.229329e+02	-8.879478e-03
2.242205e+02	-8.982242e-03
2.255156e+02	-9.086195e-03
2.268182e+02	-9.191349e-03
2.281283e+02	-9.297719e-03
2.294459e+02	-9.405318e-03
2.307712e+02	-9.514162e-03
2.321041e+02	-9.624263e-03
2.334447e+02	-9.735637e-03
2.347931e+02	-9.848299e-03
2.361493e+02	-9.962263e-03
2.375133e+02	-1.007754e-02
2.388851e+02	-1.019416e-02
2.402649e+02	-1.031212e-02
2.416527e+02	-1.043144e-02
2.430484e+02	-1.055215e-02
2.444523e+02	-1.067425e-02
2.458642e+02	-1.079776e-02
2.472843e+02	-1.092269e-02
2.487126e+02	-1.104907e-02
2.501492e+02	-1.117691e-02
2.515940e+02	-1.130623e-02
2.530472e+02	-1.143704e-02
2.545088e+02	-1.156937e-02
2.559789e+02	-1.170322e-02
2.574574e+02	-1.183862e-02
2.589444e+02	-1.197558e-02
2.604401e+02	-1.211413e-02
2.619444e+02	-1.225428e-02
2.634574e+02	-1.239604e-02
2.649791e+02	-1.253945e-02
2.665096e+02	-1.268451e-02
2.680489e+02	-1.283124e-02
2.695972e+02	-1.297967e-02
2.711544e+02	-1.312982e-02
2.727205e+02	-1.328170e-02
2.742958e+02	-1.343533e-02
2.758801e+02	-1.359074e-02
2.774736e+02	-1.374794e-02
2.790762e+02	-1.390696e-02
2.806882e+02	-1.406781e-02
2.823094e+02	-1.423052e-02
2.839400e+02	-1.439511e-02
2.855800e+02	-1.456160e-02
2.872295e+02	-1.473001e-02
2.888886e+02	-1.490037e-02
2.905572e+02	-1.507270e-02
2.922354e+02	-1.524701e-02
2.939234e+02	-1.542334e-02
2.956211e+02	-1.560170e-02
2.973286e+02	-1.578212e-02
2.990459e+02	-1.596462e-02
3.007732e+02	-1.614923e-02
3.025104e+02	-1.633597e-02
3.042577e+02	-1.652486e-02
3.060151e+02	-1.671594e-02
3.077826e+02	-1.690922e-02
3.095604e+02	-1.710473e-02
3.113484e+02	-1.730250e-02
3.131467e+02	-1.750255e-02
3.149554e+02	-1.770490e-02
3.167746e+02	-1.790959e-02
3.186043e+02	-1.811665e-02
3.204445e+02	-1.832609e-02
3.222954e+02	-1.853795e-02
3.241570e+02	-1.875225e-02
3.260293e+02	-1.896902e-02
3.279124e+02	-1.918830e-02
3.298064e+02	-1.941010e-02
3.317114e+02	-1.963446e-02
3.336273e+02	-1.986141e-02
3.355544e+02	-2.009097e-02
3.374925e+02	-2.032319e-02
3.394418e+02	-2.055808e-02
3.414024e+02	-2.079568e-02
3.433744e+02	-2.103601e-02
3.453577e+02	-2.127912e-02
3.473525e+02	-2.152503e-02
3.493588e+02	-2.177378e-02
3.513766e+02	-2.202539e-02
3.534062e+02	-2.227991e-02
3.554474e+02	-2.253735e-02
3.575005e+02	-2.279777e-02
3.595654e+02	-2.306118e-02
3.616422e+02	-2.332763e-02
3.637311e+02	-2.359715e-02
3.658320e+02	-2.386978e-02
3.679450e+02	-2.414554e-02
3.700702e+02	-2.442449e-02
3.722077e+02	-2.470664e-02
3.743576e+02	-2.499205e-02
3.765199e+02	-2.528074e-02
3.786946e+02	-2.557276e-02
3.808820e+02	-2.586814e-02
3.830819e+02	-2.616693e-02
3.852946e+02	-2.646915e-02
3.875200e+02	-2.677486e-02
3.897583e+02	-2.708408e-02
3.920096e+02	-2.739686e-02
3.942738e+02	-2.771325e-02
3.965511e+02	-2.803327e-02
3.988416e+02	-2.835698e-02
4.011452e+02	-2.868442e-02
4.034622e+02	-2.901562e-02
4.057926e+02	-2.935063e-02
4.081365e+02	-2.968950e-02
4.104938e+02	-3.003227e-02
4.128648e+02	-3.037898e-02
4.152495e+02	-3.072968e-02
4.176480e+02	-3.108442e-02
4.200603e+02	-3.144323e-02
4.224866e+02	-3.180617e-02
4.249268e+02	-3.217328e-02
4.273812e+02	-3.254462e-02
4.298497e+02	-3.292023e-02
4.323325e+02	-3.330015e-02
4.348297e+02	-3.368444e-02
4.373412e+02	-3.407315e-02
4.398673e+02	-3.446632e-02
4.424079e+02	-3.486402e-02
4.449633e+02	-3.526628e-02
4.475334e+02	-3.567317e-02
4.501183e+02	-3.608473e-02
4.527182e+02	-3.650102e-02
4.553330e+02	-3.692209e-02
4.579630e+02	-3.734800e-02
4.606082e+02	-3.777880e-02
4.632687e+02	-3.821455e-02
4.659445e+02	-3.865530e-02
4.686358e+02	-3.910111e-02
4.713426e+02	-3.955204e-02
4.740650e+02	-4.000815e-02
4.768032e+02	-4.046949e-02
4.795572e+02	-4.093612e-02
4.823271e+02	-4.140811e-02
4.851130e+02	-4.188552e-02
4.879150e+02	-4.236840e-02
4.907332e+02	-4.285682e-02
4.935676e+02	-4.335085e-02
4.964185e+02	-4.385054e-02
4.992858e+02	-4.435596e-02
5.021696e+02	-4.486717e-02
5.050701e+02	-4.538425e-02
5.079874e+02	-4.590725e-02
5.109215e+02	-4.643625e-02
5.138726e+02	-4.697132e-02
5.168407e+02	-4.751251e-02
5.198259e+02	-4.805990e-02
5.228284e+02	-4.861357e-02
5.258482e+02	-4.917358e-02
5.288855e+02	-4.974000e-02
5.319403e+02	-5.031290e-02
5.350128e+02	-5.089237e-02
5.381030e+02	-5.147847e-02
5.412111e+02	-5.207129e-02
5.443371e+02	-5.267088e-02
5.474812e+02	-5.327734e-02
5.506434e+02	-5.389074e-02
5.538239e+02	-5.451115e-02
5.570228e+02	-5.513867e-02
5.602401e+02	-5.577336e-02
5.634760e+02	-5.641530e-02
5.667306e+02	-5.706459e-02
5.700040e+02	-5.772130e-02
5.732964e+02	-5.838552e-02
5.766077e+02	-5.905733e-02
5.799382e+02	-5.973681e-02
5.832879e+02	-6.042406e-02
5.866569e+02	-6.111916e-02
5.900454e+02	-6.182220e-02
5.934535e+02	-6.253326e-02
5.968813e+02	-6.325245e-02
6.003288e+02	-6.397985e-02
6.037963e+02	-6.471554e-02
6.072838e+02	-6.545964e-02
6.107914e+02	-6.621222e-02
6.143194e+02	-6.697339e-02
6.178676e+02	-6.774324e-02
6.214364e+02	-6.852187e-02
6.250258e+02	-6.930938e-02
6.286359e+02	-7.010587e-02
6.322669e+02	-7.091143e-02
6.359189e+02	-7.172617e-02
6.395919e+02	-7.255020e-02
6.432862e+02	-7.338361e-02
6.470017e+02	-7.422652e-02
6.507388e+02	-7.507902e-02
6.544974e+02	-7.594123e-02
6.582778e+02	-7.681325e-02
6.620800e+02	-7.769520e-02
6.659041e+02	-7.858717e-02
6.697504e+02	-7.948930e-02
6.736188e+02	-8.040169e-02
6.775096e+02	-8.132445e-02
6.814229e+02	-8.225770e-02
6.853587e+02	-8.320155e-02
6.893173e+02	-8.415613e-02
6.932988e+02	-8.512156e-02
6.973033e+02	-8.609795e-02
7.013309e+02	-8.708543e-02
