Frequency(Hz)	Magnitude(dB)
1.000000e+01	-2.292398e+00
1.005776e+01	-2.313077e+00
1.011585e+01	-2.333803e+00
1.017428e+01	-2.354751e+00
1.023305e+01	-2.375713e+00
1.029215e+01	-2.396962e+00
1.035160e+01	-2.418245e+00
1.041139e+01	-2.439636e+00
1.047153e+01	-2.461282e+00
1.053201e+01	-2.482768e+00
1.059284e+01	-2.504718e+00
1.065403e+01	-2.526743e+00
1.071556e+01	-2.548608e+00
1.077746e+01	-2.571147e+00
1.083971e+01	-2.593456e+00
1.090232e+01	-2.616194e+00
1.096529e+01	-2.638927e+00
1.102862e+01	-2.662020e+00
1.109232e+01	-2.684673e+00
1.115639e+01	-2.707541e+00
1.122083e+01	-2.731196e+00
1.128564e+01	-2.754256e+00
1.135083e+01	-2.777987e+00
1.141639e+01	-2.801849e+00
1.148233e+01	-2.825767e+00
1.154865e+01	-2.849708e+00
1.161536e+01	-2.873690e+00
1.168245e+01	-2.897903e+00
1.174992e+01	-2.922314e+00
1.181779e+01	-2.947150e+00
1.188605e+01	-2.971877e+00
1.195470e+01	-2.996643e+00
1.202375e+01	-3.021665e+00
1.209320e+01	-3.046812e+00
1.216305e+01	-3.072169e+00
1.223330e+01	-3.097478e+00
1.230396e+01	-3.123165e+00
1.237503e+01	-3.148651e+00
1.244651e+01	-3.174693e+00
1.251840e+01	-3.200752e+00
1.259070e+01	-3.226789e+00
1.266343e+01	-3.253168e+00
1.273657e+01	-3.279524e+00
1.281014e+01	-3.306153e+00
1.288413e+01	-3.333038e+00
1.295855e+01	-3.359974e+00
1.303339e+01	-3.386951e+00
1.310867e+01	-3.414065e+00
1.318439e+01	-3.441188e+00
1.326054e+01	-3.468700e+00
1.333713e+01	-3.496198e+00
1.341417e+01	-3.524028e+00
1.349165e+01	-3.551703e+00
1.356958e+01	-3.580114e+00
1.364795e+01	-3.608343e+00
1.372678e+01	-3.636433e+00
1.380607e+01	-3.664827e+00
1.388581e+01	-3.693211e+00
1.396602e+01	-3.722102e+00
1.404668e+01	-3.751050e+00
1.412782e+01	-3.780011e+00
1.420942e+01	-3.809196e+00
1.429149e+01	-3.838304e+00
1.437404e+01	-3.867987e+00
1.445706e+01	-3.897232e+00
1.454057e+01	-3.926964e+00
1.462455e+01	-3.957174e+00
1.470902e+01	-3.986971e+00
1.479398e+01	-4.017189e+00
1.487943e+01	-4.047199e+00
1.496537e+01	-4.077478e+00
1.505181e+01	-4.108419e+00
1.513875e+01	-4.139120e+00
1.522619e+01	-4.169890e+00
1.531414e+01	-4.200873e+00
1.540259e+01	-4.231892e+00
1.549156e+01	-4.262992e+00
1.558103e+01	-4.294167e+00
1.567103e+01	-4.325683e+00
1.576155e+01	-4.357505e+00
1.585258e+01	-4.389376e+00
1.594415e+01	-4.421025e+00
1.603624e+01	-4.453110e+00
1.612886e+01	-4.485323e+00
1.622202e+01	-4.517471e+00
1.631572e+01	-4.549726e+00
1.640996e+01	-4.582235e+00
1.650474e+01	-4.615141e+00
1.660008e+01	-4.648000e+00
1.669596e+01	-4.680975e+00
1.679239e+01	-4.713808e+00
1.688938e+01	-4.746881e+00
1.698694e+01	-4.780443e+00
1.708505e+01	-4.813955e+00
1.718373e+01	-4.847694e+00
1.728299e+01	-4.881224e+00
1.738281e+01	-4.914866e+00
1.748322e+01	-4.948934e+00
1.758420e+01	-4.982949e+00
1.768576e+01	-5.017489e+00
1.778792e+01	-5.052032e+00
1.789066e+01	-5.085814e+00
1.799399e+01	-5.120478e+00
1.809793e+01	-5.155514e+00
1.820246e+01	-5.190123e+00
1.830760e+01	-5.225094e+00
1.841334e+01	-5.260454e+00
1.851969e+01	-5.295261e+00
1.862666e+01	-5.330724e+00
1.873425e+01	-5.366256e+00
1.884246e+01	-5.401917e+00
1.895129e+01	-5.437425e+00
1.906075e+01	-5.472862e+00
1.917085e+01	-5.509328e+00
1.928158e+01	-5.544896e+00
1.939295e+01	-5.581026e+00
1.950496e+01	-5.617311e+00
1.961762e+01	-5.653642e+00
1.973093e+01	-5.690171e+00
1.984490e+01	-5.726583e+00
1.995952e+01	-5.763363e+00
2.007480e+01	-5.800349e+00
2.019076e+01	-5.836968e+00
2.030738e+01	-5.874020e+00
2.042467e+01	-5.911294e+00
2.054264e+01	-5.948679e+00
2.066130e+01	-5.985767e+00
2.078064e+01	-6.023602e+00
2.090066e+01	-6.061167e+00
2.102139e+01	-6.098717e+00
2.114280e+01	-6.136725e+00
2.126492e+01	-6.174527e+00
2.138775e+01	-6.212451e+00
2.151128e+01	-6.250556e+00
2.163553e+01	-6.288950e+00
2.176050e+01	-6.326990e+00
2.188619e+01	-6.365621e+00
2.201260e+01	-6.404346e+00
2.213974e+01	-6.442461e+00
2.226762e+01	-6.481567e+00
2.239624e+01	-6.520016e+00
2.252560e+01	-6.558867e+00
2.265571e+01	-6.598042e+00
2.278656e+01	-6.637322e+00
2.291818e+01	-6.676294e+00
2.305055e+01	-6.716077e+00
2.318369e+01	-6.755305e+00
2.331760e+01	-6.794723e+00
2.345228e+01	-6.834668e+00
2.358774e+01	-6.874056e+00
2.372398e+01	-6.913629e+00
2.386101e+01	-6.953809e+00
2.399883e+01	-6.993481e+00
2.413745e+01	-7.033747e+00
2.427686e+01	-7.074127e+00
2.441709e+01	-7.114289e+00
2.455812e+01	-7.154724e+00
2.469997e+01	-7.194831e+00
2.484263e+01	-7.235922e+00
2.498612e+01	-7.276032e+00
2.513044e+01	-7.316387e+00
2.527559e+01	-7.357844e+00
2.542158e+01	-7.398917e+00
2.556842e+01	-7.439640e+00
2.571610e+01	-7.480641e+00
2.586463e+01	-7.521591e+00
2.601403e+01	-7.562955e+00
2.616428e+01	-7.604311e+00
2.631541e+01	-7.645677e+00
2.646740e+01	-7.686913e+00
2.662028e+01	-7.728677e+00
2.677404e+01	-7.769949e+00
2.692868e+01	-7.812092e+00
2.708422e+01	-7.854021e+00
2.724066e+01	-7.895296e+00
2.739800e+01	-7.937858e+00
2.755625e+01	-7.979612e+00
2.771541e+01	-8.021664e+00
2.787550e+01	-8.064165e+00
2.803650e+01	-8.105815e+00
2.819844e+01	-8.148537e+00
2.836131e+01	-8.190810e+00
2.852513e+01	-8.233872e+00
2.868989e+01	-8.276208e+00
2.885560e+01	-8.318095e+00
2.902227e+01	-8.360905e+00
2.918990e+01	-8.403765e+00
2.935850e+01	-8.446481e+00
2.952807e+01	-8.489663e+00
2.969863e+01	-8.532416e+00
2.987016e+01	-8.575419e+00
3.004269e+01	-8.618795e+00
3.021622e+01	-8.661825e+00
3.039075e+01	-8.705149e+00
3.056628e+01	-8.748384e+00
3.074283e+01	-8.792241e+00
3.092040e+01	-8.835451e+00
3.109900e+01	-8.879192e+00
3.127862e+01	-8.922453e+00
3.145929e+01	-8.966062e+00
3.164099e+01	-9.009754e+00
3.182375e+01	-9.053399e+00
3.200756e+01	-9.096938e+00
3.219244e+01	-9.141085e+00
3.237838e+01	-9.185374e+00
3.256540e+01	-9.229077e+00
3.275349e+01	-9.273899e+00
3.294268e+01	-9.317571e+00
3.313295e+01	-9.362118e+00
3.332433e+01	-9.405939e+00
3.351681e+01	-9.450535e+00
3.371040e+01	-9.494338e+00
3.390511e+01	-9.539809e+00
3.410094e+01	-9.583379e+00
3.429791e+01	-9.628297e+00
3.449601e+01	-9.672752e+00
3.469526e+01	-9.717496e+00
3.489566e+01	-9.762191e+00
3.509721e+01	-9.806847e+00
3.529993e+01	-9.851822e+00
3.550382e+01	-9.897006e+00
3.570889e+01	-9.941425e+00
3.591515e+01	-9.986892e+00
3.612259e+01	-1.003169e+01
3.633123e+01	-1.007668e+01
3.654108e+01	-1.012159e+01
3.675214e+01	-1.016664e+01
3.696442e+01	-1.021233e+01
3.717792e+01	-1.025723e+01
3.739266e+01	-1.030270e+01
3.760864e+01	-1.034766e+01
3.782587e+01	-1.039348e+01
3.804435e+01	-1.043910e+01
3.826409e+01	-1.048455e+01
3.848510e+01	-1.053018e+01
3.870739e+01	-1.057570e+01
3.893096e+01	-1.062160e+01
3.915583e+01	-1.066737e+01
3.938199e+01	-1.071282e+01
3.960946e+01	-1.075917e+01
3.983824e+01	-1.080468e+01
4.006834e+01	-1.085075e+01
4.029978e+01	-1.089659e+01
4.053255e+01	-1.094225e+01
4.076666e+01	-1.098864e+01
4.100213e+01	-1.103482e+01
4.123896e+01	-1.108107e+01
4.147715e+01	-1.112720e+01
4.171672e+01	-1.117277e+01
4.195767e+01	-1.121950e+01
4.220002e+01	-1.126535e+01
4.244377e+01	-1.131184e+01
4.268892e+01	-1.135851e+01
4.293549e+01	-1.140441e+01
4.318348e+01	-1.145056e+01
4.343291e+01	-1.149748e+01
4.368377e+01	-1.154460e+01
4.393609e+01	-1.159080e+01
4.418986e+01	-1.163714e+01
4.444510e+01	-1.168389e+01
4.470182e+01	-1.173059e+01
4.496001e+01	-1.177643e+01
4.521970e+01	-1.182369e+01
4.548089e+01	-1.187047e+01
4.574358e+01	-1.191729e+01
4.600779e+01	-1.196404e+01
4.627353e+01	-1.201021e+01
4.654081e+01	-1.205776e+01
4.680963e+01	-1.210459e+01
4.708000e+01	-1.215166e+01
4.735193e+01	-1.219884e+01
4.762543e+01	-1.224573e+01
4.790051e+01	-1.229308e+01
4.817719e+01	-1.233944e+01
4.845545e+01	-1.238695e+01
4.873533e+01	-1.243423e+01
4.901682e+01	-1.248117e+01
4.929994e+01	-1.252797e+01
4.958470e+01	-1.257559e+01
4.987110e+01	-1.262328e+01
5.015915e+01	-1.267125e+01
5.044887e+01	-1.271798e+01
5.074026e+01	-1.276502e+01
5.103333e+01	-1.281304e+01
5.132810e+01	-1.286043e+01
5.162457e+01	-1.290781e+01
5.192275e+01	-1.295467e+01
5.222265e+01	-1.300282e+01
5.252429e+01	-1.304972e+01
5.282767e+01	-1.309737e+01
5.313280e+01	-1.314508e+01
5.343969e+01	-1.319249e+01
5.374836e+01	-1.323970e+01
5.405880e+01	-1.328804e+01
5.437105e+01	-1.333605e+01
5.468509e+01	-1.338423e+01
5.500095e+01	-1.343061e+01
5.531863e+01	-1.347911e+01
5.563815e+01	-1.352654e+01
5.595951e+01	-1.357435e+01
5.628273e+01	-1.362234e+01
5.660782e+01	-1.367035e+01
5.693479e+01	-1.371780e+01
5.726364e+01	-1.376635e+01
5.759439e+01	-1.381441e+01
5.792705e+01	-1.386152e+01
5.826164e+01	-1.391028e+01
5.859815e+01	-1.395754e+01
5.893662e+01	-1.400610e+01
5.927703e+01	-1.405453e+01
5.961941e+01	-1.410185e+01
5.996377e+01	-1.414997e+01
6.031012e+01	-1.419809e+01
6.065847e+01	-1.424648e+01
6.100883e+01	-1.429480e+01
6.136121e+01	-1.434296e+01
6.171563e+01	-1.439113e+01
6.207210e+01	-1.443952e+01
6.243063e+01	-1.448787e+01
6.279122e+01	-1.453583e+01
6.315390e+01	-1.458443e+01
6.351868e+01	-1.463209e+01
6.388556e+01	-1.467965e+01
6.425456e+01	-1.472921e+01
6.462569e+01	-1.477863e+01
6.499897e+01	-1.482529e+01
6.537440e+01	-1.487481e+01
6.575200e+01	-1.492266e+01
6.613178e+01	-1.497031e+01
6.651375e+01	-1.501855e+01
6.689793e+01	-1.506760e+01
6.728433e+01	-1.511690e+01
6.767297e+01	-1.516421e+01
6.806384e+01	-1.521283e+01
6.845698e+01	-1.526196e+01
6.885238e+01	-1.530988e+01
6.925007e+01	-1.535912e+01
6.965005e+01	-1.540756e+01
7.005235e+01	-1.545614e+01
7.045697e+01	-1.550407e+01
7.086393e+01	-1.555375e+01
7.127323e+01	-1.560173e+01
7.168490e+01	-1.565117e+01
7.209895e+01	-1.569925e+01
7.251539e+01	-1.574917e+01
7.293424e+01	-1.579668e+01
7.335551e+01	-1.584598e+01
7.377920e+01	-1.589524e+01
7.420535e+01	-1.594309e+01
7.463396e+01	-1.599232e+01
7.506504e+01	-1.604002e+01
7.549861e+01	-1.608972e+01
7.593469e+01	-1.613795e+01
7.637328e+01	-1.618708e+01
7.681441e+01	-1.623572e+01
7.725809e+01	-1.628440e+01
7.770433e+01	-1.633325e+01
7.815315e+01	-1.638273e+01
7.860456e+01	-1.643128e+01
7.905857e+01	-1.647938e+01
7.951521e+01	-1.652839e+01
7.997449e+01	-1.657726e+01
8.043642e+01	-1.662737e+01
8.090102e+01	-1.667544e+01
8.136830e+01	-1.672456e+01
8.183828e+01	-1.677328e+01
8.231097e+01	-1.682200e+01
8.278640e+01	-1.687238e+01
8.326457e+01	-1.692003e+01
8.374550e+01	-1.696948e+01
8.422921e+01	-1.701859e+01
8.471572e+01	-1.706779e+01
8.520503e+01	-1.711675e+01
8.569717e+01	-1.716637e+01
8.619215e+01	-1.721550e+01
8.669000e+01	-1.726386e+01
8.719071e+01	-1.731270e+01
8.769432e+01	-1.736283e+01
8.820084e+01	-1.741174e+01
8.871029e+01	-1.746109e+01
8.922267e+01	-1.750952e+01
8.973802e+01	-1.755934e+01
9.025634e+01	-1.760793e+01
9.077766e+01	-1.765766e+01
9.130199e+01	-1.770795e+01
9.182935e+01	-1.775722e+01
9.235975e+01	-1.780418e+01
9.289321e+01	-1.785427e+01
9.342976e+01	-1.790338e+01
9.396941e+01	-1.795204e+01
9.451217e+01	-1.800128e+01
9.505807e+01	-1.805170e+01
9.560712e+01	-1.810019e+01
9.615934e+01	-1.814901e+01
9.671476e+01	-1.819825e+01
9.727338e+01	-1.824783e+01
9.783522e+01	-1.829702e+01
9.840032e+01	-1.834629e+01
9.896867e+01	-1.839639e+01
9.954031e+01	-1.844453e+01
1.001153e+02	-1.849504e+01
1.006935e+02	-1.854414e+01
1.012751e+02	-1.859138e+01
1.018601e+02	-1.864300e+01
1.024484e+02	-1.869106e+01
1.030402e+02	-1.874123e+01
1.036353e+02	-1.879100e+01
1.042339e+02	-1.884068e+01
1.048360e+02	-1.888979e+01
1.054415e+02	-1.894043e+01
1.060505e+02	-1.898712e+01
1.066631e+02	-1.903671e+01
1.072791e+02	-1.908823e+01
1.078988e+02	-1.913566e+01
1.085220e+02	-1.918678e+01
1.091488e+02	-1.923350e+01
1.097793e+02	-1.928332e+01
1.104133e+02	-1.933402e+01
1.110511e+02	-1.938243e+01
1.116925e+02	-1.943449e+01
1.123376e+02	-1.948223e+01
1.129865e+02	-1.953213e+01
1.136391e+02	-1.958118e+01
1.142955e+02	-1.963064e+01
1.149556e+02	-1.968104e+01
1.156196e+02	-1.972952e+01
1.162874e+02	-1.978141e+01
1.169591e+02	-1.982908e+01
1.176347e+02	-1.987857e+01
1.183141e+02	-1.992818e+01
1.189975e+02	-1.997706e+01
1.196848e+02	-2.002511e+01
1.203761e+02	-2.007549e+01
1.210714e+02	-2.012541e+01
1.217707e+02	-2.017497e+01
1.224740e+02	-2.022513e+01
1.231814e+02	-2.027513e+01
1.238929e+02	-2.032495e+01
1.246085e+02	-2.037431e+01
1.253283e+02	-2.042354e+01
1.260522e+02	-2.047217e+01
1.267802e+02	-2.052277e+01
1.275125e+02	-2.057202e+01
1.282490e+02	-2.062244e+01
1.289898e+02	-2.067182e+01
1.297348e+02	-2.072351e+01
1.304842e+02	-2.077046e+01
1.312378e+02	-2.082162e+01
1.319959e+02	-2.087002e+01
1.327583e+02	-2.091956e+01
1.335251e+02	-2.096896e+01
1.342963e+02	-2.101769e+01
1.350720e+02	-2.106839e+01
1.358522e+02	-2.112034e+01
1.366368e+02	-2.116878e+01
1.374260e+02	-2.121833e+01
1.382198e+02	-2.126613e+01
1.390182e+02	-2.131660e+01
1.398211e+02	-2.136854e+01
1.406287e+02	-2.141663e+01
1.414410e+02	-2.146539e+01
1.422579e+02	-2.151542e+01
1.430796e+02	-2.156530e+01
1.439060e+02	-2.161575e+01
1.447372e+02	-2.166475e+01
1.455732e+02	-2.171575e+01
1.464141e+02	-2.176465e+01
1.472597e+02	-2.181505e+01
1.481103e+02	-2.186364e+01
1.489658e+02	-2.191389e+01
1.498262e+02	-2.196305e+01
1.506916e+02	-2.201328e+01
1.515620e+02	-2.206305e+01
1.524374e+02	-2.211152e+01
1.533179e+02	-2.216116e+01
1.542034e+02	-2.221125e+01
1.550941e+02	-2.226130e+01
1.559899e+02	-2.231187e+01
1.568909e+02	-2.236248e+01
1.577971e+02	-2.240994e+01
1.587085e+02	-2.245968e+01
1.596252e+02	-2.251075e+01
1.605472e+02	-2.256047e+01
1.614745e+02	-2.261065e+01
1.624072e+02	-2.266040e+01
1.633453e+02	-2.270753e+01
1.642887e+02	-2.275892e+01
1.652377e+02	-2.280900e+01
1.661921e+02	-2.285733e+01
1.671520e+02	-2.290761e+01
1.681175e+02	-2.295787e+01
1.690885e+02	-2.301074e+01
1.700651e+02	-2.305775e+01
1.710474e+02	-2.310712e+01
1.720354e+02	-2.315710e+01
1.730291e+02	-2.320848e+01
1.740285e+02	-2.325820e+01
1.750337e+02	-2.330592e+01
1.760446e+02	-2.335803e+01
1.770615e+02	-2.340703e+01
1.780842e+02	-2.345744e+01
1.791128e+02	-2.350540e+01
1.801473e+02	-2.355733e+01
1.811878e+02	-2.360488e+01
1.822344e+02	-2.365632e+01
1.832870e+02	-2.370699e+01
1.843456e+02	-2.375602e+01
1.854104e+02	-2.380235e+01
1.864813e+02	-2.385339e+01
1.875584e+02	-2.390419e+01
1.886418e+02	-2.395353e+01
1.897313e+02	-2.400356e+01
1.908272e+02	-2.405456e+01
1.919294e+02	-2.410528e+01
1.930380e+02	-2.415314e+01
1.941530e+02	-2.420258e+01
1.952744e+02	-2.425292e+01
1.964023e+02	-2.430383e+01
1.975367e+02	-2.435291e+01
1.986777e+02	-2.440079e+01
1.998252e+02	-2.445249e+01
2.009794e+02	-2.450279e+01
2.021403e+02	-2.455262e+01
2.033078e+02	-2.460415e+01
2.044821e+02	-2.465056e+01
2.056632e+02	-2.470159e+01
2.068511e+02	-2.475388e+01
2.080459e+02	-2.480470e+01
2.092475e+02	-2.485264e+01
2.104561e+02	-2.490326e+01
2.116717e+02	-2.495090e+01
2.128943e+02	-2.500446e+01
2.141240e+02	-2.505528e+01
2.153608e+02	-2.510057e+01
2.166047e+02	-2.515002e+01
2.178558e+02	-2.520425e+01
2.191141e+02	-2.525022e+01
2.203797e+02	-2.530225e+01
2.216526e+02	-2.534931e+01
2.229329e+02	-2.540115e+01
2.242205e+02	-2.545444e+01
2.255156e+02	-2.550086e+01
2.268182e+02	-2.555235e+01
2.281283e+02	-2.560176e+01
2.294459e+02	-2.565279e+01
2.307712e+02	-2.570091e+01
2.321041e+02	-2.575116e+01
2.334447e+02	-2.580206e+01
2.347931e+02	-2.585044e+01
2.361493e+02	-2.589973e+01
2.375133e+02	-2.594914e+01
2.388851e+02	-2.599899e+01
2.402649e+02	-2.605444e+01
2.416527e+02	-2.610128e+01
2.430484e+02	-2.614949e+01
2.444523e+02	-2.620129e+01
2.458642e+02	-2.624796e+01
2.472843e+02	-2.630118e+01
2.487126e+02	-2.634824e+01
2.501492e+02	-2.639888e+01
2.515940e+02	-2.645168e+01
2.530472e+02	-2.649891e+01
2.545088e+02	-2.655061e+01
2.559789e+02	-2.659894e+01
2.574574e+02	-2.665066e+01
2.589444e+02	-2.670272e+01
2.604401e+02	-2.675017e+01
2.619444e+02	-2.680228e+01
2.634574e+02	-2.684836e+01
2.649791e+02	-2.690179e+01
2.665096e+02	-2.694901e+01
2.680489e+02	-2.700041e+01
2.695972e+02	-2.705124e+01
2.711544e+02	-2.709940e+01
2.727205e+02	-2.714787e+01
2.742958e+02	-2.719999e+01
2.758801e+02	-2.724475e+01
2.774736e+02	-2.730319e+01
2.790762e+02	-2.735276e+01
2.806882e+02	-2.739900e+01
2.823094e+02	-2.745231e+01
2.839400e+02	-2.749949e+01
2.855800e+02	-2.755115e+01
2.872295e+02	-2.759956e+01
2.888886e+02	-2.764863e+01
2.905572e+02	-2.769785e+01
2.922354e+02	-2.774896e+01
2.939234e+02	-2.780185e+01
2.956211e+02	-2.784932e+01
2.973286e+02	-2.789691e+01
2.990459e+02	-2.795112e+01
3.007732e+02	-2.799908e+01
3.025104e+02	-2.804931e+01
3.042577e+02	-2.810189e+01
3.060151e+02	-2.814262e+01
3.077826e+02	-2.819717e+01
3.095604e+02	-2.825441e+01
3.113484e+02	-2.829756e+01
3.131467e+02	-2.834913e+01
3.149554e+02	-2.839964e+01
3.167746e+02	-2.845332e+01
3.186043e+02	-2.850314e+01
3.204445e+02	-2.855175e+01
3.222954e+02	-2.860033e+01
3.241570e+02	-2.865330e+01
3.260293e+02	-2.870483e+01
3.279124e+02	-2.875362e+01
3.298064e+02	-2.879550e+01
3.317114e+02	-2.885204e+01
3.336273e+02	-2.890060e+01
3.355544e+02	-2.894882e+01
3.374925e+02	-2.900125e+01
3.394418e+02	-2.905059e+01
3.414024e+02	-2.909769e+01
3.433744e+02	-2.915423e+01
3.453577e+02	-2.919904e+01
3.473525e+02	-2.925021e+01
3.493588e+02	-2.930057e+01
3.513766e+02	-2.935125e+01
3.534062e+02	-2.939972e+01
3.554474e+02	-2.945335e+01
3.575005e+02	-2.950172e+01
3.595654e+02	-2.955148e+01
3.616422e+02	-2.960064e+01
3.637311e+02	-2.965104e+01
3.658320e+02	-2.969995e+01
3.679450e+02	-2.975260e+01
3.700702e+02	-2.980155e+01
3.722077e+02	-2.985240e+01
3.743576e+02	-2.990514e+01
3.765199e+02	-2.995385e+01
3.786946e+02	-3.000000e+01
3.808820e+02	-3.004955e+01
3.830819e+02	-3.009500e+01
3.852946e+02	-3.015406e+01
3.875200e+02	-3.020290e+01
3.897583e+02	-3.025139e+01
3.920096e+02	-3.030209e+01
3.942738e+02	-3.035252e+01
3.965511e+02	-3.040094e+01
3.988416e+02	-3.045239e+01
4.011452e+02	-3.050764e+01
4.034622e+02	-3.055356e+01
4.057926e+02	-3.060376e+01
4.081365e+02	-3.065268e+01
4.104938e+02	-3.070529e+01
4.128648e+02	-3.075019e+01
4.152495e+02	-3.080163e+01
4.176480e+02	-3.085678e+01
4.200603e+02	-3.090649e+01
4.224866e+02	-3.095431e+01
4.249268e+02	-3.100562e+01
4.273812e+02	-3.105342e+01
4.298497e+02	-3.111185e+01
4.323325e+02	-3.115805e+01
4.348297e+02	-3.120447e+01
4.373412e+02	-3.125172e+01
4.398673e+02	-3.130397e+01
4.424079e+02	-3.135531e+01
4.449633e+02	-3.140182e+01
4.475334e+02	-3.146271e+01
4.501183e+02	-3.150352e+01
4.527182e+02	-3.155467e+01
4.553330e+02	-3.160084e+01
4.579630e+02	-3.165627e+01
4.606082e+02	-3.170671e+01
4.632687e+02	-3.175949e+01
4.659445e+02	-3.181145e+01
4.686358e+02	-3.185351e+01
4.713426e+02	-3.190543e+01
4.740650e+02	-3.196551e+01
4.768032e+02	-3.200863e+01
4.795572e+02	-3.205625e+01
4.823271e+02	-3.210875e+01
4.851130e+02	-3.215339e+01
4.879150e+02	-3.221342e+01
4.907332e+02	-3.225697e+01
4.935676e+02	-3.230475e+01
4.964185e+02	-3.235881e+01
4.992858e+02	-3.240649e+01
5.021696e+02	-3.246194e+01
5.050701e+02	-3.251380e+01
5.079874e+02	-3.256085e+01
5.109215e+02	-3.260795e+01
5.138726e+02	-3.266001e+01
5.168407e+02	-3.271099e+01
5.198259e+02	-3.276231e+01
5.228284e+02	-3.280906e+01
5.258482e+02	-3.285520e+01
5.288855e+02	-3.291486e+01
5.319403e+02	-3.296032e+01
5.350128e+02	-3.301252e+01
5.381030e+02	-3.306501e+01
5.412111e+02	-3.310656e+01
5.443371e+02	-3.316306e+01
5.474812e+02	-3.321350e+01
5.506434e+02	-3.327029e+01
5.538239e+02	-3.331635e+01
5.570228e+02	-3.336539e+01
5.602401e+02	-3.342154e+01
5.634760e+02	-3.346995e+01
5.667306e+02	-3.350919e+01
5.700040e+02	-3.356902e+01
5.732964e+02	-3.361698e+01
5.766077e+02	-3.366563e+01
5.799382e+02	-3.372149e+01
5.832879e+02	-3.376508e+01
5.866569e+02	-3.382172e+01
5.900454e+02	-3.386025e+01
5.934535e+02	-3.391504e+01
5.968813e+02	-3.396312e+01
6.003288e+02	-3.401757e+01
6.037963e+02	-3.406408e+01
6.072838e+02	-3.412294e+01
6.107914e+02	-3.416885e+01
6.143194e+02	-3.422652e+01
6.178676e+02	-3.426460e+01
6.214364e+02	-3.432317e+01
6.250258e+02	-3.436207e+01
6.286359e+02	-3.442307e+01
6.322669e+02	-3.446461e+01
6.359189e+02	-3.451169e+01
6.395919e+02	-3.456595e+01
6.432862e+02	-3.461707e+01
6.470017e+02	-3.466330e+01
6.507388e+02	-3.471555e+01
6.544974e+02	-3.476496e+01
6.582778e+02	-3.482304e+01
6.620800e+02	-3.487244e+01
6.659041e+02	-3.492322e+01
6.697504e+02	-3.498029e+01
6.736188e+02	-3.502525e+01
6.775096e+02	-3.507858e+01
6.814229e+02	-3.513152e+01
6.853587e+02	-3.518022e+01
6.893173e+02	-3.522665e+01
6.932988e+02	-3.527483e+01
6.973033e+02	-3.532646e+01
7.013309e+02	-3.537961e+01
