Frequency(Hz)	Magnitude(dB)
1.000000e+01	-1.896113e+00
1.005776e+01	-1.914078e+00
1.011585e+01	-1.931835e+00
1.017428e+01	-1.949667e+00
1.023305e+01	-1.968074e+00
1.029215e+01	-1.986258e+00
1.035160e+01	-2.004609e+00
1.041139e+01	-2.023324e+00
1.047153e+01	-2.041748e+00
1.053201e+01	-2.060756e+00
1.059284e+01	-2.079789e+00
1.065403e+01	-2.099029e+00
1.071556e+01	-2.117969e+00
1.077746e+01	-2.137415e+00
1.083971e+01	-2.156877e+00
1.090232e+01	-2.176517e+00
1.096529e+01	-2.196311e+00
1.102862e+01	-2.216487e+00
1.109232e+01	-2.236363e+00
1.115639e+01	-2.256598e+00
1.122083e+01	-2.277173e+00
1.128564e+01	-2.297462e+00
1.135083e+01	-2.318026e+00
1.141639e+01	-2.338743e+00
1.148233e+01	-2.359675e+00
1.154865e+01	-2.380834e+00
1.161536e+01	-2.402113e+00
1.168245e+01	-2.423295e+00
1.174992e+01	-2.444685e+00
1.181779e+01	-2.466321e+00
1.188605e+01	-2.488125e+00
1.195470e+01	-2.510083e+00
1.202375e+01	-2.532012e+00
1.209320e+01	-2.554084e+00
1.216305e+01	-2.576663e+00
1.223330e+01	-2.598858e+00
1.230396e+01	-2.621654e+00
1.237503e+01	-2.644362e+00
1.244651e+01	-2.667380e+00
1.251840e+01	-2.690205e+00
1.259070e+01	-2.713275e+00
1.266343e+01	-2.736471e+00
1.273657e+01	-2.760117e+00
1.281014e+01	-2.783870e+00
1.288413e+01	-2.807485e+00
1.295855e+01	-2.831324e+00
1.303339e+01	-2.855549e+00
1.310867e+01	-2.879524e+00
1.318439e+01	-2.904019e+00
1.326054e+01	-2.928244e+00
1.333713e+01	-2.953103e+00
1.341417e+01	-2.978021e+00
1.349165e+01	-3.002629e+00
1.356958e+01	-3.027556e+00
1.364795e+01	-3.052792e+00
1.372678e+01	-3.078216e+00
1.380607e+01	-3.103751e+00
1.388581e+01	-3.129382e+00
1.396602e+01	-3.155005e+00
1.404668e+01	-3.181031e+00
1.412782e+01	-3.207099e+00
1.420942e+01	-3.233475e+00
1.429149e+01	-3.259415e+00
1.437404e+01	-3.285859e+00
1.445706e+01	-3.312791e+00
1.454057e+01	-3.339272e+00
1.462455e+01	-3.366502e+00
1.470902e+01	-3.393398e+00
1.479398e+01	-3.420585e+00
1.487943e+01	-3.447758e+00
1.496537e+01	-3.475517e+00
1.505181e+01	-3.502900e+00
1.513875e+01	-3.530725e+00
1.522619e+01	-3.558540e+00
1.531414e+01	-3.586539e+00
1.540259e+01	-3.615034e+00
1.549156e+01	-3.643236e+00
1.558103e+01	-3.671600e+00
1.567103e+01	-3.700334e+00
1.576155e+01	-3.728901e+00
1.585258e+01	-3.757993e+00
1.594415e+01	-3.787000e+00
1.603624e+01	-3.816260e+00
1.612886e+01	-3.845689e+00
1.622202e+01	-3.874925e+00
1.631572e+01	-3.904595e+00
1.640996e+01	-3.934459e+00
1.650474e+01	-3.964215e+00
1.660008e+01	-3.994169e+00
1.669596e+01	-4.024403e+00
1.679239e+01	-4.054905e+00
1.688938e+01	-4.084887e+00
1.698694e+01	-4.115705e+00
1.708505e+01	-4.146412e+00
1.718373e+01	-4.177284e+00
1.728299e+01	-4.208179e+00
1.738281e+01	-4.239067e+00
1.748322e+01	-4.270490e+00
1.758420e+01	-4.302068e+00
1.768576e+01	-4.333162e+00
1.778792e+01	-4.364918e+00
1.789066e+01	-4.396916e+00
1.799399e+01	-4.428759e+00
1.809793e+01	-4.460922e+00
1.820246e+01	-4.492941e+00
1.830760e+01	-4.525372e+00
1.841334e+01	-4.557350e+00
1.851969e+01	-4.590244e+00
1.862666e+01	-4.623037e+00
1.873425e+01	-4.656045e+00
1.884246e+01	-4.688674e+00
1.895129e+01	-4.722105e+00
1.906075e+01	-4.755240e+00
1.917085e+01	-4.788592e+00
1.928158e+01	-4.822218e+00
1.939295e+01	-4.855666e+00
1.950496e+01	-4.889196e+00
1.961762e+01	-4.923061e+00
1.973093e+01	-4.957026e+00
1.984490e+01	-4.991439e+00
1.995952e+01	-5.025434e+00
2.007480e+01	-5.059777e+00
2.019076e+01	-5.094576e+00
2.030738e+01	-5.129006e+00
2.042467e+01	-5.163541e+00
2.054264e+01	-5.198502e+00
2.066130e+01	-5.233544e+00
2.078064e+01	-5.268731e+00
2.090066e+01	-5.303602e+00
2.102139e+01	-5.339084e+00
2.114280e+01	-5.374596e+00
2.126492e+01	-5.410098e+00
2.138775e+01	-5.445945e+00
2.151128e+01	-5.481730e+00
2.163553e+01	-5.517594e+00
2.176050e+01	-5.553273e+00
2.188619e+01	-5.589945e+00
2.201260e+01	-5.626387e+00
2.213974e+01	-5.662553e+00
2.226762e+01	-5.698464e+00
2.239624e+01	-5.735313e+00
2.252560e+01	-5.772385e+00
2.265571e+01	-5.809269e+00
2.278656e+01	-5.846114e+00
2.291818e+01	-5.883363e+00
2.305055e+01	-5.920469e+00
2.318369e+01	-5.957688e+00
2.331760e+01	-5.995168e+00
2.345228e+01	-6.032636e+00
2.358774e+01	-6.069888e+00
2.372398e+01	-6.107803e+00
2.386101e+01	-6.145712e+00
2.399883e+01	-6.183736e+00
2.413745e+01	-6.221544e+00
2.427686e+01	-6.259705e+00
2.441709e+01	-6.297915e+00
2.455812e+01	-6.336253e+00
2.469997e+01	-6.375071e+00
2.484263e+01	-6.413561e+00
2.498612e+01	-6.451995e+00
2.513044e+01	-6.490965e+00
2.527559e+01	-6.529664e+00
2.542158e+01	-6.568769e+00
2.556842e+01	-6.607855e+00
2.571610e+01	-6.646769e+00
2.586463e+01	-6.685864e+00
2.601403e+01	-6.725275e+00
2.616428e+01	-6.765087e+00
2.631541e+01	-6.804440e+00
2.646740e+01	-6.843881e+00
2.662028e+01	-6.883585e+00
2.677404e+01	-6.923662e+00
2.692868e+01	-6.963472e+00
2.708422e+01	-7.003576e+00
2.724066e+01	-7.043833e+00
2.739800e+01	-7.083548e+00
2.755625e+01	-7.123907e+00
2.771541e+01	-7.164320e+00
2.787550e+01	-7.204838e+00
2.803650e+01	-7.245683e+00
2.819844e+01	-7.286043e+00
2.836131e+01	-7.326619e+00
2.852513e+01	-7.367977e+00
2.868989e+01	-7.408718e+00
2.885560e+01	-7.449519e+00
2.902227e+01	-7.490614e+00
2.918990e+01	-7.531524e+00
2.935850e+01	-7.573146e+00
2.952807e+01	-7.613910e+00
2.969863e+01	-7.655567e+00
2.987016e+01	-7.697298e+00
3.004269e+01	-7.738586e+00
3.021622e+01	-7.780228e+00
3.039075e+01	-7.822169e+00
3.056628e+01	-7.863964e+00
3.074283e+01	-7.905745e+00
3.092040e+01	-7.946943e+00
3.109900e+01	-7.990036e+00
3.127862e+01	-8.031607e+00
3.145929e+01	-8.074375e+00
3.164099e+01	-8.116272e+00
3.182375e+01	-8.158909e+00
3.200756e+01	-8.200690e+00
3.219244e+01	-8.243629e+00
3.237838e+01	-8.285925e+00
3.256540e+01	-8.328707e+00
3.275349e+01	-8.371327e+00
3.294268e+01	-8.414352e+00
3.313295e+01	-8.456725e+00
3.332433e+01	-8.499948e+00
3.351681e+01	-8.543511e+00
3.371040e+01	-8.586023e+00
3.390511e+01	-8.629228e+00
3.410094e+01	-8.672299e+00
3.429791e+01	-8.715949e+00
3.449601e+01	-8.758993e+00
3.469526e+01	-8.802339e+00
3.489566e+01	-8.845860e+00
3.509721e+01	-8.889638e+00
3.529993e+01	-8.933036e+00
3.550382e+01	-8.976418e+00
3.570889e+01	-9.020857e+00
3.591515e+01	-9.064508e+00
3.612259e+01	-9.108126e+00
3.633123e+01	-9.151710e+00
3.654108e+01	-9.196418e+00
3.675214e+01	-9.239578e+00
3.696442e+01	-9.283447e+00
3.717792e+01	-9.328125e+00
3.739266e+01	-9.372230e+00
3.760864e+01	-9.416454e+00
3.782587e+01	-9.461236e+00
3.804435e+01	-9.505278e+00
3.826409e+01	-9.550265e+00
3.848510e+01	-9.594494e+00
3.870739e+01	-9.638812e+00
3.893096e+01	-9.683631e+00
3.915583e+01	-9.728276e+00
3.938199e+01	-9.772724e+00
3.960946e+01	-9.817808e+00
3.983824e+01	-9.862763e+00
4.006834e+01	-9.907678e+00
4.029978e+01	-9.952149e+00
4.053255e+01	-9.997000e+00
4.076666e+01	-1.004285e+01
4.100213e+01	-1.008726e+01
4.123896e+01	-1.013261e+01
4.147715e+01	-1.017832e+01
4.171672e+01	-1.022304e+01
4.195767e+01	-1.026819e+01
4.220002e+01	-1.031390e+01
4.244377e+01	-1.035935e+01
4.268892e+01	-1.040505e+01
4.293549e+01	-1.045019e+01
4.318348e+01	-1.049576e+01
4.343291e+01	-1.054124e+01
4.368377e+01	-1.058726e+01
4.393609e+01	-1.063251e+01
4.418986e+01	-1.067815e+01
4.444510e+01	-1.072407e+01
4.470182e+01	-1.077028e+01
4.496001e+01	-1.081568e+01
4.521970e+01	-1.086131e+01
4.548089e+01	-1.090727e+01
4.574358e+01	-1.095331e+01
4.600779e+01	-1.099962e+01
4.627353e+01	-1.104544e+01
4.654081e+01	-1.109185e+01
4.680963e+01	-1.113843e+01
4.708000e+01	-1.118443e+01
4.735193e+01	-1.122980e+01
4.762543e+01	-1.127664e+01
4.790051e+01	-1.132290e+01
4.817719e+01	-1.136997e+01
4.845545e+01	-1.141613e+01
4.873533e+01	-1.146220e+01
4.901682e+01	-1.150836e+01
4.929994e+01	-1.155555e+01
4.958470e+01	-1.160171e+01
4.987110e+01	-1.164827e+01
5.015915e+01	-1.169508e+01
5.044887e+01	-1.174174e+01
5.074026e+01	-1.178798e+01
5.103333e+01	-1.183464e+01
5.132810e+01	-1.188141e+01
5.162457e+01	-1.192932e+01
5.192275e+01	-1.197523e+01
5.222265e+01	-1.202280e+01
5.252429e+01	-1.206896e+01
5.282767e+01	-1.211601e+01
5.313280e+01	-1.216356e+01
5.343969e+01	-1.221008e+01
5.374836e+01	-1.225646e+01
5.405880e+01	-1.230410e+01
5.437105e+01	-1.235119e+01
5.468509e+01	-1.239827e+01
5.500095e+01	-1.244585e+01
5.531863e+01	-1.249334e+01
5.563815e+01	-1.254011e+01
5.595951e+01	-1.258757e+01
5.628273e+01	-1.263451e+01
5.660782e+01	-1.268198e+01
5.693479e+01	-1.272856e+01
5.726364e+01	-1.277667e+01
5.759439e+01	-1.282456e+01
5.792705e+01	-1.287209e+01
5.826164e+01	-1.291856e+01
5.859815e+01	-1.296686e+01
5.893662e+01	-1.301380e+01
5.927703e+01	-1.306145e+01
5.961941e+01	-1.310937e+01
5.996377e+01	-1.315656e+01
6.031012e+01	-1.320510e+01
6.065847e+01	-1.325174e+01
6.100883e+01	-1.329921e+01
6.136121e+01	-1.334730e+01
6.171563e+01	-1.339486e+01
6.207210e+01	-1.344230e+01
6.243063e+01	-1.349056e+01
6.279122e+01	-1.353820e+01
6.315390e+01	-1.358628e+01
6.351868e+01	-1.363398e+01
6.388556e+01	-1.368168e+01
6.425456e+01	-1.372939e+01
6.462569e+01	-1.377757e+01
6.499897e+01	-1.382504e+01
6.537440e+01	-1.387342e+01
6.575200e+01	-1.392128e+01
6.613178e+01	-1.396965e+01
6.651375e+01	-1.401744e+01
6.689793e+01	-1.406498e+01
6.728433e+01	-1.411270e+01
6.767297e+01	-1.416169e+01
6.806384e+01	-1.420931e+01
6.845698e+01	-1.425774e+01
6.885238e+01	-1.430601e+01
6.925007e+01	-1.435388e+01
6.965005e+01	-1.440234e+01
7.005235e+01	-1.445019e+01
7.045697e+01	-1.449893e+01
7.086393e+01	-1.454728e+01
7.127323e+01	-1.459620e+01
7.168490e+01	-1.464451e+01
7.209895e+01	-1.469263e+01
7.251539e+01	-1.474094e+01
7.293424e+01	-1.478856e+01
7.335551e+01	-1.483742e+01
7.377920e+01	-1.488495e+01
7.420535e+01	-1.493415e+01
7.463396e+01	-1.498190e+01
7.506504e+01	-1.503200e+01
7.549861e+01	-1.507880e+01
7.593469e+01	-1.512779e+01
7.637328e+01	-1.517641e+01
7.681441e+01	-1.522525e+01
7.725809e+01	-1.527428e+01
7.770433e+01	-1.532293e+01
7.815315e+01	-1.537020e+01
7.860456e+01	-1.541989e+01
7.905857e+01	-1.546881e+01
7.951521e+01	-1.551597e+01
7.997449e+01	-1.556474e+01
8.043642e+01	-1.561372e+01
8.090102e+01	-1.566106e+01
8.136830e+01	-1.571094e+01
8.183828e+01	-1.575927e+01
8.231097e+01	-1.580950e+01
8.278640e+01	-1.585746e+01
8.326457e+01	-1.590636e+01
8.374550e+01	-1.595530e+01
8.422921e+01	-1.600324e+01
8.471572e+01	-1.605137e+01
8.520503e+01	-1.610043e+01
8.569717e+01	-1.614917e+01
8.619215e+01	-1.619899e+01
8.669000e+01	-1.624788e+01
8.719071e+01	-1.629548e+01
8.769432e+01	-1.634531e+01
8.820084e+01	-1.639401e+01
8.871029e+01	-1.644206e+01
8.922267e+01	-1.649135e+01
8.973802e+01	-1.654011e+01
9.025634e+01	-1.659101e+01
9.077766e+01	-1.663892e+01
9.130199e+01	-1.668747e+01
9.182935e+01	-1.673707e+01
9.235975e+01	-1.678591e+01
9.289321e+01	-1.683394e+01
9.342976e+01	-1.688379e+01
9.396941e+01	-1.693234e+01
9.451217e+01	-1.698150e+01
9.505807e+01	-1.703108e+01
9.560712e+01	-1.708001e+01
9.615934e+01	-1.712855e+01
9.671476e+01	-1.717810e+01
9.727338e+01	-1.722714e+01
9.783522e+01	-1.727676e+01
9.840032e+01	-1.732470e+01
9.896867e+01	-1.737450e+01
9.954031e+01	-1.742329e+01
1.001153e+02	-1.747186e+01
1.006935e+02	-1.752197e+01
1.012751e+02	-1.757198e+01
1.018601e+02	-1.762012e+01
1.024484e+02	-1.766706e+01
1.030402e+02	-1.771857e+01
1.036353e+02	-1.776736e+01
1.042339e+02	-1.781630e+01
1.048360e+02	-1.786608e+01
1.054415e+02	-1.791500e+01
1.060505e+02	-1.796373e+01
1.066631e+02	-1.801302e+01
1.072791e+02	-1.806311e+01
1.078988e+02	-1.811259e+01
1.085220e+02	-1.816098e+01
1.091488e+02	-1.821027e+01
1.097793e+02	-1.825962e+01
1.104133e+02	-1.830877e+01
1.110511e+02	-1.835888e+01
1.116925e+02	-1.840736e+01
1.123376e+02	-1.845774e+01
1.129865e+02	-1.850598e+01
1.136391e+02	-1.855599e+01
1.142955e+02	-1.860448e+01
1.149556e+02	-1.865468e+01
1.156196e+02	-1.870469e+01
1.162874e+02	-1.875291e+01
1.169591e+02	-1.880268e+01
1.176347e+02	-1.885150e+01
1.183141e+02	-1.890237e+01
1.189975e+02	-1.895006e+01
1.196848e+02	-1.900120e+01
1.203761e+02	-1.904982e+01
1.210714e+02	-1.909895e+01
1.217707e+02	-1.914863e+01
1.224740e+02	-1.919807e+01
1.231814e+02	-1.924645e+01
1.238929e+02	-1.929641e+01
1.246085e+02	-1.934610e+01
1.253283e+02	-1.939665e+01
1.260522e+02	-1.944658e+01
1.267802e+02	-1.949463e+01
1.275125e+02	-1.954402e+01
1.282490e+02	-1.959412e+01
1.289898e+02	-1.964296e+01
1.297348e+02	-1.969236e+01
1.304842e+02	-1.974300e+01
1.312378e+02	-1.979323e+01
1.319959e+02	-1.984200e+01
1.327583e+02	-1.989045e+01
1.335251e+02	-1.994235e+01
1.342963e+02	-1.999003e+01
1.350720e+02	-2.004001e+01
1.358522e+02	-2.008869e+01
1.366368e+02	-2.013898e+01
1.374260e+02	-2.018789e+01
1.382198e+02	-2.023702e+01
1.390182e+02	-2.028659e+01
1.398211e+02	-2.033706e+01
1.406287e+02	-2.038547e+01
1.414410e+02	-2.043476e+01
1.422579e+02	-2.048654e+01
1.430796e+02	-2.053523e+01
1.439060e+02	-2.058405e+01
1.447372e+02	-2.063490e+01
1.455732e+02	-2.068400e+01
1.464141e+02	-2.073229e+01
1.472597e+02	-2.078290e+01
1.481103e+02	-2.083262e+01
1.489658e+02	-2.088244e+01
1.498262e+02	-2.093316e+01
1.506916e+02	-2.098309e+01
1.515620e+02	-2.103004e+01
1.524374e+02	-2.107973e+01
1.533179e+02	-2.112959e+01
1.542034e+02	-2.117841e+01
1.550941e+02	-2.123040e+01
1.559899e+02	-2.127874e+01
1.568909e+02	-2.132921e+01
1.577971e+02	-2.137879e+01
1.587085e+02	-2.142771e+01
1.596252e+02	-2.147841e+01
1.605472e+02	-2.152525e+01
1.614745e+02	-2.157663e+01
1.624072e+02	-2.162965e+01
1.633453e+02	-2.167461e+01
1.642887e+02	-2.172753e+01
1.652377e+02	-2.177720e+01
1.661921e+02	-2.182694e+01
1.671520e+02	-2.187441e+01
1.681175e+02	-2.192564e+01
1.690885e+02	-2.197431e+01
1.700651e+02	-2.202410e+01
1.710474e+02	-2.207282e+01
1.720354e+02	-2.212456e+01
1.730291e+02	-2.217431e+01
1.740285e+02	-2.222493e+01
1.750337e+02	-2.227316e+01
1.760446e+02	-2.232263e+01
1.770615e+02	-2.237374e+01
1.780842e+02	-2.242215e+01
1.791128e+02	-2.247326e+01
1.801473e+02	-2.252185e+01
1.811878e+02	-2.257190e+01
1.822344e+02	-2.262096e+01
1.832870e+02	-2.267178e+01
1.843456e+02	-2.272210e+01
1.854104e+02	-2.276904e+01
1.864813e+02	-2.281924e+01
1.875584e+02	-2.287025e+01
1.886418e+02	-2.292163e+01
1.897313e+02	-2.297080e+01
1.908272e+02	-2.302046e+01
1.919294e+02	-2.307005e+01
1.930380e+02	-2.311957e+01
1.941530e+02	-2.317298e+01
1.952744e+02	-2.321966e+01
1.964023e+02	-2.327038e+01
1.975367e+02	-2.332011e+01
1.986777e+02	-2.336772e+01
1.998252e+02	-2.341952e+01
2.009794e+02	-2.347058e+01
2.021403e+02	-2.351753e+01
2.033078e+02	-2.356774e+01
2.044821e+02	-2.361681e+01
2.056632e+02	-2.366619e+01
2.068511e+02	-2.371961e+01
2.080459e+02	-2.376742e+01
2.092475e+02	-2.381655e+01
2.104561e+02	-2.386754e+01
2.116717e+02	-2.391713e+01
2.128943e+02	-2.396644e+01
2.141240e+02	-2.401651e+01
2.153608e+02	-2.406744e+01
2.166047e+02	-2.411750e+01
2.178558e+02	-2.416615e+01
2.191141e+02	-2.421711e+01
2.203797e+02	-2.426494e+01
2.216526e+02	-2.431131e+01
2.229329e+02	-2.436519e+01
2.242205e+02	-2.441401e+01
2.255156e+02	-2.446703e+01
2.268182e+02	-2.451618e+01
2.281283e+02	-2.456769e+01
2.294459e+02	-2.461609e+01
2.307712e+02	-2.466540e+01
2.321041e+02	-2.471411e+01
2.334447e+02	-2.476298e+01
2.347931e+02	-2.481632e+01
2.361493e+02	-2.486421e+01
2.375133e+02	-2.491553e+01
2.388851e+02	-2.496492e+01
2.402649e+02	-2.501284e+01
2.416527e+02	-2.506376e+01
2.430484e+02	-2.511518e+01
2.444523e+02	-2.516244e+01
2.458642e+02	-2.521301e+01
2.472843e+02	-2.526631e+01
2.487126e+02	-2.531387e+01
2.501492e+02	-2.536078e+01
2.515940e+02	-2.541243e+01
2.530472e+02	-2.546355e+01
2.545088e+02	-2.551402e+01
2.559789e+02	-2.556085e+01
2.574574e+02	-2.561490e+01
2.589444e+02	-2.566062e+01
2.604401e+02	-2.571179e+01
2.619444e+02	-2.576285e+01
2.634574e+02	-2.581272e+01
2.649791e+02	-2.586311e+01
2.665096e+02	-2.591391e+01
2.680489e+02	-2.596121e+01
2.695972e+02	-2.601237e+01
2.711544e+02	-2.606118e+01
2.727205e+02	-2.611483e+01
2.742958e+02	-2.616406e+01
2.758801e+02	-2.621057e+01
2.774736e+02	-2.625955e+01
2.790762e+02	-2.631446e+01
2.806882e+02	-2.636299e+01
2.823094e+02	-2.641451e+01
2.839400e+02	-2.646214e+01
2.855800e+02	-2.651533e+01
2.872295e+02	-2.656135e+01
2.888886e+02	-2.661221e+01
2.905572e+02	-2.666260e+01
2.922354e+02	-2.671360e+01
2.939234e+02	-2.676451e+01
2.956211e+02	-2.681177e+01
2.973286e+02	-2.686782e+01
2.990459e+02	-2.691352e+01
3.007732e+02	-2.696589e+01
3.025104e+02	-2.701393e+01
3.042577e+02	-2.706617e+01
3.060151e+02	-2.711078e+01
3.077826e+02	-2.716309e+01
3.095604e+02	-2.721424e+01
3.113484e+02	-2.726307e+01
3.131467e+02	-2.731456e+01
3.149554e+02	-2.736259e+01
3.167746e+02	-2.741327e+01
3.186043e+02	-2.746325e+01
3.204445e+02	-2.751792e+01
3.222954e+02	-2.756401e+01
3.241570e+02	-2.761024e+01
3.260293e+02	-2.766361e+01
3.279124e+02	-2.771244e+01
3.298064e+02	-2.775772e+01
3.317114e+02	-2.781505e+01
3.336273e+02	-2.786418e+01
3.355544e+02	-2.790997e+01
3.374925e+02	-2.796520e+01
3.394418e+02	-2.801371e+01
3.414024e+02	-2.806919e+01
3.433744e+02	-2.811547e+01
3.453577e+02	-2.816082e+01
3.473525e+02	-2.821449e+01
3.493588e+02	-2.825944e+01
3.513766e+02	-2.831335e+01
3.534062e+02	-2.836473e+01
3.554474e+02	-2.841568e+01
3.575005e+02	-2.846079e+01
3.595654e+02	-2.851362e+01
3.616422e+02	-2.856350e+01
3.637311e+02	-2.861383e+01
3.658320e+02	-2.866201e+01
3.679450e+02	-2.871468e+01
3.700702e+02	-2.876466e+01
3.722077e+02	-2.881561e+01
3.743576e+02	-2.886730e+01
3.765199e+02	-2.891539e+01
3.786946e+02	-2.896365e+01
3.808820e+02	-2.901203e+01
3.830819e+02	-2.906644e+01
3.852946e+02	-2.911471e+01
3.875200e+02	-2.916175e+01
3.897583e+02	-2.921329e+01
3.920096e+02	-2.926474e+01
3.942738e+02	-2.931264e+01
3.965511e+02	-2.936168e+01
3.988416e+02	-2.941751e+01
4.011452e+02	-2.946235e+01
4.034622e+02	-2.951148e+01
4.057926e+02	-2.956091e+01
4.081365e+02	-2.961513e+01
4.104938e+02	-2.966228e+01
4.128648e+02	-2.971848e+01
4.152495e+02	-2.976487e+01
4.176480e+02	-2.981331e+01
4.200603e+02	-2.986657e+01
4.224866e+02	-2.991745e+01
4.249268e+02	-2.996886e+01
4.273812e+02	-3.001104e+01
4.298497e+02	-3.006629e+01
4.323325e+02	-3.011517e+01
4.348297e+02	-3.016459e+01
4.373412e+02	-3.021828e+01
4.398673e+02	-3.026444e+01
4.424079e+02	-3.031705e+01
4.449633e+02	-3.037003e+01
4.475334e+02	-3.041786e+01
4.501183e+02	-3.046574e+01
4.527182e+02	-3.051935e+01
4.553330e+02	-3.056778e+01
4.579630e+02	-3.061864e+01
4.606082e+02	-3.066652e+01
4.632687e+02	-3.072098e+01
4.659445e+02	-3.077608e+01
4.686358e+02	-3.081694e+01
4.713426e+02	-3.086424e+01
4.740650e+02	-3.092051e+01
4.768032e+02	-3.096860e+01
4.795572e+02	-3.101349e+01
4.823271e+02	-3.106610e+01
4.851130e+02	-3.112212e+01
4.879150e+02	-3.116310e+01
4.907332e+02	-3.122407e+01
4.935676e+02	-3.127434e+01
4.964185e+02	-3.131774e+01
4.992858e+02	-3.137413e+01
5.021696e+02	-3.141998e+01
5.050701e+02	-3.147100e+01
5.079874e+02	-3.152213e+01
5.109215e+02	-3.156799e+01
5.138726e+02	-3.162403e+01
5.168407e+02	-3.166945e+01
5.198259e+02	-3.172383e+01
5.228284e+02	-3.176665e+01
5.258482e+02	-3.183059e+01
5.288855e+02	-3.186680e+01
5.319403e+02	-3.191893e+01
5.350128e+02	-3.197102e+01
5.381030e+02	-3.202681e+01
5.412111e+02	-3.207354e+01
5.443371e+02	-3.212702e+01
5.474812e+02	-3.217245e+01
5.506434e+02	-3.222628e+01
5.538239e+02	-3.227010e+01
5.570228e+02	-3.231857e+01
5.602401e+02	-3.237186e+01
5.634760e+02	-3.242316e+01
5.667306e+02	-3.246873e+01
5.700040e+02	-3.252423e+01
5.732964e+02	-3.257392e+01
5.766077e+02	-3.262503e+01
5.799382e+02	-3.266659e+01
5.832879e+02	-3.272476e+01
5.866569e+02	-3.277977e+01
5.900454e+02	-3.282473e+01
5.934535e+02	-3.287722e+01
5.968813e+02	-3.293396e+01
6.003288e+02	-3.298108e+01
6.037963e+02	-3.302338e+01
6.072838e+02	-3.307751e+01
6.107914e+02	-3.313188e+01
6.143194e+02	-3.317837e+01
6.178676e+02	-3.322496e+01
6.214364e+02	-3.327747e+01
6.250258e+02	-3.332993e+01
6.286359e+02	-3.337656e+01
6.322669e+02	-3.343741e+01
6.359189e+02	-3.347673e+01
6.395919e+02	-3.353036e+01
6.432862e+02	-3.357807e+01
6.470017e+02	-3.362977e+01
6.507388e+02	-3.368301e+01
6.544974e+02	-3.373700e+01
6.582778e+02	-3.378297e+01
6.620800e+02	-3.383970e+01
6.659041e+02	-3.388308e+01
6.697504e+02	-3.393028e+01
6.736188e+02	-3.398289e+01
6.775096e+02	-3.403999e+01
6.814229e+02	-3.407797e+01
6.853587e+02	-3.412893e+01
6.893173e+02	-3.418635e+01
6.932988e+02	-3.423759e+01
6.973033e+02	-3.428375e+01
7.013309e+02	-3.433092e+01
