Frequency(Hz)	Magnitude(dB)
1.000000e+01	-1.895146e+00
1.005776e+01	-1.912897e+00
1.011585e+01	-1.930736e+00
1.017428e+01	-1.948762e+00
1.023305e+01	-1.967007e+00
1.029215e+01	-1.985307e+00
1.035160e+01	-2.003816e+00
1.041139e+01	-2.022022e+00
1.047153e+01	-2.040691e+00
1.053201e+01	-2.059764e+00
1.059284e+01	-2.078976e+00
1.065403e+01	-2.097691e+00
1.071556e+01	-2.116896e+00
1.077746e+01	-2.136331e+00
1.083971e+01	-2.155936e+00
1.090232e+01	-2.175691e+00
1.096529e+01	-2.195119e+00
1.102862e+01	-2.215394e+00
1.109232e+01	-2.235258e+00
1.115639e+01	-2.255619e+00
1.122083e+01	-2.275858e+00
1.128564e+01	-2.296261e+00
1.135083e+01	-2.316943e+00
1.141639e+01	-2.337865e+00
1.148233e+01	-2.358429e+00
1.154865e+01	-2.379580e+00
1.161536e+01	-2.400733e+00
1.168245e+01	-2.421988e+00
1.174992e+01	-2.443482e+00
1.181779e+01	-2.465145e+00
1.188605e+01	-2.486889e+00
1.195470e+01	-2.508572e+00
1.202375e+01	-2.530583e+00
1.209320e+01	-2.552885e+00
1.216305e+01	-2.575218e+00
1.223330e+01	-2.597767e+00
1.230396e+01	-2.620239e+00
1.237503e+01	-2.643084e+00
1.244651e+01	-2.665958e+00
1.251840e+01	-2.688938e+00
1.259070e+01	-2.712182e+00
1.266343e+01	-2.735519e+00
1.273657e+01	-2.758806e+00
1.281014e+01	-2.782318e+00
1.288413e+01	-2.806048e+00
1.295855e+01	-2.830093e+00
1.303339e+01	-2.853712e+00
1.310867e+01	-2.878097e+00
1.318439e+01	-2.902524e+00
1.326054e+01	-2.926909e+00
1.333713e+01	-2.951456e+00
1.341417e+01	-2.976351e+00
1.349165e+01	-3.000962e+00
1.356958e+01	-3.026176e+00
1.364795e+01	-3.051584e+00
1.372678e+01	-3.076821e+00
1.380607e+01	-3.102148e+00
1.388581e+01	-3.127936e+00
1.396602e+01	-3.153523e+00
1.404668e+01	-3.179251e+00
1.412782e+01	-3.205321e+00
1.420942e+01	-3.231650e+00
1.429149e+01	-3.257800e+00
1.437404e+01	-3.284523e+00
1.445706e+01	-3.311214e+00
1.454057e+01	-3.337827e+00
1.462455e+01	-3.364834e+00
1.470902e+01	-3.391798e+00
1.479398e+01	-3.419115e+00
1.487943e+01	-3.446378e+00
1.496537e+01	-3.473752e+00
1.505181e+01	-3.501396e+00
1.513875e+01	-3.529179e+00
1.522619e+01	-3.557046e+00
1.531414e+01	-3.585070e+00
1.540259e+01	-3.613239e+00
1.549156e+01	-3.641594e+00
1.558103e+01	-3.670456e+00
1.567103e+01	-3.698782e+00
1.576155e+01	-3.727258e+00
1.585258e+01	-3.756447e+00
1.594415e+01	-3.785068e+00
1.603624e+01	-3.814643e+00
1.612886e+01	-3.844036e+00
1.622202e+01	-3.873214e+00
1.631572e+01	-3.902842e+00
1.640996e+01	-3.932708e+00
1.650474e+01	-3.962448e+00
1.660008e+01	-3.992541e+00
1.669596e+01	-4.022655e+00
1.679239e+01	-4.052960e+00
1.688938e+01	-4.083224e+00
1.698694e+01	-4.113800e+00
1.708505e+01	-4.144702e+00
1.718373e+01	-4.175549e+00
1.728299e+01	-4.206465e+00
1.738281e+01	-4.237314e+00
1.748322e+01	-4.268975e+00
1.758420e+01	-4.300062e+00
1.768576e+01	-4.331662e+00
1.778792e+01	-4.363220e+00
1.789066e+01	-4.394806e+00
1.799399e+01	-4.426865e+00
1.809793e+01	-4.459289e+00
1.820246e+01	-4.491229e+00
1.830760e+01	-4.523622e+00
1.841334e+01	-4.555945e+00
1.851969e+01	-4.588273e+00
1.862666e+01	-4.620917e+00
1.873425e+01	-4.653946e+00
1.884246e+01	-4.686939e+00
1.895129e+01	-4.720041e+00
1.906075e+01	-4.753196e+00
1.917085e+01	-4.786478e+00
1.928158e+01	-4.820003e+00
1.939295e+01	-4.853442e+00
1.950496e+01	-4.887264e+00
1.961762e+01	-4.921335e+00
1.973093e+01	-4.955162e+00
1.984490e+01	-4.989183e+00
1.995952e+01	-5.023619e+00
2.007480e+01	-5.057940e+00
2.019076e+01	-5.092245e+00
2.030738e+01	-5.127150e+00
2.042467e+01	-5.161767e+00
2.054264e+01	-5.196652e+00
2.066130e+01	-5.231399e+00
2.078064e+01	-5.266688e+00
2.090066e+01	-5.301750e+00
2.102139e+01	-5.337089e+00
2.114280e+01	-5.372278e+00
2.126492e+01	-5.408042e+00
2.138775e+01	-5.443797e+00
2.151128e+01	-5.479742e+00
2.163553e+01	-5.515433e+00
2.176050e+01	-5.551598e+00
2.188619e+01	-5.587783e+00
2.201260e+01	-5.623892e+00
2.213974e+01	-5.660352e+00
2.226762e+01	-5.696986e+00
2.239624e+01	-5.733486e+00
2.252560e+01	-5.770301e+00
2.265571e+01	-5.807244e+00
2.278656e+01	-5.843880e+00
2.291818e+01	-5.880961e+00
2.305055e+01	-5.918299e+00
2.318369e+01	-5.955752e+00
2.331760e+01	-5.992879e+00
2.345228e+01	-6.030278e+00
2.358774e+01	-6.068271e+00
2.372398e+01	-6.105485e+00
2.386101e+01	-6.143283e+00
2.399883e+01	-6.181603e+00
2.413745e+01	-6.219395e+00
2.427686e+01	-6.257641e+00
2.441709e+01	-6.295345e+00
2.455812e+01	-6.334523e+00
2.469997e+01	-6.372559e+00
2.484263e+01	-6.411032e+00
2.498612e+01	-6.449753e+00
2.513044e+01	-6.488516e+00
2.527559e+01	-6.527440e+00
2.542158e+01	-6.566117e+00
2.556842e+01	-6.605290e+00
2.571610e+01	-6.644578e+00
2.586463e+01	-6.683385e+00
2.601403e+01	-6.723040e+00
2.616428e+01	-6.762655e+00
2.631541e+01	-6.801996e+00
2.646740e+01	-6.841465e+00
2.662028e+01	-6.881450e+00
2.677404e+01	-6.920901e+00
2.692868e+01	-6.960977e+00
2.708422e+01	-7.000924e+00
2.724066e+01	-7.040932e+00
2.739800e+01	-7.081653e+00
2.755625e+01	-7.121509e+00
2.771541e+01	-7.162165e+00
2.787550e+01	-7.202364e+00
2.803650e+01	-7.242953e+00
2.819844e+01	-7.283849e+00
2.836131e+01	-7.324053e+00
2.852513e+01	-7.365067e+00
2.868989e+01	-7.406286e+00
2.885560e+01	-7.447395e+00
2.902227e+01	-7.488010e+00
2.918990e+01	-7.529069e+00
2.935850e+01	-7.570339e+00
2.952807e+01	-7.611369e+00
2.969863e+01	-7.653736e+00
2.987016e+01	-7.694458e+00
3.004269e+01	-7.736529e+00
3.021622e+01	-7.777963e+00
3.039075e+01	-7.819740e+00
3.056628e+01	-7.861292e+00
3.074283e+01	-7.903470e+00
3.092040e+01	-7.944802e+00
3.109900e+01	-7.987562e+00
3.127862e+01	-8.029275e+00
3.145929e+01	-8.071271e+00
3.164099e+01	-8.113567e+00
3.182375e+01	-8.156103e+00
3.200756e+01	-8.198660e+00
3.219244e+01	-8.241162e+00
3.237838e+01	-8.283555e+00
3.256540e+01	-8.325990e+00
3.275349e+01	-8.368686e+00
3.294268e+01	-8.411793e+00
3.313295e+01	-8.454711e+00
3.332433e+01	-8.497546e+00
3.351681e+01	-8.540701e+00
3.371040e+01	-8.583941e+00
3.390511e+01	-8.627048e+00
3.410094e+01	-8.669678e+00
3.429791e+01	-8.713248e+00
3.449601e+01	-8.756539e+00
3.469526e+01	-8.799954e+00
3.489566e+01	-8.843016e+00
3.509721e+01	-8.886992e+00
3.529993e+01	-8.930525e+00
3.550382e+01	-8.974235e+00
3.570889e+01	-9.017749e+00
3.591515e+01	-9.061747e+00
3.612259e+01	-9.105239e+00
3.633123e+01	-9.149134e+00
3.654108e+01	-9.193331e+00
3.675214e+01	-9.237635e+00
3.696442e+01	-9.281139e+00
3.717792e+01	-9.326005e+00
3.739266e+01	-9.370242e+00
3.760864e+01	-9.414074e+00
3.782587e+01	-9.458142e+00
3.804435e+01	-9.502748e+00
3.826409e+01	-9.546917e+00
3.848510e+01	-9.591422e+00
3.870739e+01	-9.636428e+00
3.893096e+01	-9.680742e+00
3.915583e+01	-9.725705e+00
3.938199e+01	-9.769971e+00
3.960946e+01	-9.815739e+00
3.983824e+01	-9.860067e+00
4.006834e+01	-9.904747e+00
4.029978e+01	-9.949964e+00
4.053255e+01	-9.994485e+00
4.076666e+01	-1.003983e+01
4.100213e+01	-1.008524e+01
4.123896e+01	-1.013061e+01
4.147715e+01	-1.017585e+01
4.171672e+01	-1.022093e+01
4.195767e+01	-1.026574e+01
4.220002e+01	-1.031119e+01
4.244377e+01	-1.035638e+01
4.268892e+01	-1.040179e+01
4.293549e+01	-1.044721e+01
4.318348e+01	-1.049325e+01
4.343291e+01	-1.053881e+01
4.368377e+01	-1.058433e+01
4.393609e+01	-1.063000e+01
4.418986e+01	-1.067525e+01
4.444510e+01	-1.072190e+01
4.470182e+01	-1.076678e+01
4.496001e+01	-1.081322e+01
4.521970e+01	-1.085894e+01
4.548089e+01	-1.090524e+01
4.574358e+01	-1.095079e+01
4.600779e+01	-1.099702e+01
4.627353e+01	-1.104273e+01
4.654081e+01	-1.108946e+01
4.680963e+01	-1.113579e+01
4.708000e+01	-1.118101e+01
4.735193e+01	-1.122766e+01
4.762543e+01	-1.127363e+01
4.790051e+01	-1.132045e+01
4.817719e+01	-1.136640e+01
4.845545e+01	-1.141364e+01
4.873533e+01	-1.145901e+01
4.901682e+01	-1.150607e+01
4.929994e+01	-1.155232e+01
4.958470e+01	-1.159924e+01
4.987110e+01	-1.164508e+01
5.015915e+01	-1.169217e+01
5.044887e+01	-1.173925e+01
5.074026e+01	-1.178547e+01
5.103333e+01	-1.183262e+01
5.132810e+01	-1.187928e+01
5.162457e+01	-1.192563e+01
5.192275e+01	-1.197291e+01
5.222265e+01	-1.202029e+01
5.252429e+01	-1.206655e+01
5.282767e+01	-1.211358e+01
5.313280e+01	-1.216016e+01
5.343969e+01	-1.220772e+01
5.374836e+01	-1.225408e+01
5.405880e+01	-1.230106e+01
5.437105e+01	-1.234852e+01
5.468509e+01	-1.239506e+01
5.500095e+01	-1.244241e+01
5.531863e+01	-1.249059e+01
5.563815e+01	-1.253756e+01
5.595951e+01	-1.258427e+01
5.628273e+01	-1.263100e+01
5.660782e+01	-1.267903e+01
5.693479e+01	-1.272648e+01
5.726364e+01	-1.277361e+01
5.759439e+01	-1.282140e+01
5.792705e+01	-1.286852e+01
5.826164e+01	-1.291574e+01
5.859815e+01	-1.296324e+01
5.893662e+01	-1.301128e+01
5.927703e+01	-1.305864e+01
5.961941e+01	-1.310678e+01
5.996377e+01	-1.315352e+01
6.031012e+01	-1.320149e+01
6.065847e+01	-1.324877e+01
6.100883e+01	-1.329720e+01
6.136121e+01	-1.334446e+01
6.171563e+01	-1.339178e+01
6.207210e+01	-1.344041e+01
6.243063e+01	-1.348755e+01
6.279122e+01	-1.353595e+01
6.315390e+01	-1.358303e+01
6.351868e+01	-1.363154e+01
6.388556e+01	-1.367835e+01
6.425456e+01	-1.372636e+01
6.462569e+01	-1.377513e+01
6.499897e+01	-1.382366e+01
6.537440e+01	-1.387083e+01
6.575200e+01	-1.391862e+01
6.613178e+01	-1.396707e+01
6.651375e+01	-1.401494e+01
6.689793e+01	-1.406272e+01
6.728433e+01	-1.411087e+01
6.767297e+01	-1.415928e+01
6.806384e+01	-1.420656e+01
6.845698e+01	-1.425684e+01
6.885238e+01	-1.430303e+01
6.925007e+01	-1.435161e+01
6.965005e+01	-1.439942e+01
7.005235e+01	-1.444806e+01
7.045697e+01	-1.449646e+01
7.086393e+01	-1.454349e+01
7.127323e+01	-1.459267e+01
7.168490e+01	-1.464043e+01
7.209895e+01	-1.468985e+01
7.251539e+01	-1.473839e+01
7.293424e+01	-1.478639e+01
7.335551e+01	-1.483373e+01
7.377920e+01	-1.488291e+01
7.420535e+01	-1.493131e+01
7.463396e+01	-1.497985e+01
7.506504e+01	-1.502822e+01
7.549861e+01	-1.507741e+01
7.593469e+01	-1.512496e+01
7.637328e+01	-1.517399e+01
7.681441e+01	-1.522245e+01
7.725809e+01	-1.527066e+01
7.770433e+01	-1.531904e+01
7.815315e+01	-1.536781e+01
7.860456e+01	-1.541599e+01
7.905857e+01	-1.546411e+01
7.951521e+01	-1.551433e+01
7.997449e+01	-1.556189e+01
8.043642e+01	-1.561009e+01
8.090102e+01	-1.565961e+01
8.136830e+01	-1.570785e+01
8.183828e+01	-1.575696e+01
8.231097e+01	-1.580623e+01
8.278640e+01	-1.585488e+01
8.326457e+01	-1.590435e+01
8.374550e+01	-1.595173e+01
8.422921e+01	-1.600072e+01
8.471572e+01	-1.604968e+01
8.520503e+01	-1.609821e+01
8.569717e+01	-1.614729e+01
8.619215e+01	-1.619566e+01
8.669000e+01	-1.624437e+01
8.719071e+01	-1.629386e+01
8.769432e+01	-1.634215e+01
8.820084e+01	-1.639233e+01
8.871029e+01	-1.643909e+01
8.922267e+01	-1.648963e+01
8.973802e+01	-1.653843e+01
9.025634e+01	-1.658638e+01
9.077766e+01	-1.663658e+01
9.130199e+01	-1.668459e+01
9.182935e+01	-1.673528e+01
9.235975e+01	-1.678252e+01
9.289321e+01	-1.683207e+01
9.342976e+01	-1.688038e+01
9.396941e+01	-1.693089e+01
9.451217e+01	-1.697876e+01
9.505807e+01	-1.702790e+01
9.560712e+01	-1.707748e+01
9.615934e+01	-1.712576e+01
9.671476e+01	-1.717451e+01
9.727338e+01	-1.722477e+01
9.783522e+01	-1.727328e+01
9.840032e+01	-1.732165e+01
9.896867e+01	-1.737144e+01
9.954031e+01	-1.741955e+01
1.001153e+02	-1.746995e+01
1.006935e+02	-1.751888e+01
1.012751e+02	-1.756868e+01
1.018601e+02	-1.761750e+01
1.024484e+02	-1.766520e+01
1.030402e+02	-1.771631e+01
1.036353e+02	-1.776353e+01
1.042339e+02	-1.781329e+01
1.048360e+02	-1.786219e+01
1.054415e+02	-1.791312e+01
1.060505e+02	-1.796122e+01
1.066631e+02	-1.801138e+01
1.072791e+02	-1.806046e+01
1.078988e+02	-1.810948e+01
1.085220e+02	-1.815885e+01
1.091488e+02	-1.820702e+01
1.097793e+02	-1.825697e+01
1.104133e+02	-1.830708e+01
1.110511e+02	-1.835546e+01
1.116925e+02	-1.840470e+01
1.123376e+02	-1.845374e+01
1.129865e+02	-1.850346e+01
1.136391e+02	-1.855323e+01
1.142955e+02	-1.860212e+01
1.149556e+02	-1.865121e+01
1.156196e+02	-1.870132e+01
1.162874e+02	-1.875070e+01
1.169591e+02	-1.880066e+01
1.176347e+02	-1.884877e+01
1.183141e+02	-1.889729e+01
1.189975e+02	-1.894795e+01
1.196848e+02	-1.899786e+01
1.203761e+02	-1.904662e+01
1.210714e+02	-1.909524e+01
1.217707e+02	-1.914495e+01
1.224740e+02	-1.919465e+01
1.231814e+02	-1.924467e+01
1.238929e+02	-1.929358e+01
1.246085e+02	-1.934378e+01
1.253283e+02	-1.939238e+01
1.260522e+02	-1.944217e+01
1.267802e+02	-1.949138e+01
1.275125e+02	-1.954239e+01
1.282490e+02	-1.959123e+01
1.289898e+02	-1.963974e+01
1.297348e+02	-1.969012e+01
1.304842e+02	-1.973876e+01
1.312378e+02	-1.978877e+01
1.319959e+02	-1.983964e+01
1.327583e+02	-1.988850e+01
1.335251e+02	-1.993686e+01
1.342963e+02	-1.998722e+01
1.350720e+02	-2.003626e+01
1.358522e+02	-2.008523e+01
1.366368e+02	-2.013422e+01
1.374260e+02	-2.018422e+01
1.382198e+02	-2.023507e+01
1.390182e+02	-2.028433e+01
1.398211e+02	-2.033387e+01
1.406287e+02	-2.038348e+01
1.414410e+02	-2.043280e+01
1.422579e+02	-2.048160e+01
1.430796e+02	-2.053074e+01
1.439060e+02	-2.058171e+01
1.447372e+02	-2.062999e+01
1.455732e+02	-2.068122e+01
1.464141e+02	-2.073244e+01
1.472597e+02	-2.077958e+01
1.481103e+02	-2.082847e+01
1.489658e+02	-2.087851e+01
1.498262e+02	-2.092907e+01
1.506916e+02	-2.097880e+01
1.515620e+02	-2.102824e+01
1.524374e+02	-2.107518e+01
1.533179e+02	-2.112764e+01
1.542034e+02	-2.117738e+01
1.550941e+02	-2.122670e+01
1.559899e+02	-2.127530e+01
1.568909e+02	-2.132563e+01
1.577971e+02	-2.137859e+01
1.587085e+02	-2.142530e+01
1.596252e+02	-2.147738e+01
1.605472e+02	-2.152492e+01
1.614745e+02	-2.157627e+01
1.624072e+02	-2.162200e+01
1.633453e+02	-2.167170e+01
1.642887e+02	-2.172540e+01
1.652377e+02	-2.177151e+01
1.661921e+02	-2.182402e+01
1.671520e+02	-2.187313e+01
1.681175e+02	-2.192230e+01
1.690885e+02	-2.197189e+01
1.700651e+02	-2.202160e+01
1.710474e+02	-2.207150e+01
1.720354e+02	-2.211987e+01
1.730291e+02	-2.217076e+01
1.740285e+02	-2.222104e+01
1.750337e+02	-2.227060e+01
1.760446e+02	-2.232161e+01
1.770615e+02	-2.236979e+01
1.780842e+02	-2.241980e+01
1.791128e+02	-2.246956e+01
1.801473e+02	-2.252100e+01
1.811878e+02	-2.256872e+01
1.822344e+02	-2.261926e+01
1.832870e+02	-2.266878e+01
1.843456e+02	-2.271830e+01
1.854104e+02	-2.277001e+01
1.864813e+02	-2.281787e+01
1.875584e+02	-2.286962e+01
1.886418e+02	-2.291657e+01
1.897313e+02	-2.296425e+01
1.908272e+02	-2.301683e+01
1.919294e+02	-2.306795e+01
1.930380e+02	-2.311672e+01
1.941530e+02	-2.317030e+01
1.952744e+02	-2.321630e+01
1.964023e+02	-2.326669e+01
1.975367e+02	-2.331600e+01
1.986777e+02	-2.336620e+01
1.998252e+02	-2.341741e+01
2.009794e+02	-2.346634e+01
2.021403e+02	-2.351570e+01
2.033078e+02	-2.356512e+01
2.044821e+02	-2.361746e+01
2.056632e+02	-2.366461e+01
2.068511e+02	-2.371582e+01
2.080459e+02	-2.376402e+01
2.092475e+02	-2.381464e+01
2.104561e+02	-2.386430e+01
2.116717e+02	-2.391415e+01
2.128943e+02	-2.396504e+01
2.141240e+02	-2.401452e+01
2.153608e+02	-2.406220e+01
2.166047e+02	-2.411632e+01
2.178558e+02	-2.416480e+01
2.191141e+02	-2.421372e+01
2.203797e+02	-2.426549e+01
2.216526e+02	-2.431292e+01
2.229329e+02	-2.436170e+01
2.242205e+02	-2.441162e+01
2.255156e+02	-2.446343e+01
2.268182e+02	-2.451144e+01
2.281283e+02	-2.456376e+01
2.294459e+02	-2.461164e+01
2.307712e+02	-2.466151e+01
2.321041e+02	-2.471123e+01
2.334447e+02	-2.476166e+01
2.347931e+02	-2.481197e+01
2.361493e+02	-2.486217e+01
2.375133e+02	-2.491151e+01
2.388851e+02	-2.496246e+01
2.402649e+02	-2.501336e+01
2.416527e+02	-2.506247e+01
2.430484e+02	-2.511319e+01
2.444523e+02	-2.516125e+01
2.458642e+02	-2.521276e+01
2.472843e+02	-2.525901e+01
2.487126e+02	-2.531256e+01
2.501492e+02	-2.535889e+01
2.515940e+02	-2.541149e+01
2.530472e+02	-2.546275e+01
2.545088e+02	-2.550956e+01
2.559789e+02	-2.556242e+01
2.574574e+02	-2.561001e+01
2.589444e+02	-2.566127e+01
2.604401e+02	-2.570878e+01
2.619444e+02	-2.575964e+01
2.634574e+02	-2.581338e+01
2.649791e+02	-2.586040e+01
2.665096e+02	-2.591015e+01
2.680489e+02	-2.596009e+01
2.695972e+02	-2.600889e+01
2.711544e+02	-2.605998e+01
2.727205e+02	-2.610988e+01
2.742958e+02	-2.615978e+01
2.758801e+02	-2.620995e+01
2.774736e+02	-2.626147e+01
2.790762e+02	-2.631292e+01
2.806882e+02	-2.635684e+01
2.823094e+02	-2.641211e+01
2.839400e+02	-2.646265e+01
2.855800e+02	-2.650484e+01
2.872295e+02	-2.655792e+01
2.888886e+02	-2.660639e+01
2.905572e+02	-2.666104e+01
2.922354e+02	-2.670891e+01
2.939234e+02	-2.676257e+01
2.956211e+02	-2.681251e+01
2.973286e+02	-2.686205e+01
2.990459e+02	-2.690857e+01
3.007732e+02	-2.695897e+01
3.025104e+02	-2.701078e+01
3.042577e+02	-2.705874e+01
3.060151e+02	-2.710811e+01
3.077826e+02	-2.715701e+01
3.095604e+02	-2.720998e+01
3.113484e+02	-2.726185e+01
3.131467e+02	-2.730802e+01
3.149554e+02	-2.735846e+01
3.167746e+02	-2.740904e+01
3.186043e+02	-2.746008e+01
3.204445e+02	-2.751246e+01
3.222954e+02	-2.755563e+01
3.241570e+02	-2.761310e+01
3.260293e+02	-2.766083e+01
3.279124e+02	-2.770998e+01
3.298064e+02	-2.775825e+01
3.317114e+02	-2.781120e+01
3.336273e+02	-2.785796e+01
3.355544e+02	-2.790950e+01
3.374925e+02	-2.795974e+01
3.394418e+02	-2.800929e+01
3.414024e+02	-2.805770e+01
3.433744e+02	-2.811221e+01
3.453577e+02	-2.815862e+01
3.473525e+02	-2.821477e+01
3.493588e+02	-2.826000e+01
3.513766e+02	-2.830998e+01
3.534062e+02	-2.836199e+01
3.554474e+02	-2.841058e+01
3.575005e+02	-2.846337e+01
3.595654e+02	-2.851058e+01
3.616422e+02	-2.856107e+01
3.637311e+02	-2.861068e+01
3.658320e+02	-2.866125e+01
3.679450e+02	-2.871444e+01
3.700702e+02	-2.876250e+01
3.722077e+02	-2.881185e+01
3.743576e+02	-2.885972e+01
3.765199e+02	-2.890900e+01
3.786946e+02	-2.895732e+01
3.808820e+02	-2.901168e+01
3.830819e+02	-2.906624e+01
3.852946e+02	-2.911253e+01
3.875200e+02	-2.916114e+01
3.897583e+02	-2.921140e+01
3.920096e+02	-2.926180e+01
3.942738e+02	-2.931049e+01
3.965511e+02	-2.935790e+01
3.988416e+02	-2.941485e+01
4.011452e+02	-2.946094e+01
4.034622e+02	-2.951177e+01
4.057926e+02	-2.956112e+01
4.081365e+02	-2.961040e+01
4.104938e+02	-2.966719e+01
4.128648e+02	-2.970788e+01
4.152495e+02	-2.976346e+01
4.176480e+02	-2.981316e+01
4.200603e+02	-2.986499e+01
4.224866e+02	-2.991015e+01
4.249268e+02	-2.996578e+01
4.273812e+02	-3.001228e+01
4.298497e+02	-3.006302e+01
4.323325e+02	-3.010702e+01
4.348297e+02	-3.016543e+01
4.373412e+02	-3.021327e+01
4.398673e+02	-3.026408e+01
4.424079e+02	-3.031911e+01
4.449633e+02	-3.035648e+01
4.475334e+02	-3.041476e+01
4.501183e+02	-3.046720e+01
4.527182e+02	-3.051736e+01
4.553330e+02	-3.056911e+01
4.579630e+02	-3.061833e+01
4.606082e+02	-3.066215e+01
4.632687e+02	-3.071678e+01
4.659445e+02	-3.076090e+01
4.686358e+02	-3.081080e+01
4.713426e+02	-3.086956e+01
4.740650e+02	-3.091889e+01
4.768032e+02	-3.096096e+01
4.795572e+02	-3.102404e+01
4.823271e+02	-3.106856e+01
4.851130e+02	-3.112385e+01
4.879150e+02	-3.117011e+01
4.907332e+02	-3.121840e+01
4.935676e+02	-3.126634e+01
4.964185e+02	-3.131918e+01
4.992858e+02	-3.137528e+01
5.021696e+02	-3.141422e+01
5.050701e+02	-3.146550e+01
5.079874e+02	-3.152230e+01
5.109215e+02	-3.157331e+01
5.138726e+02	-3.161195e+01
5.168407e+02	-3.167166e+01
5.198259e+02	-3.172033e+01
5.228284e+02	-3.176655e+01
5.258482e+02	-3.182401e+01
5.288855e+02	-3.186701e+01
5.319403e+02	-3.192453e+01
5.350128e+02	-3.196799e+01
5.381030e+02	-3.202194e+01
5.412111e+02	-3.207208e+01
5.443371e+02	-3.211787e+01
5.474812e+02	-3.217483e+01
5.506434e+02	-3.221044e+01
5.538239e+02	-3.227227e+01
5.570228e+02	-3.231965e+01
5.602401e+02	-3.237350e+01
5.634760e+02	-3.242011e+01
5.667306e+02	-3.247331e+01
5.700040e+02	-3.251603e+01
5.732964e+02	-3.257428e+01
5.766077e+02	-3.262598e+01
5.799382e+02	-3.267056e+01
5.832879e+02	-3.272119e+01
5.866569e+02	-3.277657e+01
5.900454e+02	-3.282089e+01
5.934535e+02	-3.286934e+01
5.968813e+02	-3.291919e+01
6.003288e+02	-3.297523e+01
6.037963e+02	-3.302742e+01
6.072838e+02	-3.307555e+01
6.107914e+02	-3.311978e+01
6.143194e+02	-3.317575e+01
6.178676e+02	-3.322224e+01
6.214364e+02	-3.326943e+01
6.250258e+02	-3.332465e+01
6.286359e+02	-3.337524e+01
6.322669e+02	-3.342946e+01
6.359189e+02	-3.348563e+01
6.395919e+02	-3.352919e+01
6.432862e+02	-3.357091e+01
6.470017e+02	-3.362103e+01
6.507388e+02	-3.368115e+01
6.544974e+02	-3.373167e+01
6.582778e+02	-3.378064e+01
6.620800e+02	-3.382873e+01
6.659041e+02	-3.388382e+01
6.697504e+02	-3.394216e+01
6.736188e+02	-3.398006e+01
6.775096e+02	-3.402591e+01
6.814229e+02	-3.407043e+01
6.853587e+02	-3.412373e+01
6.893173e+02	-3.418428e+01
6.932988e+02	-3.422667e+01
6.973033e+02	-3.429024e+01
7.013309e+02	-3.433117e+01
