Frequency(Hz)	Magnitude(dB)
1.000000e+01	-2.115678e+00
1.005776e+01	-2.135382e+00
1.011585e+01	-2.154686e+00
1.017428e+01	-2.174387e+00
1.023305e+01	-2.194194e+00
1.029215e+01	-2.214025e+00
1.035160e+01	-2.234131e+00
1.041139e+01	-2.254267e+00
1.047153e+01	-2.274660e+00
1.053201e+01	-2.294823e+00
1.059284e+01	-2.315636e+00
1.065403e+01	-2.336499e+00
1.071556e+01	-2.357258e+00
1.077746e+01	-2.378475e+00
1.083971e+01	-2.399475e+00
1.090232e+01	-2.420834e+00
1.096529e+01	-2.442398e+00
1.102862e+01	-2.463938e+00
1.109232e+01	-2.485335e+00
1.115639e+01	-2.507584e+00
1.122083e+01	-2.529308e+00
1.128564e+01	-2.551687e+00
1.135083e+01	-2.574020e+00
1.141639e+01	-2.596244e+00
1.148233e+01	-2.618792e+00
1.154865e+01	-2.641605e+00
1.161536e+01	-2.664498e+00
1.168245e+01	-2.687230e+00
1.174992e+01	-2.710697e+00
1.181779e+01	-2.733798e+00
1.188605e+01	-2.757545e+00
1.195470e+01	-2.781137e+00
1.202375e+01	-2.804835e+00
1.209320e+01	-2.828672e+00
1.216305e+01	-2.852589e+00
1.223330e+01	-2.876794e+00
1.230396e+01	-2.901109e+00
1.237503e+01	-2.925709e+00
1.244651e+01	-2.950175e+00
1.251840e+01	-2.974791e+00
1.259070e+01	-2.999579e+00
1.266343e+01	-3.024926e+00
1.273657e+01	-3.049850e+00
1.281014e+01	-3.075111e+00
1.288413e+01	-3.100718e+00
1.295855e+01	-3.126229e+00
1.303339e+01	-3.152126e+00
1.310867e+01	-3.177884e+00
1.318439e+01	-3.204107e+00
1.326054e+01	-3.230308e+00
1.333713e+01	-3.256495e+00
1.341417e+01	-3.282890e+00
1.349165e+01	-3.309502e+00
1.356958e+01	-3.336085e+00
1.364795e+01	-3.363095e+00
1.372678e+01	-3.390335e+00
1.380607e+01	-3.417248e+00
1.388581e+01	-3.444956e+00
1.396602e+01	-3.472202e+00
1.404668e+01	-3.499715e+00
1.412782e+01	-3.527748e+00
1.420942e+01	-3.555353e+00
1.429149e+01	-3.583579e+00
1.437404e+01	-3.611470e+00
1.445706e+01	-3.639906e+00
1.454057e+01	-3.668180e+00
1.462455e+01	-3.697070e+00
1.470902e+01	-3.725578e+00
1.479398e+01	-3.754919e+00
1.487943e+01	-3.783509e+00
1.496537e+01	-3.812700e+00
1.505181e+01	-3.841958e+00
1.513875e+01	-3.871293e+00
1.522619e+01	-3.901100e+00
1.531414e+01	-3.930626e+00
1.540259e+01	-3.960594e+00
1.549156e+01	-3.990935e+00
1.558103e+01	-4.021089e+00
1.567103e+01	-4.050675e+00
1.576155e+01	-4.081229e+00
1.585258e+01	-4.112067e+00
1.594415e+01	-4.142629e+00
1.603624e+01	-4.173590e+00
1.612886e+01	-4.204586e+00
1.622202e+01	-4.235523e+00
1.631572e+01	-4.266872e+00
1.640996e+01	-4.298124e+00
1.650474e+01	-4.329856e+00
1.660008e+01	-4.361544e+00
1.669596e+01	-4.393113e+00
1.679239e+01	-4.424791e+00
1.688938e+01	-4.457005e+00
1.698694e+01	-4.489202e+00
1.708505e+01	-4.521529e+00
1.718373e+01	-4.553826e+00
1.728299e+01	-4.586720e+00
1.738281e+01	-4.619248e+00
1.748322e+01	-4.652281e+00
1.758420e+01	-4.685175e+00
1.768576e+01	-4.718007e+00
1.778792e+01	-4.751386e+00
1.789066e+01	-4.784745e+00
1.799399e+01	-4.818199e+00
1.809793e+01	-4.851653e+00
1.820246e+01	-4.885608e+00
1.830760e+01	-4.919252e+00
1.841334e+01	-4.953395e+00
1.851969e+01	-4.987451e+00
1.862666e+01	-5.021717e+00
1.873425e+01	-5.056086e+00
1.884246e+01	-5.090646e+00
1.895129e+01	-5.125042e+00
1.906075e+01	-5.159555e+00
1.917085e+01	-5.194557e+00
1.928158e+01	-5.229440e+00
1.939295e+01	-5.264654e+00
1.950496e+01	-5.299878e+00
1.961762e+01	-5.335081e+00
1.973093e+01	-5.370148e+00
1.984490e+01	-5.406229e+00
1.995952e+01	-5.441582e+00
2.007480e+01	-5.477447e+00
2.019076e+01	-5.513549e+00
2.030738e+01	-5.549512e+00
2.042467e+01	-5.585624e+00
2.054264e+01	-5.621872e+00
2.066130e+01	-5.658292e+00
2.078064e+01	-5.694582e+00
2.090066e+01	-5.731518e+00
2.102139e+01	-5.767947e+00
2.114280e+01	-5.804865e+00
2.126492e+01	-5.841804e+00
2.138775e+01	-5.878799e+00
2.151128e+01	-5.915995e+00
2.163553e+01	-5.953273e+00
2.176050e+01	-5.990698e+00
2.188619e+01	-6.028237e+00
2.201260e+01	-6.065658e+00
2.213974e+01	-6.103862e+00
2.226762e+01	-6.141025e+00
2.239624e+01	-6.179084e+00
2.252560e+01	-6.217171e+00
2.265571e+01	-6.255250e+00
2.278656e+01	-6.293341e+00
2.291818e+01	-6.331817e+00
2.305055e+01	-6.370462e+00
2.318369e+01	-6.409052e+00
2.331760e+01	-6.447658e+00
2.345228e+01	-6.486003e+00
2.358774e+01	-6.524887e+00
2.372398e+01	-6.564000e+00
2.386101e+01	-6.602906e+00
2.399883e+01	-6.642076e+00
2.413745e+01	-6.681287e+00
2.427686e+01	-6.720644e+00
2.441709e+01	-6.760313e+00
2.455812e+01	-6.799627e+00
2.469997e+01	-6.839342e+00
2.484263e+01	-6.879512e+00
2.498612e+01	-6.918888e+00
2.513044e+01	-6.958708e+00
2.527559e+01	-6.998701e+00
2.542158e+01	-7.038987e+00
2.556842e+01	-7.079100e+00
2.571610e+01	-7.119512e+00
2.586463e+01	-7.159776e+00
2.601403e+01	-7.200256e+00
2.616428e+01	-7.240601e+00
2.631541e+01	-7.281384e+00
2.646740e+01	-7.322393e+00
2.662028e+01	-7.362972e+00
2.677404e+01	-7.403959e+00
2.692868e+01	-7.444624e+00
2.708422e+01	-7.485697e+00
2.724066e+01	-7.526931e+00
2.739800e+01	-7.567901e+00
2.755625e+01	-7.609379e+00
2.771541e+01	-7.650995e+00
2.787550e+01	-7.692229e+00
2.803650e+01	-7.734058e+00
2.819844e+01	-7.775562e+00
2.836131e+01	-7.817264e+00
2.852513e+01	-7.858596e+00
2.868989e+01	-7.900800e+00
2.885560e+01	-7.942954e+00
2.902227e+01	-7.984994e+00
2.918990e+01	-8.027074e+00
2.935850e+01	-8.069002e+00
2.952807e+01	-8.111118e+00
2.969863e+01	-8.154160e+00
2.987016e+01	-8.196045e+00
3.004269e+01	-8.238356e+00
3.021622e+01	-8.280969e+00
3.039075e+01	-8.323637e+00
3.056628e+01	-8.366498e+00
3.074283e+01	-8.409182e+00
3.092040e+01	-8.452261e+00
3.109900e+01	-8.495203e+00
3.127862e+01	-8.538030e+00
3.145929e+01	-8.581130e+00
3.164099e+01	-8.624303e+00
3.182375e+01	-8.667231e+00
3.200756e+01	-8.710697e+00
3.219244e+01	-8.753802e+00
3.237838e+01	-8.797684e+00
3.256540e+01	-8.840879e+00
3.275349e+01	-8.884269e+00
3.294268e+01	-8.927952e+00
3.313295e+01	-8.971875e+00
3.332433e+01	-9.015208e+00
3.351681e+01	-9.058832e+00
3.371040e+01	-9.103125e+00
3.390511e+01	-9.146926e+00
3.410094e+01	-9.190800e+00
3.429791e+01	-9.234562e+00
3.449601e+01	-9.279142e+00
3.469526e+01	-9.323341e+00
3.489566e+01	-9.367425e+00
3.509721e+01	-9.411389e+00
3.529993e+01	-9.455751e+00
3.550382e+01	-9.499921e+00
3.570889e+01	-9.544529e+00
3.591515e+01	-9.589278e+00
3.612259e+01	-9.633795e+00
3.633123e+01	-9.678446e+00
3.654108e+01	-9.722598e+00
3.675214e+01	-9.767671e+00
3.696442e+01	-9.812725e+00
3.717792e+01	-9.857518e+00
3.739266e+01	-9.902390e+00
3.760864e+01	-9.947010e+00
3.782587e+01	-9.992066e+00
3.804435e+01	-1.003736e+01
3.826409e+01	-1.008213e+01
3.848510e+01	-1.012773e+01
3.870739e+01	-1.017325e+01
3.893096e+01	-1.021793e+01
3.915583e+01	-1.026317e+01
3.938199e+01	-1.030851e+01
3.960946e+01	-1.035395e+01
3.983824e+01	-1.039947e+01
4.006834e+01	-1.044517e+01
4.029978e+01	-1.048994e+01
4.053255e+01	-1.053581e+01
4.076666e+01	-1.058128e+01
4.100213e+01	-1.062746e+01
4.123896e+01	-1.067267e+01
4.147715e+01	-1.071857e+01
4.171672e+01	-1.076483e+01
4.195767e+01	-1.081035e+01
4.220002e+01	-1.085594e+01
4.244377e+01	-1.090184e+01
4.268892e+01	-1.094769e+01
4.293549e+01	-1.099416e+01
4.318348e+01	-1.104023e+01
4.343291e+01	-1.108670e+01
4.368377e+01	-1.113197e+01
4.393609e+01	-1.117882e+01
4.418986e+01	-1.122501e+01
4.444510e+01	-1.127085e+01
4.470182e+01	-1.131756e+01
4.496001e+01	-1.136348e+01
4.521970e+01	-1.141028e+01
4.548089e+01	-1.145611e+01
4.574358e+01	-1.150323e+01
4.600779e+01	-1.154963e+01
4.627353e+01	-1.159614e+01
4.654081e+01	-1.164315e+01
4.680963e+01	-1.168979e+01
4.708000e+01	-1.173604e+01
4.735193e+01	-1.178265e+01
4.762543e+01	-1.182928e+01
4.790051e+01	-1.187626e+01
4.817719e+01	-1.192311e+01
4.845545e+01	-1.197040e+01
4.873533e+01	-1.201636e+01
4.901682e+01	-1.206361e+01
4.929994e+01	-1.211024e+01
4.958470e+01	-1.215743e+01
4.987110e+01	-1.220489e+01
5.015915e+01	-1.225204e+01
5.044887e+01	-1.229832e+01
5.074026e+01	-1.234592e+01
5.103333e+01	-1.239289e+01
5.132810e+01	-1.244073e+01
5.162457e+01	-1.248774e+01
5.192275e+01	-1.253498e+01
5.222265e+01	-1.258152e+01
5.252429e+01	-1.262934e+01
5.282767e+01	-1.267607e+01
5.313280e+01	-1.272357e+01
5.343969e+01	-1.277103e+01
5.374836e+01	-1.281775e+01
5.405880e+01	-1.286628e+01
5.437105e+01	-1.291277e+01
5.468509e+01	-1.296143e+01
5.500095e+01	-1.300879e+01
5.531863e+01	-1.305580e+01
5.563815e+01	-1.310352e+01
5.595951e+01	-1.315105e+01
5.628273e+01	-1.319887e+01
5.660782e+01	-1.324642e+01
5.693479e+01	-1.329346e+01
5.726364e+01	-1.334158e+01
5.759439e+01	-1.339009e+01
5.792705e+01	-1.343809e+01
5.826164e+01	-1.348496e+01
5.859815e+01	-1.353224e+01
5.893662e+01	-1.358110e+01
5.927703e+01	-1.362807e+01
5.961941e+01	-1.367686e+01
5.996377e+01	-1.372341e+01
6.031012e+01	-1.377251e+01
6.065847e+01	-1.382038e+01
6.100883e+01	-1.386760e+01
6.136121e+01	-1.391629e+01
6.171563e+01	-1.396318e+01
6.207210e+01	-1.401145e+01
6.243063e+01	-1.405993e+01
6.279122e+01	-1.410838e+01
6.315390e+01	-1.415597e+01
6.351868e+01	-1.420411e+01
6.388556e+01	-1.425286e+01
6.425456e+01	-1.430160e+01
6.462569e+01	-1.434793e+01
6.499897e+01	-1.439664e+01
6.537440e+01	-1.444551e+01
6.575200e+01	-1.449366e+01
6.613178e+01	-1.454155e+01
6.651375e+01	-1.459009e+01
6.689793e+01	-1.463829e+01
6.728433e+01	-1.468626e+01
6.767297e+01	-1.473504e+01
6.806384e+01	-1.478400e+01
6.845698e+01	-1.483169e+01
6.885238e+01	-1.488000e+01
6.925007e+01	-1.492932e+01
6.965005e+01	-1.497757e+01
7.005235e+01	-1.502563e+01
7.045697e+01	-1.507305e+01
7.086393e+01	-1.512227e+01
7.127323e+01	-1.517111e+01
7.168490e+01	-1.522010e+01
7.209895e+01	-1.526753e+01
7.251539e+01	-1.531629e+01
7.293424e+01	-1.536532e+01
7.335551e+01	-1.541410e+01
7.377920e+01	-1.546235e+01
7.420535e+01	-1.551103e+01
7.463396e+01	-1.555984e+01
7.506504e+01	-1.560802e+01
7.549861e+01	-1.565708e+01
7.593469e+01	-1.570576e+01
7.637328e+01	-1.575426e+01
7.681441e+01	-1.580252e+01
7.725809e+01	-1.585157e+01
7.770433e+01	-1.590093e+01
7.815315e+01	-1.594953e+01
7.860456e+01	-1.599772e+01
7.905857e+01	-1.604721e+01
7.951521e+01	-1.609494e+01
7.997449e+01	-1.614453e+01
8.043642e+01	-1.619318e+01
8.090102e+01	-1.624139e+01
8.136830e+01	-1.629121e+01
8.183828e+01	-1.633915e+01
8.231097e+01	-1.638911e+01
8.278640e+01	-1.643682e+01
8.326457e+01	-1.648574e+01
8.374550e+01	-1.653532e+01
8.422921e+01	-1.658365e+01
8.471572e+01	-1.663337e+01
8.520503e+01	-1.668180e+01
8.569717e+01	-1.673101e+01
8.619215e+01	-1.678028e+01
8.669000e+01	-1.682840e+01
8.719071e+01	-1.687823e+01
8.769432e+01	-1.692642e+01
8.820084e+01	-1.697574e+01
8.871029e+01	-1.702420e+01
8.922267e+01	-1.707440e+01
8.973802e+01	-1.712302e+01
9.025634e+01	-1.717118e+01
9.077766e+01	-1.722119e+01
9.130199e+01	-1.727033e+01
9.182935e+01	-1.731818e+01
9.235975e+01	-1.736853e+01
9.289321e+01	-1.741778e+01
9.342976e+01	-1.746695e+01
9.396941e+01	-1.751635e+01
9.451217e+01	-1.756357e+01
9.505807e+01	-1.761435e+01
9.560712e+01	-1.766297e+01
9.615934e+01	-1.771343e+01
9.671476e+01	-1.776142e+01
9.727338e+01	-1.781113e+01
9.783522e+01	-1.786047e+01
9.840032e+01	-1.790926e+01
9.896867e+01	-1.795918e+01
9.954031e+01	-1.800790e+01
1.001153e+02	-1.805685e+01
1.006935e+02	-1.810706e+01
1.012751e+02	-1.815584e+01
1.018601e+02	-1.820582e+01
1.024484e+02	-1.825493e+01
1.030402e+02	-1.830235e+01
1.036353e+02	-1.835349e+01
1.042339e+02	-1.840210e+01
1.048360e+02	-1.845310e+01
1.054415e+02	-1.850193e+01
1.060505e+02	-1.855025e+01
1.066631e+02	-1.859924e+01
1.072791e+02	-1.864912e+01
1.078988e+02	-1.869710e+01
1.085220e+02	-1.874841e+01
1.091488e+02	-1.879638e+01
1.097793e+02	-1.884598e+01
1.104133e+02	-1.889587e+01
1.110511e+02	-1.894369e+01
1.116925e+02	-1.899402e+01
1.123376e+02	-1.904260e+01
1.129865e+02	-1.909300e+01
1.136391e+02	-1.914287e+01
1.142955e+02	-1.919180e+01
1.149556e+02	-1.924115e+01
1.156196e+02	-1.929252e+01
1.162874e+02	-1.934058e+01
1.169591e+02	-1.939026e+01
1.176347e+02	-1.943969e+01
1.183141e+02	-1.948815e+01
1.189975e+02	-1.953837e+01
1.196848e+02	-1.958788e+01
1.203761e+02	-1.963826e+01
1.210714e+02	-1.968663e+01
1.217707e+02	-1.973518e+01
1.224740e+02	-1.978662e+01
1.231814e+02	-1.983639e+01
1.238929e+02	-1.988572e+01
1.246085e+02	-1.993555e+01
1.253283e+02	-1.998241e+01
1.260522e+02	-2.003496e+01
1.267802e+02	-2.008231e+01
1.275125e+02	-2.013325e+01
1.282490e+02	-2.018366e+01
1.289898e+02	-2.023176e+01
1.297348e+02	-2.028192e+01
1.304842e+02	-2.032968e+01
1.312378e+02	-2.038019e+01
1.319959e+02	-2.042969e+01
1.327583e+02	-2.048013e+01
1.335251e+02	-2.052965e+01
1.342963e+02	-2.057920e+01
1.350720e+02	-2.062670e+01
1.358522e+02	-2.067923e+01
1.366368e+02	-2.072676e+01
1.374260e+02	-2.077646e+01
1.382198e+02	-2.082735e+01
1.390182e+02	-2.087679e+01
1.398211e+02	-2.092767e+01
1.406287e+02	-2.097513e+01
1.414410e+02	-2.102520e+01
1.422579e+02	-2.107566e+01
1.430796e+02	-2.112233e+01
1.439060e+02	-2.117276e+01
1.447372e+02	-2.122462e+01
1.455732e+02	-2.127530e+01
1.464141e+02	-2.132303e+01
1.472597e+02	-2.137278e+01
1.481103e+02	-2.142225e+01
1.489658e+02	-2.147235e+01
1.498262e+02	-2.152198e+01
1.506916e+02	-2.157124e+01
1.515620e+02	-2.162091e+01
1.524374e+02	-2.166983e+01
1.533179e+02	-2.172195e+01
1.542034e+02	-2.177154e+01
1.550941e+02	-2.181975e+01
1.559899e+02	-2.187098e+01
1.568909e+02	-2.192048e+01
1.577971e+02	-2.196949e+01
1.587085e+02	-2.201755e+01
1.596252e+02	-2.206929e+01
1.605472e+02	-2.211782e+01
1.614745e+02	-2.216879e+01
1.624072e+02	-2.221808e+01
1.633453e+02	-2.226768e+01
1.642887e+02	-2.231793e+01
1.652377e+02	-2.236775e+01
1.661921e+02	-2.241552e+01
1.671520e+02	-2.246767e+01
1.681175e+02	-2.251771e+01
1.690885e+02	-2.256727e+01
1.700651e+02	-2.261525e+01
1.710474e+02	-2.266575e+01
1.720354e+02	-2.271626e+01
1.730291e+02	-2.276625e+01
1.740285e+02	-2.281611e+01
1.750337e+02	-2.286653e+01
1.760446e+02	-2.291358e+01
1.770615e+02	-2.296343e+01
1.780842e+02	-2.301582e+01
1.791128e+02	-2.306424e+01
1.801473e+02	-2.311461e+01
1.811878e+02	-2.316535e+01
1.822344e+02	-2.321542e+01
1.832870e+02	-2.326392e+01
1.843456e+02	-2.331404e+01
1.854104e+02	-2.336506e+01
1.864813e+02	-2.341401e+01
1.875584e+02	-2.346191e+01
1.886418e+02	-2.351535e+01
1.897313e+02	-2.356117e+01
1.908272e+02	-2.361059e+01
1.919294e+02	-2.366090e+01
1.930380e+02	-2.371391e+01
1.941530e+02	-2.376211e+01
1.952744e+02	-2.381073e+01
1.964023e+02	-2.385999e+01
1.975367e+02	-2.390865e+01
1.986777e+02	-2.395824e+01
1.998252e+02	-2.401222e+01
2.009794e+02	-2.406196e+01
2.021403e+02	-2.410988e+01
2.033078e+02	-2.416167e+01
2.044821e+02	-2.421430e+01
2.056632e+02	-2.425958e+01
2.068511e+02	-2.431087e+01
2.080459e+02	-2.436066e+01
2.092475e+02	-2.441208e+01
2.104561e+02	-2.445809e+01
2.116717e+02	-2.451026e+01
2.128943e+02	-2.455825e+01
2.141240e+02	-2.460957e+01
2.153608e+02	-2.465804e+01
2.166047e+02	-2.471067e+01
2.178558e+02	-2.476027e+01
2.191141e+02	-2.480724e+01
2.203797e+02	-2.486038e+01
2.216526e+02	-2.490793e+01
2.229329e+02	-2.496035e+01
2.242205e+02	-2.501022e+01
2.255156e+02	-2.505825e+01
2.268182e+02	-2.510933e+01
2.281283e+02	-2.515822e+01
2.294459e+02	-2.520632e+01
2.307712e+02	-2.526207e+01
2.321041e+02	-2.531024e+01
2.334447e+02	-2.535632e+01
2.347931e+02	-2.540669e+01
2.361493e+02	-2.545895e+01
2.375133e+02	-2.550618e+01
2.388851e+02	-2.555770e+01
2.402649e+02	-2.560933e+01
2.416527e+02	-2.565568e+01
2.430484e+02	-2.570861e+01
2.444523e+02	-2.575838e+01
2.458642e+02	-2.580925e+01
2.472843e+02	-2.585830e+01
2.487126e+02	-2.590995e+01
2.501492e+02	-2.595714e+01
2.515940e+02	-2.600742e+01
2.530472e+02	-2.605875e+01
2.545088e+02	-2.611066e+01
2.559789e+02	-2.615705e+01
2.574574e+02	-2.620555e+01
2.589444e+02	-2.625745e+01
2.604401e+02	-2.630686e+01
2.619444e+02	-2.635526e+01
2.634574e+02	-2.640657e+01
2.649791e+02	-2.645430e+01
2.665096e+02	-2.650649e+01
2.680489e+02	-2.655727e+01
2.695972e+02	-2.660748e+01
2.711544e+02	-2.665464e+01
2.727205e+02	-2.670704e+01
2.742958e+02	-2.675860e+01
2.758801e+02	-2.680732e+01
2.774736e+02	-2.685853e+01
2.790762e+02	-2.690835e+01
2.806882e+02	-2.695528e+01
2.823094e+02	-2.700583e+01
2.839400e+02	-2.705818e+01
2.855800e+02	-2.710902e+01
2.872295e+02	-2.715683e+01
2.888886e+02	-2.720220e+01
2.905572e+02	-2.725770e+01
2.922354e+02	-2.730433e+01
2.939234e+02	-2.735960e+01
2.956211e+02	-2.740686e+01
2.973286e+02	-2.745404e+01
2.990459e+02	-2.750597e+01
3.007732e+02	-2.755712e+01
3.025104e+02	-2.760723e+01
3.042577e+02	-2.765416e+01
3.060151e+02	-2.771121e+01
3.077826e+02	-2.775811e+01
3.095604e+02	-2.780689e+01
3.113484e+02	-2.785765e+01
3.131467e+02	-2.790988e+01
3.149554e+02	-2.795825e+01
3.167746e+02	-2.800392e+01
3.186043e+02	-2.805883e+01
3.204445e+02	-2.810914e+01
3.222954e+02	-2.815676e+01
3.241570e+02	-2.820743e+01
3.260293e+02	-2.825462e+01
3.279124e+02	-2.831025e+01
3.298064e+02	-2.835997e+01
3.317114e+02	-2.840636e+01
3.336273e+02	-2.845934e+01
3.355544e+02	-2.851145e+01
3.374925e+02	-2.855631e+01
3.394418e+02	-2.860619e+01
3.414024e+02	-2.865770e+01
3.433744e+02	-2.870982e+01
3.453577e+02	-2.875479e+01
3.473525e+02	-2.880479e+01
3.493588e+02	-2.885757e+01
3.513766e+02	-2.890514e+01
3.534062e+02	-2.896038e+01
3.554474e+02	-2.900987e+01
3.575005e+02	-2.905916e+01
3.595654e+02	-2.910804e+01
3.616422e+02	-2.915640e+01
3.637311e+02	-2.920742e+01
3.658320e+02	-2.926196e+01
3.679450e+02	-2.931088e+01
3.700702e+02	-2.935792e+01
3.722077e+02	-2.941272e+01
3.743576e+02	-2.945688e+01
3.765199e+02	-2.951063e+01
3.786946e+02	-2.956384e+01
3.808820e+02	-2.961140e+01
3.830819e+02	-2.966119e+01
3.852946e+02	-2.971151e+01
3.875200e+02	-2.976233e+01
3.897583e+02	-2.980915e+01
3.920096e+02	-2.986335e+01
3.942738e+02	-2.991429e+01
3.965511e+02	-2.995903e+01
3.988416e+02	-3.000693e+01
4.011452e+02	-3.005737e+01
4.034622e+02	-3.011331e+01
4.057926e+02	-3.016140e+01
4.081365e+02	-3.021119e+01
4.104938e+02	-3.025714e+01
4.128648e+02	-3.031112e+01
4.152495e+02	-3.036225e+01
4.176480e+02	-3.041345e+01
4.200603e+02	-3.046003e+01
4.224866e+02	-3.050954e+01
4.249268e+02	-3.056458e+01
4.273812e+02	-3.061372e+01
4.298497e+02	-3.065836e+01
4.323325e+02	-3.071260e+01
4.348297e+02	-3.076801e+01
4.373412e+02	-3.081036e+01
4.398673e+02	-3.086243e+01
4.424079e+02	-3.092122e+01
4.449633e+02	-3.095621e+01
4.475334e+02	-3.101133e+01
4.501183e+02	-3.106293e+01
4.527182e+02	-3.111213e+01
4.553330e+02	-3.116496e+01
4.579630e+02	-3.121222e+01
4.606082e+02	-3.126423e+01
4.632687e+02	-3.131333e+01
4.659445e+02	-3.135961e+01
4.686358e+02	-3.141203e+01
4.713426e+02	-3.146265e+01
4.740650e+02	-3.151862e+01
4.768032e+02	-3.156845e+01
4.795572e+02	-3.162017e+01
4.823271e+02	-3.166415e+01
4.851130e+02	-3.171822e+01
4.879150e+02	-3.176375e+01
4.907332e+02	-3.181819e+01
4.935676e+02	-3.186499e+01
4.964185e+02	-3.191923e+01
4.992858e+02	-3.196848e+01
5.021696e+02	-3.201950e+01
5.050701e+02	-3.206226e+01
5.079874e+02	-3.211460e+01
5.109215e+02	-3.215965e+01
5.138726e+02	-3.221609e+01
5.168407e+02	-3.226358e+01
5.198259e+02	-3.231078e+01
5.228284e+02	-3.236580e+01
5.258482e+02	-3.241375e+01
5.288855e+02	-3.247273e+01
5.319403e+02	-3.251821e+01
5.350128e+02	-3.256823e+01
5.381030e+02	-3.262039e+01
5.412111e+02	-3.266879e+01
5.443371e+02	-3.271638e+01
5.474812e+02	-3.276855e+01
5.506434e+02	-3.281948e+01
5.538239e+02	-3.287288e+01
5.570228e+02	-3.291858e+01
5.602401e+02	-3.297612e+01
5.634760e+02	-3.302570e+01
5.667306e+02	-3.307197e+01
5.700040e+02	-3.312303e+01
5.732964e+02	-3.317417e+01
5.766077e+02	-3.322442e+01
5.799382e+02	-3.327291e+01
5.832879e+02	-3.332035e+01
5.866569e+02	-3.337323e+01
5.900454e+02	-3.342190e+01
5.934535e+02	-3.347802e+01
5.968813e+02	-3.353371e+01
6.003288e+02	-3.357625e+01
6.037963e+02	-3.362356e+01
6.072838e+02	-3.368738e+01
6.107914e+02	-3.373143e+01
6.143194e+02	-3.378043e+01
6.178676e+02	-3.382613e+01
6.214364e+02	-3.387907e+01
6.250258e+02	-3.392588e+01
6.286359e+02	-3.398119e+01
6.322669e+02	-3.402458e+01
6.359189e+02	-3.408382e+01
6.395919e+02	-3.411808e+01
6.432862e+02	-3.417585e+01
6.470017e+02	-3.423431e+01
6.507388e+02	-3.428126e+01
6.544974e+02	-3.434213e+01
6.582778e+02	-3.438140e+01
6.620800e+02	-3.443530e+01
6.659041e+02	-3.448517e+01
6.697504e+02	-3.452830e+01
6.736188e+02	-3.458463e+01
6.775096e+02	-3.462741e+01
6.814229e+02	-3.469222e+01
6.853587e+02	-3.473924e+01
6.893173e+02	-3.478517e+01
6.932988e+02	-3.484039e+01
6.973033e+02	-3.488445e+01
7.013309e+02	-3.493734e+01
