Frequency(Hz)	Magnitude(dB)
1.000000e+01	-2.124541e+00
1.005776e+01	-2.143973e+00
1.011585e+01	-2.163374e+00
1.017428e+01	-2.183092e+00
1.023305e+01	-2.203052e+00
1.029215e+01	-2.223008e+00
1.035160e+01	-2.243083e+00
1.041139e+01	-2.263099e+00
1.047153e+01	-2.283756e+00
1.053201e+01	-2.304157e+00
1.059284e+01	-2.324789e+00
1.065403e+01	-2.345790e+00
1.071556e+01	-2.366832e+00
1.077746e+01	-2.387643e+00
1.083971e+01	-2.408870e+00
1.090232e+01	-2.430277e+00
1.096529e+01	-2.451814e+00
1.102862e+01	-2.473596e+00
1.109232e+01	-2.494991e+00
1.115639e+01	-2.517127e+00
1.122083e+01	-2.539292e+00
1.128564e+01	-2.561418e+00
1.135083e+01	-2.583711e+00
1.141639e+01	-2.606333e+00
1.148233e+01	-2.628784e+00
1.154865e+01	-2.651630e+00
1.161536e+01	-2.674843e+00
1.168245e+01	-2.697930e+00
1.174992e+01	-2.721091e+00
1.181779e+01	-2.744175e+00
1.188605e+01	-2.767770e+00
1.195470e+01	-2.791363e+00
1.202375e+01	-2.815355e+00
1.209320e+01	-2.839127e+00
1.216305e+01	-2.863325e+00
1.223330e+01	-2.887430e+00
1.230396e+01	-2.911908e+00
1.237503e+01	-2.936343e+00
1.244651e+01	-2.960773e+00
1.251840e+01	-2.985741e+00
1.259070e+01	-3.010552e+00
1.266343e+01	-3.036057e+00
1.273657e+01	-3.061246e+00
1.281014e+01	-3.086788e+00
1.288413e+01	-3.111870e+00
1.295855e+01	-3.137562e+00
1.303339e+01	-3.163453e+00
1.310867e+01	-3.189347e+00
1.318439e+01	-3.215529e+00
1.326054e+01	-3.241542e+00
1.333713e+01	-3.268270e+00
1.341417e+01	-3.294790e+00
1.349165e+01	-3.321411e+00
1.356958e+01	-3.348158e+00
1.364795e+01	-3.375153e+00
1.372678e+01	-3.402095e+00
1.380607e+01	-3.429489e+00
1.388581e+01	-3.456925e+00
1.396602e+01	-3.484172e+00
1.404668e+01	-3.512125e+00
1.412782e+01	-3.539886e+00
1.420942e+01	-3.568058e+00
1.429149e+01	-3.596043e+00
1.437404e+01	-3.624343e+00
1.445706e+01	-3.652529e+00
1.454057e+01	-3.681170e+00
1.462455e+01	-3.709943e+00
1.470902e+01	-3.738470e+00
1.479398e+01	-3.767589e+00
1.487943e+01	-3.796294e+00
1.496537e+01	-3.825499e+00
1.505181e+01	-3.854984e+00
1.513875e+01	-3.884741e+00
1.522619e+01	-3.914128e+00
1.531414e+01	-3.944022e+00
1.540259e+01	-3.974121e+00
1.549156e+01	-4.004056e+00
1.558103e+01	-4.034217e+00
1.567103e+01	-4.064614e+00
1.576155e+01	-4.095279e+00
1.585258e+01	-4.125762e+00
1.594415e+01	-4.156758e+00
1.603624e+01	-4.187089e+00
1.612886e+01	-4.218201e+00
1.622202e+01	-4.249718e+00
1.631572e+01	-4.280853e+00
1.640996e+01	-4.312206e+00
1.650474e+01	-4.343774e+00
1.660008e+01	-4.375538e+00
1.669596e+01	-4.407197e+00
1.679239e+01	-4.439095e+00
1.688938e+01	-4.471228e+00
1.698694e+01	-4.503653e+00
1.708505e+01	-4.536013e+00
1.718373e+01	-4.568416e+00
1.728299e+01	-4.601039e+00
1.738281e+01	-4.633739e+00
1.748322e+01	-4.666621e+00
1.758420e+01	-4.699635e+00
1.768576e+01	-4.732631e+00
1.778792e+01	-4.765913e+00
1.789066e+01	-4.799377e+00
1.799399e+01	-4.832847e+00
1.809793e+01	-4.866732e+00
1.820246e+01	-4.900640e+00
1.830760e+01	-4.934053e+00
1.841334e+01	-4.968506e+00
1.851969e+01	-5.002327e+00
1.862666e+01	-5.036463e+00
1.873425e+01	-5.071143e+00
1.884246e+01	-5.105690e+00
1.895129e+01	-5.140260e+00
1.906075e+01	-5.175174e+00
1.917085e+01	-5.210116e+00
1.928158e+01	-5.244966e+00
1.939295e+01	-5.280015e+00
1.950496e+01	-5.315848e+00
1.961762e+01	-5.350749e+00
1.973093e+01	-5.386173e+00
1.984490e+01	-5.421984e+00
1.995952e+01	-5.457462e+00
2.007480e+01	-5.493649e+00
2.019076e+01	-5.529187e+00
2.030738e+01	-5.565415e+00
2.042467e+01	-5.601627e+00
2.054264e+01	-5.638104e+00
2.066130e+01	-5.674237e+00
2.078064e+01	-5.711041e+00
2.090066e+01	-5.747440e+00
2.102139e+01	-5.784433e+00
2.114280e+01	-5.821163e+00
2.126492e+01	-5.857774e+00
2.138775e+01	-5.895461e+00
2.151128e+01	-5.932432e+00
2.163553e+01	-5.969746e+00
2.176050e+01	-6.007409e+00
2.188619e+01	-6.044993e+00
2.201260e+01	-6.082458e+00
2.213974e+01	-6.120145e+00
2.226762e+01	-6.158048e+00
2.239624e+01	-6.196096e+00
2.252560e+01	-6.234120e+00
2.265571e+01	-6.272429e+00
2.278656e+01	-6.310439e+00
2.291818e+01	-6.348912e+00
2.305055e+01	-6.387245e+00
2.318369e+01	-6.425668e+00
2.331760e+01	-6.464598e+00
2.345228e+01	-6.503779e+00
2.358774e+01	-6.542373e+00
2.372398e+01	-6.581374e+00
2.386101e+01	-6.620368e+00
2.399883e+01	-6.659505e+00
2.413745e+01	-6.698919e+00
2.427686e+01	-6.738279e+00
2.441709e+01	-6.777580e+00
2.455812e+01	-6.816932e+00
2.469997e+01	-6.856904e+00
2.484263e+01	-6.896827e+00
2.498612e+01	-6.936739e+00
2.513044e+01	-6.976405e+00
2.527559e+01	-7.016237e+00
2.542158e+01	-7.056485e+00
2.556842e+01	-7.096937e+00
2.571610e+01	-7.137138e+00
2.586463e+01	-7.177412e+00
2.601403e+01	-7.217812e+00
2.616428e+01	-7.258693e+00
2.631541e+01	-7.299781e+00
2.646740e+01	-7.339833e+00
2.662028e+01	-7.380872e+00
2.677404e+01	-7.421547e+00
2.692868e+01	-7.462823e+00
2.708422e+01	-7.504111e+00
2.724066e+01	-7.545252e+00
2.739800e+01	-7.586458e+00
2.755625e+01	-7.627873e+00
2.771541e+01	-7.669395e+00
2.787550e+01	-7.710817e+00
2.803650e+01	-7.752118e+00
2.819844e+01	-7.793718e+00
2.836131e+01	-7.835582e+00
2.852513e+01	-7.877214e+00
2.868989e+01	-7.919385e+00
2.885560e+01	-7.960848e+00
2.902227e+01	-8.003268e+00
2.918990e+01	-8.045827e+00
2.935850e+01	-8.087866e+00
2.952807e+01	-8.129725e+00
2.969863e+01	-8.172561e+00
2.987016e+01	-8.214963e+00
3.004269e+01	-8.256883e+00
3.021622e+01	-8.299971e+00
3.039075e+01	-8.342606e+00
3.056628e+01	-8.385373e+00
3.074283e+01	-8.427777e+00
3.092040e+01	-8.470968e+00
3.109900e+01	-8.513789e+00
3.127862e+01	-8.557149e+00
3.145929e+01	-8.600304e+00
3.164099e+01	-8.642768e+00
3.182375e+01	-8.686599e+00
3.200756e+01	-8.729431e+00
3.219244e+01	-8.773035e+00
3.237838e+01	-8.816934e+00
3.256540e+01	-8.859608e+00
3.275349e+01	-8.903831e+00
3.294268e+01	-8.947055e+00
3.313295e+01	-8.991270e+00
3.332433e+01	-9.034745e+00
3.351681e+01	-9.078736e+00
3.371040e+01	-9.121869e+00
3.390511e+01	-9.166136e+00
3.410094e+01	-9.210024e+00
3.429791e+01	-9.254346e+00
3.449601e+01	-9.298254e+00
3.469526e+01	-9.342673e+00
3.489566e+01	-9.386988e+00
3.509721e+01	-9.430815e+00
3.529993e+01	-9.475094e+00
3.550382e+01	-9.519602e+00
3.570889e+01	-9.564207e+00
3.591515e+01	-9.608719e+00
3.612259e+01	-9.653626e+00
3.633123e+01	-9.697482e+00
3.654108e+01	-9.742912e+00
3.675214e+01	-9.787375e+00
3.696442e+01	-9.832259e+00
3.717792e+01	-9.876787e+00
3.739266e+01	-9.921961e+00
3.760864e+01	-9.967334e+00
3.782587e+01	-1.001226e+01
3.804435e+01	-1.005747e+01
3.826409e+01	-1.010255e+01
3.848510e+01	-1.014798e+01
3.870739e+01	-1.019235e+01
3.893096e+01	-1.023814e+01
3.915583e+01	-1.028344e+01
3.938199e+01	-1.032847e+01
3.960946e+01	-1.037416e+01
3.983824e+01	-1.041939e+01
4.006834e+01	-1.046532e+01
4.029978e+01	-1.051081e+01
4.053255e+01	-1.055623e+01
4.076666e+01	-1.060181e+01
4.100213e+01	-1.064817e+01
4.123896e+01	-1.069363e+01
4.147715e+01	-1.073902e+01
4.171672e+01	-1.078480e+01
4.195767e+01	-1.083078e+01
4.220002e+01	-1.087687e+01
4.244377e+01	-1.092206e+01
4.268892e+01	-1.096847e+01
4.293549e+01	-1.101447e+01
4.318348e+01	-1.106077e+01
4.343291e+01	-1.110703e+01
4.368377e+01	-1.115294e+01
4.393609e+01	-1.119930e+01
4.418986e+01	-1.124533e+01
4.444510e+01	-1.129198e+01
4.470182e+01	-1.133785e+01
4.496001e+01	-1.138450e+01
4.521970e+01	-1.143039e+01
4.548089e+01	-1.147737e+01
4.574358e+01	-1.152385e+01
4.600779e+01	-1.157016e+01
4.627353e+01	-1.161717e+01
4.654081e+01	-1.166366e+01
4.680963e+01	-1.171006e+01
4.708000e+01	-1.175646e+01
4.735193e+01	-1.180365e+01
4.762543e+01	-1.185051e+01
4.790051e+01	-1.189671e+01
4.817719e+01	-1.194355e+01
4.845545e+01	-1.199018e+01
4.873533e+01	-1.203725e+01
4.901682e+01	-1.208468e+01
4.929994e+01	-1.213168e+01
4.958470e+01	-1.217818e+01
4.987110e+01	-1.222495e+01
5.015915e+01	-1.227282e+01
5.044887e+01	-1.231871e+01
5.074026e+01	-1.236718e+01
5.103333e+01	-1.241352e+01
5.132810e+01	-1.246105e+01
5.162457e+01	-1.250826e+01
5.192275e+01	-1.255511e+01
5.222265e+01	-1.260215e+01
5.252429e+01	-1.265018e+01
5.282767e+01	-1.269738e+01
5.313280e+01	-1.274491e+01
5.343969e+01	-1.279105e+01
5.374836e+01	-1.283910e+01
5.405880e+01	-1.288743e+01
5.437105e+01	-1.293417e+01
5.468509e+01	-1.298192e+01
5.500095e+01	-1.302984e+01
5.531863e+01	-1.307646e+01
5.563815e+01	-1.312441e+01
5.595951e+01	-1.317222e+01
5.628273e+01	-1.322075e+01
5.660782e+01	-1.326748e+01
5.693479e+01	-1.331547e+01
5.726364e+01	-1.336331e+01
5.759439e+01	-1.341016e+01
5.792705e+01	-1.345795e+01
5.826164e+01	-1.350597e+01
5.859815e+01	-1.355415e+01
5.893662e+01	-1.360183e+01
5.927703e+01	-1.365028e+01
5.961941e+01	-1.369799e+01
5.996377e+01	-1.374602e+01
6.031012e+01	-1.379381e+01
6.065847e+01	-1.384110e+01
6.100883e+01	-1.388904e+01
6.136121e+01	-1.393655e+01
6.171563e+01	-1.398571e+01
6.207210e+01	-1.403348e+01
6.243063e+01	-1.408125e+01
6.279122e+01	-1.412919e+01
6.315390e+01	-1.417803e+01
6.351868e+01	-1.422568e+01
6.388556e+01	-1.427363e+01
6.425456e+01	-1.432154e+01
6.462569e+01	-1.436968e+01
6.499897e+01	-1.441827e+01
6.537440e+01	-1.446650e+01
6.575200e+01	-1.451389e+01
6.613178e+01	-1.456325e+01
6.651375e+01	-1.461179e+01
6.689793e+01	-1.465976e+01
6.728433e+01	-1.470875e+01
6.767297e+01	-1.475590e+01
6.806384e+01	-1.480450e+01
6.845698e+01	-1.485271e+01
6.885238e+01	-1.490140e+01
6.925007e+01	-1.494994e+01
6.965005e+01	-1.499834e+01
7.005235e+01	-1.504662e+01
7.045697e+01	-1.509493e+01
7.086393e+01	-1.514401e+01
7.127323e+01	-1.519222e+01
7.168490e+01	-1.524059e+01
7.209895e+01	-1.528953e+01
7.251539e+01	-1.533703e+01
7.293424e+01	-1.538616e+01
7.335551e+01	-1.543467e+01
7.377920e+01	-1.548430e+01
7.420535e+01	-1.553259e+01
7.463396e+01	-1.558192e+01
7.506504e+01	-1.563050e+01
7.549861e+01	-1.567797e+01
7.593469e+01	-1.572624e+01
7.637328e+01	-1.577603e+01
7.681441e+01	-1.582512e+01
7.725809e+01	-1.587316e+01
7.770433e+01	-1.592110e+01
7.815315e+01	-1.597138e+01
7.860456e+01	-1.601934e+01
7.905857e+01	-1.606963e+01
7.951521e+01	-1.611676e+01
7.997449e+01	-1.616539e+01
8.043642e+01	-1.621467e+01
8.090102e+01	-1.626361e+01
8.136830e+01	-1.631193e+01
8.183828e+01	-1.636042e+01
8.231097e+01	-1.641077e+01
8.278640e+01	-1.645929e+01
8.326457e+01	-1.650794e+01
8.374550e+01	-1.655707e+01
8.422921e+01	-1.660636e+01
8.471572e+01	-1.665445e+01
8.520503e+01	-1.670364e+01
8.569717e+01	-1.675230e+01
8.619215e+01	-1.680050e+01
8.669000e+01	-1.685079e+01
8.719071e+01	-1.689964e+01
8.769432e+01	-1.694771e+01
8.820084e+01	-1.699791e+01
8.871029e+01	-1.704681e+01
8.922267e+01	-1.709581e+01
8.973802e+01	-1.714552e+01
9.025634e+01	-1.719353e+01
9.077766e+01	-1.724259e+01
9.130199e+01	-1.729103e+01
9.182935e+01	-1.734180e+01
9.235975e+01	-1.739034e+01
9.289321e+01	-1.743930e+01
9.342976e+01	-1.748920e+01
9.396941e+01	-1.753692e+01
9.451217e+01	-1.758743e+01
9.505807e+01	-1.763630e+01
9.560712e+01	-1.768492e+01
9.615934e+01	-1.773530e+01
9.671476e+01	-1.778270e+01
9.727338e+01	-1.783292e+01
9.783522e+01	-1.788203e+01
9.840032e+01	-1.793194e+01
9.896867e+01	-1.797953e+01
9.954031e+01	-1.803089e+01
1.001153e+02	-1.807828e+01
1.006935e+02	-1.812825e+01
1.012751e+02	-1.817789e+01
1.018601e+02	-1.822691e+01
1.024484e+02	-1.827502e+01
1.030402e+02	-1.832398e+01
1.036353e+02	-1.837460e+01
1.042339e+02	-1.842181e+01
1.048360e+02	-1.847256e+01
1.054415e+02	-1.852212e+01
1.060505e+02	-1.857112e+01
1.066631e+02	-1.862122e+01
1.072791e+02	-1.867080e+01
1.078988e+02	-1.871957e+01
1.085220e+02	-1.876894e+01
1.091488e+02	-1.881924e+01
1.097793e+02	-1.886830e+01
1.104133e+02	-1.891884e+01
1.110511e+02	-1.896655e+01
1.116925e+02	-1.901616e+01
1.123376e+02	-1.906615e+01
1.129865e+02	-1.911378e+01
1.136391e+02	-1.916393e+01
1.142955e+02	-1.921420e+01
1.149556e+02	-1.926227e+01
1.156196e+02	-1.931249e+01
1.162874e+02	-1.936108e+01
1.169591e+02	-1.941220e+01
1.176347e+02	-1.946080e+01
1.183141e+02	-1.951040e+01
1.189975e+02	-1.955939e+01
1.196848e+02	-1.960908e+01
1.203761e+02	-1.966034e+01
1.210714e+02	-1.971078e+01
1.217707e+02	-1.975755e+01
1.224740e+02	-1.980777e+01
1.231814e+02	-1.985749e+01
1.238929e+02	-1.990731e+01
1.246085e+02	-1.995619e+01
1.253283e+02	-2.000736e+01
1.260522e+02	-2.005550e+01
1.267802e+02	-2.010423e+01
1.275125e+02	-2.015431e+01
1.282490e+02	-2.020458e+01
1.289898e+02	-2.025265e+01
1.297348e+02	-2.030267e+01
1.304842e+02	-2.035249e+01
1.312378e+02	-2.040340e+01
1.319959e+02	-2.045202e+01
1.327583e+02	-2.050066e+01
1.335251e+02	-2.054995e+01
1.342963e+02	-2.060033e+01
1.350720e+02	-2.064958e+01
1.358522e+02	-2.070091e+01
1.366368e+02	-2.074902e+01
1.374260e+02	-2.079918e+01
1.382198e+02	-2.084830e+01
1.390182e+02	-2.089905e+01
1.398211e+02	-2.094699e+01
1.406287e+02	-2.099855e+01
1.414410e+02	-2.104741e+01
1.422579e+02	-2.109612e+01
1.430796e+02	-2.114473e+01
1.439060e+02	-2.119289e+01
1.447372e+02	-2.124560e+01
1.455732e+02	-2.129534e+01
1.464141e+02	-2.134556e+01
1.472597e+02	-2.139412e+01
1.481103e+02	-2.144491e+01
1.489658e+02	-2.149454e+01
1.498262e+02	-2.154350e+01
1.506916e+02	-2.159225e+01
1.515620e+02	-2.164299e+01
1.524374e+02	-2.169206e+01
1.533179e+02	-2.174303e+01
1.542034e+02	-2.179316e+01
1.550941e+02	-2.184183e+01
1.559899e+02	-2.189110e+01
1.568909e+02	-2.194284e+01
1.577971e+02	-2.199269e+01
1.587085e+02	-2.203959e+01
1.596252e+02	-2.209219e+01
1.605472e+02	-2.214061e+01
1.614745e+02	-2.218892e+01
1.624072e+02	-2.224042e+01
1.633453e+02	-2.228748e+01
1.642887e+02	-2.233925e+01
1.652377e+02	-2.238957e+01
1.661921e+02	-2.243955e+01
1.671520e+02	-2.248829e+01
1.681175e+02	-2.253862e+01
1.690885e+02	-2.259008e+01
1.700651e+02	-2.263799e+01
1.710474e+02	-2.268680e+01
1.720354e+02	-2.273854e+01
1.730291e+02	-2.278824e+01
1.740285e+02	-2.283648e+01
1.750337e+02	-2.288660e+01
1.760446e+02	-2.293631e+01
1.770615e+02	-2.298505e+01
1.780842e+02	-2.303738e+01
1.791128e+02	-2.308620e+01
1.801473e+02	-2.313663e+01
1.811878e+02	-2.318773e+01
1.822344e+02	-2.323667e+01
1.832870e+02	-2.328439e+01
1.843456e+02	-2.333569e+01
1.854104e+02	-2.338376e+01
1.864813e+02	-2.343541e+01
1.875584e+02	-2.348343e+01
1.886418e+02	-2.353682e+01
1.897313e+02	-2.358442e+01
1.908272e+02	-2.363487e+01
1.919294e+02	-2.368346e+01
1.930380e+02	-2.373447e+01
1.941530e+02	-2.378475e+01
1.952744e+02	-2.383516e+01
1.964023e+02	-2.388294e+01
1.975367e+02	-2.393312e+01
1.986777e+02	-2.398337e+01
1.998252e+02	-2.403344e+01
2.009794e+02	-2.408314e+01
2.021403e+02	-2.413289e+01
2.033078e+02	-2.418349e+01
2.044821e+02	-2.423065e+01
2.056632e+02	-2.428268e+01
2.068511e+02	-2.433315e+01
2.080459e+02	-2.438194e+01
2.092475e+02	-2.443183e+01
2.104561e+02	-2.448196e+01
2.116717e+02	-2.453296e+01
2.128943e+02	-2.457931e+01
2.141240e+02	-2.463156e+01
2.153608e+02	-2.468094e+01
2.166047e+02	-2.473285e+01
2.178558e+02	-2.478280e+01
2.191141e+02	-2.483015e+01
2.203797e+02	-2.488341e+01
2.216526e+02	-2.492900e+01
2.229329e+02	-2.498077e+01
2.242205e+02	-2.503095e+01
2.255156e+02	-2.508332e+01
2.268182e+02	-2.513221e+01
2.281283e+02	-2.518071e+01
2.294459e+02	-2.522799e+01
2.307712e+02	-2.527819e+01
2.321041e+02	-2.532863e+01
2.334447e+02	-2.538131e+01
2.347931e+02	-2.543251e+01
2.361493e+02	-2.547515e+01
2.375133e+02	-2.552982e+01
2.388851e+02	-2.557968e+01
2.402649e+02	-2.562922e+01
2.416527e+02	-2.567964e+01
2.430484e+02	-2.572642e+01
2.444523e+02	-2.577889e+01
2.458642e+02	-2.582996e+01
2.472843e+02	-2.588166e+01
2.487126e+02	-2.592858e+01
2.501492e+02	-2.598069e+01
2.515940e+02	-2.602784e+01
2.530472e+02	-2.608064e+01
2.545088e+02	-2.612719e+01
2.559789e+02	-2.618230e+01
2.574574e+02	-2.622925e+01
2.589444e+02	-2.628202e+01
2.604401e+02	-2.633119e+01
2.619444e+02	-2.637826e+01
2.634574e+02	-2.642849e+01
2.649791e+02	-2.647847e+01
2.665096e+02	-2.652593e+01
2.680489e+02	-2.658027e+01
2.695972e+02	-2.662753e+01
2.711544e+02	-2.667916e+01
2.727205e+02	-2.673004e+01
2.742958e+02	-2.677914e+01
2.758801e+02	-2.682859e+01
2.774736e+02	-2.687484e+01
2.790762e+02	-2.692851e+01
2.806882e+02	-2.697913e+01
2.823094e+02	-2.702863e+01
2.839400e+02	-2.707960e+01
2.855800e+02	-2.713124e+01
2.872295e+02	-2.717860e+01
2.888886e+02	-2.722636e+01
2.905572e+02	-2.727976e+01
2.922354e+02	-2.732820e+01
2.939234e+02	-2.738206e+01
2.956211e+02	-2.743162e+01
2.973286e+02	-2.747848e+01
2.990459e+02	-2.752951e+01
3.007732e+02	-2.757626e+01
3.025104e+02	-2.763054e+01
3.042577e+02	-2.767932e+01
3.060151e+02	-2.772715e+01
3.077826e+02	-2.777726e+01
3.095604e+02	-2.782687e+01
3.113484e+02	-2.787649e+01
3.131467e+02	-2.792903e+01
3.149554e+02	-2.797718e+01
3.167746e+02	-2.803224e+01
3.186043e+02	-2.808335e+01
3.204445e+02	-2.812944e+01
3.222954e+02	-2.817716e+01
3.241570e+02	-2.822935e+01
3.260293e+02	-2.828040e+01
3.279124e+02	-2.832798e+01
3.298064e+02	-2.838302e+01
3.317114e+02	-2.842958e+01
3.336273e+02	-2.848237e+01
3.355544e+02	-2.852704e+01
3.374925e+02	-2.858101e+01
3.394418e+02	-2.862865e+01
3.414024e+02	-2.867960e+01
3.433744e+02	-2.873248e+01
3.453577e+02	-2.877475e+01
3.473525e+02	-2.883037e+01
3.493588e+02	-2.888143e+01
3.513766e+02	-2.892904e+01
3.534062e+02	-2.898138e+01
3.554474e+02	-2.903275e+01
3.575005e+02	-2.907526e+01
3.595654e+02	-2.912893e+01
3.616422e+02	-2.918089e+01
3.637311e+02	-2.923361e+01
3.658320e+02	-2.928045e+01
3.679450e+02	-2.933467e+01
3.700702e+02	-2.938131e+01
3.722077e+02	-2.942967e+01
3.743576e+02	-2.948003e+01
3.765199e+02	-2.952684e+01
3.786946e+02	-2.958427e+01
3.808820e+02	-2.962585e+01
3.830819e+02	-2.968351e+01
3.852946e+02	-2.973360e+01
3.875200e+02	-2.978429e+01
3.897583e+02	-2.983451e+01
3.920096e+02	-2.988049e+01
3.942738e+02	-2.993713e+01
3.965511e+02	-2.998283e+01
3.988416e+02	-3.003337e+01
4.011452e+02	-3.008106e+01
4.034622e+02	-3.013049e+01
4.057926e+02	-3.017892e+01
4.081365e+02	-3.023018e+01
4.104938e+02	-3.028534e+01
4.128648e+02	-3.032991e+01
4.152495e+02	-3.038295e+01
4.176480e+02	-3.043334e+01
4.200603e+02	-3.047874e+01
4.224866e+02	-3.053490e+01
4.249268e+02	-3.058035e+01
4.273812e+02	-3.062774e+01
4.298497e+02	-3.068603e+01
4.323325e+02	-3.073621e+01
4.348297e+02	-3.078489e+01
4.373412e+02	-3.083359e+01
4.398673e+02	-3.088848e+01
4.424079e+02	-3.093405e+01
4.449633e+02	-3.098112e+01
4.475334e+02	-3.103492e+01
4.501183e+02	-3.108353e+01
4.527182e+02	-3.113829e+01
4.553330e+02	-3.118530e+01
4.579630e+02	-3.123381e+01
4.606082e+02	-3.128168e+01
4.632687e+02	-3.134172e+01
4.659445e+02	-3.138710e+01
4.686358e+02	-3.143835e+01
4.713426e+02	-3.148614e+01
4.740650e+02	-3.153774e+01
4.768032e+02	-3.158773e+01
4.795572e+02	-3.163804e+01
4.823271e+02	-3.168300e+01
4.851130e+02	-3.173503e+01
4.879150e+02	-3.178102e+01
4.907332e+02	-3.183909e+01
4.935676e+02	-3.188767e+01
4.964185e+02	-3.193991e+01
4.992858e+02	-3.199236e+01
5.021696e+02	-3.203952e+01
5.050701e+02	-3.208847e+01
5.079874e+02	-3.213963e+01
5.109215e+02	-3.219076e+01
5.138726e+02	-3.223708e+01
5.168407e+02	-3.228860e+01
5.198259e+02	-3.234039e+01
5.228284e+02	-3.239095e+01
5.258482e+02	-3.243454e+01
5.288855e+02	-3.248490e+01
5.319403e+02	-3.254066e+01
5.350128e+02	-3.258518e+01
5.381030e+02	-3.264372e+01
5.412111e+02	-3.269260e+01
5.443371e+02	-3.274783e+01
5.474812e+02	-3.279382e+01
5.506434e+02	-3.284471e+01
5.538239e+02	-3.289496e+01
5.570228e+02	-3.294402e+01
5.602401e+02	-3.299079e+01
5.634760e+02	-3.304559e+01
5.667306e+02	-3.308862e+01
5.700040e+02	-3.314167e+01
5.732964e+02	-3.319064e+01
5.766077e+02	-3.324356e+01
5.799382e+02	-3.329478e+01
5.832879e+02	-3.334865e+01
5.866569e+02	-3.339465e+01
5.900454e+02	-3.344668e+01
5.934535e+02	-3.349830e+01
5.968813e+02	-3.353912e+01
6.003288e+02	-3.359325e+01
6.037963e+02	-3.364880e+01
6.072838e+02	-3.370256e+01
6.107914e+02	-3.374419e+01
6.143194e+02	-3.379550e+01
6.178676e+02	-3.384354e+01
6.214364e+02	-3.389516e+01
6.250258e+02	-3.394981e+01
6.286359e+02	-3.399850e+01
6.322669e+02	-3.405106e+01
6.359189e+02	-3.410038e+01
6.395919e+02	-3.413915e+01
6.432862e+02	-3.419358e+01
6.470017e+02	-3.424780e+01
6.507388e+02	-3.430047e+01
6.544974e+02	-3.434830e+01
6.582778e+02	-3.440156e+01
6.620800e+02	-3.444831e+01
6.659041e+02	-3.450581e+01
6.697504e+02	-3.455993e+01
6.736188e+02	-3.460545e+01
6.775096e+02	-3.465530e+01
6.814229e+02	-3.469946e+01
6.853587e+02	-3.476300e+01
6.893173e+02	-3.480049e+01
6.932988e+02	-3.485934e+01
6.973033e+02	-3.491132e+01
7.013309e+02	-3.495360e+01
