Frequency(Hz)	Magnitude(dB)
1.000000e+01	-2.037082e+00
1.005776e+01	-2.055659e+00
1.011585e+01	-2.074490e+00
1.017428e+01	-2.093693e+00
1.023305e+01	-2.112842e+00
1.029215e+01	-2.132284e+00
1.035160e+01	-2.151564e+00
1.041139e+01	-2.171330e+00
1.047153e+01	-2.190885e+00
1.053201e+01	-2.210869e+00
1.059284e+01	-2.231094e+00
1.065403e+01	-2.251094e+00
1.071556e+01	-2.271227e+00
1.077746e+01	-2.291903e+00
1.083971e+01	-2.312185e+00
1.090232e+01	-2.332997e+00
1.096529e+01	-2.353996e+00
1.102862e+01	-2.374924e+00
1.109232e+01	-2.395982e+00
1.115639e+01	-2.417387e+00
1.122083e+01	-2.438915e+00
1.128564e+01	-2.460090e+00
1.135083e+01	-2.482271e+00
1.141639e+01	-2.503908e+00
1.148233e+01	-2.525759e+00
1.154865e+01	-2.547832e+00
1.161536e+01	-2.570158e+00
1.168245e+01	-2.592843e+00
1.174992e+01	-2.615415e+00
1.181779e+01	-2.638286e+00
1.188605e+01	-2.660789e+00
1.195470e+01	-2.683558e+00
1.202375e+01	-2.707044e+00
1.209320e+01	-2.730265e+00
1.216305e+01	-2.753741e+00
1.223330e+01	-2.777283e+00
1.230396e+01	-2.801044e+00
1.237503e+01	-2.824800e+00
1.244651e+01	-2.848751e+00
1.251840e+01	-2.873098e+00
1.259070e+01	-2.897079e+00
1.266343e+01	-2.921592e+00
1.273657e+01	-2.946048e+00
1.281014e+01	-2.971013e+00
1.288413e+01	-2.995883e+00
1.295855e+01	-3.020806e+00
1.303339e+01	-3.046166e+00
1.310867e+01	-3.071176e+00
1.318439e+01	-3.096706e+00
1.326054e+01	-3.122055e+00
1.333713e+01	-3.147811e+00
1.341417e+01	-3.173728e+00
1.349165e+01	-3.199755e+00
1.356958e+01	-3.226103e+00
1.364795e+01	-3.252281e+00
1.372678e+01	-3.278800e+00
1.380607e+01	-3.305113e+00
1.388581e+01	-3.332248e+00
1.396602e+01	-3.358581e+00
1.404668e+01	-3.386012e+00
1.412782e+01	-3.412852e+00
1.420942e+01	-3.440071e+00
1.429149e+01	-3.467751e+00
1.437404e+01	-3.495234e+00
1.445706e+01	-3.523137e+00
1.454057e+01	-3.550871e+00
1.462455e+01	-3.579057e+00
1.470902e+01	-3.607183e+00
1.479398e+01	-3.635276e+00
1.487943e+01	-3.663809e+00
1.496537e+01	-3.692218e+00
1.505181e+01	-3.721013e+00
1.513875e+01	-3.749903e+00
1.522619e+01	-3.779007e+00
1.531414e+01	-3.807966e+00
1.540259e+01	-3.837339e+00
1.549156e+01	-3.866951e+00
1.558103e+01	-3.896377e+00
1.567103e+01	-3.925989e+00
1.576155e+01	-3.955902e+00
1.585258e+01	-3.986053e+00
1.594415e+01	-4.016051e+00
1.603624e+01	-4.046188e+00
1.612886e+01	-4.076759e+00
1.622202e+01	-4.107251e+00
1.631572e+01	-4.138054e+00
1.640996e+01	-4.168774e+00
1.650474e+01	-4.199682e+00
1.660008e+01	-4.230751e+00
1.669596e+01	-4.261800e+00
1.679239e+01	-4.293458e+00
1.688938e+01	-4.324524e+00
1.698694e+01	-4.356444e+00
1.708505e+01	-4.388132e+00
1.718373e+01	-4.419527e+00
1.728299e+01	-4.451910e+00
1.738281e+01	-4.484114e+00
1.748322e+01	-4.516398e+00
1.758420e+01	-4.548731e+00
1.768576e+01	-4.581111e+00
1.778792e+01	-4.614071e+00
1.789066e+01	-4.646707e+00
1.799399e+01	-4.679522e+00
1.809793e+01	-4.712995e+00
1.820246e+01	-4.746063e+00
1.830760e+01	-4.779264e+00
1.841334e+01	-4.812663e+00
1.851969e+01	-4.846118e+00
1.862666e+01	-4.879848e+00
1.873425e+01	-4.913740e+00
1.884246e+01	-4.947627e+00
1.895129e+01	-4.981971e+00
1.906075e+01	-5.015841e+00
1.917085e+01	-5.050226e+00
1.928158e+01	-5.084781e+00
1.939295e+01	-5.119146e+00
1.950496e+01	-5.154201e+00
1.961762e+01	-5.188786e+00
1.973093e+01	-5.223820e+00
1.984490e+01	-5.258712e+00
1.995952e+01	-5.294278e+00
2.007480e+01	-5.329179e+00
2.019076e+01	-5.364913e+00
2.030738e+01	-5.400131e+00
2.042467e+01	-5.436069e+00
2.054264e+01	-5.471836e+00
2.066130e+01	-5.507879e+00
2.078064e+01	-5.543923e+00
2.090066e+01	-5.579980e+00
2.102139e+01	-5.616312e+00
2.114280e+01	-5.652419e+00
2.126492e+01	-5.688753e+00
2.138775e+01	-5.725421e+00
2.151128e+01	-5.762337e+00
2.163553e+01	-5.799170e+00
2.176050e+01	-5.835848e+00
2.188619e+01	-5.873108e+00
2.201260e+01	-5.909833e+00
2.213974e+01	-5.947452e+00
2.226762e+01	-5.984810e+00
2.239624e+01	-6.022368e+00
2.252560e+01	-6.059573e+00
2.265571e+01	-6.097281e+00
2.278656e+01	-6.135252e+00
2.291818e+01	-6.173258e+00
2.305055e+01	-6.211047e+00
2.318369e+01	-6.249165e+00
2.331760e+01	-6.287225e+00
2.345228e+01	-6.325856e+00
2.358774e+01	-6.364120e+00
2.372398e+01	-6.402603e+00
2.386101e+01	-6.441578e+00
2.399883e+01	-6.480231e+00
2.413745e+01	-6.518962e+00
2.427686e+01	-6.558004e+00
2.441709e+01	-6.596766e+00
2.455812e+01	-6.635875e+00
2.469997e+01	-6.675262e+00
2.484263e+01	-6.714727e+00
2.498612e+01	-6.753928e+00
2.513044e+01	-6.793510e+00
2.527559e+01	-6.833056e+00
2.542158e+01	-6.873056e+00
2.556842e+01	-6.912297e+00
2.571610e+01	-6.952537e+00
2.586463e+01	-6.992056e+00
2.601403e+01	-7.032355e+00
2.616428e+01	-7.072548e+00
2.631541e+01	-7.113000e+00
2.646740e+01	-7.153091e+00
2.662028e+01	-7.193248e+00
2.677404e+01	-7.234053e+00
2.692868e+01	-7.274742e+00
2.708422e+01	-7.315392e+00
2.724066e+01	-7.356376e+00
2.739800e+01	-7.397392e+00
2.755625e+01	-7.437789e+00
2.771541e+01	-7.479333e+00
2.787550e+01	-7.520157e+00
2.803650e+01	-7.561588e+00
2.819844e+01	-7.602564e+00
2.836131e+01	-7.643934e+00
2.852513e+01	-7.685478e+00
2.868989e+01	-7.727053e+00
2.885560e+01	-7.768864e+00
2.902227e+01	-7.810616e+00
2.918990e+01	-7.852311e+00
2.935850e+01	-7.894650e+00
2.952807e+01	-7.936074e+00
2.969863e+01	-7.977990e+00
2.987016e+01	-8.020273e+00
3.004269e+01	-8.062057e+00
3.021622e+01	-8.104597e+00
3.039075e+01	-8.146945e+00
3.056628e+01	-8.188767e+00
3.074283e+01	-8.231555e+00
3.092040e+01	-8.274220e+00
3.109900e+01	-8.317163e+00
3.127862e+01	-8.359567e+00
3.145929e+01	-8.402154e+00
3.164099e+01	-8.445171e+00
3.182375e+01	-8.488069e+00
3.200756e+01	-8.531155e+00
3.219244e+01	-8.573732e+00
3.237838e+01	-8.617083e+00
3.256540e+01	-8.660685e+00
3.275349e+01	-8.703815e+00
3.294268e+01	-8.746792e+00
3.313295e+01	-8.790367e+00
3.332433e+01	-8.833821e+00
3.351681e+01	-8.877679e+00
3.371040e+01	-8.920940e+00
3.390511e+01	-8.964667e+00
3.410094e+01	-9.008025e+00
3.429791e+01	-9.052264e+00
3.449601e+01	-9.096238e+00
3.469526e+01	-9.139833e+00
3.489566e+01	-9.183514e+00
3.509721e+01	-9.228243e+00
3.529993e+01	-9.271824e+00
3.550382e+01	-9.315791e+00
3.570889e+01	-9.359830e+00
3.591515e+01	-9.404982e+00
3.612259e+01	-9.448881e+00
3.633123e+01	-9.493448e+00
3.654108e+01	-9.537821e+00
3.675214e+01	-9.582204e+00
3.696442e+01	-9.626918e+00
3.717792e+01	-9.671482e+00
3.739266e+01	-9.715727e+00
3.760864e+01	-9.760402e+00
3.782587e+01	-9.805472e+00
3.804435e+01	-9.850038e+00
3.826409e+01	-9.894676e+00
3.848510e+01	-9.939919e+00
3.870739e+01	-9.984958e+00
3.893096e+01	-1.003039e+01
3.915583e+01	-1.007473e+01
3.938199e+01	-1.012037e+01
3.960946e+01	-1.016551e+01
3.983824e+01	-1.021048e+01
4.006834e+01	-1.025613e+01
4.029978e+01	-1.030142e+01
4.053255e+01	-1.034679e+01
4.076666e+01	-1.039235e+01
4.100213e+01	-1.043743e+01
4.123896e+01	-1.048264e+01
4.147715e+01	-1.052882e+01
4.171672e+01	-1.057454e+01
4.195767e+01	-1.061997e+01
4.220002e+01	-1.066537e+01
4.244377e+01	-1.071150e+01
4.268892e+01	-1.075668e+01
4.293549e+01	-1.080289e+01
4.318348e+01	-1.084888e+01
4.343291e+01	-1.089505e+01
4.368377e+01	-1.094105e+01
4.393609e+01	-1.098619e+01
4.418986e+01	-1.103347e+01
4.444510e+01	-1.107920e+01
4.470182e+01	-1.112569e+01
4.496001e+01	-1.117148e+01
4.521970e+01	-1.121731e+01
4.548089e+01	-1.126335e+01
4.574358e+01	-1.130999e+01
4.600779e+01	-1.135610e+01
4.627353e+01	-1.140369e+01
4.654081e+01	-1.144937e+01
4.680963e+01	-1.149592e+01
4.708000e+01	-1.154205e+01
4.735193e+01	-1.158914e+01
4.762543e+01	-1.163538e+01
4.790051e+01	-1.168226e+01
4.817719e+01	-1.172865e+01
4.845545e+01	-1.177554e+01
4.873533e+01	-1.182214e+01
4.901682e+01	-1.186806e+01
4.929994e+01	-1.191516e+01
4.958470e+01	-1.196220e+01
4.987110e+01	-1.200938e+01
5.015915e+01	-1.205603e+01
5.044887e+01	-1.210349e+01
5.074026e+01	-1.215016e+01
5.103333e+01	-1.219713e+01
5.132810e+01	-1.224388e+01
5.162457e+01	-1.229133e+01
5.192275e+01	-1.233783e+01
5.222265e+01	-1.238582e+01
5.252429e+01	-1.243238e+01
5.282767e+01	-1.247960e+01
5.313280e+01	-1.252657e+01
5.343969e+01	-1.257422e+01
5.374836e+01	-1.262173e+01
5.405880e+01	-1.266905e+01
5.437105e+01	-1.271602e+01
5.468509e+01	-1.276362e+01
5.500095e+01	-1.281058e+01
5.531863e+01	-1.285833e+01
5.563815e+01	-1.290605e+01
5.595951e+01	-1.295296e+01
5.628273e+01	-1.300025e+01
5.660782e+01	-1.304813e+01
5.693479e+01	-1.309621e+01
5.726364e+01	-1.314273e+01
5.759439e+01	-1.319066e+01
5.792705e+01	-1.323887e+01
5.826164e+01	-1.328608e+01
5.859815e+01	-1.333425e+01
5.893662e+01	-1.338149e+01
5.927703e+01	-1.342897e+01
5.961941e+01	-1.347694e+01
5.996377e+01	-1.352545e+01
6.031012e+01	-1.357358e+01
6.065847e+01	-1.362022e+01
6.100883e+01	-1.366852e+01
6.136121e+01	-1.371675e+01
6.171563e+01	-1.376429e+01
6.207210e+01	-1.381162e+01
6.243063e+01	-1.386049e+01
6.279122e+01	-1.390777e+01
6.315390e+01	-1.395552e+01
6.351868e+01	-1.400426e+01
6.388556e+01	-1.405259e+01
6.425456e+01	-1.410024e+01
6.462569e+01	-1.414865e+01
6.499897e+01	-1.419679e+01
6.537440e+01	-1.424421e+01
6.575200e+01	-1.429282e+01
6.613178e+01	-1.434100e+01
6.651375e+01	-1.438922e+01
6.689793e+01	-1.443722e+01
6.728433e+01	-1.448591e+01
6.767297e+01	-1.453377e+01
6.806384e+01	-1.458222e+01
6.845698e+01	-1.463099e+01
6.885238e+01	-1.467891e+01
6.925007e+01	-1.472695e+01
6.965005e+01	-1.477583e+01
7.005235e+01	-1.482382e+01
7.045697e+01	-1.487318e+01
7.086393e+01	-1.492082e+01
7.127323e+01	-1.496924e+01
7.168490e+01	-1.501790e+01
7.209895e+01	-1.506577e+01
7.251539e+01	-1.511513e+01
7.293424e+01	-1.516171e+01
7.335551e+01	-1.521253e+01
7.377920e+01	-1.526005e+01
7.420535e+01	-1.530877e+01
7.463396e+01	-1.535676e+01
7.506504e+01	-1.540595e+01
7.549861e+01	-1.545432e+01
7.593469e+01	-1.550178e+01
7.637328e+01	-1.555184e+01
7.681441e+01	-1.560124e+01
7.725809e+01	-1.564980e+01
7.770433e+01	-1.569791e+01
7.815315e+01	-1.574598e+01
7.860456e+01	-1.579444e+01
7.905857e+01	-1.584368e+01
7.951521e+01	-1.589261e+01
7.997449e+01	-1.594111e+01
8.043642e+01	-1.598982e+01
8.090102e+01	-1.603811e+01
8.136830e+01	-1.608724e+01
8.183828e+01	-1.613640e+01
8.231097e+01	-1.618488e+01
8.278640e+01	-1.623485e+01
8.326457e+01	-1.628285e+01
8.374550e+01	-1.633172e+01
8.422921e+01	-1.638040e+01
8.471572e+01	-1.642965e+01
8.520503e+01	-1.647785e+01
8.569717e+01	-1.652749e+01
8.619215e+01	-1.657612e+01
8.669000e+01	-1.662486e+01
8.719071e+01	-1.667401e+01
8.769432e+01	-1.672416e+01
8.820084e+01	-1.677273e+01
8.871029e+01	-1.682097e+01
8.922267e+01	-1.687007e+01
8.973802e+01	-1.691881e+01
9.025634e+01	-1.696777e+01
9.077766e+01	-1.701707e+01
9.130199e+01	-1.706732e+01
9.182935e+01	-1.711516e+01
9.235975e+01	-1.716286e+01
9.289321e+01	-1.721347e+01
9.342976e+01	-1.726192e+01
9.396941e+01	-1.731200e+01
9.451217e+01	-1.736160e+01
9.505807e+01	-1.740981e+01
9.560712e+01	-1.745814e+01
9.615934e+01	-1.750815e+01
9.671476e+01	-1.755749e+01
9.727338e+01	-1.760521e+01
9.783522e+01	-1.765547e+01
9.840032e+01	-1.770387e+01
9.896867e+01	-1.775295e+01
9.954031e+01	-1.780230e+01
1.001153e+02	-1.785193e+01
1.006935e+02	-1.790212e+01
1.012751e+02	-1.794939e+01
1.018601e+02	-1.799996e+01
1.024484e+02	-1.804983e+01
1.030402e+02	-1.809968e+01
1.036353e+02	-1.814667e+01
1.042339e+02	-1.819725e+01
1.048360e+02	-1.824555e+01
1.054415e+02	-1.829472e+01
1.060505e+02	-1.834464e+01
1.066631e+02	-1.839513e+01
1.072791e+02	-1.844307e+01
1.078988e+02	-1.849230e+01
1.085220e+02	-1.854283e+01
1.091488e+02	-1.859241e+01
1.097793e+02	-1.863977e+01
1.104133e+02	-1.869126e+01
1.110511e+02	-1.874033e+01
1.116925e+02	-1.878918e+01
1.123376e+02	-1.883841e+01
1.129865e+02	-1.888724e+01
1.136391e+02	-1.893750e+01
1.142955e+02	-1.898691e+01
1.149556e+02	-1.903643e+01
1.156196e+02	-1.908517e+01
1.162874e+02	-1.913462e+01
1.169591e+02	-1.918431e+01
1.176347e+02	-1.923297e+01
1.183141e+02	-1.928239e+01
1.189975e+02	-1.933194e+01
1.196848e+02	-1.938180e+01
1.203761e+02	-1.943312e+01
1.210714e+02	-1.948084e+01
1.217707e+02	-1.953022e+01
1.224740e+02	-1.957975e+01
1.231814e+02	-1.962983e+01
1.238929e+02	-1.967972e+01
1.246085e+02	-1.972748e+01
1.253283e+02	-1.977806e+01
1.260522e+02	-1.982766e+01
1.267802e+02	-1.987831e+01
1.275125e+02	-1.992845e+01
1.282490e+02	-1.997584e+01
1.289898e+02	-2.002613e+01
1.297348e+02	-2.007356e+01
1.304842e+02	-2.012522e+01
1.312378e+02	-2.017412e+01
1.319959e+02	-2.022334e+01
1.327583e+02	-2.027262e+01
1.335251e+02	-2.032221e+01
1.342963e+02	-2.037181e+01
1.350720e+02	-2.042197e+01
1.358522e+02	-2.047188e+01
1.366368e+02	-2.052076e+01
1.374260e+02	-2.057026e+01
1.382198e+02	-2.062070e+01
1.390182e+02	-2.066983e+01
1.398211e+02	-2.071889e+01
1.406287e+02	-2.077059e+01
1.414410e+02	-2.081830e+01
1.422579e+02	-2.086822e+01
1.430796e+02	-2.091874e+01
1.439060e+02	-2.096958e+01
1.447372e+02	-2.101626e+01
1.455732e+02	-2.106639e+01
1.464141e+02	-2.111595e+01
1.472597e+02	-2.116665e+01
1.481103e+02	-2.121594e+01
1.489658e+02	-2.126522e+01
1.498262e+02	-2.131643e+01
1.506916e+02	-2.136632e+01
1.515620e+02	-2.141587e+01
1.524374e+02	-2.146581e+01
1.533179e+02	-2.151456e+01
1.542034e+02	-2.156305e+01
1.550941e+02	-2.161295e+01
1.559899e+02	-2.166388e+01
1.568909e+02	-2.171369e+01
1.577971e+02	-2.176293e+01
1.587085e+02	-2.181269e+01
1.596252e+02	-2.186290e+01
1.605472e+02	-2.191137e+01
1.614745e+02	-2.196131e+01
1.624072e+02	-2.201065e+01
1.633453e+02	-2.206151e+01
1.642887e+02	-2.211301e+01
1.652377e+02	-2.216201e+01
1.661921e+02	-2.220863e+01
1.671520e+02	-2.225960e+01
1.681175e+02	-2.231014e+01
1.690885e+02	-2.235669e+01
1.700651e+02	-2.241108e+01
1.710474e+02	-2.245882e+01
1.720354e+02	-2.250620e+01
1.730291e+02	-2.255872e+01
1.740285e+02	-2.260927e+01
1.750337e+02	-2.265601e+01
1.760446e+02	-2.270790e+01
1.770615e+02	-2.275795e+01
1.780842e+02	-2.280772e+01
1.791128e+02	-2.285683e+01
1.801473e+02	-2.290788e+01
1.811878e+02	-2.295598e+01
1.822344e+02	-2.300654e+01
1.832870e+02	-2.305552e+01
1.843456e+02	-2.310714e+01
1.854104e+02	-2.315580e+01
1.864813e+02	-2.320671e+01
1.875584e+02	-2.325694e+01
1.886418e+02	-2.330519e+01
1.897313e+02	-2.335709e+01
1.908272e+02	-2.340410e+01
1.919294e+02	-2.345359e+01
1.930380e+02	-2.350661e+01
1.941530e+02	-2.355459e+01
1.952744e+02	-2.360565e+01
1.964023e+02	-2.365400e+01
1.975367e+02	-2.370540e+01
1.986777e+02	-2.375429e+01
1.998252e+02	-2.380527e+01
2.009794e+02	-2.385506e+01
2.021403e+02	-2.390359e+01
2.033078e+02	-2.395441e+01
2.044821e+02	-2.400174e+01
2.056632e+02	-2.404879e+01
2.068511e+02	-2.410291e+01
2.080459e+02	-2.415364e+01
2.092475e+02	-2.420466e+01
2.104561e+02	-2.425068e+01
2.116717e+02	-2.430200e+01
2.128943e+02	-2.435338e+01
2.141240e+02	-2.440369e+01
2.153608e+02	-2.445245e+01
2.166047e+02	-2.450108e+01
2.178558e+02	-2.455531e+01
2.191141e+02	-2.459920e+01
2.203797e+02	-2.465311e+01
2.216526e+02	-2.470249e+01
2.229329e+02	-2.474808e+01
2.242205e+02	-2.479909e+01
2.255156e+02	-2.484781e+01
2.268182e+02	-2.490336e+01
2.281283e+02	-2.494932e+01
2.294459e+02	-2.500110e+01
2.307712e+02	-2.504954e+01
2.321041e+02	-2.510097e+01
2.334447e+02	-2.515382e+01
2.347931e+02	-2.520115e+01
2.361493e+02	-2.525269e+01
2.375133e+02	-2.530190e+01
2.388851e+02	-2.535052e+01
2.402649e+02	-2.539791e+01
2.416527e+02	-2.545047e+01
2.430484e+02	-2.550021e+01
2.444523e+02	-2.554826e+01
2.458642e+02	-2.559840e+01
2.472843e+02	-2.565217e+01
2.487126e+02	-2.570018e+01
2.501492e+02	-2.574942e+01
2.515940e+02	-2.579863e+01
2.530472e+02	-2.584943e+01
2.545088e+02	-2.590302e+01
2.559789e+02	-2.594921e+01
2.574574e+02	-2.600228e+01
2.589444e+02	-2.605139e+01
2.604401e+02	-2.610136e+01
2.619444e+02	-2.614816e+01
2.634574e+02	-2.620022e+01
2.649791e+02	-2.625202e+01
2.665096e+02	-2.629532e+01
2.680489e+02	-2.634534e+01
2.695972e+02	-2.639921e+01
2.711544e+02	-2.645201e+01
2.727205e+02	-2.650072e+01
2.742958e+02	-2.655360e+01
2.758801e+02	-2.659877e+01
2.774736e+02	-2.664730e+01
2.790762e+02	-2.670081e+01
2.806882e+02	-2.675366e+01
2.823094e+02	-2.680077e+01
2.839400e+02	-2.684665e+01
2.855800e+02	-2.689779e+01
2.872295e+02	-2.694904e+01
2.888886e+02	-2.700039e+01
2.905572e+02	-2.704728e+01
2.922354e+02	-2.710393e+01
2.939234e+02	-2.714836e+01
2.956211e+02	-2.720186e+01
2.973286e+02	-2.724867e+01
2.990459e+02	-2.729949e+01
3.007732e+02	-2.734900e+01
3.025104e+02	-2.739984e+01
3.042577e+02	-2.744760e+01
3.060151e+02	-2.750032e+01
3.077826e+02	-2.754822e+01
3.095604e+02	-2.759726e+01
3.113484e+02	-2.764803e+01
3.131467e+02	-2.769962e+01
3.149554e+02	-2.774772e+01
3.167746e+02	-2.779998e+01
3.186043e+02	-2.784570e+01
3.204445e+02	-2.790072e+01
3.222954e+02	-2.795253e+01
3.241570e+02	-2.799967e+01
3.260293e+02	-2.804553e+01
3.279124e+02	-2.809743e+01
3.298064e+02	-2.815061e+01
3.317114e+02	-2.820150e+01
3.336273e+02	-2.825235e+01
3.355544e+02	-2.830099e+01
3.374925e+02	-2.835128e+01
3.394418e+02	-2.839844e+01
3.414024e+02	-2.844811e+01
3.433744e+02	-2.850281e+01
3.453577e+02	-2.855201e+01
3.473525e+02	-2.860338e+01
3.493588e+02	-2.865140e+01
3.513766e+02	-2.870274e+01
3.534062e+02	-2.875052e+01
3.554474e+02	-2.879859e+01
3.575005e+02	-2.885125e+01
3.595654e+02	-2.890185e+01
3.616422e+02	-2.895577e+01
3.637311e+02	-2.900448e+01
3.658320e+02	-2.905144e+01
3.679450e+02	-2.909948e+01
3.700702e+02	-2.914897e+01
3.722077e+02	-2.919993e+01
3.743576e+02	-2.925337e+01
3.765199e+02	-2.930302e+01
3.786946e+02	-2.935046e+01
3.808820e+02	-2.939816e+01
3.830819e+02	-2.944991e+01
3.852946e+02	-2.949808e+01
3.875200e+02	-2.955227e+01
3.897583e+02	-2.960371e+01
3.920096e+02	-2.965142e+01
3.942738e+02	-2.970212e+01
3.965511e+02	-2.974976e+01
3.988416e+02	-2.980153e+01
4.011452e+02	-2.985280e+01
4.034622e+02	-2.990151e+01
4.057926e+02	-2.995458e+01
4.081365e+02	-3.000430e+01
4.104938e+02	-3.005141e+01
4.128648e+02	-3.010782e+01
4.152495e+02	-3.015443e+01
4.176480e+02	-3.020093e+01
4.200603e+02	-3.025298e+01
4.224866e+02	-3.030042e+01
4.249268e+02	-3.035264e+01
4.273812e+02	-3.040364e+01
4.298497e+02	-3.045247e+01
4.323325e+02	-3.050690e+01
4.348297e+02	-3.055498e+01
4.373412e+02	-3.060636e+01
4.398673e+02	-3.065160e+01
4.424079e+02	-3.070045e+01
4.449633e+02	-3.075759e+01
4.475334e+02	-3.080751e+01
4.501183e+02	-3.085539e+01
4.527182e+02	-3.090423e+01
4.553330e+02	-3.095278e+01
4.579630e+02	-3.100311e+01
4.606082e+02	-3.105302e+01
4.632687e+02	-3.110304e+01
4.659445e+02	-3.115388e+01
4.686358e+02	-3.120175e+01
4.713426e+02	-3.125609e+01
4.740650e+02	-3.130520e+01
4.768032e+02	-3.135527e+01
4.795572e+02	-3.140949e+01
4.823271e+02	-3.145230e+01
4.851130e+02	-3.150725e+01
4.879150e+02	-3.155572e+01
4.907332e+02	-3.159979e+01
4.935676e+02	-3.165578e+01
4.964185e+02	-3.170323e+01
4.992858e+02	-3.175489e+01
5.021696e+02	-3.181267e+01
5.050701e+02	-3.185430e+01
5.079874e+02	-3.191069e+01
5.109215e+02	-3.196140e+01
5.138726e+02	-3.200778e+01
5.168407e+02	-3.206137e+01
5.198259e+02	-3.211590e+01
5.228284e+02	-3.216116e+01
5.258482e+02	-3.220642e+01
5.288855e+02	-3.225907e+01
5.319403e+02	-3.230983e+01
5.350128e+02	-3.235977e+01
5.381030e+02	-3.240936e+01
5.412111e+02	-3.246569e+01
5.443371e+02	-3.250805e+01
5.474812e+02	-3.256129e+01
5.506434e+02	-3.261091e+01
5.538239e+02	-3.266164e+01
5.570228e+02	-3.272425e+01
5.602401e+02	-3.275978e+01
5.634760e+02	-3.281595e+01
5.667306e+02	-3.286133e+01
5.700040e+02	-3.290872e+01
5.732964e+02	-3.295584e+01
5.766077e+02	-3.301279e+01
5.799382e+02	-3.305910e+01
5.832879e+02	-3.312060e+01
5.866569e+02	-3.316529e+01
5.900454e+02	-3.321879e+01
5.934535e+02	-3.326140e+01
5.968813e+02	-3.332078e+01
6.003288e+02	-3.336284e+01
6.037963e+02	-3.341137e+01
6.072838e+02	-3.347237e+01
6.107914e+02	-3.351780e+01
6.143194e+02	-3.356643e+01
6.178676e+02	-3.361085e+01
6.214364e+02	-3.366258e+01
6.250258e+02	-3.371902e+01
6.286359e+02	-3.376946e+01
6.322669e+02	-3.381556e+01
6.359189e+02	-3.386879e+01
6.395919e+02	-3.392884e+01
6.432862e+02	-3.397405e+01
6.470017e+02	-3.402056e+01
6.507388e+02	-3.407076e+01
6.544974e+02	-3.412305e+01
6.582778e+02	-3.417578e+01
6.620800e+02	-3.422716e+01
6.659041e+02	-3.427255e+01
6.697504e+02	-3.432242e+01
6.736188e+02	-3.436735e+01
6.775096e+02	-3.442867e+01
6.814229e+02	-3.447234e+01
6.853587e+02	-3.452883e+01
6.893173e+02	-3.457432e+01
6.932988e+02	-3.462778e+01
6.973033e+02	-3.466892e+01
7.013309e+02	-3.471946e+01
