Frequency(Hz)	Magnitude(dB)
1.000000e+01	-2.211757e+00
1.005776e+01	-2.231721e+00
1.011585e+01	-2.252007e+00
1.017428e+01	-2.272343e+00
1.023305e+01	-2.292723e+00
1.029215e+01	-2.313310e+00
1.035160e+01	-2.333946e+00
1.041139e+01	-2.354697e+00
1.047153e+01	-2.375929e+00
1.053201e+01	-2.396795e+00
1.059284e+01	-2.418301e+00
1.065403e+01	-2.439801e+00
1.071556e+01	-2.461529e+00
1.077746e+01	-2.483222e+00
1.083971e+01	-2.504751e+00
1.090232e+01	-2.526851e+00
1.096529e+01	-2.549114e+00
1.102862e+01	-2.571309e+00
1.109232e+01	-2.593697e+00
1.115639e+01	-2.616263e+00
1.122083e+01	-2.639044e+00
1.128564e+01	-2.661910e+00
1.135083e+01	-2.684660e+00
1.141639e+01	-2.707984e+00
1.148233e+01	-2.731067e+00
1.154865e+01	-2.754701e+00
1.161536e+01	-2.778349e+00
1.168245e+01	-2.801834e+00
1.174992e+01	-2.825927e+00
1.181779e+01	-2.849829e+00
1.188605e+01	-2.873901e+00
1.195470e+01	-2.898298e+00
1.202375e+01	-2.922614e+00
1.209320e+01	-2.947195e+00
1.216305e+01	-2.971761e+00
1.223330e+01	-2.996928e+00
1.230396e+01	-3.021851e+00
1.237503e+01	-3.046794e+00
1.244651e+01	-3.072301e+00
1.251840e+01	-3.097739e+00
1.259070e+01	-3.123252e+00
1.266343e+01	-3.148984e+00
1.273657e+01	-3.175054e+00
1.281014e+01	-3.200870e+00
1.288413e+01	-3.226864e+00
1.295855e+01	-3.253283e+00
1.303339e+01	-3.279861e+00
1.310867e+01	-3.306462e+00
1.318439e+01	-3.333102e+00
1.326054e+01	-3.360007e+00
1.333713e+01	-3.387115e+00
1.341417e+01	-3.414310e+00
1.349165e+01	-3.441403e+00
1.356958e+01	-3.469143e+00
1.364795e+01	-3.496780e+00
1.372678e+01	-3.524446e+00
1.380607e+01	-3.552001e+00
1.388581e+01	-3.579904e+00
1.396602e+01	-3.608152e+00
1.404668e+01	-3.636474e+00
1.412782e+01	-3.665011e+00
1.420942e+01	-3.693326e+00
1.429149e+01	-3.722310e+00
1.437404e+01	-3.751112e+00
1.445706e+01	-3.780469e+00
1.454057e+01	-3.809348e+00
1.462455e+01	-3.838739e+00
1.470902e+01	-3.868070e+00
1.479398e+01	-3.897388e+00
1.487943e+01	-3.927535e+00
1.496537e+01	-3.957204e+00
1.505181e+01	-3.987095e+00
1.513875e+01	-4.017390e+00
1.522619e+01	-4.047619e+00
1.531414e+01	-4.077863e+00
1.540259e+01	-4.108313e+00
1.549156e+01	-4.139279e+00
1.558103e+01	-4.170029e+00
1.567103e+01	-4.201010e+00
1.576155e+01	-4.232143e+00
1.585258e+01	-4.263007e+00
1.594415e+01	-4.294645e+00
1.603624e+01	-4.325888e+00
1.612886e+01	-4.357677e+00
1.622202e+01	-4.389341e+00
1.631572e+01	-4.421185e+00
1.640996e+01	-4.453059e+00
1.650474e+01	-4.485237e+00
1.660008e+01	-4.517610e+00
1.669596e+01	-4.549937e+00
1.679239e+01	-4.583011e+00
1.688938e+01	-4.615459e+00
1.698694e+01	-4.648317e+00
1.708505e+01	-4.681146e+00
1.718373e+01	-4.713911e+00
1.728299e+01	-4.747337e+00
1.738281e+01	-4.780765e+00
1.748322e+01	-4.813951e+00
1.758420e+01	-4.847695e+00
1.768576e+01	-4.881555e+00
1.778792e+01	-4.915094e+00
1.789066e+01	-4.949324e+00
1.799399e+01	-4.983186e+00
1.809793e+01	-5.017470e+00
1.820246e+01	-5.051683e+00
1.830760e+01	-5.086116e+00
1.841334e+01	-5.120901e+00
1.851969e+01	-5.155640e+00
1.862666e+01	-5.189969e+00
1.873425e+01	-5.225128e+00
1.884246e+01	-5.260374e+00
1.895129e+01	-5.295711e+00
1.906075e+01	-5.330893e+00
1.917085e+01	-5.366167e+00
1.928158e+01	-5.401912e+00
1.939295e+01	-5.437244e+00
1.950496e+01	-5.473525e+00
1.961762e+01	-5.509000e+00
1.973093e+01	-5.545353e+00
1.984490e+01	-5.581188e+00
1.995952e+01	-5.617486e+00
2.007480e+01	-5.653939e+00
2.019076e+01	-5.690297e+00
2.030738e+01	-5.726981e+00
2.042467e+01	-5.764001e+00
2.054264e+01	-5.800403e+00
2.066130e+01	-5.837321e+00
2.078064e+01	-5.874695e+00
2.090066e+01	-5.911320e+00
2.102139e+01	-5.948780e+00
2.114280e+01	-5.986297e+00
2.126492e+01	-6.023921e+00
2.138775e+01	-6.061444e+00
2.151128e+01	-6.099001e+00
2.163553e+01	-6.137037e+00
2.176050e+01	-6.174985e+00
2.188619e+01	-6.212328e+00
2.201260e+01	-6.250815e+00
2.213974e+01	-6.289260e+00
2.226762e+01	-6.327290e+00
2.239624e+01	-6.365821e+00
2.252560e+01	-6.404363e+00
2.265571e+01	-6.443278e+00
2.278656e+01	-6.481663e+00
2.291818e+01	-6.520684e+00
2.305055e+01	-6.559160e+00
2.318369e+01	-6.598102e+00
2.331760e+01	-6.637928e+00
2.345228e+01	-6.676408e+00
2.358774e+01	-6.715922e+00
2.372398e+01	-6.755436e+00
2.386101e+01	-6.795303e+00
2.399883e+01	-6.834779e+00
2.413745e+01	-6.874133e+00
2.427686e+01	-6.914180e+00
2.441709e+01	-6.953809e+00
2.455812e+01	-6.993939e+00
2.469997e+01	-7.034211e+00
2.484263e+01	-7.074086e+00
2.498612e+01	-7.114412e+00
2.513044e+01	-7.154567e+00
2.527559e+01	-7.195569e+00
2.542158e+01	-7.235919e+00
2.556842e+01	-7.276427e+00
2.571610e+01	-7.317391e+00
2.586463e+01	-7.357949e+00
2.601403e+01	-7.398862e+00
2.616428e+01	-7.439596e+00
2.631541e+01	-7.480815e+00
2.646740e+01	-7.521932e+00
2.662028e+01	-7.563235e+00
2.677404e+01	-7.604319e+00
2.692868e+01	-7.645531e+00
2.708422e+01	-7.687308e+00
2.724066e+01	-7.728503e+00
2.739800e+01	-7.770195e+00
2.755625e+01	-7.812429e+00
2.771541e+01	-7.853947e+00
2.787550e+01	-7.895883e+00
2.803650e+01	-7.937844e+00
2.819844e+01	-7.979695e+00
2.836131e+01	-8.021659e+00
2.852513e+01	-8.064126e+00
2.868989e+01	-8.105974e+00
2.885560e+01	-8.148673e+00
2.902227e+01	-8.190797e+00
2.918990e+01	-8.233408e+00
2.935850e+01	-8.276003e+00
2.952807e+01	-8.318875e+00
2.969863e+01	-8.361308e+00
2.987016e+01	-8.404092e+00
3.004269e+01	-8.446616e+00
3.021622e+01	-8.490236e+00
3.039075e+01	-8.533332e+00
3.056628e+01	-8.575825e+00
3.074283e+01	-8.618908e+00
3.092040e+01	-8.662394e+00
3.109900e+01	-8.705254e+00
3.127862e+01	-8.749173e+00
3.145929e+01	-8.792132e+00
3.164099e+01	-8.835640e+00
3.182375e+01	-8.879155e+00
3.200756e+01	-8.922755e+00
3.219244e+01	-8.966293e+00
3.237838e+01	-9.010004e+00
3.256540e+01	-9.053889e+00
3.275349e+01	-9.097659e+00
3.294268e+01	-9.141347e+00
3.313295e+01	-9.185849e+00
3.332433e+01	-9.229761e+00
3.351681e+01	-9.273150e+00
3.371040e+01	-9.317771e+00
3.390511e+01	-9.362165e+00
3.410094e+01	-9.406695e+00
3.429791e+01	-9.450479e+00
3.449601e+01	-9.495012e+00
3.469526e+01	-9.538873e+00
3.489566e+01	-9.583901e+00
3.509721e+01	-9.628296e+00
3.529993e+01	-9.673209e+00
3.550382e+01	-9.717865e+00
3.570889e+01	-9.762869e+00
3.591515e+01	-9.807515e+00
3.612259e+01	-9.851936e+00
3.633123e+01	-9.896848e+00
3.654108e+01	-9.941512e+00
3.675214e+01	-9.986599e+00
3.696442e+01	-1.003174e+01
3.717792e+01	-1.007700e+01
3.739266e+01	-1.012196e+01
3.760864e+01	-1.016710e+01
3.782587e+01	-1.021302e+01
3.804435e+01	-1.025742e+01
3.826409e+01	-1.030245e+01
3.848510e+01	-1.034838e+01
3.870739e+01	-1.039441e+01
3.893096e+01	-1.043899e+01
3.915583e+01	-1.048508e+01
3.938199e+01	-1.053072e+01
3.960946e+01	-1.057628e+01
3.983824e+01	-1.062197e+01
4.006834e+01	-1.066767e+01
4.029978e+01	-1.071339e+01
4.053255e+01	-1.075846e+01
4.076666e+01	-1.080494e+01
4.100213e+01	-1.085098e+01
4.123896e+01	-1.089697e+01
4.147715e+01	-1.094328e+01
4.171672e+01	-1.098840e+01
4.195767e+01	-1.103460e+01
4.220002e+01	-1.108111e+01
4.244377e+01	-1.112723e+01
4.268892e+01	-1.117343e+01
4.293549e+01	-1.121964e+01
4.318348e+01	-1.126554e+01
4.343291e+01	-1.131222e+01
4.368377e+01	-1.135939e+01
4.393609e+01	-1.140519e+01
4.418986e+01	-1.145152e+01
4.444510e+01	-1.149706e+01
4.470182e+01	-1.154414e+01
4.496001e+01	-1.159095e+01
4.521970e+01	-1.163721e+01
4.548089e+01	-1.168447e+01
4.574358e+01	-1.173004e+01
4.600779e+01	-1.177705e+01
4.627353e+01	-1.182384e+01
4.654081e+01	-1.187037e+01
4.680963e+01	-1.191763e+01
4.708000e+01	-1.196441e+01
4.735193e+01	-1.201040e+01
4.762543e+01	-1.205774e+01
4.790051e+01	-1.210544e+01
4.817719e+01	-1.215188e+01
4.845545e+01	-1.219960e+01
4.873533e+01	-1.224634e+01
4.901682e+01	-1.229331e+01
4.929994e+01	-1.234053e+01
4.958470e+01	-1.238728e+01
4.987110e+01	-1.243496e+01
5.015915e+01	-1.248162e+01
5.044887e+01	-1.252844e+01
5.074026e+01	-1.257638e+01
5.103333e+01	-1.262281e+01
5.132810e+01	-1.267072e+01
5.162457e+01	-1.271862e+01
5.192275e+01	-1.276606e+01
5.222265e+01	-1.281276e+01
5.252429e+01	-1.286024e+01
5.282767e+01	-1.290798e+01
5.313280e+01	-1.295559e+01
5.343969e+01	-1.300296e+01
5.374836e+01	-1.305015e+01
5.405880e+01	-1.309807e+01
5.437105e+01	-1.314579e+01
5.468509e+01	-1.319297e+01
5.500095e+01	-1.324053e+01
5.531863e+01	-1.328820e+01
5.563815e+01	-1.333632e+01
5.595951e+01	-1.338338e+01
5.628273e+01	-1.343132e+01
5.660782e+01	-1.347829e+01
5.693479e+01	-1.352787e+01
5.726364e+01	-1.357482e+01
5.759439e+01	-1.362277e+01
5.792705e+01	-1.367083e+01
5.826164e+01	-1.371876e+01
5.859815e+01	-1.376674e+01
5.893662e+01	-1.381383e+01
5.927703e+01	-1.386241e+01
5.961941e+01	-1.391056e+01
5.996377e+01	-1.395891e+01
6.031012e+01	-1.400654e+01
6.065847e+01	-1.405431e+01
6.100883e+01	-1.410264e+01
6.136121e+01	-1.415015e+01
6.171563e+01	-1.419895e+01
6.207210e+01	-1.424680e+01
6.243063e+01	-1.429535e+01
6.279122e+01	-1.434255e+01
6.315390e+01	-1.439145e+01
6.351868e+01	-1.443965e+01
6.388556e+01	-1.448805e+01
6.425456e+01	-1.453659e+01
6.462569e+01	-1.458447e+01
6.499897e+01	-1.463250e+01
6.537440e+01	-1.468128e+01
6.575200e+01	-1.472891e+01
6.613178e+01	-1.477818e+01
6.651375e+01	-1.482721e+01
6.689793e+01	-1.487514e+01
6.728433e+01	-1.492315e+01
6.767297e+01	-1.497173e+01
6.806384e+01	-1.501936e+01
6.845698e+01	-1.506811e+01
6.885238e+01	-1.511624e+01
6.925007e+01	-1.516514e+01
6.965005e+01	-1.521367e+01
7.005235e+01	-1.526186e+01
7.045697e+01	-1.531012e+01
7.086393e+01	-1.535956e+01
7.127323e+01	-1.540844e+01
7.168490e+01	-1.545696e+01
7.209895e+01	-1.550475e+01
7.251539e+01	-1.555398e+01
7.293424e+01	-1.560204e+01
7.335551e+01	-1.565056e+01
7.377920e+01	-1.569996e+01
7.420535e+01	-1.574810e+01
7.463396e+01	-1.579663e+01
7.506504e+01	-1.584560e+01
7.549861e+01	-1.589396e+01
7.593469e+01	-1.594375e+01
7.637328e+01	-1.599310e+01
7.681441e+01	-1.604189e+01
7.725809e+01	-1.609009e+01
7.770433e+01	-1.613910e+01
7.815315e+01	-1.618798e+01
7.860456e+01	-1.623652e+01
7.905857e+01	-1.628535e+01
7.951521e+01	-1.633373e+01
7.997449e+01	-1.638243e+01
8.043642e+01	-1.643081e+01
8.090102e+01	-1.648140e+01
8.136830e+01	-1.652966e+01
8.183828e+01	-1.657767e+01
8.231097e+01	-1.662692e+01
8.278640e+01	-1.667631e+01
8.326457e+01	-1.672580e+01
8.374550e+01	-1.677326e+01
8.422921e+01	-1.682258e+01
8.471572e+01	-1.687255e+01
8.520503e+01	-1.692148e+01
8.569717e+01	-1.696958e+01
8.619215e+01	-1.701828e+01
8.669000e+01	-1.706847e+01
8.719071e+01	-1.711776e+01
8.769432e+01	-1.716597e+01
8.820084e+01	-1.721473e+01
8.871029e+01	-1.726477e+01
8.922267e+01	-1.731375e+01
8.973802e+01	-1.736228e+01
9.025634e+01	-1.741156e+01
9.077766e+01	-1.746030e+01
9.130199e+01	-1.750966e+01
9.182935e+01	-1.755835e+01
9.235975e+01	-1.760958e+01
9.289321e+01	-1.765667e+01
9.342976e+01	-1.770598e+01
9.396941e+01	-1.775491e+01
9.451217e+01	-1.780404e+01
9.505807e+01	-1.785462e+01
9.560712e+01	-1.790396e+01
9.615934e+01	-1.795305e+01
9.671476e+01	-1.800198e+01
9.727338e+01	-1.805216e+01
9.783522e+01	-1.810144e+01
9.840032e+01	-1.814930e+01
9.896867e+01	-1.819922e+01
9.954031e+01	-1.824782e+01
1.001153e+02	-1.829699e+01
1.006935e+02	-1.834721e+01
1.012751e+02	-1.839589e+01
1.018601e+02	-1.844504e+01
1.024484e+02	-1.849559e+01
1.030402e+02	-1.854458e+01
1.036353e+02	-1.859187e+01
1.042339e+02	-1.864323e+01
1.048360e+02	-1.869038e+01
1.054415e+02	-1.874024e+01
1.060505e+02	-1.879252e+01
1.066631e+02	-1.884044e+01
1.072791e+02	-1.888993e+01
1.078988e+02	-1.893949e+01
1.085220e+02	-1.898900e+01
1.091488e+02	-1.903821e+01
1.097793e+02	-1.908745e+01
1.104133e+02	-1.913738e+01
1.110511e+02	-1.918576e+01
1.116925e+02	-1.923569e+01
1.123376e+02	-1.928556e+01
1.129865e+02	-1.933382e+01
1.136391e+02	-1.938342e+01
1.142955e+02	-1.943226e+01
1.149556e+02	-1.948258e+01
1.156196e+02	-1.953254e+01
1.162874e+02	-1.958286e+01
1.169591e+02	-1.963189e+01
1.176347e+02	-1.968128e+01
1.183141e+02	-1.973048e+01
1.189975e+02	-1.977933e+01
1.196848e+02	-1.982911e+01
1.203761e+02	-1.987847e+01
1.210714e+02	-1.992816e+01
1.217707e+02	-1.997787e+01
1.224740e+02	-2.002814e+01
1.231814e+02	-2.007701e+01
1.238929e+02	-2.012633e+01
1.246085e+02	-2.017611e+01
1.253283e+02	-2.022697e+01
1.260522e+02	-2.027425e+01
1.267802e+02	-2.032459e+01
1.275125e+02	-2.037401e+01
1.282490e+02	-2.042407e+01
1.289898e+02	-2.047353e+01
1.297348e+02	-2.052419e+01
1.304842e+02	-2.057097e+01
1.312378e+02	-2.062396e+01
1.319959e+02	-2.067024e+01
1.327583e+02	-2.072218e+01
1.335251e+02	-2.077124e+01
1.342963e+02	-2.082028e+01
1.350720e+02	-2.086929e+01
1.358522e+02	-2.091944e+01
1.366368e+02	-2.096910e+01
1.374260e+02	-2.101920e+01
1.382198e+02	-2.106965e+01
1.390182e+02	-2.111959e+01
1.398211e+02	-2.116957e+01
1.406287e+02	-2.121906e+01
1.414410e+02	-2.126864e+01
1.422579e+02	-2.131752e+01
1.430796e+02	-2.136462e+01
1.439060e+02	-2.141654e+01
1.447372e+02	-2.146619e+01
1.455732e+02	-2.151723e+01
1.464141e+02	-2.156700e+01
1.472597e+02	-2.161543e+01
1.481103e+02	-2.166435e+01
1.489658e+02	-2.171446e+01
1.498262e+02	-2.176508e+01
1.506916e+02	-2.181298e+01
1.515620e+02	-2.186289e+01
1.524374e+02	-2.191077e+01
1.533179e+02	-2.196357e+01
1.542034e+02	-2.201420e+01
1.550941e+02	-2.206351e+01
1.559899e+02	-2.211392e+01
1.568909e+02	-2.216238e+01
1.577971e+02	-2.220968e+01
1.587085e+02	-2.226285e+01
1.596252e+02	-2.231417e+01
1.605472e+02	-2.236080e+01
1.614745e+02	-2.241192e+01
1.624072e+02	-2.246010e+01
1.633453e+02	-2.251093e+01
1.642887e+02	-2.255741e+01
1.652377e+02	-2.261201e+01
1.661921e+02	-2.266167e+01
1.671520e+02	-2.270978e+01
1.681175e+02	-2.275960e+01
1.690885e+02	-2.280841e+01
1.700651e+02	-2.286071e+01
1.710474e+02	-2.290750e+01
1.720354e+02	-2.296049e+01
1.730291e+02	-2.300720e+01
1.740285e+02	-2.305789e+01
1.750337e+02	-2.310735e+01
1.760446e+02	-2.315784e+01
1.770615e+02	-2.320714e+01
1.780842e+02	-2.325638e+01
1.791128e+02	-2.330667e+01
1.801473e+02	-2.335557e+01
1.811878e+02	-2.340770e+01
1.822344e+02	-2.345523e+01
1.832870e+02	-2.350774e+01
1.843456e+02	-2.355363e+01
1.854104e+02	-2.360642e+01
1.864813e+02	-2.365987e+01
1.875584e+02	-2.370477e+01
1.886418e+02	-2.375726e+01
1.897313e+02	-2.380594e+01
1.908272e+02	-2.385365e+01
1.919294e+02	-2.390546e+01
1.930380e+02	-2.395547e+01
1.941530e+02	-2.400397e+01
1.952744e+02	-2.405452e+01
1.964023e+02	-2.410514e+01
1.975367e+02	-2.415480e+01
1.986777e+02	-2.420719e+01
1.998252e+02	-2.425585e+01
2.009794e+02	-2.430482e+01
2.021403e+02	-2.435413e+01
2.033078e+02	-2.440434e+01
2.044821e+02	-2.444986e+01
2.056632e+02	-2.450533e+01
2.068511e+02	-2.455527e+01
2.080459e+02	-2.460316e+01
2.092475e+02	-2.465502e+01
2.104561e+02	-2.470146e+01
2.116717e+02	-2.475173e+01
2.128943e+02	-2.480443e+01
2.141240e+02	-2.485298e+01
2.153608e+02	-2.490323e+01
2.166047e+02	-2.495308e+01
2.178558e+02	-2.500067e+01
2.191141e+02	-2.505189e+01
2.203797e+02	-2.510133e+01
2.216526e+02	-2.514983e+01
2.229329e+02	-2.520109e+01
2.242205e+02	-2.525120e+01
2.255156e+02	-2.529893e+01
2.268182e+02	-2.535244e+01
2.281283e+02	-2.540709e+01
2.294459e+02	-2.544974e+01
2.307712e+02	-2.550146e+01
2.321041e+02	-2.555236e+01
2.334447e+02	-2.559844e+01
2.347931e+02	-2.564905e+01
2.361493e+02	-2.570383e+01
2.375133e+02	-2.575187e+01
2.388851e+02	-2.580243e+01
2.402649e+02	-2.585366e+01
2.416527e+02	-2.590287e+01
2.430484e+02	-2.595247e+01
2.444523e+02	-2.600366e+01
2.458642e+02	-2.604807e+01
2.472843e+02	-2.610208e+01
2.487126e+02	-2.615290e+01
2.501492e+02	-2.619984e+01
2.515940e+02	-2.625033e+01
2.530472e+02	-2.630170e+01
2.545088e+02	-2.634861e+01
2.559789e+02	-2.640069e+01
2.574574e+02	-2.645431e+01
2.589444e+02	-2.649902e+01
2.604401e+02	-2.654982e+01
2.619444e+02	-2.660208e+01
2.634574e+02	-2.665198e+01
2.649791e+02	-2.670218e+01
2.665096e+02	-2.675136e+01
2.680489e+02	-2.679823e+01
2.695972e+02	-2.685047e+01
2.711544e+02	-2.690166e+01
2.727205e+02	-2.694996e+01
2.742958e+02	-2.700125e+01
2.758801e+02	-2.705092e+01
2.774736e+02	-2.710042e+01
2.790762e+02	-2.715088e+01
2.806882e+02	-2.720196e+01
2.823094e+02	-2.724874e+01
2.839400e+02	-2.729804e+01
2.855800e+02	-2.734914e+01
2.872295e+02	-2.740052e+01
2.888886e+02	-2.745163e+01
2.905572e+02	-2.750094e+01
2.922354e+02	-2.755055e+01
2.939234e+02	-2.760414e+01
2.956211e+02	-2.764875e+01
2.973286e+02	-2.769957e+01
2.990459e+02	-2.774813e+01
3.007732e+02	-2.780043e+01
3.025104e+02	-2.785203e+01
3.042577e+02	-2.790041e+01
3.060151e+02	-2.794882e+01
3.077826e+02	-2.799878e+01
3.095604e+02	-2.805216e+01
3.113484e+02	-2.810559e+01
3.131467e+02	-2.815109e+01
3.149554e+02	-2.819940e+01
3.167746e+02	-2.825035e+01
3.186043e+02	-2.830050e+01
3.204445e+02	-2.835166e+01
3.222954e+02	-2.840084e+01
3.241570e+02	-2.844739e+01
3.260293e+02	-2.850457e+01
3.279124e+02	-2.855048e+01
3.298064e+02	-2.859950e+01
3.317114e+02	-2.864957e+01
3.336273e+02	-2.870433e+01
3.355544e+02	-2.875398e+01
3.374925e+02	-2.880409e+01
3.394418e+02	-2.885270e+01
3.414024e+02	-2.890401e+01
3.433744e+02	-2.894793e+01
3.453577e+02	-2.899959e+01
3.473525e+02	-2.905376e+01
3.493588e+02	-2.910126e+01
3.513766e+02	-2.915142e+01
3.534062e+02	-2.920368e+01
3.554474e+02	-2.925591e+01
3.575005e+02	-2.930286e+01
3.595654e+02	-2.935005e+01
3.616422e+02	-2.940287e+01
3.637311e+02	-2.945207e+01
3.658320e+02	-2.950347e+01
3.679450e+02	-2.955791e+01
3.700702e+02	-2.960208e+01
3.722077e+02	-2.965280e+01
3.743576e+02	-2.970115e+01
3.765199e+02	-2.975078e+01
3.786946e+02	-2.979914e+01
3.808820e+02	-2.985636e+01
3.830819e+02	-2.990269e+01
3.852946e+02	-2.995487e+01
3.875200e+02	-3.000188e+01
3.897583e+02	-3.005150e+01
3.920096e+02	-3.009731e+01
3.942738e+02	-3.014946e+01
3.965511e+02	-3.020239e+01
3.988416e+02	-3.025355e+01
4.011452e+02	-3.030752e+01
4.034622e+02	-3.035881e+01
4.057926e+02	-3.041076e+01
4.081365e+02	-3.045642e+01
4.104938e+02	-3.050176e+01
4.128648e+02	-3.055188e+01
4.152495e+02	-3.059963e+01
4.176480e+02	-3.065720e+01
4.200603e+02	-3.070490e+01
4.224866e+02	-3.075769e+01
4.249268e+02	-3.080707e+01
4.273812e+02	-3.085951e+01
4.298497e+02	-3.090689e+01
4.323325e+02	-3.095900e+01
4.348297e+02	-3.100478e+01
4.373412e+02	-3.105503e+01
4.398673e+02	-3.110508e+01
4.424079e+02	-3.115985e+01
4.449633e+02	-3.120377e+01
4.475334e+02	-3.124874e+01
4.501183e+02	-3.130363e+01
4.527182e+02	-3.135871e+01
4.553330e+02	-3.140821e+01
4.579630e+02	-3.145826e+01
4.606082e+02	-3.150440e+01
4.632687e+02	-3.155681e+01
4.659445e+02	-3.160411e+01
4.686358e+02	-3.166222e+01
4.713426e+02	-3.170922e+01
4.740650e+02	-3.176053e+01
4.768032e+02	-3.180744e+01
4.795572e+02	-3.185998e+01
4.823271e+02	-3.190694e+01
4.851130e+02	-3.195521e+01
4.879150e+02	-3.201216e+01
4.907332e+02	-3.206139e+01
4.935676e+02	-3.211490e+01
4.964185e+02	-3.215916e+01
4.992858e+02	-3.221352e+01
5.021696e+02	-3.225570e+01
5.050701e+02	-3.230853e+01
5.079874e+02	-3.235746e+01
5.109215e+02	-3.241654e+01
5.138726e+02	-3.246207e+01
5.168407e+02	-3.251219e+01
5.198259e+02	-3.256185e+01
5.228284e+02	-3.260910e+01
5.258482e+02	-3.266355e+01
5.288855e+02	-3.271909e+01
5.319403e+02	-3.275984e+01
5.350128e+02	-3.280990e+01
5.381030e+02	-3.286454e+01
5.412111e+02	-3.291053e+01
5.443371e+02	-3.296393e+01
5.474812e+02	-3.300663e+01
5.506434e+02	-3.306404e+01
5.538239e+02	-3.311411e+01
5.570228e+02	-3.315973e+01
5.602401e+02	-3.321532e+01
5.634760e+02	-3.326436e+01
5.667306e+02	-3.331376e+01
5.700040e+02	-3.336959e+01
5.732964e+02	-3.341705e+01
5.766077e+02	-3.345753e+01
5.799382e+02	-3.351409e+01
5.832879e+02	-3.356648e+01
5.866569e+02	-3.361671e+01
5.900454e+02	-3.366701e+01
5.934535e+02	-3.371423e+01
5.968813e+02	-3.376747e+01
6.003288e+02	-3.380915e+01
6.037963e+02	-3.386431e+01
6.072838e+02	-3.392692e+01
6.107914e+02	-3.397342e+01
6.143194e+02	-3.402502e+01
6.178676e+02	-3.406648e+01
6.214364e+02	-3.412414e+01
6.250258e+02	-3.417204e+01
6.286359e+02	-3.422613e+01
6.322669e+02	-3.427359e+01
6.359189e+02	-3.432230e+01
6.395919e+02	-3.437343e+01
6.432862e+02	-3.441978e+01
6.470017e+02	-3.447768e+01
6.507388e+02	-3.451913e+01
6.544974e+02	-3.457491e+01
6.582778e+02	-3.462799e+01
6.620800e+02	-3.467125e+01
6.659041e+02	-3.472530e+01
6.697504e+02	-3.477553e+01
6.736188e+02	-3.482367e+01
6.775096e+02	-3.487342e+01
6.814229e+02	-3.492700e+01
6.853587e+02	-3.497890e+01
6.893173e+02	-3.502709e+01
6.932988e+02	-3.508315e+01
6.973033e+02	-3.512256e+01
7.013309e+02	-3.517620e+01
