Frequency(Hz)	Magnitude(dB)
1.000000e+01	-2.108303e+00
1.005776e+01	-2.127665e+00
1.011585e+01	-2.147038e+00
1.017428e+01	-2.166633e+00
1.023305e+01	-2.186251e+00
1.029215e+01	-2.206171e+00
1.035160e+01	-2.226095e+00
1.041139e+01	-2.246276e+00
1.047153e+01	-2.266449e+00
1.053201e+01	-2.287075e+00
1.059284e+01	-2.307337e+00
1.065403e+01	-2.328369e+00
1.071556e+01	-2.348866e+00
1.077746e+01	-2.370035e+00
1.083971e+01	-2.391255e+00
1.090232e+01	-2.412216e+00
1.096529e+01	-2.433657e+00
1.102862e+01	-2.455183e+00
1.109232e+01	-2.476902e+00
1.115639e+01	-2.498716e+00
1.122083e+01	-2.520795e+00
1.128564e+01	-2.542830e+00
1.135083e+01	-2.564959e+00
1.141639e+01	-2.587277e+00
1.148233e+01	-2.609971e+00
1.154865e+01	-2.632480e+00
1.161536e+01	-2.655498e+00
1.168245e+01	-2.678382e+00
1.174992e+01	-2.701463e+00
1.181779e+01	-2.724773e+00
1.188605e+01	-2.748111e+00
1.195470e+01	-2.771777e+00
1.202375e+01	-2.795335e+00
1.209320e+01	-2.819027e+00
1.216305e+01	-2.842945e+00
1.223330e+01	-2.867271e+00
1.230396e+01	-2.891514e+00
1.237503e+01	-2.915898e+00
1.244651e+01	-2.940484e+00
1.251840e+01	-2.964969e+00
1.259070e+01	-2.989969e+00
1.266343e+01	-3.014904e+00
1.273657e+01	-3.040220e+00
1.281014e+01	-3.065084e+00
1.288413e+01	-3.090612e+00
1.295855e+01	-3.116326e+00
1.303339e+01	-3.142154e+00
1.310867e+01	-3.167587e+00
1.318439e+01	-3.193514e+00
1.326054e+01	-3.219736e+00
1.333713e+01	-3.246117e+00
1.341417e+01	-3.272399e+00
1.349165e+01	-3.298922e+00
1.356958e+01	-3.325626e+00
1.364795e+01	-3.352497e+00
1.372678e+01	-3.379584e+00
1.380607e+01	-3.406843e+00
1.388581e+01	-3.433722e+00
1.396602e+01	-3.461431e+00
1.404668e+01	-3.488658e+00
1.412782e+01	-3.516274e+00
1.420942e+01	-3.544526e+00
1.429149e+01	-3.572463e+00
1.437404e+01	-3.600575e+00
1.445706e+01	-3.628765e+00
1.454057e+01	-3.657105e+00
1.462455e+01	-3.685596e+00
1.470902e+01	-3.714350e+00
1.479398e+01	-3.743302e+00
1.487943e+01	-3.772104e+00
1.496537e+01	-3.801343e+00
1.505181e+01	-3.830427e+00
1.513875e+01	-3.860015e+00
1.522619e+01	-3.889626e+00
1.531414e+01	-3.919117e+00
1.540259e+01	-3.948889e+00
1.549156e+01	-3.978885e+00
1.558103e+01	-4.008992e+00
1.567103e+01	-4.039212e+00
1.576155e+01	-4.069616e+00
1.585258e+01	-4.100092e+00
1.594415e+01	-4.130724e+00
1.603624e+01	-4.161676e+00
1.612886e+01	-4.192291e+00
1.622202e+01	-4.223253e+00
1.631572e+01	-4.254350e+00
1.640996e+01	-4.285914e+00
1.650474e+01	-4.317459e+00
1.660008e+01	-4.348984e+00
1.669596e+01	-4.380420e+00
1.679239e+01	-4.412390e+00
1.688938e+01	-4.444190e+00
1.698694e+01	-4.476331e+00
1.708505e+01	-4.508660e+00
1.718373e+01	-4.541010e+00
1.728299e+01	-4.573406e+00
1.738281e+01	-4.606254e+00
1.748322e+01	-4.638984e+00
1.758420e+01	-4.671732e+00
1.768576e+01	-4.705031e+00
1.778792e+01	-4.738182e+00
1.789066e+01	-4.771451e+00
1.799399e+01	-4.804781e+00
1.809793e+01	-4.838288e+00
1.820246e+01	-4.872033e+00
1.830760e+01	-4.905946e+00
1.841334e+01	-4.939718e+00
1.851969e+01	-4.973938e+00
1.862666e+01	-5.007848e+00
1.873425e+01	-5.042297e+00
1.884246e+01	-5.076776e+00
1.895129e+01	-5.111424e+00
1.906075e+01	-5.146011e+00
1.917085e+01	-5.180598e+00
1.928158e+01	-5.215623e+00
1.939295e+01	-5.250762e+00
1.950496e+01	-5.285727e+00
1.961762e+01	-5.320904e+00
1.973093e+01	-5.356601e+00
1.984490e+01	-5.392195e+00
1.995952e+01	-5.427580e+00
2.007480e+01	-5.463209e+00
2.019076e+01	-5.499125e+00
2.030738e+01	-5.535098e+00
2.042467e+01	-5.571564e+00
2.054264e+01	-5.607463e+00
2.066130e+01	-5.643632e+00
2.078064e+01	-5.680014e+00
2.090066e+01	-5.716889e+00
2.102139e+01	-5.753474e+00
2.114280e+01	-5.790086e+00
2.126492e+01	-5.827032e+00
2.138775e+01	-5.864402e+00
2.151128e+01	-5.901405e+00
2.163553e+01	-5.938327e+00
2.176050e+01	-5.975889e+00
2.188619e+01	-6.013188e+00
2.201260e+01	-6.050801e+00
2.213974e+01	-6.088324e+00
2.226762e+01	-6.125969e+00
2.239624e+01	-6.164229e+00
2.252560e+01	-6.201973e+00
2.265571e+01	-6.240278e+00
2.278656e+01	-6.278770e+00
2.291818e+01	-6.316987e+00
2.305055e+01	-6.354774e+00
2.318369e+01	-6.393643e+00
2.331760e+01	-6.432167e+00
2.345228e+01	-6.470660e+00
2.358774e+01	-6.509920e+00
2.372398e+01	-6.548350e+00
2.386101e+01	-6.587533e+00
2.399883e+01	-6.626733e+00
2.413745e+01	-6.665653e+00
2.427686e+01	-6.704811e+00
2.441709e+01	-6.744295e+00
2.455812e+01	-6.784435e+00
2.469997e+01	-6.823346e+00
2.484263e+01	-6.863363e+00
2.498612e+01	-6.902648e+00
2.513044e+01	-6.943426e+00
2.527559e+01	-6.983021e+00
2.542158e+01	-7.023153e+00
2.556842e+01	-7.063064e+00
2.571610e+01	-7.103319e+00
2.586463e+01	-7.143963e+00
2.601403e+01	-7.184260e+00
2.616428e+01	-7.224723e+00
2.631541e+01	-7.265104e+00
2.646740e+01	-7.305849e+00
2.662028e+01	-7.346729e+00
2.677404e+01	-7.387372e+00
2.692868e+01	-7.428441e+00
2.708422e+01	-7.469459e+00
2.724066e+01	-7.510326e+00
2.739800e+01	-7.551457e+00
2.755625e+01	-7.592819e+00
2.771541e+01	-7.634772e+00
2.787550e+01	-7.675919e+00
2.803650e+01	-7.717376e+00
2.819844e+01	-7.759423e+00
2.836131e+01	-7.800522e+00
2.852513e+01	-7.842513e+00
2.868989e+01	-7.884467e+00
2.885560e+01	-7.925913e+00
2.902227e+01	-7.968535e+00
2.918990e+01	-8.009920e+00
2.935850e+01	-8.052496e+00
2.952807e+01	-8.094271e+00
2.969863e+01	-8.136754e+00
2.987016e+01	-8.179141e+00
3.004269e+01	-8.221629e+00
3.021622e+01	-8.264338e+00
3.039075e+01	-8.306621e+00
3.056628e+01	-8.349228e+00
3.074283e+01	-8.392542e+00
3.092040e+01	-8.435285e+00
3.109900e+01	-8.478542e+00
3.127862e+01	-8.521362e+00
3.145929e+01	-8.563932e+00
3.164099e+01	-8.607519e+00
3.182375e+01	-8.650251e+00
3.200756e+01	-8.693295e+00
3.219244e+01	-8.736834e+00
3.237838e+01	-8.780195e+00
3.256540e+01	-8.823269e+00
3.275349e+01	-8.866973e+00
3.294268e+01	-8.910994e+00
3.313295e+01	-8.954322e+00
3.332433e+01	-8.997986e+00
3.351681e+01	-9.041707e+00
3.371040e+01	-9.085978e+00
3.390511e+01	-9.129536e+00
3.410094e+01	-9.173268e+00
3.429791e+01	-9.217516e+00
3.449601e+01	-9.261427e+00
3.469526e+01	-9.305677e+00
3.489566e+01	-9.349414e+00
3.509721e+01	-9.394211e+00
3.529993e+01	-9.438842e+00
3.550382e+01	-9.482259e+00
3.570889e+01	-9.527039e+00
3.591515e+01	-9.571507e+00
3.612259e+01	-9.615978e+00
3.633123e+01	-9.660826e+00
3.654108e+01	-9.705035e+00
3.675214e+01	-9.750548e+00
3.696442e+01	-9.795179e+00
3.717792e+01	-9.839500e+00
3.739266e+01	-9.884028e+00
3.760864e+01	-9.929173e+00
3.782587e+01	-9.974408e+00
3.804435e+01	-1.001986e+01
3.826409e+01	-1.006475e+01
3.848510e+01	-1.011008e+01
3.870739e+01	-1.015502e+01
3.893096e+01	-1.020045e+01
3.915583e+01	-1.024523e+01
3.938199e+01	-1.029043e+01
3.960946e+01	-1.033530e+01
3.983824e+01	-1.038175e+01
4.006834e+01	-1.042682e+01
4.029978e+01	-1.047242e+01
4.053255e+01	-1.051783e+01
4.076666e+01	-1.056325e+01
4.100213e+01	-1.060907e+01
4.123896e+01	-1.065498e+01
4.147715e+01	-1.070051e+01
4.171672e+01	-1.074632e+01
4.195767e+01	-1.079226e+01
4.220002e+01	-1.083789e+01
4.244377e+01	-1.088471e+01
4.268892e+01	-1.093015e+01
4.293549e+01	-1.097621e+01
4.318348e+01	-1.102214e+01
4.343291e+01	-1.106809e+01
4.368377e+01	-1.111414e+01
4.393609e+01	-1.116057e+01
4.418986e+01	-1.120623e+01
4.444510e+01	-1.125374e+01
4.470182e+01	-1.129933e+01
4.496001e+01	-1.134581e+01
4.521970e+01	-1.139229e+01
4.548089e+01	-1.143854e+01
4.574358e+01	-1.148476e+01
4.600779e+01	-1.153136e+01
4.627353e+01	-1.157871e+01
4.654081e+01	-1.162456e+01
4.680963e+01	-1.167097e+01
4.708000e+01	-1.171745e+01
4.735193e+01	-1.176451e+01
4.762543e+01	-1.181089e+01
4.790051e+01	-1.185786e+01
4.817719e+01	-1.190471e+01
4.845545e+01	-1.195148e+01
4.873533e+01	-1.199842e+01
4.901682e+01	-1.204582e+01
4.929994e+01	-1.209204e+01
4.958470e+01	-1.213919e+01
4.987110e+01	-1.218576e+01
5.015915e+01	-1.223294e+01
5.044887e+01	-1.227994e+01
5.074026e+01	-1.232725e+01
5.103333e+01	-1.237375e+01
5.132810e+01	-1.242086e+01
5.162457e+01	-1.246818e+01
5.192275e+01	-1.251583e+01
5.222265e+01	-1.256312e+01
5.252429e+01	-1.261056e+01
5.282767e+01	-1.265794e+01
5.313280e+01	-1.270521e+01
5.343969e+01	-1.275234e+01
5.374836e+01	-1.279939e+01
5.405880e+01	-1.284692e+01
5.437105e+01	-1.289492e+01
5.468509e+01	-1.294209e+01
5.500095e+01	-1.298947e+01
5.531863e+01	-1.303680e+01
5.563815e+01	-1.308509e+01
5.595951e+01	-1.313309e+01
5.628273e+01	-1.317918e+01
5.660782e+01	-1.322819e+01
5.693479e+01	-1.327528e+01
5.726364e+01	-1.332272e+01
5.759439e+01	-1.337081e+01
5.792705e+01	-1.341817e+01
5.826164e+01	-1.346487e+01
5.859815e+01	-1.351327e+01
5.893662e+01	-1.356175e+01
5.927703e+01	-1.360993e+01
5.961941e+01	-1.365783e+01
5.996377e+01	-1.370534e+01
6.031012e+01	-1.375370e+01
6.065847e+01	-1.380113e+01
6.100883e+01	-1.384830e+01
6.136121e+01	-1.389724e+01
6.171563e+01	-1.394509e+01
6.207210e+01	-1.399361e+01
6.243063e+01	-1.404049e+01
6.279122e+01	-1.408868e+01
6.315390e+01	-1.413721e+01
6.351868e+01	-1.418503e+01
6.388556e+01	-1.423290e+01
6.425456e+01	-1.428070e+01
6.462569e+01	-1.433057e+01
6.499897e+01	-1.437824e+01
6.537440e+01	-1.442709e+01
6.575200e+01	-1.447485e+01
6.613178e+01	-1.452339e+01
6.651375e+01	-1.457059e+01
6.689793e+01	-1.461992e+01
6.728433e+01	-1.466790e+01
6.767297e+01	-1.471564e+01
6.806384e+01	-1.476420e+01
6.845698e+01	-1.481288e+01
6.885238e+01	-1.486047e+01
6.925007e+01	-1.490982e+01
6.965005e+01	-1.495794e+01
7.005235e+01	-1.500642e+01
7.045697e+01	-1.505435e+01
7.086393e+01	-1.510324e+01
7.127323e+01	-1.515210e+01
7.168490e+01	-1.519932e+01
7.209895e+01	-1.524840e+01
7.251539e+01	-1.529701e+01
7.293424e+01	-1.534626e+01
7.335551e+01	-1.539426e+01
7.377920e+01	-1.544339e+01
7.420535e+01	-1.549135e+01
7.463396e+01	-1.553976e+01
7.506504e+01	-1.558997e+01
7.549861e+01	-1.563783e+01
7.593469e+01	-1.568513e+01
7.637328e+01	-1.573498e+01
7.681441e+01	-1.578380e+01
7.725809e+01	-1.583288e+01
7.770433e+01	-1.588123e+01
7.815315e+01	-1.593063e+01
7.860456e+01	-1.597875e+01
7.905857e+01	-1.602719e+01
7.951521e+01	-1.607572e+01
7.997449e+01	-1.612498e+01
8.043642e+01	-1.617309e+01
8.090102e+01	-1.622221e+01
8.136830e+01	-1.627155e+01
8.183828e+01	-1.632009e+01
8.231097e+01	-1.636868e+01
8.278640e+01	-1.641659e+01
8.326457e+01	-1.646587e+01
8.374550e+01	-1.651627e+01
8.422921e+01	-1.656359e+01
8.471572e+01	-1.661401e+01
8.520503e+01	-1.666268e+01
8.569717e+01	-1.671148e+01
8.619215e+01	-1.676022e+01
8.669000e+01	-1.680985e+01
8.719071e+01	-1.685994e+01
8.769432e+01	-1.690698e+01
8.820084e+01	-1.695585e+01
8.871029e+01	-1.700650e+01
8.922267e+01	-1.705387e+01
8.973802e+01	-1.710303e+01
9.025634e+01	-1.715364e+01
9.077766e+01	-1.720194e+01
9.130199e+01	-1.725013e+01
9.182935e+01	-1.729957e+01
9.235975e+01	-1.734797e+01
9.289321e+01	-1.739817e+01
9.342976e+01	-1.744737e+01
9.396941e+01	-1.749585e+01
9.451217e+01	-1.754447e+01
9.505807e+01	-1.759463e+01
9.560712e+01	-1.764414e+01
9.615934e+01	-1.769286e+01
9.671476e+01	-1.774244e+01
9.727338e+01	-1.779109e+01
9.783522e+01	-1.783975e+01
9.840032e+01	-1.788905e+01
9.896867e+01	-1.793942e+01
9.954031e+01	-1.798839e+01
1.001153e+02	-1.803702e+01
1.006935e+02	-1.808670e+01
1.012751e+02	-1.813679e+01
1.018601e+02	-1.818674e+01
1.024484e+02	-1.823480e+01
1.030402e+02	-1.828497e+01
1.036353e+02	-1.833420e+01
1.042339e+02	-1.838267e+01
1.048360e+02	-1.843233e+01
1.054415e+02	-1.848163e+01
1.060505e+02	-1.853122e+01
1.066631e+02	-1.857955e+01
1.072791e+02	-1.862864e+01
1.078988e+02	-1.867905e+01
1.085220e+02	-1.872907e+01
1.091488e+02	-1.877607e+01
1.097793e+02	-1.882604e+01
1.104133e+02	-1.887525e+01
1.110511e+02	-1.892594e+01
1.116925e+02	-1.897537e+01
1.123376e+02	-1.902533e+01
1.129865e+02	-1.907347e+01
1.136391e+02	-1.912380e+01
1.142955e+02	-1.917285e+01
1.149556e+02	-1.922167e+01
1.156196e+02	-1.927116e+01
1.162874e+02	-1.932130e+01
1.169591e+02	-1.937196e+01
1.176347e+02	-1.941944e+01
1.183141e+02	-1.946958e+01
1.189975e+02	-1.951871e+01
1.196848e+02	-1.956721e+01
1.203761e+02	-1.961714e+01
1.210714e+02	-1.966915e+01
1.217707e+02	-1.971548e+01
1.224740e+02	-1.976513e+01
1.231814e+02	-1.981591e+01
1.238929e+02	-1.986533e+01
1.246085e+02	-1.991372e+01
1.253283e+02	-1.996263e+01
1.260522e+02	-2.001371e+01
1.267802e+02	-2.006182e+01
1.275125e+02	-2.011396e+01
1.282490e+02	-2.016316e+01
1.289898e+02	-2.021184e+01
1.297348e+02	-2.025918e+01
1.304842e+02	-2.031092e+01
1.312378e+02	-2.036134e+01
1.319959e+02	-2.041245e+01
1.327583e+02	-2.045891e+01
1.335251e+02	-2.050957e+01
1.342963e+02	-2.055840e+01
1.350720e+02	-2.060742e+01
1.358522e+02	-2.065714e+01
1.366368e+02	-2.070979e+01
1.374260e+02	-2.075783e+01
1.382198e+02	-2.080750e+01
1.390182e+02	-2.085620e+01
1.398211e+02	-2.090544e+01
1.406287e+02	-2.095507e+01
1.414410e+02	-2.100551e+01
1.422579e+02	-2.105545e+01
1.430796e+02	-2.110477e+01
1.439060e+02	-2.115285e+01
1.447372e+02	-2.120420e+01
1.455732e+02	-2.125479e+01
1.464141e+02	-2.130381e+01
1.472597e+02	-2.135257e+01
1.481103e+02	-2.140124e+01
1.489658e+02	-2.145223e+01
1.498262e+02	-2.150219e+01
1.506916e+02	-2.155075e+01
1.515620e+02	-2.160129e+01
1.524374e+02	-2.165025e+01
1.533179e+02	-2.170050e+01
1.542034e+02	-2.175232e+01
1.550941e+02	-2.179946e+01
1.559899e+02	-2.184833e+01
1.568909e+02	-2.190041e+01
1.577971e+02	-2.194981e+01
1.587085e+02	-2.200020e+01
1.596252e+02	-2.204787e+01
1.605472e+02	-2.209885e+01
1.614745e+02	-2.214968e+01
1.624072e+02	-2.219892e+01
1.633453e+02	-2.224865e+01
1.642887e+02	-2.229847e+01
1.652377e+02	-2.234760e+01
1.661921e+02	-2.239908e+01
1.671520e+02	-2.244772e+01
1.681175e+02	-2.249897e+01
1.690885e+02	-2.254561e+01
1.700651e+02	-2.259509e+01
1.710474e+02	-2.264600e+01
1.720354e+02	-2.269480e+01
1.730291e+02	-2.274511e+01
1.740285e+02	-2.279627e+01
1.750337e+02	-2.284388e+01
1.760446e+02	-2.289663e+01
1.770615e+02	-2.294258e+01
1.780842e+02	-2.299505e+01
1.791128e+02	-2.304289e+01
1.801473e+02	-2.309419e+01
1.811878e+02	-2.314668e+01
1.822344e+02	-2.319325e+01
1.832870e+02	-2.324318e+01
1.843456e+02	-2.329462e+01
1.854104e+02	-2.334328e+01
1.864813e+02	-2.339165e+01
1.875584e+02	-2.344167e+01
1.886418e+02	-2.349168e+01
1.897313e+02	-2.354286e+01
1.908272e+02	-2.359052e+01
1.919294e+02	-2.364479e+01
1.930380e+02	-2.369306e+01
1.941530e+02	-2.374093e+01
1.952744e+02	-2.379158e+01
1.964023e+02	-2.384132e+01
1.975367e+02	-2.388936e+01
1.986777e+02	-2.394217e+01
1.998252e+02	-2.399089e+01
2.009794e+02	-2.404029e+01
2.021403e+02	-2.408936e+01
2.033078e+02	-2.414134e+01
2.044821e+02	-2.419001e+01
2.056632e+02	-2.423951e+01
2.068511e+02	-2.428933e+01
2.080459e+02	-2.433927e+01
2.092475e+02	-2.439346e+01
2.104561e+02	-2.443973e+01
2.116717e+02	-2.448884e+01
2.128943e+02	-2.453798e+01
2.141240e+02	-2.458980e+01
2.153608e+02	-2.464048e+01
2.166047e+02	-2.469153e+01
2.178558e+02	-2.474088e+01
2.191141e+02	-2.479158e+01
2.203797e+02	-2.483790e+01
2.216526e+02	-2.489024e+01
2.229329e+02	-2.494033e+01
2.242205e+02	-2.499119e+01
2.255156e+02	-2.503541e+01
2.268182e+02	-2.508630e+01
2.281283e+02	-2.513789e+01
2.294459e+02	-2.518874e+01
2.307712e+02	-2.523776e+01
2.321041e+02	-2.528611e+01
2.334447e+02	-2.533760e+01
2.347931e+02	-2.538730e+01
2.361493e+02	-2.543748e+01
2.375133e+02	-2.548731e+01
2.388851e+02	-2.553831e+01
2.402649e+02	-2.558698e+01
2.416527e+02	-2.563677e+01
2.430484e+02	-2.568960e+01
2.444523e+02	-2.573780e+01
2.458642e+02	-2.578613e+01
2.472843e+02	-2.583819e+01
2.487126e+02	-2.588708e+01
2.501492e+02	-2.593619e+01
2.515940e+02	-2.598706e+01
2.530472e+02	-2.603861e+01
2.545088e+02	-2.608814e+01
2.559789e+02	-2.613924e+01
2.574574e+02	-2.618689e+01
2.589444e+02	-2.623470e+01
2.604401e+02	-2.629136e+01
2.619444e+02	-2.633758e+01
2.634574e+02	-2.638878e+01
2.649791e+02	-2.643251e+01
2.665096e+02	-2.648394e+01
2.680489e+02	-2.653725e+01
2.695972e+02	-2.658846e+01
2.711544e+02	-2.663744e+01
2.727205e+02	-2.668725e+01
2.742958e+02	-2.673932e+01
2.758801e+02	-2.678821e+01
2.774736e+02	-2.683712e+01
2.790762e+02	-2.688982e+01
2.806882e+02	-2.693844e+01
2.823094e+02	-2.698881e+01
2.839400e+02	-2.703657e+01
2.855800e+02	-2.709005e+01
2.872295e+02	-2.713600e+01
2.888886e+02	-2.718729e+01
2.905572e+02	-2.723787e+01
2.922354e+02	-2.728813e+01
2.939234e+02	-2.733775e+01
2.956211e+02	-2.738655e+01
2.973286e+02	-2.743708e+01
2.990459e+02	-2.748792e+01
3.007732e+02	-2.753996e+01
3.025104e+02	-2.758878e+01
3.042577e+02	-2.763700e+01
3.060151e+02	-2.768835e+01
3.077826e+02	-2.773796e+01
3.095604e+02	-2.778627e+01
3.113484e+02	-2.783920e+01
3.131467e+02	-2.788807e+01
3.149554e+02	-2.794092e+01
3.167746e+02	-2.798696e+01
3.186043e+02	-2.803417e+01
3.204445e+02	-2.808332e+01
3.222954e+02	-2.813437e+01
3.241570e+02	-2.818987e+01
3.260293e+02	-2.823342e+01
3.279124e+02	-2.828562e+01
3.298064e+02	-2.833219e+01
3.317114e+02	-2.839106e+01
3.336273e+02	-2.843756e+01
3.355544e+02	-2.848310e+01
3.374925e+02	-2.853797e+01
3.394418e+02	-2.858709e+01
3.414024e+02	-2.863409e+01
3.433744e+02	-2.869196e+01
3.453577e+02	-2.873461e+01
3.473525e+02	-2.878941e+01
3.493588e+02	-2.883857e+01
3.513766e+02	-2.888266e+01
3.534062e+02	-2.894037e+01
3.554474e+02	-2.899118e+01
3.575005e+02	-2.904076e+01
3.595654e+02	-2.909134e+01
3.616422e+02	-2.913543e+01
3.637311e+02	-2.918771e+01
3.658320e+02	-2.923137e+01
3.679450e+02	-2.928893e+01
3.700702e+02	-2.934047e+01
3.722077e+02	-2.939592e+01
3.743576e+02	-2.943801e+01
3.765199e+02	-2.948612e+01
3.786946e+02	-2.953504e+01
3.808820e+02	-2.958767e+01
3.830819e+02	-2.963706e+01
3.852946e+02	-2.968801e+01
3.875200e+02	-2.973284e+01
3.897583e+02	-2.978584e+01
3.920096e+02	-2.984137e+01
3.942738e+02	-2.988552e+01
3.965511e+02	-2.993526e+01
3.988416e+02	-2.998805e+01
4.011452e+02	-3.003641e+01
4.034622e+02	-3.008892e+01
4.057926e+02	-3.014111e+01
4.081365e+02	-3.019238e+01
4.104938e+02	-3.024331e+01
4.128648e+02	-3.028787e+01
4.152495e+02	-3.033861e+01
4.176480e+02	-3.039108e+01
4.200603e+02	-3.043981e+01
4.224866e+02	-3.049317e+01
4.249268e+02	-3.054461e+01
4.273812e+02	-3.058393e+01
4.298497e+02	-3.064599e+01
4.323325e+02	-3.068824e+01
4.348297e+02	-3.074286e+01
4.373412e+02	-3.079418e+01
4.398673e+02	-3.084300e+01
4.424079e+02	-3.088318e+01
4.449633e+02	-3.093817e+01
4.475334e+02	-3.099424e+01
4.501183e+02	-3.104551e+01
4.527182e+02	-3.109441e+01
4.553330e+02	-3.114128e+01
4.579630e+02	-3.118785e+01
4.606082e+02	-3.124531e+01
4.632687e+02	-3.129204e+01
4.659445e+02	-3.134457e+01
4.686358e+02	-3.140035e+01
4.713426e+02	-3.144690e+01
4.740650e+02	-3.149144e+01
4.768032e+02	-3.154544e+01
4.795572e+02	-3.159520e+01
4.823271e+02	-3.164230e+01
4.851130e+02	-3.169600e+01
4.879150e+02	-3.174577e+01
4.907332e+02	-3.179250e+01
4.935676e+02	-3.184630e+01
4.964185e+02	-3.189643e+01
4.992858e+02	-3.194487e+01
5.021696e+02	-3.199320e+01
5.050701e+02	-3.204357e+01
5.079874e+02	-3.209248e+01
5.109215e+02	-3.214177e+01
5.138726e+02	-3.219916e+01
5.168407e+02	-3.224608e+01
5.198259e+02	-3.230308e+01
5.228284e+02	-3.234668e+01
5.258482e+02	-3.239923e+01
5.288855e+02	-3.244720e+01
5.319403e+02	-3.249613e+01
5.350128e+02	-3.254123e+01
5.381030e+02	-3.260310e+01
5.412111e+02	-3.264940e+01
5.443371e+02	-3.269592e+01
5.474812e+02	-3.274748e+01
5.506434e+02	-3.279885e+01
5.538239e+02	-3.284236e+01
5.570228e+02	-3.290209e+01
5.602401e+02	-3.294503e+01
5.634760e+02	-3.299707e+01
5.667306e+02	-3.305541e+01
5.700040e+02	-3.310474e+01
5.732964e+02	-3.314442e+01
5.766077e+02	-3.319995e+01
5.799382e+02	-3.324809e+01
5.832879e+02	-3.330474e+01
5.866569e+02	-3.334841e+01
5.900454e+02	-3.340721e+01
5.934535e+02	-3.345499e+01
5.968813e+02	-3.349781e+01
6.003288e+02	-3.355780e+01
6.037963e+02	-3.359563e+01
6.072838e+02	-3.365239e+01
6.107914e+02	-3.370745e+01
6.143194e+02	-3.375819e+01
6.178676e+02	-3.379789e+01
6.214364e+02	-3.384830e+01
6.250258e+02	-3.390781e+01
6.286359e+02	-3.395459e+01
6.322669e+02	-3.401314e+01
6.359189e+02	-3.405840e+01
6.395919e+02	-3.409505e+01
6.432862e+02	-3.415558e+01
6.470017e+02	-3.421293e+01
6.507388e+02	-3.425109e+01
6.544974e+02	-3.431009e+01
6.582778e+02	-3.435712e+01
6.620800e+02	-3.440951e+01
6.659041e+02	-3.445090e+01
6.697504e+02	-3.451495e+01
6.736188e+02	-3.456192e+01
6.775096e+02	-3.461039e+01
6.814229e+02	-3.466537e+01
6.853587e+02	-3.470802e+01
6.893173e+02	-3.476145e+01
6.932988e+02	-3.481441e+01
6.973033e+02	-3.486265e+01
7.013309e+02	-3.490865e+01
