Frequency(Hz)	Magnitude(dB)
1.000000e+01	-2.068913e+00
1.005776e+01	-2.087849e+00
1.011585e+01	-2.107130e+00
1.017428e+01	-2.126257e+00
1.023305e+01	-2.145960e+00
1.029215e+01	-2.165226e+00
1.035160e+01	-2.185144e+00
1.041139e+01	-2.205079e+00
1.047153e+01	-2.225021e+00
1.053201e+01	-2.245080e+00
1.059284e+01	-2.265347e+00
1.065403e+01	-2.285862e+00
1.071556e+01	-2.306453e+00
1.077746e+01	-2.326966e+00
1.083971e+01	-2.347951e+00
1.090232e+01	-2.369020e+00
1.096529e+01	-2.390142e+00
1.102862e+01	-2.411253e+00
1.109232e+01	-2.432585e+00
1.115639e+01	-2.454002e+00
1.122083e+01	-2.475657e+00
1.128564e+01	-2.497334e+00
1.135083e+01	-2.519468e+00
1.141639e+01	-2.541394e+00
1.148233e+01	-2.563928e+00
1.154865e+01	-2.586082e+00
1.161536e+01	-2.608495e+00
1.168245e+01	-2.631317e+00
1.174992e+01	-2.654074e+00
1.181779e+01	-2.676957e+00
1.188605e+01	-2.700123e+00
1.195470e+01	-2.723720e+00
1.202375e+01	-2.746819e+00
1.209320e+01	-2.769969e+00
1.216305e+01	-2.793912e+00
1.223330e+01	-2.817559e+00
1.230396e+01	-2.841711e+00
1.237503e+01	-2.865999e+00
1.244651e+01	-2.890190e+00
1.251840e+01	-2.914204e+00
1.259070e+01	-2.938836e+00
1.266343e+01	-2.963415e+00
1.273657e+01	-2.988484e+00
1.281014e+01	-3.013281e+00
1.288413e+01	-3.038325e+00
1.295855e+01	-3.063721e+00
1.303339e+01	-3.089197e+00
1.310867e+01	-3.114983e+00
1.318439e+01	-3.140195e+00
1.326054e+01	-3.166207e+00
1.333713e+01	-3.192542e+00
1.341417e+01	-3.218450e+00
1.349165e+01	-3.244506e+00
1.356958e+01	-3.270850e+00
1.364795e+01	-3.297622e+00
1.372678e+01	-3.324083e+00
1.380607e+01	-3.350815e+00
1.388581e+01	-3.377756e+00
1.396602e+01	-3.404907e+00
1.404668e+01	-3.432285e+00
1.412782e+01	-3.459623e+00
1.420942e+01	-3.487389e+00
1.429149e+01	-3.514941e+00
1.437404e+01	-3.542505e+00
1.445706e+01	-3.570487e+00
1.454057e+01	-3.598956e+00
1.462455e+01	-3.627148e+00
1.470902e+01	-3.655512e+00
1.479398e+01	-3.683982e+00
1.487943e+01	-3.712722e+00
1.496537e+01	-3.741426e+00
1.505181e+01	-3.770469e+00
1.513875e+01	-3.799478e+00
1.522619e+01	-3.828746e+00
1.531414e+01	-3.858187e+00
1.540259e+01	-3.887762e+00
1.549156e+01	-3.917408e+00
1.558103e+01	-3.947302e+00
1.567103e+01	-3.977227e+00
1.576155e+01	-4.007047e+00
1.585258e+01	-4.037445e+00
1.594415e+01	-4.067650e+00
1.603624e+01	-4.098030e+00
1.612886e+01	-4.128812e+00
1.622202e+01	-4.159723e+00
1.631572e+01	-4.190333e+00
1.640996e+01	-4.221675e+00
1.650474e+01	-4.252590e+00
1.660008e+01	-4.283977e+00
1.669596e+01	-4.315336e+00
1.679239e+01	-4.347145e+00
1.688938e+01	-4.378496e+00
1.698694e+01	-4.410722e+00
1.708505e+01	-4.442479e+00
1.718373e+01	-4.474754e+00
1.728299e+01	-4.506959e+00
1.738281e+01	-4.539271e+00
1.748322e+01	-4.572118e+00
1.758420e+01	-4.604350e+00
1.768576e+01	-4.637191e+00
1.778792e+01	-4.669903e+00
1.789066e+01	-4.702857e+00
1.799399e+01	-4.736420e+00
1.809793e+01	-4.769411e+00
1.820246e+01	-4.802999e+00
1.830760e+01	-4.836330e+00
1.841334e+01	-4.869976e+00
1.851969e+01	-4.903668e+00
1.862666e+01	-4.937663e+00
1.873425e+01	-4.971901e+00
1.884246e+01	-5.005973e+00
1.895129e+01	-5.040366e+00
1.906075e+01	-5.074423e+00
1.917085e+01	-5.109225e+00
1.928158e+01	-5.143692e+00
1.939295e+01	-5.178828e+00
1.950496e+01	-5.213718e+00
1.961762e+01	-5.248567e+00
1.973093e+01	-5.283726e+00
1.984490e+01	-5.318942e+00
1.995952e+01	-5.354345e+00
2.007480e+01	-5.389935e+00
2.019076e+01	-5.425727e+00
2.030738e+01	-5.461292e+00
2.042467e+01	-5.497146e+00
2.054264e+01	-5.533102e+00
2.066130e+01	-5.569115e+00
2.078064e+01	-5.605326e+00
2.090066e+01	-5.641773e+00
2.102139e+01	-5.678368e+00
2.114280e+01	-5.714570e+00
2.126492e+01	-5.751235e+00
2.138775e+01	-5.788399e+00
2.151128e+01	-5.825105e+00
2.163553e+01	-5.862159e+00
2.176050e+01	-5.899027e+00
2.188619e+01	-5.936233e+00
2.201260e+01	-5.973569e+00
2.213974e+01	-6.011000e+00
2.226762e+01	-6.048612e+00
2.239624e+01	-6.086358e+00
2.252560e+01	-6.124065e+00
2.265571e+01	-6.162017e+00
2.278656e+01	-6.199942e+00
2.291818e+01	-6.238318e+00
2.305055e+01	-6.275887e+00
2.318369e+01	-6.314497e+00
2.331760e+01	-6.352907e+00
2.345228e+01	-6.391296e+00
2.358774e+01	-6.429833e+00
2.372398e+01	-6.468600e+00
2.386101e+01	-6.507532e+00
2.399883e+01	-6.546386e+00
2.413745e+01	-6.585335e+00
2.427686e+01	-6.624204e+00
2.441709e+01	-6.663428e+00
2.455812e+01	-6.703001e+00
2.469997e+01	-6.741907e+00
2.484263e+01	-6.781727e+00
2.498612e+01	-6.821380e+00
2.513044e+01	-6.860985e+00
2.527559e+01	-6.900420e+00
2.542158e+01	-6.940640e+00
2.556842e+01	-6.980559e+00
2.571610e+01	-7.020983e+00
2.586463e+01	-7.060745e+00
2.601403e+01	-7.101092e+00
2.616428e+01	-7.141291e+00
2.631541e+01	-7.181575e+00
2.646740e+01	-7.222435e+00
2.662028e+01	-7.262621e+00
2.677404e+01	-7.303647e+00
2.692868e+01	-7.344446e+00
2.708422e+01	-7.385087e+00
2.724066e+01	-7.426367e+00
2.739800e+01	-7.466963e+00
2.755625e+01	-7.508273e+00
2.771541e+01	-7.549483e+00
2.787550e+01	-7.590602e+00
2.803650e+01	-7.631733e+00
2.819844e+01	-7.673398e+00
2.836131e+01	-7.714975e+00
2.852513e+01	-7.756627e+00
2.868989e+01	-7.798240e+00
2.885560e+01	-7.840050e+00
2.902227e+01	-7.882027e+00
2.918990e+01	-7.923246e+00
2.935850e+01	-7.965999e+00
2.952807e+01	-8.007664e+00
2.969863e+01	-8.049893e+00
2.987016e+01	-8.092223e+00
3.004269e+01	-8.134606e+00
3.021622e+01	-8.176876e+00
3.039075e+01	-8.219142e+00
3.056628e+01	-8.261557e+00
3.074283e+01	-8.304209e+00
3.092040e+01	-8.347183e+00
3.109900e+01	-8.389991e+00
3.127862e+01	-8.432853e+00
3.145929e+01	-8.475412e+00
3.164099e+01	-8.518264e+00
3.182375e+01	-8.561362e+00
3.200756e+01	-8.604489e+00
3.219244e+01	-8.647748e+00
3.237838e+01	-8.690546e+00
3.256540e+01	-8.734308e+00
3.275349e+01	-8.777739e+00
3.294268e+01	-8.820809e+00
3.313295e+01	-8.864388e+00
3.332433e+01	-8.908116e+00
3.351681e+01	-8.951466e+00
3.371040e+01	-8.995909e+00
3.390511e+01	-9.039288e+00
3.410094e+01	-9.082974e+00
3.429791e+01	-9.127226e+00
3.449601e+01	-9.171003e+00
3.469526e+01	-9.214696e+00
3.489566e+01	-9.258743e+00
3.509721e+01	-9.302693e+00
3.529993e+01	-9.347213e+00
3.550382e+01	-9.391321e+00
3.570889e+01	-9.435511e+00
3.591515e+01	-9.480661e+00
3.612259e+01	-9.524355e+00
3.633123e+01	-9.569406e+00
3.654108e+01	-9.613519e+00
3.675214e+01	-9.658199e+00
3.696442e+01	-9.702520e+00
3.717792e+01	-9.747158e+00
3.739266e+01	-9.792081e+00
3.760864e+01	-9.837118e+00
3.782587e+01	-9.881731e+00
3.804435e+01	-9.926738e+00
3.826409e+01	-9.971632e+00
3.848510e+01	-1.001712e+01
3.870739e+01	-1.006170e+01
3.893096e+01	-1.010691e+01
3.915583e+01	-1.015226e+01
3.938199e+01	-1.019727e+01
3.960946e+01	-1.024239e+01
3.983824e+01	-1.028745e+01
4.006834e+01	-1.033368e+01
4.029978e+01	-1.037867e+01
4.053255e+01	-1.042400e+01
4.076666e+01	-1.046985e+01
4.100213e+01	-1.051548e+01
4.123896e+01	-1.056072e+01
4.147715e+01	-1.060653e+01
4.171672e+01	-1.065217e+01
4.195767e+01	-1.069843e+01
4.220002e+01	-1.074342e+01
4.244377e+01	-1.078954e+01
4.268892e+01	-1.083484e+01
4.293549e+01	-1.088111e+01
4.318348e+01	-1.092731e+01
4.343291e+01	-1.097338e+01
4.368377e+01	-1.101891e+01
4.393609e+01	-1.106557e+01
4.418986e+01	-1.111187e+01
4.444510e+01	-1.115795e+01
4.470182e+01	-1.120357e+01
4.496001e+01	-1.125027e+01
4.521970e+01	-1.129688e+01
4.548089e+01	-1.134262e+01
4.574358e+01	-1.138910e+01
4.600779e+01	-1.143591e+01
4.627353e+01	-1.148251e+01
4.654081e+01	-1.152764e+01
4.680963e+01	-1.157470e+01
4.708000e+01	-1.162249e+01
4.735193e+01	-1.166867e+01
4.762543e+01	-1.171503e+01
4.790051e+01	-1.176130e+01
4.817719e+01	-1.180789e+01
4.845545e+01	-1.185487e+01
4.873533e+01	-1.190174e+01
4.901682e+01	-1.194829e+01
4.929994e+01	-1.199596e+01
4.958470e+01	-1.204257e+01
4.987110e+01	-1.208951e+01
5.015915e+01	-1.213638e+01
5.044887e+01	-1.218318e+01
5.074026e+01	-1.223043e+01
5.103333e+01	-1.227756e+01
5.132810e+01	-1.232452e+01
5.162457e+01	-1.237133e+01
5.192275e+01	-1.241822e+01
5.222265e+01	-1.246647e+01
5.252429e+01	-1.251363e+01
5.282767e+01	-1.255984e+01
5.313280e+01	-1.260759e+01
5.343969e+01	-1.265458e+01
5.374836e+01	-1.270190e+01
5.405880e+01	-1.275020e+01
5.437105e+01	-1.279658e+01
5.468509e+01	-1.284390e+01
5.500095e+01	-1.289226e+01
5.531863e+01	-1.293922e+01
5.563815e+01	-1.298745e+01
5.595951e+01	-1.303415e+01
5.628273e+01	-1.308159e+01
5.660782e+01	-1.312950e+01
5.693479e+01	-1.317622e+01
5.726364e+01	-1.322431e+01
5.759439e+01	-1.327244e+01
5.792705e+01	-1.332019e+01
5.826164e+01	-1.336795e+01
5.859815e+01	-1.341591e+01
5.893662e+01	-1.346272e+01
5.927703e+01	-1.351124e+01
5.961941e+01	-1.355904e+01
5.996377e+01	-1.360651e+01
6.031012e+01	-1.365473e+01
6.065847e+01	-1.370262e+01
6.100883e+01	-1.374978e+01
6.136121e+01	-1.379769e+01
6.171563e+01	-1.384581e+01
6.207210e+01	-1.389467e+01
6.243063e+01	-1.394179e+01
6.279122e+01	-1.399023e+01
6.315390e+01	-1.403803e+01
6.351868e+01	-1.408563e+01
6.388556e+01	-1.413491e+01
6.425456e+01	-1.418283e+01
6.462569e+01	-1.423107e+01
6.499897e+01	-1.427851e+01
6.537440e+01	-1.432751e+01
6.575200e+01	-1.437577e+01
6.613178e+01	-1.442320e+01
6.651375e+01	-1.447183e+01
6.689793e+01	-1.451959e+01
6.728433e+01	-1.456799e+01
6.767297e+01	-1.461643e+01
6.806384e+01	-1.466449e+01
6.845698e+01	-1.471289e+01
6.885238e+01	-1.476033e+01
6.925007e+01	-1.480891e+01
6.965005e+01	-1.485687e+01
7.005235e+01	-1.490710e+01
7.045697e+01	-1.495490e+01
7.086393e+01	-1.500379e+01
7.127323e+01	-1.505095e+01
7.168490e+01	-1.510072e+01
7.209895e+01	-1.514857e+01
7.251539e+01	-1.519716e+01
7.293424e+01	-1.524583e+01
7.335551e+01	-1.529426e+01
7.377920e+01	-1.534287e+01
7.420535e+01	-1.539191e+01
7.463396e+01	-1.543970e+01
7.506504e+01	-1.548863e+01
7.549861e+01	-1.553800e+01
7.593469e+01	-1.558591e+01
7.637328e+01	-1.563335e+01
7.681441e+01	-1.568327e+01
7.725809e+01	-1.573202e+01
7.770433e+01	-1.578127e+01
7.815315e+01	-1.582961e+01
7.860456e+01	-1.587753e+01
7.905857e+01	-1.592734e+01
7.951521e+01	-1.597548e+01
7.997449e+01	-1.602533e+01
8.043642e+01	-1.607304e+01
8.090102e+01	-1.612148e+01
8.136830e+01	-1.617155e+01
8.183828e+01	-1.621989e+01
8.231097e+01	-1.626835e+01
8.278640e+01	-1.631763e+01
8.326457e+01	-1.636506e+01
8.374550e+01	-1.641558e+01
8.422921e+01	-1.646390e+01
8.471572e+01	-1.651224e+01
8.520503e+01	-1.656243e+01
8.569717e+01	-1.661067e+01
8.619215e+01	-1.665998e+01
8.669000e+01	-1.670753e+01
8.719071e+01	-1.675829e+01
8.769432e+01	-1.680692e+01
8.820084e+01	-1.685545e+01
8.871029e+01	-1.690531e+01
8.922267e+01	-1.695269e+01
8.973802e+01	-1.700313e+01
9.025634e+01	-1.705209e+01
9.077766e+01	-1.710113e+01
9.130199e+01	-1.714937e+01
9.182935e+01	-1.719937e+01
9.235975e+01	-1.724819e+01
9.289321e+01	-1.729703e+01
9.342976e+01	-1.734657e+01
9.396941e+01	-1.739516e+01
9.451217e+01	-1.744396e+01
9.505807e+01	-1.749398e+01
9.560712e+01	-1.754223e+01
9.615934e+01	-1.759155e+01
9.671476e+01	-1.764164e+01
9.727338e+01	-1.769042e+01
9.783522e+01	-1.773998e+01
9.840032e+01	-1.778845e+01
9.896867e+01	-1.783718e+01
9.954031e+01	-1.788619e+01
1.001153e+02	-1.793662e+01
1.006935e+02	-1.798652e+01
1.012751e+02	-1.803288e+01
1.018601e+02	-1.808349e+01
1.024484e+02	-1.813315e+01
1.030402e+02	-1.818243e+01
1.036353e+02	-1.823089e+01
1.042339e+02	-1.828192e+01
1.048360e+02	-1.833077e+01
1.054415e+02	-1.837938e+01
1.060505e+02	-1.842828e+01
1.066631e+02	-1.847859e+01
1.072791e+02	-1.852859e+01
1.078988e+02	-1.857765e+01
1.085220e+02	-1.862683e+01
1.091488e+02	-1.867619e+01
1.097793e+02	-1.872523e+01
1.104133e+02	-1.877499e+01
1.110511e+02	-1.882525e+01
1.116925e+02	-1.887333e+01
1.123376e+02	-1.892120e+01
1.129865e+02	-1.897170e+01
1.136391e+02	-1.902015e+01
1.142955e+02	-1.907015e+01
1.149556e+02	-1.912099e+01
1.156196e+02	-1.917001e+01
1.162874e+02	-1.921887e+01
1.169591e+02	-1.926818e+01
1.176347e+02	-1.931662e+01
1.183141e+02	-1.936875e+01
1.189975e+02	-1.941681e+01
1.196848e+02	-1.946639e+01
1.203761e+02	-1.951429e+01
1.210714e+02	-1.956437e+01
1.217707e+02	-1.961383e+01
1.224740e+02	-1.966446e+01
1.231814e+02	-1.971557e+01
1.238929e+02	-1.976514e+01
1.246085e+02	-1.981073e+01
1.253283e+02	-1.986281e+01
1.260522e+02	-1.991273e+01
1.267802e+02	-1.996190e+01
1.275125e+02	-2.001034e+01
1.282490e+02	-2.005998e+01
1.289898e+02	-2.011021e+01
1.297348e+02	-2.015790e+01
1.304842e+02	-2.020875e+01
1.312378e+02	-2.025892e+01
1.319959e+02	-2.030858e+01
1.327583e+02	-2.035785e+01
1.335251e+02	-2.040736e+01
1.342963e+02	-2.045628e+01
1.350720e+02	-2.050795e+01
1.358522e+02	-2.055604e+01
1.366368e+02	-2.060545e+01
1.374260e+02	-2.065473e+01
1.382198e+02	-2.070593e+01
1.390182e+02	-2.075312e+01
1.398211e+02	-2.080412e+01
1.406287e+02	-2.085453e+01
1.414410e+02	-2.090313e+01
1.422579e+02	-2.095270e+01
1.430796e+02	-2.100267e+01
1.439060e+02	-2.105242e+01
1.447372e+02	-2.110131e+01
1.455732e+02	-2.115109e+01
1.464141e+02	-2.119999e+01
1.472597e+02	-2.124872e+01
1.481103e+02	-2.129930e+01
1.489658e+02	-2.134984e+01
1.498262e+02	-2.139976e+01
1.506916e+02	-2.144914e+01
1.515620e+02	-2.149964e+01
1.524374e+02	-2.155032e+01
1.533179e+02	-2.159899e+01
1.542034e+02	-2.164639e+01
1.550941e+02	-2.169815e+01
1.559899e+02	-2.174935e+01
1.568909e+02	-2.179804e+01
1.577971e+02	-2.184773e+01
1.587085e+02	-2.189782e+01
1.596252e+02	-2.194633e+01
1.605472e+02	-2.199691e+01
1.614745e+02	-2.204453e+01
1.624072e+02	-2.209571e+01
1.633453e+02	-2.214450e+01
1.642887e+02	-2.219139e+01
1.652377e+02	-2.224420e+01
1.661921e+02	-2.229361e+01
1.671520e+02	-2.234581e+01
1.681175e+02	-2.239324e+01
1.690885e+02	-2.244416e+01
1.700651e+02	-2.249082e+01
1.710474e+02	-2.254332e+01
1.720354e+02	-2.259397e+01
1.730291e+02	-2.264410e+01
1.740285e+02	-2.269394e+01
1.750337e+02	-2.274179e+01
1.760446e+02	-2.279171e+01
1.770615e+02	-2.284400e+01
1.780842e+02	-2.289131e+01
1.791128e+02	-2.294165e+01
1.801473e+02	-2.299049e+01
1.811878e+02	-2.304067e+01
1.822344e+02	-2.309014e+01
1.832870e+02	-2.314169e+01
1.843456e+02	-2.318832e+01
1.854104e+02	-2.323767e+01
1.864813e+02	-2.329166e+01
1.875584e+02	-2.334044e+01
1.886418e+02	-2.338740e+01
1.897313e+02	-2.344116e+01
1.908272e+02	-2.348995e+01
1.919294e+02	-2.353907e+01
1.930380e+02	-2.358885e+01
1.941530e+02	-2.363848e+01
1.952744e+02	-2.369163e+01
1.964023e+02	-2.373756e+01
1.975367e+02	-2.378916e+01
1.986777e+02	-2.384004e+01
1.998252e+02	-2.388788e+01
2.009794e+02	-2.394070e+01
2.021403e+02	-2.398866e+01
2.033078e+02	-2.403808e+01
2.044821e+02	-2.408994e+01
2.056632e+02	-2.413722e+01
2.068511e+02	-2.418490e+01
2.080459e+02	-2.423435e+01
2.092475e+02	-2.428765e+01
2.104561e+02	-2.433801e+01
2.116717e+02	-2.438711e+01
2.128943e+02	-2.443808e+01
2.141240e+02	-2.448686e+01
2.153608e+02	-2.453484e+01
2.166047e+02	-2.458634e+01
2.178558e+02	-2.463608e+01
2.191141e+02	-2.468561e+01
2.203797e+02	-2.473871e+01
2.216526e+02	-2.478719e+01
2.229329e+02	-2.483824e+01
2.242205e+02	-2.488859e+01
2.255156e+02	-2.493617e+01
2.268182e+02	-2.498833e+01
2.281283e+02	-2.503252e+01
2.294459e+02	-2.508920e+01
2.307712e+02	-2.513560e+01
2.321041e+02	-2.518785e+01
2.334447e+02	-2.523387e+01
2.347931e+02	-2.528676e+01
2.361493e+02	-2.533400e+01
2.375133e+02	-2.538797e+01
2.388851e+02	-2.543703e+01
2.402649e+02	-2.548360e+01
2.416527e+02	-2.553475e+01
2.430484e+02	-2.558352e+01
2.444523e+02	-2.563530e+01
2.458642e+02	-2.568337e+01
2.472843e+02	-2.573554e+01
2.487126e+02	-2.578687e+01
2.501492e+02	-2.583462e+01
2.515940e+02	-2.588191e+01
2.530472e+02	-2.593321e+01
2.545088e+02	-2.598327e+01
2.559789e+02	-2.603457e+01
2.574574e+02	-2.608280e+01
2.589444e+02	-2.613276e+01
2.604401e+02	-2.618482e+01
2.619444e+02	-2.623501e+01
2.634574e+02	-2.628539e+01
2.649791e+02	-2.633219e+01
2.665096e+02	-2.638378e+01
2.680489e+02	-2.643404e+01
2.695972e+02	-2.648392e+01
2.711544e+02	-2.653348e+01
2.727205e+02	-2.658818e+01
2.742958e+02	-2.663399e+01
2.758801e+02	-2.668247e+01
2.774736e+02	-2.673474e+01
2.790762e+02	-2.678447e+01
2.806882e+02	-2.683258e+01
2.823094e+02	-2.688404e+01
2.839400e+02	-2.693035e+01
2.855800e+02	-2.698124e+01
2.872295e+02	-2.702719e+01
2.888886e+02	-2.708225e+01
2.905572e+02	-2.713633e+01
2.922354e+02	-2.718235e+01
2.939234e+02	-2.723340e+01
2.956211e+02	-2.728632e+01
2.973286e+02	-2.733545e+01
2.990459e+02	-2.738108e+01
3.007732e+02	-2.743210e+01
3.025104e+02	-2.748163e+01
3.042577e+02	-2.753238e+01
3.060151e+02	-2.758224e+01
3.077826e+02	-2.763317e+01
3.095604e+02	-2.768517e+01
3.113484e+02	-2.773371e+01
3.131467e+02	-2.778323e+01
3.149554e+02	-2.783291e+01
3.167746e+02	-2.788386e+01
3.186043e+02	-2.793307e+01
3.204445e+02	-2.798388e+01
3.222954e+02	-2.803161e+01
3.241570e+02	-2.808663e+01
3.260293e+02	-2.813271e+01
3.279124e+02	-2.818644e+01
3.298064e+02	-2.823766e+01
3.317114e+02	-2.828320e+01
3.336273e+02	-2.833450e+01
3.355544e+02	-2.838088e+01
3.374925e+02	-2.843508e+01
3.394418e+02	-2.848537e+01
3.414024e+02	-2.853206e+01
3.433744e+02	-2.858334e+01
3.453577e+02	-2.863699e+01
3.473525e+02	-2.868357e+01
3.493588e+02	-2.873712e+01
3.513766e+02	-2.878242e+01
3.534062e+02	-2.883998e+01
3.554474e+02	-2.888580e+01
3.575005e+02	-2.893356e+01
3.595654e+02	-2.898610e+01
3.616422e+02	-2.903755e+01
3.637311e+02	-2.908784e+01
3.658320e+02	-2.913392e+01
3.679450e+02	-2.918582e+01
3.700702e+02	-2.924049e+01
3.722077e+02	-2.928625e+01
3.743576e+02	-2.933064e+01
3.765199e+02	-2.938586e+01
3.786946e+02	-2.943745e+01
3.808820e+02	-2.948394e+01
3.830819e+02	-2.953322e+01
3.852946e+02	-2.958268e+01
3.875200e+02	-2.963492e+01
3.897583e+02	-2.968537e+01
3.920096e+02	-2.973464e+01
3.942738e+02	-2.978700e+01
3.965511e+02	-2.983319e+01
3.988416e+02	-2.988505e+01
4.011452e+02	-2.993684e+01
4.034622e+02	-2.998218e+01
4.057926e+02	-3.003627e+01
4.081365e+02	-3.009136e+01
4.104938e+02	-3.013621e+01
4.128648e+02	-3.018768e+01
4.152495e+02	-3.023654e+01
4.176480e+02	-3.029015e+01
4.200603e+02	-3.033718e+01
4.224866e+02	-3.038819e+01
4.249268e+02	-3.043577e+01
4.273812e+02	-3.048398e+01
4.298497e+02	-3.054123e+01
4.323325e+02	-3.058290e+01
4.348297e+02	-3.063175e+01
4.373412e+02	-3.068616e+01
4.398673e+02	-3.074055e+01
4.424079e+02	-3.078457e+01
4.449633e+02	-3.083789e+01
4.475334e+02	-3.088096e+01
4.501183e+02	-3.093947e+01
4.527182e+02	-3.098978e+01
4.553330e+02	-3.104250e+01
4.579630e+02	-3.108919e+01
4.606082e+02	-3.114004e+01
4.632687e+02	-3.118586e+01
4.659445e+02	-3.123845e+01
4.686358e+02	-3.127999e+01
4.713426e+02	-3.134413e+01
4.740650e+02	-3.139099e+01
4.768032e+02	-3.144215e+01
4.795572e+02	-3.148590e+01
4.823271e+02	-3.153886e+01
4.851130e+02	-3.159037e+01
4.879150e+02	-3.163192e+01
4.907332e+02	-3.168600e+01
4.935676e+02	-3.173823e+01
4.964185e+02	-3.179503e+01
4.992858e+02	-3.183803e+01
5.021696e+02	-3.189115e+01
5.050701e+02	-3.194233e+01
5.079874e+02	-3.199035e+01
5.109215e+02	-3.204973e+01
5.138726e+02	-3.209097e+01
5.168407e+02	-3.214224e+01
5.198259e+02	-3.218935e+01
5.228284e+02	-3.223691e+01
5.258482e+02	-3.229672e+01
5.288855e+02	-3.234319e+01
5.319403e+02	-3.239534e+01
5.350128e+02	-3.244293e+01
5.381030e+02	-3.249220e+01
5.412111e+02	-3.255077e+01
5.443371e+02	-3.259327e+01
5.474812e+02	-3.264433e+01
5.506434e+02	-3.269790e+01
5.538239e+02	-3.274225e+01
5.570228e+02	-3.279550e+01
5.602401e+02	-3.284513e+01
5.634760e+02	-3.289996e+01
5.667306e+02	-3.294938e+01
5.700040e+02	-3.299682e+01
5.732964e+02	-3.304025e+01
5.766077e+02	-3.310299e+01
5.799382e+02	-3.313856e+01
5.832879e+02	-3.319289e+01
5.866569e+02	-3.325100e+01
5.900454e+02	-3.329686e+01
5.934535e+02	-3.334273e+01
5.968813e+02	-3.340150e+01
6.003288e+02	-3.344363e+01
6.037963e+02	-3.349898e+01
6.072838e+02	-3.354290e+01
6.107914e+02	-3.359569e+01
6.143194e+02	-3.364532e+01
6.178676e+02	-3.369526e+01
6.214364e+02	-3.375131e+01
6.250258e+02	-3.379992e+01
6.286359e+02	-3.384288e+01
6.322669e+02	-3.390152e+01
6.359189e+02	-3.395864e+01
6.395919e+02	-3.400248e+01
6.432862e+02	-3.404483e+01
6.470017e+02	-3.410043e+01
6.507388e+02	-3.414693e+01
6.544974e+02	-3.420729e+01
6.582778e+02	-3.425080e+01
6.620800e+02	-3.430750e+01
6.659041e+02	-3.435529e+01
6.697504e+02	-3.439357e+01
6.736188e+02	-3.444861e+01
6.775096e+02	-3.450114e+01
6.814229e+02	-3.455356e+01
6.853587e+02	-3.459938e+01
6.893173e+02	-3.465169e+01
6.932988e+02	-3.470731e+01
6.973033e+02	-3.475893e+01
7.013309e+02	-3.480787e+01
