Frequency(Hz)	Magnitude(dB)
1.000000e+01	-1.916782e-05
1.005776e+01	-1.938989e-05
1.011585e+01	-1.961452e-05
1.017428e+01	-1.984176e-05
1.023305e+01	-2.007163e-05
1.029215e+01	-2.030417e-05
1.035160e+01	-2.053940e-05
1.041139e+01	-2.077735e-05
1.047153e+01	-2.101806e-05
1.053201e+01	-2.126156e-05
1.059284e+01	-2.150788e-05
1.065403e+01	-2.175706e-05
1.071556e+01	-2.200912e-05
1.077746e+01	-2.226410e-05
1.083971e+01	-2.252203e-05
1.090232e+01	-2.278296e-05
1.096529e+01	-2.304690e-05
1.102862e+01	-2.331391e-05
1.109232e+01	-2.358401e-05
1.115639e+01	-2.385723e-05
1.122083e+01	-2.413362e-05
1.128564e+01	-2.441322e-05
1.135083e+01	-2.469605e-05
1.141639e+01	-2.498216e-05
1.148233e+01	-2.527159e-05
1.154865e+01	-2.556436e-05
1.161536e+01	-2.586053e-05
1.168245e+01	-2.616013e-05
1.174992e+01	-2.646321e-05
1.181779e+01	-2.676979e-05
1.188605e+01	-2.707992e-05
1.195470e+01	-2.739365e-05
1.202375e+01	-2.771101e-05
1.209320e+01	-2.803205e-05
1.216305e+01	-2.835681e-05
1.223330e+01	-2.868533e-05
1.230396e+01	-2.901766e-05
1.237503e+01	-2.935383e-05
1.244651e+01	-2.969390e-05
1.251840e+01	-3.003791e-05
1.259070e+01	-3.038591e-05
1.266343e+01	-3.073794e-05
1.273657e+01	-3.109405e-05
1.281014e+01	-3.145428e-05
1.288413e+01	-3.181868e-05
1.295855e+01	-3.218731e-05
1.303339e+01	-3.256021e-05
1.310867e+01	-3.293742e-05
1.318439e+01	-3.331901e-05
1.326054e+01	-3.370502e-05
1.333713e+01	-3.409550e-05
1.341417e+01	-3.449051e-05
1.349165e+01	-3.489009e-05
1.356958e+01	-3.529430e-05
1.364795e+01	-3.570319e-05
1.372678e+01	-3.611682e-05
1.380607e+01	-3.653524e-05
1.388581e+01	-3.695851e-05
1.396602e+01	-3.738668e-05
1.404668e+01	-3.781982e-05
1.412782e+01	-3.825797e-05
1.420942e+01	-3.870119e-05
1.429149e+01	-3.914956e-05
1.437404e+01	-3.960311e-05
1.445706e+01	-4.006192e-05
1.454057e+01	-4.052605e-05
1.462455e+01	-4.099555e-05
1.470902e+01	-4.147050e-05
1.479398e+01	-4.195094e-05
1.487943e+01	-4.243695e-05
1.496537e+01	-4.292859e-05
1.505181e+01	-4.342593e-05
1.513875e+01	-4.392903e-05
1.522619e+01	-4.443796e-05
1.531414e+01	-4.495278e-05
1.540259e+01	-4.547357e-05
1.549156e+01	-4.600039e-05
1.558103e+01	-4.653332e-05
1.567103e+01	-4.707241e-05
1.576155e+01	-4.761776e-05
1.585258e+01	-4.816942e-05
1.594415e+01	-4.872747e-05
1.603624e+01	-4.929199e-05
1.612886e+01	-4.986305e-05
1.622202e+01	-5.044072e-05
1.631572e+01	-5.102509e-05
1.640996e+01	-5.161623e-05
1.650474e+01	-5.221421e-05
1.660008e+01	-5.281912e-05
1.669596e+01	-5.343104e-05
1.679239e+01	-5.405005e-05
1.688938e+01	-5.467624e-05
1.698694e+01	-5.530967e-05
1.708505e+01	-5.595044e-05
1.718373e+01	-5.659864e-05
1.728299e+01	-5.725435e-05
1.738281e+01	-5.791765e-05
1.748322e+01	-5.858864e-05
1.758420e+01	-5.926740e-05
1.768576e+01	-5.995403e-05
1.778792e+01	-6.064860e-05
1.789066e+01	-6.135123e-05
1.799399e+01	-6.206200e-05
1.809793e+01	-6.278100e-05
1.820246e+01	-6.350833e-05
1.830760e+01	-6.424408e-05
1.841334e+01	-6.498836e-05
1.851969e+01	-6.574127e-05
1.862666e+01	-6.650289e-05
1.873425e+01	-6.727334e-05
1.884246e+01	-6.805271e-05
1.895129e+01	-6.884112e-05
1.906075e+01	-6.963866e-05
1.917085e+01	-7.044543e-05
1.928158e+01	-7.126156e-05
1.939295e+01	-7.208713e-05
1.950496e+01	-7.292228e-05
1.961762e+01	-7.376709e-05
1.973093e+01	-7.462170e-05
1.984490e+01	-7.548621e-05
1.995952e+01	-7.636073e-05
2.007480e+01	-7.724538e-05
2.019076e+01	-7.814028e-05
2.030738e+01	-7.904555e-05
2.042467e+01	-7.996131e-05
2.054264e+01	-8.088767e-05
2.066130e+01	-8.182477e-05
2.078064e+01	-8.277272e-05
2.090066e+01	-8.373166e-05
2.102139e+01	-8.470170e-05
2.114280e+01	-8.568299e-05
2.126492e+01	-8.667564e-05
2.138775e+01	-8.767979e-05
2.151128e+01	-8.869557e-05
2.163553e+01	-8.972313e-05
2.176050e+01	-9.076258e-05
2.188619e+01	-9.181408e-05
2.201260e+01	-9.287776e-05
2.213974e+01	-9.395377e-05
2.226762e+01	-9.504223e-05
2.239624e+01	-9.614331e-05
2.252560e+01	-9.725715e-05
2.265571e+01	-9.838389e-05
2.278656e+01	-9.952368e-05
2.291818e+01	-1.006767e-04
2.305055e+01	-1.018430e-04
2.318369e+01	-1.030229e-04
2.331760e+01	-1.042164e-04
2.345228e+01	-1.054238e-04
2.358774e+01	-1.066451e-04
2.372398e+01	-1.078806e-04
2.386101e+01	-1.091304e-04
2.399883e+01	-1.103947e-04
2.413745e+01	-1.116737e-04
2.427686e+01	-1.129674e-04
2.441709e+01	-1.142762e-04
2.455812e+01	-1.156001e-04
2.469997e+01	-1.169393e-04
2.484263e+01	-1.182941e-04
2.498612e+01	-1.196645e-04
2.513044e+01	-1.210509e-04
2.527559e+01	-1.224532e-04
2.542158e+01	-1.238719e-04
2.556842e+01	-1.253069e-04
2.571610e+01	-1.267586e-04
2.586463e+01	-1.282272e-04
2.601403e+01	-1.297127e-04
2.616428e+01	-1.312154e-04
2.631541e+01	-1.327356e-04
2.646740e+01	-1.342733e-04
2.662028e+01	-1.358289e-04
2.677404e+01	-1.374025e-04
2.692868e+01	-1.389943e-04
2.708422e+01	-1.406046e-04
2.724066e+01	-1.422335e-04
2.739800e+01	-1.438813e-04
2.755625e+01	-1.455481e-04
2.771541e+01	-1.472343e-04
2.787550e+01	-1.489400e-04
2.803650e+01	-1.506655e-04
2.819844e+01	-1.524110e-04
2.836131e+01	-1.541767e-04
2.852513e+01	-1.559628e-04
2.868989e+01	-1.577697e-04
2.885560e+01	-1.595975e-04
2.902227e+01	-1.614464e-04
2.918990e+01	-1.633168e-04
2.935850e+01	-1.652088e-04
2.952807e+01	-1.671228e-04
2.969863e+01	-1.690589e-04
2.987016e+01	-1.710174e-04
3.004269e+01	-1.729987e-04
3.021622e+01	-1.750029e-04
3.039075e+01	-1.770303e-04
3.056628e+01	-1.790812e-04
3.074283e+01	-1.811559e-04
3.092040e+01	-1.832546e-04
3.109900e+01	-1.853776e-04
3.127862e+01	-1.875252e-04
3.145929e+01	-1.896977e-04
3.164099e+01	-1.918953e-04
3.182375e+01	-1.941184e-04
3.200756e+01	-1.963673e-04
3.219244e+01	-1.986422e-04
3.237838e+01	-2.009435e-04
3.256540e+01	-2.032714e-04
3.275349e+01	-2.056263e-04
3.294268e+01	-2.080085e-04
3.313295e+01	-2.104183e-04
3.332433e+01	-2.128560e-04
3.351681e+01	-2.153219e-04
3.371040e+01	-2.178164e-04
3.390511e+01	-2.203398e-04
3.410094e+01	-2.228924e-04
3.429791e+01	-2.254746e-04
3.449601e+01	-2.280867e-04
3.469526e+01	-2.307291e-04
3.489566e+01	-2.334021e-04
3.509721e+01	-2.361061e-04
3.529993e+01	-2.388413e-04
3.550382e+01	-2.416083e-04
3.570889e+01	-2.444073e-04
3.591515e+01	-2.472388e-04
3.612259e+01	-2.501030e-04
3.633123e+01	-2.530005e-04
3.654108e+01	-2.559315e-04
3.675214e+01	-2.588964e-04
3.696442e+01	-2.618957e-04
3.717792e+01	-2.649297e-04
3.739266e+01	-2.679989e-04
3.760864e+01	-2.711037e-04
3.782587e+01	-2.742444e-04
3.804435e+01	-2.774215e-04
3.826409e+01	-2.806354e-04
3.848510e+01	-2.838865e-04
3.870739e+01	-2.871753e-04
3.893096e+01	-2.905022e-04
3.915583e+01	-2.938676e-04
3.938199e+01	-2.972721e-04
3.960946e+01	-3.007159e-04
3.983824e+01	-3.041997e-04
4.006834e+01	-3.077238e-04
4.029978e+01	-3.112887e-04
4.053255e+01	-3.148950e-04
4.076666e+01	-3.185430e-04
4.100213e+01	-3.222332e-04
4.123896e+01	-3.259663e-04
4.147715e+01	-3.297425e-04
4.171672e+01	-3.335626e-04
4.195767e+01	-3.374268e-04
4.220002e+01	-3.413358e-04
4.244377e+01	-3.452902e-04
4.268892e+01	-3.492903e-04
4.293549e+01	-3.533367e-04
4.318348e+01	-3.574301e-04
4.343291e+01	-3.615708e-04
4.368377e+01	-3.657596e-04
4.393609e+01	-3.699968e-04
4.418986e+01	-3.742831e-04
4.444510e+01	-3.786191e-04
4.470182e+01	-3.830053e-04
4.496001e+01	-3.874424e-04
4.521970e+01	-3.919308e-04
4.548089e+01	-3.964712e-04
4.574358e+01	-4.010642e-04
4.600779e+01	-4.057104e-04
4.627353e+01	-4.104105e-04
4.654081e+01	-4.151650e-04
4.680963e+01	-4.199745e-04
4.708000e+01	-4.248398e-04
4.735193e+01	-4.297615e-04
4.762543e+01	-4.347401e-04
4.790051e+01	-4.397765e-04
4.817719e+01	-4.448711e-04
4.845545e+01	-4.500248e-04
4.873533e+01	-4.552382e-04
4.901682e+01	-4.605120e-04
4.929994e+01	-4.658469e-04
4.958470e+01	-4.712435e-04
4.987110e+01	-4.767027e-04
5.015915e+01	-4.822251e-04
5.044887e+01	-4.878115e-04
5.074026e+01	-4.934627e-04
5.103333e+01	-4.991792e-04
5.132810e+01	-5.049620e-04
5.162457e+01	-5.108118e-04
5.192275e+01	-5.167293e-04
5.222265e+01	-5.227154e-04
5.252429e+01	-5.287709e-04
5.282767e+01	-5.348965e-04
5.313280e+01	-5.410930e-04
5.343969e+01	-5.473613e-04
5.374836e+01	-5.537022e-04
5.405880e+01	-5.601166e-04
5.437105e+01	-5.666053e-04
5.468509e+01	-5.731691e-04
5.500095e+01	-5.798090e-04
5.531863e+01	-5.865258e-04
5.563815e+01	-5.933204e-04
5.595951e+01	-6.001937e-04
5.628273e+01	-6.071466e-04
5.660782e+01	-6.141801e-04
5.693479e+01	-6.212950e-04
5.726364e+01	-6.284924e-04
5.759439e+01	-6.357731e-04
5.792705e+01	-6.431382e-04
5.826164e+01	-6.505886e-04
5.859815e+01	-6.581252e-04
5.893662e+01	-6.657492e-04
5.927703e+01	-6.734615e-04
5.961941e+01	-6.812631e-04
5.996377e+01	-6.891551e-04
6.031012e+01	-6.971385e-04
6.065847e+01	-7.052144e-04
6.100883e+01	-7.133839e-04
6.136121e+01	-7.216479e-04
6.171563e+01	-7.300077e-04
6.207210e+01	-7.384643e-04
6.243063e+01	-7.470189e-04
6.279122e+01	-7.556726e-04
6.315390e+01	-7.644265e-04
6.351868e+01	-7.732818e-04
6.388556e+01	-7.822397e-04
6.425456e+01	-7.913013e-04
6.462569e+01	-8.004679e-04
6.499897e+01	-8.097407e-04
6.537440e+01	-8.191208e-04
6.575200e+01	-8.286097e-04
6.613178e+01	-8.382084e-04
6.651375e+01	-8.479184e-04
6.689793e+01	-8.577408e-04
6.728433e+01	-8.676769e-04
6.767297e+01	-8.777282e-04
6.806384e+01	-8.878959e-04
6.845698e+01	-8.981813e-04
6.885238e+01	-9.085859e-04
6.925007e+01	-9.191110e-04
6.965005e+01	-9.297580e-04
7.005235e+01	-9.405284e-04
7.045697e+01	-9.514234e-04
7.086393e+01	-9.624447e-04
7.127323e+01	-9.735937e-04
7.168490e+01	-9.848717e-04
7.209895e+01	-9.962804e-04
7.251539e+01	-1.007821e-03
7.293424e+01	-1.019496e-03
7.335551e+01	-1.031306e-03
7.377920e+01	-1.043252e-03
7.420535e+01	-1.055337e-03
7.463396e+01	-1.067562e-03
7.506504e+01	-1.079928e-03
7.549861e+01	-1.092438e-03
7.593469e+01	-1.105093e-03
7.637328e+01	-1.117894e-03
7.681441e+01	-1.130843e-03
7.725809e+01	-1.143942e-03
7.770433e+01	-1.157194e-03
7.815315e+01	-1.170598e-03
7.860456e+01	-1.184158e-03
7.905857e+01	-1.197875e-03
7.951521e+01	-1.211751e-03
7.997449e+01	-1.225787e-03
8.043642e+01	-1.239986e-03
8.090102e+01	-1.254350e-03
8.136830e+01	-1.268880e-03
8.183828e+01	-1.283578e-03
8.231097e+01	-1.298446e-03
8.278640e+01	-1.313487e-03
8.326457e+01	-1.328701e-03
8.374550e+01	-1.344092e-03
8.422921e+01	-1.359662e-03
8.471572e+01	-1.375411e-03
8.520503e+01	-1.391343e-03
8.569717e+01	-1.407460e-03
8.619215e+01	-1.423763e-03
8.669000e+01	-1.440255e-03
8.719071e+01	-1.456938e-03
8.769432e+01	-1.473814e-03
8.820084e+01	-1.490885e-03
8.871029e+01	-1.508155e-03
8.922267e+01	-1.525624e-03
8.973802e+01	-1.543296e-03
9.025634e+01	-1.561172e-03
9.077766e+01	-1.579255e-03
9.130199e+01	-1.597548e-03
9.182935e+01	-1.616053e-03
9.235975e+01	-1.634772e-03
9.289321e+01	-1.653707e-03
9.342976e+01	-1.672862e-03
9.396941e+01	-1.692239e-03
9.451217e+01	-1.711840e-03
9.505807e+01	-1.731668e-03
9.560712e+01	-1.751726e-03
9.615934e+01	-1.772016e-03
9.671476e+01	-1.792541e-03
9.727338e+01	-1.813304e-03
9.783522e+01	-1.834307e-03
9.840032e+01	-1.855553e-03
9.896867e+01	-1.877046e-03
9.954031e+01	-1.898787e-03
1.001153e+02	-1.920780e-03
1.006935e+02	-1.943028e-03
1.012751e+02	-1.965534e-03
1.018601e+02	-1.988300e-03
1.024484e+02	-2.011329e-03
1.030402e+02	-2.034626e-03
1.036353e+02	-2.058192e-03
1.042339e+02	-2.082031e-03
1.048360e+02	-2.106146e-03
1.054415e+02	-2.130540e-03
1.060505e+02	-2.155217e-03
1.066631e+02	-2.180179e-03
1.072791e+02	-2.205431e-03
1.078988e+02	-2.230975e-03
1.085220e+02	-2.256814e-03
1.091488e+02	-2.282953e-03
1.097793e+02	-2.309395e-03
1.104133e+02	-2.336143e-03
1.110511e+02	-2.363200e-03
1.116925e+02	-2.390571e-03
1.123376e+02	-2.418259e-03
1.129865e+02	-2.446267e-03
1.136391e+02	-2.474599e-03
1.142955e+02	-2.503260e-03
1.149556e+02	-2.532252e-03
1.156196e+02	-2.561581e-03
1.162874e+02	-2.591248e-03
1.169591e+02	-2.621260e-03
1.176347e+02	-2.651618e-03
1.183141e+02	-2.682329e-03
1.189975e+02	-2.713394e-03
1.196848e+02	-2.744820e-03
1.203761e+02	-2.776609e-03
1.210714e+02	-2.808766e-03
1.217707e+02	-2.841296e-03
1.224740e+02	-2.874202e-03
1.231814e+02	-2.907490e-03
1.238929e+02	-2.941162e-03
1.246085e+02	-2.975225e-03
1.253283e+02	-3.009681e-03
1.260522e+02	-3.044537e-03
1.267802e+02	-3.079796e-03
1.275125e+02	-3.115464e-03
1.282490e+02	-3.151544e-03
1.289898e+02	-3.188042e-03
1.297348e+02	-3.224963e-03
1.304842e+02	-3.262311e-03
1.312378e+02	-3.300091e-03
1.319959e+02	-3.338309e-03
1.327583e+02	-3.376969e-03
1.335251e+02	-3.416077e-03
1.342963e+02	-3.455637e-03
1.350720e+02	-3.495655e-03
1.358522e+02	-3.536137e-03
1.366368e+02	-3.577087e-03
1.374260e+02	-3.618511e-03
1.382198e+02	-3.660415e-03
1.390182e+02	-3.702804e-03
1.398211e+02	-3.745683e-03
1.406287e+02	-3.789059e-03
1.414410e+02	-3.832937e-03
1.422579e+02	-3.877323e-03
1.430796e+02	-3.922222e-03
1.439060e+02	-3.967641e-03
1.447372e+02	-4.013586e-03
1.455732e+02	-4.060063e-03
1.464141e+02	-4.107078e-03
1.472597e+02	-4.154636e-03
1.481103e+02	-4.202746e-03
1.489658e+02	-4.251412e-03
1.498262e+02	-4.300641e-03
1.506916e+02	-4.350440e-03
1.515620e+02	-4.400815e-03
1.524374e+02	-4.451774e-03
1.533179e+02	-4.503322e-03
1.542034e+02	-4.555467e-03
1.550941e+02	-4.608215e-03
1.559899e+02	-4.661574e-03
1.568909e+02	-4.715550e-03
1.577971e+02	-4.770151e-03
1.587085e+02	-4.825383e-03
1.596252e+02	-4.881255e-03
1.605472e+02	-4.937773e-03
1.614745e+02	-4.994946e-03
1.624072e+02	-5.052780e-03
1.633453e+02	-5.111283e-03
1.642887e+02	-5.170463e-03
1.652377e+02	-5.230328e-03
1.661921e+02	-5.290886e-03
1.671520e+02	-5.352145e-03
1.681175e+02	-5.414112e-03
1.690885e+02	-5.476796e-03
1.700651e+02	-5.540206e-03
1.710474e+02	-5.604349e-03
1.720354e+02	-5.669234e-03
1.730291e+02	-5.734870e-03
1.740285e+02	-5.801266e-03
1.750337e+02	-5.868430e-03
1.760446e+02	-5.936370e-03
1.770615e+02	-6.005097e-03
1.780842e+02	-6.074619e-03
1.791128e+02	-6.144945e-03
1.801473e+02	-6.216085e-03
1.811878e+02	-6.288048e-03
1.822344e+02	-6.360843e-03
1.832870e+02	-6.434480e-03
1.843456e+02	-6.508969e-03
1.854104e+02	-6.584320e-03
1.864813e+02	-6.660542e-03
1.875584e+02	-6.737646e-03
1.886418e+02	-6.815642e-03
1.897313e+02	-6.894541e-03
1.908272e+02	-6.974351e-03
1.919294e+02	-7.055085e-03
1.930380e+02	-7.136753e-03
1.941530e+02	-7.219365e-03
1.952744e+02	-7.302933e-03
1.964023e+02	-7.387467e-03
1.975367e+02	-7.472979e-03
1.986777e+02	-7.559480e-03
1.998252e+02	-7.646981e-03
2.009794e+02	-7.735494e-03
2.021403e+02	-7.825031e-03
2.033078e+02	-7.915603e-03
2.044821e+02	-8.007223e-03
2.056632e+02	-8.099902e-03
2.068511e+02	-8.193653e-03
2.080459e+02	-8.288487e-03
2.092475e+02	-8.384419e-03
2.104561e+02	-8.481459e-03
2.116717e+02	-8.579622e-03
2.128943e+02	-8.678919e-03
2.141240e+02	-8.779365e-03
2.153608e+02	-8.880972e-03
2.166047e+02	-8.983754e-03
2.178558e+02	-9.087724e-03
2.191141e+02	-9.192896e-03
2.203797e+02	-9.299283e-03
2.216526e+02	-9.406901e-03
2.229329e+02	-9.515763e-03
2.242205e+02	-9.625883e-03
2.255156e+02	-9.737276e-03
2.268182e+02	-9.849956e-03
2.281283e+02	-9.963939e-03
2.294459e+02	-1.007924e-02
2.307712e+02	-1.019587e-02
2.321041e+02	-1.031385e-02
2.334447e+02	-1.043320e-02
2.347931e+02	-1.055392e-02
2.361493e+02	-1.067604e-02
2.375133e+02	-1.079957e-02
2.388851e+02	-1.092453e-02
2.402649e+02	-1.105093e-02
2.416527e+02	-1.117880e-02
2.430484e+02	-1.130814e-02
2.444523e+02	-1.143897e-02
2.458642e+02	-1.157132e-02
2.472843e+02	-1.170519e-02
2.487126e+02	-1.184061e-02
2.501492e+02	-1.197760e-02
2.515940e+02	-1.211617e-02
2.530472e+02	-1.225634e-02
2.545088e+02	-1.239813e-02
2.559789e+02	-1.254156e-02
2.574574e+02	-1.268664e-02
2.589444e+02	-1.283340e-02
2.604401e+02	-1.298186e-02
2.619444e+02	-1.313203e-02
2.634574e+02	-1.328393e-02
2.649791e+02	-1.343759e-02
2.665096e+02	-1.359303e-02
2.680489e+02	-1.375025e-02
2.695972e+02	-1.390930e-02
2.711544e+02	-1.407018e-02
2.727205e+02	-1.423292e-02
2.742958e+02	-1.439754e-02
2.758801e+02	-1.456406e-02
2.774736e+02	-1.473250e-02
2.790762e+02	-1.490288e-02
2.806882e+02	-1.507524e-02
2.823094e+02	-1.524958e-02
2.839400e+02	-1.542593e-02
2.855800e+02	-1.560433e-02
2.872295e+02	-1.578478e-02
2.888886e+02	-1.596731e-02
2.905572e+02	-1.615195e-02
2.922354e+02	-1.633872e-02
2.939234e+02	-1.652765e-02
2.956211e+02	-1.671876e-02
2.973286e+02	-1.691207e-02
2.990459e+02	-1.710761e-02
3.007732e+02	-1.730541e-02
3.025104e+02	-1.750550e-02
3.042577e+02	-1.770789e-02
3.060151e+02	-1.791261e-02
3.077826e+02	-1.811970e-02
3.095604e+02	-1.832918e-02
3.113484e+02	-1.854107e-02
3.131467e+02	-1.875541e-02
3.149554e+02	-1.897222e-02
3.167746e+02	-1.919153e-02
3.186043e+02	-1.941337e-02
3.204445e+02	-1.963777e-02
3.222954e+02	-1.986476e-02
3.241570e+02	-2.009436e-02
3.260293e+02	-2.032661e-02
3.279124e+02	-2.056154e-02
3.298064e+02	-2.079918e-02
3.317114e+02	-2.103956e-02
3.336273e+02	-2.128271e-02
3.355544e+02	-2.152866e-02
3.374925e+02	-2.177745e-02
3.394418e+02	-2.202911e-02
3.414024e+02	-2.228366e-02
3.433744e+02	-2.254116e-02
3.453577e+02	-2.280161e-02
3.473525e+02	-2.306507e-02
3.493588e+02	-2.333157e-02
3.513766e+02	-2.360113e-02
3.534062e+02	-2.387380e-02
3.554474e+02	-2.414962e-02
3.575005e+02	-2.442861e-02
3.595654e+02	-2.471081e-02
3.616422e+02	-2.499627e-02
3.637311e+02	-2.528501e-02
3.658320e+02	-2.557708e-02
3.679450e+02	-2.587251e-02
3.700702e+02	-2.617135e-02
3.722077e+02	-2.647362e-02
3.743576e+02	-2.677938e-02
3.765199e+02	-2.708865e-02
3.786946e+02	-2.740149e-02
3.808820e+02	-2.771793e-02
3.830819e+02	-2.803801e-02
3.852946e+02	-2.836177e-02
3.875200e+02	-2.868926e-02
3.897583e+02	-2.902052e-02
3.920096e+02	-2.935559e-02
3.942738e+02	-2.969452e-02
3.965511e+02	-3.003735e-02
3.988416e+02	-3.038412e-02
4.011452e+02	-3.073488e-02
4.034622e+02	-3.108967e-02
4.057926e+02	-3.144855e-02
4.081365e+02	-3.181155e-02
4.104938e+02	-3.217873e-02
4.128648e+02	-3.255012e-02
4.152495e+02	-3.292579e-02
4.176480e+02	-3.330578e-02
4.200603e+02	-3.369014e-02
4.224866e+02	-3.407891e-02
4.249268e+02	-3.447215e-02
4.273812e+02	-3.486992e-02
4.298497e+02	-3.527225e-02
4.323325e+02	-3.567921e-02
4.348297e+02	-3.609084e-02
4.373412e+02	-3.650720e-02
4.398673e+02	-3.692834e-02
4.424079e+02	-3.735432e-02
4.449633e+02	-3.778520e-02
4.475334e+02	-3.822102e-02
4.501183e+02	-3.866185e-02
4.527182e+02	-3.910773e-02
4.553330e+02	-3.955874e-02
4.579630e+02	-4.001492e-02
4.606082e+02	-4.047634e-02
4.632687e+02	-4.094306e-02
4.659445e+02	-4.141513e-02
4.686358e+02	-4.189261e-02
4.713426e+02	-4.237558e-02
4.740650e+02	-4.286409e-02
4.768032e+02	-4.335819e-02
4.795572e+02	-4.385797e-02
4.823271e+02	-4.436348e-02
4.851130e+02	-4.487478e-02
4.879150e+02	-4.539195e-02
4.907332e+02	-4.591504e-02
4.935676e+02	-4.644413e-02
4.964185e+02	-4.697928e-02
4.992858e+02	-4.752057e-02
5.021696e+02	-4.806806e-02
5.050701e+02	-4.862182e-02
5.079874e+02	-4.918192e-02
5.109215e+02	-4.974844e-02
5.138726e+02	-5.032145e-02
5.168407e+02	-5.090101e-02
5.198259e+02	-5.148722e-02
5.228284e+02	-5.208013e-02
5.258482e+02	-5.267983e-02
5.288855e+02	-5.328639e-02
5.319403e+02	-5.389989e-02
5.350128e+02	-5.452042e-02
5.381030e+02	-5.514804e-02
5.412111e+02	-5.578284e-02
5.443371e+02	-5.642489e-02
5.474812e+02	-5.707429e-02
5.506434e+02	-5.773112e-02
5.538239e+02	-5.839545e-02
5.570228e+02	-5.906737e-02
5.602401e+02	-5.974697e-02
5.634760e+02	-6.043434e-02
5.667306e+02	-6.112956e-02
5.700040e+02	-6.183272e-02
5.732964e+02	-6.254391e-02
5.766077e+02	-6.326322e-02
5.799382e+02	-6.399074e-02
5.832879e+02	-6.472656e-02
5.866569e+02	-6.547079e-02
5.900454e+02	-6.622350e-02
5.934535e+02	-6.698480e-02
5.968813e+02	-6.775479e-02
6.003288e+02	-6.853355e-02
6.037963e+02	-6.932120e-02
6.072838e+02	-7.011782e-02
6.107914e+02	-7.092352e-02
6.143194e+02	-7.173841e-02
6.178676e+02	-7.256258e-02
6.214364e+02	-7.339613e-02
6.250258e+02	-7.423918e-02
6.286359e+02	-7.509184e-02
6.322669e+02	-7.595419e-02
6.359189e+02	-7.682637e-02
6.395919e+02	-7.770846e-02
6.432862e+02	-7.860060e-02
6.470017e+02	-7.950288e-02
6.507388e+02	-8.041543e-02
6.544974e+02	-8.133835e-02
6.582778e+02	-8.227176e-02
6.620800e+02	-8.321578e-02
6.659041e+02	-8.417053e-02
6.697504e+02	-8.513612e-02
6.736188e+02	-8.611268e-02
6.775096e+02	-8.710033e-02
6.814229e+02	-8.809919e-02
6.853587e+02	-8.910939e-02
6.893173e+02	-9.013106e-02
6.932988e+02	-9.116431e-02
6.973033e+02	-9.220928e-02
7.013309e+02	-9.326611e-02
