Frequency(Hz)	Magnitude(dB)
1.000000e+01	-1.967782e+00
1.005776e+01	-1.986325e+00
1.011585e+01	-2.004543e+00
1.017428e+01	-2.023253e+00
1.023305e+01	-2.041822e+00
1.029215e+01	-2.060559e+00
1.035160e+01	-2.079570e+00
1.041139e+01	-2.098528e+00
1.047153e+01	-2.117887e+00
1.053201e+01	-2.137263e+00
1.059284e+01	-2.156730e+00
1.065403e+01	-2.176639e+00
1.071556e+01	-2.196364e+00
1.077746e+01	-2.216221e+00
1.083971e+01	-2.236332e+00
1.090232e+01	-2.256693e+00
1.096529e+01	-2.276790e+00
1.102862e+01	-2.297323e+00
1.109232e+01	-2.318107e+00
1.115639e+01	-2.338590e+00
1.122083e+01	-2.359351e+00
1.128564e+01	-2.380590e+00
1.135083e+01	-2.401883e+00
1.141639e+01	-2.423080e+00
1.148233e+01	-2.444434e+00
1.154865e+01	-2.466118e+00
1.161536e+01	-2.487881e+00
1.168245e+01	-2.509872e+00
1.174992e+01	-2.531964e+00
1.181779e+01	-2.554004e+00
1.188605e+01	-2.576532e+00
1.195470e+01	-2.598938e+00
1.202375e+01	-2.621536e+00
1.209320e+01	-2.644035e+00
1.216305e+01	-2.666939e+00
1.223330e+01	-2.690134e+00
1.230396e+01	-2.713122e+00
1.237503e+01	-2.736524e+00
1.244651e+01	-2.760050e+00
1.251840e+01	-2.783363e+00
1.259070e+01	-2.807314e+00
1.266343e+01	-2.831027e+00
1.273657e+01	-2.855082e+00
1.281014e+01	-2.879599e+00
1.288413e+01	-2.903774e+00
1.295855e+01	-2.928235e+00
1.303339e+01	-2.952750e+00
1.310867e+01	-2.977379e+00
1.318439e+01	-3.002630e+00
1.326054e+01	-3.027511e+00
1.333713e+01	-3.052706e+00
1.341417e+01	-3.078074e+00
1.349165e+01	-3.103206e+00
1.356958e+01	-3.129224e+00
1.364795e+01	-3.154808e+00
1.372678e+01	-3.180847e+00
1.380607e+01	-3.206876e+00
1.388581e+01	-3.233149e+00
1.396602e+01	-3.258988e+00
1.404668e+01	-3.285967e+00
1.412782e+01	-3.312560e+00
1.420942e+01	-3.338772e+00
1.429149e+01	-3.366077e+00
1.437404e+01	-3.393293e+00
1.445706e+01	-3.420348e+00
1.454057e+01	-3.447771e+00
1.462455e+01	-3.475251e+00
1.470902e+01	-3.502961e+00
1.479398e+01	-3.530599e+00
1.487943e+01	-3.558501e+00
1.496537e+01	-3.586479e+00
1.505181e+01	-3.614847e+00
1.513875e+01	-3.643172e+00
1.522619e+01	-3.671382e+00
1.531414e+01	-3.700182e+00
1.540259e+01	-3.728814e+00
1.549156e+01	-3.757777e+00
1.558103e+01	-3.786825e+00
1.567103e+01	-3.815860e+00
1.576155e+01	-3.845146e+00
1.585258e+01	-3.874512e+00
1.594415e+01	-3.904346e+00
1.603624e+01	-3.933986e+00
1.612886e+01	-3.964134e+00
1.622202e+01	-3.993901e+00
1.631572e+01	-4.024189e+00
1.640996e+01	-4.054419e+00
1.650474e+01	-4.084740e+00
1.660008e+01	-4.115543e+00
1.669596e+01	-4.146238e+00
1.679239e+01	-4.176922e+00
1.688938e+01	-4.207889e+00
1.698694e+01	-4.239186e+00
1.708505e+01	-4.270050e+00
1.718373e+01	-4.301502e+00
1.728299e+01	-4.333191e+00
1.738281e+01	-4.364592e+00
1.748322e+01	-4.396803e+00
1.758420e+01	-4.428498e+00
1.768576e+01	-4.460684e+00
1.778792e+01	-4.493109e+00
1.789066e+01	-4.524993e+00
1.799399e+01	-4.557706e+00
1.809793e+01	-4.590144e+00
1.820246e+01	-4.622364e+00
1.830760e+01	-4.655510e+00
1.841334e+01	-4.688358e+00
1.851969e+01	-4.721565e+00
1.862666e+01	-4.754844e+00
1.873425e+01	-4.788405e+00
1.884246e+01	-4.821736e+00
1.895129e+01	-4.855403e+00
1.906075e+01	-4.889155e+00
1.917085e+01	-4.922825e+00
1.928158e+01	-4.956875e+00
1.939295e+01	-4.990900e+00
1.950496e+01	-5.025331e+00
1.961762e+01	-5.059374e+00
1.973093e+01	-5.093862e+00
1.984490e+01	-5.128591e+00
1.995952e+01	-5.163390e+00
2.007480e+01	-5.198174e+00
2.019076e+01	-5.233556e+00
2.030738e+01	-5.268607e+00
2.042467e+01	-5.303490e+00
2.054264e+01	-5.339023e+00
2.066130e+01	-5.374390e+00
2.078064e+01	-5.410069e+00
2.090066e+01	-5.445676e+00
2.102139e+01	-5.481523e+00
2.114280e+01	-5.517349e+00
2.126492e+01	-5.553560e+00
2.138775e+01	-5.589671e+00
2.151128e+01	-5.625773e+00
2.163553e+01	-5.662228e+00
2.176050e+01	-5.698611e+00
2.188619e+01	-5.735430e+00
2.201260e+01	-5.772147e+00
2.213974e+01	-5.808612e+00
2.226762e+01	-5.845750e+00
2.239624e+01	-5.883416e+00
2.252560e+01	-5.920424e+00
2.265571e+01	-5.957236e+00
2.278656e+01	-5.994631e+00
2.291818e+01	-6.032156e+00
2.305055e+01	-6.069762e+00
2.318369e+01	-6.107605e+00
2.331760e+01	-6.145407e+00
2.345228e+01	-6.183294e+00
2.358774e+01	-6.221214e+00
2.372398e+01	-6.259700e+00
2.386101e+01	-6.297252e+00
2.399883e+01	-6.335838e+00
2.413745e+01	-6.374250e+00
2.427686e+01	-6.413074e+00
2.441709e+01	-6.451821e+00
2.455812e+01	-6.490610e+00
2.469997e+01	-6.529227e+00
2.484263e+01	-6.568368e+00
2.498612e+01	-6.607019e+00
2.513044e+01	-6.646531e+00
2.527559e+01	-6.685526e+00
2.542158e+01	-6.725028e+00
2.556842e+01	-6.764586e+00
2.571610e+01	-6.803967e+00
2.586463e+01	-6.843985e+00
2.601403e+01	-6.883487e+00
2.616428e+01	-6.923292e+00
2.631541e+01	-6.963218e+00
2.646740e+01	-7.002996e+00
2.662028e+01	-7.043343e+00
2.677404e+01	-7.083298e+00
2.692868e+01	-7.123617e+00
2.708422e+01	-7.163970e+00
2.724066e+01	-7.204623e+00
2.739800e+01	-7.245234e+00
2.755625e+01	-7.285648e+00
2.771541e+01	-7.326602e+00
2.787550e+01	-7.367687e+00
2.803650e+01	-7.408010e+00
2.819844e+01	-7.449108e+00
2.836131e+01	-7.490157e+00
2.852513e+01	-7.531262e+00
2.868989e+01	-7.572642e+00
2.885560e+01	-7.613953e+00
2.902227e+01	-7.655036e+00
2.918990e+01	-7.696844e+00
2.935850e+01	-7.738442e+00
2.952807e+01	-7.780245e+00
2.969863e+01	-7.821421e+00
2.987016e+01	-7.863602e+00
3.004269e+01	-7.905640e+00
3.021622e+01	-7.947197e+00
3.039075e+01	-7.989443e+00
3.056628e+01	-8.031487e+00
3.074283e+01	-8.073636e+00
3.092040e+01	-8.116099e+00
3.109900e+01	-8.158573e+00
3.127862e+01	-8.200880e+00
3.145929e+01	-8.243334e+00
3.164099e+01	-8.285781e+00
3.182375e+01	-8.328314e+00
3.200756e+01	-8.371170e+00
3.219244e+01	-8.413868e+00
3.237838e+01	-8.456824e+00
3.256540e+01	-8.499845e+00
3.275349e+01	-8.542681e+00
3.294268e+01	-8.586015e+00
3.313295e+01	-8.628404e+00
3.332433e+01	-8.672075e+00
3.351681e+01	-8.715869e+00
3.371040e+01	-8.758616e+00
3.390511e+01	-8.801784e+00
3.410094e+01	-8.845574e+00
3.429791e+01	-8.888926e+00
3.449601e+01	-8.932798e+00
3.469526e+01	-8.976245e+00
3.489566e+01	-9.019869e+00
3.509721e+01	-9.063585e+00
3.529993e+01	-9.107742e+00
3.550382e+01	-9.151616e+00
3.570889e+01	-9.195992e+00
3.591515e+01	-9.239518e+00
3.612259e+01	-9.284471e+00
3.633123e+01	-9.328007e+00
3.654108e+01	-9.372145e+00
3.675214e+01	-9.416526e+00
3.696442e+01	-9.460870e+00
3.717792e+01	-9.505163e+00
3.739266e+01	-9.549506e+00
3.760864e+01	-9.594503e+00
3.782587e+01	-9.638541e+00
3.804435e+01	-9.683122e+00
3.826409e+01	-9.728053e+00
3.848510e+01	-9.772746e+00
3.870739e+01	-9.817349e+00
3.893096e+01	-9.862080e+00
3.915583e+01	-9.907780e+00
3.938199e+01	-9.952290e+00
3.960946e+01	-9.997327e+00
3.983824e+01	-1.004189e+01
4.006834e+01	-1.008716e+01
4.029978e+01	-1.013241e+01
4.053255e+01	-1.017759e+01
4.076666e+01	-1.022266e+01
4.100213e+01	-1.026781e+01
4.123896e+01	-1.031308e+01
4.147715e+01	-1.035877e+01
4.171672e+01	-1.040443e+01
4.195767e+01	-1.045060e+01
4.220002e+01	-1.049560e+01
4.244377e+01	-1.054102e+01
4.268892e+01	-1.058682e+01
4.293549e+01	-1.063242e+01
4.318348e+01	-1.067746e+01
4.343291e+01	-1.072341e+01
4.368377e+01	-1.077029e+01
4.393609e+01	-1.081576e+01
4.418986e+01	-1.086148e+01
4.444510e+01	-1.090697e+01
4.470182e+01	-1.095353e+01
4.496001e+01	-1.099953e+01
4.521970e+01	-1.104542e+01
4.548089e+01	-1.109144e+01
4.574358e+01	-1.113762e+01
4.600779e+01	-1.118328e+01
4.627353e+01	-1.123034e+01
4.654081e+01	-1.127655e+01
4.680963e+01	-1.132309e+01
4.708000e+01	-1.136876e+01
4.735193e+01	-1.141519e+01
4.762543e+01	-1.146138e+01
4.790051e+01	-1.150790e+01
4.817719e+01	-1.155500e+01
4.845545e+01	-1.160165e+01
4.873533e+01	-1.164767e+01
4.901682e+01	-1.169458e+01
4.929994e+01	-1.174190e+01
4.958470e+01	-1.178833e+01
4.987110e+01	-1.183483e+01
5.015915e+01	-1.188147e+01
5.044887e+01	-1.192766e+01
5.074026e+01	-1.197524e+01
5.103333e+01	-1.202162e+01
5.132810e+01	-1.206886e+01
5.162457e+01	-1.211551e+01
5.192275e+01	-1.216266e+01
5.222265e+01	-1.220945e+01
5.252429e+01	-1.225681e+01
5.282767e+01	-1.230379e+01
5.313280e+01	-1.235054e+01
5.343969e+01	-1.239874e+01
5.374836e+01	-1.244444e+01
5.405880e+01	-1.249256e+01
5.437105e+01	-1.253936e+01
5.468509e+01	-1.258617e+01
5.500095e+01	-1.263427e+01
5.531863e+01	-1.268125e+01
5.563815e+01	-1.272887e+01
5.595951e+01	-1.277668e+01
5.628273e+01	-1.282307e+01
5.660782e+01	-1.287079e+01
5.693479e+01	-1.291876e+01
5.726364e+01	-1.296651e+01
5.759439e+01	-1.301279e+01
5.792705e+01	-1.306087e+01
5.826164e+01	-1.310878e+01
5.859815e+01	-1.315624e+01
5.893662e+01	-1.320384e+01
5.927703e+01	-1.325132e+01
5.961941e+01	-1.329937e+01
5.996377e+01	-1.334729e+01
6.031012e+01	-1.339442e+01
6.065847e+01	-1.344246e+01
6.100883e+01	-1.349056e+01
6.136121e+01	-1.353796e+01
6.171563e+01	-1.358537e+01
6.207210e+01	-1.363413e+01
6.243063e+01	-1.368154e+01
6.279122e+01	-1.372833e+01
6.315390e+01	-1.377718e+01
6.351868e+01	-1.382513e+01
6.388556e+01	-1.387387e+01
6.425456e+01	-1.392106e+01
6.462569e+01	-1.396960e+01
6.499897e+01	-1.401677e+01
6.537440e+01	-1.406577e+01
6.575200e+01	-1.411418e+01
6.613178e+01	-1.416131e+01
6.651375e+01	-1.420973e+01
6.689793e+01	-1.425775e+01
6.728433e+01	-1.430588e+01
6.767297e+01	-1.435401e+01
6.806384e+01	-1.440240e+01
6.845698e+01	-1.445140e+01
6.885238e+01	-1.449751e+01
6.925007e+01	-1.454708e+01
6.965005e+01	-1.459612e+01
7.005235e+01	-1.464326e+01
7.045697e+01	-1.469215e+01
7.086393e+01	-1.473948e+01
7.127323e+01	-1.478795e+01
7.168490e+01	-1.483815e+01
7.209895e+01	-1.488516e+01
7.251539e+01	-1.493432e+01
7.293424e+01	-1.498146e+01
7.335551e+01	-1.503106e+01
7.377920e+01	-1.507841e+01
7.420535e+01	-1.512798e+01
7.463396e+01	-1.517608e+01
7.506504e+01	-1.522514e+01
7.549861e+01	-1.527294e+01
7.593469e+01	-1.532240e+01
7.637328e+01	-1.536979e+01
7.681441e+01	-1.541865e+01
7.725809e+01	-1.546814e+01
7.770433e+01	-1.551613e+01
7.815315e+01	-1.556474e+01
7.860456e+01	-1.561407e+01
7.905857e+01	-1.566173e+01
7.951521e+01	-1.571077e+01
7.997449e+01	-1.575924e+01
8.043642e+01	-1.580745e+01
8.090102e+01	-1.585732e+01
8.136830e+01	-1.590532e+01
8.183828e+01	-1.595410e+01
8.231097e+01	-1.600358e+01
8.278640e+01	-1.605153e+01
8.326457e+01	-1.610052e+01
8.374550e+01	-1.615092e+01
8.422921e+01	-1.619901e+01
8.471572e+01	-1.624669e+01
8.520503e+01	-1.629612e+01
8.569717e+01	-1.634486e+01
8.619215e+01	-1.639431e+01
8.669000e+01	-1.644354e+01
8.719071e+01	-1.649152e+01
8.769432e+01	-1.654069e+01
8.820084e+01	-1.658995e+01
8.871029e+01	-1.663859e+01
8.922267e+01	-1.668896e+01
8.973802e+01	-1.673608e+01
9.025634e+01	-1.678635e+01
9.077766e+01	-1.683413e+01
9.130199e+01	-1.688255e+01
9.182935e+01	-1.693202e+01
9.235975e+01	-1.698098e+01
9.289321e+01	-1.702995e+01
9.342976e+01	-1.707888e+01
9.396941e+01	-1.712871e+01
9.451217e+01	-1.717709e+01
9.505807e+01	-1.722692e+01
9.560712e+01	-1.727558e+01
9.615934e+01	-1.732467e+01
9.671476e+01	-1.737420e+01
9.727338e+01	-1.742273e+01
9.783522e+01	-1.747265e+01
9.840032e+01	-1.751995e+01
9.896867e+01	-1.757032e+01
9.954031e+01	-1.761849e+01
1.001153e+02	-1.766821e+01
1.006935e+02	-1.771772e+01
1.012751e+02	-1.776764e+01
1.018601e+02	-1.781601e+01
1.024484e+02	-1.786509e+01
1.030402e+02	-1.791574e+01
1.036353e+02	-1.796364e+01
1.042339e+02	-1.801287e+01
1.048360e+02	-1.806257e+01
1.054415e+02	-1.811194e+01
1.060505e+02	-1.816070e+01
1.066631e+02	-1.820940e+01
1.072791e+02	-1.826073e+01
1.078988e+02	-1.830901e+01
1.085220e+02	-1.835823e+01
1.091488e+02	-1.840839e+01
1.097793e+02	-1.845641e+01
1.104133e+02	-1.850571e+01
1.110511e+02	-1.855638e+01
1.116925e+02	-1.860555e+01
1.123376e+02	-1.865451e+01
1.129865e+02	-1.870272e+01
1.136391e+02	-1.875207e+01
1.142955e+02	-1.880140e+01
1.149556e+02	-1.885307e+01
1.156196e+02	-1.890124e+01
1.162874e+02	-1.894965e+01
1.169591e+02	-1.900135e+01
1.176347e+02	-1.904923e+01
1.183141e+02	-1.909758e+01
1.189975e+02	-1.914829e+01
1.196848e+02	-1.919807e+01
1.203761e+02	-1.924514e+01
1.210714e+02	-1.929674e+01
1.217707e+02	-1.934673e+01
1.224740e+02	-1.939523e+01
1.231814e+02	-1.944343e+01
1.238929e+02	-1.949501e+01
1.246085e+02	-1.954446e+01
1.253283e+02	-1.959278e+01
1.260522e+02	-1.964292e+01
1.267802e+02	-1.969103e+01
1.275125e+02	-1.974330e+01
1.282490e+02	-1.979243e+01
1.289898e+02	-1.984089e+01
1.297348e+02	-1.988868e+01
1.304842e+02	-1.993972e+01
1.312378e+02	-1.998945e+01
1.319959e+02	-2.003848e+01
1.327583e+02	-2.008850e+01
1.335251e+02	-2.013659e+01
1.342963e+02	-2.018787e+01
1.350720e+02	-2.023762e+01
1.358522e+02	-2.028611e+01
1.366368e+02	-2.033625e+01
1.374260e+02	-2.038589e+01
1.382198e+02	-2.043362e+01
1.390182e+02	-2.048478e+01
1.398211e+02	-2.053499e+01
1.406287e+02	-2.058395e+01
1.414410e+02	-2.063505e+01
1.422579e+02	-2.068302e+01
1.430796e+02	-2.073302e+01
1.439060e+02	-2.078115e+01
1.447372e+02	-2.083067e+01
1.455732e+02	-2.088330e+01
1.464141e+02	-2.092957e+01
1.472597e+02	-2.098105e+01
1.481103e+02	-2.103062e+01
1.489658e+02	-2.108081e+01
1.498262e+02	-2.112910e+01
1.506916e+02	-2.117923e+01
1.515620e+02	-2.122908e+01
1.524374e+02	-2.127811e+01
1.533179e+02	-2.132818e+01
1.542034e+02	-2.137824e+01
1.550941e+02	-2.142884e+01
1.559899e+02	-2.147763e+01
1.568909e+02	-2.152575e+01
1.577971e+02	-2.157830e+01
1.587085e+02	-2.162817e+01
1.596252e+02	-2.167736e+01
1.605472e+02	-2.172546e+01
1.614745e+02	-2.177562e+01
1.624072e+02	-2.182579e+01
1.633453e+02	-2.187556e+01
1.642887e+02	-2.192432e+01
1.652377e+02	-2.197466e+01
1.661921e+02	-2.202304e+01
1.671520e+02	-2.207301e+01
1.681175e+02	-2.212478e+01
1.690885e+02	-2.217319e+01
1.700651e+02	-2.222084e+01
1.710474e+02	-2.227342e+01
1.720354e+02	-2.232129e+01
1.730291e+02	-2.237136e+01
1.740285e+02	-2.242407e+01
1.750337e+02	-2.247271e+01
1.760446e+02	-2.252359e+01
1.770615e+02	-2.257154e+01
1.780842e+02	-2.262185e+01
1.791128e+02	-2.267259e+01
1.801473e+02	-2.272141e+01
1.811878e+02	-2.277085e+01
1.822344e+02	-2.282123e+01
1.832870e+02	-2.287064e+01
1.843456e+02	-2.292130e+01
1.854104e+02	-2.296941e+01
1.864813e+02	-2.301927e+01
1.875584e+02	-2.307031e+01
1.886418e+02	-2.312046e+01
1.897313e+02	-2.317173e+01
1.908272e+02	-2.321817e+01
1.919294e+02	-2.326849e+01
1.930380e+02	-2.331889e+01
1.941530e+02	-2.336932e+01
1.952744e+02	-2.341899e+01
1.964023e+02	-2.346721e+01
1.975367e+02	-2.351879e+01
1.986777e+02	-2.356904e+01
1.998252e+02	-2.361796e+01
2.009794e+02	-2.366568e+01
2.021403e+02	-2.371692e+01
2.033078e+02	-2.376739e+01
2.044821e+02	-2.381839e+01
2.056632e+02	-2.386747e+01
2.068511e+02	-2.391564e+01
2.080459e+02	-2.396683e+01
2.092475e+02	-2.401673e+01
2.104561e+02	-2.406627e+01
2.116717e+02	-2.411625e+01
2.128943e+02	-2.416787e+01
2.141240e+02	-2.421408e+01
2.153608e+02	-2.426720e+01
2.166047e+02	-2.431704e+01
2.178558e+02	-2.436392e+01
2.191141e+02	-2.441404e+01
2.203797e+02	-2.446465e+01
2.216526e+02	-2.451610e+01
2.229329e+02	-2.456418e+01
2.242205e+02	-2.461472e+01
2.255156e+02	-2.466337e+01
2.268182e+02	-2.471621e+01
2.281283e+02	-2.476595e+01
2.294459e+02	-2.481582e+01
2.307712e+02	-2.486603e+01
2.321041e+02	-2.491211e+01
2.334447e+02	-2.496181e+01
2.347931e+02	-2.501444e+01
2.361493e+02	-2.506634e+01
2.375133e+02	-2.511359e+01
2.388851e+02	-2.516642e+01
2.402649e+02	-2.521363e+01
2.416527e+02	-2.526213e+01
2.430484e+02	-2.531393e+01
2.444523e+02	-2.536530e+01
2.458642e+02	-2.541463e+01
2.472843e+02	-2.546455e+01
2.487126e+02	-2.551537e+01
2.501492e+02	-2.556442e+01
2.515940e+02	-2.561620e+01
2.530472e+02	-2.566462e+01
2.545088e+02	-2.571321e+01
2.559789e+02	-2.576284e+01
2.574574e+02	-2.581315e+01
2.589444e+02	-2.586087e+01
2.604401e+02	-2.591581e+01
2.619444e+02	-2.596380e+01
2.634574e+02	-2.601456e+01
2.649791e+02	-2.606100e+01
2.665096e+02	-2.611170e+01
2.680489e+02	-2.616370e+01
2.695972e+02	-2.621249e+01
2.711544e+02	-2.626365e+01
2.727205e+02	-2.631440e+01
2.742958e+02	-2.636376e+01
2.758801e+02	-2.641378e+01
2.774736e+02	-2.646727e+01
2.790762e+02	-2.651307e+01
2.806882e+02	-2.656343e+01
2.823094e+02	-2.661531e+01
2.839400e+02	-2.666438e+01
2.855800e+02	-2.671188e+01
2.872295e+02	-2.676391e+01
2.888886e+02	-2.681035e+01
2.905572e+02	-2.686277e+01
2.922354e+02	-2.690930e+01
2.939234e+02	-2.696529e+01
2.956211e+02	-2.701263e+01
2.973286e+02	-2.706358e+01
2.990459e+02	-2.711309e+01
3.007732e+02	-2.716351e+01
3.025104e+02	-2.721417e+01
3.042577e+02	-2.726331e+01
3.060151e+02	-2.731450e+01
3.077826e+02	-2.736167e+01
3.095604e+02	-2.741195e+01
3.113484e+02	-2.746252e+01
3.131467e+02	-2.751463e+01
3.149554e+02	-2.756302e+01
3.167746e+02	-2.761455e+01
3.186043e+02	-2.766217e+01
3.204445e+02	-2.771115e+01
3.222954e+02	-2.776359e+01
3.241570e+02	-2.781423e+01
3.260293e+02	-2.786286e+01
3.279124e+02	-2.791522e+01
3.298064e+02	-2.796683e+01
3.317114e+02	-2.800865e+01
3.336273e+02	-2.806215e+01
3.355544e+02	-2.811796e+01
3.374925e+02	-2.816538e+01
3.394418e+02	-2.821533e+01
3.414024e+02	-2.826118e+01
3.433744e+02	-2.830601e+01
3.453577e+02	-2.836347e+01
3.473525e+02	-2.841153e+01
3.493588e+02	-2.846229e+01
3.513766e+02	-2.851414e+01
3.534062e+02	-2.856459e+01
3.554474e+02	-2.861561e+01
3.575005e+02	-2.866576e+01
3.595654e+02	-2.871539e+01
3.616422e+02	-2.876083e+01
3.637311e+02	-2.881847e+01
3.658320e+02	-2.886283e+01
3.679450e+02	-2.891202e+01
3.700702e+02	-2.896283e+01
3.722077e+02	-2.901617e+01
3.743576e+02	-2.906216e+01
3.765199e+02	-2.911295e+01
3.786946e+02	-2.916414e+01
3.808820e+02	-2.921804e+01
3.830819e+02	-2.926627e+01
3.852946e+02	-2.931543e+01
3.875200e+02	-2.936750e+01
3.897583e+02	-2.941110e+01
3.920096e+02	-2.946398e+01
3.942738e+02	-2.951469e+01
3.965511e+02	-2.957056e+01
3.988416e+02	-2.961657e+01
4.011452e+02	-2.966532e+01
4.034622e+02	-2.971316e+01
4.057926e+02	-2.976015e+01
4.081365e+02	-2.981898e+01
4.104938e+02	-2.986217e+01
4.128648e+02	-2.991428e+01
4.152495e+02	-2.996767e+01
4.176480e+02	-3.002142e+01
4.200603e+02	-3.006402e+01
4.224866e+02	-3.011643e+01
4.249268e+02	-3.016527e+01
4.273812e+02	-3.021407e+01
4.298497e+02	-3.026334e+01
4.323325e+02	-3.031498e+01
4.348297e+02	-3.036016e+01
4.373412e+02	-3.041678e+01
4.398673e+02	-3.046600e+01
4.424079e+02	-3.051709e+01
4.449633e+02	-3.056646e+01
4.475334e+02	-3.061440e+01
4.501183e+02	-3.066963e+01
4.527182e+02	-3.071820e+01
4.553330e+02	-3.077308e+01
4.579630e+02	-3.081208e+01
4.606082e+02	-3.087202e+01
4.632687e+02	-3.092097e+01
4.659445e+02	-3.097240e+01
4.686358e+02	-3.101923e+01
4.713426e+02	-3.106542e+01
4.740650e+02	-3.111909e+01
4.768032e+02	-3.116597e+01
4.795572e+02	-3.121875e+01
4.823271e+02	-3.126547e+01
4.851130e+02	-3.131816e+01
4.879150e+02	-3.137096e+01
4.907332e+02	-3.142409e+01
4.935676e+02	-3.147191e+01
4.964185e+02	-3.151769e+01
4.992858e+02	-3.156716e+01
5.021696e+02	-3.162218e+01
5.050701e+02	-3.167616e+01
5.079874e+02	-3.171649e+01
5.109215e+02	-3.177771e+01
5.138726e+02	-3.181872e+01
5.168407e+02	-3.187334e+01
5.198259e+02	-3.191824e+01
5.228284e+02	-3.197345e+01
5.258482e+02	-3.202962e+01
5.288855e+02	-3.207322e+01
5.319403e+02	-3.212652e+01
5.350128e+02	-3.217325e+01
5.381030e+02	-3.222703e+01
5.412111e+02	-3.227185e+01
5.443371e+02	-3.232897e+01
5.474812e+02	-3.237518e+01
5.506434e+02	-3.242570e+01
5.538239e+02	-3.247118e+01
5.570228e+02	-3.251998e+01
5.602401e+02	-3.257288e+01
5.634760e+02	-3.262491e+01
5.667306e+02	-3.267903e+01
5.700040e+02	-3.272452e+01
5.732964e+02	-3.278262e+01
5.766077e+02	-3.282441e+01
5.799382e+02	-3.286946e+01
5.832879e+02	-3.292751e+01
5.866569e+02	-3.297343e+01
5.900454e+02	-3.303045e+01
5.934535e+02	-3.308113e+01
5.968813e+02	-3.312278e+01
6.003288e+02	-3.317829e+01
6.037963e+02	-3.323176e+01
6.072838e+02	-3.327686e+01
6.107914e+02	-3.332878e+01
6.143194e+02	-3.337473e+01
6.178676e+02	-3.343195e+01
6.214364e+02	-3.347629e+01
6.250258e+02	-3.353047e+01
6.286359e+02	-3.357913e+01
6.322669e+02	-3.363877e+01
6.359189e+02	-3.367923e+01
6.395919e+02	-3.373860e+01
6.432862e+02	-3.377684e+01
6.470017e+02	-3.383034e+01
6.507388e+02	-3.388038e+01
6.544974e+02	-3.393157e+01
6.582778e+02	-3.397979e+01
6.620800e+02	-3.403192e+01
6.659041e+02	-3.408455e+01
6.697504e+02	-3.414041e+01
6.736188e+02	-3.419292e+01
6.775096e+02	-3.424125e+01
6.814229e+02	-3.428558e+01
6.853587e+02	-3.433591e+01
6.893173e+02	-3.438876e+01
6.932988e+02	-3.443388e+01
6.973033e+02	-3.447947e+01
7.013309e+02	-3.453379e+01
