Frequency(Hz)	Magnitude(dB)
1.000000e+01	-1.967919e+00
1.005776e+01	-1.986279e+00
1.011585e+01	-2.004817e+00
1.017428e+01	-2.023254e+00
1.023305e+01	-2.041873e+00
1.029215e+01	-2.060860e+00
1.035160e+01	-2.079936e+00
1.041139e+01	-2.098856e+00
1.047153e+01	-2.118180e+00
1.053201e+01	-2.137613e+00
1.059284e+01	-2.157099e+00
1.065403e+01	-2.176369e+00
1.071556e+01	-2.196401e+00
1.077746e+01	-2.216319e+00
1.083971e+01	-2.236310e+00
1.090232e+01	-2.256468e+00
1.096529e+01	-2.277081e+00
1.102862e+01	-2.297624e+00
1.109232e+01	-2.318251e+00
1.115639e+01	-2.338788e+00
1.122083e+01	-2.359595e+00
1.128564e+01	-2.380725e+00
1.135083e+01	-2.401986e+00
1.141639e+01	-2.423302e+00
1.148233e+01	-2.444830e+00
1.154865e+01	-2.466213e+00
1.161536e+01	-2.488053e+00
1.168245e+01	-2.509702e+00
1.174992e+01	-2.531996e+00
1.181779e+01	-2.553991e+00
1.188605e+01	-2.576478e+00
1.195470e+01	-2.599123e+00
1.202375e+01	-2.621387e+00
1.209320e+01	-2.644302e+00
1.216305e+01	-2.667240e+00
1.223330e+01	-2.690213e+00
1.230396e+01	-2.713537e+00
1.237503e+01	-2.736734e+00
1.244651e+01	-2.760132e+00
1.251840e+01	-2.783865e+00
1.259070e+01	-2.807736e+00
1.266343e+01	-2.831341e+00
1.273657e+01	-2.855624e+00
1.281014e+01	-2.879531e+00
1.288413e+01	-2.903833e+00
1.295855e+01	-2.928543e+00
1.303339e+01	-2.952892e+00
1.310867e+01	-2.977777e+00
1.318439e+01	-3.002671e+00
1.326054e+01	-3.027515e+00
1.333713e+01	-3.052994e+00
1.341417e+01	-3.078141e+00
1.349165e+01	-3.103605e+00
1.356958e+01	-3.129297e+00
1.364795e+01	-3.155025e+00
1.372678e+01	-3.180850e+00
1.380607e+01	-3.206895e+00
1.388581e+01	-3.233129e+00
1.396602e+01	-3.259451e+00
1.404668e+01	-3.286055e+00
1.412782e+01	-3.312724e+00
1.420942e+01	-3.339603e+00
1.429149e+01	-3.366557e+00
1.437404e+01	-3.393433e+00
1.445706e+01	-3.420491e+00
1.454057e+01	-3.447739e+00
1.462455e+01	-3.475352e+00
1.470902e+01	-3.502778e+00
1.479398e+01	-3.530519e+00
1.487943e+01	-3.558783e+00
1.496537e+01	-3.586672e+00
1.505181e+01	-3.614847e+00
1.513875e+01	-3.643419e+00
1.522619e+01	-3.671843e+00
1.531414e+01	-3.700376e+00
1.540259e+01	-3.728918e+00
1.549156e+01	-3.757956e+00
1.558103e+01	-3.787033e+00
1.567103e+01	-3.816093e+00
1.576155e+01	-3.845533e+00
1.585258e+01	-3.875152e+00
1.594415e+01	-3.904441e+00
1.603624e+01	-3.934495e+00
1.612886e+01	-3.963950e+00
1.622202e+01	-3.994224e+00
1.631572e+01	-4.024168e+00
1.640996e+01	-4.054652e+00
1.650474e+01	-4.085226e+00
1.660008e+01	-4.115789e+00
1.669596e+01	-4.146156e+00
1.679239e+01	-4.177148e+00
1.688938e+01	-4.208353e+00
1.698694e+01	-4.239256e+00
1.708505e+01	-4.270602e+00
1.718373e+01	-4.301734e+00
1.728299e+01	-4.333560e+00
1.738281e+01	-4.364862e+00
1.748322e+01	-4.396900e+00
1.758420e+01	-4.428702e+00
1.768576e+01	-4.460510e+00
1.778792e+01	-4.492968e+00
1.789066e+01	-4.525375e+00
1.799399e+01	-4.557792e+00
1.809793e+01	-4.590377e+00
1.820246e+01	-4.623148e+00
1.830760e+01	-4.656046e+00
1.841334e+01	-4.688593e+00
1.851969e+01	-4.721945e+00
1.862666e+01	-4.755142e+00
1.873425e+01	-4.788119e+00
1.884246e+01	-4.821735e+00
1.895129e+01	-4.855592e+00
1.906075e+01	-4.889450e+00
1.917085e+01	-4.923206e+00
1.928158e+01	-4.957236e+00
1.939295e+01	-4.991269e+00
1.950496e+01	-5.025770e+00
1.961762e+01	-5.059895e+00
1.973093e+01	-5.094147e+00
1.984490e+01	-5.128944e+00
1.995952e+01	-5.163533e+00
2.007480e+01	-5.198581e+00
2.019076e+01	-5.233566e+00
2.030738e+01	-5.268445e+00
2.042467e+01	-5.303765e+00
2.054264e+01	-5.339207e+00
2.066130e+01	-5.374638e+00
2.078064e+01	-5.409977e+00
2.090066e+01	-5.445919e+00
2.102139e+01	-5.481429e+00
2.114280e+01	-5.517594e+00
2.126492e+01	-5.553656e+00
2.138775e+01	-5.589708e+00
2.151128e+01	-5.625911e+00
2.163553e+01	-5.662665e+00
2.176050e+01	-5.699250e+00
2.188619e+01	-5.735423e+00
2.201260e+01	-5.772104e+00
2.213974e+01	-5.809182e+00
2.226762e+01	-5.845837e+00
2.239624e+01	-5.882896e+00
2.252560e+01	-5.920387e+00
2.265571e+01	-5.957563e+00
2.278656e+01	-5.995386e+00
2.291818e+01	-6.032322e+00
2.305055e+01	-6.070145e+00
2.318369e+01	-6.107694e+00
2.331760e+01	-6.145540e+00
2.345228e+01	-6.183557e+00
2.358774e+01	-6.221611e+00
2.372398e+01	-6.259541e+00
2.386101e+01	-6.297946e+00
2.399883e+01	-6.336195e+00
2.413745e+01	-6.374519e+00
2.427686e+01	-6.413632e+00
2.441709e+01	-6.451736e+00
2.455812e+01	-6.490773e+00
2.469997e+01	-6.529255e+00
2.484263e+01	-6.568371e+00
2.498612e+01	-6.607229e+00
2.513044e+01	-6.646428e+00
2.527559e+01	-6.686072e+00
2.542158e+01	-6.725059e+00
2.556842e+01	-6.764606e+00
2.571610e+01	-6.804371e+00
2.586463e+01	-6.843818e+00
2.601403e+01	-6.883925e+00
2.616428e+01	-6.923190e+00
2.631541e+01	-6.963307e+00
2.646740e+01	-7.003575e+00
2.662028e+01	-7.043754e+00
2.677404e+01	-7.083650e+00
2.692868e+01	-7.123641e+00
2.708422e+01	-7.164876e+00
2.724066e+01	-7.204789e+00
2.739800e+01	-7.245325e+00
2.755625e+01	-7.285872e+00
2.771541e+01	-7.326600e+00
2.787550e+01	-7.367600e+00
2.803650e+01	-7.408508e+00
2.819844e+01	-7.449256e+00
2.836131e+01	-7.490570e+00
2.852513e+01	-7.531670e+00
2.868989e+01	-7.572778e+00
2.885560e+01	-7.613937e+00
2.902227e+01	-7.655871e+00
2.918990e+01	-7.697026e+00
2.935850e+01	-7.738700e+00
2.952807e+01	-7.780216e+00
2.969863e+01	-7.822175e+00
2.987016e+01	-7.863802e+00
3.004269e+01	-7.905423e+00
3.021622e+01	-7.947853e+00
3.039075e+01	-7.989982e+00
3.056628e+01	-8.031872e+00
3.074283e+01	-8.073598e+00
3.092040e+01	-8.115773e+00
3.109900e+01	-8.158163e+00
3.127862e+01	-8.200939e+00
3.145929e+01	-8.243266e+00
3.164099e+01	-8.286085e+00
3.182375e+01	-8.329037e+00
3.200756e+01	-8.371358e+00
3.219244e+01	-8.414091e+00
3.237838e+01	-8.456939e+00
3.256540e+01	-8.499873e+00
3.275349e+01	-8.543198e+00
3.294268e+01	-8.586283e+00
3.313295e+01	-8.629326e+00
3.332433e+01	-8.672562e+00
3.351681e+01	-8.715550e+00
3.371040e+01	-8.759205e+00
3.390511e+01	-8.802315e+00
3.410094e+01	-8.846099e+00
3.429791e+01	-8.889859e+00
3.449601e+01	-8.933360e+00
3.469526e+01	-8.976926e+00
3.489566e+01	-9.020012e+00
3.509721e+01	-9.064089e+00
3.529993e+01	-9.107663e+00
3.550382e+01	-9.151750e+00
3.570889e+01	-9.195808e+00
3.591515e+01	-9.239907e+00
3.612259e+01	-9.284479e+00
3.633123e+01	-9.328519e+00
3.654108e+01	-9.372607e+00
3.675214e+01	-9.416689e+00
3.696442e+01	-9.460644e+00
3.717792e+01	-9.505215e+00
3.739266e+01	-9.549937e+00
3.760864e+01	-9.594407e+00
3.782587e+01	-9.638925e+00
3.804435e+01	-9.683560e+00
3.826409e+01	-9.727841e+00
3.848510e+01	-9.773049e+00
3.870739e+01	-9.817758e+00
3.893096e+01	-9.862366e+00
3.915583e+01	-9.907124e+00
3.938199e+01	-9.952798e+00
3.960946e+01	-9.997401e+00
3.983824e+01	-1.004206e+01
4.006834e+01	-1.008742e+01
4.029978e+01	-1.013259e+01
4.053255e+01	-1.017795e+01
4.076666e+01	-1.022317e+01
4.100213e+01	-1.026870e+01
4.123896e+01	-1.031350e+01
4.147715e+01	-1.035918e+01
4.171672e+01	-1.040429e+01
4.195767e+01	-1.044994e+01
4.220002e+01	-1.049634e+01
4.244377e+01	-1.054111e+01
4.268892e+01	-1.058668e+01
4.293549e+01	-1.063253e+01
4.318348e+01	-1.067858e+01
4.343291e+01	-1.072416e+01
4.368377e+01	-1.076969e+01
4.393609e+01	-1.081597e+01
4.418986e+01	-1.086126e+01
4.444510e+01	-1.090816e+01
4.470182e+01	-1.095351e+01
4.496001e+01	-1.099987e+01
4.521970e+01	-1.104536e+01
4.548089e+01	-1.109143e+01
4.574358e+01	-1.113801e+01
4.600779e+01	-1.118404e+01
4.627353e+01	-1.123023e+01
4.654081e+01	-1.127687e+01
4.680963e+01	-1.132330e+01
4.708000e+01	-1.136942e+01
4.735193e+01	-1.141543e+01
4.762543e+01	-1.146176e+01
4.790051e+01	-1.150811e+01
4.817719e+01	-1.155473e+01
4.845545e+01	-1.160153e+01
4.873533e+01	-1.164815e+01
4.901682e+01	-1.169512e+01
4.929994e+01	-1.174196e+01
4.958470e+01	-1.178870e+01
4.987110e+01	-1.183480e+01
5.015915e+01	-1.188157e+01
5.044887e+01	-1.192834e+01
5.074026e+01	-1.197462e+01
5.103333e+01	-1.202238e+01
5.132810e+01	-1.206954e+01
5.162457e+01	-1.211630e+01
5.192275e+01	-1.216332e+01
5.222265e+01	-1.221048e+01
5.252429e+01	-1.225750e+01
5.282767e+01	-1.230441e+01
5.313280e+01	-1.235131e+01
5.343969e+01	-1.239842e+01
5.374836e+01	-1.244584e+01
5.405880e+01	-1.249253e+01
5.437105e+01	-1.253991e+01
5.468509e+01	-1.258756e+01
5.500095e+01	-1.263468e+01
5.531863e+01	-1.268176e+01
5.563815e+01	-1.272865e+01
5.595951e+01	-1.277703e+01
5.628273e+01	-1.282418e+01
5.660782e+01	-1.287141e+01
5.693479e+01	-1.291863e+01
5.726364e+01	-1.296651e+01
5.759439e+01	-1.301406e+01
5.792705e+01	-1.306154e+01
5.826164e+01	-1.310861e+01
5.859815e+01	-1.315631e+01
5.893662e+01	-1.320444e+01
5.927703e+01	-1.325234e+01
5.961941e+01	-1.329977e+01
5.996377e+01	-1.334675e+01
6.031012e+01	-1.339501e+01
6.065847e+01	-1.344213e+01
6.100883e+01	-1.349066e+01
6.136121e+01	-1.353780e+01
6.171563e+01	-1.358559e+01
6.207210e+01	-1.363425e+01
6.243063e+01	-1.368184e+01
6.279122e+01	-1.372953e+01
6.315390e+01	-1.377696e+01
6.351868e+01	-1.382552e+01
6.388556e+01	-1.387328e+01
6.425456e+01	-1.392131e+01
6.462569e+01	-1.396922e+01
6.499897e+01	-1.401710e+01
6.537440e+01	-1.406534e+01
6.575200e+01	-1.411427e+01
6.613178e+01	-1.416132e+01
6.651375e+01	-1.420923e+01
6.689793e+01	-1.425775e+01
6.728433e+01	-1.430656e+01
6.767297e+01	-1.435446e+01
6.806384e+01	-1.440253e+01
6.845698e+01	-1.445100e+01
6.885238e+01	-1.449871e+01
6.925007e+01	-1.454699e+01
6.965005e+01	-1.459458e+01
7.005235e+01	-1.464487e+01
7.045697e+01	-1.469227e+01
7.086393e+01	-1.474070e+01
7.127323e+01	-1.478939e+01
7.168490e+01	-1.483747e+01
7.209895e+01	-1.488590e+01
7.251539e+01	-1.493362e+01
7.293424e+01	-1.498220e+01
7.335551e+01	-1.503141e+01
7.377920e+01	-1.507942e+01
7.420535e+01	-1.512793e+01
7.463396e+01	-1.517617e+01
7.506504e+01	-1.522489e+01
7.549861e+01	-1.527363e+01
7.593469e+01	-1.532084e+01
7.637328e+01	-1.536989e+01
7.681441e+01	-1.541913e+01
7.725809e+01	-1.546643e+01
7.770433e+01	-1.551458e+01
7.815315e+01	-1.556515e+01
7.860456e+01	-1.561388e+01
7.905857e+01	-1.566261e+01
7.951521e+01	-1.571049e+01
7.997449e+01	-1.576036e+01
8.043642e+01	-1.580906e+01
8.090102e+01	-1.585680e+01
8.136830e+01	-1.590578e+01
8.183828e+01	-1.595566e+01
8.231097e+01	-1.600318e+01
8.278640e+01	-1.605161e+01
8.326457e+01	-1.610110e+01
8.374550e+01	-1.614854e+01
8.422921e+01	-1.619968e+01
8.471572e+01	-1.624733e+01
8.520503e+01	-1.629626e+01
8.569717e+01	-1.634508e+01
8.619215e+01	-1.639396e+01
8.669000e+01	-1.644184e+01
8.719071e+01	-1.649068e+01
8.769432e+01	-1.654008e+01
8.820084e+01	-1.658978e+01
8.871029e+01	-1.663808e+01
8.922267e+01	-1.668748e+01
8.973802e+01	-1.673695e+01
9.025634e+01	-1.678578e+01
9.077766e+01	-1.683554e+01
9.130199e+01	-1.688437e+01
9.182935e+01	-1.693201e+01
9.235975e+01	-1.698122e+01
9.289321e+01	-1.703027e+01
9.342976e+01	-1.707962e+01
9.396941e+01	-1.712819e+01
9.451217e+01	-1.717894e+01
9.505807e+01	-1.722693e+01
9.560712e+01	-1.727626e+01
9.615934e+01	-1.732508e+01
9.671476e+01	-1.737479e+01
9.727338e+01	-1.742293e+01
9.783522e+01	-1.747250e+01
9.840032e+01	-1.752059e+01
9.896867e+01	-1.757039e+01
9.954031e+01	-1.762059e+01
1.001153e+02	-1.766898e+01
1.006935e+02	-1.771777e+01
1.012751e+02	-1.776827e+01
1.018601e+02	-1.781820e+01
1.024484e+02	-1.786515e+01
1.030402e+02	-1.791510e+01
1.036353e+02	-1.796473e+01
1.042339e+02	-1.801365e+01
1.048360e+02	-1.806210e+01
1.054415e+02	-1.811257e+01
1.060505e+02	-1.816207e+01
1.066631e+02	-1.821046e+01
1.072791e+02	-1.825993e+01
1.078988e+02	-1.830899e+01
1.085220e+02	-1.835845e+01
1.091488e+02	-1.840769e+01
1.097793e+02	-1.845646e+01
1.104133e+02	-1.850623e+01
1.110511e+02	-1.855622e+01
1.116925e+02	-1.860567e+01
1.123376e+02	-1.865351e+01
1.129865e+02	-1.870498e+01
1.136391e+02	-1.875199e+01
1.142955e+02	-1.880254e+01
1.149556e+02	-1.885149e+01
1.156196e+02	-1.890127e+01
1.162874e+02	-1.895054e+01
1.169591e+02	-1.899945e+01
1.176347e+02	-1.905097e+01
1.183141e+02	-1.909817e+01
1.189975e+02	-1.914833e+01
1.196848e+02	-1.919843e+01
1.203761e+02	-1.924817e+01
1.210714e+02	-1.929642e+01
1.217707e+02	-1.934615e+01
1.224740e+02	-1.939592e+01
1.231814e+02	-1.944458e+01
1.238929e+02	-1.949284e+01
1.246085e+02	-1.954494e+01
1.253283e+02	-1.959502e+01
1.260522e+02	-1.964287e+01
1.267802e+02	-1.969235e+01
1.275125e+02	-1.974171e+01
1.282490e+02	-1.979199e+01
1.289898e+02	-1.984105e+01
1.297348e+02	-1.989107e+01
1.304842e+02	-1.994013e+01
1.312378e+02	-1.998883e+01
1.319959e+02	-2.003902e+01
1.327583e+02	-2.008900e+01
1.335251e+02	-2.013769e+01
1.342963e+02	-2.018817e+01
1.350720e+02	-2.023649e+01
1.358522e+02	-2.028664e+01
1.366368e+02	-2.033652e+01
1.374260e+02	-2.038644e+01
1.382198e+02	-2.043353e+01
1.390182e+02	-2.048510e+01
1.398211e+02	-2.053563e+01
1.406287e+02	-2.058284e+01
1.414410e+02	-2.063360e+01
1.422579e+02	-2.068368e+01
1.430796e+02	-2.073434e+01
1.439060e+02	-2.078512e+01
1.447372e+02	-2.083287e+01
1.455732e+02	-2.088129e+01
1.464141e+02	-2.093257e+01
1.472597e+02	-2.098156e+01
1.481103e+02	-2.102980e+01
1.489658e+02	-2.108047e+01
1.498262e+02	-2.113073e+01
1.506916e+02	-2.117883e+01
1.515620e+02	-2.123041e+01
1.524374e+02	-2.127934e+01
1.533179e+02	-2.132862e+01
1.542034e+02	-2.137762e+01
1.550941e+02	-2.142754e+01
1.559899e+02	-2.147899e+01
1.568909e+02	-2.152922e+01
1.577971e+02	-2.157776e+01
1.587085e+02	-2.162827e+01
1.596252e+02	-2.167715e+01
1.605472e+02	-2.172697e+01
1.614745e+02	-2.177525e+01
1.624072e+02	-2.182536e+01
1.633453e+02	-2.187538e+01
1.642887e+02	-2.192420e+01
1.652377e+02	-2.197710e+01
1.661921e+02	-2.202550e+01
1.671520e+02	-2.207454e+01
1.681175e+02	-2.212473e+01
1.690885e+02	-2.217423e+01
1.700651e+02	-2.222377e+01
1.710474e+02	-2.227222e+01
1.720354e+02	-2.232473e+01
1.730291e+02	-2.237284e+01
1.740285e+02	-2.242091e+01
1.750337e+02	-2.247406e+01
1.760446e+02	-2.252267e+01
1.770615e+02	-2.256983e+01
1.780842e+02	-2.261962e+01
1.791128e+02	-2.267080e+01
1.801473e+02	-2.272348e+01
1.811878e+02	-2.276928e+01
1.822344e+02	-2.282345e+01
1.832870e+02	-2.287069e+01
1.843456e+02	-2.292127e+01
1.854104e+02	-2.297105e+01
1.864813e+02	-2.302053e+01
1.875584e+02	-2.307051e+01
1.886418e+02	-2.311983e+01
1.897313e+02	-2.316815e+01
1.908272e+02	-2.321921e+01
1.919294e+02	-2.326885e+01
1.930380e+02	-2.331844e+01
1.941530e+02	-2.336968e+01
1.952744e+02	-2.342086e+01
1.964023e+02	-2.346622e+01
1.975367e+02	-2.351679e+01
1.986777e+02	-2.356791e+01
1.998252e+02	-2.361718e+01
2.009794e+02	-2.366808e+01
2.021403e+02	-2.371838e+01
2.033078e+02	-2.376729e+01
2.044821e+02	-2.381990e+01
2.056632e+02	-2.386642e+01
2.068511e+02	-2.391729e+01
2.080459e+02	-2.396672e+01
2.092475e+02	-2.401794e+01
2.104561e+02	-2.406770e+01
2.116717e+02	-2.411614e+01
2.128943e+02	-2.416545e+01
2.141240e+02	-2.421453e+01
2.153608e+02	-2.426710e+01
2.166047e+02	-2.431654e+01
2.178558e+02	-2.436774e+01
2.191141e+02	-2.441620e+01
2.203797e+02	-2.446411e+01
2.216526e+02	-2.451464e+01
2.229329e+02	-2.456225e+01
2.242205e+02	-2.461659e+01
2.255156e+02	-2.466585e+01
2.268182e+02	-2.471634e+01
2.281283e+02	-2.476567e+01
2.294459e+02	-2.481740e+01
2.307712e+02	-2.486557e+01
2.321041e+02	-2.491564e+01
2.334447e+02	-2.496223e+01
2.347931e+02	-2.501465e+01
2.361493e+02	-2.506511e+01
2.375133e+02	-2.511052e+01
2.388851e+02	-2.516676e+01
2.402649e+02	-2.521291e+01
2.416527e+02	-2.526680e+01
2.430484e+02	-2.531721e+01
2.444523e+02	-2.536312e+01
2.458642e+02	-2.541714e+01
2.472843e+02	-2.546318e+01
2.487126e+02	-2.551586e+01
2.501492e+02	-2.556394e+01
2.515940e+02	-2.561091e+01
2.530472e+02	-2.566246e+01
2.545088e+02	-2.571523e+01
2.559789e+02	-2.576254e+01
2.574574e+02	-2.581634e+01
2.589444e+02	-2.586755e+01
2.604401e+02	-2.591382e+01
2.619444e+02	-2.596481e+01
2.634574e+02	-2.601753e+01
2.649791e+02	-2.606243e+01
2.665096e+02	-2.611270e+01
2.680489e+02	-2.616414e+01
2.695972e+02	-2.621363e+01
2.711544e+02	-2.626188e+01
2.727205e+02	-2.631390e+01
2.742958e+02	-2.636210e+01
2.758801e+02	-2.641144e+01
2.774736e+02	-2.646196e+01
2.790762e+02	-2.651428e+01
2.806882e+02	-2.656199e+01
2.823094e+02	-2.661033e+01
2.839400e+02	-2.666735e+01
2.855800e+02	-2.671410e+01
2.872295e+02	-2.676458e+01
2.888886e+02	-2.680973e+01
2.905572e+02	-2.686324e+01
2.922354e+02	-2.691461e+01
2.939234e+02	-2.696185e+01
2.956211e+02	-2.701499e+01
2.973286e+02	-2.706194e+01
2.990459e+02	-2.711423e+01
3.007732e+02	-2.716562e+01
3.025104e+02	-2.721394e+01
3.042577e+02	-2.726475e+01
3.060151e+02	-2.731567e+01
3.077826e+02	-2.736378e+01
3.095604e+02	-2.741086e+01
3.113484e+02	-2.746061e+01
3.131467e+02	-2.751192e+01
3.149554e+02	-2.756260e+01
3.167746e+02	-2.761645e+01
3.186043e+02	-2.766673e+01
3.204445e+02	-2.771329e+01
3.222954e+02	-2.776379e+01
3.241570e+02	-2.781479e+01
3.260293e+02	-2.786422e+01
3.279124e+02	-2.791466e+01
3.298064e+02	-2.796057e+01
3.317114e+02	-2.801231e+01
3.336273e+02	-2.806098e+01
3.355544e+02	-2.811818e+01
3.374925e+02	-2.816591e+01
3.394418e+02	-2.821553e+01
3.414024e+02	-2.826499e+01
3.433744e+02	-2.831297e+01
3.453577e+02	-2.836361e+01
3.473525e+02	-2.841293e+01
3.493588e+02	-2.846506e+01
3.513766e+02	-2.851275e+01
3.534062e+02	-2.856497e+01
3.554474e+02	-2.861165e+01
3.575005e+02	-2.866489e+01
3.595654e+02	-2.871264e+01
3.616422e+02	-2.876397e+01
3.637311e+02	-2.881343e+01
3.658320e+02	-2.886315e+01
3.679450e+02	-2.891311e+01
3.700702e+02	-2.896536e+01
3.722077e+02	-2.901284e+01
3.743576e+02	-2.906576e+01
3.765199e+02	-2.911292e+01
3.786946e+02	-2.916636e+01
3.808820e+02	-2.921619e+01
3.830819e+02	-2.926058e+01
3.852946e+02	-2.931669e+01
3.875200e+02	-2.936468e+01
3.897583e+02	-2.941508e+01
3.920096e+02	-2.946610e+01
3.942738e+02	-2.951959e+01
3.965511e+02	-2.956416e+01
3.988416e+02	-2.961508e+01
4.011452e+02	-2.966933e+01
4.034622e+02	-2.971549e+01
4.057926e+02	-2.976529e+01
4.081365e+02	-2.981522e+01
4.104938e+02	-2.986681e+01
4.128648e+02	-2.991114e+01
4.152495e+02	-2.996430e+01
4.176480e+02	-3.001503e+01
4.200603e+02	-3.006107e+01
4.224866e+02	-3.011458e+01
4.249268e+02	-3.017311e+01
4.273812e+02	-3.021281e+01
4.298497e+02	-3.026809e+01
4.323325e+02	-3.031620e+01
4.348297e+02	-3.036631e+01
4.373412e+02	-3.042176e+01
4.398673e+02	-3.047248e+01
4.424079e+02	-3.051466e+01
4.449633e+02	-3.056866e+01
4.475334e+02	-3.062115e+01
4.501183e+02	-3.066763e+01
4.527182e+02	-3.071615e+01
4.553330e+02	-3.076148e+01
4.579630e+02	-3.081351e+01
4.606082e+02	-3.087430e+01
4.632687e+02	-3.092507e+01
4.659445e+02	-3.096669e+01
4.686358e+02	-3.102101e+01
4.713426e+02	-3.107359e+01
4.740650e+02	-3.111635e+01
4.768032e+02	-3.116869e+01
4.795572e+02	-3.122174e+01
4.823271e+02	-3.127087e+01
4.851130e+02	-3.131977e+01
4.879150e+02	-3.137362e+01
4.907332e+02	-3.142414e+01
4.935676e+02	-3.147483e+01
4.964185e+02	-3.151859e+01
4.992858e+02	-3.157653e+01
5.021696e+02	-3.162405e+01
5.050701e+02	-3.167394e+01
5.079874e+02	-3.172363e+01
5.109215e+02	-3.177122e+01
5.138726e+02	-3.182553e+01
5.168407e+02	-3.187315e+01
5.198259e+02	-3.191808e+01
5.228284e+02	-3.197210e+01
5.258482e+02	-3.202335e+01
5.288855e+02	-3.207351e+01
5.319403e+02	-3.212556e+01
5.350128e+02	-3.217265e+01
5.381030e+02	-3.222235e+01
5.412111e+02	-3.226909e+01
5.443371e+02	-3.232798e+01
5.474812e+02	-3.236788e+01
5.506434e+02	-3.242350e+01
5.538239e+02	-3.247358e+01
5.570228e+02	-3.252442e+01
5.602401e+02	-3.257295e+01
5.634760e+02	-3.263861e+01
5.667306e+02	-3.267045e+01
5.700040e+02	-3.273182e+01
5.732964e+02	-3.277486e+01
5.766077e+02	-3.282662e+01
5.799382e+02	-3.287631e+01
5.832879e+02	-3.294016e+01
5.866569e+02	-3.297510e+01
5.900454e+02	-3.302716e+01
5.934535e+02	-3.307992e+01
5.968813e+02	-3.313217e+01
6.003288e+02	-3.318170e+01
6.037963e+02	-3.322959e+01
6.072838e+02	-3.328048e+01
6.107914e+02	-3.333279e+01
6.143194e+02	-3.337814e+01
6.178676e+02	-3.342820e+01
6.214364e+02	-3.348387e+01
6.250258e+02	-3.352769e+01
6.286359e+02	-3.357996e+01
6.322669e+02	-3.363048e+01
6.359189e+02	-3.367824e+01
6.395919e+02	-3.373236e+01
6.432862e+02	-3.377831e+01
6.470017e+02	-3.383956e+01
6.507388e+02	-3.387486e+01
6.544974e+02	-3.393726e+01
6.582778e+02	-3.398321e+01
6.620800e+02	-3.403382e+01
6.659041e+02	-3.408483e+01
6.697504e+02	-3.413968e+01
6.736188e+02	-3.418225e+01
6.775096e+02	-3.423330e+01
6.814229e+02	-3.428578e+01
6.853587e+02	-3.433641e+01
6.893173e+02	-3.438630e+01
6.932988e+02	-3.443367e+01
6.973033e+02	-3.448306e+01
7.013309e+02	-3.454455e+01
