Frequency(Hz)	Magnitude(dB)
1.000000e+01	-2.264951e+00
1.005776e+01	-2.285220e+00
1.011585e+01	-2.305629e+00
1.017428e+01	-2.326546e+00
1.023305e+01	-2.347249e+00
1.029215e+01	-2.368188e+00
1.035160e+01	-2.389450e+00
1.041139e+01	-2.410432e+00
1.047153e+01	-2.431842e+00
1.053201e+01	-2.453242e+00
1.059284e+01	-2.475192e+00
1.065403e+01	-2.497080e+00
1.071556e+01	-2.518875e+00
1.077746e+01	-2.540907e+00
1.083971e+01	-2.563260e+00
1.090232e+01	-2.585682e+00
1.096529e+01	-2.607991e+00
1.102862e+01	-2.630837e+00
1.109232e+01	-2.653570e+00
1.115639e+01	-2.676497e+00
1.122083e+01	-2.699548e+00
1.128564e+01	-2.722814e+00
1.135083e+01	-2.746441e+00
1.141639e+01	-2.769714e+00
1.148233e+01	-2.793483e+00
1.154865e+01	-2.817418e+00
1.161536e+01	-2.841225e+00
1.168245e+01	-2.865256e+00
1.174992e+01	-2.889382e+00
1.181779e+01	-2.913875e+00
1.188605e+01	-2.938146e+00
1.195470e+01	-2.963015e+00
1.202375e+01	-2.987927e+00
1.209320e+01	-3.012930e+00
1.216305e+01	-3.037851e+00
1.223330e+01	-3.063019e+00
1.230396e+01	-3.088814e+00
1.237503e+01	-3.113879e+00
1.244651e+01	-3.139555e+00
1.251840e+01	-3.165590e+00
1.259070e+01	-3.191344e+00
1.266343e+01	-3.217540e+00
1.273657e+01	-3.243704e+00
1.281014e+01	-3.270378e+00
1.288413e+01	-3.296619e+00
1.295855e+01	-3.323346e+00
1.303339e+01	-3.350538e+00
1.310867e+01	-3.377216e+00
1.318439e+01	-3.404282e+00
1.326054e+01	-3.431553e+00
1.333713e+01	-3.458898e+00
1.341417e+01	-3.486488e+00
1.349165e+01	-3.514188e+00
1.356958e+01	-3.542040e+00
1.364795e+01	-3.570095e+00
1.372678e+01	-3.598093e+00
1.380607e+01	-3.626312e+00
1.388581e+01	-3.654913e+00
1.396602e+01	-3.683363e+00
1.404668e+01	-3.712120e+00
1.412782e+01	-3.740857e+00
1.420942e+01	-3.769525e+00
1.429149e+01	-3.798666e+00
1.437404e+01	-3.827997e+00
1.445706e+01	-3.857383e+00
1.454057e+01	-3.886915e+00
1.462455e+01	-3.916778e+00
1.470902e+01	-3.946453e+00
1.479398e+01	-3.976334e+00
1.487943e+01	-4.006507e+00
1.496537e+01	-4.036598e+00
1.505181e+01	-4.066925e+00
1.513875e+01	-4.097475e+00
1.522619e+01	-4.128173e+00
1.531414e+01	-4.158999e+00
1.540259e+01	-4.189587e+00
1.549156e+01	-4.220674e+00
1.558103e+01	-4.251746e+00
1.567103e+01	-4.283213e+00
1.576155e+01	-4.314858e+00
1.585258e+01	-4.346222e+00
1.594415e+01	-4.377991e+00
1.603624e+01	-4.409642e+00
1.612886e+01	-4.441912e+00
1.622202e+01	-4.473635e+00
1.631572e+01	-4.505944e+00
1.640996e+01	-4.538264e+00
1.650474e+01	-4.571239e+00
1.660008e+01	-4.603389e+00
1.669596e+01	-4.636235e+00
1.679239e+01	-4.669394e+00
1.688938e+01	-4.702354e+00
1.698694e+01	-4.735191e+00
1.708505e+01	-4.768621e+00
1.718373e+01	-4.801896e+00
1.728299e+01	-4.835589e+00
1.738281e+01	-4.869225e+00
1.748322e+01	-4.903112e+00
1.758420e+01	-4.936896e+00
1.768576e+01	-4.971043e+00
1.778792e+01	-5.005198e+00
1.789066e+01	-5.039307e+00
1.799399e+01	-5.073835e+00
1.809793e+01	-5.108177e+00
1.820246e+01	-5.143116e+00
1.830760e+01	-5.177697e+00
1.841334e+01	-5.212796e+00
1.851969e+01	-5.247860e+00
1.862666e+01	-5.282867e+00
1.873425e+01	-5.317855e+00
1.884246e+01	-5.353579e+00
1.895129e+01	-5.388768e+00
1.906075e+01	-5.424601e+00
1.917085e+01	-5.460045e+00
1.928158e+01	-5.496299e+00
1.939295e+01	-5.532225e+00
1.950496e+01	-5.568247e+00
1.961762e+01	-5.604385e+00
1.973093e+01	-5.640563e+00
1.984490e+01	-5.677070e+00
1.995952e+01	-5.713851e+00
2.007480e+01	-5.750489e+00
2.019076e+01	-5.787120e+00
2.030738e+01	-5.824285e+00
2.042467e+01	-5.861198e+00
2.054264e+01	-5.898402e+00
2.066130e+01	-5.935463e+00
2.078064e+01	-5.972547e+00
2.090066e+01	-6.009977e+00
2.102139e+01	-6.047828e+00
2.114280e+01	-6.085576e+00
2.126492e+01	-6.123003e+00
2.138775e+01	-6.160954e+00
2.151128e+01	-6.198925e+00
2.163553e+01	-6.237001e+00
2.176050e+01	-6.275499e+00
2.188619e+01	-6.313545e+00
2.201260e+01	-6.351969e+00
2.213974e+01	-6.390535e+00
2.226762e+01	-6.429124e+00
2.239624e+01	-6.467754e+00
2.252560e+01	-6.506529e+00
2.265571e+01	-6.545427e+00
2.278656e+01	-6.584525e+00
2.291818e+01	-6.623520e+00
2.305055e+01	-6.662678e+00
2.318369e+01	-6.701920e+00
2.331760e+01	-6.741324e+00
2.345228e+01	-6.781089e+00
2.358774e+01	-6.820065e+00
2.372398e+01	-6.860096e+00
2.386101e+01	-6.899459e+00
2.399883e+01	-6.939450e+00
2.413745e+01	-6.979862e+00
2.427686e+01	-7.019393e+00
2.441709e+01	-7.060043e+00
2.455812e+01	-7.100421e+00
2.469997e+01	-7.140133e+00
2.484263e+01	-7.180466e+00
2.498612e+01	-7.221186e+00
2.513044e+01	-7.261848e+00
2.527559e+01	-7.302496e+00
2.542158e+01	-7.343423e+00
2.556842e+01	-7.384191e+00
2.571610e+01	-7.424724e+00
2.586463e+01	-7.466028e+00
2.601403e+01	-7.507221e+00
2.616428e+01	-7.548116e+00
2.631541e+01	-7.589151e+00
2.646740e+01	-7.631072e+00
2.662028e+01	-7.672180e+00
2.677404e+01	-7.713830e+00
2.692868e+01	-7.755504e+00
2.708422e+01	-7.797010e+00
2.724066e+01	-7.839191e+00
2.739800e+01	-7.880731e+00
2.755625e+01	-7.922275e+00
2.771541e+01	-7.964860e+00
2.787550e+01	-8.006843e+00
2.803650e+01	-8.048985e+00
2.819844e+01	-8.091236e+00
2.836131e+01	-8.133369e+00
2.852513e+01	-8.175822e+00
2.868989e+01	-8.218260e+00
2.885560e+01	-8.260683e+00
2.902227e+01	-8.303374e+00
2.918990e+01	-8.345809e+00
2.935850e+01	-8.388733e+00
2.952807e+01	-8.431010e+00
2.969863e+01	-8.474481e+00
2.987016e+01	-8.517579e+00
3.004269e+01	-8.560537e+00
3.021622e+01	-8.603678e+00
3.039075e+01	-8.646451e+00
3.056628e+01	-8.689783e+00
3.074283e+01	-8.732996e+00
3.092040e+01	-8.776472e+00
3.109900e+01	-8.819982e+00
3.127862e+01	-8.863308e+00
3.145929e+01	-8.906857e+00
3.164099e+01	-8.950282e+00
3.182375e+01	-8.994683e+00
3.200756e+01	-9.038047e+00
3.219244e+01	-9.082038e+00
3.237838e+01	-9.125818e+00
3.256540e+01	-9.169315e+00
3.275349e+01	-9.214249e+00
3.294268e+01	-9.258172e+00
3.313295e+01	-9.302179e+00
3.332433e+01	-9.346118e+00
3.351681e+01	-9.390205e+00
3.371040e+01	-9.434596e+00
3.390511e+01	-9.478953e+00
3.410094e+01	-9.523175e+00
3.429791e+01	-9.567889e+00
3.449601e+01	-9.612052e+00
3.469526e+01	-9.657323e+00
3.489566e+01	-9.701557e+00
3.509721e+01	-9.746388e+00
3.529993e+01	-9.790824e+00
3.550382e+01	-9.836300e+00
3.570889e+01	-9.880828e+00
3.591515e+01	-9.925839e+00
3.612259e+01	-9.970719e+00
3.633123e+01	-1.001560e+01
3.654108e+01	-1.006057e+01
3.675214e+01	-1.010627e+01
3.696442e+01	-1.015100e+01
3.717792e+01	-1.019625e+01
3.739266e+01	-1.024148e+01
3.760864e+01	-1.028652e+01
3.782587e+01	-1.033237e+01
3.804435e+01	-1.037726e+01
3.826409e+01	-1.042320e+01
3.848510e+01	-1.046861e+01
3.870739e+01	-1.051383e+01
3.893096e+01	-1.056020e+01
3.915583e+01	-1.060573e+01
3.938199e+01	-1.065119e+01
3.960946e+01	-1.069711e+01
3.983824e+01	-1.074309e+01
4.006834e+01	-1.078771e+01
4.029978e+01	-1.083427e+01
4.053255e+01	-1.088028e+01
4.076666e+01	-1.092584e+01
4.100213e+01	-1.097227e+01
4.123896e+01	-1.101797e+01
4.147715e+01	-1.106475e+01
4.171672e+01	-1.111019e+01
4.195767e+01	-1.115638e+01
4.220002e+01	-1.120267e+01
4.244377e+01	-1.124877e+01
4.268892e+01	-1.129558e+01
4.293549e+01	-1.134162e+01
4.318348e+01	-1.138822e+01
4.343291e+01	-1.143440e+01
4.368377e+01	-1.148113e+01
4.393609e+01	-1.152798e+01
4.418986e+01	-1.157406e+01
4.444510e+01	-1.162099e+01
4.470182e+01	-1.166692e+01
4.496001e+01	-1.171373e+01
4.521970e+01	-1.176033e+01
4.548089e+01	-1.180701e+01
4.574358e+01	-1.185389e+01
4.600779e+01	-1.190039e+01
4.627353e+01	-1.194808e+01
4.654081e+01	-1.199415e+01
4.680963e+01	-1.204114e+01
4.708000e+01	-1.208799e+01
4.735193e+01	-1.213508e+01
4.762543e+01	-1.218197e+01
4.790051e+01	-1.222889e+01
4.817719e+01	-1.227638e+01
4.845545e+01	-1.232348e+01
4.873533e+01	-1.236986e+01
4.901682e+01	-1.241719e+01
4.929994e+01	-1.246418e+01
4.958470e+01	-1.251173e+01
4.987110e+01	-1.255905e+01
5.015915e+01	-1.260631e+01
5.044887e+01	-1.265377e+01
5.074026e+01	-1.270021e+01
5.103333e+01	-1.274764e+01
5.132810e+01	-1.279567e+01
5.162457e+01	-1.284315e+01
5.192275e+01	-1.289010e+01
5.222265e+01	-1.293807e+01
5.252429e+01	-1.298583e+01
5.282767e+01	-1.303342e+01
5.313280e+01	-1.308028e+01
5.343969e+01	-1.312795e+01
5.374836e+01	-1.317620e+01
5.405880e+01	-1.322369e+01
5.437105e+01	-1.327111e+01
5.468509e+01	-1.331858e+01
5.500095e+01	-1.336678e+01
5.531863e+01	-1.341481e+01
5.563815e+01	-1.346172e+01
5.595951e+01	-1.350950e+01
5.628273e+01	-1.355801e+01
5.660782e+01	-1.360602e+01
5.693479e+01	-1.365292e+01
5.726364e+01	-1.370060e+01
5.759439e+01	-1.374911e+01
5.792705e+01	-1.379709e+01
5.826164e+01	-1.384520e+01
5.859815e+01	-1.389302e+01
5.893662e+01	-1.394022e+01
5.927703e+01	-1.398924e+01
5.961941e+01	-1.403631e+01
5.996377e+01	-1.408597e+01
6.031012e+01	-1.413301e+01
6.065847e+01	-1.418153e+01
6.100883e+01	-1.422960e+01
6.136121e+01	-1.427793e+01
6.171563e+01	-1.432529e+01
6.207210e+01	-1.437362e+01
6.243063e+01	-1.442200e+01
6.279122e+01	-1.447060e+01
6.315390e+01	-1.451852e+01
6.351868e+01	-1.456667e+01
6.388556e+01	-1.461457e+01
6.425456e+01	-1.466354e+01
6.462569e+01	-1.471164e+01
6.499897e+01	-1.475931e+01
6.537440e+01	-1.480850e+01
6.575200e+01	-1.485604e+01
6.613178e+01	-1.490603e+01
6.651375e+01	-1.495301e+01
6.689793e+01	-1.500194e+01
6.728433e+01	-1.505071e+01
6.767297e+01	-1.509886e+01
6.806384e+01	-1.514731e+01
6.845698e+01	-1.519562e+01
6.885238e+01	-1.524485e+01
6.925007e+01	-1.529328e+01
6.965005e+01	-1.534146e+01
7.005235e+01	-1.538993e+01
7.045697e+01	-1.543905e+01
7.086393e+01	-1.548718e+01
7.127323e+01	-1.553714e+01
7.168490e+01	-1.558402e+01
7.209895e+01	-1.563370e+01
7.251539e+01	-1.568253e+01
7.293424e+01	-1.573169e+01
7.335551e+01	-1.577938e+01
7.377920e+01	-1.582914e+01
7.420535e+01	-1.587665e+01
7.463396e+01	-1.592529e+01
7.506504e+01	-1.597508e+01
7.549861e+01	-1.602247e+01
7.593469e+01	-1.607172e+01
7.637328e+01	-1.612093e+01
7.681441e+01	-1.616964e+01
7.725809e+01	-1.621844e+01
7.770433e+01	-1.626743e+01
7.815315e+01	-1.631558e+01
7.860456e+01	-1.636483e+01
7.905857e+01	-1.641326e+01
7.951521e+01	-1.646183e+01
7.997449e+01	-1.651245e+01
8.043642e+01	-1.656073e+01
8.090102e+01	-1.660948e+01
8.136830e+01	-1.665887e+01
8.183828e+01	-1.670767e+01
8.231097e+01	-1.675683e+01
8.278640e+01	-1.680622e+01
8.326457e+01	-1.685511e+01
8.374550e+01	-1.690278e+01
8.422921e+01	-1.695244e+01
8.471572e+01	-1.700260e+01
8.520503e+01	-1.705041e+01
8.569717e+01	-1.709948e+01
8.619215e+01	-1.714968e+01
8.669000e+01	-1.719743e+01
8.719071e+01	-1.724709e+01
8.769432e+01	-1.729547e+01
8.820084e+01	-1.734568e+01
8.871029e+01	-1.739418e+01
8.922267e+01	-1.744284e+01
8.973802e+01	-1.749122e+01
9.025634e+01	-1.754081e+01
9.077766e+01	-1.759061e+01
9.130199e+01	-1.764026e+01
9.182935e+01	-1.768819e+01
9.235975e+01	-1.773820e+01
9.289321e+01	-1.778652e+01
9.342976e+01	-1.783698e+01
9.396941e+01	-1.788580e+01
9.451217e+01	-1.793489e+01
9.505807e+01	-1.798366e+01
9.560712e+01	-1.803400e+01
9.615934e+01	-1.808368e+01
9.671476e+01	-1.813215e+01
9.727338e+01	-1.818295e+01
9.783522e+01	-1.823039e+01
9.840032e+01	-1.827978e+01
9.896867e+01	-1.832970e+01
9.954031e+01	-1.837913e+01
1.001153e+02	-1.842799e+01
1.006935e+02	-1.847785e+01
1.012751e+02	-1.852543e+01
1.018601e+02	-1.857653e+01
1.024484e+02	-1.862514e+01
1.030402e+02	-1.867441e+01
1.036353e+02	-1.872365e+01
1.042339e+02	-1.877283e+01
1.048360e+02	-1.882323e+01
1.054415e+02	-1.887243e+01
1.060505e+02	-1.892103e+01
1.066631e+02	-1.897093e+01
1.072791e+02	-1.901853e+01
1.078988e+02	-1.906945e+01
1.085220e+02	-1.912022e+01
1.091488e+02	-1.916843e+01
1.097793e+02	-1.921869e+01
1.104133e+02	-1.926755e+01
1.110511e+02	-1.931596e+01
1.116925e+02	-1.936669e+01
1.123376e+02	-1.941414e+01
1.129865e+02	-1.946609e+01
1.136391e+02	-1.951588e+01
1.142955e+02	-1.956161e+01
1.149556e+02	-1.961292e+01
1.156196e+02	-1.966345e+01
1.162874e+02	-1.971243e+01
1.169591e+02	-1.976180e+01
1.176347e+02	-1.981295e+01
1.183141e+02	-1.986041e+01
1.189975e+02	-1.990973e+01
1.196848e+02	-1.995993e+01
1.203761e+02	-2.000985e+01
1.210714e+02	-2.005850e+01
1.217707e+02	-2.010724e+01
1.224740e+02	-2.015758e+01
1.231814e+02	-2.020767e+01
1.238929e+02	-2.025755e+01
1.246085e+02	-2.030733e+01
1.253283e+02	-2.035609e+01
1.260522e+02	-2.040463e+01
1.267802e+02	-2.045542e+01
1.275125e+02	-2.050415e+01
1.282490e+02	-2.055533e+01
1.289898e+02	-2.060330e+01
1.297348e+02	-2.065274e+01
1.304842e+02	-2.070366e+01
1.312378e+02	-2.075159e+01
1.319959e+02	-2.080393e+01
1.327583e+02	-2.085183e+01
1.335251e+02	-2.090325e+01
1.342963e+02	-2.095101e+01
1.350720e+02	-2.100134e+01
1.358522e+02	-2.105388e+01
1.366368e+02	-2.110033e+01
1.374260e+02	-2.114932e+01
1.382198e+02	-2.119927e+01
1.390182e+02	-2.125028e+01
1.398211e+02	-2.130019e+01
1.406287e+02	-2.134950e+01
1.414410e+02	-2.139941e+01
1.422579e+02	-2.144726e+01
1.430796e+02	-2.150003e+01
1.439060e+02	-2.154725e+01
1.447372e+02	-2.159813e+01
1.455732e+02	-2.164756e+01
1.464141e+02	-2.169740e+01
1.472597e+02	-2.174742e+01
1.481103e+02	-2.179436e+01
1.489658e+02	-2.184568e+01
1.498262e+02	-2.189532e+01
1.506916e+02	-2.194562e+01
1.515620e+02	-2.199625e+01
1.524374e+02	-2.204513e+01
1.533179e+02	-2.209608e+01
1.542034e+02	-2.214526e+01
1.550941e+02	-2.219533e+01
1.559899e+02	-2.224554e+01
1.568909e+02	-2.229488e+01
1.577971e+02	-2.234405e+01
1.587085e+02	-2.239506e+01
1.596252e+02	-2.244375e+01
1.605472e+02	-2.249362e+01
1.614745e+02	-2.254162e+01
1.624072e+02	-2.259212e+01
1.633453e+02	-2.264174e+01
1.642887e+02	-2.269067e+01
1.652377e+02	-2.274145e+01
1.661921e+02	-2.279095e+01
1.671520e+02	-2.284235e+01
1.681175e+02	-2.288987e+01
1.690885e+02	-2.294197e+01
1.700651e+02	-2.299005e+01
1.710474e+02	-2.304168e+01
1.720354e+02	-2.309101e+01
1.730291e+02	-2.314028e+01
1.740285e+02	-2.319111e+01
1.750337e+02	-2.324068e+01
1.760446e+02	-2.329109e+01
1.770615e+02	-2.333976e+01
1.780842e+02	-2.338878e+01
1.791128e+02	-2.343825e+01
1.801473e+02	-2.348783e+01
1.811878e+02	-2.353860e+01
1.822344e+02	-2.358846e+01
1.832870e+02	-2.363790e+01
1.843456e+02	-2.368482e+01
1.854104e+02	-2.373738e+01
1.864813e+02	-2.378675e+01
1.875584e+02	-2.383811e+01
1.886418e+02	-2.388766e+01
1.897313e+02	-2.393878e+01
1.908272e+02	-2.398792e+01
1.919294e+02	-2.403555e+01
1.930380e+02	-2.408535e+01
1.941530e+02	-2.413688e+01
1.952744e+02	-2.418600e+01
1.964023e+02	-2.423565e+01
1.975367e+02	-2.428974e+01
1.986777e+02	-2.433637e+01
1.998252e+02	-2.438561e+01
2.009794e+02	-2.443635e+01
2.021403e+02	-2.448626e+01
2.033078e+02	-2.453487e+01
2.044821e+02	-2.458451e+01
2.056632e+02	-2.463780e+01
2.068511e+02	-2.468126e+01
2.080459e+02	-2.473678e+01
2.092475e+02	-2.478601e+01
2.104561e+02	-2.483435e+01
2.116717e+02	-2.488398e+01
2.128943e+02	-2.493710e+01
2.141240e+02	-2.498525e+01
2.153608e+02	-2.503601e+01
2.166047e+02	-2.508404e+01
2.178558e+02	-2.513468e+01
2.191141e+02	-2.518500e+01
2.203797e+02	-2.523303e+01
2.216526e+02	-2.528538e+01
2.229329e+02	-2.533073e+01
2.242205e+02	-2.538728e+01
2.255156e+02	-2.543459e+01
2.268182e+02	-2.548512e+01
2.281283e+02	-2.553531e+01
2.294459e+02	-2.558256e+01
2.307712e+02	-2.563454e+01
2.321041e+02	-2.568115e+01
2.334447e+02	-2.573243e+01
2.347931e+02	-2.578418e+01
2.361493e+02	-2.583455e+01
2.375133e+02	-2.588326e+01
2.388851e+02	-2.593237e+01
2.402649e+02	-2.598153e+01
2.416527e+02	-2.603156e+01
2.430484e+02	-2.608163e+01
2.444523e+02	-2.613380e+01
2.458642e+02	-2.618437e+01
2.472843e+02	-2.623417e+01
2.487126e+02	-2.628438e+01
2.501492e+02	-2.633209e+01
2.515940e+02	-2.638286e+01
2.530472e+02	-2.643324e+01
2.545088e+02	-2.648118e+01
2.559789e+02	-2.652964e+01
2.574574e+02	-2.658232e+01
2.589444e+02	-2.663354e+01
2.604401e+02	-2.668203e+01
2.619444e+02	-2.673308e+01
2.634574e+02	-2.678258e+01
2.649791e+02	-2.683160e+01
2.665096e+02	-2.688316e+01
2.680489e+02	-2.693297e+01
2.695972e+02	-2.698318e+01
2.711544e+02	-2.703024e+01
2.727205e+02	-2.708239e+01
2.742958e+02	-2.713058e+01
2.758801e+02	-2.718005e+01
2.774736e+02	-2.723114e+01
2.790762e+02	-2.728226e+01
2.806882e+02	-2.733108e+01
2.823094e+02	-2.738417e+01
2.839400e+02	-2.743045e+01
2.855800e+02	-2.748325e+01
2.872295e+02	-2.753335e+01
2.888886e+02	-2.758388e+01
2.905572e+02	-2.763565e+01
2.922354e+02	-2.768238e+01
2.939234e+02	-2.773612e+01
2.956211e+02	-2.778045e+01
2.973286e+02	-2.783495e+01
2.990459e+02	-2.788451e+01
3.007732e+02	-2.793407e+01
3.025104e+02	-2.798468e+01
3.042577e+02	-2.803204e+01
3.060151e+02	-2.808188e+01
3.077826e+02	-2.813327e+01
3.095604e+02	-2.818181e+01
3.113484e+02	-2.823019e+01
3.131467e+02	-2.828178e+01
3.149554e+02	-2.833696e+01
3.167746e+02	-2.838484e+01
3.186043e+02	-2.843372e+01
3.204445e+02	-2.847974e+01
3.222954e+02	-2.852532e+01
3.241570e+02	-2.858173e+01
3.260293e+02	-2.863041e+01
3.279124e+02	-2.868285e+01
3.298064e+02	-2.873273e+01
3.317114e+02	-2.878707e+01
3.336273e+02	-2.883110e+01
3.355544e+02	-2.888352e+01
3.374925e+02	-2.893727e+01
3.394418e+02	-2.898403e+01
3.414024e+02	-2.903387e+01
3.433744e+02	-2.907791e+01
3.453577e+02	-2.913516e+01
3.473525e+02	-2.918765e+01
3.493588e+02	-2.922940e+01
3.513766e+02	-2.928163e+01
3.534062e+02	-2.933193e+01
3.554474e+02	-2.938959e+01
3.575005e+02	-2.943160e+01
3.595654e+02	-2.948269e+01
3.616422e+02	-2.953512e+01
3.637311e+02	-2.958361e+01
3.658320e+02	-2.963224e+01
3.679450e+02	-2.968383e+01
3.700702e+02	-2.973072e+01
3.722077e+02	-2.978390e+01
3.743576e+02	-2.983716e+01
3.765199e+02	-2.988713e+01
3.786946e+02	-2.993180e+01
3.808820e+02	-2.998258e+01
3.830819e+02	-3.002997e+01
3.852946e+02	-3.008817e+01
3.875200e+02	-3.013667e+01
3.897583e+02	-3.018653e+01
3.920096e+02	-3.023969e+01
3.942738e+02	-3.028371e+01
3.965511e+02	-3.033385e+01
3.988416e+02	-3.038187e+01
4.011452e+02	-3.043942e+01
4.034622e+02	-3.048931e+01
4.057926e+02	-3.053475e+01
4.081365e+02	-3.058200e+01
4.104938e+02	-3.063738e+01
4.128648e+02	-3.068960e+01
4.152495e+02	-3.073968e+01
4.176480e+02	-3.078765e+01
4.200603e+02	-3.083909e+01
4.224866e+02	-3.088792e+01
4.249268e+02	-3.094041e+01
4.273812e+02	-3.098777e+01
4.298497e+02	-3.104302e+01
4.323325e+02	-3.108686e+01
4.348297e+02	-3.113563e+01
4.373412e+02	-3.119103e+01
4.398673e+02	-3.123779e+01
4.424079e+02	-3.128347e+01
4.449633e+02	-3.133943e+01
4.475334e+02	-3.138577e+01
4.501183e+02	-3.143781e+01
4.527182e+02	-3.149118e+01
4.553330e+02	-3.153943e+01
4.579630e+02	-3.158652e+01
4.606082e+02	-3.164255e+01
4.632687e+02	-3.169262e+01
4.659445e+02	-3.174550e+01
4.686358e+02	-3.179037e+01
4.713426e+02	-3.184076e+01
4.740650e+02	-3.189290e+01
4.768032e+02	-3.193842e+01
4.795572e+02	-3.198583e+01
4.823271e+02	-3.203752e+01
4.851130e+02	-3.209061e+01
4.879150e+02	-3.214471e+01
4.907332e+02	-3.219296e+01
4.935676e+02	-3.223789e+01
4.964185e+02	-3.228790e+01
4.992858e+02	-3.234053e+01
5.021696e+02	-3.239319e+01
5.050701e+02	-3.244223e+01
5.079874e+02	-3.248856e+01
5.109215e+02	-3.254409e+01
5.138726e+02	-3.259822e+01
5.168407e+02	-3.264252e+01
5.198259e+02	-3.269800e+01
5.228284e+02	-3.274285e+01
5.258482e+02	-3.280064e+01
5.288855e+02	-3.284707e+01
5.319403e+02	-3.289350e+01
5.350128e+02	-3.294526e+01
5.381030e+02	-3.299959e+01
5.412111e+02	-3.304254e+01
5.443371e+02	-3.309323e+01
5.474812e+02	-3.314882e+01
5.506434e+02	-3.320310e+01
5.538239e+02	-3.324315e+01
5.570228e+02	-3.330182e+01
5.602401e+02	-3.334749e+01
5.634760e+02	-3.339770e+01
5.667306e+02	-3.345452e+01
5.700040e+02	-3.349941e+01
5.732964e+02	-3.353341e+01
5.766077e+02	-3.359510e+01
5.799382e+02	-3.365875e+01
5.832879e+02	-3.369261e+01
5.866569e+02	-3.376134e+01
5.900454e+02	-3.379874e+01
5.934535e+02	-3.385578e+01
5.968813e+02	-3.390368e+01
6.003288e+02	-3.394973e+01
6.037963e+02	-3.400396e+01
6.072838e+02	-3.404733e+01
6.107914e+02	-3.410135e+01
6.143194e+02	-3.414093e+01
6.178676e+02	-3.420000e+01
6.214364e+02	-3.425391e+01
6.250258e+02	-3.430261e+01
6.286359e+02	-3.434657e+01
6.322669e+02	-3.440147e+01
6.359189e+02	-3.445281e+01
6.395919e+02	-3.450299e+01
6.432862e+02	-3.455447e+01
6.470017e+02	-3.460445e+01
6.507388e+02	-3.466039e+01
6.544974e+02	-3.470967e+01
6.582778e+02	-3.475382e+01
6.620800e+02	-3.480320e+01
6.659041e+02	-3.485701e+01
6.697504e+02	-3.490030e+01
6.736188e+02	-3.496337e+01
6.775096e+02	-3.500835e+01
6.814229e+02	-3.505331e+01
6.853587e+02	-3.511118e+01
6.893173e+02	-3.515691e+01
6.932988e+02	-3.521535e+01
6.973033e+02	-3.526185e+01
7.013309e+02	-3.530730e+01
