Frequency(Hz)	Magnitude(dB)
1.000000e+01	-1.846227e-05
1.005776e+01	-1.867616e-05
1.011585e+01	-1.889253e-05
1.017428e+01	-1.911140e-05
1.023305e+01	-1.933281e-05
1.029215e+01	-1.955679e-05
1.035160e+01	-1.978336e-05
1.041139e+01	-2.001255e-05
1.047153e+01	-2.024440e-05
1.053201e+01	-2.047894e-05
1.059284e+01	-2.071619e-05
1.065403e+01	-2.095620e-05
1.071556e+01	-2.119898e-05
1.077746e+01	-2.144457e-05
1.083971e+01	-2.169302e-05
1.090232e+01	-2.194433e-05
1.096529e+01	-2.219857e-05
1.102862e+01	-2.245574e-05
1.109232e+01	-2.271590e-05
1.115639e+01	-2.297907e-05
1.122083e+01	-2.324528e-05
1.128564e+01	-2.351459e-05
1.135083e+01	-2.378701e-05
1.141639e+01	-2.406259e-05
1.148233e+01	-2.434136e-05
1.154865e+01	-2.462336e-05
1.161536e+01	-2.490863e-05
1.168245e+01	-2.519720e-05
1.174992e+01	-2.548911e-05
1.181779e+01	-2.578441e-05
1.188605e+01	-2.608313e-05
1.195470e+01	-2.638531e-05
1.202375e+01	-2.669099e-05
1.209320e+01	-2.700021e-05
1.216305e+01	-2.731302e-05
1.223330e+01	-2.762944e-05
1.230396e+01	-2.794954e-05
1.237503e+01	-2.827334e-05
1.244651e+01	-2.860089e-05
1.251840e+01	-2.893224e-05
1.259070e+01	-2.926743e-05
1.266343e+01	-2.960650e-05
1.273657e+01	-2.994950e-05
1.281014e+01	-3.029647e-05
1.288413e+01	-3.064746e-05
1.295855e+01	-3.100252e-05
1.303339e+01	-3.136169e-05
1.310867e+01	-3.172502e-05
1.318439e+01	-3.209257e-05
1.326054e+01	-3.246437e-05
1.333713e+01	-3.284047e-05
1.341417e+01	-3.322094e-05
1.349165e+01	-3.360581e-05
1.356958e+01	-3.399514e-05
1.364795e+01	-3.438898e-05
1.372678e+01	-3.478739e-05
1.380607e+01	-3.519041e-05
1.388581e+01	-3.559810e-05
1.396602e+01	-3.601051e-05
1.404668e+01	-3.642770e-05
1.412782e+01	-3.684972e-05
1.420942e+01	-3.727664e-05
1.429149e+01	-3.770849e-05
1.437404e+01	-3.814536e-05
1.445706e+01	-3.858728e-05
1.454057e+01	-3.903432e-05
1.462455e+01	-3.948654e-05
1.470902e+01	-3.994400e-05
1.479398e+01	-4.040676e-05
1.487943e+01	-4.087488e-05
1.496537e+01	-4.134843e-05
1.505181e+01	-4.182746e-05
1.513875e+01	-4.231204e-05
1.522619e+01	-4.280223e-05
1.531414e+01	-4.329811e-05
1.540259e+01	-4.379973e-05
1.549156e+01	-4.430716e-05
1.558103e+01	-4.482046e-05
1.567103e+01	-4.533972e-05
1.576155e+01	-4.586499e-05
1.585258e+01	-4.639635e-05
1.594415e+01	-4.693386e-05
1.603624e+01	-4.747760e-05
1.612886e+01	-4.802763e-05
1.622202e+01	-4.858404e-05
1.631572e+01	-4.914690e-05
1.640996e+01	-4.971628e-05
1.650474e+01	-5.029225e-05
1.660008e+01	-5.087490e-05
1.669596e+01	-5.146429e-05
1.679239e+01	-5.206052e-05
1.688938e+01	-5.266365e-05
1.698694e+01	-5.327377e-05
1.708505e+01	-5.389096e-05
1.718373e+01	-5.451530e-05
1.728299e+01	-5.514687e-05
1.738281e+01	-5.578576e-05
1.748322e+01	-5.643204e-05
1.758420e+01	-5.708582e-05
1.768576e+01	-5.774717e-05
1.778792e+01	-5.841619e-05
1.789066e+01	-5.909295e-05
1.799399e+01	-5.977755e-05
1.809793e+01	-6.047009e-05
1.820246e+01	-6.117064e-05
1.830760e+01	-6.187932e-05
1.841334e+01	-6.259620e-05
1.851969e+01	-6.332139e-05
1.862666e+01	-6.405498e-05
1.873425e+01	-6.479707e-05
1.884246e+01	-6.554776e-05
1.895129e+01	-6.630714e-05
1.906075e+01	-6.707532e-05
1.917085e+01	-6.785240e-05
1.928158e+01	-6.863849e-05
1.939295e+01	-6.943368e-05
1.950496e+01	-7.023808e-05
1.961762e+01	-7.105180e-05
1.973093e+01	-7.187495e-05
1.984490e+01	-7.270763e-05
1.995952e+01	-7.354996e-05
2.007480e+01	-7.440205e-05
2.019076e+01	-7.526401e-05
2.030738e+01	-7.613596e-05
2.042467e+01	-7.701801e-05
2.054264e+01	-7.791028e-05
2.066130e+01	-7.881288e-05
2.078064e+01	-7.972594e-05
2.090066e+01	-8.064958e-05
2.102139e+01	-8.158392e-05
2.114280e+01	-8.252908e-05
2.126492e+01	-8.348520e-05
2.138775e+01	-8.445239e-05
2.151128e+01	-8.543078e-05
2.163553e+01	-8.642051e-05
2.176050e+01	-8.742171e-05
2.188619e+01	-8.843450e-05
2.201260e+01	-8.945903e-05
2.213974e+01	-9.049543e-05
2.226762e+01	-9.154383e-05
2.239624e+01	-9.260438e-05
2.252560e+01	-9.367721e-05
2.265571e+01	-9.476248e-05
2.278656e+01	-9.586032e-05
2.291818e+01	-9.697087e-05
2.305055e+01	-9.809430e-05
2.318369e+01	-9.923073e-05
2.331760e+01	-1.003803e-04
2.345228e+01	-1.015433e-04
2.358774e+01	-1.027196e-04
2.372398e+01	-1.039097e-04
2.386101e+01	-1.051135e-04
2.399883e+01	-1.063312e-04
2.413745e+01	-1.075631e-04
2.427686e+01	-1.088092e-04
2.441709e+01	-1.100698e-04
2.455812e+01	-1.113450e-04
2.469997e+01	-1.126349e-04
2.484263e+01	-1.139398e-04
2.498612e+01	-1.152598e-04
2.513044e+01	-1.165951e-04
2.527559e+01	-1.179459e-04
2.542158e+01	-1.193123e-04
2.556842e+01	-1.206945e-04
2.571610e+01	-1.220928e-04
2.586463e+01	-1.235073e-04
2.601403e+01	-1.249381e-04
2.616428e+01	-1.263855e-04
2.631541e+01	-1.278497e-04
2.646740e+01	-1.293309e-04
2.662028e+01	-1.308292e-04
2.677404e+01	-1.323449e-04
2.692868e+01	-1.338781e-04
2.708422e+01	-1.354291e-04
2.724066e+01	-1.369980e-04
2.739800e+01	-1.385852e-04
2.755625e+01	-1.401907e-04
2.771541e+01	-1.418148e-04
2.787550e+01	-1.434577e-04
2.803650e+01	-1.451197e-04
2.819844e+01	-1.468009e-04
2.836131e+01	-1.485016e-04
2.852513e+01	-1.502220e-04
2.868989e+01	-1.519624e-04
2.885560e+01	-1.537229e-04
2.902227e+01	-1.555038e-04
2.918990e+01	-1.573053e-04
2.935850e+01	-1.591277e-04
2.952807e+01	-1.609712e-04
2.969863e+01	-1.628360e-04
2.987016e+01	-1.647225e-04
3.004269e+01	-1.666308e-04
3.021622e+01	-1.685613e-04
3.039075e+01	-1.705141e-04
3.056628e+01	-1.724895e-04
3.074283e+01	-1.744878e-04
3.092040e+01	-1.765092e-04
3.109900e+01	-1.785541e-04
3.127862e+01	-1.806226e-04
3.145929e+01	-1.827152e-04
3.164099e+01	-1.848319e-04
3.182375e+01	-1.869732e-04
3.200756e+01	-1.891393e-04
3.219244e+01	-1.913305e-04
3.237838e+01	-1.935470e-04
3.256540e+01	-1.957893e-04
3.275349e+01	-1.980575e-04
3.294268e+01	-2.003520e-04
3.313295e+01	-2.026731e-04
3.332433e+01	-2.050211e-04
3.351681e+01	-2.073962e-04
3.371040e+01	-2.097989e-04
3.390511e+01	-2.122294e-04
3.410094e+01	-2.146881e-04
3.429791e+01	-2.171753e-04
3.449601e+01	-2.196912e-04
3.469526e+01	-2.222364e-04
3.489566e+01	-2.248110e-04
3.509721e+01	-2.274154e-04
3.529993e+01	-2.300500e-04
3.550382e+01	-2.327151e-04
3.570889e+01	-2.354111e-04
3.591515e+01	-2.381383e-04
3.612259e+01	-2.408972e-04
3.633123e+01	-2.436879e-04
3.654108e+01	-2.465111e-04
3.675214e+01	-2.493669e-04
3.696442e+01	-2.522558e-04
3.717792e+01	-2.551781e-04
3.739266e+01	-2.581344e-04
3.760864e+01	-2.611248e-04
3.782587e+01	-2.641499e-04
3.804435e+01	-2.672101e-04
3.826409e+01	-2.703057e-04
3.848510e+01	-2.734372e-04
3.870739e+01	-2.766049e-04
3.893096e+01	-2.798094e-04
3.915583e+01	-2.830509e-04
3.938199e+01	-2.863300e-04
3.960946e+01	-2.896471e-04
3.983824e+01	-2.930027e-04
4.006834e+01	-2.963971e-04
4.029978e+01	-2.998308e-04
4.053255e+01	-3.033043e-04
4.076666e+01	-3.068180e-04
4.100213e+01	-3.103725e-04
4.123896e+01	-3.139681e-04
4.147715e+01	-3.176054e-04
4.171672e+01	-3.212848e-04
4.195767e+01	-3.250068e-04
4.220002e+01	-3.287720e-04
4.244377e+01	-3.325807e-04
4.268892e+01	-3.364336e-04
4.293549e+01	-3.403312e-04
4.318348e+01	-3.442738e-04
4.343291e+01	-3.482622e-04
4.368377e+01	-3.522967e-04
4.393609e+01	-3.563780e-04
4.418986e+01	-3.605066e-04
4.444510e+01	-3.646830e-04
4.470182e+01	-3.689078e-04
4.496001e+01	-3.731815e-04
4.521970e+01	-3.775047e-04
4.548089e+01	-3.818780e-04
4.574358e+01	-3.863020e-04
4.600779e+01	-3.907772e-04
4.627353e+01	-3.953042e-04
4.654081e+01	-3.998837e-04
4.680963e+01	-4.045163e-04
4.708000e+01	-4.092025e-04
4.735193e+01	-4.139430e-04
4.762543e+01	-4.187384e-04
4.790051e+01	-4.235894e-04
4.817719e+01	-4.284965e-04
4.845545e+01	-4.334605e-04
4.873533e+01	-4.384820e-04
4.901682e+01	-4.435617e-04
4.929994e+01	-4.487002e-04
4.958470e+01	-4.538983e-04
4.987110e+01	-4.591565e-04
5.015915e+01	-4.644757e-04
5.044887e+01	-4.698565e-04
5.074026e+01	-4.752996e-04
5.103333e+01	-4.808058e-04
5.132810e+01	-4.863757e-04
5.162457e+01	-4.920102e-04
5.192275e+01	-4.977100e-04
5.222265e+01	-5.034757e-04
5.252429e+01	-5.093083e-04
5.282767e+01	-5.152084e-04
5.313280e+01	-5.211769e-04
5.343969e+01	-5.272145e-04
5.374836e+01	-5.333221e-04
5.405880e+01	-5.395004e-04
5.437105e+01	-5.457502e-04
5.468509e+01	-5.520725e-04
5.500095e+01	-5.584680e-04
5.531863e+01	-5.649376e-04
5.563815e+01	-5.714821e-04
5.595951e+01	-5.781025e-04
5.628273e+01	-5.847995e-04
5.660782e+01	-5.915741e-04
5.693479e+01	-5.984272e-04
5.726364e+01	-6.053596e-04
5.759439e+01	-6.123724e-04
5.792705e+01	-6.194664e-04
5.826164e+01	-6.266426e-04
5.859815e+01	-6.339019e-04
5.893662e+01	-6.412452e-04
5.927703e+01	-6.486737e-04
5.961941e+01	-6.561882e-04
5.996377e+01	-6.637897e-04
6.031012e+01	-6.714793e-04
6.065847e+01	-6.792580e-04
6.100883e+01	-6.871267e-04
6.136121e+01	-6.950867e-04
6.171563e+01	-7.031388e-04
6.207210e+01	-7.112842e-04
6.243063e+01	-7.195239e-04
6.279122e+01	-7.278591e-04
6.315390e+01	-7.362908e-04
6.351868e+01	-7.448202e-04
6.388556e+01	-7.534484e-04
6.425456e+01	-7.621766e-04
6.462569e+01	-7.710058e-04
6.499897e+01	-7.799373e-04
6.537440e+01	-7.889723e-04
6.575200e+01	-7.981119e-04
6.613178e+01	-8.073574e-04
6.651375e+01	-8.167100e-04
6.689793e+01	-8.261709e-04
6.728433e+01	-8.357414e-04
6.767297e+01	-8.454227e-04
6.806384e+01	-8.552162e-04
6.845698e+01	-8.651231e-04
6.885238e+01	-8.751448e-04
6.925007e+01	-8.852826e-04
6.965005e+01	-8.955378e-04
7.005235e+01	-9.059117e-04
7.045697e+01	-9.164059e-04
7.086393e+01	-9.270215e-04
7.127323e+01	-9.377602e-04
7.168490e+01	-9.486232e-04
7.209895e+01	-9.596120e-04
7.251539e+01	-9.707282e-04
7.293424e+01	-9.819730e-04
7.335551e+01	-9.933482e-04
7.377920e+01	-1.004855e-03
7.420535e+01	-1.016495e-03
7.463396e+01	-1.028270e-03
7.506504e+01	-1.040182e-03
7.549861e+01	-1.052231e-03
7.593469e+01	-1.064420e-03
7.637328e+01	-1.076750e-03
7.681441e+01	-1.089223e-03
7.725809e+01	-1.101840e-03
7.770433e+01	-1.114604e-03
7.815315e+01	-1.127515e-03
7.860456e+01	-1.140576e-03
7.905857e+01	-1.153788e-03
7.951521e+01	-1.167153e-03
7.997449e+01	-1.180673e-03
8.043642e+01	-1.194349e-03
8.090102e+01	-1.208184e-03
8.136830e+01	-1.222180e-03
8.183828e+01	-1.236337e-03
8.231097e+01	-1.250658e-03
8.278640e+01	-1.265145e-03
8.326457e+01	-1.279800e-03
8.374550e+01	-1.294625e-03
8.422921e+01	-1.309621e-03
8.471572e+01	-1.324791e-03
8.520503e+01	-1.340137e-03
8.569717e+01	-1.355660e-03
8.619215e+01	-1.371363e-03
8.669000e+01	-1.387248e-03
8.719071e+01	-1.403317e-03
8.769432e+01	-1.419573e-03
8.820084e+01	-1.436016e-03
8.871029e+01	-1.452650e-03
8.922267e+01	-1.469476e-03
8.973802e+01	-1.486498e-03
9.025634e+01	-1.503716e-03
9.077766e+01	-1.521134e-03
9.130199e+01	-1.538754e-03
9.182935e+01	-1.556577e-03
9.235975e+01	-1.574608e-03
9.289321e+01	-1.592846e-03
9.342976e+01	-1.611297e-03
9.396941e+01	-1.629960e-03
9.451217e+01	-1.648840e-03
9.505807e+01	-1.667939e-03
9.560712e+01	-1.687259e-03
9.615934e+01	-1.706802e-03
9.671476e+01	-1.726572e-03
9.727338e+01	-1.746571e-03
9.783522e+01	-1.766801e-03
9.840032e+01	-1.787266e-03
9.896867e+01	-1.807967e-03
9.954031e+01	-1.828909e-03
1.001153e+02	-1.850093e-03
1.006935e+02	-1.871522e-03
1.012751e+02	-1.893199e-03
1.018601e+02	-1.915128e-03
1.024484e+02	-1.937310e-03
1.030402e+02	-1.959749e-03
1.036353e+02	-1.982448e-03
1.042339e+02	-2.005410e-03
1.048360e+02	-2.028638e-03
1.054415e+02	-2.052135e-03
1.060505e+02	-2.075903e-03
1.066631e+02	-2.099948e-03
1.072791e+02	-2.124270e-03
1.078988e+02	-2.148874e-03
1.085220e+02	-2.173763e-03
1.091488e+02	-2.198940e-03
1.097793e+02	-2.224409e-03
1.104133e+02	-2.250173e-03
1.110511e+02	-2.276235e-03
1.116925e+02	-2.302599e-03
1.123376e+02	-2.329268e-03
1.129865e+02	-2.356246e-03
1.136391e+02	-2.383536e-03
1.142955e+02	-2.411142e-03
1.149556e+02	-2.439068e-03
1.156196e+02	-2.467317e-03
1.162874e+02	-2.495894e-03
1.169591e+02	-2.524801e-03
1.176347e+02	-2.554043e-03
1.183141e+02	-2.583623e-03
1.189975e+02	-2.613546e-03
1.196848e+02	-2.643815e-03
1.203761e+02	-2.674435e-03
1.210714e+02	-2.705410e-03
1.217707e+02	-2.736743e-03
1.224740e+02	-2.768438e-03
1.231814e+02	-2.800501e-03
1.238929e+02	-2.832935e-03
1.246085e+02	-2.865745e-03
1.253283e+02	-2.898934e-03
1.260522e+02	-2.932507e-03
1.267802e+02	-2.966470e-03
1.275125e+02	-3.000825e-03
1.282490e+02	-3.035578e-03
1.289898e+02	-3.070734e-03
1.297348e+02	-3.106296e-03
1.304842e+02	-3.142271e-03
1.312378e+02	-3.178661e-03
1.319959e+02	-3.215473e-03
1.327583e+02	-3.252711e-03
1.335251e+02	-3.290381e-03
1.342963e+02	-3.328486e-03
1.350720e+02	-3.367032e-03
1.358522e+02	-3.406025e-03
1.366368e+02	-3.445469e-03
1.374260e+02	-3.485370e-03
1.382198e+02	-3.525732e-03
1.390182e+02	-3.566562e-03
1.398211e+02	-3.607864e-03
1.406287e+02	-3.649645e-03
1.414410e+02	-3.691909e-03
1.422579e+02	-3.734662e-03
1.430796e+02	-3.777910e-03
1.439060e+02	-3.821659e-03
1.447372e+02	-3.865914e-03
1.455732e+02	-3.910682e-03
1.464141e+02	-3.955967e-03
1.472597e+02	-4.001777e-03
1.481103e+02	-4.048117e-03
1.489658e+02	-4.094993e-03
1.498262e+02	-4.142412e-03
1.506916e+02	-4.190380e-03
1.515620e+02	-4.238903e-03
1.524374e+02	-4.287988e-03
1.533179e+02	-4.337640e-03
1.542034e+02	-4.387867e-03
1.550941e+02	-4.438676e-03
1.559899e+02	-4.490073e-03
1.568909e+02	-4.542064e-03
1.577971e+02	-4.594657e-03
1.587085e+02	-4.647859e-03
1.596252e+02	-4.701676e-03
1.605472e+02	-4.756117e-03
1.614745e+02	-4.811187e-03
1.624072e+02	-4.866894e-03
1.633453e+02	-4.923247e-03
1.642887e+02	-4.980251e-03
1.652377e+02	-5.037915e-03
1.661921e+02	-5.096246e-03
1.671520e+02	-5.155252e-03
1.681175e+02	-5.214941e-03
1.690885e+02	-5.275321e-03
1.700651e+02	-5.336399e-03
1.710474e+02	-5.398184e-03
1.720354e+02	-5.460684e-03
1.730291e+02	-5.523907e-03
1.740285e+02	-5.587862e-03
1.750337e+02	-5.652557e-03
1.760446e+02	-5.718000e-03
1.770615e+02	-5.784200e-03
1.780842e+02	-5.851166e-03
1.791128e+02	-5.918907e-03
1.801473e+02	-5.987432e-03
1.811878e+02	-6.056750e-03
1.822344e+02	-6.126869e-03
1.832870e+02	-6.197800e-03
1.843456e+02	-6.269551e-03
1.854104e+02	-6.342132e-03
1.864813e+02	-6.415553e-03
1.875584e+02	-6.489823e-03
1.886418e+02	-6.564952e-03
1.897313e+02	-6.640951e-03
1.908272e+02	-6.717828e-03
1.919294e+02	-6.795595e-03
1.930380e+02	-6.874261e-03
1.941530e+02	-6.953837e-03
1.952744e+02	-7.034334e-03
1.964023e+02	-7.115761e-03
1.975367e+02	-7.198131e-03
1.986777e+02	-7.281453e-03
1.998252e+02	-7.365739e-03
2.009794e+02	-7.450999e-03
2.021403e+02	-7.537246e-03
2.033078e+02	-7.624490e-03
2.044821e+02	-7.712743e-03
2.056632e+02	-7.802017e-03
2.068511e+02	-7.892323e-03
2.080459e+02	-7.983673e-03
2.092475e+02	-8.076080e-03
2.104561e+02	-8.169555e-03
2.116717e+02	-8.264111e-03
2.128943e+02	-8.359761e-03
2.141240e+02	-8.456516e-03
2.153608e+02	-8.554390e-03
2.166047e+02	-8.653396e-03
2.178558e+02	-8.753547e-03
2.191141e+02	-8.854855e-03
2.203797e+02	-8.957335e-03
2.216526e+02	-9.060999e-03
2.229329e+02	-9.165862e-03
2.242205e+02	-9.271937e-03
2.255156e+02	-9.379239e-03
2.268182e+02	-9.487780e-03
2.281283e+02	-9.597577e-03
2.294459e+02	-9.708643e-03
2.307712e+02	-9.820992e-03
2.321041e+02	-9.934641e-03
2.334447e+02	-1.004960e-02
2.347931e+02	-1.016589e-02
2.361493e+02	-1.028353e-02
2.375133e+02	-1.040252e-02
2.388851e+02	-1.052289e-02
2.402649e+02	-1.064465e-02
2.416527e+02	-1.076782e-02
2.430484e+02	-1.089241e-02
2.444523e+02	-1.101844e-02
2.458642e+02	-1.114593e-02
2.472843e+02	-1.127489e-02
2.487126e+02	-1.140534e-02
2.501492e+02	-1.153730e-02
2.515940e+02	-1.167078e-02
2.530472e+02	-1.180580e-02
2.545088e+02	-1.194239e-02
2.559789e+02	-1.208055e-02
2.574574e+02	-1.222031e-02
2.589444e+02	-1.236168e-02
2.604401e+02	-1.250469e-02
2.619444e+02	-1.264935e-02
2.634574e+02	-1.279568e-02
2.649791e+02	-1.294370e-02
2.665096e+02	-1.309343e-02
2.680489e+02	-1.324489e-02
2.695972e+02	-1.339809e-02
2.711544e+02	-1.355307e-02
2.727205e+02	-1.370984e-02
2.742958e+02	-1.386842e-02
2.758801e+02	-1.402882e-02
2.774736e+02	-1.419109e-02
2.790762e+02	-1.435522e-02
2.806882e+02	-1.452125e-02
2.823094e+02	-1.468920e-02
2.839400e+02	-1.485908e-02
2.855800e+02	-1.503093e-02
2.872295e+02	-1.520476e-02
2.888886e+02	-1.538060e-02
2.905572e+02	-1.555847e-02
2.922354e+02	-1.573839e-02
2.939234e+02	-1.592039e-02
2.956211e+02	-1.610449e-02
2.973286e+02	-1.629071e-02
2.990459e+02	-1.647908e-02
3.007732e+02	-1.666963e-02
3.025104e+02	-1.686238e-02
3.042577e+02	-1.705735e-02
3.060151e+02	-1.725457e-02
3.077826e+02	-1.745406e-02
3.095604e+02	-1.765586e-02
3.113484e+02	-1.785998e-02
3.131467e+02	-1.806647e-02
3.149554e+02	-1.827533e-02
3.167746e+02	-1.848660e-02
3.186043e+02	-1.870031e-02
3.204445e+02	-1.891649e-02
3.222954e+02	-1.913515e-02
3.241570e+02	-1.935634e-02
3.260293e+02	-1.958008e-02
3.279124e+02	-1.980641e-02
3.298064e+02	-2.003534e-02
3.317114e+02	-2.026691e-02
3.336273e+02	-2.050115e-02
3.355544e+02	-2.073809e-02
3.374925e+02	-2.097777e-02
3.394418e+02	-2.122020e-02
3.414024e+02	-2.146544e-02
3.433744e+02	-2.171350e-02
3.453577e+02	-2.196441e-02
3.473525e+02	-2.221822e-02
3.493588e+02	-2.247496e-02
3.513766e+02	-2.273465e-02
3.534062e+02	-2.299734e-02
3.554474e+02	-2.326306e-02
3.575005e+02	-2.353183e-02
3.595654e+02	-2.380371e-02
3.616422e+02	-2.407871e-02
3.637311e+02	-2.435688e-02
3.658320e+02	-2.463826e-02
3.679450e+02	-2.492288e-02
3.700702e+02	-2.521078e-02
3.722077e+02	-2.550199e-02
3.743576e+02	-2.579656e-02
3.765199e+02	-2.609452e-02
3.786946e+02	-2.639591e-02
3.808820e+02	-2.670077e-02
3.830819e+02	-2.700914e-02
3.852946e+02	-2.732106e-02
3.875200e+02	-2.763657e-02
3.897583e+02	-2.795572e-02
3.920096e+02	-2.827853e-02
3.942738e+02	-2.860507e-02
3.965511e+02	-2.893536e-02
3.988416e+02	-2.926945e-02
4.011452e+02	-2.960738e-02
4.034622e+02	-2.994921e-02
4.057926e+02	-3.029496e-02
4.081365e+02	-3.064470e-02
4.104938e+02	-3.099845e-02
4.128648e+02	-3.135628e-02
4.152495e+02	-3.171822e-02
4.176480e+02	-3.208432e-02
4.200603e+02	-3.245464e-02
4.224866e+02	-3.282921e-02
4.249268e+02	-3.320808e-02
4.273812e+02	-3.359132e-02
4.298497e+02	-3.397895e-02
4.323325e+02	-3.437105e-02
4.348297e+02	-3.476765e-02
4.373412e+02	-3.516881e-02
4.398673e+02	-3.557457e-02
4.424079e+02	-3.598500e-02
4.449633e+02	-3.640015e-02
4.475334e+02	-3.682006e-02
4.501183e+02	-3.724480e-02
4.527182e+02	-3.767441e-02
4.553330e+02	-3.810896e-02
4.579630e+02	-3.854850e-02
4.606082e+02	-3.899308e-02
4.632687e+02	-3.944277e-02
4.659445e+02	-3.989763e-02
4.686358e+02	-4.035770e-02
4.713426e+02	-4.082305e-02
4.740650e+02	-4.129374e-02
4.768032e+02	-4.176984e-02
4.795572e+02	-4.225139e-02
4.823271e+02	-4.273847e-02
4.851130e+02	-4.323114e-02
4.879150e+02	-4.372946e-02
4.907332e+02	-4.423349e-02
4.935676e+02	-4.474330e-02
4.964185e+02	-4.525896e-02
4.992858e+02	-4.578053e-02
5.021696e+02	-4.630808e-02
5.050701e+02	-4.684167e-02
5.079874e+02	-4.738138e-02
5.109215e+02	-4.792727e-02
5.138726e+02	-4.847942e-02
5.168407e+02	-4.903789e-02
5.198259e+02	-4.960276e-02
5.228284e+02	-5.017409e-02
5.258482e+02	-5.075197e-02
5.288855e+02	-5.133647e-02
5.319403e+02	-5.192766e-02
5.350128e+02	-5.252561e-02
5.381030e+02	-5.313041e-02
5.412111e+02	-5.374212e-02
5.443371e+02	-5.436084e-02
5.474812e+02	-5.498663e-02
5.506434e+02	-5.561958e-02
5.538239e+02	-5.625977e-02
5.570228e+02	-5.690728e-02
5.602401e+02	-5.756220e-02
5.634760e+02	-5.822460e-02
5.667306e+02	-5.889457e-02
5.700040e+02	-5.957219e-02
5.732964e+02	-6.025756e-02
5.766077e+02	-6.095076e-02
5.799382e+02	-6.165188e-02
5.832879e+02	-6.236100e-02
5.866569e+02	-6.307822e-02
5.900454e+02	-6.380363e-02
5.934535e+02	-6.453731e-02
5.968813e+02	-6.527937e-02
6.003288e+02	-6.602990e-02
6.037963e+02	-6.678899e-02
6.072838e+02	-6.755674e-02
6.107914e+02	-6.833325e-02
6.143194e+02	-6.911861e-02
6.178676e+02	-6.991292e-02
6.214364e+02	-7.071628e-02
6.250258e+02	-7.152881e-02
6.286359e+02	-7.235059e-02
6.322669e+02	-7.318173e-02
6.359189e+02	-7.402233e-02
6.395919e+02	-7.487251e-02
6.432862e+02	-7.573237e-02
6.470017e+02	-7.660202e-02
6.507388e+02	-7.748156e-02
6.544974e+02	-7.837111e-02
6.582778e+02	-7.927078e-02
6.620800e+02	-8.018068e-02
6.659041e+02	-8.110093e-02
6.697504e+02	-8.203164e-02
6.736188e+02	-8.297293e-02
6.775096e+02	-8.392492e-02
6.814229e+02	-8.488772e-02
6.853587e+02	-8.586145e-02
6.893173e+02	-8.684625e-02
6.932988e+02	-8.784222e-02
6.973033e+02	-8.884950e-02
7.013309e+02	-8.986822e-02
