Frequency(Hz)	Magnitude(dB)
1.000000e+01	-1.743952e-05
1.005776e+01	-1.764156e-05
1.011585e+01	-1.784595e-05
1.017428e+01	-1.805269e-05
1.023305e+01	-1.826184e-05
1.029215e+01	-1.847341e-05
1.035160e+01	-1.868743e-05
1.041139e+01	-1.890393e-05
1.047153e+01	-1.912293e-05
1.053201e+01	-1.934448e-05
1.059284e+01	-1.956859e-05
1.065403e+01	-1.979529e-05
1.071556e+01	-2.002463e-05
1.077746e+01	-2.025662e-05
1.083971e+01	-2.049130e-05
1.090232e+01	-2.072869e-05
1.096529e+01	-2.096884e-05
1.102862e+01	-2.121177e-05
1.109232e+01	-2.145751e-05
1.115639e+01	-2.170610e-05
1.122083e+01	-2.195757e-05
1.128564e+01	-2.221196e-05
1.135083e+01	-2.246929e-05
1.141639e+01	-2.272960e-05
1.148233e+01	-2.299293e-05
1.154865e+01	-2.325931e-05
1.161536e+01	-2.352877e-05
1.168245e+01	-2.380136e-05
1.174992e+01	-2.407711e-05
1.181779e+01	-2.435604e-05
1.188605e+01	-2.463822e-05
1.195470e+01	-2.492366e-05
1.202375e+01	-2.521240e-05
1.209320e+01	-2.550449e-05
1.216305e+01	-2.579997e-05
1.223330e+01	-2.609887e-05
1.230396e+01	-2.640123e-05
1.237503e+01	-2.670710e-05
1.244651e+01	-2.701650e-05
1.251840e+01	-2.732950e-05
1.259070e+01	-2.764611e-05
1.266343e+01	-2.796640e-05
1.273657e+01	-2.829040e-05
1.281014e+01	-2.861815e-05
1.288413e+01	-2.894970e-05
1.295855e+01	-2.928509e-05
1.303339e+01	-2.962436e-05
1.310867e+01	-2.996757e-05
1.318439e+01	-3.031475e-05
1.326054e+01	-3.066595e-05
1.333713e+01	-3.102123e-05
1.341417e+01	-3.138061e-05
1.349165e+01	-3.174417e-05
1.356958e+01	-3.211193e-05
1.364795e+01	-3.248395e-05
1.372678e+01	-3.286029e-05
1.380607e+01	-3.324098e-05
1.388581e+01	-3.362609e-05
1.396602e+01	-3.401565e-05
1.404668e+01	-3.440973e-05
1.412782e+01	-3.480838e-05
1.420942e+01	-3.521164e-05
1.429149e+01	-3.561958e-05
1.437404e+01	-3.603224e-05
1.445706e+01	-3.644968e-05
1.454057e+01	-3.687196e-05
1.462455e+01	-3.729913e-05
1.470902e+01	-3.773124e-05
1.479398e+01	-3.816837e-05
1.487943e+01	-3.861056e-05
1.496537e+01	-3.905787e-05
1.505181e+01	-3.951037e-05
1.513875e+01	-3.996810e-05
1.522619e+01	-4.043114e-05
1.531414e+01	-4.089955e-05
1.540259e+01	-4.137338e-05
1.549156e+01	-4.185270e-05
1.558103e+01	-4.233757e-05
1.567103e+01	-4.282806e-05
1.576155e+01	-4.332423e-05
1.585258e+01	-4.382615e-05
1.594415e+01	-4.433389e-05
1.603624e+01	-4.484751e-05
1.612886e+01	-4.536707e-05
1.622202e+01	-4.589266e-05
1.631572e+01	-4.642434e-05
1.640996e+01	-4.696217e-05
1.650474e+01	-4.750624e-05
1.660008e+01	-4.805661e-05
1.669596e+01	-4.861336e-05
1.679239e+01	-4.917655e-05
1.688938e+01	-4.974627e-05
1.698694e+01	-5.032260e-05
1.708505e+01	-5.090559e-05
1.718373e+01	-5.149535e-05
1.728299e+01	-5.209193e-05
1.738281e+01	-5.269543e-05
1.748322e+01	-5.330591e-05
1.758420e+01	-5.392347e-05
1.768576e+01	-5.454819e-05
1.778792e+01	-5.518014e-05
1.789066e+01	-5.581941e-05
1.799399e+01	-5.646609e-05
1.809793e+01	-5.712026e-05
1.820246e+01	-5.778201e-05
1.830760e+01	-5.845143e-05
1.841334e+01	-5.912860e-05
1.851969e+01	-5.981362e-05
1.862666e+01	-6.050657e-05
1.873425e+01	-6.120755e-05
1.884246e+01	-6.191665e-05
1.895129e+01	-6.263397e-05
1.906075e+01	-6.335960e-05
1.917085e+01	-6.409363e-05
1.928158e+01	-6.483617e-05
1.939295e+01	-6.558731e-05
1.950496e+01	-6.634715e-05
1.961762e+01	-6.711579e-05
1.973093e+01	-6.789334e-05
1.984490e+01	-6.867990e-05
1.995952e+01	-6.947557e-05
2.007480e+01	-7.028045e-05
2.019076e+01	-7.109467e-05
2.030738e+01	-7.191831e-05
2.042467e+01	-7.275150e-05
2.054264e+01	-7.359434e-05
2.066130e+01	-7.444694e-05
2.078064e+01	-7.530942e-05
2.090066e+01	-7.618190e-05
2.102139e+01	-7.706448e-05
2.114280e+01	-7.795728e-05
2.126492e+01	-7.886043e-05
2.138775e+01	-7.977404e-05
2.151128e+01	-8.069824e-05
2.163553e+01	-8.163314e-05
2.176050e+01	-8.257887e-05
2.188619e+01	-8.353556e-05
2.201260e+01	-8.450334e-05
2.213974e+01	-8.548232e-05
2.226762e+01	-8.647265e-05
2.239624e+01	-8.747445e-05
2.252560e+01	-8.848786e-05
2.265571e+01	-8.951300e-05
2.278656e+01	-9.055002e-05
2.291818e+01	-9.159906e-05
2.305055e+01	-9.266025e-05
2.318369e+01	-9.373373e-05
2.331760e+01	-9.481965e-05
2.345228e+01	-9.591815e-05
2.358774e+01	-9.702938e-05
2.372398e+01	-9.815348e-05
2.386101e+01	-9.929060e-05
2.399883e+01	-1.004409e-04
2.413745e+01	-1.016045e-04
2.427686e+01	-1.027816e-04
2.441709e+01	-1.039724e-04
2.455812e+01	-1.051769e-04
2.469997e+01	-1.063954e-04
2.484263e+01	-1.076280e-04
2.498612e+01	-1.088749e-04
2.513044e+01	-1.101362e-04
2.527559e+01	-1.114121e-04
2.542158e+01	-1.127029e-04
2.556842e+01	-1.140085e-04
2.571610e+01	-1.153294e-04
2.586463e+01	-1.166655e-04
2.601403e+01	-1.180170e-04
2.616428e+01	-1.193843e-04
2.631541e+01	-1.207674e-04
2.646740e+01	-1.221665e-04
2.662028e+01	-1.235818e-04
2.677404e+01	-1.250135e-04
2.692868e+01	-1.264618e-04
2.708422e+01	-1.279269e-04
2.724066e+01	-1.294089e-04
2.739800e+01	-1.309081e-04
2.755625e+01	-1.324247e-04
2.771541e+01	-1.339589e-04
2.787550e+01	-1.355108e-04
2.803650e+01	-1.370807e-04
2.819844e+01	-1.386688e-04
2.836131e+01	-1.402753e-04
2.852513e+01	-1.419004e-04
2.868989e+01	-1.435443e-04
2.885560e+01	-1.452073e-04
2.902227e+01	-1.468895e-04
2.918990e+01	-1.485912e-04
2.935850e+01	-1.503127e-04
2.952807e+01	-1.520541e-04
2.969863e+01	-1.538156e-04
2.987016e+01	-1.555976e-04
3.004269e+01	-1.574002e-04
3.021622e+01	-1.592237e-04
3.039075e+01	-1.610683e-04
3.056628e+01	-1.629343e-04
3.074283e+01	-1.648219e-04
3.092040e+01	-1.667314e-04
3.109900e+01	-1.686630e-04
3.127862e+01	-1.706169e-04
3.145929e+01	-1.725935e-04
3.164099e+01	-1.745930e-04
3.182375e+01	-1.766157e-04
3.200756e+01	-1.786618e-04
3.219244e+01	-1.807316e-04
3.237838e+01	-1.828254e-04
3.256540e+01	-1.849434e-04
3.275349e+01	-1.870860e-04
3.294268e+01	-1.892534e-04
3.313295e+01	-1.914459e-04
3.332433e+01	-1.936638e-04
3.351681e+01	-1.959074e-04
3.371040e+01	-1.981770e-04
3.390511e+01	-2.004729e-04
3.410094e+01	-2.027954e-04
3.429791e+01	-2.051447e-04
3.449601e+01	-2.075213e-04
3.469526e+01	-2.099255e-04
3.489566e+01	-2.123575e-04
3.509721e+01	-2.148176e-04
3.529993e+01	-2.173063e-04
3.550382e+01	-2.198238e-04
3.570889e+01	-2.223704e-04
3.591515e+01	-2.249466e-04
3.612259e+01	-2.275526e-04
3.633123e+01	-2.301888e-04
3.654108e+01	-2.328555e-04
3.675214e+01	-2.355531e-04
3.696442e+01	-2.382820e-04
3.717792e+01	-2.410425e-04
3.739266e+01	-2.438350e-04
3.760864e+01	-2.466598e-04
3.782587e+01	-2.495173e-04
3.804435e+01	-2.524080e-04
3.826409e+01	-2.553321e-04
3.848510e+01	-2.582901e-04
3.870739e+01	-2.612824e-04
3.893096e+01	-2.643093e-04
3.915583e+01	-2.673713e-04
3.938199e+01	-2.704688e-04
3.960946e+01	-2.736021e-04
3.983824e+01	-2.767718e-04
4.006834e+01	-2.799782e-04
4.029978e+01	-2.832217e-04
4.053255e+01	-2.865028e-04
4.076666e+01	-2.898219e-04
4.100213e+01	-2.931794e-04
4.123896e+01	-2.965759e-04
4.147715e+01	-3.000117e-04
4.171672e+01	-3.034873e-04
4.195767e+01	-3.070031e-04
4.220002e+01	-3.105597e-04
4.244377e+01	-3.141575e-04
4.268892e+01	-3.177970e-04
4.293549e+01	-3.214786e-04
4.318348e+01	-3.252029e-04
4.343291e+01	-3.289703e-04
4.368377e+01	-3.327814e-04
4.393609e+01	-3.366366e-04
4.418986e+01	-3.405365e-04
4.444510e+01	-3.444815e-04
4.470182e+01	-3.484723e-04
4.496001e+01	-3.525093e-04
4.521970e+01	-3.565930e-04
4.548089e+01	-3.607241e-04
4.574358e+01	-3.649030e-04
4.600779e+01	-3.691303e-04
4.627353e+01	-3.734066e-04
4.654081e+01	-3.777324e-04
4.680963e+01	-3.821084e-04
4.708000e+01	-3.865350e-04
4.735193e+01	-3.910129e-04
4.762543e+01	-3.955427e-04
4.790051e+01	-4.001250e-04
4.817719e+01	-4.047603e-04
4.845545e+01	-4.094493e-04
4.873533e+01	-4.141927e-04
4.901682e+01	-4.189910e-04
4.929994e+01	-4.238449e-04
4.958470e+01	-4.287550e-04
4.987110e+01	-4.337220e-04
5.015915e+01	-4.387466e-04
5.044887e+01	-4.438293e-04
5.074026e+01	-4.489709e-04
5.103333e+01	-4.541721e-04
5.132810e+01	-4.594335e-04
5.162457e+01	-4.647559e-04
5.192275e+01	-4.701399e-04
5.222265e+01	-4.755863e-04
5.252429e+01	-4.810958e-04
5.282767e+01	-4.866691e-04
5.313280e+01	-4.923070e-04
5.343969e+01	-4.980102e-04
5.374836e+01	-5.037795e-04
5.405880e+01	-5.096155e-04
5.437105e+01	-5.155192e-04
5.468509e+01	-5.214913e-04
5.500095e+01	-5.275326e-04
5.531863e+01	-5.336438e-04
5.563815e+01	-5.398258e-04
5.595951e+01	-5.460795e-04
5.628273e+01	-5.524055e-04
5.660782e+01	-5.588049e-04
5.693479e+01	-5.652784e-04
5.726364e+01	-5.718269e-04
5.759439e+01	-5.784512e-04
5.792705e+01	-5.851522e-04
5.826164e+01	-5.919309e-04
5.859815e+01	-5.987881e-04
5.893662e+01	-6.057248e-04
5.927703e+01	-6.127418e-04
5.961941e+01	-6.198401e-04
5.996377e+01	-6.270206e-04
6.031012e+01	-6.342842e-04
6.065847e+01	-6.416320e-04
6.100883e+01	-6.490650e-04
6.136121e+01	-6.565840e-04
6.171563e+01	-6.641901e-04
6.207210e+01	-6.718844e-04
6.243063e+01	-6.796677e-04
6.279122e+01	-6.875412e-04
6.315390e+01	-6.955059e-04
6.351868e+01	-7.035629e-04
6.388556e+01	-7.117132e-04
6.425456e+01	-7.199579e-04
6.462569e+01	-7.282981e-04
6.499897e+01	-7.367350e-04
6.537440e+01	-7.452695e-04
6.575200e+01	-7.539029e-04
6.613178e+01	-7.626363e-04
6.651375e+01	-7.714709e-04
6.689793e+01	-7.804078e-04
6.728433e+01	-7.894482e-04
6.767297e+01	-7.985933e-04
6.806384e+01	-8.078444e-04
6.845698e+01	-8.172026e-04
6.885238e+01	-8.266692e-04
6.925007e+01	-8.362455e-04
6.965005e+01	-8.459327e-04
7.005235e+01	-8.557321e-04
7.045697e+01	-8.656450e-04
7.086393e+01	-8.756727e-04
7.127323e+01	-8.858166e-04
7.168490e+01	-8.960779e-04
7.209895e+01	-9.064581e-04
7.251539e+01	-9.169586e-04
7.293424e+01	-9.275807e-04
7.335551e+01	-9.383258e-04
7.377920e+01	-9.491954e-04
7.420535e+01	-9.601908e-04
7.463396e+01	-9.713137e-04
7.506504e+01	-9.825653e-04
7.549861e+01	-9.939473e-04
7.593469e+01	-1.005461e-03
7.637328e+01	-1.017108e-03
7.681441e+01	-1.028890e-03
7.725809e+01	-1.040809e-03
7.770433e+01	-1.052866e-03
7.815315e+01	-1.065062e-03
7.860456e+01	-1.077399e-03
7.905857e+01	-1.089880e-03
7.951521e+01	-1.102505e-03
7.997449e+01	-1.115276e-03
8.043642e+01	-1.128195e-03
8.090102e+01	-1.141264e-03
8.136830e+01	-1.154484e-03
8.183828e+01	-1.167857e-03
8.231097e+01	-1.181385e-03
8.278640e+01	-1.195070e-03
8.326457e+01	-1.208913e-03
8.374550e+01	-1.222917e-03
8.422921e+01	-1.237082e-03
8.471572e+01	-1.251412e-03
8.520503e+01	-1.265908e-03
8.569717e+01	-1.280572e-03
8.619215e+01	-1.295405e-03
8.669000e+01	-1.310411e-03
8.719071e+01	-1.325590e-03
8.769432e+01	-1.340945e-03
8.820084e+01	-1.356478e-03
8.871029e+01	-1.372190e-03
8.922267e+01	-1.388085e-03
8.973802e+01	-1.404164e-03
9.025634e+01	-1.420429e-03
9.077766e+01	-1.436882e-03
9.130199e+01	-1.453526e-03
9.182935e+01	-1.470363e-03
9.235975e+01	-1.487394e-03
9.289321e+01	-1.504623e-03
9.342976e+01	-1.522051e-03
9.396941e+01	-1.539682e-03
9.451217e+01	-1.557516e-03
9.505807e+01	-1.575557e-03
9.560712e+01	-1.593807e-03
9.615934e+01	-1.612268e-03
9.671476e+01	-1.630943e-03
9.727338e+01	-1.649835e-03
9.783522e+01	-1.668945e-03
9.840032e+01	-1.688276e-03
9.896867e+01	-1.707831e-03
9.954031e+01	-1.727613e-03
1.001153e+02	-1.747624e-03
1.006935e+02	-1.767867e-03
1.012751e+02	-1.788343e-03
1.018601e+02	-1.809058e-03
1.024484e+02	-1.830012e-03
1.030402e+02	-1.851208e-03
1.036353e+02	-1.872650e-03
1.042339e+02	-1.894341e-03
1.048360e+02	-1.916282e-03
1.054415e+02	-1.938478e-03
1.060505e+02	-1.960931e-03
1.066631e+02	-1.983643e-03
1.072791e+02	-2.006619e-03
1.078988e+02	-2.029861e-03
1.085220e+02	-2.053372e-03
1.091488e+02	-2.077155e-03
1.097793e+02	-2.101214e-03
1.104133e+02	-2.125551e-03
1.110511e+02	-2.150170e-03
1.116925e+02	-2.175074e-03
1.123376e+02	-2.200266e-03
1.129865e+02	-2.225750e-03
1.136391e+02	-2.251530e-03
1.142955e+02	-2.277607e-03
1.149556e+02	-2.303987e-03
1.156196e+02	-2.330672e-03
1.162874e+02	-2.357666e-03
1.169591e+02	-2.384973e-03
1.176347e+02	-2.412596e-03
1.183141e+02	-2.440538e-03
1.189975e+02	-2.468805e-03
1.196848e+02	-2.497398e-03
1.203761e+02	-2.526323e-03
1.210714e+02	-2.555582e-03
1.217707e+02	-2.585180e-03
1.224740e+02	-2.615121e-03
1.231814e+02	-2.645409e-03
1.238929e+02	-2.676047e-03
1.246085e+02	-2.707040e-03
1.253283e+02	-2.738392e-03
1.260522e+02	-2.770107e-03
1.267802e+02	-2.802189e-03
1.275125e+02	-2.834643e-03
1.282490e+02	-2.867472e-03
1.289898e+02	-2.900681e-03
1.297348e+02	-2.934275e-03
1.304842e+02	-2.968258e-03
1.312378e+02	-3.002634e-03
1.319959e+02	-3.037408e-03
1.327583e+02	-3.072585e-03
1.335251e+02	-3.108169e-03
1.342963e+02	-3.144164e-03
1.350720e+02	-3.180577e-03
1.358522e+02	-3.217411e-03
1.366368e+02	-3.254672e-03
1.374260e+02	-3.292364e-03
1.382198e+02	-3.330492e-03
1.390182e+02	-3.369062e-03
1.398211e+02	-3.408078e-03
1.406287e+02	-3.447545e-03
1.414410e+02	-3.487470e-03
1.422579e+02	-3.527857e-03
1.430796e+02	-3.568711e-03
1.439060e+02	-3.610038e-03
1.447372e+02	-3.651844e-03
1.455732e+02	-3.694134e-03
1.464141e+02	-3.736913e-03
1.472597e+02	-3.780187e-03
1.481103e+02	-3.823962e-03
1.489658e+02	-3.868244e-03
1.498262e+02	-3.913038e-03
1.506916e+02	-3.958351e-03
1.515620e+02	-4.004188e-03
1.524374e+02	-4.050556e-03
1.533179e+02	-4.097461e-03
1.542034e+02	-4.144908e-03
1.550941e+02	-4.192905e-03
1.559899e+02	-4.241457e-03
1.568909e+02	-4.290571e-03
1.577971e+02	-4.340253e-03
1.587085e+02	-4.390511e-03
1.596252e+02	-4.441350e-03
1.605472e+02	-4.492777e-03
1.614745e+02	-4.544800e-03
1.624072e+02	-4.597425e-03
1.633453e+02	-4.650659e-03
1.642887e+02	-4.704508e-03
1.652377e+02	-4.758981e-03
1.661921e+02	-4.814085e-03
1.671520e+02	-4.869826e-03
1.681175e+02	-4.926212e-03
1.690885e+02	-4.983251e-03
1.700651e+02	-5.040949e-03
1.710474e+02	-5.099316e-03
1.720354e+02	-5.158357e-03
1.730291e+02	-5.218082e-03
1.740285e+02	-5.278498e-03
1.750337e+02	-5.339613e-03
1.760446e+02	-5.401435e-03
1.770615e+02	-5.463973e-03
1.780842e+02	-5.527234e-03
1.791128e+02	-5.591227e-03
1.801473e+02	-5.655961e-03
1.811878e+02	-5.721443e-03
1.822344e+02	-5.787683e-03
1.832870e+02	-5.854690e-03
1.843456e+02	-5.922471e-03
1.854104e+02	-5.991037e-03
1.864813e+02	-6.060396e-03
1.875584e+02	-6.130558e-03
1.886418e+02	-6.201531e-03
1.897313e+02	-6.273325e-03
1.908272e+02	-6.345950e-03
1.919294e+02	-6.419415e-03
1.930380e+02	-6.493730e-03
1.941530e+02	-6.568904e-03
1.952744e+02	-6.644948e-03
1.964023e+02	-6.721872e-03
1.975367e+02	-6.799685e-03
1.986777e+02	-6.878399e-03
1.998252e+02	-6.958023e-03
2.009794e+02	-7.038568e-03
2.021403e+02	-7.120044e-03
2.033078e+02	-7.202463e-03
2.044821e+02	-7.285835e-03
2.056632e+02	-7.370172e-03
2.068511e+02	-7.455484e-03
2.080459e+02	-7.541782e-03
2.092475e+02	-7.629078e-03
2.104561e+02	-7.717384e-03
2.116717e+02	-7.806712e-03
2.128943e+02	-7.897072e-03
2.141240e+02	-7.988477e-03
2.153608e+02	-8.080939e-03
2.166047e+02	-8.174470e-03
2.178558e+02	-8.269083e-03
2.191141e+02	-8.364790e-03
2.203797e+02	-8.461604e-03
2.216526e+02	-8.559536e-03
2.229329e+02	-8.658602e-03
2.242205e+02	-8.758812e-03
2.255156e+02	-8.860181e-03
2.268182e+02	-8.962722e-03
2.281283e+02	-9.066449e-03
2.294459e+02	-9.171375e-03
2.307712e+02	-9.277514e-03
2.321041e+02	-9.384879e-03
2.334447e+02	-9.493486e-03
2.347931e+02	-9.603349e-03
2.361493e+02	-9.714481e-03
2.375133e+02	-9.826898e-03
2.388851e+02	-9.940614e-03
2.402649e+02	-1.005565e-02
2.416527e+02	-1.017201e-02
2.430484e+02	-1.028971e-02
2.444523e+02	-1.040878e-02
2.458642e+02	-1.052922e-02
2.472843e+02	-1.065105e-02
2.487126e+02	-1.077429e-02
2.501492e+02	-1.089896e-02
2.515940e+02	-1.102506e-02
2.530472e+02	-1.115263e-02
2.545088e+02	-1.128167e-02
2.559789e+02	-1.141219e-02
2.574574e+02	-1.154423e-02
2.589444e+02	-1.167779e-02
2.604401e+02	-1.181290e-02
2.619444e+02	-1.194956e-02
2.634574e+02	-1.208781e-02
2.649791e+02	-1.222765e-02
2.665096e+02	-1.236911e-02
2.680489e+02	-1.251220e-02
2.695972e+02	-1.265695e-02
2.711544e+02	-1.280336e-02
2.727205e+02	-1.295147e-02
2.742958e+02	-1.310129e-02
2.758801e+02	-1.325284e-02
2.774736e+02	-1.340614e-02
2.790762e+02	-1.356121e-02
2.806882e+02	-1.371807e-02
2.823094e+02	-1.387674e-02
2.839400e+02	-1.403725e-02
2.855800e+02	-1.419961e-02
2.872295e+02	-1.436384e-02
2.888886e+02	-1.452997e-02
2.905572e+02	-1.469802e-02
2.922354e+02	-1.486800e-02
2.939234e+02	-1.503995e-02
2.956211e+02	-1.521389e-02
2.973286e+02	-1.538983e-02
2.990459e+02	-1.556781e-02
3.007732e+02	-1.574783e-02
3.025104e+02	-1.592994e-02
3.042577e+02	-1.611415e-02
3.060151e+02	-1.630048e-02
3.077826e+02	-1.648897e-02
3.095604e+02	-1.667963e-02
3.113484e+02	-1.687249e-02
3.131467e+02	-1.706758e-02
3.149554e+02	-1.726492e-02
3.167746e+02	-1.746453e-02
3.186043e+02	-1.766645e-02
3.204445e+02	-1.787070e-02
3.222954e+02	-1.807730e-02
3.241570e+02	-1.828629e-02
3.260293e+02	-1.849768e-02
3.279124e+02	-1.871152e-02
3.298064e+02	-1.892782e-02
3.317114e+02	-1.914662e-02
3.336273e+02	-1.936794e-02
3.355544e+02	-1.959182e-02
3.374925e+02	-1.981828e-02
3.394418e+02	-2.004734e-02
3.414024e+02	-2.027905e-02
3.433744e+02	-2.051343e-02
3.453577e+02	-2.075052e-02
3.473525e+02	-2.099033e-02
3.493588e+02	-2.123291e-02
3.513766e+02	-2.147829e-02
3.534062e+02	-2.172650e-02
3.554474e+02	-2.197757e-02
3.575005e+02	-2.223153e-02
3.595654e+02	-2.248842e-02
3.616422e+02	-2.274827e-02
3.637311e+02	-2.301111e-02
3.658320e+02	-2.327698e-02
3.679450e+02	-2.354592e-02
3.700702e+02	-2.381795e-02
3.722077e+02	-2.409312e-02
3.743576e+02	-2.437146e-02
3.765199e+02	-2.465300e-02
3.786946e+02	-2.493779e-02
3.808820e+02	-2.522586e-02
3.830819e+02	-2.551725e-02
3.852946e+02	-2.581199e-02
3.875200e+02	-2.611012e-02
3.897583e+02	-2.641169e-02
3.920096e+02	-2.671673e-02
3.942738e+02	-2.702529e-02
3.965511e+02	-2.733739e-02
3.988416e+02	-2.765309e-02
4.011452e+02	-2.797242e-02
4.034622e+02	-2.829543e-02
4.057926e+02	-2.862216e-02
4.081365e+02	-2.895264e-02
4.104938e+02	-2.928693e-02
4.128648e+02	-2.962507e-02
4.152495e+02	-2.996709e-02
4.176480e+02	-3.031305e-02
4.200603e+02	-3.066299e-02
4.224866e+02	-3.101696e-02
4.249268e+02	-3.137500e-02
4.273812e+02	-3.173715e-02
4.298497e+02	-3.210347e-02
4.323325e+02	-3.247400e-02
4.348297e+02	-3.284879e-02
4.373412e+02	-3.322789e-02
4.398673e+02	-3.361135e-02
4.424079e+02	-3.399922e-02
4.449633e+02	-3.439154e-02
4.475334e+02	-3.478838e-02
4.501183e+02	-3.518977e-02
4.527182e+02	-3.559578e-02
4.553330e+02	-3.600645e-02
4.579630e+02	-3.642184e-02
4.606082e+02	-3.684200e-02
4.632687e+02	-3.726698e-02
4.659445e+02	-3.769685e-02
4.686358e+02	-3.813165e-02
4.713426e+02	-3.857145e-02
4.740650e+02	-3.901630e-02
4.768032e+02	-3.946625e-02
4.795572e+02	-3.992137e-02
4.823271e+02	-4.038171e-02
4.851130e+02	-4.084734e-02
4.879150e+02	-4.131831e-02
4.907332e+02	-4.179468e-02
4.935676e+02	-4.227652e-02
4.964185e+02	-4.276388e-02
4.992858e+02	-4.325684e-02
5.021696e+02	-4.375545e-02
5.050701e+02	-4.425978e-02
5.079874e+02	-4.476989e-02
5.109215e+02	-4.528585e-02
5.138726e+02	-4.580772e-02
5.168407e+02	-4.633558e-02
5.198259e+02	-4.686948e-02
5.228284e+02	-4.740951e-02
5.258482e+02	-4.795572e-02
5.288855e+02	-4.850819e-02
5.319403e+02	-4.906698e-02
5.350128e+02	-4.963218e-02
5.381030e+02	-5.020385e-02
5.412111e+02	-5.078207e-02
5.443371e+02	-5.136690e-02
5.474812e+02	-5.195843e-02
5.506434e+02	-5.255673e-02
5.538239e+02	-5.316188e-02
5.570228e+02	-5.377395e-02
5.602401e+02	-5.439303e-02
5.634760e+02	-5.501919e-02
5.667306e+02	-5.565251e-02
5.700040e+02	-5.629307e-02
5.732964e+02	-5.694095e-02
5.766077e+02	-5.759625e-02
5.799382e+02	-5.825903e-02
5.832879e+02	-5.892939e-02
5.866569e+02	-5.960741e-02
5.900454e+02	-6.029317e-02
5.934535e+02	-6.098677e-02
5.968813e+02	-6.168829e-02
6.003288e+02	-6.239782e-02
6.037963e+02	-6.311546e-02
6.072838e+02	-6.384129e-02
6.107914e+02	-6.457540e-02
6.143194e+02	-6.531789e-02
6.178676e+02	-6.606885e-02
6.214364e+02	-6.682837e-02
6.250258e+02	-6.759657e-02
6.286359e+02	-6.837352e-02
6.322669e+02	-6.915933e-02
6.359189e+02	-6.995410e-02
6.395919e+02	-7.075792e-02
6.432862e+02	-7.157091e-02
6.470017e+02	-7.239316e-02
6.507388e+02	-7.322478e-02
6.544974e+02	-7.406587e-02
6.582778e+02	-7.491654e-02
6.620800e+02	-7.577689e-02
6.659041e+02	-7.664703e-02
6.697504e+02	-7.752708e-02
6.736188e+02	-7.841713e-02
6.775096e+02	-7.931732e-02
6.814229e+02	-8.022774e-02
6.853587e+02	-8.114851e-02
6.893173e+02	-8.207975e-02
6.932988e+02	-8.302158e-02
6.973033e+02	-8.397411e-02
7.013309e+02	-8.493745e-02
