Frequency(Hz)	Magnitude(dB)
1.000000e+01	-1.979011e+00
1.005776e+01	-1.997408e+00
1.011585e+01	-2.015925e+00
1.017428e+01	-2.034632e+00
1.023305e+01	-2.053143e+00
1.029215e+01	-2.072316e+00
1.035160e+01	-2.091343e+00
1.041139e+01	-2.110587e+00
1.047153e+01	-2.129786e+00
1.053201e+01	-2.149248e+00
1.059284e+01	-2.168877e+00
1.065403e+01	-2.188577e+00
1.071556e+01	-2.208550e+00
1.077746e+01	-2.228571e+00
1.083971e+01	-2.248704e+00
1.090232e+01	-2.268848e+00
1.096529e+01	-2.289422e+00
1.102862e+01	-2.309982e+00
1.109232e+01	-2.330705e+00
1.115639e+01	-2.351377e+00
1.122083e+01	-2.372449e+00
1.128564e+01	-2.393634e+00
1.135083e+01	-2.414889e+00
1.141639e+01	-2.436119e+00
1.148233e+01	-2.457628e+00
1.154865e+01	-2.479547e+00
1.161536e+01	-2.501139e+00
1.168245e+01	-2.523336e+00
1.174992e+01	-2.545583e+00
1.181779e+01	-2.567756e+00
1.188605e+01	-2.590216e+00
1.195470e+01	-2.612639e+00
1.202375e+01	-2.635350e+00
1.209320e+01	-2.658219e+00
1.216305e+01	-2.680971e+00
1.223330e+01	-2.703989e+00
1.230396e+01	-2.727441e+00
1.237503e+01	-2.751008e+00
1.244651e+01	-2.774564e+00
1.251840e+01	-2.798012e+00
1.259070e+01	-2.822104e+00
1.266343e+01	-2.845970e+00
1.273657e+01	-2.870085e+00
1.281014e+01	-2.894163e+00
1.288413e+01	-2.918728e+00
1.295855e+01	-2.943191e+00
1.303339e+01	-2.967981e+00
1.310867e+01	-2.992918e+00
1.318439e+01	-3.017749e+00
1.326054e+01	-3.042861e+00
1.333713e+01	-3.068260e+00
1.341417e+01	-3.093699e+00
1.349165e+01	-3.119333e+00
1.356958e+01	-3.144811e+00
1.364795e+01	-3.170401e+00
1.372678e+01	-3.196677e+00
1.380607e+01	-3.222700e+00
1.388581e+01	-3.249021e+00
1.396602e+01	-3.275566e+00
1.404668e+01	-3.301912e+00
1.412782e+01	-3.328736e+00
1.420942e+01	-3.355575e+00
1.429149e+01	-3.382505e+00
1.437404e+01	-3.409694e+00
1.445706e+01	-3.437229e+00
1.454057e+01	-3.464422e+00
1.462455e+01	-3.492216e+00
1.470902e+01	-3.519937e+00
1.479398e+01	-3.547476e+00
1.487943e+01	-3.575683e+00
1.496537e+01	-3.603884e+00
1.505181e+01	-3.631844e+00
1.513875e+01	-3.660514e+00
1.522619e+01	-3.688885e+00
1.531414e+01	-3.717377e+00
1.540259e+01	-3.746686e+00
1.549156e+01	-3.775739e+00
1.558103e+01	-3.804653e+00
1.567103e+01	-3.833947e+00
1.576155e+01	-3.863385e+00
1.585258e+01	-3.892862e+00
1.594415e+01	-3.922818e+00
1.603624e+01	-3.952383e+00
1.612886e+01	-3.982314e+00
1.622202e+01	-4.012395e+00
1.631572e+01	-4.042747e+00
1.640996e+01	-4.073127e+00
1.650474e+01	-4.103569e+00
1.660008e+01	-4.134112e+00
1.669596e+01	-4.165002e+00
1.679239e+01	-4.195865e+00
1.688938e+01	-4.227053e+00
1.698694e+01	-4.258090e+00
1.708505e+01	-4.289809e+00
1.718373e+01	-4.321132e+00
1.728299e+01	-4.352392e+00
1.738281e+01	-4.384328e+00
1.748322e+01	-4.416177e+00
1.758420e+01	-4.448314e+00
1.768576e+01	-4.480421e+00
1.778792e+01	-4.512459e+00
1.789066e+01	-4.544871e+00
1.799399e+01	-4.577399e+00
1.809793e+01	-4.610349e+00
1.820246e+01	-4.642960e+00
1.830760e+01	-4.675975e+00
1.841334e+01	-4.708655e+00
1.851969e+01	-4.742085e+00
1.862666e+01	-4.775401e+00
1.873425e+01	-4.808705e+00
1.884246e+01	-4.842524e+00
1.895129e+01	-4.876195e+00
1.906075e+01	-4.909925e+00
1.917085e+01	-4.943626e+00
1.928158e+01	-4.977551e+00
1.939295e+01	-5.012008e+00
1.950496e+01	-5.046188e+00
1.961762e+01	-5.080530e+00
1.973093e+01	-5.115076e+00
1.984490e+01	-5.149747e+00
1.995952e+01	-5.184648e+00
2.007480e+01	-5.219656e+00
2.019076e+01	-5.254529e+00
2.030738e+01	-5.290013e+00
2.042467e+01	-5.325482e+00
2.054264e+01	-5.360351e+00
2.066130e+01	-5.396129e+00
2.078064e+01	-5.431819e+00
2.090066e+01	-5.467612e+00
2.102139e+01	-5.503240e+00
2.114280e+01	-5.539528e+00
2.126492e+01	-5.575311e+00
2.138775e+01	-5.611682e+00
2.151128e+01	-5.648197e+00
2.163553e+01	-5.684514e+00
2.176050e+01	-5.720911e+00
2.188619e+01	-5.757630e+00
2.201260e+01	-5.794875e+00
2.213974e+01	-5.831405e+00
2.226762e+01	-5.868286e+00
2.239624e+01	-5.905446e+00
2.252560e+01	-5.942941e+00
2.265571e+01	-5.979928e+00
2.278656e+01	-6.017610e+00
2.291818e+01	-6.055491e+00
2.305055e+01	-6.092999e+00
2.318369e+01	-6.130662e+00
2.331760e+01	-6.168866e+00
2.345228e+01	-6.206400e+00
2.358774e+01	-6.244887e+00
2.372398e+01	-6.282985e+00
2.386101e+01	-6.321207e+00
2.399883e+01	-6.359488e+00
2.413745e+01	-6.398071e+00
2.427686e+01	-6.437012e+00
2.441709e+01	-6.475220e+00
2.455812e+01	-6.514366e+00
2.469997e+01	-6.553201e+00
2.484263e+01	-6.592082e+00
2.498612e+01	-6.631346e+00
2.513044e+01	-6.670134e+00
2.527559e+01	-6.709698e+00
2.542158e+01	-6.749280e+00
2.556842e+01	-6.788629e+00
2.571610e+01	-6.828384e+00
2.586463e+01	-6.867963e+00
2.601403e+01	-6.907959e+00
2.616428e+01	-6.947698e+00
2.631541e+01	-6.987272e+00
2.646740e+01	-7.027698e+00
2.662028e+01	-7.067703e+00
2.677404e+01	-7.108493e+00
2.692868e+01	-7.148165e+00
2.708422e+01	-7.188558e+00
2.724066e+01	-7.229021e+00
2.739800e+01	-7.269656e+00
2.755625e+01	-7.310514e+00
2.771541e+01	-7.351304e+00
2.787550e+01	-7.392594e+00
2.803650e+01	-7.432847e+00
2.819844e+01	-7.474276e+00
2.836131e+01	-7.515471e+00
2.852513e+01	-7.556301e+00
2.868989e+01	-7.597805e+00
2.885560e+01	-7.639177e+00
2.902227e+01	-7.680460e+00
2.918990e+01	-7.721855e+00
2.935850e+01	-7.763703e+00
2.952807e+01	-7.805465e+00
2.969863e+01	-7.847272e+00
2.987016e+01	-7.889272e+00
3.004269e+01	-7.931174e+00
3.021622e+01	-7.973568e+00
3.039075e+01	-8.015136e+00
3.056628e+01	-8.057549e+00
3.074283e+01	-8.099474e+00
3.092040e+01	-8.141842e+00
3.109900e+01	-8.184428e+00
3.127862e+01	-8.226418e+00
3.145929e+01	-8.269203e+00
3.164099e+01	-8.312218e+00
3.182375e+01	-8.354724e+00
3.200756e+01	-8.397378e+00
3.219244e+01	-8.440304e+00
3.237838e+01	-8.482981e+00
3.256540e+01	-8.526189e+00
3.275349e+01	-8.568756e+00
3.294268e+01	-8.612243e+00
3.313295e+01	-8.655243e+00
3.332433e+01	-8.698614e+00
3.351681e+01	-8.741738e+00
3.371040e+01	-8.785331e+00
3.390511e+01	-8.828621e+00
3.410094e+01	-8.872002e+00
3.429791e+01	-8.915605e+00
3.449601e+01	-8.959324e+00
3.469526e+01	-9.002927e+00
3.489566e+01	-9.046830e+00
3.509721e+01	-9.090900e+00
3.529993e+01	-9.134901e+00
3.550382e+01	-9.178644e+00
3.570889e+01	-9.223097e+00
3.591515e+01	-9.266861e+00
3.612259e+01	-9.310729e+00
3.633123e+01	-9.354640e+00
3.654108e+01	-9.398825e+00
3.675214e+01	-9.443706e+00
3.696442e+01	-9.488012e+00
3.717792e+01	-9.532093e+00
3.739266e+01	-9.576707e+00
3.760864e+01	-9.621530e+00
3.782587e+01	-9.666264e+00
3.804435e+01	-9.710555e+00
3.826409e+01	-9.755172e+00
3.848510e+01	-9.800268e+00
3.870739e+01	-9.844976e+00
3.893096e+01	-9.889873e+00
3.915583e+01	-9.934245e+00
3.938199e+01	-9.979656e+00
3.960946e+01	-1.002425e+01
3.983824e+01	-1.006940e+01
4.006834e+01	-1.011445e+01
4.029978e+01	-1.016001e+01
4.053255e+01	-1.020501e+01
4.076666e+01	-1.025068e+01
4.100213e+01	-1.029550e+01
4.123896e+01	-1.034172e+01
4.147715e+01	-1.038611e+01
4.171672e+01	-1.043170e+01
4.195767e+01	-1.047779e+01
4.220002e+01	-1.052383e+01
4.244377e+01	-1.056850e+01
4.268892e+01	-1.061414e+01
4.293549e+01	-1.066004e+01
4.318348e+01	-1.070602e+01
4.343291e+01	-1.075200e+01
4.368377e+01	-1.079714e+01
4.393609e+01	-1.084349e+01
4.418986e+01	-1.088966e+01
4.444510e+01	-1.093499e+01
4.470182e+01	-1.098168e+01
4.496001e+01	-1.102716e+01
4.521970e+01	-1.107350e+01
4.548089e+01	-1.112001e+01
4.574358e+01	-1.116578e+01
4.600779e+01	-1.121250e+01
4.627353e+01	-1.125813e+01
4.654081e+01	-1.130479e+01
4.680963e+01	-1.135136e+01
4.708000e+01	-1.139732e+01
4.735193e+01	-1.144353e+01
4.762543e+01	-1.149033e+01
4.790051e+01	-1.153655e+01
4.817719e+01	-1.158345e+01
4.845545e+01	-1.163021e+01
4.873533e+01	-1.167672e+01
4.901682e+01	-1.172264e+01
4.929994e+01	-1.177015e+01
4.958470e+01	-1.181671e+01
4.987110e+01	-1.186355e+01
5.015915e+01	-1.191034e+01
5.044887e+01	-1.195690e+01
5.074026e+01	-1.200298e+01
5.103333e+01	-1.205079e+01
5.132810e+01	-1.209739e+01
5.162457e+01	-1.214459e+01
5.192275e+01	-1.219148e+01
5.222265e+01	-1.223851e+01
5.252429e+01	-1.228504e+01
5.282767e+01	-1.233311e+01
5.313280e+01	-1.237950e+01
5.343969e+01	-1.242724e+01
5.374836e+01	-1.247336e+01
5.405880e+01	-1.252129e+01
5.437105e+01	-1.256824e+01
5.468509e+01	-1.261584e+01
5.500095e+01	-1.266317e+01
5.531863e+01	-1.271054e+01
5.563815e+01	-1.275738e+01
5.595951e+01	-1.280543e+01
5.628273e+01	-1.285222e+01
5.660782e+01	-1.290024e+01
5.693479e+01	-1.294778e+01
5.726364e+01	-1.299530e+01
5.759439e+01	-1.304278e+01
5.792705e+01	-1.309035e+01
5.826164e+01	-1.313828e+01
5.859815e+01	-1.318529e+01
5.893662e+01	-1.323322e+01
5.927703e+01	-1.328070e+01
5.961941e+01	-1.332826e+01
5.996377e+01	-1.337554e+01
6.031012e+01	-1.342371e+01
6.065847e+01	-1.347151e+01
6.100883e+01	-1.351862e+01
6.136121e+01	-1.356734e+01
6.171563e+01	-1.361459e+01
6.207210e+01	-1.366215e+01
6.243063e+01	-1.371080e+01
6.279122e+01	-1.375855e+01
6.315390e+01	-1.380693e+01
6.351868e+01	-1.385504e+01
6.388556e+01	-1.390241e+01
6.425456e+01	-1.395013e+01
6.462569e+01	-1.399863e+01
6.499897e+01	-1.404660e+01
6.537440e+01	-1.409522e+01
6.575200e+01	-1.414252e+01
6.613178e+01	-1.419066e+01
6.651375e+01	-1.423823e+01
6.689793e+01	-1.428811e+01
6.728433e+01	-1.433606e+01
6.767297e+01	-1.438401e+01
6.806384e+01	-1.443198e+01
6.845698e+01	-1.448035e+01
6.885238e+01	-1.452845e+01
6.925007e+01	-1.457661e+01
6.965005e+01	-1.462500e+01
7.005235e+01	-1.467220e+01
7.045697e+01	-1.472180e+01
7.086393e+01	-1.477055e+01
7.127323e+01	-1.481804e+01
7.168490e+01	-1.486690e+01
7.209895e+01	-1.491587e+01
7.251539e+01	-1.496358e+01
7.293424e+01	-1.501148e+01
7.335551e+01	-1.505999e+01
7.377920e+01	-1.510997e+01
7.420535e+01	-1.515693e+01
7.463396e+01	-1.520589e+01
7.506504e+01	-1.525405e+01
7.549861e+01	-1.530285e+01
7.593469e+01	-1.535129e+01
7.637328e+01	-1.540002e+01
7.681441e+01	-1.544858e+01
7.725809e+01	-1.549664e+01
7.770433e+01	-1.554543e+01
7.815315e+01	-1.559483e+01
7.860456e+01	-1.564197e+01
7.905857e+01	-1.569232e+01
7.951521e+01	-1.574060e+01
7.997449e+01	-1.578827e+01
8.043642e+01	-1.583894e+01
8.090102e+01	-1.588677e+01
8.136830e+01	-1.593593e+01
8.183828e+01	-1.598375e+01
8.231097e+01	-1.603289e+01
8.278640e+01	-1.608109e+01
8.326457e+01	-1.613023e+01
8.374550e+01	-1.617922e+01
8.422921e+01	-1.622790e+01
8.471572e+01	-1.627849e+01
8.520503e+01	-1.632606e+01
8.569717e+01	-1.637591e+01
8.619215e+01	-1.642335e+01
8.669000e+01	-1.647162e+01
8.719071e+01	-1.652092e+01
8.769432e+01	-1.657041e+01
8.820084e+01	-1.661963e+01
8.871029e+01	-1.666792e+01
8.922267e+01	-1.671604e+01
8.973802e+01	-1.676633e+01
9.025634e+01	-1.681483e+01
9.077766e+01	-1.686412e+01
9.130199e+01	-1.691251e+01
9.182935e+01	-1.696198e+01
9.235975e+01	-1.701210e+01
9.289321e+01	-1.705935e+01
9.342976e+01	-1.710901e+01
9.396941e+01	-1.715922e+01
9.451217e+01	-1.720675e+01
9.505807e+01	-1.725628e+01
9.560712e+01	-1.730560e+01
9.615934e+01	-1.735587e+01
9.671476e+01	-1.740483e+01
9.727338e+01	-1.745286e+01
9.783522e+01	-1.750142e+01
9.840032e+01	-1.755158e+01
9.896867e+01	-1.760099e+01
9.954031e+01	-1.764966e+01
1.001153e+02	-1.769919e+01
1.006935e+02	-1.774705e+01
1.012751e+02	-1.779768e+01
1.018601e+02	-1.784654e+01
1.024484e+02	-1.789551e+01
1.030402e+02	-1.794587e+01
1.036353e+02	-1.799421e+01
1.042339e+02	-1.804247e+01
1.048360e+02	-1.809250e+01
1.054415e+02	-1.813988e+01
1.060505e+02	-1.819211e+01
1.066631e+02	-1.823963e+01
1.072791e+02	-1.829006e+01
1.078988e+02	-1.834104e+01
1.085220e+02	-1.838837e+01
1.091488e+02	-1.843785e+01
1.097793e+02	-1.848558e+01
1.104133e+02	-1.853702e+01
1.110511e+02	-1.858480e+01
1.116925e+02	-1.863614e+01
1.123376e+02	-1.868489e+01
1.129865e+02	-1.873533e+01
1.136391e+02	-1.878243e+01
1.142955e+02	-1.883212e+01
1.149556e+02	-1.888156e+01
1.156196e+02	-1.893003e+01
1.162874e+02	-1.897984e+01
1.169591e+02	-1.903003e+01
1.176347e+02	-1.907917e+01
1.183141e+02	-1.912796e+01
1.189975e+02	-1.917772e+01
1.196848e+02	-1.922885e+01
1.203761e+02	-1.927817e+01
1.210714e+02	-1.932776e+01
1.217707e+02	-1.937504e+01
1.224740e+02	-1.942526e+01
1.231814e+02	-1.947385e+01
1.238929e+02	-1.952451e+01
1.246085e+02	-1.957479e+01
1.253283e+02	-1.962287e+01
1.260522e+02	-1.967222e+01
1.267802e+02	-1.972173e+01
1.275125e+02	-1.977309e+01
1.282490e+02	-1.982092e+01
1.289898e+02	-1.987129e+01
1.297348e+02	-1.992158e+01
1.304842e+02	-1.996830e+01
1.312378e+02	-2.001818e+01
1.319959e+02	-2.006858e+01
1.327583e+02	-2.011998e+01
1.335251e+02	-2.016683e+01
1.342963e+02	-2.021796e+01
1.350720e+02	-2.026815e+01
1.358522e+02	-2.031654e+01
1.366368e+02	-2.036700e+01
1.374260e+02	-2.041601e+01
1.382198e+02	-2.046454e+01
1.390182e+02	-2.051571e+01
1.398211e+02	-2.056497e+01
1.406287e+02	-2.061423e+01
1.414410e+02	-2.066377e+01
1.422579e+02	-2.071474e+01
1.430796e+02	-2.076079e+01
1.439060e+02	-2.081414e+01
1.447372e+02	-2.086184e+01
1.455732e+02	-2.091274e+01
1.464141e+02	-2.096003e+01
1.472597e+02	-2.101142e+01
1.481103e+02	-2.106036e+01
1.489658e+02	-2.111172e+01
1.498262e+02	-2.115784e+01
1.506916e+02	-2.121020e+01
1.515620e+02	-2.126009e+01
1.524374e+02	-2.130952e+01
1.533179e+02	-2.135990e+01
1.542034e+02	-2.140800e+01
1.550941e+02	-2.145751e+01
1.559899e+02	-2.150707e+01
1.568909e+02	-2.155656e+01
1.577971e+02	-2.160769e+01
1.587085e+02	-2.165564e+01
1.596252e+02	-2.170692e+01
1.605472e+02	-2.175782e+01
1.614745e+02	-2.180593e+01
1.624072e+02	-2.185500e+01
1.633453e+02	-2.190548e+01
1.642887e+02	-2.195313e+01
1.652377e+02	-2.200382e+01
1.661921e+02	-2.205529e+01
1.671520e+02	-2.210218e+01
1.681175e+02	-2.215331e+01
1.690885e+02	-2.220330e+01
1.700651e+02	-2.225407e+01
1.710474e+02	-2.230402e+01
1.720354e+02	-2.235310e+01
1.730291e+02	-2.240332e+01
1.740285e+02	-2.245269e+01
1.750337e+02	-2.250285e+01
1.760446e+02	-2.255147e+01
1.770615e+02	-2.260422e+01
1.780842e+02	-2.265189e+01
1.791128e+02	-2.270236e+01
1.801473e+02	-2.275178e+01
1.811878e+02	-2.280401e+01
1.822344e+02	-2.285015e+01
1.832870e+02	-2.290113e+01
1.843456e+02	-2.295177e+01
1.854104e+02	-2.299989e+01
1.864813e+02	-2.305029e+01
1.875584e+02	-2.310311e+01
1.886418e+02	-2.314784e+01
1.897313e+02	-2.319912e+01
1.908272e+02	-2.325077e+01
1.919294e+02	-2.329923e+01
1.930380e+02	-2.335148e+01
1.941530e+02	-2.339716e+01
1.952744e+02	-2.344867e+01
1.964023e+02	-2.349922e+01
1.975367e+02	-2.354899e+01
1.986777e+02	-2.359774e+01
1.998252e+02	-2.365032e+01
2.009794e+02	-2.369440e+01
2.021403e+02	-2.374981e+01
2.033078e+02	-2.379862e+01
2.044821e+02	-2.384845e+01
2.056632e+02	-2.389652e+01
2.068511e+02	-2.394734e+01
2.080459e+02	-2.399773e+01
2.092475e+02	-2.404732e+01
2.104561e+02	-2.409579e+01
2.116717e+02	-2.414600e+01
2.128943e+02	-2.419565e+01
2.141240e+02	-2.424496e+01
2.153608e+02	-2.429357e+01
2.166047e+02	-2.434740e+01
2.178558e+02	-2.439527e+01
2.191141e+02	-2.444517e+01
2.203797e+02	-2.449521e+01
2.216526e+02	-2.454422e+01
2.229329e+02	-2.459814e+01
2.242205e+02	-2.464584e+01
2.255156e+02	-2.469398e+01
2.268182e+02	-2.474501e+01
2.281283e+02	-2.479722e+01
2.294459e+02	-2.484524e+01
2.307712e+02	-2.489485e+01
2.321041e+02	-2.494500e+01
2.334447e+02	-2.499306e+01
2.347931e+02	-2.504522e+01
2.361493e+02	-2.509511e+01
2.375133e+02	-2.514447e+01
2.388851e+02	-2.519456e+01
2.402649e+02	-2.524118e+01
2.416527e+02	-2.529399e+01
2.430484e+02	-2.534432e+01
2.444523e+02	-2.539438e+01
2.458642e+02	-2.544105e+01
2.472843e+02	-2.549329e+01
2.487126e+02	-2.554294e+01
2.501492e+02	-2.559405e+01
2.515940e+02	-2.564498e+01
2.530472e+02	-2.569143e+01
2.545088e+02	-2.574314e+01
2.559789e+02	-2.579104e+01
2.574574e+02	-2.584317e+01
2.589444e+02	-2.589407e+01
2.604401e+02	-2.594384e+01
2.619444e+02	-2.599289e+01
2.634574e+02	-2.604486e+01
2.649791e+02	-2.609043e+01
2.665096e+02	-2.614091e+01
2.680489e+02	-2.619441e+01
2.695972e+02	-2.624163e+01
2.711544e+02	-2.628925e+01
2.727205e+02	-2.634545e+01
2.742958e+02	-2.639412e+01
2.758801e+02	-2.644303e+01
2.774736e+02	-2.649620e+01
2.790762e+02	-2.654323e+01
2.806882e+02	-2.659347e+01
2.823094e+02	-2.664128e+01
2.839400e+02	-2.669239e+01
2.855800e+02	-2.674276e+01
2.872295e+02	-2.679197e+01
2.888886e+02	-2.684228e+01
2.905572e+02	-2.689159e+01
2.922354e+02	-2.694169e+01
2.939234e+02	-2.699185e+01
2.956211e+02	-2.704195e+01
2.973286e+02	-2.709660e+01
2.990459e+02	-2.714249e+01
3.007732e+02	-2.719212e+01
3.025104e+02	-2.724077e+01
3.042577e+02	-2.728894e+01
3.060151e+02	-2.734362e+01
3.077826e+02	-2.739257e+01
3.095604e+02	-2.743897e+01
3.113484e+02	-2.748961e+01
3.131467e+02	-2.753949e+01
3.149554e+02	-2.759300e+01
3.167746e+02	-2.764238e+01
3.186043e+02	-2.768919e+01
3.204445e+02	-2.774424e+01
3.222954e+02	-2.778851e+01
3.241570e+02	-2.784398e+01
3.260293e+02	-2.789425e+01
3.279124e+02	-2.794720e+01
3.298064e+02	-2.799174e+01
3.317114e+02	-2.804390e+01
3.336273e+02	-2.809751e+01
3.355544e+02	-2.814311e+01
3.374925e+02	-2.819218e+01
3.394418e+02	-2.824208e+01
3.414024e+02	-2.829115e+01
3.433744e+02	-2.833958e+01
3.453577e+02	-2.839487e+01
3.473525e+02	-2.844205e+01
3.493588e+02	-2.849194e+01
3.513766e+02	-2.854297e+01
3.534062e+02	-2.858993e+01
3.554474e+02	-2.864353e+01
3.575005e+02	-2.869416e+01
3.595654e+02	-2.874443e+01
3.616422e+02	-2.879562e+01
3.637311e+02	-2.884037e+01
3.658320e+02	-2.888952e+01
3.679450e+02	-2.894803e+01
3.700702e+02	-2.899105e+01
3.722077e+02	-2.904729e+01
3.743576e+02	-2.908967e+01
3.765199e+02	-2.914124e+01
3.786946e+02	-2.919627e+01
3.808820e+02	-2.924476e+01
3.830819e+02	-2.929387e+01
3.852946e+02	-2.934365e+01
3.875200e+02	-2.939243e+01
3.897583e+02	-2.944272e+01
3.920096e+02	-2.949579e+01
3.942738e+02	-2.954547e+01
3.965511e+02	-2.959570e+01
3.988416e+02	-2.964701e+01
4.011452e+02	-2.968851e+01
4.034622e+02	-2.974377e+01
4.057926e+02	-2.979781e+01
4.081365e+02	-2.984547e+01
4.104938e+02	-2.989276e+01
4.128648e+02	-2.994830e+01
4.152495e+02	-2.999516e+01
4.176480e+02	-3.004481e+01
4.200603e+02	-3.009475e+01
4.224866e+02	-3.014544e+01
4.249268e+02	-3.019318e+01
4.273812e+02	-3.023987e+01
4.298497e+02	-3.029275e+01
4.323325e+02	-3.034832e+01
4.348297e+02	-3.039572e+01
4.373412e+02	-3.044636e+01
4.398673e+02	-3.050158e+01
4.424079e+02	-3.054468e+01
4.449633e+02	-3.059674e+01
4.475334e+02	-3.064949e+01
4.501183e+02	-3.069577e+01
4.527182e+02	-3.074216e+01
4.553330e+02	-3.079486e+01
4.579630e+02	-3.084175e+01
4.606082e+02	-3.090028e+01
4.632687e+02	-3.094718e+01
4.659445e+02	-3.100186e+01
4.686358e+02	-3.104651e+01
4.713426e+02	-3.109636e+01
4.740650e+02	-3.115295e+01
4.768032e+02	-3.120629e+01
4.795572e+02	-3.125299e+01
4.823271e+02	-3.130034e+01
4.851130e+02	-3.134833e+01
4.879150e+02	-3.139416e+01
4.907332e+02	-3.144670e+01
4.935676e+02	-3.149728e+01
4.964185e+02	-3.155420e+01
4.992858e+02	-3.160564e+01
5.021696e+02	-3.164896e+01
5.050701e+02	-3.170032e+01
5.079874e+02	-3.174641e+01
5.109215e+02	-3.179908e+01
5.138726e+02	-3.185211e+01
5.168407e+02	-3.190252e+01
5.198259e+02	-3.195064e+01
5.228284e+02	-3.200373e+01
5.258482e+02	-3.205702e+01
5.288855e+02	-3.210219e+01
5.319403e+02	-3.214850e+01
5.350128e+02	-3.220469e+01
5.381030e+02	-3.225457e+01
5.412111e+02	-3.230150e+01
5.443371e+02	-3.235452e+01
5.474812e+02	-3.240404e+01
5.506434e+02	-3.244985e+01
5.538239e+02	-3.250481e+01
5.570228e+02	-3.255475e+01
5.602401e+02	-3.260544e+01
5.634760e+02	-3.266201e+01
5.667306e+02	-3.270569e+01
5.700040e+02	-3.275325e+01
5.732964e+02	-3.280797e+01
5.766077e+02	-3.285483e+01
5.799382e+02	-3.290893e+01
5.832879e+02	-3.295286e+01
5.866569e+02	-3.301013e+01
5.900454e+02	-3.305092e+01
5.934535e+02	-3.311141e+01
5.968813e+02	-3.315115e+01
6.003288e+02	-3.320622e+01
6.037963e+02	-3.324876e+01
6.072838e+02	-3.330886e+01
6.107914e+02	-3.336145e+01
6.143194e+02	-3.340924e+01
6.178676e+02	-3.346109e+01
6.214364e+02	-3.350653e+01
6.250258e+02	-3.355700e+01
6.286359e+02	-3.361404e+01
6.322669e+02	-3.365636e+01
6.359189e+02	-3.371171e+01
6.395919e+02	-3.376323e+01
6.432862e+02	-3.381047e+01
6.470017e+02	-3.386087e+01
6.507388e+02	-3.391142e+01
6.544974e+02	-3.395924e+01
6.582778e+02	-3.400728e+01
6.620800e+02	-3.406145e+01
6.659041e+02	-3.410553e+01
6.697504e+02	-3.416756e+01
6.736188e+02	-3.420354e+01
6.775096e+02	-3.426407e+01
6.814229e+02	-3.431578e+01
6.853587e+02	-3.435951e+01
6.893173e+02	-3.441638e+01
6.932988e+02	-3.446330e+01
6.973033e+02	-3.451986e+01
7.013309e+02	-3.457040e+01
