Frequency(Hz)	Magnitude(dB)
1.000000e+01	-1.788410e-05
1.005776e+01	-1.809130e-05
1.011585e+01	-1.830089e-05
1.017428e+01	-1.851291e-05
1.023305e+01	-1.872738e-05
1.029215e+01	-1.894435e-05
1.035160e+01	-1.916382e-05
1.041139e+01	-1.938584e-05
1.047153e+01	-1.961043e-05
1.053201e+01	-1.983762e-05
1.059284e+01	-2.006744e-05
1.065403e+01	-2.029993e-05
1.071556e+01	-2.053511e-05
1.077746e+01	-2.077301e-05
1.083971e+01	-2.101368e-05
1.090232e+01	-2.125712e-05
1.096529e+01	-2.150339e-05
1.102862e+01	-2.175252e-05
1.109232e+01	-2.200452e-05
1.115639e+01	-2.225945e-05
1.122083e+01	-2.251733e-05
1.128564e+01	-2.277820e-05
1.135083e+01	-2.304209e-05
1.141639e+01	-2.330904e-05
1.148233e+01	-2.357908e-05
1.154865e+01	-2.385225e-05
1.161536e+01	-2.412859e-05
1.168245e+01	-2.440812e-05
1.174992e+01	-2.469090e-05
1.181779e+01	-2.497695e-05
1.188605e+01	-2.526631e-05
1.195470e+01	-2.555903e-05
1.202375e+01	-2.585513e-05
1.209320e+01	-2.615467e-05
1.216305e+01	-2.645768e-05
1.223330e+01	-2.676420e-05
1.230396e+01	-2.707427e-05
1.237503e+01	-2.738793e-05
1.244651e+01	-2.770523e-05
1.251840e+01	-2.802620e-05
1.259070e+01	-2.835089e-05
1.266343e+01	-2.867934e-05
1.273657e+01	-2.901160e-05
1.281014e+01	-2.934770e-05
1.288413e+01	-2.968770e-05
1.295855e+01	-3.003164e-05
1.303339e+01	-3.037957e-05
1.310867e+01	-3.073152e-05
1.318439e+01	-3.108755e-05
1.326054e+01	-3.144771e-05
1.333713e+01	-3.181204e-05
1.341417e+01	-3.218059e-05
1.349165e+01	-3.255341e-05
1.356958e+01	-3.293055e-05
1.364795e+01	-3.331206e-05
1.372678e+01	-3.369799e-05
1.380607e+01	-3.408838e-05
1.388581e+01	-3.448331e-05
1.396602e+01	-3.488280e-05
1.404668e+01	-3.528693e-05
1.412782e+01	-3.569574e-05
1.420942e+01	-3.610928e-05
1.429149e+01	-3.652761e-05
1.437404e+01	-3.695079e-05
1.445706e+01	-3.737888e-05
1.454057e+01	-3.781192e-05
1.462455e+01	-3.824998e-05
1.470902e+01	-3.869312e-05
1.479398e+01	-3.914138e-05
1.487943e+01	-3.959485e-05
1.496537e+01	-4.005356e-05
1.505181e+01	-4.051759e-05
1.513875e+01	-4.098700e-05
1.522619e+01	-4.146184e-05
1.531414e+01	-4.194218e-05
1.540259e+01	-4.242809e-05
1.549156e+01	-4.291963e-05
1.558103e+01	-4.341687e-05
1.567103e+01	-4.391986e-05
1.576155e+01	-4.442868e-05
1.585258e+01	-4.494340e-05
1.594415e+01	-4.546408e-05
1.603624e+01	-4.599079e-05
1.612886e+01	-4.652360e-05
1.622202e+01	-4.706259e-05
1.631572e+01	-4.760782e-05
1.640996e+01	-4.815936e-05
1.650474e+01	-4.871730e-05
1.660008e+01	-4.928170e-05
1.669596e+01	-4.985264e-05
1.679239e+01	-5.043019e-05
1.688938e+01	-5.101444e-05
1.698694e+01	-5.160545e-05
1.708505e+01	-5.220331e-05
1.718373e+01	-5.280810e-05
1.728299e+01	-5.341989e-05
1.738281e+01	-5.403877e-05
1.748322e+01	-5.466482e-05
1.758420e+01	-5.529813e-05
1.768576e+01	-5.593877e-05
1.778792e+01	-5.658683e-05
1.789066e+01	-5.724240e-05
1.799399e+01	-5.790556e-05
1.809793e+01	-5.857641e-05
1.820246e+01	-5.925503e-05
1.830760e+01	-5.994151e-05
1.841334e+01	-6.063594e-05
1.851969e+01	-6.133842e-05
1.862666e+01	-6.204904e-05
1.873425e+01	-6.276789e-05
1.884246e+01	-6.349507e-05
1.895129e+01	-6.423067e-05
1.906075e+01	-6.497480e-05
1.917085e+01	-6.572754e-05
1.928158e+01	-6.648901e-05
1.939295e+01	-6.725930e-05
1.950496e+01	-6.803851e-05
1.961762e+01	-6.882675e-05
1.973093e+01	-6.962412e-05
1.984490e+01	-7.043073e-05
1.995952e+01	-7.124668e-05
2.007480e+01	-7.207209e-05
2.019076e+01	-7.290705e-05
2.030738e+01	-7.375170e-05
2.042467e+01	-7.460612e-05
2.054264e+01	-7.547045e-05
2.066130e+01	-7.634479e-05
2.078064e+01	-7.722925e-05
2.090066e+01	-7.812397e-05
2.102139e+01	-7.902905e-05
2.114280e+01	-7.994461e-05
2.126492e+01	-8.087079e-05
2.138775e+01	-8.180769e-05
2.151128e+01	-8.275544e-05
2.163553e+01	-8.371418e-05
2.176050e+01	-8.468402e-05
2.188619e+01	-8.566510e-05
2.201260e+01	-8.665754e-05
2.213974e+01	-8.766149e-05
2.226762e+01	-8.867706e-05
2.239624e+01	-8.970440e-05
2.252560e+01	-9.074364e-05
2.265571e+01	-9.179492e-05
2.278656e+01	-9.285837e-05
2.291818e+01	-9.393415e-05
2.305055e+01	-9.502239e-05
2.318369e+01	-9.612324e-05
2.331760e+01	-9.723684e-05
2.345228e+01	-9.836335e-05
2.358774e+01	-9.950290e-05
2.372398e+01	-1.006557e-04
2.386101e+01	-1.018218e-04
2.399883e+01	-1.030014e-04
2.413745e+01	-1.041947e-04
2.427686e+01	-1.054018e-04
2.441709e+01	-1.066229e-04
2.455812e+01	-1.078581e-04
2.469997e+01	-1.091077e-04
2.484263e+01	-1.103717e-04
2.498612e+01	-1.116504e-04
2.513044e+01	-1.129438e-04
2.527559e+01	-1.142523e-04
2.542158e+01	-1.155759e-04
2.556842e+01	-1.169149e-04
2.571610e+01	-1.182694e-04
2.586463e+01	-1.196395e-04
2.601403e+01	-1.210256e-04
2.616428e+01	-1.224277e-04
2.631541e+01	-1.238460e-04
2.646740e+01	-1.252808e-04
2.662028e+01	-1.267322e-04
2.677404e+01	-1.282004e-04
2.692868e+01	-1.296856e-04
2.708422e+01	-1.311880e-04
2.724066e+01	-1.327078e-04
2.739800e+01	-1.342453e-04
2.755625e+01	-1.358005e-04
2.771541e+01	-1.373738e-04
2.787550e+01	-1.389653e-04
2.803650e+01	-1.405752e-04
2.819844e+01	-1.422038e-04
2.836131e+01	-1.438512e-04
2.852513e+01	-1.455178e-04
2.868989e+01	-1.472036e-04
2.885560e+01	-1.489090e-04
2.902227e+01	-1.506341e-04
2.918990e+01	-1.523792e-04
2.935850e+01	-1.541445e-04
2.952807e+01	-1.559303e-04
2.969863e+01	-1.577367e-04
2.987016e+01	-1.595641e-04
3.004269e+01	-1.614127e-04
3.021622e+01	-1.632827e-04
3.039075e+01	-1.651743e-04
3.056628e+01	-1.670879e-04
3.074283e+01	-1.690236e-04
3.092040e+01	-1.709817e-04
3.109900e+01	-1.729626e-04
3.127862e+01	-1.749663e-04
3.145929e+01	-1.769933e-04
3.164099e+01	-1.790438e-04
3.182375e+01	-1.811180e-04
3.200756e+01	-1.832163e-04
3.219244e+01	-1.853389e-04
3.237838e+01	-1.874860e-04
3.256540e+01	-1.896581e-04
3.275349e+01	-1.918552e-04
3.294268e+01	-1.940779e-04
3.313295e+01	-1.963263e-04
3.332433e+01	-1.986007e-04
3.351681e+01	-2.009015e-04
3.371040e+01	-2.032290e-04
3.390511e+01	-2.055834e-04
3.410094e+01	-2.079651e-04
3.429791e+01	-2.103743e-04
3.449601e+01	-2.128115e-04
3.469526e+01	-2.152769e-04
3.489566e+01	-2.177709e-04
3.509721e+01	-2.202938e-04
3.529993e+01	-2.228459e-04
3.550382e+01	-2.254276e-04
3.570889e+01	-2.280391e-04
3.591515e+01	-2.306810e-04
3.612259e+01	-2.333534e-04
3.633123e+01	-2.360568e-04
3.654108e+01	-2.387915e-04
3.675214e+01	-2.415579e-04
3.696442e+01	-2.443563e-04
3.717792e+01	-2.471872e-04
3.739266e+01	-2.500508e-04
3.760864e+01	-2.529476e-04
3.782587e+01	-2.558780e-04
3.804435e+01	-2.588424e-04
3.826409e+01	-2.618410e-04
3.848510e+01	-2.648744e-04
3.870739e+01	-2.679430e-04
3.893096e+01	-2.710471e-04
3.915583e+01	-2.741871e-04
3.938199e+01	-2.773636e-04
3.960946e+01	-2.805768e-04
3.983824e+01	-2.838273e-04
4.006834e+01	-2.871154e-04
4.029978e+01	-2.904416e-04
4.053255e+01	-2.938063e-04
4.076666e+01	-2.972100e-04
4.100213e+01	-3.006531e-04
4.123896e+01	-3.041362e-04
4.147715e+01	-3.076596e-04
4.171672e+01	-3.112237e-04
4.195767e+01	-3.148292e-04
4.220002e+01	-3.184765e-04
4.244377e+01	-3.221660e-04
4.268892e+01	-3.258982e-04
4.293549e+01	-3.296737e-04
4.318348e+01	-3.334929e-04
4.343291e+01	-3.373564e-04
4.368377e+01	-3.412646e-04
4.393609e+01	-3.452181e-04
4.418986e+01	-3.492174e-04
4.444510e+01	-3.532630e-04
4.470182e+01	-3.573555e-04
4.496001e+01	-3.614954e-04
4.521970e+01	-3.656832e-04
4.548089e+01	-3.699196e-04
4.574358e+01	-3.742050e-04
4.600779e+01	-3.785401e-04
4.627353e+01	-3.829254e-04
4.654081e+01	-3.873615e-04
4.680963e+01	-3.918490e-04
4.708000e+01	-3.963884e-04
4.735193e+01	-4.009805e-04
4.762543e+01	-4.056257e-04
4.790051e+01	-4.103248e-04
4.817719e+01	-4.150783e-04
4.845545e+01	-4.198869e-04
4.873533e+01	-4.247511e-04
4.901682e+01	-4.296718e-04
4.929994e+01	-4.346494e-04
4.958470e+01	-4.396847e-04
4.987110e+01	-4.447783e-04
5.015915e+01	-4.499309e-04
5.044887e+01	-4.551432e-04
5.074026e+01	-4.604159e-04
5.103333e+01	-4.657496e-04
5.132810e+01	-4.711452e-04
5.162457e+01	-4.766032e-04
5.192275e+01	-4.821245e-04
5.222265e+01	-4.877097e-04
5.252429e+01	-4.933596e-04
5.282767e+01	-4.990750e-04
5.313280e+01	-5.048566e-04
5.343969e+01	-5.107052e-04
5.374836e+01	-5.166215e-04
5.405880e+01	-5.226063e-04
5.437105e+01	-5.286605e-04
5.468509e+01	-5.347848e-04
5.500095e+01	-5.409800e-04
5.531863e+01	-5.472470e-04
5.563815e+01	-5.535866e-04
5.595951e+01	-5.599997e-04
5.628273e+01	-5.664870e-04
5.660782e+01	-5.730495e-04
5.693479e+01	-5.796880e-04
5.726364e+01	-5.864034e-04
5.759439e+01	-5.931966e-04
5.792705e+01	-6.000684e-04
5.826164e+01	-6.070199e-04
5.859815e+01	-6.140519e-04
5.893662e+01	-6.211653e-04
5.927703e+01	-6.283612e-04
5.961941e+01	-6.356404e-04
5.996377e+01	-6.430039e-04
6.031012e+01	-6.504527e-04
6.065847e+01	-6.579879e-04
6.100883e+01	-6.656102e-04
6.136121e+01	-6.733209e-04
6.171563e+01	-6.811209e-04
6.207210e+01	-6.890113e-04
6.243063e+01	-6.969930e-04
6.279122e+01	-7.050672e-04
6.315390e+01	-7.132349e-04
6.351868e+01	-7.214973e-04
6.388556e+01	-7.298553e-04
6.425456e+01	-7.383102e-04
6.462569e+01	-7.468630e-04
6.499897e+01	-7.555148e-04
6.537440e+01	-7.642669e-04
6.575200e+01	-7.731204e-04
6.613178e+01	-7.820764e-04
6.651375e+01	-7.911361e-04
6.689793e+01	-8.003008e-04
6.728433e+01	-8.095716e-04
6.767297e+01	-8.189499e-04
6.806384e+01	-8.284367e-04
6.845698e+01	-8.380334e-04
6.885238e+01	-8.477413e-04
6.925007e+01	-8.575617e-04
6.965005e+01	-8.674958e-04
7.005235e+01	-8.775449e-04
7.045697e+01	-8.877105e-04
7.086393e+01	-8.979938e-04
7.127323e+01	-9.083962e-04
7.168490e+01	-9.189191e-04
7.209895e+01	-9.295639e-04
7.251539e+01	-9.403320e-04
7.293424e+01	-9.512248e-04
7.335551e+01	-9.622438e-04
7.377920e+01	-9.733904e-04
7.420535e+01	-9.846661e-04
7.463396e+01	-9.960724e-04
7.506504e+01	-1.007611e-03
7.549861e+01	-1.019283e-03
7.593469e+01	-1.031090e-03
7.637328e+01	-1.043034e-03
7.681441e+01	-1.055117e-03
7.725809e+01	-1.067339e-03
7.770433e+01	-1.079703e-03
7.815315e+01	-1.092210e-03
7.860456e+01	-1.104862e-03
7.905857e+01	-1.117660e-03
7.951521e+01	-1.130607e-03
7.997449e+01	-1.143704e-03
8.043642e+01	-1.156952e-03
8.090102e+01	-1.170354e-03
8.136830e+01	-1.183911e-03
8.183828e+01	-1.197625e-03
8.231097e+01	-1.211498e-03
8.278640e+01	-1.225531e-03
8.326457e+01	-1.239727e-03
8.374550e+01	-1.254088e-03
8.422921e+01	-1.268615e-03
8.471572e+01	-1.283310e-03
8.520503e+01	-1.298175e-03
8.569717e+01	-1.313213e-03
8.619215e+01	-1.328424e-03
8.669000e+01	-1.343812e-03
8.719071e+01	-1.359378e-03
8.769432e+01	-1.375124e-03
8.820084e+01	-1.391053e-03
8.871029e+01	-1.407166e-03
8.922267e+01	-1.423466e-03
8.973802e+01	-1.439954e-03
9.025634e+01	-1.456634e-03
9.077766e+01	-1.473506e-03
9.130199e+01	-1.490574e-03
9.182935e+01	-1.507840e-03
9.235975e+01	-1.525306e-03
9.289321e+01	-1.542974e-03
9.342976e+01	-1.560846e-03
9.396941e+01	-1.578926e-03
9.451217e+01	-1.597215e-03
9.505807e+01	-1.615715e-03
9.560712e+01	-1.634430e-03
9.615934e+01	-1.653362e-03
9.671476e+01	-1.672513e-03
9.727338e+01	-1.691886e-03
9.783522e+01	-1.711483e-03
9.840032e+01	-1.731307e-03
9.896867e+01	-1.751360e-03
9.954031e+01	-1.771646e-03
1.001153e+02	-1.792167e-03
1.006935e+02	-1.812925e-03
1.012751e+02	-1.833924e-03
1.018601e+02	-1.855166e-03
1.024484e+02	-1.876654e-03
1.030402e+02	-1.898391e-03
1.036353e+02	-1.920379e-03
1.042339e+02	-1.942622e-03
1.048360e+02	-1.965123e-03
1.054415e+02	-1.987884e-03
1.060505e+02	-2.010909e-03
1.066631e+02	-2.034201e-03
1.072791e+02	-2.057762e-03
1.078988e+02	-2.081596e-03
1.085220e+02	-2.105706e-03
1.091488e+02	-2.130095e-03
1.097793e+02	-2.154767e-03
1.104133e+02	-2.179724e-03
1.110511e+02	-2.204970e-03
1.116925e+02	-2.230509e-03
1.123376e+02	-2.256343e-03
1.129865e+02	-2.282477e-03
1.136391e+02	-2.308913e-03
1.142955e+02	-2.335655e-03
1.149556e+02	-2.362707e-03
1.156196e+02	-2.390072e-03
1.162874e+02	-2.417754e-03
1.169591e+02	-2.445756e-03
1.176347e+02	-2.474083e-03
1.183141e+02	-2.502737e-03
1.189975e+02	-2.531724e-03
1.196848e+02	-2.561046e-03
1.203761e+02	-2.590707e-03
1.210714e+02	-2.620712e-03
1.217707e+02	-2.651065e-03
1.224740e+02	-2.681768e-03
1.231814e+02	-2.712828e-03
1.238929e+02	-2.744247e-03
1.246085e+02	-2.776029e-03
1.253283e+02	-2.808180e-03
1.260522e+02	-2.840703e-03
1.267802e+02	-2.873602e-03
1.275125e+02	-2.906882e-03
1.282490e+02	-2.940548e-03
1.289898e+02	-2.974603e-03
1.297348e+02	-3.009053e-03
1.304842e+02	-3.043901e-03
1.312378e+02	-3.079153e-03
1.319959e+02	-3.114813e-03
1.327583e+02	-3.150886e-03
1.335251e+02	-3.187377e-03
1.342963e+02	-3.224289e-03
1.350720e+02	-3.261630e-03
1.358522e+02	-3.299402e-03
1.366368e+02	-3.337612e-03
1.374260e+02	-3.376264e-03
1.382198e+02	-3.415363e-03
1.390182e+02	-3.454916e-03
1.398211e+02	-3.494926e-03
1.406287e+02	-3.535399e-03
1.414410e+02	-3.576340e-03
1.422579e+02	-3.617756e-03
1.430796e+02	-3.659651e-03
1.439060e+02	-3.702031e-03
1.447372e+02	-3.744901e-03
1.455732e+02	-3.788268e-03
1.464141e+02	-3.832137e-03
1.472597e+02	-3.876513e-03
1.481103e+02	-3.921403e-03
1.489658e+02	-3.966813e-03
1.498262e+02	-4.012748e-03
1.506916e+02	-4.059215e-03
1.515620e+02	-4.106220e-03
1.524374e+02	-4.153769e-03
1.533179e+02	-4.201868e-03
1.542034e+02	-4.250524e-03
1.550941e+02	-4.299743e-03
1.559899e+02	-4.349532e-03
1.568909e+02	-4.399896e-03
1.577971e+02	-4.450844e-03
1.587085e+02	-4.502382e-03
1.596252e+02	-4.554515e-03
1.605472e+02	-4.607253e-03
1.614745e+02	-4.660600e-03
1.624072e+02	-4.714565e-03
1.633453e+02	-4.769155e-03
1.642887e+02	-4.824376e-03
1.652377e+02	-4.880236e-03
1.661921e+02	-4.936742e-03
1.671520e+02	-4.993903e-03
1.681175e+02	-5.051725e-03
1.690885e+02	-5.110216e-03
1.700651e+02	-5.169384e-03
1.710474e+02	-5.229236e-03
1.720354e+02	-5.289781e-03
1.730291e+02	-5.351027e-03
1.740285e+02	-5.412981e-03
1.750337e+02	-5.475653e-03
1.760446e+02	-5.539049e-03
1.770615e+02	-5.603179e-03
1.780842e+02	-5.668051e-03
1.791128e+02	-5.733673e-03
1.801473e+02	-5.800055e-03
1.811878e+02	-5.867204e-03
1.822344e+02	-5.935131e-03
1.832870e+02	-6.003843e-03
1.843456e+02	-6.073350e-03
1.854104e+02	-6.143662e-03
1.864813e+02	-6.214787e-03
1.875584e+02	-6.286734e-03
1.886418e+02	-6.359514e-03
1.897313e+02	-6.433136e-03
1.908272e+02	-6.507610e-03
1.919294e+02	-6.582945e-03
1.930380e+02	-6.659152e-03
1.941530e+02	-6.736240e-03
1.952744e+02	-6.814219e-03
1.964023e+02	-6.893101e-03
1.975367e+02	-6.972895e-03
1.986777e+02	-7.053612e-03
1.998252e+02	-7.135263e-03
2.009794e+02	-7.217858e-03
2.021403e+02	-7.301408e-03
2.033078e+02	-7.385924e-03
2.044821e+02	-7.471419e-03
2.056632e+02	-7.557901e-03
2.068511e+02	-7.645384e-03
2.080459e+02	-7.733879e-03
2.092475e+02	-7.823397e-03
2.104561e+02	-7.913950e-03
2.116717e+02	-8.005551e-03
2.128943e+02	-8.098210e-03
2.141240e+02	-8.191942e-03
2.153608e+02	-8.286756e-03
2.166047e+02	-8.382668e-03
2.178558e+02	-8.479688e-03
2.191141e+02	-8.577830e-03
2.203797e+02	-8.677107e-03
2.216526e+02	-8.777532e-03
2.229329e+02	-8.879117e-03
2.242205e+02	-8.981878e-03
2.255156e+02	-9.085826e-03
2.268182e+02	-9.190976e-03
2.281283e+02	-9.297341e-03
2.294459e+02	-9.404936e-03
2.307712e+02	-9.513775e-03
2.321041e+02	-9.623872e-03
2.334447e+02	-9.735242e-03
2.347931e+02	-9.847899e-03
2.361493e+02	-9.961858e-03
2.375133e+02	-1.007713e-02
2.388851e+02	-1.019374e-02
2.402649e+02	-1.031170e-02
2.416527e+02	-1.043102e-02
2.430484e+02	-1.055172e-02
2.444523e+02	-1.067381e-02
2.458642e+02	-1.079732e-02
2.472843e+02	-1.092225e-02
2.487126e+02	-1.104862e-02
2.501492e+02	-1.117646e-02
2.515940e+02	-1.130577e-02
2.530472e+02	-1.143658e-02
2.545088e+02	-1.156890e-02
2.559789e+02	-1.170275e-02
2.574574e+02	-1.183814e-02
2.589444e+02	-1.197510e-02
2.604401e+02	-1.211364e-02
2.619444e+02	-1.225378e-02
2.634574e+02	-1.239554e-02
2.649791e+02	-1.253894e-02
2.665096e+02	-1.268399e-02
2.680489e+02	-1.283072e-02
2.695972e+02	-1.297915e-02
2.711544e+02	-1.312929e-02
2.727205e+02	-1.328116e-02
2.742958e+02	-1.343478e-02
2.758801e+02	-1.359019e-02
2.774736e+02	-1.374738e-02
2.790762e+02	-1.390639e-02
2.806882e+02	-1.406724e-02
2.823094e+02	-1.422995e-02
2.839400e+02	-1.439453e-02
2.855800e+02	-1.456101e-02
2.872295e+02	-1.472942e-02
2.888886e+02	-1.489977e-02
2.905572e+02	-1.507209e-02
2.922354e+02	-1.524639e-02
2.939234e+02	-1.542271e-02
2.956211e+02	-1.560107e-02
2.973286e+02	-1.578148e-02
2.990459e+02	-1.596397e-02
3.007732e+02	-1.614858e-02
3.025104e+02	-1.633531e-02
3.042577e+02	-1.652420e-02
3.060151e+02	-1.671526e-02
3.077826e+02	-1.690854e-02
3.095604e+02	-1.710404e-02
3.113484e+02	-1.730180e-02
3.131467e+02	-1.750184e-02
3.149554e+02	-1.770419e-02
3.167746e+02	-1.790887e-02
3.186043e+02	-1.811592e-02
3.204445e+02	-1.832535e-02
3.222954e+02	-1.853720e-02
3.241570e+02	-1.875149e-02
3.260293e+02	-1.896826e-02
3.279124e+02	-1.918752e-02
3.298064e+02	-1.940932e-02
3.317114e+02	-1.963367e-02
3.336273e+02	-1.986061e-02
3.355544e+02	-2.009016e-02
3.374925e+02	-2.032237e-02
3.394418e+02	-2.055725e-02
3.414024e+02	-2.079484e-02
3.433744e+02	-2.103517e-02
3.453577e+02	-2.127826e-02
3.473525e+02	-2.152417e-02
3.493588e+02	-2.177290e-02
3.513766e+02	-2.202451e-02
3.534062e+02	-2.227901e-02
3.554474e+02	-2.253644e-02
3.575005e+02	-2.279685e-02
3.595654e+02	-2.306025e-02
3.616422e+02	-2.332669e-02
3.637311e+02	-2.359620e-02
3.658320e+02	-2.386882e-02
3.679450e+02	-2.414457e-02
3.700702e+02	-2.442350e-02
3.722077e+02	-2.470565e-02
3.743576e+02	-2.499104e-02
3.765199e+02	-2.527973e-02
3.786946e+02	-2.557173e-02
3.808820e+02	-2.586710e-02
3.830819e+02	-2.616588e-02
3.852946e+02	-2.646809e-02
3.875200e+02	-2.677378e-02
3.897583e+02	-2.708299e-02
3.920096e+02	-2.739576e-02
3.942738e+02	-2.771213e-02
3.965511e+02	-2.803215e-02
3.988416e+02	-2.835584e-02
4.011452e+02	-2.868327e-02
4.034622e+02	-2.901446e-02
4.057926e+02	-2.934946e-02
4.081365e+02	-2.968831e-02
4.104938e+02	-3.003107e-02
4.128648e+02	-3.037777e-02
4.152495e+02	-3.072845e-02
4.176480e+02	-3.108317e-02
4.200603e+02	-3.144197e-02
4.224866e+02	-3.180490e-02
4.249268e+02	-3.217200e-02
4.273812e+02	-3.254332e-02
4.298497e+02	-3.291891e-02
4.323325e+02	-3.329882e-02
4.348297e+02	-3.368309e-02
4.373412e+02	-3.407179e-02
4.398673e+02	-3.446495e-02
4.424079e+02	-3.486263e-02
4.449633e+02	-3.526487e-02
4.475334e+02	-3.567175e-02
4.501183e+02	-3.608329e-02
4.527182e+02	-3.649957e-02
4.553330e+02	-3.692062e-02
4.579630e+02	-3.734651e-02
4.606082e+02	-3.777730e-02
4.632687e+02	-3.821303e-02
4.659445e+02	-3.865376e-02
4.686358e+02	-3.909955e-02
4.713426e+02	-3.955047e-02
4.740650e+02	-4.000655e-02
4.768032e+02	-4.046788e-02
4.795572e+02	-4.093449e-02
4.823271e+02	-4.140646e-02
4.851130e+02	-4.188385e-02
4.879150e+02	-4.236672e-02
4.907332e+02	-4.285512e-02
4.935676e+02	-4.334912e-02
4.964185e+02	-4.384880e-02
4.992858e+02	-4.435420e-02
5.021696e+02	-4.486539e-02
5.050701e+02	-4.538245e-02
5.079874e+02	-4.590543e-02
5.109215e+02	-4.643441e-02
5.138726e+02	-4.696946e-02
5.168407e+02	-4.751063e-02
5.198259e+02	-4.805800e-02
5.228284e+02	-4.861164e-02
5.258482e+02	-4.917163e-02
5.288855e+02	-4.973803e-02
5.319403e+02	-5.031092e-02
5.350128e+02	-5.089036e-02
5.381030e+02	-5.147644e-02
5.412111e+02	-5.206923e-02
5.443371e+02	-5.266880e-02
5.474812e+02	-5.327524e-02
5.506434e+02	-5.388861e-02
5.538239e+02	-5.450901e-02
5.570228e+02	-5.513649e-02
5.602401e+02	-5.577116e-02
5.634760e+02	-5.641308e-02
5.667306e+02	-5.706235e-02
5.700040e+02	-5.771903e-02
5.732964e+02	-5.838322e-02
5.766077e+02	-5.905501e-02
5.799382e+02	-5.973447e-02
5.832879e+02	-6.042169e-02
5.866569e+02	-6.111676e-02
5.900454e+02	-6.181977e-02
5.934535e+02	-6.253081e-02
5.968813e+02	-6.324997e-02
6.003288e+02	-6.397734e-02
6.037963e+02	-6.471301e-02
6.072838e+02	-6.545708e-02
6.107914e+02	-6.620963e-02
6.143194e+02	-6.697077e-02
6.178676e+02	-6.774060e-02
6.214364e+02	-6.851920e-02
6.250258e+02	-6.930668e-02
6.286359e+02	-7.010313e-02
6.322669e+02	-7.090867e-02
6.359189e+02	-7.172338e-02
6.395919e+02	-7.254738e-02
6.432862e+02	-7.338076e-02
6.470017e+02	-7.422363e-02
6.507388e+02	-7.507610e-02
6.544974e+02	-7.593828e-02
6.582778e+02	-7.681027e-02
6.620800e+02	-7.769218e-02
6.659041e+02	-7.858413e-02
6.697504e+02	-7.948622e-02
6.736188e+02	-8.039857e-02
6.775096e+02	-8.132130e-02
6.814229e+02	-8.225451e-02
6.853587e+02	-8.319834e-02
6.893173e+02	-8.415288e-02
6.932988e+02	-8.511827e-02
6.973033e+02	-8.609463e-02
7.013309e+02	-8.708207e-02
