Frequency(Hz)	Magnitude(dB)
1.000000e+01	-1.910240e-05
1.005776e+01	-1.932370e-05
1.011585e+01	-1.954757e-05
1.017428e+01	-1.977404e-05
1.023305e+01	-2.000313e-05
1.029215e+01	-2.023487e-05
1.035160e+01	-2.046929e-05
1.041139e+01	-2.070643e-05
1.047153e+01	-2.094632e-05
1.053201e+01	-2.118899e-05
1.059284e+01	-2.143447e-05
1.065403e+01	-2.168280e-05
1.071556e+01	-2.193400e-05
1.077746e+01	-2.218811e-05
1.083971e+01	-2.244516e-05
1.090232e+01	-2.270519e-05
1.096529e+01	-2.296824e-05
1.102862e+01	-2.323433e-05
1.109232e+01	-2.350351e-05
1.115639e+01	-2.377580e-05
1.122083e+01	-2.405125e-05
1.128564e+01	-2.432989e-05
1.135083e+01	-2.461176e-05
1.141639e+01	-2.489689e-05
1.148233e+01	-2.518533e-05
1.154865e+01	-2.547711e-05
1.161536e+01	-2.577227e-05
1.168245e+01	-2.607084e-05
1.174992e+01	-2.637288e-05
1.181779e+01	-2.667842e-05
1.188605e+01	-2.698749e-05
1.195470e+01	-2.730015e-05
1.202375e+01	-2.761643e-05
1.209320e+01	-2.793637e-05
1.216305e+01	-2.826002e-05
1.223330e+01	-2.858742e-05
1.230396e+01	-2.891861e-05
1.237503e+01	-2.925364e-05
1.244651e+01	-2.959255e-05
1.251840e+01	-2.993539e-05
1.259070e+01	-3.028220e-05
1.266343e+01	-3.063302e-05
1.273657e+01	-3.098791e-05
1.281014e+01	-3.134692e-05
1.288413e+01	-3.171008e-05
1.295855e+01	-3.207745e-05
1.303339e+01	-3.244907e-05
1.310867e+01	-3.282500e-05
1.318439e+01	-3.320529e-05
1.326054e+01	-3.358998e-05
1.333713e+01	-3.397913e-05
1.341417e+01	-3.437278e-05
1.349165e+01	-3.477100e-05
1.356958e+01	-3.517383e-05
1.364795e+01	-3.558133e-05
1.372678e+01	-3.599354e-05
1.380607e+01	-3.641054e-05
1.388581e+01	-3.683236e-05
1.396602e+01	-3.725907e-05
1.404668e+01	-3.769073e-05
1.412782e+01	-3.812738e-05
1.420942e+01	-3.856910e-05
1.429149e+01	-3.901593e-05
1.437404e+01	-3.946794e-05
1.445706e+01	-3.992518e-05
1.454057e+01	-4.038773e-05
1.462455e+01	-4.085563e-05
1.470902e+01	-4.132895e-05
1.479398e+01	-4.180775e-05
1.487943e+01	-4.229211e-05
1.496537e+01	-4.278207e-05
1.505181e+01	-4.327771e-05
1.513875e+01	-4.377909e-05
1.522619e+01	-4.428628e-05
1.531414e+01	-4.479935e-05
1.540259e+01	-4.531836e-05
1.549156e+01	-4.584338e-05
1.558103e+01	-4.637449e-05
1.567103e+01	-4.691175e-05
1.576155e+01	-4.745523e-05
1.585258e+01	-4.800501e-05
1.594415e+01	-4.856116e-05
1.603624e+01	-4.912375e-05
1.612886e+01	-4.969286e-05
1.622202e+01	-5.026856e-05
1.631572e+01	-5.085093e-05
1.640996e+01	-5.144005e-05
1.650474e+01	-5.203599e-05
1.660008e+01	-5.263884e-05
1.669596e+01	-5.324867e-05
1.679239e+01	-5.386557e-05
1.688938e+01	-5.448961e-05
1.698694e+01	-5.512089e-05
1.708505e+01	-5.575947e-05
1.718373e+01	-5.640546e-05
1.728299e+01	-5.705893e-05
1.738281e+01	-5.771997e-05
1.748322e+01	-5.838866e-05
1.758420e+01	-5.906511e-05
1.768576e+01	-5.974939e-05
1.778792e+01	-6.044160e-05
1.789066e+01	-6.114183e-05
1.799399e+01	-6.185017e-05
1.809793e+01	-6.256671e-05
1.820246e+01	-6.329156e-05
1.830760e+01	-6.402481e-05
1.841334e+01	-6.476655e-05
1.851969e+01	-6.551688e-05
1.862666e+01	-6.627590e-05
1.873425e+01	-6.704372e-05
1.884246e+01	-6.782044e-05
1.895129e+01	-6.860615e-05
1.906075e+01	-6.940096e-05
1.917085e+01	-7.020499e-05
1.928158e+01	-7.101833e-05
1.939295e+01	-7.184109e-05
1.950496e+01	-7.267338e-05
1.961762e+01	-7.351531e-05
1.973093e+01	-7.436700e-05
1.984490e+01	-7.522856e-05
1.995952e+01	-7.610009e-05
2.007480e+01	-7.698173e-05
2.019076e+01	-7.787357e-05
2.030738e+01	-7.877575e-05
2.042467e+01	-7.968838e-05
2.054264e+01	-8.061159e-05
2.066130e+01	-8.154548e-05
2.078064e+01	-8.249020e-05
2.090066e+01	-8.344587e-05
2.102139e+01	-8.441260e-05
2.114280e+01	-8.539053e-05
2.126492e+01	-8.637980e-05
2.138775e+01	-8.738052e-05
2.151128e+01	-8.839284e-05
2.163553e+01	-8.941688e-05
2.176050e+01	-9.045279e-05
2.188619e+01	-9.150070e-05
2.201260e+01	-9.256075e-05
2.213974e+01	-9.363308e-05
2.226762e+01	-9.471784e-05
2.239624e+01	-9.581516e-05
2.252560e+01	-9.692519e-05
2.265571e+01	-9.804808e-05
2.278656e+01	-9.918398e-05
2.291818e+01	-1.003330e-04
2.305055e+01	-1.014954e-04
2.318369e+01	-1.026713e-04
2.331760e+01	-1.038607e-04
2.345228e+01	-1.050640e-04
2.358774e+01	-1.062811e-04
2.372398e+01	-1.075124e-04
2.386101e+01	-1.087580e-04
2.399883e+01	-1.100179e-04
2.413745e+01	-1.112925e-04
2.427686e+01	-1.125819e-04
2.441709e+01	-1.138861e-04
2.455812e+01	-1.152055e-04
2.469997e+01	-1.165402e-04
2.484263e+01	-1.178903e-04
2.498612e+01	-1.192561e-04
2.513044e+01	-1.206377e-04
2.527559e+01	-1.220353e-04
2.542158e+01	-1.234491e-04
2.556842e+01	-1.248793e-04
2.571610e+01	-1.263260e-04
2.586463e+01	-1.277895e-04
2.601403e+01	-1.292699e-04
2.616428e+01	-1.307676e-04
2.631541e+01	-1.322825e-04
2.646740e+01	-1.338150e-04
2.662028e+01	-1.353653e-04
2.677404e+01	-1.369335e-04
2.692868e+01	-1.385199e-04
2.708422e+01	-1.401246e-04
2.724066e+01	-1.417480e-04
2.739800e+01	-1.433902e-04
2.755625e+01	-1.450514e-04
2.771541e+01	-1.467318e-04
2.787550e+01	-1.484317e-04
2.803650e+01	-1.501513e-04
2.819844e+01	-1.518908e-04
2.836131e+01	-1.536505e-04
2.852513e+01	-1.554305e-04
2.868989e+01	-1.572312e-04
2.885560e+01	-1.590527e-04
2.902227e+01	-1.608954e-04
2.918990e+01	-1.627593e-04
2.935850e+01	-1.646449e-04
2.952807e+01	-1.665523e-04
2.969863e+01	-1.684819e-04
2.987016e+01	-1.704337e-04
3.004269e+01	-1.724082e-04
3.021622e+01	-1.744056e-04
3.039075e+01	-1.764261e-04
3.056628e+01	-1.784700e-04
3.074283e+01	-1.805375e-04
3.092040e+01	-1.826291e-04
3.109900e+01	-1.847448e-04
3.127862e+01	-1.868851e-04
3.145929e+01	-1.890502e-04
3.164099e+01	-1.912403e-04
3.182375e+01	-1.934559e-04
3.200756e+01	-1.956970e-04
3.219244e+01	-1.979642e-04
3.237838e+01	-2.002576e-04
3.256540e+01	-2.025776e-04
3.275349e+01	-2.049245e-04
3.294268e+01	-2.072985e-04
3.313295e+01	-2.097001e-04
3.332433e+01	-2.121294e-04
3.351681e+01	-2.145870e-04
3.371040e+01	-2.170730e-04
3.390511e+01	-2.195877e-04
3.410094e+01	-2.221317e-04
3.429791e+01	-2.247050e-04
3.449601e+01	-2.273083e-04
3.469526e+01	-2.299416e-04
3.489566e+01	-2.326055e-04
3.509721e+01	-2.353002e-04
3.529993e+01	-2.380261e-04
3.550382e+01	-2.407837e-04
3.570889e+01	-2.435731e-04
3.591515e+01	-2.463949e-04
3.612259e+01	-2.492494e-04
3.633123e+01	-2.521369e-04
3.654108e+01	-2.550579e-04
3.675214e+01	-2.580128e-04
3.696442e+01	-2.610018e-04
3.717792e+01	-2.640255e-04
3.739266e+01	-2.670842e-04
3.760864e+01	-2.701784e-04
3.782587e+01	-2.733084e-04
3.804435e+01	-2.764746e-04
3.826409e+01	-2.796775e-04
3.848510e+01	-2.829176e-04
3.870739e+01	-2.861951e-04
3.893096e+01	-2.895107e-04
3.915583e+01	-2.928646e-04
3.938199e+01	-2.962574e-04
3.960946e+01	-2.996895e-04
3.983824e+01	-3.031614e-04
4.006834e+01	-3.066735e-04
4.029978e+01	-3.102263e-04
4.053255e+01	-3.138202e-04
4.076666e+01	-3.174558e-04
4.100213e+01	-3.211334e-04
4.123896e+01	-3.248537e-04
4.147715e+01	-3.286171e-04
4.171672e+01	-3.324241e-04
4.195767e+01	-3.362751e-04
4.220002e+01	-3.401708e-04
4.244377e+01	-3.441116e-04
4.268892e+01	-3.480981e-04
4.293549e+01	-3.521308e-04
4.318348e+01	-3.562101e-04
4.343291e+01	-3.603368e-04
4.368377e+01	-3.645112e-04
4.393609e+01	-3.687340e-04
4.418986e+01	-3.730057e-04
4.444510e+01	-3.773269e-04
4.470182e+01	-3.816981e-04
4.496001e+01	-3.861200e-04
4.521970e+01	-3.905931e-04
4.548089e+01	-3.951180e-04
4.574358e+01	-3.996954e-04
4.600779e+01	-4.043257e-04
4.627353e+01	-4.090097e-04
4.654081e+01	-4.137480e-04
4.680963e+01	-4.185411e-04
4.708000e+01	-4.233898e-04
4.735193e+01	-4.282947e-04
4.762543e+01	-4.332563e-04
4.790051e+01	-4.382755e-04
4.817719e+01	-4.433528e-04
4.845545e+01	-4.484889e-04
4.873533e+01	-4.536845e-04
4.901682e+01	-4.589402e-04
4.929994e+01	-4.642569e-04
4.958470e+01	-4.696352e-04
4.987110e+01	-4.750757e-04
5.015915e+01	-4.805793e-04
5.044887e+01	-4.861466e-04
5.074026e+01	-4.917784e-04
5.103333e+01	-4.974755e-04
5.132810e+01	-5.032386e-04
5.162457e+01	-5.090684e-04
5.192275e+01	-5.149657e-04
5.222265e+01	-5.209314e-04
5.252429e+01	-5.269662e-04
5.282767e+01	-5.330708e-04
5.313280e+01	-5.392462e-04
5.343969e+01	-5.454932e-04
5.374836e+01	-5.518124e-04
5.405880e+01	-5.582049e-04
5.437105e+01	-5.646715e-04
5.468509e+01	-5.712129e-04
5.500095e+01	-5.778301e-04
5.531863e+01	-5.845240e-04
5.563815e+01	-5.912954e-04
5.595951e+01	-5.981453e-04
5.628273e+01	-6.050745e-04
5.660782e+01	-6.120839e-04
5.693479e+01	-6.191746e-04
5.726364e+01	-6.263474e-04
5.759439e+01	-6.336032e-04
5.792705e+01	-6.409432e-04
5.826164e+01	-6.483681e-04
5.859815e+01	-6.558791e-04
5.893662e+01	-6.634770e-04
5.927703e+01	-6.711630e-04
5.961941e+01	-6.789380e-04
5.996377e+01	-6.868031e-04
6.031012e+01	-6.947592e-04
6.065847e+01	-7.028076e-04
6.100883e+01	-7.109491e-04
6.136121e+01	-7.191850e-04
6.171563e+01	-7.275162e-04
6.207210e+01	-7.359440e-04
6.243063e+01	-7.444694e-04
6.279122e+01	-7.530935e-04
6.315390e+01	-7.618175e-04
6.351868e+01	-7.706426e-04
6.388556e+01	-7.795699e-04
6.425456e+01	-7.886006e-04
6.462569e+01	-7.977359e-04
6.499897e+01	-8.069771e-04
6.537440e+01	-8.163253e-04
6.575200e+01	-8.257817e-04
6.613178e+01	-8.353477e-04
6.651375e+01	-8.450245e-04
6.689793e+01	-8.548134e-04
6.728433e+01	-8.647156e-04
6.767297e+01	-8.747326e-04
6.806384e+01	-8.848656e-04
6.845698e+01	-8.951159e-04
6.885238e+01	-9.054850e-04
6.925007e+01	-9.159742e-04
6.965005e+01	-9.265849e-04
7.005235e+01	-9.373184e-04
7.045697e+01	-9.481764e-04
7.086393e+01	-9.591600e-04
7.127323e+01	-9.702709e-04
7.168490e+01	-9.815105e-04
7.209895e+01	-9.928803e-04
7.251539e+01	-1.004382e-03
7.293424e+01	-1.016016e-03
7.335551e+01	-1.027786e-03
7.377920e+01	-1.039692e-03
7.420535e+01	-1.051735e-03
7.463396e+01	-1.063918e-03
7.506504e+01	-1.076243e-03
7.549861e+01	-1.088710e-03
7.593469e+01	-1.101321e-03
7.637328e+01	-1.114079e-03
7.681441e+01	-1.126984e-03
7.725809e+01	-1.140038e-03
7.770433e+01	-1.153244e-03
7.815315e+01	-1.166603e-03
7.860456e+01	-1.180117e-03
7.905857e+01	-1.193787e-03
7.951521e+01	-1.207615e-03
7.997449e+01	-1.221604e-03
8.043642e+01	-1.235754e-03
8.090102e+01	-1.250069e-03
8.136830e+01	-1.264549e-03
8.183828e+01	-1.279197e-03
8.231097e+01	-1.294015e-03
8.278640e+01	-1.309004e-03
8.326457e+01	-1.324167e-03
8.374550e+01	-1.339505e-03
8.422921e+01	-1.355022e-03
8.471572e+01	-1.370717e-03
8.520503e+01	-1.386595e-03
8.569717e+01	-1.402656e-03
8.619215e+01	-1.418904e-03
8.669000e+01	-1.435340e-03
8.719071e+01	-1.451966e-03
8.769432e+01	-1.468784e-03
8.820084e+01	-1.485798e-03
8.871029e+01	-1.503008e-03
8.922267e+01	-1.520418e-03
8.973802e+01	-1.538029e-03
9.025634e+01	-1.555844e-03
9.077766e+01	-1.573866e-03
9.130199e+01	-1.592096e-03
9.182935e+01	-1.610538e-03
9.235975e+01	-1.629193e-03
9.289321e+01	-1.648064e-03
9.342976e+01	-1.667153e-03
9.396941e+01	-1.686464e-03
9.451217e+01	-1.705998e-03
9.505807e+01	-1.725759e-03
9.560712e+01	-1.745748e-03
9.615934e+01	-1.765969e-03
9.671476e+01	-1.786424e-03
9.727338e+01	-1.807116e-03
9.783522e+01	-1.828047e-03
9.840032e+01	-1.849221e-03
9.896867e+01	-1.870640e-03
9.954031e+01	-1.892308e-03
1.001153e+02	-1.914226e-03
1.006935e+02	-1.936398e-03
1.012751e+02	-1.958826e-03
1.018601e+02	-1.981514e-03
1.024484e+02	-2.004466e-03
1.030402e+02	-2.027682e-03
1.036353e+02	-2.051168e-03
1.042339e+02	-2.074926e-03
1.048360e+02	-2.098959e-03
1.054415e+02	-2.123270e-03
1.060505e+02	-2.147862e-03
1.066631e+02	-2.172739e-03
1.072791e+02	-2.197905e-03
1.078988e+02	-2.223362e-03
1.085220e+02	-2.249113e-03
1.091488e+02	-2.275163e-03
1.097793e+02	-2.301514e-03
1.104133e+02	-2.328171e-03
1.110511e+02	-2.355136e-03
1.116925e+02	-2.382413e-03
1.123376e+02	-2.410007e-03
1.129865e+02	-2.437919e-03
1.136391e+02	-2.466155e-03
1.142955e+02	-2.494718e-03
1.149556e+02	-2.523612e-03
1.156196e+02	-2.552840e-03
1.162874e+02	-2.582406e-03
1.169591e+02	-2.612315e-03
1.176347e+02	-2.642570e-03
1.183141e+02	-2.673176e-03
1.189975e+02	-2.704136e-03
1.196848e+02	-2.735454e-03
1.203761e+02	-2.767135e-03
1.210714e+02	-2.799182e-03
1.217707e+02	-2.831601e-03
1.224740e+02	-2.864395e-03
1.231814e+02	-2.897569e-03
1.238929e+02	-2.931126e-03
1.246085e+02	-2.965073e-03
1.253283e+02	-2.999412e-03
1.260522e+02	-3.034149e-03
1.267802e+02	-3.069288e-03
1.275125e+02	-3.104834e-03
1.282490e+02	-3.140791e-03
1.289898e+02	-3.177164e-03
1.297348e+02	-3.213959e-03
1.304842e+02	-3.251180e-03
1.312378e+02	-3.288831e-03
1.319959e+02	-3.326919e-03
1.327583e+02	-3.365447e-03
1.335251e+02	-3.404421e-03
1.342963e+02	-3.443847e-03
1.350720e+02	-3.483728e-03
1.358522e+02	-3.524072e-03
1.366368e+02	-3.564882e-03
1.374260e+02	-3.606165e-03
1.382198e+02	-3.647926e-03
1.390182e+02	-3.690170e-03
1.398211e+02	-3.732904e-03
1.406287e+02	-3.776131e-03
1.414410e+02	-3.819860e-03
1.422579e+02	-3.864094e-03
1.430796e+02	-3.908840e-03
1.439060e+02	-3.954105e-03
1.447372e+02	-3.999893e-03
1.455732e+02	-4.046211e-03
1.464141e+02	-4.093065e-03
1.472597e+02	-4.140462e-03
1.481103e+02	-4.188407e-03
1.489658e+02	-4.236907e-03
1.498262e+02	-4.285969e-03
1.506916e+02	-4.335598e-03
1.515620e+02	-4.385801e-03
1.524374e+02	-4.436586e-03
1.533179e+02	-4.487959e-03
1.542034e+02	-4.539925e-03
1.550941e+02	-4.592494e-03
1.559899e+02	-4.645671e-03
1.568909e+02	-4.699463e-03
1.577971e+02	-4.753877e-03
1.587085e+02	-4.808922e-03
1.596252e+02	-4.864603e-03
1.605472e+02	-4.920929e-03
1.614745e+02	-4.977906e-03
1.624072e+02	-5.035543e-03
1.633453e+02	-5.093847e-03
1.642887e+02	-5.152825e-03
1.652377e+02	-5.212486e-03
1.661921e+02	-5.272838e-03
1.671520e+02	-5.333887e-03
1.681175e+02	-5.395643e-03
1.690885e+02	-5.458114e-03
1.700651e+02	-5.521307e-03
1.710474e+02	-5.585232e-03
1.720354e+02	-5.649896e-03
1.730291e+02	-5.715308e-03
1.740285e+02	-5.781477e-03
1.750337e+02	-5.848412e-03
1.760446e+02	-5.916121e-03
1.770615e+02	-5.984614e-03
1.780842e+02	-6.053899e-03
1.791128e+02	-6.123985e-03
1.801473e+02	-6.194882e-03
1.811878e+02	-6.266600e-03
1.822344e+02	-6.339147e-03
1.832870e+02	-6.412533e-03
1.843456e+02	-6.486768e-03
1.854104e+02	-6.561862e-03
1.864813e+02	-6.637825e-03
1.875584e+02	-6.714666e-03
1.886418e+02	-6.792396e-03
1.897313e+02	-6.871026e-03
1.908272e+02	-6.950564e-03
1.919294e+02	-7.031023e-03
1.930380e+02	-7.112412e-03
1.941530e+02	-7.194743e-03
1.952744e+02	-7.278026e-03
1.964023e+02	-7.362272e-03
1.975367e+02	-7.447493e-03
1.986777e+02	-7.533699e-03
1.998252e+02	-7.620902e-03
2.009794e+02	-7.709113e-03
2.021403e+02	-7.798345e-03
2.033078e+02	-7.888609e-03
2.044821e+02	-7.979916e-03
2.056632e+02	-8.072279e-03
2.068511e+02	-8.165711e-03
2.080459e+02	-8.260222e-03
2.092475e+02	-8.355827e-03
2.104561e+02	-8.452537e-03
2.116717e+02	-8.550365e-03
2.128943e+02	-8.649324e-03
2.141240e+02	-8.749428e-03
2.153608e+02	-8.850688e-03
2.166047e+02	-8.953120e-03
2.178558e+02	-9.056736e-03
2.191141e+02	-9.161549e-03
2.203797e+02	-9.267575e-03
2.216526e+02	-9.374826e-03
2.229329e+02	-9.483317e-03
2.242205e+02	-9.593062e-03
2.255156e+02	-9.704075e-03
2.268182e+02	-9.816372e-03
2.281283e+02	-9.929967e-03
2.294459e+02	-1.004487e-02
2.307712e+02	-1.016111e-02
2.321041e+02	-1.027869e-02
2.334447e+02	-1.039763e-02
2.347931e+02	-1.051794e-02
2.361493e+02	-1.063964e-02
2.375133e+02	-1.076275e-02
2.388851e+02	-1.088729e-02
2.402649e+02	-1.101326e-02
2.416527e+02	-1.114069e-02
2.430484e+02	-1.126959e-02
2.444523e+02	-1.139997e-02
2.458642e+02	-1.153187e-02
2.472843e+02	-1.166529e-02
2.487126e+02	-1.180025e-02
2.501492e+02	-1.193677e-02
2.515940e+02	-1.207487e-02
2.530472e+02	-1.221456e-02
2.545088e+02	-1.235587e-02
2.559789e+02	-1.249881e-02
2.574574e+02	-1.264340e-02
2.589444e+02	-1.278966e-02
2.604401e+02	-1.293761e-02
2.619444e+02	-1.308727e-02
2.634574e+02	-1.323866e-02
2.649791e+02	-1.339179e-02
2.665096e+02	-1.354670e-02
2.680489e+02	-1.370339e-02
2.695972e+02	-1.386189e-02
2.711544e+02	-1.402223e-02
2.727205e+02	-1.418441e-02
2.742958e+02	-1.434847e-02
2.758801e+02	-1.451442e-02
2.774736e+02	-1.468229e-02
2.790762e+02	-1.485210e-02
2.806882e+02	-1.502386e-02
2.823094e+02	-1.519761e-02
2.839400e+02	-1.537337e-02
2.855800e+02	-1.555115e-02
2.872295e+02	-1.573099e-02
2.888886e+02	-1.591290e-02
2.905572e+02	-1.609692e-02
2.922354e+02	-1.628305e-02
2.939234e+02	-1.647134e-02
2.956211e+02	-1.666179e-02
2.973286e+02	-1.685445e-02
2.990459e+02	-1.704933e-02
3.007732e+02	-1.724646e-02
3.025104e+02	-1.744586e-02
3.042577e+02	-1.764756e-02
3.060151e+02	-1.785159e-02
3.077826e+02	-1.805798e-02
3.095604e+02	-1.826674e-02
3.113484e+02	-1.847791e-02
3.131467e+02	-1.869152e-02
3.149554e+02	-1.890760e-02
3.167746e+02	-1.912616e-02
3.186043e+02	-1.934725e-02
3.204445e+02	-1.957089e-02
3.222954e+02	-1.979710e-02
3.241570e+02	-2.002592e-02
3.260293e+02	-2.025739e-02
3.279124e+02	-2.049152e-02
3.298064e+02	-2.072835e-02
3.317114e+02	-2.096791e-02
3.336273e+02	-2.121024e-02
3.355544e+02	-2.145535e-02
3.374925e+02	-2.170330e-02
3.394418e+02	-2.195410e-02
3.414024e+02	-2.220779e-02
3.433744e+02	-2.246440e-02
3.453577e+02	-2.272398e-02
3.473525e+02	-2.298654e-02
3.493588e+02	-2.325213e-02
3.513766e+02	-2.352078e-02
3.534062e+02	-2.379253e-02
3.554474e+02	-2.406741e-02
3.575005e+02	-2.434545e-02
3.595654e+02	-2.462670e-02
3.616422e+02	-2.491118e-02
3.637311e+02	-2.519894e-02
3.658320e+02	-2.549002e-02
3.679450e+02	-2.578445e-02
3.700702e+02	-2.608227e-02
3.722077e+02	-2.638352e-02
3.743576e+02	-2.668824e-02
3.765199e+02	-2.699647e-02
3.786946e+02	-2.730824e-02
3.808820e+02	-2.762360e-02
3.830819e+02	-2.794260e-02
3.852946e+02	-2.826526e-02
3.875200e+02	-2.859164e-02
3.897583e+02	-2.892178e-02
3.920096e+02	-2.925572e-02
3.942738e+02	-2.959349e-02
3.965511e+02	-2.993516e-02
3.988416e+02	-3.028075e-02
4.011452e+02	-3.063032e-02
4.034622e+02	-3.098391e-02
4.057926e+02	-3.134157e-02
4.081365e+02	-3.170334e-02
4.104938e+02	-3.206927e-02
4.128648e+02	-3.243941e-02
4.152495e+02	-3.281381e-02
4.176480e+02	-3.319251e-02
4.200603e+02	-3.357556e-02
4.224866e+02	-3.396302e-02
4.249268e+02	-3.435493e-02
4.273812e+02	-3.475135e-02
4.298497e+02	-3.515232e-02
4.323325e+02	-3.555790e-02
4.348297e+02	-3.596813e-02
4.373412e+02	-3.638308e-02
4.398673e+02	-3.680280e-02
4.424079e+02	-3.722734e-02
4.449633e+02	-3.765676e-02
4.475334e+02	-3.809110e-02
4.501183e+02	-3.853044e-02
4.527182e+02	-3.897481e-02
4.553330e+02	-3.942429e-02
4.579630e+02	-3.987893e-02
4.606082e+02	-4.033879e-02
4.632687e+02	-4.080393e-02
4.659445e+02	-4.127440e-02
4.686358e+02	-4.175027e-02
4.713426e+02	-4.223161e-02
4.740650e+02	-4.271846e-02
4.768032e+02	-4.321090e-02
4.795572e+02	-4.370898e-02
4.823271e+02	-4.421278e-02
4.851130e+02	-4.472236e-02
4.879150e+02	-4.523777e-02
4.907332e+02	-4.575910e-02
4.935676e+02	-4.628640e-02
4.964185e+02	-4.681975e-02
4.992858e+02	-4.735920e-02
5.021696e+02	-4.790484e-02
5.050701e+02	-4.845673e-02
5.079874e+02	-4.901494e-02
5.109215e+02	-4.957955e-02
5.138726e+02	-5.015062e-02
5.168407e+02	-5.072823e-02
5.198259e+02	-5.131246e-02
5.228284e+02	-5.190337e-02
5.258482e+02	-5.250104e-02
5.288855e+02	-5.310556e-02
5.319403e+02	-5.371699e-02
5.350128e+02	-5.433542e-02
5.381030e+02	-5.496092e-02
5.412111e+02	-5.559358e-02
5.443371e+02	-5.623348e-02
5.474812e+02	-5.688069e-02
5.506434e+02	-5.753530e-02
5.538239e+02	-5.819739e-02
5.570228e+02	-5.886705e-02
5.602401e+02	-5.954436e-02
5.634760e+02	-6.022941e-02
5.667306e+02	-6.092229e-02
5.700040e+02	-6.162308e-02
5.732964e+02	-6.233187e-02
5.766077e+02	-6.304876e-02
5.799382e+02	-6.377383e-02
5.832879e+02	-6.450718e-02
5.866569e+02	-6.524890e-02
5.900454e+02	-6.599908e-02
5.934535e+02	-6.675782e-02
5.968813e+02	-6.752521e-02
6.003288e+02	-6.830136e-02
6.037963e+02	-6.908636e-02
6.072838e+02	-6.988030e-02
6.107914e+02	-7.068330e-02
6.143194e+02	-7.149544e-02
6.178676e+02	-7.231684e-02
6.214364e+02	-7.314760e-02
6.250258e+02	-7.398782e-02
6.286359e+02	-7.483760e-02
6.322669e+02	-7.569707e-02
6.359189e+02	-7.656631e-02
6.395919e+02	-7.744545e-02
6.432862e+02	-7.833459e-02
6.470017e+02	-7.923384e-02
6.507388e+02	-8.014333e-02
6.544974e+02	-8.106315e-02
6.582778e+02	-8.199343e-02
6.620800e+02	-8.293429e-02
6.659041e+02	-8.388584e-02
6.697504e+02	-8.484820e-02
6.736188e+02	-8.582148e-02
6.775096e+02	-8.680583e-02
6.814229e+02	-8.780134e-02
6.853587e+02	-8.880816e-02
6.893173e+02	-8.982640e-02
6.932988e+02	-9.085620e-02
6.973033e+02	-9.189768e-02
7.013309e+02	-9.295096e-02
