Frequency(Hz)	Magnitude(dB)
1.000000e+01	-2.178245e+00
1.005776e+01	-2.198078e+00
1.011585e+01	-2.218158e+00
1.017428e+01	-2.238199e+00
1.023305e+01	-2.258197e+00
1.029215e+01	-2.278630e+00
1.035160e+01	-2.299315e+00
1.041139e+01	-2.319724e+00
1.047153e+01	-2.340544e+00
1.053201e+01	-2.361343e+00
1.059284e+01	-2.382465e+00
1.065403e+01	-2.403651e+00
1.071556e+01	-2.425066e+00
1.077746e+01	-2.446432e+00
1.083971e+01	-2.468247e+00
1.090232e+01	-2.489820e+00
1.096529e+01	-2.512085e+00
1.102862e+01	-2.533895e+00
1.109232e+01	-2.556252e+00
1.115639e+01	-2.578301e+00
1.122083e+01	-2.600568e+00
1.128564e+01	-2.623430e+00
1.135083e+01	-2.646310e+00
1.141639e+01	-2.668935e+00
1.148233e+01	-2.692114e+00
1.154865e+01	-2.715278e+00
1.161536e+01	-2.738634e+00
1.168245e+01	-2.762104e+00
1.174992e+01	-2.785639e+00
1.181779e+01	-2.809385e+00
1.188605e+01	-2.833531e+00
1.195470e+01	-2.857320e+00
1.202375e+01	-2.881980e+00
1.209320e+01	-2.906093e+00
1.216305e+01	-2.930244e+00
1.223330e+01	-2.955019e+00
1.230396e+01	-2.979821e+00
1.237503e+01	-3.004533e+00
1.244651e+01	-3.029771e+00
1.251840e+01	-3.055021e+00
1.259070e+01	-3.080317e+00
1.266343e+01	-3.106072e+00
1.273657e+01	-3.131232e+00
1.281014e+01	-3.157153e+00
1.288413e+01	-3.183249e+00
1.295855e+01	-3.209175e+00
1.303339e+01	-3.235449e+00
1.310867e+01	-3.261668e+00
1.318439e+01	-3.288263e+00
1.326054e+01	-3.314692e+00
1.333713e+01	-3.341520e+00
1.341417e+01	-3.368473e+00
1.349165e+01	-3.395403e+00
1.356958e+01	-3.422872e+00
1.364795e+01	-3.450037e+00
1.372678e+01	-3.477594e+00
1.380607e+01	-3.505310e+00
1.388581e+01	-3.533242e+00
1.396602e+01	-3.560988e+00
1.404668e+01	-3.589075e+00
1.412782e+01	-3.617162e+00
1.420942e+01	-3.645589e+00
1.429149e+01	-3.674299e+00
1.437404e+01	-3.702780e+00
1.445706e+01	-3.731322e+00
1.454057e+01	-3.760391e+00
1.462455e+01	-3.789291e+00
1.470902e+01	-3.818766e+00
1.479398e+01	-3.848021e+00
1.487943e+01	-3.877425e+00
1.496537e+01	-3.906895e+00
1.505181e+01	-3.936864e+00
1.513875e+01	-3.966928e+00
1.522619e+01	-3.996767e+00
1.531414e+01	-4.026991e+00
1.540259e+01	-4.057313e+00
1.549156e+01	-4.087352e+00
1.558103e+01	-4.118073e+00
1.567103e+01	-4.148838e+00
1.576155e+01	-4.179708e+00
1.585258e+01	-4.210860e+00
1.594415e+01	-4.242119e+00
1.603624e+01	-4.273095e+00
1.612886e+01	-4.304628e+00
1.622202e+01	-4.336071e+00
1.631572e+01	-4.367552e+00
1.640996e+01	-4.399357e+00
1.650474e+01	-4.431353e+00
1.660008e+01	-4.463554e+00
1.669596e+01	-4.495623e+00
1.679239e+01	-4.527995e+00
1.688938e+01	-4.560622e+00
1.698694e+01	-4.593081e+00
1.708505e+01	-4.625658e+00
1.718373e+01	-4.658706e+00
1.728299e+01	-4.691745e+00
1.738281e+01	-4.724511e+00
1.748322e+01	-4.758067e+00
1.758420e+01	-4.791374e+00
1.768576e+01	-4.824742e+00
1.778792e+01	-4.858193e+00
1.789066e+01	-4.892223e+00
1.799399e+01	-4.926484e+00
1.809793e+01	-4.959795e+00
1.820246e+01	-4.994354e+00
1.830760e+01	-5.028234e+00
1.841334e+01	-5.062548e+00
1.851969e+01	-5.096947e+00
1.862666e+01	-5.131716e+00
1.873425e+01	-5.166341e+00
1.884246e+01	-5.201343e+00
1.895129e+01	-5.236519e+00
1.906075e+01	-5.271328e+00
1.917085e+01	-5.306664e+00
1.928158e+01	-5.342072e+00
1.939295e+01	-5.377609e+00
1.950496e+01	-5.413135e+00
1.961762e+01	-5.448859e+00
1.973093e+01	-5.484898e+00
1.984490e+01	-5.520405e+00
1.995952e+01	-5.556746e+00
2.007480e+01	-5.592709e+00
2.019076e+01	-5.628977e+00
2.030738e+01	-5.665450e+00
2.042467e+01	-5.702008e+00
2.054264e+01	-5.738506e+00
2.066130e+01	-5.775428e+00
2.078064e+01	-5.812299e+00
2.090066e+01	-5.849206e+00
2.102139e+01	-5.886029e+00
2.114280e+01	-5.923497e+00
2.126492e+01	-5.960579e+00
2.138775e+01	-5.997982e+00
2.151128e+01	-6.035853e+00
2.163553e+01	-6.073496e+00
2.176050e+01	-6.111045e+00
2.188619e+01	-6.148732e+00
2.201260e+01	-6.186668e+00
2.213974e+01	-6.224514e+00
2.226762e+01	-6.262695e+00
2.239624e+01	-6.301334e+00
2.252560e+01	-6.339375e+00
2.265571e+01	-6.377856e+00
2.278656e+01	-6.416792e+00
2.291818e+01	-6.455381e+00
2.305055e+01	-6.493840e+00
2.318369e+01	-6.532765e+00
2.331760e+01	-6.571621e+00
2.345228e+01	-6.610512e+00
2.358774e+01	-6.649589e+00
2.372398e+01	-6.689274e+00
2.386101e+01	-6.728639e+00
2.399883e+01	-6.768028e+00
2.413745e+01	-6.807396e+00
2.427686e+01	-6.847022e+00
2.441709e+01	-6.886817e+00
2.455812e+01	-6.926987e+00
2.469997e+01	-6.966699e+00
2.484263e+01	-7.007093e+00
2.498612e+01	-7.046690e+00
2.513044e+01	-7.087191e+00
2.527559e+01	-7.127266e+00
2.542158e+01	-7.167542e+00
2.556842e+01	-7.208417e+00
2.571610e+01	-7.248763e+00
2.586463e+01	-7.289608e+00
2.601403e+01	-7.330080e+00
2.616428e+01	-7.371124e+00
2.631541e+01	-7.411518e+00
2.646740e+01	-7.452778e+00
2.662028e+01	-7.493418e+00
2.677404e+01	-7.534772e+00
2.692868e+01	-7.576659e+00
2.708422e+01	-7.617440e+00
2.724066e+01	-7.658979e+00
2.739800e+01	-7.700659e+00
2.755625e+01	-7.742334e+00
2.771541e+01	-7.783660e+00
2.787550e+01	-7.825253e+00
2.803650e+01	-7.867190e+00
2.819844e+01	-7.909435e+00
2.836131e+01	-7.951235e+00
2.852513e+01	-7.993403e+00
2.868989e+01	-8.035641e+00
2.885560e+01	-8.076992e+00
2.902227e+01	-8.119949e+00
2.918990e+01	-8.162532e+00
2.935850e+01	-8.205093e+00
2.952807e+01	-8.246763e+00
2.969863e+01	-8.289786e+00
2.987016e+01	-8.332376e+00
3.004269e+01	-8.374973e+00
3.021622e+01	-8.417685e+00
3.039075e+01	-8.461108e+00
3.056628e+01	-8.503743e+00
3.074283e+01	-8.546808e+00
3.092040e+01	-8.590005e+00
3.109900e+01	-8.632593e+00
3.127862e+01	-8.675988e+00
3.145929e+01	-8.719226e+00
3.164099e+01	-8.762777e+00
3.182375e+01	-8.806216e+00
3.200756e+01	-8.849964e+00
3.219244e+01	-8.892684e+00
3.237838e+01	-8.936792e+00
3.256540e+01	-8.980630e+00
3.275349e+01	-9.024073e+00
3.294268e+01	-9.067658e+00
3.313295e+01	-9.111431e+00
3.332433e+01	-9.156035e+00
3.351681e+01	-9.199654e+00
3.371040e+01	-9.243817e+00
3.390511e+01	-9.287735e+00
3.410094e+01	-9.331796e+00
3.429791e+01	-9.375976e+00
3.449601e+01	-9.420726e+00
3.469526e+01	-9.464727e+00
3.489566e+01	-9.509092e+00
3.509721e+01	-9.553805e+00
3.529993e+01	-9.598611e+00
3.550382e+01	-9.642587e+00
3.570889e+01	-9.687220e+00
3.591515e+01	-9.732046e+00
3.612259e+01	-9.776425e+00
3.633123e+01	-9.821431e+00
3.654108e+01	-9.866752e+00
3.675214e+01	-9.911316e+00
3.696442e+01	-9.955658e+00
3.717792e+01	-1.000130e+01
3.739266e+01	-1.004639e+01
3.760864e+01	-1.009122e+01
3.782587e+01	-1.013622e+01
3.804435e+01	-1.018165e+01
3.826409e+01	-1.022702e+01
3.848510e+01	-1.027183e+01
3.870739e+01	-1.031801e+01
3.893096e+01	-1.036256e+01
3.915583e+01	-1.040830e+01
3.938199e+01	-1.045348e+01
3.960946e+01	-1.049957e+01
3.983824e+01	-1.054513e+01
4.006834e+01	-1.059082e+01
4.029978e+01	-1.063669e+01
4.053255e+01	-1.068230e+01
4.076666e+01	-1.072827e+01
4.100213e+01	-1.077402e+01
4.123896e+01	-1.081962e+01
4.147715e+01	-1.086550e+01
4.171672e+01	-1.091127e+01
4.195767e+01	-1.095755e+01
4.220002e+01	-1.100335e+01
4.244377e+01	-1.104971e+01
4.268892e+01	-1.109564e+01
4.293549e+01	-1.114218e+01
4.318348e+01	-1.118803e+01
4.343291e+01	-1.123479e+01
4.368377e+01	-1.128022e+01
4.393609e+01	-1.132669e+01
4.418986e+01	-1.137285e+01
4.444510e+01	-1.142017e+01
4.470182e+01	-1.146533e+01
4.496001e+01	-1.151259e+01
4.521970e+01	-1.155923e+01
4.548089e+01	-1.160580e+01
4.574358e+01	-1.165187e+01
4.600779e+01	-1.169861e+01
4.627353e+01	-1.174510e+01
4.654081e+01	-1.179152e+01
4.680963e+01	-1.183917e+01
4.708000e+01	-1.188541e+01
4.735193e+01	-1.193281e+01
4.762543e+01	-1.197920e+01
4.790051e+01	-1.202571e+01
4.817719e+01	-1.207336e+01
4.845545e+01	-1.211963e+01
4.873533e+01	-1.216603e+01
4.901682e+01	-1.221371e+01
4.929994e+01	-1.226144e+01
4.958470e+01	-1.230825e+01
4.987110e+01	-1.235556e+01
5.015915e+01	-1.240236e+01
5.044887e+01	-1.244914e+01
5.074026e+01	-1.249709e+01
5.103333e+01	-1.254447e+01
5.132810e+01	-1.259102e+01
5.162457e+01	-1.263773e+01
5.192275e+01	-1.268614e+01
5.222265e+01	-1.273323e+01
5.252429e+01	-1.278071e+01
5.282767e+01	-1.282795e+01
5.313280e+01	-1.287595e+01
5.343969e+01	-1.292200e+01
5.374836e+01	-1.296973e+01
5.405880e+01	-1.301804e+01
5.437105e+01	-1.306536e+01
5.468509e+01	-1.311285e+01
5.500095e+01	-1.316068e+01
5.531863e+01	-1.320737e+01
5.563815e+01	-1.325604e+01
5.595951e+01	-1.330295e+01
5.628273e+01	-1.335175e+01
5.660782e+01	-1.339955e+01
5.693479e+01	-1.344748e+01
5.726364e+01	-1.349385e+01
5.759439e+01	-1.354316e+01
5.792705e+01	-1.358991e+01
5.826164e+01	-1.363754e+01
5.859815e+01	-1.368560e+01
5.893662e+01	-1.373273e+01
5.927703e+01	-1.378170e+01
5.961941e+01	-1.382993e+01
5.996377e+01	-1.387743e+01
6.031012e+01	-1.392576e+01
6.065847e+01	-1.397313e+01
6.100883e+01	-1.402168e+01
6.136121e+01	-1.407031e+01
6.171563e+01	-1.411751e+01
6.207210e+01	-1.416576e+01
6.243063e+01	-1.421371e+01
6.279122e+01	-1.426220e+01
6.315390e+01	-1.431046e+01
6.351868e+01	-1.435855e+01
6.388556e+01	-1.440587e+01
6.425456e+01	-1.445428e+01
6.462569e+01	-1.450209e+01
6.499897e+01	-1.455145e+01
6.537440e+01	-1.459923e+01
6.575200e+01	-1.464750e+01
6.613178e+01	-1.469619e+01
6.651375e+01	-1.474446e+01
6.689793e+01	-1.479280e+01
6.728433e+01	-1.484108e+01
6.767297e+01	-1.488954e+01
6.806384e+01	-1.493811e+01
6.845698e+01	-1.498655e+01
6.885238e+01	-1.503498e+01
6.925007e+01	-1.508314e+01
6.965005e+01	-1.513232e+01
7.005235e+01	-1.517985e+01
7.045697e+01	-1.522985e+01
7.086393e+01	-1.527767e+01
7.127323e+01	-1.532507e+01
7.168490e+01	-1.537476e+01
7.209895e+01	-1.542221e+01
7.251539e+01	-1.547215e+01
7.293424e+01	-1.552068e+01
7.335551e+01	-1.556935e+01
7.377920e+01	-1.561844e+01
7.420535e+01	-1.566659e+01
7.463396e+01	-1.571553e+01
7.506504e+01	-1.576406e+01
7.549861e+01	-1.581239e+01
7.593469e+01	-1.586065e+01
7.637328e+01	-1.591027e+01
7.681441e+01	-1.595941e+01
7.725809e+01	-1.600782e+01
7.770433e+01	-1.605673e+01
7.815315e+01	-1.610467e+01
7.860456e+01	-1.615507e+01
7.905857e+01	-1.620246e+01
7.951521e+01	-1.625189e+01
7.997449e+01	-1.630124e+01
8.043642e+01	-1.635014e+01
8.090102e+01	-1.639923e+01
8.136830e+01	-1.644591e+01
8.183828e+01	-1.649568e+01
8.231097e+01	-1.654445e+01
8.278640e+01	-1.659262e+01
8.326457e+01	-1.664256e+01
8.374550e+01	-1.669127e+01
8.422921e+01	-1.674161e+01
8.471572e+01	-1.678953e+01
8.520503e+01	-1.683926e+01
8.569717e+01	-1.688704e+01
8.619215e+01	-1.693655e+01
8.669000e+01	-1.698574e+01
8.719071e+01	-1.703536e+01
8.769432e+01	-1.708378e+01
8.820084e+01	-1.713273e+01
8.871029e+01	-1.718241e+01
8.922267e+01	-1.723058e+01
8.973802e+01	-1.727969e+01
9.025634e+01	-1.732889e+01
9.077766e+01	-1.737962e+01
9.130199e+01	-1.742746e+01
9.182935e+01	-1.747665e+01
9.235975e+01	-1.752591e+01
9.289321e+01	-1.757428e+01
9.342976e+01	-1.762463e+01
9.396941e+01	-1.767357e+01
9.451217e+01	-1.772247e+01
9.505807e+01	-1.777095e+01
9.560712e+01	-1.782033e+01
9.615934e+01	-1.786945e+01
9.671476e+01	-1.791877e+01
9.727338e+01	-1.796780e+01
9.783522e+01	-1.801824e+01
9.840032e+01	-1.806896e+01
9.896867e+01	-1.811649e+01
9.954031e+01	-1.816520e+01
1.001153e+02	-1.821426e+01
1.006935e+02	-1.826262e+01
1.012751e+02	-1.831368e+01
1.018601e+02	-1.836315e+01
1.024484e+02	-1.841233e+01
1.030402e+02	-1.846122e+01
1.036353e+02	-1.850969e+01
1.042339e+02	-1.855994e+01
1.048360e+02	-1.860965e+01
1.054415e+02	-1.865614e+01
1.060505e+02	-1.870926e+01
1.066631e+02	-1.875764e+01
1.072791e+02	-1.880597e+01
1.078988e+02	-1.885548e+01
1.085220e+02	-1.890531e+01
1.091488e+02	-1.895570e+01
1.097793e+02	-1.900476e+01
1.104133e+02	-1.905297e+01
1.110511e+02	-1.910253e+01
1.116925e+02	-1.915219e+01
1.123376e+02	-1.920073e+01
1.129865e+02	-1.925078e+01
1.136391e+02	-1.930163e+01
1.142955e+02	-1.934914e+01
1.149556e+02	-1.939955e+01
1.156196e+02	-1.944836e+01
1.162874e+02	-1.949923e+01
1.169591e+02	-1.954768e+01
1.176347e+02	-1.959715e+01
1.183141e+02	-1.964740e+01
1.189975e+02	-1.969628e+01
1.196848e+02	-1.974695e+01
1.203761e+02	-1.979684e+01
1.210714e+02	-1.984695e+01
1.217707e+02	-1.989506e+01
1.224740e+02	-1.994342e+01
1.231814e+02	-1.999338e+01
1.238929e+02	-2.004283e+01
1.246085e+02	-2.009288e+01
1.253283e+02	-2.014183e+01
1.260522e+02	-2.019142e+01
1.267802e+02	-2.024061e+01
1.275125e+02	-2.029217e+01
1.282490e+02	-2.033956e+01
1.289898e+02	-2.038957e+01
1.297348e+02	-2.043864e+01
1.304842e+02	-2.048960e+01
1.312378e+02	-2.053861e+01
1.319959e+02	-2.058853e+01
1.327583e+02	-2.063948e+01
1.335251e+02	-2.068604e+01
1.342963e+02	-2.073748e+01
1.350720e+02	-2.078821e+01
1.358522e+02	-2.083596e+01
1.366368e+02	-2.088727e+01
1.374260e+02	-2.093547e+01
1.382198e+02	-2.098729e+01
1.390182e+02	-2.103503e+01
1.398211e+02	-2.108536e+01
1.406287e+02	-2.113298e+01
1.414410e+02	-2.118479e+01
1.422579e+02	-2.123418e+01
1.430796e+02	-2.128238e+01
1.439060e+02	-2.133190e+01
1.447372e+02	-2.138241e+01
1.455732e+02	-2.143342e+01
1.464141e+02	-2.148195e+01
1.472597e+02	-2.153102e+01
1.481103e+02	-2.158213e+01
1.489658e+02	-2.163224e+01
1.498262e+02	-2.168106e+01
1.506916e+02	-2.172917e+01
1.515620e+02	-2.177943e+01
1.524374e+02	-2.182859e+01
1.533179e+02	-2.188114e+01
1.542034e+02	-2.192821e+01
1.550941e+02	-2.197836e+01
1.559899e+02	-2.203019e+01
1.568909e+02	-2.207829e+01
1.577971e+02	-2.213089e+01
1.587085e+02	-2.217832e+01
1.596252e+02	-2.222843e+01
1.605472e+02	-2.227646e+01
1.614745e+02	-2.232683e+01
1.624072e+02	-2.237726e+01
1.633453e+02	-2.242789e+01
1.642887e+02	-2.247731e+01
1.652377e+02	-2.252846e+01
1.661921e+02	-2.257784e+01
1.671520e+02	-2.262506e+01
1.681175e+02	-2.267565e+01
1.690885e+02	-2.272743e+01
1.700651e+02	-2.277397e+01
1.710474e+02	-2.282578e+01
1.720354e+02	-2.287545e+01
1.730291e+02	-2.292615e+01
1.740285e+02	-2.297571e+01
1.750337e+02	-2.302390e+01
1.760446e+02	-2.307480e+01
1.770615e+02	-2.312497e+01
1.780842e+02	-2.317262e+01
1.791128e+02	-2.322352e+01
1.801473e+02	-2.327362e+01
1.811878e+02	-2.332146e+01
1.822344e+02	-2.337334e+01
1.832870e+02	-2.342444e+01
1.843456e+02	-2.347329e+01
1.854104e+02	-2.352124e+01
1.864813e+02	-2.357285e+01
1.875584e+02	-2.362104e+01
1.886418e+02	-2.367202e+01
1.897313e+02	-2.372088e+01
1.908272e+02	-2.377050e+01
1.919294e+02	-2.382181e+01
1.930380e+02	-2.387062e+01
1.941530e+02	-2.392103e+01
1.952744e+02	-2.397149e+01
1.964023e+02	-2.402227e+01
1.975367e+02	-2.407079e+01
1.986777e+02	-2.412063e+01
1.998252e+02	-2.416807e+01
2.009794e+02	-2.422162e+01
2.021403e+02	-2.426858e+01
2.033078e+02	-2.431708e+01
2.044821e+02	-2.436859e+01
2.056632e+02	-2.442142e+01
2.068511e+02	-2.446877e+01
2.080459e+02	-2.452242e+01
2.092475e+02	-2.456880e+01
2.104561e+02	-2.461873e+01
2.116717e+02	-2.467065e+01
2.128943e+02	-2.471968e+01
2.141240e+02	-2.476950e+01
2.153608e+02	-2.481721e+01
2.166047e+02	-2.486808e+01
2.178558e+02	-2.491979e+01
2.191141e+02	-2.497057e+01
2.203797e+02	-2.501693e+01
2.216526e+02	-2.506892e+01
2.229329e+02	-2.511656e+01
2.242205e+02	-2.516893e+01
2.255156e+02	-2.521851e+01
2.268182e+02	-2.526918e+01
2.281283e+02	-2.531624e+01
2.294459e+02	-2.536964e+01
2.307712e+02	-2.542040e+01
2.321041e+02	-2.546664e+01
2.334447e+02	-2.551768e+01
2.347931e+02	-2.556999e+01
2.361493e+02	-2.561693e+01
2.375133e+02	-2.566575e+01
2.388851e+02	-2.571868e+01
2.402649e+02	-2.576869e+01
2.416527e+02	-2.582002e+01
2.430484e+02	-2.586629e+01
2.444523e+02	-2.591884e+01
2.458642e+02	-2.596754e+01
2.472843e+02	-2.601823e+01
2.487126e+02	-2.606906e+01
2.501492e+02	-2.611817e+01
2.515940e+02	-2.616734e+01
2.530472e+02	-2.621785e+01
2.545088e+02	-2.626829e+01
2.559789e+02	-2.631611e+01
2.574574e+02	-2.636786e+01
2.589444e+02	-2.641541e+01
2.604401e+02	-2.646768e+01
2.619444e+02	-2.651608e+01
2.634574e+02	-2.656601e+01
2.649791e+02	-2.661738e+01
2.665096e+02	-2.666812e+01
2.680489e+02	-2.671421e+01
2.695972e+02	-2.676974e+01
2.711544e+02	-2.681797e+01
2.727205e+02	-2.686276e+01
2.742958e+02	-2.691702e+01
2.758801e+02	-2.696776e+01
2.774736e+02	-2.701639e+01
2.790762e+02	-2.706765e+01
2.806882e+02	-2.711403e+01
2.823094e+02	-2.716631e+01
2.839400e+02	-2.722016e+01
2.855800e+02	-2.726819e+01
2.872295e+02	-2.731565e+01
2.888886e+02	-2.736460e+01
2.905572e+02	-2.741270e+01
2.922354e+02	-2.746669e+01
2.939234e+02	-2.751544e+01
2.956211e+02	-2.756603e+01
2.973286e+02	-2.761474e+01
2.990459e+02	-2.766871e+01
3.007732e+02	-2.771887e+01
3.025104e+02	-2.776346e+01
3.042577e+02	-2.781432e+01
3.060151e+02	-2.786765e+01
3.077826e+02	-2.791778e+01
3.095604e+02	-2.796568e+01
3.113484e+02	-2.801608e+01
3.131467e+02	-2.806719e+01
3.149554e+02	-2.811863e+01
3.167746e+02	-2.816634e+01
3.186043e+02	-2.821764e+01
3.204445e+02	-2.826559e+01
3.222954e+02	-2.831296e+01
3.241570e+02	-2.836597e+01
3.260293e+02	-2.841676e+01
3.279124e+02	-2.846679e+01
3.298064e+02	-2.851853e+01
3.317114e+02	-2.856420e+01
3.336273e+02	-2.861869e+01
3.355544e+02	-2.866494e+01
3.374925e+02	-2.871634e+01
3.394418e+02	-2.876863e+01
3.414024e+02	-2.882070e+01
3.433744e+02	-2.886926e+01
3.453577e+02	-2.891750e+01
3.473525e+02	-2.897156e+01
3.493588e+02	-2.901781e+01
3.513766e+02	-2.906713e+01
3.534062e+02	-2.911813e+01
3.554474e+02	-2.916880e+01
3.575005e+02	-2.921411e+01
3.595654e+02	-2.926724e+01
3.616422e+02	-2.931459e+01
3.637311e+02	-2.936487e+01
3.658320e+02	-2.942125e+01
3.679450e+02	-2.946900e+01
3.700702e+02	-2.951809e+01
3.722077e+02	-2.956900e+01
3.743576e+02	-2.961901e+01
3.765199e+02	-2.966839e+01
3.786946e+02	-2.971382e+01
3.808820e+02	-2.976835e+01
3.830819e+02	-2.981645e+01
3.852946e+02	-2.986979e+01
3.875200e+02	-2.991766e+01
3.897583e+02	-2.996902e+01
3.920096e+02	-3.001621e+01
3.942738e+02	-3.007427e+01
3.965511e+02	-3.012015e+01
3.988416e+02	-3.017191e+01
4.011452e+02	-3.022195e+01
4.034622e+02	-3.026528e+01
4.057926e+02	-3.031342e+01
4.081365e+02	-3.037101e+01
4.104938e+02	-3.041717e+01
4.128648e+02	-3.046852e+01
4.152495e+02	-3.051789e+01
4.176480e+02	-3.057260e+01
4.200603e+02	-3.062037e+01
4.224866e+02	-3.066954e+01
4.249268e+02	-3.072600e+01
4.273812e+02	-3.077291e+01
4.298497e+02	-3.081985e+01
4.323325e+02	-3.087061e+01
4.348297e+02	-3.092440e+01
4.373412e+02	-3.096989e+01
4.398673e+02	-3.101669e+01
4.424079e+02	-3.106904e+01
4.449633e+02	-3.112445e+01
4.475334e+02	-3.117106e+01
4.501183e+02	-3.122812e+01
4.527182e+02	-3.127580e+01
4.553330e+02	-3.132031e+01
4.579630e+02	-3.136708e+01
4.606082e+02	-3.142392e+01
4.632687e+02	-3.147150e+01
4.659445e+02	-3.151990e+01
4.686358e+02	-3.157698e+01
4.713426e+02	-3.162507e+01
4.740650e+02	-3.166973e+01
4.768032e+02	-3.172300e+01
4.795572e+02	-3.176998e+01
4.823271e+02	-3.182791e+01
4.851130e+02	-3.187735e+01
4.879150e+02	-3.193086e+01
4.907332e+02	-3.197735e+01
4.935676e+02	-3.203206e+01
4.964185e+02	-3.207219e+01
4.992858e+02	-3.212811e+01
5.021696e+02	-3.217405e+01
5.050701e+02	-3.222018e+01
5.079874e+02	-3.227854e+01
5.109215e+02	-3.232553e+01
5.138726e+02	-3.237826e+01
5.168407e+02	-3.242509e+01
5.198259e+02	-3.248040e+01
5.228284e+02	-3.252306e+01
5.258482e+02	-3.258011e+01
5.288855e+02	-3.262904e+01
5.319403e+02	-3.267510e+01
5.350128e+02	-3.272836e+01
5.381030e+02	-3.277645e+01
5.412111e+02	-3.282791e+01
5.443371e+02	-3.288622e+01
5.474812e+02	-3.292959e+01
5.506434e+02	-3.298542e+01
5.538239e+02	-3.302748e+01
5.570228e+02	-3.308227e+01
5.602401e+02	-3.313581e+01
5.634760e+02	-3.318208e+01
5.667306e+02	-3.322688e+01
5.700040e+02	-3.327570e+01
5.732964e+02	-3.332630e+01
5.766077e+02	-3.338295e+01
5.799382e+02	-3.343846e+01
5.832879e+02	-3.349155e+01
5.866569e+02	-3.353211e+01
5.900454e+02	-3.359055e+01
5.934535e+02	-3.362903e+01
5.968813e+02	-3.368230e+01
6.003288e+02	-3.373132e+01
6.037963e+02	-3.379167e+01
6.072838e+02	-3.383794e+01
6.107914e+02	-3.388490e+01
6.143194e+02	-3.394099e+01
6.178676e+02	-3.398719e+01
6.214364e+02	-3.403150e+01
6.250258e+02	-3.408511e+01
6.286359e+02	-3.413764e+01
6.322669e+02	-3.418831e+01
6.359189e+02	-3.423724e+01
6.395919e+02	-3.428286e+01
6.432862e+02	-3.433415e+01
6.470017e+02	-3.437882e+01
6.507388e+02	-3.443278e+01
6.544974e+02	-3.448211e+01
6.582778e+02	-3.454676e+01
6.620800e+02	-3.459616e+01
6.659041e+02	-3.464420e+01
6.697504e+02	-3.469380e+01
6.736188e+02	-3.474007e+01
6.775096e+02	-3.478803e+01
6.814229e+02	-3.483910e+01
6.853587e+02	-3.488802e+01
6.893173e+02	-3.494594e+01
6.932988e+02	-3.499410e+01
6.973033e+02	-3.503971e+01
7.013309e+02	-3.510025e+01
