Frequency(Hz)	Magnitude(dB)
1.000000e+01	-2.114988e+00
1.005776e+01	-2.134567e+00
1.011585e+01	-2.153908e+00
1.017428e+01	-2.173634e+00
1.023305e+01	-2.193128e+00
1.029215e+01	-2.213204e+00
1.035160e+01	-2.233307e+00
1.041139e+01	-2.253312e+00
1.047153e+01	-2.273769e+00
1.053201e+01	-2.294340e+00
1.059284e+01	-2.314575e+00
1.065403e+01	-2.335506e+00
1.071556e+01	-2.356459e+00
1.077746e+01	-2.377314e+00
1.083971e+01	-2.398515e+00
1.090232e+01	-2.419905e+00
1.096529e+01	-2.441317e+00
1.102862e+01	-2.462952e+00
1.109232e+01	-2.484729e+00
1.115639e+01	-2.506655e+00
1.122083e+01	-2.528353e+00
1.128564e+01	-2.550695e+00
1.135083e+01	-2.573018e+00
1.141639e+01	-2.595514e+00
1.148233e+01	-2.618155e+00
1.154865e+01	-2.640572e+00
1.161536e+01	-2.663409e+00
1.168245e+01	-2.686701e+00
1.174992e+01	-2.709493e+00
1.181779e+01	-2.733041e+00
1.188605e+01	-2.756340e+00
1.195470e+01	-2.780256e+00
1.202375e+01	-2.803566e+00
1.209320e+01	-2.827714e+00
1.216305e+01	-2.851608e+00
1.223330e+01	-2.875912e+00
1.230396e+01	-2.899922e+00
1.237503e+01	-2.924547e+00
1.244651e+01	-2.949076e+00
1.251840e+01	-2.973786e+00
1.259070e+01	-2.998802e+00
1.266343e+01	-3.023796e+00
1.273657e+01	-3.048854e+00
1.281014e+01	-3.074307e+00
1.288413e+01	-3.099613e+00
1.295855e+01	-3.125072e+00
1.303339e+01	-3.150745e+00
1.310867e+01	-3.176594e+00
1.318439e+01	-3.202812e+00
1.326054e+01	-3.228980e+00
1.333713e+01	-3.255473e+00
1.341417e+01	-3.281932e+00
1.349165e+01	-3.308371e+00
1.356958e+01	-3.335136e+00
1.364795e+01	-3.362023e+00
1.372678e+01	-3.388865e+00
1.380607e+01	-3.416228e+00
1.388581e+01	-3.443561e+00
1.396602e+01	-3.470957e+00
1.404668e+01	-3.498410e+00
1.412782e+01	-3.526325e+00
1.420942e+01	-3.554133e+00
1.429149e+01	-3.582193e+00
1.437404e+01	-3.610492e+00
1.445706e+01	-3.638555e+00
1.454057e+01	-3.667283e+00
1.462455e+01	-3.695724e+00
1.470902e+01	-3.724547e+00
1.479398e+01	-3.753199e+00
1.487943e+01	-3.782509e+00
1.496537e+01	-3.811584e+00
1.505181e+01	-3.840852e+00
1.513875e+01	-3.870301e+00
1.522619e+01	-3.899837e+00
1.531414e+01	-3.929608e+00
1.540259e+01	-3.959321e+00
1.549156e+01	-3.989446e+00
1.558103e+01	-4.019318e+00
1.567103e+01	-4.049787e+00
1.576155e+01	-4.080135e+00
1.585258e+01	-4.110961e+00
1.594415e+01	-4.141600e+00
1.603624e+01	-4.172150e+00
1.612886e+01	-4.203367e+00
1.622202e+01	-4.234313e+00
1.631572e+01	-4.265479e+00
1.640996e+01	-4.296923e+00
1.650474e+01	-4.328426e+00
1.660008e+01	-4.359849e+00
1.669596e+01	-4.391811e+00
1.679239e+01	-4.423892e+00
1.688938e+01	-4.455482e+00
1.698694e+01	-4.487874e+00
1.708505e+01	-4.520362e+00
1.718373e+01	-4.552235e+00
1.728299e+01	-4.585108e+00
1.738281e+01	-4.618110e+00
1.748322e+01	-4.650746e+00
1.758420e+01	-4.683533e+00
1.768576e+01	-4.716424e+00
1.778792e+01	-4.749922e+00
1.789066e+01	-4.783285e+00
1.799399e+01	-4.816656e+00
1.809793e+01	-4.850406e+00
1.820246e+01	-4.883965e+00
1.830760e+01	-4.917883e+00
1.841334e+01	-4.951549e+00
1.851969e+01	-4.985916e+00
1.862666e+01	-5.020086e+00
1.873425e+01	-5.054537e+00
1.884246e+01	-5.088965e+00
1.895129e+01	-5.123429e+00
1.906075e+01	-5.158278e+00
1.917085e+01	-5.193038e+00
1.928158e+01	-5.227972e+00
1.939295e+01	-5.263067e+00
1.950496e+01	-5.298670e+00
1.961762e+01	-5.333562e+00
1.973093e+01	-5.369069e+00
1.984490e+01	-5.404630e+00
1.995952e+01	-5.440048e+00
2.007480e+01	-5.475953e+00
2.019076e+01	-5.511979e+00
2.030738e+01	-5.547853e+00
2.042467e+01	-5.584223e+00
2.054264e+01	-5.620426e+00
2.066130e+01	-5.656848e+00
2.078064e+01	-5.693075e+00
2.090066e+01	-5.729753e+00
2.102139e+01	-5.766866e+00
2.114280e+01	-5.803356e+00
2.126492e+01	-5.840256e+00
2.138775e+01	-5.877479e+00
2.151128e+01	-5.914572e+00
2.163553e+01	-5.951758e+00
2.176050e+01	-5.989018e+00
2.188619e+01	-6.026582e+00
2.201260e+01	-6.064383e+00
2.213974e+01	-6.101496e+00
2.226762e+01	-6.139405e+00
2.239624e+01	-6.177695e+00
2.252560e+01	-6.215811e+00
2.265571e+01	-6.253729e+00
2.278656e+01	-6.291875e+00
2.291818e+01	-6.330257e+00
2.305055e+01	-6.368487e+00
2.318369e+01	-6.407325e+00
2.331760e+01	-6.445872e+00
2.345228e+01	-6.484449e+00
2.358774e+01	-6.523162e+00
2.372398e+01	-6.562459e+00
2.386101e+01	-6.601783e+00
2.399883e+01	-6.640652e+00
2.413745e+01	-6.679994e+00
2.427686e+01	-6.718955e+00
2.441709e+01	-6.758279e+00
2.455812e+01	-6.797872e+00
2.469997e+01	-6.837637e+00
2.484263e+01	-6.877485e+00
2.498612e+01	-6.917335e+00
2.513044e+01	-6.957051e+00
2.527559e+01	-6.996857e+00
2.542158e+01	-7.037472e+00
2.556842e+01	-7.077444e+00
2.571610e+01	-7.117657e+00
2.586463e+01	-7.158264e+00
2.601403e+01	-7.198346e+00
2.616428e+01	-7.238577e+00
2.631541e+01	-7.279577e+00
2.646740e+01	-7.320421e+00
2.662028e+01	-7.361015e+00
2.677404e+01	-7.401932e+00
2.692868e+01	-7.442591e+00
2.708422e+01	-7.483991e+00
2.724066e+01	-7.525103e+00
2.739800e+01	-7.566053e+00
2.755625e+01	-7.607774e+00
2.771541e+01	-7.649127e+00
2.787550e+01	-7.690756e+00
2.803650e+01	-7.731893e+00
2.819844e+01	-7.773565e+00
2.836131e+01	-7.815056e+00
2.852513e+01	-7.857071e+00
2.868989e+01	-7.899077e+00
2.885560e+01	-7.940795e+00
2.902227e+01	-7.982907e+00
2.918990e+01	-8.025164e+00
2.935850e+01	-8.067139e+00
2.952807e+01	-8.109623e+00
2.969863e+01	-8.151781e+00
2.987016e+01	-8.194063e+00
3.004269e+01	-8.236508e+00
3.021622e+01	-8.279309e+00
3.039075e+01	-8.321972e+00
3.056628e+01	-8.364528e+00
3.074283e+01	-8.407302e+00
3.092040e+01	-8.450649e+00
3.109900e+01	-8.493505e+00
3.127862e+01	-8.535770e+00
3.145929e+01	-8.579492e+00
3.164099e+01	-8.622403e+00
3.182375e+01	-8.665407e+00
3.200756e+01	-8.708442e+00
3.219244e+01	-8.752197e+00
3.237838e+01	-8.795618e+00
3.256540e+01	-8.839128e+00
3.275349e+01	-8.882782e+00
3.294268e+01	-8.926265e+00
3.313295e+01	-8.969653e+00
3.332433e+01	-9.012784e+00
3.351681e+01	-9.056685e+00
3.371040e+01	-9.101252e+00
3.390511e+01	-9.145084e+00
3.410094e+01	-9.188390e+00
3.429791e+01	-9.232808e+00
3.449601e+01	-9.276450e+00
3.469526e+01	-9.320866e+00
3.489566e+01	-9.365233e+00
3.509721e+01	-9.409341e+00
3.529993e+01	-9.453644e+00
3.550382e+01	-9.498095e+00
3.570889e+01	-9.542967e+00
3.591515e+01	-9.587498e+00
3.612259e+01	-9.632417e+00
3.633123e+01	-9.677121e+00
3.654108e+01	-9.720601e+00
3.675214e+01	-9.764930e+00
3.696442e+01	-9.810652e+00
3.717792e+01	-9.855328e+00
3.739266e+01	-9.900999e+00
3.760864e+01	-9.945140e+00
3.782587e+01	-9.990480e+00
3.804435e+01	-1.003535e+01
3.826409e+01	-1.007984e+01
3.848510e+01	-1.012566e+01
3.870739e+01	-1.017069e+01
3.893096e+01	-1.021598e+01
3.915583e+01	-1.026088e+01
3.938199e+01	-1.030675e+01
3.960946e+01	-1.035201e+01
3.983824e+01	-1.039743e+01
4.006834e+01	-1.044306e+01
4.029978e+01	-1.048875e+01
4.053255e+01	-1.053413e+01
4.076666e+01	-1.057955e+01
4.100213e+01	-1.062561e+01
4.123896e+01	-1.067108e+01
4.147715e+01	-1.071711e+01
4.171672e+01	-1.076300e+01
4.195767e+01	-1.080861e+01
4.220002e+01	-1.085443e+01
4.244377e+01	-1.090051e+01
4.268892e+01	-1.094694e+01
4.293549e+01	-1.099229e+01
4.318348e+01	-1.103775e+01
4.343291e+01	-1.108536e+01
4.368377e+01	-1.113054e+01
4.393609e+01	-1.117646e+01
4.418986e+01	-1.122374e+01
4.444510e+01	-1.126927e+01
4.470182e+01	-1.131627e+01
4.496001e+01	-1.136216e+01
4.521970e+01	-1.140881e+01
4.548089e+01	-1.145441e+01
4.574358e+01	-1.150102e+01
4.600779e+01	-1.154703e+01
4.627353e+01	-1.159459e+01
4.654081e+01	-1.164034e+01
4.680963e+01	-1.168745e+01
4.708000e+01	-1.173403e+01
4.735193e+01	-1.178079e+01
4.762543e+01	-1.182718e+01
4.790051e+01	-1.187472e+01
4.817719e+01	-1.192168e+01
4.845545e+01	-1.196764e+01
4.873533e+01	-1.201496e+01
4.901682e+01	-1.206200e+01
4.929994e+01	-1.210869e+01
4.958470e+01	-1.215653e+01
4.987110e+01	-1.220274e+01
5.015915e+01	-1.225023e+01
5.044887e+01	-1.229711e+01
5.074026e+01	-1.234424e+01
5.103333e+01	-1.239110e+01
5.132810e+01	-1.243779e+01
5.162457e+01	-1.248489e+01
5.192275e+01	-1.253178e+01
5.222265e+01	-1.257975e+01
5.252429e+01	-1.262754e+01
5.282767e+01	-1.267411e+01
5.313280e+01	-1.272124e+01
5.343969e+01	-1.276857e+01
5.374836e+01	-1.281660e+01
5.405880e+01	-1.286423e+01
5.437105e+01	-1.291146e+01
5.468509e+01	-1.295892e+01
5.500095e+01	-1.300628e+01
5.531863e+01	-1.305359e+01
5.563815e+01	-1.310115e+01
5.595951e+01	-1.314958e+01
5.628273e+01	-1.319618e+01
5.660782e+01	-1.324414e+01
5.693479e+01	-1.329084e+01
5.726364e+01	-1.333884e+01
5.759439e+01	-1.338766e+01
5.792705e+01	-1.343539e+01
5.826164e+01	-1.348202e+01
5.859815e+01	-1.353102e+01
5.893662e+01	-1.357879e+01
5.927703e+01	-1.362596e+01
5.961941e+01	-1.367356e+01
5.996377e+01	-1.372257e+01
6.031012e+01	-1.377006e+01
6.065847e+01	-1.381782e+01
6.100883e+01	-1.386617e+01
6.136121e+01	-1.391395e+01
6.171563e+01	-1.396177e+01
6.207210e+01	-1.401054e+01
6.243063e+01	-1.405793e+01
6.279122e+01	-1.410537e+01
6.315390e+01	-1.415447e+01
6.351868e+01	-1.420191e+01
6.388556e+01	-1.425046e+01
6.425456e+01	-1.429857e+01
6.462569e+01	-1.434747e+01
6.499897e+01	-1.439522e+01
6.537440e+01	-1.444332e+01
6.575200e+01	-1.449106e+01
6.613178e+01	-1.453898e+01
6.651375e+01	-1.458753e+01
6.689793e+01	-1.463650e+01
6.728433e+01	-1.468433e+01
6.767297e+01	-1.473298e+01
6.806384e+01	-1.478171e+01
6.845698e+01	-1.482950e+01
6.885238e+01	-1.487839e+01
6.925007e+01	-1.492711e+01
6.965005e+01	-1.497465e+01
7.005235e+01	-1.502364e+01
7.045697e+01	-1.507209e+01
7.086393e+01	-1.512060e+01
7.127323e+01	-1.516871e+01
7.168490e+01	-1.521708e+01
7.209895e+01	-1.526585e+01
7.251539e+01	-1.531350e+01
7.293424e+01	-1.536224e+01
7.335551e+01	-1.541164e+01
7.377920e+01	-1.546017e+01
7.420535e+01	-1.550866e+01
7.463396e+01	-1.555677e+01
7.506504e+01	-1.560556e+01
7.549861e+01	-1.565501e+01
7.593469e+01	-1.570344e+01
7.637328e+01	-1.575191e+01
7.681441e+01	-1.580066e+01
7.725809e+01	-1.584933e+01
7.770433e+01	-1.589763e+01
7.815315e+01	-1.594576e+01
7.860456e+01	-1.599517e+01
7.905857e+01	-1.604453e+01
7.951521e+01	-1.609378e+01
7.997449e+01	-1.614278e+01
8.043642e+01	-1.619076e+01
8.090102e+01	-1.624077e+01
8.136830e+01	-1.628908e+01
8.183828e+01	-1.633663e+01
8.231097e+01	-1.638668e+01
8.278640e+01	-1.643513e+01
8.326457e+01	-1.648408e+01
8.374550e+01	-1.653342e+01
8.422921e+01	-1.658248e+01
8.471572e+01	-1.663222e+01
8.520503e+01	-1.667942e+01
8.569717e+01	-1.672821e+01
8.619215e+01	-1.677854e+01
8.669000e+01	-1.682641e+01
8.719071e+01	-1.687698e+01
8.769432e+01	-1.692543e+01
8.820084e+01	-1.697385e+01
8.871029e+01	-1.702217e+01
8.922267e+01	-1.707188e+01
8.973802e+01	-1.712094e+01
9.025634e+01	-1.716986e+01
9.077766e+01	-1.722014e+01
9.130199e+01	-1.726895e+01
9.182935e+01	-1.731724e+01
9.235975e+01	-1.736651e+01
9.289321e+01	-1.741641e+01
9.342976e+01	-1.746460e+01
9.396941e+01	-1.751477e+01
9.451217e+01	-1.756359e+01
9.505807e+01	-1.761250e+01
9.560712e+01	-1.766176e+01
9.615934e+01	-1.771112e+01
9.671476e+01	-1.775922e+01
9.727338e+01	-1.780931e+01
9.783522e+01	-1.785723e+01
9.840032e+01	-1.790650e+01
9.896867e+01	-1.795613e+01
9.954031e+01	-1.800633e+01
1.001153e+02	-1.805488e+01
1.006935e+02	-1.810447e+01
1.012751e+02	-1.815404e+01
1.018601e+02	-1.820282e+01
1.024484e+02	-1.825246e+01
1.030402e+02	-1.830077e+01
1.036353e+02	-1.835061e+01
1.042339e+02	-1.840019e+01
1.048360e+02	-1.844823e+01
1.054415e+02	-1.849785e+01
1.060505e+02	-1.854687e+01
1.066631e+02	-1.859658e+01
1.072791e+02	-1.864682e+01
1.078988e+02	-1.869662e+01
1.085220e+02	-1.874732e+01
1.091488e+02	-1.879481e+01
1.097793e+02	-1.884386e+01
1.104133e+02	-1.889362e+01
1.110511e+02	-1.894215e+01
1.116925e+02	-1.899253e+01
1.123376e+02	-1.904219e+01
1.129865e+02	-1.908933e+01
1.136391e+02	-1.914111e+01
1.142955e+02	-1.919006e+01
1.149556e+02	-1.923967e+01
1.156196e+02	-1.928956e+01
1.162874e+02	-1.933911e+01
1.169591e+02	-1.938646e+01
1.176347e+02	-1.943754e+01
1.183141e+02	-1.948613e+01
1.189975e+02	-1.953695e+01
1.196848e+02	-1.958545e+01
1.203761e+02	-1.963520e+01
1.210714e+02	-1.968460e+01
1.217707e+02	-1.973455e+01
1.224740e+02	-1.978503e+01
1.231814e+02	-1.983375e+01
1.238929e+02	-1.988335e+01
1.246085e+02	-1.993252e+01
1.253283e+02	-1.998328e+01
1.260522e+02	-2.002930e+01
1.267802e+02	-2.007927e+01
1.275125e+02	-2.013054e+01
1.282490e+02	-2.017994e+01
1.289898e+02	-2.022797e+01
1.297348e+02	-2.027876e+01
1.304842e+02	-2.032900e+01
1.312378e+02	-2.037988e+01
1.319959e+02	-2.042692e+01
1.327583e+02	-2.047903e+01
1.335251e+02	-2.052683e+01
1.342963e+02	-2.057481e+01
1.350720e+02	-2.062568e+01
1.358522e+02	-2.067592e+01
1.366368e+02	-2.072517e+01
1.374260e+02	-2.077543e+01
1.382198e+02	-2.082613e+01
1.390182e+02	-2.087508e+01
1.398211e+02	-2.092380e+01
1.406287e+02	-2.097469e+01
1.414410e+02	-2.102300e+01
1.422579e+02	-2.107242e+01
1.430796e+02	-2.112435e+01
1.439060e+02	-2.117207e+01
1.447372e+02	-2.122350e+01
1.455732e+02	-2.127098e+01
1.464141e+02	-2.132169e+01
1.472597e+02	-2.137147e+01
1.481103e+02	-2.142160e+01
1.489658e+02	-2.147093e+01
1.498262e+02	-2.151947e+01
1.506916e+02	-2.157165e+01
1.515620e+02	-2.161957e+01
1.524374e+02	-2.166963e+01
1.533179e+02	-2.171729e+01
1.542034e+02	-2.176966e+01
1.550941e+02	-2.181919e+01
1.559899e+02	-2.186683e+01
1.568909e+02	-2.191646e+01
1.577971e+02	-2.196736e+01
1.587085e+02	-2.201629e+01
1.596252e+02	-2.206644e+01
1.605472e+02	-2.211515e+01
1.614745e+02	-2.216610e+01
1.624072e+02	-2.221649e+01
1.633453e+02	-2.226661e+01
1.642887e+02	-2.231328e+01
1.652377e+02	-2.236582e+01
1.661921e+02	-2.241407e+01
1.671520e+02	-2.246493e+01
1.681175e+02	-2.251347e+01
1.690885e+02	-2.256370e+01
1.700651e+02	-2.261453e+01
1.710474e+02	-2.266523e+01
1.720354e+02	-2.271329e+01
1.730291e+02	-2.276404e+01
1.740285e+02	-2.281256e+01
1.750337e+02	-2.286095e+01
1.760446e+02	-2.291194e+01
1.770615e+02	-2.296333e+01
1.780842e+02	-2.301334e+01
1.791128e+02	-2.306091e+01
1.801473e+02	-2.310984e+01
1.811878e+02	-2.315988e+01
1.822344e+02	-2.321097e+01
1.832870e+02	-2.326145e+01
1.843456e+02	-2.331064e+01
1.854104e+02	-2.336021e+01
1.864813e+02	-2.341157e+01
1.875584e+02	-2.345934e+01
1.886418e+02	-2.351042e+01
1.897313e+02	-2.356042e+01
1.908272e+02	-2.361028e+01
1.919294e+02	-2.365941e+01
1.930380e+02	-2.371086e+01
1.941530e+02	-2.375958e+01
1.952744e+02	-2.380952e+01
1.964023e+02	-2.385930e+01
1.975367e+02	-2.390659e+01
1.986777e+02	-2.396118e+01
1.998252e+02	-2.401014e+01
2.009794e+02	-2.405845e+01
2.021403e+02	-2.410791e+01
2.033078e+02	-2.415849e+01
2.044821e+02	-2.420829e+01
2.056632e+02	-2.425741e+01
2.068511e+02	-2.430992e+01
2.080459e+02	-2.435521e+01
2.092475e+02	-2.440515e+01
2.104561e+02	-2.445896e+01
2.116717e+02	-2.450825e+01
2.128943e+02	-2.455775e+01
2.141240e+02	-2.460792e+01
2.153608e+02	-2.465715e+01
2.166047e+02	-2.470920e+01
2.178558e+02	-2.475787e+01
2.191141e+02	-2.480594e+01
2.203797e+02	-2.485792e+01
2.216526e+02	-2.490796e+01
2.229329e+02	-2.495788e+01
2.242205e+02	-2.500825e+01
2.255156e+02	-2.505910e+01
2.268182e+02	-2.510730e+01
2.281283e+02	-2.515658e+01
2.294459e+02	-2.520557e+01
2.307712e+02	-2.525657e+01
2.321041e+02	-2.530719e+01
2.334447e+02	-2.535331e+01
2.347931e+02	-2.540874e+01
2.361493e+02	-2.545652e+01
2.375133e+02	-2.550566e+01
2.388851e+02	-2.555260e+01
2.402649e+02	-2.560661e+01
2.416527e+02	-2.565793e+01
2.430484e+02	-2.570406e+01
2.444523e+02	-2.575807e+01
2.458642e+02	-2.580799e+01
2.472843e+02	-2.585439e+01
2.487126e+02	-2.590601e+01
2.501492e+02	-2.595911e+01
2.515940e+02	-2.600405e+01
2.530472e+02	-2.605363e+01
2.545088e+02	-2.610491e+01
2.559789e+02	-2.615153e+01
2.574574e+02	-2.620770e+01
2.589444e+02	-2.625431e+01
2.604401e+02	-2.630236e+01
2.619444e+02	-2.635900e+01
2.634574e+02	-2.640553e+01
2.649791e+02	-2.645136e+01
2.665096e+02	-2.650562e+01
2.680489e+02	-2.655587e+01
2.695972e+02	-2.660472e+01
2.711544e+02	-2.665555e+01
2.727205e+02	-2.670374e+01
2.742958e+02	-2.675627e+01
2.758801e+02	-2.680446e+01
2.774736e+02	-2.685583e+01
2.790762e+02	-2.690710e+01
2.806882e+02	-2.695275e+01
2.823094e+02	-2.700213e+01
2.839400e+02	-2.705502e+01
2.855800e+02	-2.710535e+01
2.872295e+02	-2.715563e+01
2.888886e+02	-2.720308e+01
2.905572e+02	-2.725995e+01
2.922354e+02	-2.730166e+01
2.939234e+02	-2.735522e+01
2.956211e+02	-2.740760e+01
2.973286e+02	-2.745316e+01
2.990459e+02	-2.750433e+01
3.007732e+02	-2.755462e+01
3.025104e+02	-2.760123e+01
3.042577e+02	-2.765673e+01
3.060151e+02	-2.770048e+01
3.077826e+02	-2.775545e+01
3.095604e+02	-2.780479e+01
3.113484e+02	-2.785752e+01
3.131467e+02	-2.790657e+01
3.149554e+02	-2.795482e+01
3.167746e+02	-2.800187e+01
3.186043e+02	-2.805898e+01
3.204445e+02	-2.810219e+01
3.222954e+02	-2.815526e+01
3.241570e+02	-2.820760e+01
3.260293e+02	-2.825759e+01
3.279124e+02	-2.830811e+01
3.298064e+02	-2.835218e+01
3.317114e+02	-2.840360e+01
3.336273e+02	-2.845759e+01
3.355544e+02	-2.850505e+01
3.374925e+02	-2.855434e+01
3.394418e+02	-2.860591e+01
3.414024e+02	-2.865235e+01
3.433744e+02	-2.870342e+01
3.453577e+02	-2.875256e+01
3.473525e+02	-2.880537e+01
3.493588e+02	-2.885556e+01
3.513766e+02	-2.890299e+01
3.534062e+02	-2.895565e+01
3.554474e+02	-2.900679e+01
3.575005e+02	-2.906095e+01
3.595654e+02	-2.910423e+01
3.616422e+02	-2.915784e+01
3.637311e+02	-2.920700e+01
3.658320e+02	-2.925662e+01
3.679450e+02	-2.930529e+01
3.700702e+02	-2.935380e+01
3.722077e+02	-2.940598e+01
3.743576e+02	-2.945575e+01
3.765199e+02	-2.950989e+01
3.786946e+02	-2.955713e+01
3.808820e+02	-2.960910e+01
3.830819e+02	-2.965870e+01
3.852946e+02	-2.970619e+01
3.875200e+02	-2.975754e+01
3.897583e+02	-2.980814e+01
3.920096e+02	-2.985654e+01
3.942738e+02	-2.990859e+01
3.965511e+02	-2.995638e+01
3.988416e+02	-3.000850e+01
4.011452e+02	-3.006325e+01
4.034622e+02	-3.010998e+01
4.057926e+02	-3.015434e+01
4.081365e+02	-3.021326e+01
4.104938e+02	-3.026033e+01
4.128648e+02	-3.030418e+01
4.152495e+02	-3.036139e+01
4.176480e+02	-3.040753e+01
4.200603e+02	-3.045908e+01
4.224866e+02	-3.051047e+01
4.249268e+02	-3.056107e+01
4.273812e+02	-3.060986e+01
4.298497e+02	-3.065792e+01
4.323325e+02	-3.071415e+01
4.348297e+02	-3.076083e+01
4.373412e+02	-3.080702e+01
4.398673e+02	-3.085779e+01
4.424079e+02	-3.091723e+01
4.449633e+02	-3.095788e+01
4.475334e+02	-3.101168e+01
4.501183e+02	-3.105702e+01
4.527182e+02	-3.111534e+01
4.553330e+02	-3.115396e+01
4.579630e+02	-3.120957e+01
4.606082e+02	-3.126237e+01
4.632687e+02	-3.131322e+01
4.659445e+02	-3.136310e+01
4.686358e+02	-3.141394e+01
4.713426e+02	-3.146426e+01
4.740650e+02	-3.151142e+01
4.768032e+02	-3.156000e+01
4.795572e+02	-3.160671e+01
4.823271e+02	-3.166474e+01
4.851130e+02	-3.171342e+01
4.879150e+02	-3.176537e+01
4.907332e+02	-3.181467e+01
4.935676e+02	-3.186486e+01
4.964185e+02	-3.191073e+01
4.992858e+02	-3.196085e+01
5.021696e+02	-3.201137e+01
5.050701e+02	-3.206675e+01
5.079874e+02	-3.211246e+01
5.109215e+02	-3.216220e+01
5.138726e+02	-3.220834e+01
5.168407e+02	-3.226120e+01
5.198259e+02	-3.231471e+01
5.228284e+02	-3.236479e+01
5.258482e+02	-3.241735e+01
5.288855e+02	-3.246016e+01
5.319403e+02	-3.251873e+01
5.350128e+02	-3.256498e+01
5.381030e+02	-3.262377e+01
5.412111e+02	-3.266352e+01
5.443371e+02	-3.270820e+01
5.474812e+02	-3.277011e+01
5.506434e+02	-3.282130e+01
5.538239e+02	-3.286554e+01
5.570228e+02	-3.292127e+01
5.602401e+02	-3.296921e+01
5.634760e+02	-3.301659e+01
5.667306e+02	-3.305983e+01
5.700040e+02	-3.312306e+01
5.732964e+02	-3.317257e+01
5.766077e+02	-3.321790e+01
5.799382e+02	-3.326747e+01
5.832879e+02	-3.331766e+01
5.866569e+02	-3.336654e+01
5.900454e+02	-3.342084e+01
5.934535e+02	-3.346750e+01
5.968813e+02	-3.352456e+01
6.003288e+02	-3.357221e+01
6.037963e+02	-3.362044e+01
6.072838e+02	-3.367848e+01
6.107914e+02	-3.372393e+01
6.143194e+02	-3.377260e+01
6.178676e+02	-3.382007e+01
6.214364e+02	-3.386914e+01
6.250258e+02	-3.392125e+01
6.286359e+02	-3.397365e+01
6.322669e+02	-3.402272e+01
6.359189e+02	-3.407631e+01
6.395919e+02	-3.412667e+01
6.432862e+02	-3.417634e+01
6.470017e+02	-3.422474e+01
6.507388e+02	-3.427514e+01
6.544974e+02	-3.433442e+01
6.582778e+02	-3.437307e+01
6.620800e+02	-3.442322e+01
6.659041e+02	-3.448313e+01
6.697504e+02	-3.452506e+01
6.736188e+02	-3.457917e+01
6.775096e+02	-3.462735e+01
6.814229e+02	-3.468335e+01
6.853587e+02	-3.472659e+01
6.893173e+02	-3.478647e+01
6.932988e+02	-3.483775e+01
6.973033e+02	-3.487916e+01
7.013309e+02	-3.494165e+01
