Frequency(Hz)	Magnitude(dB)
1.000000e+01	-2.037124e+00
1.005776e+01	-2.055865e+00
1.011585e+01	-2.074889e+00
1.017428e+01	-2.094018e+00
1.023305e+01	-2.113261e+00
1.029215e+01	-2.132434e+00
1.035160e+01	-2.152163e+00
1.041139e+01	-2.171571e+00
1.047153e+01	-2.191326e+00
1.053201e+01	-2.211394e+00
1.059284e+01	-2.231304e+00
1.065403e+01	-2.251626e+00
1.071556e+01	-2.271685e+00
1.077746e+01	-2.292311e+00
1.083971e+01	-2.312852e+00
1.090232e+01	-2.333531e+00
1.096529e+01	-2.354438e+00
1.102862e+01	-2.375351e+00
1.109232e+01	-2.396542e+00
1.115639e+01	-2.417739e+00
1.122083e+01	-2.439268e+00
1.128564e+01	-2.460826e+00
1.135083e+01	-2.482571e+00
1.141639e+01	-2.504363e+00
1.148233e+01	-2.526411e+00
1.154865e+01	-2.548481e+00
1.161536e+01	-2.570748e+00
1.168245e+01	-2.593244e+00
1.174992e+01	-2.615759e+00
1.181779e+01	-2.638703e+00
1.188605e+01	-2.661094e+00
1.195470e+01	-2.684451e+00
1.202375e+01	-2.707287e+00
1.209320e+01	-2.730929e+00
1.216305e+01	-2.754299e+00
1.223330e+01	-2.777698e+00
1.230396e+01	-2.801449e+00
1.237503e+01	-2.825420e+00
1.244651e+01	-2.849291e+00
1.251840e+01	-2.873315e+00
1.259070e+01	-2.897827e+00
1.266343e+01	-2.922136e+00
1.273657e+01	-2.946694e+00
1.281014e+01	-2.971464e+00
1.288413e+01	-2.996274e+00
1.295855e+01	-3.021096e+00
1.303339e+01	-3.046386e+00
1.310867e+01	-3.071784e+00
1.318439e+01	-3.097319e+00
1.326054e+01	-3.122745e+00
1.333713e+01	-3.148502e+00
1.341417e+01	-3.174336e+00
1.349165e+01	-3.200299e+00
1.356958e+01	-3.226541e+00
1.364795e+01	-3.253079e+00
1.372678e+01	-3.279396e+00
1.380607e+01	-3.305722e+00
1.388581e+01	-3.332673e+00
1.396602e+01	-3.359313e+00
1.404668e+01	-3.386623e+00
1.412782e+01	-3.413747e+00
1.420942e+01	-3.440938e+00
1.429149e+01	-3.468544e+00
1.437404e+01	-3.495962e+00
1.445706e+01	-3.523746e+00
1.454057e+01	-3.551453e+00
1.462455e+01	-3.579426e+00
1.470902e+01	-3.607573e+00
1.479398e+01	-3.635843e+00
1.487943e+01	-3.664297e+00
1.496537e+01	-3.692974e+00
1.505181e+01	-3.721559e+00
1.513875e+01	-3.750679e+00
1.522619e+01	-3.779637e+00
1.531414e+01	-3.808618e+00
1.540259e+01	-3.838269e+00
1.549156e+01	-3.867451e+00
1.558103e+01	-3.897185e+00
1.567103e+01	-3.926929e+00
1.576155e+01	-3.956510e+00
1.585258e+01	-3.986621e+00
1.594415e+01	-4.017034e+00
1.603624e+01	-4.046871e+00
1.612886e+01	-4.077186e+00
1.622202e+01	-4.107761e+00
1.631572e+01	-4.138305e+00
1.640996e+01	-4.169217e+00
1.650474e+01	-4.200106e+00
1.660008e+01	-4.230980e+00
1.669596e+01	-4.262739e+00
1.679239e+01	-4.293609e+00
1.688938e+01	-4.325119e+00
1.698694e+01	-4.357088e+00
1.708505e+01	-4.388768e+00
1.718373e+01	-4.420713e+00
1.728299e+01	-4.452670e+00
1.738281e+01	-4.484553e+00
1.748322e+01	-4.517024e+00
1.758420e+01	-4.549685e+00
1.768576e+01	-4.582076e+00
1.778792e+01	-4.614725e+00
1.789066e+01	-4.647435e+00
1.799399e+01	-4.680704e+00
1.809793e+01	-4.713503e+00
1.820246e+01	-4.746882e+00
1.830760e+01	-4.779907e+00
1.841334e+01	-4.813429e+00
1.851969e+01	-4.847312e+00
1.862666e+01	-4.881101e+00
1.873425e+01	-4.914682e+00
1.884246e+01	-4.948542e+00
1.895129e+01	-4.982686e+00
1.906075e+01	-5.016995e+00
1.917085e+01	-5.051249e+00
1.928158e+01	-5.085309e+00
1.939295e+01	-5.120027e+00
1.950496e+01	-5.154602e+00
1.961762e+01	-5.189419e+00
1.973093e+01	-5.224711e+00
1.984490e+01	-5.259597e+00
1.995952e+01	-5.294686e+00
2.007480e+01	-5.329939e+00
2.019076e+01	-5.365662e+00
2.030738e+01	-5.401255e+00
2.042467e+01	-5.437129e+00
2.054264e+01	-5.472599e+00
2.066130e+01	-5.508502e+00
2.078064e+01	-5.544337e+00
2.090066e+01	-5.580639e+00
2.102139e+01	-5.616751e+00
2.114280e+01	-5.653237e+00
2.126492e+01	-5.689556e+00
2.138775e+01	-5.726143e+00
2.151128e+01	-5.762887e+00
2.163553e+01	-5.799749e+00
2.176050e+01	-5.836878e+00
2.188619e+01	-5.873582e+00
2.201260e+01	-5.910795e+00
2.213974e+01	-5.948041e+00
2.226762e+01	-5.985587e+00
2.239624e+01	-6.022775e+00
2.252560e+01	-6.060591e+00
2.265571e+01	-6.098494e+00
2.278656e+01	-6.135718e+00
2.291818e+01	-6.173723e+00
2.305055e+01	-6.212060e+00
2.318369e+01	-6.250153e+00
2.331760e+01	-6.288273e+00
2.345228e+01	-6.326389e+00
2.358774e+01	-6.365144e+00
2.372398e+01	-6.403263e+00
2.386101e+01	-6.442389e+00
2.399883e+01	-6.480953e+00
2.413745e+01	-6.519650e+00
2.427686e+01	-6.558631e+00
2.441709e+01	-6.597839e+00
2.455812e+01	-6.636747e+00
2.469997e+01	-6.675784e+00
2.484263e+01	-6.715174e+00
2.498612e+01	-6.755091e+00
2.513044e+01	-6.794372e+00
2.527559e+01	-6.833819e+00
2.542158e+01	-6.873707e+00
2.556842e+01	-6.913224e+00
2.571610e+01	-6.953226e+00
2.586463e+01	-6.993405e+00
2.601403e+01	-7.033123e+00
2.616428e+01	-7.073437e+00
2.631541e+01	-7.114046e+00
2.646740e+01	-7.154000e+00
2.662028e+01	-7.194567e+00
2.677404e+01	-7.234912e+00
2.692868e+01	-7.275564e+00
2.708422e+01	-7.316417e+00
2.724066e+01	-7.357142e+00
2.739800e+01	-7.398189e+00
2.755625e+01	-7.438762e+00
2.771541e+01	-7.480316e+00
2.787550e+01	-7.520909e+00
2.803650e+01	-7.562356e+00
2.819844e+01	-7.603856e+00
2.836131e+01	-7.645513e+00
2.852513e+01	-7.686966e+00
2.868989e+01	-7.728242e+00
2.885560e+01	-7.769893e+00
2.902227e+01	-7.811573e+00
2.918990e+01	-7.853257e+00
2.935850e+01	-7.895129e+00
2.952807e+01	-7.936889e+00
2.969863e+01	-7.978762e+00
2.987016e+01	-8.021026e+00
3.004269e+01	-8.063537e+00
3.021622e+01	-8.105486e+00
3.039075e+01	-8.147932e+00
3.056628e+01	-8.190368e+00
3.074283e+01	-8.232307e+00
3.092040e+01	-8.275588e+00
3.109900e+01	-8.318200e+00
3.127862e+01	-8.360726e+00
3.145929e+01	-8.403438e+00
3.164099e+01	-8.446188e+00
3.182375e+01	-8.489239e+00
3.200756e+01	-8.532216e+00
3.219244e+01	-8.575038e+00
3.237838e+01	-8.618237e+00
3.256540e+01	-8.661562e+00
3.275349e+01	-8.704729e+00
3.294268e+01	-8.748252e+00
3.313295e+01	-8.791061e+00
3.332433e+01	-8.834609e+00
3.351681e+01	-8.878334e+00
3.371040e+01	-8.922039e+00
3.390511e+01	-8.965804e+00
3.410094e+01	-9.009120e+00
3.429791e+01	-9.053264e+00
3.449601e+01	-9.096936e+00
3.469526e+01	-9.140321e+00
3.489566e+01	-9.184871e+00
3.509721e+01	-9.228391e+00
3.529993e+01	-9.272613e+00
3.550382e+01	-9.317255e+00
3.570889e+01	-9.360836e+00
3.591515e+01	-9.405112e+00
3.612259e+01	-9.449375e+00
3.633123e+01	-9.494282e+00
3.654108e+01	-9.538808e+00
3.675214e+01	-9.583635e+00
3.696442e+01	-9.627669e+00
3.717792e+01	-9.671538e+00
3.739266e+01	-9.716480e+00
3.760864e+01	-9.761669e+00
3.782587e+01	-9.806679e+00
3.804435e+01	-9.851096e+00
3.826409e+01	-9.895594e+00
3.848510e+01	-9.941078e+00
3.870739e+01	-9.986268e+00
3.893096e+01	-1.003079e+01
3.915583e+01	-1.007569e+01
3.938199e+01	-1.012124e+01
3.960946e+01	-1.016622e+01
3.983824e+01	-1.021155e+01
4.006834e+01	-1.025657e+01
4.029978e+01	-1.030266e+01
4.053255e+01	-1.034798e+01
4.076666e+01	-1.039280e+01
4.100213e+01	-1.043865e+01
4.123896e+01	-1.048369e+01
4.147715e+01	-1.052971e+01
4.171672e+01	-1.057515e+01
4.195767e+01	-1.062091e+01
4.220002e+01	-1.066651e+01
4.244377e+01	-1.071238e+01
4.268892e+01	-1.075796e+01
4.293549e+01	-1.080336e+01
4.318348e+01	-1.084983e+01
4.343291e+01	-1.089533e+01
4.368377e+01	-1.094145e+01
4.393609e+01	-1.098788e+01
4.418986e+01	-1.103426e+01
4.444510e+01	-1.108009e+01
4.470182e+01	-1.112617e+01
4.496001e+01	-1.117233e+01
4.521970e+01	-1.121863e+01
4.548089e+01	-1.126489e+01
4.574358e+01	-1.131139e+01
4.600779e+01	-1.135758e+01
4.627353e+01	-1.140403e+01
4.654081e+01	-1.145073e+01
4.680963e+01	-1.149628e+01
4.708000e+01	-1.154328e+01
4.735193e+01	-1.158957e+01
4.762543e+01	-1.163643e+01
4.790051e+01	-1.168311e+01
4.817719e+01	-1.172948e+01
4.845545e+01	-1.177645e+01
4.873533e+01	-1.182354e+01
4.901682e+01	-1.186952e+01
4.929994e+01	-1.191645e+01
4.958470e+01	-1.196379e+01
4.987110e+01	-1.201054e+01
5.015915e+01	-1.205700e+01
5.044887e+01	-1.210376e+01
5.074026e+01	-1.215103e+01
5.103333e+01	-1.219827e+01
5.132810e+01	-1.224504e+01
5.162457e+01	-1.229260e+01
5.192275e+01	-1.233976e+01
5.222265e+01	-1.238667e+01
5.252429e+01	-1.243374e+01
5.282767e+01	-1.248044e+01
5.313280e+01	-1.252768e+01
5.343969e+01	-1.257518e+01
5.374836e+01	-1.262257e+01
5.405880e+01	-1.267014e+01
5.437105e+01	-1.271716e+01
5.468509e+01	-1.276476e+01
5.500095e+01	-1.281173e+01
5.531863e+01	-1.285945e+01
5.563815e+01	-1.290638e+01
5.595951e+01	-1.295395e+01
5.628273e+01	-1.300162e+01
5.660782e+01	-1.304992e+01
5.693479e+01	-1.309723e+01
5.726364e+01	-1.314446e+01
5.759439e+01	-1.319152e+01
5.792705e+01	-1.323956e+01
5.826164e+01	-1.328797e+01
5.859815e+01	-1.333483e+01
5.893662e+01	-1.338308e+01
5.927703e+01	-1.343040e+01
5.961941e+01	-1.347773e+01
5.996377e+01	-1.352581e+01
6.031012e+01	-1.357415e+01
6.065847e+01	-1.362163e+01
6.100883e+01	-1.366922e+01
6.136121e+01	-1.371739e+01
6.171563e+01	-1.376596e+01
6.207210e+01	-1.381329e+01
6.243063e+01	-1.386199e+01
6.279122e+01	-1.390926e+01
6.315390e+01	-1.395634e+01
6.351868e+01	-1.400517e+01
6.388556e+01	-1.405360e+01
6.425456e+01	-1.410125e+01
6.462569e+01	-1.414998e+01
6.499897e+01	-1.419713e+01
6.537440e+01	-1.424595e+01
6.575200e+01	-1.429321e+01
6.613178e+01	-1.434221e+01
6.651375e+01	-1.438993e+01
6.689793e+01	-1.443808e+01
6.728433e+01	-1.448690e+01
6.767297e+01	-1.453510e+01
6.806384e+01	-1.458282e+01
6.845698e+01	-1.463137e+01
6.885238e+01	-1.468006e+01
6.925007e+01	-1.472820e+01
6.965005e+01	-1.477666e+01
7.005235e+01	-1.482556e+01
7.045697e+01	-1.487257e+01
7.086393e+01	-1.492072e+01
7.127323e+01	-1.497045e+01
7.168490e+01	-1.501860e+01
7.209895e+01	-1.506783e+01
7.251539e+01	-1.511587e+01
7.293424e+01	-1.516382e+01
7.335551e+01	-1.521230e+01
7.377920e+01	-1.526117e+01
7.420535e+01	-1.530962e+01
7.463396e+01	-1.535803e+01
7.506504e+01	-1.540694e+01
7.549861e+01	-1.545509e+01
7.593469e+01	-1.550362e+01
7.637328e+01	-1.555285e+01
7.681441e+01	-1.560121e+01
7.725809e+01	-1.564946e+01
7.770433e+01	-1.569882e+01
7.815315e+01	-1.574628e+01
7.860456e+01	-1.579658e+01
7.905857e+01	-1.584528e+01
7.951521e+01	-1.589361e+01
7.997449e+01	-1.594190e+01
8.043642e+01	-1.599043e+01
8.090102e+01	-1.603935e+01
8.136830e+01	-1.608909e+01
8.183828e+01	-1.613663e+01
8.231097e+01	-1.618563e+01
8.278640e+01	-1.623520e+01
8.326457e+01	-1.628464e+01
8.374550e+01	-1.633215e+01
8.422921e+01	-1.638174e+01
8.471572e+01	-1.643057e+01
8.520503e+01	-1.647866e+01
8.569717e+01	-1.652856e+01
8.619215e+01	-1.657741e+01
8.669000e+01	-1.662561e+01
8.719071e+01	-1.667496e+01
8.769432e+01	-1.672395e+01
8.820084e+01	-1.677321e+01
8.871029e+01	-1.682155e+01
8.922267e+01	-1.687094e+01
8.973802e+01	-1.692034e+01
9.025634e+01	-1.696831e+01
9.077766e+01	-1.701792e+01
9.130199e+01	-1.706673e+01
9.182935e+01	-1.711651e+01
9.235975e+01	-1.716438e+01
9.289321e+01	-1.721363e+01
9.342976e+01	-1.726175e+01
9.396941e+01	-1.731357e+01
9.451217e+01	-1.736051e+01
9.505807e+01	-1.740996e+01
9.560712e+01	-1.745886e+01
9.615934e+01	-1.750955e+01
9.671476e+01	-1.755866e+01
9.727338e+01	-1.760768e+01
9.783522e+01	-1.765661e+01
9.840032e+01	-1.770660e+01
9.896867e+01	-1.775442e+01
9.954031e+01	-1.780477e+01
1.001153e+02	-1.785423e+01
1.006935e+02	-1.790265e+01
1.012751e+02	-1.795288e+01
1.018601e+02	-1.800091e+01
1.024484e+02	-1.805010e+01
1.030402e+02	-1.809951e+01
1.036353e+02	-1.814835e+01
1.042339e+02	-1.819871e+01
1.048360e+02	-1.824735e+01
1.054415e+02	-1.829688e+01
1.060505e+02	-1.834582e+01
1.066631e+02	-1.839507e+01
1.072791e+02	-1.844489e+01
1.078988e+02	-1.849352e+01
1.085220e+02	-1.854174e+01
1.091488e+02	-1.859169e+01
1.097793e+02	-1.864210e+01
1.104133e+02	-1.869152e+01
1.110511e+02	-1.874078e+01
1.116925e+02	-1.878965e+01
1.123376e+02	-1.883872e+01
1.129865e+02	-1.888987e+01
1.136391e+02	-1.893790e+01
1.142955e+02	-1.898761e+01
1.149556e+02	-1.903682e+01
1.156196e+02	-1.908612e+01
1.162874e+02	-1.913570e+01
1.169591e+02	-1.918518e+01
1.176347e+02	-1.923480e+01
1.183141e+02	-1.928329e+01
1.189975e+02	-1.933269e+01
1.196848e+02	-1.938188e+01
1.203761e+02	-1.943154e+01
1.210714e+02	-1.948103e+01
1.217707e+02	-1.953173e+01
1.224740e+02	-1.958177e+01
1.231814e+02	-1.963041e+01
1.238929e+02	-1.968094e+01
1.246085e+02	-1.972881e+01
1.253283e+02	-1.977913e+01
1.260522e+02	-1.982761e+01
1.267802e+02	-1.987610e+01
1.275125e+02	-1.992860e+01
1.282490e+02	-1.997776e+01
1.289898e+02	-2.002680e+01
1.297348e+02	-2.007626e+01
1.304842e+02	-2.012569e+01
1.312378e+02	-2.017652e+01
1.319959e+02	-2.022607e+01
1.327583e+02	-2.027451e+01
1.335251e+02	-2.032312e+01
1.342963e+02	-2.037471e+01
1.350720e+02	-2.042418e+01
1.358522e+02	-2.047143e+01
1.366368e+02	-2.051956e+01
1.374260e+02	-2.057270e+01
1.382198e+02	-2.062070e+01
1.390182e+02	-2.067062e+01
1.398211e+02	-2.072129e+01
1.406287e+02	-2.077010e+01
1.414410e+02	-2.082024e+01
1.422579e+02	-2.086916e+01
1.430796e+02	-2.091991e+01
1.439060e+02	-2.096774e+01
1.447372e+02	-2.101836e+01
1.455732e+02	-2.106850e+01
1.464141e+02	-2.111828e+01
1.472597e+02	-2.116625e+01
1.481103e+02	-2.121719e+01
1.489658e+02	-2.126631e+01
1.498262e+02	-2.131545e+01
1.506916e+02	-2.136388e+01
1.515620e+02	-2.141407e+01
1.524374e+02	-2.146370e+01
1.533179e+02	-2.151519e+01
1.542034e+02	-2.156510e+01
1.550941e+02	-2.161418e+01
1.559899e+02	-2.166261e+01
1.568909e+02	-2.171424e+01
1.577971e+02	-2.176513e+01
1.587085e+02	-2.181107e+01
1.596252e+02	-2.186212e+01
1.605472e+02	-2.191436e+01
1.614745e+02	-2.196072e+01
1.624072e+02	-2.201103e+01
1.633453e+02	-2.206148e+01
1.642887e+02	-2.211019e+01
1.652377e+02	-2.216189e+01
1.661921e+02	-2.221233e+01
1.671520e+02	-2.226095e+01
1.681175e+02	-2.231164e+01
1.690885e+02	-2.236069e+01
1.700651e+02	-2.241013e+01
1.710474e+02	-2.246163e+01
1.720354e+02	-2.250899e+01
1.730291e+02	-2.255939e+01
1.740285e+02	-2.260902e+01
1.750337e+02	-2.265885e+01
1.760446e+02	-2.270943e+01
1.770615e+02	-2.275845e+01
1.780842e+02	-2.280913e+01
1.791128e+02	-2.285773e+01
1.801473e+02	-2.290991e+01
1.811878e+02	-2.295746e+01
1.822344e+02	-2.300854e+01
1.832870e+02	-2.305689e+01
1.843456e+02	-2.310712e+01
1.854104e+02	-2.315757e+01
1.864813e+02	-2.320547e+01
1.875584e+02	-2.325415e+01
1.886418e+02	-2.330539e+01
1.897313e+02	-2.335566e+01
1.908272e+02	-2.340430e+01
1.919294e+02	-2.345732e+01
1.930380e+02	-2.350663e+01
1.941530e+02	-2.355527e+01
1.952744e+02	-2.360748e+01
1.964023e+02	-2.365571e+01
1.975367e+02	-2.370484e+01
1.986777e+02	-2.375457e+01
1.998252e+02	-2.380407e+01
2.009794e+02	-2.385592e+01
2.021403e+02	-2.390894e+01
2.033078e+02	-2.395250e+01
2.044821e+02	-2.400286e+01
2.056632e+02	-2.405318e+01
2.068511e+02	-2.410503e+01
2.080459e+02	-2.415297e+01
2.092475e+02	-2.420528e+01
2.104561e+02	-2.425392e+01
2.116717e+02	-2.430026e+01
2.128943e+02	-2.435241e+01
2.141240e+02	-2.440350e+01
2.153608e+02	-2.445475e+01
2.166047e+02	-2.450425e+01
2.178558e+02	-2.454987e+01
2.191141e+02	-2.460270e+01
2.203797e+02	-2.465320e+01
2.216526e+02	-2.470145e+01
2.229329e+02	-2.475107e+01
2.242205e+02	-2.480377e+01
2.255156e+02	-2.485131e+01
2.268182e+02	-2.490104e+01
2.281283e+02	-2.495283e+01
2.294459e+02	-2.500095e+01
2.307712e+02	-2.505242e+01
2.321041e+02	-2.509935e+01
2.334447e+02	-2.515157e+01
2.347931e+02	-2.520141e+01
2.361493e+02	-2.525294e+01
2.375133e+02	-2.530106e+01
2.388851e+02	-2.535054e+01
2.402649e+02	-2.540194e+01
2.416527e+02	-2.545347e+01
2.430484e+02	-2.549943e+01
2.444523e+02	-2.555194e+01
2.458642e+02	-2.560155e+01
2.472843e+02	-2.565003e+01
2.487126e+02	-2.570059e+01
2.501492e+02	-2.575073e+01
2.515940e+02	-2.580094e+01
2.530472e+02	-2.584882e+01
2.545088e+02	-2.590082e+01
2.559789e+02	-2.595167e+01
2.574574e+02	-2.600227e+01
2.589444e+02	-2.605200e+01
2.604401e+02	-2.609831e+01
2.619444e+02	-2.615224e+01
2.634574e+02	-2.620086e+01
2.649791e+02	-2.624877e+01
2.665096e+02	-2.630027e+01
2.680489e+02	-2.634935e+01
2.695972e+02	-2.640165e+01
2.711544e+02	-2.645018e+01
2.727205e+02	-2.650114e+01
2.742958e+02	-2.654961e+01
2.758801e+02	-2.659746e+01
2.774736e+02	-2.665181e+01
2.790762e+02	-2.669850e+01
2.806882e+02	-2.675322e+01
2.823094e+02	-2.679842e+01
2.839400e+02	-2.685027e+01
2.855800e+02	-2.689960e+01
2.872295e+02	-2.694750e+01
2.888886e+02	-2.699791e+01
2.905572e+02	-2.705021e+01
2.922354e+02	-2.710027e+01
2.939234e+02	-2.715022e+01
2.956211e+02	-2.720030e+01
2.973286e+02	-2.725234e+01
2.990459e+02	-2.730089e+01
3.007732e+02	-2.734475e+01
3.025104e+02	-2.739799e+01
3.042577e+02	-2.744825e+01
3.060151e+02	-2.750070e+01
3.077826e+02	-2.755164e+01
3.095604e+02	-2.759810e+01
3.113484e+02	-2.764902e+01
3.131467e+02	-2.769861e+01
3.149554e+02	-2.774948e+01
3.167746e+02	-2.779988e+01
3.186043e+02	-2.785065e+01
3.204445e+02	-2.790080e+01
3.222954e+02	-2.795036e+01
3.241570e+02	-2.799934e+01
3.260293e+02	-2.804816e+01
3.279124e+02	-2.809840e+01
3.298064e+02	-2.814783e+01
3.317114e+02	-2.819861e+01
3.336273e+02	-2.825373e+01
3.355544e+02	-2.830239e+01
3.374925e+02	-2.834619e+01
3.394418e+02	-2.840394e+01
3.414024e+02	-2.844767e+01
3.433744e+02	-2.850350e+01
3.453577e+02	-2.855269e+01
3.473525e+02	-2.859628e+01
3.493588e+02	-2.865228e+01
3.513766e+02	-2.869946e+01
3.534062e+02	-2.874993e+01
3.554474e+02	-2.880170e+01
3.575005e+02	-2.884777e+01
3.595654e+02	-2.890056e+01
3.616422e+02	-2.894816e+01
3.637311e+02	-2.899923e+01
3.658320e+02	-2.905012e+01
3.679450e+02	-2.910672e+01
3.700702e+02	-2.914661e+01
3.722077e+02	-2.920138e+01
3.743576e+02	-2.925350e+01
3.765199e+02	-2.930007e+01
3.786946e+02	-2.934850e+01
3.808820e+02	-2.939786e+01
3.830819e+02	-2.945363e+01
3.852946e+02	-2.950210e+01
3.875200e+02	-2.954989e+01
3.897583e+02	-2.960266e+01
3.920096e+02	-2.964989e+01
3.942738e+02	-2.969265e+01
3.965511e+02	-2.975267e+01
3.988416e+02	-2.980376e+01
4.011452e+02	-2.985247e+01
4.034622e+02	-2.990191e+01
4.057926e+02	-2.995202e+01
4.081365e+02	-3.000326e+01
4.104938e+02	-3.005405e+01
4.128648e+02	-3.010162e+01
4.152495e+02	-3.015443e+01
4.176480e+02	-3.020212e+01
4.200603e+02	-3.025406e+01
4.224866e+02	-3.029959e+01
4.249268e+02	-3.035268e+01
4.273812e+02	-3.040559e+01
4.298497e+02	-3.045254e+01
4.323325e+02	-3.050447e+01
4.348297e+02	-3.055985e+01
4.373412e+02	-3.060866e+01
4.398673e+02	-3.065598e+01
4.424079e+02	-3.070481e+01
4.449633e+02	-3.074875e+01
4.475334e+02	-3.080731e+01
4.501183e+02	-3.085413e+01
4.527182e+02	-3.090197e+01
4.553330e+02	-3.095279e+01
4.579630e+02	-3.100321e+01
4.606082e+02	-3.104738e+01
4.632687e+02	-3.110807e+01
4.659445e+02	-3.115639e+01
4.686358e+02	-3.120009e+01
4.713426e+02	-3.125149e+01
4.740650e+02	-3.130732e+01
4.768032e+02	-3.134913e+01
4.795572e+02	-3.140596e+01
4.823271e+02	-3.145858e+01
4.851130e+02	-3.150253e+01
4.879150e+02	-3.155583e+01
4.907332e+02	-3.160812e+01
4.935676e+02	-3.165820e+01
4.964185e+02	-3.170358e+01
4.992858e+02	-3.175790e+01
5.021696e+02	-3.180139e+01
5.050701e+02	-3.185618e+01
5.079874e+02	-3.190667e+01
5.109215e+02	-3.196157e+01
5.138726e+02	-3.200523e+01
5.168407e+02	-3.206298e+01
5.198259e+02	-3.211072e+01
5.228284e+02	-3.215895e+01
5.258482e+02	-3.221115e+01
5.288855e+02	-3.226061e+01
5.319403e+02	-3.230455e+01
5.350128e+02	-3.235700e+01
5.381030e+02	-3.240626e+01
5.412111e+02	-3.245389e+01
5.443371e+02	-3.250368e+01
5.474812e+02	-3.256141e+01
5.506434e+02	-3.260794e+01
5.538239e+02	-3.265982e+01
5.570228e+02	-3.271201e+01
5.602401e+02	-3.276277e+01
5.634760e+02	-3.281067e+01
5.667306e+02	-3.285779e+01
5.700040e+02	-3.291247e+01
5.732964e+02	-3.295964e+01
5.766077e+02	-3.301178e+01
5.799382e+02	-3.306137e+01
5.832879e+02	-3.310309e+01
5.866569e+02	-3.317020e+01
5.900454e+02	-3.321222e+01
5.934535e+02	-3.326806e+01
5.968813e+02	-3.330865e+01
6.003288e+02	-3.336892e+01
6.037963e+02	-3.341158e+01
6.072838e+02	-3.346697e+01
6.107914e+02	-3.350804e+01
6.143194e+02	-3.356164e+01
6.178676e+02	-3.360928e+01
6.214364e+02	-3.366618e+01
6.250258e+02	-3.371507e+01
6.286359e+02	-3.376962e+01
6.322669e+02	-3.382043e+01
6.359189e+02	-3.386814e+01
6.395919e+02	-3.390760e+01
6.432862e+02	-3.396417e+01
6.470017e+02	-3.401746e+01
6.507388e+02	-3.407163e+01
6.544974e+02	-3.411370e+01
6.582778e+02	-3.416931e+01
6.620800e+02	-3.421964e+01
6.659041e+02	-3.426632e+01
6.697504e+02	-3.432336e+01
6.736188e+02	-3.437545e+01
6.775096e+02	-3.442126e+01
6.814229e+02	-3.446853e+01
6.853587e+02	-3.452171e+01
6.893173e+02	-3.457025e+01
6.932988e+02	-3.461684e+01
6.973033e+02	-3.466858e+01
7.013309e+02	-3.471076e+01
