Frequency(Hz)	Magnitude(dB)
1.000000e+01	-1.814503e-05
1.005776e+01	-1.835525e-05
1.011585e+01	-1.856790e-05
1.017428e+01	-1.878301e-05
1.023305e+01	-1.900062e-05
1.029215e+01	-1.922075e-05
1.035160e+01	-1.944342e-05
1.041139e+01	-1.966868e-05
1.047153e+01	-1.989655e-05
1.053201e+01	-2.012705e-05
1.059284e+01	-2.036023e-05
1.065403e+01	-2.059611e-05
1.071556e+01	-2.083472e-05
1.077746e+01	-2.107610e-05
1.083971e+01	-2.132027e-05
1.090232e+01	-2.156727e-05
1.096529e+01	-2.181713e-05
1.102862e+01	-2.206989e-05
1.109232e+01	-2.232557e-05
1.115639e+01	-2.258422e-05
1.122083e+01	-2.284586e-05
1.128564e+01	-2.311054e-05
1.135083e+01	-2.337828e-05
1.141639e+01	-2.364912e-05
1.148233e+01	-2.392310e-05
1.154865e+01	-2.420026e-05
1.161536e+01	-2.448062e-05
1.168245e+01	-2.476424e-05
1.174992e+01	-2.505114e-05
1.181779e+01	-2.534136e-05
1.188605e+01	-2.563495e-05
1.195470e+01	-2.593194e-05
1.202375e+01	-2.623236e-05
1.209320e+01	-2.653627e-05
1.216305e+01	-2.684370e-05
1.223330e+01	-2.715469e-05
1.230396e+01	-2.746929e-05
1.237503e+01	-2.778752e-05
1.244651e+01	-2.810945e-05
1.251840e+01	-2.843510e-05
1.259070e+01	-2.876453e-05
1.266343e+01	-2.909778e-05
1.273657e+01	-2.943488e-05
1.281014e+01	-2.977589e-05
1.288413e+01	-3.012085e-05
1.295855e+01	-3.046981e-05
1.303339e+01	-3.082281e-05
1.310867e+01	-3.117990e-05
1.318439e+01	-3.154112e-05
1.326054e+01	-3.190654e-05
1.333713e+01	-3.227618e-05
1.341417e+01	-3.265011e-05
1.349165e+01	-3.302837e-05
1.356958e+01	-3.341101e-05
1.364795e+01	-3.379808e-05
1.372678e+01	-3.418964e-05
1.380607e+01	-3.458574e-05
1.388581e+01	-3.498642e-05
1.396602e+01	-3.539175e-05
1.404668e+01	-3.580177e-05
1.412782e+01	-3.621654e-05
1.420942e+01	-3.663612e-05
1.429149e+01	-3.706055e-05
1.437404e+01	-3.748991e-05
1.445706e+01	-3.792424e-05
1.454057e+01	-3.836360e-05
1.462455e+01	-3.880805e-05
1.470902e+01	-3.925765e-05
1.479398e+01	-3.971246e-05
1.487943e+01	-4.017254e-05
1.496537e+01	-4.063795e-05
1.505181e+01	-4.110874e-05
1.513875e+01	-4.158500e-05
1.522619e+01	-4.206677e-05
1.531414e+01	-4.255412e-05
1.540259e+01	-4.304712e-05
1.549156e+01	-4.354583e-05
1.558103e+01	-4.405032e-05
1.567103e+01	-4.456065e-05
1.576155e+01	-4.507690e-05
1.585258e+01	-4.559912e-05
1.594415e+01	-4.612740e-05
1.603624e+01	-4.666180e-05
1.612886e+01	-4.720238e-05
1.622202e+01	-4.774923e-05
1.631572e+01	-4.830242e-05
1.640996e+01	-4.886201e-05
1.650474e+01	-4.942809e-05
1.660008e+01	-5.000072e-05
1.669596e+01	-5.057999e-05
1.679239e+01	-5.116597e-05
1.688938e+01	-5.175874e-05
1.698694e+01	-5.235838e-05
1.708505e+01	-5.296496e-05
1.718373e+01	-5.357857e-05
1.728299e+01	-5.419929e-05
1.738281e+01	-5.482720e-05
1.748322e+01	-5.546238e-05
1.758420e+01	-5.610493e-05
1.768576e+01	-5.675491e-05
1.778792e+01	-5.741243e-05
1.789066e+01	-5.807756e-05
1.799399e+01	-5.875041e-05
1.809793e+01	-5.943104e-05
1.820246e+01	-6.011956e-05
1.830760e+01	-6.081606e-05
1.841334e+01	-6.152062e-05
1.851969e+01	-6.223335e-05
1.862666e+01	-6.295434e-05
1.873425e+01	-6.368368e-05
1.884246e+01	-6.442146e-05
1.895129e+01	-6.516780e-05
1.906075e+01	-6.592278e-05
1.917085e+01	-6.668651e-05
1.928158e+01	-6.745908e-05
1.939295e+01	-6.824061e-05
1.950496e+01	-6.903119e-05
1.961762e+01	-6.983093e-05
1.973093e+01	-7.063993e-05
1.984490e+01	-7.145831e-05
1.995952e+01	-7.228617e-05
2.007480e+01	-7.312362e-05
2.019076e+01	-7.397077e-05
2.030738e+01	-7.482773e-05
2.042467e+01	-7.569462e-05
2.054264e+01	-7.657156e-05
2.066130e+01	-7.745866e-05
2.078064e+01	-7.835603e-05
2.090066e+01	-7.926380e-05
2.102139e+01	-8.018208e-05
2.114280e+01	-8.111100e-05
2.126492e+01	-8.205069e-05
2.138775e+01	-8.300126e-05
2.151128e+01	-8.396284e-05
2.163553e+01	-8.493557e-05
2.176050e+01	-8.591956e-05
2.188619e+01	-8.691495e-05
2.201260e+01	-8.792188e-05
2.213974e+01	-8.894046e-05
2.226762e+01	-8.997085e-05
2.239624e+01	-9.101318e-05
2.252560e+01	-9.206758e-05
2.265571e+01	-9.313420e-05
2.278656e+01	-9.421317e-05
2.291818e+01	-9.530465e-05
2.305055e+01	-9.640877e-05
2.318369e+01	-9.752568e-05
2.331760e+01	-9.865553e-05
2.345228e+01	-9.979846e-05
2.358774e+01	-1.009546e-04
2.372398e+01	-1.021242e-04
2.386101e+01	-1.033073e-04
2.399883e+01	-1.045042e-04
2.413745e+01	-1.057149e-04
2.427686e+01	-1.069396e-04
2.441709e+01	-1.081785e-04
2.455812e+01	-1.094318e-04
2.469997e+01	-1.106995e-04
2.484263e+01	-1.119820e-04
2.498612e+01	-1.132793e-04
2.513044e+01	-1.145917e-04
2.527559e+01	-1.159193e-04
2.542158e+01	-1.172622e-04
2.556842e+01	-1.186207e-04
2.571610e+01	-1.199949e-04
2.586463e+01	-1.213851e-04
2.601403e+01	-1.227913e-04
2.616428e+01	-1.242139e-04
2.631541e+01	-1.256529e-04
2.646740e+01	-1.271086e-04
2.662028e+01	-1.285812e-04
2.677404e+01	-1.300708e-04
2.692868e+01	-1.315777e-04
2.708422e+01	-1.331020e-04
2.724066e+01	-1.346440e-04
2.739800e+01	-1.362039e-04
2.755625e+01	-1.377818e-04
2.771541e+01	-1.393781e-04
2.787550e+01	-1.409928e-04
2.803650e+01	-1.426262e-04
2.819844e+01	-1.442785e-04
2.836131e+01	-1.459500e-04
2.852513e+01	-1.476408e-04
2.868989e+01	-1.493513e-04
2.885560e+01	-1.510815e-04
2.902227e+01	-1.528318e-04
2.918990e+01	-1.546024e-04
2.935850e+01	-1.563934e-04
2.952807e+01	-1.582053e-04
2.969863e+01	-1.600381e-04
2.987016e+01	-1.618921e-04
3.004269e+01	-1.637677e-04
3.021622e+01	-1.656649e-04
3.039075e+01	-1.675842e-04
3.056628e+01	-1.695256e-04
3.074283e+01	-1.714896e-04
3.092040e+01	-1.734763e-04
3.109900e+01	-1.754861e-04
3.127862e+01	-1.775191e-04
3.145929e+01	-1.795756e-04
3.164099e+01	-1.816560e-04
3.182375e+01	-1.837605e-04
3.200756e+01	-1.858894e-04
3.219244e+01	-1.880429e-04
3.237838e+01	-1.902214e-04
3.256540e+01	-1.924251e-04
3.275349e+01	-1.946544e-04
3.294268e+01	-1.969094e-04
3.313295e+01	-1.991906e-04
3.332433e+01	-2.014983e-04
3.351681e+01	-2.038326e-04
3.371040e+01	-2.061940e-04
3.390511e+01	-2.085828e-04
3.410094e+01	-2.109992e-04
3.429791e+01	-2.134436e-04
3.449601e+01	-2.159164e-04
3.469526e+01	-2.184178e-04
3.489566e+01	-2.209481e-04
3.509721e+01	-2.235078e-04
3.529993e+01	-2.260972e-04
3.550382e+01	-2.287165e-04
3.570889e+01	-2.313662e-04
3.591515e+01	-2.340465e-04
3.612259e+01	-2.367579e-04
3.633123e+01	-2.395008e-04
3.654108e+01	-2.422754e-04
3.675214e+01	-2.450821e-04
3.696442e+01	-2.479214e-04
3.717792e+01	-2.507935e-04
3.739266e+01	-2.536990e-04
3.760864e+01	-2.566381e-04
3.782587e+01	-2.596112e-04
3.804435e+01	-2.626188e-04
3.826409e+01	-2.656612e-04
3.848510e+01	-2.687389e-04
3.870739e+01	-2.718522e-04
3.893096e+01	-2.750016e-04
3.915583e+01	-2.781874e-04
3.938199e+01	-2.814102e-04
3.960946e+01	-2.846703e-04
3.983824e+01	-2.879682e-04
4.006834e+01	-2.913043e-04
4.029978e+01	-2.946790e-04
4.053255e+01	-2.980928e-04
4.076666e+01	-3.015462e-04
4.100213e+01	-3.050395e-04
4.123896e+01	-3.085734e-04
4.147715e+01	-3.121482e-04
4.171672e+01	-3.157644e-04
4.195767e+01	-3.194224e-04
4.220002e+01	-3.231229e-04
4.244377e+01	-3.268662e-04
4.268892e+01	-3.306529e-04
4.293549e+01	-3.344835e-04
4.318348e+01	-3.383584e-04
4.343291e+01	-3.422782e-04
4.368377e+01	-3.462435e-04
4.393609e+01	-3.502546e-04
4.418986e+01	-3.543123e-04
4.444510e+01	-3.584169e-04
4.470182e+01	-3.625691e-04
4.496001e+01	-3.667694e-04
4.521970e+01	-3.710183e-04
4.548089e+01	-3.753165e-04
4.574358e+01	-3.796644e-04
4.600779e+01	-3.840628e-04
4.627353e+01	-3.885120e-04
4.654081e+01	-3.930129e-04
4.680963e+01	-3.975658e-04
4.708000e+01	-4.021715e-04
4.735193e+01	-4.068306e-04
4.762543e+01	-4.115436e-04
4.790051e+01	-4.163112e-04
4.817719e+01	-4.211340e-04
4.845545e+01	-4.260128e-04
4.873533e+01	-4.309480e-04
4.901682e+01	-4.359404e-04
4.929994e+01	-4.409906e-04
4.958470e+01	-4.460994e-04
4.987110e+01	-4.512673e-04
5.015915e+01	-4.564950e-04
5.044887e+01	-4.617834e-04
5.074026e+01	-4.671330e-04
5.103333e+01	-4.725446e-04
5.132810e+01	-4.780188e-04
5.162457e+01	-4.835565e-04
5.192275e+01	-4.891583e-04
5.222265e+01	-4.948250e-04
5.252429e+01	-5.005574e-04
5.282767e+01	-5.063561e-04
5.313280e+01	-5.122221e-04
5.343969e+01	-5.181559e-04
5.374836e+01	-5.241586e-04
5.405880e+01	-5.302307e-04
5.437105e+01	-5.363732e-04
5.468509e+01	-5.425868e-04
5.500095e+01	-5.488725e-04
5.531863e+01	-5.552309e-04
5.563815e+01	-5.616630e-04
5.595951e+01	-5.681696e-04
5.628273e+01	-5.747515e-04
5.660782e+01	-5.814098e-04
5.693479e+01	-5.881451e-04
5.726364e+01	-5.949584e-04
5.759439e+01	-6.018507e-04
5.792705e+01	-6.088228e-04
5.826164e+01	-6.158757e-04
5.859815e+01	-6.230103e-04
5.893662e+01	-6.302275e-04
5.927703e+01	-6.375283e-04
5.961941e+01	-6.449137e-04
5.996377e+01	-6.523847e-04
6.031012e+01	-6.599422e-04
6.065847e+01	-6.675872e-04
6.100883e+01	-6.753208e-04
6.136121e+01	-6.831439e-04
6.171563e+01	-6.910577e-04
6.207210e+01	-6.990632e-04
6.243063e+01	-7.071613e-04
6.279122e+01	-7.153533e-04
6.315390e+01	-7.236402e-04
6.351868e+01	-7.320231e-04
6.388556e+01	-7.405030e-04
6.425456e+01	-7.490812e-04
6.462569e+01	-7.577588e-04
6.499897e+01	-7.665368e-04
6.537440e+01	-7.754166e-04
6.575200e+01	-7.843992e-04
6.613178e+01	-7.934858e-04
6.651375e+01	-8.026777e-04
6.689793e+01	-8.119761e-04
6.728433e+01	-8.213822e-04
6.767297e+01	-8.308972e-04
6.806384e+01	-8.405224e-04
6.845698e+01	-8.502592e-04
6.885238e+01	-8.601087e-04
6.925007e+01	-8.700723e-04
6.965005e+01	-8.801513e-04
7.005235e+01	-8.903470e-04
7.045697e+01	-9.006609e-04
7.086393e+01	-9.110942e-04
7.127323e+01	-9.216483e-04
7.168490e+01	-9.323247e-04
7.209895e+01	-9.431248e-04
7.251539e+01	-9.540499e-04
7.293424e+01	-9.651016e-04
7.335551e+01	-9.762814e-04
7.377920e+01	-9.875906e-04
7.420535e+01	-9.990307e-04
7.463396e+01	-1.010603e-03
7.506504e+01	-1.022310e-03
7.549861e+01	-1.034153e-03
7.593469e+01	-1.046132e-03
7.637328e+01	-1.058250e-03
7.681441e+01	-1.070509e-03
7.725809e+01	-1.082909e-03
7.770433e+01	-1.095454e-03
7.815315e+01	-1.108143e-03
7.860456e+01	-1.120980e-03
7.905857e+01	-1.133965e-03
7.951521e+01	-1.147100e-03
7.997449e+01	-1.160388e-03
8.043642e+01	-1.173830e-03
8.090102e+01	-1.187427e-03
8.136830e+01	-1.201182e-03
8.183828e+01	-1.215096e-03
8.231097e+01	-1.229171e-03
8.278640e+01	-1.243409e-03
8.326457e+01	-1.257812e-03
8.374550e+01	-1.272382e-03
8.422921e+01	-1.287121e-03
8.471572e+01	-1.302030e-03
8.520503e+01	-1.317113e-03
8.569717e+01	-1.332369e-03
8.619215e+01	-1.347803e-03
8.669000e+01	-1.363415e-03
8.719071e+01	-1.379208e-03
8.769432e+01	-1.395184e-03
8.820084e+01	-1.411345e-03
8.871029e+01	-1.427693e-03
8.922267e+01	-1.444230e-03
8.973802e+01	-1.460959e-03
9.025634e+01	-1.477882e-03
9.077766e+01	-1.495001e-03
9.130199e+01	-1.512318e-03
9.182935e+01	-1.529835e-03
9.235975e+01	-1.547556e-03
9.289321e+01	-1.565481e-03
9.342976e+01	-1.583615e-03
9.396941e+01	-1.601958e-03
9.451217e+01	-1.620513e-03
9.505807e+01	-1.639284e-03
9.560712e+01	-1.658272e-03
9.615934e+01	-1.677480e-03
9.671476e+01	-1.696910e-03
9.727338e+01	-1.716565e-03
9.783522e+01	-1.736448e-03
9.840032e+01	-1.756561e-03
9.896867e+01	-1.776907e-03
9.954031e+01	-1.797489e-03
1.001153e+02	-1.818309e-03
1.006935e+02	-1.839370e-03
1.012751e+02	-1.860675e-03
1.018601e+02	-1.882227e-03
1.024484e+02	-1.904028e-03
1.030402e+02	-1.926082e-03
1.036353e+02	-1.948391e-03
1.042339e+02	-1.970959e-03
1.048360e+02	-1.993787e-03
1.054415e+02	-2.016881e-03
1.060505e+02	-2.040241e-03
1.066631e+02	-2.063872e-03
1.072791e+02	-2.087777e-03
1.078988e+02	-2.111959e-03
1.085220e+02	-2.136420e-03
1.091488e+02	-2.161165e-03
1.097793e+02	-2.186196e-03
1.104133e+02	-2.211518e-03
1.110511e+02	-2.237132e-03
1.116925e+02	-2.263043e-03
1.123376e+02	-2.289254e-03
1.129865e+02	-2.315769e-03
1.136391e+02	-2.342590e-03
1.142955e+02	-2.369722e-03
1.149556e+02	-2.397169e-03
1.156196e+02	-2.424933e-03
1.162874e+02	-2.453018e-03
1.169591e+02	-2.481429e-03
1.176347e+02	-2.510169e-03
1.183141e+02	-2.539241e-03
1.189975e+02	-2.568650e-03
1.196848e+02	-2.598400e-03
1.203761e+02	-2.628494e-03
1.210714e+02	-2.658936e-03
1.217707e+02	-2.689731e-03
1.224740e+02	-2.720883e-03
1.231814e+02	-2.752395e-03
1.238929e+02	-2.784272e-03
1.246085e+02	-2.816518e-03
1.253283e+02	-2.849137e-03
1.260522e+02	-2.882134e-03
1.267802e+02	-2.915513e-03
1.275125e+02	-2.949279e-03
1.282490e+02	-2.983435e-03
1.289898e+02	-3.017987e-03
1.297348e+02	-3.052939e-03
1.304842e+02	-3.088295e-03
1.312378e+02	-3.124061e-03
1.319959e+02	-3.160241e-03
1.327583e+02	-3.196840e-03
1.335251e+02	-3.233862e-03
1.342963e+02	-3.271313e-03
1.350720e+02	-3.309198e-03
1.358522e+02	-3.347521e-03
1.366368e+02	-3.386288e-03
1.374260e+02	-3.425503e-03
1.382198e+02	-3.465173e-03
1.390182e+02	-3.505301e-03
1.398211e+02	-3.545894e-03
1.406287e+02	-3.586958e-03
1.414410e+02	-3.628496e-03
1.422579e+02	-3.670515e-03
1.430796e+02	-3.713021e-03
1.439060e+02	-3.756019e-03
1.447372e+02	-3.799514e-03
1.455732e+02	-3.843513e-03
1.464141e+02	-3.888021e-03
1.472597e+02	-3.933044e-03
1.481103e+02	-3.978589e-03
1.489658e+02	-4.024660e-03
1.498262e+02	-4.071265e-03
1.506916e+02	-4.118409e-03
1.515620e+02	-4.166099e-03
1.524374e+02	-4.214341e-03
1.533179e+02	-4.263141e-03
1.542034e+02	-4.312506e-03
1.550941e+02	-4.362443e-03
1.559899e+02	-4.412957e-03
1.568909e+02	-4.464056e-03
1.577971e+02	-4.515746e-03
1.587085e+02	-4.568035e-03
1.596252e+02	-4.620928e-03
1.605472e+02	-4.674434e-03
1.614745e+02	-4.728559e-03
1.624072e+02	-4.783310e-03
1.633453e+02	-4.838695e-03
1.642887e+02	-4.894721e-03
1.652377e+02	-4.951395e-03
1.661921e+02	-5.008725e-03
1.671520e+02	-5.066719e-03
1.681175e+02	-5.125383e-03
1.690885e+02	-5.184727e-03
1.700651e+02	-5.244757e-03
1.710474e+02	-5.305481e-03
1.720354e+02	-5.366908e-03
1.730291e+02	-5.429046e-03
1.740285e+02	-5.491903e-03
1.750337e+02	-5.555488e-03
1.760446e+02	-5.619808e-03
1.770615e+02	-5.684872e-03
1.780842e+02	-5.750689e-03
1.791128e+02	-5.817267e-03
1.801473e+02	-5.884616e-03
1.811878e+02	-5.952744e-03
1.822344e+02	-6.021660e-03
1.832870e+02	-6.091374e-03
1.843456e+02	-6.161893e-03
1.854104e+02	-6.233229e-03
1.864813e+02	-6.305390e-03
1.875584e+02	-6.378386e-03
1.886418e+02	-6.452226e-03
1.897313e+02	-6.526920e-03
1.908272e+02	-6.602479e-03
1.919294e+02	-6.678911e-03
1.930380e+02	-6.756228e-03
1.941530e+02	-6.834438e-03
1.952744e+02	-6.913554e-03
1.964023e+02	-6.993585e-03
1.975367e+02	-7.074541e-03
1.986777e+02	-7.156433e-03
1.998252e+02	-7.239273e-03
2.009794e+02	-7.323071e-03
2.021403e+02	-7.407838e-03
2.033078e+02	-7.493585e-03
2.044821e+02	-7.580325e-03
2.056632e+02	-7.668067e-03
2.068511e+02	-7.756824e-03
2.080459e+02	-7.846607e-03
2.092475e+02	-7.937429e-03
2.104561e+02	-8.029300e-03
2.116717e+02	-8.122235e-03
2.128943e+02	-8.216243e-03
2.141240e+02	-8.311339e-03
2.153608e+02	-8.407535e-03
2.166047e+02	-8.504842e-03
2.178558e+02	-8.603275e-03
2.191141e+02	-8.702846e-03
2.203797e+02	-8.803568e-03
2.216526e+02	-8.905455e-03
2.229329e+02	-9.008519e-03
2.242205e+02	-9.112775e-03
2.255156e+02	-9.218237e-03
2.268182e+02	-9.324917e-03
2.281283e+02	-9.432831e-03
2.294459e+02	-9.541992e-03
2.307712e+02	-9.652415e-03
2.321041e+02	-9.764115e-03
2.334447e+02	-9.877106e-03
2.347931e+02	-9.991402e-03
2.361493e+02	-1.010702e-02
2.375133e+02	-1.022397e-02
2.388851e+02	-1.034228e-02
2.402649e+02	-1.046195e-02
2.416527e+02	-1.058301e-02
2.430484e+02	-1.070546e-02
2.444523e+02	-1.082933e-02
2.458642e+02	-1.095464e-02
2.472843e+02	-1.108139e-02
2.487126e+02	-1.120960e-02
2.501492e+02	-1.133930e-02
2.515940e+02	-1.147049e-02
2.530472e+02	-1.160320e-02
2.545088e+02	-1.173744e-02
2.559789e+02	-1.187324e-02
2.574574e+02	-1.201060e-02
2.589444e+02	-1.214955e-02
2.604401e+02	-1.229011e-02
2.619444e+02	-1.243229e-02
2.634574e+02	-1.257611e-02
2.649791e+02	-1.272159e-02
2.665096e+02	-1.286876e-02
2.680489e+02	-1.301762e-02
2.695972e+02	-1.316820e-02
2.711544e+02	-1.332053e-02
2.727205e+02	-1.347461e-02
2.742958e+02	-1.363047e-02
2.758801e+02	-1.378813e-02
2.774736e+02	-1.394761e-02
2.790762e+02	-1.410893e-02
2.806882e+02	-1.427212e-02
2.823094e+02	-1.443719e-02
2.839400e+02	-1.460416e-02
2.855800e+02	-1.477307e-02
2.872295e+02	-1.494392e-02
2.888886e+02	-1.511675e-02
2.905572e+02	-1.529157e-02
2.922354e+02	-1.546841e-02
2.939234e+02	-1.564729e-02
2.956211e+02	-1.582824e-02
2.973286e+02	-1.601127e-02
2.990459e+02	-1.619642e-02
3.007732e+02	-1.638371e-02
3.025104e+02	-1.657315e-02
3.042577e+02	-1.676478e-02
3.060151e+02	-1.695863e-02
3.077826e+02	-1.715471e-02
3.095604e+02	-1.735305e-02
3.113484e+02	-1.755368e-02
3.131467e+02	-1.775663e-02
3.149554e+02	-1.796192e-02
3.167746e+02	-1.816957e-02
3.186043e+02	-1.837962e-02
3.204445e+02	-1.859210e-02
3.222954e+02	-1.880702e-02
3.241570e+02	-1.902443e-02
3.260293e+02	-1.924434e-02
3.279124e+02	-1.946679e-02
3.298064e+02	-1.969181e-02
3.317114e+02	-1.991941e-02
3.336273e+02	-2.014965e-02
3.355544e+02	-2.038254e-02
3.374925e+02	-2.061811e-02
3.394418e+02	-2.085640e-02
3.414024e+02	-2.109744e-02
3.433744e+02	-2.134126e-02
3.453577e+02	-2.158788e-02
3.473525e+02	-2.183735e-02
3.493588e+02	-2.208970e-02
3.513766e+02	-2.234495e-02
3.534062e+02	-2.260315e-02
3.554474e+02	-2.286432e-02
3.575005e+02	-2.312850e-02
3.595654e+02	-2.339572e-02
3.616422e+02	-2.366603e-02
3.637311e+02	-2.393945e-02
3.658320e+02	-2.421601e-02
3.679450e+02	-2.449577e-02
3.700702e+02	-2.477875e-02
3.722077e+02	-2.506498e-02
3.743576e+02	-2.535452e-02
3.765199e+02	-2.564738e-02
3.786946e+02	-2.594362e-02
3.808820e+02	-2.624328e-02
3.830819e+02	-2.654638e-02
3.852946e+02	-2.685297e-02
3.875200e+02	-2.716309e-02
3.897583e+02	-2.747678e-02
3.920096e+02	-2.779409e-02
3.942738e+02	-2.811504e-02
3.965511e+02	-2.843969e-02
3.988416e+02	-2.876808e-02
4.011452e+02	-2.910024e-02
4.034622e+02	-2.943623e-02
4.057926e+02	-2.977608e-02
4.081365e+02	-3.011985e-02
4.104938e+02	-3.046756e-02
4.128648e+02	-3.081928e-02
4.152495e+02	-3.117505e-02
4.176480e+02	-3.153490e-02
4.200603e+02	-3.189889e-02
4.224866e+02	-3.226707e-02
4.249268e+02	-3.263949e-02
4.273812e+02	-3.301618e-02
4.298497e+02	-3.339720e-02
4.323325e+02	-3.378261e-02
4.348297e+02	-3.417245e-02
4.373412e+02	-3.456676e-02
4.398673e+02	-3.496561e-02
4.424079e+02	-3.536904e-02
4.449633e+02	-3.577710e-02
4.475334e+02	-3.618986e-02
4.501183e+02	-3.660735e-02
4.527182e+02	-3.702965e-02
4.553330e+02	-3.745679e-02
4.579630e+02	-3.788884e-02
4.606082e+02	-3.832584e-02
4.632687e+02	-3.876787e-02
4.659445e+02	-3.921497e-02
4.686358e+02	-3.966721e-02
4.713426e+02	-4.012463e-02
4.740650e+02	-4.058731e-02
4.768032e+02	-4.105529e-02
4.795572e+02	-4.152865e-02
4.823271e+02	-4.200744e-02
4.851130e+02	-4.249171e-02
4.879150e+02	-4.298155e-02
4.907332e+02	-4.347700e-02
4.935676e+02	-4.397814e-02
4.964185e+02	-4.448502e-02
4.992858e+02	-4.499771e-02
5.021696e+02	-4.551628e-02
5.050701e+02	-4.604080e-02
5.079874e+02	-4.657132e-02
5.109215e+02	-4.710793e-02
5.138726e+02	-4.765069e-02
5.168407e+02	-4.819966e-02
5.198259e+02	-4.875493e-02
5.228284e+02	-4.931655e-02
5.258482e+02	-4.988460e-02
5.288855e+02	-5.045916e-02
5.319403e+02	-5.104030e-02
5.350128e+02	-5.162810e-02
5.381030e+02	-5.222262e-02
5.412111e+02	-5.282394e-02
5.443371e+02	-5.343215e-02
5.474812e+02	-5.404731e-02
5.506434e+02	-5.466952e-02
5.538239e+02	-5.529884e-02
5.570228e+02	-5.593535e-02
5.602401e+02	-5.657915e-02
5.634760e+02	-5.723031e-02
5.667306e+02	-5.788891e-02
5.700040e+02	-5.855504e-02
5.732964e+02	-5.922878e-02
5.766077e+02	-5.991022e-02
5.799382e+02	-6.059944e-02
5.832879e+02	-6.129654e-02
5.866569e+02	-6.200160e-02
5.900454e+02	-6.271471e-02
5.934535e+02	-6.343596e-02
5.968813e+02	-6.416545e-02
6.003288e+02	-6.490326e-02
6.037963e+02	-6.564949e-02
6.072838e+02	-6.640423e-02
6.107914e+02	-6.716759e-02
6.143194e+02	-6.793965e-02
6.178676e+02	-6.872051e-02
6.214364e+02	-6.951028e-02
6.250258e+02	-7.030905e-02
6.286359e+02	-7.111692e-02
6.322669e+02	-7.193400e-02
6.359189e+02	-7.276039e-02
6.395919e+02	-7.359619e-02
6.432862e+02	-7.444151e-02
6.470017e+02	-7.529645e-02
6.507388e+02	-7.616113e-02
6.544974e+02	-7.703564e-02
6.582778e+02	-7.792011e-02
6.620800e+02	-7.881464e-02
6.659041e+02	-7.971935e-02
6.697504e+02	-8.063434e-02
6.736188e+02	-8.155974e-02
6.775096e+02	-8.249565e-02
6.814229e+02	-8.344220e-02
6.853587e+02	-8.439951e-02
6.893173e+02	-8.536769e-02
6.932988e+02	-8.634687e-02
6.973033e+02	-8.733716e-02
7.013309e+02	-8.833870e-02
