Frequency(Hz)	Magnitude(dB)
1.000000e+01	-1.647646e-05
1.005776e+01	-1.666735e-05
1.011585e+01	-1.686044e-05
1.017428e+01	-1.705577e-05
1.023305e+01	-1.725337e-05
1.029215e+01	-1.745325e-05
1.035160e+01	-1.765545e-05
1.041139e+01	-1.786000e-05
1.047153e+01	-1.806691e-05
1.053201e+01	-1.827622e-05
1.059284e+01	-1.848795e-05
1.065403e+01	-1.870214e-05
1.071556e+01	-1.891881e-05
1.077746e+01	-1.913799e-05
1.083971e+01	-1.935971e-05
1.090232e+01	-1.958400e-05
1.096529e+01	-1.981088e-05
1.102862e+01	-2.004040e-05
1.109232e+01	-2.027257e-05
1.115639e+01	-2.050743e-05
1.122083e+01	-2.074502e-05
1.128564e+01	-2.098535e-05
1.135083e+01	-2.122847e-05
1.141639e+01	-2.147441e-05
1.148233e+01	-2.172320e-05
1.154865e+01	-2.197486e-05
1.161536e+01	-2.222945e-05
1.168245e+01	-2.248698e-05
1.174992e+01	-2.274750e-05
1.181779e+01	-2.301103e-05
1.188605e+01	-2.327762e-05
1.195470e+01	-2.354730e-05
1.202375e+01	-2.382010e-05
1.209320e+01	-2.409606e-05
1.216305e+01	-2.437522e-05
1.223330e+01	-2.465762e-05
1.230396e+01	-2.494328e-05
1.237503e+01	-2.523225e-05
1.244651e+01	-2.552458e-05
1.251840e+01	-2.582028e-05
1.259070e+01	-2.611942e-05
1.266343e+01	-2.642202e-05
1.273657e+01	-2.672812e-05
1.281014e+01	-2.703778e-05
1.288413e+01	-2.735102e-05
1.295855e+01	-2.766788e-05
1.303339e+01	-2.798842e-05
1.310867e+01	-2.831268e-05
1.318439e+01	-2.864068e-05
1.326054e+01	-2.897249e-05
1.333713e+01	-2.930815e-05
1.341417e+01	-2.964769e-05
1.349165e+01	-2.999116e-05
1.356958e+01	-3.033862e-05
1.364795e+01	-3.069010e-05
1.372678e+01	-3.104565e-05
1.380607e+01	-3.140532e-05
1.388581e+01	-3.176916e-05
1.396602e+01	-3.213721e-05
1.404668e+01	-3.250953e-05
1.412782e+01	-3.288616e-05
1.420942e+01	-3.326716e-05
1.429149e+01	-3.365256e-05
1.437404e+01	-3.404244e-05
1.445706e+01	-3.443683e-05
1.454057e+01	-3.483578e-05
1.462455e+01	-3.523937e-05
1.470902e+01	-3.564762e-05
1.479398e+01	-3.606061e-05
1.487943e+01	-3.647838e-05
1.496537e+01	-3.690099e-05
1.505181e+01	-3.732850e-05
1.513875e+01	-3.776095e-05
1.522619e+01	-3.819842e-05
1.531414e+01	-3.864096e-05
1.540259e+01	-3.908863e-05
1.549156e+01	-3.954148e-05
1.558103e+01	-3.999957e-05
1.567103e+01	-4.046298e-05
1.576155e+01	-4.093175e-05
1.585258e+01	-4.140595e-05
1.594415e+01	-4.188565e-05
1.603624e+01	-4.237091e-05
1.612886e+01	-4.286178e-05
1.622202e+01	-4.335835e-05
1.631572e+01	-4.386066e-05
1.640996e+01	-4.436880e-05
1.650474e+01	-4.488282e-05
1.660008e+01	-4.540280e-05
1.669596e+01	-4.592880e-05
1.679239e+01	-4.646089e-05
1.688938e+01	-4.699915e-05
1.698694e+01	-4.754365e-05
1.708505e+01	-4.809445e-05
1.718373e+01	-4.865164e-05
1.728299e+01	-4.921528e-05
1.738281e+01	-4.978544e-05
1.748322e+01	-5.036222e-05
1.758420e+01	-5.094568e-05
1.768576e+01	-5.153589e-05
1.778792e+01	-5.213295e-05
1.789066e+01	-5.273692e-05
1.799399e+01	-5.334789e-05
1.809793e+01	-5.396593e-05
1.820246e+01	-5.459114e-05
1.830760e+01	-5.522359e-05
1.841334e+01	-5.586337e-05
1.851969e+01	-5.651055e-05
1.862666e+01	-5.716524e-05
1.873425e+01	-5.782751e-05
1.884246e+01	-5.849745e-05
1.895129e+01	-5.917516e-05
1.906075e+01	-5.986072e-05
1.917085e+01	-6.055421e-05
1.928158e+01	-6.125575e-05
1.939295e+01	-6.196541e-05
1.950496e+01	-6.268329e-05
1.961762e+01	-6.340949e-05
1.973093e+01	-6.414410e-05
1.984490e+01	-6.488722e-05
1.995952e+01	-6.563895e-05
2.007480e+01	-6.639939e-05
2.019076e+01	-6.716864e-05
2.030738e+01	-6.794680e-05
2.042467e+01	-6.873398e-05
2.054264e+01	-6.953027e-05
2.066130e+01	-7.033579e-05
2.078064e+01	-7.115065e-05
2.090066e+01	-7.197494e-05
2.102139e+01	-7.280878e-05
2.114280e+01	-7.365229e-05
2.126492e+01	-7.450556e-05
2.138775e+01	-7.536872e-05
2.151128e+01	-7.624188e-05
2.163553e+01	-7.712516e-05
2.176050e+01	-7.801867e-05
2.188619e+01	-7.892253e-05
2.201260e+01	-7.983686e-05
2.213974e+01	-8.076178e-05
2.226762e+01	-8.169742e-05
2.239624e+01	-8.264390e-05
2.252560e+01	-8.360134e-05
2.265571e+01	-8.456988e-05
2.278656e+01	-8.554963e-05
2.291818e+01	-8.654074e-05
2.305055e+01	-8.754333e-05
2.318369e+01	-8.855753e-05
2.331760e+01	-8.958348e-05
2.345228e+01	-9.062132e-05
2.358774e+01	-9.167119e-05
2.372398e+01	-9.273321e-05
2.386101e+01	-9.380754e-05
2.399883e+01	-9.489431e-05
2.413745e+01	-9.599368e-05
2.427686e+01	-9.710578e-05
2.441709e+01	-9.823077e-05
2.455812e+01	-9.936878e-05
2.469997e+01	-1.005200e-04
2.484263e+01	-1.016845e-04
2.498612e+01	-1.028626e-04
2.513044e+01	-1.040542e-04
2.527559e+01	-1.052597e-04
2.542158e+01	-1.064792e-04
2.556842e+01	-1.077127e-04
2.571610e+01	-1.089606e-04
2.586463e+01	-1.102229e-04
2.601403e+01	-1.114999e-04
2.616428e+01	-1.127916e-04
2.631541e+01	-1.140983e-04
2.646740e+01	-1.154202e-04
2.662028e+01	-1.167573e-04
2.677404e+01	-1.181100e-04
2.692868e+01	-1.194783e-04
2.708422e+01	-1.208625e-04
2.724066e+01	-1.222627e-04
2.739800e+01	-1.236791e-04
2.755625e+01	-1.251119e-04
2.771541e+01	-1.265614e-04
2.787550e+01	-1.280276e-04
2.803650e+01	-1.295108e-04
2.819844e+01	-1.310112e-04
2.836131e+01	-1.325290e-04
2.852513e+01	-1.340643e-04
2.868989e+01	-1.356175e-04
2.885560e+01	-1.371886e-04
2.902227e+01	-1.387780e-04
2.918990e+01	-1.403857e-04
2.935850e+01	-1.420121e-04
2.952807e+01	-1.436573e-04
2.969863e+01	-1.453216e-04
2.987016e+01	-1.470052e-04
3.004269e+01	-1.487082e-04
3.021622e+01	-1.504310e-04
3.039075e+01	-1.521738e-04
3.056628e+01	-1.539367e-04
3.074283e+01	-1.557201e-04
3.092040e+01	-1.575241e-04
3.109900e+01	-1.593491e-04
3.127862e+01	-1.611951e-04
3.145929e+01	-1.630626e-04
3.164099e+01	-1.649517e-04
3.182375e+01	-1.668626e-04
3.200756e+01	-1.687958e-04
3.219244e+01	-1.707513e-04
3.237838e+01	-1.727294e-04
3.256540e+01	-1.747305e-04
3.275349e+01	-1.767548e-04
3.294268e+01	-1.788025e-04
3.313295e+01	-1.808739e-04
3.332433e+01	-1.829693e-04
3.351681e+01	-1.850891e-04
3.371040e+01	-1.872333e-04
3.390511e+01	-1.894024e-04
3.410094e+01	-1.915966e-04
3.429791e+01	-1.938163e-04
3.449601e+01	-1.960617e-04
3.469526e+01	-1.983330e-04
3.489566e+01	-2.006307e-04
3.509721e+01	-2.029550e-04
3.529993e+01	-2.053063e-04
3.550382e+01	-2.076847e-04
3.570889e+01	-2.100908e-04
3.591515e+01	-2.125247e-04
3.612259e+01	-2.149868e-04
3.633123e+01	-2.174774e-04
3.654108e+01	-2.199969e-04
3.675214e+01	-2.225455e-04
3.696442e+01	-2.251237e-04
3.717792e+01	-2.277318e-04
3.739266e+01	-2.303700e-04
3.760864e+01	-2.330389e-04
3.782587e+01	-2.357386e-04
3.804435e+01	-2.384696e-04
3.826409e+01	-2.412323e-04
3.848510e+01	-2.440270e-04
3.870739e+01	-2.468540e-04
3.893096e+01	-2.497138e-04
3.915583e+01	-2.526067e-04
3.938199e+01	-2.555331e-04
3.960946e+01	-2.584935e-04
3.983824e+01	-2.614881e-04
4.006834e+01	-2.645174e-04
4.029978e+01	-2.675818e-04
4.053255e+01	-2.706817e-04
4.076666e+01	-2.738176e-04
4.100213e+01	-2.769897e-04
4.123896e+01	-2.801986e-04
4.147715e+01	-2.834447e-04
4.171672e+01	-2.867284e-04
4.195767e+01	-2.900501e-04
4.220002e+01	-2.934103e-04
4.244377e+01	-2.968094e-04
4.268892e+01	-3.002479e-04
4.293549e+01	-3.037262e-04
4.318348e+01	-3.072449e-04
4.343291e+01	-3.108043e-04
4.368377e+01	-3.144049e-04
4.393609e+01	-3.180472e-04
4.418986e+01	-3.217317e-04
4.444510e+01	-3.254590e-04
4.470182e+01	-3.292293e-04
4.496001e+01	-3.330434e-04
4.521970e+01	-3.369017e-04
4.548089e+01	-3.408046e-04
4.574358e+01	-3.447528e-04
4.600779e+01	-3.487467e-04
4.627353e+01	-3.527868e-04
4.654081e+01	-3.568738e-04
4.680963e+01	-3.610081e-04
4.708000e+01	-3.651903e-04
4.735193e+01	-3.694210e-04
4.762543e+01	-3.737006e-04
4.790051e+01	-3.780299e-04
4.817719e+01	-3.824092e-04
4.845545e+01	-3.868394e-04
4.873533e+01	-3.913208e-04
4.901682e+01	-3.958542e-04
4.929994e+01	-4.004400e-04
4.958470e+01	-4.050790e-04
4.987110e+01	-4.097717e-04
5.015915e+01	-4.145188e-04
5.044887e+01	-4.193209e-04
5.074026e+01	-4.241786e-04
5.103333e+01	-4.290926e-04
5.132810e+01	-4.340635e-04
5.162457e+01	-4.390920e-04
5.192275e+01	-4.441788e-04
5.222265e+01	-4.493244e-04
5.252429e+01	-4.545297e-04
5.282767e+01	-4.597953e-04
5.313280e+01	-4.651218e-04
5.343969e+01	-4.705101e-04
5.374836e+01	-4.759608e-04
5.405880e+01	-4.814746e-04
5.437105e+01	-4.870523e-04
5.468509e+01	-4.926947e-04
5.500095e+01	-4.984023e-04
5.531863e+01	-5.041761e-04
5.563815e+01	-5.100168e-04
5.595951e+01	-5.159251e-04
5.628273e+01	-5.219019e-04
5.660782e+01	-5.279479e-04
5.693479e+01	-5.340640e-04
5.726364e+01	-5.402509e-04
5.759439e+01	-5.465094e-04
5.792705e+01	-5.528405e-04
5.826164e+01	-5.592449e-04
5.859815e+01	-5.657235e-04
5.893662e+01	-5.722771e-04
5.927703e+01	-5.789067e-04
5.961941e+01	-5.856130e-04
5.996377e+01	-5.923970e-04
6.031012e+01	-5.992596e-04
6.065847e+01	-6.062017e-04
6.100883e+01	-6.132243e-04
6.136121e+01	-6.203281e-04
6.171563e+01	-6.275143e-04
6.207210e+01	-6.347837e-04
6.243063e+01	-6.421373e-04
6.279122e+01	-6.495760e-04
6.315390e+01	-6.571010e-04
6.351868e+01	-6.647131e-04
6.388556e+01	-6.724134e-04
6.425456e+01	-6.802029e-04
6.462569e+01	-6.880826e-04
6.499897e+01	-6.960536e-04
6.537440e+01	-7.041169e-04
6.575200e+01	-7.122736e-04
6.613178e+01	-7.205248e-04
6.651375e+01	-7.288716e-04
6.689793e+01	-7.373151e-04
6.728433e+01	-7.458563e-04
6.767297e+01	-7.544965e-04
6.806384e+01	-7.632368e-04
6.845698e+01	-7.720783e-04
6.885238e+01	-7.810223e-04
6.925007e+01	-7.900698e-04
6.965005e+01	-7.992221e-04
7.005235e+01	-8.084805e-04
7.045697e+01	-8.178460e-04
7.086393e+01	-8.273201e-04
7.127323e+01	-8.369039e-04
7.168490e+01	-8.465987e-04
7.209895e+01	-8.564059e-04
7.251539e+01	-8.663266e-04
7.293424e+01	-8.763622e-04
7.335551e+01	-8.865140e-04
7.377920e+01	-8.967835e-04
7.420535e+01	-9.071719e-04
7.463396e+01	-9.176806e-04
7.506504e+01	-9.283110e-04
7.549861e+01	-9.390646e-04
7.593469e+01	-9.499427e-04
7.637328e+01	-9.609469e-04
7.681441e+01	-9.720785e-04
7.725809e+01	-9.833390e-04
7.770433e+01	-9.947299e-04
7.815315e+01	-1.006253e-03
7.860456e+01	-1.017909e-03
7.905857e+01	-1.029701e-03
7.951521e+01	-1.041628e-03
7.997449e+01	-1.053695e-03
8.043642e+01	-1.065900e-03
8.090102e+01	-1.078248e-03
8.136830e+01	-1.090738e-03
8.183828e+01	-1.103373e-03
8.231097e+01	-1.116154e-03
8.278640e+01	-1.129083e-03
8.326457e+01	-1.142162e-03
8.374550e+01	-1.155393e-03
8.422921e+01	-1.168776e-03
8.471572e+01	-1.182315e-03
8.520503e+01	-1.196011e-03
8.569717e+01	-1.209865e-03
8.619215e+01	-1.223880e-03
8.669000e+01	-1.238057e-03
8.719071e+01	-1.252398e-03
8.769432e+01	-1.266905e-03
8.820084e+01	-1.281580e-03
8.871029e+01	-1.296425e-03
8.922267e+01	-1.311443e-03
8.973802e+01	-1.326634e-03
9.025634e+01	-1.342001e-03
9.077766e+01	-1.357546e-03
9.130199e+01	-1.373271e-03
9.182935e+01	-1.389178e-03
9.235975e+01	-1.405269e-03
9.289321e+01	-1.421547e-03
9.342976e+01	-1.438013e-03
9.396941e+01	-1.454670e-03
9.451217e+01	-1.471520e-03
9.505807e+01	-1.488565e-03
9.560712e+01	-1.505808e-03
9.615934e+01	-1.523250e-03
9.671476e+01	-1.540894e-03
9.727338e+01	-1.558742e-03
9.783522e+01	-1.576798e-03
9.840032e+01	-1.595062e-03
9.896867e+01	-1.613538e-03
9.954031e+01	-1.632227e-03
1.001153e+02	-1.651134e-03
1.006935e+02	-1.670259e-03
1.012751e+02	-1.689605e-03
1.018601e+02	-1.709176e-03
1.024484e+02	-1.728973e-03
1.030402e+02	-1.749000e-03
1.036353e+02	-1.769258e-03
1.042339e+02	-1.789752e-03
1.048360e+02	-1.810482e-03
1.054415e+02	-1.831453e-03
1.060505e+02	-1.852666e-03
1.066631e+02	-1.874125e-03
1.072791e+02	-1.895832e-03
1.078988e+02	-1.917791e-03
1.085220e+02	-1.940004e-03
1.091488e+02	-1.962475e-03
1.097793e+02	-1.985205e-03
1.104133e+02	-2.008199e-03
1.110511e+02	-2.031459e-03
1.116925e+02	-2.054989e-03
1.123376e+02	-2.078791e-03
1.129865e+02	-2.102868e-03
1.136391e+02	-2.127224e-03
1.142955e+02	-2.151863e-03
1.149556e+02	-2.176786e-03
1.156196e+02	-2.201999e-03
1.162874e+02	-2.227503e-03
1.169591e+02	-2.253302e-03
1.176347e+02	-2.279401e-03
1.183141e+02	-2.305801e-03
1.189975e+02	-2.332507e-03
1.196848e+02	-2.359523e-03
1.203761e+02	-2.386851e-03
1.210714e+02	-2.414495e-03
1.217707e+02	-2.442460e-03
1.224740e+02	-2.470748e-03
1.231814e+02	-2.499365e-03
1.238929e+02	-2.528312e-03
1.246085e+02	-2.557594e-03
1.253283e+02	-2.587216e-03
1.260522e+02	-2.617180e-03
1.267802e+02	-2.647492e-03
1.275125e+02	-2.678154e-03
1.282490e+02	-2.709172e-03
1.289898e+02	-2.740548e-03
1.297348e+02	-2.772288e-03
1.304842e+02	-2.804396e-03
1.312378e+02	-2.836875e-03
1.319959e+02	-2.869730e-03
1.327583e+02	-2.902965e-03
1.335251e+02	-2.936585e-03
1.342963e+02	-2.970595e-03
1.350720e+02	-3.004998e-03
1.358522e+02	-3.039799e-03
1.366368e+02	-3.075004e-03
1.374260e+02	-3.110616e-03
1.382198e+02	-3.146640e-03
1.390182e+02	-3.183081e-03
1.398211e+02	-3.219944e-03
1.406287e+02	-3.257234e-03
1.414410e+02	-3.294956e-03
1.422579e+02	-3.333114e-03
1.430796e+02	-3.371714e-03
1.439060e+02	-3.410761e-03
1.447372e+02	-3.450260e-03
1.455732e+02	-3.490216e-03
1.464141e+02	-3.530634e-03
1.472597e+02	-3.571521e-03
1.481103e+02	-3.612881e-03
1.489658e+02	-3.654719e-03
1.498262e+02	-3.697042e-03
1.506916e+02	-3.739855e-03
1.515620e+02	-3.783163e-03
1.524374e+02	-3.826973e-03
1.533179e+02	-3.871289e-03
1.542034e+02	-3.916119e-03
1.550941e+02	-3.961467e-03
1.559899e+02	-4.007341e-03
1.568909e+02	-4.053745e-03
1.577971e+02	-4.100687e-03
1.587085e+02	-4.148172e-03
1.596252e+02	-4.196206e-03
1.605472e+02	-4.244796e-03
1.614745e+02	-4.293949e-03
1.624072e+02	-4.343671e-03
1.633453e+02	-4.393968e-03
1.642887e+02	-4.444847e-03
1.652377e+02	-4.496315e-03
1.661921e+02	-4.548378e-03
1.671520e+02	-4.601045e-03
1.681175e+02	-4.654320e-03
1.690885e+02	-4.708212e-03
1.700651e+02	-4.762728e-03
1.710474e+02	-4.817875e-03
1.720354e+02	-4.873660e-03
1.730291e+02	-4.930090e-03
1.740285e+02	-4.987174e-03
1.750337e+02	-5.044918e-03
1.760446e+02	-5.103330e-03
1.770615e+02	-5.162418e-03
1.780842e+02	-5.222190e-03
1.791128e+02	-5.282654e-03
1.801473e+02	-5.343817e-03
1.811878e+02	-5.405688e-03
1.822344e+02	-5.468275e-03
1.832870e+02	-5.531586e-03
1.843456e+02	-5.595629e-03
1.854104e+02	-5.660414e-03
1.864813e+02	-5.725948e-03
1.875584e+02	-5.792240e-03
1.886418e+02	-5.859299e-03
1.897313e+02	-5.927134e-03
1.908272e+02	-5.995754e-03
1.919294e+02	-6.065168e-03
1.930380e+02	-6.135384e-03
1.941530e+02	-6.206413e-03
1.952744e+02	-6.278264e-03
1.964023e+02	-6.350946e-03
1.975367e+02	-6.424469e-03
1.986777e+02	-6.498842e-03
1.998252e+02	-6.574076e-03
2.009794e+02	-6.650180e-03
2.021403e+02	-6.727164e-03
2.033078e+02	-6.805039e-03
2.044821e+02	-6.883814e-03
2.056632e+02	-6.963501e-03
2.068511e+02	-7.044109e-03
2.080459e+02	-7.125650e-03
2.092475e+02	-7.208133e-03
2.104561e+02	-7.291571e-03
2.116717e+02	-7.375974e-03
2.128943e+02	-7.461353e-03
2.141240e+02	-7.547719e-03
2.153608e+02	-7.635084e-03
2.166047e+02	-7.723460e-03
2.178558e+02	-7.812857e-03
2.191141e+02	-7.903289e-03
2.203797e+02	-7.994766e-03
2.216526e+02	-8.087301e-03
2.229329e+02	-8.180906e-03
2.242205e+02	-8.275593e-03
2.255156e+02	-8.371375e-03
2.268182e+02	-8.468265e-03
2.281283e+02	-8.566275e-03
2.294459e+02	-8.665418e-03
2.307712e+02	-8.765707e-03
2.321041e+02	-8.867156e-03
2.334447e+02	-8.969778e-03
2.347931e+02	-9.073587e-03
2.361493e+02	-9.178595e-03
2.375133e+02	-9.284817e-03
2.388851e+02	-9.392268e-03
2.402649e+02	-9.500960e-03
2.416527e+02	-9.610909e-03
2.430484e+02	-9.722129e-03
2.444523e+02	-9.834634e-03
2.458642e+02	-9.948440e-03
2.472843e+02	-1.006356e-02
2.487126e+02	-1.018001e-02
2.501492e+02	-1.029781e-02
2.515940e+02	-1.041697e-02
2.530472e+02	-1.053751e-02
2.545088e+02	-1.065944e-02
2.559789e+02	-1.078277e-02
2.574574e+02	-1.090754e-02
2.589444e+02	-1.103374e-02
2.604401e+02	-1.116141e-02
2.619444e+02	-1.129055e-02
2.634574e+02	-1.142118e-02
2.649791e+02	-1.155332e-02
2.665096e+02	-1.168699e-02
2.680489e+02	-1.182220e-02
2.695972e+02	-1.195897e-02
2.711544e+02	-1.209733e-02
2.727205e+02	-1.223728e-02
2.742958e+02	-1.237885e-02
2.758801e+02	-1.252205e-02
2.774736e+02	-1.266691e-02
2.790762e+02	-1.281344e-02
2.806882e+02	-1.296167e-02
2.823094e+02	-1.311160e-02
2.839400e+02	-1.326327e-02
2.855800e+02	-1.341669e-02
2.872295e+02	-1.357188e-02
2.888886e+02	-1.372887e-02
2.905572e+02	-1.388767e-02
2.922354e+02	-1.404830e-02
2.939234e+02	-1.421078e-02
2.956211e+02	-1.437515e-02
2.973286e+02	-1.454141e-02
2.990459e+02	-1.470958e-02
3.007732e+02	-1.487971e-02
3.025104e+02	-1.505179e-02
3.042577e+02	-1.522586e-02
3.060151e+02	-1.540195e-02
3.077826e+02	-1.558006e-02
3.095604e+02	-1.576023e-02
3.113484e+02	-1.594248e-02
3.131467e+02	-1.612683e-02
3.149554e+02	-1.631331e-02
3.167746e+02	-1.650195e-02
3.186043e+02	-1.669276e-02
3.204445e+02	-1.688577e-02
3.222954e+02	-1.708101e-02
3.241570e+02	-1.727850e-02
3.260293e+02	-1.747828e-02
3.279124e+02	-1.768035e-02
3.298064e+02	-1.788476e-02
3.317114e+02	-1.809153e-02
3.336273e+02	-1.830068e-02
3.355544e+02	-1.851224e-02
3.374925e+02	-1.872625e-02
3.394418e+02	-1.894272e-02
3.414024e+02	-1.916169e-02
3.433744e+02	-1.938319e-02
3.453577e+02	-1.960724e-02
3.473525e+02	-1.983387e-02
3.493588e+02	-2.006312e-02
3.513766e+02	-2.029501e-02
3.534062e+02	-2.052958e-02
3.554474e+02	-2.076685e-02
3.575005e+02	-2.100685e-02
3.595654e+02	-2.124962e-02
3.616422e+02	-2.149520e-02
3.637311e+02	-2.174360e-02
3.658320e+02	-2.199486e-02
3.679450e+02	-2.224902e-02
3.700702e+02	-2.250611e-02
3.722077e+02	-2.276617e-02
3.743576e+02	-2.302922e-02
3.765199e+02	-2.329530e-02
3.786946e+02	-2.356445e-02
3.808820e+02	-2.383669e-02
3.830819e+02	-2.411208e-02
3.852946e+02	-2.439064e-02
3.875200e+02	-2.467240e-02
3.897583e+02	-2.495742e-02
3.920096e+02	-2.524571e-02
3.942738e+02	-2.553733e-02
3.965511e+02	-2.583230e-02
3.988416e+02	-2.613067e-02
4.011452e+02	-2.643248e-02
4.034622e+02	-2.673776e-02
4.057926e+02	-2.704655e-02
4.081365e+02	-2.735890e-02
4.104938e+02	-2.767485e-02
4.128648e+02	-2.799444e-02
4.152495e+02	-2.831770e-02
4.176480e+02	-2.864468e-02
4.200603e+02	-2.897543e-02
4.224866e+02	-2.930998e-02
4.249268e+02	-2.964838e-02
4.273812e+02	-2.999067e-02
4.298497e+02	-3.033690e-02
4.323325e+02	-3.068712e-02
4.348297e+02	-3.104136e-02
4.373412e+02	-3.139968e-02
4.398673e+02	-3.176212e-02
4.424079e+02	-3.212873e-02
4.449633e+02	-3.249955e-02
4.475334e+02	-3.287464e-02
4.501183e+02	-3.325404e-02
4.527182e+02	-3.363780e-02
4.553330e+02	-3.402597e-02
4.579630e+02	-3.441860e-02
4.606082e+02	-3.481575e-02
4.632687e+02	-3.521746e-02
4.659445e+02	-3.562378e-02
4.686358e+02	-3.603477e-02
4.713426e+02	-3.645049e-02
4.740650e+02	-3.687098e-02
4.768032e+02	-3.729630e-02
4.795572e+02	-3.772651e-02
4.823271e+02	-3.816165e-02
4.851130e+02	-3.860180e-02
4.879150e+02	-3.904699e-02
4.907332e+02	-3.949730e-02
4.935676e+02	-3.995278e-02
4.964185e+02	-4.041348e-02
4.992858e+02	-4.087947e-02
5.021696e+02	-4.135081e-02
5.050701e+02	-4.182756e-02
5.079874e+02	-4.230977e-02
5.109215e+02	-4.279752e-02
5.138726e+02	-4.329087e-02
5.168407e+02	-4.378987e-02
5.198259e+02	-4.429459e-02
5.228284e+02	-4.480510e-02
5.258482e+02	-4.532147e-02
5.288855e+02	-4.584375e-02
5.319403e+02	-4.637202e-02
5.350128e+02	-4.690635e-02
5.381030e+02	-4.744679e-02
5.412111e+02	-4.799343e-02
5.443371e+02	-4.854634e-02
5.474812e+02	-4.910557e-02
5.506434e+02	-4.967121e-02
5.538239e+02	-5.024333e-02
5.570228e+02	-5.082200e-02
5.602401e+02	-5.140730e-02
5.634760e+02	-5.199929e-02
5.667306e+02	-5.259807e-02
5.700040e+02	-5.320369e-02
5.732964e+02	-5.381624e-02
5.766077e+02	-5.443580e-02
5.799382e+02	-5.506245e-02
5.832879e+02	-5.569627e-02
5.866569e+02	-5.633733e-02
5.900454e+02	-5.698573e-02
5.934535e+02	-5.764154e-02
5.968813e+02	-5.830484e-02
6.003288e+02	-5.897572e-02
6.037963e+02	-5.965428e-02
6.072838e+02	-6.034058e-02
6.107914e+02	-6.103472e-02
6.143194e+02	-6.173680e-02
6.178676e+02	-6.244688e-02
6.214364e+02	-6.316508e-02
6.250258e+02	-6.389148e-02
6.286359e+02	-6.462617e-02
6.322669e+02	-6.536924e-02
6.359189e+02	-6.612079e-02
6.395919e+02	-6.688091e-02
6.432862e+02	-6.764971e-02
6.470017e+02	-6.842727e-02
6.507388e+02	-6.921370e-02
6.544974e+02	-7.000909e-02
6.582778e+02	-7.081355e-02
6.620800e+02	-7.162717e-02
6.659041e+02	-7.245007e-02
6.697504e+02	-7.328234e-02
6.736188e+02	-7.412409e-02
6.775096e+02	-7.497542e-02
6.814229e+02	-7.583645e-02
6.853587e+02	-7.670727e-02
6.893173e+02	-7.758801e-02
6.932988e+02	-7.847877e-02
6.973033e+02	-7.937966e-02
7.013309e+02	-8.029079e-02
