Frequency(Hz)	Magnitude(dB)
1.000000e+01	-2.175308e+00
1.005776e+01	-2.195004e+00
1.011585e+01	-2.214847e+00
1.017428e+01	-2.234804e+00
1.023305e+01	-2.255173e+00
1.029215e+01	-2.275507e+00
1.035160e+01	-2.295908e+00
1.041139e+01	-2.316539e+00
1.047153e+01	-2.337332e+00
1.053201e+01	-2.358196e+00
1.059284e+01	-2.379384e+00
1.065403e+01	-2.400247e+00
1.071556e+01	-2.421627e+00
1.077746e+01	-2.443159e+00
1.083971e+01	-2.464954e+00
1.090232e+01	-2.486599e+00
1.096529e+01	-2.508254e+00
1.102862e+01	-2.530275e+00
1.109232e+01	-2.552533e+00
1.115639e+01	-2.574754e+00
1.122083e+01	-2.597365e+00
1.128564e+01	-2.619990e+00
1.135083e+01	-2.642761e+00
1.141639e+01	-2.665464e+00
1.148233e+01	-2.688485e+00
1.154865e+01	-2.711546e+00
1.161536e+01	-2.735016e+00
1.168245e+01	-2.758375e+00
1.174992e+01	-2.781806e+00
1.181779e+01	-2.805733e+00
1.188605e+01	-2.829562e+00
1.195470e+01	-2.853604e+00
1.202375e+01	-2.877807e+00
1.209320e+01	-2.902057e+00
1.216305e+01	-2.926522e+00
1.223330e+01	-2.951332e+00
1.230396e+01	-2.975764e+00
1.237503e+01	-3.000849e+00
1.244651e+01	-3.025961e+00
1.251840e+01	-3.051239e+00
1.259070e+01	-3.076229e+00
1.266343e+01	-3.101615e+00
1.273657e+01	-3.127329e+00
1.281014e+01	-3.153275e+00
1.288413e+01	-3.178901e+00
1.295855e+01	-3.205269e+00
1.303339e+01	-3.231357e+00
1.310867e+01	-3.257683e+00
1.318439e+01	-3.284093e+00
1.326054e+01	-3.310377e+00
1.333713e+01	-3.337403e+00
1.341417e+01	-3.364457e+00
1.349165e+01	-3.391371e+00
1.356958e+01	-3.418635e+00
1.364795e+01	-3.445834e+00
1.372678e+01	-3.473347e+00
1.380607e+01	-3.500923e+00
1.388581e+01	-3.528528e+00
1.396602e+01	-3.556576e+00
1.404668e+01	-3.584657e+00
1.412782e+01	-3.612843e+00
1.420942e+01	-3.640931e+00
1.429149e+01	-3.669734e+00
1.437404e+01	-3.698186e+00
1.445706e+01	-3.726716e+00
1.454057e+01	-3.755939e+00
1.462455e+01	-3.784838e+00
1.470902e+01	-3.814128e+00
1.479398e+01	-3.843116e+00
1.487943e+01	-3.872927e+00
1.496537e+01	-3.902503e+00
1.505181e+01	-3.932072e+00
1.513875e+01	-3.962004e+00
1.522619e+01	-3.992171e+00
1.531414e+01	-4.022088e+00
1.540259e+01	-4.052309e+00
1.549156e+01	-4.082960e+00
1.558103e+01	-4.113433e+00
1.567103e+01	-4.144206e+00
1.576155e+01	-4.174924e+00
1.585258e+01	-4.206077e+00
1.594415e+01	-4.236997e+00
1.603624e+01	-4.268235e+00
1.612886e+01	-4.299673e+00
1.622202e+01	-4.331101e+00
1.631572e+01	-4.362683e+00
1.640996e+01	-4.394302e+00
1.650474e+01	-4.426454e+00
1.660008e+01	-4.458464e+00
1.669596e+01	-4.490708e+00
1.679239e+01	-4.522802e+00
1.688938e+01	-4.555178e+00
1.698694e+01	-4.587881e+00
1.708505e+01	-4.620560e+00
1.718373e+01	-4.653841e+00
1.728299e+01	-4.686313e+00
1.738281e+01	-4.719286e+00
1.748322e+01	-4.752666e+00
1.758420e+01	-4.786036e+00
1.768576e+01	-4.819775e+00
1.778792e+01	-4.853221e+00
1.789066e+01	-4.886715e+00
1.799399e+01	-4.920732e+00
1.809793e+01	-4.954562e+00
1.820246e+01	-4.988666e+00
1.830760e+01	-5.023266e+00
1.841334e+01	-5.057156e+00
1.851969e+01	-5.091731e+00
1.862666e+01	-5.126590e+00
1.873425e+01	-5.161122e+00
1.884246e+01	-5.195992e+00
1.895129e+01	-5.230753e+00
1.906075e+01	-5.266454e+00
1.917085e+01	-5.301121e+00
1.928158e+01	-5.336506e+00
1.939295e+01	-5.371962e+00
1.950496e+01	-5.407421e+00
1.961762e+01	-5.443196e+00
1.973093e+01	-5.479130e+00
1.984490e+01	-5.514945e+00
1.995952e+01	-5.551024e+00
2.007480e+01	-5.587166e+00
2.019076e+01	-5.623413e+00
2.030738e+01	-5.659586e+00
2.042467e+01	-5.695938e+00
2.054264e+01	-5.732922e+00
2.066130e+01	-5.769656e+00
2.078064e+01	-5.806230e+00
2.090066e+01	-5.843598e+00
2.102139e+01	-5.880371e+00
2.114280e+01	-5.917563e+00
2.126492e+01	-5.954760e+00
2.138775e+01	-5.992251e+00
2.151128e+01	-6.029771e+00
2.163553e+01	-6.067428e+00
2.176050e+01	-6.105116e+00
2.188619e+01	-6.143088e+00
2.201260e+01	-6.180785e+00
2.213974e+01	-6.218714e+00
2.226762e+01	-6.256999e+00
2.239624e+01	-6.295352e+00
2.252560e+01	-6.333585e+00
2.265571e+01	-6.371503e+00
2.278656e+01	-6.410303e+00
2.291818e+01	-6.448905e+00
2.305055e+01	-6.487587e+00
2.318369e+01	-6.526656e+00
2.331760e+01	-6.565460e+00
2.345228e+01	-6.604779e+00
2.358774e+01	-6.643501e+00
2.372398e+01	-6.682961e+00
2.386101e+01	-6.722379e+00
2.399883e+01	-6.761850e+00
2.413745e+01	-6.801367e+00
2.427686e+01	-6.840751e+00
2.441709e+01	-6.880879e+00
2.455812e+01	-6.920425e+00
2.469997e+01	-6.960889e+00
2.484263e+01	-7.000558e+00
2.498612e+01	-7.040932e+00
2.513044e+01	-7.081057e+00
2.527559e+01	-7.121084e+00
2.542158e+01	-7.161601e+00
2.556842e+01	-7.202053e+00
2.571610e+01	-7.242237e+00
2.586463e+01	-7.283128e+00
2.601403e+01	-7.323871e+00
2.616428e+01	-7.364523e+00
2.631541e+01	-7.405419e+00
2.646740e+01	-7.446118e+00
2.662028e+01	-7.487420e+00
2.677404e+01	-7.528374e+00
2.692868e+01	-7.569749e+00
2.708422e+01	-7.611214e+00
2.724066e+01	-7.652322e+00
2.739800e+01	-7.693992e+00
2.755625e+01	-7.735578e+00
2.771541e+01	-7.777214e+00
2.787550e+01	-7.818689e+00
2.803650e+01	-7.860837e+00
2.819844e+01	-7.902160e+00
2.836131e+01	-7.944768e+00
2.852513e+01	-7.986645e+00
2.868989e+01	-8.028370e+00
2.885560e+01	-8.070529e+00
2.902227e+01	-8.113263e+00
2.918990e+01	-8.155532e+00
2.935850e+01	-8.197672e+00
2.952807e+01	-8.240280e+00
2.969863e+01	-8.282659e+00
2.987016e+01	-8.325555e+00
3.004269e+01	-8.368220e+00
3.021622e+01	-8.410671e+00
3.039075e+01	-8.454272e+00
3.056628e+01	-8.496180e+00
3.074283e+01	-8.539633e+00
3.092040e+01	-8.582879e+00
3.109900e+01	-8.625768e+00
3.127862e+01	-8.669149e+00
3.145929e+01	-8.712739e+00
3.164099e+01	-8.755976e+00
3.182375e+01	-8.799457e+00
3.200756e+01	-8.842812e+00
3.219244e+01	-8.886531e+00
3.237838e+01	-8.929804e+00
3.256540e+01	-8.973707e+00
3.275349e+01	-9.017293e+00
3.294268e+01	-9.060876e+00
3.313295e+01	-9.104752e+00
3.332433e+01	-9.148656e+00
3.351681e+01	-9.192818e+00
3.371040e+01	-9.236664e+00
3.390511e+01	-9.280837e+00
3.410094e+01	-9.325171e+00
3.429791e+01	-9.369320e+00
3.449601e+01	-9.413682e+00
3.469526e+01	-9.457612e+00
3.489566e+01	-9.502430e+00
3.509721e+01	-9.546571e+00
3.529993e+01	-9.590649e+00
3.550382e+01	-9.636265e+00
3.570889e+01	-9.680270e+00
3.591515e+01	-9.725271e+00
3.612259e+01	-9.769976e+00
3.633123e+01	-9.814439e+00
3.654108e+01	-9.859274e+00
3.675214e+01	-9.904347e+00
3.696442e+01	-9.949383e+00
3.717792e+01	-9.993862e+00
3.739266e+01	-1.003888e+01
3.760864e+01	-1.008435e+01
3.782587e+01	-1.012962e+01
3.804435e+01	-1.017445e+01
3.826409e+01	-1.021959e+01
3.848510e+01	-1.026458e+01
3.870739e+01	-1.031041e+01
3.893096e+01	-1.035587e+01
3.915583e+01	-1.040211e+01
3.938199e+01	-1.044659e+01
3.960946e+01	-1.049283e+01
3.983824e+01	-1.053798e+01
4.006834e+01	-1.058341e+01
4.029978e+01	-1.062916e+01
4.053255e+01	-1.067505e+01
4.076666e+01	-1.072033e+01
4.100213e+01	-1.076683e+01
4.123896e+01	-1.081208e+01
4.147715e+01	-1.085856e+01
4.171672e+01	-1.090418e+01
4.195767e+01	-1.095020e+01
4.220002e+01	-1.099592e+01
4.244377e+01	-1.104209e+01
4.268892e+01	-1.108819e+01
4.293549e+01	-1.113416e+01
4.318348e+01	-1.118020e+01
4.343291e+01	-1.122744e+01
4.368377e+01	-1.127358e+01
4.393609e+01	-1.131890e+01
4.418986e+01	-1.136552e+01
4.444510e+01	-1.141255e+01
4.470182e+01	-1.145849e+01
4.496001e+01	-1.150581e+01
4.521970e+01	-1.155170e+01
4.548089e+01	-1.159810e+01
4.574358e+01	-1.164437e+01
4.600779e+01	-1.169076e+01
4.627353e+01	-1.173753e+01
4.654081e+01	-1.178470e+01
4.680963e+01	-1.183176e+01
4.708000e+01	-1.187867e+01
4.735193e+01	-1.192532e+01
4.762543e+01	-1.197223e+01
4.790051e+01	-1.201875e+01
4.817719e+01	-1.206532e+01
4.845545e+01	-1.211216e+01
4.873533e+01	-1.215911e+01
4.901682e+01	-1.220683e+01
4.929994e+01	-1.225372e+01
4.958470e+01	-1.230091e+01
4.987110e+01	-1.234815e+01
5.015915e+01	-1.239512e+01
5.044887e+01	-1.244310e+01
5.074026e+01	-1.248930e+01
5.103333e+01	-1.253648e+01
5.132810e+01	-1.258315e+01
5.162457e+01	-1.263063e+01
5.192275e+01	-1.267846e+01
5.222265e+01	-1.272592e+01
5.252429e+01	-1.277316e+01
5.282767e+01	-1.281975e+01
5.313280e+01	-1.286783e+01
5.343969e+01	-1.291512e+01
5.374836e+01	-1.296277e+01
5.405880e+01	-1.301036e+01
5.437105e+01	-1.305870e+01
5.468509e+01	-1.310551e+01
5.500095e+01	-1.315250e+01
5.531863e+01	-1.320040e+01
5.563815e+01	-1.324831e+01
5.595951e+01	-1.329558e+01
5.628273e+01	-1.334344e+01
5.660782e+01	-1.339134e+01
5.693479e+01	-1.343936e+01
5.726364e+01	-1.348650e+01
5.759439e+01	-1.353471e+01
5.792705e+01	-1.358220e+01
5.826164e+01	-1.363075e+01
5.859815e+01	-1.367863e+01
5.893662e+01	-1.372617e+01
5.927703e+01	-1.377408e+01
5.961941e+01	-1.382190e+01
5.996377e+01	-1.386972e+01
6.031012e+01	-1.391780e+01
6.065847e+01	-1.396701e+01
6.100883e+01	-1.401378e+01
6.136121e+01	-1.406245e+01
6.171563e+01	-1.410965e+01
6.207210e+01	-1.415762e+01
6.243063e+01	-1.420662e+01
6.279122e+01	-1.425471e+01
6.315390e+01	-1.430233e+01
6.351868e+01	-1.435080e+01
6.388556e+01	-1.439869e+01
6.425456e+01	-1.444777e+01
6.462569e+01	-1.449520e+01
6.499897e+01	-1.454394e+01
6.537440e+01	-1.459316e+01
6.575200e+01	-1.464045e+01
6.613178e+01	-1.468878e+01
6.651375e+01	-1.473633e+01
6.689793e+01	-1.478488e+01
6.728433e+01	-1.483411e+01
6.767297e+01	-1.488199e+01
6.806384e+01	-1.493033e+01
6.845698e+01	-1.497940e+01
6.885238e+01	-1.502801e+01
6.925007e+01	-1.507600e+01
6.965005e+01	-1.512412e+01
7.005235e+01	-1.517224e+01
7.045697e+01	-1.522158e+01
7.086393e+01	-1.526990e+01
7.127323e+01	-1.531879e+01
7.168490e+01	-1.536695e+01
7.209895e+01	-1.541568e+01
7.251539e+01	-1.546395e+01
7.293424e+01	-1.551312e+01
7.335551e+01	-1.556189e+01
7.377920e+01	-1.560945e+01
7.420535e+01	-1.565797e+01
7.463396e+01	-1.570734e+01
7.506504e+01	-1.575568e+01
7.549861e+01	-1.580417e+01
7.593469e+01	-1.585348e+01
7.637328e+01	-1.590170e+01
7.681441e+01	-1.595101e+01
7.725809e+01	-1.599967e+01
7.770433e+01	-1.604816e+01
7.815315e+01	-1.609761e+01
7.860456e+01	-1.614683e+01
7.905857e+01	-1.619546e+01
7.951521e+01	-1.624449e+01
7.997449e+01	-1.629217e+01
8.043642e+01	-1.634170e+01
8.090102e+01	-1.639088e+01
8.136830e+01	-1.644065e+01
8.183828e+01	-1.648861e+01
8.231097e+01	-1.653634e+01
8.278640e+01	-1.658627e+01
8.326457e+01	-1.663598e+01
8.374550e+01	-1.668377e+01
8.422921e+01	-1.673272e+01
8.471572e+01	-1.678167e+01
8.520503e+01	-1.683035e+01
8.569717e+01	-1.687956e+01
8.619215e+01	-1.692915e+01
8.669000e+01	-1.697831e+01
8.719071e+01	-1.702783e+01
8.769432e+01	-1.707639e+01
8.820084e+01	-1.712484e+01
8.871029e+01	-1.717386e+01
8.922267e+01	-1.722268e+01
8.973802e+01	-1.727209e+01
9.025634e+01	-1.732045e+01
9.077766e+01	-1.737078e+01
9.130199e+01	-1.741935e+01
9.182935e+01	-1.746914e+01
9.235975e+01	-1.751798e+01
9.289321e+01	-1.756856e+01
9.342976e+01	-1.761645e+01
9.396941e+01	-1.766496e+01
9.451217e+01	-1.771429e+01
9.505807e+01	-1.776405e+01
9.560712e+01	-1.781192e+01
9.615934e+01	-1.786216e+01
9.671476e+01	-1.791207e+01
9.727338e+01	-1.796041e+01
9.783522e+01	-1.800899e+01
9.840032e+01	-1.805903e+01
9.896867e+01	-1.810876e+01
9.954031e+01	-1.815727e+01
1.001153e+02	-1.820681e+01
1.006935e+02	-1.825633e+01
1.012751e+02	-1.830658e+01
1.018601e+02	-1.835424e+01
1.024484e+02	-1.840373e+01
1.030402e+02	-1.845379e+01
1.036353e+02	-1.850278e+01
1.042339e+02	-1.855198e+01
1.048360e+02	-1.860060e+01
1.054415e+02	-1.865038e+01
1.060505e+02	-1.870028e+01
1.066631e+02	-1.874942e+01
1.072791e+02	-1.879958e+01
1.078988e+02	-1.884839e+01
1.085220e+02	-1.889934e+01
1.091488e+02	-1.894777e+01
1.097793e+02	-1.899577e+01
1.104133e+02	-1.904650e+01
1.110511e+02	-1.909616e+01
1.116925e+02	-1.914432e+01
1.123376e+02	-1.919390e+01
1.129865e+02	-1.924337e+01
1.136391e+02	-1.929377e+01
1.142955e+02	-1.934304e+01
1.149556e+02	-1.939161e+01
1.156196e+02	-1.944167e+01
1.162874e+02	-1.949320e+01
1.169591e+02	-1.954054e+01
1.176347e+02	-1.959183e+01
1.183141e+02	-1.963838e+01
1.189975e+02	-1.968863e+01
1.196848e+02	-1.973915e+01
1.203761e+02	-1.978654e+01
1.210714e+02	-1.983762e+01
1.217707e+02	-1.988630e+01
1.224740e+02	-1.993681e+01
1.231814e+02	-1.998589e+01
1.238929e+02	-2.003631e+01
1.246085e+02	-2.008526e+01
1.253283e+02	-2.013495e+01
1.260522e+02	-2.018386e+01
1.267802e+02	-2.023339e+01
1.275125e+02	-2.028268e+01
1.282490e+02	-2.033215e+01
1.289898e+02	-2.038253e+01
1.297348e+02	-2.043043e+01
1.304842e+02	-2.048201e+01
1.312378e+02	-2.053015e+01
1.319959e+02	-2.058054e+01
1.327583e+02	-2.063008e+01
1.335251e+02	-2.068034e+01
1.342963e+02	-2.072930e+01
1.350720e+02	-2.077843e+01
1.358522e+02	-2.082815e+01
1.366368e+02	-2.087748e+01
1.374260e+02	-2.092770e+01
1.382198e+02	-2.097967e+01
1.390182e+02	-2.102798e+01
1.398211e+02	-2.107654e+01
1.406287e+02	-2.112736e+01
1.414410e+02	-2.117624e+01
1.422579e+02	-2.122634e+01
1.430796e+02	-2.127565e+01
1.439060e+02	-2.132465e+01
1.447372e+02	-2.137638e+01
1.455732e+02	-2.142482e+01
1.464141e+02	-2.147637e+01
1.472597e+02	-2.152473e+01
1.481103e+02	-2.157366e+01
1.489658e+02	-2.162528e+01
1.498262e+02	-2.167379e+01
1.506916e+02	-2.172207e+01
1.515620e+02	-2.177259e+01
1.524374e+02	-2.182186e+01
1.533179e+02	-2.187299e+01
1.542034e+02	-2.192064e+01
1.550941e+02	-2.197010e+01
1.559899e+02	-2.202218e+01
1.568909e+02	-2.207054e+01
1.577971e+02	-2.212289e+01
1.587085e+02	-2.216955e+01
1.596252e+02	-2.222018e+01
1.605472e+02	-2.226834e+01
1.614745e+02	-2.232050e+01
1.624072e+02	-2.236895e+01
1.633453e+02	-2.241819e+01
1.642887e+02	-2.246944e+01
1.652377e+02	-2.251670e+01
1.661921e+02	-2.256795e+01
1.671520e+02	-2.261888e+01
1.681175e+02	-2.266966e+01
1.690885e+02	-2.271817e+01
1.700651e+02	-2.276856e+01
1.710474e+02	-2.281676e+01
1.720354e+02	-2.286543e+01
1.730291e+02	-2.291565e+01
1.740285e+02	-2.296700e+01
1.750337e+02	-2.301734e+01
1.760446e+02	-2.306506e+01
1.770615e+02	-2.311568e+01
1.780842e+02	-2.316642e+01
1.791128e+02	-2.321654e+01
1.801473e+02	-2.326509e+01
1.811878e+02	-2.331511e+01
1.822344e+02	-2.336361e+01
1.832870e+02	-2.341330e+01
1.843456e+02	-2.346747e+01
1.854104e+02	-2.351536e+01
1.864813e+02	-2.356707e+01
1.875584e+02	-2.361412e+01
1.886418e+02	-2.366426e+01
1.897313e+02	-2.371288e+01
1.908272e+02	-2.376379e+01
1.919294e+02	-2.381126e+01
1.930380e+02	-2.386189e+01
1.941530e+02	-2.391501e+01
1.952744e+02	-2.396466e+01
1.964023e+02	-2.401366e+01
1.975367e+02	-2.405978e+01
1.986777e+02	-2.411474e+01
1.998252e+02	-2.416093e+01
2.009794e+02	-2.421262e+01
2.021403e+02	-2.426026e+01
2.033078e+02	-2.431600e+01
2.044821e+02	-2.436253e+01
2.056632e+02	-2.441341e+01
2.068511e+02	-2.446365e+01
2.080459e+02	-2.451383e+01
2.092475e+02	-2.456225e+01
2.104561e+02	-2.460865e+01
2.116717e+02	-2.466309e+01
2.128943e+02	-2.471015e+01
2.141240e+02	-2.475924e+01
2.153608e+02	-2.481202e+01
2.166047e+02	-2.486411e+01
2.178558e+02	-2.491064e+01
2.191141e+02	-2.496246e+01
2.203797e+02	-2.500993e+01
2.216526e+02	-2.505957e+01
2.229329e+02	-2.511128e+01
2.242205e+02	-2.515807e+01
2.255156e+02	-2.521123e+01
2.268182e+02	-2.526178e+01
2.281283e+02	-2.531049e+01
2.294459e+02	-2.536068e+01
2.307712e+02	-2.541089e+01
2.321041e+02	-2.546233e+01
2.334447e+02	-2.551068e+01
2.347931e+02	-2.556102e+01
2.361493e+02	-2.560980e+01
2.375133e+02	-2.566076e+01
2.388851e+02	-2.570964e+01
2.402649e+02	-2.575967e+01
2.416527e+02	-2.580882e+01
2.430484e+02	-2.586076e+01
2.444523e+02	-2.591026e+01
2.458642e+02	-2.596193e+01
2.472843e+02	-2.600714e+01
2.487126e+02	-2.606259e+01
2.501492e+02	-2.611073e+01
2.515940e+02	-2.616028e+01
2.530472e+02	-2.620991e+01
2.545088e+02	-2.625990e+01
2.559789e+02	-2.630845e+01
2.574574e+02	-2.636084e+01
2.589444e+02	-2.640881e+01
2.604401e+02	-2.645707e+01
2.619444e+02	-2.651032e+01
2.634574e+02	-2.655803e+01
2.649791e+02	-2.661020e+01
2.665096e+02	-2.665802e+01
2.680489e+02	-2.670910e+01
2.695972e+02	-2.675752e+01
2.711544e+02	-2.680774e+01
2.727205e+02	-2.686346e+01
2.742958e+02	-2.690854e+01
2.758801e+02	-2.695793e+01
2.774736e+02	-2.700895e+01
2.790762e+02	-2.706158e+01
2.806882e+02	-2.710777e+01
2.823094e+02	-2.715490e+01
2.839400e+02	-2.720659e+01
2.855800e+02	-2.726085e+01
2.872295e+02	-2.730926e+01
2.888886e+02	-2.735786e+01
2.905572e+02	-2.741015e+01
2.922354e+02	-2.746276e+01
2.939234e+02	-2.750737e+01
2.956211e+02	-2.755766e+01
2.973286e+02	-2.760954e+01
2.990459e+02	-2.766124e+01
3.007732e+02	-2.771013e+01
3.025104e+02	-2.775745e+01
3.042577e+02	-2.780552e+01
3.060151e+02	-2.786062e+01
3.077826e+02	-2.790928e+01
3.095604e+02	-2.795861e+01
3.113484e+02	-2.800800e+01
3.131467e+02	-2.806053e+01
3.149554e+02	-2.810880e+01
3.167746e+02	-2.815982e+01
3.186043e+02	-2.820853e+01
3.204445e+02	-2.825764e+01
3.222954e+02	-2.830886e+01
3.241570e+02	-2.835815e+01
3.260293e+02	-2.840697e+01
3.279124e+02	-2.846055e+01
3.298064e+02	-2.851516e+01
3.317114e+02	-2.855761e+01
3.336273e+02	-2.861027e+01
3.355544e+02	-2.866228e+01
3.374925e+02	-2.871138e+01
3.394418e+02	-2.875932e+01
3.414024e+02	-2.880892e+01
3.433744e+02	-2.885608e+01
3.453577e+02	-2.890573e+01
3.473525e+02	-2.895924e+01
3.493588e+02	-2.900820e+01
3.513766e+02	-2.905784e+01
3.534062e+02	-2.911141e+01
3.554474e+02	-2.915953e+01
3.575005e+02	-2.920843e+01
3.595654e+02	-2.925826e+01
3.616422e+02	-2.930852e+01
3.637311e+02	-2.936251e+01
3.658320e+02	-2.940666e+01
3.679450e+02	-2.946138e+01
3.700702e+02	-2.950804e+01
3.722077e+02	-2.955637e+01
3.743576e+02	-2.960959e+01
3.765199e+02	-2.966261e+01
3.786946e+02	-2.970968e+01
3.808820e+02	-2.976172e+01
3.830819e+02	-2.981073e+01
3.852946e+02	-2.986028e+01
3.875200e+02	-2.990615e+01
3.897583e+02	-2.996491e+01
3.920096e+02	-3.000958e+01
3.942738e+02	-3.006404e+01
3.965511e+02	-3.011139e+01
3.988416e+02	-3.015884e+01
4.011452e+02	-3.021420e+01
4.034622e+02	-3.026246e+01
4.057926e+02	-3.030907e+01
4.081365e+02	-3.036433e+01
4.104938e+02	-3.041045e+01
4.128648e+02	-3.046077e+01
4.152495e+02	-3.051325e+01
4.176480e+02	-3.056257e+01
4.200603e+02	-3.060855e+01
4.224866e+02	-3.065775e+01
4.249268e+02	-3.071845e+01
4.273812e+02	-3.076269e+01
4.298497e+02	-3.080779e+01
4.323325e+02	-3.086347e+01
4.348297e+02	-3.091167e+01
4.373412e+02	-3.095868e+01
4.398673e+02	-3.101645e+01
4.424079e+02	-3.106745e+01
4.449633e+02	-3.111125e+01
4.475334e+02	-3.116128e+01
4.501183e+02	-3.121217e+01
4.527182e+02	-3.126170e+01
4.553330e+02	-3.131777e+01
4.579630e+02	-3.136971e+01
4.606082e+02	-3.141632e+01
4.632687e+02	-3.146636e+01
4.659445e+02	-3.152022e+01
4.686358e+02	-3.156765e+01
4.713426e+02	-3.161560e+01
4.740650e+02	-3.165800e+01
4.768032e+02	-3.172114e+01
4.795572e+02	-3.176773e+01
4.823271e+02	-3.181462e+01
4.851130e+02	-3.186777e+01
4.879150e+02	-3.191247e+01
4.907332e+02	-3.196533e+01
4.935676e+02	-3.202124e+01
4.964185e+02	-3.206821e+01
4.992858e+02	-3.211577e+01
5.021696e+02	-3.217328e+01
5.050701e+02	-3.221693e+01
5.079874e+02	-3.226865e+01
5.109215e+02	-3.231601e+01
5.138726e+02	-3.237267e+01
5.168407e+02	-3.241403e+01
5.198259e+02	-3.246645e+01
5.228284e+02	-3.251567e+01
5.258482e+02	-3.257297e+01
5.288855e+02	-3.262159e+01
5.319403e+02	-3.266469e+01
5.350128e+02	-3.271790e+01
5.381030e+02	-3.277168e+01
5.412111e+02	-3.281777e+01
5.443371e+02	-3.287095e+01
5.474812e+02	-3.292119e+01
5.506434e+02	-3.296922e+01
5.538239e+02	-3.302318e+01
5.570228e+02	-3.308083e+01
5.602401e+02	-3.311894e+01
5.634760e+02	-3.316765e+01
5.667306e+02	-3.322650e+01
5.700040e+02	-3.326626e+01
5.732964e+02	-3.331743e+01
5.766077e+02	-3.336845e+01
5.799382e+02	-3.342383e+01
5.832879e+02	-3.347655e+01
5.866569e+02	-3.352231e+01
5.900454e+02	-3.357018e+01
5.934535e+02	-3.362838e+01
5.968813e+02	-3.367865e+01
6.003288e+02	-3.372828e+01
6.037963e+02	-3.376718e+01
6.072838e+02	-3.382639e+01
6.107914e+02	-3.386886e+01
6.143194e+02	-3.392557e+01
6.178676e+02	-3.398086e+01
6.214364e+02	-3.402456e+01
6.250258e+02	-3.407926e+01
6.286359e+02	-3.413519e+01
6.322669e+02	-3.418144e+01
6.359189e+02	-3.423417e+01
6.395919e+02	-3.427400e+01
6.432862e+02	-3.433861e+01
6.470017e+02	-3.437875e+01
6.507388e+02	-3.442840e+01
6.544974e+02	-3.447156e+01
6.582778e+02	-3.453443e+01
6.620800e+02	-3.457728e+01
6.659041e+02	-3.463613e+01
6.697504e+02	-3.468231e+01
6.736188e+02	-3.472337e+01
6.775096e+02	-3.478456e+01
6.814229e+02	-3.483387e+01
6.853587e+02	-3.488681e+01
6.893173e+02	-3.493189e+01
6.932988e+02	-3.498169e+01
6.973033e+02	-3.503333e+01
7.013309e+02	-3.507985e+01
