Frequency(Hz)	Magnitude(dB)
1.000000e+01	-1.564275e-05
1.005776e+01	-1.582397e-05
1.011585e+01	-1.600730e-05
1.017428e+01	-1.619274e-05
1.023305e+01	-1.638034e-05
1.029215e+01	-1.657011e-05
1.035160e+01	-1.676208e-05
1.041139e+01	-1.695627e-05
1.047153e+01	-1.715272e-05
1.053201e+01	-1.735144e-05
1.059284e+01	-1.755246e-05
1.065403e+01	-1.775581e-05
1.071556e+01	-1.796151e-05
1.077746e+01	-1.816960e-05
1.083971e+01	-1.838010e-05
1.090232e+01	-1.859304e-05
1.096529e+01	-1.880844e-05
1.102862e+01	-1.902634e-05
1.109232e+01	-1.924677e-05
1.115639e+01	-1.946975e-05
1.122083e+01	-1.969531e-05
1.128564e+01	-1.992349e-05
1.135083e+01	-2.015430e-05
1.141639e+01	-2.038780e-05
1.148233e+01	-2.062399e-05
1.154865e+01	-2.086293e-05
1.161536e+01	-2.110463e-05
1.168245e+01	-2.134913e-05
1.174992e+01	-2.159647e-05
1.181779e+01	-2.184667e-05
1.188605e+01	-2.209977e-05
1.195470e+01	-2.235580e-05
1.202375e+01	-2.261480e-05
1.209320e+01	-2.287679e-05
1.216305e+01	-2.314183e-05
1.223330e+01	-2.340993e-05
1.230396e+01	-2.368114e-05
1.237503e+01	-2.395549e-05
1.244651e+01	-2.423302e-05
1.251840e+01	-2.451377e-05
1.259070e+01	-2.479777e-05
1.266343e+01	-2.508506e-05
1.273657e+01	-2.537567e-05
1.281014e+01	-2.566966e-05
1.288413e+01	-2.596705e-05
1.295855e+01	-2.626788e-05
1.303339e+01	-2.657220e-05
1.310867e+01	-2.688005e-05
1.318439e+01	-2.719146e-05
1.326054e+01	-2.750648e-05
1.333713e+01	-2.782515e-05
1.341417e+01	-2.814751e-05
1.349165e+01	-2.847360e-05
1.356958e+01	-2.880348e-05
1.364795e+01	-2.913717e-05
1.372678e+01	-2.947473e-05
1.380607e+01	-2.981620e-05
1.388581e+01	-3.016163e-05
1.396602e+01	-3.051106e-05
1.404668e+01	-3.086454e-05
1.412782e+01	-3.122211e-05
1.420942e+01	-3.158383e-05
1.429149e+01	-3.194973e-05
1.437404e+01	-3.231988e-05
1.445706e+01	-3.269431e-05
1.454057e+01	-3.307308e-05
1.462455e+01	-3.345624e-05
1.470902e+01	-3.384384e-05
1.479398e+01	-3.423593e-05
1.487943e+01	-3.463256e-05
1.496537e+01	-3.503379e-05
1.505181e+01	-3.543966e-05
1.513875e+01	-3.585024e-05
1.522619e+01	-3.626557e-05
1.531414e+01	-3.668572e-05
1.540259e+01	-3.711073e-05
1.549156e+01	-3.754067e-05
1.558103e+01	-3.797559e-05
1.567103e+01	-3.841554e-05
1.576155e+01	-3.886059e-05
1.585258e+01	-3.931080e-05
1.594415e+01	-3.976623e-05
1.603624e+01	-4.022693e-05
1.612886e+01	-4.069297e-05
1.622202e+01	-4.116440e-05
1.631572e+01	-4.164130e-05
1.640996e+01	-4.212373e-05
1.650474e+01	-4.261174e-05
1.660008e+01	-4.310541e-05
1.669596e+01	-4.360479e-05
1.679239e+01	-4.410996e-05
1.688938e+01	-4.462099e-05
1.698694e+01	-4.513793e-05
1.708505e+01	-4.566086e-05
1.718373e+01	-4.618985e-05
1.728299e+01	-4.672497e-05
1.738281e+01	-4.726629e-05
1.748322e+01	-4.781388e-05
1.758420e+01	-4.836782e-05
1.768576e+01	-4.892817e-05
1.778792e+01	-4.949501e-05
1.789066e+01	-5.006842e-05
1.799399e+01	-5.064847e-05
1.809793e+01	-5.123525e-05
1.820246e+01	-5.182882e-05
1.830760e+01	-5.242927e-05
1.841334e+01	-5.303667e-05
1.851969e+01	-5.365111e-05
1.862666e+01	-5.427267e-05
1.873425e+01	-5.490143e-05
1.884246e+01	-5.553748e-05
1.895129e+01	-5.618089e-05
1.906075e+01	-5.683175e-05
1.917085e+01	-5.749016e-05
1.928158e+01	-5.815620e-05
1.939295e+01	-5.882995e-05
1.950496e+01	-5.951151e-05
1.961762e+01	-6.020096e-05
1.973093e+01	-6.089840e-05
1.984490e+01	-6.160392e-05
1.995952e+01	-6.231761e-05
2.007480e+01	-6.303957e-05
2.019076e+01	-6.376990e-05
2.030738e+01	-6.450869e-05
2.042467e+01	-6.525603e-05
2.054264e+01	-6.601204e-05
2.066130e+01	-6.677680e-05
2.078064e+01	-6.755042e-05
2.090066e+01	-6.833300e-05
2.102139e+01	-6.912465e-05
2.114280e+01	-6.992548e-05
2.126492e+01	-7.073558e-05
2.138775e+01	-7.155506e-05
2.151128e+01	-7.238404e-05
2.163553e+01	-7.322262e-05
2.176050e+01	-7.407092e-05
2.188619e+01	-7.492904e-05
2.201260e+01	-7.579711e-05
2.213974e+01	-7.667523e-05
2.226762e+01	-7.756353e-05
2.239624e+01	-7.846212e-05
2.252560e+01	-7.937111e-05
2.265571e+01	-8.029064e-05
2.278656e+01	-8.122082e-05
2.291818e+01	-8.216178e-05
2.305055e+01	-8.311364e-05
2.318369e+01	-8.407652e-05
2.331760e+01	-8.505056e-05
2.345228e+01	-8.603589e-05
2.358774e+01	-8.703263e-05
2.372398e+01	-8.804091e-05
2.386101e+01	-8.906088e-05
2.399883e+01	-9.009267e-05
2.413745e+01	-9.113641e-05
2.427686e+01	-9.219223e-05
2.441709e+01	-9.326030e-05
2.455812e+01	-9.434073e-05
2.469997e+01	-9.543368e-05
2.484263e+01	-9.653930e-05
2.498612e+01	-9.765772e-05
2.513044e+01	-9.878910e-05
2.527559e+01	-9.993358e-05
2.542158e+01	-1.010913e-04
2.556842e+01	-1.022625e-04
2.571610e+01	-1.034472e-04
2.586463e+01	-1.046457e-04
2.601403e+01	-1.058580e-04
2.616428e+01	-1.070844e-04
2.631541e+01	-1.083250e-04
2.646740e+01	-1.095799e-04
2.662028e+01	-1.108494e-04
2.677404e+01	-1.121336e-04
2.692868e+01	-1.134327e-04
2.708422e+01	-1.147468e-04
2.724066e+01	-1.160762e-04
2.739800e+01	-1.174210e-04
2.755625e+01	-1.187813e-04
2.771541e+01	-1.201574e-04
2.787550e+01	-1.215494e-04
2.803650e+01	-1.229576e-04
2.819844e+01	-1.243821e-04
2.836131e+01	-1.258230e-04
2.852513e+01	-1.272807e-04
2.868989e+01	-1.287553e-04
2.885560e+01	-1.302469e-04
2.902227e+01	-1.317558e-04
2.918990e+01	-1.332822e-04
2.935850e+01	-1.348263e-04
2.952807e+01	-1.363883e-04
2.969863e+01	-1.379684e-04
2.987016e+01	-1.395668e-04
3.004269e+01	-1.411837e-04
3.021622e+01	-1.428193e-04
3.039075e+01	-1.444739e-04
3.056628e+01	-1.461476e-04
3.074283e+01	-1.478407e-04
3.092040e+01	-1.495535e-04
3.109900e+01	-1.512861e-04
3.127862e+01	-1.530387e-04
3.145929e+01	-1.548117e-04
3.164099e+01	-1.566052e-04
3.182375e+01	-1.584195e-04
3.200756e+01	-1.602548e-04
3.219244e+01	-1.621113e-04
3.237838e+01	-1.639894e-04
3.256540e+01	-1.658892e-04
3.275349e+01	-1.678111e-04
3.294268e+01	-1.697552e-04
3.313295e+01	-1.717218e-04
3.332433e+01	-1.737112e-04
3.351681e+01	-1.757236e-04
3.371040e+01	-1.777594e-04
3.390511e+01	-1.798188e-04
3.410094e+01	-1.819020e-04
3.429791e+01	-1.840093e-04
3.449601e+01	-1.861411e-04
3.469526e+01	-1.882975e-04
3.489566e+01	-1.904789e-04
3.509721e+01	-1.926856e-04
3.529993e+01	-1.949179e-04
3.550382e+01	-1.971760e-04
3.570889e+01	-1.994603e-04
3.591515e+01	-2.017711e-04
3.612259e+01	-2.041086e-04
3.633123e+01	-2.064732e-04
3.654108e+01	-2.088652e-04
3.675214e+01	-2.112849e-04
3.696442e+01	-2.137326e-04
3.717792e+01	-2.162087e-04
3.739266e+01	-2.187135e-04
3.760864e+01	-2.212473e-04
3.782587e+01	-2.238104e-04
3.804435e+01	-2.264033e-04
3.826409e+01	-2.290261e-04
3.848510e+01	-2.316794e-04
3.870739e+01	-2.343634e-04
3.893096e+01	-2.370785e-04
3.915583e+01	-2.398250e-04
3.938199e+01	-2.426034e-04
3.960946e+01	-2.454139e-04
3.983824e+01	-2.482571e-04
4.006834e+01	-2.511331e-04
4.029978e+01	-2.540425e-04
4.053255e+01	-2.569855e-04
4.076666e+01	-2.599627e-04
4.100213e+01	-2.629743e-04
4.123896e+01	-2.660209e-04
4.147715e+01	-2.691027e-04
4.171672e+01	-2.722202e-04
4.195767e+01	-2.753739e-04
4.220002e+01	-2.785641e-04
4.244377e+01	-2.817912e-04
4.268892e+01	-2.850557e-04
4.293549e+01	-2.883581e-04
4.318348e+01	-2.916987e-04
4.343291e+01	-2.950780e-04
4.368377e+01	-2.984964e-04
4.393609e+01	-3.019544e-04
4.418986e+01	-3.054525e-04
4.444510e+01	-3.089912e-04
4.470182e+01	-3.125708e-04
4.496001e+01	-3.161919e-04
4.521970e+01	-3.198549e-04
4.548089e+01	-3.235604e-04
4.574358e+01	-3.273088e-04
4.600779e+01	-3.311006e-04
4.627353e+01	-3.349363e-04
4.654081e+01	-3.388165e-04
4.680963e+01	-3.427416e-04
4.708000e+01	-3.467122e-04
4.735193e+01	-3.507288e-04
4.762543e+01	-3.547920e-04
4.790051e+01	-3.589022e-04
4.817719e+01	-3.630600e-04
4.845545e+01	-3.672659e-04
4.873533e+01	-3.715206e-04
4.901682e+01	-3.758246e-04
4.929994e+01	-3.801785e-04
4.958470e+01	-3.845827e-04
4.987110e+01	-3.890380e-04
5.015915e+01	-3.935449e-04
5.044887e+01	-3.981041e-04
5.074026e+01	-4.027160e-04
5.103333e+01	-4.073813e-04
5.132810e+01	-4.121008e-04
5.162457e+01	-4.168748e-04
5.192275e+01	-4.217042e-04
5.222265e+01	-4.265895e-04
5.252429e+01	-4.315314e-04
5.282767e+01	-4.365306e-04
5.313280e+01	-4.415877e-04
5.343969e+01	-4.467033e-04
5.374836e+01	-4.518782e-04
5.405880e+01	-4.571131e-04
5.437105e+01	-4.624086e-04
5.468509e+01	-4.677654e-04
5.500095e+01	-4.731843e-04
5.531863e+01	-4.786660e-04
5.563815e+01	-4.842112e-04
5.595951e+01	-4.898206e-04
5.628273e+01	-4.954949e-04
5.660782e+01	-5.012351e-04
5.693479e+01	-5.070417e-04
5.726364e+01	-5.129155e-04
5.759439e+01	-5.188575e-04
5.792705e+01	-5.248682e-04
5.826164e+01	-5.309486e-04
5.859815e+01	-5.370994e-04
5.893662e+01	-5.433214e-04
5.927703e+01	-5.496156e-04
5.961941e+01	-5.559826e-04
5.996377e+01	-5.624234e-04
6.031012e+01	-5.689388e-04
6.065847e+01	-5.755297e-04
6.100883e+01	-5.821969e-04
6.136121e+01	-5.889413e-04
6.171563e+01	-5.957639e-04
6.207210e+01	-6.026655e-04
6.243063e+01	-6.096471e-04
6.279122e+01	-6.167095e-04
6.315390e+01	-6.238538e-04
6.351868e+01	-6.310807e-04
6.388556e+01	-6.383915e-04
6.425456e+01	-6.457868e-04
6.462569e+01	-6.532679e-04
6.499897e+01	-6.608356e-04
6.537440e+01	-6.684910e-04
6.575200e+01	-6.762350e-04
6.613178e+01	-6.840688e-04
6.651375e+01	-6.919933e-04
6.689793e+01	-7.000096e-04
6.728433e+01	-7.081187e-04
6.767297e+01	-7.163218e-04
6.806384e+01	-7.246199e-04
6.845698e+01	-7.330141e-04
6.885238e+01	-7.415055e-04
6.925007e+01	-7.500953e-04
6.965005e+01	-7.587846e-04
7.005235e+01	-7.675746e-04
7.045697e+01	-7.764663e-04
7.086393e+01	-7.854611e-04
7.127323e+01	-7.945601e-04
7.168490e+01	-8.037644e-04
7.209895e+01	-8.130754e-04
7.251539e+01	-8.224942e-04
7.293424e+01	-8.320221e-04
7.335551e+01	-8.416603e-04
7.377920e+01	-8.514103e-04
7.420535e+01	-8.612731e-04
7.463396e+01	-8.712502e-04
7.506504e+01	-8.813428e-04
7.549861e+01	-8.915524e-04
7.593469e+01	-9.018802e-04
7.637328e+01	-9.123276e-04
7.681441e+01	-9.228961e-04
7.725809e+01	-9.335869e-04
7.770433e+01	-9.444016e-04
7.815315e+01	-9.553415e-04
7.860456e+01	-9.664082e-04
7.905857e+01	-9.776030e-04
7.951521e+01	-9.889275e-04
7.997449e+01	-1.000383e-03
8.043642e+01	-1.011972e-03
8.090102e+01	-1.023694e-03
8.136830e+01	-1.035553e-03
8.183828e+01	-1.047548e-03
8.231097e+01	-1.059683e-03
8.278640e+01	-1.071958e-03
8.326457e+01	-1.084375e-03
8.374550e+01	-1.096937e-03
8.422921e+01	-1.109643e-03
8.471572e+01	-1.122497e-03
8.520503e+01	-1.135500e-03
8.569717e+01	-1.148653e-03
8.619215e+01	-1.161959e-03
8.669000e+01	-1.175419e-03
8.719071e+01	-1.189034e-03
8.769432e+01	-1.202808e-03
8.820084e+01	-1.216741e-03
8.871029e+01	-1.230835e-03
8.922267e+01	-1.245092e-03
8.973802e+01	-1.259515e-03
9.025634e+01	-1.274105e-03
9.077766e+01	-1.288863e-03
9.130199e+01	-1.303793e-03
9.182935e+01	-1.318896e-03
9.235975e+01	-1.334173e-03
9.289321e+01	-1.349627e-03
9.342976e+01	-1.365261e-03
9.396941e+01	-1.381075e-03
9.451217e+01	-1.397073e-03
9.505807e+01	-1.413255e-03
9.560712e+01	-1.429626e-03
9.615934e+01	-1.446185e-03
9.671476e+01	-1.462937e-03
9.727338e+01	-1.479883e-03
9.783522e+01	-1.497025e-03
9.840032e+01	-1.514365e-03
9.896867e+01	-1.531906e-03
9.954031e+01	-1.549651e-03
1.001153e+02	-1.567601e-03
1.006935e+02	-1.585758e-03
1.012751e+02	-1.604126e-03
1.018601e+02	-1.622707e-03
1.024484e+02	-1.641503e-03
1.030402e+02	-1.660517e-03
1.036353e+02	-1.679750e-03
1.042339e+02	-1.699207e-03
1.048360e+02	-1.718889e-03
1.054415e+02	-1.738799e-03
1.060505e+02	-1.758939e-03
1.066631e+02	-1.779313e-03
1.072791e+02	-1.799922e-03
1.078988e+02	-1.820770e-03
1.085220e+02	-1.841860e-03
1.091488e+02	-1.863194e-03
1.097793e+02	-1.884775e-03
1.104133e+02	-1.906606e-03
1.110511e+02	-1.928689e-03
1.116925e+02	-1.951029e-03
1.123376e+02	-1.973627e-03
1.129865e+02	-1.996486e-03
1.136391e+02	-2.019611e-03
1.142955e+02	-2.043003e-03
1.149556e+02	-2.066666e-03
1.156196e+02	-2.090603e-03
1.162874e+02	-2.114817e-03
1.169591e+02	-2.139312e-03
1.176347e+02	-2.164090e-03
1.183141e+02	-2.189156e-03
1.189975e+02	-2.214511e-03
1.196848e+02	-2.240160e-03
1.203761e+02	-2.266106e-03
1.210714e+02	-2.292353e-03
1.217707e+02	-2.318903e-03
1.224740e+02	-2.345761e-03
1.231814e+02	-2.372930e-03
1.238929e+02	-2.400413e-03
1.246085e+02	-2.428215e-03
1.253283e+02	-2.456339e-03
1.260522e+02	-2.484788e-03
1.267802e+02	-2.513566e-03
1.275125e+02	-2.542678e-03
1.282490e+02	-2.572127e-03
1.289898e+02	-2.601917e-03
1.297348e+02	-2.632052e-03
1.304842e+02	-2.662535e-03
1.312378e+02	-2.693372e-03
1.319959e+02	-2.724565e-03
1.327583e+02	-2.756120e-03
1.335251e+02	-2.788040e-03
1.342963e+02	-2.820330e-03
1.350720e+02	-2.852993e-03
1.358522e+02	-2.886035e-03
1.366368e+02	-2.919459e-03
1.374260e+02	-2.953271e-03
1.382198e+02	-2.987473e-03
1.390182e+02	-3.022072e-03
1.398211e+02	-3.057071e-03
1.406287e+02	-3.092475e-03
1.414410e+02	-3.128289e-03
1.422579e+02	-3.164518e-03
1.430796e+02	-3.201166e-03
1.439060e+02	-3.238239e-03
1.447372e+02	-3.275741e-03
1.455732e+02	-3.313676e-03
1.464141e+02	-3.352051e-03
1.472597e+02	-3.390871e-03
1.481103e+02	-3.430139e-03
1.489658e+02	-3.469862e-03
1.498262e+02	-3.510045e-03
1.506916e+02	-3.550693e-03
1.515620e+02	-3.591812e-03
1.524374e+02	-3.633407e-03
1.533179e+02	-3.675483e-03
1.542034e+02	-3.718046e-03
1.550941e+02	-3.761102e-03
1.559899e+02	-3.804656e-03
1.568909e+02	-3.848714e-03
1.577971e+02	-3.893283e-03
1.587085e+02	-3.938367e-03
1.596252e+02	-3.983973e-03
1.605472e+02	-4.030107e-03
1.614745e+02	-4.076775e-03
1.624072e+02	-4.123983e-03
1.633453e+02	-4.171737e-03
1.642887e+02	-4.220044e-03
1.652377e+02	-4.268911e-03
1.661921e+02	-4.318342e-03
1.671520e+02	-4.368346e-03
1.681175e+02	-4.418929e-03
1.690885e+02	-4.470097e-03
1.700651e+02	-4.521857e-03
1.710474e+02	-4.574216e-03
1.720354e+02	-4.627181e-03
1.730291e+02	-4.680760e-03
1.740285e+02	-4.734958e-03
1.750337e+02	-4.789783e-03
1.760446e+02	-4.845243e-03
1.770615e+02	-4.901345e-03
1.780842e+02	-4.958095e-03
1.791128e+02	-5.015503e-03
1.801473e+02	-5.073575e-03
1.811878e+02	-5.132319e-03
1.822344e+02	-5.191742e-03
1.832870e+02	-5.251853e-03
1.843456e+02	-5.312660e-03
1.854104e+02	-5.374171e-03
1.864813e+02	-5.436393e-03
1.875584e+02	-5.499335e-03
1.886418e+02	-5.563005e-03
1.897313e+02	-5.627412e-03
1.908272e+02	-5.692564e-03
1.919294e+02	-5.758470e-03
1.930380e+02	-5.825139e-03
1.941530e+02	-5.892578e-03
1.952744e+02	-5.960798e-03
1.964023e+02	-6.029808e-03
1.975367e+02	-6.099615e-03
1.986777e+02	-6.170231e-03
1.998252e+02	-6.241663e-03
2.009794e+02	-6.313921e-03
2.021403e+02	-6.387016e-03
2.033078e+02	-6.460956e-03
2.044821e+02	-6.535751e-03
2.056632e+02	-6.611412e-03
2.068511e+02	-6.687947e-03
2.080459e+02	-6.765368e-03
2.092475e+02	-6.843685e-03
2.104561e+02	-6.922907e-03
2.116717e+02	-7.003046e-03
2.128943e+02	-7.084112e-03
2.141240e+02	-7.166115e-03
2.153608e+02	-7.249067e-03
2.166047e+02	-7.332978e-03
2.178558e+02	-7.417860e-03
2.191141e+02	-7.503723e-03
2.203797e+02	-7.590579e-03
2.216526e+02	-7.678440e-03
2.229329e+02	-7.767317e-03
2.242205e+02	-7.857222e-03
2.255156e+02	-7.948166e-03
2.268182e+02	-8.040162e-03
2.281283e+02	-8.133222e-03
2.294459e+02	-8.227358e-03
2.307712e+02	-8.322582e-03
2.321041e+02	-8.418907e-03
2.334447e+02	-8.516347e-03
2.347931e+02	-8.614912e-03
2.361493e+02	-8.714618e-03
2.375133e+02	-8.815476e-03
2.388851e+02	-8.917500e-03
2.402649e+02	-9.020704e-03
2.416527e+02	-9.125101e-03
2.430484e+02	-9.230705e-03
2.444523e+02	-9.337530e-03
2.458642e+02	-9.445589e-03
2.472843e+02	-9.554898e-03
2.487126e+02	-9.665470e-03
2.501492e+02	-9.777321e-03
2.515940e+02	-9.890464e-03
2.530472e+02	-1.000492e-02
2.545088e+02	-1.012069e-02
2.559789e+02	-1.023780e-02
2.574574e+02	-1.035627e-02
2.589444e+02	-1.047610e-02
2.604401e+02	-1.059732e-02
2.619444e+02	-1.071994e-02
2.634574e+02	-1.084398e-02
2.649791e+02	-1.096945e-02
2.665096e+02	-1.109637e-02
2.680489e+02	-1.122476e-02
2.695972e+02	-1.135463e-02
2.711544e+02	-1.148600e-02
2.727205e+02	-1.161889e-02
2.742958e+02	-1.175332e-02
2.758801e+02	-1.188929e-02
2.774736e+02	-1.202684e-02
2.790762e+02	-1.216598e-02
2.806882e+02	-1.230673e-02
2.823094e+02	-1.244910e-02
2.839400e+02	-1.259311e-02
2.855800e+02	-1.273879e-02
2.872295e+02	-1.288616e-02
2.888886e+02	-1.303522e-02
2.905572e+02	-1.318601e-02
2.922354e+02	-1.333853e-02
2.939234e+02	-1.349282e-02
2.956211e+02	-1.364889e-02
2.973286e+02	-1.380677e-02
2.990459e+02	-1.396646e-02
3.007732e+02	-1.412801e-02
3.025104e+02	-1.429141e-02
3.042577e+02	-1.445670e-02
3.060151e+02	-1.462391e-02
3.077826e+02	-1.479304e-02
3.095604e+02	-1.496412e-02
3.113484e+02	-1.513718e-02
3.131467e+02	-1.531224e-02
3.149554e+02	-1.548932e-02
3.167746e+02	-1.566844e-02
3.186043e+02	-1.584963e-02
3.204445e+02	-1.603291e-02
3.222954e+02	-1.621831e-02
3.241570e+02	-1.640585e-02
3.260293e+02	-1.659555e-02
3.279124e+02	-1.678744e-02
3.298064e+02	-1.698154e-02
3.317114e+02	-1.717789e-02
3.336273e+02	-1.737650e-02
3.355544e+02	-1.757740e-02
3.374925e+02	-1.778062e-02
3.394418e+02	-1.798619e-02
3.414024e+02	-1.819412e-02
3.433744e+02	-1.840446e-02
3.453577e+02	-1.861722e-02
3.473525e+02	-1.883244e-02
3.493588e+02	-1.905013e-02
3.513766e+02	-1.927034e-02
3.534062e+02	-1.949309e-02
3.554474e+02	-1.971841e-02
3.575005e+02	-1.994633e-02
3.595654e+02	-2.017687e-02
3.616422e+02	-2.041007e-02
3.637311e+02	-2.064596e-02
3.658320e+02	-2.088458e-02
3.679450e+02	-2.112594e-02
3.700702e+02	-2.137008e-02
3.722077e+02	-2.161704e-02
3.743576e+02	-2.186685e-02
3.765199e+02	-2.211953e-02
3.786946e+02	-2.237513e-02
3.808820e+02	-2.263367e-02
3.830819e+02	-2.289520e-02
3.852946e+02	-2.315973e-02
3.875200e+02	-2.342732e-02
3.897583e+02	-2.369799e-02
3.920096e+02	-2.397177e-02
3.942738e+02	-2.424871e-02
3.965511e+02	-2.452885e-02
3.988416e+02	-2.481220e-02
4.011452e+02	-2.509883e-02
4.034622e+02	-2.538875e-02
4.057926e+02	-2.568201e-02
4.081365e+02	-2.597865e-02
4.104938e+02	-2.627871e-02
4.128648e+02	-2.658222e-02
4.152495e+02	-2.688922e-02
4.176480e+02	-2.719976e-02
4.200603e+02	-2.751387e-02
4.224866e+02	-2.783160e-02
4.249268e+02	-2.815299e-02
4.273812e+02	-2.847808e-02
4.298497e+02	-2.880691e-02
4.323325e+02	-2.913952e-02
4.348297e+02	-2.947596e-02
4.373412e+02	-2.981627e-02
4.398673e+02	-3.016049e-02
4.424079e+02	-3.050868e-02
4.449633e+02	-3.086087e-02
4.475334e+02	-3.121711e-02
4.501183e+02	-3.157745e-02
4.527182e+02	-3.194193e-02
4.553330e+02	-3.231061e-02
4.579630e+02	-3.268352e-02
4.606082e+02	-3.306072e-02
4.632687e+02	-3.344226e-02
4.659445e+02	-3.382818e-02
4.686358e+02	-3.421854e-02
4.713426e+02	-3.461338e-02
4.740650e+02	-3.501277e-02
4.768032e+02	-3.541674e-02
4.795572e+02	-3.582535e-02
4.823271e+02	-3.623866e-02
4.851130e+02	-3.665672e-02
4.879150e+02	-3.707958e-02
4.907332e+02	-3.750729e-02
4.935676e+02	-3.793992e-02
4.964185e+02	-3.837752e-02
4.992858e+02	-3.882014e-02
5.021696e+02	-3.926784e-02
5.050701e+02	-3.972068e-02
5.079874e+02	-4.017872e-02
5.109215e+02	-4.064202e-02
5.138726e+02	-4.111063e-02
5.168407e+02	-4.158462e-02
5.198259e+02	-4.206405e-02
5.228284e+02	-4.254898e-02
5.258482e+02	-4.303947e-02
5.288855e+02	-4.353559e-02
5.319403e+02	-4.403739e-02
5.350128e+02	-4.454495e-02
5.381030e+02	-4.505833e-02
5.412111e+02	-4.557760e-02
5.443371e+02	-4.610282e-02
5.474812e+02	-4.663406e-02
5.506434e+02	-4.717138e-02
5.538239e+02	-4.771487e-02
5.570228e+02	-4.826458e-02
5.602401e+02	-4.882058e-02
5.634760e+02	-4.938296e-02
5.667306e+02	-4.995178e-02
5.700040e+02	-5.052711e-02
5.732964e+02	-5.110902e-02
5.766077e+02	-5.169760e-02
5.799382e+02	-5.229292e-02
5.832879e+02	-5.289505e-02
5.866569e+02	-5.350407e-02
5.900454e+02	-5.412006e-02
5.934535e+02	-5.474309e-02
5.968813e+02	-5.537325e-02
6.003288e+02	-5.601062e-02
6.037963e+02	-5.665528e-02
6.072838e+02	-5.730731e-02
6.107914e+02	-5.796679e-02
6.143194e+02	-5.863381e-02
6.178676e+02	-5.930845e-02
6.214364e+02	-5.999080e-02
6.250258e+02	-6.068095e-02
6.286359e+02	-6.137897e-02
6.322669e+02	-6.208498e-02
6.359189e+02	-6.279904e-02
6.395919e+02	-6.352125e-02
6.432862e+02	-6.425171e-02
6.470017e+02	-6.499051e-02
6.507388e+02	-6.573773e-02
6.544974e+02	-6.649349e-02
6.582778e+02	-6.725786e-02
6.620800e+02	-6.803095e-02
6.659041e+02	-6.881286e-02
6.697504e+02	-6.960368e-02
6.736188e+02	-7.040351e-02
6.775096e+02	-7.121246e-02
6.814229e+02	-7.203063e-02
6.853587e+02	-7.285812e-02
6.893173e+02	-7.369503e-02
6.932988e+02	-7.454148e-02
6.973033e+02	-7.539756e-02
7.013309e+02	-7.626338e-02
