Frequency(Hz)	Magnitude(dB)
1.000000e+01	-2.115415e+00
1.005776e+01	-2.135000e+00
1.011585e+01	-2.154325e+00
1.017428e+01	-2.173938e+00
1.023305e+01	-2.193739e+00
1.029215e+01	-2.213618e+00
1.035160e+01	-2.233838e+00
1.041139e+01	-2.253876e+00
1.047153e+01	-2.274277e+00
1.053201e+01	-2.294805e+00
1.059284e+01	-2.315075e+00
1.065403e+01	-2.335910e+00
1.071556e+01	-2.356644e+00
1.077746e+01	-2.377903e+00
1.083971e+01	-2.399096e+00
1.090232e+01	-2.420375e+00
1.096529e+01	-2.441774e+00
1.102862e+01	-2.463553e+00
1.109232e+01	-2.485144e+00
1.115639e+01	-2.506978e+00
1.122083e+01	-2.528901e+00
1.128564e+01	-2.551211e+00
1.135083e+01	-2.573423e+00
1.141639e+01	-2.595863e+00
1.148233e+01	-2.618416e+00
1.154865e+01	-2.641144e+00
1.161536e+01	-2.664137e+00
1.168245e+01	-2.687050e+00
1.174992e+01	-2.710140e+00
1.181779e+01	-2.733491e+00
1.188605e+01	-2.757006e+00
1.195470e+01	-2.780662e+00
1.202375e+01	-2.804081e+00
1.209320e+01	-2.828035e+00
1.216305e+01	-2.852108e+00
1.223330e+01	-2.876217e+00
1.230396e+01	-2.900636e+00
1.237503e+01	-2.924835e+00
1.244651e+01	-2.949787e+00
1.251840e+01	-2.974293e+00
1.259070e+01	-2.999339e+00
1.266343e+01	-3.024159e+00
1.273657e+01	-3.049371e+00
1.281014e+01	-3.074678e+00
1.288413e+01	-3.100233e+00
1.295855e+01	-3.125670e+00
1.303339e+01	-3.151613e+00
1.310867e+01	-3.177326e+00
1.318439e+01	-3.203369e+00
1.326054e+01	-3.229613e+00
1.333713e+01	-3.256023e+00
1.341417e+01	-3.282304e+00
1.349165e+01	-3.308981e+00
1.356958e+01	-3.335659e+00
1.364795e+01	-3.362427e+00
1.372678e+01	-3.389731e+00
1.380607e+01	-3.416854e+00
1.388581e+01	-3.444118e+00
1.396602e+01	-3.471658e+00
1.404668e+01	-3.499097e+00
1.412782e+01	-3.527113e+00
1.420942e+01	-3.554845e+00
1.429149e+01	-3.582966e+00
1.437404e+01	-3.611163e+00
1.445706e+01	-3.639218e+00
1.454057e+01	-3.667922e+00
1.462455e+01	-3.696407e+00
1.470902e+01	-3.725124e+00
1.479398e+01	-3.754191e+00
1.487943e+01	-3.783120e+00
1.496537e+01	-3.812277e+00
1.505181e+01	-3.841551e+00
1.513875e+01	-3.870981e+00
1.522619e+01	-3.900707e+00
1.531414e+01	-3.930092e+00
1.540259e+01	-3.959996e+00
1.549156e+01	-3.990046e+00
1.558103e+01	-4.020136e+00
1.567103e+01	-4.050630e+00
1.576155e+01	-4.080920e+00
1.585258e+01	-4.111328e+00
1.594415e+01	-4.142055e+00
1.603624e+01	-4.172762e+00
1.612886e+01	-4.203925e+00
1.622202e+01	-4.235120e+00
1.631572e+01	-4.266250e+00
1.640996e+01	-4.297559e+00
1.650474e+01	-4.328744e+00
1.660008e+01	-4.360808e+00
1.669596e+01	-4.392492e+00
1.679239e+01	-4.424501e+00
1.688938e+01	-4.456226e+00
1.698694e+01	-4.488564e+00
1.708505e+01	-4.521115e+00
1.718373e+01	-4.553594e+00
1.728299e+01	-4.585951e+00
1.738281e+01	-4.618420e+00
1.748322e+01	-4.651380e+00
1.758420e+01	-4.684030e+00
1.768576e+01	-4.717546e+00
1.778792e+01	-4.750482e+00
1.789066e+01	-4.784026e+00
1.799399e+01	-4.817181e+00
1.809793e+01	-4.850961e+00
1.820246e+01	-4.884700e+00
1.830760e+01	-4.918509e+00
1.841334e+01	-4.952465e+00
1.851969e+01	-4.986512e+00
1.862666e+01	-5.020761e+00
1.873425e+01	-5.055033e+00
1.884246e+01	-5.089561e+00
1.895129e+01	-5.124429e+00
1.906075e+01	-5.158685e+00
1.917085e+01	-5.193911e+00
1.928158e+01	-5.228897e+00
1.939295e+01	-5.263999e+00
1.950496e+01	-5.299099e+00
1.961762e+01	-5.334281e+00
1.973093e+01	-5.369651e+00
1.984490e+01	-5.405392e+00
1.995952e+01	-5.441009e+00
2.007480e+01	-5.476638e+00
2.019076e+01	-5.512720e+00
2.030738e+01	-5.548380e+00
2.042467e+01	-5.584876e+00
2.054264e+01	-5.621056e+00
2.066130e+01	-5.657810e+00
2.078064e+01	-5.694018e+00
2.090066e+01	-5.730421e+00
2.102139e+01	-5.767354e+00
2.114280e+01	-5.804098e+00
2.126492e+01	-5.841442e+00
2.138775e+01	-5.877957e+00
2.151128e+01	-5.915475e+00
2.163553e+01	-5.952705e+00
2.176050e+01	-5.989947e+00
2.188619e+01	-6.027258e+00
2.201260e+01	-6.064826e+00
2.213974e+01	-6.102634e+00
2.226762e+01	-6.140337e+00
2.239624e+01	-6.178260e+00
2.252560e+01	-6.216346e+00
2.265571e+01	-6.254452e+00
2.278656e+01	-6.292853e+00
2.291818e+01	-6.331111e+00
2.305055e+01	-6.369547e+00
2.318369e+01	-6.408348e+00
2.331760e+01	-6.446949e+00
2.345228e+01	-6.485439e+00
2.358774e+01	-6.524254e+00
2.372398e+01	-6.562901e+00
2.386101e+01	-6.602171e+00
2.399883e+01	-6.641333e+00
2.413745e+01	-6.680963e+00
2.427686e+01	-6.719953e+00
2.441709e+01	-6.759073e+00
2.455812e+01	-6.798685e+00
2.469997e+01	-6.838194e+00
2.484263e+01	-6.877956e+00
2.498612e+01	-6.917650e+00
2.513044e+01	-6.957743e+00
2.527559e+01	-6.997801e+00
2.542158e+01	-7.037978e+00
2.556842e+01	-7.078255e+00
2.571610e+01	-7.118208e+00
2.586463e+01	-7.158708e+00
2.601403e+01	-7.199540e+00
2.616428e+01	-7.240172e+00
2.631541e+01	-7.280437e+00
2.646740e+01	-7.320777e+00
2.662028e+01	-7.361888e+00
2.677404e+01	-7.402749e+00
2.692868e+01	-7.444190e+00
2.708422e+01	-7.484742e+00
2.724066e+01	-7.526163e+00
2.739800e+01	-7.567020e+00
2.755625e+01	-7.608508e+00
2.771541e+01	-7.649927e+00
2.787550e+01	-7.691102e+00
2.803650e+01	-7.732901e+00
2.819844e+01	-7.774721e+00
2.836131e+01	-7.816159e+00
2.852513e+01	-7.858375e+00
2.868989e+01	-7.900102e+00
2.885560e+01	-7.941748e+00
2.902227e+01	-7.984208e+00
2.918990e+01	-8.025825e+00
2.935850e+01	-8.068031e+00
2.952807e+01	-8.110682e+00
2.969863e+01	-8.152586e+00
2.987016e+01	-8.195009e+00
3.004269e+01	-8.237487e+00
3.021622e+01	-8.280201e+00
3.039075e+01	-8.322822e+00
3.056628e+01	-8.365085e+00
3.074283e+01	-8.408638e+00
3.092040e+01	-8.451277e+00
3.109900e+01	-8.494110e+00
3.127862e+01	-8.536941e+00
3.145929e+01	-8.579830e+00
3.164099e+01	-8.623080e+00
3.182375e+01	-8.666710e+00
3.200756e+01	-8.709095e+00
3.219244e+01	-8.753024e+00
3.237838e+01	-8.796677e+00
3.256540e+01	-8.839804e+00
3.275349e+01	-8.883259e+00
3.294268e+01	-8.926733e+00
3.313295e+01	-8.971110e+00
3.332433e+01	-9.014251e+00
3.351681e+01	-9.058199e+00
3.371040e+01	-9.102028e+00
3.390511e+01	-9.145803e+00
3.410094e+01	-9.189506e+00
3.429791e+01	-9.233646e+00
3.449601e+01	-9.277684e+00
3.469526e+01	-9.322271e+00
3.489566e+01	-9.366630e+00
3.509721e+01	-9.411017e+00
3.529993e+01	-9.455130e+00
3.550382e+01	-9.499072e+00
3.570889e+01	-9.543798e+00
3.591515e+01	-9.588603e+00
3.612259e+01	-9.632469e+00
3.633123e+01	-9.677407e+00
3.654108e+01	-9.722249e+00
3.675214e+01	-9.766971e+00
3.696442e+01	-9.811683e+00
3.717792e+01	-9.856524e+00
3.739266e+01	-9.901285e+00
3.760864e+01	-9.946149e+00
3.782587e+01	-9.991096e+00
3.804435e+01	-1.003663e+01
3.826409e+01	-1.008147e+01
3.848510e+01	-1.012699e+01
3.870739e+01	-1.017173e+01
3.893096e+01	-1.021688e+01
3.915583e+01	-1.026263e+01
3.938199e+01	-1.030792e+01
3.960946e+01	-1.035284e+01
3.983824e+01	-1.039844e+01
4.006834e+01	-1.044364e+01
4.029978e+01	-1.048976e+01
4.053255e+01	-1.053479e+01
4.076666e+01	-1.058084e+01
4.100213e+01	-1.062672e+01
4.123896e+01	-1.067198e+01
4.147715e+01	-1.071827e+01
4.171672e+01	-1.076339e+01
4.195767e+01	-1.080923e+01
4.220002e+01	-1.085561e+01
4.244377e+01	-1.090154e+01
4.268892e+01	-1.094690e+01
4.293549e+01	-1.099308e+01
4.318348e+01	-1.103927e+01
4.343291e+01	-1.108560e+01
4.368377e+01	-1.113159e+01
4.393609e+01	-1.117757e+01
4.418986e+01	-1.122392e+01
4.444510e+01	-1.127044e+01
4.470182e+01	-1.131650e+01
4.496001e+01	-1.136288e+01
4.521970e+01	-1.140945e+01
4.548089e+01	-1.145587e+01
4.574358e+01	-1.150241e+01
4.600779e+01	-1.154818e+01
4.627353e+01	-1.159465e+01
4.654081e+01	-1.164230e+01
4.680963e+01	-1.168903e+01
4.708000e+01	-1.173581e+01
4.735193e+01	-1.178240e+01
4.762543e+01	-1.182867e+01
4.790051e+01	-1.187533e+01
4.817719e+01	-1.192249e+01
4.845545e+01	-1.196896e+01
4.873533e+01	-1.201563e+01
4.901682e+01	-1.206342e+01
4.929994e+01	-1.210960e+01
4.958470e+01	-1.215727e+01
4.987110e+01	-1.220354e+01
5.015915e+01	-1.225080e+01
5.044887e+01	-1.229722e+01
5.074026e+01	-1.234489e+01
5.103333e+01	-1.239198e+01
5.132810e+01	-1.243876e+01
5.162457e+01	-1.248612e+01
5.192275e+01	-1.253350e+01
5.222265e+01	-1.258091e+01
5.252429e+01	-1.262823e+01
5.282767e+01	-1.267606e+01
5.313280e+01	-1.272331e+01
5.343969e+01	-1.277021e+01
5.374836e+01	-1.281823e+01
5.405880e+01	-1.286467e+01
5.437105e+01	-1.291209e+01
5.468509e+01	-1.295998e+01
5.500095e+01	-1.300760e+01
5.531863e+01	-1.305479e+01
5.563815e+01	-1.310190e+01
5.595951e+01	-1.314993e+01
5.628273e+01	-1.319798e+01
5.660782e+01	-1.324574e+01
5.693479e+01	-1.329388e+01
5.726364e+01	-1.334172e+01
5.759439e+01	-1.338846e+01
5.792705e+01	-1.343574e+01
5.826164e+01	-1.348385e+01
5.859815e+01	-1.353135e+01
5.893662e+01	-1.357909e+01
5.927703e+01	-1.362664e+01
5.961941e+01	-1.367470e+01
5.996377e+01	-1.372277e+01
6.031012e+01	-1.376993e+01
6.065847e+01	-1.381920e+01
6.100883e+01	-1.386665e+01
6.136121e+01	-1.391462e+01
6.171563e+01	-1.396257e+01
6.207210e+01	-1.401154e+01
6.243063e+01	-1.405855e+01
6.279122e+01	-1.410681e+01
6.315390e+01	-1.415533e+01
6.351868e+01	-1.420259e+01
6.388556e+01	-1.425145e+01
6.425456e+01	-1.429903e+01
6.462569e+01	-1.434822e+01
6.499897e+01	-1.439604e+01
6.537440e+01	-1.444392e+01
6.575200e+01	-1.449190e+01
6.613178e+01	-1.454069e+01
6.651375e+01	-1.458991e+01
6.689793e+01	-1.463614e+01
6.728433e+01	-1.468490e+01
6.767297e+01	-1.473368e+01
6.806384e+01	-1.478263e+01
6.845698e+01	-1.483061e+01
6.885238e+01	-1.487935e+01
6.925007e+01	-1.492845e+01
6.965005e+01	-1.497731e+01
7.005235e+01	-1.502414e+01
7.045697e+01	-1.507342e+01
7.086393e+01	-1.512177e+01
7.127323e+01	-1.516964e+01
7.168490e+01	-1.521903e+01
7.209895e+01	-1.526687e+01
7.251539e+01	-1.531486e+01
7.293424e+01	-1.536411e+01
7.335551e+01	-1.541152e+01
7.377920e+01	-1.546160e+01
7.420535e+01	-1.551071e+01
7.463396e+01	-1.555844e+01
7.506504e+01	-1.560714e+01
7.549861e+01	-1.565591e+01
7.593469e+01	-1.570416e+01
7.637328e+01	-1.575381e+01
7.681441e+01	-1.580162e+01
7.725809e+01	-1.585012e+01
7.770433e+01	-1.589881e+01
7.815315e+01	-1.594724e+01
7.860456e+01	-1.599645e+01
7.905857e+01	-1.604575e+01
7.951521e+01	-1.609441e+01
7.997449e+01	-1.614312e+01
8.043642e+01	-1.619197e+01
8.090102e+01	-1.624130e+01
8.136830e+01	-1.628762e+01
8.183828e+01	-1.633846e+01
8.231097e+01	-1.638717e+01
8.278640e+01	-1.643645e+01
8.326457e+01	-1.648595e+01
8.374550e+01	-1.653452e+01
8.422921e+01	-1.658188e+01
8.471572e+01	-1.663197e+01
8.520503e+01	-1.668120e+01
8.569717e+01	-1.673036e+01
8.619215e+01	-1.677929e+01
8.669000e+01	-1.682835e+01
8.719071e+01	-1.687547e+01
8.769432e+01	-1.692582e+01
8.820084e+01	-1.697477e+01
8.871029e+01	-1.702431e+01
8.922267e+01	-1.707307e+01
8.973802e+01	-1.712068e+01
9.025634e+01	-1.717172e+01
9.077766e+01	-1.722096e+01
9.130199e+01	-1.726955e+01
9.182935e+01	-1.731839e+01
9.235975e+01	-1.736777e+01
9.289321e+01	-1.741641e+01
9.342976e+01	-1.746694e+01
9.396941e+01	-1.751382e+01
9.451217e+01	-1.756401e+01
9.505807e+01	-1.761413e+01
9.560712e+01	-1.766200e+01
9.615934e+01	-1.771171e+01
9.671476e+01	-1.776062e+01
9.727338e+01	-1.781106e+01
9.783522e+01	-1.785832e+01
9.840032e+01	-1.790810e+01
9.896867e+01	-1.795608e+01
9.954031e+01	-1.800595e+01
1.001153e+02	-1.805523e+01
1.006935e+02	-1.810586e+01
1.012751e+02	-1.815359e+01
1.018601e+02	-1.820394e+01
1.024484e+02	-1.825324e+01
1.030402e+02	-1.830397e+01
1.036353e+02	-1.835101e+01
1.042339e+02	-1.840133e+01
1.048360e+02	-1.845061e+01
1.054415e+02	-1.849968e+01
1.060505e+02	-1.854809e+01
1.066631e+02	-1.859768e+01
1.072791e+02	-1.864725e+01
1.078988e+02	-1.869505e+01
1.085220e+02	-1.874619e+01
1.091488e+02	-1.879537e+01
1.097793e+02	-1.884523e+01
1.104133e+02	-1.889532e+01
1.110511e+02	-1.894466e+01
1.116925e+02	-1.899334e+01
1.123376e+02	-1.904386e+01
1.129865e+02	-1.909182e+01
1.136391e+02	-1.914086e+01
1.142955e+02	-1.919192e+01
1.149556e+02	-1.923966e+01
1.156196e+02	-1.929048e+01
1.162874e+02	-1.933909e+01
1.169591e+02	-1.938945e+01
1.176347e+02	-1.943726e+01
1.183141e+02	-1.948815e+01
1.189975e+02	-1.953870e+01
1.196848e+02	-1.958646e+01
1.203761e+02	-1.963790e+01
1.210714e+02	-1.968575e+01
1.217707e+02	-1.973531e+01
1.224740e+02	-1.978432e+01
1.231814e+02	-1.983550e+01
1.238929e+02	-1.988352e+01
1.246085e+02	-1.993293e+01
1.253283e+02	-1.998252e+01
1.260522e+02	-2.003232e+01
1.267802e+02	-2.008306e+01
1.275125e+02	-2.013094e+01
1.282490e+02	-2.018247e+01
1.289898e+02	-2.022985e+01
1.297348e+02	-2.028006e+01
1.304842e+02	-2.032821e+01
1.312378e+02	-2.037878e+01
1.319959e+02	-2.042798e+01
1.327583e+02	-2.047876e+01
1.335251e+02	-2.052767e+01
1.342963e+02	-2.057587e+01
1.350720e+02	-2.062626e+01
1.358522e+02	-2.067656e+01
1.366368e+02	-2.072498e+01
1.374260e+02	-2.077486e+01
1.382198e+02	-2.082664e+01
1.390182e+02	-2.087555e+01
1.398211e+02	-2.092461e+01
1.406287e+02	-2.097545e+01
1.414410e+02	-2.102325e+01
1.422579e+02	-2.107379e+01
1.430796e+02	-2.112169e+01
1.439060e+02	-2.117314e+01
1.447372e+02	-2.122197e+01
1.455732e+02	-2.127124e+01
1.464141e+02	-2.132151e+01
1.472597e+02	-2.137118e+01
1.481103e+02	-2.142209e+01
1.489658e+02	-2.147134e+01
1.498262e+02	-2.152069e+01
1.506916e+02	-2.157140e+01
1.515620e+02	-2.162075e+01
1.524374e+02	-2.167245e+01
1.533179e+02	-2.172191e+01
1.542034e+02	-2.176913e+01
1.550941e+02	-2.181772e+01
1.559899e+02	-2.187037e+01
1.568909e+02	-2.191968e+01
1.577971e+02	-2.196694e+01
1.587085e+02	-2.201790e+01
1.596252e+02	-2.206737e+01
1.605472e+02	-2.211700e+01
1.614745e+02	-2.216643e+01
1.624072e+02	-2.221681e+01
1.633453e+02	-2.226754e+01
1.642887e+02	-2.231667e+01
1.652377e+02	-2.236613e+01
1.661921e+02	-2.241501e+01
1.671520e+02	-2.246665e+01
1.681175e+02	-2.251677e+01
1.690885e+02	-2.256394e+01
1.700651e+02	-2.261525e+01
1.710474e+02	-2.266566e+01
1.720354e+02	-2.271397e+01
1.730291e+02	-2.276318e+01
1.740285e+02	-2.281509e+01
1.750337e+02	-2.286596e+01
1.760446e+02	-2.291453e+01
1.770615e+02	-2.296101e+01
1.780842e+02	-2.301353e+01
1.791128e+02	-2.306400e+01
1.801473e+02	-2.311299e+01
1.811878e+02	-2.316122e+01
1.822344e+02	-2.321208e+01
1.832870e+02	-2.326275e+01
1.843456e+02	-2.331191e+01
1.854104e+02	-2.336245e+01
1.864813e+02	-2.341210e+01
1.875584e+02	-2.346091e+01
1.886418e+02	-2.351223e+01
1.897313e+02	-2.356015e+01
1.908272e+02	-2.361177e+01
1.919294e+02	-2.365988e+01
1.930380e+02	-2.371016e+01
1.941530e+02	-2.376108e+01
1.952744e+02	-2.381232e+01
1.964023e+02	-2.386181e+01
1.975367e+02	-2.390959e+01
1.986777e+02	-2.396011e+01
1.998252e+02	-2.401118e+01
2.009794e+02	-2.405661e+01
2.021403e+02	-2.410920e+01
2.033078e+02	-2.416148e+01
2.044821e+02	-2.420879e+01
2.056632e+02	-2.425838e+01
2.068511e+02	-2.430842e+01
2.080459e+02	-2.435728e+01
2.092475e+02	-2.441036e+01
2.104561e+02	-2.445639e+01
2.116717e+02	-2.450857e+01
2.128943e+02	-2.455921e+01
2.141240e+02	-2.460902e+01
2.153608e+02	-2.465868e+01
2.166047e+02	-2.470755e+01
2.178558e+02	-2.475738e+01
2.191141e+02	-2.480612e+01
2.203797e+02	-2.485741e+01
2.216526e+02	-2.490869e+01
2.229329e+02	-2.495709e+01
2.242205e+02	-2.500772e+01
2.255156e+02	-2.505618e+01
2.268182e+02	-2.510927e+01
2.281283e+02	-2.515710e+01
2.294459e+02	-2.520605e+01
2.307712e+02	-2.525594e+01
2.321041e+02	-2.530378e+01
2.334447e+02	-2.535665e+01
2.347931e+02	-2.540771e+01
2.361493e+02	-2.545688e+01
2.375133e+02	-2.550646e+01
2.388851e+02	-2.555531e+01
2.402649e+02	-2.560716e+01
2.416527e+02	-2.565857e+01
2.430484e+02	-2.570608e+01
2.444523e+02	-2.575751e+01
2.458642e+02	-2.580512e+01
2.472843e+02	-2.585517e+01
2.487126e+02	-2.590438e+01
2.501492e+02	-2.595647e+01
2.515940e+02	-2.600760e+01
2.530472e+02	-2.605589e+01
2.545088e+02	-2.610646e+01
2.559789e+02	-2.615534e+01
2.574574e+02	-2.620871e+01
2.589444e+02	-2.625667e+01
2.604401e+02	-2.630612e+01
2.619444e+02	-2.635545e+01
2.634574e+02	-2.640168e+01
2.649791e+02	-2.645695e+01
2.665096e+02	-2.650268e+01
2.680489e+02	-2.655651e+01
2.695972e+02	-2.660263e+01
2.711544e+02	-2.665451e+01
2.727205e+02	-2.670524e+01
2.742958e+02	-2.676055e+01
2.758801e+02	-2.680252e+01
2.774736e+02	-2.685566e+01
2.790762e+02	-2.690455e+01
2.806882e+02	-2.695456e+01
2.823094e+02	-2.700761e+01
2.839400e+02	-2.705634e+01
2.855800e+02	-2.710194e+01
2.872295e+02	-2.715522e+01
2.888886e+02	-2.720575e+01
2.905572e+02	-2.725734e+01
2.922354e+02	-2.730355e+01
2.939234e+02	-2.735555e+01
2.956211e+02	-2.740645e+01
2.973286e+02	-2.745483e+01
2.990459e+02	-2.750593e+01
3.007732e+02	-2.755409e+01
3.025104e+02	-2.760641e+01
3.042577e+02	-2.765193e+01
3.060151e+02	-2.770820e+01
3.077826e+02	-2.775453e+01
3.095604e+02	-2.780746e+01
3.113484e+02	-2.786129e+01
3.131467e+02	-2.790345e+01
3.149554e+02	-2.795433e+01
3.167746e+02	-2.800519e+01
3.186043e+02	-2.805838e+01
3.204445e+02	-2.810451e+01
3.222954e+02	-2.815497e+01
3.241570e+02	-2.820914e+01
3.260293e+02	-2.825633e+01
3.279124e+02	-2.830700e+01
3.298064e+02	-2.835477e+01
3.317114e+02	-2.841012e+01
3.336273e+02	-2.845474e+01
3.355544e+02	-2.850686e+01
3.374925e+02	-2.855497e+01
3.394418e+02	-2.860669e+01
3.414024e+02	-2.865709e+01
3.433744e+02	-2.870424e+01
3.453577e+02	-2.875236e+01
3.473525e+02	-2.880510e+01
3.493588e+02	-2.885673e+01
3.513766e+02	-2.890512e+01
3.534062e+02	-2.895404e+01
3.554474e+02	-2.900890e+01
3.575005e+02	-2.905483e+01
3.595654e+02	-2.910450e+01
3.616422e+02	-2.915405e+01
3.637311e+02	-2.920505e+01
3.658320e+02	-2.925552e+01
3.679450e+02	-2.930884e+01
3.700702e+02	-2.935966e+01
3.722077e+02	-2.940932e+01
3.743576e+02	-2.945493e+01
3.765199e+02	-2.950738e+01
3.786946e+02	-2.955342e+01
3.808820e+02	-2.960581e+01
3.830819e+02	-2.966023e+01
3.852946e+02	-2.970992e+01
3.875200e+02	-2.975902e+01
3.897583e+02	-2.980938e+01
3.920096e+02	-2.984870e+01
3.942738e+02	-2.990846e+01
3.965511e+02	-2.995739e+01
3.988416e+02	-3.000622e+01
4.011452e+02	-3.005903e+01
4.034622e+02	-3.010690e+01
4.057926e+02	-3.015561e+01
4.081365e+02	-3.020812e+01
4.104938e+02	-3.025810e+01
4.128648e+02	-3.030486e+01
4.152495e+02	-3.036432e+01
4.176480e+02	-3.040622e+01
4.200603e+02	-3.045535e+01
4.224866e+02	-3.050864e+01
4.249268e+02	-3.055937e+01
4.273812e+02	-3.061064e+01
4.298497e+02	-3.065846e+01
4.323325e+02	-3.070832e+01
4.348297e+02	-3.076081e+01
4.373412e+02	-3.081223e+01
4.398673e+02	-3.086328e+01
4.424079e+02	-3.090646e+01
4.449633e+02	-3.096093e+01
4.475334e+02	-3.100739e+01
4.501183e+02	-3.105751e+01
4.527182e+02	-3.111490e+01
4.553330e+02	-3.115986e+01
4.579630e+02	-3.121019e+01
4.606082e+02	-3.125914e+01
4.632687e+02	-3.130915e+01
4.659445e+02	-3.136098e+01
4.686358e+02	-3.140853e+01
4.713426e+02	-3.145476e+01
4.740650e+02	-3.150546e+01
4.768032e+02	-3.155974e+01
4.795572e+02	-3.161030e+01
4.823271e+02	-3.165959e+01
4.851130e+02	-3.171488e+01
4.879150e+02	-3.176294e+01
4.907332e+02	-3.181477e+01
4.935676e+02	-3.185869e+01
4.964185e+02	-3.191281e+01
4.992858e+02	-3.196478e+01
5.021696e+02	-3.201361e+01
5.050701e+02	-3.205959e+01
5.079874e+02	-3.211565e+01
5.109215e+02	-3.216691e+01
5.138726e+02	-3.221148e+01
5.168407e+02	-3.226503e+01
5.198259e+02	-3.231333e+01
5.228284e+02	-3.236448e+01
5.258482e+02	-3.241303e+01
5.288855e+02	-3.246750e+01
5.319403e+02	-3.251051e+01
5.350128e+02	-3.256000e+01
5.381030e+02	-3.262320e+01
5.412111e+02	-3.266673e+01
5.443371e+02	-3.271342e+01
5.474812e+02	-3.276722e+01
5.506434e+02	-3.281436e+01
5.538239e+02	-3.286351e+01
5.570228e+02	-3.292490e+01
5.602401e+02	-3.296298e+01
5.634760e+02	-3.302171e+01
5.667306e+02	-3.306242e+01
5.700040e+02	-3.311358e+01
5.732964e+02	-3.317082e+01
5.766077e+02	-3.322087e+01
5.799382e+02	-3.327670e+01
5.832879e+02	-3.331891e+01
5.866569e+02	-3.336626e+01
5.900454e+02	-3.342171e+01
5.934535e+02	-3.347075e+01
5.968813e+02	-3.351731e+01
6.003288e+02	-3.356756e+01
6.037963e+02	-3.361400e+01
6.072838e+02	-3.367288e+01
6.107914e+02	-3.371860e+01
6.143194e+02	-3.377820e+01
6.178676e+02	-3.382542e+01
6.214364e+02	-3.387668e+01
6.250258e+02	-3.392536e+01
6.286359e+02	-3.397686e+01
6.322669e+02	-3.401587e+01
6.359189e+02	-3.406493e+01
6.395919e+02	-3.411910e+01
6.432862e+02	-3.417901e+01
6.470017e+02	-3.421679e+01
6.507388e+02	-3.427530e+01
6.544974e+02	-3.432422e+01
6.582778e+02	-3.437088e+01
6.620800e+02	-3.443116e+01
6.659041e+02	-3.446934e+01
6.697504e+02	-3.451471e+01
6.736188e+02	-3.457002e+01
6.775096e+02	-3.463100e+01
6.814229e+02	-3.468198e+01
6.853587e+02	-3.471648e+01
6.893173e+02	-3.477451e+01
6.932988e+02	-3.483071e+01
6.973033e+02	-3.487197e+01
7.013309e+02	-3.492881e+01
