Frequency(Hz)	Magnitude(dB)
1.000000e+01	-2.120380e+00
1.005776e+01	-2.139681e+00
1.011585e+01	-2.159116e+00
1.017428e+01	-2.179033e+00
1.023305e+01	-2.198720e+00
1.029215e+01	-2.218781e+00
1.035160e+01	-2.238922e+00
1.041139e+01	-2.259041e+00
1.047153e+01	-2.279348e+00
1.053201e+01	-2.299617e+00
1.059284e+01	-2.320314e+00
1.065403e+01	-2.341385e+00
1.071556e+01	-2.361830e+00
1.077746e+01	-2.383157e+00
1.083971e+01	-2.404165e+00
1.090232e+01	-2.425570e+00
1.096529e+01	-2.447252e+00
1.102862e+01	-2.468715e+00
1.109232e+01	-2.490604e+00
1.115639e+01	-2.512488e+00
1.122083e+01	-2.534548e+00
1.128564e+01	-2.556653e+00
1.135083e+01	-2.578974e+00
1.141639e+01	-2.601512e+00
1.148233e+01	-2.624084e+00
1.154865e+01	-2.647042e+00
1.161536e+01	-2.669726e+00
1.168245e+01	-2.692584e+00
1.174992e+01	-2.716056e+00
1.181779e+01	-2.739295e+00
1.188605e+01	-2.762686e+00
1.195470e+01	-2.786469e+00
1.202375e+01	-2.810145e+00
1.209320e+01	-2.834096e+00
1.216305e+01	-2.858077e+00
1.223330e+01	-2.882179e+00
1.230396e+01	-2.906566e+00
1.237503e+01	-2.931001e+00
1.244651e+01	-2.955546e+00
1.251840e+01	-2.980642e+00
1.259070e+01	-3.005635e+00
1.266343e+01	-3.030670e+00
1.273657e+01	-3.055848e+00
1.281014e+01	-3.081158e+00
1.288413e+01	-3.106574e+00
1.295855e+01	-3.132155e+00
1.303339e+01	-3.157856e+00
1.310867e+01	-3.183947e+00
1.318439e+01	-3.209997e+00
1.326054e+01	-3.236093e+00
1.333713e+01	-3.262432e+00
1.341417e+01	-3.289083e+00
1.349165e+01	-3.315727e+00
1.356958e+01	-3.342291e+00
1.364795e+01	-3.369404e+00
1.372678e+01	-3.396266e+00
1.380607e+01	-3.423589e+00
1.388581e+01	-3.450811e+00
1.396602e+01	-3.478324e+00
1.404668e+01	-3.506300e+00
1.412782e+01	-3.533882e+00
1.420942e+01	-3.561537e+00
1.429149e+01	-3.589733e+00
1.437404e+01	-3.618228e+00
1.445706e+01	-3.646489e+00
1.454057e+01	-3.674812e+00
1.462455e+01	-3.703520e+00
1.470902e+01	-3.732270e+00
1.479398e+01	-3.761305e+00
1.487943e+01	-3.790454e+00
1.496537e+01	-3.819632e+00
1.505181e+01	-3.848960e+00
1.513875e+01	-3.878035e+00
1.522619e+01	-3.908091e+00
1.531414e+01	-3.937554e+00
1.540259e+01	-3.967579e+00
1.549156e+01	-3.997563e+00
1.558103e+01	-4.027803e+00
1.567103e+01	-4.058341e+00
1.576155e+01	-4.088351e+00
1.585258e+01	-4.118911e+00
1.594415e+01	-4.150003e+00
1.603624e+01	-4.180528e+00
1.612886e+01	-4.211554e+00
1.622202e+01	-4.242992e+00
1.631572e+01	-4.274062e+00
1.640996e+01	-4.305308e+00
1.650474e+01	-4.337076e+00
1.660008e+01	-4.368592e+00
1.669596e+01	-4.400349e+00
1.679239e+01	-4.432453e+00
1.688938e+01	-4.464253e+00
1.698694e+01	-4.496906e+00
1.708505e+01	-4.528818e+00
1.718373e+01	-4.561283e+00
1.728299e+01	-4.594120e+00
1.738281e+01	-4.626796e+00
1.748322e+01	-4.659561e+00
1.758420e+01	-4.692523e+00
1.768576e+01	-4.725704e+00
1.778792e+01	-4.758650e+00
1.789066e+01	-4.792109e+00
1.799399e+01	-4.825741e+00
1.809793e+01	-4.859226e+00
1.820246e+01	-4.893264e+00
1.830760e+01	-4.927116e+00
1.841334e+01	-4.960865e+00
1.851969e+01	-4.994797e+00
1.862666e+01	-5.029424e+00
1.873425e+01	-5.063620e+00
1.884246e+01	-5.098194e+00
1.895129e+01	-5.133028e+00
1.906075e+01	-5.167634e+00
1.917085e+01	-5.202292e+00
1.928158e+01	-5.237683e+00
1.939295e+01	-5.272342e+00
1.950496e+01	-5.307810e+00
1.961762e+01	-5.343037e+00
1.973093e+01	-5.378180e+00
1.984490e+01	-5.414242e+00
1.995952e+01	-5.449901e+00
2.007480e+01	-5.485823e+00
2.019076e+01	-5.521511e+00
2.030738e+01	-5.558155e+00
2.042467e+01	-5.593602e+00
2.054264e+01	-5.629928e+00
2.066130e+01	-5.666278e+00
2.078064e+01	-5.703055e+00
2.090066e+01	-5.739636e+00
2.102139e+01	-5.776347e+00
2.114280e+01	-5.813147e+00
2.126492e+01	-5.850180e+00
2.138775e+01	-5.887480e+00
2.151128e+01	-5.924652e+00
2.163553e+01	-5.961954e+00
2.176050e+01	-5.999116e+00
2.188619e+01	-6.036751e+00
2.201260e+01	-6.074474e+00
2.213974e+01	-6.111849e+00
2.226762e+01	-6.150103e+00
2.239624e+01	-6.187796e+00
2.252560e+01	-6.225906e+00
2.265571e+01	-6.263824e+00
2.278656e+01	-6.301957e+00
2.291818e+01	-6.340508e+00
2.305055e+01	-6.378883e+00
2.318369e+01	-6.417602e+00
2.331760e+01	-6.456480e+00
2.345228e+01	-6.495024e+00
2.358774e+01	-6.533938e+00
2.372398e+01	-6.573060e+00
2.386101e+01	-6.612124e+00
2.399883e+01	-6.651215e+00
2.413745e+01	-6.690385e+00
2.427686e+01	-6.729541e+00
2.441709e+01	-6.769152e+00
2.455812e+01	-6.809151e+00
2.469997e+01	-6.848383e+00
2.484263e+01	-6.887978e+00
2.498612e+01	-6.927856e+00
2.513044e+01	-6.967931e+00
2.527559e+01	-7.007906e+00
2.542158e+01	-7.048050e+00
2.556842e+01	-7.088119e+00
2.571610e+01	-7.128447e+00
2.586463e+01	-7.169025e+00
2.601403e+01	-7.209327e+00
2.616428e+01	-7.249875e+00
2.631541e+01	-7.290550e+00
2.646740e+01	-7.330879e+00
2.662028e+01	-7.372019e+00
2.677404e+01	-7.412712e+00
2.692868e+01	-7.454097e+00
2.708422e+01	-7.495147e+00
2.724066e+01	-7.536454e+00
2.739800e+01	-7.577579e+00
2.755625e+01	-7.618968e+00
2.771541e+01	-7.660204e+00
2.787550e+01	-7.701511e+00
2.803650e+01	-7.742745e+00
2.819844e+01	-7.784952e+00
2.836131e+01	-7.827100e+00
2.852513e+01	-7.868436e+00
2.868989e+01	-7.910284e+00
2.885560e+01	-7.952297e+00
2.902227e+01	-7.994482e+00
2.918990e+01	-8.036419e+00
2.935850e+01	-8.078797e+00
2.952807e+01	-8.120942e+00
2.969863e+01	-8.163199e+00
2.987016e+01	-8.205859e+00
3.004269e+01	-8.248047e+00
3.021622e+01	-8.290577e+00
3.039075e+01	-8.333761e+00
3.056628e+01	-8.376243e+00
3.074283e+01	-8.419002e+00
3.092040e+01	-8.462101e+00
3.109900e+01	-8.505249e+00
3.127862e+01	-8.547952e+00
3.145929e+01	-8.590976e+00
3.164099e+01	-8.634003e+00
3.182375e+01	-8.677217e+00
3.200756e+01	-8.720368e+00
3.219244e+01	-8.763669e+00
3.237838e+01	-8.807374e+00
3.256540e+01	-8.850925e+00
3.275349e+01	-8.894448e+00
3.294268e+01	-8.937902e+00
3.313295e+01	-8.981284e+00
3.332433e+01	-9.025149e+00
3.351681e+01	-9.069029e+00
3.371040e+01	-9.113090e+00
3.390511e+01	-9.156961e+00
3.410094e+01	-9.200355e+00
3.429791e+01	-9.245140e+00
3.449601e+01	-9.289017e+00
3.469526e+01	-9.332906e+00
3.489566e+01	-9.377532e+00
3.509721e+01	-9.421909e+00
3.529993e+01	-9.465638e+00
3.550382e+01	-9.510625e+00
3.570889e+01	-9.554482e+00
3.591515e+01	-9.598937e+00
3.612259e+01	-9.643808e+00
3.633123e+01	-9.688232e+00
3.654108e+01	-9.733361e+00
3.675214e+01	-9.777698e+00
3.696442e+01	-9.823036e+00
3.717792e+01	-9.867714e+00
3.739266e+01	-9.912352e+00
3.760864e+01	-9.957270e+00
3.782587e+01	-1.000222e+01
3.804435e+01	-1.004760e+01
3.826409e+01	-1.009261e+01
3.848510e+01	-1.013710e+01
3.870739e+01	-1.018268e+01
3.893096e+01	-1.022828e+01
3.915583e+01	-1.027358e+01
3.938199e+01	-1.031878e+01
3.960946e+01	-1.036425e+01
3.983824e+01	-1.040976e+01
4.006834e+01	-1.045499e+01
4.029978e+01	-1.050068e+01
4.053255e+01	-1.054630e+01
4.076666e+01	-1.059206e+01
4.100213e+01	-1.063844e+01
4.123896e+01	-1.068342e+01
4.147715e+01	-1.072890e+01
4.171672e+01	-1.077441e+01
4.195767e+01	-1.082083e+01
4.220002e+01	-1.086685e+01
4.244377e+01	-1.091292e+01
4.268892e+01	-1.095901e+01
4.293549e+01	-1.100469e+01
4.318348e+01	-1.105081e+01
4.343291e+01	-1.109683e+01
4.368377e+01	-1.114249e+01
4.393609e+01	-1.118914e+01
4.418986e+01	-1.123539e+01
4.444510e+01	-1.128162e+01
4.470182e+01	-1.132870e+01
4.496001e+01	-1.137424e+01
4.521970e+01	-1.142117e+01
4.548089e+01	-1.146710e+01
4.574358e+01	-1.151368e+01
4.600779e+01	-1.156093e+01
4.627353e+01	-1.160760e+01
4.654081e+01	-1.165384e+01
4.680963e+01	-1.170054e+01
4.708000e+01	-1.174673e+01
4.735193e+01	-1.179342e+01
4.762543e+01	-1.184000e+01
4.790051e+01	-1.188702e+01
4.817719e+01	-1.193335e+01
4.845545e+01	-1.198008e+01
4.873533e+01	-1.202774e+01
4.901682e+01	-1.207425e+01
4.929994e+01	-1.212179e+01
4.958470e+01	-1.216818e+01
4.987110e+01	-1.221547e+01
5.015915e+01	-1.226300e+01
5.044887e+01	-1.230913e+01
5.074026e+01	-1.235674e+01
5.103333e+01	-1.240348e+01
5.132810e+01	-1.245042e+01
5.162457e+01	-1.249777e+01
5.192275e+01	-1.254460e+01
5.222265e+01	-1.259247e+01
5.252429e+01	-1.263984e+01
5.282767e+01	-1.268716e+01
5.313280e+01	-1.273445e+01
5.343969e+01	-1.278147e+01
5.374836e+01	-1.282892e+01
5.405880e+01	-1.287679e+01
5.437105e+01	-1.292411e+01
5.468509e+01	-1.297223e+01
5.500095e+01	-1.301958e+01
5.531863e+01	-1.306676e+01
5.563815e+01	-1.311448e+01
5.595951e+01	-1.316178e+01
5.628273e+01	-1.320949e+01
5.660782e+01	-1.325689e+01
5.693479e+01	-1.330442e+01
5.726364e+01	-1.335236e+01
5.759439e+01	-1.339992e+01
5.792705e+01	-1.344716e+01
5.826164e+01	-1.349502e+01
5.859815e+01	-1.354354e+01
5.893662e+01	-1.359130e+01
5.927703e+01	-1.363931e+01
5.961941e+01	-1.368721e+01
5.996377e+01	-1.373523e+01
6.031012e+01	-1.378353e+01
6.065847e+01	-1.383037e+01
6.100883e+01	-1.387876e+01
6.136121e+01	-1.392734e+01
6.171563e+01	-1.397512e+01
6.207210e+01	-1.402242e+01
6.243063e+01	-1.407167e+01
6.279122e+01	-1.411854e+01
6.315390e+01	-1.416757e+01
6.351868e+01	-1.421450e+01
6.388556e+01	-1.426311e+01
6.425456e+01	-1.431119e+01
6.462569e+01	-1.435994e+01
6.499897e+01	-1.440761e+01
6.537440e+01	-1.445586e+01
6.575200e+01	-1.450409e+01
6.613178e+01	-1.455284e+01
6.651375e+01	-1.460108e+01
6.689793e+01	-1.464886e+01
6.728433e+01	-1.469804e+01
6.767297e+01	-1.474596e+01
6.806384e+01	-1.479365e+01
6.845698e+01	-1.484273e+01
6.885238e+01	-1.489083e+01
6.925007e+01	-1.493949e+01
6.965005e+01	-1.498831e+01
7.005235e+01	-1.503649e+01
7.045697e+01	-1.508539e+01
7.086393e+01	-1.513329e+01
7.127323e+01	-1.518121e+01
7.168490e+01	-1.523008e+01
7.209895e+01	-1.527903e+01
7.251539e+01	-1.532715e+01
7.293424e+01	-1.537631e+01
7.335551e+01	-1.542536e+01
7.377920e+01	-1.547278e+01
7.420535e+01	-1.552141e+01
7.463396e+01	-1.557151e+01
7.506504e+01	-1.561959e+01
7.549861e+01	-1.566730e+01
7.593469e+01	-1.571763e+01
7.637328e+01	-1.576621e+01
7.681441e+01	-1.581420e+01
7.725809e+01	-1.586309e+01
7.770433e+01	-1.591067e+01
7.815315e+01	-1.596034e+01
7.860456e+01	-1.600896e+01
7.905857e+01	-1.605733e+01
7.951521e+01	-1.610638e+01
7.997449e+01	-1.615575e+01
8.043642e+01	-1.620377e+01
8.090102e+01	-1.625246e+01
8.136830e+01	-1.630069e+01
8.183828e+01	-1.635049e+01
8.231097e+01	-1.640107e+01
8.278640e+01	-1.644781e+01
8.326457e+01	-1.649735e+01
8.374550e+01	-1.654580e+01
8.422921e+01	-1.659546e+01
8.471572e+01	-1.664321e+01
8.520503e+01	-1.669352e+01
8.569717e+01	-1.674185e+01
8.619215e+01	-1.679156e+01
8.669000e+01	-1.683980e+01
8.719071e+01	-1.688840e+01
8.769432e+01	-1.693899e+01
8.820084e+01	-1.698750e+01
8.871029e+01	-1.703615e+01
8.922267e+01	-1.708400e+01
8.973802e+01	-1.713488e+01
9.025634e+01	-1.718302e+01
9.077766e+01	-1.723183e+01
9.130199e+01	-1.728069e+01
9.182935e+01	-1.733026e+01
9.235975e+01	-1.737972e+01
9.289321e+01	-1.742798e+01
9.342976e+01	-1.747769e+01
9.396941e+01	-1.752682e+01
9.451217e+01	-1.757595e+01
9.505807e+01	-1.762521e+01
9.560712e+01	-1.767522e+01
9.615934e+01	-1.772463e+01
9.671476e+01	-1.777283e+01
9.727338e+01	-1.782305e+01
9.783522e+01	-1.786937e+01
9.840032e+01	-1.791966e+01
9.896867e+01	-1.797027e+01
9.954031e+01	-1.801984e+01
1.001153e+02	-1.806870e+01
1.006935e+02	-1.811726e+01
1.012751e+02	-1.816670e+01
1.018601e+02	-1.821629e+01
1.024484e+02	-1.826390e+01
1.030402e+02	-1.831583e+01
1.036353e+02	-1.836175e+01
1.042339e+02	-1.841263e+01
1.048360e+02	-1.846211e+01
1.054415e+02	-1.851131e+01
1.060505e+02	-1.856079e+01
1.066631e+02	-1.861142e+01
1.072791e+02	-1.865906e+01
1.078988e+02	-1.870927e+01
1.085220e+02	-1.875842e+01
1.091488e+02	-1.880934e+01
1.097793e+02	-1.885766e+01
1.104133e+02	-1.890765e+01
1.110511e+02	-1.895543e+01
1.116925e+02	-1.900386e+01
1.123376e+02	-1.905549e+01
1.129865e+02	-1.910372e+01
1.136391e+02	-1.915478e+01
1.142955e+02	-1.920215e+01
1.149556e+02	-1.925335e+01
1.156196e+02	-1.930173e+01
1.162874e+02	-1.935310e+01
1.169591e+02	-1.940045e+01
1.176347e+02	-1.944957e+01
1.183141e+02	-1.950076e+01
1.189975e+02	-1.954967e+01
1.196848e+02	-1.959933e+01
1.203761e+02	-1.964876e+01
1.210714e+02	-1.969713e+01
1.217707e+02	-1.974777e+01
1.224740e+02	-1.979738e+01
1.231814e+02	-1.984752e+01
1.238929e+02	-1.989599e+01
1.246085e+02	-1.994330e+01
1.253283e+02	-1.999519e+01
1.260522e+02	-2.004406e+01
1.267802e+02	-2.009236e+01
1.275125e+02	-2.014428e+01
1.282490e+02	-2.019355e+01
1.289898e+02	-2.024113e+01
1.297348e+02	-2.029269e+01
1.304842e+02	-2.034118e+01
1.312378e+02	-2.039005e+01
1.319959e+02	-2.044091e+01
1.327583e+02	-2.049008e+01
1.335251e+02	-2.054115e+01
1.342963e+02	-2.059120e+01
1.350720e+02	-2.063863e+01
1.358522e+02	-2.069052e+01
1.366368e+02	-2.073904e+01
1.374260e+02	-2.078660e+01
1.382198e+02	-2.083693e+01
1.390182e+02	-2.088574e+01
1.398211e+02	-2.093757e+01
1.406287e+02	-2.098764e+01
1.414410e+02	-2.103634e+01
1.422579e+02	-2.108793e+01
1.430796e+02	-2.113563e+01
1.439060e+02	-2.118482e+01
1.447372e+02	-2.123549e+01
1.455732e+02	-2.128514e+01
1.464141e+02	-2.133449e+01
1.472597e+02	-2.138445e+01
1.481103e+02	-2.143144e+01
1.489658e+02	-2.148284e+01
1.498262e+02	-2.153362e+01
1.506916e+02	-2.158263e+01
1.515620e+02	-2.163179e+01
1.524374e+02	-2.168329e+01
1.533179e+02	-2.173118e+01
1.542034e+02	-2.178178e+01
1.550941e+02	-2.183269e+01
1.559899e+02	-2.188118e+01
1.568909e+02	-2.193021e+01
1.577971e+02	-2.198029e+01
1.587085e+02	-2.203022e+01
1.596252e+02	-2.208023e+01
1.605472e+02	-2.213120e+01
1.614745e+02	-2.217896e+01
1.624072e+02	-2.222973e+01
1.633453e+02	-2.227835e+01
1.642887e+02	-2.233068e+01
1.652377e+02	-2.237902e+01
1.661921e+02	-2.242674e+01
1.671520e+02	-2.247703e+01
1.681175e+02	-2.252907e+01
1.690885e+02	-2.257888e+01
1.700651e+02	-2.262593e+01
1.710474e+02	-2.267708e+01
1.720354e+02	-2.272803e+01
1.730291e+02	-2.277792e+01
1.740285e+02	-2.282674e+01
1.750337e+02	-2.287595e+01
1.760446e+02	-2.292514e+01
1.770615e+02	-2.297560e+01
1.780842e+02	-2.302593e+01
1.791128e+02	-2.307474e+01
1.801473e+02	-2.312340e+01
1.811878e+02	-2.317668e+01
1.822344e+02	-2.322529e+01
1.832870e+02	-2.327339e+01
1.843456e+02	-2.332500e+01
1.854104e+02	-2.337352e+01
1.864813e+02	-2.342155e+01
1.875584e+02	-2.347246e+01
1.886418e+02	-2.352376e+01
1.897313e+02	-2.357502e+01
1.908272e+02	-2.362204e+01
1.919294e+02	-2.367412e+01
1.930380e+02	-2.372353e+01
1.941530e+02	-2.377231e+01
1.952744e+02	-2.382259e+01
1.964023e+02	-2.387209e+01
1.975367e+02	-2.392322e+01
1.986777e+02	-2.397324e+01
1.998252e+02	-2.402111e+01
2.009794e+02	-2.407239e+01
2.021403e+02	-2.411975e+01
2.033078e+02	-2.417117e+01
2.044821e+02	-2.421855e+01
2.056632e+02	-2.426902e+01
2.068511e+02	-2.432094e+01
2.080459e+02	-2.437023e+01
2.092475e+02	-2.441995e+01
2.104561e+02	-2.447017e+01
2.116717e+02	-2.452061e+01
2.128943e+02	-2.456919e+01
2.141240e+02	-2.461922e+01
2.153608e+02	-2.467004e+01
2.166047e+02	-2.472178e+01
2.178558e+02	-2.476926e+01
2.191141e+02	-2.481793e+01
2.203797e+02	-2.487175e+01
2.216526e+02	-2.492242e+01
2.229329e+02	-2.497077e+01
2.242205e+02	-2.501894e+01
2.255156e+02	-2.507128e+01
2.268182e+02	-2.511910e+01
2.281283e+02	-2.516726e+01
2.294459e+02	-2.521887e+01
2.307712e+02	-2.526768e+01
2.321041e+02	-2.531839e+01
2.334447e+02	-2.536922e+01
2.347931e+02	-2.542003e+01
2.361493e+02	-2.547017e+01
2.375133e+02	-2.551999e+01
2.388851e+02	-2.556948e+01
2.402649e+02	-2.561799e+01
2.416527e+02	-2.566801e+01
2.430484e+02	-2.571840e+01
2.444523e+02	-2.576796e+01
2.458642e+02	-2.581637e+01
2.472843e+02	-2.586870e+01
2.487126e+02	-2.591862e+01
2.501492e+02	-2.596881e+01
2.515940e+02	-2.601677e+01
2.530472e+02	-2.606564e+01
2.545088e+02	-2.612094e+01
2.559789e+02	-2.616644e+01
2.574574e+02	-2.622133e+01
2.589444e+02	-2.626757e+01
2.604401e+02	-2.631741e+01
2.619444e+02	-2.636442e+01
2.634574e+02	-2.641555e+01
2.649791e+02	-2.646996e+01
2.665096e+02	-2.651986e+01
2.680489e+02	-2.657180e+01
2.695972e+02	-2.661848e+01
2.711544e+02	-2.666965e+01
2.727205e+02	-2.671631e+01
2.742958e+02	-2.676759e+01
2.758801e+02	-2.681426e+01
2.774736e+02	-2.686634e+01
2.790762e+02	-2.691902e+01
2.806882e+02	-2.696909e+01
2.823094e+02	-2.701756e+01
2.839400e+02	-2.706768e+01
2.855800e+02	-2.712097e+01
2.872295e+02	-2.716703e+01
2.888886e+02	-2.721486e+01
2.905572e+02	-2.726743e+01
2.922354e+02	-2.731804e+01
2.939234e+02	-2.736605e+01
2.956211e+02	-2.741827e+01
2.973286e+02	-2.747009e+01
2.990459e+02	-2.751946e+01
3.007732e+02	-2.756585e+01
3.025104e+02	-2.761901e+01
3.042577e+02	-2.766947e+01
3.060151e+02	-2.771441e+01
3.077826e+02	-2.776933e+01
3.095604e+02	-2.781963e+01
3.113484e+02	-2.786832e+01
3.131467e+02	-2.791571e+01
3.149554e+02	-2.797216e+01
3.167746e+02	-2.801776e+01
3.186043e+02	-2.806536e+01
3.204445e+02	-2.811625e+01
3.222954e+02	-2.816717e+01
3.241570e+02	-2.822147e+01
3.260293e+02	-2.826538e+01
3.279124e+02	-2.831251e+01
3.298064e+02	-2.836614e+01
3.317114e+02	-2.841620e+01
3.336273e+02	-2.846793e+01
3.355544e+02	-2.851634e+01
3.374925e+02	-2.856576e+01
3.394418e+02	-2.862296e+01
3.414024e+02	-2.866568e+01
3.433744e+02	-2.871612e+01
3.453577e+02	-2.876869e+01
3.473525e+02	-2.882010e+01
3.493588e+02	-2.886757e+01
3.513766e+02	-2.891742e+01
3.534062e+02	-2.897317e+01
3.554474e+02	-2.901758e+01
3.575005e+02	-2.906739e+01
3.595654e+02	-2.911570e+01
3.616422e+02	-2.916885e+01
3.637311e+02	-2.922041e+01
3.658320e+02	-2.926926e+01
3.679450e+02	-2.932052e+01
3.700702e+02	-2.936999e+01
3.722077e+02	-2.941646e+01
3.743576e+02	-2.946976e+01
3.765199e+02	-2.952025e+01
3.786946e+02	-2.956864e+01
3.808820e+02	-2.961795e+01
3.830819e+02	-2.966992e+01
3.852946e+02	-2.971665e+01
3.875200e+02	-2.977030e+01
3.897583e+02	-2.981641e+01
3.920096e+02	-2.987119e+01
3.942738e+02	-2.991962e+01
3.965511e+02	-2.996740e+01
3.988416e+02	-3.002067e+01
4.011452e+02	-3.006735e+01
4.034622e+02	-3.011896e+01
4.057926e+02	-3.016616e+01
4.081365e+02	-3.022015e+01
4.104938e+02	-3.026929e+01
4.128648e+02	-3.032293e+01
4.152495e+02	-3.036626e+01
4.176480e+02	-3.041607e+01
4.200603e+02	-3.046935e+01
4.224866e+02	-3.052420e+01
4.249268e+02	-3.056828e+01
4.273812e+02	-3.062260e+01
4.298497e+02	-3.067052e+01
4.323325e+02	-3.072034e+01
4.348297e+02	-3.076597e+01
4.373412e+02	-3.082449e+01
4.398673e+02	-3.087332e+01
4.424079e+02	-3.092268e+01
4.449633e+02	-3.097365e+01
4.475334e+02	-3.102859e+01
4.501183e+02	-3.107102e+01
4.527182e+02	-3.111973e+01
4.553330e+02	-3.117820e+01
4.579630e+02	-3.122291e+01
4.606082e+02	-3.127095e+01
4.632687e+02	-3.132539e+01
4.659445e+02	-3.137228e+01
4.686358e+02	-3.142690e+01
4.713426e+02	-3.147888e+01
4.740650e+02	-3.152616e+01
4.768032e+02	-3.157133e+01
4.795572e+02	-3.162184e+01
4.823271e+02	-3.167736e+01
4.851130e+02	-3.172481e+01
4.879150e+02	-3.177323e+01
4.907332e+02	-3.182987e+01
4.935676e+02	-3.187306e+01
4.964185e+02	-3.192460e+01
4.992858e+02	-3.198427e+01
5.021696e+02	-3.202518e+01
5.050701e+02	-3.207291e+01
5.079874e+02	-3.212790e+01
5.109215e+02	-3.218311e+01
5.138726e+02	-3.222910e+01
5.168407e+02	-3.227407e+01
5.198259e+02	-3.232452e+01
5.228284e+02	-3.238123e+01
5.258482e+02	-3.243276e+01
5.288855e+02	-3.248226e+01
5.319403e+02	-3.252921e+01
5.350128e+02	-3.257677e+01
5.381030e+02	-3.262462e+01
5.412111e+02	-3.267576e+01
5.443371e+02	-3.272784e+01
5.474812e+02	-3.277997e+01
5.506434e+02	-3.282968e+01
5.538239e+02	-3.288286e+01
5.570228e+02	-3.293438e+01
5.602401e+02	-3.297596e+01
5.634760e+02	-3.302738e+01
5.667306e+02	-3.307990e+01
5.700040e+02	-3.312950e+01
5.732964e+02	-3.317451e+01
5.766077e+02	-3.323007e+01
5.799382e+02	-3.327989e+01
5.832879e+02	-3.333757e+01
5.866569e+02	-3.338121e+01
5.900454e+02	-3.343336e+01
5.934535e+02	-3.348541e+01
5.968813e+02	-3.352998e+01
6.003288e+02	-3.358877e+01
6.037963e+02	-3.364063e+01
6.072838e+02	-3.368100e+01
6.107914e+02	-3.373637e+01
6.143194e+02	-3.378686e+01
6.178676e+02	-3.384490e+01
6.214364e+02	-3.388319e+01
6.250258e+02	-3.393820e+01
6.286359e+02	-3.398702e+01
6.322669e+02	-3.402710e+01
6.359189e+02	-3.408548e+01
6.395919e+02	-3.413584e+01
6.432862e+02	-3.419312e+01
6.470017e+02	-3.422733e+01
6.507388e+02	-3.429199e+01
6.544974e+02	-3.434447e+01
6.582778e+02	-3.439660e+01
6.620800e+02	-3.444132e+01
6.659041e+02	-3.448325e+01
6.697504e+02	-3.454035e+01
6.736188e+02	-3.458519e+01
6.775096e+02	-3.463573e+01
6.814229e+02	-3.468912e+01
6.853587e+02	-3.474550e+01
6.893173e+02	-3.479900e+01
6.932988e+02	-3.484630e+01
6.973033e+02	-3.489426e+01
7.013309e+02	-3.494083e+01
