Frequency(Hz)	Magnitude(dB)
1.000000e+01	-2.338295e+00
1.005776e+01	-2.358965e+00
1.011585e+01	-2.379754e+00
1.017428e+01	-2.401303e+00
1.023305e+01	-2.422626e+00
1.029215e+01	-2.444393e+00
1.035160e+01	-2.465697e+00
1.041139e+01	-2.487506e+00
1.047153e+01	-2.509252e+00
1.053201e+01	-2.531064e+00
1.059284e+01	-2.553436e+00
1.065403e+01	-2.575641e+00
1.071556e+01	-2.598168e+00
1.077746e+01	-2.620780e+00
1.083971e+01	-2.643722e+00
1.090232e+01	-2.666344e+00
1.096529e+01	-2.689403e+00
1.102862e+01	-2.712648e+00
1.109232e+01	-2.735974e+00
1.115639e+01	-2.759311e+00
1.122083e+01	-2.783025e+00
1.128564e+01	-2.806739e+00
1.135083e+01	-2.830487e+00
1.141639e+01	-2.854681e+00
1.148233e+01	-2.878822e+00
1.154865e+01	-2.903052e+00
1.161536e+01	-2.927624e+00
1.168245e+01	-2.952171e+00
1.174992e+01	-2.976852e+00
1.181779e+01	-3.001772e+00
1.188605e+01	-3.026804e+00
1.195470e+01	-3.052094e+00
1.202375e+01	-3.077327e+00
1.209320e+01	-3.102826e+00
1.216305e+01	-3.128356e+00
1.223330e+01	-3.154339e+00
1.230396e+01	-3.180136e+00
1.237503e+01	-3.206153e+00
1.244651e+01	-3.232208e+00
1.251840e+01	-3.258705e+00
1.259070e+01	-3.285282e+00
1.266343e+01	-3.311785e+00
1.273657e+01	-3.338281e+00
1.281014e+01	-3.365278e+00
1.288413e+01	-3.392278e+00
1.295855e+01	-3.419600e+00
1.303339e+01	-3.447027e+00
1.310867e+01	-3.474435e+00
1.318439e+01	-3.502068e+00
1.326054e+01	-3.529781e+00
1.333713e+01	-3.557745e+00
1.341417e+01	-3.585742e+00
1.349165e+01	-3.613782e+00
1.356958e+01	-3.642511e+00
1.364795e+01	-3.670919e+00
1.372678e+01	-3.699367e+00
1.380607e+01	-3.727941e+00
1.388581e+01	-3.756864e+00
1.396602e+01	-3.786000e+00
1.404668e+01	-3.815300e+00
1.412782e+01	-3.844451e+00
1.420942e+01	-3.874106e+00
1.429149e+01	-3.904078e+00
1.437404e+01	-3.933303e+00
1.445706e+01	-3.963236e+00
1.454057e+01	-3.993146e+00
1.462455e+01	-4.023377e+00
1.470902e+01	-4.053857e+00
1.479398e+01	-4.084089e+00
1.487943e+01	-4.114458e+00
1.496537e+01	-4.145142e+00
1.505181e+01	-4.176238e+00
1.513875e+01	-4.207351e+00
1.522619e+01	-4.238141e+00
1.531414e+01	-4.269629e+00
1.540259e+01	-4.300645e+00
1.549156e+01	-4.332234e+00
1.558103e+01	-4.363926e+00
1.567103e+01	-4.395858e+00
1.576155e+01	-4.427902e+00
1.585258e+01	-4.459463e+00
1.594415e+01	-4.491811e+00
1.603624e+01	-4.524421e+00
1.612886e+01	-4.556912e+00
1.622202e+01	-4.589419e+00
1.631572e+01	-4.621793e+00
1.640996e+01	-4.654855e+00
1.650474e+01	-4.687643e+00
1.660008e+01	-4.720790e+00
1.669596e+01	-4.754089e+00
1.679239e+01	-4.787364e+00
1.688938e+01	-4.820874e+00
1.698694e+01	-4.854434e+00
1.708505e+01	-4.888518e+00
1.718373e+01	-4.922235e+00
1.728299e+01	-4.956128e+00
1.738281e+01	-4.990219e+00
1.748322e+01	-5.024284e+00
1.758420e+01	-5.058952e+00
1.768576e+01	-5.093415e+00
1.778792e+01	-5.127388e+00
1.789066e+01	-5.162939e+00
1.799399e+01	-5.197506e+00
1.809793e+01	-5.232362e+00
1.820246e+01	-5.267653e+00
1.830760e+01	-5.302603e+00
1.841334e+01	-5.337897e+00
1.851969e+01	-5.373386e+00
1.862666e+01	-5.408851e+00
1.873425e+01	-5.444960e+00
1.884246e+01	-5.480670e+00
1.895129e+01	-5.516472e+00
1.906075e+01	-5.552414e+00
1.917085e+01	-5.588615e+00
1.928158e+01	-5.624952e+00
1.939295e+01	-5.661016e+00
1.950496e+01	-5.697627e+00
1.961762e+01	-5.734571e+00
1.973093e+01	-5.771027e+00
1.984490e+01	-5.808069e+00
1.995952e+01	-5.844945e+00
2.007480e+01	-5.881808e+00
2.019076e+01	-5.919110e+00
2.030738e+01	-5.956127e+00
2.042467e+01	-5.993617e+00
2.054264e+01	-6.031077e+00
2.066130e+01	-6.068603e+00
2.078064e+01	-6.106708e+00
2.090066e+01	-6.144591e+00
2.102139e+01	-6.182455e+00
2.114280e+01	-6.220549e+00
2.126492e+01	-6.258456e+00
2.138775e+01	-6.296694e+00
2.151128e+01	-6.335122e+00
2.163553e+01	-6.373432e+00
2.176050e+01	-6.412100e+00
2.188619e+01	-6.450696e+00
2.201260e+01	-6.489305e+00
2.213974e+01	-6.528294e+00
2.226762e+01	-6.567316e+00
2.239624e+01	-6.606427e+00
2.252560e+01	-6.645521e+00
2.265571e+01	-6.684669e+00
2.278656e+01	-6.724096e+00
2.291818e+01	-6.763333e+00
2.305055e+01	-6.802998e+00
2.318369e+01	-6.842790e+00
2.331760e+01	-6.882477e+00
2.345228e+01	-6.922429e+00
2.358774e+01	-6.962008e+00
2.372398e+01	-7.002049e+00
2.386101e+01	-7.042077e+00
2.399883e+01	-7.082381e+00
2.413745e+01	-7.122561e+00
2.427686e+01	-7.162897e+00
2.441709e+01	-7.203309e+00
2.455812e+01	-7.243991e+00
2.469997e+01	-7.284456e+00
2.484263e+01	-7.325415e+00
2.498612e+01	-7.366459e+00
2.513044e+01	-7.406941e+00
2.527559e+01	-7.448345e+00
2.542158e+01	-7.489209e+00
2.556842e+01	-7.530482e+00
2.571610e+01	-7.571735e+00
2.586463e+01	-7.612750e+00
2.601403e+01	-7.653904e+00
2.616428e+01	-7.695789e+00
2.631541e+01	-7.737241e+00
2.646740e+01	-7.779183e+00
2.662028e+01	-7.820834e+00
2.677404e+01	-7.862687e+00
2.692868e+01	-7.904496e+00
2.708422e+01	-7.946439e+00
2.724066e+01	-7.988042e+00
2.739800e+01	-8.030321e+00
2.755625e+01	-8.072676e+00
2.771541e+01	-8.114946e+00
2.787550e+01	-8.156841e+00
2.803650e+01	-8.199493e+00
2.819844e+01	-8.242119e+00
2.836131e+01	-8.284993e+00
2.852513e+01	-8.327037e+00
2.868989e+01	-8.369877e+00
2.885560e+01	-8.412906e+00
2.902227e+01	-8.455687e+00
2.918990e+01	-8.498471e+00
2.935850e+01	-8.540967e+00
2.952807e+01	-8.584887e+00
2.969863e+01	-8.627860e+00
2.987016e+01	-8.670674e+00
3.004269e+01	-8.714397e+00
3.021622e+01	-8.757879e+00
3.039075e+01	-8.801123e+00
3.056628e+01	-8.844627e+00
3.074283e+01	-8.888022e+00
3.092040e+01	-8.931790e+00
3.109900e+01	-8.975263e+00
3.127862e+01	-9.018881e+00
3.145929e+01	-9.062635e+00
3.164099e+01	-9.106923e+00
3.182375e+01	-9.150624e+00
3.200756e+01	-9.194435e+00
3.219244e+01	-9.238456e+00
3.237838e+01	-9.282384e+00
3.256540e+01	-9.326890e+00
3.275349e+01	-9.371191e+00
3.294268e+01	-9.415583e+00
3.313295e+01	-9.459484e+00
3.332433e+01	-9.504144e+00
3.351681e+01	-9.548629e+00
3.371040e+01	-9.592904e+00
3.390511e+01	-9.637544e+00
3.410094e+01	-9.682488e+00
3.429791e+01	-9.727043e+00
3.449601e+01	-9.771300e+00
3.469526e+01	-9.815739e+00
3.489566e+01	-9.860958e+00
3.509721e+01	-9.905672e+00
3.529993e+01	-9.950812e+00
3.550382e+01	-9.996004e+00
3.570889e+01	-1.004117e+01
3.591515e+01	-1.008636e+01
3.612259e+01	-1.013072e+01
3.633123e+01	-1.017704e+01
3.654108e+01	-1.022181e+01
3.675214e+01	-1.026688e+01
3.696442e+01	-1.031253e+01
3.717792e+01	-1.035781e+01
3.739266e+01	-1.040303e+01
3.760864e+01	-1.044843e+01
3.782587e+01	-1.049369e+01
3.804435e+01	-1.054004e+01
3.826409e+01	-1.058574e+01
3.848510e+01	-1.063113e+01
3.870739e+01	-1.067685e+01
3.893096e+01	-1.072318e+01
3.915583e+01	-1.076858e+01
3.938199e+01	-1.081460e+01
3.960946e+01	-1.085944e+01
3.983824e+01	-1.090618e+01
4.006834e+01	-1.095205e+01
4.029978e+01	-1.099819e+01
4.053255e+01	-1.104471e+01
4.076666e+01	-1.109032e+01
4.100213e+01	-1.113625e+01
4.123896e+01	-1.118288e+01
4.147715e+01	-1.122855e+01
4.171672e+01	-1.127466e+01
4.195767e+01	-1.132122e+01
4.220002e+01	-1.136800e+01
4.244377e+01	-1.141380e+01
4.268892e+01	-1.146043e+01
4.293549e+01	-1.150709e+01
4.318348e+01	-1.155350e+01
4.343291e+01	-1.160048e+01
4.368377e+01	-1.164663e+01
4.393609e+01	-1.169345e+01
4.418986e+01	-1.174009e+01
4.444510e+01	-1.178691e+01
4.470182e+01	-1.183360e+01
4.496001e+01	-1.188007e+01
4.521970e+01	-1.192657e+01
4.548089e+01	-1.197386e+01
4.574358e+01	-1.202101e+01
4.600779e+01	-1.206736e+01
4.627353e+01	-1.211470e+01
4.654081e+01	-1.216133e+01
4.680963e+01	-1.220913e+01
4.708000e+01	-1.225609e+01
4.735193e+01	-1.230303e+01
4.762543e+01	-1.234954e+01
4.790051e+01	-1.239646e+01
4.817719e+01	-1.244387e+01
4.845545e+01	-1.249094e+01
4.873533e+01	-1.253870e+01
4.901682e+01	-1.258524e+01
4.929994e+01	-1.263299e+01
4.958470e+01	-1.268035e+01
4.987110e+01	-1.272785e+01
5.015915e+01	-1.277557e+01
5.044887e+01	-1.282232e+01
5.074026e+01	-1.286984e+01
5.103333e+01	-1.291690e+01
5.132810e+01	-1.296518e+01
5.162457e+01	-1.301229e+01
5.192275e+01	-1.305916e+01
5.222265e+01	-1.310743e+01
5.252429e+01	-1.315465e+01
5.282767e+01	-1.320288e+01
5.313280e+01	-1.325037e+01
5.343969e+01	-1.329774e+01
5.374836e+01	-1.334519e+01
5.405880e+01	-1.339335e+01
5.437105e+01	-1.344120e+01
5.468509e+01	-1.348857e+01
5.500095e+01	-1.353712e+01
5.531863e+01	-1.358448e+01
5.563815e+01	-1.363202e+01
5.595951e+01	-1.367979e+01
5.628273e+01	-1.372724e+01
5.660782e+01	-1.377641e+01
5.693479e+01	-1.382454e+01
5.726364e+01	-1.387219e+01
5.759439e+01	-1.392027e+01
5.792705e+01	-1.396763e+01
5.826164e+01	-1.401586e+01
5.859815e+01	-1.406373e+01
5.893662e+01	-1.411200e+01
5.927703e+01	-1.416022e+01
5.961941e+01	-1.420827e+01
5.996377e+01	-1.425711e+01
6.031012e+01	-1.430485e+01
6.065847e+01	-1.435342e+01
6.100883e+01	-1.440123e+01
6.136121e+01	-1.444959e+01
6.171563e+01	-1.449807e+01
6.207210e+01	-1.454540e+01
6.243063e+01	-1.459414e+01
6.279122e+01	-1.464243e+01
6.315390e+01	-1.469052e+01
6.351868e+01	-1.473880e+01
6.388556e+01	-1.478654e+01
6.425456e+01	-1.483523e+01
6.462569e+01	-1.488381e+01
6.499897e+01	-1.493274e+01
6.537440e+01	-1.498039e+01
6.575200e+01	-1.502966e+01
6.613178e+01	-1.507682e+01
6.651375e+01	-1.512591e+01
6.689793e+01	-1.517426e+01
6.728433e+01	-1.522387e+01
6.767297e+01	-1.527173e+01
6.806384e+01	-1.532072e+01
6.845698e+01	-1.536890e+01
6.885238e+01	-1.541790e+01
6.925007e+01	-1.546675e+01
6.965005e+01	-1.551500e+01
7.005235e+01	-1.556301e+01
7.045697e+01	-1.561112e+01
7.086393e+01	-1.566015e+01
7.127323e+01	-1.570935e+01
7.168490e+01	-1.575678e+01
7.209895e+01	-1.580698e+01
7.251539e+01	-1.585622e+01
7.293424e+01	-1.590327e+01
7.335551e+01	-1.595417e+01
7.377920e+01	-1.600223e+01
7.420535e+01	-1.605103e+01
7.463396e+01	-1.609943e+01
7.506504e+01	-1.614834e+01
7.549861e+01	-1.619692e+01
7.593469e+01	-1.624506e+01
7.637328e+01	-1.629415e+01
7.681441e+01	-1.634300e+01
7.725809e+01	-1.639323e+01
7.770433e+01	-1.644101e+01
7.815315e+01	-1.648998e+01
7.860456e+01	-1.653955e+01
7.905857e+01	-1.658883e+01
7.951521e+01	-1.663716e+01
7.997449e+01	-1.668629e+01
8.043642e+01	-1.673481e+01
8.090102e+01	-1.678366e+01
8.136830e+01	-1.683336e+01
8.183828e+01	-1.688122e+01
8.231097e+01	-1.693022e+01
8.278640e+01	-1.697962e+01
8.326457e+01	-1.702935e+01
8.374550e+01	-1.707779e+01
8.422921e+01	-1.712749e+01
8.471572e+01	-1.717690e+01
8.520503e+01	-1.722432e+01
8.569717e+01	-1.727460e+01
8.619215e+01	-1.732360e+01
8.669000e+01	-1.737334e+01
8.719071e+01	-1.742162e+01
8.769432e+01	-1.747067e+01
8.820084e+01	-1.751906e+01
8.871029e+01	-1.756884e+01
8.922267e+01	-1.761745e+01
8.973802e+01	-1.766719e+01
9.025634e+01	-1.771748e+01
9.077766e+01	-1.776621e+01
9.130199e+01	-1.781546e+01
9.182935e+01	-1.786416e+01
9.235975e+01	-1.791234e+01
9.289321e+01	-1.796197e+01
9.342976e+01	-1.801128e+01
9.396941e+01	-1.805965e+01
9.451217e+01	-1.810978e+01
9.505807e+01	-1.815871e+01
9.560712e+01	-1.820823e+01
9.615934e+01	-1.825813e+01
9.671476e+01	-1.830680e+01
9.727338e+01	-1.835660e+01
9.783522e+01	-1.840679e+01
9.840032e+01	-1.845617e+01
9.896867e+01	-1.850516e+01
9.954031e+01	-1.855468e+01
1.001153e+02	-1.860354e+01
1.006935e+02	-1.865269e+01
1.012751e+02	-1.870209e+01
1.018601e+02	-1.875202e+01
1.024484e+02	-1.880161e+01
1.030402e+02	-1.885050e+01
1.036353e+02	-1.890073e+01
1.042339e+02	-1.894960e+01
1.048360e+02	-1.899947e+01
1.054415e+02	-1.904638e+01
1.060505e+02	-1.909607e+01
1.066631e+02	-1.914663e+01
1.072791e+02	-1.919592e+01
1.078988e+02	-1.924527e+01
1.085220e+02	-1.929484e+01
1.091488e+02	-1.934391e+01
1.097793e+02	-1.939251e+01
1.104133e+02	-1.944327e+01
1.110511e+02	-1.949358e+01
1.116925e+02	-1.954317e+01
1.123376e+02	-1.959066e+01
1.129865e+02	-1.964218e+01
1.136391e+02	-1.969037e+01
1.142955e+02	-1.973984e+01
1.149556e+02	-1.979182e+01
1.156196e+02	-1.983932e+01
1.162874e+02	-1.988710e+01
1.169591e+02	-1.993853e+01
1.176347e+02	-1.998741e+01
1.183141e+02	-2.003757e+01
1.189975e+02	-2.008907e+01
1.196848e+02	-2.013585e+01
1.203761e+02	-2.018610e+01
1.210714e+02	-2.023595e+01
1.217707e+02	-2.028569e+01
1.224740e+02	-2.033287e+01
1.231814e+02	-2.038419e+01
1.238929e+02	-2.043484e+01
1.246085e+02	-2.048474e+01
1.253283e+02	-2.053342e+01
1.260522e+02	-2.058345e+01
1.267802e+02	-2.063171e+01
1.275125e+02	-2.068230e+01
1.282490e+02	-2.073294e+01
1.289898e+02	-2.078223e+01
1.297348e+02	-2.083082e+01
1.304842e+02	-2.087954e+01
1.312378e+02	-2.092783e+01
1.319959e+02	-2.097979e+01
1.327583e+02	-2.102909e+01
1.335251e+02	-2.108013e+01
1.342963e+02	-2.112939e+01
1.350720e+02	-2.117682e+01
1.358522e+02	-2.122721e+01
1.366368e+02	-2.127678e+01
1.374260e+02	-2.132658e+01
1.382198e+02	-2.137840e+01
1.390182e+02	-2.142648e+01
1.398211e+02	-2.147585e+01
1.406287e+02	-2.152546e+01
1.414410e+02	-2.157671e+01
1.422579e+02	-2.162647e+01
1.430796e+02	-2.167606e+01
1.439060e+02	-2.172537e+01
1.447372e+02	-2.177351e+01
1.455732e+02	-2.182602e+01
1.464141e+02	-2.187212e+01
1.472597e+02	-2.192354e+01
1.481103e+02	-2.197505e+01
1.489658e+02	-2.202462e+01
1.498262e+02	-2.207292e+01
1.506916e+02	-2.212192e+01
1.515620e+02	-2.217332e+01
1.524374e+02	-2.222289e+01
1.533179e+02	-2.227009e+01
1.542034e+02	-2.232352e+01
1.550941e+02	-2.236965e+01
1.559899e+02	-2.242237e+01
1.568909e+02	-2.246925e+01
1.577971e+02	-2.252099e+01
1.587085e+02	-2.257074e+01
1.596252e+02	-2.261913e+01
1.605472e+02	-2.267078e+01
1.614745e+02	-2.271840e+01
1.624072e+02	-2.277016e+01
1.633453e+02	-2.282119e+01
1.642887e+02	-2.286880e+01
1.652377e+02	-2.291965e+01
1.661921e+02	-2.296885e+01
1.671520e+02	-2.301911e+01
1.681175e+02	-2.306965e+01
1.690885e+02	-2.311694e+01
1.700651e+02	-2.316949e+01
1.710474e+02	-2.321818e+01
1.720354e+02	-2.326715e+01
1.730291e+02	-2.331572e+01
1.740285e+02	-2.336478e+01
1.750337e+02	-2.341607e+01
1.760446e+02	-2.346609e+01
1.770615e+02	-2.351685e+01
1.780842e+02	-2.356527e+01
1.791128e+02	-2.361561e+01
1.801473e+02	-2.366529e+01
1.811878e+02	-2.371692e+01
1.822344e+02	-2.376535e+01
1.832870e+02	-2.381511e+01
1.843456e+02	-2.386301e+01
1.854104e+02	-2.391396e+01
1.864813e+02	-2.396720e+01
1.875584e+02	-2.401506e+01
1.886418e+02	-2.406686e+01
1.897313e+02	-2.411572e+01
1.908272e+02	-2.416451e+01
1.919294e+02	-2.421618e+01
1.930380e+02	-2.426426e+01
1.941530e+02	-2.431457e+01
1.952744e+02	-2.436246e+01
1.964023e+02	-2.441319e+01
1.975367e+02	-2.446411e+01
1.986777e+02	-2.451421e+01
1.998252e+02	-2.456284e+01
2.009794e+02	-2.461670e+01
2.021403e+02	-2.466375e+01
2.033078e+02	-2.471214e+01
2.044821e+02	-2.476142e+01
2.056632e+02	-2.481506e+01
2.068511e+02	-2.486052e+01
2.080459e+02	-2.491024e+01
2.092475e+02	-2.496473e+01
2.104561e+02	-2.501359e+01
2.116717e+02	-2.506309e+01
2.128943e+02	-2.511107e+01
2.141240e+02	-2.516054e+01
2.153608e+02	-2.521142e+01
2.166047e+02	-2.526333e+01
2.178558e+02	-2.531164e+01
2.191141e+02	-2.536189e+01
2.203797e+02	-2.541178e+01
2.216526e+02	-2.546091e+01
2.229329e+02	-2.551007e+01
2.242205e+02	-2.555961e+01
2.255156e+02	-2.561149e+01
2.268182e+02	-2.566175e+01
2.281283e+02	-2.571157e+01
2.294459e+02	-2.576116e+01
2.307712e+02	-2.581177e+01
2.321041e+02	-2.586474e+01
2.334447e+02	-2.591168e+01
2.347931e+02	-2.596010e+01
2.361493e+02	-2.600917e+01
2.375133e+02	-2.606097e+01
2.388851e+02	-2.611037e+01
2.402649e+02	-2.615910e+01
2.416527e+02	-2.621410e+01
2.430484e+02	-2.626193e+01
2.444523e+02	-2.630719e+01
2.458642e+02	-2.635804e+01
2.472843e+02	-2.641166e+01
2.487126e+02	-2.646143e+01
2.501492e+02	-2.650939e+01
2.515940e+02	-2.656091e+01
2.530472e+02	-2.660847e+01
2.545088e+02	-2.665893e+01
2.559789e+02	-2.671014e+01
2.574574e+02	-2.676254e+01
2.589444e+02	-2.680651e+01
2.604401e+02	-2.686129e+01
2.619444e+02	-2.690931e+01
2.634574e+02	-2.695975e+01
2.649791e+02	-2.700802e+01
2.665096e+02	-2.705922e+01
2.680489e+02	-2.711253e+01
2.695972e+02	-2.715897e+01
2.711544e+02	-2.720792e+01
2.727205e+02	-2.726394e+01
2.742958e+02	-2.730618e+01
2.758801e+02	-2.736192e+01
2.774736e+02	-2.741300e+01
2.790762e+02	-2.745818e+01
2.806882e+02	-2.750841e+01
2.823094e+02	-2.756293e+01
2.839400e+02	-2.761191e+01
2.855800e+02	-2.766260e+01
2.872295e+02	-2.771105e+01
2.888886e+02	-2.775805e+01
2.905572e+02	-2.781002e+01
2.922354e+02	-2.786049e+01
2.939234e+02	-2.790760e+01
2.956211e+02	-2.796221e+01
2.973286e+02	-2.801322e+01
2.990459e+02	-2.806025e+01
3.007732e+02	-2.811282e+01
3.025104e+02	-2.815834e+01
3.042577e+02	-2.820833e+01
3.060151e+02	-2.826050e+01
3.077826e+02	-2.831136e+01
3.095604e+02	-2.835946e+01
3.113484e+02	-2.841414e+01
3.131467e+02	-2.846259e+01
3.149554e+02	-2.851142e+01
3.167746e+02	-2.856638e+01
3.186043e+02	-2.861403e+01
3.204445e+02	-2.866445e+01
3.222954e+02	-2.870935e+01
3.241570e+02	-2.875707e+01
3.260293e+02	-2.881357e+01
3.279124e+02	-2.885871e+01
3.298064e+02	-2.891385e+01
3.317114e+02	-2.896345e+01
3.336273e+02	-2.901047e+01
3.355544e+02	-2.905997e+01
3.374925e+02	-2.911375e+01
3.394418e+02	-2.916168e+01
3.414024e+02	-2.920727e+01
3.433744e+02	-2.926454e+01
3.453577e+02	-2.931141e+01
3.473525e+02	-2.935707e+01
3.493588e+02	-2.940876e+01
3.513766e+02	-2.946302e+01
3.534062e+02	-2.951651e+01
3.554474e+02	-2.955819e+01
3.575005e+02	-2.960799e+01
3.595654e+02	-2.966284e+01
3.616422e+02	-2.971429e+01
3.637311e+02	-2.976535e+01
3.658320e+02	-2.981178e+01
3.679450e+02	-2.987097e+01
3.700702e+02	-2.991299e+01
3.722077e+02	-2.995919e+01
3.743576e+02	-3.001669e+01
3.765199e+02	-3.005823e+01
3.786946e+02	-3.011588e+01
3.808820e+02	-3.016262e+01
3.830819e+02	-3.021187e+01
3.852946e+02	-3.026476e+01
3.875200e+02	-3.031733e+01
3.897583e+02	-3.036307e+01
3.920096e+02	-3.041191e+01
3.942738e+02	-3.046181e+01
3.965511e+02	-3.051233e+01
3.988416e+02	-3.055340e+01
4.011452e+02	-3.061273e+01
4.034622e+02	-3.066587e+01
4.057926e+02	-3.071313e+01
4.081365e+02	-3.076903e+01
4.104938e+02	-3.081454e+01
4.128648e+02	-3.086377e+01
4.152495e+02	-3.090998e+01
4.176480e+02	-3.096679e+01
4.200603e+02	-3.101311e+01
4.224866e+02	-3.106380e+01
4.249268e+02	-3.111865e+01
4.273812e+02	-3.116568e+01
4.298497e+02	-3.121334e+01
4.323325e+02	-3.126639e+01
4.348297e+02	-3.131301e+01
4.373412e+02	-3.137279e+01
4.398673e+02	-3.141324e+01
4.424079e+02	-3.146887e+01
4.449633e+02	-3.152138e+01
4.475334e+02	-3.156676e+01
4.501183e+02	-3.161312e+01
4.527182e+02	-3.167194e+01
4.553330e+02	-3.171683e+01
4.579630e+02	-3.176026e+01
4.606082e+02	-3.182395e+01
4.632687e+02	-3.186744e+01
4.659445e+02	-3.192022e+01
4.686358e+02	-3.196003e+01
4.713426e+02	-3.201375e+01
4.740650e+02	-3.206709e+01
4.768032e+02	-3.211963e+01
4.795572e+02	-3.217113e+01
4.823271e+02	-3.221988e+01
4.851130e+02	-3.227131e+01
4.879150e+02	-3.231662e+01
4.907332e+02	-3.236685e+01
4.935676e+02	-3.242080e+01
4.964185e+02	-3.247298e+01
4.992858e+02	-3.251515e+01
5.021696e+02	-3.257160e+01
5.050701e+02	-3.262338e+01
5.079874e+02	-3.267758e+01
5.109215e+02	-3.271830e+01
5.138726e+02	-3.277286e+01
5.168407e+02	-3.281964e+01
5.198259e+02	-3.286823e+01
5.228284e+02	-3.292291e+01
5.258482e+02	-3.296933e+01
5.288855e+02	-3.301985e+01
5.319403e+02	-3.307315e+01
5.350128e+02	-3.312596e+01
5.381030e+02	-3.317865e+01
5.412111e+02	-3.322560e+01
5.443371e+02	-3.327654e+01
5.474812e+02	-3.332704e+01
5.506434e+02	-3.337830e+01
5.538239e+02	-3.342187e+01
5.570228e+02	-3.347525e+01
5.602401e+02	-3.351707e+01
5.634760e+02	-3.357762e+01
5.667306e+02	-3.362417e+01
5.700040e+02	-3.367600e+01
5.732964e+02	-3.371781e+01
5.766077e+02	-3.377830e+01
5.799382e+02	-3.383438e+01
5.832879e+02	-3.387928e+01
5.866569e+02	-3.392270e+01
5.900454e+02	-3.397768e+01
5.934535e+02	-3.403389e+01
5.968813e+02	-3.407981e+01
6.003288e+02	-3.413006e+01
6.037963e+02	-3.418577e+01
6.072838e+02	-3.423219e+01
6.107914e+02	-3.428462e+01
6.143194e+02	-3.432864e+01
6.178676e+02	-3.438126e+01
6.214364e+02	-3.443381e+01
6.250258e+02	-3.447813e+01
6.286359e+02	-3.452795e+01
6.322669e+02	-3.458430e+01
6.359189e+02	-3.463471e+01
6.395919e+02	-3.468042e+01
6.432862e+02	-3.473525e+01
6.470017e+02	-3.478540e+01
6.507388e+02	-3.483475e+01
6.544974e+02	-3.488339e+01
6.582778e+02	-3.493257e+01
6.620800e+02	-3.498115e+01
6.659041e+02	-3.503959e+01
6.697504e+02	-3.508866e+01
6.736188e+02	-3.513631e+01
6.775096e+02	-3.518712e+01
6.814229e+02	-3.523427e+01
6.853587e+02	-3.528587e+01
6.893173e+02	-3.533238e+01
6.932988e+02	-3.538877e+01
6.973033e+02	-3.544722e+01
7.013309e+02	-3.549481e+01
