Frequency(Hz)	Magnitude(dB)
1.000000e+01	-2.037114e+00
1.005776e+01	-2.055945e+00
1.011585e+01	-2.075029e+00
1.017428e+01	-2.093839e+00
1.023305e+01	-2.113218e+00
1.029215e+01	-2.132301e+00
1.035160e+01	-2.151825e+00
1.041139e+01	-2.171430e+00
1.047153e+01	-2.191440e+00
1.053201e+01	-2.211186e+00
1.059284e+01	-2.231187e+00
1.065403e+01	-2.251153e+00
1.071556e+01	-2.271793e+00
1.077746e+01	-2.292335e+00
1.083971e+01	-2.312621e+00
1.090232e+01	-2.333551e+00
1.096529e+01	-2.354271e+00
1.102862e+01	-2.375484e+00
1.109232e+01	-2.396495e+00
1.115639e+01	-2.417796e+00
1.122083e+01	-2.439173e+00
1.128564e+01	-2.460977e+00
1.135083e+01	-2.482487e+00
1.141639e+01	-2.504333e+00
1.148233e+01	-2.526328e+00
1.154865e+01	-2.548324e+00
1.161536e+01	-2.570792e+00
1.168245e+01	-2.593215e+00
1.174992e+01	-2.615608e+00
1.181779e+01	-2.638586e+00
1.188605e+01	-2.661194e+00
1.195470e+01	-2.684307e+00
1.202375e+01	-2.707350e+00
1.209320e+01	-2.730572e+00
1.216305e+01	-2.754055e+00
1.223330e+01	-2.777730e+00
1.230396e+01	-2.801319e+00
1.237503e+01	-2.825419e+00
1.244651e+01	-2.849168e+00
1.251840e+01	-2.873416e+00
1.259070e+01	-2.897657e+00
1.266343e+01	-2.922048e+00
1.273657e+01	-2.946749e+00
1.281014e+01	-2.971392e+00
1.288413e+01	-2.995897e+00
1.295855e+01	-3.021400e+00
1.303339e+01	-3.046265e+00
1.310867e+01	-3.071823e+00
1.318439e+01	-3.097126e+00
1.326054e+01	-3.122736e+00
1.333713e+01	-3.148235e+00
1.341417e+01	-3.174280e+00
1.349165e+01	-3.200236e+00
1.356958e+01	-3.226451e+00
1.364795e+01	-3.252864e+00
1.372678e+01	-3.279270e+00
1.380607e+01	-3.305778e+00
1.388581e+01	-3.332680e+00
1.396602e+01	-3.359594e+00
1.404668e+01	-3.386492e+00
1.412782e+01	-3.413393e+00
1.420942e+01	-3.440772e+00
1.429149e+01	-3.468329e+00
1.437404e+01	-3.496127e+00
1.445706e+01	-3.523569e+00
1.454057e+01	-3.551608e+00
1.462455e+01	-3.579368e+00
1.470902e+01	-3.607859e+00
1.479398e+01	-3.636046e+00
1.487943e+01	-3.664427e+00
1.496537e+01	-3.693026e+00
1.505181e+01	-3.721667e+00
1.513875e+01	-3.750738e+00
1.522619e+01	-3.779485e+00
1.531414e+01	-3.808537e+00
1.540259e+01	-3.837970e+00
1.549156e+01	-3.867317e+00
1.558103e+01	-3.897046e+00
1.567103e+01	-3.926798e+00
1.576155e+01	-3.956234e+00
1.585258e+01	-3.986588e+00
1.594415e+01	-4.016637e+00
1.603624e+01	-4.046840e+00
1.612886e+01	-4.077411e+00
1.622202e+01	-4.107624e+00
1.631572e+01	-4.138503e+00
1.640996e+01	-4.169401e+00
1.650474e+01	-4.200477e+00
1.660008e+01	-4.231178e+00
1.669596e+01	-4.262383e+00
1.679239e+01	-4.293805e+00
1.688938e+01	-4.325473e+00
1.698694e+01	-4.356953e+00
1.708505e+01	-4.388621e+00
1.718373e+01	-4.420756e+00
1.728299e+01	-4.452727e+00
1.738281e+01	-4.484689e+00
1.748322e+01	-4.516981e+00
1.758420e+01	-4.549406e+00
1.768576e+01	-4.582221e+00
1.778792e+01	-4.614605e+00
1.789066e+01	-4.647243e+00
1.799399e+01	-4.680357e+00
1.809793e+01	-4.713288e+00
1.820246e+01	-4.746580e+00
1.830760e+01	-4.779957e+00
1.841334e+01	-4.813502e+00
1.851969e+01	-4.846901e+00
1.862666e+01	-4.880651e+00
1.873425e+01	-4.914507e+00
1.884246e+01	-4.948362e+00
1.895129e+01	-4.982638e+00
1.906075e+01	-5.017020e+00
1.917085e+01	-5.051096e+00
1.928158e+01	-5.085788e+00
1.939295e+01	-5.120065e+00
1.950496e+01	-5.154894e+00
1.961762e+01	-5.189492e+00
1.973093e+01	-5.224445e+00
1.984490e+01	-5.259301e+00
1.995952e+01	-5.294656e+00
2.007480e+01	-5.330133e+00
2.019076e+01	-5.365257e+00
2.030738e+01	-5.401050e+00
2.042467e+01	-5.436520e+00
2.054264e+01	-5.472786e+00
2.066130e+01	-5.508606e+00
2.078064e+01	-5.544224e+00
2.090066e+01	-5.580273e+00
2.102139e+01	-5.616772e+00
2.114280e+01	-5.652840e+00
2.126492e+01	-5.689686e+00
2.138775e+01	-5.726157e+00
2.151128e+01	-5.762829e+00
2.163553e+01	-5.799679e+00
2.176050e+01	-5.836747e+00
2.188619e+01	-5.873412e+00
2.201260e+01	-5.911067e+00
2.213974e+01	-5.947924e+00
2.226762e+01	-5.985661e+00
2.239624e+01	-6.023005e+00
2.252560e+01	-6.060298e+00
2.265571e+01	-6.097719e+00
2.278656e+01	-6.136172e+00
2.291818e+01	-6.174019e+00
2.305055e+01	-6.211980e+00
2.318369e+01	-6.249868e+00
2.331760e+01	-6.288141e+00
2.345228e+01	-6.326619e+00
2.358774e+01	-6.364804e+00
2.372398e+01	-6.403352e+00
2.386101e+01	-6.442286e+00
2.399883e+01	-6.480925e+00
2.413745e+01	-6.519442e+00
2.427686e+01	-6.558430e+00
2.441709e+01	-6.597398e+00
2.455812e+01	-6.636855e+00
2.469997e+01	-6.676157e+00
2.484263e+01	-6.715345e+00
2.498612e+01	-6.754867e+00
2.513044e+01	-6.794000e+00
2.527559e+01	-6.833953e+00
2.542158e+01	-6.873707e+00
2.556842e+01	-6.913427e+00
2.571610e+01	-6.953142e+00
2.586463e+01	-6.993186e+00
2.601403e+01	-7.032665e+00
2.616428e+01	-7.073282e+00
2.631541e+01	-7.113711e+00
2.646740e+01	-7.153730e+00
2.662028e+01	-7.194326e+00
2.677404e+01	-7.234727e+00
2.692868e+01	-7.275807e+00
2.708422e+01	-7.316406e+00
2.724066e+01	-7.356796e+00
2.739800e+01	-7.398011e+00
2.755625e+01	-7.438904e+00
2.771541e+01	-7.480207e+00
2.787550e+01	-7.521098e+00
2.803650e+01	-7.562068e+00
2.819844e+01	-7.603470e+00
2.836131e+01	-7.644802e+00
2.852513e+01	-7.686309e+00
2.868989e+01	-7.727822e+00
2.885560e+01	-7.769451e+00
2.902227e+01	-7.811418e+00
2.918990e+01	-7.852847e+00
2.935850e+01	-7.894929e+00
2.952807e+01	-7.936699e+00
2.969863e+01	-7.979023e+00
2.987016e+01	-8.021058e+00
3.004269e+01	-8.062758e+00
3.021622e+01	-8.105026e+00
3.039075e+01	-8.147487e+00
3.056628e+01	-8.189741e+00
3.074283e+01	-8.232306e+00
3.092040e+01	-8.275450e+00
3.109900e+01	-8.317365e+00
3.127862e+01	-8.360418e+00
3.145929e+01	-8.403599e+00
3.164099e+01	-8.446404e+00
3.182375e+01	-8.488912e+00
3.200756e+01	-8.532066e+00
3.219244e+01	-8.575343e+00
3.237838e+01	-8.617733e+00
3.256540e+01	-8.661394e+00
3.275349e+01	-8.704335e+00
3.294268e+01	-8.747670e+00
3.313295e+01	-8.791538e+00
3.332433e+01	-8.834736e+00
3.351681e+01	-8.878318e+00
3.371040e+01	-8.921733e+00
3.390511e+01	-8.965562e+00
3.410094e+01	-9.009199e+00
3.429791e+01	-9.052835e+00
3.449601e+01	-9.096456e+00
3.469526e+01	-9.140920e+00
3.489566e+01	-9.184254e+00
3.509721e+01	-9.228645e+00
3.529993e+01	-9.272836e+00
3.550382e+01	-9.316505e+00
3.570889e+01	-9.361346e+00
3.591515e+01	-9.405277e+00
3.612259e+01	-9.450564e+00
3.633123e+01	-9.494068e+00
3.654108e+01	-9.538480e+00
3.675214e+01	-9.582817e+00
3.696442e+01	-9.627361e+00
3.717792e+01	-9.672013e+00
3.739266e+01	-9.717021e+00
3.760864e+01	-9.761654e+00
3.782587e+01	-9.806139e+00
3.804435e+01	-9.851301e+00
3.826409e+01	-9.895832e+00
3.848510e+01	-9.940992e+00
3.870739e+01	-9.986473e+00
3.893096e+01	-1.003111e+01
3.915583e+01	-1.007540e+01
3.938199e+01	-1.012062e+01
3.960946e+01	-1.016640e+01
3.983824e+01	-1.021164e+01
4.006834e+01	-1.025691e+01
4.029978e+01	-1.030209e+01
4.053255e+01	-1.034775e+01
4.076666e+01	-1.039296e+01
4.100213e+01	-1.043863e+01
4.123896e+01	-1.048411e+01
4.147715e+01	-1.052931e+01
4.171672e+01	-1.057511e+01
4.195767e+01	-1.062104e+01
4.220002e+01	-1.066658e+01
4.244377e+01	-1.071266e+01
4.268892e+01	-1.075828e+01
4.293549e+01	-1.080303e+01
4.318348e+01	-1.084920e+01
4.343291e+01	-1.089578e+01
4.368377e+01	-1.094138e+01
4.393609e+01	-1.098793e+01
4.418986e+01	-1.103340e+01
4.444510e+01	-1.107962e+01
4.470182e+01	-1.112580e+01
4.496001e+01	-1.117240e+01
4.521970e+01	-1.121862e+01
4.548089e+01	-1.126519e+01
4.574358e+01	-1.131103e+01
4.600779e+01	-1.135736e+01
4.627353e+01	-1.140374e+01
4.654081e+01	-1.145048e+01
4.680963e+01	-1.149685e+01
4.708000e+01	-1.154324e+01
4.735193e+01	-1.158974e+01
4.762543e+01	-1.163637e+01
4.790051e+01	-1.168270e+01
4.817719e+01	-1.172931e+01
4.845545e+01	-1.177622e+01
4.873533e+01	-1.182228e+01
4.901682e+01	-1.186964e+01
4.929994e+01	-1.191600e+01
4.958470e+01	-1.196295e+01
4.987110e+01	-1.201020e+01
5.015915e+01	-1.205630e+01
5.044887e+01	-1.210409e+01
5.074026e+01	-1.215023e+01
5.103333e+01	-1.219817e+01
5.132810e+01	-1.224511e+01
5.162457e+01	-1.229203e+01
5.192275e+01	-1.233926e+01
5.222265e+01	-1.238634e+01
5.252429e+01	-1.243381e+01
5.282767e+01	-1.248055e+01
5.313280e+01	-1.252802e+01
5.343969e+01	-1.257561e+01
5.374836e+01	-1.262198e+01
5.405880e+01	-1.266976e+01
5.437105e+01	-1.271715e+01
5.468509e+01	-1.276464e+01
5.500095e+01	-1.281159e+01
5.531863e+01	-1.285945e+01
5.563815e+01	-1.290683e+01
5.595951e+01	-1.295466e+01
5.628273e+01	-1.300191e+01
5.660782e+01	-1.304957e+01
5.693479e+01	-1.309640e+01
5.726364e+01	-1.314404e+01
5.759439e+01	-1.319229e+01
5.792705e+01	-1.323972e+01
5.826164e+01	-1.328681e+01
5.859815e+01	-1.333524e+01
5.893662e+01	-1.338270e+01
5.927703e+01	-1.343053e+01
5.961941e+01	-1.347853e+01
5.996377e+01	-1.352594e+01
6.031012e+01	-1.357345e+01
6.065847e+01	-1.362186e+01
6.100883e+01	-1.366959e+01
6.136121e+01	-1.371706e+01
6.171563e+01	-1.376572e+01
6.207210e+01	-1.381279e+01
6.243063e+01	-1.386111e+01
6.279122e+01	-1.390938e+01
6.315390e+01	-1.395730e+01
6.351868e+01	-1.400582e+01
6.388556e+01	-1.405318e+01
6.425456e+01	-1.410137e+01
6.462569e+01	-1.414950e+01
6.499897e+01	-1.419696e+01
6.537440e+01	-1.424711e+01
6.575200e+01	-1.429433e+01
6.613178e+01	-1.434175e+01
6.651375e+01	-1.439031e+01
6.689793e+01	-1.443818e+01
6.728433e+01	-1.448574e+01
6.767297e+01	-1.453465e+01
6.806384e+01	-1.458361e+01
6.845698e+01	-1.463182e+01
6.885238e+01	-1.467956e+01
6.925007e+01	-1.472789e+01
6.965005e+01	-1.477715e+01
7.005235e+01	-1.482506e+01
7.045697e+01	-1.487306e+01
7.086393e+01	-1.492150e+01
7.127323e+01	-1.497095e+01
7.168490e+01	-1.501827e+01
7.209895e+01	-1.506771e+01
7.251539e+01	-1.511586e+01
7.293424e+01	-1.516408e+01
7.335551e+01	-1.521335e+01
7.377920e+01	-1.526162e+01
7.420535e+01	-1.530914e+01
7.463396e+01	-1.535768e+01
7.506504e+01	-1.540646e+01
7.549861e+01	-1.545584e+01
7.593469e+01	-1.550348e+01
7.637328e+01	-1.555217e+01
7.681441e+01	-1.560044e+01
7.725809e+01	-1.565019e+01
7.770433e+01	-1.569907e+01
7.815315e+01	-1.574769e+01
7.860456e+01	-1.579615e+01
7.905857e+01	-1.584379e+01
7.951521e+01	-1.589307e+01
7.997449e+01	-1.594280e+01
8.043642e+01	-1.599095e+01
8.090102e+01	-1.603931e+01
8.136830e+01	-1.608791e+01
8.183828e+01	-1.613765e+01
8.231097e+01	-1.618588e+01
8.278640e+01	-1.623510e+01
8.326457e+01	-1.628319e+01
8.374550e+01	-1.633268e+01
8.422921e+01	-1.638134e+01
8.471572e+01	-1.643158e+01
8.520503e+01	-1.647951e+01
8.569717e+01	-1.652807e+01
8.619215e+01	-1.657665e+01
8.669000e+01	-1.662481e+01
8.719071e+01	-1.667475e+01
8.769432e+01	-1.672404e+01
8.820084e+01	-1.677341e+01
8.871029e+01	-1.682206e+01
8.922267e+01	-1.687152e+01
8.973802e+01	-1.692052e+01
9.025634e+01	-1.696922e+01
9.077766e+01	-1.701879e+01
9.130199e+01	-1.706755e+01
9.182935e+01	-1.711555e+01
9.235975e+01	-1.716594e+01
9.289321e+01	-1.721441e+01
9.342976e+01	-1.726261e+01
9.396941e+01	-1.731237e+01
9.451217e+01	-1.736172e+01
9.505807e+01	-1.741114e+01
9.560712e+01	-1.745896e+01
9.615934e+01	-1.750850e+01
9.671476e+01	-1.755791e+01
9.727338e+01	-1.760780e+01
9.783522e+01	-1.765650e+01
9.840032e+01	-1.770683e+01
9.896867e+01	-1.775541e+01
9.954031e+01	-1.780458e+01
1.001153e+02	-1.785399e+01
1.006935e+02	-1.790242e+01
1.012751e+02	-1.795123e+01
1.018601e+02	-1.800058e+01
1.024484e+02	-1.804871e+01
1.030402e+02	-1.809895e+01
1.036353e+02	-1.814849e+01
1.042339e+02	-1.819922e+01
1.048360e+02	-1.824686e+01
1.054415e+02	-1.829564e+01
1.060505e+02	-1.834438e+01
1.066631e+02	-1.839452e+01
1.072791e+02	-1.844496e+01
1.078988e+02	-1.849327e+01
1.085220e+02	-1.854389e+01
1.091488e+02	-1.859210e+01
1.097793e+02	-1.864077e+01
1.104133e+02	-1.869166e+01
1.110511e+02	-1.874108e+01
1.116925e+02	-1.878805e+01
1.123376e+02	-1.883869e+01
1.129865e+02	-1.888999e+01
1.136391e+02	-1.893648e+01
1.142955e+02	-1.898803e+01
1.149556e+02	-1.903552e+01
1.156196e+02	-1.908533e+01
1.162874e+02	-1.913543e+01
1.169591e+02	-1.918558e+01
1.176347e+02	-1.923544e+01
1.183141e+02	-1.928432e+01
1.189975e+02	-1.933434e+01
1.196848e+02	-1.938371e+01
1.203761e+02	-1.943370e+01
1.210714e+02	-1.948309e+01
1.217707e+02	-1.953077e+01
1.224740e+02	-1.957939e+01
1.231814e+02	-1.962958e+01
1.238929e+02	-1.968083e+01
1.246085e+02	-1.973090e+01
1.253283e+02	-1.977958e+01
1.260522e+02	-1.982878e+01
1.267802e+02	-1.987914e+01
1.275125e+02	-1.992840e+01
1.282490e+02	-1.997803e+01
1.289898e+02	-2.002643e+01
1.297348e+02	-2.007572e+01
1.304842e+02	-2.012553e+01
1.312378e+02	-2.017452e+01
1.319959e+02	-2.022430e+01
1.327583e+02	-2.027350e+01
1.335251e+02	-2.032342e+01
1.342963e+02	-2.037362e+01
1.350720e+02	-2.042253e+01
1.358522e+02	-2.047384e+01
1.366368e+02	-2.052303e+01
1.374260e+02	-2.057276e+01
1.382198e+02	-2.062224e+01
1.390182e+02	-2.067093e+01
1.398211e+02	-2.072098e+01
1.406287e+02	-2.076888e+01
1.414410e+02	-2.081938e+01
1.422579e+02	-2.086817e+01
1.430796e+02	-2.091922e+01
1.439060e+02	-2.096859e+01
1.447372e+02	-2.101696e+01
1.455732e+02	-2.106849e+01
1.464141e+02	-2.111775e+01
1.472597e+02	-2.116748e+01
1.481103e+02	-2.121791e+01
1.489658e+02	-2.126710e+01
1.498262e+02	-2.131686e+01
1.506916e+02	-2.136578e+01
1.515620e+02	-2.141678e+01
1.524374e+02	-2.146529e+01
1.533179e+02	-2.151595e+01
1.542034e+02	-2.156611e+01
1.550941e+02	-2.161305e+01
1.559899e+02	-2.166368e+01
1.568909e+02	-2.171515e+01
1.577971e+02	-2.176282e+01
1.587085e+02	-2.181307e+01
1.596252e+02	-2.186306e+01
1.605472e+02	-2.191247e+01
1.614745e+02	-2.196255e+01
1.624072e+02	-2.201271e+01
1.633453e+02	-2.206296e+01
1.642887e+02	-2.211130e+01
1.652377e+02	-2.216001e+01
1.661921e+02	-2.220937e+01
1.671520e+02	-2.226224e+01
1.681175e+02	-2.230916e+01
1.690885e+02	-2.235996e+01
1.700651e+02	-2.240754e+01
1.710474e+02	-2.245972e+01
1.720354e+02	-2.250894e+01
1.730291e+02	-2.255771e+01
1.740285e+02	-2.260784e+01
1.750337e+02	-2.265893e+01
1.760446e+02	-2.270689e+01
1.770615e+02	-2.275777e+01
1.780842e+02	-2.280818e+01
1.791128e+02	-2.285936e+01
1.801473e+02	-2.290835e+01
1.811878e+02	-2.295836e+01
1.822344e+02	-2.300894e+01
1.832870e+02	-2.305812e+01
1.843456e+02	-2.310962e+01
1.854104e+02	-2.315778e+01
1.864813e+02	-2.320721e+01
1.875584e+02	-2.325571e+01
1.886418e+02	-2.330570e+01
1.897313e+02	-2.335724e+01
1.908272e+02	-2.340529e+01
1.919294e+02	-2.345518e+01
1.930380e+02	-2.350543e+01
1.941530e+02	-2.355586e+01
1.952744e+02	-2.360612e+01
1.964023e+02	-2.365822e+01
1.975367e+02	-2.370665e+01
1.986777e+02	-2.375248e+01
1.998252e+02	-2.380603e+01
2.009794e+02	-2.385370e+01
2.021403e+02	-2.390429e+01
2.033078e+02	-2.395829e+01
2.044821e+02	-2.400559e+01
2.056632e+02	-2.405246e+01
2.068511e+02	-2.410384e+01
2.080459e+02	-2.415461e+01
2.092475e+02	-2.420148e+01
2.104561e+02	-2.425120e+01
2.116717e+02	-2.430454e+01
2.128943e+02	-2.435219e+01
2.141240e+02	-2.440393e+01
2.153608e+02	-2.445200e+01
2.166047e+02	-2.450198e+01
2.178558e+02	-2.455319e+01
2.191141e+02	-2.460506e+01
2.203797e+02	-2.465277e+01
2.216526e+02	-2.470323e+01
2.229329e+02	-2.475192e+01
2.242205e+02	-2.480198e+01
2.255156e+02	-2.485417e+01
2.268182e+02	-2.490148e+01
2.281283e+02	-2.495411e+01
2.294459e+02	-2.500092e+01
2.307712e+02	-2.505130e+01
2.321041e+02	-2.510034e+01
2.334447e+02	-2.515213e+01
2.347931e+02	-2.519973e+01
2.361493e+02	-2.525014e+01
2.375133e+02	-2.530508e+01
2.388851e+02	-2.535102e+01
2.402649e+02	-2.539839e+01
2.416527e+02	-2.544958e+01
2.430484e+02	-2.550209e+01
2.444523e+02	-2.555295e+01
2.458642e+02	-2.559967e+01
2.472843e+02	-2.565319e+01
2.487126e+02	-2.570175e+01
2.501492e+02	-2.574942e+01
2.515940e+02	-2.580068e+01
2.530472e+02	-2.584970e+01
2.545088e+02	-2.590096e+01
2.559789e+02	-2.594771e+01
2.574574e+02	-2.600086e+01
2.589444e+02	-2.604741e+01
2.604401e+02	-2.610089e+01
2.619444e+02	-2.615109e+01
2.634574e+02	-2.620214e+01
2.649791e+02	-2.625042e+01
2.665096e+02	-2.629895e+01
2.680489e+02	-2.634872e+01
2.695972e+02	-2.639858e+01
2.711544e+02	-2.644811e+01
2.727205e+02	-2.649846e+01
2.742958e+02	-2.655156e+01
2.758801e+02	-2.660016e+01
2.774736e+02	-2.665210e+01
2.790762e+02	-2.670085e+01
2.806882e+02	-2.674755e+01
2.823094e+02	-2.679828e+01
2.839400e+02	-2.685147e+01
2.855800e+02	-2.690051e+01
2.872295e+02	-2.695062e+01
2.888886e+02	-2.699848e+01
2.905572e+02	-2.705234e+01
2.922354e+02	-2.710134e+01
2.939234e+02	-2.714556e+01
2.956211e+02	-2.719470e+01
2.973286e+02	-2.725069e+01
2.990459e+02	-2.729788e+01
3.007732e+02	-2.734963e+01
3.025104e+02	-2.739587e+01
3.042577e+02	-2.744846e+01
3.060151e+02	-2.750011e+01
3.077826e+02	-2.754971e+01
3.095604e+02	-2.760090e+01
3.113484e+02	-2.765035e+01
3.131467e+02	-2.769635e+01
3.149554e+02	-2.775005e+01
3.167746e+02	-2.779934e+01
3.186043e+02	-2.784786e+01
3.204445e+02	-2.789905e+01
3.222954e+02	-2.795004e+01
3.241570e+02	-2.799753e+01
3.260293e+02	-2.805149e+01
3.279124e+02	-2.810202e+01
3.298064e+02	-2.815022e+01
3.317114e+02	-2.819776e+01
3.336273e+02	-2.825028e+01
3.355544e+02	-2.829934e+01
3.374925e+02	-2.835121e+01
3.394418e+02	-2.840155e+01
3.414024e+02	-2.844790e+01
3.433744e+02	-2.850258e+01
3.453577e+02	-2.855294e+01
3.473525e+02	-2.859917e+01
3.493588e+02	-2.865108e+01
3.513766e+02	-2.869787e+01
3.534062e+02	-2.875482e+01
3.554474e+02	-2.880163e+01
3.575005e+02	-2.885098e+01
3.595654e+02	-2.889826e+01
3.616422e+02	-2.895013e+01
3.637311e+02	-2.900412e+01
3.658320e+02	-2.905513e+01
3.679450e+02	-2.909935e+01
3.700702e+02	-2.914877e+01
3.722077e+02	-2.919572e+01
3.743576e+02	-2.925671e+01
3.765199e+02	-2.929828e+01
3.786946e+02	-2.934912e+01
3.808820e+02	-2.940103e+01
3.830819e+02	-2.945202e+01
3.852946e+02	-2.950085e+01
3.875200e+02	-2.955489e+01
3.897583e+02	-2.960294e+01
3.920096e+02	-2.965138e+01
3.942738e+02	-2.970101e+01
3.965511e+02	-2.975591e+01
3.988416e+02	-2.979740e+01
4.011452e+02	-2.984981e+01
4.034622e+02	-2.990523e+01
4.057926e+02	-2.995171e+01
4.081365e+02	-3.000232e+01
4.104938e+02	-3.005439e+01
4.128648e+02	-3.010385e+01
4.152495e+02	-3.015080e+01
4.176480e+02	-3.020423e+01
4.200603e+02	-3.025536e+01
4.224866e+02	-3.030262e+01
4.249268e+02	-3.035344e+01
4.273812e+02	-3.040695e+01
4.298497e+02	-3.045670e+01
4.323325e+02	-3.050066e+01
4.348297e+02	-3.055070e+01
4.373412e+02	-3.060623e+01
4.398673e+02	-3.065355e+01
4.424079e+02	-3.070554e+01
4.449633e+02	-3.075264e+01
4.475334e+02	-3.080774e+01
4.501183e+02	-3.085624e+01
4.527182e+02	-3.090499e+01
4.553330e+02	-3.095660e+01
4.579630e+02	-3.100515e+01
4.606082e+02	-3.105249e+01
4.632687e+02	-3.110702e+01
4.659445e+02	-3.115192e+01
4.686358e+02	-3.120204e+01
4.713426e+02	-3.125335e+01
4.740650e+02	-3.129823e+01
4.768032e+02	-3.135460e+01
4.795572e+02	-3.140652e+01
4.823271e+02	-3.146098e+01
4.851130e+02	-3.150524e+01
4.879150e+02	-3.155315e+01
4.907332e+02	-3.160855e+01
4.935676e+02	-3.165782e+01
4.964185e+02	-3.171316e+01
4.992858e+02	-3.176380e+01
5.021696e+02	-3.180425e+01
5.050701e+02	-3.186226e+01
5.079874e+02	-3.190470e+01
5.109215e+02	-3.195752e+01
5.138726e+02	-3.201171e+01
5.168407e+02	-3.206057e+01
5.198259e+02	-3.211123e+01
5.228284e+02	-3.215741e+01
5.258482e+02	-3.221361e+01
5.288855e+02	-3.225706e+01
5.319403e+02	-3.230862e+01
5.350128e+02	-3.236093e+01
5.381030e+02	-3.240950e+01
5.412111e+02	-3.245961e+01
5.443371e+02	-3.251025e+01
5.474812e+02	-3.255424e+01
5.506434e+02	-3.261356e+01
5.538239e+02	-3.266572e+01
5.570228e+02	-3.270513e+01
5.602401e+02	-3.275777e+01
5.634760e+02	-3.281313e+01
5.667306e+02	-3.286489e+01
5.700040e+02	-3.291016e+01
5.732964e+02	-3.296551e+01
5.766077e+02	-3.301547e+01
5.799382e+02	-3.306215e+01
5.832879e+02	-3.311413e+01
5.866569e+02	-3.316565e+01
5.900454e+02	-3.321168e+01
5.934535e+02	-3.326139e+01
5.968813e+02	-3.331263e+01
6.003288e+02	-3.336352e+01
6.037963e+02	-3.342067e+01
6.072838e+02	-3.346738e+01
6.107914e+02	-3.351618e+01
6.143194e+02	-3.356866e+01
6.178676e+02	-3.361942e+01
6.214364e+02	-3.367001e+01
6.250258e+02	-3.371288e+01
6.286359e+02	-3.376381e+01
6.322669e+02	-3.382641e+01
6.359189e+02	-3.386483e+01
6.395919e+02	-3.392658e+01
6.432862e+02	-3.397480e+01
6.470017e+02	-3.402205e+01
6.507388e+02	-3.407317e+01
6.544974e+02	-3.412020e+01
6.582778e+02	-3.417278e+01
6.620800e+02	-3.422106e+01
6.659041e+02	-3.426972e+01
6.697504e+02	-3.432264e+01
6.736188e+02	-3.437098e+01
6.775096e+02	-3.441857e+01
6.814229e+02	-3.446350e+01
6.853587e+02	-3.451856e+01
6.893173e+02	-3.457679e+01
6.932988e+02	-3.462414e+01
6.973033e+02	-3.467803e+01
7.013309e+02	-3.473270e+01
