Frequency(Hz)	Magnitude(dB)
1.000000e+01	-2.314892e+00
1.005776e+01	-2.335499e+00
1.011585e+01	-2.356351e+00
1.017428e+01	-2.377461e+00
1.023305e+01	-2.398527e+00
1.029215e+01	-2.420013e+00
1.035160e+01	-2.441074e+00
1.041139e+01	-2.462972e+00
1.047153e+01	-2.484598e+00
1.053201e+01	-2.506596e+00
1.059284e+01	-2.528527e+00
1.065403e+01	-2.550459e+00
1.071556e+01	-2.572863e+00
1.077746e+01	-2.595323e+00
1.083971e+01	-2.618116e+00
1.090232e+01	-2.640781e+00
1.096529e+01	-2.663800e+00
1.102862e+01	-2.686434e+00
1.109232e+01	-2.709590e+00
1.115639e+01	-2.733032e+00
1.122083e+01	-2.756586e+00
1.128564e+01	-2.780060e+00
1.135083e+01	-2.803704e+00
1.141639e+01	-2.827687e+00
1.148233e+01	-2.851520e+00
1.154865e+01	-2.875825e+00
1.161536e+01	-2.900119e+00
1.168245e+01	-2.924485e+00
1.174992e+01	-2.949221e+00
1.181779e+01	-2.973783e+00
1.188605e+01	-2.998921e+00
1.195470e+01	-3.023811e+00
1.202375e+01	-3.048962e+00
1.209320e+01	-3.074271e+00
1.216305e+01	-3.099480e+00
1.223330e+01	-3.125152e+00
1.230396e+01	-3.151107e+00
1.237503e+01	-3.176814e+00
1.244651e+01	-3.202677e+00
1.251840e+01	-3.229037e+00
1.259070e+01	-3.255136e+00
1.266343e+01	-3.281943e+00
1.273657e+01	-3.308343e+00
1.281014e+01	-3.335248e+00
1.288413e+01	-3.362124e+00
1.295855e+01	-3.388998e+00
1.303339e+01	-3.416415e+00
1.310867e+01	-3.443509e+00
1.318439e+01	-3.471204e+00
1.326054e+01	-3.498684e+00
1.333713e+01	-3.526247e+00
1.341417e+01	-3.554328e+00
1.349165e+01	-3.582203e+00
1.356958e+01	-3.610277e+00
1.364795e+01	-3.638694e+00
1.372678e+01	-3.667083e+00
1.380607e+01	-3.695885e+00
1.388581e+01	-3.724547e+00
1.396602e+01	-3.753527e+00
1.404668e+01	-3.782434e+00
1.412782e+01	-3.811390e+00
1.420942e+01	-3.840857e+00
1.429149e+01	-3.870325e+00
1.437404e+01	-3.899904e+00
1.445706e+01	-3.929578e+00
1.454057e+01	-3.959248e+00
1.462455e+01	-3.989448e+00
1.470902e+01	-4.019660e+00
1.479398e+01	-4.049708e+00
1.487943e+01	-4.080536e+00
1.496537e+01	-4.110846e+00
1.505181e+01	-4.141610e+00
1.513875e+01	-4.172310e+00
1.522619e+01	-4.203431e+00
1.531414e+01	-4.234000e+00
1.540259e+01	-4.265554e+00
1.549156e+01	-4.297187e+00
1.558103e+01	-4.328500e+00
1.567103e+01	-4.359997e+00
1.576155e+01	-4.391771e+00
1.585258e+01	-4.423852e+00
1.594415e+01	-4.455496e+00
1.603624e+01	-4.487816e+00
1.612886e+01	-4.520075e+00
1.622202e+01	-4.552559e+00
1.631572e+01	-4.585373e+00
1.640996e+01	-4.617521e+00
1.650474e+01	-4.650382e+00
1.660008e+01	-4.683650e+00
1.669596e+01	-4.716483e+00
1.679239e+01	-4.749790e+00
1.688938e+01	-4.783283e+00
1.698694e+01	-4.816760e+00
1.708505e+01	-4.850131e+00
1.718373e+01	-4.883840e+00
1.728299e+01	-4.917728e+00
1.738281e+01	-4.951841e+00
1.748322e+01	-4.985832e+00
1.758420e+01	-5.020116e+00
1.768576e+01	-5.054469e+00
1.778792e+01	-5.088606e+00
1.789066e+01	-5.123504e+00
1.799399e+01	-5.157883e+00
1.809793e+01	-5.193327e+00
1.820246e+01	-5.227960e+00
1.830760e+01	-5.262952e+00
1.841334e+01	-5.298159e+00
1.851969e+01	-5.333384e+00
1.862666e+01	-5.368910e+00
1.873425e+01	-5.404280e+00
1.884246e+01	-5.440080e+00
1.895129e+01	-5.476021e+00
1.906075e+01	-5.511915e+00
1.917085e+01	-5.547983e+00
1.928158e+01	-5.583946e+00
1.939295e+01	-5.620267e+00
1.950496e+01	-5.656523e+00
1.961762e+01	-5.693166e+00
1.973093e+01	-5.729774e+00
1.984490e+01	-5.766270e+00
1.995952e+01	-5.803183e+00
2.007480e+01	-5.840074e+00
2.019076e+01	-5.877260e+00
2.030738e+01	-5.914478e+00
2.042467e+01	-5.951666e+00
2.054264e+01	-5.989127e+00
2.066130e+01	-6.026519e+00
2.078064e+01	-6.064379e+00
2.090066e+01	-6.101826e+00
2.102139e+01	-6.139706e+00
2.114280e+01	-6.177663e+00
2.126492e+01	-6.215580e+00
2.138775e+01	-6.253666e+00
2.151128e+01	-6.291852e+00
2.163553e+01	-6.330429e+00
2.176050e+01	-6.368579e+00
2.188619e+01	-6.407401e+00
2.201260e+01	-6.445932e+00
2.213974e+01	-6.484452e+00
2.226762e+01	-6.523616e+00
2.239624e+01	-6.562080e+00
2.252560e+01	-6.601248e+00
2.265571e+01	-6.640592e+00
2.278656e+01	-6.679699e+00
2.291818e+01	-6.719025e+00
2.305055e+01	-6.758921e+00
2.318369e+01	-6.798031e+00
2.331760e+01	-6.837520e+00
2.345228e+01	-6.877253e+00
2.358774e+01	-6.917421e+00
2.372398e+01	-6.957274e+00
2.386101e+01	-6.997056e+00
2.399883e+01	-7.037255e+00
2.413745e+01	-7.077252e+00
2.427686e+01	-7.117493e+00
2.441709e+01	-7.158010e+00
2.455812e+01	-7.198589e+00
2.469997e+01	-7.238553e+00
2.484263e+01	-7.279594e+00
2.498612e+01	-7.320165e+00
2.513044e+01	-7.361118e+00
2.527559e+01	-7.402220e+00
2.542158e+01	-7.443039e+00
2.556842e+01	-7.483609e+00
2.571610e+01	-7.525029e+00
2.586463e+01	-7.566100e+00
2.601403e+01	-7.607684e+00
2.616428e+01	-7.649128e+00
2.631541e+01	-7.690771e+00
2.646740e+01	-7.731821e+00
2.662028e+01	-7.774164e+00
2.677404e+01	-7.815713e+00
2.692868e+01	-7.857201e+00
2.708422e+01	-7.899160e+00
2.724066e+01	-7.941203e+00
2.739800e+01	-7.983035e+00
2.755625e+01	-8.025140e+00
2.771541e+01	-8.066997e+00
2.787550e+01	-8.109460e+00
2.803650e+01	-8.151968e+00
2.819844e+01	-8.194318e+00
2.836131e+01	-8.237321e+00
2.852513e+01	-8.279641e+00
2.868989e+01	-8.322013e+00
2.885560e+01	-8.364330e+00
2.902227e+01	-8.407520e+00
2.918990e+01	-8.449594e+00
2.935850e+01	-8.493327e+00
2.952807e+01	-8.536360e+00
2.969863e+01	-8.579161e+00
2.987016e+01	-8.622177e+00
3.004269e+01	-8.665686e+00
3.021622e+01	-8.709068e+00
3.039075e+01	-8.751946e+00
3.056628e+01	-8.795695e+00
3.074283e+01	-8.838883e+00
3.092040e+01	-8.882490e+00
3.109900e+01	-8.925763e+00
3.127862e+01	-8.969489e+00
3.145929e+01	-9.013615e+00
3.164099e+01	-9.057156e+00
3.182375e+01	-9.100615e+00
3.200756e+01	-9.145032e+00
3.219244e+01	-9.188571e+00
3.237838e+01	-9.232670e+00
3.256540e+01	-9.276742e+00
3.275349e+01	-9.321059e+00
3.294268e+01	-9.365136e+00
3.313295e+01	-9.409631e+00
3.332433e+01	-9.453965e+00
3.351681e+01	-9.498046e+00
3.371040e+01	-9.543069e+00
3.390511e+01	-9.587590e+00
3.410094e+01	-9.631816e+00
3.429791e+01	-9.676446e+00
3.449601e+01	-9.721243e+00
3.469526e+01	-9.765685e+00
3.489566e+01	-9.810957e+00
3.509721e+01	-9.855297e+00
3.529993e+01	-9.900320e+00
3.550382e+01	-9.944926e+00
3.570889e+01	-9.990004e+00
3.591515e+01	-1.003526e+01
3.612259e+01	-1.008040e+01
3.633123e+01	-1.012528e+01
3.654108e+01	-1.017055e+01
3.675214e+01	-1.021551e+01
3.696442e+01	-1.026122e+01
3.717792e+01	-1.030640e+01
3.739266e+01	-1.035277e+01
3.760864e+01	-1.039719e+01
3.782587e+01	-1.044307e+01
3.804435e+01	-1.048872e+01
3.826409e+01	-1.053409e+01
3.848510e+01	-1.057987e+01
3.870739e+01	-1.062552e+01
3.893096e+01	-1.067091e+01
3.915583e+01	-1.071674e+01
3.938199e+01	-1.076264e+01
3.960946e+01	-1.080870e+01
3.983824e+01	-1.085396e+01
4.006834e+01	-1.089982e+01
4.029978e+01	-1.094630e+01
4.053255e+01	-1.099294e+01
4.076666e+01	-1.103862e+01
4.100213e+01	-1.108445e+01
4.123896e+01	-1.113033e+01
4.147715e+01	-1.117666e+01
4.171672e+01	-1.122314e+01
4.195767e+01	-1.126958e+01
4.220002e+01	-1.131517e+01
4.244377e+01	-1.136268e+01
4.268892e+01	-1.140852e+01
4.293549e+01	-1.145461e+01
4.318348e+01	-1.150144e+01
4.343291e+01	-1.154820e+01
4.368377e+01	-1.159402e+01
4.393609e+01	-1.164095e+01
4.418986e+01	-1.168741e+01
4.444510e+01	-1.173399e+01
4.470182e+01	-1.178076e+01
4.496001e+01	-1.182771e+01
4.521970e+01	-1.187371e+01
4.548089e+01	-1.192110e+01
4.574358e+01	-1.196779e+01
4.600779e+01	-1.201468e+01
4.627353e+01	-1.206130e+01
4.654081e+01	-1.210887e+01
4.680963e+01	-1.215540e+01
4.708000e+01	-1.220252e+01
4.735193e+01	-1.224903e+01
4.762543e+01	-1.229621e+01
4.790051e+01	-1.234361e+01
4.817719e+01	-1.239149e+01
4.845545e+01	-1.243818e+01
4.873533e+01	-1.248499e+01
4.901682e+01	-1.253284e+01
4.929994e+01	-1.257983e+01
4.958470e+01	-1.262696e+01
4.987110e+01	-1.267339e+01
5.015915e+01	-1.272210e+01
5.044887e+01	-1.276917e+01
5.074026e+01	-1.281640e+01
5.103333e+01	-1.286372e+01
5.132810e+01	-1.291152e+01
5.162457e+01	-1.295905e+01
5.192275e+01	-1.300577e+01
5.222265e+01	-1.305407e+01
5.252429e+01	-1.310109e+01
5.282767e+01	-1.314883e+01
5.313280e+01	-1.319649e+01
5.343969e+01	-1.324389e+01
5.374836e+01	-1.329150e+01
5.405880e+01	-1.333903e+01
5.437105e+01	-1.338727e+01
5.468509e+01	-1.343556e+01
5.500095e+01	-1.348316e+01
5.531863e+01	-1.353057e+01
5.563815e+01	-1.357838e+01
5.595951e+01	-1.362588e+01
5.628273e+01	-1.367422e+01
5.660782e+01	-1.372211e+01
5.693479e+01	-1.376963e+01
5.726364e+01	-1.381810e+01
5.759439e+01	-1.386665e+01
5.792705e+01	-1.391362e+01
5.826164e+01	-1.396236e+01
5.859815e+01	-1.400926e+01
5.893662e+01	-1.405814e+01
5.927703e+01	-1.410566e+01
5.961941e+01	-1.415356e+01
5.996377e+01	-1.420267e+01
6.031012e+01	-1.425061e+01
6.065847e+01	-1.429840e+01
6.100883e+01	-1.434631e+01
6.136121e+01	-1.439515e+01
6.171563e+01	-1.444336e+01
6.207210e+01	-1.449174e+01
6.243063e+01	-1.453996e+01
6.279122e+01	-1.458816e+01
6.315390e+01	-1.463613e+01
6.351868e+01	-1.468415e+01
6.388556e+01	-1.473305e+01
6.425456e+01	-1.478224e+01
6.462569e+01	-1.482882e+01
6.499897e+01	-1.487678e+01
6.537440e+01	-1.492679e+01
6.575200e+01	-1.497458e+01
6.613178e+01	-1.502329e+01
6.651375e+01	-1.507267e+01
6.689793e+01	-1.512035e+01
6.728433e+01	-1.516818e+01
6.767297e+01	-1.521748e+01
6.806384e+01	-1.526648e+01
6.845698e+01	-1.531516e+01
6.885238e+01	-1.536340e+01
6.925007e+01	-1.541098e+01
6.965005e+01	-1.546009e+01
7.005235e+01	-1.550886e+01
7.045697e+01	-1.555661e+01
7.086393e+01	-1.560546e+01
7.127323e+01	-1.565499e+01
7.168490e+01	-1.570312e+01
7.209895e+01	-1.575172e+01
7.251539e+01	-1.580135e+01
7.293424e+01	-1.584897e+01
7.335551e+01	-1.589870e+01
7.377920e+01	-1.594605e+01
7.420535e+01	-1.599558e+01
7.463396e+01	-1.604443e+01
7.506504e+01	-1.609257e+01
7.549861e+01	-1.614237e+01
7.593469e+01	-1.619045e+01
7.637328e+01	-1.624029e+01
7.681441e+01	-1.628869e+01
7.725809e+01	-1.633709e+01
7.770433e+01	-1.638561e+01
7.815315e+01	-1.643544e+01
7.860456e+01	-1.648342e+01
7.905857e+01	-1.653234e+01
7.951521e+01	-1.658023e+01
7.997449e+01	-1.663048e+01
8.043642e+01	-1.668008e+01
8.090102e+01	-1.672839e+01
8.136830e+01	-1.677716e+01
8.183828e+01	-1.682728e+01
8.231097e+01	-1.687594e+01
8.278640e+01	-1.692556e+01
8.326457e+01	-1.697375e+01
8.374550e+01	-1.702278e+01
8.422921e+01	-1.707333e+01
8.471572e+01	-1.712038e+01
8.520503e+01	-1.716969e+01
8.569717e+01	-1.721997e+01
8.619215e+01	-1.726715e+01
8.669000e+01	-1.731779e+01
8.719071e+01	-1.736623e+01
8.769432e+01	-1.741553e+01
8.820084e+01	-1.746479e+01
8.871029e+01	-1.751293e+01
8.922267e+01	-1.756348e+01
8.973802e+01	-1.761195e+01
9.025634e+01	-1.766029e+01
9.077766e+01	-1.771083e+01
9.130199e+01	-1.775978e+01
9.182935e+01	-1.780923e+01
9.235975e+01	-1.785708e+01
9.289321e+01	-1.790701e+01
9.342976e+01	-1.795732e+01
9.396941e+01	-1.800600e+01
9.451217e+01	-1.805499e+01
9.505807e+01	-1.810352e+01
9.560712e+01	-1.815329e+01
9.615934e+01	-1.820396e+01
9.671476e+01	-1.825150e+01
9.727338e+01	-1.830187e+01
9.783522e+01	-1.835039e+01
9.840032e+01	-1.840009e+01
9.896867e+01	-1.845082e+01
9.954031e+01	-1.849791e+01
1.001153e+02	-1.854805e+01
1.006935e+02	-1.859629e+01
1.012751e+02	-1.864702e+01
1.018601e+02	-1.869583e+01
1.024484e+02	-1.874501e+01
1.030402e+02	-1.879443e+01
1.036353e+02	-1.884465e+01
1.042339e+02	-1.889235e+01
1.048360e+02	-1.894290e+01
1.054415e+02	-1.899225e+01
1.060505e+02	-1.904073e+01
1.066631e+02	-1.909151e+01
1.072791e+02	-1.914029e+01
1.078988e+02	-1.918796e+01
1.085220e+02	-1.923958e+01
1.091488e+02	-1.928782e+01
1.097793e+02	-1.933795e+01
1.104133e+02	-1.938891e+01
1.110511e+02	-1.943671e+01
1.116925e+02	-1.948617e+01
1.123376e+02	-1.953524e+01
1.129865e+02	-1.958430e+01
1.136391e+02	-1.963474e+01
1.142955e+02	-1.968251e+01
1.149556e+02	-1.973316e+01
1.156196e+02	-1.978336e+01
1.162874e+02	-1.983160e+01
1.169591e+02	-1.988138e+01
1.176347e+02	-1.993188e+01
1.183141e+02	-1.998068e+01
1.189975e+02	-2.003280e+01
1.196848e+02	-2.007993e+01
1.203761e+02	-2.013013e+01
1.210714e+02	-2.017962e+01
1.217707e+02	-2.022774e+01
1.224740e+02	-2.027760e+01
1.231814e+02	-2.032830e+01
1.238929e+02	-2.037718e+01
1.246085e+02	-2.042619e+01
1.253283e+02	-2.047607e+01
1.260522e+02	-2.052745e+01
1.267802e+02	-2.057544e+01
1.275125e+02	-2.062576e+01
1.282490e+02	-2.067526e+01
1.289898e+02	-2.072500e+01
1.297348e+02	-2.077505e+01
1.304842e+02	-2.082328e+01
1.312378e+02	-2.087476e+01
1.319959e+02	-2.092483e+01
1.327583e+02	-2.097493e+01
1.335251e+02	-2.102320e+01
1.342963e+02	-2.107206e+01
1.350720e+02	-2.112178e+01
1.358522e+02	-2.117020e+01
1.366368e+02	-2.122150e+01
1.374260e+02	-2.127105e+01
1.382198e+02	-2.132037e+01
1.390182e+02	-2.136961e+01
1.398211e+02	-2.142025e+01
1.406287e+02	-2.147057e+01
1.414410e+02	-2.151838e+01
1.422579e+02	-2.156916e+01
1.430796e+02	-2.161844e+01
1.439060e+02	-2.166802e+01
1.447372e+02	-2.171949e+01
1.455732e+02	-2.176740e+01
1.464141e+02	-2.181860e+01
1.472597e+02	-2.186721e+01
1.481103e+02	-2.191630e+01
1.489658e+02	-2.196849e+01
1.498262e+02	-2.201547e+01
1.506916e+02	-2.206606e+01
1.515620e+02	-2.211786e+01
1.524374e+02	-2.216466e+01
1.533179e+02	-2.221592e+01
1.542034e+02	-2.226448e+01
1.550941e+02	-2.231649e+01
1.559899e+02	-2.236519e+01
1.568909e+02	-2.241565e+01
1.577971e+02	-2.246529e+01
1.587085e+02	-2.251498e+01
1.596252e+02	-2.256423e+01
1.605472e+02	-2.261268e+01
1.614745e+02	-2.266400e+01
1.624072e+02	-2.271133e+01
1.633453e+02	-2.276437e+01
1.642887e+02	-2.281472e+01
1.652377e+02	-2.286142e+01
1.661921e+02	-2.291246e+01
1.671520e+02	-2.296203e+01
1.681175e+02	-2.301188e+01
1.690885e+02	-2.306317e+01
1.700651e+02	-2.311007e+01
1.710474e+02	-2.316068e+01
1.720354e+02	-2.321010e+01
1.730291e+02	-2.325998e+01
1.740285e+02	-2.331153e+01
1.750337e+02	-2.336199e+01
1.760446e+02	-2.341026e+01
1.770615e+02	-2.346033e+01
1.780842e+02	-2.350960e+01
1.791128e+02	-2.355804e+01
1.801473e+02	-2.360789e+01
1.811878e+02	-2.365884e+01
1.822344e+02	-2.370835e+01
1.832870e+02	-2.376021e+01
1.843456e+02	-2.380850e+01
1.854104e+02	-2.386065e+01
1.864813e+02	-2.390961e+01
1.875584e+02	-2.395707e+01
1.886418e+02	-2.400728e+01
1.897313e+02	-2.405938e+01
1.908272e+02	-2.410842e+01
1.919294e+02	-2.415627e+01
1.930380e+02	-2.420894e+01
1.941530e+02	-2.425583e+01
1.952744e+02	-2.430988e+01
1.964023e+02	-2.435707e+01
1.975367e+02	-2.440538e+01
1.986777e+02	-2.445379e+01
1.998252e+02	-2.450640e+01
2.009794e+02	-2.455456e+01
2.021403e+02	-2.460785e+01
2.033078e+02	-2.465784e+01
2.044821e+02	-2.470584e+01
2.056632e+02	-2.475598e+01
2.068511e+02	-2.480443e+01
2.080459e+02	-2.485677e+01
2.092475e+02	-2.490662e+01
2.104561e+02	-2.495529e+01
2.116717e+02	-2.500739e+01
2.128943e+02	-2.505488e+01
2.141240e+02	-2.510572e+01
2.153608e+02	-2.515664e+01
2.166047e+02	-2.520654e+01
2.178558e+02	-2.525660e+01
2.191141e+02	-2.530859e+01
2.203797e+02	-2.535766e+01
2.216526e+02	-2.540304e+01
2.229329e+02	-2.545985e+01
2.242205e+02	-2.550346e+01
2.255156e+02	-2.555503e+01
2.268182e+02	-2.560544e+01
2.281283e+02	-2.565155e+01
2.294459e+02	-2.570607e+01
2.307712e+02	-2.575601e+01
2.321041e+02	-2.580339e+01
2.334447e+02	-2.585217e+01
2.347931e+02	-2.590390e+01
2.361493e+02	-2.595816e+01
2.375133e+02	-2.600472e+01
2.388851e+02	-2.605105e+01
2.402649e+02	-2.610711e+01
2.416527e+02	-2.615524e+01
2.430484e+02	-2.620667e+01
2.444523e+02	-2.625360e+01
2.458642e+02	-2.630465e+01
2.472843e+02	-2.635535e+01
2.487126e+02	-2.640256e+01
2.501492e+02	-2.645251e+01
2.515940e+02	-2.650119e+01
2.530472e+02	-2.655530e+01
2.545088e+02	-2.660516e+01
2.559789e+02	-2.665330e+01
2.574574e+02	-2.670411e+01
2.589444e+02	-2.675335e+01
2.604401e+02	-2.680564e+01
2.619444e+02	-2.685178e+01
2.634574e+02	-2.690480e+01
2.649791e+02	-2.695343e+01
2.665096e+02	-2.700280e+01
2.680489e+02	-2.705283e+01
2.695972e+02	-2.710307e+01
2.711544e+02	-2.715330e+01
2.727205e+02	-2.719838e+01
2.742958e+02	-2.725646e+01
2.758801e+02	-2.730111e+01
2.774736e+02	-2.735207e+01
2.790762e+02	-2.740179e+01
2.806882e+02	-2.745438e+01
2.823094e+02	-2.750277e+01
2.839400e+02	-2.755037e+01
2.855800e+02	-2.760012e+01
2.872295e+02	-2.765853e+01
2.888886e+02	-2.770354e+01
2.905572e+02	-2.775315e+01
2.922354e+02	-2.780442e+01
2.939234e+02	-2.785537e+01
2.956211e+02	-2.789954e+01
2.973286e+02	-2.795232e+01
2.990459e+02	-2.800603e+01
3.007732e+02	-2.805224e+01
3.025104e+02	-2.810262e+01
3.042577e+02	-2.815479e+01
3.060151e+02	-2.820414e+01
3.077826e+02	-2.824954e+01
3.095604e+02	-2.830862e+01
3.113484e+02	-2.835249e+01
3.131467e+02	-2.840432e+01
3.149554e+02	-2.845404e+01
3.167746e+02	-2.850571e+01
3.186043e+02	-2.855519e+01
3.204445e+02	-2.860477e+01
3.222954e+02	-2.865294e+01
3.241570e+02	-2.870433e+01
3.260293e+02	-2.874893e+01
3.279124e+02	-2.880462e+01
3.298064e+02	-2.885525e+01
3.317114e+02	-2.890328e+01
3.336273e+02	-2.895485e+01
3.355544e+02	-2.900327e+01
3.374925e+02	-2.905128e+01
3.394418e+02	-2.910759e+01
3.414024e+02	-2.915377e+01
3.433744e+02	-2.920775e+01
3.453577e+02	-2.925355e+01
3.473525e+02	-2.930557e+01
3.493588e+02	-2.935187e+01
3.513766e+02	-2.940498e+01
3.534062e+02	-2.945328e+01
3.554474e+02	-2.949807e+01
3.575005e+02	-2.954822e+01
3.595654e+02	-2.960439e+01
3.616422e+02	-2.965753e+01
3.637311e+02	-2.970513e+01
3.658320e+02	-2.975014e+01
3.679450e+02	-2.980523e+01
3.700702e+02	-2.985626e+01
3.722077e+02	-2.989797e+01
3.743576e+02	-2.995384e+01
3.765199e+02	-3.000134e+01
3.786946e+02	-3.005420e+01
3.808820e+02	-3.011079e+01
3.830819e+02	-3.015545e+01
3.852946e+02	-3.021109e+01
3.875200e+02	-3.025665e+01
3.897583e+02	-3.031195e+01
3.920096e+02	-3.035531e+01
3.942738e+02	-3.040310e+01
3.965511e+02	-3.045721e+01
3.988416e+02	-3.050666e+01
4.011452e+02	-3.055472e+01
4.034622e+02	-3.060215e+01
4.057926e+02	-3.065742e+01
4.081365e+02	-3.070295e+01
4.104938e+02	-3.075380e+01
4.128648e+02	-3.080858e+01
4.152495e+02	-3.085695e+01
4.176480e+02	-3.090166e+01
4.200603e+02	-3.095619e+01
4.224866e+02	-3.100850e+01
4.249268e+02	-3.105426e+01
4.273812e+02	-3.110715e+01
4.298497e+02	-3.116279e+01
4.323325e+02	-3.121120e+01
4.348297e+02	-3.125789e+01
4.373412e+02	-3.130841e+01
4.398673e+02	-3.135758e+01
4.424079e+02	-3.139623e+01
4.449633e+02	-3.146331e+01
4.475334e+02	-3.150802e+01
4.501183e+02	-3.156187e+01
4.527182e+02	-3.161146e+01
4.553330e+02	-3.166004e+01
4.579630e+02	-3.170555e+01
4.606082e+02	-3.175771e+01
4.632687e+02	-3.180726e+01
4.659445e+02	-3.186350e+01
4.686358e+02	-3.190135e+01
4.713426e+02	-3.196054e+01
4.740650e+02	-3.200637e+01
4.768032e+02	-3.205804e+01
4.795572e+02	-3.211076e+01
4.823271e+02	-3.216332e+01
4.851130e+02	-3.220981e+01
4.879150e+02	-3.226004e+01
4.907332e+02	-3.231269e+01
4.935676e+02	-3.235766e+01
4.964185e+02	-3.241538e+01
4.992858e+02	-3.246360e+01
5.021696e+02	-3.249911e+01
5.050701e+02	-3.256418e+01
5.079874e+02	-3.260989e+01
5.109215e+02	-3.265788e+01
5.138726e+02	-3.271657e+01
5.168407e+02	-3.276371e+01
5.198259e+02	-3.281780e+01
5.228284e+02	-3.285767e+01
5.258482e+02	-3.291377e+01
5.288855e+02	-3.296614e+01
5.319403e+02	-3.301044e+01
5.350128e+02	-3.305942e+01
5.381030e+02	-3.311011e+01
5.412111e+02	-3.316553e+01
5.443371e+02	-3.321276e+01
5.474812e+02	-3.326220e+01
5.506434e+02	-3.330852e+01
5.538239e+02	-3.336770e+01
5.570228e+02	-3.341351e+01
5.602401e+02	-3.345949e+01
5.634760e+02	-3.351902e+01
5.667306e+02	-3.356827e+01
5.700040e+02	-3.361852e+01
5.732964e+02	-3.366129e+01
5.766077e+02	-3.372159e+01
5.799382e+02	-3.376389e+01
5.832879e+02	-3.382280e+01
5.866569e+02	-3.386435e+01
5.900454e+02	-3.392019e+01
5.934535e+02	-3.396230e+01
5.968813e+02	-3.402186e+01
6.003288e+02	-3.406646e+01
6.037963e+02	-3.412251e+01
6.072838e+02	-3.415992e+01
6.107914e+02	-3.422194e+01
6.143194e+02	-3.427069e+01
6.178676e+02	-3.431011e+01
6.214364e+02	-3.436950e+01
6.250258e+02	-3.441199e+01
6.286359e+02	-3.447149e+01
6.322669e+02	-3.453442e+01
6.359189e+02	-3.458033e+01
6.395919e+02	-3.461584e+01
6.432862e+02	-3.468007e+01
6.470017e+02	-3.471890e+01
6.507388e+02	-3.477764e+01
6.544974e+02	-3.482671e+01
6.582778e+02	-3.487009e+01
6.620800e+02	-3.492838e+01
6.659041e+02	-3.497452e+01
6.697504e+02	-3.502319e+01
6.736188e+02	-3.507219e+01
6.775096e+02	-3.513240e+01
6.814229e+02	-3.516924e+01
6.853587e+02	-3.522993e+01
6.893173e+02	-3.527255e+01
6.932988e+02	-3.532359e+01
6.973033e+02	-3.537314e+01
7.013309e+02	-3.542462e+01
