Frequency(Hz)	Magnitude(dB)
1.000000e+01	-2.260550e+00
1.005776e+01	-2.281149e+00
1.011585e+01	-2.301667e+00
1.017428e+01	-2.322203e+00
1.023305e+01	-2.342942e+00
1.029215e+01	-2.364063e+00
1.035160e+01	-2.385061e+00
1.041139e+01	-2.406168e+00
1.047153e+01	-2.427738e+00
1.053201e+01	-2.449071e+00
1.059284e+01	-2.470666e+00
1.065403e+01	-2.492453e+00
1.071556e+01	-2.514455e+00
1.077746e+01	-2.536490e+00
1.083971e+01	-2.558533e+00
1.090232e+01	-2.580801e+00
1.096529e+01	-2.603487e+00
1.102862e+01	-2.626120e+00
1.109232e+01	-2.648895e+00
1.115639e+01	-2.671638e+00
1.122083e+01	-2.694698e+00
1.128564e+01	-2.717959e+00
1.135083e+01	-2.741439e+00
1.141639e+01	-2.765029e+00
1.148233e+01	-2.788491e+00
1.154865e+01	-2.812157e+00
1.161536e+01	-2.836349e+00
1.168245e+01	-2.860119e+00
1.174992e+01	-2.884422e+00
1.181779e+01	-2.908840e+00
1.188605e+01	-2.933335e+00
1.195470e+01	-2.958052e+00
1.202375e+01	-2.982895e+00
1.209320e+01	-3.007725e+00
1.216305e+01	-3.032557e+00
1.223330e+01	-3.057958e+00
1.230396e+01	-3.083301e+00
1.237503e+01	-3.108914e+00
1.244651e+01	-3.134462e+00
1.251840e+01	-3.160156e+00
1.259070e+01	-3.186339e+00
1.266343e+01	-3.212176e+00
1.273657e+01	-3.238456e+00
1.281014e+01	-3.264599e+00
1.288413e+01	-3.291626e+00
1.295855e+01	-3.318047e+00
1.303339e+01	-3.344715e+00
1.310867e+01	-3.371970e+00
1.318439e+01	-3.398764e+00
1.326054e+01	-3.426172e+00
1.333713e+01	-3.453394e+00
1.341417e+01	-3.480930e+00
1.349165e+01	-3.508506e+00
1.356958e+01	-3.536350e+00
1.364795e+01	-3.564292e+00
1.372678e+01	-3.592209e+00
1.380607e+01	-3.620784e+00
1.388581e+01	-3.648879e+00
1.396602e+01	-3.677314e+00
1.404668e+01	-3.706168e+00
1.412782e+01	-3.734739e+00
1.420942e+01	-3.763849e+00
1.429149e+01	-3.792723e+00
1.437404e+01	-3.822094e+00
1.445706e+01	-3.851276e+00
1.454057e+01	-3.880913e+00
1.462455e+01	-3.910654e+00
1.470902e+01	-3.940515e+00
1.479398e+01	-3.970494e+00
1.487943e+01	-4.000460e+00
1.496537e+01	-4.030255e+00
1.505181e+01	-4.060933e+00
1.513875e+01	-4.091196e+00
1.522619e+01	-4.121737e+00
1.531414e+01	-4.152534e+00
1.540259e+01	-4.183329e+00
1.549156e+01	-4.214487e+00
1.558103e+01	-4.245584e+00
1.567103e+01	-4.276926e+00
1.576155e+01	-4.308337e+00
1.585258e+01	-4.339891e+00
1.594415e+01	-4.371349e+00
1.603624e+01	-4.403338e+00
1.612886e+01	-4.435062e+00
1.622202e+01	-4.467079e+00
1.631572e+01	-4.499190e+00
1.640996e+01	-4.531991e+00
1.650474e+01	-4.564288e+00
1.660008e+01	-4.596975e+00
1.669596e+01	-4.629668e+00
1.679239e+01	-4.662230e+00
1.688938e+01	-4.695604e+00
1.698694e+01	-4.728532e+00
1.708505e+01	-4.761709e+00
1.718373e+01	-4.795142e+00
1.728299e+01	-4.828928e+00
1.738281e+01	-4.862144e+00
1.748322e+01	-4.896430e+00
1.758420e+01	-4.930093e+00
1.768576e+01	-4.963874e+00
1.778792e+01	-4.998186e+00
1.789066e+01	-5.032329e+00
1.799399e+01	-5.066690e+00
1.809793e+01	-5.101348e+00
1.820246e+01	-5.135787e+00
1.830760e+01	-5.170690e+00
1.841334e+01	-5.205592e+00
1.851969e+01	-5.240213e+00
1.862666e+01	-5.275529e+00
1.873425e+01	-5.310716e+00
1.884246e+01	-5.346358e+00
1.895129e+01	-5.381674e+00
1.906075e+01	-5.417340e+00
1.917085e+01	-5.452886e+00
1.928158e+01	-5.488979e+00
1.939295e+01	-5.524791e+00
1.950496e+01	-5.560843e+00
1.961762e+01	-5.597229e+00
1.973093e+01	-5.633592e+00
1.984490e+01	-5.670046e+00
1.995952e+01	-5.706139e+00
2.007480e+01	-5.743028e+00
2.019076e+01	-5.779658e+00
2.030738e+01	-5.816680e+00
2.042467e+01	-5.853270e+00
2.054264e+01	-5.890716e+00
2.066130e+01	-5.927889e+00
2.078064e+01	-5.965394e+00
2.090066e+01	-6.002258e+00
2.102139e+01	-6.040191e+00
2.114280e+01	-6.077919e+00
2.126492e+01	-6.115232e+00
2.138775e+01	-6.152984e+00
2.151128e+01	-6.191162e+00
2.163553e+01	-6.229378e+00
2.176050e+01	-6.267103e+00
2.188619e+01	-6.305712e+00
2.201260e+01	-6.343738e+00
2.213974e+01	-6.382520e+00
2.226762e+01	-6.420858e+00
2.239624e+01	-6.459615e+00
2.252560e+01	-6.498259e+00
2.265571e+01	-6.537203e+00
2.278656e+01	-6.576481e+00
2.291818e+01	-6.615212e+00
2.305055e+01	-6.654530e+00
2.318369e+01	-6.693624e+00
2.331760e+01	-6.733148e+00
2.345228e+01	-6.772753e+00
2.358774e+01	-6.812165e+00
2.372398e+01	-6.851985e+00
2.386101e+01	-6.891670e+00
2.399883e+01	-6.931662e+00
2.413745e+01	-6.971315e+00
2.427686e+01	-7.011609e+00
2.441709e+01	-7.051123e+00
2.455812e+01	-7.091845e+00
2.469997e+01	-7.131974e+00
2.484263e+01	-7.172716e+00
2.498612e+01	-7.212882e+00
2.513044e+01	-7.253876e+00
2.527559e+01	-7.294015e+00
2.542158e+01	-7.334724e+00
2.556842e+01	-7.375814e+00
2.571610e+01	-7.416576e+00
2.586463e+01	-7.457550e+00
2.601403e+01	-7.498768e+00
2.616428e+01	-7.539444e+00
2.631541e+01	-7.581353e+00
2.646740e+01	-7.622331e+00
2.662028e+01	-7.663965e+00
2.677404e+01	-7.705188e+00
2.692868e+01	-7.746933e+00
2.708422e+01	-7.789161e+00
2.724066e+01	-7.830272e+00
2.739800e+01	-7.872258e+00
2.755625e+01	-7.914283e+00
2.771541e+01	-7.956070e+00
2.787550e+01	-7.998302e+00
2.803650e+01	-8.040305e+00
2.819844e+01	-8.082665e+00
2.836131e+01	-8.124432e+00
2.852513e+01	-8.167170e+00
2.868989e+01	-8.209934e+00
2.885560e+01	-8.251816e+00
2.902227e+01	-8.294727e+00
2.918990e+01	-8.337074e+00
2.935850e+01	-8.379849e+00
2.952807e+01	-8.422889e+00
2.969863e+01	-8.465535e+00
2.987016e+01	-8.508784e+00
3.004269e+01	-8.551541e+00
3.021622e+01	-8.594513e+00
3.039075e+01	-8.638039e+00
3.056628e+01	-8.681180e+00
3.074283e+01	-8.724252e+00
3.092040e+01	-8.767613e+00
3.109900e+01	-8.811076e+00
3.127862e+01	-8.854428e+00
3.145929e+01	-8.898137e+00
3.164099e+01	-8.941495e+00
3.182375e+01	-8.985171e+00
3.200756e+01	-9.029017e+00
3.219244e+01	-9.072426e+00
3.237838e+01	-9.116839e+00
3.256540e+01	-9.161189e+00
3.275349e+01	-9.205032e+00
3.294268e+01	-9.248488e+00
3.313295e+01	-9.292977e+00
3.332433e+01	-9.336831e+00
3.351681e+01	-9.381670e+00
3.371040e+01	-9.425474e+00
3.390511e+01	-9.469545e+00
3.410094e+01	-9.514427e+00
3.429791e+01	-9.558876e+00
3.449601e+01	-9.603064e+00
3.469526e+01	-9.647835e+00
3.489566e+01	-9.692739e+00
3.509721e+01	-9.736753e+00
3.529993e+01	-9.781847e+00
3.550382e+01	-9.826480e+00
3.570889e+01	-9.871037e+00
3.591515e+01	-9.916478e+00
3.612259e+01	-9.960991e+00
3.633123e+01	-1.000658e+01
3.654108e+01	-1.005166e+01
3.675214e+01	-1.009682e+01
3.696442e+01	-1.014173e+01
3.717792e+01	-1.018720e+01
3.739266e+01	-1.023242e+01
3.760864e+01	-1.027801e+01
3.782587e+01	-1.032322e+01
3.804435e+01	-1.036761e+01
3.826409e+01	-1.041375e+01
3.848510e+01	-1.045931e+01
3.870739e+01	-1.050426e+01
3.893096e+01	-1.055033e+01
3.915583e+01	-1.059582e+01
3.938199e+01	-1.064185e+01
3.960946e+01	-1.068735e+01
3.983824e+01	-1.073334e+01
4.006834e+01	-1.077918e+01
4.029978e+01	-1.082493e+01
4.053255e+01	-1.087120e+01
4.076666e+01	-1.091656e+01
4.100213e+01	-1.096291e+01
4.123896e+01	-1.100896e+01
4.147715e+01	-1.105460e+01
4.171672e+01	-1.110100e+01
4.195767e+01	-1.114714e+01
4.220002e+01	-1.119354e+01
4.244377e+01	-1.123945e+01
4.268892e+01	-1.128623e+01
4.293549e+01	-1.133197e+01
4.318348e+01	-1.137896e+01
4.343291e+01	-1.142546e+01
4.368377e+01	-1.147083e+01
4.393609e+01	-1.151831e+01
4.418986e+01	-1.156428e+01
4.444510e+01	-1.161187e+01
4.470182e+01	-1.165778e+01
4.496001e+01	-1.170444e+01
4.521970e+01	-1.175087e+01
4.548089e+01	-1.179764e+01
4.574358e+01	-1.184385e+01
4.600779e+01	-1.189100e+01
4.627353e+01	-1.193771e+01
4.654081e+01	-1.198471e+01
4.680963e+01	-1.203200e+01
4.708000e+01	-1.207821e+01
4.735193e+01	-1.212581e+01
4.762543e+01	-1.217257e+01
4.790051e+01	-1.221908e+01
4.817719e+01	-1.226607e+01
4.845545e+01	-1.231330e+01
4.873533e+01	-1.236064e+01
4.901682e+01	-1.240771e+01
4.929994e+01	-1.245504e+01
4.958470e+01	-1.250217e+01
4.987110e+01	-1.254898e+01
5.015915e+01	-1.259614e+01
5.044887e+01	-1.264395e+01
5.074026e+01	-1.269174e+01
5.103333e+01	-1.273872e+01
5.132810e+01	-1.278698e+01
5.162457e+01	-1.283320e+01
5.192275e+01	-1.288018e+01
5.222265e+01	-1.292826e+01
5.252429e+01	-1.297666e+01
5.282767e+01	-1.302334e+01
5.313280e+01	-1.307064e+01
5.343969e+01	-1.311865e+01
5.374836e+01	-1.316614e+01
5.405880e+01	-1.321346e+01
5.437105e+01	-1.326167e+01
5.468509e+01	-1.330881e+01
5.500095e+01	-1.335697e+01
5.531863e+01	-1.340483e+01
5.563815e+01	-1.345282e+01
5.595951e+01	-1.350036e+01
5.628273e+01	-1.354855e+01
5.660782e+01	-1.359539e+01
5.693479e+01	-1.364333e+01
5.726364e+01	-1.369144e+01
5.759439e+01	-1.373996e+01
5.792705e+01	-1.378644e+01
5.826164e+01	-1.383585e+01
5.859815e+01	-1.388315e+01
5.893662e+01	-1.393115e+01
5.927703e+01	-1.397950e+01
5.961941e+01	-1.402781e+01
5.996377e+01	-1.407518e+01
6.031012e+01	-1.412290e+01
6.065847e+01	-1.417175e+01
6.100883e+01	-1.421967e+01
6.136121e+01	-1.426873e+01
6.171563e+01	-1.431595e+01
6.207210e+01	-1.436391e+01
6.243063e+01	-1.441177e+01
6.279122e+01	-1.446074e+01
6.315390e+01	-1.450894e+01
6.351868e+01	-1.455701e+01
6.388556e+01	-1.460512e+01
6.425456e+01	-1.465348e+01
6.462569e+01	-1.470175e+01
6.499897e+01	-1.475037e+01
6.537440e+01	-1.479944e+01
6.575200e+01	-1.484728e+01
6.613178e+01	-1.489585e+01
6.651375e+01	-1.494418e+01
6.689793e+01	-1.499210e+01
6.728433e+01	-1.504071e+01
6.767297e+01	-1.508858e+01
6.806384e+01	-1.513793e+01
6.845698e+01	-1.518711e+01
6.885238e+01	-1.523458e+01
6.925007e+01	-1.528308e+01
6.965005e+01	-1.533224e+01
7.005235e+01	-1.538058e+01
7.045697e+01	-1.542920e+01
7.086393e+01	-1.547799e+01
7.127323e+01	-1.552617e+01
7.168490e+01	-1.557478e+01
7.209895e+01	-1.562380e+01
7.251539e+01	-1.567257e+01
7.293424e+01	-1.572036e+01
7.335551e+01	-1.576884e+01
7.377920e+01	-1.581756e+01
7.420535e+01	-1.586692e+01
7.463396e+01	-1.591601e+01
7.506504e+01	-1.596357e+01
7.549861e+01	-1.601292e+01
7.593469e+01	-1.606158e+01
7.637328e+01	-1.611136e+01
7.681441e+01	-1.615837e+01
7.725809e+01	-1.620899e+01
7.770433e+01	-1.625775e+01
7.815315e+01	-1.630582e+01
7.860456e+01	-1.635513e+01
7.905857e+01	-1.640417e+01
7.951521e+01	-1.645303e+01
7.997449e+01	-1.650072e+01
8.043642e+01	-1.655062e+01
8.090102e+01	-1.659966e+01
8.136830e+01	-1.664861e+01
8.183828e+01	-1.669724e+01
8.231097e+01	-1.674582e+01
8.278640e+01	-1.679517e+01
8.326457e+01	-1.684409e+01
8.374550e+01	-1.689366e+01
8.422921e+01	-1.694210e+01
8.471572e+01	-1.699137e+01
8.520503e+01	-1.703999e+01
8.569717e+01	-1.708920e+01
8.619215e+01	-1.713815e+01
8.669000e+01	-1.718770e+01
8.719071e+01	-1.723684e+01
8.769432e+01	-1.728604e+01
8.820084e+01	-1.733516e+01
8.871029e+01	-1.738362e+01
8.922267e+01	-1.743311e+01
8.973802e+01	-1.748321e+01
9.025634e+01	-1.753122e+01
9.077766e+01	-1.758159e+01
9.130199e+01	-1.762950e+01
9.182935e+01	-1.767816e+01
9.235975e+01	-1.772850e+01
9.289321e+01	-1.777561e+01
9.342976e+01	-1.782624e+01
9.396941e+01	-1.787534e+01
9.451217e+01	-1.792580e+01
9.505807e+01	-1.797304e+01
9.560712e+01	-1.802373e+01
9.615934e+01	-1.807213e+01
9.671476e+01	-1.812131e+01
9.727338e+01	-1.817275e+01
9.783522e+01	-1.821963e+01
9.840032e+01	-1.826958e+01
9.896867e+01	-1.831915e+01
9.954031e+01	-1.836658e+01
1.001153e+02	-1.841859e+01
1.006935e+02	-1.846632e+01
1.012751e+02	-1.851574e+01
1.018601e+02	-1.856365e+01
1.024484e+02	-1.861466e+01
1.030402e+02	-1.866448e+01
1.036353e+02	-1.871280e+01
1.042339e+02	-1.876263e+01
1.048360e+02	-1.881236e+01
1.054415e+02	-1.885925e+01
1.060505e+02	-1.891024e+01
1.066631e+02	-1.896089e+01
1.072791e+02	-1.901004e+01
1.078988e+02	-1.905909e+01
1.085220e+02	-1.910823e+01
1.091488e+02	-1.915864e+01
1.097793e+02	-1.920726e+01
1.104133e+02	-1.925820e+01
1.110511e+02	-1.930762e+01
1.116925e+02	-1.935624e+01
1.123376e+02	-1.940482e+01
1.129865e+02	-1.945427e+01
1.136391e+02	-1.950382e+01
1.142955e+02	-1.955426e+01
1.149556e+02	-1.960335e+01
1.156196e+02	-1.965162e+01
1.162874e+02	-1.970250e+01
1.169591e+02	-1.975215e+01
1.176347e+02	-1.980043e+01
1.183141e+02	-1.985078e+01
1.189975e+02	-1.990019e+01
1.196848e+02	-1.994975e+01
1.203761e+02	-1.999891e+01
1.210714e+02	-2.004812e+01
1.217707e+02	-2.009855e+01
1.224740e+02	-2.014700e+01
1.231814e+02	-2.019925e+01
1.238929e+02	-2.024696e+01
1.246085e+02	-2.029685e+01
1.253283e+02	-2.034523e+01
1.260522e+02	-2.039558e+01
1.267802e+02	-2.044571e+01
1.275125e+02	-2.049371e+01
1.282490e+02	-2.054333e+01
1.289898e+02	-2.059471e+01
1.297348e+02	-2.064394e+01
1.304842e+02	-2.069466e+01
1.312378e+02	-2.074332e+01
1.319959e+02	-2.079178e+01
1.327583e+02	-2.084235e+01
1.335251e+02	-2.089308e+01
1.342963e+02	-2.094231e+01
1.350720e+02	-2.099064e+01
1.358522e+02	-2.103932e+01
1.366368e+02	-2.108985e+01
1.374260e+02	-2.113839e+01
1.382198e+02	-2.119047e+01
1.390182e+02	-2.123914e+01
1.398211e+02	-2.128832e+01
1.406287e+02	-2.133896e+01
1.414410e+02	-2.138950e+01
1.422579e+02	-2.143839e+01
1.430796e+02	-2.148758e+01
1.439060e+02	-2.153544e+01
1.447372e+02	-2.158665e+01
1.455732e+02	-2.163629e+01
1.464141e+02	-2.168549e+01
1.472597e+02	-2.173625e+01
1.481103e+02	-2.178558e+01
1.489658e+02	-2.183484e+01
1.498262e+02	-2.188561e+01
1.506916e+02	-2.193391e+01
1.515620e+02	-2.198266e+01
1.524374e+02	-2.203392e+01
1.533179e+02	-2.208302e+01
1.542034e+02	-2.213185e+01
1.550941e+02	-2.218452e+01
1.559899e+02	-2.223393e+01
1.568909e+02	-2.228390e+01
1.577971e+02	-2.233125e+01
1.587085e+02	-2.237975e+01
1.596252e+02	-2.243290e+01
1.605472e+02	-2.248160e+01
1.614745e+02	-2.253203e+01
1.624072e+02	-2.258469e+01
1.633453e+02	-2.263465e+01
1.642887e+02	-2.268054e+01
1.652377e+02	-2.273292e+01
1.661921e+02	-2.277972e+01
1.671520e+02	-2.282969e+01
1.681175e+02	-2.288019e+01
1.690885e+02	-2.293214e+01
1.700651e+02	-2.297782e+01
1.710474e+02	-2.302945e+01
1.720354e+02	-2.307912e+01
1.730291e+02	-2.312865e+01
1.740285e+02	-2.318007e+01
1.750337e+02	-2.322889e+01
1.760446e+02	-2.327704e+01
1.770615e+02	-2.332956e+01
1.780842e+02	-2.337859e+01
1.791128e+02	-2.342778e+01
1.801473e+02	-2.347762e+01
1.811878e+02	-2.352839e+01
1.822344e+02	-2.357876e+01
1.832870e+02	-2.362814e+01
1.843456e+02	-2.367676e+01
1.854104e+02	-2.372783e+01
1.864813e+02	-2.377929e+01
1.875584e+02	-2.382621e+01
1.886418e+02	-2.387710e+01
1.897313e+02	-2.392687e+01
1.908272e+02	-2.397636e+01
1.919294e+02	-2.402443e+01
1.930380e+02	-2.407812e+01
1.941530e+02	-2.412802e+01
1.952744e+02	-2.417644e+01
1.964023e+02	-2.422801e+01
1.975367e+02	-2.427526e+01
1.986777e+02	-2.432566e+01
1.998252e+02	-2.437422e+01
2.009794e+02	-2.442701e+01
2.021403e+02	-2.447664e+01
2.033078e+02	-2.452507e+01
2.044821e+02	-2.457619e+01
2.056632e+02	-2.462407e+01
2.068511e+02	-2.467501e+01
2.080459e+02	-2.472622e+01
2.092475e+02	-2.477378e+01
2.104561e+02	-2.482363e+01
2.116717e+02	-2.487518e+01
2.128943e+02	-2.492262e+01
2.141240e+02	-2.497360e+01
2.153608e+02	-2.502178e+01
2.166047e+02	-2.507352e+01
2.178558e+02	-2.512642e+01
2.191141e+02	-2.517346e+01
2.203797e+02	-2.522510e+01
2.216526e+02	-2.527367e+01
2.229329e+02	-2.532447e+01
2.242205e+02	-2.536964e+01
2.255156e+02	-2.542337e+01
2.268182e+02	-2.547258e+01
2.281283e+02	-2.552374e+01
2.294459e+02	-2.557128e+01
2.307712e+02	-2.562180e+01
2.321041e+02	-2.567641e+01
2.334447e+02	-2.572171e+01
2.347931e+02	-2.577354e+01
2.361493e+02	-2.582100e+01
2.375133e+02	-2.587342e+01
2.388851e+02	-2.592123e+01
2.402649e+02	-2.597187e+01
2.416527e+02	-2.602063e+01
2.430484e+02	-2.607139e+01
2.444523e+02	-2.612300e+01
2.458642e+02	-2.617281e+01
2.472843e+02	-2.622327e+01
2.487126e+02	-2.627447e+01
2.501492e+02	-2.632196e+01
2.515940e+02	-2.637210e+01
2.530472e+02	-2.642606e+01
2.545088e+02	-2.646812e+01
2.559789e+02	-2.652104e+01
2.574574e+02	-2.657351e+01
2.589444e+02	-2.661969e+01
2.604401e+02	-2.667125e+01
2.619444e+02	-2.672315e+01
2.634574e+02	-2.677440e+01
2.649791e+02	-2.682153e+01
2.665096e+02	-2.687111e+01
2.680489e+02	-2.692293e+01
2.695972e+02	-2.697229e+01
2.711544e+02	-2.701960e+01
2.727205e+02	-2.707411e+01
2.742958e+02	-2.712146e+01
2.758801e+02	-2.717349e+01
2.774736e+02	-2.721821e+01
2.790762e+02	-2.727109e+01
2.806882e+02	-2.732423e+01
2.823094e+02	-2.736988e+01
2.839400e+02	-2.742073e+01
2.855800e+02	-2.747454e+01
2.872295e+02	-2.751839e+01
2.888886e+02	-2.757113e+01
2.905572e+02	-2.762229e+01
2.922354e+02	-2.767488e+01
2.939234e+02	-2.772438e+01
2.956211e+02	-2.777109e+01
2.973286e+02	-2.782466e+01
2.990459e+02	-2.787274e+01
3.007732e+02	-2.792228e+01
3.025104e+02	-2.797080e+01
3.042577e+02	-2.802337e+01
3.060151e+02	-2.807537e+01
3.077826e+02	-2.812236e+01
3.095604e+02	-2.817272e+01
3.113484e+02	-2.822185e+01
3.131467e+02	-2.827108e+01
3.149554e+02	-2.832538e+01
3.167746e+02	-2.837039e+01
3.186043e+02	-2.842465e+01
3.204445e+02	-2.847137e+01
3.222954e+02	-2.852471e+01
3.241570e+02	-2.857051e+01
3.260293e+02	-2.862320e+01
3.279124e+02	-2.867857e+01
3.298064e+02	-2.872219e+01
3.317114e+02	-2.877463e+01
3.336273e+02	-2.882464e+01
3.355544e+02	-2.887727e+01
3.374925e+02	-2.892069e+01
3.394418e+02	-2.897192e+01
3.414024e+02	-2.902213e+01
3.433744e+02	-2.906855e+01
3.453577e+02	-2.913101e+01
3.473525e+02	-2.917222e+01
3.493588e+02	-2.922175e+01
3.513766e+02	-2.927791e+01
3.534062e+02	-2.932168e+01
3.554474e+02	-2.937004e+01
3.575005e+02	-2.942207e+01
3.595654e+02	-2.946957e+01
3.616422e+02	-2.951987e+01
3.637311e+02	-2.957633e+01
3.658320e+02	-2.962113e+01
3.679450e+02	-2.966709e+01
3.700702e+02	-2.972495e+01
3.722077e+02	-2.977340e+01
3.743576e+02	-2.982228e+01
3.765199e+02	-2.987233e+01
3.786946e+02	-2.992544e+01
3.808820e+02	-2.997521e+01
3.830819e+02	-3.002238e+01
3.852946e+02	-3.007476e+01
3.875200e+02	-3.012695e+01
3.897583e+02	-3.017710e+01
3.920096e+02	-3.022848e+01
3.942738e+02	-3.027311e+01
3.965511e+02	-3.032481e+01
3.988416e+02	-3.037567e+01
4.011452e+02	-3.042082e+01
4.034622e+02	-3.047496e+01
4.057926e+02	-3.052341e+01
4.081365e+02	-3.057598e+01
4.104938e+02	-3.063053e+01
4.128648e+02	-3.067657e+01
4.152495e+02	-3.072605e+01
4.176480e+02	-3.077671e+01
4.200603e+02	-3.082339e+01
4.224866e+02	-3.087694e+01
4.249268e+02	-3.093027e+01
4.273812e+02	-3.097746e+01
4.298497e+02	-3.102465e+01
4.323325e+02	-3.107613e+01
4.348297e+02	-3.113049e+01
4.373412e+02	-3.117675e+01
4.398673e+02	-3.122918e+01
4.424079e+02	-3.128215e+01
4.449633e+02	-3.132952e+01
4.475334e+02	-3.137287e+01
4.501183e+02	-3.143154e+01
4.527182e+02	-3.147434e+01
4.553330e+02	-3.152325e+01
4.579630e+02	-3.157665e+01
4.606082e+02	-3.162681e+01
4.632687e+02	-3.167701e+01
4.659445e+02	-3.173044e+01
4.686358e+02	-3.178229e+01
4.713426e+02	-3.182877e+01
4.740650e+02	-3.188187e+01
4.768032e+02	-3.192594e+01
4.795572e+02	-3.197846e+01
4.823271e+02	-3.203201e+01
4.851130e+02	-3.207588e+01
4.879150e+02	-3.212671e+01
4.907332e+02	-3.218271e+01
4.935676e+02	-3.222958e+01
4.964185e+02	-3.228583e+01
4.992858e+02	-3.232141e+01
5.021696e+02	-3.237498e+01
5.050701e+02	-3.242772e+01
5.079874e+02	-3.248408e+01
5.109215e+02	-3.253428e+01
5.138726e+02	-3.258090e+01
5.168407e+02	-3.262340e+01
5.198259e+02	-3.268577e+01
5.228284e+02	-3.273530e+01
5.258482e+02	-3.278734e+01
5.288855e+02	-3.283813e+01
5.319403e+02	-3.288321e+01
5.350128e+02	-3.293444e+01
5.381030e+02	-3.299059e+01
5.412111e+02	-3.303141e+01
5.443371e+02	-3.308704e+01
5.474812e+02	-3.313480e+01
5.506434e+02	-3.318629e+01
5.538239e+02	-3.323247e+01
5.570228e+02	-3.328633e+01
5.602401e+02	-3.333387e+01
5.634760e+02	-3.338872e+01
5.667306e+02	-3.343582e+01
5.700040e+02	-3.348399e+01
5.732964e+02	-3.353357e+01
5.766077e+02	-3.358735e+01
5.799382e+02	-3.363603e+01
5.832879e+02	-3.368705e+01
5.866569e+02	-3.374163e+01
5.900454e+02	-3.378920e+01
5.934535e+02	-3.383343e+01
5.968813e+02	-3.388501e+01
6.003288e+02	-3.393222e+01
6.037963e+02	-3.397812e+01
6.072838e+02	-3.404154e+01
6.107914e+02	-3.409113e+01
6.143194e+02	-3.414293e+01
6.178676e+02	-3.418915e+01
6.214364e+02	-3.424940e+01
6.250258e+02	-3.428899e+01
6.286359e+02	-3.433997e+01
6.322669e+02	-3.439184e+01
6.359189e+02	-3.444466e+01
6.395919e+02	-3.449300e+01
6.432862e+02	-3.455128e+01
6.470017e+02	-3.459465e+01
6.507388e+02	-3.464216e+01
6.544974e+02	-3.468434e+01
6.582778e+02	-3.473878e+01
6.620800e+02	-3.479534e+01
6.659041e+02	-3.484591e+01
6.697504e+02	-3.489012e+01
6.736188e+02	-3.494862e+01
6.775096e+02	-3.499526e+01
6.814229e+02	-3.504742e+01
6.853587e+02	-3.509070e+01
6.893173e+02	-3.515104e+01
6.932988e+02	-3.519619e+01
6.973033e+02	-3.525041e+01
7.013309e+02	-3.529852e+01
