Frequency(Hz)	Magnitude(dB)
1.000000e+01	-2.258461e+00
1.005776e+01	-2.278989e+00
1.011585e+01	-2.299595e+00
1.017428e+01	-2.320069e+00
1.023305e+01	-2.341063e+00
1.029215e+01	-2.361861e+00
1.035160e+01	-2.382871e+00
1.041139e+01	-2.403790e+00
1.047153e+01	-2.425358e+00
1.053201e+01	-2.446974e+00
1.059284e+01	-2.468486e+00
1.065403e+01	-2.490148e+00
1.071556e+01	-2.512181e+00
1.077746e+01	-2.534198e+00
1.083971e+01	-2.556455e+00
1.090232e+01	-2.578775e+00
1.096529e+01	-2.600885e+00
1.102862e+01	-2.623720e+00
1.109232e+01	-2.646375e+00
1.115639e+01	-2.669597e+00
1.122083e+01	-2.692599e+00
1.128564e+01	-2.715808e+00
1.135083e+01	-2.739039e+00
1.141639e+01	-2.762493e+00
1.148233e+01	-2.785858e+00
1.154865e+01	-2.809979e+00
1.161536e+01	-2.833614e+00
1.168245e+01	-2.857459e+00
1.174992e+01	-2.881993e+00
1.181779e+01	-2.906485e+00
1.188605e+01	-2.930884e+00
1.195470e+01	-2.955349e+00
1.202375e+01	-2.980128e+00
1.209320e+01	-3.004966e+00
1.216305e+01	-3.030275e+00
1.223330e+01	-3.055366e+00
1.230396e+01	-3.080666e+00
1.237503e+01	-3.106305e+00
1.244651e+01	-3.131775e+00
1.251840e+01	-3.157678e+00
1.259070e+01	-3.183354e+00
1.266343e+01	-3.209320e+00
1.273657e+01	-3.235935e+00
1.281014e+01	-3.262262e+00
1.288413e+01	-3.288418e+00
1.295855e+01	-3.315420e+00
1.303339e+01	-3.341905e+00
1.310867e+01	-3.368964e+00
1.318439e+01	-3.395919e+00
1.326054e+01	-3.423364e+00
1.333713e+01	-3.450649e+00
1.341417e+01	-3.478178e+00
1.349165e+01	-3.505677e+00
1.356958e+01	-3.533449e+00
1.364795e+01	-3.561579e+00
1.372678e+01	-3.589352e+00
1.380607e+01	-3.617434e+00
1.388581e+01	-3.646003e+00
1.396602e+01	-3.674596e+00
1.404668e+01	-3.703140e+00
1.412782e+01	-3.731847e+00
1.420942e+01	-3.760920e+00
1.429149e+01	-3.789988e+00
1.437404e+01	-3.819337e+00
1.445706e+01	-3.848313e+00
1.454057e+01	-3.877869e+00
1.462455e+01	-3.907528e+00
1.470902e+01	-3.937210e+00
1.479398e+01	-3.966964e+00
1.487943e+01	-3.997191e+00
1.496537e+01	-4.027270e+00
1.505181e+01	-4.057475e+00
1.513875e+01	-4.088117e+00
1.522619e+01	-4.118597e+00
1.531414e+01	-4.149138e+00
1.540259e+01	-4.180083e+00
1.549156e+01	-4.211261e+00
1.558103e+01	-4.242105e+00
1.567103e+01	-4.273515e+00
1.576155e+01	-4.305142e+00
1.585258e+01	-4.336138e+00
1.594415e+01	-4.368167e+00
1.603624e+01	-4.399821e+00
1.612886e+01	-4.432027e+00
1.622202e+01	-4.464154e+00
1.631572e+01	-4.496071e+00
1.640996e+01	-4.528556e+00
1.650474e+01	-4.560866e+00
1.660008e+01	-4.593411e+00
1.669596e+01	-4.625954e+00
1.679239e+01	-4.659181e+00
1.688938e+01	-4.691918e+00
1.698694e+01	-4.725382e+00
1.708505e+01	-4.758557e+00
1.718373e+01	-4.791752e+00
1.728299e+01	-4.825199e+00
1.738281e+01	-4.858995e+00
1.748322e+01	-4.892670e+00
1.758420e+01	-4.926390e+00
1.768576e+01	-4.960502e+00
1.778792e+01	-4.994427e+00
1.789066e+01	-5.029047e+00
1.799399e+01	-5.063127e+00
1.809793e+01	-5.097363e+00
1.820246e+01	-5.132295e+00
1.830760e+01	-5.166788e+00
1.841334e+01	-5.202010e+00
1.851969e+01	-5.236854e+00
1.862666e+01	-5.272218e+00
1.873425e+01	-5.307365e+00
1.884246e+01	-5.342686e+00
1.895129e+01	-5.377920e+00
1.906075e+01	-5.413514e+00
1.917085e+01	-5.449237e+00
1.928158e+01	-5.485167e+00
1.939295e+01	-5.521175e+00
1.950496e+01	-5.557062e+00
1.961762e+01	-5.593169e+00
1.973093e+01	-5.629530e+00
1.984490e+01	-5.666055e+00
1.995952e+01	-5.702414e+00
2.007480e+01	-5.739080e+00
2.019076e+01	-5.776034e+00
2.030738e+01	-5.812806e+00
2.042467e+01	-5.849931e+00
2.054264e+01	-5.886985e+00
2.066130e+01	-5.923969e+00
2.078064e+01	-5.961302e+00
2.090066e+01	-5.998283e+00
2.102139e+01	-6.036120e+00
2.114280e+01	-6.074103e+00
2.126492e+01	-6.111637e+00
2.138775e+01	-6.148958e+00
2.151128e+01	-6.187392e+00
2.163553e+01	-6.225145e+00
2.176050e+01	-6.263274e+00
2.188619e+01	-6.301768e+00
2.201260e+01	-6.340138e+00
2.213974e+01	-6.378416e+00
2.226762e+01	-6.416820e+00
2.239624e+01	-6.455755e+00
2.252560e+01	-6.494606e+00
2.265571e+01	-6.533243e+00
2.278656e+01	-6.572361e+00
2.291818e+01	-6.611286e+00
2.305055e+01	-6.650728e+00
2.318369e+01	-6.689843e+00
2.331760e+01	-6.728951e+00
2.345228e+01	-6.768792e+00
2.358774e+01	-6.808093e+00
2.372398e+01	-6.847646e+00
2.386101e+01	-6.887574e+00
2.399883e+01	-6.927106e+00
2.413745e+01	-6.967085e+00
2.427686e+01	-7.006961e+00
2.441709e+01	-7.047166e+00
2.455812e+01	-7.087829e+00
2.469997e+01	-7.127722e+00
2.484263e+01	-7.168107e+00
2.498612e+01	-7.208928e+00
2.513044e+01	-7.249339e+00
2.527559e+01	-7.290142e+00
2.542158e+01	-7.330283e+00
2.556842e+01	-7.371169e+00
2.571610e+01	-7.412316e+00
2.586463e+01	-7.453199e+00
2.601403e+01	-7.494701e+00
2.616428e+01	-7.535472e+00
2.631541e+01	-7.577149e+00
2.646740e+01	-7.618415e+00
2.662028e+01	-7.659690e+00
2.677404e+01	-7.700996e+00
2.692868e+01	-7.742493e+00
2.708422e+01	-7.784608e+00
2.724066e+01	-7.826117e+00
2.739800e+01	-7.868115e+00
2.755625e+01	-7.909797e+00
2.771541e+01	-7.951909e+00
2.787550e+01	-7.993782e+00
2.803650e+01	-8.035910e+00
2.819844e+01	-8.078139e+00
2.836131e+01	-8.120548e+00
2.852513e+01	-8.162408e+00
2.868989e+01	-8.205452e+00
2.885560e+01	-8.247520e+00
2.902227e+01	-8.290395e+00
2.918990e+01	-8.333028e+00
2.935850e+01	-8.375468e+00
2.952807e+01	-8.418375e+00
2.969863e+01	-8.461513e+00
2.987016e+01	-8.504465e+00
3.004269e+01	-8.547192e+00
3.021622e+01	-8.589942e+00
3.039075e+01	-8.633374e+00
3.056628e+01	-8.676793e+00
3.074283e+01	-8.719547e+00
3.092040e+01	-8.762914e+00
3.109900e+01	-8.806612e+00
3.127862e+01	-8.850160e+00
3.145929e+01	-8.893300e+00
3.164099e+01	-8.936908e+00
3.182375e+01	-8.981057e+00
3.200756e+01	-9.024417e+00
3.219244e+01	-9.068023e+00
3.237838e+01	-9.113088e+00
3.256540e+01	-9.156117e+00
3.275349e+01	-9.200415e+00
3.294268e+01	-9.244342e+00
3.313295e+01	-9.287996e+00
3.332433e+01	-9.332518e+00
3.351681e+01	-9.376900e+00
3.371040e+01	-9.420955e+00
3.390511e+01	-9.465087e+00
3.410094e+01	-9.509906e+00
3.429791e+01	-9.554246e+00
3.449601e+01	-9.598351e+00
3.469526e+01	-9.642891e+00
3.489566e+01	-9.687714e+00
3.509721e+01	-9.732429e+00
3.529993e+01	-9.777523e+00
3.550382e+01	-9.821525e+00
3.570889e+01	-9.867330e+00
3.591515e+01	-9.911478e+00
3.612259e+01	-9.956727e+00
3.633123e+01	-1.000175e+01
3.654108e+01	-1.004678e+01
3.675214e+01	-1.009140e+01
3.696442e+01	-1.013672e+01
3.717792e+01	-1.018233e+01
3.739266e+01	-1.022749e+01
3.760864e+01	-1.027324e+01
3.782587e+01	-1.031808e+01
3.804435e+01	-1.036385e+01
3.826409e+01	-1.040883e+01
3.848510e+01	-1.045483e+01
3.870739e+01	-1.050027e+01
3.893096e+01	-1.054551e+01
3.915583e+01	-1.059091e+01
3.938199e+01	-1.063727e+01
3.960946e+01	-1.068260e+01
3.983824e+01	-1.072838e+01
4.006834e+01	-1.077401e+01
4.029978e+01	-1.082059e+01
4.053255e+01	-1.086602e+01
4.076666e+01	-1.091191e+01
4.100213e+01	-1.095825e+01
4.123896e+01	-1.100408e+01
4.147715e+01	-1.105086e+01
4.171672e+01	-1.109617e+01
4.195767e+01	-1.114241e+01
4.220002e+01	-1.118855e+01
4.244377e+01	-1.123417e+01
4.268892e+01	-1.128067e+01
4.293549e+01	-1.132710e+01
4.318348e+01	-1.137366e+01
4.343291e+01	-1.142046e+01
4.368377e+01	-1.146665e+01
4.393609e+01	-1.151334e+01
4.418986e+01	-1.156001e+01
4.444510e+01	-1.160583e+01
4.470182e+01	-1.165294e+01
4.496001e+01	-1.169942e+01
4.521970e+01	-1.174609e+01
4.548089e+01	-1.179310e+01
4.574358e+01	-1.183915e+01
4.600779e+01	-1.188607e+01
4.627353e+01	-1.193281e+01
4.654081e+01	-1.198050e+01
4.680963e+01	-1.202731e+01
4.708000e+01	-1.207303e+01
4.735193e+01	-1.212090e+01
4.762543e+01	-1.216752e+01
4.790051e+01	-1.221469e+01
4.817719e+01	-1.226181e+01
4.845545e+01	-1.230877e+01
4.873533e+01	-1.235592e+01
4.901682e+01	-1.240314e+01
4.929994e+01	-1.245051e+01
4.958470e+01	-1.249735e+01
4.987110e+01	-1.254460e+01
5.015915e+01	-1.259071e+01
5.044887e+01	-1.263896e+01
5.074026e+01	-1.268676e+01
5.103333e+01	-1.273386e+01
5.132810e+01	-1.278179e+01
5.162457e+01	-1.282840e+01
5.192275e+01	-1.287535e+01
5.222265e+01	-1.292315e+01
5.252429e+01	-1.297097e+01
5.282767e+01	-1.301868e+01
5.313280e+01	-1.306604e+01
5.343969e+01	-1.311416e+01
5.374836e+01	-1.316050e+01
5.405880e+01	-1.320852e+01
5.437105e+01	-1.325699e+01
5.468509e+01	-1.330421e+01
5.500095e+01	-1.335201e+01
5.531863e+01	-1.339940e+01
5.563815e+01	-1.344727e+01
5.595951e+01	-1.349525e+01
5.628273e+01	-1.354234e+01
5.660782e+01	-1.359010e+01
5.693479e+01	-1.363788e+01
5.726364e+01	-1.368708e+01
5.759439e+01	-1.373465e+01
5.792705e+01	-1.378233e+01
5.826164e+01	-1.383070e+01
5.859815e+01	-1.387864e+01
5.893662e+01	-1.392637e+01
5.927703e+01	-1.397342e+01
5.961941e+01	-1.402169e+01
5.996377e+01	-1.406971e+01
6.031012e+01	-1.411819e+01
6.065847e+01	-1.416624e+01
6.100883e+01	-1.421375e+01
6.136121e+01	-1.426268e+01
6.171563e+01	-1.431057e+01
6.207210e+01	-1.435876e+01
6.243063e+01	-1.440781e+01
6.279122e+01	-1.445570e+01
6.315390e+01	-1.450479e+01
6.351868e+01	-1.455199e+01
6.388556e+01	-1.460088e+01
6.425456e+01	-1.464862e+01
6.462569e+01	-1.469653e+01
6.499897e+01	-1.474508e+01
6.537440e+01	-1.479357e+01
6.575200e+01	-1.484209e+01
6.613178e+01	-1.489120e+01
6.651375e+01	-1.493913e+01
6.689793e+01	-1.498734e+01
6.728433e+01	-1.503707e+01
6.767297e+01	-1.508434e+01
6.806384e+01	-1.513288e+01
6.845698e+01	-1.518128e+01
6.885238e+01	-1.523018e+01
6.925007e+01	-1.527852e+01
6.965005e+01	-1.532651e+01
7.005235e+01	-1.537537e+01
7.045697e+01	-1.542444e+01
7.086393e+01	-1.547242e+01
7.127323e+01	-1.552167e+01
7.168490e+01	-1.556983e+01
7.209895e+01	-1.561863e+01
7.251539e+01	-1.566702e+01
7.293424e+01	-1.571540e+01
7.335551e+01	-1.576466e+01
7.377920e+01	-1.581288e+01
7.420535e+01	-1.586268e+01
7.463396e+01	-1.590991e+01
7.506504e+01	-1.595989e+01
7.549861e+01	-1.600829e+01
7.593469e+01	-1.605732e+01
7.637328e+01	-1.610568e+01
7.681441e+01	-1.615436e+01
7.725809e+01	-1.620418e+01
7.770433e+01	-1.625224e+01
7.815315e+01	-1.630154e+01
7.860456e+01	-1.634989e+01
7.905857e+01	-1.639904e+01
7.951521e+01	-1.644757e+01
7.997449e+01	-1.649599e+01
8.043642e+01	-1.654599e+01
8.090102e+01	-1.659433e+01
8.136830e+01	-1.664214e+01
8.183828e+01	-1.669266e+01
8.231097e+01	-1.674180e+01
8.278640e+01	-1.678958e+01
8.326457e+01	-1.683867e+01
8.374550e+01	-1.688913e+01
8.422921e+01	-1.693776e+01
8.471572e+01	-1.698607e+01
8.520503e+01	-1.703555e+01
8.569717e+01	-1.708341e+01
8.619215e+01	-1.713324e+01
8.669000e+01	-1.718309e+01
8.719071e+01	-1.723218e+01
8.769432e+01	-1.728028e+01
8.820084e+01	-1.733020e+01
8.871029e+01	-1.737963e+01
8.922267e+01	-1.742811e+01
8.973802e+01	-1.747728e+01
9.025634e+01	-1.752635e+01
9.077766e+01	-1.757576e+01
9.130199e+01	-1.762479e+01
9.182935e+01	-1.767318e+01
9.235975e+01	-1.772297e+01
9.289321e+01	-1.777256e+01
9.342976e+01	-1.782087e+01
9.396941e+01	-1.787006e+01
9.451217e+01	-1.791949e+01
9.505807e+01	-1.796843e+01
9.560712e+01	-1.801883e+01
9.615934e+01	-1.806700e+01
9.671476e+01	-1.811693e+01
9.727338e+01	-1.816660e+01
9.783522e+01	-1.821644e+01
9.840032e+01	-1.826539e+01
9.896867e+01	-1.831353e+01
9.954031e+01	-1.836451e+01
1.001153e+02	-1.841113e+01
1.006935e+02	-1.846144e+01
1.012751e+02	-1.851070e+01
1.018601e+02	-1.856116e+01
1.024484e+02	-1.860852e+01
1.030402e+02	-1.865937e+01
1.036353e+02	-1.870952e+01
1.042339e+02	-1.875769e+01
1.048360e+02	-1.880667e+01
1.054415e+02	-1.885743e+01
1.060505e+02	-1.890640e+01
1.066631e+02	-1.895389e+01
1.072791e+02	-1.900503e+01
1.078988e+02	-1.905448e+01
1.085220e+02	-1.910374e+01
1.091488e+02	-1.915315e+01
1.097793e+02	-1.920259e+01
1.104133e+02	-1.925198e+01
1.110511e+02	-1.929930e+01
1.116925e+02	-1.934996e+01
1.123376e+02	-1.939843e+01
1.129865e+02	-1.944932e+01
1.136391e+02	-1.949900e+01
1.142955e+02	-1.954959e+01
1.149556e+02	-1.959852e+01
1.156196e+02	-1.964746e+01
1.162874e+02	-1.969698e+01
1.169591e+02	-1.974713e+01
1.176347e+02	-1.979653e+01
1.183141e+02	-1.984586e+01
1.189975e+02	-1.989385e+01
1.196848e+02	-1.994485e+01
1.203761e+02	-1.999398e+01
1.210714e+02	-2.004320e+01
1.217707e+02	-2.009226e+01
1.224740e+02	-2.014391e+01
1.231814e+02	-2.019082e+01
1.238929e+02	-2.024171e+01
1.246085e+02	-2.029220e+01
1.253283e+02	-2.034145e+01
1.260522e+02	-2.039193e+01
1.267802e+02	-2.044026e+01
1.275125e+02	-2.048972e+01
1.282490e+02	-2.054023e+01
1.289898e+02	-2.058954e+01
1.297348e+02	-2.063837e+01
1.304842e+02	-2.068883e+01
1.312378e+02	-2.073729e+01
1.319959e+02	-2.078879e+01
1.327583e+02	-2.083730e+01
1.335251e+02	-2.088725e+01
1.342963e+02	-2.093647e+01
1.350720e+02	-2.098803e+01
1.358522e+02	-2.103611e+01
1.366368e+02	-2.108448e+01
1.374260e+02	-2.113625e+01
1.382198e+02	-2.118649e+01
1.390182e+02	-2.123565e+01
1.398211e+02	-2.128450e+01
1.406287e+02	-2.133464e+01
1.414410e+02	-2.138420e+01
1.422579e+02	-2.143228e+01
1.430796e+02	-2.148166e+01
1.439060e+02	-2.153162e+01
1.447372e+02	-2.158014e+01
1.455732e+02	-2.163118e+01
1.464141e+02	-2.168134e+01
1.472597e+02	-2.172967e+01
1.481103e+02	-2.178177e+01
1.489658e+02	-2.183139e+01
1.498262e+02	-2.187984e+01
1.506916e+02	-2.192916e+01
1.515620e+02	-2.198142e+01
1.524374e+02	-2.203061e+01
1.533179e+02	-2.208008e+01
1.542034e+02	-2.212822e+01
1.550941e+02	-2.217825e+01
1.559899e+02	-2.222778e+01
1.568909e+02	-2.227810e+01
1.577971e+02	-2.232746e+01
1.587085e+02	-2.237870e+01
1.596252e+02	-2.242669e+01
1.605472e+02	-2.247841e+01
1.614745e+02	-2.252519e+01
1.624072e+02	-2.257434e+01
1.633453e+02	-2.262615e+01
1.642887e+02	-2.267566e+01
1.652377e+02	-2.272470e+01
1.661921e+02	-2.277793e+01
1.671520e+02	-2.282733e+01
1.681175e+02	-2.287852e+01
1.690885e+02	-2.292561e+01
1.700651e+02	-2.297553e+01
1.710474e+02	-2.302467e+01
1.720354e+02	-2.307483e+01
1.730291e+02	-2.312378e+01
1.740285e+02	-2.317550e+01
1.750337e+02	-2.322255e+01
1.760446e+02	-2.327403e+01
1.770615e+02	-2.332550e+01
1.780842e+02	-2.337294e+01
1.791128e+02	-2.342377e+01
1.801473e+02	-2.347676e+01
1.811878e+02	-2.352349e+01
1.822344e+02	-2.357241e+01
1.832870e+02	-2.362056e+01
1.843456e+02	-2.366890e+01
1.854104e+02	-2.372148e+01
1.864813e+02	-2.377319e+01
1.875584e+02	-2.381989e+01
1.886418e+02	-2.387359e+01
1.897313e+02	-2.392145e+01
1.908272e+02	-2.396787e+01
1.919294e+02	-2.402205e+01
1.930380e+02	-2.407044e+01
1.941530e+02	-2.412137e+01
1.952744e+02	-2.416833e+01
1.964023e+02	-2.422089e+01
1.975367e+02	-2.426845e+01
1.986777e+02	-2.432014e+01
1.998252e+02	-2.436918e+01
2.009794e+02	-2.441817e+01
2.021403e+02	-2.447116e+01
2.033078e+02	-2.452152e+01
2.044821e+02	-2.457079e+01
2.056632e+02	-2.461771e+01
2.068511e+02	-2.467052e+01
2.080459e+02	-2.471974e+01
2.092475e+02	-2.476902e+01
2.104561e+02	-2.481855e+01
2.116717e+02	-2.486862e+01
2.128943e+02	-2.491729e+01
2.141240e+02	-2.496786e+01
2.153608e+02	-2.502050e+01
2.166047e+02	-2.506777e+01
2.178558e+02	-2.512017e+01
2.191141e+02	-2.516606e+01
2.203797e+02	-2.522144e+01
2.216526e+02	-2.527190e+01
2.229329e+02	-2.531413e+01
2.242205e+02	-2.537032e+01
2.255156e+02	-2.541884e+01
2.268182e+02	-2.546810e+01
2.281283e+02	-2.551689e+01
2.294459e+02	-2.556833e+01
2.307712e+02	-2.561634e+01
2.321041e+02	-2.566632e+01
2.334447e+02	-2.571977e+01
2.347931e+02	-2.577098e+01
2.361493e+02	-2.581976e+01
2.375133e+02	-2.586963e+01
2.388851e+02	-2.592098e+01
2.402649e+02	-2.596763e+01
2.416527e+02	-2.601917e+01
2.430484e+02	-2.606725e+01
2.444523e+02	-2.611652e+01
2.458642e+02	-2.616692e+01
2.472843e+02	-2.621624e+01
2.487126e+02	-2.626651e+01
2.501492e+02	-2.631725e+01
2.515940e+02	-2.636694e+01
2.530472e+02	-2.641716e+01
2.545088e+02	-2.646792e+01
2.559789e+02	-2.651620e+01
2.574574e+02	-2.656604e+01
2.589444e+02	-2.662191e+01
2.604401e+02	-2.666609e+01
2.619444e+02	-2.671753e+01
2.634574e+02	-2.676406e+01
2.649791e+02	-2.681464e+01
2.665096e+02	-2.686774e+01
2.680489e+02	-2.691809e+01
2.695972e+02	-2.696962e+01
2.711544e+02	-2.701698e+01
2.727205e+02	-2.706783e+01
2.742958e+02	-2.711804e+01
2.758801e+02	-2.716332e+01
2.774736e+02	-2.721524e+01
2.790762e+02	-2.726585e+01
2.806882e+02	-2.731493e+01
2.823094e+02	-2.736520e+01
2.839400e+02	-2.741822e+01
2.855800e+02	-2.746593e+01
2.872295e+02	-2.751332e+01
2.888886e+02	-2.756458e+01
2.905572e+02	-2.761588e+01
2.922354e+02	-2.766163e+01
2.939234e+02	-2.771588e+01
2.956211e+02	-2.777067e+01
2.973286e+02	-2.781491e+01
2.990459e+02	-2.786698e+01
3.007732e+02	-2.791465e+01
3.025104e+02	-2.796919e+01
3.042577e+02	-2.801650e+01
3.060151e+02	-2.806199e+01
3.077826e+02	-2.812090e+01
3.095604e+02	-2.816757e+01
3.113484e+02	-2.821711e+01
3.131467e+02	-2.826790e+01
3.149554e+02	-2.831764e+01
3.167746e+02	-2.836395e+01
3.186043e+02	-2.841270e+01
3.204445e+02	-2.846597e+01
3.222954e+02	-2.852216e+01
3.241570e+02	-2.857045e+01
3.260293e+02	-2.861782e+01
3.279124e+02	-2.866636e+01
3.298064e+02	-2.871579e+01
3.317114e+02	-2.876705e+01
3.336273e+02	-2.881881e+01
3.355544e+02	-2.886522e+01
3.374925e+02	-2.891556e+01
3.394418e+02	-2.896518e+01
3.414024e+02	-2.901695e+01
3.433744e+02	-2.906712e+01
3.453577e+02	-2.911300e+01
3.473525e+02	-2.916717e+01
3.493588e+02	-2.921908e+01
3.513766e+02	-2.926389e+01
3.534062e+02	-2.932152e+01
3.554474e+02	-2.936773e+01
3.575005e+02	-2.941844e+01
3.595654e+02	-2.946891e+01
3.616422e+02	-2.951638e+01
3.637311e+02	-2.956823e+01
3.658320e+02	-2.962348e+01
3.679450e+02	-2.967187e+01
3.700702e+02	-2.971430e+01
3.722077e+02	-2.976830e+01
3.743576e+02	-2.982077e+01
3.765199e+02	-2.986422e+01
3.786946e+02	-2.992087e+01
3.808820e+02	-2.997527e+01
3.830819e+02	-3.001710e+01
3.852946e+02	-3.006498e+01
3.875200e+02	-3.011827e+01
3.897583e+02	-3.016931e+01
3.920096e+02	-3.022091e+01
3.942738e+02	-3.026357e+01
3.965511e+02	-3.031914e+01
3.988416e+02	-3.036525e+01
4.011452e+02	-3.042224e+01
4.034622e+02	-3.047220e+01
4.057926e+02	-3.052071e+01
4.081365e+02	-3.057320e+01
4.104938e+02	-3.061652e+01
4.128648e+02	-3.067378e+01
4.152495e+02	-3.072306e+01
4.176480e+02	-3.076919e+01
4.200603e+02	-3.082256e+01
4.224866e+02	-3.086642e+01
4.249268e+02	-3.092060e+01
4.273812e+02	-3.097881e+01
4.298497e+02	-3.102216e+01
4.323325e+02	-3.106947e+01
4.348297e+02	-3.112775e+01
4.373412e+02	-3.117044e+01
4.398673e+02	-3.122035e+01
4.424079e+02	-3.127507e+01
4.449633e+02	-3.131329e+01
4.475334e+02	-3.137541e+01
4.501183e+02	-3.142129e+01
4.527182e+02	-3.146776e+01
4.553330e+02	-3.152224e+01
4.579630e+02	-3.157477e+01
4.606082e+02	-3.162095e+01
4.632687e+02	-3.167511e+01
4.659445e+02	-3.172446e+01
4.686358e+02	-3.177276e+01
4.713426e+02	-3.182421e+01
4.740650e+02	-3.187533e+01
4.768032e+02	-3.192221e+01
4.795572e+02	-3.197969e+01
4.823271e+02	-3.202951e+01
4.851130e+02	-3.207628e+01
4.879150e+02	-3.212807e+01
4.907332e+02	-3.217924e+01
4.935676e+02	-3.222466e+01
4.964185e+02	-3.227404e+01
4.992858e+02	-3.232236e+01
5.021696e+02	-3.237465e+01
5.050701e+02	-3.242742e+01
5.079874e+02	-3.248220e+01
5.109215e+02	-3.252582e+01
5.138726e+02	-3.257599e+01
5.168407e+02	-3.262633e+01
5.198259e+02	-3.267677e+01
5.228284e+02	-3.273239e+01
5.258482e+02	-3.277874e+01
5.288855e+02	-3.282663e+01
5.319403e+02	-3.287697e+01
5.350128e+02	-3.293384e+01
5.381030e+02	-3.298392e+01
5.412111e+02	-3.303152e+01
5.443371e+02	-3.308578e+01
5.474812e+02	-3.312792e+01
5.506434e+02	-3.317642e+01
5.538239e+02	-3.322992e+01
5.570228e+02	-3.327919e+01
5.602401e+02	-3.332615e+01
5.634760e+02	-3.338015e+01
5.667306e+02	-3.342310e+01
5.700040e+02	-3.347461e+01
5.732964e+02	-3.353568e+01
5.766077e+02	-3.358240e+01
5.799382e+02	-3.363715e+01
5.832879e+02	-3.367999e+01
5.866569e+02	-3.373042e+01
5.900454e+02	-3.377548e+01
5.934535e+02	-3.383320e+01
5.968813e+02	-3.388178e+01
6.003288e+02	-3.393506e+01
6.037963e+02	-3.397821e+01
6.072838e+02	-3.403292e+01
6.107914e+02	-3.407687e+01
6.143194e+02	-3.413472e+01
6.178676e+02	-3.418540e+01
6.214364e+02	-3.423861e+01
6.250258e+02	-3.428253e+01
6.286359e+02	-3.433910e+01
6.322669e+02	-3.439032e+01
6.359189e+02	-3.443633e+01
6.395919e+02	-3.449403e+01
6.432862e+02	-3.452792e+01
6.470017e+02	-3.458093e+01
6.507388e+02	-3.463572e+01
6.544974e+02	-3.468464e+01
6.582778e+02	-3.473488e+01
6.620800e+02	-3.480066e+01
6.659041e+02	-3.482573e+01
6.697504e+02	-3.488652e+01
6.736188e+02	-3.493925e+01
6.775096e+02	-3.498692e+01
6.814229e+02	-3.503293e+01
6.853587e+02	-3.509179e+01
6.893173e+02	-3.514201e+01
6.932988e+02	-3.518680e+01
6.973033e+02	-3.523764e+01
7.013309e+02	-3.528941e+01
