Frequency(Hz)	Magnitude(dB)
1.000000e+01	-1.970636e+00
1.005776e+01	-1.988954e+00
1.011585e+01	-2.007439e+00
1.017428e+01	-2.025921e+00
1.023305e+01	-2.044698e+00
1.029215e+01	-2.063516e+00
1.035160e+01	-2.082510e+00
1.041139e+01	-2.101581e+00
1.047153e+01	-2.120871e+00
1.053201e+01	-2.140380e+00
1.059284e+01	-2.160004e+00
1.065403e+01	-2.179688e+00
1.071556e+01	-2.199309e+00
1.077746e+01	-2.219397e+00
1.083971e+01	-2.239339e+00
1.090232e+01	-2.259767e+00
1.096529e+01	-2.280101e+00
1.102862e+01	-2.300517e+00
1.109232e+01	-2.321066e+00
1.115639e+01	-2.342011e+00
1.122083e+01	-2.362805e+00
1.128564e+01	-2.383954e+00
1.135083e+01	-2.404787e+00
1.141639e+01	-2.426471e+00
1.148233e+01	-2.447736e+00
1.154865e+01	-2.469377e+00
1.161536e+01	-2.491234e+00
1.168245e+01	-2.513264e+00
1.174992e+01	-2.535142e+00
1.181779e+01	-2.557546e+00
1.188605e+01	-2.579650e+00
1.195470e+01	-2.602214e+00
1.202375e+01	-2.624842e+00
1.209320e+01	-2.647819e+00
1.216305e+01	-2.670429e+00
1.223330e+01	-2.693734e+00
1.230396e+01	-2.716841e+00
1.237503e+01	-2.740110e+00
1.244651e+01	-2.763349e+00
1.251840e+01	-2.787236e+00
1.259070e+01	-2.810896e+00
1.266343e+01	-2.834933e+00
1.273657e+01	-2.858891e+00
1.281014e+01	-2.883105e+00
1.288413e+01	-2.907492e+00
1.295855e+01	-2.931982e+00
1.303339e+01	-2.956548e+00
1.310867e+01	-2.981400e+00
1.318439e+01	-3.006443e+00
1.326054e+01	-3.031497e+00
1.333713e+01	-3.056705e+00
1.341417e+01	-3.081942e+00
1.349165e+01	-3.107257e+00
1.356958e+01	-3.133030e+00
1.364795e+01	-3.158811e+00
1.372678e+01	-3.184772e+00
1.380607e+01	-3.210638e+00
1.388581e+01	-3.236869e+00
1.396602e+01	-3.263149e+00
1.404668e+01	-3.289825e+00
1.412782e+01	-3.316362e+00
1.420942e+01	-3.343389e+00
1.429149e+01	-3.370361e+00
1.437404e+01	-3.397381e+00
1.445706e+01	-3.424675e+00
1.454057e+01	-3.451962e+00
1.462455e+01	-3.479319e+00
1.470902e+01	-3.507008e+00
1.479398e+01	-3.534752e+00
1.487943e+01	-3.562758e+00
1.496537e+01	-3.590807e+00
1.505181e+01	-3.619056e+00
1.513875e+01	-3.647505e+00
1.522619e+01	-3.675930e+00
1.531414e+01	-3.704738e+00
1.540259e+01	-3.733452e+00
1.549156e+01	-3.762211e+00
1.558103e+01	-3.791251e+00
1.567103e+01	-3.820677e+00
1.576155e+01	-3.849811e+00
1.585258e+01	-3.879391e+00
1.594415e+01	-3.908834e+00
1.603624e+01	-3.938905e+00
1.612886e+01	-3.968646e+00
1.622202e+01	-3.998934e+00
1.631572e+01	-4.028630e+00
1.640996e+01	-4.059188e+00
1.650474e+01	-4.089558e+00
1.660008e+01	-4.120257e+00
1.669596e+01	-4.150849e+00
1.679239e+01	-4.181830e+00
1.688938e+01	-4.212751e+00
1.698694e+01	-4.244073e+00
1.708505e+01	-4.274959e+00
1.718373e+01	-4.306571e+00
1.728299e+01	-4.338168e+00
1.738281e+01	-4.369680e+00
1.748322e+01	-4.401496e+00
1.758420e+01	-4.433520e+00
1.768576e+01	-4.465567e+00
1.778792e+01	-4.497699e+00
1.789066e+01	-4.529886e+00
1.799399e+01	-4.562486e+00
1.809793e+01	-4.595130e+00
1.820246e+01	-4.627812e+00
1.830760e+01	-4.660774e+00
1.841334e+01	-4.693781e+00
1.851969e+01	-4.726704e+00
1.862666e+01	-4.760158e+00
1.873425e+01	-4.793482e+00
1.884246e+01	-4.826671e+00
1.895129e+01	-4.860711e+00
1.906075e+01	-4.894332e+00
1.917085e+01	-4.928055e+00
1.928158e+01	-4.962289e+00
1.939295e+01	-4.996246e+00
1.950496e+01	-5.030530e+00
1.961762e+01	-5.065051e+00
1.973093e+01	-5.099615e+00
1.984490e+01	-5.134311e+00
1.995952e+01	-5.168811e+00
2.007480e+01	-5.203490e+00
2.019076e+01	-5.238687e+00
2.030738e+01	-5.273668e+00
2.042467e+01	-5.309152e+00
2.054264e+01	-5.344344e+00
2.066130e+01	-5.379953e+00
2.078064e+01	-5.415277e+00
2.090066e+01	-5.451174e+00
2.102139e+01	-5.487029e+00
2.114280e+01	-5.522989e+00
2.126492e+01	-5.559173e+00
2.138775e+01	-5.595448e+00
2.151128e+01	-5.631392e+00
2.163553e+01	-5.667963e+00
2.176050e+01	-5.704383e+00
2.188619e+01	-5.740835e+00
2.201260e+01	-5.777911e+00
2.213974e+01	-5.814660e+00
2.226762e+01	-5.851785e+00
2.239624e+01	-5.888514e+00
2.252560e+01	-5.925713e+00
2.265571e+01	-5.963281e+00
2.278656e+01	-6.000397e+00
2.291818e+01	-6.037795e+00
2.305055e+01	-6.075828e+00
2.318369e+01	-6.113495e+00
2.331760e+01	-6.151167e+00
2.345228e+01	-6.189342e+00
2.358774e+01	-6.227025e+00
2.372398e+01	-6.265433e+00
2.386101e+01	-6.303638e+00
2.399883e+01	-6.342134e+00
2.413745e+01	-6.380312e+00
2.427686e+01	-6.418994e+00
2.441709e+01	-6.457792e+00
2.455812e+01	-6.496147e+00
2.469997e+01	-6.534992e+00
2.484263e+01	-6.574441e+00
2.498612e+01	-6.613536e+00
2.513044e+01	-6.652399e+00
2.527559e+01	-6.691647e+00
2.542158e+01	-6.730945e+00
2.556842e+01	-6.770908e+00
2.571610e+01	-6.810010e+00
2.586463e+01	-6.850005e+00
2.601403e+01	-6.889793e+00
2.616428e+01	-6.929304e+00
2.631541e+01	-6.969410e+00
2.646740e+01	-7.009238e+00
2.662028e+01	-7.049267e+00
2.677404e+01	-7.089749e+00
2.692868e+01	-7.129826e+00
2.708422e+01	-7.170359e+00
2.724066e+01	-7.210773e+00
2.739800e+01	-7.251213e+00
2.755625e+01	-7.291984e+00
2.771541e+01	-7.332605e+00
2.787550e+01	-7.373577e+00
2.803650e+01	-7.414429e+00
2.819844e+01	-7.455454e+00
2.836131e+01	-7.496789e+00
2.852513e+01	-7.537519e+00
2.868989e+01	-7.578711e+00
2.885560e+01	-7.620034e+00
2.902227e+01	-7.661411e+00
2.918990e+01	-7.703169e+00
2.935850e+01	-7.744289e+00
2.952807e+01	-7.786286e+00
2.969863e+01	-7.827794e+00
2.987016e+01	-7.869802e+00
3.004269e+01	-7.912073e+00
3.021622e+01	-7.953620e+00
3.039075e+01	-7.995996e+00
3.056628e+01	-8.038099e+00
3.074283e+01	-8.080202e+00
3.092040e+01	-8.122514e+00
3.109900e+01	-8.165031e+00
3.127862e+01	-8.207241e+00
3.145929e+01	-8.250104e+00
3.164099e+01	-8.292613e+00
3.182375e+01	-8.335287e+00
3.200756e+01	-8.377932e+00
3.219244e+01	-8.420243e+00
3.237838e+01	-8.463232e+00
3.256540e+01	-8.506104e+00
3.275349e+01	-8.549216e+00
3.294268e+01	-8.592433e+00
3.313295e+01	-8.635752e+00
3.332433e+01	-8.678754e+00
3.351681e+01	-8.721761e+00
3.371040e+01	-8.765137e+00
3.390511e+01	-8.808900e+00
3.410094e+01	-8.852502e+00
3.429791e+01	-8.895694e+00
3.449601e+01	-8.939492e+00
3.469526e+01	-8.983023e+00
3.489566e+01	-9.027007e+00
3.509721e+01	-9.070500e+00
3.529993e+01	-9.114717e+00
3.550382e+01	-9.158140e+00
3.570889e+01	-9.202373e+00
3.591515e+01	-9.246391e+00
3.612259e+01	-9.290321e+00
3.633123e+01	-9.334478e+00
3.654108e+01	-9.378727e+00
3.675214e+01	-9.423255e+00
3.696442e+01	-9.467589e+00
3.717792e+01	-9.511478e+00
3.739266e+01	-9.556527e+00
3.760864e+01	-9.601326e+00
3.782587e+01	-9.645334e+00
3.804435e+01	-9.690072e+00
3.826409e+01	-9.734866e+00
3.848510e+01	-9.779543e+00
3.870739e+01	-9.824182e+00
3.893096e+01	-9.868928e+00
3.915583e+01	-9.913740e+00
3.938199e+01	-9.959048e+00
3.960946e+01	-1.000404e+01
3.983824e+01	-1.004899e+01
4.006834e+01	-1.009455e+01
4.029978e+01	-1.013898e+01
4.053255e+01	-1.018459e+01
4.076666e+01	-1.022976e+01
4.100213e+01	-1.027517e+01
4.123896e+01	-1.032029e+01
4.147715e+01	-1.036587e+01
4.171672e+01	-1.041086e+01
4.195767e+01	-1.045661e+01
4.220002e+01	-1.050251e+01
4.244377e+01	-1.054834e+01
4.268892e+01	-1.059358e+01
4.293549e+01	-1.063948e+01
4.318348e+01	-1.068508e+01
4.343291e+01	-1.073069e+01
4.368377e+01	-1.077683e+01
4.393609e+01	-1.082158e+01
4.418986e+01	-1.086840e+01
4.444510e+01	-1.091469e+01
4.470182e+01	-1.096027e+01
4.496001e+01	-1.100618e+01
4.521970e+01	-1.105255e+01
4.548089e+01	-1.109853e+01
4.574358e+01	-1.114453e+01
4.600779e+01	-1.119113e+01
4.627353e+01	-1.123723e+01
4.654081e+01	-1.128412e+01
4.680963e+01	-1.132914e+01
4.708000e+01	-1.137563e+01
4.735193e+01	-1.142231e+01
4.762543e+01	-1.146875e+01
4.790051e+01	-1.151572e+01
4.817719e+01	-1.156214e+01
4.845545e+01	-1.160889e+01
4.873533e+01	-1.165567e+01
4.901682e+01	-1.170130e+01
4.929994e+01	-1.174845e+01
4.958470e+01	-1.179484e+01
4.987110e+01	-1.184223e+01
5.015915e+01	-1.188880e+01
5.044887e+01	-1.193579e+01
5.074026e+01	-1.198272e+01
5.103333e+01	-1.202910e+01
5.132810e+01	-1.207632e+01
5.162457e+01	-1.212261e+01
5.192275e+01	-1.217003e+01
5.222265e+01	-1.221655e+01
5.252429e+01	-1.226438e+01
5.282767e+01	-1.231138e+01
5.313280e+01	-1.235846e+01
5.343969e+01	-1.240578e+01
5.374836e+01	-1.245207e+01
5.405880e+01	-1.249993e+01
5.437105e+01	-1.254681e+01
5.468509e+01	-1.259381e+01
5.500095e+01	-1.264110e+01
5.531863e+01	-1.268890e+01
5.563815e+01	-1.273551e+01
5.595951e+01	-1.278294e+01
5.628273e+01	-1.283150e+01
5.660782e+01	-1.287799e+01
5.693479e+01	-1.292566e+01
5.726364e+01	-1.297330e+01
5.759439e+01	-1.302095e+01
5.792705e+01	-1.306862e+01
5.826164e+01	-1.311646e+01
5.859815e+01	-1.316333e+01
5.893662e+01	-1.321088e+01
5.927703e+01	-1.325809e+01
5.961941e+01	-1.330618e+01
5.996377e+01	-1.335401e+01
6.031012e+01	-1.340193e+01
6.065847e+01	-1.344982e+01
6.100883e+01	-1.349741e+01
6.136121e+01	-1.354524e+01
6.171563e+01	-1.359340e+01
6.207210e+01	-1.364025e+01
6.243063e+01	-1.368852e+01
6.279122e+01	-1.373677e+01
6.315390e+01	-1.378476e+01
6.351868e+01	-1.383259e+01
6.388556e+01	-1.388078e+01
6.425456e+01	-1.392924e+01
6.462569e+01	-1.397624e+01
6.499897e+01	-1.402438e+01
6.537440e+01	-1.407363e+01
6.575200e+01	-1.411986e+01
6.613178e+01	-1.416896e+01
6.651375e+01	-1.421678e+01
6.689793e+01	-1.426480e+01
6.728433e+01	-1.431299e+01
6.767297e+01	-1.436157e+01
6.806384e+01	-1.441000e+01
6.845698e+01	-1.445780e+01
6.885238e+01	-1.450668e+01
6.925007e+01	-1.455475e+01
6.965005e+01	-1.460285e+01
7.005235e+01	-1.465110e+01
7.045697e+01	-1.469953e+01
7.086393e+01	-1.474812e+01
7.127323e+01	-1.479728e+01
7.168490e+01	-1.484404e+01
7.209895e+01	-1.489291e+01
7.251539e+01	-1.494083e+01
7.293424e+01	-1.498960e+01
7.335551e+01	-1.503757e+01
7.377920e+01	-1.508590e+01
7.420535e+01	-1.513453e+01
7.463396e+01	-1.518328e+01
7.506504e+01	-1.523209e+01
7.549861e+01	-1.528053e+01
7.593469e+01	-1.532865e+01
7.637328e+01	-1.537726e+01
7.681441e+01	-1.542672e+01
7.725809e+01	-1.547418e+01
7.770433e+01	-1.552382e+01
7.815315e+01	-1.557141e+01
7.860456e+01	-1.562071e+01
7.905857e+01	-1.566960e+01
7.951521e+01	-1.571802e+01
7.997449e+01	-1.576710e+01
8.043642e+01	-1.581620e+01
8.090102e+01	-1.586434e+01
8.136830e+01	-1.591408e+01
8.183828e+01	-1.596147e+01
8.231097e+01	-1.600988e+01
8.278640e+01	-1.605997e+01
8.326457e+01	-1.610802e+01
8.374550e+01	-1.615731e+01
8.422921e+01	-1.620613e+01
8.471572e+01	-1.625507e+01
8.520503e+01	-1.630339e+01
8.569717e+01	-1.635172e+01
8.619215e+01	-1.640140e+01
8.669000e+01	-1.645036e+01
8.719071e+01	-1.649830e+01
8.769432e+01	-1.654729e+01
8.820084e+01	-1.659716e+01
8.871029e+01	-1.664542e+01
8.922267e+01	-1.669399e+01
8.973802e+01	-1.674384e+01
9.025634e+01	-1.679244e+01
9.077766e+01	-1.684106e+01
9.130199e+01	-1.688952e+01
9.182935e+01	-1.693993e+01
9.235975e+01	-1.698812e+01
9.289321e+01	-1.703778e+01
9.342976e+01	-1.708698e+01
9.396941e+01	-1.713547e+01
9.451217e+01	-1.718427e+01
9.505807e+01	-1.723456e+01
9.560712e+01	-1.728375e+01
9.615934e+01	-1.733335e+01
9.671476e+01	-1.738105e+01
9.727338e+01	-1.743083e+01
9.783522e+01	-1.747915e+01
9.840032e+01	-1.752785e+01
9.896867e+01	-1.757853e+01
9.954031e+01	-1.762766e+01
1.001153e+02	-1.767756e+01
1.006935e+02	-1.772547e+01
1.012751e+02	-1.777552e+01
1.018601e+02	-1.782502e+01
1.024484e+02	-1.787288e+01
1.030402e+02	-1.792153e+01
1.036353e+02	-1.797159e+01
1.042339e+02	-1.802075e+01
1.048360e+02	-1.807016e+01
1.054415e+02	-1.811879e+01
1.060505e+02	-1.816802e+01
1.066631e+02	-1.821830e+01
1.072791e+02	-1.826659e+01
1.078988e+02	-1.831685e+01
1.085220e+02	-1.836510e+01
1.091488e+02	-1.841493e+01
1.097793e+02	-1.846408e+01
1.104133e+02	-1.851389e+01
1.110511e+02	-1.856181e+01
1.116925e+02	-1.861212e+01
1.123376e+02	-1.866168e+01
1.129865e+02	-1.871072e+01
1.136391e+02	-1.876021e+01
1.142955e+02	-1.880921e+01
1.149556e+02	-1.885878e+01
1.156196e+02	-1.890807e+01
1.162874e+02	-1.895717e+01
1.169591e+02	-1.900700e+01
1.176347e+02	-1.905723e+01
1.183141e+02	-1.910628e+01
1.189975e+02	-1.915480e+01
1.196848e+02	-1.920655e+01
1.203761e+02	-1.925480e+01
1.210714e+02	-1.930390e+01
1.217707e+02	-1.935318e+01
1.224740e+02	-1.940383e+01
1.231814e+02	-1.945297e+01
1.238929e+02	-1.950124e+01
1.246085e+02	-1.954996e+01
1.253283e+02	-1.959987e+01
1.260522e+02	-1.965064e+01
1.267802e+02	-1.970078e+01
1.275125e+02	-1.974880e+01
1.282490e+02	-1.979873e+01
1.289898e+02	-1.984882e+01
1.297348e+02	-1.989884e+01
1.304842e+02	-1.994704e+01
1.312378e+02	-1.999745e+01
1.319959e+02	-2.004567e+01
1.327583e+02	-2.009526e+01
1.335251e+02	-2.014569e+01
1.342963e+02	-2.019503e+01
1.350720e+02	-2.024539e+01
1.358522e+02	-2.029423e+01
1.366368e+02	-2.034403e+01
1.374260e+02	-2.039250e+01
1.382198e+02	-2.044273e+01
1.390182e+02	-2.049134e+01
1.398211e+02	-2.054058e+01
1.406287e+02	-2.059167e+01
1.414410e+02	-2.064376e+01
1.422579e+02	-2.069094e+01
1.430796e+02	-2.074067e+01
1.439060e+02	-2.079011e+01
1.447372e+02	-2.083898e+01
1.455732e+02	-2.088956e+01
1.464141e+02	-2.093874e+01
1.472597e+02	-2.098900e+01
1.481103e+02	-2.103993e+01
1.489658e+02	-2.108662e+01
1.498262e+02	-2.113630e+01
1.506916e+02	-2.118673e+01
1.515620e+02	-2.123656e+01
1.524374e+02	-2.128561e+01
1.533179e+02	-2.133430e+01
1.542034e+02	-2.138681e+01
1.550941e+02	-2.143353e+01
1.559899e+02	-2.148521e+01
1.568909e+02	-2.153302e+01
1.577971e+02	-2.158544e+01
1.587085e+02	-2.163342e+01
1.596252e+02	-2.168546e+01
1.605472e+02	-2.173427e+01
1.614745e+02	-2.178169e+01
1.624072e+02	-2.183205e+01
1.633453e+02	-2.188282e+01
1.642887e+02	-2.193128e+01
1.652377e+02	-2.198151e+01
1.661921e+02	-2.203195e+01
1.671520e+02	-2.208309e+01
1.681175e+02	-2.213239e+01
1.690885e+02	-2.218325e+01
1.700651e+02	-2.223054e+01
1.710474e+02	-2.228158e+01
1.720354e+02	-2.232919e+01
1.730291e+02	-2.238035e+01
1.740285e+02	-2.243053e+01
1.750337e+02	-2.248013e+01
1.760446e+02	-2.252955e+01
1.770615e+02	-2.257828e+01
1.780842e+02	-2.262879e+01
1.791128e+02	-2.267603e+01
1.801473e+02	-2.272835e+01
1.811878e+02	-2.277849e+01
1.822344e+02	-2.282844e+01
1.832870e+02	-2.287760e+01
1.843456e+02	-2.292728e+01
1.854104e+02	-2.297702e+01
1.864813e+02	-2.302630e+01
1.875584e+02	-2.307425e+01
1.886418e+02	-2.312658e+01
1.897313e+02	-2.317881e+01
1.908272e+02	-2.322850e+01
1.919294e+02	-2.327632e+01
1.930380e+02	-2.332571e+01
1.941530e+02	-2.337645e+01
1.952744e+02	-2.342784e+01
1.964023e+02	-2.347498e+01
1.975367e+02	-2.352761e+01
1.986777e+02	-2.357592e+01
1.998252e+02	-2.362176e+01
2.009794e+02	-2.367552e+01
2.021403e+02	-2.372366e+01
2.033078e+02	-2.377604e+01
2.044821e+02	-2.382461e+01
2.056632e+02	-2.387574e+01
2.068511e+02	-2.392796e+01
2.080459e+02	-2.397365e+01
2.092475e+02	-2.402361e+01
2.104561e+02	-2.407184e+01
2.116717e+02	-2.412354e+01
2.128943e+02	-2.417169e+01
2.141240e+02	-2.421954e+01
2.153608e+02	-2.427140e+01
2.166047e+02	-2.432252e+01
2.178558e+02	-2.437089e+01
2.191141e+02	-2.442142e+01
2.203797e+02	-2.447255e+01
2.216526e+02	-2.452255e+01
2.229329e+02	-2.457295e+01
2.242205e+02	-2.462331e+01
2.255156e+02	-2.467241e+01
2.268182e+02	-2.472212e+01
2.281283e+02	-2.477322e+01
2.294459e+02	-2.482011e+01
2.307712e+02	-2.487137e+01
2.321041e+02	-2.491833e+01
2.334447e+02	-2.497078e+01
2.347931e+02	-2.502174e+01
2.361493e+02	-2.507240e+01
2.375133e+02	-2.512098e+01
2.388851e+02	-2.517178e+01
2.402649e+02	-2.522014e+01
2.416527e+02	-2.527315e+01
2.430484e+02	-2.532382e+01
2.444523e+02	-2.537105e+01
2.458642e+02	-2.542186e+01
2.472843e+02	-2.547262e+01
2.487126e+02	-2.552211e+01
2.501492e+02	-2.556722e+01
2.515940e+02	-2.562065e+01
2.530472e+02	-2.567192e+01
2.545088e+02	-2.571864e+01
2.559789e+02	-2.576859e+01
2.574574e+02	-2.582006e+01
2.589444e+02	-2.587011e+01
2.604401e+02	-2.592053e+01
2.619444e+02	-2.597031e+01
2.634574e+02	-2.601826e+01
2.649791e+02	-2.607169e+01
2.665096e+02	-2.611747e+01
2.680489e+02	-2.616824e+01
2.695972e+02	-2.622123e+01
2.711544e+02	-2.626726e+01
2.727205e+02	-2.631896e+01
2.742958e+02	-2.637129e+01
2.758801e+02	-2.641741e+01
2.774736e+02	-2.646803e+01
2.790762e+02	-2.651851e+01
2.806882e+02	-2.656813e+01
2.823094e+02	-2.661885e+01
2.839400e+02	-2.666788e+01
2.855800e+02	-2.671426e+01
2.872295e+02	-2.676805e+01
2.888886e+02	-2.681938e+01
2.905572e+02	-2.687005e+01
2.922354e+02	-2.691804e+01
2.939234e+02	-2.696540e+01
2.956211e+02	-2.701644e+01
2.973286e+02	-2.706752e+01
2.990459e+02	-2.711621e+01
3.007732e+02	-2.717449e+01
3.025104e+02	-2.721898e+01
3.042577e+02	-2.727251e+01
3.060151e+02	-2.731778e+01
3.077826e+02	-2.737400e+01
3.095604e+02	-2.741805e+01
3.113484e+02	-2.746867e+01
3.131467e+02	-2.752098e+01
3.149554e+02	-2.756757e+01
3.167746e+02	-2.762355e+01
3.186043e+02	-2.766869e+01
3.204445e+02	-2.772154e+01
3.222954e+02	-2.777059e+01
3.241570e+02	-2.782122e+01
3.260293e+02	-2.786792e+01
3.279124e+02	-2.791896e+01
3.298064e+02	-2.797052e+01
3.317114e+02	-2.802221e+01
3.336273e+02	-2.806564e+01
3.355544e+02	-2.811845e+01
3.374925e+02	-2.817229e+01
3.394418e+02	-2.821655e+01
3.414024e+02	-2.827494e+01
3.433744e+02	-2.832105e+01
3.453577e+02	-2.836679e+01
3.473525e+02	-2.842016e+01
3.493588e+02	-2.846559e+01
3.513766e+02	-2.852603e+01
3.534062e+02	-2.856977e+01
3.554474e+02	-2.861696e+01
3.575005e+02	-2.866681e+01
3.595654e+02	-2.871558e+01
3.616422e+02	-2.877325e+01
3.637311e+02	-2.881962e+01
3.658320e+02	-2.887111e+01
3.679450e+02	-2.892170e+01
3.700702e+02	-2.896528e+01
3.722077e+02	-2.901913e+01
3.743576e+02	-2.906806e+01
3.765199e+02	-2.911960e+01
3.786946e+02	-2.917235e+01
3.808820e+02	-2.921838e+01
3.830819e+02	-2.927010e+01
3.852946e+02	-2.931975e+01
3.875200e+02	-2.937115e+01
3.897583e+02	-2.942502e+01
3.920096e+02	-2.947332e+01
3.942738e+02	-2.951920e+01
3.965511e+02	-2.957031e+01
3.988416e+02	-2.961770e+01
4.011452e+02	-2.967302e+01
4.034622e+02	-2.971987e+01
4.057926e+02	-2.976787e+01
4.081365e+02	-2.982574e+01
4.104938e+02	-2.987855e+01
4.128648e+02	-2.992163e+01
4.152495e+02	-2.997162e+01
4.176480e+02	-3.001983e+01
4.200603e+02	-3.006633e+01
4.224866e+02	-3.012078e+01
4.249268e+02	-3.017219e+01
4.273812e+02	-3.022004e+01
4.298497e+02	-3.026944e+01
4.323325e+02	-3.032027e+01
4.348297e+02	-3.037192e+01
4.373412e+02	-3.042280e+01
4.398673e+02	-3.047327e+01
4.424079e+02	-3.051860e+01
4.449633e+02	-3.057450e+01
4.475334e+02	-3.062340e+01
4.501183e+02	-3.066865e+01
4.527182e+02	-3.072289e+01
4.553330e+02	-3.077837e+01
4.579630e+02	-3.081947e+01
4.606082e+02	-3.087954e+01
4.632687e+02	-3.091547e+01
4.659445e+02	-3.097065e+01
4.686358e+02	-3.102306e+01
4.713426e+02	-3.107349e+01
4.740650e+02	-3.112016e+01
4.768032e+02	-3.117182e+01
4.795572e+02	-3.122367e+01
4.823271e+02	-3.127378e+01
4.851130e+02	-3.131986e+01
4.879150e+02	-3.137356e+01
4.907332e+02	-3.141985e+01
4.935676e+02	-3.147271e+01
4.964185e+02	-3.152650e+01
4.992858e+02	-3.157612e+01
5.021696e+02	-3.163251e+01
5.050701e+02	-3.167963e+01
5.079874e+02	-3.172929e+01
5.109215e+02	-3.176873e+01
5.138726e+02	-3.182942e+01
5.168407e+02	-3.187390e+01
5.198259e+02	-3.191815e+01
5.228284e+02	-3.197534e+01
5.258482e+02	-3.202492e+01
5.288855e+02	-3.207329e+01
5.319403e+02	-3.212086e+01
5.350128e+02	-3.217544e+01
5.381030e+02	-3.221836e+01
5.412111e+02	-3.227344e+01
5.443371e+02	-3.232722e+01
5.474812e+02	-3.237903e+01
5.506434e+02	-3.242405e+01
5.538239e+02	-3.247160e+01
5.570228e+02	-3.253094e+01
5.602401e+02	-3.258225e+01
5.634760e+02	-3.263754e+01
5.667306e+02	-3.268770e+01
5.700040e+02	-3.271913e+01
5.732964e+02	-3.278031e+01
5.766077e+02	-3.282669e+01
5.799382e+02	-3.287707e+01
5.832879e+02	-3.292722e+01
5.866569e+02	-3.297966e+01
5.900454e+02	-3.303072e+01
5.934535e+02	-3.308230e+01
5.968813e+02	-3.313351e+01
6.003288e+02	-3.317900e+01
6.037963e+02	-3.323134e+01
6.072838e+02	-3.327588e+01
6.107914e+02	-3.333407e+01
6.143194e+02	-3.337850e+01
6.178676e+02	-3.343568e+01
6.214364e+02	-3.348626e+01
6.250258e+02	-3.353329e+01
6.286359e+02	-3.358298e+01
6.322669e+02	-3.363268e+01
6.359189e+02	-3.368188e+01
6.395919e+02	-3.373601e+01
6.432862e+02	-3.377924e+01
6.470017e+02	-3.383607e+01
6.507388e+02	-3.388396e+01
6.544974e+02	-3.394634e+01
6.582778e+02	-3.398590e+01
6.620800e+02	-3.403301e+01
6.659041e+02	-3.409505e+01
6.697504e+02	-3.413640e+01
6.736188e+02	-3.418110e+01
6.775096e+02	-3.423630e+01
6.814229e+02	-3.429335e+01
6.853587e+02	-3.433047e+01
6.893173e+02	-3.438245e+01
6.932988e+02	-3.444331e+01
6.973033e+02	-3.449427e+01
7.013309e+02	-3.453560e+01
