Frequency(Hz)	Magnitude(dB)
1.000000e+01	-1.764892e-05
1.005776e+01	-1.785338e-05
1.011585e+01	-1.806022e-05
1.017428e+01	-1.826945e-05
1.023305e+01	-1.848111e-05
1.029215e+01	-1.869522e-05
1.035160e+01	-1.891181e-05
1.041139e+01	-1.913090e-05
1.047153e+01	-1.935254e-05
1.053201e+01	-1.957674e-05
1.059284e+01	-1.980355e-05
1.065403e+01	-2.003298e-05
1.071556e+01	-2.026506e-05
1.077746e+01	-2.049984e-05
1.083971e+01	-2.073733e-05
1.090232e+01	-2.097758e-05
1.096529e+01	-2.122061e-05
1.102862e+01	-2.146646e-05
1.109232e+01	-2.171515e-05
1.115639e+01	-2.196673e-05
1.122083e+01	-2.222122e-05
1.128564e+01	-2.247866e-05
1.135083e+01	-2.273908e-05
1.141639e+01	-2.300251e-05
1.148233e+01	-2.326900e-05
1.154865e+01	-2.353858e-05
1.161536e+01	-2.381128e-05
1.168245e+01	-2.408714e-05
1.174992e+01	-2.436620e-05
1.181779e+01	-2.464849e-05
1.188605e+01	-2.493404e-05
1.195470e+01	-2.522291e-05
1.202375e+01	-2.551513e-05
1.209320e+01	-2.581072e-05
1.216305e+01	-2.610975e-05
1.223330e+01	-2.641224e-05
1.230396e+01	-2.671823e-05
1.237503e+01	-2.702777e-05
1.244651e+01	-2.734089e-05
1.251840e+01	-2.765764e-05
1.259070e+01	-2.797806e-05
1.266343e+01	-2.830219e-05
1.273657e+01	-2.863008e-05
1.281014e+01	-2.896177e-05
1.288413e+01	-2.929730e-05
1.295855e+01	-2.963671e-05
1.303339e+01	-2.998006e-05
1.310867e+01	-3.032739e-05
1.318439e+01	-3.067874e-05
1.326054e+01	-3.103416e-05
1.333713e+01	-3.139369e-05
1.341417e+01	-3.175740e-05
1.349165e+01	-3.212532e-05
1.356958e+01	-3.249749e-05
1.364795e+01	-3.287399e-05
1.372678e+01	-3.325484e-05
1.380607e+01	-3.364010e-05
1.388581e+01	-3.402983e-05
1.396602e+01	-3.442408e-05
1.404668e+01	-3.482289e-05
1.412782e+01	-3.522632e-05
1.420942e+01	-3.563442e-05
1.429149e+01	-3.604726e-05
1.437404e+01	-3.646487e-05
1.445706e+01	-3.688733e-05
1.454057e+01	-3.731467e-05
1.462455e+01	-3.774697e-05
1.470902e+01	-3.818428e-05
1.479398e+01	-3.862665e-05
1.487943e+01	-3.907415e-05
1.496537e+01	-3.952684e-05
1.505181e+01	-3.998476e-05
1.513875e+01	-4.044800e-05
1.522619e+01	-4.091659e-05
1.531414e+01	-4.139062e-05
1.540259e+01	-4.187014e-05
1.549156e+01	-4.235522e-05
1.558103e+01	-4.284591e-05
1.567103e+01	-4.334229e-05
1.576155e+01	-4.384442e-05
1.585258e+01	-4.435237e-05
1.594415e+01	-4.486620e-05
1.603624e+01	-4.538599e-05
1.612886e+01	-4.591179e-05
1.622202e+01	-4.644369e-05
1.631572e+01	-4.698175e-05
1.640996e+01	-4.752604e-05
1.650474e+01	-4.807664e-05
1.660008e+01	-4.863362e-05
1.669596e+01	-4.919705e-05
1.679239e+01	-4.976701e-05
1.688938e+01	-5.034357e-05
1.698694e+01	-5.092681e-05
1.708505e+01	-5.151681e-05
1.718373e+01	-5.211364e-05
1.728299e+01	-5.271739e-05
1.738281e+01	-5.332813e-05
1.748322e+01	-5.394595e-05
1.758420e+01	-5.457093e-05
1.768576e+01	-5.520314e-05
1.778792e+01	-5.584268e-05
1.789066e+01	-5.648963e-05
1.799399e+01	-5.714407e-05
1.809793e+01	-5.780610e-05
1.820246e+01	-5.847580e-05
1.830760e+01	-5.915325e-05
1.841334e+01	-5.983855e-05
1.851969e+01	-6.053179e-05
1.862666e+01	-6.123307e-05
1.873425e+01	-6.194246e-05
1.884246e+01	-6.266008e-05
1.895129e+01	-6.338601e-05
1.906075e+01	-6.412035e-05
1.917085e+01	-6.486319e-05
1.928158e+01	-6.561465e-05
1.939295e+01	-6.637480e-05
1.950496e+01	-6.714377e-05
1.961762e+01	-6.792164e-05
1.973093e+01	-6.870853e-05
1.984490e+01	-6.950453e-05
1.995952e+01	-7.030975e-05
2.007480e+01	-7.112430e-05
2.019076e+01	-7.194829e-05
2.030738e+01	-7.278183e-05
2.042467e+01	-7.362502e-05
2.054264e+01	-7.447797e-05
2.066130e+01	-7.534082e-05
2.078064e+01	-7.621365e-05
2.090066e+01	-7.709660e-05
2.102139e+01	-7.798978e-05
2.114280e+01	-7.889330e-05
2.126492e+01	-7.980730e-05
2.138775e+01	-8.073188e-05
2.151128e+01	-8.166717e-05
2.163553e+01	-8.261330e-05
2.176050e+01	-8.357039e-05
2.188619e+01	-8.453856e-05
2.201260e+01	-8.551796e-05
2.213974e+01	-8.650870e-05
2.226762e+01	-8.751091e-05
2.239624e+01	-8.852474e-05
2.252560e+01	-8.955032e-05
2.265571e+01	-9.058777e-05
2.278656e+01	-9.163724e-05
2.291818e+01	-9.269888e-05
2.305055e+01	-9.377281e-05
2.318369e+01	-9.485918e-05
2.331760e+01	-9.595814e-05
2.345228e+01	-9.706983e-05
2.358774e+01	-9.819439e-05
2.372398e+01	-9.933199e-05
2.386101e+01	-1.004828e-04
2.399883e+01	-1.016469e-04
2.413745e+01	-1.028245e-04
2.427686e+01	-1.040157e-04
2.441709e+01	-1.052207e-04
2.455812e+01	-1.064397e-04
2.469997e+01	-1.076729e-04
2.484263e+01	-1.089203e-04
2.498612e+01	-1.101821e-04
2.513044e+01	-1.114586e-04
2.527559e+01	-1.127499e-04
2.542158e+01	-1.140561e-04
2.556842e+01	-1.153774e-04
2.571610e+01	-1.167141e-04
2.586463e+01	-1.180662e-04
2.601403e+01	-1.194340e-04
2.616428e+01	-1.208177e-04
2.631541e+01	-1.222174e-04
2.646740e+01	-1.236333e-04
2.662028e+01	-1.250656e-04
2.677404e+01	-1.265145e-04
2.692868e+01	-1.279802e-04
2.708422e+01	-1.294628e-04
2.724066e+01	-1.309627e-04
2.739800e+01	-1.324799e-04
2.755625e+01	-1.340147e-04
2.771541e+01	-1.355673e-04
2.787550e+01	-1.371378e-04
2.803650e+01	-1.387266e-04
2.819844e+01	-1.403337e-04
2.836131e+01	-1.419595e-04
2.852513e+01	-1.436041e-04
2.868989e+01	-1.452678e-04
2.885560e+01	-1.469507e-04
2.902227e+01	-1.486532e-04
2.918990e+01	-1.503753e-04
2.935850e+01	-1.521174e-04
2.952807e+01	-1.538797e-04
2.969863e+01	-1.556624e-04
2.987016e+01	-1.574658e-04
3.004269e+01	-1.592901e-04
3.021622e+01	-1.611354e-04
3.039075e+01	-1.630022e-04
3.056628e+01	-1.648906e-04
3.074283e+01	-1.668009e-04
3.092040e+01	-1.687333e-04
3.109900e+01	-1.706880e-04
3.127862e+01	-1.726655e-04
3.145929e+01	-1.746658e-04
3.164099e+01	-1.766893e-04
3.182375e+01	-1.787363e-04
3.200756e+01	-1.808069e-04
3.219244e+01	-1.829016e-04
3.237838e+01	-1.850205e-04
3.256540e+01	-1.871640e-04
3.275349e+01	-1.893323e-04
3.294268e+01	-1.915257e-04
3.313295e+01	-1.937445e-04
3.332433e+01	-1.959891e-04
3.351681e+01	-1.982596e-04
3.371040e+01	-2.005564e-04
3.390511e+01	-2.028799e-04
3.410094e+01	-2.052303e-04
3.429791e+01	-2.076079e-04
3.449601e+01	-2.100130e-04
3.469526e+01	-2.124460e-04
3.489566e+01	-2.149072e-04
3.509721e+01	-2.173969e-04
3.529993e+01	-2.199154e-04
3.550382e+01	-2.224631e-04
3.570889e+01	-2.250404e-04
3.591515e+01	-2.276474e-04
3.612259e+01	-2.302847e-04
3.633123e+01	-2.329526e-04
3.654108e+01	-2.356513e-04
3.675214e+01	-2.383813e-04
3.696442e+01	-2.411430e-04
3.717792e+01	-2.439366e-04
3.739266e+01	-2.467626e-04
3.760864e+01	-2.496213e-04
3.782587e+01	-2.525132e-04
3.804435e+01	-2.554385e-04
3.826409e+01	-2.583978e-04
3.848510e+01	-2.613913e-04
3.870739e+01	-2.644195e-04
3.893096e+01	-2.674828e-04
3.915583e+01	-2.705815e-04
3.938199e+01	-2.737162e-04
3.960946e+01	-2.768872e-04
3.983824e+01	-2.800949e-04
4.006834e+01	-2.833397e-04
4.029978e+01	-2.866222e-04
4.053255e+01	-2.899427e-04
4.076666e+01	-2.933017e-04
4.100213e+01	-2.966995e-04
4.123896e+01	-3.001367e-04
4.147715e+01	-3.036138e-04
4.171672e+01	-3.071311e-04
4.195767e+01	-3.106892e-04
4.220002e+01	-3.142885e-04
4.244377e+01	-3.179295e-04
4.268892e+01	-3.216126e-04
4.293549e+01	-3.253385e-04
4.318348e+01	-3.291075e-04
4.343291e+01	-3.329201e-04
4.368377e+01	-3.367769e-04
4.393609e+01	-3.406784e-04
4.418986e+01	-3.446251e-04
4.444510e+01	-3.486175e-04
4.470182e+01	-3.526562e-04
4.496001e+01	-3.567417e-04
4.521970e+01	-3.608744e-04
4.548089e+01	-3.650551e-04
4.574358e+01	-3.692842e-04
4.600779e+01	-3.735623e-04
4.627353e+01	-3.778899e-04
4.654081e+01	-3.822677e-04
4.680963e+01	-3.866961e-04
4.708000e+01	-3.911759e-04
4.735193e+01	-3.957076e-04
4.762543e+01	-4.002918e-04
4.790051e+01	-4.049290e-04
4.817719e+01	-4.096200e-04
4.845545e+01	-4.143654e-04
4.873533e+01	-4.191657e-04
4.901682e+01	-4.240216e-04
4.929994e+01	-4.289338e-04
4.958470e+01	-4.339028e-04
4.987110e+01	-4.389295e-04
5.015915e+01	-4.440143e-04
5.044887e+01	-4.491581e-04
5.074026e+01	-4.543614e-04
5.103333e+01	-4.596251e-04
5.132810e+01	-4.649497e-04
5.162457e+01	-4.703359e-04
5.192275e+01	-4.757846e-04
5.222265e+01	-4.812964e-04
5.252429e+01	-4.868720e-04
5.282767e+01	-4.925123e-04
5.313280e+01	-4.982178e-04
5.343969e+01	-5.039895e-04
5.374836e+01	-5.098280e-04
5.405880e+01	-5.157341e-04
5.437105e+01	-5.217087e-04
5.468509e+01	-5.277525e-04
5.500095e+01	-5.338663e-04
5.531863e+01	-5.400509e-04
5.563815e+01	-5.463071e-04
5.595951e+01	-5.526358e-04
5.628273e+01	-5.590379e-04
5.660782e+01	-5.655140e-04
5.693479e+01	-5.720652e-04
5.726364e+01	-5.786923e-04
5.759439e+01	-5.853962e-04
5.792705e+01	-5.921777e-04
5.826164e+01	-5.990378e-04
5.859815e+01	-6.059773e-04
5.893662e+01	-6.129972e-04
5.927703e+01	-6.200985e-04
5.961941e+01	-6.272820e-04
5.996377e+01	-6.345487e-04
6.031012e+01	-6.418995e-04
6.065847e+01	-6.493356e-04
6.100883e+01	-6.568577e-04
6.136121e+01	-6.644670e-04
6.171563e+01	-6.721645e-04
6.207210e+01	-6.799511e-04
6.243063e+01	-6.878279e-04
6.279122e+01	-6.957959e-04
6.315390e+01	-7.038562e-04
6.351868e+01	-7.120099e-04
6.388556e+01	-7.202581e-04
6.425456e+01	-7.286018e-04
6.462569e+01	-7.370421e-04
6.499897e+01	-7.455802e-04
6.537440e+01	-7.542172e-04
6.575200e+01	-7.629542e-04
6.613178e+01	-7.717925e-04
6.651375e+01	-7.807331e-04
6.689793e+01	-7.897773e-04
6.728433e+01	-7.989263e-04
6.767297e+01	-8.081812e-04
6.806384e+01	-8.175433e-04
6.845698e+01	-8.270138e-04
6.885238e+01	-8.365941e-04
6.925007e+01	-8.462853e-04
6.965005e+01	-8.560888e-04
7.005235e+01	-8.660059e-04
7.045697e+01	-8.760378e-04
7.086393e+01	-8.861859e-04
7.127323e+01	-8.964515e-04
7.168490e+01	-9.068361e-04
7.209895e+01	-9.173409e-04
7.251539e+01	-9.279674e-04
7.293424e+01	-9.387170e-04
7.335551e+01	-9.495911e-04
7.377920e+01	-9.605912e-04
7.420535e+01	-9.717186e-04
7.463396e+01	-9.829750e-04
7.506504e+01	-9.943617e-04
7.549861e+01	-1.005880e-03
7.593469e+01	-1.017532e-03
7.637328e+01	-1.029319e-03
7.681441e+01	-1.041243e-03
7.725809e+01	-1.053304e-03
7.770433e+01	-1.065506e-03
7.815315e+01	-1.077848e-03
7.860456e+01	-1.090334e-03
7.905857e+01	-1.102964e-03
7.951521e+01	-1.115741e-03
7.997449e+01	-1.128665e-03
8.043642e+01	-1.141739e-03
8.090102e+01	-1.154965e-03
8.136830e+01	-1.168344e-03
8.183828e+01	-1.181878e-03
8.231097e+01	-1.195568e-03
8.278640e+01	-1.209417e-03
8.326457e+01	-1.223427e-03
8.374550e+01	-1.237598e-03
8.422921e+01	-1.251934e-03
8.471572e+01	-1.266436e-03
8.520503e+01	-1.281106e-03
8.569717e+01	-1.295946e-03
8.619215e+01	-1.310957e-03
8.669000e+01	-1.326143e-03
8.719071e+01	-1.341504e-03
8.769432e+01	-1.357043e-03
8.820084e+01	-1.372762e-03
8.871029e+01	-1.388664e-03
8.922267e+01	-1.404749e-03
8.973802e+01	-1.421021e-03
9.025634e+01	-1.437481e-03
9.077766e+01	-1.454132e-03
9.130199e+01	-1.470976e-03
9.182935e+01	-1.488014e-03
9.235975e+01	-1.505250e-03
9.289321e+01	-1.522686e-03
9.342976e+01	-1.540324e-03
9.396941e+01	-1.558166e-03
9.451217e+01	-1.576214e-03
9.505807e+01	-1.594472e-03
9.560712e+01	-1.612940e-03
9.615934e+01	-1.631623e-03
9.671476e+01	-1.650522e-03
9.727338e+01	-1.669641e-03
9.783522e+01	-1.688980e-03
9.840032e+01	-1.708543e-03
9.896867e+01	-1.728333e-03
9.954031e+01	-1.748353e-03
1.001153e+02	-1.768604e-03
1.006935e+02	-1.789089e-03
1.012751e+02	-1.809812e-03
1.018601e+02	-1.830775e-03
1.024484e+02	-1.851980e-03
1.030402e+02	-1.873431e-03
1.036353e+02	-1.895131e-03
1.042339e+02	-1.917081e-03
1.048360e+02	-1.939286e-03
1.054415e+02	-1.961748e-03
1.060505e+02	-1.984471e-03
1.066631e+02	-2.007456e-03
1.072791e+02	-2.030707e-03
1.078988e+02	-2.054228e-03
1.085220e+02	-2.078021e-03
1.091488e+02	-2.102090e-03
1.097793e+02	-2.126437e-03
1.104133e+02	-2.151066e-03
1.110511e+02	-2.175981e-03
1.116925e+02	-2.201184e-03
1.123376e+02	-2.226678e-03
1.129865e+02	-2.252468e-03
1.136391e+02	-2.278557e-03
1.142955e+02	-2.304948e-03
1.149556e+02	-2.331644e-03
1.156196e+02	-2.358649e-03
1.162874e+02	-2.385967e-03
1.169591e+02	-2.413602e-03
1.176347e+02	-2.441556e-03
1.183141e+02	-2.469834e-03
1.189975e+02	-2.498440e-03
1.196848e+02	-2.527376e-03
1.203761e+02	-2.556648e-03
1.210714e+02	-2.586259e-03
1.217707e+02	-2.616212e-03
1.224740e+02	-2.646512e-03
1.231814e+02	-2.677163e-03
1.238929e+02	-2.708169e-03
1.246085e+02	-2.739534e-03
1.253283e+02	-2.771262e-03
1.260522e+02	-2.803358e-03
1.267802e+02	-2.835825e-03
1.275125e+02	-2.868668e-03
1.282490e+02	-2.901891e-03
1.289898e+02	-2.935499e-03
1.297348e+02	-2.969496e-03
1.304842e+02	-3.003886e-03
1.312378e+02	-3.038675e-03
1.319959e+02	-3.073866e-03
1.327583e+02	-3.109465e-03
1.335251e+02	-3.145476e-03
1.342963e+02	-3.181904e-03
1.350720e+02	-3.218753e-03
1.358522e+02	-3.256029e-03
1.366368e+02	-3.293737e-03
1.374260e+02	-3.331881e-03
1.382198e+02	-3.370467e-03
1.390182e+02	-3.409499e-03
1.398211e+02	-3.448983e-03
1.406287e+02	-3.488925e-03
1.414410e+02	-3.529328e-03
1.422579e+02	-3.570200e-03
1.430796e+02	-3.611544e-03
1.439060e+02	-3.653367e-03
1.447372e+02	-3.695674e-03
1.455732e+02	-3.738471e-03
1.464141e+02	-3.781764e-03
1.472597e+02	-3.825557e-03
1.481103e+02	-3.869857e-03
1.489658e+02	-3.914670e-03
1.498262e+02	-3.960002e-03
1.506916e+02	-4.005858e-03
1.515620e+02	-4.052246e-03
1.524374e+02	-4.099170e-03
1.533179e+02	-4.146637e-03
1.542034e+02	-4.194654e-03
1.550941e+02	-4.243226e-03
1.559899e+02	-4.292361e-03
1.568909e+02	-4.342064e-03
1.577971e+02	-4.392342e-03
1.587085e+02	-4.443203e-03
1.596252e+02	-4.494652e-03
1.605472e+02	-4.546696e-03
1.614745e+02	-4.599343e-03
1.624072e+02	-4.652599e-03
1.633453e+02	-4.706471e-03
1.642887e+02	-4.760967e-03
1.652377e+02	-4.816093e-03
1.661921e+02	-4.871857e-03
1.671520e+02	-4.928267e-03
1.681175e+02	-4.985330e-03
1.690885e+02	-5.043052e-03
1.700651e+02	-5.101443e-03
1.710474e+02	-5.160509e-03
1.720354e+02	-5.220259e-03
1.730291e+02	-5.280700e-03
1.740285e+02	-5.341841e-03
1.750337e+02	-5.403689e-03
1.760446e+02	-5.466253e-03
1.770615e+02	-5.529540e-03
1.780842e+02	-5.593560e-03
1.791128e+02	-5.658320e-03
1.801473e+02	-5.723830e-03
1.811878e+02	-5.790098e-03
1.822344e+02	-5.857132e-03
1.832870e+02	-5.924942e-03
1.843456e+02	-5.993537e-03
1.854104e+02	-6.062925e-03
1.864813e+02	-6.133116e-03
1.875584e+02	-6.204119e-03
1.886418e+02	-6.275943e-03
1.897313e+02	-6.348598e-03
1.908272e+02	-6.422094e-03
1.919294e+02	-6.496440e-03
1.930380e+02	-6.571645e-03
1.941530e+02	-6.647721e-03
1.952744e+02	-6.724677e-03
1.964023e+02	-6.802523e-03
1.975367e+02	-6.881269e-03
1.986777e+02	-6.960927e-03
1.998252e+02	-7.041505e-03
2.009794e+02	-7.123016e-03
2.021403e+02	-7.205469e-03
2.033078e+02	-7.288876e-03
2.044821e+02	-7.373248e-03
2.056632e+02	-7.458595e-03
2.068511e+02	-7.544929e-03
2.080459e+02	-7.632262e-03
2.092475e+02	-7.720605e-03
2.104561e+02	-7.809970e-03
2.116717e+02	-7.900368e-03
2.128943e+02	-7.991811e-03
2.141240e+02	-8.084312e-03
2.153608e+02	-8.177882e-03
2.166047e+02	-8.272535e-03
2.178558e+02	-8.368282e-03
2.191141e+02	-8.465135e-03
2.203797e+02	-8.563109e-03
2.216526e+02	-8.662216e-03
2.229329e+02	-8.762468e-03
2.242205e+02	-8.863880e-03
2.255156e+02	-8.966464e-03
2.268182e+02	-9.070234e-03
2.281283e+02	-9.175204e-03
2.294459e+02	-9.281387e-03
2.307712e+02	-9.388797e-03
2.321041e+02	-9.497450e-03
2.334447e+02	-9.607358e-03
2.347931e+02	-9.718537e-03
2.361493e+02	-9.831001e-03
2.375133e+02	-9.944765e-03
2.388851e+02	-1.005984e-02
2.402649e+02	-1.017625e-02
2.416527e+02	-1.029401e-02
2.430484e+02	-1.041312e-02
2.444523e+02	-1.053361e-02
2.458642e+02	-1.065550e-02
2.472843e+02	-1.077879e-02
2.487126e+02	-1.090351e-02
2.501492e+02	-1.102967e-02
2.515940e+02	-1.115729e-02
2.530472e+02	-1.128638e-02
2.545088e+02	-1.141696e-02
2.559789e+02	-1.154905e-02
2.574574e+02	-1.168267e-02
2.589444e+02	-1.181783e-02
2.604401e+02	-1.195456e-02
2.619444e+02	-1.209286e-02
2.634574e+02	-1.223276e-02
2.649791e+02	-1.237428e-02
2.665096e+02	-1.251743e-02
2.680489e+02	-1.266223e-02
2.695972e+02	-1.280871e-02
2.711544e+02	-1.295688e-02
2.727205e+02	-1.310676e-02
2.742958e+02	-1.325838e-02
2.758801e+02	-1.341174e-02
2.774736e+02	-1.356688e-02
2.790762e+02	-1.372380e-02
2.806882e+02	-1.388254e-02
2.823094e+02	-1.404311e-02
2.839400e+02	-1.420554e-02
2.855800e+02	-1.436984e-02
2.872295e+02	-1.453604e-02
2.888886e+02	-1.470416e-02
2.905572e+02	-1.487422e-02
2.922354e+02	-1.504624e-02
2.939234e+02	-1.522025e-02
2.956211e+02	-1.539626e-02
2.973286e+02	-1.557431e-02
2.990459e+02	-1.575442e-02
3.007732e+02	-1.593660e-02
3.025104e+02	-1.612088e-02
3.042577e+02	-1.630730e-02
3.060151e+02	-1.649586e-02
3.077826e+02	-1.668660e-02
3.095604e+02	-1.687954e-02
3.113484e+02	-1.707471e-02
3.131467e+02	-1.727213e-02
3.149554e+02	-1.747183e-02
3.167746e+02	-1.767383e-02
3.186043e+02	-1.787817e-02
3.204445e+02	-1.808486e-02
3.222954e+02	-1.829393e-02
3.241570e+02	-1.850542e-02
3.260293e+02	-1.871934e-02
3.279124e+02	-1.893574e-02
3.298064e+02	-1.915463e-02
3.317114e+02	-1.937604e-02
3.336273e+02	-1.960001e-02
3.355544e+02	-1.982656e-02
3.374925e+02	-2.005573e-02
3.394418e+02	-2.028753e-02
3.414024e+02	-2.052201e-02
3.433744e+02	-2.075919e-02
3.453577e+02	-2.099911e-02
3.473525e+02	-2.124180e-02
3.493588e+02	-2.148728e-02
3.513766e+02	-2.173559e-02
3.534062e+02	-2.198676e-02
3.554474e+02	-2.224083e-02
3.575005e+02	-2.249782e-02
3.595654e+02	-2.275778e-02
3.616422e+02	-2.302074e-02
3.637311e+02	-2.328672e-02
3.658320e+02	-2.355577e-02
3.679450e+02	-2.382792e-02
3.700702e+02	-2.410320e-02
3.722077e+02	-2.438166e-02
3.743576e+02	-2.466332e-02
3.765199e+02	-2.494823e-02
3.786946e+02	-2.523642e-02
3.808820e+02	-2.552793e-02
3.830819e+02	-2.582279e-02
3.852946e+02	-2.612105e-02
3.875200e+02	-2.642275e-02
3.897583e+02	-2.672792e-02
3.920096e+02	-2.703660e-02
3.942738e+02	-2.734884e-02
3.965511e+02	-2.766467e-02
3.988416e+02	-2.798414e-02
4.011452e+02	-2.830728e-02
4.034622e+02	-2.863414e-02
4.057926e+02	-2.896477e-02
4.081365e+02	-2.929920e-02
4.104938e+02	-2.963747e-02
4.128648e+02	-2.997964e-02
4.152495e+02	-3.032575e-02
4.176480e+02	-3.067584e-02
4.200603e+02	-3.102995e-02
4.224866e+02	-3.138814e-02
4.249268e+02	-3.175045e-02
4.273812e+02	-3.211692e-02
4.298497e+02	-3.248761e-02
4.323325e+02	-3.286256e-02
4.348297e+02	-3.324182e-02
4.373412e+02	-3.362544e-02
4.398673e+02	-3.401347e-02
4.424079e+02	-3.440596e-02
4.449633e+02	-3.480296e-02
4.475334e+02	-3.520452e-02
4.501183e+02	-3.561070e-02
4.527182e+02	-3.602154e-02
4.553330e+02	-3.643711e-02
4.579630e+02	-3.685744e-02
4.606082e+02	-3.728261e-02
4.632687e+02	-3.771266e-02
4.659445e+02	-3.814765e-02
4.686358e+02	-3.858763e-02
4.713426e+02	-3.903266e-02
4.740650e+02	-3.948281e-02
4.768032e+02	-3.993812e-02
4.795572e+02	-4.039865e-02
4.823271e+02	-4.086448e-02
4.851130e+02	-4.133564e-02
4.879150e+02	-4.181222e-02
4.907332e+02	-4.229426e-02
4.935676e+02	-4.278183e-02
4.964185e+02	-4.327500e-02
4.992858e+02	-4.377382e-02
5.021696e+02	-4.427836e-02
5.050701e+02	-4.478868e-02
5.079874e+02	-4.530486e-02
5.109215e+02	-4.582695e-02
5.138726e+02	-4.635503e-02
5.168407e+02	-4.688916e-02
5.198259e+02	-4.742942e-02
5.228284e+02	-4.797586e-02
5.258482e+02	-4.852856e-02
5.288855e+02	-4.908759e-02
5.319403e+02	-4.965303e-02
5.350128e+02	-5.022494e-02
5.381030e+02	-5.080340e-02
5.412111e+02	-5.138849e-02
5.443371e+02	-5.198027e-02
5.474812e+02	-5.257882e-02
5.506434e+02	-5.318423e-02
5.538239e+02	-5.379656e-02
5.570228e+02	-5.441590e-02
5.602401e+02	-5.504232e-02
5.634760e+02	-5.567591e-02
5.667306e+02	-5.631674e-02
5.700040e+02	-5.696490e-02
5.732964e+02	-5.762047e-02
5.766077e+02	-5.828354e-02
5.799382e+02	-5.895418e-02
5.832879e+02	-5.963249e-02
5.866569e+02	-6.031854e-02
5.900454e+02	-6.101244e-02
5.934535e+02	-6.171426e-02
5.968813e+02	-6.242409e-02
6.003288e+02	-6.314203e-02
6.037963e+02	-6.386817e-02
6.072838e+02	-6.460259e-02
6.107914e+02	-6.534539e-02
6.143194e+02	-6.609667e-02
6.178676e+02	-6.685653e-02
6.214364e+02	-6.762504e-02
6.250258e+02	-6.840233e-02
6.286359e+02	-6.918847e-02
6.322669e+02	-6.998358e-02
6.359189e+02	-7.078775e-02
6.395919e+02	-7.160108e-02
6.432862e+02	-7.242369e-02
6.470017e+02	-7.325566e-02
6.507388e+02	-7.409711e-02
6.544974e+02	-7.494813e-02
6.582778e+02	-7.580885e-02
6.620800e+02	-7.667937e-02
6.659041e+02	-7.755979e-02
6.697504e+02	-7.845023e-02
6.736188e+02	-7.935080e-02
6.775096e+02	-8.026161e-02
6.814229e+02	-8.118277e-02
6.853587e+02	-8.211441e-02
6.893173e+02	-8.305664e-02
6.932988e+02	-8.400958e-02
6.973033e+02	-8.497334e-02
7.013309e+02	-8.594804e-02
