Frequency(Hz)	Magnitude(dB)
1.000000e+01	-1.999504e+00
1.005776e+01	-2.018093e+00
1.011585e+01	-2.036680e+00
1.017428e+01	-2.055556e+00
1.023305e+01	-2.074709e+00
1.029215e+01	-2.093661e+00
1.035160e+01	-2.112780e+00
1.041139e+01	-2.131946e+00
1.047153e+01	-2.151517e+00
1.053201e+01	-2.171106e+00
1.059284e+01	-2.190958e+00
1.065403e+01	-2.210867e+00
1.071556e+01	-2.230959e+00
1.077746e+01	-2.251160e+00
1.083971e+01	-2.271228e+00
1.090232e+01	-2.291683e+00
1.096529e+01	-2.312305e+00
1.102862e+01	-2.333139e+00
1.109232e+01	-2.353895e+00
1.115639e+01	-2.374964e+00
1.122083e+01	-2.396117e+00
1.128564e+01	-2.417320e+00
1.135083e+01	-2.438908e+00
1.141639e+01	-2.460254e+00
1.148233e+01	-2.481988e+00
1.154865e+01	-2.503941e+00
1.161536e+01	-2.526173e+00
1.168245e+01	-2.548032e+00
1.174992e+01	-2.570303e+00
1.181779e+01	-2.592828e+00
1.188605e+01	-2.615139e+00
1.195470e+01	-2.637977e+00
1.202375e+01	-2.660891e+00
1.209320e+01	-2.683971e+00
1.216305e+01	-2.707112e+00
1.223330e+01	-2.730286e+00
1.230396e+01	-2.753655e+00
1.237503e+01	-2.777186e+00
1.244651e+01	-2.800760e+00
1.251840e+01	-2.824857e+00
1.259070e+01	-2.848779e+00
1.266343e+01	-2.872892e+00
1.273657e+01	-2.897208e+00
1.281014e+01	-2.921502e+00
1.288413e+01	-2.946126e+00
1.295855e+01	-2.971110e+00
1.303339e+01	-2.995700e+00
1.310867e+01	-3.020849e+00
1.318439e+01	-3.046052e+00
1.326054e+01	-3.071185e+00
1.333713e+01	-3.096686e+00
1.341417e+01	-3.122033e+00
1.349165e+01	-3.148023e+00
1.356958e+01	-3.173710e+00
1.364795e+01	-3.199653e+00
1.372678e+01	-3.226027e+00
1.380607e+01	-3.252386e+00
1.388581e+01	-3.278536e+00
1.396602e+01	-3.305245e+00
1.404668e+01	-3.332021e+00
1.412782e+01	-3.358894e+00
1.420942e+01	-3.385719e+00
1.429149e+01	-3.413002e+00
1.437404e+01	-3.440545e+00
1.445706e+01	-3.467646e+00
1.454057e+01	-3.495467e+00
1.462455e+01	-3.523084e+00
1.470902e+01	-3.551088e+00
1.479398e+01	-3.578619e+00
1.487943e+01	-3.606890e+00
1.496537e+01	-3.635483e+00
1.505181e+01	-3.663756e+00
1.513875e+01	-3.692628e+00
1.522619e+01	-3.721200e+00
1.531414e+01	-3.749983e+00
1.540259e+01	-3.779212e+00
1.549156e+01	-3.808078e+00
1.558103e+01	-3.837609e+00
1.567103e+01	-3.866896e+00
1.576155e+01	-3.896347e+00
1.585258e+01	-3.926149e+00
1.594415e+01	-3.956090e+00
1.603624e+01	-3.985749e+00
1.612886e+01	-4.016064e+00
1.622202e+01	-4.046242e+00
1.631572e+01	-4.076666e+00
1.640996e+01	-4.107285e+00
1.650474e+01	-4.137740e+00
1.660008e+01	-4.168592e+00
1.669596e+01	-4.199410e+00
1.679239e+01	-4.230613e+00
1.688938e+01	-4.262034e+00
1.698694e+01	-4.293180e+00
1.708505e+01	-4.324968e+00
1.718373e+01	-4.356400e+00
1.728299e+01	-4.387803e+00
1.738281e+01	-4.420068e+00
1.748322e+01	-4.452065e+00
1.758420e+01	-4.484155e+00
1.768576e+01	-4.516317e+00
1.778792e+01	-4.548857e+00
1.789066e+01	-4.581428e+00
1.799399e+01	-4.613761e+00
1.809793e+01	-4.646680e+00
1.820246e+01	-4.679658e+00
1.830760e+01	-4.712886e+00
1.841334e+01	-4.745885e+00
1.851969e+01	-4.778953e+00
1.862666e+01	-4.812741e+00
1.873425e+01	-4.846411e+00
1.884246e+01	-4.879962e+00
1.895129e+01	-4.913686e+00
1.906075e+01	-4.947770e+00
1.917085e+01	-4.981965e+00
1.928158e+01	-5.016030e+00
1.939295e+01	-5.050506e+00
1.950496e+01	-5.084721e+00
1.961762e+01	-5.119438e+00
1.973093e+01	-5.153995e+00
1.984490e+01	-5.188791e+00
1.995952e+01	-5.223591e+00
2.007480e+01	-5.258908e+00
2.019076e+01	-5.293961e+00
2.030738e+01	-5.329365e+00
2.042467e+01	-5.364654e+00
2.054264e+01	-5.400808e+00
2.066130e+01	-5.436041e+00
2.078064e+01	-5.471563e+00
2.090066e+01	-5.507748e+00
2.102139e+01	-5.543401e+00
2.114280e+01	-5.579828e+00
2.126492e+01	-5.616114e+00
2.138775e+01	-5.652216e+00
2.151128e+01	-5.688957e+00
2.163553e+01	-5.725386e+00
2.176050e+01	-5.762078e+00
2.188619e+01	-5.798892e+00
2.201260e+01	-5.836101e+00
2.213974e+01	-5.872410e+00
2.226762e+01	-5.910249e+00
2.239624e+01	-5.947321e+00
2.252560e+01	-5.984920e+00
2.265571e+01	-6.022332e+00
2.278656e+01	-6.059969e+00
2.291818e+01	-6.097749e+00
2.305055e+01	-6.135348e+00
2.318369e+01	-6.173120e+00
2.331760e+01	-6.211015e+00
2.345228e+01	-6.249260e+00
2.358774e+01	-6.287547e+00
2.372398e+01	-6.325723e+00
2.386101e+01	-6.363934e+00
2.399883e+01	-6.402726e+00
2.413745e+01	-6.441273e+00
2.427686e+01	-6.480101e+00
2.441709e+01	-6.518595e+00
2.455812e+01	-6.558117e+00
2.469997e+01	-6.597087e+00
2.484263e+01	-6.635900e+00
2.498612e+01	-6.675162e+00
2.513044e+01	-6.714666e+00
2.527559e+01	-6.754047e+00
2.542158e+01	-6.793646e+00
2.556842e+01	-6.832666e+00
2.571610e+01	-6.872590e+00
2.586463e+01	-6.912354e+00
2.601403e+01	-6.952532e+00
2.616428e+01	-6.992455e+00
2.631541e+01	-7.032501e+00
2.646740e+01	-7.072624e+00
2.662028e+01	-7.112815e+00
2.677404e+01	-7.153413e+00
2.692868e+01	-7.193909e+00
2.708422e+01	-7.234111e+00
2.724066e+01	-7.274825e+00
2.739800e+01	-7.315194e+00
2.755625e+01	-7.355973e+00
2.771541e+01	-7.397202e+00
2.787550e+01	-7.437933e+00
2.803650e+01	-7.478910e+00
2.819844e+01	-7.519989e+00
2.836131e+01	-7.561230e+00
2.852513e+01	-7.602927e+00
2.868989e+01	-7.644197e+00
2.885560e+01	-7.685226e+00
2.902227e+01	-7.726951e+00
2.918990e+01	-7.769001e+00
2.935850e+01	-7.810407e+00
2.952807e+01	-7.852148e+00
2.969863e+01	-7.894129e+00
2.987016e+01	-7.936240e+00
3.004269e+01	-7.978168e+00
3.021622e+01	-8.019951e+00
3.039075e+01	-8.062451e+00
3.056628e+01	-8.104381e+00
3.074283e+01	-8.146670e+00
3.092040e+01	-8.189251e+00
3.109900e+01	-8.231583e+00
3.127862e+01	-8.274255e+00
3.145929e+01	-8.317003e+00
3.164099e+01	-8.359676e+00
3.182375e+01	-8.402438e+00
3.200756e+01	-8.445351e+00
3.219244e+01	-8.487827e+00
3.237838e+01	-8.531060e+00
3.256540e+01	-8.574146e+00
3.275349e+01	-8.616872e+00
3.294268e+01	-8.660561e+00
3.313295e+01	-8.703616e+00
3.332433e+01	-8.747183e+00
3.351681e+01	-8.790417e+00
3.371040e+01	-8.833845e+00
3.390511e+01	-8.877114e+00
3.410094e+01	-8.920691e+00
3.429791e+01	-8.964292e+00
3.449601e+01	-9.008175e+00
3.469526e+01	-9.051858e+00
3.489566e+01	-9.096260e+00
3.509721e+01	-9.140096e+00
3.529993e+01	-9.184283e+00
3.550382e+01	-9.227746e+00
3.570889e+01	-9.271791e+00
3.591515e+01	-9.316157e+00
3.612259e+01	-9.360668e+00
3.633123e+01	-9.404304e+00
3.654108e+01	-9.448440e+00
3.675214e+01	-9.493178e+00
3.696442e+01	-9.537840e+00
3.717792e+01	-9.582038e+00
3.739266e+01	-9.626798e+00
3.760864e+01	-9.671074e+00
3.782587e+01	-9.716106e+00
3.804435e+01	-9.760783e+00
3.826409e+01	-9.805730e+00
3.848510e+01	-9.849849e+00
3.870739e+01	-9.894859e+00
3.893096e+01	-9.939865e+00
3.915583e+01	-9.984367e+00
3.938199e+01	-1.002997e+01
3.960946e+01	-1.007532e+01
3.983824e+01	-1.012005e+01
4.006834e+01	-1.016576e+01
4.029978e+01	-1.021098e+01
4.053255e+01	-1.025562e+01
4.076666e+01	-1.030101e+01
4.100213e+01	-1.034637e+01
4.123896e+01	-1.039164e+01
4.147715e+01	-1.043767e+01
4.171672e+01	-1.048287e+01
4.195767e+01	-1.052854e+01
4.220002e+01	-1.057405e+01
4.244377e+01	-1.062020e+01
4.268892e+01	-1.066523e+01
4.293549e+01	-1.071167e+01
4.318348e+01	-1.075820e+01
4.343291e+01	-1.080312e+01
4.368377e+01	-1.084869e+01
4.393609e+01	-1.089485e+01
4.418986e+01	-1.094108e+01
4.444510e+01	-1.098745e+01
4.470182e+01	-1.103310e+01
4.496001e+01	-1.107830e+01
4.521970e+01	-1.112526e+01
4.548089e+01	-1.117166e+01
4.574358e+01	-1.121754e+01
4.600779e+01	-1.126403e+01
4.627353e+01	-1.130973e+01
4.654081e+01	-1.135675e+01
4.680963e+01	-1.140347e+01
4.708000e+01	-1.144919e+01
4.735193e+01	-1.149565e+01
4.762543e+01	-1.154246e+01
4.790051e+01	-1.158894e+01
4.817719e+01	-1.163554e+01
4.845545e+01	-1.168199e+01
4.873533e+01	-1.172818e+01
4.901682e+01	-1.177602e+01
4.929994e+01	-1.182169e+01
4.958470e+01	-1.186871e+01
4.987110e+01	-1.191572e+01
5.015915e+01	-1.196257e+01
5.044887e+01	-1.200905e+01
5.074026e+01	-1.205627e+01
5.103333e+01	-1.210246e+01
5.132810e+01	-1.215048e+01
5.162457e+01	-1.219739e+01
5.192275e+01	-1.224352e+01
5.222265e+01	-1.229072e+01
5.252429e+01	-1.233804e+01
5.282767e+01	-1.238506e+01
5.313280e+01	-1.243241e+01
5.343969e+01	-1.248001e+01
5.374836e+01	-1.252711e+01
5.405880e+01	-1.257417e+01
5.437105e+01	-1.262129e+01
5.468509e+01	-1.266901e+01
5.500095e+01	-1.271655e+01
5.531863e+01	-1.276317e+01
5.563815e+01	-1.281080e+01
5.595951e+01	-1.285789e+01
5.628273e+01	-1.290520e+01
5.660782e+01	-1.295292e+01
5.693479e+01	-1.299988e+01
5.726364e+01	-1.304792e+01
5.759439e+01	-1.309519e+01
5.792705e+01	-1.314411e+01
5.826164e+01	-1.319131e+01
5.859815e+01	-1.323906e+01
5.893662e+01	-1.328617e+01
5.927703e+01	-1.333343e+01
5.961941e+01	-1.338179e+01
5.996377e+01	-1.342912e+01
6.031012e+01	-1.347649e+01
6.065847e+01	-1.352480e+01
6.100883e+01	-1.357286e+01
6.136121e+01	-1.362102e+01
6.171563e+01	-1.366890e+01
6.207210e+01	-1.371679e+01
6.243063e+01	-1.376432e+01
6.279122e+01	-1.381202e+01
6.315390e+01	-1.386045e+01
6.351868e+01	-1.390820e+01
6.388556e+01	-1.395625e+01
6.425456e+01	-1.400393e+01
6.462569e+01	-1.405269e+01
6.499897e+01	-1.410023e+01
6.537440e+01	-1.414917e+01
6.575200e+01	-1.419625e+01
6.613178e+01	-1.424504e+01
6.651375e+01	-1.429345e+01
6.689793e+01	-1.434121e+01
6.728433e+01	-1.438947e+01
6.767297e+01	-1.443751e+01
6.806384e+01	-1.448569e+01
6.845698e+01	-1.453332e+01
6.885238e+01	-1.458201e+01
6.925007e+01	-1.463081e+01
6.965005e+01	-1.467877e+01
7.005235e+01	-1.472671e+01
7.045697e+01	-1.477519e+01
7.086393e+01	-1.482427e+01
7.127323e+01	-1.487295e+01
7.168490e+01	-1.492038e+01
7.209895e+01	-1.496938e+01
7.251539e+01	-1.501788e+01
7.293424e+01	-1.506592e+01
7.335551e+01	-1.511501e+01
7.377920e+01	-1.516254e+01
7.420535e+01	-1.521134e+01
7.463396e+01	-1.525985e+01
7.506504e+01	-1.530897e+01
7.549861e+01	-1.535694e+01
7.593469e+01	-1.540623e+01
7.637328e+01	-1.545360e+01
7.681441e+01	-1.550263e+01
7.725809e+01	-1.555188e+01
7.770433e+01	-1.560058e+01
7.815315e+01	-1.564943e+01
7.860456e+01	-1.569772e+01
7.905857e+01	-1.574563e+01
7.951521e+01	-1.579467e+01
7.997449e+01	-1.584385e+01
8.043642e+01	-1.589240e+01
8.090102e+01	-1.594093e+01
8.136830e+01	-1.598920e+01
8.183828e+01	-1.603940e+01
8.231097e+01	-1.608720e+01
8.278640e+01	-1.613645e+01
8.326457e+01	-1.618518e+01
8.374550e+01	-1.623420e+01
8.422921e+01	-1.628251e+01
8.471572e+01	-1.633202e+01
8.520503e+01	-1.637987e+01
8.569717e+01	-1.642979e+01
8.619215e+01	-1.647808e+01
8.669000e+01	-1.652741e+01
8.719071e+01	-1.657610e+01
8.769432e+01	-1.662548e+01
8.820084e+01	-1.667410e+01
8.871029e+01	-1.672355e+01
8.922267e+01	-1.677202e+01
8.973802e+01	-1.682092e+01
9.025634e+01	-1.687048e+01
9.077766e+01	-1.691932e+01
9.130199e+01	-1.696807e+01
9.182935e+01	-1.701738e+01
9.235975e+01	-1.706674e+01
9.289321e+01	-1.711375e+01
9.342976e+01	-1.716396e+01
9.396941e+01	-1.721226e+01
9.451217e+01	-1.726207e+01
9.505807e+01	-1.731077e+01
9.560712e+01	-1.736000e+01
9.615934e+01	-1.741012e+01
9.671476e+01	-1.745801e+01
9.727338e+01	-1.750719e+01
9.783522e+01	-1.755705e+01
9.840032e+01	-1.760654e+01
9.896867e+01	-1.765514e+01
9.954031e+01	-1.770409e+01
1.001153e+02	-1.775387e+01
1.006935e+02	-1.780185e+01
1.012751e+02	-1.785289e+01
1.018601e+02	-1.790124e+01
1.024484e+02	-1.795071e+01
1.030402e+02	-1.800047e+01
1.036353e+02	-1.804901e+01
1.042339e+02	-1.809878e+01
1.048360e+02	-1.814735e+01
1.054415e+02	-1.819693e+01
1.060505e+02	-1.824740e+01
1.066631e+02	-1.829672e+01
1.072791e+02	-1.834460e+01
1.078988e+02	-1.839365e+01
1.085220e+02	-1.844341e+01
1.091488e+02	-1.849307e+01
1.097793e+02	-1.854148e+01
1.104133e+02	-1.859106e+01
1.110511e+02	-1.864028e+01
1.116925e+02	-1.868918e+01
1.123376e+02	-1.874144e+01
1.129865e+02	-1.878933e+01
1.136391e+02	-1.883773e+01
1.142955e+02	-1.888818e+01
1.149556e+02	-1.893772e+01
1.156196e+02	-1.898636e+01
1.162874e+02	-1.903653e+01
1.169591e+02	-1.908619e+01
1.176347e+02	-1.913369e+01
1.183141e+02	-1.918451e+01
1.189975e+02	-1.923323e+01
1.196848e+02	-1.928172e+01
1.203761e+02	-1.933408e+01
1.210714e+02	-1.938219e+01
1.217707e+02	-1.942939e+01
1.224740e+02	-1.948129e+01
1.231814e+02	-1.953023e+01
1.238929e+02	-1.958036e+01
1.246085e+02	-1.962918e+01
1.253283e+02	-1.967818e+01
1.260522e+02	-1.972917e+01
1.267802e+02	-1.977945e+01
1.275125e+02	-1.982755e+01
1.282490e+02	-1.987560e+01
1.289898e+02	-1.992546e+01
1.297348e+02	-1.997486e+01
1.304842e+02	-2.002538e+01
1.312378e+02	-2.007549e+01
1.319959e+02	-2.012504e+01
1.327583e+02	-2.017504e+01
1.335251e+02	-2.022304e+01
1.342963e+02	-2.027344e+01
1.350720e+02	-2.032321e+01
1.358522e+02	-2.037379e+01
1.366368e+02	-2.042242e+01
1.374260e+02	-2.047225e+01
1.382198e+02	-2.052159e+01
1.390182e+02	-2.056981e+01
1.398211e+02	-2.061956e+01
1.406287e+02	-2.067132e+01
1.414410e+02	-2.072070e+01
1.422579e+02	-2.076797e+01
1.430796e+02	-2.081902e+01
1.439060e+02	-2.086903e+01
1.447372e+02	-2.091772e+01
1.455732e+02	-2.096730e+01
1.464141e+02	-2.101823e+01
1.472597e+02	-2.106754e+01
1.481103e+02	-2.111583e+01
1.489658e+02	-2.116748e+01
1.498262e+02	-2.121624e+01
1.506916e+02	-2.126623e+01
1.515620e+02	-2.131706e+01
1.524374e+02	-2.136537e+01
1.533179e+02	-2.141452e+01
1.542034e+02	-2.146492e+01
1.550941e+02	-2.151355e+01
1.559899e+02	-2.156435e+01
1.568909e+02	-2.161299e+01
1.577971e+02	-2.166309e+01
1.587085e+02	-2.171223e+01
1.596252e+02	-2.176088e+01
1.605472e+02	-2.181266e+01
1.614745e+02	-2.186140e+01
1.624072e+02	-2.191265e+01
1.633453e+02	-2.196036e+01
1.642887e+02	-2.201019e+01
1.652377e+02	-2.206010e+01
1.661921e+02	-2.210956e+01
1.671520e+02	-2.216066e+01
1.681175e+02	-2.221034e+01
1.690885e+02	-2.225866e+01
1.700651e+02	-2.231033e+01
1.710474e+02	-2.236023e+01
1.720354e+02	-2.240940e+01
1.730291e+02	-2.245749e+01
1.740285e+02	-2.250955e+01
1.750337e+02	-2.255917e+01
1.760446e+02	-2.260711e+01
1.770615e+02	-2.265762e+01
1.780842e+02	-2.270716e+01
1.791128e+02	-2.275661e+01
1.801473e+02	-2.280992e+01
1.811878e+02	-2.285931e+01
1.822344e+02	-2.290610e+01
1.832870e+02	-2.295636e+01
1.843456e+02	-2.300556e+01
1.854104e+02	-2.305778e+01
1.864813e+02	-2.310526e+01
1.875584e+02	-2.315499e+01
1.886418e+02	-2.320954e+01
1.897313e+02	-2.325469e+01
1.908272e+02	-2.330439e+01
1.919294e+02	-2.335608e+01
1.930380e+02	-2.340649e+01
1.941530e+02	-2.345631e+01
1.952744e+02	-2.350275e+01
1.964023e+02	-2.355533e+01
1.975367e+02	-2.360340e+01
1.986777e+02	-2.365494e+01
1.998252e+02	-2.370392e+01
2.009794e+02	-2.375133e+01
2.021403e+02	-2.380333e+01
2.033078e+02	-2.385248e+01
2.044821e+02	-2.390294e+01
2.056632e+02	-2.395244e+01
2.068511e+02	-2.400271e+01
2.080459e+02	-2.405363e+01
2.092475e+02	-2.410398e+01
2.104561e+02	-2.415279e+01
2.116717e+02	-2.420153e+01
2.128943e+02	-2.425258e+01
2.141240e+02	-2.430302e+01
2.153608e+02	-2.435295e+01
2.166047e+02	-2.440033e+01
2.178558e+02	-2.445211e+01
2.191141e+02	-2.450121e+01
2.203797e+02	-2.455163e+01
2.216526e+02	-2.460124e+01
2.229329e+02	-2.465010e+01
2.242205e+02	-2.470349e+01
2.255156e+02	-2.475070e+01
2.268182e+02	-2.480156e+01
2.281283e+02	-2.485001e+01
2.294459e+02	-2.490099e+01
2.307712e+02	-2.495055e+01
2.321041e+02	-2.499991e+01
2.334447e+02	-2.505249e+01
2.347931e+02	-2.510086e+01
2.361493e+02	-2.514994e+01
2.375133e+02	-2.520262e+01
2.388851e+02	-2.524956e+01
2.402649e+02	-2.529790e+01
2.416527e+02	-2.534847e+01
2.430484e+02	-2.539967e+01
2.444523e+02	-2.545339e+01
2.458642e+02	-2.550014e+01
2.472843e+02	-2.555077e+01
2.487126e+02	-2.559871e+01
2.501492e+02	-2.565168e+01
2.515940e+02	-2.570116e+01
2.530472e+02	-2.574843e+01
2.545088e+02	-2.579931e+01
2.559789e+02	-2.585014e+01
2.574574e+02	-2.589746e+01
2.589444e+02	-2.595114e+01
2.604401e+02	-2.600090e+01
2.619444e+02	-2.604926e+01
2.634574e+02	-2.610175e+01
2.649791e+02	-2.615063e+01
2.665096e+02	-2.619778e+01
2.680489e+02	-2.625061e+01
2.695972e+02	-2.630147e+01
2.711544e+02	-2.634827e+01
2.727205e+02	-2.639813e+01
2.742958e+02	-2.645059e+01
2.758801e+02	-2.649971e+01
2.774736e+02	-2.654651e+01
2.790762e+02	-2.659828e+01
2.806882e+02	-2.664935e+01
2.823094e+02	-2.669903e+01
2.839400e+02	-2.674820e+01
2.855800e+02	-2.679796e+01
2.872295e+02	-2.684897e+01
2.888886e+02	-2.689913e+01
2.905572e+02	-2.695017e+01
2.922354e+02	-2.699521e+01
2.939234e+02	-2.704573e+01
2.956211e+02	-2.709899e+01
2.973286e+02	-2.714761e+01
2.990459e+02	-2.720239e+01
3.007732e+02	-2.724796e+01
3.025104e+02	-2.729855e+01
3.042577e+02	-2.735043e+01
3.060151e+02	-2.739812e+01
3.077826e+02	-2.745321e+01
3.095604e+02	-2.750088e+01
3.113484e+02	-2.754836e+01
3.131467e+02	-2.760112e+01
3.149554e+02	-2.765044e+01
3.167746e+02	-2.769718e+01
3.186043e+02	-2.775330e+01
3.204445e+02	-2.779647e+01
3.222954e+02	-2.784790e+01
3.241570e+02	-2.789932e+01
3.260293e+02	-2.794983e+01
3.279124e+02	-2.800307e+01
3.298064e+02	-2.805025e+01
3.317114e+02	-2.810177e+01
3.336273e+02	-2.815181e+01
3.355544e+02	-2.820115e+01
3.374925e+02	-2.824793e+01
3.394418e+02	-2.830092e+01
3.414024e+02	-2.834887e+01
3.433744e+02	-2.840073e+01
3.453577e+02	-2.845364e+01
3.473525e+02	-2.849227e+01
3.493588e+02	-2.854997e+01
3.513766e+02	-2.860066e+01
3.534062e+02	-2.864628e+01
3.554474e+02	-2.870022e+01
3.575005e+02	-2.874872e+01
3.595654e+02	-2.879802e+01
3.616422e+02	-2.885048e+01
3.637311e+02	-2.890031e+01
3.658320e+02	-2.894466e+01
3.679450e+02	-2.899835e+01
3.700702e+02	-2.905100e+01
3.722077e+02	-2.910407e+01
3.743576e+02	-2.914842e+01
3.765199e+02	-2.920023e+01
3.786946e+02	-2.925044e+01
3.808820e+02	-2.930042e+01
3.830819e+02	-2.934818e+01
3.852946e+02	-2.939817e+01
3.875200e+02	-2.945492e+01
3.897583e+02	-2.950128e+01
3.920096e+02	-2.954535e+01
3.942738e+02	-2.960105e+01
3.965511e+02	-2.965486e+01
3.988416e+02	-2.970028e+01
4.011452e+02	-2.975056e+01
4.034622e+02	-2.980203e+01
4.057926e+02	-2.985295e+01
4.081365e+02	-2.990399e+01
4.104938e+02	-2.995375e+01
4.128648e+02	-2.999974e+01
4.152495e+02	-3.004849e+01
4.176480e+02	-3.010216e+01
4.200603e+02	-3.015554e+01
4.224866e+02	-3.020108e+01
4.249268e+02	-3.025139e+01
4.273812e+02	-3.030673e+01
4.298497e+02	-3.035439e+01
4.323325e+02	-3.040109e+01
4.348297e+02	-3.045611e+01
4.373412e+02	-3.050048e+01
4.398673e+02	-3.055218e+01
4.424079e+02	-3.060128e+01
4.449633e+02	-3.065551e+01
4.475334e+02	-3.070083e+01
4.501183e+02	-3.074555e+01
4.527182e+02	-3.079770e+01
4.553330e+02	-3.085520e+01
4.579630e+02	-3.090384e+01
4.606082e+02	-3.095402e+01
4.632687e+02	-3.099818e+01
4.659445e+02	-3.105538e+01
4.686358e+02	-3.109756e+01
4.713426e+02	-3.115940e+01
4.740650e+02	-3.120887e+01
4.768032e+02	-3.125453e+01
4.795572e+02	-3.131013e+01
4.823271e+02	-3.136140e+01
4.851130e+02	-3.140107e+01
4.879150e+02	-3.145517e+01
4.907332e+02	-3.150950e+01
4.935676e+02	-3.155768e+01
4.964185e+02	-3.160252e+01
4.992858e+02	-3.165831e+01
5.021696e+02	-3.170663e+01
5.050701e+02	-3.175197e+01
5.079874e+02	-3.180677e+01
5.109215e+02	-3.185857e+01
5.138726e+02	-3.190992e+01
5.168407e+02	-3.195522e+01
5.198259e+02	-3.200774e+01
5.228284e+02	-3.205736e+01
5.258482e+02	-3.210746e+01
5.288855e+02	-3.215365e+01
5.319403e+02	-3.220580e+01
5.350128e+02	-3.226180e+01
5.381030e+02	-3.230748e+01
5.412111e+02	-3.236245e+01
5.443371e+02	-3.241244e+01
5.474812e+02	-3.246002e+01
5.506434e+02	-3.251004e+01
5.538239e+02	-3.255910e+01
5.570228e+02	-3.260436e+01
5.602401e+02	-3.265604e+01
5.634760e+02	-3.270288e+01
5.667306e+02	-3.276440e+01
5.700040e+02	-3.281175e+01
5.732964e+02	-3.286859e+01
5.766077e+02	-3.291428e+01
5.799382e+02	-3.295714e+01
5.832879e+02	-3.301665e+01
5.866569e+02	-3.306334e+01
5.900454e+02	-3.311155e+01
5.934535e+02	-3.317116e+01
5.968813e+02	-3.321574e+01
6.003288e+02	-3.326571e+01
6.037963e+02	-3.331460e+01
6.072838e+02	-3.335781e+01
6.107914e+02	-3.341298e+01
6.143194e+02	-3.346489e+01
6.178676e+02	-3.351592e+01
6.214364e+02	-3.356375e+01
6.250258e+02	-3.361376e+01
6.286359e+02	-3.366383e+01
6.322669e+02	-3.371413e+01
6.359189e+02	-3.376612e+01
6.395919e+02	-3.382249e+01
6.432862e+02	-3.386959e+01
6.470017e+02	-3.391105e+01
6.507388e+02	-3.396207e+01
6.544974e+02	-3.402002e+01
6.582778e+02	-3.407051e+01
6.620800e+02	-3.412084e+01
6.659041e+02	-3.417569e+01
6.697504e+02	-3.422091e+01
6.736188e+02	-3.426271e+01
6.775096e+02	-3.431287e+01
6.814229e+02	-3.436980e+01
6.853587e+02	-3.442084e+01
6.893173e+02	-3.447116e+01
6.932988e+02	-3.452657e+01
6.973033e+02	-3.457030e+01
7.013309e+02	-3.461584e+01
