Frequency(Hz)	Magnitude(dB)
1.000000e+01	-1.802690e-05
1.005776e+01	-1.823575e-05
1.011585e+01	-1.844701e-05
1.017428e+01	-1.866073e-05
1.023305e+01	-1.887692e-05
1.029215e+01	-1.909561e-05
1.035160e+01	-1.931684e-05
1.041139e+01	-1.954063e-05
1.047153e+01	-1.976701e-05
1.053201e+01	-1.999602e-05
1.059284e+01	-2.022767e-05
1.065403e+01	-2.046202e-05
1.071556e+01	-2.069908e-05
1.077746e+01	-2.093888e-05
1.083971e+01	-2.118146e-05
1.090232e+01	-2.142685e-05
1.096529e+01	-2.167509e-05
1.102862e+01	-2.192620e-05
1.109232e+01	-2.218022e-05
1.115639e+01	-2.243718e-05
1.122083e+01	-2.269712e-05
1.128564e+01	-2.296008e-05
1.135083e+01	-2.322608e-05
1.141639e+01	-2.349515e-05
1.148233e+01	-2.376735e-05
1.154865e+01	-2.404270e-05
1.161536e+01	-2.432124e-05
1.168245e+01	-2.460301e-05
1.174992e+01	-2.488804e-05
1.181779e+01	-2.517638e-05
1.188605e+01	-2.546805e-05
1.195470e+01	-2.576311e-05
1.202375e+01	-2.606158e-05
1.209320e+01	-2.636351e-05
1.216305e+01	-2.666893e-05
1.223330e+01	-2.697790e-05
1.230396e+01	-2.729045e-05
1.237503e+01	-2.760661e-05
1.244651e+01	-2.792644e-05
1.251840e+01	-2.824998e-05
1.259070e+01	-2.857726e-05
1.266343e+01	-2.890833e-05
1.273657e+01	-2.924324e-05
1.281014e+01	-2.958203e-05
1.288413e+01	-2.992475e-05
1.295855e+01	-3.027143e-05
1.303339e+01	-3.062214e-05
1.310867e+01	-3.097690e-05
1.318439e+01	-3.133578e-05
1.326054e+01	-3.169881e-05
1.333713e+01	-3.206605e-05
1.341417e+01	-3.243754e-05
1.349165e+01	-3.281334e-05
1.356958e+01	-3.319349e-05
1.364795e+01	-3.357804e-05
1.372678e+01	-3.396705e-05
1.380607e+01	-3.436057e-05
1.388581e+01	-3.475864e-05
1.396602e+01	-3.516133e-05
1.404668e+01	-3.556868e-05
1.412782e+01	-3.598075e-05
1.420942e+01	-3.639760e-05
1.429149e+01	-3.681927e-05
1.437404e+01	-3.724583e-05
1.445706e+01	-3.767733e-05
1.454057e+01	-3.811383e-05
1.462455e+01	-3.855539e-05
1.470902e+01	-3.900206e-05
1.479398e+01	-3.945391e-05
1.487943e+01	-3.991099e-05
1.496537e+01	-4.037337e-05
1.505181e+01	-4.084111e-05
1.513875e+01	-4.131426e-05
1.522619e+01	-4.179289e-05
1.531414e+01	-4.227707e-05
1.540259e+01	-4.276686e-05
1.549156e+01	-4.326233e-05
1.558103e+01	-4.376353e-05
1.567103e+01	-4.427054e-05
1.576155e+01	-4.478343e-05
1.585258e+01	-4.530225e-05
1.594415e+01	-4.582709e-05
1.603624e+01	-4.635800e-05
1.612886e+01	-4.689507e-05
1.622202e+01	-4.743836e-05
1.631572e+01	-4.798795e-05
1.640996e+01	-4.854390e-05
1.650474e+01	-4.910629e-05
1.660008e+01	-4.967519e-05
1.669596e+01	-5.025069e-05
1.679239e+01	-5.083286e-05
1.688938e+01	-5.142177e-05
1.698694e+01	-5.201750e-05
1.708505e+01	-5.262013e-05
1.718373e+01	-5.322975e-05
1.728299e+01	-5.384642e-05
1.738281e+01	-5.447025e-05
1.748322e+01	-5.510130e-05
1.758420e+01	-5.573966e-05
1.768576e+01	-5.638541e-05
1.778792e+01	-5.703865e-05
1.789066e+01	-5.769945e-05
1.799399e+01	-5.836791e-05
1.809793e+01	-5.904412e-05
1.820246e+01	-5.972815e-05
1.830760e+01	-6.042012e-05
1.841334e+01	-6.112010e-05
1.851969e+01	-6.182818e-05
1.862666e+01	-6.254448e-05
1.873425e+01	-6.326907e-05
1.884246e+01	-6.400205e-05
1.895129e+01	-6.474353e-05
1.906075e+01	-6.549359e-05
1.917085e+01	-6.625235e-05
1.928158e+01	-6.701989e-05
1.939295e+01	-6.779633e-05
1.950496e+01	-6.858177e-05
1.961762e+01	-6.937630e-05
1.973093e+01	-7.018004e-05
1.984490e+01	-7.099308e-05
1.995952e+01	-7.181555e-05
2.007480e+01	-7.264755e-05
2.019076e+01	-7.348918e-05
2.030738e+01	-7.434057e-05
2.042467e+01	-7.520182e-05
2.054264e+01	-7.607304e-05
2.066130e+01	-7.695436e-05
2.078064e+01	-7.784589e-05
2.090066e+01	-7.874775e-05
2.102139e+01	-7.966006e-05
2.114280e+01	-8.058293e-05
2.126492e+01	-8.151650e-05
2.138775e+01	-8.246088e-05
2.151128e+01	-8.341621e-05
2.163553e+01	-8.438260e-05
2.176050e+01	-8.536018e-05
2.188619e+01	-8.634910e-05
2.201260e+01	-8.734946e-05
2.213974e+01	-8.836142e-05
2.226762e+01	-8.938510e-05
2.239624e+01	-9.042064e-05
2.252560e+01	-9.146818e-05
2.265571e+01	-9.252785e-05
2.278656e+01	-9.359980e-05
2.291818e+01	-9.468417e-05
2.305055e+01	-9.578110e-05
2.318369e+01	-9.689074e-05
2.331760e+01	-9.801323e-05
2.345228e+01	-9.914873e-05
2.358774e+01	-1.002974e-04
2.372398e+01	-1.014593e-04
2.386101e+01	-1.026348e-04
2.399883e+01	-1.038238e-04
2.413745e+01	-1.050266e-04
2.427686e+01	-1.062434e-04
2.441709e+01	-1.074742e-04
2.455812e+01	-1.087193e-04
2.469997e+01	-1.099788e-04
2.484263e+01	-1.112530e-04
2.498612e+01	-1.125418e-04
2.513044e+01	-1.138456e-04
2.527559e+01	-1.151646e-04
2.542158e+01	-1.164988e-04
2.556842e+01	-1.178484e-04
2.571610e+01	-1.192137e-04
2.586463e+01	-1.205948e-04
2.601403e+01	-1.219919e-04
2.616428e+01	-1.234052e-04
2.631541e+01	-1.248349e-04
2.646740e+01	-1.262811e-04
2.662028e+01	-1.277441e-04
2.677404e+01	-1.292240e-04
2.692868e+01	-1.307211e-04
2.708422e+01	-1.322355e-04
2.724066e+01	-1.337675e-04
2.739800e+01	-1.353172e-04
2.755625e+01	-1.368848e-04
2.771541e+01	-1.384706e-04
2.787550e+01	-1.400748e-04
2.803650e+01	-1.416976e-04
2.819844e+01	-1.433392e-04
2.836131e+01	-1.449998e-04
2.852513e+01	-1.466796e-04
2.868989e+01	-1.483789e-04
2.885560e+01	-1.500979e-04
2.902227e+01	-1.518368e-04
2.918990e+01	-1.535958e-04
2.935850e+01	-1.553753e-04
2.952807e+01	-1.571753e-04
2.969863e+01	-1.589962e-04
2.987016e+01	-1.608382e-04
3.004269e+01	-1.627015e-04
3.021622e+01	-1.645864e-04
3.039075e+01	-1.664931e-04
3.056628e+01	-1.684220e-04
3.074283e+01	-1.703731e-04
3.092040e+01	-1.723469e-04
3.109900e+01	-1.743436e-04
3.127862e+01	-1.763634e-04
3.145929e+01	-1.784065e-04
3.164099e+01	-1.804734e-04
3.182375e+01	-1.825642e-04
3.200756e+01	-1.846792e-04
3.219244e+01	-1.868187e-04
3.237838e+01	-1.889830e-04
3.256540e+01	-1.911724e-04
3.275349e+01	-1.933871e-04
3.294268e+01	-1.956275e-04
3.313295e+01	-1.978938e-04
3.332433e+01	-2.001864e-04
3.351681e+01	-2.025056e-04
3.371040e+01	-2.048516e-04
3.390511e+01	-2.072248e-04
3.410094e+01	-2.096255e-04
3.429791e+01	-2.120540e-04
3.449601e+01	-2.145107e-04
3.469526e+01	-2.169958e-04
3.489566e+01	-2.195097e-04
3.509721e+01	-2.220527e-04
3.529993e+01	-2.246252e-04
3.550382e+01	-2.272275e-04
3.570889e+01	-2.298599e-04
3.591515e+01	-2.325228e-04
3.612259e+01	-2.352166e-04
3.633123e+01	-2.379415e-04
3.654108e+01	-2.406981e-04
3.675214e+01	-2.434866e-04
3.696442e+01	-2.463073e-04
3.717792e+01	-2.491608e-04
3.739266e+01	-2.520473e-04
3.760864e+01	-2.549673e-04
3.782587e+01	-2.579210e-04
3.804435e+01	-2.609090e-04
3.826409e+01	-2.639317e-04
3.848510e+01	-2.669893e-04
3.870739e+01	-2.700823e-04
3.893096e+01	-2.732112e-04
3.915583e+01	-2.763763e-04
3.938199e+01	-2.795781e-04
3.960946e+01	-2.828170e-04
3.983824e+01	-2.860934e-04
4.006834e+01	-2.894078e-04
4.029978e+01	-2.927605e-04
4.053255e+01	-2.961521e-04
4.076666e+01	-2.995830e-04
4.100213e+01	-3.030537e-04
4.123896e+01	-3.065645e-04
4.147715e+01	-3.101160e-04
4.171672e+01	-3.137087e-04
4.195767e+01	-3.173429e-04
4.220002e+01	-3.210193e-04
4.244377e+01	-3.247382e-04
4.268892e+01	-3.285003e-04
4.293549e+01	-3.323059e-04
4.318348e+01	-3.361556e-04
4.343291e+01	-3.400499e-04
4.368377e+01	-3.439893e-04
4.393609e+01	-3.479744e-04
4.418986e+01	-3.520056e-04
4.444510e+01	-3.560835e-04
4.470182e+01	-3.602087e-04
4.496001e+01	-3.643816e-04
4.521970e+01	-3.686029e-04
4.548089e+01	-3.728731e-04
4.574358e+01	-3.771927e-04
4.600779e+01	-3.815624e-04
4.627353e+01	-3.859827e-04
4.654081e+01	-3.904543e-04
4.680963e+01	-3.949776e-04
4.708000e+01	-3.995533e-04
4.735193e+01	-4.041820e-04
4.762543e+01	-4.088643e-04
4.790051e+01	-4.136009e-04
4.817719e+01	-4.183924e-04
4.845545e+01	-4.232393e-04
4.873533e+01	-4.281424e-04
4.901682e+01	-4.331023e-04
4.929994e+01	-4.381197e-04
4.958470e+01	-4.431952e-04
4.987110e+01	-4.483294e-04
5.015915e+01	-4.535232e-04
5.044887e+01	-4.587771e-04
5.074026e+01	-4.640919e-04
5.103333e+01	-4.694682e-04
5.132810e+01	-4.749068e-04
5.162457e+01	-4.804085e-04
5.192275e+01	-4.859738e-04
5.222265e+01	-4.916036e-04
5.252429e+01	-4.972987e-04
5.282767e+01	-5.030597e-04
5.313280e+01	-5.088874e-04
5.343969e+01	-5.147827e-04
5.374836e+01	-5.207462e-04
5.405880e+01	-5.267789e-04
5.437105e+01	-5.328814e-04
5.468509e+01	-5.390546e-04
5.500095e+01	-5.452993e-04
5.531863e+01	-5.516163e-04
5.563815e+01	-5.580065e-04
5.595951e+01	-5.644708e-04
5.628273e+01	-5.710099e-04
5.660782e+01	-5.776247e-04
5.693479e+01	-5.843162e-04
5.726364e+01	-5.910852e-04
5.759439e+01	-5.979327e-04
5.792705e+01	-6.048594e-04
5.826164e+01	-6.118664e-04
5.859815e+01	-6.189545e-04
5.893662e+01	-6.261247e-04
5.927703e+01	-6.333780e-04
5.961941e+01	-6.407153e-04
5.996377e+01	-6.481377e-04
6.031012e+01	-6.556459e-04
6.065847e+01	-6.632412e-04
6.100883e+01	-6.709244e-04
6.136121e+01	-6.786967e-04
6.171563e+01	-6.865589e-04
6.207210e+01	-6.945123e-04
6.243063e+01	-7.025577e-04
6.279122e+01	-7.106964e-04
6.315390e+01	-7.189293e-04
6.351868e+01	-7.272576e-04
6.388556e+01	-7.356824e-04
6.425456e+01	-7.442047e-04
6.462569e+01	-7.528258e-04
6.499897e+01	-7.615467e-04
6.537440e+01	-7.703687e-04
6.575200e+01	-7.792928e-04
6.613178e+01	-7.883203e-04
6.651375e+01	-7.974524e-04
6.689793e+01	-8.066902e-04
6.728433e+01	-8.160351e-04
6.767297e+01	-8.254882e-04
6.806384e+01	-8.350508e-04
6.845698e+01	-8.447241e-04
6.885238e+01	-8.545095e-04
6.925007e+01	-8.644083e-04
6.965005e+01	-8.744217e-04
7.005235e+01	-8.845510e-04
7.045697e+01	-8.947977e-04
7.086393e+01	-9.051631e-04
7.127323e+01	-9.156486e-04
7.168490e+01	-9.262555e-04
7.209895e+01	-9.369853e-04
7.251539e+01	-9.478393e-04
7.293424e+01	-9.588191e-04
7.335551e+01	-9.699260e-04
7.377920e+01	-9.811616e-04
7.420535e+01	-9.925273e-04
7.463396e+01	-1.004025e-03
7.506504e+01	-1.015655e-03
7.549861e+01	-1.027420e-03
7.593469e+01	-1.039322e-03
7.637328e+01	-1.051361e-03
7.681441e+01	-1.063540e-03
7.725809e+01	-1.075860e-03
7.770433e+01	-1.088323e-03
7.815315e+01	-1.100930e-03
7.860456e+01	-1.113682e-03
7.905857e+01	-1.126583e-03
7.951521e+01	-1.139633e-03
7.997449e+01	-1.152834e-03
8.043642e+01	-1.166189e-03
8.090102e+01	-1.179697e-03
8.136830e+01	-1.193363e-03
8.183828e+01	-1.207186e-03
8.231097e+01	-1.221170e-03
8.278640e+01	-1.235315e-03
8.326457e+01	-1.249625e-03
8.374550e+01	-1.264100e-03
8.422921e+01	-1.278743e-03
8.471572e+01	-1.293555e-03
8.520503e+01	-1.308539e-03
8.569717e+01	-1.323696e-03
8.619215e+01	-1.339029e-03
8.669000e+01	-1.354540e-03
8.719071e+01	-1.370230e-03
8.769432e+01	-1.386102e-03
8.820084e+01	-1.402158e-03
8.871029e+01	-1.418400e-03
8.922267e+01	-1.434829e-03
8.973802e+01	-1.451450e-03
9.025634e+01	-1.468262e-03
9.077766e+01	-1.485269e-03
9.130199e+01	-1.502474e-03
9.182935e+01	-1.519877e-03
9.235975e+01	-1.537482e-03
9.289321e+01	-1.555291e-03
9.342976e+01	-1.573306e-03
9.396941e+01	-1.591530e-03
9.451217e+01	-1.609965e-03
9.505807e+01	-1.628614e-03
9.560712e+01	-1.647478e-03
9.615934e+01	-1.666561e-03
9.671476e+01	-1.685864e-03
9.727338e+01	-1.705392e-03
9.783522e+01	-1.725145e-03
9.840032e+01	-1.745128e-03
9.896867e+01	-1.765341e-03
9.954031e+01	-1.785789e-03
1.001153e+02	-1.806474e-03
1.006935e+02	-1.827398e-03
1.012751e+02	-1.848564e-03
1.018601e+02	-1.869975e-03
1.024484e+02	-1.891635e-03
1.030402e+02	-1.913545e-03
1.036353e+02	-1.935709e-03
1.042339e+02	-1.958130e-03
1.048360e+02	-1.980810e-03
1.054415e+02	-2.003753e-03
1.060505e+02	-2.026962e-03
1.066631e+02	-2.050439e-03
1.072791e+02	-2.074188e-03
1.078988e+02	-2.098212e-03
1.085220e+02	-2.122515e-03
1.091488e+02	-2.147099e-03
1.097793e+02	-2.171967e-03
1.104133e+02	-2.197124e-03
1.110511e+02	-2.222571e-03
1.116925e+02	-2.248314e-03
1.123376e+02	-2.274354e-03
1.129865e+02	-2.300696e-03
1.136391e+02	-2.327343e-03
1.142955e+02	-2.354299e-03
1.149556e+02	-2.381566e-03
1.156196e+02	-2.409150e-03
1.162874e+02	-2.437053e-03
1.169591e+02	-2.465279e-03
1.176347e+02	-2.493831e-03
1.183141e+02	-2.522715e-03
1.189975e+02	-2.551932e-03
1.196848e+02	-2.581488e-03
1.203761e+02	-2.611386e-03
1.210714e+02	-2.641631e-03
1.217707e+02	-2.672225e-03
1.224740e+02	-2.703174e-03
1.231814e+02	-2.734481e-03
1.238929e+02	-2.766151e-03
1.246085e+02	-2.798187e-03
1.253283e+02	-2.830594e-03
1.260522e+02	-2.863377e-03
1.267802e+02	-2.896539e-03
1.275125e+02	-2.930084e-03
1.282490e+02	-2.964019e-03
1.289898e+02	-2.998346e-03
1.297348e+02	-3.033070e-03
1.304842e+02	-3.068197e-03
1.312378e+02	-3.103730e-03
1.319959e+02	-3.139674e-03
1.327583e+02	-3.176035e-03
1.335251e+02	-3.212816e-03
1.342963e+02	-3.250024e-03
1.350720e+02	-3.287662e-03
1.358522e+02	-3.325736e-03
1.366368e+02	-3.364250e-03
1.374260e+02	-3.403211e-03
1.382198e+02	-3.442622e-03
1.390182e+02	-3.482490e-03
1.398211e+02	-3.522819e-03
1.406287e+02	-3.563615e-03
1.414410e+02	-3.604883e-03
1.422579e+02	-3.646629e-03
1.430796e+02	-3.688858e-03
1.439060e+02	-3.731576e-03
1.447372e+02	-3.774789e-03
1.455732e+02	-3.818502e-03
1.464141e+02	-3.862720e-03
1.472597e+02	-3.907451e-03
1.481103e+02	-3.952699e-03
1.489658e+02	-3.998471e-03
1.498262e+02	-4.044772e-03
1.506916e+02	-4.091610e-03
1.515620e+02	-4.138990e-03
1.524374e+02	-4.186918e-03
1.533179e+02	-4.235401e-03
1.542034e+02	-4.284445e-03
1.550941e+02	-4.334056e-03
1.559899e+02	-4.384242e-03
1.568909e+02	-4.435009e-03
1.577971e+02	-4.486363e-03
1.587085e+02	-4.538311e-03
1.596252e+02	-4.590861e-03
1.605472e+02	-4.644019e-03
1.614745e+02	-4.697792e-03
1.624072e+02	-4.752187e-03
1.633453e+02	-4.807212e-03
1.642887e+02	-4.862873e-03
1.652377e+02	-4.919179e-03
1.661921e+02	-4.976136e-03
1.671520e+02	-5.033753e-03
1.681175e+02	-5.092036e-03
1.690885e+02	-5.150993e-03
1.700651e+02	-5.210633e-03
1.710474e+02	-5.270963e-03
1.720354e+02	-5.331991e-03
1.730291e+02	-5.393725e-03
1.740285e+02	-5.456173e-03
1.750337e+02	-5.519344e-03
1.760446e+02	-5.583246e-03
1.770615e+02	-5.647887e-03
1.780842e+02	-5.713276e-03
1.791128e+02	-5.779421e-03
1.801473e+02	-5.846332e-03
1.811878e+02	-5.914017e-03
1.822344e+02	-5.982486e-03
1.832870e+02	-6.051746e-03
1.843456e+02	-6.121807e-03
1.854104e+02	-6.192679e-03
1.864813e+02	-6.264371e-03
1.875584e+02	-6.336892e-03
1.886418e+02	-6.410253e-03
1.897313e+02	-6.484461e-03
1.908272e+02	-6.559529e-03
1.919294e+02	-6.635464e-03
1.930380e+02	-6.712278e-03
1.941530e+02	-6.789981e-03
1.952744e+02	-6.868582e-03
1.964023e+02	-6.948093e-03
1.975367e+02	-7.028523e-03
1.986777e+02	-7.109883e-03
1.998252e+02	-7.192184e-03
2.009794e+02	-7.275438e-03
2.021403e+02	-7.359654e-03
2.033078e+02	-7.444844e-03
2.044821e+02	-7.531020e-03
2.056632e+02	-7.618192e-03
2.068511e+02	-7.706372e-03
2.080459e+02	-7.795572e-03
2.092475e+02	-7.885803e-03
2.104561e+02	-7.977078e-03
2.116717e+02	-8.069408e-03
2.128943e+02	-8.162806e-03
2.141240e+02	-8.257284e-03
2.153608e+02	-8.352855e-03
2.166047e+02	-8.449530e-03
2.178558e+02	-8.547324e-03
2.191141e+02	-8.646248e-03
2.203797e+02	-8.746316e-03
2.216526e+02	-8.847540e-03
2.229329e+02	-8.949935e-03
2.242205e+02	-9.053514e-03
2.255156e+02	-9.158291e-03
2.268182e+02	-9.264278e-03
2.281283e+02	-9.371491e-03
2.294459e+02	-9.479943e-03
2.307712e+02	-9.589649e-03
2.321041e+02	-9.700623e-03
2.334447e+02	-9.812880e-03
2.347931e+02	-9.926434e-03
2.361493e+02	-1.004130e-02
2.375133e+02	-1.015750e-02
2.388851e+02	-1.027503e-02
2.402649e+02	-1.039393e-02
2.416527e+02	-1.051420e-02
2.430484e+02	-1.063586e-02
2.444523e+02	-1.075893e-02
2.458642e+02	-1.088341e-02
2.472843e+02	-1.100934e-02
2.487126e+02	-1.113672e-02
2.501492e+02	-1.126558e-02
2.515940e+02	-1.139592e-02
2.530472e+02	-1.152777e-02
2.545088e+02	-1.166114e-02
2.559789e+02	-1.179605e-02
2.574574e+02	-1.193253e-02
2.589444e+02	-1.207057e-02
2.604401e+02	-1.221022e-02
2.619444e+02	-1.235147e-02
2.634574e+02	-1.249436e-02
2.649791e+02	-1.263890e-02
2.665096e+02	-1.278511e-02
2.680489e+02	-1.293301e-02
2.695972e+02	-1.308261e-02
2.711544e+02	-1.323395e-02
2.727205e+02	-1.338703e-02
2.742958e+02	-1.354188e-02
2.758801e+02	-1.369852e-02
2.774736e+02	-1.385696e-02
2.790762e+02	-1.401724e-02
2.806882e+02	-1.417937e-02
2.823094e+02	-1.434337e-02
2.839400e+02	-1.450926e-02
2.855800e+02	-1.467707e-02
2.872295e+02	-1.484681e-02
2.888886e+02	-1.501852e-02
2.905572e+02	-1.519221e-02
2.922354e+02	-1.536790e-02
2.939234e+02	-1.554562e-02
2.956211e+02	-1.572539e-02
2.973286e+02	-1.590724e-02
2.990459e+02	-1.609119e-02
3.007732e+02	-1.627726e-02
3.025104e+02	-1.646548e-02
3.042577e+02	-1.665586e-02
3.060151e+02	-1.684845e-02
3.077826e+02	-1.704326e-02
3.095604e+02	-1.724032e-02
3.113484e+02	-1.743965e-02
3.131467e+02	-1.764128e-02
3.149554e+02	-1.784524e-02
3.167746e+02	-1.805155e-02
3.186043e+02	-1.826024e-02
3.204445e+02	-1.847134e-02
3.222954e+02	-1.868487e-02
3.241570e+02	-1.890087e-02
3.260293e+02	-1.911935e-02
3.279124e+02	-1.934036e-02
3.298064e+02	-1.956392e-02
3.317114e+02	-1.979005e-02
3.336273e+02	-2.001880e-02
3.355544e+02	-2.025018e-02
3.374925e+02	-2.048422e-02
3.394418e+02	-2.072097e-02
3.414024e+02	-2.096045e-02
3.433744e+02	-2.120268e-02
3.453577e+02	-2.144771e-02
3.473525e+02	-2.169557e-02
3.493588e+02	-2.194628e-02
3.513766e+02	-2.219988e-02
3.534062e+02	-2.245641e-02
3.554474e+02	-2.271589e-02
3.575005e+02	-2.297836e-02
3.595654e+02	-2.324385e-02
3.616422e+02	-2.351241e-02
3.637311e+02	-2.378406e-02
3.658320e+02	-2.405883e-02
3.679450e+02	-2.433678e-02
3.700702e+02	-2.461792e-02
3.722077e+02	-2.490231e-02
3.743576e+02	-2.518997e-02
3.765199e+02	-2.548094e-02
3.786946e+02	-2.577527e-02
3.808820e+02	-2.607298e-02
3.830819e+02	-2.637412e-02
3.852946e+02	-2.667873e-02
3.875200e+02	-2.698685e-02
3.897583e+02	-2.729851e-02
3.920096e+02	-2.761376e-02
3.942738e+02	-2.793264e-02
3.965511e+02	-2.825520e-02
3.988416e+02	-2.858146e-02
4.011452e+02	-2.891148e-02
4.034622e+02	-2.924529e-02
4.057926e+02	-2.958295e-02
4.081365e+02	-2.992449e-02
4.104938e+02	-3.026996e-02
4.128648e+02	-3.061941e-02
4.152495e+02	-3.097287e-02
4.176480e+02	-3.133040e-02
4.200603e+02	-3.169204e-02
4.224866e+02	-3.205785e-02
4.249268e+02	-3.242785e-02
4.273812e+02	-3.280212e-02
4.298497e+02	-3.318068e-02
4.323325e+02	-3.356360e-02
4.348297e+02	-3.395092e-02
4.373412e+02	-3.434269e-02
4.398673e+02	-3.473896e-02
4.424079e+02	-3.513979e-02
4.449633e+02	-3.554522e-02
4.475334e+02	-3.595531e-02
4.501183e+02	-3.637011e-02
4.527182e+02	-3.678968e-02
4.553330e+02	-3.721407e-02
4.579630e+02	-3.764333e-02
4.606082e+02	-3.807752e-02
4.632687e+02	-3.851670e-02
4.659445e+02	-3.896092e-02
4.686358e+02	-3.941024e-02
4.713426e+02	-3.986471e-02
4.740650e+02	-4.032441e-02
4.768032e+02	-4.078938e-02
4.795572e+02	-4.125968e-02
4.823271e+02	-4.173538e-02
4.851130e+02	-4.221654e-02
4.879150e+02	-4.270322e-02
4.907332e+02	-4.319548e-02
4.935676e+02	-4.369339e-02
4.964185e+02	-4.419701e-02
4.992858e+02	-4.470640e-02
5.021696e+02	-4.522163e-02
5.050701e+02	-4.574277e-02
5.079874e+02	-4.626989e-02
5.109215e+02	-4.680304e-02
5.138726e+02	-4.734231e-02
5.168407e+02	-4.788775e-02
5.198259e+02	-4.843944e-02
5.228284e+02	-4.899745e-02
5.258482e+02	-4.956186e-02
5.288855e+02	-5.013272e-02
5.319403e+02	-5.071013e-02
5.350128e+02	-5.129414e-02
5.381030e+02	-5.188484e-02
5.412111e+02	-5.248230e-02
5.443371e+02	-5.308660e-02
5.474812e+02	-5.369781e-02
5.506434e+02	-5.431602e-02
5.538239e+02	-5.494130e-02
5.570228e+02	-5.557373e-02
5.602401e+02	-5.621339e-02
5.634760e+02	-5.686037e-02
5.667306e+02	-5.751475e-02
5.700040e+02	-5.817660e-02
5.732964e+02	-5.884602e-02
5.766077e+02	-5.952309e-02
5.799382e+02	-6.020790e-02
5.832879e+02	-6.090052e-02
5.866569e+02	-6.160106e-02
5.900454e+02	-6.230960e-02
5.934535e+02	-6.302623e-02
5.968813e+02	-6.375104e-02
6.003288e+02	-6.448413e-02
6.037963e+02	-6.522558e-02
6.072838e+02	-6.597549e-02
6.107914e+02	-6.673396e-02
6.143194e+02	-6.750108e-02
6.178676e+02	-6.827694e-02
6.214364e+02	-6.906166e-02
6.250258e+02	-6.985532e-02
6.286359e+02	-7.065802e-02
6.322669e+02	-7.146988e-02
6.359189e+02	-7.229098e-02
6.395919e+02	-7.312144e-02
6.432862e+02	-7.396136e-02
6.470017e+02	-7.481084e-02
6.507388e+02	-7.566999e-02
6.544974e+02	-7.653892e-02
6.582778e+02	-7.741774e-02
6.620800e+02	-7.830656e-02
6.659041e+02	-7.920550e-02
6.697504e+02	-8.011465e-02
6.736188e+02	-8.103414e-02
6.775096e+02	-8.196409e-02
6.814229e+02	-8.290461e-02
6.853587e+02	-8.385581e-02
6.893173e+02	-8.481782e-02
6.932988e+02	-8.579076e-02
6.973033e+02	-8.677475e-02
7.013309e+02	-8.776991e-02
