Frequency(Hz)	Magnitude(dB)
1.000000e+01	-2.080472e+00
1.005776e+01	-2.099539e+00
1.011585e+01	-2.118587e+00
1.017428e+01	-2.138087e+00
1.023305e+01	-2.157612e+00
1.029215e+01	-2.177307e+00
1.035160e+01	-2.197072e+00
1.041139e+01	-2.217094e+00
1.047153e+01	-2.237170e+00
1.053201e+01	-2.257249e+00
1.059284e+01	-2.277460e+00
1.065403e+01	-2.298013e+00
1.071556e+01	-2.318643e+00
1.077746e+01	-2.339488e+00
1.083971e+01	-2.360403e+00
1.090232e+01	-2.381456e+00
1.096529e+01	-2.402582e+00
1.102862e+01	-2.423892e+00
1.109232e+01	-2.445452e+00
1.115639e+01	-2.466967e+00
1.122083e+01	-2.488770e+00
1.128564e+01	-2.510545e+00
1.135083e+01	-2.532720e+00
1.141639e+01	-2.554914e+00
1.148233e+01	-2.577298e+00
1.154865e+01	-2.599786e+00
1.161536e+01	-2.622295e+00
1.168245e+01	-2.645041e+00
1.174992e+01	-2.667922e+00
1.181779e+01	-2.690740e+00
1.188605e+01	-2.714271e+00
1.195470e+01	-2.737328e+00
1.202375e+01	-2.761105e+00
1.209320e+01	-2.784344e+00
1.216305e+01	-2.808143e+00
1.223330e+01	-2.832050e+00
1.230396e+01	-2.856298e+00
1.237503e+01	-2.880187e+00
1.244651e+01	-2.904713e+00
1.251840e+01	-2.929353e+00
1.259070e+01	-2.953530e+00
1.266343e+01	-2.978575e+00
1.273657e+01	-3.003181e+00
1.281014e+01	-3.028699e+00
1.288413e+01	-3.053610e+00
1.295855e+01	-3.079013e+00
1.303339e+01	-3.104560e+00
1.310867e+01	-3.130237e+00
1.318439e+01	-3.155923e+00
1.326054e+01	-3.181763e+00
1.333713e+01	-3.207929e+00
1.341417e+01	-3.234180e+00
1.349165e+01	-3.260359e+00
1.356958e+01	-3.286662e+00
1.364795e+01	-3.313408e+00
1.372678e+01	-3.340172e+00
1.380607e+01	-3.367270e+00
1.388581e+01	-3.394214e+00
1.396602e+01	-3.421216e+00
1.404668e+01	-3.448811e+00
1.412782e+01	-3.476045e+00
1.420942e+01	-3.504038e+00
1.429149e+01	-3.531728e+00
1.437404e+01	-3.559630e+00
1.445706e+01	-3.587791e+00
1.454057e+01	-3.615780e+00
1.462455e+01	-3.644119e+00
1.470902e+01	-3.672574e+00
1.479398e+01	-3.701083e+00
1.487943e+01	-3.729989e+00
1.496537e+01	-3.758707e+00
1.505181e+01	-3.787943e+00
1.513875e+01	-3.817277e+00
1.522619e+01	-3.846389e+00
1.531414e+01	-3.875979e+00
1.540259e+01	-3.905394e+00
1.549156e+01	-3.935283e+00
1.558103e+01	-3.965126e+00
1.567103e+01	-3.995192e+00
1.576155e+01	-4.025273e+00
1.585258e+01	-4.055567e+00
1.594415e+01	-4.086194e+00
1.603624e+01	-4.116557e+00
1.612886e+01	-4.147554e+00
1.622202e+01	-4.177911e+00
1.631572e+01	-4.209243e+00
1.640996e+01	-4.240324e+00
1.650474e+01	-4.271643e+00
1.660008e+01	-4.302891e+00
1.669596e+01	-4.334420e+00
1.679239e+01	-4.365851e+00
1.688938e+01	-4.397951e+00
1.698694e+01	-4.429813e+00
1.708505e+01	-4.461879e+00
1.718373e+01	-4.493936e+00
1.728299e+01	-4.526228e+00
1.738281e+01	-4.558725e+00
1.748322e+01	-4.591509e+00
1.758420e+01	-4.623995e+00
1.768576e+01	-4.657100e+00
1.778792e+01	-4.690042e+00
1.789066e+01	-4.722848e+00
1.799399e+01	-4.756075e+00
1.809793e+01	-4.789272e+00
1.820246e+01	-4.823048e+00
1.830760e+01	-4.856606e+00
1.841334e+01	-4.890475e+00
1.851969e+01	-4.924529e+00
1.862666e+01	-4.958241e+00
1.873425e+01	-4.992409e+00
1.884246e+01	-5.026646e+00
1.895129e+01	-5.060912e+00
1.906075e+01	-5.095368e+00
1.917085e+01	-5.129937e+00
1.928158e+01	-5.164965e+00
1.939295e+01	-5.199546e+00
1.950496e+01	-5.234756e+00
1.961762e+01	-5.270041e+00
1.973093e+01	-5.304789e+00
1.984490e+01	-5.340164e+00
1.995952e+01	-5.375765e+00
2.007480e+01	-5.411200e+00
2.019076e+01	-5.447064e+00
2.030738e+01	-5.482840e+00
2.042467e+01	-5.518552e+00
2.054264e+01	-5.554757e+00
2.066130e+01	-5.590741e+00
2.078064e+01	-5.627330e+00
2.090066e+01	-5.663389e+00
2.102139e+01	-5.699957e+00
2.114280e+01	-5.736905e+00
2.126492e+01	-5.773163e+00
2.138775e+01	-5.810295e+00
2.151128e+01	-5.847171e+00
2.163553e+01	-5.884100e+00
2.176050e+01	-5.921600e+00
2.188619e+01	-5.958655e+00
2.201260e+01	-5.996083e+00
2.213974e+01	-6.033666e+00
2.226762e+01	-6.071396e+00
2.239624e+01	-6.108993e+00
2.252560e+01	-6.146731e+00
2.265571e+01	-6.184750e+00
2.278656e+01	-6.222868e+00
2.291818e+01	-6.260855e+00
2.305055e+01	-6.299095e+00
2.318369e+01	-6.337723e+00
2.331760e+01	-6.375998e+00
2.345228e+01	-6.414543e+00
2.358774e+01	-6.453061e+00
2.372398e+01	-6.491832e+00
2.386101e+01	-6.531115e+00
2.399883e+01	-6.569571e+00
2.413745e+01	-6.609029e+00
2.427686e+01	-6.647961e+00
2.441709e+01	-6.687315e+00
2.455812e+01	-6.726285e+00
2.469997e+01	-6.766043e+00
2.484263e+01	-6.806119e+00
2.498612e+01	-6.845246e+00
2.513044e+01	-6.884945e+00
2.527559e+01	-6.924857e+00
2.542158e+01	-6.964821e+00
2.556842e+01	-7.004642e+00
2.571610e+01	-7.044744e+00
2.586463e+01	-7.084985e+00
2.601403e+01	-7.125390e+00
2.616428e+01	-7.165907e+00
2.631541e+01	-7.206060e+00
2.646740e+01	-7.246475e+00
2.662028e+01	-7.287346e+00
2.677404e+01	-7.327730e+00
2.692868e+01	-7.368842e+00
2.708422e+01	-7.409732e+00
2.724066e+01	-7.450510e+00
2.739800e+01	-7.491630e+00
2.755625e+01	-7.532749e+00
2.771541e+01	-7.574366e+00
2.787550e+01	-7.615310e+00
2.803650e+01	-7.657069e+00
2.819844e+01	-7.698135e+00
2.836131e+01	-7.740269e+00
2.852513e+01	-7.781804e+00
2.868989e+01	-7.823218e+00
2.885560e+01	-7.865302e+00
2.902227e+01	-7.907233e+00
2.918990e+01	-7.949074e+00
2.935850e+01	-7.990869e+00
2.952807e+01	-8.032935e+00
2.969863e+01	-8.075642e+00
2.987016e+01	-8.117550e+00
3.004269e+01	-8.159910e+00
3.021622e+01	-8.202384e+00
3.039075e+01	-8.244691e+00
3.056628e+01	-8.287157e+00
3.074283e+01	-8.330328e+00
3.092040e+01	-8.372694e+00
3.109900e+01	-8.415569e+00
3.127862e+01	-8.458425e+00
3.145929e+01	-8.500967e+00
3.164099e+01	-8.544459e+00
3.182375e+01	-8.587551e+00
3.200756e+01	-8.630329e+00
3.219244e+01	-8.673513e+00
3.237838e+01	-8.716968e+00
3.256540e+01	-8.760447e+00
3.275349e+01	-8.803951e+00
3.294268e+01	-8.847015e+00
3.313295e+01	-8.890359e+00
3.332433e+01	-8.934202e+00
3.351681e+01	-8.977679e+00
3.371040e+01	-9.021846e+00
3.390511e+01	-9.065480e+00
3.410094e+01	-9.109586e+00
3.429791e+01	-9.153427e+00
3.449601e+01	-9.197123e+00
3.469526e+01	-9.241355e+00
3.489566e+01	-9.285380e+00
3.509721e+01	-9.329455e+00
3.529993e+01	-9.373788e+00
3.550382e+01	-9.418014e+00
3.570889e+01	-9.462395e+00
3.591515e+01	-9.506734e+00
3.612259e+01	-9.551331e+00
3.633123e+01	-9.595696e+00
3.654108e+01	-9.639865e+00
3.675214e+01	-9.684951e+00
3.696442e+01	-9.729241e+00
3.717792e+01	-9.774009e+00
3.739266e+01	-9.819166e+00
3.760864e+01	-9.863921e+00
3.782587e+01	-9.909004e+00
3.804435e+01	-9.953614e+00
3.826409e+01	-9.998513e+00
3.848510e+01	-1.004384e+01
3.870739e+01	-1.008895e+01
3.893096e+01	-1.013421e+01
3.915583e+01	-1.017929e+01
3.938199e+01	-1.022471e+01
3.960946e+01	-1.026997e+01
3.983824e+01	-1.031542e+01
4.006834e+01	-1.036087e+01
4.029978e+01	-1.040643e+01
4.053255e+01	-1.045125e+01
4.076666e+01	-1.049740e+01
4.100213e+01	-1.054252e+01
4.123896e+01	-1.058847e+01
4.147715e+01	-1.063390e+01
4.171672e+01	-1.067994e+01
4.195767e+01	-1.072496e+01
4.220002e+01	-1.077142e+01
4.244377e+01	-1.081690e+01
4.268892e+01	-1.086245e+01
4.293549e+01	-1.090913e+01
4.318348e+01	-1.095515e+01
4.343291e+01	-1.100140e+01
4.368377e+01	-1.104699e+01
4.393609e+01	-1.109313e+01
4.418986e+01	-1.113936e+01
4.444510e+01	-1.118512e+01
4.470182e+01	-1.123168e+01
4.496001e+01	-1.127765e+01
4.521970e+01	-1.132467e+01
4.548089e+01	-1.137040e+01
4.574358e+01	-1.141675e+01
4.600779e+01	-1.146370e+01
4.627353e+01	-1.151069e+01
4.654081e+01	-1.155642e+01
4.680963e+01	-1.160324e+01
4.708000e+01	-1.164989e+01
4.735193e+01	-1.169641e+01
4.762543e+01	-1.174271e+01
4.790051e+01	-1.178964e+01
4.817719e+01	-1.183672e+01
4.845545e+01	-1.188386e+01
4.873533e+01	-1.193038e+01
4.901682e+01	-1.197691e+01
4.929994e+01	-1.202414e+01
4.958470e+01	-1.207055e+01
4.987110e+01	-1.211704e+01
5.015915e+01	-1.216514e+01
5.044887e+01	-1.221114e+01
5.074026e+01	-1.225824e+01
5.103333e+01	-1.230607e+01
5.132810e+01	-1.235243e+01
5.162457e+01	-1.240004e+01
5.192275e+01	-1.244698e+01
5.222265e+01	-1.249427e+01
5.252429e+01	-1.254207e+01
5.282767e+01	-1.258895e+01
5.313280e+01	-1.263562e+01
5.343969e+01	-1.268378e+01
5.374836e+01	-1.273084e+01
5.405880e+01	-1.277676e+01
5.437105e+01	-1.282488e+01
5.468509e+01	-1.287256e+01
5.500095e+01	-1.292128e+01
5.531863e+01	-1.296841e+01
5.563815e+01	-1.301483e+01
5.595951e+01	-1.306233e+01
5.628273e+01	-1.311026e+01
5.660782e+01	-1.315779e+01
5.693479e+01	-1.320593e+01
5.726364e+01	-1.325325e+01
5.759439e+01	-1.330118e+01
5.792705e+01	-1.334879e+01
5.826164e+01	-1.339601e+01
5.859815e+01	-1.344365e+01
5.893662e+01	-1.349166e+01
5.927703e+01	-1.354014e+01
5.961941e+01	-1.358764e+01
5.996377e+01	-1.363530e+01
6.031012e+01	-1.368363e+01
6.065847e+01	-1.373153e+01
6.100883e+01	-1.377960e+01
6.136121e+01	-1.382687e+01
6.171563e+01	-1.387544e+01
6.207210e+01	-1.392311e+01
6.243063e+01	-1.397117e+01
6.279122e+01	-1.401884e+01
6.315390e+01	-1.406646e+01
6.351868e+01	-1.411507e+01
6.388556e+01	-1.416302e+01
6.425456e+01	-1.421103e+01
6.462569e+01	-1.425929e+01
6.499897e+01	-1.430729e+01
6.537440e+01	-1.435602e+01
6.575200e+01	-1.440444e+01
6.613178e+01	-1.445229e+01
6.651375e+01	-1.450054e+01
6.689793e+01	-1.454832e+01
6.728433e+01	-1.459774e+01
6.767297e+01	-1.464591e+01
6.806384e+01	-1.469427e+01
6.845698e+01	-1.474250e+01
6.885238e+01	-1.478998e+01
6.925007e+01	-1.483806e+01
6.965005e+01	-1.488664e+01
7.005235e+01	-1.493561e+01
7.045697e+01	-1.498348e+01
7.086393e+01	-1.503275e+01
7.127323e+01	-1.508069e+01
7.168490e+01	-1.512974e+01
7.209895e+01	-1.517709e+01
7.251539e+01	-1.522606e+01
7.293424e+01	-1.527443e+01
7.335551e+01	-1.532396e+01
7.377920e+01	-1.537142e+01
7.420535e+01	-1.542147e+01
7.463396e+01	-1.546937e+01
7.506504e+01	-1.551682e+01
7.549861e+01	-1.556612e+01
7.593469e+01	-1.561465e+01
7.637328e+01	-1.566392e+01
7.681441e+01	-1.571247e+01
7.725809e+01	-1.576192e+01
7.770433e+01	-1.580984e+01
7.815315e+01	-1.585856e+01
7.860456e+01	-1.590665e+01
7.905857e+01	-1.595618e+01
7.951521e+01	-1.600538e+01
7.997449e+01	-1.605334e+01
8.043642e+01	-1.610261e+01
8.090102e+01	-1.615083e+01
8.136830e+01	-1.620027e+01
8.183828e+01	-1.624906e+01
8.231097e+01	-1.629714e+01
8.278640e+01	-1.634673e+01
8.326457e+01	-1.639514e+01
8.374550e+01	-1.644390e+01
8.422921e+01	-1.649417e+01
8.471572e+01	-1.654148e+01
8.520503e+01	-1.659114e+01
8.569717e+01	-1.664090e+01
8.619215e+01	-1.668829e+01
8.669000e+01	-1.673853e+01
8.719071e+01	-1.678718e+01
8.769432e+01	-1.683628e+01
8.820084e+01	-1.688545e+01
8.871029e+01	-1.693351e+01
8.922267e+01	-1.698460e+01
8.973802e+01	-1.703207e+01
9.025634e+01	-1.708053e+01
9.077766e+01	-1.713074e+01
9.130199e+01	-1.717935e+01
9.182935e+01	-1.722836e+01
9.235975e+01	-1.727674e+01
9.289321e+01	-1.732577e+01
9.342976e+01	-1.737519e+01
9.396941e+01	-1.742399e+01
9.451217e+01	-1.747316e+01
9.505807e+01	-1.752285e+01
9.560712e+01	-1.757287e+01
9.615934e+01	-1.762034e+01
9.671476e+01	-1.767038e+01
9.727338e+01	-1.771914e+01
9.783522e+01	-1.776891e+01
9.840032e+01	-1.781771e+01
9.896867e+01	-1.786772e+01
9.954031e+01	-1.791700e+01
1.001153e+02	-1.796606e+01
1.006935e+02	-1.801587e+01
1.012751e+02	-1.806385e+01
1.018601e+02	-1.811355e+01
1.024484e+02	-1.816167e+01
1.030402e+02	-1.821254e+01
1.036353e+02	-1.826103e+01
1.042339e+02	-1.831053e+01
1.048360e+02	-1.836055e+01
1.054415e+02	-1.840866e+01
1.060505e+02	-1.845953e+01
1.066631e+02	-1.850681e+01
1.072791e+02	-1.855788e+01
1.078988e+02	-1.860650e+01
1.085220e+02	-1.865584e+01
1.091488e+02	-1.870364e+01
1.097793e+02	-1.875378e+01
1.104133e+02	-1.880514e+01
1.110511e+02	-1.885312e+01
1.116925e+02	-1.890244e+01
1.123376e+02	-1.895120e+01
1.129865e+02	-1.900126e+01
1.136391e+02	-1.905095e+01
1.142955e+02	-1.910005e+01
1.149556e+02	-1.914909e+01
1.156196e+02	-1.919913e+01
1.162874e+02	-1.924965e+01
1.169591e+02	-1.929802e+01
1.176347e+02	-1.934703e+01
1.183141e+02	-1.939721e+01
1.189975e+02	-1.944607e+01
1.196848e+02	-1.949747e+01
1.203761e+02	-1.954535e+01
1.210714e+02	-1.959329e+01
1.217707e+02	-1.964439e+01
1.224740e+02	-1.969279e+01
1.231814e+02	-1.974240e+01
1.238929e+02	-1.979377e+01
1.246085e+02	-1.984221e+01
1.253283e+02	-1.989259e+01
1.260522e+02	-1.994113e+01
1.267802e+02	-1.999192e+01
1.275125e+02	-2.004083e+01
1.282490e+02	-2.008954e+01
1.289898e+02	-2.013972e+01
1.297348e+02	-2.019027e+01
1.304842e+02	-2.023889e+01
1.312378e+02	-2.028761e+01
1.319959e+02	-2.033948e+01
1.327583e+02	-2.038773e+01
1.335251e+02	-2.043752e+01
1.342963e+02	-2.048634e+01
1.350720e+02	-2.053562e+01
1.358522e+02	-2.058471e+01
1.366368e+02	-2.063606e+01
1.374260e+02	-2.068537e+01
1.382198e+02	-2.073456e+01
1.390182e+02	-2.078418e+01
1.398211e+02	-2.083353e+01
1.406287e+02	-2.088235e+01
1.414410e+02	-2.093349e+01
1.422579e+02	-2.098334e+01
1.430796e+02	-2.103151e+01
1.439060e+02	-2.108339e+01
1.447372e+02	-2.113177e+01
1.455732e+02	-2.118203e+01
1.464141e+02	-2.123148e+01
1.472597e+02	-2.128153e+01
1.481103e+02	-2.133178e+01
1.489658e+02	-2.137922e+01
1.498262e+02	-2.143090e+01
1.506916e+02	-2.147974e+01
1.515620e+02	-2.153092e+01
1.524374e+02	-2.157912e+01
1.533179e+02	-2.162876e+01
1.542034e+02	-2.167701e+01
1.550941e+02	-2.172808e+01
1.559899e+02	-2.177322e+01
1.568909e+02	-2.182592e+01
1.577971e+02	-2.187798e+01
1.587085e+02	-2.192679e+01
1.596252e+02	-2.197637e+01
1.605472e+02	-2.202642e+01
1.614745e+02	-2.207380e+01
1.624072e+02	-2.212548e+01
1.633453e+02	-2.217538e+01
1.642887e+02	-2.222582e+01
1.652377e+02	-2.227504e+01
1.661921e+02	-2.232551e+01
1.671520e+02	-2.237489e+01
1.681175e+02	-2.242386e+01
1.690885e+02	-2.247561e+01
1.700651e+02	-2.252366e+01
1.710474e+02	-2.257343e+01
1.720354e+02	-2.262259e+01
1.730291e+02	-2.267488e+01
1.740285e+02	-2.272097e+01
1.750337e+02	-2.277058e+01
1.760446e+02	-2.282224e+01
1.770615e+02	-2.287234e+01
1.780842e+02	-2.292105e+01
1.791128e+02	-2.297000e+01
1.801473e+02	-2.302348e+01
1.811878e+02	-2.307230e+01
1.822344e+02	-2.311997e+01
1.832870e+02	-2.317058e+01
1.843456e+02	-2.321882e+01
1.854104e+02	-2.326926e+01
1.864813e+02	-2.332000e+01
1.875584e+02	-2.337020e+01
1.886418e+02	-2.341999e+01
1.897313e+02	-2.347015e+01
1.908272e+02	-2.352385e+01
1.919294e+02	-2.356934e+01
1.930380e+02	-2.362099e+01
1.941530e+02	-2.367164e+01
1.952744e+02	-2.371907e+01
1.964023e+02	-2.377044e+01
1.975367e+02	-2.382028e+01
1.986777e+02	-2.386670e+01
1.998252e+02	-2.391913e+01
2.009794e+02	-2.396949e+01
2.021403e+02	-2.401873e+01
2.033078e+02	-2.406724e+01
2.044821e+02	-2.411873e+01
2.056632e+02	-2.416780e+01
2.068511e+02	-2.421776e+01
2.080459e+02	-2.426753e+01
2.092475e+02	-2.431588e+01
2.104561e+02	-2.436695e+01
2.116717e+02	-2.441679e+01
2.128943e+02	-2.446667e+01
2.141240e+02	-2.451649e+01
2.153608e+02	-2.456977e+01
2.166047e+02	-2.461657e+01
2.178558e+02	-2.466611e+01
2.191141e+02	-2.471606e+01
2.203797e+02	-2.476837e+01
2.216526e+02	-2.481533e+01
2.229329e+02	-2.486625e+01
2.242205e+02	-2.491692e+01
2.255156e+02	-2.496452e+01
2.268182e+02	-2.501542e+01
2.281283e+02	-2.506507e+01
2.294459e+02	-2.511704e+01
2.307712e+02	-2.516573e+01
2.321041e+02	-2.521597e+01
2.334447e+02	-2.526531e+01
2.347931e+02	-2.531405e+01
2.361493e+02	-2.536902e+01
2.375133e+02	-2.541395e+01
2.388851e+02	-2.546777e+01
2.402649e+02	-2.551752e+01
2.416527e+02	-2.556676e+01
2.430484e+02	-2.561728e+01
2.444523e+02	-2.566375e+01
2.458642e+02	-2.571296e+01
2.472843e+02	-2.576771e+01
2.487126e+02	-2.581459e+01
2.501492e+02	-2.586594e+01
2.515940e+02	-2.591552e+01
2.530472e+02	-2.596238e+01
2.545088e+02	-2.601350e+01
2.559789e+02	-2.606442e+01
2.574574e+02	-2.611437e+01
2.589444e+02	-2.616620e+01
2.604401e+02	-2.621455e+01
2.619444e+02	-2.626404e+01
2.634574e+02	-2.631642e+01
2.649791e+02	-2.636522e+01
2.665096e+02	-2.641356e+01
2.680489e+02	-2.646647e+01
2.695972e+02	-2.651527e+01
2.711544e+02	-2.656566e+01
2.727205e+02	-2.661266e+01
2.742958e+02	-2.666623e+01
2.758801e+02	-2.671092e+01
2.774736e+02	-2.676587e+01
2.790762e+02	-2.681317e+01
2.806882e+02	-2.686403e+01
2.823094e+02	-2.691430e+01
2.839400e+02	-2.696026e+01
2.855800e+02	-2.701310e+01
2.872295e+02	-2.706375e+01
2.888886e+02	-2.711395e+01
2.905572e+02	-2.716499e+01
2.922354e+02	-2.721676e+01
2.939234e+02	-2.726493e+01
2.956211e+02	-2.731911e+01
2.973286e+02	-2.736341e+01
2.990459e+02	-2.741189e+01
3.007732e+02	-2.746562e+01
3.025104e+02	-2.751430e+01
3.042577e+02	-2.756536e+01
3.060151e+02	-2.761640e+01
3.077826e+02	-2.766259e+01
3.095604e+02	-2.771461e+01
3.113484e+02	-2.776180e+01
3.131467e+02	-2.781602e+01
3.149554e+02	-2.786483e+01
3.167746e+02	-2.791278e+01
3.186043e+02	-2.796425e+01
3.204445e+02	-2.801392e+01
3.222954e+02	-2.806542e+01
3.241570e+02	-2.811123e+01
3.260293e+02	-2.816604e+01
3.279124e+02	-2.821680e+01
3.298064e+02	-2.826832e+01
3.317114e+02	-2.831504e+01
3.336273e+02	-2.836506e+01
3.355544e+02	-2.841472e+01
3.374925e+02	-2.846426e+01
3.394418e+02	-2.851579e+01
3.414024e+02	-2.856598e+01
3.433744e+02	-2.861343e+01
3.453577e+02	-2.866531e+01
3.473525e+02	-2.871342e+01
3.493588e+02	-2.876296e+01
3.513766e+02	-2.881549e+01
3.534062e+02	-2.886612e+01
3.554474e+02	-2.891430e+01
3.575005e+02	-2.896348e+01
3.595654e+02	-2.901723e+01
3.616422e+02	-2.906713e+01
3.637311e+02	-2.911585e+01
3.658320e+02	-2.916691e+01
3.679450e+02	-2.921675e+01
3.700702e+02	-2.926468e+01
3.722077e+02	-2.932119e+01
3.743576e+02	-2.936432e+01
3.765199e+02	-2.942033e+01
3.786946e+02	-2.946556e+01
3.808820e+02	-2.951433e+01
3.830819e+02	-2.956231e+01
3.852946e+02	-2.961898e+01
3.875200e+02	-2.967011e+01
3.897583e+02	-2.971651e+01
3.920096e+02	-2.976635e+01
3.942738e+02	-2.981497e+01
3.965511e+02	-2.987200e+01
3.988416e+02	-2.991930e+01
4.011452e+02	-2.995942e+01
4.034622e+02	-3.001881e+01
4.057926e+02	-3.006749e+01
4.081365e+02	-3.011798e+01
4.104938e+02	-3.016966e+01
4.128648e+02	-3.021457e+01
4.152495e+02	-3.026900e+01
4.176480e+02	-3.032141e+01
4.200603e+02	-3.036998e+01
4.224866e+02	-3.041386e+01
4.249268e+02	-3.046741e+01
4.273812e+02	-3.051834e+01
4.298497e+02	-3.056796e+01
4.323325e+02	-3.061714e+01
4.348297e+02	-3.066320e+01
4.373412e+02	-3.071816e+01
4.398673e+02	-3.076352e+01
4.424079e+02	-3.082129e+01
4.449633e+02	-3.086845e+01
4.475334e+02	-3.091850e+01
4.501183e+02	-3.096894e+01
4.527182e+02	-3.101921e+01
4.553330e+02	-3.106735e+01
4.579630e+02	-3.111729e+01
4.606082e+02	-3.117148e+01
4.632687e+02	-3.121234e+01
4.659445e+02	-3.127127e+01
4.686358e+02	-3.132429e+01
4.713426e+02	-3.136510e+01
4.740650e+02	-3.142119e+01
4.768032e+02	-3.147357e+01
4.795572e+02	-3.152013e+01
4.823271e+02	-3.157059e+01
4.851130e+02	-3.162339e+01
4.879150e+02	-3.166825e+01
4.907332e+02	-3.172784e+01
4.935676e+02	-3.176613e+01
4.964185e+02	-3.181807e+01
4.992858e+02	-3.187506e+01
5.021696e+02	-3.192433e+01
5.050701e+02	-3.197178e+01
5.079874e+02	-3.202616e+01
5.109215e+02	-3.207371e+01
5.138726e+02	-3.212531e+01
5.168407e+02	-3.217620e+01
5.198259e+02	-3.222396e+01
5.228284e+02	-3.227691e+01
5.258482e+02	-3.232774e+01
5.288855e+02	-3.236610e+01
5.319403e+02	-3.242921e+01
5.350128e+02	-3.247917e+01
5.381030e+02	-3.252127e+01
5.412111e+02	-3.258096e+01
5.443371e+02	-3.262829e+01
5.474812e+02	-3.267915e+01
5.506434e+02	-3.272829e+01
5.538239e+02	-3.277708e+01
5.570228e+02	-3.283275e+01
5.602401e+02	-3.287825e+01
5.634760e+02	-3.293291e+01
5.667306e+02	-3.297536e+01
5.700040e+02	-3.302994e+01
5.732964e+02	-3.307627e+01
5.766077e+02	-3.312623e+01
5.799382e+02	-3.318262e+01
5.832879e+02	-3.322799e+01
5.866569e+02	-3.327853e+01
5.900454e+02	-3.332953e+01
5.934535e+02	-3.337207e+01
5.968813e+02	-3.343027e+01
6.003288e+02	-3.347514e+01
6.037963e+02	-3.353661e+01
6.072838e+02	-3.357944e+01
6.107914e+02	-3.363027e+01
6.143194e+02	-3.368007e+01
6.178676e+02	-3.373805e+01
6.214364e+02	-3.378375e+01
6.250258e+02	-3.383181e+01
6.286359e+02	-3.387800e+01
6.322669e+02	-3.393180e+01
6.359189e+02	-3.398663e+01
6.395919e+02	-3.402825e+01
6.432862e+02	-3.408588e+01
6.470017e+02	-3.413602e+01
6.507388e+02	-3.418679e+01
6.544974e+02	-3.423887e+01
6.582778e+02	-3.428553e+01
6.620800e+02	-3.433878e+01
6.659041e+02	-3.438056e+01
6.697504e+02	-3.442549e+01
6.736188e+02	-3.448651e+01
6.775096e+02	-3.454030e+01
6.814229e+02	-3.458077e+01
6.853587e+02	-3.463881e+01
6.893173e+02	-3.468767e+01
6.932988e+02	-3.474216e+01
6.973033e+02	-3.478263e+01
7.013309e+02	-3.483909e+01
