Frequency(Hz)	Magnitude(dB)
1.000000e+01	-1.983030e+00
1.005776e+01	-2.001357e+00
1.011585e+01	-2.019606e+00
1.017428e+01	-2.038540e+00
1.023305e+01	-2.057393e+00
1.029215e+01	-2.076095e+00
1.035160e+01	-2.095125e+00
1.041139e+01	-2.114165e+00
1.047153e+01	-2.133777e+00
1.053201e+01	-2.153385e+00
1.059284e+01	-2.173018e+00
1.065403e+01	-2.192529e+00
1.071556e+01	-2.212642e+00
1.077746e+01	-2.232673e+00
1.083971e+01	-2.252642e+00
1.090232e+01	-2.273022e+00
1.096529e+01	-2.293420e+00
1.102862e+01	-2.314037e+00
1.109232e+01	-2.334997e+00
1.115639e+01	-2.355696e+00
1.122083e+01	-2.376997e+00
1.128564e+01	-2.397820e+00
1.135083e+01	-2.419161e+00
1.141639e+01	-2.440607e+00
1.148233e+01	-2.462280e+00
1.154865e+01	-2.483926e+00
1.161536e+01	-2.505670e+00
1.168245e+01	-2.527723e+00
1.174992e+01	-2.549851e+00
1.181779e+01	-2.572168e+00
1.188605e+01	-2.594447e+00
1.195470e+01	-2.617216e+00
1.202375e+01	-2.640005e+00
1.209320e+01	-2.662726e+00
1.216305e+01	-2.685519e+00
1.223330e+01	-2.708924e+00
1.230396e+01	-2.732149e+00
1.237503e+01	-2.755935e+00
1.244651e+01	-2.779171e+00
1.251840e+01	-2.802956e+00
1.259070e+01	-2.826902e+00
1.266343e+01	-2.850685e+00
1.273657e+01	-2.875032e+00
1.281014e+01	-2.899266e+00
1.288413e+01	-2.923644e+00
1.295855e+01	-2.948306e+00
1.303339e+01	-2.972721e+00
1.310867e+01	-2.997678e+00
1.318439e+01	-3.023100e+00
1.326054e+01	-3.047747e+00
1.333713e+01	-3.073201e+00
1.341417e+01	-3.098663e+00
1.349165e+01	-3.124352e+00
1.356958e+01	-3.150126e+00
1.364795e+01	-3.176176e+00
1.372678e+01	-3.201743e+00
1.380607e+01	-3.228204e+00
1.388581e+01	-3.254459e+00
1.396602e+01	-3.280792e+00
1.404668e+01	-3.307566e+00
1.412782e+01	-3.334187e+00
1.420942e+01	-3.361153e+00
1.429149e+01	-3.388475e+00
1.437404e+01	-3.415580e+00
1.445706e+01	-3.442495e+00
1.454057e+01	-3.469913e+00
1.462455e+01	-3.497638e+00
1.470902e+01	-3.525370e+00
1.479398e+01	-3.553516e+00
1.487943e+01	-3.581466e+00
1.496537e+01	-3.609414e+00
1.505181e+01	-3.637734e+00
1.513875e+01	-3.666092e+00
1.522619e+01	-3.695062e+00
1.531414e+01	-3.723480e+00
1.540259e+01	-3.752283e+00
1.549156e+01	-3.781305e+00
1.558103e+01	-3.810629e+00
1.567103e+01	-3.839958e+00
1.576155e+01	-3.869105e+00
1.585258e+01	-3.898918e+00
1.594415e+01	-3.928787e+00
1.603624e+01	-3.958483e+00
1.612886e+01	-3.988706e+00
1.622202e+01	-4.018542e+00
1.631572e+01	-4.048900e+00
1.640996e+01	-4.079454e+00
1.650474e+01	-4.109599e+00
1.660008e+01	-4.140460e+00
1.669596e+01	-4.171293e+00
1.679239e+01	-4.202382e+00
1.688938e+01	-4.233276e+00
1.698694e+01	-4.264546e+00
1.708505e+01	-4.295833e+00
1.718373e+01	-4.327257e+00
1.728299e+01	-4.359115e+00
1.738281e+01	-4.390975e+00
1.748322e+01	-4.422596e+00
1.758420e+01	-4.454517e+00
1.768576e+01	-4.486825e+00
1.778792e+01	-4.519375e+00
1.789066e+01	-4.551567e+00
1.799399e+01	-4.584004e+00
1.809793e+01	-4.616744e+00
1.820246e+01	-4.649507e+00
1.830760e+01	-4.682788e+00
1.841334e+01	-4.715700e+00
1.851969e+01	-4.748746e+00
1.862666e+01	-4.782189e+00
1.873425e+01	-4.815305e+00
1.884246e+01	-4.849266e+00
1.895129e+01	-4.883261e+00
1.906075e+01	-4.916787e+00
1.917085e+01	-4.950722e+00
1.928158e+01	-4.984510e+00
1.939295e+01	-5.019094e+00
1.950496e+01	-5.053207e+00
1.961762e+01	-5.087633e+00
1.973093e+01	-5.122352e+00
1.984490e+01	-5.156737e+00
1.995952e+01	-5.192000e+00
2.007480e+01	-5.226978e+00
2.019076e+01	-5.261838e+00
2.030738e+01	-5.297156e+00
2.042467e+01	-5.332331e+00
2.054264e+01	-5.367684e+00
2.066130e+01	-5.403132e+00
2.078064e+01	-5.439109e+00
2.090066e+01	-5.475218e+00
2.102139e+01	-5.510931e+00
2.114280e+01	-5.546780e+00
2.126492e+01	-5.583167e+00
2.138775e+01	-5.618884e+00
2.151128e+01	-5.655627e+00
2.163553e+01	-5.692059e+00
2.176050e+01	-5.728686e+00
2.188619e+01	-5.765132e+00
2.201260e+01	-5.802034e+00
2.213974e+01	-5.839309e+00
2.226762e+01	-5.876032e+00
2.239624e+01	-5.913462e+00
2.252560e+01	-5.950298e+00
2.265571e+01	-5.987953e+00
2.278656e+01	-6.025514e+00
2.291818e+01	-6.062966e+00
2.305055e+01	-6.100990e+00
2.318369e+01	-6.138128e+00
2.331760e+01	-6.176287e+00
2.345228e+01	-6.214616e+00
2.358774e+01	-6.252553e+00
2.372398e+01	-6.290883e+00
2.386101e+01	-6.329087e+00
2.399883e+01	-6.367659e+00
2.413745e+01	-6.405961e+00
2.427686e+01	-6.444432e+00
2.441709e+01	-6.483213e+00
2.455812e+01	-6.522288e+00
2.469997e+01	-6.561088e+00
2.484263e+01	-6.600037e+00
2.498612e+01	-6.639089e+00
2.513044e+01	-6.678377e+00
2.527559e+01	-6.717991e+00
2.542158e+01	-6.757497e+00
2.556842e+01	-6.796733e+00
2.571610e+01	-6.836239e+00
2.586463e+01	-6.875928e+00
2.601403e+01	-6.915496e+00
2.616428e+01	-6.955948e+00
2.631541e+01	-6.995937e+00
2.646740e+01	-7.035123e+00
2.662028e+01	-7.076161e+00
2.677404e+01	-7.116500e+00
2.692868e+01	-7.156316e+00
2.708422e+01	-7.197443e+00
2.724066e+01	-7.237830e+00
2.739800e+01	-7.277766e+00
2.755625e+01	-7.318856e+00
2.771541e+01	-7.359855e+00
2.787550e+01	-7.400351e+00
2.803650e+01	-7.441528e+00
2.819844e+01	-7.482801e+00
2.836131e+01	-7.524051e+00
2.852513e+01	-7.564924e+00
2.868989e+01	-7.606036e+00
2.885560e+01	-7.647533e+00
2.902227e+01	-7.689250e+00
2.918990e+01	-7.730562e+00
2.935850e+01	-7.772171e+00
2.952807e+01	-7.814155e+00
2.969863e+01	-7.855879e+00
2.987016e+01	-7.897314e+00
3.004269e+01	-7.939872e+00
3.021622e+01	-7.981468e+00
3.039075e+01	-8.023984e+00
3.056628e+01	-8.066015e+00
3.074283e+01	-8.108347e+00
3.092040e+01	-8.150760e+00
3.109900e+01	-8.192644e+00
3.127862e+01	-8.235644e+00
3.145929e+01	-8.277951e+00
3.164099e+01	-8.320919e+00
3.182375e+01	-8.362835e+00
3.200756e+01	-8.406006e+00
3.219244e+01	-8.448921e+00
3.237838e+01	-8.491980e+00
3.256540e+01	-8.534992e+00
3.275349e+01	-8.577692e+00
3.294268e+01	-8.621096e+00
3.313295e+01	-8.664876e+00
3.332433e+01	-8.707858e+00
3.351681e+01	-8.750545e+00
3.371040e+01	-8.793886e+00
3.390511e+01	-8.837312e+00
3.410094e+01	-8.881103e+00
3.429791e+01	-8.924355e+00
3.449601e+01	-8.968433e+00
3.469526e+01	-9.011975e+00
3.489566e+01	-9.055935e+00
3.509721e+01	-9.099690e+00
3.529993e+01	-9.143419e+00
3.550382e+01	-9.187565e+00
3.570889e+01	-9.231731e+00
3.591515e+01	-9.275919e+00
3.612259e+01	-9.319365e+00
3.633123e+01	-9.363652e+00
3.654108e+01	-9.407931e+00
3.675214e+01	-9.452524e+00
3.696442e+01	-9.497497e+00
3.717792e+01	-9.541255e+00
3.739266e+01	-9.585900e+00
3.760864e+01	-9.630208e+00
3.782587e+01	-9.674794e+00
3.804435e+01	-9.719597e+00
3.826409e+01	-9.764466e+00
3.848510e+01	-9.808813e+00
3.870739e+01	-9.853567e+00
3.893096e+01	-9.898898e+00
3.915583e+01	-9.943918e+00
3.938199e+01	-9.988869e+00
3.960946e+01	-1.003388e+01
3.983824e+01	-1.007861e+01
4.006834e+01	-1.012411e+01
4.029978e+01	-1.016927e+01
4.053255e+01	-1.021499e+01
4.076666e+01	-1.025947e+01
4.100213e+01	-1.030553e+01
4.123896e+01	-1.034986e+01
4.147715e+01	-1.039577e+01
4.171672e+01	-1.044140e+01
4.195767e+01	-1.048719e+01
4.220002e+01	-1.053207e+01
4.244377e+01	-1.057842e+01
4.268892e+01	-1.062445e+01
4.293549e+01	-1.066947e+01
4.318348e+01	-1.071509e+01
4.343291e+01	-1.076095e+01
4.368377e+01	-1.080693e+01
4.393609e+01	-1.085253e+01
4.418986e+01	-1.089885e+01
4.444510e+01	-1.094468e+01
4.470182e+01	-1.099057e+01
4.496001e+01	-1.103655e+01
4.521970e+01	-1.108310e+01
4.548089e+01	-1.112924e+01
4.574358e+01	-1.117510e+01
4.600779e+01	-1.122138e+01
4.627353e+01	-1.126846e+01
4.654081e+01	-1.131428e+01
4.680963e+01	-1.136026e+01
4.708000e+01	-1.140693e+01
4.735193e+01	-1.145297e+01
4.762543e+01	-1.150028e+01
4.790051e+01	-1.154619e+01
4.817719e+01	-1.159307e+01
4.845545e+01	-1.163913e+01
4.873533e+01	-1.168605e+01
4.901682e+01	-1.173268e+01
4.929994e+01	-1.177914e+01
4.958470e+01	-1.182638e+01
4.987110e+01	-1.187279e+01
5.015915e+01	-1.191988e+01
5.044887e+01	-1.196676e+01
5.074026e+01	-1.201325e+01
5.103333e+01	-1.206089e+01
5.132810e+01	-1.210661e+01
5.162457e+01	-1.215466e+01
5.192275e+01	-1.220054e+01
5.222265e+01	-1.224862e+01
5.252429e+01	-1.229529e+01
5.282767e+01	-1.234222e+01
5.313280e+01	-1.238965e+01
5.343969e+01	-1.243655e+01
5.374836e+01	-1.248415e+01
5.405880e+01	-1.253058e+01
5.437105e+01	-1.257826e+01
5.468509e+01	-1.262565e+01
5.500095e+01	-1.267269e+01
5.531863e+01	-1.271957e+01
5.563815e+01	-1.276814e+01
5.595951e+01	-1.281556e+01
5.628273e+01	-1.286224e+01
5.660782e+01	-1.290972e+01
5.693479e+01	-1.295757e+01
5.726364e+01	-1.300496e+01
5.759439e+01	-1.305213e+01
5.792705e+01	-1.310031e+01
5.826164e+01	-1.314667e+01
5.859815e+01	-1.319518e+01
5.893662e+01	-1.324300e+01
5.927703e+01	-1.329100e+01
5.961941e+01	-1.333826e+01
5.996377e+01	-1.338635e+01
6.031012e+01	-1.343336e+01
6.065847e+01	-1.348179e+01
6.100883e+01	-1.352872e+01
6.136121e+01	-1.357723e+01
6.171563e+01	-1.362503e+01
6.207210e+01	-1.367361e+01
6.243063e+01	-1.372114e+01
6.279122e+01	-1.376877e+01
6.315390e+01	-1.381587e+01
6.351868e+01	-1.386419e+01
6.388556e+01	-1.391257e+01
6.425456e+01	-1.395958e+01
6.462569e+01	-1.400828e+01
6.499897e+01	-1.405717e+01
6.537440e+01	-1.410388e+01
6.575200e+01	-1.415268e+01
6.613178e+01	-1.420045e+01
6.651375e+01	-1.424989e+01
6.689793e+01	-1.429656e+01
6.728433e+01	-1.434487e+01
6.767297e+01	-1.439403e+01
6.806384e+01	-1.444186e+01
6.845698e+01	-1.448856e+01
6.885238e+01	-1.453824e+01
6.925007e+01	-1.458610e+01
6.965005e+01	-1.463499e+01
7.005235e+01	-1.468310e+01
7.045697e+01	-1.473112e+01
7.086393e+01	-1.477896e+01
7.127323e+01	-1.482798e+01
7.168490e+01	-1.487634e+01
7.209895e+01	-1.492506e+01
7.251539e+01	-1.497350e+01
7.293424e+01	-1.502243e+01
7.335551e+01	-1.507091e+01
7.377920e+01	-1.511949e+01
7.420535e+01	-1.516643e+01
7.463396e+01	-1.521673e+01
7.506504e+01	-1.526345e+01
7.549861e+01	-1.531265e+01
7.593469e+01	-1.536212e+01
7.637328e+01	-1.541051e+01
7.681441e+01	-1.545850e+01
7.725809e+01	-1.550730e+01
7.770433e+01	-1.555575e+01
7.815315e+01	-1.560447e+01
7.860456e+01	-1.565290e+01
7.905857e+01	-1.570271e+01
7.951521e+01	-1.575113e+01
7.997449e+01	-1.579978e+01
8.043642e+01	-1.584768e+01
8.090102e+01	-1.589633e+01
8.136830e+01	-1.594544e+01
8.183828e+01	-1.599460e+01
8.231097e+01	-1.604310e+01
8.278640e+01	-1.609201e+01
8.326457e+01	-1.614031e+01
8.374550e+01	-1.618908e+01
8.422921e+01	-1.623862e+01
8.471572e+01	-1.628624e+01
8.520503e+01	-1.633636e+01
8.569717e+01	-1.638502e+01
8.619215e+01	-1.643488e+01
8.669000e+01	-1.648219e+01
8.719071e+01	-1.653150e+01
8.769432e+01	-1.658068e+01
8.820084e+01	-1.662836e+01
8.871029e+01	-1.667819e+01
8.922267e+01	-1.672800e+01
8.973802e+01	-1.677653e+01
9.025634e+01	-1.682491e+01
9.077766e+01	-1.687383e+01
9.130199e+01	-1.692288e+01
9.182935e+01	-1.697255e+01
9.235975e+01	-1.702164e+01
9.289321e+01	-1.706819e+01
9.342976e+01	-1.711965e+01
9.396941e+01	-1.716987e+01
9.451217e+01	-1.721667e+01
9.505807e+01	-1.726700e+01
9.560712e+01	-1.731566e+01
9.615934e+01	-1.736530e+01
9.671476e+01	-1.741297e+01
9.727338e+01	-1.746487e+01
9.783522e+01	-1.751162e+01
9.840032e+01	-1.756113e+01
9.896867e+01	-1.761069e+01
9.954031e+01	-1.765983e+01
1.001153e+02	-1.770928e+01
1.006935e+02	-1.775846e+01
1.012751e+02	-1.780676e+01
1.018601e+02	-1.785544e+01
1.024484e+02	-1.790642e+01
1.030402e+02	-1.795538e+01
1.036353e+02	-1.800360e+01
1.042339e+02	-1.805296e+01
1.048360e+02	-1.810216e+01
1.054415e+02	-1.815195e+01
1.060505e+02	-1.820123e+01
1.066631e+02	-1.825024e+01
1.072791e+02	-1.830007e+01
1.078988e+02	-1.834679e+01
1.085220e+02	-1.839738e+01
1.091488e+02	-1.844748e+01
1.097793e+02	-1.849723e+01
1.104133e+02	-1.854506e+01
1.110511e+02	-1.859433e+01
1.116925e+02	-1.864525e+01
1.123376e+02	-1.869481e+01
1.129865e+02	-1.874309e+01
1.136391e+02	-1.879223e+01
1.142955e+02	-1.884304e+01
1.149556e+02	-1.889003e+01
1.156196e+02	-1.894242e+01
1.162874e+02	-1.899092e+01
1.169591e+02	-1.904042e+01
1.176347e+02	-1.908911e+01
1.183141e+02	-1.913863e+01
1.189975e+02	-1.918761e+01
1.196848e+02	-1.923842e+01
1.203761e+02	-1.928768e+01
1.210714e+02	-1.933737e+01
1.217707e+02	-1.938543e+01
1.224740e+02	-1.943627e+01
1.231814e+02	-1.948600e+01
1.238929e+02	-1.953482e+01
1.246085e+02	-1.958429e+01
1.253283e+02	-1.963291e+01
1.260522e+02	-1.968393e+01
1.267802e+02	-1.973364e+01
1.275125e+02	-1.978185e+01
1.282490e+02	-1.983358e+01
1.289898e+02	-1.988200e+01
1.297348e+02	-1.992984e+01
1.304842e+02	-1.998069e+01
1.312378e+02	-2.002907e+01
1.319959e+02	-2.007875e+01
1.327583e+02	-2.012926e+01
1.335251e+02	-2.017798e+01
1.342963e+02	-2.022753e+01
1.350720e+02	-2.027613e+01
1.358522e+02	-2.032843e+01
1.366368e+02	-2.037749e+01
1.374260e+02	-2.042575e+01
1.382198e+02	-2.047506e+01
1.390182e+02	-2.052427e+01
1.398211e+02	-2.057568e+01
1.406287e+02	-2.062361e+01
1.414410e+02	-2.067480e+01
1.422579e+02	-2.072347e+01
1.430796e+02	-2.077327e+01
1.439060e+02	-2.082340e+01
1.447372e+02	-2.087257e+01
1.455732e+02	-2.092253e+01
1.464141e+02	-2.097026e+01
1.472597e+02	-2.101940e+01
1.481103e+02	-2.107205e+01
1.489658e+02	-2.111929e+01
1.498262e+02	-2.117107e+01
1.506916e+02	-2.121736e+01
1.515620e+02	-2.126988e+01
1.524374e+02	-2.131852e+01
1.533179e+02	-2.136857e+01
1.542034e+02	-2.141829e+01
1.550941e+02	-2.146777e+01
1.559899e+02	-2.151992e+01
1.568909e+02	-2.156881e+01
1.577971e+02	-2.161874e+01
1.587085e+02	-2.166817e+01
1.596252e+02	-2.171599e+01
1.605472e+02	-2.176653e+01
1.614745e+02	-2.181541e+01
1.624072e+02	-2.186497e+01
1.633453e+02	-2.191574e+01
1.642887e+02	-2.196490e+01
1.652377e+02	-2.201492e+01
1.661921e+02	-2.206414e+01
1.671520e+02	-2.211562e+01
1.681175e+02	-2.216543e+01
1.690885e+02	-2.221540e+01
1.700651e+02	-2.226317e+01
1.710474e+02	-2.231588e+01
1.720354e+02	-2.236394e+01
1.730291e+02	-2.241074e+01
1.740285e+02	-2.246218e+01
1.750337e+02	-2.251406e+01
1.760446e+02	-2.256313e+01
1.770615e+02	-2.261271e+01
1.780842e+02	-2.266281e+01
1.791128e+02	-2.271179e+01
1.801473e+02	-2.275962e+01
1.811878e+02	-2.280940e+01
1.822344e+02	-2.286034e+01
1.832870e+02	-2.291045e+01
1.843456e+02	-2.296174e+01
1.854104e+02	-2.300942e+01
1.864813e+02	-2.306138e+01
1.875584e+02	-2.310910e+01
1.886418e+02	-2.316140e+01
1.897313e+02	-2.321030e+01
1.908272e+02	-2.326123e+01
1.919294e+02	-2.330877e+01
1.930380e+02	-2.335887e+01
1.941530e+02	-2.340708e+01
1.952744e+02	-2.346042e+01
1.964023e+02	-2.350789e+01
1.975367e+02	-2.355712e+01
1.986777e+02	-2.360873e+01
1.998252e+02	-2.365625e+01
2.009794e+02	-2.370712e+01
2.021403e+02	-2.375911e+01
2.033078e+02	-2.380990e+01
2.044821e+02	-2.385638e+01
2.056632e+02	-2.390563e+01
2.068511e+02	-2.395655e+01
2.080459e+02	-2.400702e+01
2.092475e+02	-2.405752e+01
2.104561e+02	-2.410620e+01
2.116717e+02	-2.415782e+01
2.128943e+02	-2.420593e+01
2.141240e+02	-2.425713e+01
2.153608e+02	-2.430731e+01
2.166047e+02	-2.435318e+01
2.178558e+02	-2.440739e+01
2.191141e+02	-2.445470e+01
2.203797e+02	-2.450480e+01
2.216526e+02	-2.455431e+01
2.229329e+02	-2.460390e+01
2.242205e+02	-2.465466e+01
2.255156e+02	-2.470468e+01
2.268182e+02	-2.475393e+01
2.281283e+02	-2.480512e+01
2.294459e+02	-2.485495e+01
2.307712e+02	-2.490683e+01
2.321041e+02	-2.495437e+01
2.334447e+02	-2.500615e+01
2.347931e+02	-2.505487e+01
2.361493e+02	-2.510447e+01
2.375133e+02	-2.515415e+01
2.388851e+02	-2.520361e+01
2.402649e+02	-2.525388e+01
2.416527e+02	-2.530571e+01
2.430484e+02	-2.535469e+01
2.444523e+02	-2.540266e+01
2.458642e+02	-2.545282e+01
2.472843e+02	-2.550136e+01
2.487126e+02	-2.555334e+01
2.501492e+02	-2.560179e+01
2.515940e+02	-2.565377e+01
2.530472e+02	-2.570461e+01
2.545088e+02	-2.575278e+01
2.559789e+02	-2.580358e+01
2.574574e+02	-2.585477e+01
2.589444e+02	-2.590236e+01
2.604401e+02	-2.595034e+01
2.619444e+02	-2.600443e+01
2.634574e+02	-2.605480e+01
2.649791e+02	-2.610044e+01
2.665096e+02	-2.615301e+01
2.680489e+02	-2.620312e+01
2.695972e+02	-2.625080e+01
2.711544e+02	-2.630223e+01
2.727205e+02	-2.635120e+01
2.742958e+02	-2.640146e+01
2.758801e+02	-2.645642e+01
2.774736e+02	-2.650192e+01
2.790762e+02	-2.655182e+01
2.806882e+02	-2.660041e+01
2.823094e+02	-2.665605e+01
2.839400e+02	-2.670277e+01
2.855800e+02	-2.675554e+01
2.872295e+02	-2.680171e+01
2.888886e+02	-2.685724e+01
2.905572e+02	-2.690108e+01
2.922354e+02	-2.695216e+01
2.939234e+02	-2.700253e+01
2.956211e+02	-2.705112e+01
2.973286e+02	-2.709975e+01
2.990459e+02	-2.715110e+01
3.007732e+02	-2.720213e+01
3.025104e+02	-2.725380e+01
3.042577e+02	-2.730491e+01
3.060151e+02	-2.735506e+01
3.077826e+02	-2.740124e+01
3.095604e+02	-2.745203e+01
3.113484e+02	-2.749894e+01
3.131467e+02	-2.755256e+01
3.149554e+02	-2.760332e+01
3.167746e+02	-2.765384e+01
3.186043e+02	-2.770270e+01
3.204445e+02	-2.774931e+01
3.222954e+02	-2.780164e+01
3.241570e+02	-2.785257e+01
3.260293e+02	-2.790030e+01
3.279124e+02	-2.795239e+01
3.298064e+02	-2.800208e+01
3.317114e+02	-2.805132e+01
3.336273e+02	-2.810023e+01
3.355544e+02	-2.815394e+01
3.374925e+02	-2.820313e+01
3.394418e+02	-2.825280e+01
3.414024e+02	-2.830298e+01
3.433744e+02	-2.835193e+01
3.453577e+02	-2.840010e+01
3.473525e+02	-2.845045e+01
3.493588e+02	-2.850355e+01
3.513766e+02	-2.855071e+01
3.534062e+02	-2.860390e+01
3.554474e+02	-2.865731e+01
3.575005e+02	-2.870554e+01
3.595654e+02	-2.875414e+01
3.616422e+02	-2.880601e+01
3.637311e+02	-2.885177e+01
3.658320e+02	-2.890538e+01
3.679450e+02	-2.895506e+01
3.700702e+02	-2.900533e+01
3.722077e+02	-2.905432e+01
3.743576e+02	-2.910310e+01
3.765199e+02	-2.915489e+01
3.786946e+02	-2.920149e+01
3.808820e+02	-2.925424e+01
3.830819e+02	-2.930153e+01
3.852946e+02	-2.935571e+01
3.875200e+02	-2.940355e+01
3.897583e+02	-2.945559e+01
3.920096e+02	-2.950168e+01
3.942738e+02	-2.955241e+01
3.965511e+02	-2.960202e+01
3.988416e+02	-2.965387e+01
4.011452e+02	-2.970492e+01
4.034622e+02	-2.975438e+01
4.057926e+02	-2.980052e+01
4.081365e+02	-2.985447e+01
4.104938e+02	-2.990140e+01
4.128648e+02	-2.995576e+01
4.152495e+02	-2.999777e+01
4.176480e+02	-3.005415e+01
4.200603e+02	-3.010593e+01
4.224866e+02	-3.015620e+01
4.249268e+02	-3.020647e+01
4.273812e+02	-3.025680e+01
4.298497e+02	-3.030917e+01
4.323325e+02	-3.035528e+01
4.348297e+02	-3.040705e+01
4.373412e+02	-3.045448e+01
4.398673e+02	-3.050693e+01
4.424079e+02	-3.055545e+01
4.449633e+02	-3.061360e+01
4.475334e+02	-3.065648e+01
4.501183e+02	-3.071028e+01
4.527182e+02	-3.075470e+01
4.553330e+02	-3.080701e+01
4.579630e+02	-3.086070e+01
4.606082e+02	-3.090980e+01
4.632687e+02	-3.095899e+01
4.659445e+02	-3.100814e+01
4.686358e+02	-3.105380e+01
4.713426e+02	-3.110458e+01
4.740650e+02	-3.115715e+01
4.768032e+02	-3.120999e+01
4.795572e+02	-3.126492e+01
4.823271e+02	-3.130433e+01
4.851130e+02	-3.136169e+01
4.879150e+02	-3.140630e+01
4.907332e+02	-3.145379e+01
4.935676e+02	-3.151056e+01
4.964185e+02	-3.155678e+01
4.992858e+02	-3.161305e+01
5.021696e+02	-3.165753e+01
5.050701e+02	-3.171230e+01
5.079874e+02	-3.175941e+01
5.109215e+02	-3.181034e+01
5.138726e+02	-3.186217e+01
5.168407e+02	-3.190799e+01
5.198259e+02	-3.196543e+01
5.228284e+02	-3.200735e+01
5.258482e+02	-3.205473e+01
5.288855e+02	-3.210714e+01
5.319403e+02	-3.216271e+01
5.350128e+02	-3.221110e+01
5.381030e+02	-3.226007e+01
5.412111e+02	-3.231002e+01
5.443371e+02	-3.236401e+01
5.474812e+02	-3.241470e+01
5.506434e+02	-3.246792e+01
5.538239e+02	-3.251245e+01
5.570228e+02	-3.256715e+01
5.602401e+02	-3.260893e+01
5.634760e+02	-3.266123e+01
5.667306e+02	-3.271148e+01
5.700040e+02	-3.275153e+01
5.732964e+02	-3.281382e+01
5.766077e+02	-3.286322e+01
5.799382e+02	-3.292027e+01
5.832879e+02	-3.297178e+01
5.866569e+02	-3.301571e+01
5.900454e+02	-3.306776e+01
5.934535e+02	-3.311850e+01
5.968813e+02	-3.316388e+01
6.003288e+02	-3.320986e+01
6.037963e+02	-3.325897e+01
6.072838e+02	-3.332579e+01
6.107914e+02	-3.337014e+01
6.143194e+02	-3.341270e+01
6.178676e+02	-3.347496e+01
6.214364e+02	-3.352077e+01
6.250258e+02	-3.356711e+01
6.286359e+02	-3.361193e+01
6.322669e+02	-3.366370e+01
6.359189e+02	-3.372336e+01
6.395919e+02	-3.377779e+01
6.432862e+02	-3.381218e+01
6.470017e+02	-3.386298e+01
6.507388e+02	-3.393100e+01
6.544974e+02	-3.397243e+01
6.582778e+02	-3.401994e+01
6.620800e+02	-3.407360e+01
6.659041e+02	-3.412819e+01
6.697504e+02	-3.417294e+01
6.736188e+02	-3.422025e+01
6.775096e+02	-3.427247e+01
6.814229e+02	-3.432603e+01
6.853587e+02	-3.437426e+01
6.893173e+02	-3.442084e+01
6.932988e+02	-3.447316e+01
6.973033e+02	-3.453093e+01
7.013309e+02	-3.457624e+01
