Frequency(Hz)	Magnitude(dB)
1.000000e+01	-2.278131e+00
1.005776e+01	-2.298551e+00
1.011585e+01	-2.319293e+00
1.017428e+01	-2.340111e+00
1.023305e+01	-2.360971e+00
1.029215e+01	-2.381594e+00
1.035160e+01	-2.403139e+00
1.041139e+01	-2.424522e+00
1.047153e+01	-2.445820e+00
1.053201e+01	-2.467462e+00
1.059284e+01	-2.489291e+00
1.065403e+01	-2.511178e+00
1.071556e+01	-2.533199e+00
1.077746e+01	-2.555416e+00
1.083971e+01	-2.577611e+00
1.090232e+01	-2.600183e+00
1.096529e+01	-2.622893e+00
1.102862e+01	-2.645574e+00
1.109232e+01	-2.668493e+00
1.115639e+01	-2.691553e+00
1.122083e+01	-2.714709e+00
1.128564e+01	-2.737873e+00
1.135083e+01	-2.761452e+00
1.141639e+01	-2.784970e+00
1.148233e+01	-2.808941e+00
1.154865e+01	-2.832511e+00
1.161536e+01	-2.856900e+00
1.168245e+01	-2.881037e+00
1.174992e+01	-2.905405e+00
1.181779e+01	-2.929814e+00
1.188605e+01	-2.954367e+00
1.195470e+01	-2.979340e+00
1.202375e+01	-3.003920e+00
1.209320e+01	-3.029238e+00
1.216305e+01	-3.054167e+00
1.223330e+01	-3.079715e+00
1.230396e+01	-3.105147e+00
1.237503e+01	-3.130839e+00
1.244651e+01	-3.156245e+00
1.251840e+01	-3.182406e+00
1.259070e+01	-3.208390e+00
1.266343e+01	-3.234676e+00
1.273657e+01	-3.261024e+00
1.281014e+01	-3.287352e+00
1.288413e+01	-3.314044e+00
1.295855e+01	-3.340993e+00
1.303339e+01	-3.367782e+00
1.310867e+01	-3.394681e+00
1.318439e+01	-3.422011e+00
1.326054e+01	-3.449197e+00
1.333713e+01	-3.476888e+00
1.341417e+01	-3.504389e+00
1.349165e+01	-3.532344e+00
1.356958e+01	-3.560126e+00
1.364795e+01	-3.588334e+00
1.372678e+01	-3.616462e+00
1.380607e+01	-3.644794e+00
1.388581e+01	-3.673090e+00
1.396602e+01	-3.701803e+00
1.404668e+01	-3.730794e+00
1.412782e+01	-3.759427e+00
1.420942e+01	-3.788765e+00
1.429149e+01	-3.817811e+00
1.437404e+01	-3.847188e+00
1.445706e+01	-3.876565e+00
1.454057e+01	-3.906162e+00
1.462455e+01	-3.935893e+00
1.470902e+01	-3.965726e+00
1.479398e+01	-3.995909e+00
1.487943e+01	-4.026012e+00
1.496537e+01	-4.056245e+00
1.505181e+01	-4.086806e+00
1.513875e+01	-4.117128e+00
1.522619e+01	-4.148153e+00
1.531414e+01	-4.179106e+00
1.540259e+01	-4.210000e+00
1.549156e+01	-4.241092e+00
1.558103e+01	-4.272197e+00
1.567103e+01	-4.303616e+00
1.576155e+01	-4.335355e+00
1.585258e+01	-4.366682e+00
1.594415e+01	-4.398630e+00
1.603624e+01	-4.430581e+00
1.612886e+01	-4.462630e+00
1.622202e+01	-4.494682e+00
1.631572e+01	-4.527161e+00
1.640996e+01	-4.559722e+00
1.650474e+01	-4.592153e+00
1.660008e+01	-4.624855e+00
1.669596e+01	-4.657576e+00
1.679239e+01	-4.690738e+00
1.688938e+01	-4.723583e+00
1.698694e+01	-4.756810e+00
1.708505e+01	-4.790026e+00
1.718373e+01	-4.823804e+00
1.728299e+01	-4.857100e+00
1.738281e+01	-4.891142e+00
1.748322e+01	-4.925059e+00
1.758420e+01	-4.958864e+00
1.768576e+01	-4.993493e+00
1.778792e+01	-5.027448e+00
1.789066e+01	-5.061646e+00
1.799399e+01	-5.096378e+00
1.809793e+01	-5.130830e+00
1.820246e+01	-5.165695e+00
1.830760e+01	-5.200367e+00
1.841334e+01	-5.235532e+00
1.851969e+01	-5.270617e+00
1.862666e+01	-5.305748e+00
1.873425e+01	-5.341122e+00
1.884246e+01	-5.376741e+00
1.895129e+01	-5.411989e+00
1.906075e+01	-5.447797e+00
1.917085e+01	-5.483634e+00
1.928158e+01	-5.519331e+00
1.939295e+01	-5.555602e+00
1.950496e+01	-5.591794e+00
1.961762e+01	-5.627983e+00
1.973093e+01	-5.664624e+00
1.984490e+01	-5.701169e+00
1.995952e+01	-5.737555e+00
2.007480e+01	-5.774197e+00
2.019076e+01	-5.811023e+00
2.030738e+01	-5.848229e+00
2.042467e+01	-5.885135e+00
2.054264e+01	-5.922376e+00
2.066130e+01	-5.959580e+00
2.078064e+01	-5.997089e+00
2.090066e+01	-6.034556e+00
2.102139e+01	-6.072121e+00
2.114280e+01	-6.109714e+00
2.126492e+01	-6.147481e+00
2.138775e+01	-6.185564e+00
2.151128e+01	-6.223795e+00
2.163553e+01	-6.261892e+00
2.176050e+01	-6.300204e+00
2.188619e+01	-6.338447e+00
2.201260e+01	-6.377005e+00
2.213974e+01	-6.415744e+00
2.226762e+01	-6.454108e+00
2.239624e+01	-6.493148e+00
2.252560e+01	-6.531836e+00
2.265571e+01	-6.570443e+00
2.278656e+01	-6.609621e+00
2.291818e+01	-6.648869e+00
2.305055e+01	-6.688076e+00
2.318369e+01	-6.727333e+00
2.331760e+01	-6.766705e+00
2.345228e+01	-6.806584e+00
2.358774e+01	-6.846008e+00
2.372398e+01	-6.885917e+00
2.386101e+01	-6.925906e+00
2.399883e+01	-6.965915e+00
2.413745e+01	-7.005902e+00
2.427686e+01	-7.045639e+00
2.441709e+01	-7.086036e+00
2.455812e+01	-7.126393e+00
2.469997e+01	-7.166182e+00
2.484263e+01	-7.207133e+00
2.498612e+01	-7.247368e+00
2.513044e+01	-7.288488e+00
2.527559e+01	-7.329406e+00
2.542158e+01	-7.369855e+00
2.556842e+01	-7.410778e+00
2.571610e+01	-7.451724e+00
2.586463e+01	-7.492756e+00
2.601403e+01	-7.533653e+00
2.616428e+01	-7.575140e+00
2.631541e+01	-7.616361e+00
2.646740e+01	-7.658051e+00
2.662028e+01	-7.698973e+00
2.677404e+01	-7.740697e+00
2.692868e+01	-7.782737e+00
2.708422e+01	-7.824492e+00
2.724066e+01	-7.865974e+00
2.739800e+01	-7.907930e+00
2.755625e+01	-7.950097e+00
2.771541e+01	-7.991790e+00
2.787550e+01	-8.034570e+00
2.803650e+01	-8.076256e+00
2.819844e+01	-8.118502e+00
2.836131e+01	-8.160754e+00
2.852513e+01	-8.203203e+00
2.868989e+01	-8.245708e+00
2.885560e+01	-8.287880e+00
2.902227e+01	-8.331297e+00
2.918990e+01	-8.374011e+00
2.935850e+01	-8.416288e+00
2.952807e+01	-8.459440e+00
2.969863e+01	-8.502971e+00
2.987016e+01	-8.545658e+00
3.004269e+01	-8.588889e+00
3.021622e+01	-8.631565e+00
3.039075e+01	-8.674989e+00
3.056628e+01	-8.718258e+00
3.074283e+01	-8.761288e+00
3.092040e+01	-8.804532e+00
3.109900e+01	-8.847961e+00
3.127862e+01	-8.891758e+00
3.145929e+01	-8.935368e+00
3.164099e+01	-8.979243e+00
3.182375e+01	-9.022156e+00
3.200756e+01	-9.066499e+00
3.219244e+01	-9.110540e+00
3.237838e+01	-9.153864e+00
3.256540e+01	-9.198751e+00
3.275349e+01	-9.241984e+00
3.294268e+01	-9.286948e+00
3.313295e+01	-9.330144e+00
3.332433e+01	-9.374757e+00
3.351681e+01	-9.419064e+00
3.371040e+01	-9.463796e+00
3.390511e+01	-9.507760e+00
3.410094e+01	-9.552563e+00
3.429791e+01	-9.596435e+00
3.449601e+01	-9.641544e+00
3.469526e+01	-9.686099e+00
3.489566e+01	-9.730333e+00
3.509721e+01	-9.775168e+00
3.529993e+01	-9.820325e+00
3.550382e+01	-9.865003e+00
3.570889e+01	-9.909750e+00
3.591515e+01	-9.955097e+00
3.612259e+01	-9.999372e+00
3.633123e+01	-1.004454e+01
3.654108e+01	-1.008996e+01
3.675214e+01	-1.013543e+01
3.696442e+01	-1.018024e+01
3.717792e+01	-1.022553e+01
3.739266e+01	-1.027117e+01
3.760864e+01	-1.031659e+01
3.782587e+01	-1.036145e+01
3.804435e+01	-1.040731e+01
3.826409e+01	-1.045252e+01
3.848510e+01	-1.049812e+01
3.870739e+01	-1.054407e+01
3.893096e+01	-1.058939e+01
3.915583e+01	-1.063508e+01
3.938199e+01	-1.068103e+01
3.960946e+01	-1.072660e+01
3.983824e+01	-1.077238e+01
4.006834e+01	-1.081880e+01
4.029978e+01	-1.086434e+01
4.053255e+01	-1.091007e+01
4.076666e+01	-1.095680e+01
4.100213e+01	-1.100165e+01
4.123896e+01	-1.104864e+01
4.147715e+01	-1.109426e+01
4.171672e+01	-1.114064e+01
4.195767e+01	-1.118639e+01
4.220002e+01	-1.123296e+01
4.244377e+01	-1.127889e+01
4.268892e+01	-1.132552e+01
4.293549e+01	-1.137217e+01
4.318348e+01	-1.141810e+01
4.343291e+01	-1.146475e+01
4.368377e+01	-1.151139e+01
4.393609e+01	-1.155794e+01
4.418986e+01	-1.160439e+01
4.444510e+01	-1.165057e+01
4.470182e+01	-1.169766e+01
4.496001e+01	-1.174387e+01
4.521970e+01	-1.179033e+01
4.548089e+01	-1.183731e+01
4.574358e+01	-1.188439e+01
4.600779e+01	-1.193074e+01
4.627353e+01	-1.197818e+01
4.654081e+01	-1.202453e+01
4.680963e+01	-1.207208e+01
4.708000e+01	-1.211833e+01
4.735193e+01	-1.216538e+01
4.762543e+01	-1.221283e+01
4.790051e+01	-1.225963e+01
4.817719e+01	-1.230688e+01
4.845545e+01	-1.235382e+01
4.873533e+01	-1.240107e+01
4.901682e+01	-1.244782e+01
4.929994e+01	-1.249546e+01
4.958470e+01	-1.254239e+01
4.987110e+01	-1.258964e+01
5.015915e+01	-1.263713e+01
5.044887e+01	-1.268435e+01
5.074026e+01	-1.273192e+01
5.103333e+01	-1.277934e+01
5.132810e+01	-1.282676e+01
5.162457e+01	-1.287407e+01
5.192275e+01	-1.292147e+01
5.222265e+01	-1.296885e+01
5.252429e+01	-1.301622e+01
5.282767e+01	-1.306350e+01
5.313280e+01	-1.311160e+01
5.343969e+01	-1.315844e+01
5.374836e+01	-1.320643e+01
5.405880e+01	-1.325415e+01
5.437105e+01	-1.330220e+01
5.468509e+01	-1.335024e+01
5.500095e+01	-1.339722e+01
5.531863e+01	-1.344571e+01
5.563815e+01	-1.349328e+01
5.595951e+01	-1.354071e+01
5.628273e+01	-1.358901e+01
5.660782e+01	-1.363608e+01
5.693479e+01	-1.368434e+01
5.726364e+01	-1.373307e+01
5.759439e+01	-1.377970e+01
5.792705e+01	-1.382815e+01
5.826164e+01	-1.387640e+01
5.859815e+01	-1.392437e+01
5.893662e+01	-1.397268e+01
5.927703e+01	-1.401963e+01
5.961941e+01	-1.406772e+01
5.996377e+01	-1.411654e+01
6.031012e+01	-1.416440e+01
6.065847e+01	-1.421210e+01
6.100883e+01	-1.426028e+01
6.136121e+01	-1.430885e+01
6.171563e+01	-1.435704e+01
6.207210e+01	-1.440524e+01
6.243063e+01	-1.445455e+01
6.279122e+01	-1.450149e+01
6.315390e+01	-1.455085e+01
6.351868e+01	-1.459753e+01
6.388556e+01	-1.464659e+01
6.425456e+01	-1.469474e+01
6.462569e+01	-1.474272e+01
6.499897e+01	-1.479123e+01
6.537440e+01	-1.484041e+01
6.575200e+01	-1.488793e+01
6.613178e+01	-1.493666e+01
6.651375e+01	-1.498518e+01
6.689793e+01	-1.503459e+01
6.728433e+01	-1.508172e+01
6.767297e+01	-1.513031e+01
6.806384e+01	-1.517859e+01
6.845698e+01	-1.522798e+01
6.885238e+01	-1.527600e+01
6.925007e+01	-1.532604e+01
6.965005e+01	-1.537284e+01
7.005235e+01	-1.542233e+01
7.045697e+01	-1.547113e+01
7.086393e+01	-1.551972e+01
7.127323e+01	-1.556783e+01
7.168490e+01	-1.561612e+01
7.209895e+01	-1.566484e+01
7.251539e+01	-1.571504e+01
7.293424e+01	-1.576228e+01
7.335551e+01	-1.581111e+01
7.377920e+01	-1.585949e+01
7.420535e+01	-1.590831e+01
7.463396e+01	-1.595705e+01
7.506504e+01	-1.600570e+01
7.549861e+01	-1.605509e+01
7.593469e+01	-1.610378e+01
7.637328e+01	-1.615180e+01
7.681441e+01	-1.620058e+01
7.725809e+01	-1.624903e+01
7.770433e+01	-1.629923e+01
7.815315e+01	-1.634732e+01
7.860456e+01	-1.639625e+01
7.905857e+01	-1.644558e+01
7.951521e+01	-1.649545e+01
7.997449e+01	-1.654367e+01
8.043642e+01	-1.659244e+01
8.090102e+01	-1.664140e+01
8.136830e+01	-1.669026e+01
8.183828e+01	-1.673922e+01
8.231097e+01	-1.678768e+01
8.278640e+01	-1.683681e+01
8.326457e+01	-1.688546e+01
8.374550e+01	-1.693398e+01
8.422921e+01	-1.698441e+01
8.471572e+01	-1.703363e+01
8.520503e+01	-1.708091e+01
8.569717e+01	-1.713079e+01
8.619215e+01	-1.718030e+01
8.669000e+01	-1.722814e+01
8.719071e+01	-1.727850e+01
8.769432e+01	-1.732801e+01
8.820084e+01	-1.737727e+01
8.871029e+01	-1.742532e+01
8.922267e+01	-1.747367e+01
8.973802e+01	-1.752519e+01
9.025634e+01	-1.757319e+01
9.077766e+01	-1.762326e+01
9.130199e+01	-1.767139e+01
9.182935e+01	-1.772153e+01
9.235975e+01	-1.776966e+01
9.289321e+01	-1.781931e+01
9.342976e+01	-1.786800e+01
9.396941e+01	-1.791757e+01
9.451217e+01	-1.796609e+01
9.505807e+01	-1.801590e+01
9.560712e+01	-1.806523e+01
9.615934e+01	-1.811384e+01
9.671476e+01	-1.816332e+01
9.727338e+01	-1.821244e+01
9.783522e+01	-1.826357e+01
9.840032e+01	-1.831092e+01
9.896867e+01	-1.836171e+01
9.954031e+01	-1.841034e+01
1.001153e+02	-1.845878e+01
1.006935e+02	-1.850902e+01
1.012751e+02	-1.855670e+01
1.018601e+02	-1.860851e+01
1.024484e+02	-1.865712e+01
1.030402e+02	-1.870538e+01
1.036353e+02	-1.875683e+01
1.042339e+02	-1.880539e+01
1.048360e+02	-1.885437e+01
1.054415e+02	-1.890437e+01
1.060505e+02	-1.895318e+01
1.066631e+02	-1.900165e+01
1.072791e+02	-1.905207e+01
1.078988e+02	-1.910107e+01
1.085220e+02	-1.915021e+01
1.091488e+02	-1.920058e+01
1.097793e+02	-1.924913e+01
1.104133e+02	-1.929848e+01
1.110511e+02	-1.934883e+01
1.116925e+02	-1.939630e+01
1.123376e+02	-1.944673e+01
1.129865e+02	-1.949748e+01
1.136391e+02	-1.954660e+01
1.142955e+02	-1.959551e+01
1.149556e+02	-1.964582e+01
1.156196e+02	-1.969402e+01
1.162874e+02	-1.974470e+01
1.169591e+02	-1.979455e+01
1.176347e+02	-1.984418e+01
1.183141e+02	-1.989352e+01
1.189975e+02	-1.994193e+01
1.196848e+02	-1.999163e+01
1.203761e+02	-2.004262e+01
1.210714e+02	-2.008977e+01
1.217707e+02	-2.014064e+01
1.224740e+02	-2.018981e+01
1.231814e+02	-2.024056e+01
1.238929e+02	-2.028995e+01
1.246085e+02	-2.033903e+01
1.253283e+02	-2.038893e+01
1.260522e+02	-2.043794e+01
1.267802e+02	-2.048877e+01
1.275125e+02	-2.053712e+01
1.282490e+02	-2.058795e+01
1.289898e+02	-2.063627e+01
1.297348e+02	-2.068637e+01
1.304842e+02	-2.073683e+01
1.312378e+02	-2.078495e+01
1.319959e+02	-2.083345e+01
1.327583e+02	-2.088464e+01
1.335251e+02	-2.093317e+01
1.342963e+02	-2.098537e+01
1.350720e+02	-2.103295e+01
1.358522e+02	-2.108318e+01
1.366368e+02	-2.113292e+01
1.374260e+02	-2.118196e+01
1.382198e+02	-2.123109e+01
1.390182e+02	-2.128210e+01
1.398211e+02	-2.133091e+01
1.406287e+02	-2.138201e+01
1.414410e+02	-2.143024e+01
1.422579e+02	-2.147832e+01
1.430796e+02	-2.153140e+01
1.439060e+02	-2.158094e+01
1.447372e+02	-2.163018e+01
1.455732e+02	-2.167887e+01
1.464141e+02	-2.172934e+01
1.472597e+02	-2.177613e+01
1.481103e+02	-2.182891e+01
1.489658e+02	-2.187703e+01
1.498262e+02	-2.192559e+01
1.506916e+02	-2.197755e+01
1.515620e+02	-2.202936e+01
1.524374e+02	-2.207746e+01
1.533179e+02	-2.212656e+01
1.542034e+02	-2.217717e+01
1.550941e+02	-2.222532e+01
1.559899e+02	-2.227399e+01
1.568909e+02	-2.232516e+01
1.577971e+02	-2.237406e+01
1.587085e+02	-2.242638e+01
1.596252e+02	-2.247520e+01
1.605472e+02	-2.252429e+01
1.614745e+02	-2.257541e+01
1.624072e+02	-2.262363e+01
1.633453e+02	-2.267288e+01
1.642887e+02	-2.272486e+01
1.652377e+02	-2.277535e+01
1.661921e+02	-2.282256e+01
1.671520e+02	-2.287114e+01
1.681175e+02	-2.292493e+01
1.690885e+02	-2.297338e+01
1.700651e+02	-2.302164e+01
1.710474e+02	-2.307004e+01
1.720354e+02	-2.312103e+01
1.730291e+02	-2.317209e+01
1.740285e+02	-2.322252e+01
1.750337e+02	-2.327406e+01
1.760446e+02	-2.332130e+01
1.770615e+02	-2.336990e+01
1.780842e+02	-2.342311e+01
1.791128e+02	-2.347150e+01
1.801473e+02	-2.351891e+01
1.811878e+02	-2.356983e+01
1.822344e+02	-2.362019e+01
1.832870e+02	-2.366926e+01
1.843456e+02	-2.372121e+01
1.854104e+02	-2.376717e+01
1.864813e+02	-2.381702e+01
1.875584e+02	-2.386918e+01
1.886418e+02	-2.391899e+01
1.897313e+02	-2.396895e+01
1.908272e+02	-2.401744e+01
1.919294e+02	-2.406762e+01
1.930380e+02	-2.411805e+01
1.941530e+02	-2.417147e+01
1.952744e+02	-2.422043e+01
1.964023e+02	-2.426863e+01
1.975367e+02	-2.431875e+01
1.986777e+02	-2.436843e+01
1.998252e+02	-2.441704e+01
2.009794e+02	-2.446787e+01
2.021403e+02	-2.451842e+01
2.033078e+02	-2.456654e+01
2.044821e+02	-2.461646e+01
2.056632e+02	-2.466596e+01
2.068511e+02	-2.471767e+01
2.080459e+02	-2.476705e+01
2.092475e+02	-2.481455e+01
2.104561e+02	-2.486951e+01
2.116717e+02	-2.491934e+01
2.128943e+02	-2.497045e+01
2.141240e+02	-2.501699e+01
2.153608e+02	-2.506678e+01
2.166047e+02	-2.511802e+01
2.178558e+02	-2.516683e+01
2.191141e+02	-2.521460e+01
2.203797e+02	-2.526619e+01
2.216526e+02	-2.531565e+01
2.229329e+02	-2.536590e+01
2.242205e+02	-2.541811e+01
2.255156e+02	-2.546871e+01
2.268182e+02	-2.551689e+01
2.281283e+02	-2.556610e+01
2.294459e+02	-2.561536e+01
2.307712e+02	-2.566307e+01
2.321041e+02	-2.571726e+01
2.334447e+02	-2.576858e+01
2.347931e+02	-2.581443e+01
2.361493e+02	-2.586283e+01
2.375133e+02	-2.591730e+01
2.388851e+02	-2.596631e+01
2.402649e+02	-2.601612e+01
2.416527e+02	-2.606352e+01
2.430484e+02	-2.611741e+01
2.444523e+02	-2.616597e+01
2.458642e+02	-2.622019e+01
2.472843e+02	-2.626447e+01
2.487126e+02	-2.631440e+01
2.501492e+02	-2.636722e+01
2.515940e+02	-2.641554e+01
2.530472e+02	-2.646797e+01
2.545088e+02	-2.651565e+01
2.559789e+02	-2.656608e+01
2.574574e+02	-2.661812e+01
2.589444e+02	-2.666278e+01
2.604401e+02	-2.671612e+01
2.619444e+02	-2.676397e+01
2.634574e+02	-2.681610e+01
2.649791e+02	-2.686719e+01
2.665096e+02	-2.691224e+01
2.680489e+02	-2.696519e+01
2.695972e+02	-2.701501e+01
2.711544e+02	-2.706433e+01
2.727205e+02	-2.711502e+01
2.742958e+02	-2.716937e+01
2.758801e+02	-2.721679e+01
2.774736e+02	-2.726757e+01
2.790762e+02	-2.731719e+01
2.806882e+02	-2.736252e+01
2.823094e+02	-2.741283e+01
2.839400e+02	-2.746351e+01
2.855800e+02	-2.751170e+01
2.872295e+02	-2.756375e+01
2.888886e+02	-2.761640e+01
2.905572e+02	-2.766387e+01
2.922354e+02	-2.771576e+01
2.939234e+02	-2.776776e+01
2.956211e+02	-2.781680e+01
2.973286e+02	-2.786489e+01
2.990459e+02	-2.791461e+01
3.007732e+02	-2.796638e+01
3.025104e+02	-2.801048e+01
3.042577e+02	-2.806665e+01
3.060151e+02	-2.811652e+01
3.077826e+02	-2.816392e+01
3.095604e+02	-2.821653e+01
3.113484e+02	-2.826851e+01
3.131467e+02	-2.831632e+01
3.149554e+02	-2.836455e+01
3.167746e+02	-2.841732e+01
3.186043e+02	-2.846523e+01
3.204445e+02	-2.851798e+01
3.222954e+02	-2.856467e+01
3.241570e+02	-2.861817e+01
3.260293e+02	-2.866360e+01
3.279124e+02	-2.871231e+01
3.298064e+02	-2.876900e+01
3.317114e+02	-2.881797e+01
3.336273e+02	-2.886791e+01
3.355544e+02	-2.890945e+01
3.374925e+02	-2.896659e+01
3.394418e+02	-2.901825e+01
3.414024e+02	-2.906942e+01
3.433744e+02	-2.911316e+01
3.453577e+02	-2.916419e+01
3.473525e+02	-2.921879e+01
3.493588e+02	-2.926435e+01
3.513766e+02	-2.931518e+01
3.534062e+02	-2.936343e+01
3.554474e+02	-2.941356e+01
3.575005e+02	-2.946958e+01
3.595654e+02	-2.951589e+01
3.616422e+02	-2.956556e+01
3.637311e+02	-2.961660e+01
3.658320e+02	-2.966486e+01
3.679450e+02	-2.971616e+01
3.700702e+02	-2.976616e+01
3.722077e+02	-2.981270e+01
3.743576e+02	-2.986844e+01
3.765199e+02	-2.991836e+01
3.786946e+02	-2.997112e+01
3.808820e+02	-3.001806e+01
3.830819e+02	-3.007186e+01
3.852946e+02	-3.011750e+01
3.875200e+02	-3.016764e+01
3.897583e+02	-3.021578e+01
3.920096e+02	-3.026998e+01
3.942738e+02	-3.031670e+01
3.965511e+02	-3.036496e+01
3.988416e+02	-3.041288e+01
4.011452e+02	-3.046621e+01
4.034622e+02	-3.051944e+01
4.057926e+02	-3.056859e+01
4.081365e+02	-3.061727e+01
4.104938e+02	-3.066654e+01
4.128648e+02	-3.071856e+01
4.152495e+02	-3.077058e+01
4.176480e+02	-3.081856e+01
4.200603e+02	-3.087054e+01
4.224866e+02	-3.092015e+01
4.249268e+02	-3.096967e+01
4.273812e+02	-3.102470e+01
4.298497e+02	-3.107067e+01
4.323325e+02	-3.111998e+01
4.348297e+02	-3.116935e+01
4.373412e+02	-3.122059e+01
4.398673e+02	-3.126782e+01
4.424079e+02	-3.131990e+01
4.449633e+02	-3.137351e+01
4.475334e+02	-3.142284e+01
4.501183e+02	-3.147155e+01
4.527182e+02	-3.151629e+01
4.553330e+02	-3.156555e+01
4.579630e+02	-3.161457e+01
4.606082e+02	-3.166611e+01
4.632687e+02	-3.172032e+01
4.659445e+02	-3.177354e+01
4.686358e+02	-3.181999e+01
4.713426e+02	-3.187548e+01
4.740650e+02	-3.192497e+01
4.768032e+02	-3.197000e+01
4.795572e+02	-3.202500e+01
4.823271e+02	-3.206747e+01
4.851130e+02	-3.211943e+01
4.879150e+02	-3.217119e+01
4.907332e+02	-3.222278e+01
4.935676e+02	-3.227240e+01
4.964185e+02	-3.232185e+01
4.992858e+02	-3.237651e+01
5.021696e+02	-3.242524e+01
5.050701e+02	-3.247221e+01
5.079874e+02	-3.252841e+01
5.109215e+02	-3.257382e+01
5.138726e+02	-3.262569e+01
5.168407e+02	-3.268137e+01
5.198259e+02	-3.272348e+01
5.228284e+02	-3.277457e+01
5.258482e+02	-3.282519e+01
5.288855e+02	-3.288174e+01
5.319403e+02	-3.293137e+01
5.350128e+02	-3.298117e+01
5.381030e+02	-3.303182e+01
5.412111e+02	-3.307918e+01
5.443371e+02	-3.312505e+01
5.474812e+02	-3.317583e+01
5.506434e+02	-3.322010e+01
5.538239e+02	-3.327844e+01
5.570228e+02	-3.332513e+01
5.602401e+02	-3.337693e+01
5.634760e+02	-3.342392e+01
5.667306e+02	-3.348185e+01
5.700040e+02	-3.353045e+01
5.732964e+02	-3.358416e+01
5.766077e+02	-3.363158e+01
5.799382e+02	-3.368205e+01
5.832879e+02	-3.373526e+01
5.866569e+02	-3.377384e+01
5.900454e+02	-3.382824e+01
5.934535e+02	-3.388515e+01
5.968813e+02	-3.393179e+01
6.003288e+02	-3.398136e+01
6.037963e+02	-3.403360e+01
6.072838e+02	-3.408970e+01
6.107914e+02	-3.413435e+01
6.143194e+02	-3.418080e+01
6.178676e+02	-3.422780e+01
6.214364e+02	-3.427984e+01
6.250258e+02	-3.433031e+01
6.286359e+02	-3.438732e+01
6.322669e+02	-3.443224e+01
6.359189e+02	-3.448351e+01
6.395919e+02	-3.453781e+01
6.432862e+02	-3.458633e+01
6.470017e+02	-3.463255e+01
6.507388e+02	-3.469041e+01
6.544974e+02	-3.473915e+01
6.582778e+02	-3.478847e+01
6.620800e+02	-3.483745e+01
6.659041e+02	-3.488201e+01
6.697504e+02	-3.493895e+01
6.736188e+02	-3.499216e+01
6.775096e+02	-3.503380e+01
6.814229e+02	-3.509299e+01
6.853587e+02	-3.514124e+01
6.893173e+02	-3.519254e+01
6.932988e+02	-3.524077e+01
6.973033e+02	-3.528580e+01
7.013309e+02	-3.534201e+01
