Frequency(Hz)	Magnitude(dB)
1.000000e+01	-2.152628e+00
1.005776e+01	-2.172428e+00
1.011585e+01	-2.192327e+00
1.017428e+01	-2.211973e+00
1.023305e+01	-2.232149e+00
1.029215e+01	-2.252131e+00
1.035160e+01	-2.272646e+00
1.041139e+01	-2.293137e+00
1.047153e+01	-2.313437e+00
1.053201e+01	-2.334208e+00
1.059284e+01	-2.355124e+00
1.065403e+01	-2.376160e+00
1.071556e+01	-2.397217e+00
1.077746e+01	-2.418529e+00
1.083971e+01	-2.440006e+00
1.090232e+01	-2.461393e+00
1.096529e+01	-2.483210e+00
1.102862e+01	-2.505237e+00
1.109232e+01	-2.527268e+00
1.115639e+01	-2.549247e+00
1.122083e+01	-2.571449e+00
1.128564e+01	-2.593887e+00
1.135083e+01	-2.616573e+00
1.141639e+01	-2.639387e+00
1.148233e+01	-2.662458e+00
1.154865e+01	-2.685335e+00
1.161536e+01	-2.708423e+00
1.168245e+01	-2.731602e+00
1.174992e+01	-2.755175e+00
1.181779e+01	-2.778722e+00
1.188605e+01	-2.802193e+00
1.195470e+01	-2.826252e+00
1.202375e+01	-2.850250e+00
1.209320e+01	-2.874315e+00
1.216305e+01	-2.898417e+00
1.223330e+01	-2.923072e+00
1.230396e+01	-2.947545e+00
1.237503e+01	-2.972052e+00
1.244651e+01	-2.997123e+00
1.251840e+01	-3.022065e+00
1.259070e+01	-3.047276e+00
1.266343e+01	-3.072722e+00
1.273657e+01	-3.097820e+00
1.281014e+01	-3.123787e+00
1.288413e+01	-3.149450e+00
1.295855e+01	-3.175269e+00
1.303339e+01	-3.201227e+00
1.310867e+01	-3.227501e+00
1.318439e+01	-3.253939e+00
1.326054e+01	-3.280260e+00
1.333713e+01	-3.306821e+00
1.341417e+01	-3.333616e+00
1.349165e+01	-3.360548e+00
1.356958e+01	-3.387253e+00
1.364795e+01	-3.414517e+00
1.372678e+01	-3.441833e+00
1.380607e+01	-3.469305e+00
1.388581e+01	-3.496878e+00
1.396602e+01	-3.524575e+00
1.404668e+01	-3.552341e+00
1.412782e+01	-3.580569e+00
1.420942e+01	-3.608668e+00
1.429149e+01	-3.636945e+00
1.437404e+01	-3.665590e+00
1.445706e+01	-3.694139e+00
1.454057e+01	-3.723082e+00
1.462455e+01	-3.751556e+00
1.470902e+01	-3.780578e+00
1.479398e+01	-3.809682e+00
1.487943e+01	-3.838867e+00
1.496537e+01	-3.868358e+00
1.505181e+01	-3.898304e+00
1.513875e+01	-3.927850e+00
1.522619e+01	-3.957620e+00
1.531414e+01	-3.987593e+00
1.540259e+01	-4.017778e+00
1.549156e+01	-4.048374e+00
1.558103e+01	-4.078485e+00
1.567103e+01	-4.108813e+00
1.576155e+01	-4.139715e+00
1.585258e+01	-4.170481e+00
1.594415e+01	-4.201219e+00
1.603624e+01	-4.232585e+00
1.612886e+01	-4.263546e+00
1.622202e+01	-4.294967e+00
1.631572e+01	-4.326684e+00
1.640996e+01	-4.358272e+00
1.650474e+01	-4.389818e+00
1.660008e+01	-4.421818e+00
1.669596e+01	-4.453622e+00
1.679239e+01	-4.486097e+00
1.688938e+01	-4.518312e+00
1.698694e+01	-4.550804e+00
1.708505e+01	-4.582990e+00
1.718373e+01	-4.616010e+00
1.728299e+01	-4.648596e+00
1.738281e+01	-4.681420e+00
1.748322e+01	-4.714832e+00
1.758420e+01	-4.747840e+00
1.768576e+01	-4.781081e+00
1.778792e+01	-4.814577e+00
1.789066e+01	-4.848199e+00
1.799399e+01	-4.881931e+00
1.809793e+01	-4.915531e+00
1.820246e+01	-4.949749e+00
1.830760e+01	-4.983807e+00
1.841334e+01	-5.017872e+00
1.851969e+01	-5.052340e+00
1.862666e+01	-5.087005e+00
1.873425e+01	-5.121356e+00
1.884246e+01	-5.156258e+00
1.895129e+01	-5.191005e+00
1.906075e+01	-5.225905e+00
1.917085e+01	-5.261061e+00
1.928158e+01	-5.296175e+00
1.939295e+01	-5.331756e+00
1.950496e+01	-5.366770e+00
1.961762e+01	-5.402614e+00
1.973093e+01	-5.438218e+00
1.984490e+01	-5.474077e+00
1.995952e+01	-5.509556e+00
2.007480e+01	-5.546220e+00
2.019076e+01	-5.581819e+00
2.030738e+01	-5.618103e+00
2.042467e+01	-5.654156e+00
2.054264e+01	-5.690968e+00
2.066130e+01	-5.727737e+00
2.078064e+01	-5.764435e+00
2.090066e+01	-5.801111e+00
2.102139e+01	-5.838058e+00
2.114280e+01	-5.874951e+00
2.126492e+01	-5.912305e+00
2.138775e+01	-5.949579e+00
2.151128e+01	-5.986620e+00
2.163553e+01	-6.024599e+00
2.176050e+01	-6.061949e+00
2.188619e+01	-6.099669e+00
2.201260e+01	-6.137322e+00
2.213974e+01	-6.175646e+00
2.226762e+01	-6.213401e+00
2.239624e+01	-6.251297e+00
2.252560e+01	-6.289610e+00
2.265571e+01	-6.328083e+00
2.278656e+01	-6.366508e+00
2.291818e+01	-6.405140e+00
2.305055e+01	-6.443521e+00
2.318369e+01	-6.482234e+00
2.331760e+01	-6.520944e+00
2.345228e+01	-6.559939e+00
2.358774e+01	-6.599254e+00
2.372398e+01	-6.637976e+00
2.386101e+01	-6.677535e+00
2.399883e+01	-6.716805e+00
2.413745e+01	-6.756204e+00
2.427686e+01	-6.795710e+00
2.441709e+01	-6.835098e+00
2.455812e+01	-6.874509e+00
2.469997e+01	-6.914777e+00
2.484263e+01	-6.954581e+00
2.498612e+01	-6.994775e+00
2.513044e+01	-7.034569e+00
2.527559e+01	-7.074852e+00
2.542158e+01	-7.114983e+00
2.556842e+01	-7.155585e+00
2.571610e+01	-7.196453e+00
2.586463e+01	-7.236389e+00
2.601403e+01	-7.277131e+00
2.616428e+01	-7.317984e+00
2.631541e+01	-7.358609e+00
2.646740e+01	-7.399297e+00
2.662028e+01	-7.440372e+00
2.677404e+01	-7.481692e+00
2.692868e+01	-7.522625e+00
2.708422e+01	-7.564096e+00
2.724066e+01	-7.605238e+00
2.739800e+01	-7.646346e+00
2.755625e+01	-7.687858e+00
2.771541e+01	-7.729533e+00
2.787550e+01	-7.771343e+00
2.803650e+01	-7.812752e+00
2.819844e+01	-7.854904e+00
2.836131e+01	-7.896284e+00
2.852513e+01	-7.938345e+00
2.868989e+01	-7.980649e+00
2.885560e+01	-8.022517e+00
2.902227e+01	-8.064983e+00
2.918990e+01	-8.107473e+00
2.935850e+01	-8.149205e+00
2.952807e+01	-8.191801e+00
2.969863e+01	-8.234148e+00
2.987016e+01	-8.276956e+00
3.004269e+01	-8.319252e+00
3.021622e+01	-8.362240e+00
3.039075e+01	-8.404486e+00
3.056628e+01	-8.447567e+00
3.074283e+01	-8.490941e+00
3.092040e+01	-8.533834e+00
3.109900e+01	-8.576360e+00
3.127862e+01	-8.620034e+00
3.145929e+01	-8.662985e+00
3.164099e+01	-8.706105e+00
3.182375e+01	-8.749421e+00
3.200756e+01	-8.792618e+00
3.219244e+01	-8.836318e+00
3.237838e+01	-8.879625e+00
3.256540e+01	-8.923536e+00
3.275349e+01	-8.967201e+00
3.294268e+01	-9.010776e+00
3.313295e+01	-9.054221e+00
3.332433e+01	-9.098180e+00
3.351681e+01	-9.142055e+00
3.371040e+01	-9.186073e+00
3.390511e+01	-9.229916e+00
3.410094e+01	-9.274394e+00
3.429791e+01	-9.318678e+00
3.449601e+01	-9.362453e+00
3.469526e+01	-9.406929e+00
3.489566e+01	-9.451355e+00
3.509721e+01	-9.496080e+00
3.529993e+01	-9.539978e+00
3.550382e+01	-9.584423e+00
3.570889e+01	-9.629665e+00
3.591515e+01	-9.673627e+00
3.612259e+01	-9.718352e+00
3.633123e+01	-9.763102e+00
3.654108e+01	-9.808068e+00
3.675214e+01	-9.852748e+00
3.696442e+01	-9.897684e+00
3.717792e+01	-9.942780e+00
3.739266e+01	-9.987248e+00
3.760864e+01	-1.003228e+01
3.782587e+01	-1.007774e+01
3.804435e+01	-1.012283e+01
3.826409e+01	-1.016811e+01
3.848510e+01	-1.021355e+01
3.870739e+01	-1.025870e+01
3.893096e+01	-1.030358e+01
3.915583e+01	-1.034921e+01
3.938199e+01	-1.039438e+01
3.960946e+01	-1.043986e+01
3.983824e+01	-1.048539e+01
4.006834e+01	-1.053140e+01
4.029978e+01	-1.057735e+01
4.053255e+01	-1.062257e+01
4.076666e+01	-1.066864e+01
4.100213e+01	-1.071403e+01
4.123896e+01	-1.075997e+01
4.147715e+01	-1.080547e+01
4.171672e+01	-1.085160e+01
4.195767e+01	-1.089785e+01
4.220002e+01	-1.094310e+01
4.244377e+01	-1.098964e+01
4.268892e+01	-1.103511e+01
4.293549e+01	-1.108194e+01
4.318348e+01	-1.112766e+01
4.343291e+01	-1.117422e+01
4.368377e+01	-1.122032e+01
4.393609e+01	-1.126684e+01
4.418986e+01	-1.131302e+01
4.444510e+01	-1.135852e+01
4.470182e+01	-1.140566e+01
4.496001e+01	-1.145187e+01
4.521970e+01	-1.149856e+01
4.548089e+01	-1.154523e+01
4.574358e+01	-1.159193e+01
4.600779e+01	-1.163816e+01
4.627353e+01	-1.168491e+01
4.654081e+01	-1.173185e+01
4.680963e+01	-1.177777e+01
4.708000e+01	-1.182507e+01
4.735193e+01	-1.187186e+01
4.762543e+01	-1.191803e+01
4.790051e+01	-1.196458e+01
4.817719e+01	-1.201189e+01
4.845545e+01	-1.205918e+01
4.873533e+01	-1.210555e+01
4.901682e+01	-1.215259e+01
4.929994e+01	-1.219943e+01
4.958470e+01	-1.224698e+01
4.987110e+01	-1.229385e+01
5.015915e+01	-1.234106e+01
5.044887e+01	-1.238802e+01
5.074026e+01	-1.243499e+01
5.103333e+01	-1.248229e+01
5.132810e+01	-1.252915e+01
5.162457e+01	-1.257697e+01
5.192275e+01	-1.262326e+01
5.222265e+01	-1.267053e+01
5.252429e+01	-1.271915e+01
5.282767e+01	-1.276607e+01
5.313280e+01	-1.281328e+01
5.343969e+01	-1.286125e+01
5.374836e+01	-1.290837e+01
5.405880e+01	-1.295619e+01
5.437105e+01	-1.300313e+01
5.468509e+01	-1.305088e+01
5.500095e+01	-1.309832e+01
5.531863e+01	-1.314581e+01
5.563815e+01	-1.319336e+01
5.595951e+01	-1.324193e+01
5.628273e+01	-1.328927e+01
5.660782e+01	-1.333589e+01
5.693479e+01	-1.338464e+01
5.726364e+01	-1.343233e+01
5.759439e+01	-1.347958e+01
5.792705e+01	-1.352830e+01
5.826164e+01	-1.357576e+01
5.859815e+01	-1.362403e+01
5.893662e+01	-1.367174e+01
5.927703e+01	-1.371947e+01
5.961941e+01	-1.376648e+01
5.996377e+01	-1.381543e+01
6.031012e+01	-1.386225e+01
6.065847e+01	-1.391033e+01
6.100883e+01	-1.395909e+01
6.136121e+01	-1.400696e+01
6.171563e+01	-1.405527e+01
6.207210e+01	-1.410254e+01
6.243063e+01	-1.415100e+01
6.279122e+01	-1.420024e+01
6.315390e+01	-1.424719e+01
6.351868e+01	-1.429531e+01
6.388556e+01	-1.434442e+01
6.425456e+01	-1.439201e+01
6.462569e+01	-1.444023e+01
6.499897e+01	-1.448789e+01
6.537440e+01	-1.453661e+01
6.575200e+01	-1.458450e+01
6.613178e+01	-1.463307e+01
6.651375e+01	-1.468167e+01
6.689793e+01	-1.472942e+01
6.728433e+01	-1.477807e+01
6.767297e+01	-1.482676e+01
6.806384e+01	-1.487510e+01
6.845698e+01	-1.492358e+01
6.885238e+01	-1.497300e+01
6.925007e+01	-1.502023e+01
6.965005e+01	-1.506900e+01
7.005235e+01	-1.511734e+01
7.045697e+01	-1.516652e+01
7.086393e+01	-1.521402e+01
7.127323e+01	-1.526321e+01
7.168490e+01	-1.531056e+01
7.209895e+01	-1.535988e+01
7.251539e+01	-1.540778e+01
7.293424e+01	-1.545712e+01
7.335551e+01	-1.550529e+01
7.377920e+01	-1.555544e+01
7.420535e+01	-1.560368e+01
7.463396e+01	-1.565354e+01
7.506504e+01	-1.570026e+01
7.549861e+01	-1.574943e+01
7.593469e+01	-1.579707e+01
7.637328e+01	-1.584657e+01
7.681441e+01	-1.589470e+01
7.725809e+01	-1.594378e+01
7.770433e+01	-1.599236e+01
7.815315e+01	-1.604096e+01
7.860456e+01	-1.608953e+01
7.905857e+01	-1.613920e+01
7.951521e+01	-1.618896e+01
7.997449e+01	-1.623598e+01
8.043642e+01	-1.628546e+01
8.090102e+01	-1.633391e+01
8.136830e+01	-1.638430e+01
8.183828e+01	-1.643188e+01
8.231097e+01	-1.648139e+01
8.278640e+01	-1.653094e+01
8.326457e+01	-1.657912e+01
8.374550e+01	-1.662798e+01
8.422921e+01	-1.667597e+01
8.471572e+01	-1.672475e+01
8.520503e+01	-1.677560e+01
8.569717e+01	-1.682385e+01
8.619215e+01	-1.687243e+01
8.669000e+01	-1.692202e+01
8.719071e+01	-1.697078e+01
8.769432e+01	-1.702148e+01
8.820084e+01	-1.706988e+01
8.871029e+01	-1.711798e+01
8.922267e+01	-1.716799e+01
8.973802e+01	-1.721624e+01
9.025634e+01	-1.726547e+01
9.077766e+01	-1.731382e+01
9.130199e+01	-1.736393e+01
9.182935e+01	-1.741372e+01
9.235975e+01	-1.746030e+01
9.289321e+01	-1.751125e+01
9.342976e+01	-1.755972e+01
9.396941e+01	-1.760913e+01
9.451217e+01	-1.765682e+01
9.505807e+01	-1.770658e+01
9.560712e+01	-1.775635e+01
9.615934e+01	-1.780540e+01
9.671476e+01	-1.785421e+01
9.727338e+01	-1.790506e+01
9.783522e+01	-1.795413e+01
9.840032e+01	-1.800326e+01
9.896867e+01	-1.805187e+01
9.954031e+01	-1.810203e+01
1.001153e+02	-1.814992e+01
1.006935e+02	-1.820094e+01
1.012751e+02	-1.824950e+01
1.018601e+02	-1.829778e+01
1.024484e+02	-1.834813e+01
1.030402e+02	-1.839631e+01
1.036353e+02	-1.844627e+01
1.042339e+02	-1.849557e+01
1.048360e+02	-1.854508e+01
1.054415e+02	-1.859332e+01
1.060505e+02	-1.864400e+01
1.066631e+02	-1.869319e+01
1.072791e+02	-1.874198e+01
1.078988e+02	-1.879141e+01
1.085220e+02	-1.883993e+01
1.091488e+02	-1.889069e+01
1.097793e+02	-1.893997e+01
1.104133e+02	-1.898976e+01
1.110511e+02	-1.903926e+01
1.116925e+02	-1.908748e+01
1.123376e+02	-1.913725e+01
1.129865e+02	-1.918603e+01
1.136391e+02	-1.923551e+01
1.142955e+02	-1.928644e+01
1.149556e+02	-1.933561e+01
1.156196e+02	-1.938529e+01
1.162874e+02	-1.943430e+01
1.169591e+02	-1.948243e+01
1.176347e+02	-1.953196e+01
1.183141e+02	-1.958226e+01
1.189975e+02	-1.963241e+01
1.196848e+02	-1.968035e+01
1.203761e+02	-1.973128e+01
1.210714e+02	-1.978107e+01
1.217707e+02	-1.982976e+01
1.224740e+02	-1.987973e+01
1.231814e+02	-1.992789e+01
1.238929e+02	-1.997864e+01
1.246085e+02	-2.002861e+01
1.253283e+02	-2.007846e+01
1.260522e+02	-2.012870e+01
1.267802e+02	-2.017605e+01
1.275125e+02	-2.022666e+01
1.282490e+02	-2.027549e+01
1.289898e+02	-2.032789e+01
1.297348e+02	-2.037514e+01
1.304842e+02	-2.042283e+01
1.312378e+02	-2.047322e+01
1.319959e+02	-2.052398e+01
1.327583e+02	-2.057245e+01
1.335251e+02	-2.062336e+01
1.342963e+02	-2.067366e+01
1.350720e+02	-2.072392e+01
1.358522e+02	-2.077275e+01
1.366368e+02	-2.082146e+01
1.374260e+02	-2.087144e+01
1.382198e+02	-2.091993e+01
1.390182e+02	-2.096991e+01
1.398211e+02	-2.102121e+01
1.406287e+02	-2.107074e+01
1.414410e+02	-2.112033e+01
1.422579e+02	-2.116863e+01
1.430796e+02	-2.121955e+01
1.439060e+02	-2.126766e+01
1.447372e+02	-2.131849e+01
1.455732e+02	-2.136728e+01
1.464141e+02	-2.141683e+01
1.472597e+02	-2.146586e+01
1.481103e+02	-2.151683e+01
1.489658e+02	-2.156594e+01
1.498262e+02	-2.161515e+01
1.506916e+02	-2.166808e+01
1.515620e+02	-2.171586e+01
1.524374e+02	-2.176385e+01
1.533179e+02	-2.181608e+01
1.542034e+02	-2.186464e+01
1.550941e+02	-2.191405e+01
1.559899e+02	-2.196439e+01
1.568909e+02	-2.201055e+01
1.577971e+02	-2.206362e+01
1.587085e+02	-2.211201e+01
1.596252e+02	-2.216193e+01
1.605472e+02	-2.221168e+01
1.614745e+02	-2.226238e+01
1.624072e+02	-2.230981e+01
1.633453e+02	-2.236147e+01
1.642887e+02	-2.241191e+01
1.652377e+02	-2.245985e+01
1.661921e+02	-2.251230e+01
1.671520e+02	-2.256152e+01
1.681175e+02	-2.260956e+01
1.690885e+02	-2.266100e+01
1.700651e+02	-2.271196e+01
1.710474e+02	-2.275977e+01
1.720354e+02	-2.281089e+01
1.730291e+02	-2.286136e+01
1.740285e+02	-2.290906e+01
1.750337e+02	-2.295872e+01
1.760446e+02	-2.300951e+01
1.770615e+02	-2.305962e+01
1.780842e+02	-2.311026e+01
1.791128e+02	-2.315788e+01
1.801473e+02	-2.320682e+01
1.811878e+02	-2.326063e+01
1.822344e+02	-2.330951e+01
1.832870e+02	-2.335842e+01
1.843456e+02	-2.340679e+01
1.854104e+02	-2.345794e+01
1.864813e+02	-2.350808e+01
1.875584e+02	-2.355917e+01
1.886418e+02	-2.360607e+01
1.897313e+02	-2.365821e+01
1.908272e+02	-2.370719e+01
1.919294e+02	-2.375633e+01
1.930380e+02	-2.380651e+01
1.941530e+02	-2.385533e+01
1.952744e+02	-2.390539e+01
1.964023e+02	-2.395806e+01
1.975367e+02	-2.400525e+01
1.986777e+02	-2.405524e+01
1.998252e+02	-2.410731e+01
2.009794e+02	-2.415635e+01
2.021403e+02	-2.420348e+01
2.033078e+02	-2.425305e+01
2.044821e+02	-2.430336e+01
2.056632e+02	-2.435509e+01
2.068511e+02	-2.440610e+01
2.080459e+02	-2.445408e+01
2.092475e+02	-2.450226e+01
2.104561e+02	-2.455415e+01
2.116717e+02	-2.460370e+01
2.128943e+02	-2.465293e+01
2.141240e+02	-2.470494e+01
2.153608e+02	-2.475633e+01
2.166047e+02	-2.480540e+01
2.178558e+02	-2.485349e+01
2.191141e+02	-2.490132e+01
2.203797e+02	-2.495507e+01
2.216526e+02	-2.500314e+01
2.229329e+02	-2.505438e+01
2.242205e+02	-2.510040e+01
2.255156e+02	-2.515020e+01
2.268182e+02	-2.519818e+01
2.281283e+02	-2.525391e+01
2.294459e+02	-2.530465e+01
2.307712e+02	-2.535118e+01
2.321041e+02	-2.540168e+01
2.334447e+02	-2.545314e+01
2.347931e+02	-2.550151e+01
2.361493e+02	-2.555405e+01
2.375133e+02	-2.560094e+01
2.388851e+02	-2.565410e+01
2.402649e+02	-2.570070e+01
2.416527e+02	-2.575198e+01
2.430484e+02	-2.580063e+01
2.444523e+02	-2.585295e+01
2.458642e+02	-2.590145e+01
2.472843e+02	-2.595560e+01
2.487126e+02	-2.600080e+01
2.501492e+02	-2.605417e+01
2.515940e+02	-2.610005e+01
2.530472e+02	-2.615238e+01
2.545088e+02	-2.620168e+01
2.559789e+02	-2.625132e+01
2.574574e+02	-2.630082e+01
2.589444e+02	-2.635134e+01
2.604401e+02	-2.640306e+01
2.619444e+02	-2.645060e+01
2.634574e+02	-2.650010e+01
2.649791e+02	-2.654998e+01
2.665096e+02	-2.660392e+01
2.680489e+02	-2.664580e+01
2.695972e+02	-2.670057e+01
2.711544e+02	-2.675244e+01
2.727205e+02	-2.679979e+01
2.742958e+02	-2.685193e+01
2.758801e+02	-2.689906e+01
2.774736e+02	-2.695047e+01
2.790762e+02	-2.700359e+01
2.806882e+02	-2.704747e+01
2.823094e+02	-2.710294e+01
2.839400e+02	-2.714765e+01
2.855800e+02	-2.720011e+01
2.872295e+02	-2.724973e+01
2.888886e+02	-2.730152e+01
2.905572e+02	-2.735011e+01
2.922354e+02	-2.740467e+01
2.939234e+02	-2.745342e+01
2.956211e+02	-2.750492e+01
2.973286e+02	-2.755375e+01
2.990459e+02	-2.760291e+01
3.007732e+02	-2.765086e+01
3.025104e+02	-2.769926e+01
3.042577e+02	-2.775297e+01
3.060151e+02	-2.780267e+01
3.077826e+02	-2.785123e+01
3.095604e+02	-2.790027e+01
3.113484e+02	-2.795264e+01
3.131467e+02	-2.800014e+01
3.149554e+02	-2.805297e+01
3.167746e+02	-2.810309e+01
3.186043e+02	-2.815058e+01
3.204445e+02	-2.820084e+01
3.222954e+02	-2.824931e+01
3.241570e+02	-2.830160e+01
3.260293e+02	-2.834946e+01
3.279124e+02	-2.840192e+01
3.298064e+02	-2.845206e+01
3.317114e+02	-2.850077e+01
3.336273e+02	-2.855270e+01
3.355544e+02	-2.859702e+01
3.374925e+02	-2.864815e+01
3.394418e+02	-2.870301e+01
3.414024e+02	-2.875010e+01
3.433744e+02	-2.880026e+01
3.453577e+02	-2.884922e+01
3.473525e+02	-2.889998e+01
3.493588e+02	-2.895360e+01
3.513766e+02	-2.900368e+01
3.534062e+02	-2.904808e+01
3.554474e+02	-2.910243e+01
3.575005e+02	-2.915504e+01
3.595654e+02	-2.920342e+01
3.616422e+02	-2.925385e+01
3.637311e+02	-2.930662e+01
3.658320e+02	-2.935102e+01
3.679450e+02	-2.940313e+01
3.700702e+02	-2.945535e+01
3.722077e+02	-2.950376e+01
3.743576e+02	-2.955477e+01
3.765199e+02	-2.960117e+01
3.786946e+02	-2.965417e+01
3.808820e+02	-2.970111e+01
3.830819e+02	-2.975278e+01
3.852946e+02	-2.980044e+01
3.875200e+02	-2.985403e+01
3.897583e+02	-2.990494e+01
3.920096e+02	-2.995301e+01
3.942738e+02	-3.000473e+01
3.965511e+02	-3.005262e+01
3.988416e+02	-3.010493e+01
4.011452e+02	-3.015230e+01
4.034622e+02	-3.021177e+01
4.057926e+02	-3.025585e+01
4.081365e+02	-3.030381e+01
4.104938e+02	-3.035722e+01
4.128648e+02	-3.040113e+01
4.152495e+02	-3.045559e+01
4.176480e+02	-3.050745e+01
4.200603e+02	-3.055587e+01
4.224866e+02	-3.060350e+01
4.249268e+02	-3.065731e+01
4.273812e+02	-3.070140e+01
4.298497e+02	-3.075031e+01
4.323325e+02	-3.080385e+01
4.348297e+02	-3.085859e+01
4.373412e+02	-3.090648e+01
4.398673e+02	-3.095139e+01
4.424079e+02	-3.100770e+01
4.449633e+02	-3.105882e+01
4.475334e+02	-3.111686e+01
4.501183e+02	-3.115935e+01
4.527182e+02	-3.120413e+01
4.553330e+02	-3.125535e+01
4.579630e+02	-3.130237e+01
4.606082e+02	-3.135826e+01
4.632687e+02	-3.140883e+01
4.659445e+02	-3.145652e+01
4.686358e+02	-3.150172e+01
4.713426e+02	-3.155701e+01
4.740650e+02	-3.161043e+01
4.768032e+02	-3.165704e+01
4.795572e+02	-3.171086e+01
4.823271e+02	-3.175731e+01
4.851130e+02	-3.180436e+01
4.879150e+02	-3.185452e+01
4.907332e+02	-3.190927e+01
4.935676e+02	-3.195613e+01
4.964185e+02	-3.201232e+01
4.992858e+02	-3.205847e+01
5.021696e+02	-3.210641e+01
5.050701e+02	-3.216172e+01
5.079874e+02	-3.220943e+01
5.109215e+02	-3.226038e+01
5.138726e+02	-3.230989e+01
5.168407e+02	-3.236453e+01
5.198259e+02	-3.240982e+01
5.228284e+02	-3.246623e+01
5.258482e+02	-3.251138e+01
5.288855e+02	-3.255676e+01
5.319403e+02	-3.260992e+01
5.350128e+02	-3.266924e+01
5.381030e+02	-3.270847e+01
5.412111e+02	-3.276538e+01
5.443371e+02	-3.281195e+01
5.474812e+02	-3.286457e+01
5.506434e+02	-3.291031e+01
5.538239e+02	-3.296595e+01
5.570228e+02	-3.301454e+01
5.602401e+02	-3.305128e+01
5.634760e+02	-3.312223e+01
5.667306e+02	-3.315846e+01
5.700040e+02	-3.321224e+01
5.732964e+02	-3.326280e+01
5.766077e+02	-3.331479e+01
5.799382e+02	-3.336460e+01
5.832879e+02	-3.341607e+01
5.866569e+02	-3.346598e+01
5.900454e+02	-3.351833e+01
5.934535e+02	-3.356438e+01
5.968813e+02	-3.361416e+01
6.003288e+02	-3.366599e+01
6.037963e+02	-3.371326e+01
6.072838e+02	-3.376722e+01
6.107914e+02	-3.381907e+01
6.143194e+02	-3.386554e+01
6.178676e+02	-3.391548e+01
6.214364e+02	-3.396908e+01
6.250258e+02	-3.401412e+01
6.286359e+02	-3.405822e+01
6.322669e+02	-3.412677e+01
6.359189e+02	-3.417285e+01
6.395919e+02	-3.422381e+01
6.432862e+02	-3.427600e+01
6.470017e+02	-3.431677e+01
6.507388e+02	-3.437424e+01
6.544974e+02	-3.442146e+01
6.582778e+02	-3.447283e+01
6.620800e+02	-3.452137e+01
6.659041e+02	-3.457729e+01
6.697504e+02	-3.462783e+01
6.736188e+02	-3.467358e+01
6.775096e+02	-3.472382e+01
6.814229e+02	-3.477784e+01
6.853587e+02	-3.482147e+01
6.893173e+02	-3.487361e+01
6.932988e+02	-3.492444e+01
6.973033e+02	-3.497313e+01
7.013309e+02	-3.502234e+01
