Frequency(Hz)	Magnitude(dB)
1.000000e+01	-2.202112e+00
1.005776e+01	-2.222066e+00
1.011585e+01	-2.242144e+00
1.017428e+01	-2.262017e+00
1.023305e+01	-2.282505e+00
1.029215e+01	-2.302985e+00
1.035160e+01	-2.323642e+00
1.041139e+01	-2.344483e+00
1.047153e+01	-2.365401e+00
1.053201e+01	-2.386590e+00
1.059284e+01	-2.407879e+00
1.065403e+01	-2.429064e+00
1.071556e+01	-2.450708e+00
1.077746e+01	-2.472026e+00
1.083971e+01	-2.494301e+00
1.090232e+01	-2.516079e+00
1.096529e+01	-2.538095e+00
1.102862e+01	-2.560263e+00
1.109232e+01	-2.582800e+00
1.115639e+01	-2.605114e+00
1.122083e+01	-2.627614e+00
1.128564e+01	-2.650631e+00
1.135083e+01	-2.673484e+00
1.141639e+01	-2.696317e+00
1.148233e+01	-2.719703e+00
1.154865e+01	-2.743247e+00
1.161536e+01	-2.766842e+00
1.168245e+01	-2.790055e+00
1.174992e+01	-2.813934e+00
1.181779e+01	-2.837753e+00
1.188605e+01	-2.862162e+00
1.195470e+01	-2.886251e+00
1.202375e+01	-2.910814e+00
1.209320e+01	-2.935337e+00
1.216305e+01	-2.959794e+00
1.223330e+01	-2.984532e+00
1.230396e+01	-3.009609e+00
1.237503e+01	-3.034776e+00
1.244651e+01	-3.059767e+00
1.251840e+01	-3.085160e+00
1.259070e+01	-3.110704e+00
1.266343e+01	-3.136354e+00
1.273657e+01	-3.161949e+00
1.281014e+01	-3.188130e+00
1.288413e+01	-3.214399e+00
1.295855e+01	-3.240410e+00
1.303339e+01	-3.267014e+00
1.310867e+01	-3.293228e+00
1.318439e+01	-3.320081e+00
1.326054e+01	-3.346848e+00
1.333713e+01	-3.373749e+00
1.341417e+01	-3.400736e+00
1.349165e+01	-3.428139e+00
1.356958e+01	-3.455257e+00
1.364795e+01	-3.482984e+00
1.372678e+01	-3.510544e+00
1.380607e+01	-3.538536e+00
1.388581e+01	-3.566277e+00
1.396602e+01	-3.594599e+00
1.404668e+01	-3.622908e+00
1.412782e+01	-3.650979e+00
1.420942e+01	-3.679841e+00
1.429149e+01	-3.708182e+00
1.437404e+01	-3.737066e+00
1.445706e+01	-3.766074e+00
1.454057e+01	-3.794850e+00
1.462455e+01	-3.824387e+00
1.470902e+01	-3.853694e+00
1.479398e+01	-3.883318e+00
1.487943e+01	-3.912738e+00
1.496537e+01	-3.942504e+00
1.505181e+01	-3.972588e+00
1.513875e+01	-4.002570e+00
1.522619e+01	-4.032733e+00
1.531414e+01	-4.063173e+00
1.540259e+01	-4.093596e+00
1.549156e+01	-4.123974e+00
1.558103e+01	-4.154762e+00
1.567103e+01	-4.185756e+00
1.576155e+01	-4.216429e+00
1.585258e+01	-4.247937e+00
1.594415e+01	-4.279087e+00
1.603624e+01	-4.310466e+00
1.612886e+01	-4.342036e+00
1.622202e+01	-4.373801e+00
1.631572e+01	-4.405796e+00
1.640996e+01	-4.437460e+00
1.650474e+01	-4.469740e+00
1.660008e+01	-4.501946e+00
1.669596e+01	-4.534430e+00
1.679239e+01	-4.566859e+00
1.688938e+01	-4.599227e+00
1.698694e+01	-4.631969e+00
1.708505e+01	-4.664923e+00
1.718373e+01	-4.697893e+00
1.728299e+01	-4.730827e+00
1.738281e+01	-4.764326e+00
1.748322e+01	-4.797711e+00
1.758420e+01	-4.831344e+00
1.768576e+01	-4.864884e+00
1.778792e+01	-4.898770e+00
1.789066e+01	-4.932278e+00
1.799399e+01	-4.966758e+00
1.809793e+01	-5.000942e+00
1.820246e+01	-5.035015e+00
1.830760e+01	-5.069096e+00
1.841334e+01	-5.103805e+00
1.851969e+01	-5.138491e+00
1.862666e+01	-5.173330e+00
1.873425e+01	-5.208123e+00
1.884246e+01	-5.242975e+00
1.895129e+01	-5.278249e+00
1.906075e+01	-5.313540e+00
1.917085e+01	-5.349114e+00
1.928158e+01	-5.384319e+00
1.939295e+01	-5.420132e+00
1.950496e+01	-5.455966e+00
1.961762e+01	-5.491572e+00
1.973093e+01	-5.527457e+00
1.984490e+01	-5.563454e+00
1.995952e+01	-5.599378e+00
2.007480e+01	-5.636320e+00
2.019076e+01	-5.672202e+00
2.030738e+01	-5.709097e+00
2.042467e+01	-5.745609e+00
2.054264e+01	-5.782583e+00
2.066130e+01	-5.819505e+00
2.078064e+01	-5.856425e+00
2.090066e+01	-5.893317e+00
2.102139e+01	-5.930630e+00
2.114280e+01	-5.968028e+00
2.126492e+01	-6.005708e+00
2.138775e+01	-6.042494e+00
2.151128e+01	-6.080512e+00
2.163553e+01	-6.118365e+00
2.176050e+01	-6.156112e+00
2.188619e+01	-6.194068e+00
2.201260e+01	-6.232224e+00
2.213974e+01	-6.270122e+00
2.226762e+01	-6.308535e+00
2.239624e+01	-6.346911e+00
2.252560e+01	-6.385527e+00
2.265571e+01	-6.423859e+00
2.278656e+01	-6.462716e+00
2.291818e+01	-6.501588e+00
2.305055e+01	-6.540489e+00
2.318369e+01	-6.579191e+00
2.331760e+01	-6.618354e+00
2.345228e+01	-6.657292e+00
2.358774e+01	-6.696826e+00
2.372398e+01	-6.736511e+00
2.386101e+01	-6.775367e+00
2.399883e+01	-6.815033e+00
2.413745e+01	-6.854823e+00
2.427686e+01	-6.894608e+00
2.441709e+01	-6.934724e+00
2.455812e+01	-6.974379e+00
2.469997e+01	-7.014113e+00
2.484263e+01	-7.054570e+00
2.498612e+01	-7.094450e+00
2.513044e+01	-7.135174e+00
2.527559e+01	-7.175619e+00
2.542158e+01	-7.215554e+00
2.556842e+01	-7.256738e+00
2.571610e+01	-7.297507e+00
2.586463e+01	-7.338075e+00
2.601403e+01	-7.378883e+00
2.616428e+01	-7.419944e+00
2.631541e+01	-7.460580e+00
2.646740e+01	-7.502113e+00
2.662028e+01	-7.543133e+00
2.677404e+01	-7.584122e+00
2.692868e+01	-7.625470e+00
2.708422e+01	-7.667252e+00
2.724066e+01	-7.708809e+00
2.739800e+01	-7.750015e+00
2.755625e+01	-7.791711e+00
2.771541e+01	-7.833748e+00
2.787550e+01	-7.875674e+00
2.803650e+01	-7.917182e+00
2.819844e+01	-7.959177e+00
2.836131e+01	-8.001676e+00
2.852513e+01	-8.043497e+00
2.868989e+01	-8.085655e+00
2.885560e+01	-8.128169e+00
2.902227e+01	-8.170497e+00
2.918990e+01	-8.212944e+00
2.935850e+01	-8.255416e+00
2.952807e+01	-8.297626e+00
2.969863e+01	-8.340443e+00
2.987016e+01	-8.382589e+00
3.004269e+01	-8.425759e+00
3.021622e+01	-8.469328e+00
3.039075e+01	-8.512052e+00
3.056628e+01	-8.554922e+00
3.074283e+01	-8.598150e+00
3.092040e+01	-8.640919e+00
3.109900e+01	-8.684104e+00
3.127862e+01	-8.727475e+00
3.145929e+01	-8.770928e+00
3.164099e+01	-8.814558e+00
3.182375e+01	-8.857811e+00
3.200756e+01	-8.901630e+00
3.219244e+01	-8.945133e+00
3.237838e+01	-8.988722e+00
3.256540e+01	-9.032238e+00
3.275349e+01	-9.076189e+00
3.294268e+01	-9.120158e+00
3.313295e+01	-9.164150e+00
3.332433e+01	-9.207915e+00
3.351681e+01	-9.252258e+00
3.371040e+01	-9.296271e+00
3.390511e+01	-9.340457e+00
3.410094e+01	-9.384910e+00
3.429791e+01	-9.428755e+00
3.449601e+01	-9.473434e+00
3.469526e+01	-9.518089e+00
3.489566e+01	-9.562077e+00
3.509721e+01	-9.606978e+00
3.529993e+01	-9.651169e+00
3.550382e+01	-9.696192e+00
3.570889e+01	-9.740696e+00
3.591515e+01	-9.785290e+00
3.612259e+01	-9.830288e+00
3.633123e+01	-9.874917e+00
3.654108e+01	-9.919920e+00
3.675214e+01	-9.964522e+00
3.696442e+01	-1.000995e+01
3.717792e+01	-1.005479e+01
3.739266e+01	-1.009958e+01
3.760864e+01	-1.014502e+01
3.782587e+01	-1.019035e+01
3.804435e+01	-1.023571e+01
3.826409e+01	-1.028097e+01
3.848510e+01	-1.032628e+01
3.870739e+01	-1.037178e+01
3.893096e+01	-1.041667e+01
3.915583e+01	-1.046241e+01
3.938199e+01	-1.050861e+01
3.960946e+01	-1.055384e+01
3.983824e+01	-1.059896e+01
4.006834e+01	-1.064515e+01
4.029978e+01	-1.069077e+01
4.053255e+01	-1.073665e+01
4.076666e+01	-1.078270e+01
4.100213e+01	-1.082763e+01
4.123896e+01	-1.087455e+01
4.147715e+01	-1.092018e+01
4.171672e+01	-1.096633e+01
4.195767e+01	-1.101193e+01
4.220002e+01	-1.105813e+01
4.244377e+01	-1.110480e+01
4.268892e+01	-1.115090e+01
4.293549e+01	-1.119695e+01
4.318348e+01	-1.124310e+01
4.343291e+01	-1.128951e+01
4.368377e+01	-1.133488e+01
4.393609e+01	-1.138299e+01
4.418986e+01	-1.142874e+01
4.444510e+01	-1.147459e+01
4.470182e+01	-1.152177e+01
4.496001e+01	-1.156838e+01
4.521970e+01	-1.161427e+01
4.548089e+01	-1.166118e+01
4.574358e+01	-1.170759e+01
4.600779e+01	-1.175436e+01
4.627353e+01	-1.180104e+01
4.654081e+01	-1.184733e+01
4.680963e+01	-1.189480e+01
4.708000e+01	-1.194158e+01
4.735193e+01	-1.198808e+01
4.762543e+01	-1.203480e+01
4.790051e+01	-1.208225e+01
4.817719e+01	-1.212931e+01
4.845545e+01	-1.217556e+01
4.873533e+01	-1.222261e+01
4.901682e+01	-1.227045e+01
4.929994e+01	-1.231723e+01
4.958470e+01	-1.236423e+01
4.987110e+01	-1.241084e+01
5.015915e+01	-1.245849e+01
5.044887e+01	-1.250526e+01
5.074026e+01	-1.255304e+01
5.103333e+01	-1.259996e+01
5.132810e+01	-1.264685e+01
5.162457e+01	-1.269567e+01
5.192275e+01	-1.274183e+01
5.222265e+01	-1.278976e+01
5.252429e+01	-1.283770e+01
5.282767e+01	-1.288442e+01
5.313280e+01	-1.293184e+01
5.343969e+01	-1.297938e+01
5.374836e+01	-1.302663e+01
5.405880e+01	-1.307472e+01
5.437105e+01	-1.312238e+01
5.468509e+01	-1.316929e+01
5.500095e+01	-1.321783e+01
5.531863e+01	-1.326498e+01
5.563815e+01	-1.331248e+01
5.595951e+01	-1.336013e+01
5.628273e+01	-1.340739e+01
5.660782e+01	-1.345550e+01
5.693479e+01	-1.350345e+01
5.726364e+01	-1.355082e+01
5.759439e+01	-1.359913e+01
5.792705e+01	-1.364730e+01
5.826164e+01	-1.369511e+01
5.859815e+01	-1.374299e+01
5.893662e+01	-1.379060e+01
5.927703e+01	-1.383917e+01
5.961941e+01	-1.388717e+01
5.996377e+01	-1.393489e+01
6.031012e+01	-1.398256e+01
6.065847e+01	-1.403090e+01
6.100883e+01	-1.407877e+01
6.136121e+01	-1.412673e+01
6.171563e+01	-1.417513e+01
6.207210e+01	-1.422356e+01
6.243063e+01	-1.427148e+01
6.279122e+01	-1.431971e+01
6.315390e+01	-1.436731e+01
6.351868e+01	-1.441602e+01
6.388556e+01	-1.446401e+01
6.425456e+01	-1.451152e+01
6.462569e+01	-1.456084e+01
6.499897e+01	-1.460866e+01
6.537440e+01	-1.465760e+01
6.575200e+01	-1.470633e+01
6.613178e+01	-1.475408e+01
6.651375e+01	-1.480247e+01
6.689793e+01	-1.485043e+01
6.728433e+01	-1.489910e+01
6.767297e+01	-1.494679e+01
6.806384e+01	-1.499547e+01
6.845698e+01	-1.504453e+01
6.885238e+01	-1.509362e+01
6.925007e+01	-1.514217e+01
6.965005e+01	-1.518892e+01
7.005235e+01	-1.523866e+01
7.045697e+01	-1.528675e+01
7.086393e+01	-1.533658e+01
7.127323e+01	-1.538381e+01
7.168490e+01	-1.543229e+01
7.209895e+01	-1.548101e+01
7.251539e+01	-1.552905e+01
7.293424e+01	-1.557817e+01
7.335551e+01	-1.562693e+01
7.377920e+01	-1.567640e+01
7.420535e+01	-1.572398e+01
7.463396e+01	-1.577327e+01
7.506504e+01	-1.582237e+01
7.549861e+01	-1.587017e+01
7.593469e+01	-1.591853e+01
7.637328e+01	-1.596843e+01
7.681441e+01	-1.601726e+01
7.725809e+01	-1.606578e+01
7.770433e+01	-1.611448e+01
7.815315e+01	-1.616402e+01
7.860456e+01	-1.621315e+01
7.905857e+01	-1.626090e+01
7.951521e+01	-1.630991e+01
7.997449e+01	-1.635885e+01
8.043642e+01	-1.640740e+01
8.090102e+01	-1.645722e+01
8.136830e+01	-1.650518e+01
8.183828e+01	-1.655500e+01
8.231097e+01	-1.660291e+01
8.278640e+01	-1.665211e+01
8.326457e+01	-1.670001e+01
8.374550e+01	-1.674991e+01
8.422921e+01	-1.679944e+01
8.471572e+01	-1.684790e+01
8.520503e+01	-1.689636e+01
8.569717e+01	-1.694689e+01
8.619215e+01	-1.699507e+01
8.669000e+01	-1.704462e+01
8.719071e+01	-1.709416e+01
8.769432e+01	-1.714145e+01
8.820084e+01	-1.719145e+01
8.871029e+01	-1.724073e+01
8.922267e+01	-1.728914e+01
8.973802e+01	-1.733962e+01
9.025634e+01	-1.738781e+01
9.077766e+01	-1.743754e+01
9.130199e+01	-1.748644e+01
9.182935e+01	-1.753598e+01
9.235975e+01	-1.758323e+01
9.289321e+01	-1.763354e+01
9.342976e+01	-1.768230e+01
9.396941e+01	-1.773115e+01
9.451217e+01	-1.778101e+01
9.505807e+01	-1.782990e+01
9.560712e+01	-1.787992e+01
9.615934e+01	-1.792877e+01
9.671476e+01	-1.797811e+01
9.727338e+01	-1.802710e+01
9.783522e+01	-1.807691e+01
9.840032e+01	-1.812525e+01
9.896867e+01	-1.817533e+01
9.954031e+01	-1.822443e+01
1.001153e+02	-1.827364e+01
1.006935e+02	-1.832344e+01
1.012751e+02	-1.837221e+01
1.018601e+02	-1.842074e+01
1.024484e+02	-1.847104e+01
1.030402e+02	-1.852066e+01
1.036353e+02	-1.856982e+01
1.042339e+02	-1.861764e+01
1.048360e+02	-1.866703e+01
1.054415e+02	-1.871762e+01
1.060505e+02	-1.876675e+01
1.066631e+02	-1.881543e+01
1.072791e+02	-1.886510e+01
1.078988e+02	-1.891474e+01
1.085220e+02	-1.896365e+01
1.091488e+02	-1.901369e+01
1.097793e+02	-1.906177e+01
1.104133e+02	-1.911148e+01
1.110511e+02	-1.916147e+01
1.116925e+02	-1.921190e+01
1.123376e+02	-1.926111e+01
1.129865e+02	-1.931008e+01
1.136391e+02	-1.935952e+01
1.142955e+02	-1.940916e+01
1.149556e+02	-1.945854e+01
1.156196e+02	-1.950753e+01
1.162874e+02	-1.955684e+01
1.169591e+02	-1.960717e+01
1.176347e+02	-1.965716e+01
1.183141e+02	-1.970619e+01
1.189975e+02	-1.975573e+01
1.196848e+02	-1.980565e+01
1.203761e+02	-1.985328e+01
1.210714e+02	-1.990407e+01
1.217707e+02	-1.995383e+01
1.224740e+02	-2.000306e+01
1.231814e+02	-2.005349e+01
1.238929e+02	-2.010131e+01
1.246085e+02	-2.015288e+01
1.253283e+02	-2.020197e+01
1.260522e+02	-2.025018e+01
1.267802e+02	-2.029897e+01
1.275125e+02	-2.035028e+01
1.282490e+02	-2.039782e+01
1.289898e+02	-2.044847e+01
1.297348e+02	-2.049803e+01
1.304842e+02	-2.054760e+01
1.312378e+02	-2.059726e+01
1.319959e+02	-2.064811e+01
1.327583e+02	-2.069570e+01
1.335251e+02	-2.074491e+01
1.342963e+02	-2.079527e+01
1.350720e+02	-2.084428e+01
1.358522e+02	-2.089559e+01
1.366368e+02	-2.094484e+01
1.374260e+02	-2.099527e+01
1.382198e+02	-2.104340e+01
1.390182e+02	-2.109555e+01
1.398211e+02	-2.114329e+01
1.406287e+02	-2.119531e+01
1.414410e+02	-2.124276e+01
1.422579e+02	-2.129041e+01
1.430796e+02	-2.134394e+01
1.439060e+02	-2.139106e+01
1.447372e+02	-2.144346e+01
1.455732e+02	-2.149182e+01
1.464141e+02	-2.154019e+01
1.472597e+02	-2.159233e+01
1.481103e+02	-2.164142e+01
1.489658e+02	-2.168986e+01
1.498262e+02	-2.174118e+01
1.506916e+02	-2.178834e+01
1.515620e+02	-2.184001e+01
1.524374e+02	-2.189056e+01
1.533179e+02	-2.193889e+01
1.542034e+02	-2.198809e+01
1.550941e+02	-2.203954e+01
1.559899e+02	-2.208678e+01
1.568909e+02	-2.213570e+01
1.577971e+02	-2.218873e+01
1.587085e+02	-2.223818e+01
1.596252e+02	-2.228921e+01
1.605472e+02	-2.233674e+01
1.614745e+02	-2.238735e+01
1.624072e+02	-2.243583e+01
1.633453e+02	-2.248613e+01
1.642887e+02	-2.253714e+01
1.652377e+02	-2.258570e+01
1.661921e+02	-2.263679e+01
1.671520e+02	-2.268355e+01
1.681175e+02	-2.273528e+01
1.690885e+02	-2.278509e+01
1.700651e+02	-2.283469e+01
1.710474e+02	-2.288419e+01
1.720354e+02	-2.293314e+01
1.730291e+02	-2.298489e+01
1.740285e+02	-2.303467e+01
1.750337e+02	-2.308229e+01
1.760446e+02	-2.313237e+01
1.770615e+02	-2.318479e+01
1.780842e+02	-2.323482e+01
1.791128e+02	-2.328224e+01
1.801473e+02	-2.333122e+01
1.811878e+02	-2.338394e+01
1.822344e+02	-2.343434e+01
1.832870e+02	-2.348087e+01
1.843456e+02	-2.353165e+01
1.854104e+02	-2.358040e+01
1.864813e+02	-2.363185e+01
1.875584e+02	-2.368107e+01
1.886418e+02	-2.373376e+01
1.897313e+02	-2.378045e+01
1.908272e+02	-2.383168e+01
1.919294e+02	-2.387898e+01
1.930380e+02	-2.393072e+01
1.941530e+02	-2.398117e+01
1.952744e+02	-2.402928e+01
1.964023e+02	-2.407951e+01
1.975367e+02	-2.413235e+01
1.986777e+02	-2.417729e+01
1.998252e+02	-2.423052e+01
2.009794e+02	-2.427672e+01
2.021403e+02	-2.433086e+01
2.033078e+02	-2.437798e+01
2.044821e+02	-2.442900e+01
2.056632e+02	-2.447939e+01
2.068511e+02	-2.452665e+01
2.080459e+02	-2.457856e+01
2.092475e+02	-2.462926e+01
2.104561e+02	-2.468026e+01
2.116717e+02	-2.472845e+01
2.128943e+02	-2.478027e+01
2.141240e+02	-2.482702e+01
2.153608e+02	-2.487777e+01
2.166047e+02	-2.492744e+01
2.178558e+02	-2.498041e+01
2.191141e+02	-2.502679e+01
2.203797e+02	-2.507936e+01
2.216526e+02	-2.512913e+01
2.229329e+02	-2.517804e+01
2.242205e+02	-2.522744e+01
2.255156e+02	-2.527563e+01
2.268182e+02	-2.532755e+01
2.281283e+02	-2.537891e+01
2.294459e+02	-2.542977e+01
2.307712e+02	-2.547764e+01
2.321041e+02	-2.552767e+01
2.334447e+02	-2.557911e+01
2.347931e+02	-2.562453e+01
2.361493e+02	-2.567796e+01
2.375133e+02	-2.572681e+01
2.388851e+02	-2.577618e+01
2.402649e+02	-2.582843e+01
2.416527e+02	-2.587737e+01
2.430484e+02	-2.592558e+01
2.444523e+02	-2.597789e+01
2.458642e+02	-2.602986e+01
2.472843e+02	-2.607649e+01
2.487126e+02	-2.612457e+01
2.501492e+02	-2.617781e+01
2.515940e+02	-2.622290e+01
2.530472e+02	-2.627745e+01
2.545088e+02	-2.632653e+01
2.559789e+02	-2.637841e+01
2.574574e+02	-2.642703e+01
2.589444e+02	-2.647788e+01
2.604401e+02	-2.652870e+01
2.619444e+02	-2.657388e+01
2.634574e+02	-2.662540e+01
2.649791e+02	-2.667066e+01
2.665096e+02	-2.672575e+01
2.680489e+02	-2.677523e+01
2.695972e+02	-2.682663e+01
2.711544e+02	-2.687868e+01
2.727205e+02	-2.692678e+01
2.742958e+02	-2.697722e+01
2.758801e+02	-2.702614e+01
2.774736e+02	-2.707337e+01
2.790762e+02	-2.712413e+01
2.806882e+02	-2.717526e+01
2.823094e+02	-2.722859e+01
2.839400e+02	-2.727776e+01
2.855800e+02	-2.732771e+01
2.872295e+02	-2.737459e+01
2.888886e+02	-2.742648e+01
2.905572e+02	-2.747772e+01
2.922354e+02	-2.752446e+01
2.939234e+02	-2.757862e+01
2.956211e+02	-2.762344e+01
2.973286e+02	-2.767374e+01
2.990459e+02	-2.772675e+01
3.007732e+02	-2.777718e+01
3.025104e+02	-2.782482e+01
3.042577e+02	-2.787939e+01
3.060151e+02	-2.792985e+01
3.077826e+02	-2.797577e+01
3.095604e+02	-2.802737e+01
3.113484e+02	-2.807411e+01
3.131467e+02	-2.812341e+01
3.149554e+02	-2.817541e+01
3.167746e+02	-2.822699e+01
3.186043e+02	-2.827679e+01
3.204445e+02	-2.832481e+01
3.222954e+02	-2.837299e+01
3.241570e+02	-2.842984e+01
3.260293e+02	-2.847626e+01
3.279124e+02	-2.852937e+01
3.298064e+02	-2.857759e+01
3.317114e+02	-2.863067e+01
3.336273e+02	-2.867623e+01
3.355544e+02	-2.872920e+01
3.374925e+02	-2.877814e+01
3.394418e+02	-2.882667e+01
3.414024e+02	-2.887381e+01
3.433744e+02	-2.892790e+01
3.453577e+02	-2.897350e+01
3.473525e+02	-2.902752e+01
3.493588e+02	-2.907549e+01
3.513766e+02	-2.913259e+01
3.534062e+02	-2.917657e+01
3.554474e+02	-2.923170e+01
3.575005e+02	-2.927405e+01
3.595654e+02	-2.932993e+01
3.616422e+02	-2.937295e+01
3.637311e+02	-2.943236e+01
3.658320e+02	-2.947657e+01
3.679450e+02	-2.952678e+01
3.700702e+02	-2.958434e+01
3.722077e+02	-2.962441e+01
3.743576e+02	-2.967823e+01
3.765199e+02	-2.972565e+01
3.786946e+02	-2.978179e+01
3.808820e+02	-2.982810e+01
3.830819e+02	-2.988336e+01
3.852946e+02	-2.993024e+01
3.875200e+02	-2.997830e+01
3.897583e+02	-3.003150e+01
3.920096e+02	-3.008450e+01
3.942738e+02	-3.012563e+01
3.965511e+02	-3.017627e+01
3.988416e+02	-3.023168e+01
4.011452e+02	-3.027876e+01
4.034622e+02	-3.033200e+01
4.057926e+02	-3.037801e+01
4.081365e+02	-3.043179e+01
4.104938e+02	-3.048150e+01
4.128648e+02	-3.053067e+01
4.152495e+02	-3.057892e+01
4.176480e+02	-3.063459e+01
4.200603e+02	-3.068732e+01
4.224866e+02	-3.073138e+01
4.249268e+02	-3.077762e+01
4.273812e+02	-3.083125e+01
4.298497e+02	-3.088382e+01
4.323325e+02	-3.093072e+01
4.348297e+02	-3.098468e+01
4.373412e+02	-3.102974e+01
4.398673e+02	-3.108833e+01
4.424079e+02	-3.112924e+01
4.449633e+02	-3.118124e+01
4.475334e+02	-3.123521e+01
4.501183e+02	-3.128640e+01
4.527182e+02	-3.133344e+01
4.553330e+02	-3.138449e+01
4.579630e+02	-3.143088e+01
4.606082e+02	-3.148717e+01
4.632687e+02	-3.153325e+01
4.659445e+02	-3.157786e+01
4.686358e+02	-3.163277e+01
4.713426e+02	-3.168270e+01
4.740650e+02	-3.173400e+01
4.768032e+02	-3.177928e+01
4.795572e+02	-3.183056e+01
4.823271e+02	-3.188255e+01
4.851130e+02	-3.193350e+01
4.879150e+02	-3.198652e+01
4.907332e+02	-3.203341e+01
4.935676e+02	-3.208450e+01
4.964185e+02	-3.214015e+01
4.992858e+02	-3.218525e+01
5.021696e+02	-3.224499e+01
5.050701e+02	-3.228128e+01
5.079874e+02	-3.233431e+01
5.109215e+02	-3.238422e+01
5.138726e+02	-3.243706e+01
5.168407e+02	-3.249187e+01
5.198259e+02	-3.253271e+01
5.228284e+02	-3.258079e+01
5.258482e+02	-3.264223e+01
5.288855e+02	-3.269044e+01
5.319403e+02	-3.273690e+01
5.350128e+02	-3.278742e+01
5.381030e+02	-3.283485e+01
5.412111e+02	-3.289215e+01
5.443371e+02	-3.293378e+01
5.474812e+02	-3.298279e+01
5.506434e+02	-3.303546e+01
5.538239e+02	-3.308727e+01
5.570228e+02	-3.313795e+01
5.602401e+02	-3.318885e+01
5.634760e+02	-3.323996e+01
5.667306e+02	-3.329303e+01
5.700040e+02	-3.334274e+01
5.732964e+02	-3.338904e+01
5.766077e+02	-3.345054e+01
5.799382e+02	-3.348754e+01
5.832879e+02	-3.354072e+01
5.866569e+02	-3.359567e+01
5.900454e+02	-3.364429e+01
5.934535e+02	-3.369549e+01
5.968813e+02	-3.374619e+01
6.003288e+02	-3.379754e+01
6.037963e+02	-3.384676e+01
6.072838e+02	-3.389626e+01
6.107914e+02	-3.394960e+01
6.143194e+02	-3.399226e+01
6.178676e+02	-3.405081e+01
6.214364e+02	-3.409512e+01
6.250258e+02	-3.414188e+01
6.286359e+02	-3.419940e+01
6.322669e+02	-3.424855e+01
6.359189e+02	-3.429069e+01
6.395919e+02	-3.434357e+01
6.432862e+02	-3.439545e+01
6.470017e+02	-3.444758e+01
6.507388e+02	-3.449692e+01
6.544974e+02	-3.454395e+01
6.582778e+02	-3.460180e+01
6.620800e+02	-3.464929e+01
6.659041e+02	-3.469689e+01
6.697504e+02	-3.475492e+01
6.736188e+02	-3.479869e+01
6.775096e+02	-3.485288e+01
6.814229e+02	-3.490294e+01
6.853587e+02	-3.495449e+01
6.893173e+02	-3.500140e+01
6.932988e+02	-3.505081e+01
6.973033e+02	-3.510369e+01
7.013309e+02	-3.515810e+01
