Frequency(Hz)	Magnitude(dB)
1.000000e+01	-2.137477e+00
1.005776e+01	-2.157084e+00
1.011585e+01	-2.176764e+00
1.017428e+01	-2.196756e+00
1.023305e+01	-2.216237e+00
1.029215e+01	-2.236448e+00
1.035160e+01	-2.256889e+00
1.041139e+01	-2.277083e+00
1.047153e+01	-2.297442e+00
1.053201e+01	-2.318356e+00
1.059284e+01	-2.339062e+00
1.065403e+01	-2.359759e+00
1.071556e+01	-2.380834e+00
1.077746e+01	-2.401961e+00
1.083971e+01	-2.423281e+00
1.090232e+01	-2.445126e+00
1.096529e+01	-2.466545e+00
1.102862e+01	-2.488106e+00
1.109232e+01	-2.509966e+00
1.115639e+01	-2.532286e+00
1.122083e+01	-2.554436e+00
1.128564e+01	-2.576556e+00
1.135083e+01	-2.599177e+00
1.141639e+01	-2.621715e+00
1.148233e+01	-2.644439e+00
1.154865e+01	-2.667279e+00
1.161536e+01	-2.690417e+00
1.168245e+01	-2.713479e+00
1.174992e+01	-2.736759e+00
1.181779e+01	-2.760292e+00
1.188605e+01	-2.783895e+00
1.195470e+01	-2.807713e+00
1.202375e+01	-2.831619e+00
1.209320e+01	-2.855508e+00
1.216305e+01	-2.879792e+00
1.223330e+01	-2.903823e+00
1.230396e+01	-2.928528e+00
1.237503e+01	-2.953333e+00
1.244651e+01	-2.977838e+00
1.251840e+01	-3.002912e+00
1.259070e+01	-3.027972e+00
1.266343e+01	-3.052825e+00
1.273657e+01	-3.078269e+00
1.281014e+01	-3.103719e+00
1.288413e+01	-3.129280e+00
1.295855e+01	-3.155248e+00
1.303339e+01	-3.181082e+00
1.310867e+01	-3.207156e+00
1.318439e+01	-3.233044e+00
1.326054e+01	-3.259648e+00
1.333713e+01	-3.286404e+00
1.341417e+01	-3.312686e+00
1.349165e+01	-3.339699e+00
1.356958e+01	-3.366381e+00
1.364795e+01	-3.393519e+00
1.372678e+01	-3.420731e+00
1.380607e+01	-3.448050e+00
1.388581e+01	-3.475265e+00
1.396602e+01	-3.503083e+00
1.404668e+01	-3.531109e+00
1.412782e+01	-3.558855e+00
1.420942e+01	-3.586790e+00
1.429149e+01	-3.615128e+00
1.437404e+01	-3.643320e+00
1.445706e+01	-3.671614e+00
1.454057e+01	-3.700236e+00
1.462455e+01	-3.729228e+00
1.470902e+01	-3.758231e+00
1.479398e+01	-3.787216e+00
1.487943e+01	-3.816487e+00
1.496537e+01	-3.845983e+00
1.505181e+01	-3.875427e+00
1.513875e+01	-3.904904e+00
1.522619e+01	-3.934517e+00
1.531414e+01	-3.964424e+00
1.540259e+01	-3.994429e+00
1.549156e+01	-4.024529e+00
1.558103e+01	-4.055064e+00
1.567103e+01	-4.085457e+00
1.576155e+01	-4.115961e+00
1.585258e+01	-4.146461e+00
1.594415e+01	-4.177399e+00
1.603624e+01	-4.208373e+00
1.612886e+01	-4.239473e+00
1.622202e+01	-4.270615e+00
1.631572e+01	-4.301973e+00
1.640996e+01	-4.333589e+00
1.650474e+01	-4.365303e+00
1.660008e+01	-4.397218e+00
1.669596e+01	-4.428885e+00
1.679239e+01	-4.460942e+00
1.688938e+01	-4.493016e+00
1.698694e+01	-4.525575e+00
1.708505e+01	-4.557994e+00
1.718373e+01	-4.590346e+00
1.728299e+01	-4.623278e+00
1.738281e+01	-4.656357e+00
1.748322e+01	-4.688909e+00
1.758420e+01	-4.721957e+00
1.768576e+01	-4.755676e+00
1.778792e+01	-4.788696e+00
1.789066e+01	-4.822218e+00
1.799399e+01	-4.855743e+00
1.809793e+01	-4.889624e+00
1.820246e+01	-4.923452e+00
1.830760e+01	-4.957420e+00
1.841334e+01	-4.991487e+00
1.851969e+01	-5.025473e+00
1.862666e+01	-5.060162e+00
1.873425e+01	-5.094413e+00
1.884246e+01	-5.129070e+00
1.895129e+01	-5.163792e+00
1.906075e+01	-5.198770e+00
1.917085e+01	-5.233537e+00
1.928158e+01	-5.268407e+00
1.939295e+01	-5.304207e+00
1.950496e+01	-5.339442e+00
1.961762e+01	-5.374972e+00
1.973093e+01	-5.410246e+00
1.984490e+01	-5.445999e+00
1.995952e+01	-5.481902e+00
2.007480e+01	-5.518007e+00
2.019076e+01	-5.554007e+00
2.030738e+01	-5.590295e+00
2.042467e+01	-5.626395e+00
2.054264e+01	-5.662676e+00
2.066130e+01	-5.699170e+00
2.078064e+01	-5.735693e+00
2.090066e+01	-5.772460e+00
2.102139e+01	-5.809490e+00
2.114280e+01	-5.846079e+00
2.126492e+01	-5.883375e+00
2.138775e+01	-5.920290e+00
2.151128e+01	-5.957943e+00
2.163553e+01	-5.995321e+00
2.176050e+01	-6.032760e+00
2.188619e+01	-6.070424e+00
2.201260e+01	-6.108085e+00
2.213974e+01	-6.145769e+00
2.226762e+01	-6.183479e+00
2.239624e+01	-6.221778e+00
2.252560e+01	-6.259987e+00
2.265571e+01	-6.298482e+00
2.278656e+01	-6.336637e+00
2.291818e+01	-6.375004e+00
2.305055e+01	-6.413660e+00
2.318369e+01	-6.452111e+00
2.331760e+01	-6.490819e+00
2.345228e+01	-6.529392e+00
2.358774e+01	-6.568747e+00
2.372398e+01	-6.608347e+00
2.386101e+01	-6.646898e+00
2.399883e+01	-6.686136e+00
2.413745e+01	-6.725414e+00
2.427686e+01	-6.765088e+00
2.441709e+01	-6.804278e+00
2.455812e+01	-6.844194e+00
2.469997e+01	-6.883765e+00
2.484263e+01	-6.923702e+00
2.498612e+01	-6.963537e+00
2.513044e+01	-7.003268e+00
2.527559e+01	-7.043449e+00
2.542158e+01	-7.083773e+00
2.556842e+01	-7.123991e+00
2.571610e+01	-7.164617e+00
2.586463e+01	-7.205102e+00
2.601403e+01	-7.245704e+00
2.616428e+01	-7.286559e+00
2.631541e+01	-7.326625e+00
2.646740e+01	-7.367565e+00
2.662028e+01	-7.408459e+00
2.677404e+01	-7.449479e+00
2.692868e+01	-7.490683e+00
2.708422e+01	-7.532248e+00
2.724066e+01	-7.572808e+00
2.739800e+01	-7.614287e+00
2.755625e+01	-7.655590e+00
2.771541e+01	-7.697205e+00
2.787550e+01	-7.738710e+00
2.803650e+01	-7.780502e+00
2.819844e+01	-7.822339e+00
2.836131e+01	-7.863804e+00
2.852513e+01	-7.906084e+00
2.868989e+01	-7.947743e+00
2.885560e+01	-7.990207e+00
2.902227e+01	-8.032054e+00
2.918990e+01	-8.074228e+00
2.935850e+01	-8.116671e+00
2.952807e+01	-8.158906e+00
2.969863e+01	-8.201265e+00
2.987016e+01	-8.243885e+00
3.004269e+01	-8.286206e+00
3.021622e+01	-8.329238e+00
3.039075e+01	-8.371539e+00
3.056628e+01	-8.414662e+00
3.074283e+01	-8.457491e+00
3.092040e+01	-8.500274e+00
3.109900e+01	-8.542993e+00
3.127862e+01	-8.586206e+00
3.145929e+01	-8.629832e+00
3.164099e+01	-8.672229e+00
3.182375e+01	-8.715936e+00
3.200756e+01	-8.759402e+00
3.219244e+01	-8.802604e+00
3.237838e+01	-8.845615e+00
3.256540e+01	-8.890025e+00
3.275349e+01	-8.933654e+00
3.294268e+01	-8.976914e+00
3.313295e+01	-9.020636e+00
3.332433e+01	-9.064092e+00
3.351681e+01	-9.108570e+00
3.371040e+01	-9.152542e+00
3.390511e+01	-9.196377e+00
3.410094e+01	-9.240295e+00
3.429791e+01	-9.284087e+00
3.449601e+01	-9.328547e+00
3.469526e+01	-9.372518e+00
3.489566e+01	-9.417282e+00
3.509721e+01	-9.461168e+00
3.529993e+01	-9.505494e+00
3.550382e+01	-9.549719e+00
3.570889e+01	-9.594415e+00
3.591515e+01	-9.639289e+00
3.612259e+01	-9.683651e+00
3.633123e+01	-9.728823e+00
3.654108e+01	-9.773341e+00
3.675214e+01	-9.817624e+00
3.696442e+01	-9.862993e+00
3.717792e+01	-9.907788e+00
3.739266e+01	-9.953388e+00
3.760864e+01	-9.997802e+00
3.782587e+01	-1.004292e+01
3.804435e+01	-1.008789e+01
3.826409e+01	-1.013219e+01
3.848510e+01	-1.017805e+01
3.870739e+01	-1.022327e+01
3.893096e+01	-1.026910e+01
3.915583e+01	-1.031363e+01
3.938199e+01	-1.035915e+01
3.960946e+01	-1.040475e+01
3.983824e+01	-1.044968e+01
4.006834e+01	-1.049572e+01
4.029978e+01	-1.054164e+01
4.053255e+01	-1.058662e+01
4.076666e+01	-1.063321e+01
4.100213e+01	-1.067890e+01
4.123896e+01	-1.072437e+01
4.147715e+01	-1.076967e+01
4.171672e+01	-1.081629e+01
4.195767e+01	-1.086183e+01
4.220002e+01	-1.090747e+01
4.244377e+01	-1.095369e+01
4.268892e+01	-1.099984e+01
4.293549e+01	-1.104623e+01
4.318348e+01	-1.109207e+01
4.343291e+01	-1.113852e+01
4.368377e+01	-1.118444e+01
4.393609e+01	-1.123066e+01
4.418986e+01	-1.127671e+01
4.444510e+01	-1.132314e+01
4.470182e+01	-1.136946e+01
4.496001e+01	-1.141651e+01
4.521970e+01	-1.146187e+01
4.548089e+01	-1.150910e+01
4.574358e+01	-1.155542e+01
4.600779e+01	-1.160166e+01
4.627353e+01	-1.164848e+01
4.654081e+01	-1.169533e+01
4.680963e+01	-1.174226e+01
4.708000e+01	-1.178814e+01
4.735193e+01	-1.183477e+01
4.762543e+01	-1.188148e+01
4.790051e+01	-1.192961e+01
4.817719e+01	-1.197639e+01
4.845545e+01	-1.202258e+01
4.873533e+01	-1.206922e+01
4.901682e+01	-1.211589e+01
4.929994e+01	-1.216262e+01
4.958470e+01	-1.221039e+01
4.987110e+01	-1.225695e+01
5.015915e+01	-1.230421e+01
5.044887e+01	-1.235069e+01
5.074026e+01	-1.239906e+01
5.103333e+01	-1.244633e+01
5.132810e+01	-1.249301e+01
5.162457e+01	-1.254088e+01
5.192275e+01	-1.258761e+01
5.222265e+01	-1.263515e+01
5.252429e+01	-1.268219e+01
5.282767e+01	-1.272908e+01
5.313280e+01	-1.277691e+01
5.343969e+01	-1.282509e+01
5.374836e+01	-1.287236e+01
5.405880e+01	-1.291965e+01
5.437105e+01	-1.296664e+01
5.468509e+01	-1.301405e+01
5.500095e+01	-1.306243e+01
5.531863e+01	-1.310944e+01
5.563815e+01	-1.315672e+01
5.595951e+01	-1.320435e+01
5.628273e+01	-1.325204e+01
5.660782e+01	-1.329957e+01
5.693479e+01	-1.334801e+01
5.726364e+01	-1.339494e+01
5.759439e+01	-1.344268e+01
5.792705e+01	-1.349120e+01
5.826164e+01	-1.353843e+01
5.859815e+01	-1.358547e+01
5.893662e+01	-1.363402e+01
5.927703e+01	-1.368212e+01
5.961941e+01	-1.372975e+01
5.996377e+01	-1.377762e+01
6.031012e+01	-1.382495e+01
6.065847e+01	-1.387343e+01
6.100883e+01	-1.392184e+01
6.136121e+01	-1.396972e+01
6.171563e+01	-1.401788e+01
6.207210e+01	-1.406577e+01
6.243063e+01	-1.411420e+01
6.279122e+01	-1.416162e+01
6.315390e+01	-1.421145e+01
6.351868e+01	-1.425862e+01
6.388556e+01	-1.430590e+01
6.425456e+01	-1.435479e+01
6.462569e+01	-1.440277e+01
6.499897e+01	-1.445126e+01
6.537440e+01	-1.449988e+01
6.575200e+01	-1.454749e+01
6.613178e+01	-1.459560e+01
6.651375e+01	-1.464463e+01
6.689793e+01	-1.469283e+01
6.728433e+01	-1.474009e+01
6.767297e+01	-1.478844e+01
6.806384e+01	-1.483812e+01
6.845698e+01	-1.488548e+01
6.885238e+01	-1.493463e+01
6.925007e+01	-1.498303e+01
6.965005e+01	-1.503131e+01
7.005235e+01	-1.508046e+01
7.045697e+01	-1.512791e+01
7.086393e+01	-1.517662e+01
7.127323e+01	-1.522459e+01
7.168490e+01	-1.527359e+01
7.209895e+01	-1.532241e+01
7.251539e+01	-1.537111e+01
7.293424e+01	-1.541930e+01
7.335551e+01	-1.546800e+01
7.377920e+01	-1.551654e+01
7.420535e+01	-1.556499e+01
7.463396e+01	-1.561372e+01
7.506504e+01	-1.566206e+01
7.549861e+01	-1.571184e+01
7.593469e+01	-1.576011e+01
7.637328e+01	-1.580880e+01
7.681441e+01	-1.585759e+01
7.725809e+01	-1.590595e+01
7.770433e+01	-1.595470e+01
7.815315e+01	-1.600417e+01
7.860456e+01	-1.605250e+01
7.905857e+01	-1.610188e+01
7.951521e+01	-1.615091e+01
7.997449e+01	-1.619899e+01
8.043642e+01	-1.624752e+01
8.090102e+01	-1.629744e+01
8.136830e+01	-1.634518e+01
8.183828e+01	-1.639460e+01
8.231097e+01	-1.644261e+01
8.278640e+01	-1.649180e+01
8.326457e+01	-1.654074e+01
8.374550e+01	-1.659013e+01
8.422921e+01	-1.663885e+01
8.471572e+01	-1.668815e+01
8.520503e+01	-1.673689e+01
8.569717e+01	-1.678582e+01
8.619215e+01	-1.683508e+01
8.669000e+01	-1.688323e+01
8.719071e+01	-1.693352e+01
8.769432e+01	-1.698154e+01
8.820084e+01	-1.703026e+01
8.871029e+01	-1.707944e+01
8.922267e+01	-1.712935e+01
8.973802e+01	-1.717689e+01
9.025634e+01	-1.722742e+01
9.077766e+01	-1.727672e+01
9.130199e+01	-1.732503e+01
9.182935e+01	-1.737407e+01
9.235975e+01	-1.742372e+01
9.289321e+01	-1.747363e+01
9.342976e+01	-1.752145e+01
9.396941e+01	-1.757098e+01
9.451217e+01	-1.762042e+01
9.505807e+01	-1.767059e+01
9.560712e+01	-1.771776e+01
9.615934e+01	-1.776776e+01
9.671476e+01	-1.781636e+01
9.727338e+01	-1.786612e+01
9.783522e+01	-1.791410e+01
9.840032e+01	-1.796457e+01
9.896867e+01	-1.801424e+01
9.954031e+01	-1.806326e+01
1.001153e+02	-1.811157e+01
1.006935e+02	-1.816165e+01
1.012751e+02	-1.821046e+01
1.018601e+02	-1.826028e+01
1.024484e+02	-1.831008e+01
1.030402e+02	-1.835785e+01
1.036353e+02	-1.840780e+01
1.042339e+02	-1.845815e+01
1.048360e+02	-1.850779e+01
1.054415e+02	-1.855598e+01
1.060505e+02	-1.860573e+01
1.066631e+02	-1.865372e+01
1.072791e+02	-1.870461e+01
1.078988e+02	-1.875495e+01
1.085220e+02	-1.880351e+01
1.091488e+02	-1.885208e+01
1.097793e+02	-1.890225e+01
1.104133e+02	-1.895041e+01
1.110511e+02	-1.900203e+01
1.116925e+02	-1.904951e+01
1.123376e+02	-1.909912e+01
1.129865e+02	-1.914840e+01
1.136391e+02	-1.919859e+01
1.142955e+02	-1.924827e+01
1.149556e+02	-1.929679e+01
1.156196e+02	-1.934763e+01
1.162874e+02	-1.939577e+01
1.169591e+02	-1.944723e+01
1.176347e+02	-1.949472e+01
1.183141e+02	-1.954484e+01
1.189975e+02	-1.959415e+01
1.196848e+02	-1.964233e+01
1.203761e+02	-1.969284e+01
1.210714e+02	-1.974109e+01
1.217707e+02	-1.979212e+01
1.224740e+02	-1.984154e+01
1.231814e+02	-1.989157e+01
1.238929e+02	-1.994020e+01
1.246085e+02	-1.998986e+01
1.253283e+02	-2.003998e+01
1.260522e+02	-2.008892e+01
1.267802e+02	-2.013794e+01
1.275125e+02	-2.018807e+01
1.282490e+02	-2.023797e+01
1.289898e+02	-2.028716e+01
1.297348e+02	-2.033777e+01
1.304842e+02	-2.038474e+01
1.312378e+02	-2.043698e+01
1.319959e+02	-2.048557e+01
1.327583e+02	-2.053576e+01
1.335251e+02	-2.058483e+01
1.342963e+02	-2.063306e+01
1.350720e+02	-2.068358e+01
1.358522e+02	-2.073275e+01
1.366368e+02	-2.078206e+01
1.374260e+02	-2.083208e+01
1.382198e+02	-2.088115e+01
1.390182e+02	-2.093214e+01
1.398211e+02	-2.098325e+01
1.406287e+02	-2.103167e+01
1.414410e+02	-2.108125e+01
1.422579e+02	-2.112916e+01
1.430796e+02	-2.118157e+01
1.439060e+02	-2.122966e+01
1.447372e+02	-2.127910e+01
1.455732e+02	-2.132964e+01
1.464141e+02	-2.137872e+01
1.472597e+02	-2.143001e+01
1.481103e+02	-2.147868e+01
1.489658e+02	-2.152801e+01
1.498262e+02	-2.157725e+01
1.506916e+02	-2.162768e+01
1.515620e+02	-2.167889e+01
1.524374e+02	-2.172594e+01
1.533179e+02	-2.177649e+01
1.542034e+02	-2.182629e+01
1.550941e+02	-2.187753e+01
1.559899e+02	-2.192539e+01
1.568909e+02	-2.197289e+01
1.577971e+02	-2.202548e+01
1.587085e+02	-2.207463e+01
1.596252e+02	-2.212379e+01
1.605472e+02	-2.217495e+01
1.614745e+02	-2.222524e+01
1.624072e+02	-2.227276e+01
1.633453e+02	-2.232360e+01
1.642887e+02	-2.237489e+01
1.652377e+02	-2.242168e+01
1.661921e+02	-2.247177e+01
1.671520e+02	-2.252324e+01
1.681175e+02	-2.257275e+01
1.690885e+02	-2.262187e+01
1.700651e+02	-2.267297e+01
1.710474e+02	-2.272056e+01
1.720354e+02	-2.277229e+01
1.730291e+02	-2.282090e+01
1.740285e+02	-2.287179e+01
1.750337e+02	-2.292239e+01
1.760446e+02	-2.296889e+01
1.770615e+02	-2.302196e+01
1.780842e+02	-2.306734e+01
1.791128e+02	-2.312031e+01
1.801473e+02	-2.317138e+01
1.811878e+02	-2.322195e+01
1.822344e+02	-2.327136e+01
1.832870e+02	-2.332096e+01
1.843456e+02	-2.337050e+01
1.854104e+02	-2.341933e+01
1.864813e+02	-2.346857e+01
1.875584e+02	-2.351656e+01
1.886418e+02	-2.356776e+01
1.897313e+02	-2.361738e+01
1.908272e+02	-2.366735e+01
1.919294e+02	-2.371643e+01
1.930380e+02	-2.377098e+01
1.941530e+02	-2.381741e+01
1.952744e+02	-2.386726e+01
1.964023e+02	-2.391627e+01
1.975367e+02	-2.396658e+01
1.986777e+02	-2.401971e+01
1.998252e+02	-2.406728e+01
2.009794e+02	-2.411869e+01
2.021403e+02	-2.416796e+01
2.033078e+02	-2.421768e+01
2.044821e+02	-2.426752e+01
2.056632e+02	-2.431608e+01
2.068511e+02	-2.436499e+01
2.080459e+02	-2.441922e+01
2.092475e+02	-2.446701e+01
2.104561e+02	-2.451413e+01
2.116717e+02	-2.456601e+01
2.128943e+02	-2.461460e+01
2.141240e+02	-2.466256e+01
2.153608e+02	-2.471765e+01
2.166047e+02	-2.476529e+01
2.178558e+02	-2.481593e+01
2.191141e+02	-2.486488e+01
2.203797e+02	-2.491797e+01
2.216526e+02	-2.496263e+01
2.229329e+02	-2.501611e+01
2.242205e+02	-2.506564e+01
2.255156e+02	-2.511309e+01
2.268182e+02	-2.516654e+01
2.281283e+02	-2.521243e+01
2.294459e+02	-2.526722e+01
2.307712e+02	-2.531578e+01
2.321041e+02	-2.536296e+01
2.334447e+02	-2.541364e+01
2.347931e+02	-2.546299e+01
2.361493e+02	-2.551453e+01
2.375133e+02	-2.556571e+01
2.388851e+02	-2.561393e+01
2.402649e+02	-2.566283e+01
2.416527e+02	-2.571561e+01
2.430484e+02	-2.576299e+01
2.444523e+02	-2.581575e+01
2.458642e+02	-2.586520e+01
2.472843e+02	-2.591561e+01
2.487126e+02	-2.596483e+01
2.501492e+02	-2.601387e+01
2.515940e+02	-2.606113e+01
2.530472e+02	-2.611032e+01
2.545088e+02	-2.616065e+01
2.559789e+02	-2.621094e+01
2.574574e+02	-2.626451e+01
2.589444e+02	-2.631386e+01
2.604401e+02	-2.635919e+01
2.619444e+02	-2.641265e+01
2.634574e+02	-2.646324e+01
2.649791e+02	-2.651451e+01
2.665096e+02	-2.656533e+01
2.680489e+02	-2.661343e+01
2.695972e+02	-2.666032e+01
2.711544e+02	-2.671215e+01
2.727205e+02	-2.675960e+01
2.742958e+02	-2.681687e+01
2.758801e+02	-2.686376e+01
2.774736e+02	-2.691217e+01
2.790762e+02	-2.695956e+01
2.806882e+02	-2.701297e+01
2.823094e+02	-2.706285e+01
2.839400e+02	-2.711849e+01
2.855800e+02	-2.716157e+01
2.872295e+02	-2.721269e+01
2.888886e+02	-2.726240e+01
2.905572e+02	-2.731169e+01
2.922354e+02	-2.736400e+01
2.939234e+02	-2.740833e+01
2.956211e+02	-2.746076e+01
2.973286e+02	-2.751637e+01
2.990459e+02	-2.756391e+01
3.007732e+02	-2.761081e+01
3.025104e+02	-2.766310e+01
3.042577e+02	-2.771384e+01
3.060151e+02	-2.776386e+01
3.077826e+02	-2.781386e+01
3.095604e+02	-2.786360e+01
3.113484e+02	-2.791006e+01
3.131467e+02	-2.796217e+01
3.149554e+02	-2.801206e+01
3.167746e+02	-2.806321e+01
3.186043e+02	-2.811523e+01
3.204445e+02	-2.816248e+01
3.222954e+02	-2.821258e+01
3.241570e+02	-2.826252e+01
3.260293e+02	-2.831665e+01
3.279124e+02	-2.835842e+01
3.298064e+02	-2.841471e+01
3.317114e+02	-2.845984e+01
3.336273e+02	-2.851134e+01
3.355544e+02	-2.856193e+01
3.374925e+02	-2.861253e+01
3.394418e+02	-2.866543e+01
3.414024e+02	-2.871400e+01
3.433744e+02	-2.876043e+01
3.453577e+02	-2.881356e+01
3.473525e+02	-2.886393e+01
3.493588e+02	-2.891622e+01
3.513766e+02	-2.896379e+01
3.534062e+02	-2.901379e+01
3.554474e+02	-2.906462e+01
3.575005e+02	-2.911210e+01
3.595654e+02	-2.916778e+01
3.616422e+02	-2.921303e+01
3.637311e+02	-2.926247e+01
3.658320e+02	-2.931304e+01
3.679450e+02	-2.936602e+01
3.700702e+02	-2.941521e+01
3.722077e+02	-2.946508e+01
3.743576e+02	-2.951656e+01
3.765199e+02	-2.956663e+01
3.786946e+02	-2.961706e+01
3.808820e+02	-2.966504e+01
3.830819e+02	-2.971719e+01
3.852946e+02	-2.976111e+01
3.875200e+02	-2.981882e+01
3.897583e+02	-2.986037e+01
3.920096e+02	-2.991745e+01
3.942738e+02	-2.997010e+01
3.965511e+02	-3.001500e+01
3.988416e+02	-3.006578e+01
4.011452e+02	-3.012096e+01
4.034622e+02	-3.016330e+01
4.057926e+02	-3.021373e+01
4.081365e+02	-3.026308e+01
4.104938e+02	-3.031804e+01
4.128648e+02	-3.036389e+01
4.152495e+02	-3.042119e+01
4.176480e+02	-3.046254e+01
4.200603e+02	-3.051739e+01
4.224866e+02	-3.057381e+01
4.249268e+02	-3.061855e+01
4.273812e+02	-3.066869e+01
4.298497e+02	-3.071419e+01
4.323325e+02	-3.076961e+01
4.348297e+02	-3.082200e+01
4.373412e+02	-3.086948e+01
4.398673e+02	-3.091773e+01
4.424079e+02	-3.096923e+01
4.449633e+02	-3.102040e+01
4.475334e+02	-3.107202e+01
4.501183e+02	-3.111624e+01
4.527182e+02	-3.116842e+01
4.553330e+02	-3.122452e+01
4.579630e+02	-3.127052e+01
4.606082e+02	-3.131643e+01
4.632687e+02	-3.136736e+01
4.659445e+02	-3.141643e+01
4.686358e+02	-3.146942e+01
4.713426e+02	-3.152469e+01
4.740650e+02	-3.157219e+01
4.768032e+02	-3.161724e+01
4.795572e+02	-3.167215e+01
4.823271e+02	-3.171894e+01
4.851130e+02	-3.177270e+01
4.879150e+02	-3.182054e+01
4.907332e+02	-3.186796e+01
4.935676e+02	-3.191837e+01
4.964185e+02	-3.196861e+01
4.992858e+02	-3.202696e+01
5.021696e+02	-3.207375e+01
5.050701e+02	-3.212475e+01
5.079874e+02	-3.217503e+01
5.109215e+02	-3.221604e+01
5.138726e+02	-3.227869e+01
5.168407e+02	-3.232138e+01
5.198259e+02	-3.237241e+01
5.228284e+02	-3.242573e+01
5.258482e+02	-3.247480e+01
5.288855e+02	-3.253091e+01
5.319403e+02	-3.257773e+01
5.350128e+02	-3.262222e+01
5.381030e+02	-3.267783e+01
5.412111e+02	-3.272510e+01
5.443371e+02	-3.277675e+01
5.474812e+02	-3.282608e+01
5.506434e+02	-3.287200e+01
5.538239e+02	-3.292031e+01
5.570228e+02	-3.298039e+01
5.602401e+02	-3.302687e+01
5.634760e+02	-3.307699e+01
5.667306e+02	-3.313194e+01
5.700040e+02	-3.317725e+01
5.732964e+02	-3.322810e+01
5.766077e+02	-3.328321e+01
5.799382e+02	-3.332690e+01
5.832879e+02	-3.338163e+01
5.866569e+02	-3.343471e+01
5.900454e+02	-3.347963e+01
5.934535e+02	-3.352565e+01
5.968813e+02	-3.358500e+01
6.003288e+02	-3.363812e+01
6.037963e+02	-3.368789e+01
6.072838e+02	-3.373859e+01
6.107914e+02	-3.378732e+01
6.143194e+02	-3.383161e+01
6.178676e+02	-3.388802e+01
6.214364e+02	-3.393370e+01
6.250258e+02	-3.398737e+01
6.286359e+02	-3.404448e+01
6.322669e+02	-3.409324e+01
6.359189e+02	-3.413067e+01
6.395919e+02	-3.418877e+01
6.432862e+02	-3.423159e+01
6.470017e+02	-3.428264e+01
6.507388e+02	-3.434019e+01
6.544974e+02	-3.438580e+01
6.582778e+02	-3.443739e+01
6.620800e+02	-3.448867e+01
6.659041e+02	-3.453823e+01
6.697504e+02	-3.459282e+01
6.736188e+02	-3.463224e+01
6.775096e+02	-3.468677e+01
6.814229e+02	-3.473836e+01
6.853587e+02	-3.478702e+01
6.893173e+02	-3.483962e+01
6.932988e+02	-3.489862e+01
6.973033e+02	-3.493845e+01
7.013309e+02	-3.499276e+01
