Frequency(Hz)	Magnitude(dB)
1.000000e+01	-2.132124e+00
1.005776e+01	-2.151809e+00
1.011585e+01	-2.171391e+00
1.017428e+01	-2.191043e+00
1.023305e+01	-2.210941e+00
1.029215e+01	-2.230873e+00
1.035160e+01	-2.250765e+00
1.041139e+01	-2.271404e+00
1.047153e+01	-2.291768e+00
1.053201e+01	-2.312552e+00
1.059284e+01	-2.333146e+00
1.065403e+01	-2.354078e+00
1.071556e+01	-2.374973e+00
1.077746e+01	-2.396284e+00
1.083971e+01	-2.417617e+00
1.090232e+01	-2.438917e+00
1.096529e+01	-2.460331e+00
1.102862e+01	-2.482245e+00
1.109232e+01	-2.503757e+00
1.115639e+01	-2.525885e+00
1.122083e+01	-2.548114e+00
1.128564e+01	-2.570352e+00
1.135083e+01	-2.592915e+00
1.141639e+01	-2.615416e+00
1.148233e+01	-2.638016e+00
1.154865e+01	-2.660881e+00
1.161536e+01	-2.683780e+00
1.168245e+01	-2.707161e+00
1.174992e+01	-2.730488e+00
1.181779e+01	-2.753838e+00
1.188605e+01	-2.777107e+00
1.195470e+01	-2.800802e+00
1.202375e+01	-2.824720e+00
1.209320e+01	-2.848853e+00
1.216305e+01	-2.872925e+00
1.223330e+01	-2.897366e+00
1.230396e+01	-2.921950e+00
1.237503e+01	-2.946124e+00
1.244651e+01	-2.970926e+00
1.251840e+01	-2.995587e+00
1.259070e+01	-3.020902e+00
1.266343e+01	-3.045871e+00
1.273657e+01	-3.071358e+00
1.281014e+01	-3.096461e+00
1.288413e+01	-3.122392e+00
1.295855e+01	-3.148133e+00
1.303339e+01	-3.174008e+00
1.310867e+01	-3.199968e+00
1.318439e+01	-3.225983e+00
1.326054e+01	-3.252126e+00
1.333713e+01	-3.278735e+00
1.341417e+01	-3.305295e+00
1.349165e+01	-3.332191e+00
1.356958e+01	-3.358982e+00
1.364795e+01	-3.386035e+00
1.372678e+01	-3.413344e+00
1.380607e+01	-3.440537e+00
1.388581e+01	-3.467922e+00
1.396602e+01	-3.495478e+00
1.404668e+01	-3.523377e+00
1.412782e+01	-3.550972e+00
1.420942e+01	-3.579157e+00
1.429149e+01	-3.607179e+00
1.437404e+01	-3.635294e+00
1.445706e+01	-3.663815e+00
1.454057e+01	-3.692491e+00
1.462455e+01	-3.721598e+00
1.470902e+01	-3.750033e+00
1.479398e+01	-3.779121e+00
1.487943e+01	-3.808177e+00
1.496537e+01	-3.837397e+00
1.505181e+01	-3.866769e+00
1.513875e+01	-3.896530e+00
1.522619e+01	-3.926442e+00
1.531414e+01	-3.955987e+00
1.540259e+01	-3.986055e+00
1.549156e+01	-4.016212e+00
1.558103e+01	-4.046345e+00
1.567103e+01	-4.076661e+00
1.576155e+01	-4.107417e+00
1.585258e+01	-4.137870e+00
1.594415e+01	-4.168724e+00
1.603624e+01	-4.199826e+00
1.612886e+01	-4.230649e+00
1.622202e+01	-4.261903e+00
1.631572e+01	-4.293559e+00
1.640996e+01	-4.325084e+00
1.650474e+01	-4.356240e+00
1.660008e+01	-4.388386e+00
1.669596e+01	-4.419941e+00
1.679239e+01	-4.452196e+00
1.688938e+01	-4.484010e+00
1.698694e+01	-4.516408e+00
1.708505e+01	-4.548761e+00
1.718373e+01	-4.581431e+00
1.728299e+01	-4.613887e+00
1.738281e+01	-4.647054e+00
1.748322e+01	-4.679755e+00
1.758420e+01	-4.712622e+00
1.768576e+01	-4.745959e+00
1.778792e+01	-4.779446e+00
1.789066e+01	-4.812598e+00
1.799399e+01	-4.846580e+00
1.809793e+01	-4.879721e+00
1.820246e+01	-4.913985e+00
1.830760e+01	-4.948058e+00
1.841334e+01	-4.982023e+00
1.851969e+01	-5.016051e+00
1.862666e+01	-5.050391e+00
1.873425e+01	-5.084717e+00
1.884246e+01	-5.119588e+00
1.895129e+01	-5.154369e+00
1.906075e+01	-5.189117e+00
1.917085e+01	-5.224038e+00
1.928158e+01	-5.259236e+00
1.939295e+01	-5.294125e+00
1.950496e+01	-5.329600e+00
1.961762e+01	-5.364958e+00
1.973093e+01	-5.400456e+00
1.984490e+01	-5.436049e+00
1.995952e+01	-5.472049e+00
2.007480e+01	-5.507807e+00
2.019076e+01	-5.543671e+00
2.030738e+01	-5.579616e+00
2.042467e+01	-5.616137e+00
2.054264e+01	-5.652734e+00
2.066130e+01	-5.688925e+00
2.078064e+01	-5.725781e+00
2.090066e+01	-5.761965e+00
2.102139e+01	-5.799117e+00
2.114280e+01	-5.836155e+00
2.126492e+01	-5.873229e+00
2.138775e+01	-5.910096e+00
2.151128e+01	-5.947543e+00
2.163553e+01	-5.985050e+00
2.176050e+01	-6.022231e+00
2.188619e+01	-6.059607e+00
2.201260e+01	-6.097451e+00
2.213974e+01	-6.135281e+00
2.226762e+01	-6.172957e+00
2.239624e+01	-6.211536e+00
2.252560e+01	-6.249244e+00
2.265571e+01	-6.287487e+00
2.278656e+01	-6.326028e+00
2.291818e+01	-6.364434e+00
2.305055e+01	-6.403103e+00
2.318369e+01	-6.441351e+00
2.331760e+01	-6.480191e+00
2.345228e+01	-6.518658e+00
2.358774e+01	-6.557994e+00
2.372398e+01	-6.596949e+00
2.386101e+01	-6.635705e+00
2.399883e+01	-6.675522e+00
2.413745e+01	-6.714503e+00
2.427686e+01	-6.753742e+00
2.441709e+01	-6.793548e+00
2.455812e+01	-6.832868e+00
2.469997e+01	-6.872646e+00
2.484263e+01	-6.912402e+00
2.498612e+01	-6.952600e+00
2.513044e+01	-6.992784e+00
2.527559e+01	-7.032838e+00
2.542158e+01	-7.072801e+00
2.556842e+01	-7.113299e+00
2.571610e+01	-7.153672e+00
2.586463e+01	-7.193318e+00
2.601403e+01	-7.234303e+00
2.616428e+01	-7.275087e+00
2.631541e+01	-7.315415e+00
2.646740e+01	-7.356247e+00
2.662028e+01	-7.397735e+00
2.677404e+01	-7.438056e+00
2.692868e+01	-7.479326e+00
2.708422e+01	-7.520340e+00
2.724066e+01	-7.561473e+00
2.739800e+01	-7.602674e+00
2.755625e+01	-7.644173e+00
2.771541e+01	-7.685501e+00
2.787550e+01	-7.727581e+00
2.803650e+01	-7.768817e+00
2.819844e+01	-7.810457e+00
2.836131e+01	-7.852402e+00
2.852513e+01	-7.894046e+00
2.868989e+01	-7.935841e+00
2.885560e+01	-7.978145e+00
2.902227e+01	-8.020115e+00
2.918990e+01	-8.062586e+00
2.935850e+01	-8.104586e+00
2.952807e+01	-8.147082e+00
2.969863e+01	-8.189307e+00
2.987016e+01	-8.231912e+00
3.004269e+01	-8.274549e+00
3.021622e+01	-8.317103e+00
3.039075e+01	-8.359929e+00
3.056628e+01	-8.402721e+00
3.074283e+01	-8.445168e+00
3.092040e+01	-8.487719e+00
3.109900e+01	-8.531446e+00
3.127862e+01	-8.574163e+00
3.145929e+01	-8.617319e+00
3.164099e+01	-8.660475e+00
3.182375e+01	-8.703766e+00
3.200756e+01	-8.747240e+00
3.219244e+01	-8.790926e+00
3.237838e+01	-8.833590e+00
3.256540e+01	-8.877537e+00
3.275349e+01	-8.920508e+00
3.294268e+01	-8.964548e+00
3.313295e+01	-9.008943e+00
3.332433e+01	-9.052241e+00
3.351681e+01	-9.095861e+00
3.371040e+01	-9.140100e+00
3.390511e+01	-9.183945e+00
3.410094e+01	-9.228049e+00
3.429791e+01	-9.271996e+00
3.449601e+01	-9.316245e+00
3.469526e+01	-9.359911e+00
3.489566e+01	-9.404927e+00
3.509721e+01	-9.448812e+00
3.529993e+01	-9.493512e+00
3.550382e+01	-9.537874e+00
3.570889e+01	-9.581643e+00
3.591515e+01	-9.627091e+00
3.612259e+01	-9.671448e+00
3.633123e+01	-9.716101e+00
3.654108e+01	-9.760552e+00
3.675214e+01	-9.805121e+00
3.696442e+01	-9.850481e+00
3.717792e+01	-9.895155e+00
3.739266e+01	-9.940373e+00
3.760864e+01	-9.985030e+00
3.782587e+01	-1.003059e+01
3.804435e+01	-1.007548e+01
3.826409e+01	-1.012075e+01
3.848510e+01	-1.016547e+01
3.870739e+01	-1.021072e+01
3.893096e+01	-1.025556e+01
3.915583e+01	-1.030185e+01
3.938199e+01	-1.034671e+01
3.960946e+01	-1.039253e+01
3.983824e+01	-1.043770e+01
4.006834e+01	-1.048258e+01
4.029978e+01	-1.052896e+01
4.053255e+01	-1.057434e+01
4.076666e+01	-1.062022e+01
4.100213e+01	-1.066602e+01
4.123896e+01	-1.071153e+01
4.147715e+01	-1.075716e+01
4.171672e+01	-1.080341e+01
4.195767e+01	-1.084889e+01
4.220002e+01	-1.089465e+01
4.244377e+01	-1.094080e+01
4.268892e+01	-1.098713e+01
4.293549e+01	-1.103260e+01
4.318348e+01	-1.107922e+01
4.343291e+01	-1.112524e+01
4.368377e+01	-1.117149e+01
4.393609e+01	-1.121781e+01
4.418986e+01	-1.126330e+01
4.444510e+01	-1.131065e+01
4.470182e+01	-1.135655e+01
4.496001e+01	-1.140318e+01
4.521970e+01	-1.144982e+01
4.548089e+01	-1.149570e+01
4.574358e+01	-1.154258e+01
4.600779e+01	-1.158910e+01
4.627353e+01	-1.163558e+01
4.654081e+01	-1.168255e+01
4.680963e+01	-1.172861e+01
4.708000e+01	-1.177500e+01
4.735193e+01	-1.182235e+01
4.762543e+01	-1.186873e+01
4.790051e+01	-1.191585e+01
4.817719e+01	-1.196279e+01
4.845545e+01	-1.200963e+01
4.873533e+01	-1.205621e+01
4.901682e+01	-1.210307e+01
4.929994e+01	-1.215125e+01
4.958470e+01	-1.219692e+01
4.987110e+01	-1.224444e+01
5.015915e+01	-1.229137e+01
5.044887e+01	-1.233806e+01
5.074026e+01	-1.238500e+01
5.103333e+01	-1.243339e+01
5.132810e+01	-1.247977e+01
5.162457e+01	-1.252668e+01
5.192275e+01	-1.257483e+01
5.222265e+01	-1.262156e+01
5.252429e+01	-1.266939e+01
5.282767e+01	-1.271651e+01
5.313280e+01	-1.276326e+01
5.343969e+01	-1.281079e+01
5.374836e+01	-1.285840e+01
5.405880e+01	-1.290629e+01
5.437105e+01	-1.295257e+01
5.468509e+01	-1.300169e+01
5.500095e+01	-1.304802e+01
5.531863e+01	-1.309598e+01
5.563815e+01	-1.314379e+01
5.595951e+01	-1.319110e+01
5.628273e+01	-1.323928e+01
5.660782e+01	-1.328625e+01
5.693479e+01	-1.333415e+01
5.726364e+01	-1.338235e+01
5.759439e+01	-1.342989e+01
5.792705e+01	-1.347729e+01
5.826164e+01	-1.352442e+01
5.859815e+01	-1.357325e+01
5.893662e+01	-1.362066e+01
5.927703e+01	-1.366849e+01
5.961941e+01	-1.371629e+01
5.996377e+01	-1.376451e+01
6.031012e+01	-1.381360e+01
6.065847e+01	-1.386008e+01
6.100883e+01	-1.390804e+01
6.136121e+01	-1.395579e+01
6.171563e+01	-1.400479e+01
6.207210e+01	-1.405290e+01
6.243063e+01	-1.410092e+01
6.279122e+01	-1.414849e+01
6.315390e+01	-1.419725e+01
6.351868e+01	-1.424535e+01
6.388556e+01	-1.429285e+01
6.425456e+01	-1.434106e+01
6.462569e+01	-1.438875e+01
6.499897e+01	-1.443777e+01
6.537440e+01	-1.448635e+01
6.575200e+01	-1.453485e+01
6.613178e+01	-1.458252e+01
6.651375e+01	-1.463023e+01
6.689793e+01	-1.467993e+01
6.728433e+01	-1.472704e+01
6.767297e+01	-1.477511e+01
6.806384e+01	-1.482493e+01
6.845698e+01	-1.487356e+01
6.885238e+01	-1.492109e+01
6.925007e+01	-1.496808e+01
6.965005e+01	-1.501764e+01
7.005235e+01	-1.506569e+01
7.045697e+01	-1.511427e+01
7.086393e+01	-1.516365e+01
7.127323e+01	-1.521139e+01
7.168490e+01	-1.525890e+01
7.209895e+01	-1.530927e+01
7.251539e+01	-1.535855e+01
7.293424e+01	-1.540606e+01
7.335551e+01	-1.545478e+01
7.377920e+01	-1.550383e+01
7.420535e+01	-1.555229e+01
7.463396e+01	-1.559958e+01
7.506504e+01	-1.564824e+01
7.549861e+01	-1.569791e+01
7.593469e+01	-1.574640e+01
7.637328e+01	-1.579493e+01
7.681441e+01	-1.584407e+01
7.725809e+01	-1.589365e+01
7.770433e+01	-1.594178e+01
7.815315e+01	-1.599000e+01
7.860456e+01	-1.603958e+01
7.905857e+01	-1.608738e+01
7.951521e+01	-1.613668e+01
7.997449e+01	-1.618523e+01
8.043642e+01	-1.623432e+01
8.090102e+01	-1.628322e+01
8.136830e+01	-1.633166e+01
8.183828e+01	-1.638069e+01
8.231097e+01	-1.642959e+01
8.278640e+01	-1.647884e+01
8.326457e+01	-1.652770e+01
8.374550e+01	-1.657703e+01
8.422921e+01	-1.662485e+01
8.471572e+01	-1.667474e+01
8.520503e+01	-1.672434e+01
8.569717e+01	-1.677217e+01
8.619215e+01	-1.682138e+01
8.669000e+01	-1.687077e+01
8.719071e+01	-1.691971e+01
8.769432e+01	-1.696934e+01
8.820084e+01	-1.701709e+01
8.871029e+01	-1.706664e+01
8.922267e+01	-1.711522e+01
8.973802e+01	-1.716349e+01
9.025634e+01	-1.721299e+01
9.077766e+01	-1.726340e+01
9.130199e+01	-1.731142e+01
9.182935e+01	-1.735980e+01
9.235975e+01	-1.741161e+01
9.289321e+01	-1.745907e+01
9.342976e+01	-1.750719e+01
9.396941e+01	-1.755606e+01
9.451217e+01	-1.760644e+01
9.505807e+01	-1.765495e+01
9.560712e+01	-1.770524e+01
9.615934e+01	-1.775472e+01
9.671476e+01	-1.780307e+01
9.727338e+01	-1.785226e+01
9.783522e+01	-1.790229e+01
9.840032e+01	-1.795094e+01
9.896867e+01	-1.799970e+01
9.954031e+01	-1.805075e+01
1.001153e+02	-1.810021e+01
1.006935e+02	-1.814785e+01
1.012751e+02	-1.819691e+01
1.018601e+02	-1.824642e+01
1.024484e+02	-1.829693e+01
1.030402e+02	-1.834572e+01
1.036353e+02	-1.839493e+01
1.042339e+02	-1.844419e+01
1.048360e+02	-1.849276e+01
1.054415e+02	-1.854262e+01
1.060505e+02	-1.859068e+01
1.066631e+02	-1.864071e+01
1.072791e+02	-1.869170e+01
1.078988e+02	-1.873979e+01
1.085220e+02	-1.879004e+01
1.091488e+02	-1.883864e+01
1.097793e+02	-1.888771e+01
1.104133e+02	-1.893606e+01
1.110511e+02	-1.898633e+01
1.116925e+02	-1.903651e+01
1.123376e+02	-1.908606e+01
1.129865e+02	-1.913465e+01
1.136391e+02	-1.918465e+01
1.142955e+02	-1.923260e+01
1.149556e+02	-1.928265e+01
1.156196e+02	-1.933262e+01
1.162874e+02	-1.938201e+01
1.169591e+02	-1.943100e+01
1.176347e+02	-1.948087e+01
1.183141e+02	-1.952906e+01
1.189975e+02	-1.957979e+01
1.196848e+02	-1.962790e+01
1.203761e+02	-1.967886e+01
1.210714e+02	-1.972850e+01
1.217707e+02	-1.977788e+01
1.224740e+02	-1.982761e+01
1.231814e+02	-1.987644e+01
1.238929e+02	-1.992583e+01
1.246085e+02	-1.997607e+01
1.253283e+02	-2.002605e+01
1.260522e+02	-2.007573e+01
1.267802e+02	-2.012441e+01
1.275125e+02	-2.017494e+01
1.282490e+02	-2.022386e+01
1.289898e+02	-2.027423e+01
1.297348e+02	-2.032173e+01
1.304842e+02	-2.037313e+01
1.312378e+02	-2.042232e+01
1.319959e+02	-2.047131e+01
1.327583e+02	-2.052071e+01
1.335251e+02	-2.057077e+01
1.342963e+02	-2.062013e+01
1.350720e+02	-2.066947e+01
1.358522e+02	-2.071880e+01
1.366368e+02	-2.076919e+01
1.374260e+02	-2.081971e+01
1.382198e+02	-2.086647e+01
1.390182e+02	-2.091745e+01
1.398211e+02	-2.096690e+01
1.406287e+02	-2.101644e+01
1.414410e+02	-2.106876e+01
1.422579e+02	-2.111650e+01
1.430796e+02	-2.116612e+01
1.439060e+02	-2.121448e+01
1.447372e+02	-2.126616e+01
1.455732e+02	-2.131624e+01
1.464141e+02	-2.136747e+01
1.472597e+02	-2.141289e+01
1.481103e+02	-2.146425e+01
1.489658e+02	-2.151488e+01
1.498262e+02	-2.156340e+01
1.506916e+02	-2.161389e+01
1.515620e+02	-2.166372e+01
1.524374e+02	-2.171346e+01
1.533179e+02	-2.176157e+01
1.542034e+02	-2.181185e+01
1.550941e+02	-2.186339e+01
1.559899e+02	-2.191176e+01
1.568909e+02	-2.196215e+01
1.577971e+02	-2.201162e+01
1.587085e+02	-2.205917e+01
1.596252e+02	-2.210916e+01
1.605472e+02	-2.215883e+01
1.614745e+02	-2.220810e+01
1.624072e+02	-2.225973e+01
1.633453e+02	-2.231105e+01
1.642887e+02	-2.235926e+01
1.652377e+02	-2.241083e+01
1.661921e+02	-2.245757e+01
1.671520e+02	-2.250885e+01
1.681175e+02	-2.255804e+01
1.690885e+02	-2.260690e+01
1.700651e+02	-2.265829e+01
1.710474e+02	-2.270943e+01
1.720354e+02	-2.275775e+01
1.730291e+02	-2.280491e+01
1.740285e+02	-2.285484e+01
1.750337e+02	-2.290749e+01
1.760446e+02	-2.295570e+01
1.770615e+02	-2.300574e+01
1.780842e+02	-2.305411e+01
1.791128e+02	-2.310523e+01
1.801473e+02	-2.315505e+01
1.811878e+02	-2.320641e+01
1.822344e+02	-2.325566e+01
1.832870e+02	-2.330661e+01
1.843456e+02	-2.335359e+01
1.854104e+02	-2.340502e+01
1.864813e+02	-2.345479e+01
1.875584e+02	-2.350574e+01
1.886418e+02	-2.355491e+01
1.897313e+02	-2.360413e+01
1.908272e+02	-2.365328e+01
1.919294e+02	-2.370456e+01
1.930380e+02	-2.375221e+01
1.941530e+02	-2.380447e+01
1.952744e+02	-2.385178e+01
1.964023e+02	-2.390485e+01
1.975367e+02	-2.395454e+01
1.986777e+02	-2.400206e+01
1.998252e+02	-2.405505e+01
2.009794e+02	-2.410379e+01
2.021403e+02	-2.415199e+01
2.033078e+02	-2.420008e+01
2.044821e+02	-2.425403e+01
2.056632e+02	-2.430303e+01
2.068511e+02	-2.435150e+01
2.080459e+02	-2.440153e+01
2.092475e+02	-2.445189e+01
2.104561e+02	-2.450029e+01
2.116717e+02	-2.455041e+01
2.128943e+02	-2.460211e+01
2.141240e+02	-2.465479e+01
2.153608e+02	-2.470116e+01
2.166047e+02	-2.475290e+01
2.178558e+02	-2.480299e+01
2.191141e+02	-2.485183e+01
2.203797e+02	-2.489981e+01
2.216526e+02	-2.495121e+01
2.229329e+02	-2.499983e+01
2.242205e+02	-2.504968e+01
2.255156e+02	-2.510191e+01
2.268182e+02	-2.514970e+01
2.281283e+02	-2.520096e+01
2.294459e+02	-2.525241e+01
2.307712e+02	-2.529916e+01
2.321041e+02	-2.535100e+01
2.334447e+02	-2.539965e+01
2.347931e+02	-2.545022e+01
2.361493e+02	-2.550265e+01
2.375133e+02	-2.555127e+01
2.388851e+02	-2.560224e+01
2.402649e+02	-2.564855e+01
2.416527e+02	-2.569665e+01
2.430484e+02	-2.574878e+01
2.444523e+02	-2.580123e+01
2.458642e+02	-2.585040e+01
2.472843e+02	-2.589930e+01
2.487126e+02	-2.594650e+01
2.501492e+02	-2.600035e+01
2.515940e+02	-2.604518e+01
2.530472e+02	-2.609959e+01
2.545088e+02	-2.614840e+01
2.559789e+02	-2.619656e+01
2.574574e+02	-2.624842e+01
2.589444e+02	-2.630175e+01
2.604401e+02	-2.634708e+01
2.619444e+02	-2.640320e+01
2.634574e+02	-2.644859e+01
2.649791e+02	-2.649788e+01
2.665096e+02	-2.654726e+01
2.680489e+02	-2.659671e+01
2.695972e+02	-2.664957e+01
2.711544e+02	-2.669935e+01
2.727205e+02	-2.675237e+01
2.742958e+02	-2.679973e+01
2.758801e+02	-2.684377e+01
2.774736e+02	-2.689851e+01
2.790762e+02	-2.695020e+01
2.806882e+02	-2.699571e+01
2.823094e+02	-2.704867e+01
2.839400e+02	-2.709574e+01
2.855800e+02	-2.714666e+01
2.872295e+02	-2.719656e+01
2.888886e+02	-2.725019e+01
2.905572e+02	-2.730074e+01
2.922354e+02	-2.735039e+01
2.939234e+02	-2.739827e+01
2.956211e+02	-2.745210e+01
2.973286e+02	-2.749469e+01
2.990459e+02	-2.754654e+01
3.007732e+02	-2.759532e+01
3.025104e+02	-2.764876e+01
3.042577e+02	-2.769857e+01
3.060151e+02	-2.775402e+01
3.077826e+02	-2.779878e+01
3.095604e+02	-2.784874e+01
3.113484e+02	-2.790013e+01
3.131467e+02	-2.794778e+01
3.149554e+02	-2.799309e+01
3.167746e+02	-2.805163e+01
3.186043e+02	-2.809953e+01
3.204445e+02	-2.815054e+01
3.222954e+02	-2.820295e+01
3.241570e+02	-2.825042e+01
3.260293e+02	-2.829805e+01
3.279124e+02	-2.835044e+01
3.298064e+02	-2.839700e+01
3.317114e+02	-2.845086e+01
3.336273e+02	-2.849843e+01
3.355544e+02	-2.854545e+01
3.374925e+02	-2.859731e+01
3.394418e+02	-2.864778e+01
3.414024e+02	-2.870250e+01
3.433744e+02	-2.875163e+01
3.453577e+02	-2.879987e+01
3.473525e+02	-2.884923e+01
3.493588e+02	-2.889823e+01
3.513766e+02	-2.894940e+01
3.534062e+02	-2.899965e+01
3.554474e+02	-2.904996e+01
3.575005e+02	-2.910162e+01
3.595654e+02	-2.915064e+01
3.616422e+02	-2.919772e+01
3.637311e+02	-2.924695e+01
3.658320e+02	-2.929780e+01
3.679450e+02	-2.935255e+01
3.700702e+02	-2.940816e+01
3.722077e+02	-2.944982e+01
3.743576e+02	-2.949735e+01
3.765199e+02	-2.955347e+01
3.786946e+02	-2.960074e+01
3.808820e+02	-2.965163e+01
3.830819e+02	-2.969819e+01
3.852946e+02	-2.975122e+01
3.875200e+02	-2.980483e+01
3.897583e+02	-2.984792e+01
3.920096e+02	-2.990442e+01
3.942738e+02	-2.995477e+01
3.965511e+02	-3.000162e+01
3.988416e+02	-3.005389e+01
4.011452e+02	-3.010108e+01
4.034622e+02	-3.015005e+01
4.057926e+02	-3.020579e+01
4.081365e+02	-3.024865e+01
4.104938e+02	-3.030597e+01
4.128648e+02	-3.034836e+01
4.152495e+02	-3.039885e+01
4.176480e+02	-3.044958e+01
4.200603e+02	-3.049930e+01
4.224866e+02	-3.055477e+01
4.249268e+02	-3.060219e+01
4.273812e+02	-3.065449e+01
4.298497e+02	-3.069869e+01
4.323325e+02	-3.074822e+01
4.348297e+02	-3.080070e+01
4.373412e+02	-3.085566e+01
4.398673e+02	-3.090089e+01
4.424079e+02	-3.095164e+01
4.449633e+02	-3.100536e+01
4.475334e+02	-3.105035e+01
4.501183e+02	-3.110293e+01
4.527182e+02	-3.115182e+01
4.553330e+02	-3.120530e+01
4.579630e+02	-3.125021e+01
4.606082e+02	-3.130836e+01
4.632687e+02	-3.135454e+01
4.659445e+02	-3.140232e+01
4.686358e+02	-3.145958e+01
4.713426e+02	-3.149740e+01
4.740650e+02	-3.155789e+01
4.768032e+02	-3.160309e+01
4.795572e+02	-3.165490e+01
4.823271e+02	-3.171067e+01
4.851130e+02	-3.175524e+01
4.879150e+02	-3.180932e+01
4.907332e+02	-3.185737e+01
4.935676e+02	-3.190632e+01
4.964185e+02	-3.195218e+01
4.992858e+02	-3.200054e+01
5.021696e+02	-3.205857e+01
5.050701e+02	-3.211055e+01
5.079874e+02	-3.215409e+01
5.109215e+02	-3.221189e+01
5.138726e+02	-3.225616e+01
5.168407e+02	-3.231440e+01
5.198259e+02	-3.235678e+01
5.228284e+02	-3.241130e+01
5.258482e+02	-3.245385e+01
5.288855e+02	-3.251101e+01
5.319403e+02	-3.255655e+01
5.350128e+02	-3.261430e+01
5.381030e+02	-3.265712e+01
5.412111e+02	-3.270948e+01
5.443371e+02	-3.276132e+01
5.474812e+02	-3.280836e+01
5.506434e+02	-3.285240e+01
5.538239e+02	-3.290537e+01
5.570228e+02	-3.296246e+01
5.602401e+02	-3.301186e+01
5.634760e+02	-3.306821e+01
5.667306e+02	-3.311126e+01
5.700040e+02	-3.316374e+01
5.732964e+02	-3.321095e+01
5.766077e+02	-3.325861e+01
5.799382e+02	-3.331493e+01
5.832879e+02	-3.336293e+01
5.866569e+02	-3.341509e+01
5.900454e+02	-3.345979e+01
5.934535e+02	-3.351736e+01
5.968813e+02	-3.356370e+01
6.003288e+02	-3.361318e+01
6.037963e+02	-3.366343e+01
6.072838e+02	-3.370964e+01
6.107914e+02	-3.377105e+01
6.143194e+02	-3.382028e+01
6.178676e+02	-3.386681e+01
6.214364e+02	-3.391643e+01
6.250258e+02	-3.396809e+01
6.286359e+02	-3.401154e+01
6.322669e+02	-3.406405e+01
6.359189e+02	-3.411794e+01
6.395919e+02	-3.416392e+01
6.432862e+02	-3.422338e+01
6.470017e+02	-3.425420e+01
6.507388e+02	-3.432401e+01
6.544974e+02	-3.436960e+01
6.582778e+02	-3.440981e+01
6.620800e+02	-3.447145e+01
6.659041e+02	-3.452624e+01
6.697504e+02	-3.456637e+01
6.736188e+02	-3.462556e+01
6.775096e+02	-3.467244e+01
6.814229e+02	-3.471822e+01
6.853587e+02	-3.477479e+01
6.893173e+02	-3.482194e+01
6.932988e+02	-3.486489e+01
6.973033e+02	-3.491541e+01
7.013309e+02	-3.497063e+01
