Frequency(Hz)	Magnitude(dB)
1.000000e+01	-2.136745e+00
1.005776e+01	-2.156055e+00
1.011585e+01	-2.175977e+00
1.017428e+01	-2.195648e+00
1.023305e+01	-2.215604e+00
1.029215e+01	-2.235610e+00
1.035160e+01	-2.255860e+00
1.041139e+01	-2.276225e+00
1.047153e+01	-2.296755e+00
1.053201e+01	-2.317447e+00
1.059284e+01	-2.337959e+00
1.065403e+01	-2.359101e+00
1.071556e+01	-2.379964e+00
1.077746e+01	-2.401107e+00
1.083971e+01	-2.422438e+00
1.090232e+01	-2.443807e+00
1.096529e+01	-2.465316e+00
1.102862e+01	-2.487243e+00
1.109232e+01	-2.509213e+00
1.115639e+01	-2.531001e+00
1.122083e+01	-2.553497e+00
1.128564e+01	-2.575705e+00
1.135083e+01	-2.598000e+00
1.141639e+01	-2.620661e+00
1.148233e+01	-2.643208e+00
1.154865e+01	-2.666086e+00
1.161536e+01	-2.689237e+00
1.168245e+01	-2.712300e+00
1.174992e+01	-2.735694e+00
1.181779e+01	-2.759275e+00
1.188605e+01	-2.782789e+00
1.195470e+01	-2.806518e+00
1.202375e+01	-2.830325e+00
1.209320e+01	-2.854209e+00
1.216305e+01	-2.878874e+00
1.223330e+01	-2.903067e+00
1.230396e+01	-2.927436e+00
1.237503e+01	-2.951757e+00
1.244651e+01	-2.976822e+00
1.251840e+01	-3.001709e+00
1.259070e+01	-3.026450e+00
1.266343e+01	-3.051951e+00
1.273657e+01	-3.077252e+00
1.281014e+01	-3.102629e+00
1.288413e+01	-3.128061e+00
1.295855e+01	-3.153951e+00
1.303339e+01	-3.180055e+00
1.310867e+01	-3.205779e+00
1.318439e+01	-3.232191e+00
1.326054e+01	-3.258459e+00
1.333713e+01	-3.284950e+00
1.341417e+01	-3.311603e+00
1.349165e+01	-3.338228e+00
1.356958e+01	-3.364950e+00
1.364795e+01	-3.392226e+00
1.372678e+01	-3.419781e+00
1.380607e+01	-3.446885e+00
1.388581e+01	-3.474343e+00
1.396602e+01	-3.501810e+00
1.404668e+01	-3.529667e+00
1.412782e+01	-3.557590e+00
1.420942e+01	-3.585648e+00
1.429149e+01	-3.613736e+00
1.437404e+01	-3.642082e+00
1.445706e+01	-3.670596e+00
1.454057e+01	-3.699154e+00
1.462455e+01	-3.727704e+00
1.470902e+01	-3.757079e+00
1.479398e+01	-3.785714e+00
1.487943e+01	-3.815063e+00
1.496537e+01	-3.844606e+00
1.505181e+01	-3.873643e+00
1.513875e+01	-3.903465e+00
1.522619e+01	-3.932966e+00
1.531414e+01	-3.962958e+00
1.540259e+01	-3.993021e+00
1.549156e+01	-4.022949e+00
1.558103e+01	-4.053376e+00
1.567103e+01	-4.084001e+00
1.576155e+01	-4.114297e+00
1.585258e+01	-4.145149e+00
1.594415e+01	-4.176209e+00
1.603624e+01	-4.206758e+00
1.612886e+01	-4.237751e+00
1.622202e+01	-4.269021e+00
1.631572e+01	-4.300786e+00
1.640996e+01	-4.332106e+00
1.650474e+01	-4.363736e+00
1.660008e+01	-4.395587e+00
1.669596e+01	-4.427495e+00
1.679239e+01	-4.459704e+00
1.688938e+01	-4.491741e+00
1.698694e+01	-4.523908e+00
1.708505e+01	-4.556221e+00
1.718373e+01	-4.589194e+00
1.728299e+01	-4.621808e+00
1.738281e+01	-4.654554e+00
1.748322e+01	-4.687512e+00
1.758420e+01	-4.720368e+00
1.768576e+01	-4.754221e+00
1.778792e+01	-4.787440e+00
1.789066e+01	-4.820691e+00
1.799399e+01	-4.854400e+00
1.809793e+01	-4.888113e+00
1.820246e+01	-4.921626e+00
1.830760e+01	-4.955869e+00
1.841334e+01	-4.989899e+00
1.851969e+01	-5.023947e+00
1.862666e+01	-5.058754e+00
1.873425e+01	-5.093230e+00
1.884246e+01	-5.127497e+00
1.895129e+01	-5.162569e+00
1.906075e+01	-5.197165e+00
1.917085e+01	-5.232122e+00
1.928158e+01	-5.267048e+00
1.939295e+01	-5.302401e+00
1.950496e+01	-5.337921e+00
1.961762e+01	-5.372974e+00
1.973093e+01	-5.408803e+00
1.984490e+01	-5.444441e+00
1.995952e+01	-5.480217e+00
2.007480e+01	-5.515933e+00
2.019076e+01	-5.552436e+00
2.030738e+01	-5.588053e+00
2.042467e+01	-5.624519e+00
2.054264e+01	-5.661177e+00
2.066130e+01	-5.697175e+00
2.078064e+01	-5.734161e+00
2.090066e+01	-5.770707e+00
2.102139e+01	-5.807639e+00
2.114280e+01	-5.844792e+00
2.126492e+01	-5.881668e+00
2.138775e+01	-5.919024e+00
2.151128e+01	-5.956265e+00
2.163553e+01	-5.993244e+00
2.176050e+01	-6.030868e+00
2.188619e+01	-6.068788e+00
2.201260e+01	-6.106251e+00
2.213974e+01	-6.144024e+00
2.226762e+01	-6.182188e+00
2.239624e+01	-6.220161e+00
2.252560e+01	-6.258370e+00
2.265571e+01	-6.296703e+00
2.278656e+01	-6.334882e+00
2.291818e+01	-6.372900e+00
2.305055e+01	-6.411596e+00
2.318369e+01	-6.450545e+00
2.331760e+01	-6.489175e+00
2.345228e+01	-6.528351e+00
2.358774e+01	-6.566792e+00
2.372398e+01	-6.606091e+00
2.386101e+01	-6.645047e+00
2.399883e+01	-6.684356e+00
2.413745e+01	-6.723589e+00
2.427686e+01	-6.763361e+00
2.441709e+01	-6.802847e+00
2.455812e+01	-6.842260e+00
2.469997e+01	-6.882205e+00
2.484263e+01	-6.922025e+00
2.498612e+01	-6.961945e+00
2.513044e+01	-7.001986e+00
2.527559e+01	-7.042071e+00
2.542158e+01	-7.081712e+00
2.556842e+01	-7.122396e+00
2.571610e+01	-7.162713e+00
2.586463e+01	-7.203329e+00
2.601403e+01	-7.243645e+00
2.616428e+01	-7.284479e+00
2.631541e+01	-7.325094e+00
2.646740e+01	-7.365939e+00
2.662028e+01	-7.406616e+00
2.677404e+01	-7.447742e+00
2.692868e+01	-7.488488e+00
2.708422e+01	-7.529766e+00
2.724066e+01	-7.570880e+00
2.739800e+01	-7.612247e+00
2.755625e+01	-7.653339e+00
2.771541e+01	-7.695284e+00
2.787550e+01	-7.736887e+00
2.803650e+01	-7.778442e+00
2.819844e+01	-7.820409e+00
2.836131e+01	-7.862184e+00
2.852513e+01	-7.904206e+00
2.868989e+01	-7.946584e+00
2.885560e+01	-7.987953e+00
2.902227e+01	-8.030103e+00
2.918990e+01	-8.072189e+00
2.935850e+01	-8.114363e+00
2.952807e+01	-8.156815e+00
2.969863e+01	-8.199286e+00
2.987016e+01	-8.241757e+00
3.004269e+01	-8.284639e+00
3.021622e+01	-8.327214e+00
3.039075e+01	-8.369503e+00
3.056628e+01	-8.412483e+00
3.074283e+01	-8.455505e+00
3.092040e+01	-8.497717e+00
3.109900e+01	-8.541194e+00
3.127862e+01	-8.583955e+00
3.145929e+01	-8.627930e+00
3.164099e+01	-8.670550e+00
3.182375e+01	-8.713654e+00
3.200756e+01	-8.756474e+00
3.219244e+01	-8.800763e+00
3.237838e+01	-8.843878e+00
3.256540e+01	-8.887610e+00
3.275349e+01	-8.931356e+00
3.294268e+01	-8.975047e+00
3.313295e+01	-9.018484e+00
3.332433e+01	-9.062364e+00
3.351681e+01	-9.106385e+00
3.371040e+01	-9.150301e+00
3.390511e+01	-9.193748e+00
3.410094e+01	-9.237850e+00
3.429791e+01	-9.282167e+00
3.449601e+01	-9.326509e+00
3.469526e+01	-9.370617e+00
3.489566e+01	-9.415080e+00
3.509721e+01	-9.459320e+00
3.529993e+01	-9.503681e+00
3.550382e+01	-9.547853e+00
3.570889e+01	-9.592873e+00
3.591515e+01	-9.637037e+00
3.612259e+01	-9.681930e+00
3.633123e+01	-9.726206e+00
3.654108e+01	-9.771250e+00
3.675214e+01	-9.815753e+00
3.696442e+01	-9.860999e+00
3.717792e+01	-9.906266e+00
3.739266e+01	-9.950512e+00
3.760864e+01	-9.995210e+00
3.782587e+01	-1.004061e+01
3.804435e+01	-1.008564e+01
3.826409e+01	-1.013143e+01
3.848510e+01	-1.017618e+01
3.870739e+01	-1.022158e+01
3.893096e+01	-1.026670e+01
3.915583e+01	-1.031214e+01
3.938199e+01	-1.035743e+01
3.960946e+01	-1.040272e+01
3.983824e+01	-1.044804e+01
4.006834e+01	-1.049320e+01
4.029978e+01	-1.053976e+01
4.053255e+01	-1.058546e+01
4.076666e+01	-1.063059e+01
4.100213e+01	-1.067651e+01
4.123896e+01	-1.072245e+01
4.147715e+01	-1.076759e+01
4.171672e+01	-1.081342e+01
4.195767e+01	-1.086022e+01
4.220002e+01	-1.090525e+01
4.244377e+01	-1.095175e+01
4.268892e+01	-1.099758e+01
4.293549e+01	-1.104335e+01
4.318348e+01	-1.108997e+01
4.343291e+01	-1.113546e+01
4.368377e+01	-1.118216e+01
4.393609e+01	-1.122898e+01
4.418986e+01	-1.127437e+01
4.444510e+01	-1.132084e+01
4.470182e+01	-1.136757e+01
4.496001e+01	-1.141388e+01
4.521970e+01	-1.146027e+01
4.548089e+01	-1.150664e+01
4.574358e+01	-1.155349e+01
4.600779e+01	-1.159993e+01
4.627353e+01	-1.164663e+01
4.654081e+01	-1.169315e+01
4.680963e+01	-1.173989e+01
4.708000e+01	-1.178651e+01
4.735193e+01	-1.183252e+01
4.762543e+01	-1.187957e+01
4.790051e+01	-1.192605e+01
4.817719e+01	-1.197318e+01
4.845545e+01	-1.202083e+01
4.873533e+01	-1.206694e+01
4.901682e+01	-1.211384e+01
4.929994e+01	-1.216128e+01
4.958470e+01	-1.220861e+01
4.987110e+01	-1.225517e+01
5.015915e+01	-1.230256e+01
5.044887e+01	-1.234907e+01
5.074026e+01	-1.239624e+01
5.103333e+01	-1.244346e+01
5.132810e+01	-1.249112e+01
5.162457e+01	-1.253854e+01
5.192275e+01	-1.258596e+01
5.222265e+01	-1.263298e+01
5.252429e+01	-1.267941e+01
5.282767e+01	-1.272682e+01
5.313280e+01	-1.277474e+01
5.343969e+01	-1.282218e+01
5.374836e+01	-1.286954e+01
5.405880e+01	-1.291651e+01
5.437105e+01	-1.296464e+01
5.468509e+01	-1.301223e+01
5.500095e+01	-1.305907e+01
5.531863e+01	-1.310735e+01
5.563815e+01	-1.315493e+01
5.595951e+01	-1.320251e+01
5.628273e+01	-1.325023e+01
5.660782e+01	-1.329741e+01
5.693479e+01	-1.334539e+01
5.726364e+01	-1.339388e+01
5.759439e+01	-1.344051e+01
5.792705e+01	-1.348888e+01
5.826164e+01	-1.353608e+01
5.859815e+01	-1.358438e+01
5.893662e+01	-1.363169e+01
5.927703e+01	-1.367961e+01
5.961941e+01	-1.372752e+01
5.996377e+01	-1.377526e+01
6.031012e+01	-1.382335e+01
6.065847e+01	-1.387124e+01
6.100883e+01	-1.391997e+01
6.136121e+01	-1.396766e+01
6.171563e+01	-1.401620e+01
6.207210e+01	-1.406352e+01
6.243063e+01	-1.411192e+01
6.279122e+01	-1.415894e+01
6.315390e+01	-1.420753e+01
6.351868e+01	-1.425576e+01
6.388556e+01	-1.430402e+01
6.425456e+01	-1.435153e+01
6.462569e+01	-1.440080e+01
6.499897e+01	-1.444938e+01
6.537440e+01	-1.449736e+01
6.575200e+01	-1.454487e+01
6.613178e+01	-1.459437e+01
6.651375e+01	-1.464187e+01
6.689793e+01	-1.469038e+01
6.728433e+01	-1.473857e+01
6.767297e+01	-1.478656e+01
6.806384e+01	-1.483501e+01
6.845698e+01	-1.488420e+01
6.885238e+01	-1.493231e+01
6.925007e+01	-1.497996e+01
6.965005e+01	-1.502909e+01
7.005235e+01	-1.507649e+01
7.045697e+01	-1.512574e+01
7.086393e+01	-1.517454e+01
7.127323e+01	-1.522261e+01
7.168490e+01	-1.527091e+01
7.209895e+01	-1.531977e+01
7.251539e+01	-1.536865e+01
7.293424e+01	-1.541676e+01
7.335551e+01	-1.546642e+01
7.377920e+01	-1.551391e+01
7.420535e+01	-1.556317e+01
7.463396e+01	-1.561180e+01
7.506504e+01	-1.566092e+01
7.549861e+01	-1.570964e+01
7.593469e+01	-1.575707e+01
7.637328e+01	-1.580681e+01
7.681441e+01	-1.585497e+01
7.725809e+01	-1.590405e+01
7.770433e+01	-1.595137e+01
7.815315e+01	-1.600177e+01
7.860456e+01	-1.604920e+01
7.905857e+01	-1.609956e+01
7.951521e+01	-1.614901e+01
7.997449e+01	-1.619608e+01
8.043642e+01	-1.624583e+01
8.090102e+01	-1.629284e+01
8.136830e+01	-1.634292e+01
8.183828e+01	-1.639199e+01
8.231097e+01	-1.644166e+01
8.278640e+01	-1.649015e+01
8.326457e+01	-1.653971e+01
8.374550e+01	-1.658711e+01
8.422921e+01	-1.663752e+01
8.471572e+01	-1.668563e+01
8.520503e+01	-1.673455e+01
8.569717e+01	-1.678242e+01
8.619215e+01	-1.683222e+01
8.669000e+01	-1.688221e+01
8.719071e+01	-1.693071e+01
8.769432e+01	-1.698035e+01
8.820084e+01	-1.702919e+01
8.871029e+01	-1.707911e+01
8.922267e+01	-1.712664e+01
8.973802e+01	-1.717499e+01
9.025634e+01	-1.722423e+01
9.077766e+01	-1.727392e+01
9.130199e+01	-1.732243e+01
9.182935e+01	-1.737295e+01
9.235975e+01	-1.742223e+01
9.289321e+01	-1.746992e+01
9.342976e+01	-1.751895e+01
9.396941e+01	-1.756909e+01
9.451217e+01	-1.761698e+01
9.505807e+01	-1.766748e+01
9.560712e+01	-1.771499e+01
9.615934e+01	-1.776504e+01
9.671476e+01	-1.781469e+01
9.727338e+01	-1.786357e+01
9.783522e+01	-1.791330e+01
9.840032e+01	-1.796243e+01
9.896867e+01	-1.801174e+01
9.954031e+01	-1.806030e+01
1.001153e+02	-1.811055e+01
1.006935e+02	-1.815956e+01
1.012751e+02	-1.820809e+01
1.018601e+02	-1.825783e+01
1.024484e+02	-1.830782e+01
1.030402e+02	-1.835524e+01
1.036353e+02	-1.840467e+01
1.042339e+02	-1.845570e+01
1.048360e+02	-1.850350e+01
1.054415e+02	-1.855409e+01
1.060505e+02	-1.860203e+01
1.066631e+02	-1.865284e+01
1.072791e+02	-1.870151e+01
1.078988e+02	-1.875080e+01
1.085220e+02	-1.880029e+01
1.091488e+02	-1.884998e+01
1.097793e+02	-1.889896e+01
1.104133e+02	-1.894851e+01
1.110511e+02	-1.899852e+01
1.116925e+02	-1.904757e+01
1.123376e+02	-1.909582e+01
1.129865e+02	-1.914725e+01
1.136391e+02	-1.919561e+01
1.142955e+02	-1.924599e+01
1.149556e+02	-1.929335e+01
1.156196e+02	-1.934374e+01
1.162874e+02	-1.939263e+01
1.169591e+02	-1.944290e+01
1.176347e+02	-1.949185e+01
1.183141e+02	-1.954111e+01
1.189975e+02	-1.959109e+01
1.196848e+02	-1.964122e+01
1.203761e+02	-1.968850e+01
1.210714e+02	-1.974140e+01
1.217707e+02	-1.978685e+01
1.224740e+02	-1.983754e+01
1.231814e+02	-1.988902e+01
1.238929e+02	-1.993726e+01
1.246085e+02	-1.998658e+01
1.253283e+02	-2.003694e+01
1.260522e+02	-2.008704e+01
1.267802e+02	-2.013668e+01
1.275125e+02	-2.018396e+01
1.282490e+02	-2.023497e+01
1.289898e+02	-2.028333e+01
1.297348e+02	-2.033506e+01
1.304842e+02	-2.038302e+01
1.312378e+02	-2.043345e+01
1.319959e+02	-2.048283e+01
1.327583e+02	-2.053163e+01
1.335251e+02	-2.058381e+01
1.342963e+02	-2.063161e+01
1.350720e+02	-2.068173e+01
1.358522e+02	-2.073074e+01
1.366368e+02	-2.078019e+01
1.374260e+02	-2.083117e+01
1.382198e+02	-2.088017e+01
1.390182e+02	-2.092899e+01
1.398211e+02	-2.098152e+01
1.406287e+02	-2.102841e+01
1.414410e+02	-2.107836e+01
1.422579e+02	-2.112653e+01
1.430796e+02	-2.117783e+01
1.439060e+02	-2.122640e+01
1.447372e+02	-2.127808e+01
1.455732e+02	-2.132705e+01
1.464141e+02	-2.137581e+01
1.472597e+02	-2.142643e+01
1.481103e+02	-2.147627e+01
1.489658e+02	-2.152642e+01
1.498262e+02	-2.157646e+01
1.506916e+02	-2.162512e+01
1.515620e+02	-2.167442e+01
1.524374e+02	-2.172253e+01
1.533179e+02	-2.177214e+01
1.542034e+02	-2.182367e+01
1.550941e+02	-2.187379e+01
1.559899e+02	-2.192359e+01
1.568909e+02	-2.197443e+01
1.577971e+02	-2.202340e+01
1.587085e+02	-2.206947e+01
1.596252e+02	-2.212129e+01
1.605472e+02	-2.217326e+01
1.614745e+02	-2.222050e+01
1.624072e+02	-2.226847e+01
1.633453e+02	-2.232224e+01
1.642887e+02	-2.237114e+01
1.652377e+02	-2.242023e+01
1.661921e+02	-2.246910e+01
1.671520e+02	-2.251965e+01
1.681175e+02	-2.256882e+01
1.690885e+02	-2.262032e+01
1.700651e+02	-2.267087e+01
1.710474e+02	-2.271731e+01
1.720354e+02	-2.277143e+01
1.730291e+02	-2.281849e+01
1.740285e+02	-2.287027e+01
1.750337e+02	-2.291792e+01
1.760446e+02	-2.296790e+01
1.770615e+02	-2.301759e+01
1.780842e+02	-2.306837e+01
1.791128e+02	-2.311876e+01
1.801473e+02	-2.316868e+01
1.811878e+02	-2.321663e+01
1.822344e+02	-2.326533e+01
1.832870e+02	-2.331688e+01
1.843456e+02	-2.336765e+01
1.854104e+02	-2.341505e+01
1.864813e+02	-2.346511e+01
1.875584e+02	-2.351541e+01
1.886418e+02	-2.356637e+01
1.897313e+02	-2.361515e+01
1.908272e+02	-2.366488e+01
1.919294e+02	-2.371341e+01
1.930380e+02	-2.376435e+01
1.941530e+02	-2.381845e+01
1.952744e+02	-2.386439e+01
1.964023e+02	-2.391382e+01
1.975367e+02	-2.396447e+01
1.986777e+02	-2.401423e+01
1.998252e+02	-2.406675e+01
2.009794e+02	-2.411432e+01
2.021403e+02	-2.416461e+01
2.033078e+02	-2.421485e+01
2.044821e+02	-2.426309e+01
2.056632e+02	-2.431428e+01
2.068511e+02	-2.436234e+01
2.080459e+02	-2.441176e+01
2.092475e+02	-2.446371e+01
2.104561e+02	-2.451374e+01
2.116717e+02	-2.456029e+01
2.128943e+02	-2.461383e+01
2.141240e+02	-2.466409e+01
2.153608e+02	-2.471218e+01
2.166047e+02	-2.476285e+01
2.178558e+02	-2.481066e+01
2.191141e+02	-2.486190e+01
2.203797e+02	-2.491475e+01
2.216526e+02	-2.496372e+01
2.229329e+02	-2.501075e+01
2.242205e+02	-2.506132e+01
2.255156e+02	-2.511253e+01
2.268182e+02	-2.516248e+01
2.281283e+02	-2.521301e+01
2.294459e+02	-2.526123e+01
2.307712e+02	-2.531405e+01
2.321041e+02	-2.535877e+01
2.334447e+02	-2.541334e+01
2.347931e+02	-2.545943e+01
2.361493e+02	-2.551120e+01
2.375133e+02	-2.555954e+01
2.388851e+02	-2.560828e+01
2.402649e+02	-2.566052e+01
2.416527e+02	-2.571314e+01
2.430484e+02	-2.575918e+01
2.444523e+02	-2.580988e+01
2.458642e+02	-2.585900e+01
2.472843e+02	-2.591340e+01
2.487126e+02	-2.595930e+01
2.501492e+02	-2.601075e+01
2.515940e+02	-2.606099e+01
2.530472e+02	-2.610835e+01
2.545088e+02	-2.615636e+01
2.559789e+02	-2.620991e+01
2.574574e+02	-2.626200e+01
2.589444e+02	-2.631203e+01
2.604401e+02	-2.636037e+01
2.619444e+02	-2.641208e+01
2.634574e+02	-2.646210e+01
2.649791e+02	-2.650764e+01
2.665096e+02	-2.656170e+01
2.680489e+02	-2.661292e+01
2.695972e+02	-2.665975e+01
2.711544e+02	-2.671108e+01
2.727205e+02	-2.675883e+01
2.742958e+02	-2.681103e+01
2.758801e+02	-2.686118e+01
2.774736e+02	-2.690848e+01
2.790762e+02	-2.695982e+01
2.806882e+02	-2.700976e+01
2.823094e+02	-2.705869e+01
2.839400e+02	-2.710914e+01
2.855800e+02	-2.716246e+01
2.872295e+02	-2.720887e+01
2.888886e+02	-2.725990e+01
2.905572e+02	-2.731206e+01
2.922354e+02	-2.735970e+01
2.939234e+02	-2.740958e+01
2.956211e+02	-2.745814e+01
2.973286e+02	-2.750765e+01
2.990459e+02	-2.756066e+01
3.007732e+02	-2.761171e+01
3.025104e+02	-2.766458e+01
3.042577e+02	-2.771428e+01
3.060151e+02	-2.775920e+01
3.077826e+02	-2.781194e+01
3.095604e+02	-2.785469e+01
3.113484e+02	-2.791093e+01
3.131467e+02	-2.796189e+01
3.149554e+02	-2.800879e+01
3.167746e+02	-2.805795e+01
3.186043e+02	-2.811021e+01
3.204445e+02	-2.815855e+01
3.222954e+02	-2.821174e+01
3.241570e+02	-2.825738e+01
3.260293e+02	-2.831053e+01
3.279124e+02	-2.836044e+01
3.298064e+02	-2.841124e+01
3.317114e+02	-2.845938e+01
3.336273e+02	-2.851113e+01
3.355544e+02	-2.855555e+01
3.374925e+02	-2.861329e+01
3.394418e+02	-2.865864e+01
3.414024e+02	-2.871451e+01
3.433744e+02	-2.876177e+01
3.453577e+02	-2.880746e+01
3.473525e+02	-2.885883e+01
3.493588e+02	-2.891148e+01
3.513766e+02	-2.896238e+01
3.534062e+02	-2.900863e+01
3.554474e+02	-2.905843e+01
3.575005e+02	-2.911249e+01
3.595654e+02	-2.916012e+01
3.616422e+02	-2.921253e+01
3.637311e+02	-2.926496e+01
3.658320e+02	-2.930872e+01
3.679450e+02	-2.935998e+01
3.700702e+02	-2.941063e+01
3.722077e+02	-2.945810e+01
3.743576e+02	-2.951382e+01
3.765199e+02	-2.955432e+01
3.786946e+02	-2.961023e+01
3.808820e+02	-2.966127e+01
3.830819e+02	-2.970975e+01
3.852946e+02	-2.975916e+01
3.875200e+02	-2.981127e+01
3.897583e+02	-2.986092e+01
3.920096e+02	-2.991105e+01
3.942738e+02	-2.996265e+01
3.965511e+02	-3.001144e+01
3.988416e+02	-3.006458e+01
4.011452e+02	-3.011769e+01
4.034622e+02	-3.016657e+01
4.057926e+02	-3.021615e+01
4.081365e+02	-3.026625e+01
4.104938e+02	-3.031353e+01
4.128648e+02	-3.036322e+01
4.152495e+02	-3.041381e+01
4.176480e+02	-3.046742e+01
4.200603e+02	-3.051305e+01
4.224866e+02	-3.056281e+01
4.249268e+02	-3.061390e+01
4.273812e+02	-3.066710e+01
4.298497e+02	-3.071085e+01
4.323325e+02	-3.075673e+01
4.348297e+02	-3.081851e+01
4.373412e+02	-3.086108e+01
4.398673e+02	-3.091115e+01
4.424079e+02	-3.096071e+01
4.449633e+02	-3.101364e+01
4.475334e+02	-3.105976e+01
4.501183e+02	-3.112027e+01
4.527182e+02	-3.116075e+01
4.553330e+02	-3.120573e+01
4.579630e+02	-3.126046e+01
4.606082e+02	-3.131771e+01
4.632687e+02	-3.136472e+01
4.659445e+02	-3.140852e+01
4.686358e+02	-3.146702e+01
4.713426e+02	-3.151431e+01
4.740650e+02	-3.156331e+01
4.768032e+02	-3.161489e+01
4.795572e+02	-3.166461e+01
4.823271e+02	-3.172446e+01
4.851130e+02	-3.176659e+01
4.879150e+02	-3.181399e+01
4.907332e+02	-3.186341e+01
4.935676e+02	-3.192046e+01
4.964185e+02	-3.196489e+01
4.992858e+02	-3.201858e+01
5.021696e+02	-3.206984e+01
5.050701e+02	-3.212125e+01
5.079874e+02	-3.217335e+01
5.109215e+02	-3.221788e+01
5.138726e+02	-3.226331e+01
5.168407e+02	-3.231777e+01
5.198259e+02	-3.236897e+01
5.228284e+02	-3.241997e+01
5.258482e+02	-3.247148e+01
5.288855e+02	-3.251607e+01
5.319403e+02	-3.256427e+01
5.350128e+02	-3.261790e+01
5.381030e+02	-3.267264e+01
5.412111e+02	-3.272468e+01
5.443371e+02	-3.277253e+01
5.474812e+02	-3.281513e+01
5.506434e+02	-3.286671e+01
5.538239e+02	-3.292575e+01
5.570228e+02	-3.297016e+01
5.602401e+02	-3.301550e+01
5.634760e+02	-3.306922e+01
5.667306e+02	-3.311595e+01
5.700040e+02	-3.316685e+01
5.732964e+02	-3.321759e+01
5.766077e+02	-3.327472e+01
5.799382e+02	-3.332078e+01
5.832879e+02	-3.337103e+01
5.866569e+02	-3.341694e+01
5.900454e+02	-3.347330e+01
5.934535e+02	-3.352498e+01
5.968813e+02	-3.357723e+01
6.003288e+02	-3.361621e+01
6.037963e+02	-3.367719e+01
6.072838e+02	-3.372627e+01
6.107914e+02	-3.378083e+01
6.143194e+02	-3.382451e+01
6.178676e+02	-3.387488e+01
6.214364e+02	-3.392368e+01
6.250258e+02	-3.398459e+01
6.286359e+02	-3.401568e+01
6.322669e+02	-3.408229e+01
6.359189e+02	-3.412855e+01
6.395919e+02	-3.417395e+01
6.432862e+02	-3.422902e+01
6.470017e+02	-3.428396e+01
6.507388e+02	-3.432881e+01
6.544974e+02	-3.437883e+01
6.582778e+02	-3.443698e+01
6.620800e+02	-3.448590e+01
6.659041e+02	-3.452607e+01
6.697504e+02	-3.457565e+01
6.736188e+02	-3.462834e+01
6.775096e+02	-3.468142e+01
6.814229e+02	-3.472465e+01
6.853587e+02	-3.478232e+01
6.893173e+02	-3.482643e+01
6.932988e+02	-3.488097e+01
6.973033e+02	-3.493198e+01
7.013309e+02	-3.497866e+01
