Frequency(Hz)	Magnitude(dB)
1.000000e+01	-2.239939e+00
1.005776e+01	-2.259882e+00
1.011585e+01	-2.280446e+00
1.017428e+01	-2.300666e+00
1.023305e+01	-2.321387e+00
1.029215e+01	-2.342211e+00
1.035160e+01	-2.363047e+00
1.041139e+01	-2.384359e+00
1.047153e+01	-2.405427e+00
1.053201e+01	-2.426690e+00
1.059284e+01	-2.448241e+00
1.065403e+01	-2.470006e+00
1.071556e+01	-2.491762e+00
1.077746e+01	-2.513450e+00
1.083971e+01	-2.535713e+00
1.090232e+01	-2.557782e+00
1.096529e+01	-2.580097e+00
1.102862e+01	-2.602721e+00
1.109232e+01	-2.625260e+00
1.115639e+01	-2.647911e+00
1.122083e+01	-2.671057e+00
1.128564e+01	-2.693766e+00
1.135083e+01	-2.717159e+00
1.141639e+01	-2.740615e+00
1.148233e+01	-2.763792e+00
1.154865e+01	-2.787611e+00
1.161536e+01	-2.811400e+00
1.168245e+01	-2.835194e+00
1.174992e+01	-2.859238e+00
1.181779e+01	-2.883722e+00
1.188605e+01	-2.907688e+00
1.195470e+01	-2.932190e+00
1.202375e+01	-2.956990e+00
1.209320e+01	-2.981872e+00
1.216305e+01	-3.006632e+00
1.223330e+01	-3.031739e+00
1.230396e+01	-3.057199e+00
1.237503e+01	-3.082125e+00
1.244651e+01	-3.107794e+00
1.251840e+01	-3.133400e+00
1.259070e+01	-3.159144e+00
1.266343e+01	-3.185242e+00
1.273657e+01	-3.211178e+00
1.281014e+01	-3.237475e+00
1.288413e+01	-3.263688e+00
1.295855e+01	-3.290291e+00
1.303339e+01	-3.316873e+00
1.310867e+01	-3.343869e+00
1.318439e+01	-3.370403e+00
1.326054e+01	-3.397652e+00
1.333713e+01	-3.425034e+00
1.341417e+01	-3.452361e+00
1.349165e+01	-3.479752e+00
1.356958e+01	-3.507499e+00
1.364795e+01	-3.535285e+00
1.372678e+01	-3.563024e+00
1.380607e+01	-3.591310e+00
1.388581e+01	-3.619348e+00
1.396602e+01	-3.647618e+00
1.404668e+01	-3.676540e+00
1.412782e+01	-3.704892e+00
1.420942e+01	-3.733887e+00
1.429149e+01	-3.762567e+00
1.437404e+01	-3.791720e+00
1.445706e+01	-3.821140e+00
1.454057e+01	-3.850265e+00
1.462455e+01	-3.880104e+00
1.470902e+01	-3.909551e+00
1.479398e+01	-3.938798e+00
1.487943e+01	-3.968903e+00
1.496537e+01	-3.999026e+00
1.505181e+01	-4.029114e+00
1.513875e+01	-4.059649e+00
1.522619e+01	-4.090069e+00
1.531414e+01	-4.120526e+00
1.540259e+01	-4.151567e+00
1.549156e+01	-4.182095e+00
1.558103e+01	-4.213138e+00
1.567103e+01	-4.244495e+00
1.576155e+01	-4.275436e+00
1.585258e+01	-4.307203e+00
1.594415e+01	-4.338725e+00
1.603624e+01	-4.370117e+00
1.612886e+01	-4.402024e+00
1.622202e+01	-4.433711e+00
1.631572e+01	-4.465924e+00
1.640996e+01	-4.498151e+00
1.650474e+01	-4.530643e+00
1.660008e+01	-4.563057e+00
1.669596e+01	-4.595621e+00
1.679239e+01	-4.628449e+00
1.688938e+01	-4.661231e+00
1.698694e+01	-4.694174e+00
1.708505e+01	-4.727466e+00
1.718373e+01	-4.760653e+00
1.728299e+01	-4.793625e+00
1.738281e+01	-4.827412e+00
1.748322e+01	-4.860816e+00
1.758420e+01	-4.894925e+00
1.768576e+01	-4.928863e+00
1.778792e+01	-4.962605e+00
1.789066e+01	-4.996852e+00
1.799399e+01	-5.031142e+00
1.809793e+01	-5.065474e+00
1.820246e+01	-5.100035e+00
1.830760e+01	-5.134708e+00
1.841334e+01	-5.169166e+00
1.851969e+01	-5.204187e+00
1.862666e+01	-5.239351e+00
1.873425e+01	-5.274285e+00
1.884246e+01	-5.309469e+00
1.895129e+01	-5.345040e+00
1.906075e+01	-5.380483e+00
1.917085e+01	-5.416120e+00
1.928158e+01	-5.451826e+00
1.939295e+01	-5.487579e+00
1.950496e+01	-5.523390e+00
1.961762e+01	-5.559364e+00
1.973093e+01	-5.595683e+00
1.984490e+01	-5.632175e+00
1.995952e+01	-5.668352e+00
2.007480e+01	-5.704868e+00
2.019076e+01	-5.741499e+00
2.030738e+01	-5.778198e+00
2.042467e+01	-5.815239e+00
2.054264e+01	-5.852306e+00
2.066130e+01	-5.888886e+00
2.078064e+01	-5.926515e+00
2.090066e+01	-5.963708e+00
2.102139e+01	-6.001105e+00
2.114280e+01	-6.038769e+00
2.126492e+01	-6.076468e+00
2.138775e+01	-6.113722e+00
2.151128e+01	-6.151890e+00
2.163553e+01	-6.189708e+00
2.176050e+01	-6.227504e+00
2.188619e+01	-6.265783e+00
2.201260e+01	-6.304356e+00
2.213974e+01	-6.342324e+00
2.226762e+01	-6.380958e+00
2.239624e+01	-6.419834e+00
2.252560e+01	-6.458335e+00
2.265571e+01	-6.496876e+00
2.278656e+01	-6.535856e+00
2.291818e+01	-6.574775e+00
2.305055e+01	-6.613753e+00
2.318369e+01	-6.653099e+00
2.331760e+01	-6.692326e+00
2.345228e+01	-6.731609e+00
2.358774e+01	-6.771181e+00
2.372398e+01	-6.810377e+00
2.386101e+01	-6.850582e+00
2.399883e+01	-6.890157e+00
2.413745e+01	-6.929947e+00
2.427686e+01	-6.970138e+00
2.441709e+01	-7.009802e+00
2.455812e+01	-7.050121e+00
2.469997e+01	-7.090071e+00
2.484263e+01	-7.130417e+00
2.498612e+01	-7.171012e+00
2.513044e+01	-7.211094e+00
2.527559e+01	-7.251988e+00
2.542158e+01	-7.292696e+00
2.556842e+01	-7.333217e+00
2.571610e+01	-7.374108e+00
2.586463e+01	-7.415163e+00
2.601403e+01	-7.456360e+00
2.616428e+01	-7.497071e+00
2.631541e+01	-7.538005e+00
2.646740e+01	-7.579496e+00
2.662028e+01	-7.620973e+00
2.677404e+01	-7.662271e+00
2.692868e+01	-7.703698e+00
2.708422e+01	-7.745353e+00
2.724066e+01	-7.786955e+00
2.739800e+01	-7.828415e+00
2.755625e+01	-7.870275e+00
2.771541e+01	-7.912413e+00
2.787550e+01	-7.954893e+00
2.803650e+01	-7.996461e+00
2.819844e+01	-8.038403e+00
2.836131e+01	-8.080863e+00
2.852513e+01	-8.122841e+00
2.868989e+01	-8.165713e+00
2.885560e+01	-8.207842e+00
2.902227e+01	-8.250413e+00
2.918990e+01	-8.292831e+00
2.935850e+01	-8.336143e+00
2.952807e+01	-8.377825e+00
2.969863e+01	-8.421017e+00
2.987016e+01	-8.463982e+00
3.004269e+01	-8.506687e+00
3.021622e+01	-8.549465e+00
3.039075e+01	-8.593292e+00
3.056628e+01	-8.636229e+00
3.074283e+01	-8.679340e+00
3.092040e+01	-8.722985e+00
3.109900e+01	-8.765902e+00
3.127862e+01	-8.809310e+00
3.145929e+01	-8.852821e+00
3.164099e+01	-8.896386e+00
3.182375e+01	-8.940063e+00
3.200756e+01	-8.983777e+00
3.219244e+01	-9.027756e+00
3.237838e+01	-9.071029e+00
3.256540e+01	-9.115570e+00
3.275349e+01	-9.159044e+00
3.294268e+01	-9.202856e+00
3.313295e+01	-9.247278e+00
3.332433e+01	-9.291273e+00
3.351681e+01	-9.335097e+00
3.371040e+01	-9.379895e+00
3.390511e+01	-9.423722e+00
3.410094e+01	-9.467728e+00
3.429791e+01	-9.512457e+00
3.449601e+01	-9.557195e+00
3.469526e+01	-9.601345e+00
3.489566e+01	-9.646454e+00
3.509721e+01	-9.691086e+00
3.529993e+01	-9.735386e+00
3.550382e+01	-9.780108e+00
3.570889e+01	-9.824690e+00
3.591515e+01	-9.869936e+00
3.612259e+01	-9.914564e+00
3.633123e+01	-9.959532e+00
3.654108e+01	-1.000466e+01
3.675214e+01	-1.004968e+01
3.696442e+01	-1.009453e+01
3.717792e+01	-1.014021e+01
3.739266e+01	-1.018549e+01
3.760864e+01	-1.023110e+01
3.782587e+01	-1.027564e+01
3.804435e+01	-1.032105e+01
3.826409e+01	-1.036710e+01
3.848510e+01	-1.041205e+01
3.870739e+01	-1.045761e+01
3.893096e+01	-1.050309e+01
3.915583e+01	-1.054822e+01
3.938199e+01	-1.059466e+01
3.960946e+01	-1.063943e+01
3.983824e+01	-1.068588e+01
4.006834e+01	-1.073169e+01
4.029978e+01	-1.077732e+01
4.053255e+01	-1.082336e+01
4.076666e+01	-1.086923e+01
4.100213e+01	-1.091488e+01
4.123896e+01	-1.096092e+01
4.147715e+01	-1.100702e+01
4.171672e+01	-1.105315e+01
4.195767e+01	-1.109886e+01
4.220002e+01	-1.114570e+01
4.244377e+01	-1.119193e+01
4.268892e+01	-1.123813e+01
4.293549e+01	-1.128380e+01
4.318348e+01	-1.133067e+01
4.343291e+01	-1.137667e+01
4.368377e+01	-1.142324e+01
4.393609e+01	-1.146954e+01
4.418986e+01	-1.151607e+01
4.444510e+01	-1.156252e+01
4.470182e+01	-1.160928e+01
4.496001e+01	-1.165520e+01
4.521970e+01	-1.170237e+01
4.548089e+01	-1.174869e+01
4.574358e+01	-1.179594e+01
4.600779e+01	-1.184273e+01
4.627353e+01	-1.188909e+01
4.654081e+01	-1.193631e+01
4.680963e+01	-1.198298e+01
4.708000e+01	-1.202981e+01
4.735193e+01	-1.207711e+01
4.762543e+01	-1.212360e+01
4.790051e+01	-1.217039e+01
4.817719e+01	-1.221835e+01
4.845545e+01	-1.226458e+01
4.873533e+01	-1.231152e+01
4.901682e+01	-1.235843e+01
4.929994e+01	-1.240661e+01
4.958470e+01	-1.245333e+01
4.987110e+01	-1.250010e+01
5.015915e+01	-1.254746e+01
5.044887e+01	-1.259499e+01
5.074026e+01	-1.264236e+01
5.103333e+01	-1.268979e+01
5.132810e+01	-1.273643e+01
5.162457e+01	-1.278469e+01
5.192275e+01	-1.283202e+01
5.222265e+01	-1.287934e+01
5.252429e+01	-1.292618e+01
5.282767e+01	-1.297340e+01
5.313280e+01	-1.302095e+01
5.343969e+01	-1.306888e+01
5.374836e+01	-1.311680e+01
5.405880e+01	-1.316432e+01
5.437105e+01	-1.321181e+01
5.468509e+01	-1.325991e+01
5.500095e+01	-1.330746e+01
5.531863e+01	-1.335495e+01
5.563815e+01	-1.340250e+01
5.595951e+01	-1.345035e+01
5.628273e+01	-1.349811e+01
5.660782e+01	-1.354581e+01
5.693479e+01	-1.359352e+01
5.726364e+01	-1.364189e+01
5.759439e+01	-1.369039e+01
5.792705e+01	-1.373789e+01
5.826164e+01	-1.378555e+01
5.859815e+01	-1.383308e+01
5.893662e+01	-1.388128e+01
5.927703e+01	-1.392927e+01
5.961941e+01	-1.397718e+01
5.996377e+01	-1.402530e+01
6.031012e+01	-1.407428e+01
6.065847e+01	-1.412072e+01
6.100883e+01	-1.416904e+01
6.136121e+01	-1.421629e+01
6.171563e+01	-1.426560e+01
6.207210e+01	-1.431348e+01
6.243063e+01	-1.436195e+01
6.279122e+01	-1.441000e+01
6.315390e+01	-1.445893e+01
6.351868e+01	-1.450743e+01
6.388556e+01	-1.455509e+01
6.425456e+01	-1.460359e+01
6.462569e+01	-1.465161e+01
6.499897e+01	-1.469883e+01
6.537440e+01	-1.474896e+01
6.575200e+01	-1.479684e+01
6.613178e+01	-1.484474e+01
6.651375e+01	-1.489290e+01
6.689793e+01	-1.494150e+01
6.728433e+01	-1.499043e+01
6.767297e+01	-1.503872e+01
6.806384e+01	-1.508797e+01
6.845698e+01	-1.513615e+01
6.885238e+01	-1.518473e+01
6.925007e+01	-1.523227e+01
6.965005e+01	-1.528174e+01
7.005235e+01	-1.532981e+01
7.045697e+01	-1.537950e+01
7.086393e+01	-1.542632e+01
7.127323e+01	-1.547491e+01
7.168490e+01	-1.552429e+01
7.209895e+01	-1.557216e+01
7.251539e+01	-1.562148e+01
7.293424e+01	-1.567107e+01
7.335551e+01	-1.571895e+01
7.377920e+01	-1.576743e+01
7.420535e+01	-1.581650e+01
7.463396e+01	-1.586444e+01
7.506504e+01	-1.591392e+01
7.549861e+01	-1.596177e+01
7.593469e+01	-1.601096e+01
7.637328e+01	-1.605920e+01
7.681441e+01	-1.610850e+01
7.725809e+01	-1.615746e+01
7.770433e+01	-1.620698e+01
7.815315e+01	-1.625551e+01
7.860456e+01	-1.630424e+01
7.905857e+01	-1.635303e+01
7.951521e+01	-1.640178e+01
7.997449e+01	-1.645179e+01
8.043642e+01	-1.649917e+01
8.090102e+01	-1.654852e+01
8.136830e+01	-1.659704e+01
8.183828e+01	-1.664731e+01
8.231097e+01	-1.669560e+01
8.278640e+01	-1.674389e+01
8.326457e+01	-1.679349e+01
8.374550e+01	-1.684309e+01
8.422921e+01	-1.689118e+01
8.471572e+01	-1.694088e+01
8.520503e+01	-1.698950e+01
8.569717e+01	-1.703822e+01
8.619215e+01	-1.708893e+01
8.669000e+01	-1.713707e+01
8.719071e+01	-1.718446e+01
8.769432e+01	-1.723585e+01
8.820084e+01	-1.728272e+01
8.871029e+01	-1.733282e+01
8.922267e+01	-1.738135e+01
8.973802e+01	-1.743117e+01
9.025634e+01	-1.748060e+01
9.077766e+01	-1.753038e+01
9.130199e+01	-1.757905e+01
9.182935e+01	-1.762844e+01
9.235975e+01	-1.767756e+01
9.289321e+01	-1.772682e+01
9.342976e+01	-1.777619e+01
9.396941e+01	-1.782370e+01
9.451217e+01	-1.787389e+01
9.505807e+01	-1.792328e+01
9.560712e+01	-1.797293e+01
9.615934e+01	-1.802109e+01
9.671476e+01	-1.807093e+01
9.727338e+01	-1.812003e+01
9.783522e+01	-1.816924e+01
9.840032e+01	-1.821947e+01
9.896867e+01	-1.826667e+01
9.954031e+01	-1.831743e+01
1.001153e+02	-1.836598e+01
1.006935e+02	-1.841610e+01
1.012751e+02	-1.846612e+01
1.018601e+02	-1.851460e+01
1.024484e+02	-1.856485e+01
1.030402e+02	-1.861320e+01
1.036353e+02	-1.866232e+01
1.042339e+02	-1.871214e+01
1.048360e+02	-1.876039e+01
1.054415e+02	-1.881052e+01
1.060505e+02	-1.885923e+01
1.066631e+02	-1.890866e+01
1.072791e+02	-1.895824e+01
1.078988e+02	-1.900772e+01
1.085220e+02	-1.905703e+01
1.091488e+02	-1.910692e+01
1.097793e+02	-1.915474e+01
1.104133e+02	-1.920399e+01
1.110511e+02	-1.925499e+01
1.116925e+02	-1.930437e+01
1.123376e+02	-1.935393e+01
1.129865e+02	-1.940290e+01
1.136391e+02	-1.945321e+01
1.142955e+02	-1.950030e+01
1.149556e+02	-1.955217e+01
1.156196e+02	-1.960214e+01
1.162874e+02	-1.965162e+01
1.169591e+02	-1.970125e+01
1.176347e+02	-1.975020e+01
1.183141e+02	-1.979916e+01
1.189975e+02	-1.984596e+01
1.196848e+02	-1.989977e+01
1.203761e+02	-1.994682e+01
1.210714e+02	-1.999779e+01
1.217707e+02	-2.004540e+01
1.224740e+02	-2.009623e+01
1.231814e+02	-2.014522e+01
1.238929e+02	-2.019723e+01
1.246085e+02	-2.024580e+01
1.253283e+02	-2.029411e+01
1.260522e+02	-2.034472e+01
1.267802e+02	-2.039355e+01
1.275125e+02	-2.044231e+01
1.282490e+02	-2.049265e+01
1.289898e+02	-2.054227e+01
1.297348e+02	-2.059125e+01
1.304842e+02	-2.064169e+01
1.312378e+02	-2.069124e+01
1.319959e+02	-2.074068e+01
1.327583e+02	-2.079114e+01
1.335251e+02	-2.083928e+01
1.342963e+02	-2.089022e+01
1.350720e+02	-2.093902e+01
1.358522e+02	-2.098974e+01
1.366368e+02	-2.103912e+01
1.374260e+02	-2.108861e+01
1.382198e+02	-2.113647e+01
1.390182e+02	-2.118805e+01
1.398211e+02	-2.123835e+01
1.406287e+02	-2.128675e+01
1.414410e+02	-2.133726e+01
1.422579e+02	-2.138579e+01
1.430796e+02	-2.143539e+01
1.439060e+02	-2.148681e+01
1.447372e+02	-2.153434e+01
1.455732e+02	-2.158570e+01
1.464141e+02	-2.163510e+01
1.472597e+02	-2.168435e+01
1.481103e+02	-2.173267e+01
1.489658e+02	-2.178527e+01
1.498262e+02	-2.183351e+01
1.506916e+02	-2.188354e+01
1.515620e+02	-2.193302e+01
1.524374e+02	-2.198281e+01
1.533179e+02	-2.203382e+01
1.542034e+02	-2.208158e+01
1.550941e+02	-2.213229e+01
1.559899e+02	-2.218142e+01
1.568909e+02	-2.223103e+01
1.577971e+02	-2.228319e+01
1.587085e+02	-2.233033e+01
1.596252e+02	-2.238265e+01
1.605472e+02	-2.243087e+01
1.614745e+02	-2.248192e+01
1.624072e+02	-2.253197e+01
1.633453e+02	-2.258095e+01
1.642887e+02	-2.262949e+01
1.652377e+02	-2.267900e+01
1.661921e+02	-2.272997e+01
1.671520e+02	-2.278088e+01
1.681175e+02	-2.282919e+01
1.690885e+02	-2.287881e+01
1.700651e+02	-2.292808e+01
1.710474e+02	-2.297847e+01
1.720354e+02	-2.302927e+01
1.730291e+02	-2.307537e+01
1.740285e+02	-2.312742e+01
1.750337e+02	-2.317709e+01
1.760446e+02	-2.322757e+01
1.770615e+02	-2.327672e+01
1.780842e+02	-2.332559e+01
1.791128e+02	-2.337833e+01
1.801473e+02	-2.342504e+01
1.811878e+02	-2.347570e+01
1.822344e+02	-2.352790e+01
1.832870e+02	-2.357698e+01
1.843456e+02	-2.362842e+01
1.854104e+02	-2.367481e+01
1.864813e+02	-2.372530e+01
1.875584e+02	-2.377443e+01
1.886418e+02	-2.382620e+01
1.897313e+02	-2.387587e+01
1.908272e+02	-2.392524e+01
1.919294e+02	-2.397379e+01
1.930380e+02	-2.402359e+01
1.941530e+02	-2.407603e+01
1.952744e+02	-2.412721e+01
1.964023e+02	-2.417567e+01
1.975367e+02	-2.422206e+01
1.986777e+02	-2.427367e+01
1.998252e+02	-2.432313e+01
2.009794e+02	-2.437369e+01
2.021403e+02	-2.442318e+01
2.033078e+02	-2.447283e+01
2.044821e+02	-2.452141e+01
2.056632e+02	-2.457456e+01
2.068511e+02	-2.462440e+01
2.080459e+02	-2.467034e+01
2.092475e+02	-2.472168e+01
2.104561e+02	-2.477232e+01
2.116717e+02	-2.482543e+01
2.128943e+02	-2.487422e+01
2.141240e+02	-2.492332e+01
2.153608e+02	-2.497290e+01
2.166047e+02	-2.502034e+01
2.178558e+02	-2.507232e+01
2.191141e+02	-2.512144e+01
2.203797e+02	-2.517095e+01
2.216526e+02	-2.522245e+01
2.229329e+02	-2.527211e+01
2.242205e+02	-2.532295e+01
2.255156e+02	-2.537232e+01
2.268182e+02	-2.542153e+01
2.281283e+02	-2.547119e+01
2.294459e+02	-2.552273e+01
2.307712e+02	-2.556944e+01
2.321041e+02	-2.562276e+01
2.334447e+02	-2.567075e+01
2.347931e+02	-2.571965e+01
2.361493e+02	-2.577113e+01
2.375133e+02	-2.582125e+01
2.388851e+02	-2.587232e+01
2.402649e+02	-2.591912e+01
2.416527e+02	-2.597249e+01
2.430484e+02	-2.602056e+01
2.444523e+02	-2.607128e+01
2.458642e+02	-2.612059e+01
2.472843e+02	-2.617115e+01
2.487126e+02	-2.622255e+01
2.501492e+02	-2.627146e+01
2.515940e+02	-2.632114e+01
2.530472e+02	-2.637038e+01
2.545088e+02	-2.642116e+01
2.559789e+02	-2.646705e+01
2.574574e+02	-2.652008e+01
2.589444e+02	-2.656983e+01
2.604401e+02	-2.661986e+01
2.619444e+02	-2.666576e+01
2.634574e+02	-2.672080e+01
2.649791e+02	-2.677076e+01
2.665096e+02	-2.681989e+01
2.680489e+02	-2.687197e+01
2.695972e+02	-2.692101e+01
2.711544e+02	-2.697170e+01
2.727205e+02	-2.702147e+01
2.742958e+02	-2.707041e+01
2.758801e+02	-2.712109e+01
2.774736e+02	-2.716672e+01
2.790762e+02	-2.721626e+01
2.806882e+02	-2.726824e+01
2.823094e+02	-2.732280e+01
2.839400e+02	-2.737161e+01
2.855800e+02	-2.742262e+01
2.872295e+02	-2.746958e+01
2.888886e+02	-2.752052e+01
2.905572e+02	-2.757107e+01
2.922354e+02	-2.762142e+01
2.939234e+02	-2.767019e+01
2.956211e+02	-2.772227e+01
2.973286e+02	-2.776868e+01
2.990459e+02	-2.781684e+01
3.007732e+02	-2.786736e+01
3.025104e+02	-2.792658e+01
3.042577e+02	-2.796796e+01
3.060151e+02	-2.801913e+01
3.077826e+02	-2.807102e+01
3.095604e+02	-2.811589e+01
3.113484e+02	-2.817062e+01
3.131467e+02	-2.821823e+01
3.149554e+02	-2.826665e+01
3.167746e+02	-2.832085e+01
3.186043e+02	-2.836948e+01
3.204445e+02	-2.842201e+01
3.222954e+02	-2.847363e+01
3.241570e+02	-2.852188e+01
3.260293e+02	-2.856809e+01
3.279124e+02	-2.861956e+01
3.298064e+02	-2.866866e+01
3.317114e+02	-2.872233e+01
3.336273e+02	-2.876730e+01
3.355544e+02	-2.881918e+01
3.374925e+02	-2.887283e+01
3.394418e+02	-2.891882e+01
3.414024e+02	-2.897084e+01
3.433744e+02	-2.902031e+01
3.453577e+02	-2.907513e+01
3.473525e+02	-2.912079e+01
3.493588e+02	-2.917202e+01
3.513766e+02	-2.921721e+01
3.534062e+02	-2.927264e+01
3.554474e+02	-2.932072e+01
3.575005e+02	-2.936926e+01
3.595654e+02	-2.942049e+01
3.616422e+02	-2.947577e+01
3.637311e+02	-2.952718e+01
3.658320e+02	-2.957001e+01
3.679450e+02	-2.961772e+01
3.700702e+02	-2.966940e+01
3.722077e+02	-2.972647e+01
3.743576e+02	-2.977141e+01
3.765199e+02	-2.982112e+01
3.786946e+02	-2.987131e+01
3.808820e+02	-2.992170e+01
3.830819e+02	-2.997055e+01
3.852946e+02	-3.002498e+01
3.875200e+02	-3.007532e+01
3.897583e+02	-3.012516e+01
3.920096e+02	-3.017707e+01
3.942738e+02	-3.022198e+01
3.965511e+02	-3.027290e+01
3.988416e+02	-3.032190e+01
4.011452e+02	-3.037726e+01
4.034622e+02	-3.042577e+01
4.057926e+02	-3.047372e+01
4.081365e+02	-3.051830e+01
4.104938e+02	-3.057221e+01
4.128648e+02	-3.061786e+01
4.152495e+02	-3.067218e+01
4.176480e+02	-3.071832e+01
4.200603e+02	-3.077570e+01
4.224866e+02	-3.082541e+01
4.249268e+02	-3.088011e+01
4.273812e+02	-3.092187e+01
4.298497e+02	-3.097736e+01
4.323325e+02	-3.102752e+01
4.348297e+02	-3.107486e+01
4.373412e+02	-3.112843e+01
4.398673e+02	-3.118121e+01
4.424079e+02	-3.122419e+01
4.449633e+02	-3.127001e+01
4.475334e+02	-3.132405e+01
4.501183e+02	-3.136849e+01
4.527182e+02	-3.142750e+01
4.553330e+02	-3.148029e+01
4.579630e+02	-3.152969e+01
4.606082e+02	-3.157924e+01
4.632687e+02	-3.162927e+01
4.659445e+02	-3.167671e+01
4.686358e+02	-3.172320e+01
4.713426e+02	-3.177333e+01
4.740650e+02	-3.182638e+01
4.768032e+02	-3.187689e+01
4.795572e+02	-3.192300e+01
4.823271e+02	-3.198177e+01
4.851130e+02	-3.202545e+01
4.879150e+02	-3.207894e+01
4.907332e+02	-3.212971e+01
4.935676e+02	-3.217295e+01
4.964185e+02	-3.222945e+01
4.992858e+02	-3.227976e+01
5.021696e+02	-3.233273e+01
5.050701e+02	-3.238348e+01
5.079874e+02	-3.243115e+01
5.109215e+02	-3.247886e+01
5.138726e+02	-3.253251e+01
5.168407e+02	-3.257824e+01
5.198259e+02	-3.262630e+01
5.228284e+02	-3.267939e+01
5.258482e+02	-3.273479e+01
5.288855e+02	-3.277806e+01
5.319403e+02	-3.283222e+01
5.350128e+02	-3.287726e+01
5.381030e+02	-3.293553e+01
5.412111e+02	-3.298447e+01
5.443371e+02	-3.302733e+01
5.474812e+02	-3.309232e+01
5.506434e+02	-3.313319e+01
5.538239e+02	-3.318397e+01
5.570228e+02	-3.323079e+01
5.602401e+02	-3.328313e+01
5.634760e+02	-3.333372e+01
5.667306e+02	-3.337720e+01
5.700040e+02	-3.343291e+01
5.732964e+02	-3.349217e+01
5.766077e+02	-3.353546e+01
5.799382e+02	-3.358146e+01
5.832879e+02	-3.363283e+01
5.866569e+02	-3.368215e+01
5.900454e+02	-3.373987e+01
5.934535e+02	-3.378381e+01
5.968813e+02	-3.384131e+01
6.003288e+02	-3.389190e+01
6.037963e+02	-3.392827e+01
6.072838e+02	-3.399091e+01
6.107914e+02	-3.403736e+01
6.143194e+02	-3.408032e+01
6.178676e+02	-3.413270e+01
6.214364e+02	-3.418578e+01
6.250258e+02	-3.423835e+01
6.286359e+02	-3.428511e+01
6.322669e+02	-3.434639e+01
6.359189e+02	-3.438760e+01
6.395919e+02	-3.444999e+01
6.432862e+02	-3.448792e+01
6.470017e+02	-3.454064e+01
6.507388e+02	-3.459403e+01
6.544974e+02	-3.464117e+01
6.582778e+02	-3.469127e+01
6.620800e+02	-3.473629e+01
6.659041e+02	-3.479430e+01
6.697504e+02	-3.484437e+01
6.736188e+02	-3.488722e+01
6.775096e+02	-3.493289e+01
6.814229e+02	-3.499945e+01
6.853587e+02	-3.504596e+01
6.893173e+02	-3.508677e+01
6.932988e+02	-3.514935e+01
6.973033e+02	-3.519798e+01
7.013309e+02	-3.524316e+01
