Frequency(Hz)	Magnitude(dB)
1.000000e+01	-2.013305e+00
1.005776e+01	-2.031946e+00
1.011585e+01	-2.050701e+00
1.017428e+01	-2.069561e+00
1.023305e+01	-2.088575e+00
1.029215e+01	-2.107759e+00
1.035160e+01	-2.127162e+00
1.041139e+01	-2.146579e+00
1.047153e+01	-2.166263e+00
1.053201e+01	-2.185756e+00
1.059284e+01	-2.205764e+00
1.065403e+01	-2.225793e+00
1.071556e+01	-2.245671e+00
1.077746e+01	-2.265859e+00
1.083971e+01	-2.286442e+00
1.090232e+01	-2.306889e+00
1.096529e+01	-2.327650e+00
1.102862e+01	-2.348620e+00
1.109232e+01	-2.369621e+00
1.115639e+01	-2.390460e+00
1.122083e+01	-2.412085e+00
1.128564e+01	-2.433282e+00
1.135083e+01	-2.454901e+00
1.141639e+01	-2.476259e+00
1.148233e+01	-2.498214e+00
1.154865e+01	-2.520221e+00
1.161536e+01	-2.542298e+00
1.168245e+01	-2.564318e+00
1.174992e+01	-2.587091e+00
1.181779e+01	-2.609404e+00
1.188605e+01	-2.632376e+00
1.195470e+01	-2.654946e+00
1.202375e+01	-2.677943e+00
1.209320e+01	-2.701020e+00
1.216305e+01	-2.724119e+00
1.223330e+01	-2.747582e+00
1.230396e+01	-2.771053e+00
1.237503e+01	-2.794797e+00
1.244651e+01	-2.818523e+00
1.251840e+01	-2.842610e+00
1.259070e+01	-2.866630e+00
1.266343e+01	-2.890929e+00
1.273657e+01	-2.915252e+00
1.281014e+01	-2.939932e+00
1.288413e+01	-2.964315e+00
1.295855e+01	-2.989178e+00
1.303339e+01	-3.014086e+00
1.310867e+01	-3.039440e+00
1.318439e+01	-3.064760e+00
1.326054e+01	-3.090232e+00
1.333713e+01	-3.115320e+00
1.341417e+01	-3.141147e+00
1.349165e+01	-3.167274e+00
1.356958e+01	-3.192826e+00
1.364795e+01	-3.219176e+00
1.372678e+01	-3.245474e+00
1.380607e+01	-3.271794e+00
1.388581e+01	-3.298406e+00
1.396602e+01	-3.324960e+00
1.404668e+01	-3.352058e+00
1.412782e+01	-3.378803e+00
1.420942e+01	-3.405962e+00
1.429149e+01	-3.433199e+00
1.437404e+01	-3.460724e+00
1.445706e+01	-3.488296e+00
1.454057e+01	-3.515998e+00
1.462455e+01	-3.543622e+00
1.470902e+01	-3.571643e+00
1.479398e+01	-3.599799e+00
1.487943e+01	-3.627865e+00
1.496537e+01	-3.656816e+00
1.505181e+01	-3.684973e+00
1.513875e+01	-3.713628e+00
1.522619e+01	-3.742440e+00
1.531414e+01	-3.771355e+00
1.540259e+01	-3.800460e+00
1.549156e+01	-3.829811e+00
1.558103e+01	-3.859088e+00
1.567103e+01	-3.888636e+00
1.576155e+01	-3.918410e+00
1.585258e+01	-3.948071e+00
1.594415e+01	-3.978196e+00
1.603624e+01	-4.008459e+00
1.612886e+01	-4.038599e+00
1.622202e+01	-4.068654e+00
1.631572e+01	-4.099317e+00
1.640996e+01	-4.129704e+00
1.650474e+01	-4.160583e+00
1.660008e+01	-4.191492e+00
1.669596e+01	-4.222825e+00
1.679239e+01	-4.253784e+00
1.688938e+01	-4.284808e+00
1.698694e+01	-4.316247e+00
1.708505e+01	-4.348026e+00
1.718373e+01	-4.379846e+00
1.728299e+01	-4.411815e+00
1.738281e+01	-4.443516e+00
1.748322e+01	-4.475818e+00
1.758420e+01	-4.508011e+00
1.768576e+01	-4.540695e+00
1.778792e+01	-4.572757e+00
1.789066e+01	-4.605692e+00
1.799399e+01	-4.638269e+00
1.809793e+01	-4.671156e+00
1.820246e+01	-4.704131e+00
1.830760e+01	-4.737331e+00
1.841334e+01	-4.770505e+00
1.851969e+01	-4.803973e+00
1.862666e+01	-4.837690e+00
1.873425e+01	-4.871189e+00
1.884246e+01	-4.905098e+00
1.895129e+01	-4.939116e+00
1.906075e+01	-4.973013e+00
1.917085e+01	-5.007109e+00
1.928158e+01	-5.041495e+00
1.939295e+01	-5.076157e+00
1.950496e+01	-5.110336e+00
1.961762e+01	-5.145130e+00
1.973093e+01	-5.179845e+00
1.984490e+01	-5.214675e+00
1.995952e+01	-5.249938e+00
2.007480e+01	-5.285326e+00
2.019076e+01	-5.320496e+00
2.030738e+01	-5.355833e+00
2.042467e+01	-5.391459e+00
2.054264e+01	-5.426928e+00
2.066130e+01	-5.462434e+00
2.078064e+01	-5.498372e+00
2.090066e+01	-5.534424e+00
2.102139e+01	-5.570141e+00
2.114280e+01	-5.606425e+00
2.126492e+01	-5.643099e+00
2.138775e+01	-5.679557e+00
2.151128e+01	-5.715858e+00
2.163553e+01	-5.752787e+00
2.176050e+01	-5.789562e+00
2.188619e+01	-5.826131e+00
2.201260e+01	-5.863415e+00
2.213974e+01	-5.900701e+00
2.226762e+01	-5.937644e+00
2.239624e+01	-5.975375e+00
2.252560e+01	-6.012388e+00
2.265571e+01	-6.049908e+00
2.278656e+01	-6.087831e+00
2.291818e+01	-6.125557e+00
2.305055e+01	-6.163302e+00
2.318369e+01	-6.201245e+00
2.331760e+01	-6.239308e+00
2.345228e+01	-6.277732e+00
2.358774e+01	-6.315925e+00
2.372398e+01	-6.354001e+00
2.386101e+01	-6.392877e+00
2.399883e+01	-6.431358e+00
2.413745e+01	-6.469892e+00
2.427686e+01	-6.509188e+00
2.441709e+01	-6.547702e+00
2.455812e+01	-6.586549e+00
2.469997e+01	-6.625897e+00
2.484263e+01	-6.665090e+00
2.498612e+01	-6.704140e+00
2.513044e+01	-6.743614e+00
2.527559e+01	-6.783000e+00
2.542158e+01	-6.822807e+00
2.556842e+01	-6.862462e+00
2.571610e+01	-6.902362e+00
2.586463e+01	-6.942053e+00
2.601403e+01	-6.982236e+00
2.616428e+01	-7.021726e+00
2.631541e+01	-7.062472e+00
2.646740e+01	-7.102168e+00
2.662028e+01	-7.142308e+00
2.677404e+01	-7.183210e+00
2.692868e+01	-7.223441e+00
2.708422e+01	-7.264340e+00
2.724066e+01	-7.305095e+00
2.739800e+01	-7.345935e+00
2.755625e+01	-7.386639e+00
2.771541e+01	-7.427454e+00
2.787550e+01	-7.468681e+00
2.803650e+01	-7.509527e+00
2.819844e+01	-7.550646e+00
2.836131e+01	-7.592160e+00
2.852513e+01	-7.633170e+00
2.868989e+01	-7.674598e+00
2.885560e+01	-7.716213e+00
2.902227e+01	-7.757681e+00
2.918990e+01	-7.799233e+00
2.935850e+01	-7.841215e+00
2.952807e+01	-7.883048e+00
2.969863e+01	-7.924627e+00
2.987016e+01	-7.967128e+00
3.004269e+01	-8.009155e+00
3.021622e+01	-8.051573e+00
3.039075e+01	-8.093773e+00
3.056628e+01	-8.135905e+00
3.074283e+01	-8.178456e+00
3.092040e+01	-8.220748e+00
3.109900e+01	-8.263613e+00
3.127862e+01	-8.305845e+00
3.145929e+01	-8.348705e+00
3.164099e+01	-8.391180e+00
3.182375e+01	-8.434261e+00
3.200756e+01	-8.477034e+00
3.219244e+01	-8.519922e+00
3.237838e+01	-8.562946e+00
3.256540e+01	-8.606169e+00
3.275349e+01	-8.649360e+00
3.294268e+01	-8.692387e+00
3.313295e+01	-8.735506e+00
3.332433e+01	-8.779173e+00
3.351681e+01	-8.822606e+00
3.371040e+01	-8.866213e+00
3.390511e+01	-8.909734e+00
3.410094e+01	-8.953613e+00
3.429791e+01	-8.996649e+00
3.449601e+01	-9.040598e+00
3.469526e+01	-9.084603e+00
3.489566e+01	-9.128764e+00
3.509721e+01	-9.172093e+00
3.529993e+01	-9.216120e+00
3.550382e+01	-9.260469e+00
3.570889e+01	-9.304511e+00
3.591515e+01	-9.348271e+00
3.612259e+01	-9.393253e+00
3.633123e+01	-9.437341e+00
3.654108e+01	-9.481682e+00
3.675214e+01	-9.526307e+00
3.696442e+01	-9.570031e+00
3.717792e+01	-9.615343e+00
3.739266e+01	-9.660042e+00
3.760864e+01	-9.704573e+00
3.782587e+01	-9.749202e+00
3.804435e+01	-9.793507e+00
3.826409e+01	-9.838151e+00
3.848510e+01	-9.883630e+00
3.870739e+01	-9.928452e+00
3.893096e+01	-9.973070e+00
3.915583e+01	-1.001801e+01
3.938199e+01	-1.006355e+01
3.960946e+01	-1.010870e+01
3.983824e+01	-1.015398e+01
4.006834e+01	-1.019894e+01
4.029978e+01	-1.024456e+01
4.053255e+01	-1.028902e+01
4.076666e+01	-1.033525e+01
4.100213e+01	-1.038016e+01
4.123896e+01	-1.042593e+01
4.147715e+01	-1.047131e+01
4.171672e+01	-1.051713e+01
4.195767e+01	-1.056252e+01
4.220002e+01	-1.060840e+01
4.244377e+01	-1.065401e+01
4.268892e+01	-1.069980e+01
4.293549e+01	-1.074510e+01
4.318348e+01	-1.079094e+01
4.343291e+01	-1.083647e+01
4.368377e+01	-1.088303e+01
4.393609e+01	-1.092902e+01
4.418986e+01	-1.097491e+01
4.444510e+01	-1.102111e+01
4.470182e+01	-1.106703e+01
4.496001e+01	-1.111323e+01
4.521970e+01	-1.115922e+01
4.548089e+01	-1.120584e+01
4.574358e+01	-1.125211e+01
4.600779e+01	-1.129773e+01
4.627353e+01	-1.134436e+01
4.654081e+01	-1.139111e+01
4.680963e+01	-1.143748e+01
4.708000e+01	-1.148357e+01
4.735193e+01	-1.153036e+01
4.762543e+01	-1.157705e+01
4.790051e+01	-1.162388e+01
4.817719e+01	-1.166980e+01
4.845545e+01	-1.171662e+01
4.873533e+01	-1.176294e+01
4.901682e+01	-1.181021e+01
4.929994e+01	-1.185679e+01
4.958470e+01	-1.190369e+01
4.987110e+01	-1.195031e+01
5.015915e+01	-1.199676e+01
5.044887e+01	-1.204422e+01
5.074026e+01	-1.209098e+01
5.103333e+01	-1.213806e+01
5.132810e+01	-1.218463e+01
5.162457e+01	-1.223181e+01
5.192275e+01	-1.227946e+01
5.222265e+01	-1.232586e+01
5.252429e+01	-1.237280e+01
5.282767e+01	-1.242015e+01
5.313280e+01	-1.246739e+01
5.343969e+01	-1.251473e+01
5.374836e+01	-1.256206e+01
5.405880e+01	-1.260952e+01
5.437105e+01	-1.265708e+01
5.468509e+01	-1.270401e+01
5.500095e+01	-1.275111e+01
5.531863e+01	-1.279875e+01
5.563815e+01	-1.284628e+01
5.595951e+01	-1.289309e+01
5.628273e+01	-1.294081e+01
5.660782e+01	-1.298866e+01
5.693479e+01	-1.303560e+01
5.726364e+01	-1.308346e+01
5.759439e+01	-1.313042e+01
5.792705e+01	-1.317830e+01
5.826164e+01	-1.322618e+01
5.859815e+01	-1.327425e+01
5.893662e+01	-1.332232e+01
5.927703e+01	-1.336929e+01
5.961941e+01	-1.341683e+01
5.996377e+01	-1.346472e+01
6.031012e+01	-1.351282e+01
6.065847e+01	-1.356011e+01
6.100883e+01	-1.360822e+01
6.136121e+01	-1.365583e+01
6.171563e+01	-1.370392e+01
6.207210e+01	-1.375195e+01
6.243063e+01	-1.379975e+01
6.279122e+01	-1.384885e+01
6.315390e+01	-1.389564e+01
6.351868e+01	-1.394335e+01
6.388556e+01	-1.399128e+01
6.425456e+01	-1.403997e+01
6.462569e+01	-1.408800e+01
6.499897e+01	-1.413596e+01
6.537440e+01	-1.418387e+01
6.575200e+01	-1.423261e+01
6.613178e+01	-1.428089e+01
6.651375e+01	-1.432844e+01
6.689793e+01	-1.437675e+01
6.728433e+01	-1.442517e+01
6.767297e+01	-1.447382e+01
6.806384e+01	-1.452114e+01
6.845698e+01	-1.456945e+01
6.885238e+01	-1.461795e+01
6.925007e+01	-1.466644e+01
6.965005e+01	-1.471487e+01
7.005235e+01	-1.476271e+01
7.045697e+01	-1.481055e+01
7.086393e+01	-1.485965e+01
7.127323e+01	-1.490780e+01
7.168490e+01	-1.495656e+01
7.209895e+01	-1.500442e+01
7.251539e+01	-1.505302e+01
7.293424e+01	-1.510161e+01
7.335551e+01	-1.515017e+01
7.377920e+01	-1.519816e+01
7.420535e+01	-1.524790e+01
7.463396e+01	-1.529569e+01
7.506504e+01	-1.534417e+01
7.549861e+01	-1.539317e+01
7.593469e+01	-1.544092e+01
7.637328e+01	-1.549055e+01
7.681441e+01	-1.553867e+01
7.725809e+01	-1.558763e+01
7.770433e+01	-1.563638e+01
7.815315e+01	-1.568397e+01
7.860456e+01	-1.573427e+01
7.905857e+01	-1.578244e+01
7.951521e+01	-1.583171e+01
7.997449e+01	-1.587862e+01
8.043642e+01	-1.592856e+01
8.090102e+01	-1.597761e+01
8.136830e+01	-1.602695e+01
8.183828e+01	-1.607556e+01
8.231097e+01	-1.612307e+01
8.278640e+01	-1.617196e+01
8.326457e+01	-1.622194e+01
8.374550e+01	-1.627061e+01
8.422921e+01	-1.631891e+01
8.471572e+01	-1.636839e+01
8.520503e+01	-1.641740e+01
8.569717e+01	-1.646565e+01
8.619215e+01	-1.651538e+01
8.669000e+01	-1.656278e+01
8.719071e+01	-1.661221e+01
8.769432e+01	-1.666115e+01
8.820084e+01	-1.671007e+01
8.871029e+01	-1.675993e+01
8.922267e+01	-1.680829e+01
8.973802e+01	-1.685690e+01
9.025634e+01	-1.690678e+01
9.077766e+01	-1.695561e+01
9.130199e+01	-1.700408e+01
9.182935e+01	-1.705326e+01
9.235975e+01	-1.710231e+01
9.289321e+01	-1.715041e+01
9.342976e+01	-1.720016e+01
9.396941e+01	-1.725044e+01
9.451217e+01	-1.729901e+01
9.505807e+01	-1.734833e+01
9.560712e+01	-1.739730e+01
9.615934e+01	-1.744599e+01
9.671476e+01	-1.749440e+01
9.727338e+01	-1.754403e+01
9.783522e+01	-1.759328e+01
9.840032e+01	-1.764266e+01
9.896867e+01	-1.769208e+01
9.954031e+01	-1.774111e+01
1.001153e+02	-1.779097e+01
1.006935e+02	-1.783870e+01
1.012751e+02	-1.788816e+01
1.018601e+02	-1.793828e+01
1.024484e+02	-1.798725e+01
1.030402e+02	-1.803550e+01
1.036353e+02	-1.808595e+01
1.042339e+02	-1.813438e+01
1.048360e+02	-1.818394e+01
1.054415e+02	-1.823260e+01
1.060505e+02	-1.828266e+01
1.066631e+02	-1.833182e+01
1.072791e+02	-1.838133e+01
1.078988e+02	-1.842919e+01
1.085220e+02	-1.848040e+01
1.091488e+02	-1.853020e+01
1.097793e+02	-1.857951e+01
1.104133e+02	-1.862796e+01
1.110511e+02	-1.867673e+01
1.116925e+02	-1.872562e+01
1.123376e+02	-1.877665e+01
1.129865e+02	-1.882553e+01
1.136391e+02	-1.887529e+01
1.142955e+02	-1.892402e+01
1.149556e+02	-1.897324e+01
1.156196e+02	-1.902234e+01
1.162874e+02	-1.907248e+01
1.169591e+02	-1.912182e+01
1.176347e+02	-1.917137e+01
1.183141e+02	-1.922136e+01
1.189975e+02	-1.927076e+01
1.196848e+02	-1.932112e+01
1.203761e+02	-1.936950e+01
1.210714e+02	-1.941881e+01
1.217707e+02	-1.946831e+01
1.224740e+02	-1.951836e+01
1.231814e+02	-1.956597e+01
1.238929e+02	-1.961579e+01
1.246085e+02	-1.966463e+01
1.253283e+02	-1.971500e+01
1.260522e+02	-1.976450e+01
1.267802e+02	-1.981349e+01
1.275125e+02	-1.986380e+01
1.282490e+02	-1.991318e+01
1.289898e+02	-1.996281e+01
1.297348e+02	-2.001286e+01
1.304842e+02	-2.006228e+01
1.312378e+02	-2.011110e+01
1.319959e+02	-2.015917e+01
1.327583e+02	-2.021034e+01
1.335251e+02	-2.026095e+01
1.342963e+02	-2.030976e+01
1.350720e+02	-2.035867e+01
1.358522e+02	-2.040797e+01
1.366368e+02	-2.045850e+01
1.374260e+02	-2.050696e+01
1.382198e+02	-2.055762e+01
1.390182e+02	-2.060898e+01
1.398211e+02	-2.065703e+01
1.406287e+02	-2.070665e+01
1.414410e+02	-2.075546e+01
1.422579e+02	-2.080488e+01
1.430796e+02	-2.085487e+01
1.439060e+02	-2.090503e+01
1.447372e+02	-2.095582e+01
1.455732e+02	-2.100416e+01
1.464141e+02	-2.105314e+01
1.472597e+02	-2.110277e+01
1.481103e+02	-2.115276e+01
1.489658e+02	-2.120499e+01
1.498262e+02	-2.125268e+01
1.506916e+02	-2.130149e+01
1.515620e+02	-2.135221e+01
1.524374e+02	-2.140399e+01
1.533179e+02	-2.145056e+01
1.542034e+02	-2.150001e+01
1.550941e+02	-2.155139e+01
1.559899e+02	-2.159941e+01
1.568909e+02	-2.165073e+01
1.577971e+02	-2.170119e+01
1.587085e+02	-2.174828e+01
1.596252e+02	-2.180078e+01
1.605472e+02	-2.184868e+01
1.614745e+02	-2.189788e+01
1.624072e+02	-2.194808e+01
1.633453e+02	-2.199785e+01
1.642887e+02	-2.204611e+01
1.652377e+02	-2.209734e+01
1.661921e+02	-2.214586e+01
1.671520e+02	-2.219558e+01
1.681175e+02	-2.224638e+01
1.690885e+02	-2.229440e+01
1.700651e+02	-2.234518e+01
1.710474e+02	-2.239432e+01
1.720354e+02	-2.244583e+01
1.730291e+02	-2.249447e+01
1.740285e+02	-2.254473e+01
1.750337e+02	-2.259355e+01
1.760446e+02	-2.264468e+01
1.770615e+02	-2.269408e+01
1.780842e+02	-2.274300e+01
1.791128e+02	-2.279456e+01
1.801473e+02	-2.284359e+01
1.811878e+02	-2.289236e+01
1.822344e+02	-2.294394e+01
1.832870e+02	-2.299346e+01
1.843456e+02	-2.304360e+01
1.854104e+02	-2.309436e+01
1.864813e+02	-2.314449e+01
1.875584e+02	-2.319020e+01
1.886418e+02	-2.324302e+01
1.897313e+02	-2.329469e+01
1.908272e+02	-2.334194e+01
1.919294e+02	-2.339297e+01
1.930380e+02	-2.344241e+01
1.941530e+02	-2.349276e+01
1.952744e+02	-2.354114e+01
1.964023e+02	-2.359201e+01
1.975367e+02	-2.364134e+01
1.986777e+02	-2.369321e+01
1.998252e+02	-2.374169e+01
2.009794e+02	-2.379062e+01
2.021403e+02	-2.384098e+01
2.033078e+02	-2.389091e+01
2.044821e+02	-2.393926e+01
2.056632e+02	-2.399027e+01
2.068511e+02	-2.403687e+01
2.080459e+02	-2.408894e+01
2.092475e+02	-2.414091e+01
2.104561e+02	-2.418917e+01
2.116717e+02	-2.423887e+01
2.128943e+02	-2.429030e+01
2.141240e+02	-2.433942e+01
2.153608e+02	-2.438987e+01
2.166047e+02	-2.444147e+01
2.178558e+02	-2.448736e+01
2.191141e+02	-2.454151e+01
2.203797e+02	-2.458760e+01
2.216526e+02	-2.464019e+01
2.229329e+02	-2.468753e+01
2.242205e+02	-2.473601e+01
2.255156e+02	-2.478407e+01
2.268182e+02	-2.483736e+01
2.281283e+02	-2.488830e+01
2.294459e+02	-2.493858e+01
2.307712e+02	-2.498599e+01
2.321041e+02	-2.503649e+01
2.334447e+02	-2.508905e+01
2.347931e+02	-2.513901e+01
2.361493e+02	-2.518891e+01
2.375133e+02	-2.523674e+01
2.388851e+02	-2.528567e+01
2.402649e+02	-2.533903e+01
2.416527e+02	-2.538769e+01
2.430484e+02	-2.543566e+01
2.444523e+02	-2.548531e+01
2.458642e+02	-2.553470e+01
2.472843e+02	-2.558644e+01
2.487126e+02	-2.563427e+01
2.501492e+02	-2.569013e+01
2.515940e+02	-2.573624e+01
2.530472e+02	-2.578764e+01
2.545088e+02	-2.583282e+01
2.559789e+02	-2.588634e+01
2.574574e+02	-2.593828e+01
2.589444e+02	-2.598590e+01
2.604401e+02	-2.603444e+01
2.619444e+02	-2.608441e+01
2.634574e+02	-2.613481e+01
2.649791e+02	-2.618742e+01
2.665096e+02	-2.623457e+01
2.680489e+02	-2.628860e+01
2.695972e+02	-2.633974e+01
2.711544e+02	-2.638729e+01
2.727205e+02	-2.643561e+01
2.742958e+02	-2.648360e+01
2.758801e+02	-2.653728e+01
2.774736e+02	-2.658225e+01
2.790762e+02	-2.663418e+01
2.806882e+02	-2.668346e+01
2.823094e+02	-2.673545e+01
2.839400e+02	-2.678410e+01
2.855800e+02	-2.683370e+01
2.872295e+02	-2.688566e+01
2.888886e+02	-2.693596e+01
2.905572e+02	-2.698367e+01
2.922354e+02	-2.703451e+01
2.939234e+02	-2.708276e+01
2.956211e+02	-2.713833e+01
2.973286e+02	-2.718625e+01
2.990459e+02	-2.723224e+01
3.007732e+02	-2.728680e+01
3.025104e+02	-2.733686e+01
3.042577e+02	-2.738646e+01
3.060151e+02	-2.743668e+01
3.077826e+02	-2.748333e+01
3.095604e+02	-2.753323e+01
3.113484e+02	-2.758357e+01
3.131467e+02	-2.763532e+01
3.149554e+02	-2.768350e+01
3.167746e+02	-2.773465e+01
3.186043e+02	-2.778346e+01
3.204445e+02	-2.783026e+01
3.222954e+02	-2.788354e+01
3.241570e+02	-2.793398e+01
3.260293e+02	-2.798498e+01
3.279124e+02	-2.803513e+01
3.298064e+02	-2.808601e+01
3.317114e+02	-2.813535e+01
3.336273e+02	-2.818457e+01
3.355544e+02	-2.823515e+01
3.374925e+02	-2.828247e+01
3.394418e+02	-2.833624e+01
3.414024e+02	-2.838749e+01
3.433744e+02	-2.843920e+01
3.453577e+02	-2.848725e+01
3.473525e+02	-2.853253e+01
3.493588e+02	-2.858821e+01
3.513766e+02	-2.863361e+01
3.534062e+02	-2.868308e+01
3.554474e+02	-2.873907e+01
3.575005e+02	-2.878819e+01
3.595654e+02	-2.883966e+01
3.616422e+02	-2.888454e+01
3.637311e+02	-2.893119e+01
3.658320e+02	-2.898549e+01
3.679450e+02	-2.903628e+01
3.700702e+02	-2.908679e+01
3.722077e+02	-2.914080e+01
3.743576e+02	-2.918949e+01
3.765199e+02	-2.923486e+01
3.786946e+02	-2.928975e+01
3.808820e+02	-2.933859e+01
3.830819e+02	-2.938397e+01
3.852946e+02	-2.943691e+01
3.875200e+02	-2.948759e+01
3.897583e+02	-2.953112e+01
3.920096e+02	-2.959189e+01
3.942738e+02	-2.964087e+01
3.965511e+02	-2.968955e+01
3.988416e+02	-2.973661e+01
4.011452e+02	-2.978474e+01
4.034622e+02	-2.983794e+01
4.057926e+02	-2.988853e+01
4.081365e+02	-2.993555e+01
4.104938e+02	-2.998697e+01
4.128648e+02	-3.003847e+01
4.152495e+02	-3.009271e+01
4.176480e+02	-3.013748e+01
4.200603e+02	-3.018760e+01
4.224866e+02	-3.024374e+01
4.249268e+02	-3.028804e+01
4.273812e+02	-3.033414e+01
4.298497e+02	-3.038682e+01
4.323325e+02	-3.043380e+01
4.348297e+02	-3.049094e+01
4.373412e+02	-3.053945e+01
4.398673e+02	-3.058648e+01
4.424079e+02	-3.064362e+01
4.449633e+02	-3.068887e+01
4.475334e+02	-3.074034e+01
4.501183e+02	-3.079180e+01
4.527182e+02	-3.084236e+01
4.553330e+02	-3.088927e+01
4.579630e+02	-3.094008e+01
4.606082e+02	-3.099210e+01
4.632687e+02	-3.104617e+01
4.659445e+02	-3.109989e+01
4.686358e+02	-3.113889e+01
4.713426e+02	-3.119650e+01
4.740650e+02	-3.123935e+01
4.768032e+02	-3.128907e+01
4.795572e+02	-3.134027e+01
4.823271e+02	-3.138816e+01
4.851130e+02	-3.144322e+01
4.879150e+02	-3.149820e+01
4.907332e+02	-3.154471e+01
4.935676e+02	-3.159642e+01
4.964185e+02	-3.164178e+01
4.992858e+02	-3.168799e+01
5.021696e+02	-3.174373e+01
5.050701e+02	-3.179309e+01
5.079874e+02	-3.184035e+01
5.109215e+02	-3.189745e+01
5.138726e+02	-3.194435e+01
5.168407e+02	-3.199393e+01
5.198259e+02	-3.204237e+01
5.228284e+02	-3.209490e+01
5.258482e+02	-3.214166e+01
5.288855e+02	-3.219754e+01
5.319403e+02	-3.224882e+01
5.350128e+02	-3.229269e+01
5.381030e+02	-3.234225e+01
5.412111e+02	-3.239431e+01
5.443371e+02	-3.244917e+01
5.474812e+02	-3.248917e+01
5.506434e+02	-3.254526e+01
5.538239e+02	-3.260119e+01
5.570228e+02	-3.264507e+01
5.602401e+02	-3.269365e+01
5.634760e+02	-3.275309e+01
5.667306e+02	-3.279738e+01
5.700040e+02	-3.285483e+01
5.732964e+02	-3.289960e+01
5.766077e+02	-3.295069e+01
5.799382e+02	-3.299457e+01
5.832879e+02	-3.304804e+01
5.866569e+02	-3.309714e+01
5.900454e+02	-3.315307e+01
5.934535e+02	-3.319539e+01
5.968813e+02	-3.324836e+01
6.003288e+02	-3.329666e+01
6.037963e+02	-3.335448e+01
6.072838e+02	-3.339652e+01
6.107914e+02	-3.344514e+01
6.143194e+02	-3.349492e+01
6.178676e+02	-3.354699e+01
6.214364e+02	-3.359848e+01
6.250258e+02	-3.365110e+01
6.286359e+02	-3.369814e+01
6.322669e+02	-3.375753e+01
6.359189e+02	-3.380567e+01
6.395919e+02	-3.385980e+01
6.432862e+02	-3.389904e+01
6.470017e+02	-3.395862e+01
6.507388e+02	-3.400520e+01
6.544974e+02	-3.404737e+01
6.582778e+02	-3.410269e+01
6.620800e+02	-3.414932e+01
6.659041e+02	-3.421209e+01
6.697504e+02	-3.425657e+01
6.736188e+02	-3.430707e+01
6.775096e+02	-3.435593e+01
6.814229e+02	-3.440806e+01
6.853587e+02	-3.445932e+01
6.893173e+02	-3.450500e+01
6.932988e+02	-3.455339e+01
6.973033e+02	-3.460523e+01
7.013309e+02	-3.466329e+01
