Frequency(Hz)	Magnitude(dB)
1.000000e+01	-2.212963e+00
1.005776e+01	-2.233034e+00
1.011585e+01	-2.253114e+00
1.017428e+01	-2.273541e+00
1.023305e+01	-2.293976e+00
1.029215e+01	-2.314474e+00
1.035160e+01	-2.335130e+00
1.041139e+01	-2.356073e+00
1.047153e+01	-2.377011e+00
1.053201e+01	-2.398427e+00
1.059284e+01	-2.419651e+00
1.065403e+01	-2.440930e+00
1.071556e+01	-2.462605e+00
1.077746e+01	-2.484379e+00
1.083971e+01	-2.506166e+00
1.090232e+01	-2.528234e+00
1.096529e+01	-2.550380e+00
1.102862e+01	-2.572646e+00
1.109232e+01	-2.595051e+00
1.115639e+01	-2.617762e+00
1.122083e+01	-2.640349e+00
1.128564e+01	-2.663287e+00
1.135083e+01	-2.686278e+00
1.141639e+01	-2.709399e+00
1.148233e+01	-2.732784e+00
1.154865e+01	-2.756015e+00
1.161536e+01	-2.779634e+00
1.168245e+01	-2.803569e+00
1.174992e+01	-2.827296e+00
1.181779e+01	-2.851305e+00
1.188605e+01	-2.875341e+00
1.195470e+01	-2.899638e+00
1.202375e+01	-2.924146e+00
1.209320e+01	-2.948688e+00
1.216305e+01	-2.973589e+00
1.223330e+01	-2.998672e+00
1.230396e+01	-3.023306e+00
1.237503e+01	-3.048418e+00
1.244651e+01	-3.073746e+00
1.251840e+01	-3.099420e+00
1.259070e+01	-3.124851e+00
1.266343e+01	-3.150719e+00
1.273657e+01	-3.176586e+00
1.281014e+01	-3.202422e+00
1.288413e+01	-3.228629e+00
1.295855e+01	-3.255008e+00
1.303339e+01	-3.281192e+00
1.310867e+01	-3.307967e+00
1.318439e+01	-3.334801e+00
1.326054e+01	-3.361534e+00
1.333713e+01	-3.388625e+00
1.341417e+01	-3.415845e+00
1.349165e+01	-3.443085e+00
1.356958e+01	-3.470426e+00
1.364795e+01	-3.498233e+00
1.372678e+01	-3.525940e+00
1.380607e+01	-3.553776e+00
1.388581e+01	-3.581939e+00
1.396602e+01	-3.610184e+00
1.404668e+01	-3.638391e+00
1.412782e+01	-3.666867e+00
1.420942e+01	-3.695425e+00
1.429149e+01	-3.724068e+00
1.437404e+01	-3.752888e+00
1.445706e+01	-3.782273e+00
1.454057e+01	-3.811208e+00
1.462455e+01	-3.840401e+00
1.470902e+01	-3.869833e+00
1.479398e+01	-3.899427e+00
1.487943e+01	-3.929094e+00
1.496537e+01	-3.959089e+00
1.505181e+01	-3.989045e+00
1.513875e+01	-4.019351e+00
1.522619e+01	-4.049424e+00
1.531414e+01	-4.079862e+00
1.540259e+01	-4.110605e+00
1.549156e+01	-4.141117e+00
1.558103e+01	-4.171643e+00
1.567103e+01	-4.202909e+00
1.576155e+01	-4.233834e+00
1.585258e+01	-4.265211e+00
1.594415e+01	-4.296685e+00
1.603624e+01	-4.327971e+00
1.612886e+01	-4.359578e+00
1.622202e+01	-4.391175e+00
1.631572e+01	-4.423347e+00
1.640996e+01	-4.455551e+00
1.650474e+01	-4.487506e+00
1.660008e+01	-4.519627e+00
1.669596e+01	-4.552316e+00
1.679239e+01	-4.584655e+00
1.688938e+01	-4.617381e+00
1.698694e+01	-4.650082e+00
1.708505e+01	-4.683059e+00
1.718373e+01	-4.716049e+00
1.728299e+01	-4.749570e+00
1.738281e+01	-4.782960e+00
1.748322e+01	-4.816111e+00
1.758420e+01	-4.849700e+00
1.768576e+01	-4.883395e+00
1.778792e+01	-4.917432e+00
1.789066e+01	-4.951492e+00
1.799399e+01	-4.985198e+00
1.809793e+01	-5.019722e+00
1.820246e+01	-5.053940e+00
1.830760e+01	-5.088555e+00
1.841334e+01	-5.122979e+00
1.851969e+01	-5.157878e+00
1.862666e+01	-5.192467e+00
1.873425e+01	-5.227400e+00
1.884246e+01	-5.262285e+00
1.895129e+01	-5.297730e+00
1.906075e+01	-5.333185e+00
1.917085e+01	-5.368500e+00
1.928158e+01	-5.404321e+00
1.939295e+01	-5.439850e+00
1.950496e+01	-5.475619e+00
1.961762e+01	-5.511441e+00
1.973093e+01	-5.547320e+00
1.984490e+01	-5.583589e+00
1.995952e+01	-5.619911e+00
2.007480e+01	-5.655958e+00
2.019076e+01	-5.692494e+00
2.030738e+01	-5.729285e+00
2.042467e+01	-5.766050e+00
2.054264e+01	-5.803020e+00
2.066130e+01	-5.839837e+00
2.078064e+01	-5.876852e+00
2.090066e+01	-5.913816e+00
2.102139e+01	-5.951162e+00
2.114280e+01	-5.988491e+00
2.126492e+01	-6.026178e+00
2.138775e+01	-6.063518e+00
2.151128e+01	-6.101211e+00
2.163553e+01	-6.139088e+00
2.176050e+01	-6.177123e+00
2.188619e+01	-6.215007e+00
2.201260e+01	-6.252821e+00
2.213974e+01	-6.291367e+00
2.226762e+01	-6.329895e+00
2.239624e+01	-6.368039e+00
2.252560e+01	-6.406802e+00
2.265571e+01	-6.445151e+00
2.278656e+01	-6.484214e+00
2.291818e+01	-6.523105e+00
2.305055e+01	-6.562095e+00
2.318369e+01	-6.600587e+00
2.331760e+01	-6.640214e+00
2.345228e+01	-6.678945e+00
2.358774e+01	-6.718640e+00
2.372398e+01	-6.758123e+00
2.386101e+01	-6.797601e+00
2.399883e+01	-6.836900e+00
2.413745e+01	-6.877026e+00
2.427686e+01	-6.916383e+00
2.441709e+01	-6.956785e+00
2.455812e+01	-6.996328e+00
2.469997e+01	-7.036886e+00
2.484263e+01	-7.076653e+00
2.498612e+01	-7.117350e+00
2.513044e+01	-7.157391e+00
2.527559e+01	-7.197370e+00
2.542158e+01	-7.238378e+00
2.556842e+01	-7.279106e+00
2.571610e+01	-7.319617e+00
2.586463e+01	-7.360727e+00
2.601403e+01	-7.401613e+00
2.616428e+01	-7.442361e+00
2.631541e+01	-7.483196e+00
2.646740e+01	-7.524291e+00
2.662028e+01	-7.565656e+00
2.677404e+01	-7.607015e+00
2.692868e+01	-7.648541e+00
2.708422e+01	-7.689888e+00
2.724066e+01	-7.731348e+00
2.739800e+01	-7.772871e+00
2.755625e+01	-7.814649e+00
2.771541e+01	-7.856754e+00
2.787550e+01	-7.898314e+00
2.803650e+01	-7.940232e+00
2.819844e+01	-7.982460e+00
2.836131e+01	-8.024533e+00
2.852513e+01	-8.066589e+00
2.868989e+01	-8.109109e+00
2.885560e+01	-8.151177e+00
2.902227e+01	-8.193804e+00
2.918990e+01	-8.236560e+00
2.935850e+01	-8.278504e+00
2.952807e+01	-8.321367e+00
2.969863e+01	-8.364173e+00
2.987016e+01	-8.406981e+00
3.004269e+01	-8.449487e+00
3.021622e+01	-8.492494e+00
3.039075e+01	-8.536129e+00
3.056628e+01	-8.578964e+00
3.074283e+01	-8.622514e+00
3.092040e+01	-8.665138e+00
3.109900e+01	-8.708377e+00
3.127862e+01	-8.751567e+00
3.145929e+01	-8.794772e+00
3.164099e+01	-8.838014e+00
3.182375e+01	-8.881906e+00
3.200756e+01	-8.925522e+00
3.219244e+01	-8.969132e+00
3.237838e+01	-9.012576e+00
3.256540e+01	-9.057001e+00
3.275349e+01	-9.100555e+00
3.294268e+01	-9.144214e+00
3.313295e+01	-9.187896e+00
3.332433e+01	-9.232437e+00
3.351681e+01	-9.276493e+00
3.371040e+01	-9.321059e+00
3.390511e+01	-9.365375e+00
3.410094e+01	-9.409311e+00
3.429791e+01	-9.453537e+00
3.449601e+01	-9.497389e+00
3.469526e+01	-9.542280e+00
3.489566e+01	-9.586917e+00
3.509721e+01	-9.630967e+00
3.529993e+01	-9.676058e+00
3.550382e+01	-9.720501e+00
3.570889e+01	-9.765330e+00
3.591515e+01	-9.810382e+00
3.612259e+01	-9.854424e+00
3.633123e+01	-9.899988e+00
3.654108e+01	-9.944527e+00
3.675214e+01	-9.990040e+00
3.696442e+01	-1.003491e+01
3.717792e+01	-1.007967e+01
3.739266e+01	-1.012512e+01
3.760864e+01	-1.017018e+01
3.782587e+01	-1.021516e+01
3.804435e+01	-1.026078e+01
3.826409e+01	-1.030570e+01
3.848510e+01	-1.035154e+01
3.870739e+01	-1.039714e+01
3.893096e+01	-1.044228e+01
3.915583e+01	-1.048732e+01
3.938199e+01	-1.053356e+01
3.960946e+01	-1.057892e+01
3.983824e+01	-1.062519e+01
4.006834e+01	-1.067056e+01
4.029978e+01	-1.071634e+01
4.053255e+01	-1.076154e+01
4.076666e+01	-1.080775e+01
4.100213e+01	-1.085388e+01
4.123896e+01	-1.089992e+01
4.147715e+01	-1.094561e+01
4.171672e+01	-1.099127e+01
4.195767e+01	-1.103758e+01
4.220002e+01	-1.108397e+01
4.244377e+01	-1.112976e+01
4.268892e+01	-1.117627e+01
4.293549e+01	-1.122246e+01
4.318348e+01	-1.126838e+01
4.343291e+01	-1.131486e+01
4.368377e+01	-1.136122e+01
4.393609e+01	-1.140736e+01
4.418986e+01	-1.145398e+01
4.444510e+01	-1.150098e+01
4.470182e+01	-1.154729e+01
4.496001e+01	-1.159365e+01
4.521970e+01	-1.164000e+01
4.548089e+01	-1.168703e+01
4.574358e+01	-1.173338e+01
4.600779e+01	-1.178060e+01
4.627353e+01	-1.182694e+01
4.654081e+01	-1.187424e+01
4.680963e+01	-1.192030e+01
4.708000e+01	-1.196746e+01
4.735193e+01	-1.201400e+01
4.762543e+01	-1.206088e+01
4.790051e+01	-1.210847e+01
4.817719e+01	-1.215464e+01
4.845545e+01	-1.220189e+01
4.873533e+01	-1.224965e+01
4.901682e+01	-1.229601e+01
4.929994e+01	-1.234329e+01
4.958470e+01	-1.238994e+01
4.987110e+01	-1.243775e+01
5.015915e+01	-1.248484e+01
5.044887e+01	-1.253252e+01
5.074026e+01	-1.257855e+01
5.103333e+01	-1.262673e+01
5.132810e+01	-1.267359e+01
5.162457e+01	-1.272113e+01
5.192275e+01	-1.276903e+01
5.222265e+01	-1.281633e+01
5.252429e+01	-1.286313e+01
5.282767e+01	-1.291007e+01
5.313280e+01	-1.295817e+01
5.343969e+01	-1.300537e+01
5.374836e+01	-1.305374e+01
5.405880e+01	-1.309977e+01
5.437105e+01	-1.314860e+01
5.468509e+01	-1.319593e+01
5.500095e+01	-1.324411e+01
5.531863e+01	-1.329143e+01
5.563815e+01	-1.333863e+01
5.595951e+01	-1.338636e+01
5.628273e+01	-1.343436e+01
5.660782e+01	-1.348198e+01
5.693479e+01	-1.353039e+01
5.726364e+01	-1.357792e+01
5.759439e+01	-1.362603e+01
5.792705e+01	-1.367393e+01
5.826164e+01	-1.372138e+01
5.859815e+01	-1.376983e+01
5.893662e+01	-1.381722e+01
5.927703e+01	-1.386523e+01
5.961941e+01	-1.391322e+01
5.996377e+01	-1.396111e+01
6.031012e+01	-1.400965e+01
6.065847e+01	-1.405673e+01
6.100883e+01	-1.410475e+01
6.136121e+01	-1.415426e+01
6.171563e+01	-1.420148e+01
6.207210e+01	-1.424944e+01
6.243063e+01	-1.429811e+01
6.279122e+01	-1.434609e+01
6.315390e+01	-1.439389e+01
6.351868e+01	-1.444210e+01
6.388556e+01	-1.449047e+01
6.425456e+01	-1.453864e+01
6.462569e+01	-1.458724e+01
6.499897e+01	-1.463569e+01
6.537440e+01	-1.468381e+01
6.575200e+01	-1.473195e+01
6.613178e+01	-1.478104e+01
6.651375e+01	-1.482846e+01
6.689793e+01	-1.487742e+01
6.728433e+01	-1.492552e+01
6.767297e+01	-1.497513e+01
6.806384e+01	-1.502302e+01
6.845698e+01	-1.507229e+01
6.885238e+01	-1.512023e+01
6.925007e+01	-1.516762e+01
6.965005e+01	-1.521738e+01
7.005235e+01	-1.526469e+01
7.045697e+01	-1.531308e+01
7.086393e+01	-1.536299e+01
7.127323e+01	-1.541106e+01
7.168490e+01	-1.545943e+01
7.209895e+01	-1.550753e+01
7.251539e+01	-1.555688e+01
7.293424e+01	-1.560521e+01
7.335551e+01	-1.565391e+01
7.377920e+01	-1.570378e+01
7.420535e+01	-1.575235e+01
7.463396e+01	-1.580023e+01
7.506504e+01	-1.584897e+01
7.549861e+01	-1.589723e+01
7.593469e+01	-1.594617e+01
7.637328e+01	-1.599461e+01
7.681441e+01	-1.604383e+01
7.725809e+01	-1.609216e+01
7.770433e+01	-1.614236e+01
7.815315e+01	-1.619091e+01
7.860456e+01	-1.623875e+01
7.905857e+01	-1.628734e+01
7.951521e+01	-1.633629e+01
7.997449e+01	-1.638599e+01
8.043642e+01	-1.643440e+01
8.090102e+01	-1.648405e+01
8.136830e+01	-1.653307e+01
8.183828e+01	-1.658089e+01
8.231097e+01	-1.663087e+01
8.278640e+01	-1.667944e+01
8.326457e+01	-1.672796e+01
8.374550e+01	-1.677706e+01
8.422921e+01	-1.682557e+01
8.471572e+01	-1.687464e+01
8.520503e+01	-1.692453e+01
8.569717e+01	-1.697320e+01
8.619215e+01	-1.702338e+01
8.669000e+01	-1.707087e+01
8.719071e+01	-1.712077e+01
8.769432e+01	-1.716905e+01
8.820084e+01	-1.721838e+01
8.871029e+01	-1.726813e+01
8.922267e+01	-1.731641e+01
8.973802e+01	-1.736627e+01
9.025634e+01	-1.741419e+01
9.077766e+01	-1.746465e+01
9.130199e+01	-1.751299e+01
9.182935e+01	-1.756103e+01
9.235975e+01	-1.761182e+01
9.289321e+01	-1.766010e+01
9.342976e+01	-1.770971e+01
9.396941e+01	-1.776022e+01
9.451217e+01	-1.780861e+01
9.505807e+01	-1.785795e+01
9.560712e+01	-1.790705e+01
9.615934e+01	-1.795578e+01
9.671476e+01	-1.800524e+01
9.727338e+01	-1.805391e+01
9.783522e+01	-1.810351e+01
9.840032e+01	-1.815324e+01
9.896867e+01	-1.820106e+01
9.954031e+01	-1.825108e+01
1.001153e+02	-1.830045e+01
1.006935e+02	-1.835000e+01
1.012751e+02	-1.839916e+01
1.018601e+02	-1.844871e+01
1.024484e+02	-1.849824e+01
1.030402e+02	-1.854643e+01
1.036353e+02	-1.859525e+01
1.042339e+02	-1.864593e+01
1.048360e+02	-1.869628e+01
1.054415e+02	-1.874479e+01
1.060505e+02	-1.879521e+01
1.066631e+02	-1.884353e+01
1.072791e+02	-1.889381e+01
1.078988e+02	-1.894228e+01
1.085220e+02	-1.899180e+01
1.091488e+02	-1.904127e+01
1.097793e+02	-1.908889e+01
1.104133e+02	-1.913822e+01
1.110511e+02	-1.918757e+01
1.116925e+02	-1.923802e+01
1.123376e+02	-1.928842e+01
1.129865e+02	-1.933755e+01
1.136391e+02	-1.938691e+01
1.142955e+02	-1.943557e+01
1.149556e+02	-1.948558e+01
1.156196e+02	-1.953457e+01
1.162874e+02	-1.958456e+01
1.169591e+02	-1.963529e+01
1.176347e+02	-1.968517e+01
1.183141e+02	-1.973288e+01
1.189975e+02	-1.978353e+01
1.196848e+02	-1.983232e+01
1.203761e+02	-1.988126e+01
1.210714e+02	-1.993112e+01
1.217707e+02	-1.998258e+01
1.224740e+02	-2.003134e+01
1.231814e+02	-2.008195e+01
1.238929e+02	-2.012997e+01
1.246085e+02	-2.017791e+01
1.253283e+02	-2.022808e+01
1.260522e+02	-2.027887e+01
1.267802e+02	-2.032699e+01
1.275125e+02	-2.037721e+01
1.282490e+02	-2.042645e+01
1.289898e+02	-2.047789e+01
1.297348e+02	-2.052575e+01
1.304842e+02	-2.057609e+01
1.312378e+02	-2.062416e+01
1.319959e+02	-2.067448e+01
1.327583e+02	-2.072403e+01
1.335251e+02	-2.077348e+01
1.342963e+02	-2.082309e+01
1.350720e+02	-2.087231e+01
1.358522e+02	-2.092414e+01
1.366368e+02	-2.097288e+01
1.374260e+02	-2.102375e+01
1.382198e+02	-2.107148e+01
1.390182e+02	-2.112279e+01
1.398211e+02	-2.117304e+01
1.406287e+02	-2.121934e+01
1.414410e+02	-2.126969e+01
1.422579e+02	-2.132000e+01
1.430796e+02	-2.136932e+01
1.439060e+02	-2.142001e+01
1.447372e+02	-2.146949e+01
1.455732e+02	-2.151897e+01
1.464141e+02	-2.156850e+01
1.472597e+02	-2.161709e+01
1.481103e+02	-2.166759e+01
1.489658e+02	-2.171883e+01
1.498262e+02	-2.176581e+01
1.506916e+02	-2.181772e+01
1.515620e+02	-2.186831e+01
1.524374e+02	-2.191692e+01
1.533179e+02	-2.196698e+01
1.542034e+02	-2.201592e+01
1.550941e+02	-2.206563e+01
1.559899e+02	-2.211475e+01
1.568909e+02	-2.216508e+01
1.577971e+02	-2.221521e+01
1.587085e+02	-2.226406e+01
1.596252e+02	-2.231202e+01
1.605472e+02	-2.236561e+01
1.614745e+02	-2.241249e+01
1.624072e+02	-2.246429e+01
1.633453e+02	-2.251394e+01
1.642887e+02	-2.256307e+01
1.652377e+02	-2.261387e+01
1.661921e+02	-2.266288e+01
1.671520e+02	-2.271335e+01
1.681175e+02	-2.276488e+01
1.690885e+02	-2.281119e+01
1.700651e+02	-2.286123e+01
1.710474e+02	-2.290958e+01
1.720354e+02	-2.296093e+01
1.730291e+02	-2.301235e+01
1.740285e+02	-2.306160e+01
1.750337e+02	-2.311193e+01
1.760446e+02	-2.316163e+01
1.770615e+02	-2.321413e+01
1.780842e+02	-2.326070e+01
1.791128e+02	-2.331119e+01
1.801473e+02	-2.336021e+01
1.811878e+02	-2.340995e+01
1.822344e+02	-2.346159e+01
1.832870e+02	-2.350936e+01
1.843456e+02	-2.355827e+01
1.854104e+02	-2.361022e+01
1.864813e+02	-2.365878e+01
1.875584e+02	-2.370936e+01
1.886418e+02	-2.375616e+01
1.897313e+02	-2.380808e+01
1.908272e+02	-2.386009e+01
1.919294e+02	-2.390717e+01
1.930380e+02	-2.395918e+01
1.941530e+02	-2.400550e+01
1.952744e+02	-2.406015e+01
1.964023e+02	-2.410711e+01
1.975367e+02	-2.415749e+01
1.986777e+02	-2.420593e+01
1.998252e+02	-2.425780e+01
2.009794e+02	-2.431124e+01
2.021403e+02	-2.435858e+01
2.033078e+02	-2.440734e+01
2.044821e+02	-2.445671e+01
2.056632e+02	-2.450450e+01
2.068511e+02	-2.455630e+01
2.080459e+02	-2.460587e+01
2.092475e+02	-2.465464e+01
2.104561e+02	-2.470448e+01
2.116717e+02	-2.475718e+01
2.128943e+02	-2.480459e+01
2.141240e+02	-2.485693e+01
2.153608e+02	-2.490484e+01
2.166047e+02	-2.495202e+01
2.178558e+02	-2.500394e+01
2.191141e+02	-2.505738e+01
2.203797e+02	-2.510586e+01
2.216526e+02	-2.515636e+01
2.229329e+02	-2.520641e+01
2.242205e+02	-2.525507e+01
2.255156e+02	-2.530417e+01
2.268182e+02	-2.535662e+01
2.281283e+02	-2.540458e+01
2.294459e+02	-2.545372e+01
2.307712e+02	-2.550571e+01
2.321041e+02	-2.555432e+01
2.334447e+02	-2.560467e+01
2.347931e+02	-2.565402e+01
2.361493e+02	-2.570444e+01
2.375133e+02	-2.575526e+01
2.388851e+02	-2.580585e+01
2.402649e+02	-2.585600e+01
2.416527e+02	-2.590508e+01
2.430484e+02	-2.595558e+01
2.444523e+02	-2.600229e+01
2.458642e+02	-2.605306e+01
2.472843e+02	-2.610497e+01
2.487126e+02	-2.615127e+01
2.501492e+02	-2.620240e+01
2.515940e+02	-2.625220e+01
2.530472e+02	-2.630740e+01
2.545088e+02	-2.635497e+01
2.559789e+02	-2.640588e+01
2.574574e+02	-2.645768e+01
2.589444e+02	-2.650221e+01
2.604401e+02	-2.655402e+01
2.619444e+02	-2.660480e+01
2.634574e+02	-2.665023e+01
2.649791e+02	-2.669899e+01
2.665096e+02	-2.675586e+01
2.680489e+02	-2.680547e+01
2.695972e+02	-2.685688e+01
2.711544e+02	-2.690166e+01
2.727205e+02	-2.695103e+01
2.742958e+02	-2.699996e+01
2.758801e+02	-2.705363e+01
2.774736e+02	-2.710260e+01
2.790762e+02	-2.715244e+01
2.806882e+02	-2.720329e+01
2.823094e+02	-2.725396e+01
2.839400e+02	-2.730491e+01
2.855800e+02	-2.735576e+01
2.872295e+02	-2.740008e+01
2.888886e+02	-2.745138e+01
2.905572e+02	-2.750553e+01
2.922354e+02	-2.755248e+01
2.939234e+02	-2.760142e+01
2.956211e+02	-2.765203e+01
2.973286e+02	-2.770577e+01
2.990459e+02	-2.775408e+01
3.007732e+02	-2.780323e+01
3.025104e+02	-2.785489e+01
3.042577e+02	-2.790771e+01
3.060151e+02	-2.795389e+01
3.077826e+02	-2.800553e+01
3.095604e+02	-2.805188e+01
3.113484e+02	-2.810260e+01
3.131467e+02	-2.815369e+01
3.149554e+02	-2.820285e+01
3.167746e+02	-2.825340e+01
3.186043e+02	-2.830492e+01
3.204445e+02	-2.835436e+01
3.222954e+02	-2.840319e+01
3.241570e+02	-2.845695e+01
3.260293e+02	-2.850726e+01
3.279124e+02	-2.855545e+01
3.298064e+02	-2.860789e+01
3.317114e+02	-2.865816e+01
3.336273e+02	-2.870474e+01
3.355544e+02	-2.875554e+01
3.374925e+02	-2.880179e+01
3.394418e+02	-2.885127e+01
3.414024e+02	-2.890684e+01
3.433744e+02	-2.895034e+01
3.453577e+02	-2.900654e+01
3.473525e+02	-2.905427e+01
3.493588e+02	-2.910830e+01
3.513766e+02	-2.915548e+01
3.534062e+02	-2.920436e+01
3.554474e+02	-2.925425e+01
3.575005e+02	-2.930796e+01
3.595654e+02	-2.935598e+01
3.616422e+02	-2.940777e+01
3.637311e+02	-2.945062e+01
3.658320e+02	-2.950533e+01
3.679450e+02	-2.955660e+01
3.700702e+02	-2.960817e+01
3.722077e+02	-2.965425e+01
3.743576e+02	-2.970006e+01
3.765199e+02	-2.975583e+01
3.786946e+02	-2.980441e+01
3.808820e+02	-2.985312e+01
3.830819e+02	-2.990626e+01
3.852946e+02	-2.995450e+01
3.875200e+02	-3.000933e+01
3.897583e+02	-3.005220e+01
3.920096e+02	-3.010340e+01
3.942738e+02	-3.015655e+01
3.965511e+02	-3.020638e+01
3.988416e+02	-3.026499e+01
4.011452e+02	-3.030961e+01
4.034622e+02	-3.035025e+01
4.057926e+02	-3.040771e+01
4.081365e+02	-3.046200e+01
4.104938e+02	-3.050428e+01
4.128648e+02	-3.056080e+01
4.152495e+02	-3.060900e+01
4.176480e+02	-3.065012e+01
4.200603e+02	-3.070855e+01
4.224866e+02	-3.075554e+01
4.249268e+02	-3.080860e+01
4.273812e+02	-3.086055e+01
4.298497e+02	-3.090607e+01
4.323325e+02	-3.095795e+01
4.348297e+02	-3.100681e+01
4.373412e+02	-3.106337e+01
4.398673e+02	-3.110668e+01
4.424079e+02	-3.116252e+01
4.449633e+02	-3.120870e+01
4.475334e+02	-3.126181e+01
4.501183e+02	-3.130605e+01
4.527182e+02	-3.136127e+01
4.553330e+02	-3.141030e+01
4.579630e+02	-3.145884e+01
4.606082e+02	-3.150584e+01
4.632687e+02	-3.155673e+01
4.659445e+02	-3.161101e+01
4.686358e+02	-3.165839e+01
4.713426e+02	-3.170740e+01
4.740650e+02	-3.176608e+01
4.768032e+02	-3.180727e+01
4.795572e+02	-3.186449e+01
4.823271e+02	-3.191549e+01
4.851130e+02	-3.196628e+01
4.879150e+02	-3.201424e+01
4.907332e+02	-3.206390e+01
4.935676e+02	-3.211400e+01
4.964185e+02	-3.215801e+01
4.992858e+02	-3.221081e+01
5.021696e+02	-3.226221e+01
5.050701e+02	-3.231155e+01
5.079874e+02	-3.236075e+01
5.109215e+02	-3.241652e+01
5.138726e+02	-3.246383e+01
5.168407e+02	-3.251531e+01
5.198259e+02	-3.256353e+01
5.228284e+02	-3.261178e+01
5.258482e+02	-3.266955e+01
5.288855e+02	-3.270635e+01
5.319403e+02	-3.276661e+01
5.350128e+02	-3.281965e+01
5.381030e+02	-3.286133e+01
5.412111e+02	-3.291626e+01
5.443371e+02	-3.297178e+01
5.474812e+02	-3.301190e+01
5.506434e+02	-3.307265e+01
5.538239e+02	-3.310874e+01
5.570228e+02	-3.317363e+01
5.602401e+02	-3.321357e+01
5.634760e+02	-3.326746e+01
5.667306e+02	-3.332300e+01
5.700040e+02	-3.336712e+01
5.732964e+02	-3.341562e+01
5.766077e+02	-3.347211e+01
5.799382e+02	-3.351314e+01
5.832879e+02	-3.357250e+01
5.866569e+02	-3.362487e+01
5.900454e+02	-3.366832e+01
5.934535e+02	-3.371650e+01
5.968813e+02	-3.377581e+01
6.003288e+02	-3.381675e+01
6.037963e+02	-3.386548e+01
6.072838e+02	-3.391907e+01
6.107914e+02	-3.396480e+01
6.143194e+02	-3.401382e+01
6.178676e+02	-3.407082e+01
6.214364e+02	-3.412470e+01
6.250258e+02	-3.416879e+01
6.286359e+02	-3.422750e+01
6.322669e+02	-3.427586e+01
6.359189e+02	-3.432581e+01
6.395919e+02	-3.436911e+01
6.432862e+02	-3.441891e+01
6.470017e+02	-3.447111e+01
6.507388e+02	-3.452666e+01
6.544974e+02	-3.457296e+01
6.582778e+02	-3.463420e+01
6.620800e+02	-3.467126e+01
6.659041e+02	-3.472930e+01
6.697504e+02	-3.477390e+01
6.736188e+02	-3.483290e+01
6.775096e+02	-3.489090e+01
6.814229e+02	-3.492800e+01
6.853587e+02	-3.498630e+01
6.893173e+02	-3.502245e+01
6.932988e+02	-3.507945e+01
6.973033e+02	-3.513320e+01
7.013309e+02	-3.517422e+01
