Frequency(Hz)	Magnitude(dB)
1.000000e+01	-2.080686e+00
1.005776e+01	-2.100003e+00
1.011585e+01	-2.119022e+00
1.017428e+01	-2.138328e+00
1.023305e+01	-2.158313e+00
1.029215e+01	-2.177727e+00
1.035160e+01	-2.197402e+00
1.041139e+01	-2.217481e+00
1.047153e+01	-2.237443e+00
1.053201e+01	-2.258025e+00
1.059284e+01	-2.277970e+00
1.065403e+01	-2.298783e+00
1.071556e+01	-2.319178e+00
1.077746e+01	-2.340013e+00
1.083971e+01	-2.361043e+00
1.090232e+01	-2.382015e+00
1.096529e+01	-2.403123e+00
1.102862e+01	-2.424455e+00
1.109232e+01	-2.445988e+00
1.115639e+01	-2.467650e+00
1.122083e+01	-2.489379e+00
1.128564e+01	-2.511198e+00
1.135083e+01	-2.533321e+00
1.141639e+01	-2.555445e+00
1.148233e+01	-2.577614e+00
1.154865e+01	-2.600234e+00
1.161536e+01	-2.622868e+00
1.168245e+01	-2.645718e+00
1.174992e+01	-2.668182e+00
1.181779e+01	-2.691640e+00
1.188605e+01	-2.714479e+00
1.195470e+01	-2.738268e+00
1.202375e+01	-2.761443e+00
1.209320e+01	-2.784949e+00
1.216305e+01	-2.808704e+00
1.223330e+01	-2.832650e+00
1.230396e+01	-2.856785e+00
1.237503e+01	-2.880937e+00
1.244651e+01	-2.905160e+00
1.251840e+01	-2.929614e+00
1.259070e+01	-2.954378e+00
1.266343e+01	-2.978923e+00
1.273657e+01	-3.004110e+00
1.281014e+01	-3.029119e+00
1.288413e+01	-3.054278e+00
1.295855e+01	-3.079658e+00
1.303339e+01	-3.105367e+00
1.310867e+01	-3.130465e+00
1.318439e+01	-3.156531e+00
1.326054e+01	-3.182369e+00
1.333713e+01	-3.208481e+00
1.341417e+01	-3.234540e+00
1.349165e+01	-3.260809e+00
1.356958e+01	-3.287506e+00
1.364795e+01	-3.314018e+00
1.372678e+01	-3.340998e+00
1.380607e+01	-3.367850e+00
1.388581e+01	-3.394688e+00
1.396602e+01	-3.422110e+00
1.404668e+01	-3.449402e+00
1.412782e+01	-3.476714e+00
1.420942e+01	-3.504812e+00
1.429149e+01	-3.532499e+00
1.437404e+01	-3.560355e+00
1.445706e+01	-3.588335e+00
1.454057e+01	-3.616569e+00
1.462455e+01	-3.644787e+00
1.470902e+01	-3.673263e+00
1.479398e+01	-3.701979e+00
1.487943e+01	-3.730685e+00
1.496537e+01	-3.759612e+00
1.505181e+01	-3.788450e+00
1.513875e+01	-3.817808e+00
1.522619e+01	-3.847127e+00
1.531414e+01	-3.876849e+00
1.540259e+01	-3.906085e+00
1.549156e+01	-3.936058e+00
1.558103e+01	-3.965695e+00
1.567103e+01	-3.996041e+00
1.576155e+01	-4.025959e+00
1.585258e+01	-4.056518e+00
1.594415e+01	-4.086958e+00
1.603624e+01	-4.117301e+00
1.612886e+01	-4.147759e+00
1.622202e+01	-4.178857e+00
1.631572e+01	-4.209743e+00
1.640996e+01	-4.241074e+00
1.650474e+01	-4.272075e+00
1.660008e+01	-4.303429e+00
1.669596e+01	-4.335318e+00
1.679239e+01	-4.366666e+00
1.688938e+01	-4.398421e+00
1.698694e+01	-4.430688e+00
1.708505e+01	-4.462567e+00
1.718373e+01	-4.494948e+00
1.728299e+01	-4.527328e+00
1.738281e+01	-4.559590e+00
1.748322e+01	-4.592123e+00
1.758420e+01	-4.624686e+00
1.768576e+01	-4.657735e+00
1.778792e+01	-4.690901e+00
1.789066e+01	-4.723610e+00
1.799399e+01	-4.757025e+00
1.809793e+01	-4.790482e+00
1.820246e+01	-4.823935e+00
1.830760e+01	-4.857561e+00
1.841334e+01	-4.891209e+00
1.851969e+01	-4.925000e+00
1.862666e+01	-4.959058e+00
1.873425e+01	-4.993122e+00
1.884246e+01	-5.027250e+00
1.895129e+01	-5.061837e+00
1.906075e+01	-5.096303e+00
1.917085e+01	-5.130919e+00
1.928158e+01	-5.165802e+00
1.939295e+01	-5.200697e+00
1.950496e+01	-5.235401e+00
1.961762e+01	-5.270719e+00
1.973093e+01	-5.305639e+00
1.984490e+01	-5.341126e+00
1.995952e+01	-5.376631e+00
2.007480e+01	-5.412251e+00
2.019076e+01	-5.447728e+00
2.030738e+01	-5.483792e+00
2.042467e+01	-5.519712e+00
2.054264e+01	-5.556003e+00
2.066130e+01	-5.591573e+00
2.078064e+01	-5.628083e+00
2.090066e+01	-5.664458e+00
2.102139e+01	-5.701048e+00
2.114280e+01	-5.737831e+00
2.126492e+01	-5.774249e+00
2.138775e+01	-5.811250e+00
2.151128e+01	-5.848128e+00
2.163553e+01	-5.884885e+00
2.176050e+01	-5.922534e+00
2.188619e+01	-5.959833e+00
2.201260e+01	-5.997095e+00
2.213974e+01	-6.034928e+00
2.226762e+01	-6.072375e+00
2.239624e+01	-6.110297e+00
2.252560e+01	-6.147960e+00
2.265571e+01	-6.185785e+00
2.278656e+01	-6.224314e+00
2.291818e+01	-6.262250e+00
2.305055e+01	-6.300024e+00
2.318369e+01	-6.338341e+00
2.331760e+01	-6.376861e+00
2.345228e+01	-6.415514e+00
2.358774e+01	-6.453912e+00
2.372398e+01	-6.492972e+00
2.386101e+01	-6.531838e+00
2.399883e+01	-6.571041e+00
2.413745e+01	-6.609412e+00
2.427686e+01	-6.648930e+00
2.441709e+01	-6.687826e+00
2.455812e+01	-6.727829e+00
2.469997e+01	-6.767296e+00
2.484263e+01	-6.806679e+00
2.498612e+01	-6.846316e+00
2.513044e+01	-6.885900e+00
2.527559e+01	-6.926108e+00
2.542158e+01	-6.965563e+00
2.556842e+01	-7.005994e+00
2.571610e+01	-7.045830e+00
2.586463e+01	-7.086061e+00
2.601403e+01	-7.125738e+00
2.616428e+01	-7.166522e+00
2.631541e+01	-7.207288e+00
2.646740e+01	-7.247677e+00
2.662028e+01	-7.288352e+00
2.677404e+01	-7.329057e+00
2.692868e+01	-7.370215e+00
2.708422e+01	-7.410608e+00
2.724066e+01	-7.451851e+00
2.739800e+01	-7.492604e+00
2.755625e+01	-7.533834e+00
2.771541e+01	-7.575107e+00
2.787550e+01	-7.616334e+00
2.803650e+01	-7.658017e+00
2.819844e+01	-7.699516e+00
2.836131e+01	-7.740801e+00
2.852513e+01	-7.782661e+00
2.868989e+01	-7.824512e+00
2.885560e+01	-7.866231e+00
2.902227e+01	-7.908160e+00
2.918990e+01	-7.950139e+00
2.935850e+01	-7.992100e+00
2.952807e+01	-8.034086e+00
2.969863e+01	-8.076339e+00
2.987016e+01	-8.118326e+00
3.004269e+01	-8.161104e+00
3.021622e+01	-8.203217e+00
3.039075e+01	-8.246190e+00
3.056628e+01	-8.288850e+00
3.074283e+01	-8.330826e+00
3.092040e+01	-8.373703e+00
3.109900e+01	-8.416538e+00
3.127862e+01	-8.459836e+00
3.145929e+01	-8.502573e+00
3.164099e+01	-8.545419e+00
3.182375e+01	-8.588604e+00
3.200756e+01	-8.631640e+00
3.219244e+01	-8.674704e+00
3.237838e+01	-8.718007e+00
3.256540e+01	-8.761387e+00
3.275349e+01	-8.805146e+00
3.294268e+01	-8.848346e+00
3.313295e+01	-8.891646e+00
3.332433e+01	-8.935356e+00
3.351681e+01	-8.979275e+00
3.371040e+01	-9.023244e+00
3.390511e+01	-9.066264e+00
3.410094e+01	-9.110364e+00
3.429791e+01	-9.154356e+00
3.449601e+01	-9.198268e+00
3.469526e+01	-9.242313e+00
3.489566e+01	-9.286656e+00
3.509721e+01	-9.330968e+00
3.529993e+01	-9.374726e+00
3.550382e+01	-9.419251e+00
3.570889e+01	-9.463488e+00
3.591515e+01	-9.507688e+00
3.612259e+01	-9.552223e+00
3.633123e+01	-9.596762e+00
3.654108e+01	-9.641161e+00
3.675214e+01	-9.686083e+00
3.696442e+01	-9.730924e+00
3.717792e+01	-9.775520e+00
3.739266e+01	-9.820038e+00
3.760864e+01	-9.864856e+00
3.782587e+01	-9.910177e+00
3.804435e+01	-9.954762e+00
3.826409e+01	-9.999486e+00
3.848510e+01	-1.004504e+01
3.870739e+01	-1.009003e+01
3.893096e+01	-1.013502e+01
3.915583e+01	-1.018053e+01
3.938199e+01	-1.022569e+01
3.960946e+01	-1.027069e+01
3.983824e+01	-1.031628e+01
4.006834e+01	-1.036223e+01
4.029978e+01	-1.040709e+01
4.053255e+01	-1.045270e+01
4.076666e+01	-1.049809e+01
4.100213e+01	-1.054394e+01
4.123896e+01	-1.058939e+01
4.147715e+01	-1.063485e+01
4.171672e+01	-1.068125e+01
4.195767e+01	-1.072682e+01
4.220002e+01	-1.077266e+01
4.244377e+01	-1.081824e+01
4.268892e+01	-1.086372e+01
4.293549e+01	-1.091033e+01
4.318348e+01	-1.095629e+01
4.343291e+01	-1.100193e+01
4.368377e+01	-1.104821e+01
4.393609e+01	-1.109432e+01
4.418986e+01	-1.114061e+01
4.444510e+01	-1.118719e+01
4.470182e+01	-1.123287e+01
4.496001e+01	-1.127945e+01
4.521970e+01	-1.132523e+01
4.548089e+01	-1.137160e+01
4.574358e+01	-1.141831e+01
4.600779e+01	-1.146463e+01
4.627353e+01	-1.151145e+01
4.654081e+01	-1.155787e+01
4.680963e+01	-1.160370e+01
4.708000e+01	-1.165102e+01
4.735193e+01	-1.169814e+01
4.762543e+01	-1.174392e+01
4.790051e+01	-1.179034e+01
4.817719e+01	-1.183740e+01
4.845545e+01	-1.188459e+01
4.873533e+01	-1.193071e+01
4.901682e+01	-1.197819e+01
4.929994e+01	-1.202527e+01
4.958470e+01	-1.207156e+01
4.987110e+01	-1.211859e+01
5.015915e+01	-1.216593e+01
5.044887e+01	-1.221257e+01
5.074026e+01	-1.226000e+01
5.103333e+01	-1.230683e+01
5.132810e+01	-1.235386e+01
5.162457e+01	-1.240092e+01
5.192275e+01	-1.244798e+01
5.222265e+01	-1.249476e+01
5.252429e+01	-1.254336e+01
5.282767e+01	-1.258996e+01
5.313280e+01	-1.263684e+01
5.343969e+01	-1.268418e+01
5.374836e+01	-1.273193e+01
5.405880e+01	-1.277845e+01
5.437105e+01	-1.282665e+01
5.468509e+01	-1.287325e+01
5.500095e+01	-1.292215e+01
5.531863e+01	-1.296912e+01
5.563815e+01	-1.301621e+01
5.595951e+01	-1.306365e+01
5.628273e+01	-1.311170e+01
5.660782e+01	-1.315877e+01
5.693479e+01	-1.320669e+01
5.726364e+01	-1.325449e+01
5.759439e+01	-1.330222e+01
5.792705e+01	-1.334998e+01
5.826164e+01	-1.339756e+01
5.859815e+01	-1.344480e+01
5.893662e+01	-1.349330e+01
5.927703e+01	-1.354158e+01
5.961941e+01	-1.358850e+01
5.996377e+01	-1.363696e+01
6.031012e+01	-1.368442e+01
6.065847e+01	-1.373195e+01
6.100883e+01	-1.378003e+01
6.136121e+01	-1.382859e+01
6.171563e+01	-1.387702e+01
6.207210e+01	-1.392375e+01
6.243063e+01	-1.397253e+01
6.279122e+01	-1.402093e+01
6.315390e+01	-1.406850e+01
6.351868e+01	-1.411658e+01
6.388556e+01	-1.416388e+01
6.425456e+01	-1.421238e+01
6.462569e+01	-1.426094e+01
6.499897e+01	-1.430870e+01
6.537440e+01	-1.435708e+01
6.575200e+01	-1.440546e+01
6.613178e+01	-1.445414e+01
6.651375e+01	-1.450215e+01
6.689793e+01	-1.454987e+01
6.728433e+01	-1.459814e+01
6.767297e+01	-1.464647e+01
6.806384e+01	-1.469480e+01
6.845698e+01	-1.474315e+01
6.885238e+01	-1.479226e+01
6.925007e+01	-1.483954e+01
6.965005e+01	-1.488806e+01
7.005235e+01	-1.493699e+01
7.045697e+01	-1.498491e+01
7.086393e+01	-1.503498e+01
7.127323e+01	-1.508291e+01
7.168490e+01	-1.512989e+01
7.209895e+01	-1.517892e+01
7.251539e+01	-1.522813e+01
7.293424e+01	-1.527712e+01
7.335551e+01	-1.532485e+01
7.377920e+01	-1.537343e+01
7.420535e+01	-1.542077e+01
7.463396e+01	-1.547102e+01
7.506504e+01	-1.551890e+01
7.549861e+01	-1.556737e+01
7.593469e+01	-1.561633e+01
7.637328e+01	-1.566471e+01
7.681441e+01	-1.571481e+01
7.725809e+01	-1.576184e+01
7.770433e+01	-1.581133e+01
7.815315e+01	-1.585994e+01
7.860456e+01	-1.590921e+01
7.905857e+01	-1.595638e+01
7.951521e+01	-1.600615e+01
7.997449e+01	-1.605454e+01
8.043642e+01	-1.610277e+01
8.090102e+01	-1.615197e+01
8.136830e+01	-1.620165e+01
8.183828e+01	-1.625058e+01
8.231097e+01	-1.630005e+01
8.278640e+01	-1.634643e+01
8.326457e+01	-1.639587e+01
8.374550e+01	-1.644446e+01
8.422921e+01	-1.649456e+01
8.471572e+01	-1.654390e+01
8.520503e+01	-1.659191e+01
8.569717e+01	-1.664120e+01
8.619215e+01	-1.669016e+01
8.669000e+01	-1.674021e+01
8.719071e+01	-1.678768e+01
8.769432e+01	-1.683660e+01
8.820084e+01	-1.688688e+01
8.871029e+01	-1.693476e+01
8.922267e+01	-1.698370e+01
8.973802e+01	-1.703307e+01
9.025634e+01	-1.708217e+01
9.077766e+01	-1.713200e+01
9.130199e+01	-1.718079e+01
9.182935e+01	-1.723062e+01
9.235975e+01	-1.727835e+01
9.289321e+01	-1.732848e+01
9.342976e+01	-1.737739e+01
9.396941e+01	-1.742576e+01
9.451217e+01	-1.747471e+01
9.505807e+01	-1.752422e+01
9.560712e+01	-1.757378e+01
9.615934e+01	-1.762210e+01
9.671476e+01	-1.767215e+01
9.727338e+01	-1.772190e+01
9.783522e+01	-1.776896e+01
9.840032e+01	-1.781993e+01
9.896867e+01	-1.786845e+01
9.954031e+01	-1.791757e+01
1.001153e+02	-1.796611e+01
1.006935e+02	-1.801580e+01
1.012751e+02	-1.806542e+01
1.018601e+02	-1.811350e+01
1.024484e+02	-1.816427e+01
1.030402e+02	-1.821284e+01
1.036353e+02	-1.826292e+01
1.042339e+02	-1.831301e+01
1.048360e+02	-1.836136e+01
1.054415e+02	-1.841046e+01
1.060505e+02	-1.845919e+01
1.066631e+02	-1.851022e+01
1.072791e+02	-1.855671e+01
1.078988e+02	-1.860679e+01
1.085220e+02	-1.865827e+01
1.091488e+02	-1.870673e+01
1.097793e+02	-1.875546e+01
1.104133e+02	-1.880466e+01
1.110511e+02	-1.885464e+01
1.116925e+02	-1.890510e+01
1.123376e+02	-1.895135e+01
1.129865e+02	-1.900334e+01
1.136391e+02	-1.905369e+01
1.142955e+02	-1.910266e+01
1.149556e+02	-1.915266e+01
1.156196e+02	-1.920076e+01
1.162874e+02	-1.924987e+01
1.169591e+02	-1.930038e+01
1.176347e+02	-1.934877e+01
1.183141e+02	-1.939839e+01
1.189975e+02	-1.944754e+01
1.196848e+02	-1.949646e+01
1.203761e+02	-1.954800e+01
1.210714e+02	-1.959622e+01
1.217707e+02	-1.964596e+01
1.224740e+02	-1.969523e+01
1.231814e+02	-1.974507e+01
1.238929e+02	-1.979306e+01
1.246085e+02	-1.984476e+01
1.253283e+02	-1.989355e+01
1.260522e+02	-1.994254e+01
1.267802e+02	-1.999236e+01
1.275125e+02	-2.004089e+01
1.282490e+02	-2.009164e+01
1.289898e+02	-2.014116e+01
1.297348e+02	-2.019062e+01
1.304842e+02	-2.024022e+01
1.312378e+02	-2.028848e+01
1.319959e+02	-2.033755e+01
1.327583e+02	-2.038858e+01
1.335251e+02	-2.043959e+01
1.342963e+02	-2.048606e+01
1.350720e+02	-2.053766e+01
1.358522e+02	-2.058645e+01
1.366368e+02	-2.063689e+01
1.374260e+02	-2.068854e+01
1.382198e+02	-2.073593e+01
1.390182e+02	-2.078615e+01
1.398211e+02	-2.083592e+01
1.406287e+02	-2.088494e+01
1.414410e+02	-2.093504e+01
1.422579e+02	-2.098327e+01
1.430796e+02	-2.103427e+01
1.439060e+02	-2.108408e+01
1.447372e+02	-2.113371e+01
1.455732e+02	-2.118226e+01
1.464141e+02	-2.123295e+01
1.472597e+02	-2.128210e+01
1.481103e+02	-2.133024e+01
1.489658e+02	-2.138162e+01
1.498262e+02	-2.143352e+01
1.506916e+02	-2.148034e+01
1.515620e+02	-2.153016e+01
1.524374e+02	-2.158050e+01
1.533179e+02	-2.162951e+01
1.542034e+02	-2.167922e+01
1.550941e+02	-2.172907e+01
1.559899e+02	-2.178006e+01
1.568909e+02	-2.182800e+01
1.577971e+02	-2.187881e+01
1.587085e+02	-2.192755e+01
1.596252e+02	-2.197875e+01
1.605472e+02	-2.202639e+01
1.614745e+02	-2.207708e+01
1.624072e+02	-2.212740e+01
1.633453e+02	-2.217658e+01
1.642887e+02	-2.222694e+01
1.652377e+02	-2.227654e+01
1.661921e+02	-2.232448e+01
1.671520e+02	-2.237541e+01
1.681175e+02	-2.242740e+01
1.690885e+02	-2.247671e+01
1.700651e+02	-2.252333e+01
1.710474e+02	-2.257418e+01
1.720354e+02	-2.262584e+01
1.730291e+02	-2.267506e+01
1.740285e+02	-2.272390e+01
1.750337e+02	-2.277494e+01
1.760446e+02	-2.282512e+01
1.770615e+02	-2.287378e+01
1.780842e+02	-2.292509e+01
1.791128e+02	-2.297464e+01
1.801473e+02	-2.302234e+01
1.811878e+02	-2.307235e+01
1.822344e+02	-2.312326e+01
1.832870e+02	-2.317207e+01
1.843456e+02	-2.322369e+01
1.854104e+02	-2.327107e+01
1.864813e+02	-2.332145e+01
1.875584e+02	-2.337349e+01
1.886418e+02	-2.342036e+01
1.897313e+02	-2.346937e+01
1.908272e+02	-2.352112e+01
1.919294e+02	-2.357089e+01
1.930380e+02	-2.361972e+01
1.941530e+02	-2.367272e+01
1.952744e+02	-2.371867e+01
1.964023e+02	-2.377054e+01
1.975367e+02	-2.381785e+01
1.986777e+02	-2.387105e+01
1.998252e+02	-2.391948e+01
2.009794e+02	-2.396937e+01
2.021403e+02	-2.401837e+01
2.033078e+02	-2.406991e+01
2.044821e+02	-2.411849e+01
2.056632e+02	-2.416846e+01
2.068511e+02	-2.421965e+01
2.080459e+02	-2.426876e+01
2.092475e+02	-2.432008e+01
2.104561e+02	-2.436927e+01
2.116717e+02	-2.441888e+01
2.128943e+02	-2.446659e+01
2.141240e+02	-2.451856e+01
2.153608e+02	-2.456740e+01
2.166047e+02	-2.461815e+01
2.178558e+02	-2.466823e+01
2.191141e+02	-2.471951e+01
2.203797e+02	-2.476958e+01
2.216526e+02	-2.481831e+01
2.229329e+02	-2.486755e+01
2.242205e+02	-2.491586e+01
2.255156e+02	-2.497008e+01
2.268182e+02	-2.501473e+01
2.281283e+02	-2.506670e+01
2.294459e+02	-2.511619e+01
2.307712e+02	-2.516702e+01
2.321041e+02	-2.521715e+01
2.334447e+02	-2.526718e+01
2.347931e+02	-2.531902e+01
2.361493e+02	-2.536646e+01
2.375133e+02	-2.541775e+01
2.388851e+02	-2.546459e+01
2.402649e+02	-2.551624e+01
2.416527e+02	-2.556565e+01
2.430484e+02	-2.561778e+01
2.444523e+02	-2.566378e+01
2.458642e+02	-2.571489e+01
2.472843e+02	-2.576666e+01
2.487126e+02	-2.581274e+01
2.501492e+02	-2.586370e+01
2.515940e+02	-2.591455e+01
2.530472e+02	-2.596683e+01
2.545088e+02	-2.601621e+01
2.559789e+02	-2.606645e+01
2.574574e+02	-2.611324e+01
2.589444e+02	-2.616559e+01
2.604401e+02	-2.621598e+01
2.619444e+02	-2.626463e+01
2.634574e+02	-2.631423e+01
2.649791e+02	-2.636384e+01
2.665096e+02	-2.641552e+01
2.680489e+02	-2.646429e+01
2.695972e+02	-2.651716e+01
2.711544e+02	-2.656356e+01
2.727205e+02	-2.661417e+01
2.742958e+02	-2.666513e+01
2.758801e+02	-2.671822e+01
2.774736e+02	-2.676465e+01
2.790762e+02	-2.681470e+01
2.806882e+02	-2.686460e+01
2.823094e+02	-2.691332e+01
2.839400e+02	-2.696547e+01
2.855800e+02	-2.701520e+01
2.872295e+02	-2.706417e+01
2.888886e+02	-2.711515e+01
2.905572e+02	-2.716874e+01
2.922354e+02	-2.721416e+01
2.939234e+02	-2.726654e+01
2.956211e+02	-2.731655e+01
2.973286e+02	-2.736656e+01
2.990459e+02	-2.741189e+01
3.007732e+02	-2.746297e+01
3.025104e+02	-2.751348e+01
3.042577e+02	-2.756346e+01
3.060151e+02	-2.761537e+01
3.077826e+02	-2.766536e+01
3.095604e+02	-2.771786e+01
3.113484e+02	-2.776494e+01
3.131467e+02	-2.781740e+01
3.149554e+02	-2.786578e+01
3.167746e+02	-2.791363e+01
3.186043e+02	-2.796545e+01
3.204445e+02	-2.801662e+01
3.222954e+02	-2.806392e+01
3.241570e+02	-2.811619e+01
3.260293e+02	-2.816758e+01
3.279124e+02	-2.821409e+01
3.298064e+02	-2.826001e+01
3.317114e+02	-2.831551e+01
3.336273e+02	-2.836616e+01
3.355544e+02	-2.841514e+01
3.374925e+02	-2.846698e+01
3.394418e+02	-2.851993e+01
3.414024e+02	-2.856605e+01
3.433744e+02	-2.861205e+01
3.453577e+02	-2.866397e+01
3.473525e+02	-2.871868e+01
3.493588e+02	-2.876945e+01
3.513766e+02	-2.881316e+01
3.534062e+02	-2.886357e+01
3.554474e+02	-2.891616e+01
3.575005e+02	-2.896520e+01
3.595654e+02	-2.901277e+01
3.616422e+02	-2.906461e+01
3.637311e+02	-2.911380e+01
3.658320e+02	-2.916669e+01
3.679450e+02	-2.921352e+01
3.700702e+02	-2.926659e+01
3.722077e+02	-2.932133e+01
3.743576e+02	-2.936614e+01
3.765199e+02	-2.941324e+01
3.786946e+02	-2.946437e+01
3.808820e+02	-2.951665e+01
3.830819e+02	-2.957459e+01
3.852946e+02	-2.962067e+01
3.875200e+02	-2.966898e+01
3.897583e+02	-2.971627e+01
3.920096e+02	-2.977267e+01
3.942738e+02	-2.982008e+01
3.965511e+02	-2.986862e+01
3.988416e+02	-2.992182e+01
4.011452e+02	-2.996587e+01
4.034622e+02	-3.001524e+01
4.057926e+02	-3.007102e+01
4.081365e+02	-3.012443e+01
4.104938e+02	-3.016588e+01
4.128648e+02	-3.021952e+01
4.152495e+02	-3.026923e+01
4.176480e+02	-3.032198e+01
4.200603e+02	-3.037435e+01
4.224866e+02	-3.042177e+01
4.249268e+02	-3.047284e+01
4.273812e+02	-3.052206e+01
4.298497e+02	-3.056947e+01
4.323325e+02	-3.061824e+01
4.348297e+02	-3.067482e+01
4.373412e+02	-3.071493e+01
4.398673e+02	-3.076505e+01
4.424079e+02	-3.081526e+01
4.449633e+02	-3.086834e+01
4.475334e+02	-3.091609e+01
4.501183e+02	-3.097336e+01
4.527182e+02	-3.101956e+01
4.553330e+02	-3.106630e+01
4.579630e+02	-3.111930e+01
4.606082e+02	-3.118005e+01
4.632687e+02	-3.121850e+01
4.659445e+02	-3.127060e+01
4.686358e+02	-3.132119e+01
4.713426e+02	-3.136286e+01
4.740650e+02	-3.142544e+01
4.768032e+02	-3.147109e+01
4.795572e+02	-3.152378e+01
4.823271e+02	-3.156603e+01
4.851130e+02	-3.162377e+01
4.879150e+02	-3.166746e+01
4.907332e+02	-3.172185e+01
4.935676e+02	-3.177551e+01
4.964185e+02	-3.182413e+01
4.992858e+02	-3.187388e+01
5.021696e+02	-3.192875e+01
5.050701e+02	-3.197128e+01
5.079874e+02	-3.202602e+01
5.109215e+02	-3.207415e+01
5.138726e+02	-3.212492e+01
5.168407e+02	-3.217140e+01
5.198259e+02	-3.222196e+01
5.228284e+02	-3.227314e+01
5.258482e+02	-3.232861e+01
5.288855e+02	-3.237649e+01
5.319403e+02	-3.242521e+01
5.350128e+02	-3.247880e+01
5.381030e+02	-3.252207e+01
5.412111e+02	-3.257869e+01
5.443371e+02	-3.262450e+01
5.474812e+02	-3.267700e+01
5.506434e+02	-3.272612e+01
5.538239e+02	-3.277619e+01
5.570228e+02	-3.282598e+01
5.602401e+02	-3.287437e+01
5.634760e+02	-3.292677e+01
5.667306e+02	-3.298339e+01
5.700040e+02	-3.302667e+01
5.732964e+02	-3.307792e+01
5.766077e+02	-3.311899e+01
5.799382e+02	-3.317577e+01
5.832879e+02	-3.322854e+01
5.866569e+02	-3.327550e+01
5.900454e+02	-3.332965e+01
5.934535e+02	-3.337443e+01
5.968813e+02	-3.342607e+01
6.003288e+02	-3.347575e+01
6.037963e+02	-3.353606e+01
6.072838e+02	-3.357200e+01
6.107914e+02	-3.363264e+01
6.143194e+02	-3.368151e+01
6.178676e+02	-3.373231e+01
6.214364e+02	-3.378134e+01
6.250258e+02	-3.383536e+01
6.286359e+02	-3.388560e+01
6.322669e+02	-3.393242e+01
6.359189e+02	-3.399001e+01
6.395919e+02	-3.403998e+01
6.432862e+02	-3.407580e+01
6.470017e+02	-3.413338e+01
6.507388e+02	-3.418574e+01
6.544974e+02	-3.423438e+01
6.582778e+02	-3.428243e+01
6.620800e+02	-3.433303e+01
6.659041e+02	-3.438704e+01
6.697504e+02	-3.443973e+01
6.736188e+02	-3.448454e+01
6.775096e+02	-3.454124e+01
6.814229e+02	-3.458067e+01
6.853587e+02	-3.464571e+01
6.893173e+02	-3.468470e+01
6.932988e+02	-3.473576e+01
6.973033e+02	-3.479213e+01
7.013309e+02	-3.483749e+01
