Frequency(Hz)	Magnitude(dB)
1.000000e+01	-1.977664e+00
1.005776e+01	-1.996037e+00
1.011585e+01	-2.014498e+00
1.017428e+01	-2.033159e+00
1.023305e+01	-2.051811e+00
1.029215e+01	-2.070641e+00
1.035160e+01	-2.089563e+00
1.041139e+01	-2.108791e+00
1.047153e+01	-2.128271e+00
1.053201e+01	-2.147706e+00
1.059284e+01	-2.167208e+00
1.065403e+01	-2.187036e+00
1.071556e+01	-2.206864e+00
1.077746e+01	-2.227016e+00
1.083971e+01	-2.247326e+00
1.090232e+01	-2.267195e+00
1.096529e+01	-2.287871e+00
1.102862e+01	-2.308434e+00
1.109232e+01	-2.329186e+00
1.115639e+01	-2.349691e+00
1.122083e+01	-2.370694e+00
1.128564e+01	-2.392010e+00
1.135083e+01	-2.413149e+00
1.141639e+01	-2.434518e+00
1.148233e+01	-2.456282e+00
1.154865e+01	-2.477749e+00
1.161536e+01	-2.499555e+00
1.168245e+01	-2.521535e+00
1.174992e+01	-2.543899e+00
1.181779e+01	-2.566006e+00
1.188605e+01	-2.588335e+00
1.195470e+01	-2.610851e+00
1.202375e+01	-2.633452e+00
1.209320e+01	-2.656309e+00
1.216305e+01	-2.679404e+00
1.223330e+01	-2.702575e+00
1.230396e+01	-2.725601e+00
1.237503e+01	-2.749063e+00
1.244651e+01	-2.772465e+00
1.251840e+01	-2.796339e+00
1.259070e+01	-2.819886e+00
1.266343e+01	-2.843939e+00
1.273657e+01	-2.868160e+00
1.281014e+01	-2.892488e+00
1.288413e+01	-2.916682e+00
1.295855e+01	-2.941210e+00
1.303339e+01	-2.965987e+00
1.310867e+01	-2.990734e+00
1.318439e+01	-3.015884e+00
1.326054e+01	-3.040673e+00
1.333713e+01	-3.065989e+00
1.341417e+01	-3.091537e+00
1.349165e+01	-3.117083e+00
1.356958e+01	-3.142709e+00
1.364795e+01	-3.168369e+00
1.372678e+01	-3.194730e+00
1.380607e+01	-3.221006e+00
1.388581e+01	-3.247029e+00
1.396602e+01	-3.273296e+00
1.404668e+01	-3.299754e+00
1.412782e+01	-3.326443e+00
1.420942e+01	-3.353613e+00
1.429149e+01	-3.380679e+00
1.437404e+01	-3.407866e+00
1.445706e+01	-3.435095e+00
1.454057e+01	-3.462112e+00
1.462455e+01	-3.489885e+00
1.470902e+01	-3.517457e+00
1.479398e+01	-3.545630e+00
1.487943e+01	-3.573369e+00
1.496537e+01	-3.601458e+00
1.505181e+01	-3.629840e+00
1.513875e+01	-3.658046e+00
1.522619e+01	-3.686572e+00
1.531414e+01	-3.715564e+00
1.540259e+01	-3.744158e+00
1.549156e+01	-3.773048e+00
1.558103e+01	-3.802281e+00
1.567103e+01	-3.831758e+00
1.576155e+01	-3.860903e+00
1.585258e+01	-3.890430e+00
1.594415e+01	-3.920395e+00
1.603624e+01	-3.949732e+00
1.612886e+01	-3.979681e+00
1.622202e+01	-4.010291e+00
1.631572e+01	-4.040037e+00
1.640996e+01	-4.070702e+00
1.650474e+01	-4.100857e+00
1.660008e+01	-4.131917e+00
1.669596e+01	-4.162690e+00
1.679239e+01	-4.193571e+00
1.688938e+01	-4.224766e+00
1.698694e+01	-4.255576e+00
1.708505e+01	-4.286768e+00
1.718373e+01	-4.318429e+00
1.728299e+01	-4.350054e+00
1.738281e+01	-4.381779e+00
1.748322e+01	-4.413412e+00
1.758420e+01	-4.445707e+00
1.768576e+01	-4.477517e+00
1.778792e+01	-4.509846e+00
1.789066e+01	-4.542413e+00
1.799399e+01	-4.575113e+00
1.809793e+01	-4.607501e+00
1.820246e+01	-4.640312e+00
1.830760e+01	-4.672952e+00
1.841334e+01	-4.706211e+00
1.851969e+01	-4.739181e+00
1.862666e+01	-4.772567e+00
1.873425e+01	-4.806307e+00
1.884246e+01	-4.839428e+00
1.895129e+01	-4.873429e+00
1.906075e+01	-4.907154e+00
1.917085e+01	-4.941192e+00
1.928158e+01	-4.975152e+00
1.939295e+01	-5.008912e+00
1.950496e+01	-5.043819e+00
1.961762e+01	-5.077992e+00
1.973093e+01	-5.112574e+00
1.984490e+01	-5.147219e+00
1.995952e+01	-5.181916e+00
2.007480e+01	-5.217143e+00
2.019076e+01	-5.251920e+00
2.030738e+01	-5.287243e+00
2.042467e+01	-5.322347e+00
2.054264e+01	-5.358005e+00
2.066130e+01	-5.393556e+00
2.078064e+01	-5.429043e+00
2.090066e+01	-5.464775e+00
2.102139e+01	-5.500724e+00
2.114280e+01	-5.536729e+00
2.126492e+01	-5.572397e+00
2.138775e+01	-5.608708e+00
2.151128e+01	-5.645290e+00
2.163553e+01	-5.681590e+00
2.176050e+01	-5.717850e+00
2.188619e+01	-5.754971e+00
2.201260e+01	-5.791668e+00
2.213974e+01	-5.828675e+00
2.226762e+01	-5.865609e+00
2.239624e+01	-5.902653e+00
2.252560e+01	-5.939788e+00
2.265571e+01	-5.977323e+00
2.278656e+01	-6.014904e+00
2.291818e+01	-6.052160e+00
2.305055e+01	-6.090112e+00
2.318369e+01	-6.127904e+00
2.331760e+01	-6.165675e+00
2.345228e+01	-6.203291e+00
2.358774e+01	-6.241912e+00
2.372398e+01	-6.279952e+00
2.386101e+01	-6.318317e+00
2.399883e+01	-6.356709e+00
2.413745e+01	-6.395015e+00
2.427686e+01	-6.433575e+00
2.441709e+01	-6.472235e+00
2.455812e+01	-6.510897e+00
2.469997e+01	-6.549979e+00
2.484263e+01	-6.589089e+00
2.498612e+01	-6.627861e+00
2.513044e+01	-6.667134e+00
2.527559e+01	-6.706783e+00
2.542158e+01	-6.746085e+00
2.556842e+01	-6.785179e+00
2.571610e+01	-6.825211e+00
2.586463e+01	-6.865054e+00
2.601403e+01	-6.904698e+00
2.616428e+01	-6.944669e+00
2.631541e+01	-6.984163e+00
2.646740e+01	-7.024613e+00
2.662028e+01	-7.064461e+00
2.677404e+01	-7.104800e+00
2.692868e+01	-7.145016e+00
2.708422e+01	-7.185675e+00
2.724066e+01	-7.225470e+00
2.739800e+01	-7.266342e+00
2.755625e+01	-7.307891e+00
2.771541e+01	-7.348106e+00
2.787550e+01	-7.389185e+00
2.803650e+01	-7.430164e+00
2.819844e+01	-7.470820e+00
2.836131e+01	-7.511956e+00
2.852513e+01	-7.553506e+00
2.868989e+01	-7.594244e+00
2.885560e+01	-7.635780e+00
2.902227e+01	-7.677443e+00
2.918990e+01	-7.718996e+00
2.935850e+01	-7.760749e+00
2.952807e+01	-7.802075e+00
2.969863e+01	-7.844026e+00
2.987016e+01	-7.886020e+00
3.004269e+01	-7.927703e+00
3.021622e+01	-7.969684e+00
3.039075e+01	-8.011678e+00
3.056628e+01	-8.053959e+00
3.074283e+01	-8.095978e+00
3.092040e+01	-8.138536e+00
3.109900e+01	-8.180673e+00
3.127862e+01	-8.223555e+00
3.145929e+01	-8.265687e+00
3.164099e+01	-8.308563e+00
3.182375e+01	-8.351031e+00
3.200756e+01	-8.393895e+00
3.219244e+01	-8.436944e+00
3.237838e+01	-8.479343e+00
3.256540e+01	-8.522666e+00
3.275349e+01	-8.565862e+00
3.294268e+01	-8.608618e+00
3.313295e+01	-8.651721e+00
3.332433e+01	-8.694900e+00
3.351681e+01	-8.738694e+00
3.371040e+01	-8.781951e+00
3.390511e+01	-8.825127e+00
3.410094e+01	-8.868659e+00
3.429791e+01	-8.911805e+00
3.449601e+01	-8.956184e+00
3.469526e+01	-8.999391e+00
3.489566e+01	-9.043527e+00
3.509721e+01	-9.087492e+00
3.529993e+01	-9.130916e+00
3.550382e+01	-9.174598e+00
3.570889e+01	-9.219324e+00
3.591515e+01	-9.263645e+00
3.612259e+01	-9.307358e+00
3.633123e+01	-9.351484e+00
3.654108e+01	-9.395684e+00
3.675214e+01	-9.439703e+00
3.696442e+01	-9.484299e+00
3.717792e+01	-9.528566e+00
3.739266e+01	-9.573598e+00
3.760864e+01	-9.617870e+00
3.782587e+01	-9.662331e+00
3.804435e+01	-9.707030e+00
3.826409e+01	-9.751558e+00
3.848510e+01	-9.796437e+00
3.870739e+01	-9.841774e+00
3.893096e+01	-9.886484e+00
3.915583e+01	-9.931176e+00
3.938199e+01	-9.975941e+00
3.960946e+01	-1.002098e+01
3.983824e+01	-1.006548e+01
4.006834e+01	-1.011116e+01
4.029978e+01	-1.015651e+01
4.053255e+01	-1.020163e+01
4.076666e+01	-1.024678e+01
4.100213e+01	-1.029257e+01
4.123896e+01	-1.033718e+01
4.147715e+01	-1.038328e+01
4.171672e+01	-1.042864e+01
4.195767e+01	-1.047379e+01
4.220002e+01	-1.051949e+01
4.244377e+01	-1.056557e+01
4.268892e+01	-1.061088e+01
4.293549e+01	-1.065753e+01
4.318348e+01	-1.070249e+01
4.343291e+01	-1.074802e+01
4.368377e+01	-1.079426e+01
4.393609e+01	-1.083952e+01
4.418986e+01	-1.088573e+01
4.444510e+01	-1.093197e+01
4.470182e+01	-1.097765e+01
4.496001e+01	-1.102406e+01
4.521970e+01	-1.106964e+01
4.548089e+01	-1.111603e+01
4.574358e+01	-1.116206e+01
4.600779e+01	-1.120891e+01
4.627353e+01	-1.125525e+01
4.654081e+01	-1.130135e+01
4.680963e+01	-1.134773e+01
4.708000e+01	-1.139406e+01
4.735193e+01	-1.143977e+01
4.762543e+01	-1.148668e+01
4.790051e+01	-1.153257e+01
4.817719e+01	-1.157970e+01
4.845545e+01	-1.162562e+01
4.873533e+01	-1.167236e+01
4.901682e+01	-1.171973e+01
4.929994e+01	-1.176607e+01
4.958470e+01	-1.181264e+01
4.987110e+01	-1.185978e+01
5.015915e+01	-1.190640e+01
5.044887e+01	-1.195306e+01
5.074026e+01	-1.200029e+01
5.103333e+01	-1.204754e+01
5.132810e+01	-1.209438e+01
5.162457e+01	-1.214141e+01
5.192275e+01	-1.218788e+01
5.222265e+01	-1.223508e+01
5.252429e+01	-1.228160e+01
5.282767e+01	-1.232895e+01
5.313280e+01	-1.237586e+01
5.343969e+01	-1.242407e+01
5.374836e+01	-1.247036e+01
5.405880e+01	-1.251709e+01
5.437105e+01	-1.256501e+01
5.468509e+01	-1.261238e+01
5.500095e+01	-1.265970e+01
5.531863e+01	-1.270733e+01
5.563815e+01	-1.275361e+01
5.595951e+01	-1.280147e+01
5.628273e+01	-1.284894e+01
5.660782e+01	-1.289626e+01
5.693479e+01	-1.294391e+01
5.726364e+01	-1.299085e+01
5.759439e+01	-1.303851e+01
5.792705e+01	-1.308682e+01
5.826164e+01	-1.313433e+01
5.859815e+01	-1.318082e+01
5.893662e+01	-1.322977e+01
5.927703e+01	-1.327725e+01
5.961941e+01	-1.332452e+01
5.996377e+01	-1.337211e+01
6.031012e+01	-1.342049e+01
6.065847e+01	-1.346736e+01
6.100883e+01	-1.351584e+01
6.136121e+01	-1.356304e+01
6.171563e+01	-1.361196e+01
6.207210e+01	-1.365899e+01
6.243063e+01	-1.370690e+01
6.279122e+01	-1.375397e+01
6.315390e+01	-1.380231e+01
6.351868e+01	-1.385017e+01
6.388556e+01	-1.389828e+01
6.425456e+01	-1.394634e+01
6.462569e+01	-1.399491e+01
6.499897e+01	-1.404269e+01
6.537440e+01	-1.409069e+01
6.575200e+01	-1.413864e+01
6.613178e+01	-1.418744e+01
6.651375e+01	-1.423437e+01
6.689793e+01	-1.428300e+01
6.728433e+01	-1.433172e+01
6.767297e+01	-1.437924e+01
6.806384e+01	-1.442834e+01
6.845698e+01	-1.447688e+01
6.885238e+01	-1.452383e+01
6.925007e+01	-1.457180e+01
6.965005e+01	-1.462085e+01
7.005235e+01	-1.466924e+01
7.045697e+01	-1.471693e+01
7.086393e+01	-1.476601e+01
7.127323e+01	-1.481421e+01
7.168490e+01	-1.486363e+01
7.209895e+01	-1.491115e+01
7.251539e+01	-1.495925e+01
7.293424e+01	-1.500802e+01
7.335551e+01	-1.505648e+01
7.377920e+01	-1.510585e+01
7.420535e+01	-1.515310e+01
7.463396e+01	-1.520187e+01
7.506504e+01	-1.525028e+01
7.549861e+01	-1.529898e+01
7.593469e+01	-1.534693e+01
7.637328e+01	-1.539685e+01
7.681441e+01	-1.544516e+01
7.725809e+01	-1.549318e+01
7.770433e+01	-1.554162e+01
7.815315e+01	-1.559099e+01
7.860456e+01	-1.563830e+01
7.905857e+01	-1.568936e+01
7.951521e+01	-1.573648e+01
7.997449e+01	-1.578498e+01
8.043642e+01	-1.583417e+01
8.090102e+01	-1.588227e+01
8.136830e+01	-1.593123e+01
8.183828e+01	-1.598013e+01
8.231097e+01	-1.602829e+01
8.278640e+01	-1.607785e+01
8.326457e+01	-1.612558e+01
8.374550e+01	-1.617484e+01
8.422921e+01	-1.622460e+01
8.471572e+01	-1.627325e+01
8.520503e+01	-1.632055e+01
8.569717e+01	-1.637162e+01
8.619215e+01	-1.641950e+01
8.669000e+01	-1.646829e+01
8.719071e+01	-1.651837e+01
8.769432e+01	-1.656648e+01
8.820084e+01	-1.661459e+01
8.871029e+01	-1.666496e+01
8.922267e+01	-1.671273e+01
8.973802e+01	-1.676198e+01
9.025634e+01	-1.681138e+01
9.077766e+01	-1.686120e+01
9.130199e+01	-1.690932e+01
9.182935e+01	-1.695923e+01
9.235975e+01	-1.700658e+01
9.289321e+01	-1.705711e+01
9.342976e+01	-1.710557e+01
9.396941e+01	-1.715496e+01
9.451217e+01	-1.720463e+01
9.505807e+01	-1.725250e+01
9.560712e+01	-1.730129e+01
9.615934e+01	-1.735088e+01
9.671476e+01	-1.740068e+01
9.727338e+01	-1.744986e+01
9.783522e+01	-1.749853e+01
9.840032e+01	-1.754876e+01
9.896867e+01	-1.759715e+01
9.954031e+01	-1.764623e+01
1.001153e+02	-1.769488e+01
1.006935e+02	-1.774321e+01
1.012751e+02	-1.779354e+01
1.018601e+02	-1.784208e+01
1.024484e+02	-1.789211e+01
1.030402e+02	-1.793997e+01
1.036353e+02	-1.798997e+01
1.042339e+02	-1.803892e+01
1.048360e+02	-1.808879e+01
1.054415e+02	-1.813739e+01
1.060505e+02	-1.818711e+01
1.066631e+02	-1.823671e+01
1.072791e+02	-1.828622e+01
1.078988e+02	-1.833608e+01
1.085220e+02	-1.838571e+01
1.091488e+02	-1.843368e+01
1.097793e+02	-1.848290e+01
1.104133e+02	-1.853416e+01
1.110511e+02	-1.858173e+01
1.116925e+02	-1.863053e+01
1.123376e+02	-1.867853e+01
1.129865e+02	-1.873073e+01
1.136391e+02	-1.877873e+01
1.142955e+02	-1.882920e+01
1.149556e+02	-1.887770e+01
1.156196e+02	-1.892755e+01
1.162874e+02	-1.897647e+01
1.169591e+02	-1.902593e+01
1.176347e+02	-1.907520e+01
1.183141e+02	-1.912393e+01
1.189975e+02	-1.917508e+01
1.196848e+02	-1.922216e+01
1.203761e+02	-1.927196e+01
1.210714e+02	-1.932290e+01
1.217707e+02	-1.937215e+01
1.224740e+02	-1.942205e+01
1.231814e+02	-1.947035e+01
1.238929e+02	-1.952107e+01
1.246085e+02	-1.957043e+01
1.253283e+02	-1.961930e+01
1.260522e+02	-1.966900e+01
1.267802e+02	-1.971723e+01
1.275125e+02	-1.976744e+01
1.282490e+02	-1.981732e+01
1.289898e+02	-1.986820e+01
1.297348e+02	-1.991495e+01
1.304842e+02	-1.996540e+01
1.312378e+02	-2.001486e+01
1.319959e+02	-2.006485e+01
1.327583e+02	-2.011630e+01
1.335251e+02	-2.016383e+01
1.342963e+02	-2.021481e+01
1.350720e+02	-2.026303e+01
1.358522e+02	-2.031118e+01
1.366368e+02	-2.036285e+01
1.374260e+02	-2.041093e+01
1.382198e+02	-2.046189e+01
1.390182e+02	-2.051154e+01
1.398211e+02	-2.056000e+01
1.406287e+02	-2.061017e+01
1.414410e+02	-2.066149e+01
1.422579e+02	-2.071028e+01
1.430796e+02	-2.075944e+01
1.439060e+02	-2.080841e+01
1.447372e+02	-2.085859e+01
1.455732e+02	-2.090946e+01
1.464141e+02	-2.095865e+01
1.472597e+02	-2.100834e+01
1.481103e+02	-2.105773e+01
1.489658e+02	-2.110556e+01
1.498262e+02	-2.115760e+01
1.506916e+02	-2.120656e+01
1.515620e+02	-2.125825e+01
1.524374e+02	-2.130529e+01
1.533179e+02	-2.135761e+01
1.542034e+02	-2.140596e+01
1.550941e+02	-2.145364e+01
1.559899e+02	-2.150478e+01
1.568909e+02	-2.155341e+01
1.577971e+02	-2.160330e+01
1.587085e+02	-2.165456e+01
1.596252e+02	-2.170290e+01
1.605472e+02	-2.175225e+01
1.614745e+02	-2.180452e+01
1.624072e+02	-2.185102e+01
1.633453e+02	-2.190243e+01
1.642887e+02	-2.195125e+01
1.652377e+02	-2.200040e+01
1.661921e+02	-2.204987e+01
1.671520e+02	-2.209998e+01
1.681175e+02	-2.215042e+01
1.690885e+02	-2.219950e+01
1.700651e+02	-2.225111e+01
1.710474e+02	-2.229888e+01
1.720354e+02	-2.234981e+01
1.730291e+02	-2.239750e+01
1.740285e+02	-2.244895e+01
1.750337e+02	-2.250029e+01
1.760446e+02	-2.254996e+01
1.770615e+02	-2.259820e+01
1.780842e+02	-2.264877e+01
1.791128e+02	-2.269923e+01
1.801473e+02	-2.274735e+01
1.811878e+02	-2.279853e+01
1.822344e+02	-2.284534e+01
1.832870e+02	-2.289751e+01
1.843456e+02	-2.294673e+01
1.854104e+02	-2.299706e+01
1.864813e+02	-2.304691e+01
1.875584e+02	-2.309587e+01
1.886418e+02	-2.314721e+01
1.897313e+02	-2.319567e+01
1.908272e+02	-2.324492e+01
1.919294e+02	-2.329453e+01
1.930380e+02	-2.334717e+01
1.941530e+02	-2.339283e+01
1.952744e+02	-2.344355e+01
1.964023e+02	-2.349374e+01
1.975367e+02	-2.354301e+01
1.986777e+02	-2.359343e+01
1.998252e+02	-2.364396e+01
2.009794e+02	-2.369317e+01
2.021403e+02	-2.374434e+01
2.033078e+02	-2.379294e+01
2.044821e+02	-2.384185e+01
2.056632e+02	-2.389458e+01
2.068511e+02	-2.394364e+01
2.080459e+02	-2.399440e+01
2.092475e+02	-2.404477e+01
2.104561e+02	-2.409093e+01
2.116717e+02	-2.414270e+01
2.128943e+02	-2.419509e+01
2.141240e+02	-2.424131e+01
2.153608e+02	-2.429161e+01
2.166047e+02	-2.433991e+01
2.178558e+02	-2.439167e+01
2.191141e+02	-2.444180e+01
2.203797e+02	-2.449189e+01
2.216526e+02	-2.454320e+01
2.229329e+02	-2.459252e+01
2.242205e+02	-2.464290e+01
2.255156e+02	-2.469282e+01
2.268182e+02	-2.474413e+01
2.281283e+02	-2.479078e+01
2.294459e+02	-2.484295e+01
2.307712e+02	-2.489143e+01
2.321041e+02	-2.494078e+01
2.334447e+02	-2.499201e+01
2.347931e+02	-2.504147e+01
2.361493e+02	-2.509176e+01
2.375133e+02	-2.513919e+01
2.388851e+02	-2.519109e+01
2.402649e+02	-2.524222e+01
2.416527e+02	-2.528915e+01
2.430484e+02	-2.533819e+01
2.444523e+02	-2.539030e+01
2.458642e+02	-2.543727e+01
2.472843e+02	-2.549119e+01
2.487126e+02	-2.554211e+01
2.501492e+02	-2.559381e+01
2.515940e+02	-2.564180e+01
2.530472e+02	-2.569110e+01
2.545088e+02	-2.573899e+01
2.559789e+02	-2.578717e+01
2.574574e+02	-2.584287e+01
2.589444e+02	-2.589107e+01
2.604401e+02	-2.593907e+01
2.619444e+02	-2.598802e+01
2.634574e+02	-2.603818e+01
2.649791e+02	-2.608880e+01
2.665096e+02	-2.613836e+01
2.680489e+02	-2.619250e+01
2.695972e+02	-2.623942e+01
2.711544e+02	-2.628748e+01
2.727205e+02	-2.633736e+01
2.742958e+02	-2.639045e+01
2.758801e+02	-2.643718e+01
2.774736e+02	-2.648642e+01
2.790762e+02	-2.654199e+01
2.806882e+02	-2.658896e+01
2.823094e+02	-2.663822e+01
2.839400e+02	-2.668863e+01
2.855800e+02	-2.673795e+01
2.872295e+02	-2.678874e+01
2.888886e+02	-2.683944e+01
2.905572e+02	-2.688885e+01
2.922354e+02	-2.693989e+01
2.939234e+02	-2.698862e+01
2.956211e+02	-2.703753e+01
2.973286e+02	-2.708757e+01
2.990459e+02	-2.713910e+01
3.007732e+02	-2.718671e+01
3.025104e+02	-2.723810e+01
3.042577e+02	-2.728888e+01
3.060151e+02	-2.733720e+01
3.077826e+02	-2.739121e+01
3.095604e+02	-2.743569e+01
3.113484e+02	-2.748504e+01
3.131467e+02	-2.754091e+01
3.149554e+02	-2.759120e+01
3.167746e+02	-2.764056e+01
3.186043e+02	-2.768854e+01
3.204445e+02	-2.773938e+01
3.222954e+02	-2.778852e+01
3.241570e+02	-2.783794e+01
3.260293e+02	-2.788822e+01
3.279124e+02	-2.793785e+01
3.298064e+02	-2.799071e+01
3.317114e+02	-2.803920e+01
3.336273e+02	-2.809024e+01
3.355544e+02	-2.814176e+01
3.374925e+02	-2.818875e+01
3.394418e+02	-2.824194e+01
3.414024e+02	-2.828735e+01
3.433744e+02	-2.833924e+01
3.453577e+02	-2.839037e+01
3.473525e+02	-2.843374e+01
3.493588e+02	-2.848569e+01
3.513766e+02	-2.854316e+01
3.534062e+02	-2.859028e+01
3.554474e+02	-2.864028e+01
3.575005e+02	-2.868920e+01
3.595654e+02	-2.873989e+01
3.616422e+02	-2.878750e+01
3.637311e+02	-2.884386e+01
3.658320e+02	-2.889064e+01
3.679450e+02	-2.894028e+01
3.700702e+02	-2.898665e+01
3.722077e+02	-2.904349e+01
3.743576e+02	-2.909026e+01
3.765199e+02	-2.914227e+01
3.786946e+02	-2.919169e+01
3.808820e+02	-2.924193e+01
3.830819e+02	-2.929274e+01
3.852946e+02	-2.934101e+01
3.875200e+02	-2.939281e+01
3.897583e+02	-2.943897e+01
3.920096e+02	-2.949267e+01
3.942738e+02	-2.953885e+01
3.965511e+02	-2.959126e+01
3.988416e+02	-2.964132e+01
4.011452e+02	-2.968729e+01
4.034622e+02	-2.973989e+01
4.057926e+02	-2.978999e+01
4.081365e+02	-2.984260e+01
4.104938e+02	-2.988892e+01
4.128648e+02	-2.993980e+01
4.152495e+02	-2.999208e+01
4.176480e+02	-3.004150e+01
4.200603e+02	-3.009164e+01
4.224866e+02	-3.013987e+01
4.249268e+02	-3.019025e+01
4.273812e+02	-3.024295e+01
4.298497e+02	-3.028960e+01
4.323325e+02	-3.034643e+01
4.348297e+02	-3.039819e+01
4.373412e+02	-3.043987e+01
4.398673e+02	-3.049246e+01
4.424079e+02	-3.054122e+01
4.449633e+02	-3.059697e+01
4.475334e+02	-3.064463e+01
4.501183e+02	-3.069053e+01
4.527182e+02	-3.073904e+01
4.553330e+02	-3.080179e+01
4.579630e+02	-3.083931e+01
4.606082e+02	-3.089230e+01
4.632687e+02	-3.094556e+01
4.659445e+02	-3.099857e+01
4.686358e+02	-3.104507e+01
4.713426e+02	-3.109886e+01
4.740650e+02	-3.114930e+01
4.768032e+02	-3.119616e+01
4.795572e+02	-3.124744e+01
4.823271e+02	-3.129703e+01
4.851130e+02	-3.134267e+01
4.879150e+02	-3.139640e+01
4.907332e+02	-3.145062e+01
4.935676e+02	-3.149282e+01
4.964185e+02	-3.155035e+01
4.992858e+02	-3.159587e+01
5.021696e+02	-3.164442e+01
5.050701e+02	-3.170254e+01
5.079874e+02	-3.174688e+01
5.109215e+02	-3.179965e+01
5.138726e+02	-3.185019e+01
5.168407e+02	-3.189983e+01
5.198259e+02	-3.195651e+01
5.228284e+02	-3.200101e+01
5.258482e+02	-3.204992e+01
5.288855e+02	-3.209407e+01
5.319403e+02	-3.215287e+01
5.350128e+02	-3.220110e+01
5.381030e+02	-3.224937e+01
5.412111e+02	-3.230274e+01
5.443371e+02	-3.234546e+01
5.474812e+02	-3.240170e+01
5.506434e+02	-3.245101e+01
5.538239e+02	-3.250268e+01
5.570228e+02	-3.255465e+01
5.602401e+02	-3.259769e+01
5.634760e+02	-3.264867e+01
5.667306e+02	-3.269440e+01
5.700040e+02	-3.275414e+01
5.732964e+02	-3.280084e+01
5.766077e+02	-3.284451e+01
5.799382e+02	-3.291117e+01
5.832879e+02	-3.294526e+01
5.866569e+02	-3.300114e+01
5.900454e+02	-3.305706e+01
5.934535e+02	-3.310268e+01
5.968813e+02	-3.315105e+01
6.003288e+02	-3.320860e+01
6.037963e+02	-3.325382e+01
6.072838e+02	-3.330543e+01
6.107914e+02	-3.335668e+01
6.143194e+02	-3.339974e+01
6.178676e+02	-3.345602e+01
6.214364e+02	-3.351402e+01
6.250258e+02	-3.355543e+01
6.286359e+02	-3.360558e+01
6.322669e+02	-3.365827e+01
6.359189e+02	-3.370545e+01
6.395919e+02	-3.375613e+01
6.432862e+02	-3.381512e+01
6.470017e+02	-3.385236e+01
6.507388e+02	-3.390657e+01
6.544974e+02	-3.395067e+01
6.582778e+02	-3.401444e+01
6.620800e+02	-3.406021e+01
6.659041e+02	-3.410638e+01
6.697504e+02	-3.415540e+01
6.736188e+02	-3.421206e+01
6.775096e+02	-3.426652e+01
6.814229e+02	-3.431304e+01
6.853587e+02	-3.435911e+01
6.893173e+02	-3.441424e+01
6.932988e+02	-3.445905e+01
6.973033e+02	-3.451492e+01
7.013309e+02	-3.456147e+01
