Frequency(Hz)	Magnitude(dB)
1.000000e+01	-2.167629e+00
1.005776e+01	-2.187131e+00
1.011585e+01	-2.207080e+00
1.017428e+01	-2.227330e+00
1.023305e+01	-2.247280e+00
1.029215e+01	-2.267609e+00
1.035160e+01	-2.287823e+00
1.041139e+01	-2.308278e+00
1.047153e+01	-2.328939e+00
1.053201e+01	-2.350018e+00
1.059284e+01	-2.370911e+00
1.065403e+01	-2.391985e+00
1.071556e+01	-2.413594e+00
1.077746e+01	-2.434742e+00
1.083971e+01	-2.456279e+00
1.090232e+01	-2.478202e+00
1.096529e+01	-2.499806e+00
1.102862e+01	-2.521664e+00
1.109232e+01	-2.543787e+00
1.115639e+01	-2.565776e+00
1.122083e+01	-2.588393e+00
1.128564e+01	-2.610949e+00
1.135083e+01	-2.633697e+00
1.141639e+01	-2.656465e+00
1.148233e+01	-2.679424e+00
1.154865e+01	-2.702615e+00
1.161536e+01	-2.725860e+00
1.168245e+01	-2.749389e+00
1.174992e+01	-2.773069e+00
1.181779e+01	-2.796476e+00
1.188605e+01	-2.820165e+00
1.195470e+01	-2.844157e+00
1.202375e+01	-2.868322e+00
1.209320e+01	-2.892583e+00
1.216305e+01	-2.917015e+00
1.223330e+01	-2.941435e+00
1.230396e+01	-2.966108e+00
1.237503e+01	-2.990900e+00
1.244651e+01	-3.015915e+00
1.251840e+01	-3.041147e+00
1.259070e+01	-3.066490e+00
1.266343e+01	-3.091820e+00
1.273657e+01	-3.117291e+00
1.281014e+01	-3.142913e+00
1.288413e+01	-3.168976e+00
1.295855e+01	-3.194956e+00
1.303339e+01	-3.220782e+00
1.310867e+01	-3.247288e+00
1.318439e+01	-3.273831e+00
1.326054e+01	-3.300431e+00
1.333713e+01	-3.326944e+00
1.341417e+01	-3.353622e+00
1.349165e+01	-3.380817e+00
1.356958e+01	-3.407998e+00
1.364795e+01	-3.435244e+00
1.372678e+01	-3.462550e+00
1.380607e+01	-3.490002e+00
1.388581e+01	-3.517904e+00
1.396602e+01	-3.545573e+00
1.404668e+01	-3.573752e+00
1.412782e+01	-3.601840e+00
1.420942e+01	-3.629909e+00
1.429149e+01	-3.658276e+00
1.437404e+01	-3.687045e+00
1.445706e+01	-3.715560e+00
1.454057e+01	-3.744372e+00
1.462455e+01	-3.773584e+00
1.470902e+01	-3.802607e+00
1.479398e+01	-3.831925e+00
1.487943e+01	-3.861370e+00
1.496537e+01	-3.890714e+00
1.505181e+01	-3.920637e+00
1.513875e+01	-3.950582e+00
1.522619e+01	-3.980067e+00
1.531414e+01	-4.010519e+00
1.540259e+01	-4.040561e+00
1.549156e+01	-4.071021e+00
1.558103e+01	-4.101257e+00
1.567103e+01	-4.132204e+00
1.576155e+01	-4.162889e+00
1.585258e+01	-4.193746e+00
1.594415e+01	-4.224861e+00
1.603624e+01	-4.256030e+00
1.612886e+01	-4.287216e+00
1.622202e+01	-4.318597e+00
1.631572e+01	-4.350158e+00
1.640996e+01	-4.382086e+00
1.650474e+01	-4.413889e+00
1.660008e+01	-4.446044e+00
1.669596e+01	-4.477901e+00
1.679239e+01	-4.510470e+00
1.688938e+01	-4.542692e+00
1.698694e+01	-4.575007e+00
1.708505e+01	-4.607532e+00
1.718373e+01	-4.640426e+00
1.728299e+01	-4.673248e+00
1.738281e+01	-4.706573e+00
1.748322e+01	-4.739535e+00
1.758420e+01	-4.772683e+00
1.768576e+01	-4.806182e+00
1.778792e+01	-4.839925e+00
1.789066e+01	-4.873654e+00
1.799399e+01	-4.907648e+00
1.809793e+01	-4.941505e+00
1.820246e+01	-4.975426e+00
1.830760e+01	-5.009651e+00
1.841334e+01	-5.043929e+00
1.851969e+01	-5.078522e+00
1.862666e+01	-5.112743e+00
1.873425e+01	-5.147464e+00
1.884246e+01	-5.182577e+00
1.895129e+01	-5.217571e+00
1.906075e+01	-5.252293e+00
1.917085e+01	-5.287448e+00
1.928158e+01	-5.322770e+00
1.939295e+01	-5.357980e+00
1.950496e+01	-5.393357e+00
1.961762e+01	-5.429394e+00
1.973093e+01	-5.464793e+00
1.984490e+01	-5.500596e+00
1.995952e+01	-5.536653e+00
2.007480e+01	-5.573025e+00
2.019076e+01	-5.609222e+00
2.030738e+01	-5.645561e+00
2.042467e+01	-5.682234e+00
2.054264e+01	-5.718780e+00
2.066130e+01	-5.755217e+00
2.078064e+01	-5.791830e+00
2.090066e+01	-5.829038e+00
2.102139e+01	-5.865711e+00
2.114280e+01	-5.902696e+00
2.126492e+01	-5.940342e+00
2.138775e+01	-5.977308e+00
2.151128e+01	-6.015084e+00
2.163553e+01	-6.052666e+00
2.176050e+01	-6.090213e+00
2.188619e+01	-6.128128e+00
2.201260e+01	-6.166147e+00
2.213974e+01	-6.203919e+00
2.226762e+01	-6.241894e+00
2.239624e+01	-6.280485e+00
2.252560e+01	-6.318533e+00
2.265571e+01	-6.356440e+00
2.278656e+01	-6.395412e+00
2.291818e+01	-6.433674e+00
2.305055e+01	-6.472370e+00
2.318369e+01	-6.511404e+00
2.331760e+01	-6.550495e+00
2.345228e+01	-6.589623e+00
2.358774e+01	-6.628538e+00
2.372398e+01	-6.667715e+00
2.386101e+01	-6.706672e+00
2.399883e+01	-6.746438e+00
2.413745e+01	-6.786060e+00
2.427686e+01	-6.825200e+00
2.441709e+01	-6.865412e+00
2.455812e+01	-6.904855e+00
2.469997e+01	-6.944731e+00
2.484263e+01	-6.984500e+00
2.498612e+01	-7.024952e+00
2.513044e+01	-7.064405e+00
2.527559e+01	-7.105603e+00
2.542158e+01	-7.145226e+00
2.556842e+01	-7.185892e+00
2.571610e+01	-7.226196e+00
2.586463e+01	-7.266883e+00
2.601403e+01	-7.307759e+00
2.616428e+01	-7.348779e+00
2.631541e+01	-7.389609e+00
2.646740e+01	-7.430344e+00
2.662028e+01	-7.471587e+00
2.677404e+01	-7.512367e+00
2.692868e+01	-7.553516e+00
2.708422e+01	-7.594877e+00
2.724066e+01	-7.636389e+00
2.739800e+01	-7.677680e+00
2.755625e+01	-7.719564e+00
2.771541e+01	-7.760659e+00
2.787550e+01	-7.802234e+00
2.803650e+01	-7.844398e+00
2.819844e+01	-7.886025e+00
2.836131e+01	-7.928097e+00
2.852513e+01	-7.969844e+00
2.868989e+01	-8.012199e+00
2.885560e+01	-8.054382e+00
2.902227e+01	-8.096668e+00
2.918990e+01	-8.138874e+00
2.935850e+01	-8.181170e+00
2.952807e+01	-8.223659e+00
2.969863e+01	-8.266004e+00
2.987016e+01	-8.309078e+00
3.004269e+01	-8.351788e+00
3.021622e+01	-8.394033e+00
3.039075e+01	-8.437250e+00
3.056628e+01	-8.480017e+00
3.074283e+01	-8.522673e+00
3.092040e+01	-8.566388e+00
3.109900e+01	-8.609384e+00
3.127862e+01	-8.652343e+00
3.145929e+01	-8.695348e+00
3.164099e+01	-8.739150e+00
3.182375e+01	-8.782300e+00
3.200756e+01	-8.825680e+00
3.219244e+01	-8.869329e+00
3.237838e+01	-8.913018e+00
3.256540e+01	-8.955925e+00
3.275349e+01	-9.000263e+00
3.294268e+01	-9.044410e+00
3.313295e+01	-9.087396e+00
3.332433e+01	-9.131752e+00
3.351681e+01	-9.175166e+00
3.371040e+01	-9.219349e+00
3.390511e+01	-9.263278e+00
3.410094e+01	-9.307510e+00
3.429791e+01	-9.352225e+00
3.449601e+01	-9.396094e+00
3.469526e+01	-9.440401e+00
3.489566e+01	-9.484344e+00
3.509721e+01	-9.529061e+00
3.529993e+01	-9.573697e+00
3.550382e+01	-9.617928e+00
3.570889e+01	-9.662368e+00
3.591515e+01	-9.707007e+00
3.612259e+01	-9.752387e+00
3.633123e+01	-9.796347e+00
3.654108e+01	-9.840989e+00
3.675214e+01	-9.886748e+00
3.696442e+01	-9.931132e+00
3.717792e+01	-9.976744e+00
3.739266e+01	-1.002139e+01
3.760864e+01	-1.006640e+01
3.782587e+01	-1.011152e+01
3.804435e+01	-1.015646e+01
3.826409e+01	-1.020213e+01
3.848510e+01	-1.024806e+01
3.870739e+01	-1.029273e+01
3.893096e+01	-1.033822e+01
3.915583e+01	-1.038287e+01
3.938199e+01	-1.042870e+01
3.960946e+01	-1.047501e+01
3.983824e+01	-1.052102e+01
4.006834e+01	-1.056599e+01
4.029978e+01	-1.061137e+01
4.053255e+01	-1.065740e+01
4.076666e+01	-1.070246e+01
4.100213e+01	-1.074858e+01
4.123896e+01	-1.079458e+01
4.147715e+01	-1.084058e+01
4.171672e+01	-1.088602e+01
4.195767e+01	-1.093248e+01
4.220002e+01	-1.097804e+01
4.244377e+01	-1.102381e+01
4.268892e+01	-1.107051e+01
4.293549e+01	-1.111699e+01
4.318348e+01	-1.116277e+01
4.343291e+01	-1.120881e+01
4.368377e+01	-1.125606e+01
4.393609e+01	-1.130141e+01
4.418986e+01	-1.134790e+01
4.444510e+01	-1.139417e+01
4.470182e+01	-1.144033e+01
4.496001e+01	-1.148708e+01
4.521970e+01	-1.153368e+01
4.548089e+01	-1.158023e+01
4.574358e+01	-1.162664e+01
4.600779e+01	-1.167368e+01
4.627353e+01	-1.171955e+01
4.654081e+01	-1.176643e+01
4.680963e+01	-1.181343e+01
4.708000e+01	-1.186056e+01
4.735193e+01	-1.190625e+01
4.762543e+01	-1.195405e+01
4.790051e+01	-1.200049e+01
4.817719e+01	-1.204680e+01
4.845545e+01	-1.209425e+01
4.873533e+01	-1.214078e+01
4.901682e+01	-1.218781e+01
4.929994e+01	-1.223549e+01
4.958470e+01	-1.228227e+01
4.987110e+01	-1.232907e+01
5.015915e+01	-1.237664e+01
5.044887e+01	-1.242342e+01
5.074026e+01	-1.247075e+01
5.103333e+01	-1.251844e+01
5.132810e+01	-1.256555e+01
5.162457e+01	-1.261310e+01
5.192275e+01	-1.265979e+01
5.222265e+01	-1.270670e+01
5.252429e+01	-1.275456e+01
5.282767e+01	-1.280155e+01
5.313280e+01	-1.284851e+01
5.343969e+01	-1.289618e+01
5.374836e+01	-1.294405e+01
5.405880e+01	-1.299218e+01
5.437105e+01	-1.303894e+01
5.468509e+01	-1.308666e+01
5.500095e+01	-1.313446e+01
5.531863e+01	-1.318228e+01
5.563815e+01	-1.322922e+01
5.595951e+01	-1.327768e+01
5.628273e+01	-1.332507e+01
5.660782e+01	-1.337284e+01
5.693479e+01	-1.341985e+01
5.726364e+01	-1.346869e+01
5.759439e+01	-1.351633e+01
5.792705e+01	-1.356339e+01
5.826164e+01	-1.361158e+01
5.859815e+01	-1.365945e+01
5.893662e+01	-1.370761e+01
5.927703e+01	-1.375547e+01
5.961941e+01	-1.380300e+01
5.996377e+01	-1.385121e+01
6.031012e+01	-1.389894e+01
6.065847e+01	-1.394701e+01
6.100883e+01	-1.399503e+01
6.136121e+01	-1.404287e+01
6.171563e+01	-1.409144e+01
6.207210e+01	-1.413896e+01
6.243063e+01	-1.418758e+01
6.279122e+01	-1.423586e+01
6.315390e+01	-1.428379e+01
6.351868e+01	-1.433221e+01
6.388556e+01	-1.438057e+01
6.425456e+01	-1.442891e+01
6.462569e+01	-1.447681e+01
6.499897e+01	-1.452515e+01
6.537440e+01	-1.457303e+01
6.575200e+01	-1.462179e+01
6.613178e+01	-1.467002e+01
6.651375e+01	-1.471824e+01
6.689793e+01	-1.476677e+01
6.728433e+01	-1.481547e+01
6.767297e+01	-1.486331e+01
6.806384e+01	-1.491158e+01
6.845698e+01	-1.496022e+01
6.885238e+01	-1.500847e+01
6.925007e+01	-1.505802e+01
6.965005e+01	-1.510603e+01
7.005235e+01	-1.515485e+01
7.045697e+01	-1.520232e+01
7.086393e+01	-1.525149e+01
7.127323e+01	-1.529888e+01
7.168490e+01	-1.534823e+01
7.209895e+01	-1.539626e+01
7.251539e+01	-1.544518e+01
7.293424e+01	-1.549315e+01
7.335551e+01	-1.554186e+01
7.377920e+01	-1.559112e+01
7.420535e+01	-1.563994e+01
7.463396e+01	-1.568802e+01
7.506504e+01	-1.573687e+01
7.549861e+01	-1.578510e+01
7.593469e+01	-1.583476e+01
7.637328e+01	-1.588311e+01
7.681441e+01	-1.593115e+01
7.725809e+01	-1.598003e+01
7.770433e+01	-1.602950e+01
7.815315e+01	-1.607796e+01
7.860456e+01	-1.612721e+01
7.905857e+01	-1.617544e+01
7.951521e+01	-1.622529e+01
7.997449e+01	-1.627319e+01
8.043642e+01	-1.632196e+01
8.090102e+01	-1.637027e+01
8.136830e+01	-1.641983e+01
8.183828e+01	-1.646922e+01
8.231097e+01	-1.651667e+01
8.278640e+01	-1.656683e+01
8.326457e+01	-1.661613e+01
8.374550e+01	-1.666510e+01
8.422921e+01	-1.671254e+01
8.471572e+01	-1.676264e+01
8.520503e+01	-1.681164e+01
8.569717e+01	-1.685962e+01
8.619215e+01	-1.691027e+01
8.669000e+01	-1.695861e+01
8.719071e+01	-1.700757e+01
8.769432e+01	-1.705691e+01
8.820084e+01	-1.710615e+01
8.871029e+01	-1.715420e+01
8.922267e+01	-1.720331e+01
8.973802e+01	-1.725302e+01
9.025634e+01	-1.730276e+01
9.077766e+01	-1.735076e+01
9.130199e+01	-1.740004e+01
9.182935e+01	-1.745019e+01
9.235975e+01	-1.749938e+01
9.289321e+01	-1.754776e+01
9.342976e+01	-1.759752e+01
9.396941e+01	-1.764567e+01
9.451217e+01	-1.769508e+01
9.505807e+01	-1.774425e+01
9.560712e+01	-1.779430e+01
9.615934e+01	-1.784336e+01
9.671476e+01	-1.789176e+01
9.727338e+01	-1.794136e+01
9.783522e+01	-1.799004e+01
9.840032e+01	-1.803994e+01
9.896867e+01	-1.808822e+01
9.954031e+01	-1.813938e+01
1.001153e+02	-1.818756e+01
1.006935e+02	-1.823676e+01
1.012751e+02	-1.828448e+01
1.018601e+02	-1.833459e+01
1.024484e+02	-1.838431e+01
1.030402e+02	-1.843298e+01
1.036353e+02	-1.848383e+01
1.042339e+02	-1.853222e+01
1.048360e+02	-1.858116e+01
1.054415e+02	-1.863080e+01
1.060505e+02	-1.868065e+01
1.066631e+02	-1.872912e+01
1.072791e+02	-1.878041e+01
1.078988e+02	-1.883057e+01
1.085220e+02	-1.887810e+01
1.091488e+02	-1.892807e+01
1.097793e+02	-1.897724e+01
1.104133e+02	-1.902639e+01
1.110511e+02	-1.907591e+01
1.116925e+02	-1.912562e+01
1.123376e+02	-1.917528e+01
1.129865e+02	-1.922235e+01
1.136391e+02	-1.927333e+01
1.142955e+02	-1.932286e+01
1.149556e+02	-1.937167e+01
1.156196e+02	-1.942008e+01
1.162874e+02	-1.947188e+01
1.169591e+02	-1.952169e+01
1.176347e+02	-1.956944e+01
1.183141e+02	-1.962008e+01
1.189975e+02	-1.966996e+01
1.196848e+02	-1.972001e+01
1.203761e+02	-1.976876e+01
1.210714e+02	-1.981769e+01
1.217707e+02	-1.986799e+01
1.224740e+02	-1.991674e+01
1.231814e+02	-1.996546e+01
1.238929e+02	-2.001500e+01
1.246085e+02	-2.006611e+01
1.253283e+02	-2.011516e+01
1.260522e+02	-2.016399e+01
1.267802e+02	-2.021444e+01
1.275125e+02	-2.026285e+01
1.282490e+02	-2.031472e+01
1.289898e+02	-2.036408e+01
1.297348e+02	-2.041264e+01
1.304842e+02	-2.046156e+01
1.312378e+02	-2.051203e+01
1.319959e+02	-2.056158e+01
1.327583e+02	-2.060963e+01
1.335251e+02	-2.065994e+01
1.342963e+02	-2.070935e+01
1.350720e+02	-2.076002e+01
1.358522e+02	-2.080733e+01
1.366368e+02	-2.085830e+01
1.374260e+02	-2.090794e+01
1.382198e+02	-2.095809e+01
1.390182e+02	-2.100762e+01
1.398211e+02	-2.105630e+01
1.406287e+02	-2.110830e+01
1.414410e+02	-2.115815e+01
1.422579e+02	-2.120559e+01
1.430796e+02	-2.125727e+01
1.439060e+02	-2.130518e+01
1.447372e+02	-2.135610e+01
1.455732e+02	-2.140490e+01
1.464141e+02	-2.145413e+01
1.472597e+02	-2.150341e+01
1.481103e+02	-2.155230e+01
1.489658e+02	-2.160416e+01
1.498262e+02	-2.165597e+01
1.506916e+02	-2.170321e+01
1.515620e+02	-2.175397e+01
1.524374e+02	-2.180283e+01
1.533179e+02	-2.185238e+01
1.542034e+02	-2.190158e+01
1.550941e+02	-2.195179e+01
1.559899e+02	-2.200226e+01
1.568909e+02	-2.205263e+01
1.577971e+02	-2.210070e+01
1.587085e+02	-2.215102e+01
1.596252e+02	-2.219982e+01
1.605472e+02	-2.225062e+01
1.614745e+02	-2.229933e+01
1.624072e+02	-2.235001e+01
1.633453e+02	-2.239917e+01
1.642887e+02	-2.244737e+01
1.652377e+02	-2.250216e+01
1.661921e+02	-2.254799e+01
1.671520e+02	-2.259896e+01
1.681175e+02	-2.264736e+01
1.690885e+02	-2.269830e+01
1.700651e+02	-2.274773e+01
1.710474e+02	-2.279664e+01
1.720354e+02	-2.285107e+01
1.730291e+02	-2.289764e+01
1.740285e+02	-2.294761e+01
1.750337e+02	-2.299887e+01
1.760446e+02	-2.304838e+01
1.770615e+02	-2.309644e+01
1.780842e+02	-2.314573e+01
1.791128e+02	-2.319813e+01
1.801473e+02	-2.324689e+01
1.811878e+02	-2.329605e+01
1.822344e+02	-2.334829e+01
1.832870e+02	-2.339720e+01
1.843456e+02	-2.344487e+01
1.854104e+02	-2.349308e+01
1.864813e+02	-2.354408e+01
1.875584e+02	-2.359488e+01
1.886418e+02	-2.364419e+01
1.897313e+02	-2.369600e+01
1.908272e+02	-2.374454e+01
1.919294e+02	-2.379323e+01
1.930380e+02	-2.384214e+01
1.941530e+02	-2.389289e+01
1.952744e+02	-2.394285e+01
1.964023e+02	-2.399265e+01
1.975367e+02	-2.404360e+01
1.986777e+02	-2.409559e+01
1.998252e+02	-2.414617e+01
2.009794e+02	-2.419299e+01
2.021403e+02	-2.424132e+01
2.033078e+02	-2.429364e+01
2.044821e+02	-2.434347e+01
2.056632e+02	-2.439116e+01
2.068511e+02	-2.444398e+01
2.080459e+02	-2.449159e+01
2.092475e+02	-2.454043e+01
2.104561e+02	-2.458967e+01
2.116717e+02	-2.464091e+01
2.128943e+02	-2.469147e+01
2.141240e+02	-2.474054e+01
2.153608e+02	-2.479255e+01
2.166047e+02	-2.483907e+01
2.178558e+02	-2.488971e+01
2.191141e+02	-2.494131e+01
2.203797e+02	-2.499325e+01
2.216526e+02	-2.504026e+01
2.229329e+02	-2.509031e+01
2.242205e+02	-2.514094e+01
2.255156e+02	-2.518949e+01
2.268182e+02	-2.524285e+01
2.281283e+02	-2.529458e+01
2.294459e+02	-2.533758e+01
2.307712e+02	-2.539177e+01
2.321041e+02	-2.543902e+01
2.334447e+02	-2.549193e+01
2.347931e+02	-2.553878e+01
2.361493e+02	-2.558873e+01
2.375133e+02	-2.564187e+01
2.388851e+02	-2.568855e+01
2.402649e+02	-2.573843e+01
2.416527e+02	-2.579036e+01
2.430484e+02	-2.583958e+01
2.444523e+02	-2.589192e+01
2.458642e+02	-2.594028e+01
2.472843e+02	-2.598785e+01
2.487126e+02	-2.603725e+01
2.501492e+02	-2.608914e+01
2.515940e+02	-2.613735e+01
2.530472e+02	-2.618864e+01
2.545088e+02	-2.623945e+01
2.559789e+02	-2.629155e+01
2.574574e+02	-2.633926e+01
2.589444e+02	-2.638877e+01
2.604401e+02	-2.644211e+01
2.619444e+02	-2.648829e+01
2.634574e+02	-2.653872e+01
2.649791e+02	-2.658799e+01
2.665096e+02	-2.663777e+01
2.680489e+02	-2.668955e+01
2.695972e+02	-2.673904e+01
2.711544e+02	-2.678863e+01
2.727205e+02	-2.683963e+01
2.742958e+02	-2.689061e+01
2.758801e+02	-2.693968e+01
2.774736e+02	-2.698692e+01
2.790762e+02	-2.703870e+01
2.806882e+02	-2.708673e+01
2.823094e+02	-2.713947e+01
2.839400e+02	-2.718982e+01
2.855800e+02	-2.724039e+01
2.872295e+02	-2.728869e+01
2.888886e+02	-2.734047e+01
2.905572e+02	-2.738865e+01
2.922354e+02	-2.743562e+01
2.939234e+02	-2.748780e+01
2.956211e+02	-2.754070e+01
2.973286e+02	-2.759068e+01
2.990459e+02	-2.764074e+01
3.007732e+02	-2.769023e+01
3.025104e+02	-2.773573e+01
3.042577e+02	-2.779205e+01
3.060151e+02	-2.783511e+01
3.077826e+02	-2.789173e+01
3.095604e+02	-2.793702e+01
3.113484e+02	-2.799425e+01
3.131467e+02	-2.803882e+01
3.149554e+02	-2.808922e+01
3.167746e+02	-2.814121e+01
3.186043e+02	-2.818681e+01
3.204445e+02	-2.823366e+01
3.222954e+02	-2.828968e+01
3.241570e+02	-2.833775e+01
3.260293e+02	-2.838569e+01
3.279124e+02	-2.844021e+01
3.298064e+02	-2.848727e+01
3.317114e+02	-2.853540e+01
3.336273e+02	-2.859039e+01
3.355544e+02	-2.863637e+01
3.374925e+02	-2.869024e+01
3.394418e+02	-2.873852e+01
3.414024e+02	-2.878905e+01
3.433744e+02	-2.883904e+01
3.453577e+02	-2.889345e+01
3.473525e+02	-2.893694e+01
3.493588e+02	-2.899338e+01
3.513766e+02	-2.904297e+01
3.534062e+02	-2.908519e+01
3.554474e+02	-2.913631e+01
3.575005e+02	-2.919001e+01
3.595654e+02	-2.923449e+01
3.616422e+02	-2.928735e+01
3.637311e+02	-2.933596e+01
3.658320e+02	-2.939318e+01
3.679450e+02	-2.944088e+01
3.700702e+02	-2.948562e+01
3.722077e+02	-2.953478e+01
3.743576e+02	-2.958934e+01
3.765199e+02	-2.964234e+01
3.786946e+02	-2.969800e+01
3.808820e+02	-2.973790e+01
3.830819e+02	-2.979157e+01
3.852946e+02	-2.984614e+01
3.875200e+02	-2.989346e+01
3.897583e+02	-2.994093e+01
3.920096e+02	-2.998691e+01
3.942738e+02	-3.003930e+01
3.965511e+02	-3.009388e+01
3.988416e+02	-3.013975e+01
4.011452e+02	-3.019023e+01
4.034622e+02	-3.024582e+01
4.057926e+02	-3.029263e+01
4.081365e+02	-3.034140e+01
4.104938e+02	-3.038866e+01
4.128648e+02	-3.043953e+01
4.152495e+02	-3.049495e+01
4.176480e+02	-3.054647e+01
4.200603e+02	-3.059492e+01
4.224866e+02	-3.064733e+01
4.249268e+02	-3.069378e+01
4.273812e+02	-3.074284e+01
4.298497e+02	-3.079427e+01
4.323325e+02	-3.084461e+01
4.348297e+02	-3.089038e+01
4.373412e+02	-3.093992e+01
4.398673e+02	-3.099250e+01
4.424079e+02	-3.104562e+01
4.449633e+02	-3.109806e+01
4.475334e+02	-3.114755e+01
4.501183e+02	-3.119173e+01
4.527182e+02	-3.124442e+01
4.553330e+02	-3.129483e+01
4.579630e+02	-3.134299e+01
4.606082e+02	-3.139649e+01
4.632687e+02	-3.144685e+01
4.659445e+02	-3.149558e+01
4.686358e+02	-3.154481e+01
4.713426e+02	-3.159408e+01
4.740650e+02	-3.164618e+01
4.768032e+02	-3.169116e+01
4.795572e+02	-3.174416e+01
4.823271e+02	-3.179396e+01
4.851130e+02	-3.184670e+01
4.879150e+02	-3.189412e+01
4.907332e+02	-3.195033e+01
4.935676e+02	-3.199993e+01
4.964185e+02	-3.204343e+01
4.992858e+02	-3.209822e+01
5.021696e+02	-3.215276e+01
5.050701e+02	-3.219607e+01
5.079874e+02	-3.224205e+01
5.109215e+02	-3.229918e+01
5.138726e+02	-3.235734e+01
5.168407e+02	-3.240345e+01
5.198259e+02	-3.245034e+01
5.228284e+02	-3.249778e+01
5.258482e+02	-3.254858e+01
5.288855e+02	-3.260905e+01
5.319403e+02	-3.265382e+01
5.350128e+02	-3.269651e+01
5.381030e+02	-3.274833e+01
5.412111e+02	-3.280229e+01
5.443371e+02	-3.285167e+01
5.474812e+02	-3.290261e+01
5.506434e+02	-3.294991e+01
5.538239e+02	-3.300331e+01
5.570228e+02	-3.305550e+01
5.602401e+02	-3.310605e+01
5.634760e+02	-3.314836e+01
5.667306e+02	-3.320146e+01
5.700040e+02	-3.325362e+01
5.732964e+02	-3.330876e+01
5.766077e+02	-3.335240e+01
5.799382e+02	-3.339914e+01
5.832879e+02	-3.345996e+01
5.866569e+02	-3.350659e+01
5.900454e+02	-3.355122e+01
5.934535e+02	-3.360411e+01
5.968813e+02	-3.365332e+01
6.003288e+02	-3.370827e+01
6.037963e+02	-3.375919e+01
6.072838e+02	-3.379823e+01
6.107914e+02	-3.385464e+01
6.143194e+02	-3.391299e+01
6.178676e+02	-3.395428e+01
6.214364e+02	-3.400251e+01
6.250258e+02	-3.405876e+01
6.286359e+02	-3.411281e+01
6.322669e+02	-3.415941e+01
6.359189e+02	-3.420424e+01
6.395919e+02	-3.425856e+01
6.432862e+02	-3.430868e+01
6.470017e+02	-3.435866e+01
6.507388e+02	-3.441148e+01
6.544974e+02	-3.445650e+01
6.582778e+02	-3.450718e+01
6.620800e+02	-3.455504e+01
6.659041e+02	-3.461659e+01
6.697504e+02	-3.465731e+01
6.736188e+02	-3.470987e+01
6.775096e+02	-3.476496e+01
6.814229e+02	-3.481140e+01
6.853587e+02	-3.485695e+01
6.893173e+02	-3.491230e+01
6.932988e+02	-3.497015e+01
6.973033e+02	-3.501379e+01
7.013309e+02	-3.506383e+01
