Frequency(Hz)	Magnitude(dB)
1.000000e+01	-1.738867e-05
1.005776e+01	-1.759012e-05
1.011585e+01	-1.779391e-05
1.017428e+01	-1.800006e-05
1.023305e+01	-1.820859e-05
1.029215e+01	-1.841954e-05
1.035160e+01	-1.863294e-05
1.041139e+01	-1.884880e-05
1.047153e+01	-1.906717e-05
1.053201e+01	-1.928807e-05
1.059284e+01	-1.951153e-05
1.065403e+01	-1.973757e-05
1.071556e+01	-1.996624e-05
1.077746e+01	-2.019755e-05
1.083971e+01	-2.043155e-05
1.090232e+01	-2.066825e-05
1.096529e+01	-2.090770e-05
1.102862e+01	-2.114992e-05
1.109232e+01	-2.139495e-05
1.115639e+01	-2.164281e-05
1.122083e+01	-2.189355e-05
1.128564e+01	-2.214719e-05
1.135083e+01	-2.240377e-05
1.141639e+01	-2.266333e-05
1.148233e+01	-2.292589e-05
1.154865e+01	-2.319149e-05
1.161536e+01	-2.346017e-05
1.168245e+01	-2.373196e-05
1.174992e+01	-2.400690e-05
1.181779e+01	-2.428503e-05
1.188605e+01	-2.456637e-05
1.195470e+01	-2.485098e-05
1.202375e+01	-2.513889e-05
1.209320e+01	-2.543013e-05
1.216305e+01	-2.572474e-05
1.223330e+01	-2.602277e-05
1.230396e+01	-2.632425e-05
1.237503e+01	-2.662922e-05
1.244651e+01	-2.693773e-05
1.251840e+01	-2.724981e-05
1.259070e+01	-2.756550e-05
1.266343e+01	-2.788486e-05
1.273657e+01	-2.820791e-05
1.281014e+01	-2.853470e-05
1.288413e+01	-2.886529e-05
1.295855e+01	-2.919970e-05
1.303339e+01	-2.953798e-05
1.310867e+01	-2.988019e-05
1.318439e+01	-3.022636e-05
1.326054e+01	-3.057654e-05
1.333713e+01	-3.093077e-05
1.341417e+01	-3.128911e-05
1.349165e+01	-3.165160e-05
1.356958e+01	-3.201830e-05
1.364795e+01	-3.238924e-05
1.372678e+01	-3.276447e-05
1.380607e+01	-3.314406e-05
1.388581e+01	-3.352804e-05
1.396602e+01	-3.391647e-05
1.404668e+01	-3.430940e-05
1.412782e+01	-3.470688e-05
1.420942e+01	-3.510897e-05
1.429149e+01	-3.551571e-05
1.437404e+01	-3.592717e-05
1.445706e+01	-3.634340e-05
1.454057e+01	-3.676444e-05
1.462455e+01	-3.719037e-05
1.470902e+01	-3.762123e-05
1.479398e+01	-3.805708e-05
1.487943e+01	-3.849798e-05
1.496537e+01	-3.894398e-05
1.505181e+01	-3.939516e-05
1.513875e+01	-3.985156e-05
1.522619e+01	-4.031325e-05
1.531414e+01	-4.078029e-05
1.540259e+01	-4.125274e-05
1.549156e+01	-4.173066e-05
1.558103e+01	-4.221412e-05
1.567103e+01	-4.270318e-05
1.576155e+01	-4.319790e-05
1.585258e+01	-4.369836e-05
1.594415e+01	-4.420462e-05
1.603624e+01	-4.471674e-05
1.612886e+01	-4.523479e-05
1.622202e+01	-4.575885e-05
1.631572e+01	-4.628897e-05
1.640996e+01	-4.682524e-05
1.650474e+01	-4.736772e-05
1.660008e+01	-4.791649e-05
1.669596e+01	-4.847161e-05
1.679239e+01	-4.903316e-05
1.688938e+01	-4.960122e-05
1.698694e+01	-5.017586e-05
1.708505e+01	-5.075716e-05
1.718373e+01	-5.134519e-05
1.728299e+01	-5.194004e-05
1.738281e+01	-5.254177e-05
1.748322e+01	-5.315048e-05
1.758420e+01	-5.376624e-05
1.768576e+01	-5.438913e-05
1.778792e+01	-5.501924e-05
1.789066e+01	-5.565665e-05
1.799399e+01	-5.630145e-05
1.809793e+01	-5.695371e-05
1.820246e+01	-5.761353e-05
1.830760e+01	-5.828099e-05
1.841334e+01	-5.895619e-05
1.851969e+01	-5.963921e-05
1.862666e+01	-6.033014e-05
1.873425e+01	-6.102908e-05
1.884246e+01	-6.173611e-05
1.895129e+01	-6.245134e-05
1.906075e+01	-6.317485e-05
1.917085e+01	-6.390674e-05
1.928158e+01	-6.464711e-05
1.939295e+01	-6.539606e-05
1.950496e+01	-6.615369e-05
1.961762e+01	-6.692009e-05
1.973093e+01	-6.769537e-05
1.984490e+01	-6.847964e-05
1.995952e+01	-6.927299e-05
2.007480e+01	-7.007553e-05
2.019076e+01	-7.088737e-05
2.030738e+01	-7.170861e-05
2.042467e+01	-7.253937e-05
2.054264e+01	-7.337975e-05
2.066130e+01	-7.422987e-05
2.078064e+01	-7.508983e-05
2.090066e+01	-7.595976e-05
2.102139e+01	-7.683977e-05
2.114280e+01	-7.772997e-05
2.126492e+01	-7.863049e-05
2.138775e+01	-7.954143e-05
2.151128e+01	-8.046294e-05
2.163553e+01	-8.139511e-05
2.176050e+01	-8.233809e-05
2.188619e+01	-8.329199e-05
2.201260e+01	-8.425694e-05
2.213974e+01	-8.523307e-05
2.226762e+01	-8.622051e-05
2.239624e+01	-8.721939e-05
2.252560e+01	-8.822984e-05
2.265571e+01	-8.925200e-05
2.278656e+01	-9.028600e-05
2.291818e+01	-9.133197e-05
2.305055e+01	-9.239007e-05
2.318369e+01	-9.346042e-05
2.331760e+01	-9.454317e-05
2.345228e+01	-9.563847e-05
2.358774e+01	-9.674646e-05
2.372398e+01	-9.786728e-05
2.386101e+01	-9.900109e-05
2.399883e+01	-1.001480e-04
2.413745e+01	-1.013083e-04
2.427686e+01	-1.024819e-04
2.441709e+01	-1.036692e-04
2.455812e+01	-1.048702e-04
2.469997e+01	-1.060852e-04
2.484263e+01	-1.073142e-04
2.498612e+01	-1.085574e-04
2.513044e+01	-1.098151e-04
2.527559e+01	-1.110873e-04
2.542158e+01	-1.123742e-04
2.556842e+01	-1.136761e-04
2.571610e+01	-1.149931e-04
2.586463e+01	-1.163253e-04
2.601403e+01	-1.176729e-04
2.616428e+01	-1.190362e-04
2.631541e+01	-1.204152e-04
2.646740e+01	-1.218103e-04
2.662028e+01	-1.232214e-04
2.677404e+01	-1.246490e-04
2.692868e+01	-1.260930e-04
2.708422e+01	-1.275538e-04
2.724066e+01	-1.290316e-04
2.739800e+01	-1.305264e-04
2.755625e+01	-1.320386e-04
2.771541e+01	-1.335683e-04
2.787550e+01	-1.351157e-04
2.803650e+01	-1.366810e-04
2.819844e+01	-1.382644e-04
2.836131e+01	-1.398663e-04
2.852513e+01	-1.414866e-04
2.868989e+01	-1.431258e-04
2.885560e+01	-1.447839e-04
2.902227e+01	-1.464612e-04
2.918990e+01	-1.481580e-04
2.935850e+01	-1.498744e-04
2.952807e+01	-1.516107e-04
2.969863e+01	-1.533671e-04
2.987016e+01	-1.551439e-04
3.004269e+01	-1.569412e-04
3.021622e+01	-1.587594e-04
3.039075e+01	-1.605987e-04
3.056628e+01	-1.624592e-04
3.074283e+01	-1.643413e-04
3.092040e+01	-1.662452e-04
3.109900e+01	-1.681712e-04
3.127862e+01	-1.701194e-04
3.145929e+01	-1.720903e-04
3.164099e+01	-1.740840e-04
3.182375e+01	-1.761007e-04
3.200756e+01	-1.781409e-04
3.219244e+01	-1.802046e-04
3.237838e+01	-1.822923e-04
3.256540e+01	-1.844042e-04
3.275349e+01	-1.865405e-04
3.294268e+01	-1.887016e-04
3.313295e+01	-1.908877e-04
3.332433e+01	-1.930991e-04
3.351681e+01	-1.953362e-04
3.371040e+01	-1.975992e-04
3.390511e+01	-1.998883e-04
3.410094e+01	-2.022040e-04
3.429791e+01	-2.045466e-04
3.449601e+01	-2.069163e-04
3.469526e+01	-2.093134e-04
3.489566e+01	-2.117383e-04
3.509721e+01	-2.141913e-04
3.529993e+01	-2.166727e-04
3.550382e+01	-2.191828e-04
3.570889e+01	-2.217220e-04
3.591515e+01	-2.242907e-04
3.612259e+01	-2.268891e-04
3.633123e+01	-2.295176e-04
3.654108e+01	-2.321766e-04
3.675214e+01	-2.348663e-04
3.696442e+01	-2.375872e-04
3.717792e+01	-2.403397e-04
3.739266e+01	-2.431240e-04
3.760864e+01	-2.459406e-04
3.782587e+01	-2.487898e-04
3.804435e+01	-2.516720e-04
3.826409e+01	-2.545876e-04
3.848510e+01	-2.575370e-04
3.870739e+01	-2.605205e-04
3.893096e+01	-2.635386e-04
3.915583e+01	-2.665917e-04
3.938199e+01	-2.696802e-04
3.960946e+01	-2.728044e-04
3.983824e+01	-2.759648e-04
4.006834e+01	-2.791618e-04
4.029978e+01	-2.823959e-04
4.053255e+01	-2.856674e-04
4.076666e+01	-2.889768e-04
4.100213e+01	-2.923246e-04
4.123896e+01	-2.957111e-04
4.147715e+01	-2.991369e-04
4.171672e+01	-3.026024e-04
4.195767e+01	-3.061080e-04
4.220002e+01	-3.096542e-04
4.244377e+01	-3.132415e-04
4.268892e+01	-3.168704e-04
4.293549e+01	-3.205413e-04
4.318348e+01	-3.242547e-04
4.343291e+01	-3.280111e-04
4.368377e+01	-3.318111e-04
4.393609e+01	-3.356551e-04
4.418986e+01	-3.395436e-04
4.444510e+01	-3.434771e-04
4.470182e+01	-3.474562e-04
4.496001e+01	-3.514814e-04
4.521970e+01	-3.555533e-04
4.548089e+01	-3.596723e-04
4.574358e+01	-3.638390e-04
4.600779e+01	-3.680540e-04
4.627353e+01	-3.723178e-04
4.654081e+01	-3.766311e-04
4.680963e+01	-3.809943e-04
4.708000e+01	-3.854080e-04
4.735193e+01	-3.898728e-04
4.762543e+01	-3.943894e-04
4.790051e+01	-3.989583e-04
4.817719e+01	-4.035801e-04
4.845545e+01	-4.082555e-04
4.873533e+01	-4.129850e-04
4.901682e+01	-4.177694e-04
4.929994e+01	-4.226091e-04
4.958470e+01	-4.275049e-04
4.987110e+01	-4.324574e-04
5.015915e+01	-4.374673e-04
5.044887e+01	-4.425352e-04
5.074026e+01	-4.476619e-04
5.103333e+01	-4.528479e-04
5.132810e+01	-4.580940e-04
5.162457e+01	-4.634008e-04
5.192275e+01	-4.687692e-04
5.222265e+01	-4.741997e-04
5.252429e+01	-4.796931e-04
5.282767e+01	-4.852502e-04
5.313280e+01	-4.908716e-04
5.343969e+01	-4.965582e-04
5.374836e+01	-5.023106e-04
5.405880e+01	-5.081297e-04
5.437105e+01	-5.140161e-04
5.468509e+01	-5.199708e-04
5.500095e+01	-5.259945e-04
5.531863e+01	-5.320879e-04
5.563815e+01	-5.382519e-04
5.595951e+01	-5.444873e-04
5.628273e+01	-5.507949e-04
5.660782e+01	-5.571756e-04
5.693479e+01	-5.636302e-04
5.726364e+01	-5.701596e-04
5.759439e+01	-5.767646e-04
5.792705e+01	-5.834462e-04
5.826164e+01	-5.902051e-04
5.859815e+01	-5.970423e-04
5.893662e+01	-6.039587e-04
5.927703e+01	-6.109553e-04
5.961941e+01	-6.180328e-04
5.996377e+01	-6.251924e-04
6.031012e+01	-6.324349e-04
6.065847e+01	-6.397613e-04
6.100883e+01	-6.471725e-04
6.136121e+01	-6.546697e-04
6.171563e+01	-6.622536e-04
6.207210e+01	-6.699254e-04
6.243063e+01	-6.776861e-04
6.279122e+01	-6.855366e-04
6.315390e+01	-6.934781e-04
6.351868e+01	-7.015116e-04
6.388556e+01	-7.096382e-04
6.425456e+01	-7.178588e-04
6.462569e+01	-7.261747e-04
6.499897e+01	-7.345869e-04
6.537440e+01	-7.430966e-04
6.575200e+01	-7.517048e-04
6.613178e+01	-7.604128e-04
6.651375e+01	-7.692216e-04
6.689793e+01	-7.781324e-04
6.728433e+01	-7.871465e-04
6.767297e+01	-7.962650e-04
6.806384e+01	-8.054891e-04
6.845698e+01	-8.148200e-04
6.885238e+01	-8.242590e-04
6.925007e+01	-8.338074e-04
6.965005e+01	-8.434663e-04
7.005235e+01	-8.532371e-04
7.045697e+01	-8.631211e-04
7.086393e+01	-8.731196e-04
7.127323e+01	-8.832339e-04
7.168490e+01	-8.934654e-04
7.209895e+01	-9.038153e-04
7.251539e+01	-9.142852e-04
7.293424e+01	-9.248763e-04
7.335551e+01	-9.355901e-04
7.377920e+01	-9.464280e-04
7.420535e+01	-9.573914e-04
7.463396e+01	-9.684818e-04
7.506504e+01	-9.797007e-04
7.549861e+01	-9.910495e-04
7.593469e+01	-1.002530e-03
7.637328e+01	-1.014143e-03
7.681441e+01	-1.025891e-03
7.725809e+01	-1.037774e-03
7.770433e+01	-1.049796e-03
7.815315e+01	-1.061957e-03
7.860456e+01	-1.074258e-03
7.905857e+01	-1.086702e-03
7.951521e+01	-1.099290e-03
7.997449e+01	-1.112024e-03
8.043642e+01	-1.124906e-03
8.090102e+01	-1.137936e-03
8.136830e+01	-1.151118e-03
8.183828e+01	-1.164452e-03
8.231097e+01	-1.177941e-03
8.278640e+01	-1.191586e-03
8.326457e+01	-1.205389e-03
8.374550e+01	-1.219351e-03
8.422921e+01	-1.233476e-03
8.471572e+01	-1.247764e-03
8.520503e+01	-1.262218e-03
8.569717e+01	-1.276839e-03
8.619215e+01	-1.291629e-03
8.669000e+01	-1.306590e-03
8.719071e+01	-1.321725e-03
8.769432e+01	-1.337036e-03
8.820084e+01	-1.352523e-03
8.871029e+01	-1.368190e-03
8.922267e+01	-1.384038e-03
8.973802e+01	-1.400070e-03
9.025634e+01	-1.416288e-03
9.077766e+01	-1.432693e-03
9.130199e+01	-1.449288e-03
9.182935e+01	-1.466076e-03
9.235975e+01	-1.483058e-03
9.289321e+01	-1.500237e-03
9.342976e+01	-1.517614e-03
9.396941e+01	-1.535193e-03
9.451217e+01	-1.552976e-03
9.505807e+01	-1.570964e-03
9.560712e+01	-1.589161e-03
9.615934e+01	-1.607568e-03
9.671476e+01	-1.626189e-03
9.727338e+01	-1.645025e-03
9.783522e+01	-1.664079e-03
9.840032e+01	-1.683354e-03
9.896867e+01	-1.702853e-03
9.954031e+01	-1.722577e-03
1.001153e+02	-1.742529e-03
1.006935e+02	-1.762713e-03
1.012751e+02	-1.783130e-03
1.018601e+02	-1.803784e-03
1.024484e+02	-1.824677e-03
1.030402e+02	-1.845812e-03
1.036353e+02	-1.867191e-03
1.042339e+02	-1.888819e-03
1.048360e+02	-1.910696e-03
1.054415e+02	-1.932827e-03
1.060505e+02	-1.955214e-03
1.066631e+02	-1.977861e-03
1.072791e+02	-2.000770e-03
1.078988e+02	-2.023944e-03
1.085220e+02	-2.047386e-03
1.091488e+02	-2.071100e-03
1.097793e+02	-2.095088e-03
1.104133e+02	-2.119355e-03
1.110511e+02	-2.143902e-03
1.116925e+02	-2.168733e-03
1.123376e+02	-2.193852e-03
1.129865e+02	-2.219262e-03
1.136391e+02	-2.244966e-03
1.142955e+02	-2.270968e-03
1.149556e+02	-2.297271e-03
1.156196e+02	-2.323878e-03
1.162874e+02	-2.350794e-03
1.169591e+02	-2.378021e-03
1.176347e+02	-2.405563e-03
1.183141e+02	-2.433424e-03
1.189975e+02	-2.461608e-03
1.196848e+02	-2.490118e-03
1.203761e+02	-2.518959e-03
1.210714e+02	-2.548133e-03
1.217707e+02	-2.577645e-03
1.224740e+02	-2.607499e-03
1.231814e+02	-2.637698e-03
1.238929e+02	-2.668247e-03
1.246085e+02	-2.699150e-03
1.253283e+02	-2.730410e-03
1.260522e+02	-2.762033e-03
1.267802e+02	-2.794021e-03
1.275125e+02	-2.826380e-03
1.282490e+02	-2.859114e-03
1.289898e+02	-2.892226e-03
1.297348e+02	-2.925722e-03
1.304842e+02	-2.959606e-03
1.312378e+02	-2.993882e-03
1.319959e+02	-3.028555e-03
1.327583e+02	-3.063629e-03
1.335251e+02	-3.099109e-03
1.342963e+02	-3.135000e-03
1.350720e+02	-3.171307e-03
1.358522e+02	-3.208034e-03
1.366368e+02	-3.245186e-03
1.374260e+02	-3.282768e-03
1.382198e+02	-3.320785e-03
1.390182e+02	-3.359242e-03
1.398211e+02	-3.398145e-03
1.406287e+02	-3.437497e-03
1.414410e+02	-3.477306e-03
1.422579e+02	-3.517575e-03
1.430796e+02	-3.558310e-03
1.439060e+02	-3.599517e-03
1.447372e+02	-3.641201e-03
1.455732e+02	-3.683367e-03
1.464141e+02	-3.726022e-03
1.472597e+02	-3.769170e-03
1.481103e+02	-3.812817e-03
1.489658e+02	-3.856970e-03
1.498262e+02	-3.901634e-03
1.506916e+02	-3.946815e-03
1.515620e+02	-3.992519e-03
1.524374e+02	-4.038752e-03
1.533179e+02	-4.085520e-03
1.542034e+02	-4.132829e-03
1.550941e+02	-4.180686e-03
1.559899e+02	-4.229096e-03
1.568909e+02	-4.278067e-03
1.577971e+02	-4.327605e-03
1.587085e+02	-4.377716e-03
1.596252e+02	-4.428407e-03
1.605472e+02	-4.479685e-03
1.614745e+02	-4.531556e-03
1.624072e+02	-4.584028e-03
1.633453e+02	-4.637106e-03
1.642887e+02	-4.690799e-03
1.652377e+02	-4.745114e-03
1.661921e+02	-4.800057e-03
1.671520e+02	-4.855635e-03
1.681175e+02	-4.911857e-03
1.690885e+02	-4.968730e-03
1.700651e+02	-5.026260e-03
1.710474e+02	-5.084457e-03
1.720354e+02	-5.143327e-03
1.730291e+02	-5.202877e-03
1.740285e+02	-5.263118e-03
1.750337e+02	-5.324055e-03
1.760446e+02	-5.385697e-03
1.770615e+02	-5.448052e-03
1.780842e+02	-5.511129e-03
1.791128e+02	-5.574936e-03
1.801473e+02	-5.639481e-03
1.811878e+02	-5.704773e-03
1.822344e+02	-5.770820e-03
1.832870e+02	-5.837631e-03
1.843456e+02	-5.905216e-03
1.854104e+02	-5.973582e-03
1.864813e+02	-6.042739e-03
1.875584e+02	-6.112697e-03
1.886418e+02	-6.183463e-03
1.897313e+02	-6.255048e-03
1.908272e+02	-6.327462e-03
1.919294e+02	-6.400713e-03
1.930380e+02	-6.474811e-03
1.941530e+02	-6.549767e-03
1.952744e+02	-6.625590e-03
1.964023e+02	-6.702289e-03
1.975367e+02	-6.779876e-03
1.986777e+02	-6.858361e-03
1.998252e+02	-6.937753e-03
2.009794e+02	-7.018063e-03
2.021403e+02	-7.099303e-03
2.033078e+02	-7.181482e-03
2.044821e+02	-7.264611e-03
2.056632e+02	-7.348702e-03
2.068511e+02	-7.433766e-03
2.080459e+02	-7.519813e-03
2.092475e+02	-7.606856e-03
2.104561e+02	-7.694905e-03
2.116717e+02	-7.783972e-03
2.128943e+02	-7.874069e-03
2.141240e+02	-7.965208e-03
2.153608e+02	-8.057401e-03
2.166047e+02	-8.150661e-03
2.178558e+02	-8.244998e-03
2.191141e+02	-8.340427e-03
2.203797e+02	-8.436958e-03
2.216526e+02	-8.534606e-03
2.229329e+02	-8.633383e-03
2.242205e+02	-8.733302e-03
2.255156e+02	-8.834377e-03
2.268182e+02	-8.936620e-03
2.281283e+02	-9.040044e-03
2.294459e+02	-9.144665e-03
2.307712e+02	-9.250495e-03
2.321041e+02	-9.357549e-03
2.334447e+02	-9.465840e-03
2.347931e+02	-9.575382e-03
2.361493e+02	-9.686192e-03
2.375133e+02	-9.798282e-03
2.388851e+02	-9.911667e-03
2.402649e+02	-1.002636e-02
2.416527e+02	-1.014239e-02
2.430484e+02	-1.025975e-02
2.444523e+02	-1.037847e-02
2.458642e+02	-1.049856e-02
2.472843e+02	-1.062004e-02
2.487126e+02	-1.074292e-02
2.501492e+02	-1.086722e-02
2.515940e+02	-1.099296e-02
2.530472e+02	-1.112016e-02
2.545088e+02	-1.124882e-02
2.559789e+02	-1.137897e-02
2.574574e+02	-1.151062e-02
2.589444e+02	-1.164379e-02
2.604401e+02	-1.177851e-02
2.619444e+02	-1.191478e-02
2.634574e+02	-1.205262e-02
2.649791e+02	-1.219206e-02
2.665096e+02	-1.233310e-02
2.680489e+02	-1.247578e-02
2.695972e+02	-1.262010e-02
2.711544e+02	-1.276609e-02
2.727205e+02	-1.291377e-02
2.742958e+02	-1.306316e-02
2.758801e+02	-1.321427e-02
2.774736e+02	-1.336712e-02
2.790762e+02	-1.352174e-02
2.806882e+02	-1.367814e-02
2.823094e+02	-1.383636e-02
2.839400e+02	-1.399639e-02
2.855800e+02	-1.415828e-02
2.872295e+02	-1.432204e-02
2.888886e+02	-1.448768e-02
2.905572e+02	-1.465524e-02
2.922354e+02	-1.482474e-02
2.939234e+02	-1.499619e-02
2.956211e+02	-1.516962e-02
2.973286e+02	-1.534505e-02
2.990459e+02	-1.552251e-02
3.007732e+02	-1.570201e-02
3.025104e+02	-1.588359e-02
3.042577e+02	-1.606726e-02
3.060151e+02	-1.625306e-02
3.077826e+02	-1.644100e-02
3.095604e+02	-1.663110e-02
3.113484e+02	-1.682340e-02
3.131467e+02	-1.701792e-02
3.149554e+02	-1.721469e-02
3.167746e+02	-1.741372e-02
3.186043e+02	-1.761506e-02
3.204445e+02	-1.781871e-02
3.222954e+02	-1.802471e-02
3.241570e+02	-1.823310e-02
3.260293e+02	-1.844388e-02
3.279124e+02	-1.865710e-02
3.298064e+02	-1.887277e-02
3.317114e+02	-1.909094e-02
3.336273e+02	-1.931162e-02
3.355544e+02	-1.953484e-02
3.374925e+02	-1.976064e-02
3.394418e+02	-1.998904e-02
3.414024e+02	-2.022008e-02
3.433744e+02	-2.045378e-02
3.453577e+02	-2.069018e-02
3.473525e+02	-2.092930e-02
3.493588e+02	-2.117118e-02
3.513766e+02	-2.141584e-02
3.534062e+02	-2.166333e-02
3.554474e+02	-2.191367e-02
3.575005e+02	-2.216690e-02
3.595654e+02	-2.242304e-02
3.616422e+02	-2.268213e-02
3.637311e+02	-2.294422e-02
3.658320e+02	-2.320932e-02
3.679450e+02	-2.347747e-02
3.700702e+02	-2.374872e-02
3.722077e+02	-2.402309e-02
3.743576e+02	-2.430062e-02
3.765199e+02	-2.458135e-02
3.786946e+02	-2.486532e-02
3.808820e+02	-2.515255e-02
3.830819e+02	-2.544309e-02
3.852946e+02	-2.573698e-02
3.875200e+02	-2.603425e-02
3.897583e+02	-2.633495e-02
3.920096e+02	-2.663911e-02
3.942738e+02	-2.694677e-02
3.965511e+02	-2.725797e-02
3.988416e+02	-2.757276e-02
4.011452e+02	-2.789116e-02
4.034622e+02	-2.821324e-02
4.057926e+02	-2.853902e-02
4.081365e+02	-2.886855e-02
4.104938e+02	-2.920187e-02
4.128648e+02	-2.953902e-02
4.152495e+02	-2.988006e-02
4.176480e+02	-3.022502e-02
4.200603e+02	-3.057395e-02
4.224866e+02	-3.092689e-02
4.249268e+02	-3.128389e-02
4.273812e+02	-3.164500e-02
4.298497e+02	-3.201026e-02
4.323325e+02	-3.237972e-02
4.348297e+02	-3.275343e-02
4.373412e+02	-3.313143e-02
4.398673e+02	-3.351378e-02
4.424079e+02	-3.390053e-02
4.449633e+02	-3.429172e-02
4.475334e+02	-3.468741e-02
4.501183e+02	-3.508764e-02
4.527182e+02	-3.549247e-02
4.553330e+02	-3.590196e-02
4.579630e+02	-3.631615e-02
4.606082e+02	-3.673510e-02
4.632687e+02	-3.715885e-02
4.659445e+02	-3.758748e-02
4.686358e+02	-3.802103e-02
4.713426e+02	-3.845956e-02
4.740650e+02	-3.890312e-02
4.768032e+02	-3.935178e-02
4.795572e+02	-3.980558e-02
4.823271e+02	-4.026460e-02
4.851130e+02	-4.072888e-02
4.879150e+02	-4.119849e-02
4.907332e+02	-4.167349e-02
4.935676e+02	-4.215394e-02
4.964185e+02	-4.263990e-02
4.992858e+02	-4.313143e-02
5.021696e+02	-4.362861e-02
5.050701e+02	-4.413148e-02
5.079874e+02	-4.464012e-02
5.109215e+02	-4.515459e-02
5.138726e+02	-4.567496e-02
5.168407e+02	-4.620130e-02
5.198259e+02	-4.673367e-02
5.228284e+02	-4.727214e-02
5.258482e+02	-4.781677e-02
5.288855e+02	-4.836765e-02
5.319403e+02	-4.892484e-02
5.350128e+02	-4.948841e-02
5.381030e+02	-5.005844e-02
5.412111e+02	-5.063499e-02
5.443371e+02	-5.121814e-02
5.474812e+02	-5.180797e-02
5.506434e+02	-5.240455e-02
5.538239e+02	-5.300796e-02
5.570228e+02	-5.361827e-02
5.602401e+02	-5.423557e-02
5.634760e+02	-5.485993e-02
5.667306e+02	-5.549143e-02
5.700040e+02	-5.613015e-02
5.732964e+02	-5.677617e-02
5.766077e+02	-5.742958e-02
5.799382e+02	-5.809047e-02
5.832879e+02	-5.875890e-02
5.866569e+02	-5.943497e-02
5.900454e+02	-6.011877e-02
5.934535e+02	-6.081038e-02
5.968813e+02	-6.150989e-02
6.003288e+02	-6.221738e-02
6.037963e+02	-6.293296e-02
6.072838e+02	-6.365671e-02
6.107914e+02	-6.438871e-02
6.143194e+02	-6.512907e-02
6.178676e+02	-6.587788e-02
6.214364e+02	-6.663524e-02
6.250258e+02	-6.740123e-02
6.286359e+02	-6.817595e-02
6.322669e+02	-6.895952e-02
6.359189e+02	-6.975201e-02
6.395919e+02	-7.055354e-02
6.432862e+02	-7.136420e-02
6.470017e+02	-7.218410e-02
6.507388e+02	-7.301334e-02
6.544974e+02	-7.385202e-02
6.582778e+02	-7.470025e-02
6.620800e+02	-7.555815e-02
6.659041e+02	-7.642580e-02
6.697504e+02	-7.730334e-02
6.736188e+02	-7.819085e-02
6.775096e+02	-7.908847e-02
6.814229e+02	-7.999629e-02
6.853587e+02	-8.091443e-02
6.893173e+02	-8.184302e-02
6.932988e+02	-8.278216e-02
6.973033e+02	-8.373197e-02
7.013309e+02	-8.469257e-02
