Frequency(Hz)	Magnitude(dB)
1.000000e+01	-2.200893e+00
1.005776e+01	-2.220757e+00
1.011585e+01	-2.240810e+00
1.017428e+01	-2.261168e+00
1.023305e+01	-2.281447e+00
1.029215e+01	-2.302029e+00
1.035160e+01	-2.322687e+00
1.041139e+01	-2.343425e+00
1.047153e+01	-2.364153e+00
1.053201e+01	-2.385372e+00
1.059284e+01	-2.406577e+00
1.065403e+01	-2.427905e+00
1.071556e+01	-2.449466e+00
1.077746e+01	-2.471329e+00
1.083971e+01	-2.492766e+00
1.090232e+01	-2.514739e+00
1.096529e+01	-2.536882e+00
1.102862e+01	-2.559054e+00
1.109232e+01	-2.581503e+00
1.115639e+01	-2.603874e+00
1.122083e+01	-2.626350e+00
1.128564e+01	-2.649483e+00
1.135083e+01	-2.672132e+00
1.141639e+01	-2.695221e+00
1.148233e+01	-2.718313e+00
1.154865e+01	-2.741502e+00
1.161536e+01	-2.765194e+00
1.168245e+01	-2.788948e+00
1.174992e+01	-2.812748e+00
1.181779e+01	-2.836722e+00
1.188605e+01	-2.860879e+00
1.195470e+01	-2.884705e+00
1.202375e+01	-2.909264e+00
1.209320e+01	-2.933718e+00
1.216305e+01	-2.958164e+00
1.223330e+01	-2.983129e+00
1.230396e+01	-3.008259e+00
1.237503e+01	-3.032917e+00
1.244651e+01	-3.058425e+00
1.251840e+01	-3.083779e+00
1.259070e+01	-3.109061e+00
1.266343e+01	-3.134970e+00
1.273657e+01	-3.160717e+00
1.281014e+01	-3.186614e+00
1.288413e+01	-3.212841e+00
1.295855e+01	-3.238839e+00
1.303339e+01	-3.265391e+00
1.310867e+01	-3.291923e+00
1.318439e+01	-3.318337e+00
1.326054e+01	-3.345227e+00
1.333713e+01	-3.372174e+00
1.341417e+01	-3.399253e+00
1.349165e+01	-3.426542e+00
1.356958e+01	-3.453640e+00
1.364795e+01	-3.481470e+00
1.372678e+01	-3.509237e+00
1.380607e+01	-3.536720e+00
1.388581e+01	-3.564843e+00
1.396602e+01	-3.592989e+00
1.404668e+01	-3.621000e+00
1.412782e+01	-3.649407e+00
1.420942e+01	-3.678064e+00
1.429149e+01	-3.706642e+00
1.437404e+01	-3.735478e+00
1.445706e+01	-3.764496e+00
1.454057e+01	-3.793301e+00
1.462455e+01	-3.822414e+00
1.470902e+01	-3.851968e+00
1.479398e+01	-3.881572e+00
1.487943e+01	-3.911032e+00
1.496537e+01	-3.940803e+00
1.505181e+01	-3.970537e+00
1.513875e+01	-4.000848e+00
1.522619e+01	-4.030920e+00
1.531414e+01	-4.061496e+00
1.540259e+01	-4.091902e+00
1.549156e+01	-4.122284e+00
1.558103e+01	-4.152889e+00
1.567103e+01	-4.184153e+00
1.576155e+01	-4.214823e+00
1.585258e+01	-4.246129e+00
1.594415e+01	-4.277150e+00
1.603624e+01	-4.309034e+00
1.612886e+01	-4.340582e+00
1.622202e+01	-4.371959e+00
1.631572e+01	-4.403806e+00
1.640996e+01	-4.435686e+00
1.650474e+01	-4.467629e+00
1.660008e+01	-4.500185e+00
1.669596e+01	-4.532411e+00
1.679239e+01	-4.564600e+00
1.688938e+01	-4.597409e+00
1.698694e+01	-4.630149e+00
1.708505e+01	-4.662831e+00
1.718373e+01	-4.696284e+00
1.728299e+01	-4.729187e+00
1.738281e+01	-4.762663e+00
1.748322e+01	-4.795999e+00
1.758420e+01	-4.829151e+00
1.768576e+01	-4.862899e+00
1.778792e+01	-4.896586e+00
1.789066e+01	-4.930642e+00
1.799399e+01	-4.964482e+00
1.809793e+01	-4.998491e+00
1.820246e+01	-5.033046e+00
1.830760e+01	-5.067328e+00
1.841334e+01	-5.101948e+00
1.851969e+01	-5.136390e+00
1.862666e+01	-5.171201e+00
1.873425e+01	-5.206143e+00
1.884246e+01	-5.241479e+00
1.895129e+01	-5.276558e+00
1.906075e+01	-5.311393e+00
1.917085e+01	-5.346883e+00
1.928158e+01	-5.382214e+00
1.939295e+01	-5.417811e+00
1.950496e+01	-5.453400e+00
1.961762e+01	-5.489327e+00
1.973093e+01	-5.525369e+00
1.984490e+01	-5.561614e+00
1.995952e+01	-5.597861e+00
2.007480e+01	-5.634209e+00
2.019076e+01	-5.670205e+00
2.030738e+01	-5.707137e+00
2.042467e+01	-5.743619e+00
2.054264e+01	-5.780384e+00
2.066130e+01	-5.817231e+00
2.078064e+01	-5.853844e+00
2.090066e+01	-5.891277e+00
2.102139e+01	-5.928336e+00
2.114280e+01	-5.965400e+00
2.126492e+01	-6.002978e+00
2.138775e+01	-6.040713e+00
2.151128e+01	-6.078311e+00
2.163553e+01	-6.115765e+00
2.176050e+01	-6.153923e+00
2.188619e+01	-6.191862e+00
2.201260e+01	-6.229838e+00
2.213974e+01	-6.267822e+00
2.226762e+01	-6.306168e+00
2.239624e+01	-6.344846e+00
2.252560e+01	-6.383264e+00
2.265571e+01	-6.421602e+00
2.278656e+01	-6.460099e+00
2.291818e+01	-6.499196e+00
2.305055e+01	-6.538076e+00
2.318369e+01	-6.576720e+00
2.331760e+01	-6.615857e+00
2.345228e+01	-6.655309e+00
2.358774e+01	-6.694497e+00
2.372398e+01	-6.733760e+00
2.386101e+01	-6.773724e+00
2.399883e+01	-6.812922e+00
2.413745e+01	-6.852684e+00
2.427686e+01	-6.892281e+00
2.441709e+01	-6.931915e+00
2.455812e+01	-6.971974e+00
2.469997e+01	-7.011720e+00
2.484263e+01	-7.052333e+00
2.498612e+01	-7.092445e+00
2.513044e+01	-7.132896e+00
2.527559e+01	-7.173077e+00
2.542158e+01	-7.213687e+00
2.556842e+01	-7.253905e+00
2.571610e+01	-7.295148e+00
2.586463e+01	-7.335851e+00
2.601403e+01	-7.376347e+00
2.616428e+01	-7.417216e+00
2.631541e+01	-7.458439e+00
2.646740e+01	-7.499623e+00
2.662028e+01	-7.540644e+00
2.677404e+01	-7.581819e+00
2.692868e+01	-7.623346e+00
2.708422e+01	-7.665063e+00
2.724066e+01	-7.706207e+00
2.739800e+01	-7.747698e+00
2.755625e+01	-7.789522e+00
2.771541e+01	-7.831468e+00
2.787550e+01	-7.872721e+00
2.803650e+01	-7.915325e+00
2.819844e+01	-7.956910e+00
2.836131e+01	-7.999208e+00
2.852513e+01	-8.040537e+00
2.868989e+01	-8.083200e+00
2.885560e+01	-8.125638e+00
2.902227e+01	-8.167775e+00
2.918990e+01	-8.210372e+00
2.935850e+01	-8.252797e+00
2.952807e+01	-8.295260e+00
2.969863e+01	-8.338273e+00
2.987016e+01	-8.380499e+00
3.004269e+01	-8.423328e+00
3.021622e+01	-8.466126e+00
3.039075e+01	-8.508862e+00
3.056628e+01	-8.552073e+00
3.074283e+01	-8.595783e+00
3.092040e+01	-8.638545e+00
3.109900e+01	-8.681813e+00
3.127862e+01	-8.725188e+00
3.145929e+01	-8.768862e+00
3.164099e+01	-8.811568e+00
3.182375e+01	-8.855267e+00
3.200756e+01	-8.898514e+00
3.219244e+01	-8.942396e+00
3.237838e+01	-8.986556e+00
3.256540e+01	-9.029851e+00
3.275349e+01	-9.073633e+00
3.294268e+01	-9.117165e+00
3.313295e+01	-9.161495e+00
3.332433e+01	-9.205775e+00
3.351681e+01	-9.249541e+00
3.371040e+01	-9.293748e+00
3.390511e+01	-9.338008e+00
3.410094e+01	-9.381745e+00
3.429791e+01	-9.426458e+00
3.449601e+01	-9.470356e+00
3.469526e+01	-9.515200e+00
3.489566e+01	-9.560260e+00
3.509721e+01	-9.604237e+00
3.529993e+01	-9.648607e+00
3.550382e+01	-9.692859e+00
3.570889e+01	-9.737732e+00
3.591515e+01	-9.782715e+00
3.612259e+01	-9.827484e+00
3.633123e+01	-9.872404e+00
3.654108e+01	-9.917344e+00
3.675214e+01	-9.962748e+00
3.696442e+01	-1.000695e+01
3.717792e+01	-1.005206e+01
3.739266e+01	-1.009754e+01
3.760864e+01	-1.014264e+01
3.782587e+01	-1.018751e+01
3.804435e+01	-1.023305e+01
3.826409e+01	-1.027881e+01
3.848510e+01	-1.032391e+01
3.870739e+01	-1.036918e+01
3.893096e+01	-1.041440e+01
3.915583e+01	-1.046007e+01
3.938199e+01	-1.050576e+01
3.960946e+01	-1.055072e+01
3.983824e+01	-1.059712e+01
4.006834e+01	-1.064224e+01
4.029978e+01	-1.068859e+01
4.053255e+01	-1.073417e+01
4.076666e+01	-1.078020e+01
4.100213e+01	-1.082587e+01
4.123896e+01	-1.087164e+01
4.147715e+01	-1.091786e+01
4.171672e+01	-1.096371e+01
4.195767e+01	-1.100954e+01
4.220002e+01	-1.105608e+01
4.244377e+01	-1.110134e+01
4.268892e+01	-1.114796e+01
4.293549e+01	-1.119401e+01
4.318348e+01	-1.124025e+01
4.343291e+01	-1.128701e+01
4.368377e+01	-1.133277e+01
4.393609e+01	-1.138022e+01
4.418986e+01	-1.142585e+01
4.444510e+01	-1.147184e+01
4.470182e+01	-1.151835e+01
4.496001e+01	-1.156541e+01
4.521970e+01	-1.161194e+01
4.548089e+01	-1.165869e+01
4.574358e+01	-1.170547e+01
4.600779e+01	-1.175230e+01
4.627353e+01	-1.179833e+01
4.654081e+01	-1.184602e+01
4.680963e+01	-1.189205e+01
4.708000e+01	-1.193886e+01
4.735193e+01	-1.198467e+01
4.762543e+01	-1.203180e+01
4.790051e+01	-1.207998e+01
4.817719e+01	-1.212568e+01
4.845545e+01	-1.217354e+01
4.873533e+01	-1.222035e+01
4.901682e+01	-1.226737e+01
4.929994e+01	-1.231454e+01
4.958470e+01	-1.236164e+01
4.987110e+01	-1.240870e+01
5.015915e+01	-1.245590e+01
5.044887e+01	-1.250298e+01
5.074026e+01	-1.255056e+01
5.103333e+01	-1.259774e+01
5.132810e+01	-1.264446e+01
5.162457e+01	-1.269223e+01
5.192275e+01	-1.273943e+01
5.222265e+01	-1.278701e+01
5.252429e+01	-1.283403e+01
5.282767e+01	-1.288143e+01
5.313280e+01	-1.292960e+01
5.343969e+01	-1.297625e+01
5.374836e+01	-1.302417e+01
5.405880e+01	-1.307168e+01
5.437105e+01	-1.311920e+01
5.468509e+01	-1.316669e+01
5.500095e+01	-1.321441e+01
5.531863e+01	-1.326209e+01
5.563815e+01	-1.330970e+01
5.595951e+01	-1.335743e+01
5.628273e+01	-1.340585e+01
5.660782e+01	-1.345298e+01
5.693479e+01	-1.350004e+01
5.726364e+01	-1.354859e+01
5.759439e+01	-1.359638e+01
5.792705e+01	-1.364416e+01
5.826164e+01	-1.369221e+01
5.859815e+01	-1.373995e+01
5.893662e+01	-1.378788e+01
5.927703e+01	-1.383621e+01
5.961941e+01	-1.388443e+01
5.996377e+01	-1.393202e+01
6.031012e+01	-1.397980e+01
6.065847e+01	-1.402857e+01
6.100883e+01	-1.407557e+01
6.136121e+01	-1.412432e+01
6.171563e+01	-1.417159e+01
6.207210e+01	-1.421975e+01
6.243063e+01	-1.426885e+01
6.279122e+01	-1.431589e+01
6.315390e+01	-1.436553e+01
6.351868e+01	-1.441344e+01
6.388556e+01	-1.446162e+01
6.425456e+01	-1.450955e+01
6.462569e+01	-1.455693e+01
6.499897e+01	-1.460611e+01
6.537440e+01	-1.465402e+01
6.575200e+01	-1.470267e+01
6.613178e+01	-1.475150e+01
6.651375e+01	-1.479930e+01
6.689793e+01	-1.484771e+01
6.728433e+01	-1.489580e+01
6.767297e+01	-1.494490e+01
6.806384e+01	-1.499241e+01
6.845698e+01	-1.504059e+01
6.885238e+01	-1.509040e+01
6.925007e+01	-1.513834e+01
6.965005e+01	-1.518652e+01
7.005235e+01	-1.523510e+01
7.045697e+01	-1.528451e+01
7.086393e+01	-1.533250e+01
7.127323e+01	-1.538110e+01
7.168490e+01	-1.543017e+01
7.209895e+01	-1.547825e+01
7.251539e+01	-1.552729e+01
7.293424e+01	-1.557547e+01
7.335551e+01	-1.562483e+01
7.377920e+01	-1.567228e+01
7.420535e+01	-1.572171e+01
7.463396e+01	-1.576925e+01
7.506504e+01	-1.581884e+01
7.549861e+01	-1.586858e+01
7.593469e+01	-1.591708e+01
7.637328e+01	-1.596581e+01
7.681441e+01	-1.601484e+01
7.725809e+01	-1.606223e+01
7.770433e+01	-1.611175e+01
7.815315e+01	-1.616017e+01
7.860456e+01	-1.620900e+01
7.905857e+01	-1.625791e+01
7.951521e+01	-1.630746e+01
7.997449e+01	-1.635519e+01
8.043642e+01	-1.640443e+01
8.090102e+01	-1.645482e+01
8.136830e+01	-1.650153e+01
8.183828e+01	-1.655156e+01
8.231097e+01	-1.660091e+01
8.278640e+01	-1.664755e+01
8.326457e+01	-1.669744e+01
8.374550e+01	-1.674784e+01
8.422921e+01	-1.679518e+01
8.471572e+01	-1.684507e+01
8.520503e+01	-1.689453e+01
8.569717e+01	-1.694284e+01
8.619215e+01	-1.699247e+01
8.669000e+01	-1.704158e+01
8.719071e+01	-1.708942e+01
8.769432e+01	-1.713997e+01
8.820084e+01	-1.718739e+01
8.871029e+01	-1.723826e+01
8.922267e+01	-1.728670e+01
8.973802e+01	-1.733579e+01
9.025634e+01	-1.738493e+01
9.077766e+01	-1.743394e+01
9.130199e+01	-1.748267e+01
9.182935e+01	-1.753133e+01
9.235975e+01	-1.758212e+01
9.289321e+01	-1.763067e+01
9.342976e+01	-1.768044e+01
9.396941e+01	-1.772858e+01
9.451217e+01	-1.777754e+01
9.505807e+01	-1.782685e+01
9.560712e+01	-1.787774e+01
9.615934e+01	-1.792527e+01
9.671476e+01	-1.797486e+01
9.727338e+01	-1.802359e+01
9.783522e+01	-1.807410e+01
9.840032e+01	-1.812292e+01
9.896867e+01	-1.817293e+01
9.954031e+01	-1.822218e+01
1.001153e+02	-1.827058e+01
1.006935e+02	-1.832060e+01
1.012751e+02	-1.836955e+01
1.018601e+02	-1.841732e+01
1.024484e+02	-1.846778e+01
1.030402e+02	-1.851616e+01
1.036353e+02	-1.856629e+01
1.042339e+02	-1.861562e+01
1.048360e+02	-1.866442e+01
1.054415e+02	-1.871478e+01
1.060505e+02	-1.876272e+01
1.066631e+02	-1.881331e+01
1.072791e+02	-1.886300e+01
1.078988e+02	-1.891202e+01
1.085220e+02	-1.896172e+01
1.091488e+02	-1.901049e+01
1.097793e+02	-1.906078e+01
1.104133e+02	-1.911012e+01
1.110511e+02	-1.915908e+01
1.116925e+02	-1.920774e+01
1.123376e+02	-1.925765e+01
1.129865e+02	-1.930710e+01
1.136391e+02	-1.935644e+01
1.142955e+02	-1.940536e+01
1.149556e+02	-1.945660e+01
1.156196e+02	-1.950644e+01
1.162874e+02	-1.955517e+01
1.169591e+02	-1.960470e+01
1.176347e+02	-1.965383e+01
1.183141e+02	-1.970430e+01
1.189975e+02	-1.975247e+01
1.196848e+02	-1.980134e+01
1.203761e+02	-1.985108e+01
1.210714e+02	-1.990144e+01
1.217707e+02	-1.995092e+01
1.224740e+02	-2.000021e+01
1.231814e+02	-2.004933e+01
1.238929e+02	-2.009959e+01
1.246085e+02	-2.014879e+01
1.253283e+02	-2.019863e+01
1.260522e+02	-2.024743e+01
1.267802e+02	-2.029666e+01
1.275125e+02	-2.034713e+01
1.282490e+02	-2.039615e+01
1.289898e+02	-2.044683e+01
1.297348e+02	-2.049582e+01
1.304842e+02	-2.054451e+01
1.312378e+02	-2.059522e+01
1.319959e+02	-2.064545e+01
1.327583e+02	-2.069400e+01
1.335251e+02	-2.074406e+01
1.342963e+02	-2.079325e+01
1.350720e+02	-2.084225e+01
1.358522e+02	-2.089261e+01
1.366368e+02	-2.094401e+01
1.374260e+02	-2.099119e+01
1.382198e+02	-2.104389e+01
1.390182e+02	-2.109091e+01
1.398211e+02	-2.114123e+01
1.406287e+02	-2.119090e+01
1.414410e+02	-2.123931e+01
1.422579e+02	-2.129062e+01
1.430796e+02	-2.134137e+01
1.439060e+02	-2.138787e+01
1.447372e+02	-2.143883e+01
1.455732e+02	-2.148799e+01
1.464141e+02	-2.153771e+01
1.472597e+02	-2.158914e+01
1.481103e+02	-2.163708e+01
1.489658e+02	-2.168784e+01
1.498262e+02	-2.173642e+01
1.506916e+02	-2.178615e+01
1.515620e+02	-2.183810e+01
1.524374e+02	-2.188821e+01
1.533179e+02	-2.193786e+01
1.542034e+02	-2.198555e+01
1.550941e+02	-2.203512e+01
1.559899e+02	-2.208551e+01
1.568909e+02	-2.213541e+01
1.577971e+02	-2.218484e+01
1.587085e+02	-2.223613e+01
1.596252e+02	-2.228288e+01
1.605472e+02	-2.233432e+01
1.614745e+02	-2.238284e+01
1.624072e+02	-2.243360e+01
1.633453e+02	-2.248209e+01
1.642887e+02	-2.253311e+01
1.652377e+02	-2.258242e+01
1.661921e+02	-2.263261e+01
1.671520e+02	-2.268370e+01
1.681175e+02	-2.273473e+01
1.690885e+02	-2.278276e+01
1.700651e+02	-2.283184e+01
1.710474e+02	-2.288021e+01
1.720354e+02	-2.293096e+01
1.730291e+02	-2.298039e+01
1.740285e+02	-2.303244e+01
1.750337e+02	-2.308296e+01
1.760446e+02	-2.313068e+01
1.770615e+02	-2.318041e+01
1.780842e+02	-2.323187e+01
1.791128e+02	-2.328044e+01
1.801473e+02	-2.333053e+01
1.811878e+02	-2.338009e+01
1.822344e+02	-2.342933e+01
1.832870e+02	-2.347913e+01
1.843456e+02	-2.352784e+01
1.854104e+02	-2.357835e+01
1.864813e+02	-2.362735e+01
1.875584e+02	-2.367439e+01
1.886418e+02	-2.373086e+01
1.897313e+02	-2.377993e+01
1.908272e+02	-2.382777e+01
1.919294e+02	-2.387782e+01
1.930380e+02	-2.393055e+01
1.941530e+02	-2.397310e+01
1.952744e+02	-2.402742e+01
1.964023e+02	-2.407789e+01
1.975367e+02	-2.412708e+01
1.986777e+02	-2.418008e+01
1.998252e+02	-2.422833e+01
2.009794e+02	-2.427816e+01
2.021403e+02	-2.432863e+01
2.033078e+02	-2.437652e+01
2.044821e+02	-2.442308e+01
2.056632e+02	-2.447464e+01
2.068511e+02	-2.452455e+01
2.080459e+02	-2.457647e+01
2.092475e+02	-2.462478e+01
2.104561e+02	-2.467468e+01
2.116717e+02	-2.472742e+01
2.128943e+02	-2.477268e+01
2.141240e+02	-2.482372e+01
2.153608e+02	-2.487575e+01
2.166047e+02	-2.492646e+01
2.178558e+02	-2.497442e+01
2.191141e+02	-2.502310e+01
2.203797e+02	-2.507577e+01
2.216526e+02	-2.512495e+01
2.229329e+02	-2.517573e+01
2.242205e+02	-2.522524e+01
2.255156e+02	-2.527057e+01
2.268182e+02	-2.532187e+01
2.281283e+02	-2.537493e+01
2.294459e+02	-2.542333e+01
2.307712e+02	-2.547449e+01
2.321041e+02	-2.552285e+01
2.334447e+02	-2.557599e+01
2.347931e+02	-2.562534e+01
2.361493e+02	-2.567732e+01
2.375133e+02	-2.572069e+01
2.388851e+02	-2.577375e+01
2.402649e+02	-2.582250e+01
2.416527e+02	-2.587381e+01
2.430484e+02	-2.592625e+01
2.444523e+02	-2.597300e+01
2.458642e+02	-2.602449e+01
2.472843e+02	-2.607029e+01
2.487126e+02	-2.612552e+01
2.501492e+02	-2.617138e+01
2.515940e+02	-2.622251e+01
2.530472e+02	-2.627045e+01
2.545088e+02	-2.632052e+01
2.559789e+02	-2.637231e+01
2.574574e+02	-2.642272e+01
2.589444e+02	-2.647268e+01
2.604401e+02	-2.652465e+01
2.619444e+02	-2.657550e+01
2.634574e+02	-2.662325e+01
2.649791e+02	-2.667254e+01
2.665096e+02	-2.672200e+01
2.680489e+02	-2.677674e+01
2.695972e+02	-2.682307e+01
2.711544e+02	-2.687618e+01
2.727205e+02	-2.692201e+01
2.742958e+02	-2.697346e+01
2.758801e+02	-2.702109e+01
2.774736e+02	-2.707533e+01
2.790762e+02	-2.712325e+01
2.806882e+02	-2.717328e+01
2.823094e+02	-2.722433e+01
2.839400e+02	-2.727288e+01
2.855800e+02	-2.732290e+01
2.872295e+02	-2.737418e+01
2.888886e+02	-2.742744e+01
2.905572e+02	-2.747306e+01
2.922354e+02	-2.752390e+01
2.939234e+02	-2.757143e+01
2.956211e+02	-2.762126e+01
2.973286e+02	-2.767662e+01
2.990459e+02	-2.772231e+01
3.007732e+02	-2.777148e+01
3.025104e+02	-2.782233e+01
3.042577e+02	-2.787042e+01
3.060151e+02	-2.791996e+01
3.077826e+02	-2.797315e+01
3.095604e+02	-2.802767e+01
3.113484e+02	-2.807188e+01
3.131467e+02	-2.812195e+01
3.149554e+02	-2.817340e+01
3.167746e+02	-2.822574e+01
3.186043e+02	-2.827515e+01
3.204445e+02	-2.832374e+01
3.222954e+02	-2.837095e+01
3.241570e+02	-2.842119e+01
3.260293e+02	-2.847554e+01
3.279124e+02	-2.852502e+01
3.298064e+02	-2.857476e+01
3.317114e+02	-2.861824e+01
3.336273e+02	-2.867462e+01
3.355544e+02	-2.872203e+01
3.374925e+02	-2.877226e+01
3.394418e+02	-2.882607e+01
3.414024e+02	-2.887840e+01
3.433744e+02	-2.892097e+01
3.453577e+02	-2.897086e+01
3.473525e+02	-2.902450e+01
3.493588e+02	-2.907374e+01
3.513766e+02	-2.912066e+01
3.534062e+02	-2.917751e+01
3.554474e+02	-2.922467e+01
3.575005e+02	-2.927455e+01
3.595654e+02	-2.932416e+01
3.616422e+02	-2.937690e+01
3.637311e+02	-2.942269e+01
3.658320e+02	-2.947559e+01
3.679450e+02	-2.952243e+01
3.700702e+02	-2.957307e+01
3.722077e+02	-2.962201e+01
3.743576e+02	-2.967600e+01
3.765199e+02	-2.972521e+01
3.786946e+02	-2.977489e+01
3.808820e+02	-2.982146e+01
3.830819e+02	-2.987852e+01
3.852946e+02	-2.992472e+01
3.875200e+02	-2.997164e+01
3.897583e+02	-3.002716e+01
3.920096e+02	-3.007373e+01
3.942738e+02	-3.012401e+01
3.965511e+02	-3.017253e+01
3.988416e+02	-3.022155e+01
4.011452e+02	-3.027405e+01
4.034622e+02	-3.032734e+01
4.057926e+02	-3.037430e+01
4.081365e+02	-3.042961e+01
4.104938e+02	-3.047703e+01
4.128648e+02	-3.052639e+01
4.152495e+02	-3.057877e+01
4.176480e+02	-3.062893e+01
4.200603e+02	-3.067553e+01
4.224866e+02	-3.072635e+01
4.249268e+02	-3.078391e+01
4.273812e+02	-3.083154e+01
4.298497e+02	-3.087963e+01
4.323325e+02	-3.092533e+01
4.348297e+02	-3.097929e+01
4.373412e+02	-3.102332e+01
4.398673e+02	-3.108013e+01
4.424079e+02	-3.113328e+01
4.449633e+02	-3.117986e+01
4.475334e+02	-3.122305e+01
4.501183e+02	-3.127993e+01
4.527182e+02	-3.132631e+01
4.553330e+02	-3.138081e+01
4.579630e+02	-3.143193e+01
4.606082e+02	-3.147971e+01
4.632687e+02	-3.152434e+01
4.659445e+02	-3.157928e+01
4.686358e+02	-3.162627e+01
4.713426e+02	-3.167894e+01
4.740650e+02	-3.173635e+01
4.768032e+02	-3.177786e+01
4.795572e+02	-3.183832e+01
4.823271e+02	-3.187607e+01
4.851130e+02	-3.193100e+01
4.879150e+02	-3.197930e+01
4.907332e+02	-3.203263e+01
4.935676e+02	-3.208082e+01
4.964185e+02	-3.213065e+01
4.992858e+02	-3.218221e+01
5.021696e+02	-3.223123e+01
5.050701e+02	-3.228305e+01
5.079874e+02	-3.233079e+01
5.109215e+02	-3.238276e+01
5.138726e+02	-3.243094e+01
5.168407e+02	-3.248606e+01
5.198259e+02	-3.253741e+01
5.228284e+02	-3.258234e+01
5.258482e+02	-3.262193e+01
5.288855e+02	-3.267906e+01
5.319403e+02	-3.272861e+01
5.350128e+02	-3.277669e+01
5.381030e+02	-3.283091e+01
5.412111e+02	-3.287882e+01
5.443371e+02	-3.293508e+01
5.474812e+02	-3.298537e+01
5.506434e+02	-3.303881e+01
5.538239e+02	-3.308373e+01
5.570228e+02	-3.313254e+01
5.602401e+02	-3.318818e+01
5.634760e+02	-3.323608e+01
5.667306e+02	-3.328345e+01
5.700040e+02	-3.333682e+01
5.732964e+02	-3.339060e+01
5.766077e+02	-3.343754e+01
5.799382e+02	-3.348144e+01
5.832879e+02	-3.353773e+01
5.866569e+02	-3.358287e+01
5.900454e+02	-3.363779e+01
5.934535e+02	-3.368617e+01
5.968813e+02	-3.374044e+01
6.003288e+02	-3.379151e+01
6.037963e+02	-3.383874e+01
6.072838e+02	-3.388743e+01
6.107914e+02	-3.394365e+01
6.143194e+02	-3.399087e+01
6.178676e+02	-3.404501e+01
6.214364e+02	-3.409601e+01
6.250258e+02	-3.414930e+01
6.286359e+02	-3.419255e+01
6.322669e+02	-3.423587e+01
6.359189e+02	-3.429730e+01
6.395919e+02	-3.435702e+01
6.432862e+02	-3.439011e+01
6.470017e+02	-3.444262e+01
6.507388e+02	-3.448768e+01
6.544974e+02	-3.453672e+01
6.582778e+02	-3.459122e+01
6.620800e+02	-3.465349e+01
6.659041e+02	-3.469301e+01
6.697504e+02	-3.474415e+01
6.736188e+02	-3.479848e+01
6.775096e+02	-3.484942e+01
6.814229e+02	-3.488794e+01
6.853587e+02	-3.495790e+01
6.893173e+02	-3.499164e+01
6.932988e+02	-3.504594e+01
6.973033e+02	-3.508635e+01
7.013309e+02	-3.514837e+01
