Frequency(Hz)	Magnitude(dB)
1.000000e+01	-2.315032e+00
1.005776e+01	-2.335754e+00
1.011585e+01	-2.356567e+00
1.017428e+01	-2.377481e+00
1.023305e+01	-2.398976e+00
1.029215e+01	-2.420019e+00
1.035160e+01	-2.441446e+00
1.041139e+01	-2.463207e+00
1.047153e+01	-2.484856e+00
1.053201e+01	-2.506645e+00
1.059284e+01	-2.528968e+00
1.065403e+01	-2.550942e+00
1.071556e+01	-2.573211e+00
1.077746e+01	-2.595756e+00
1.083971e+01	-2.618027e+00
1.090232e+01	-2.640870e+00
1.096529e+01	-2.663790e+00
1.102862e+01	-2.686683e+00
1.109232e+01	-2.710206e+00
1.115639e+01	-2.733266e+00
1.122083e+01	-2.756727e+00
1.128564e+01	-2.780184e+00
1.135083e+01	-2.803935e+00
1.141639e+01	-2.827958e+00
1.148233e+01	-2.851838e+00
1.154865e+01	-2.875986e+00
1.161536e+01	-2.900448e+00
1.168245e+01	-2.924848e+00
1.174992e+01	-2.949311e+00
1.181779e+01	-2.973975e+00
1.188605e+01	-2.998966e+00
1.195470e+01	-3.024097e+00
1.202375e+01	-3.049059e+00
1.209320e+01	-3.074440e+00
1.216305e+01	-3.099804e+00
1.223330e+01	-3.125537e+00
1.230396e+01	-3.151191e+00
1.237503e+01	-3.177158e+00
1.244651e+01	-3.203079e+00
1.251840e+01	-3.229205e+00
1.259070e+01	-3.255800e+00
1.266343e+01	-3.282018e+00
1.273657e+01	-3.308600e+00
1.281014e+01	-3.335526e+00
1.288413e+01	-3.362253e+00
1.295855e+01	-3.389280e+00
1.303339e+01	-3.416551e+00
1.310867e+01	-3.443882e+00
1.318439e+01	-3.471340e+00
1.326054e+01	-3.498884e+00
1.333713e+01	-3.526822e+00
1.341417e+01	-3.554676e+00
1.349165e+01	-3.582518e+00
1.356958e+01	-3.610682e+00
1.364795e+01	-3.639193e+00
1.372678e+01	-3.667562e+00
1.380607e+01	-3.695972e+00
1.388581e+01	-3.724936e+00
1.396602e+01	-3.753761e+00
1.404668e+01	-3.782542e+00
1.412782e+01	-3.812031e+00
1.420942e+01	-3.841178e+00
1.429149e+01	-3.870474e+00
1.437404e+01	-3.900374e+00
1.445706e+01	-3.929947e+00
1.454057e+01	-3.959739e+00
1.462455e+01	-3.989880e+00
1.470902e+01	-4.019937e+00
1.479398e+01	-4.050064e+00
1.487943e+01	-4.080624e+00
1.496537e+01	-4.111074e+00
1.505181e+01	-4.141767e+00
1.513875e+01	-4.172790e+00
1.522619e+01	-4.203518e+00
1.531414e+01	-4.234941e+00
1.540259e+01	-4.265784e+00
1.549156e+01	-4.297311e+00
1.558103e+01	-4.328653e+00
1.567103e+01	-4.360093e+00
1.576155e+01	-4.391940e+00
1.585258e+01	-4.424078e+00
1.594415e+01	-4.456236e+00
1.603624e+01	-4.488445e+00
1.612886e+01	-4.520539e+00
1.622202e+01	-4.553114e+00
1.631572e+01	-4.585570e+00
1.640996e+01	-4.618377e+00
1.650474e+01	-4.651164e+00
1.660008e+01	-4.684149e+00
1.669596e+01	-4.716954e+00
1.679239e+01	-4.750285e+00
1.688938e+01	-4.783506e+00
1.698694e+01	-4.817052e+00
1.708505e+01	-4.850960e+00
1.718373e+01	-4.884646e+00
1.728299e+01	-4.917947e+00
1.738281e+01	-4.952240e+00
1.748322e+01	-4.986164e+00
1.758420e+01	-5.020258e+00
1.768576e+01	-5.055018e+00
1.778792e+01	-5.089427e+00
1.789066e+01	-5.123503e+00
1.799399e+01	-5.158629e+00
1.809793e+01	-5.193558e+00
1.820246e+01	-5.228536e+00
1.830760e+01	-5.263389e+00
1.841334e+01	-5.298525e+00
1.851969e+01	-5.333954e+00
1.862666e+01	-5.369529e+00
1.873425e+01	-5.405357e+00
1.884246e+01	-5.440562e+00
1.895129e+01	-5.476577e+00
1.906075e+01	-5.512329e+00
1.917085e+01	-5.548627e+00
1.928158e+01	-5.584636e+00
1.939295e+01	-5.620844e+00
1.950496e+01	-5.657184e+00
1.961762e+01	-5.693736e+00
1.973093e+01	-5.730318e+00
1.984490e+01	-5.766981e+00
1.995952e+01	-5.804108e+00
2.007480e+01	-5.840811e+00
2.019076e+01	-5.877922e+00
2.030738e+01	-5.914800e+00
2.042467e+01	-5.952090e+00
2.054264e+01	-5.989598e+00
2.066130e+01	-6.027273e+00
2.078064e+01	-6.064767e+00
2.090066e+01	-6.102210e+00
2.102139e+01	-6.140163e+00
2.114280e+01	-6.177705e+00
2.126492e+01	-6.216043e+00
2.138775e+01	-6.253971e+00
2.151128e+01	-6.292355e+00
2.163553e+01	-6.331071e+00
2.176050e+01	-6.369193e+00
2.188619e+01	-6.407524e+00
2.201260e+01	-6.446512e+00
2.213974e+01	-6.484983e+00
2.226762e+01	-6.523983e+00
2.239624e+01	-6.562548e+00
2.252560e+01	-6.601993e+00
2.265571e+01	-6.641110e+00
2.278656e+01	-6.679986e+00
2.291818e+01	-6.719146e+00
2.305055e+01	-6.759173e+00
2.318369e+01	-6.798613e+00
2.331760e+01	-6.838306e+00
2.345228e+01	-6.877704e+00
2.358774e+01	-6.917197e+00
2.372398e+01	-6.957636e+00
2.386101e+01	-6.997850e+00
2.399883e+01	-7.037478e+00
2.413745e+01	-7.077377e+00
2.427686e+01	-7.118145e+00
2.441709e+01	-7.158309e+00
2.455812e+01	-7.198478e+00
2.469997e+01	-7.239419e+00
2.484263e+01	-7.280067e+00
2.498612e+01	-7.320709e+00
2.513044e+01	-7.362009e+00
2.527559e+01	-7.402550e+00
2.542158e+01	-7.443552e+00
2.556842e+01	-7.484107e+00
2.571610e+01	-7.525505e+00
2.586463e+01	-7.566942e+00
2.601403e+01	-7.608016e+00
2.616428e+01	-7.648785e+00
2.631541e+01	-7.691121e+00
2.646740e+01	-7.732310e+00
2.662028e+01	-7.773681e+00
2.677404e+01	-7.815906e+00
2.692868e+01	-7.857507e+00
2.708422e+01	-7.899294e+00
2.724066e+01	-7.941502e+00
2.739800e+01	-7.983090e+00
2.755625e+01	-8.025770e+00
2.771541e+01	-8.067866e+00
2.787550e+01	-8.109603e+00
2.803650e+01	-8.152316e+00
2.819844e+01	-8.194924e+00
2.836131e+01	-8.237667e+00
2.852513e+01	-8.280179e+00
2.868989e+01	-8.323024e+00
2.885560e+01	-8.365194e+00
2.902227e+01	-8.407845e+00
2.918990e+01	-8.451081e+00
2.935850e+01	-8.493854e+00
2.952807e+01	-8.536748e+00
2.969863e+01	-8.579839e+00
2.987016e+01	-8.622714e+00
3.004269e+01	-8.666153e+00
3.021622e+01	-8.709201e+00
3.039075e+01	-8.752352e+00
3.056628e+01	-8.796212e+00
3.074283e+01	-8.839541e+00
3.092040e+01	-8.883105e+00
3.109900e+01	-8.926522e+00
3.127862e+01	-8.969919e+00
3.145929e+01	-9.014232e+00
3.164099e+01	-9.057738e+00
3.182375e+01	-9.101631e+00
3.200756e+01	-9.145399e+00
3.219244e+01	-9.189397e+00
3.237838e+01	-9.233556e+00
3.256540e+01	-9.277747e+00
3.275349e+01	-9.321355e+00
3.294268e+01	-9.365866e+00
3.313295e+01	-9.409989e+00
3.332433e+01	-9.454008e+00
3.351681e+01	-9.498378e+00
3.371040e+01	-9.543147e+00
3.390511e+01	-9.588286e+00
3.410094e+01	-9.632452e+00
3.429791e+01	-9.676672e+00
3.449601e+01	-9.721704e+00
3.469526e+01	-9.766477e+00
3.489566e+01	-9.811228e+00
3.509721e+01	-9.855469e+00
3.529993e+01	-9.900181e+00
3.550382e+01	-9.945615e+00
3.570889e+01	-9.990626e+00
3.591515e+01	-1.003591e+01
3.612259e+01	-1.008107e+01
3.633123e+01	-1.012585e+01
3.654108e+01	-1.017098e+01
3.675214e+01	-1.021655e+01
3.696442e+01	-1.026159e+01
3.717792e+01	-1.030693e+01
3.739266e+01	-1.035213e+01
3.760864e+01	-1.039840e+01
3.782587e+01	-1.044364e+01
3.804435e+01	-1.048904e+01
3.826409e+01	-1.053423e+01
3.848510e+01	-1.057992e+01
3.870739e+01	-1.062538e+01
3.893096e+01	-1.067140e+01
3.915583e+01	-1.071770e+01
3.938199e+01	-1.076337e+01
3.960946e+01	-1.080848e+01
3.983824e+01	-1.085492e+01
4.006834e+01	-1.090072e+01
4.029978e+01	-1.094689e+01
4.053255e+01	-1.099263e+01
4.076666e+01	-1.103878e+01
4.100213e+01	-1.108517e+01
4.123896e+01	-1.113136e+01
4.147715e+01	-1.117786e+01
4.171672e+01	-1.122313e+01
4.195767e+01	-1.126945e+01
4.220002e+01	-1.131652e+01
4.244377e+01	-1.136228e+01
4.268892e+01	-1.140868e+01
4.293549e+01	-1.145566e+01
4.318348e+01	-1.150176e+01
4.343291e+01	-1.154827e+01
4.368377e+01	-1.159485e+01
4.393609e+01	-1.164126e+01
4.418986e+01	-1.168776e+01
4.444510e+01	-1.173523e+01
4.470182e+01	-1.178169e+01
4.496001e+01	-1.182820e+01
4.521970e+01	-1.187533e+01
4.548089e+01	-1.192214e+01
4.574358e+01	-1.196853e+01
4.600779e+01	-1.201520e+01
4.627353e+01	-1.206208e+01
4.654081e+01	-1.210974e+01
4.680963e+01	-1.215643e+01
4.708000e+01	-1.220273e+01
4.735193e+01	-1.225007e+01
4.762543e+01	-1.229706e+01
4.790051e+01	-1.234381e+01
4.817719e+01	-1.239130e+01
4.845545e+01	-1.243904e+01
4.873533e+01	-1.248519e+01
4.901682e+01	-1.253271e+01
4.929994e+01	-1.257949e+01
4.958470e+01	-1.262717e+01
4.987110e+01	-1.267493e+01
5.015915e+01	-1.272235e+01
5.044887e+01	-1.277052e+01
5.074026e+01	-1.281713e+01
5.103333e+01	-1.286460e+01
5.132810e+01	-1.291178e+01
5.162457e+01	-1.295921e+01
5.192275e+01	-1.300638e+01
5.222265e+01	-1.305459e+01
5.252429e+01	-1.310203e+01
5.282767e+01	-1.314892e+01
5.313280e+01	-1.319735e+01
5.343969e+01	-1.324538e+01
5.374836e+01	-1.329284e+01
5.405880e+01	-1.334031e+01
5.437105e+01	-1.338822e+01
5.468509e+01	-1.343644e+01
5.500095e+01	-1.348261e+01
5.531863e+01	-1.353136e+01
5.563815e+01	-1.357889e+01
5.595951e+01	-1.362783e+01
5.628273e+01	-1.367458e+01
5.660782e+01	-1.372351e+01
5.693479e+01	-1.377095e+01
5.726364e+01	-1.381864e+01
5.759439e+01	-1.386756e+01
5.792705e+01	-1.391381e+01
5.826164e+01	-1.396245e+01
5.859815e+01	-1.401015e+01
5.893662e+01	-1.405833e+01
5.927703e+01	-1.410660e+01
5.961941e+01	-1.415477e+01
5.996377e+01	-1.420273e+01
6.031012e+01	-1.425105e+01
6.065847e+01	-1.429993e+01
6.100883e+01	-1.434667e+01
6.136121e+01	-1.439561e+01
6.171563e+01	-1.444452e+01
6.207210e+01	-1.449291e+01
6.243063e+01	-1.454015e+01
6.279122e+01	-1.458827e+01
6.315390e+01	-1.463653e+01
6.351868e+01	-1.468517e+01
6.388556e+01	-1.473323e+01
6.425456e+01	-1.478158e+01
6.462569e+01	-1.482959e+01
6.499897e+01	-1.487874e+01
6.537440e+01	-1.492700e+01
6.575200e+01	-1.497557e+01
6.613178e+01	-1.502361e+01
6.651375e+01	-1.507156e+01
6.689793e+01	-1.512130e+01
6.728433e+01	-1.516884e+01
6.767297e+01	-1.521818e+01
6.806384e+01	-1.526706e+01
6.845698e+01	-1.531434e+01
6.885238e+01	-1.536381e+01
6.925007e+01	-1.541190e+01
6.965005e+01	-1.546107e+01
7.005235e+01	-1.550904e+01
7.045697e+01	-1.555771e+01
7.086393e+01	-1.560666e+01
7.127323e+01	-1.565487e+01
7.168490e+01	-1.570458e+01
7.209895e+01	-1.575278e+01
7.251539e+01	-1.580080e+01
7.293424e+01	-1.584971e+01
7.335551e+01	-1.589923e+01
7.377920e+01	-1.594789e+01
7.420535e+01	-1.599626e+01
7.463396e+01	-1.604486e+01
7.506504e+01	-1.609439e+01
7.549861e+01	-1.614372e+01
7.593469e+01	-1.619109e+01
7.637328e+01	-1.624068e+01
7.681441e+01	-1.629029e+01
7.725809e+01	-1.633851e+01
7.770433e+01	-1.638679e+01
7.815315e+01	-1.643570e+01
7.860456e+01	-1.648401e+01
7.905857e+01	-1.653412e+01
7.951521e+01	-1.658185e+01
7.997449e+01	-1.663237e+01
8.043642e+01	-1.667954e+01
8.090102e+01	-1.672930e+01
8.136830e+01	-1.677711e+01
8.183828e+01	-1.682809e+01
8.231097e+01	-1.687625e+01
8.278640e+01	-1.692465e+01
8.326457e+01	-1.697488e+01
8.374550e+01	-1.702442e+01
8.422921e+01	-1.707226e+01
8.471572e+01	-1.712126e+01
8.520503e+01	-1.717103e+01
8.569717e+01	-1.722035e+01
8.619215e+01	-1.726937e+01
8.669000e+01	-1.731711e+01
8.719071e+01	-1.736569e+01
8.769432e+01	-1.741571e+01
8.820084e+01	-1.746436e+01
8.871029e+01	-1.751539e+01
8.922267e+01	-1.756314e+01
8.973802e+01	-1.761120e+01
9.025634e+01	-1.766170e+01
9.077766e+01	-1.771148e+01
9.130199e+01	-1.776169e+01
9.182935e+01	-1.781057e+01
9.235975e+01	-1.785917e+01
9.289321e+01	-1.790681e+01
9.342976e+01	-1.795518e+01
9.396941e+01	-1.800602e+01
9.451217e+01	-1.805574e+01
9.505807e+01	-1.810464e+01
9.560712e+01	-1.815371e+01
9.615934e+01	-1.820375e+01
9.671476e+01	-1.825210e+01
9.727338e+01	-1.830152e+01
9.783522e+01	-1.835116e+01
9.840032e+01	-1.840005e+01
9.896867e+01	-1.845078e+01
9.954031e+01	-1.849984e+01
1.001153e+02	-1.854866e+01
1.006935e+02	-1.859676e+01
1.012751e+02	-1.864651e+01
1.018601e+02	-1.869659e+01
1.024484e+02	-1.874536e+01
1.030402e+02	-1.879558e+01
1.036353e+02	-1.884521e+01
1.042339e+02	-1.889325e+01
1.048360e+02	-1.894308e+01
1.054415e+02	-1.899384e+01
1.060505e+02	-1.904188e+01
1.066631e+02	-1.909172e+01
1.072791e+02	-1.914008e+01
1.078988e+02	-1.919016e+01
1.085220e+02	-1.923979e+01
1.091488e+02	-1.928868e+01
1.097793e+02	-1.933869e+01
1.104133e+02	-1.938926e+01
1.110511e+02	-1.943759e+01
1.116925e+02	-1.948766e+01
1.123376e+02	-1.953598e+01
1.129865e+02	-1.958691e+01
1.136391e+02	-1.963443e+01
1.142955e+02	-1.968402e+01
1.149556e+02	-1.973363e+01
1.156196e+02	-1.978444e+01
1.162874e+02	-1.983339e+01
1.169591e+02	-1.988310e+01
1.176347e+02	-1.993175e+01
1.183141e+02	-1.998232e+01
1.189975e+02	-2.003137e+01
1.196848e+02	-2.008179e+01
1.203761e+02	-2.013083e+01
1.210714e+02	-2.018029e+01
1.217707e+02	-2.022883e+01
1.224740e+02	-2.027931e+01
1.231814e+02	-2.032791e+01
1.238929e+02	-2.037878e+01
1.246085e+02	-2.042920e+01
1.253283e+02	-2.047731e+01
1.260522e+02	-2.052819e+01
1.267802e+02	-2.057603e+01
1.275125e+02	-2.062560e+01
1.282490e+02	-2.067426e+01
1.289898e+02	-2.072575e+01
1.297348e+02	-2.077641e+01
1.304842e+02	-2.082558e+01
1.312378e+02	-2.087583e+01
1.319959e+02	-2.092509e+01
1.327583e+02	-2.097459e+01
1.335251e+02	-2.102217e+01
1.342963e+02	-2.107437e+01
1.350720e+02	-2.112201e+01
1.358522e+02	-2.117145e+01
1.366368e+02	-2.122045e+01
1.374260e+02	-2.127136e+01
1.382198e+02	-2.132332e+01
1.390182e+02	-2.137222e+01
1.398211e+02	-2.141901e+01
1.406287e+02	-2.147076e+01
1.414410e+02	-2.152052e+01
1.422579e+02	-2.156922e+01
1.430796e+02	-2.161763e+01
1.439060e+02	-2.166837e+01
1.447372e+02	-2.172144e+01
1.455732e+02	-2.176735e+01
1.464141e+02	-2.181879e+01
1.472597e+02	-2.186823e+01
1.481103e+02	-2.191906e+01
1.489658e+02	-2.196732e+01
1.498262e+02	-2.201835e+01
1.506916e+02	-2.206861e+01
1.515620e+02	-2.211668e+01
1.524374e+02	-2.216548e+01
1.533179e+02	-2.221599e+01
1.542034e+02	-2.226633e+01
1.550941e+02	-2.231603e+01
1.559899e+02	-2.236449e+01
1.568909e+02	-2.241464e+01
1.577971e+02	-2.246415e+01
1.587085e+02	-2.251508e+01
1.596252e+02	-2.256450e+01
1.605472e+02	-2.261517e+01
1.614745e+02	-2.266472e+01
1.624072e+02	-2.271523e+01
1.633453e+02	-2.276249e+01
1.642887e+02	-2.281344e+01
1.652377e+02	-2.286403e+01
1.661921e+02	-2.291368e+01
1.671520e+02	-2.296234e+01
1.681175e+02	-2.301242e+01
1.690885e+02	-2.306176e+01
1.700651e+02	-2.311070e+01
1.710474e+02	-2.316228e+01
1.720354e+02	-2.321004e+01
1.730291e+02	-2.326236e+01
1.740285e+02	-2.331220e+01
1.750337e+02	-2.336001e+01
1.760446e+02	-2.341226e+01
1.770615e+02	-2.345988e+01
1.780842e+02	-2.351080e+01
1.791128e+02	-2.355983e+01
1.801473e+02	-2.361187e+01
1.811878e+02	-2.366021e+01
1.822344e+02	-2.370962e+01
1.832870e+02	-2.375991e+01
1.843456e+02	-2.380830e+01
1.854104e+02	-2.385973e+01
1.864813e+02	-2.391081e+01
1.875584e+02	-2.396099e+01
1.886418e+02	-2.400878e+01
1.897313e+02	-2.405751e+01
1.908272e+02	-2.410976e+01
1.919294e+02	-2.416078e+01
1.930380e+02	-2.420705e+01
1.941530e+02	-2.425379e+01
1.952744e+02	-2.430764e+01
1.964023e+02	-2.435653e+01
1.975367e+02	-2.440960e+01
1.986777e+02	-2.445787e+01
1.998252e+02	-2.450755e+01
2.009794e+02	-2.455671e+01
2.021403e+02	-2.460656e+01
2.033078e+02	-2.465792e+01
2.044821e+02	-2.470619e+01
2.056632e+02	-2.475960e+01
2.068511e+02	-2.480824e+01
2.080459e+02	-2.485615e+01
2.092475e+02	-2.490594e+01
2.104561e+02	-2.495667e+01
2.116717e+02	-2.500561e+01
2.128943e+02	-2.505891e+01
2.141240e+02	-2.510748e+01
2.153608e+02	-2.515841e+01
2.166047e+02	-2.520584e+01
2.178558e+02	-2.525750e+01
2.191141e+02	-2.530572e+01
2.203797e+02	-2.535728e+01
2.216526e+02	-2.540473e+01
2.229329e+02	-2.545473e+01
2.242205e+02	-2.550394e+01
2.255156e+02	-2.555315e+01
2.268182e+02	-2.560553e+01
2.281283e+02	-2.565691e+01
2.294459e+02	-2.570346e+01
2.307712e+02	-2.575670e+01
2.321041e+02	-2.580514e+01
2.334447e+02	-2.585373e+01
2.347931e+02	-2.590301e+01
2.361493e+02	-2.595405e+01
2.375133e+02	-2.600907e+01
2.388851e+02	-2.605227e+01
2.402649e+02	-2.610457e+01
2.416527e+02	-2.615596e+01
2.430484e+02	-2.620598e+01
2.444523e+02	-2.625118e+01
2.458642e+02	-2.630378e+01
2.472843e+02	-2.635571e+01
2.487126e+02	-2.640548e+01
2.501492e+02	-2.645294e+01
2.515940e+02	-2.650492e+01
2.530472e+02	-2.655471e+01
2.545088e+02	-2.660346e+01
2.559789e+02	-2.665610e+01
2.574574e+02	-2.670350e+01
2.589444e+02	-2.675358e+01
2.604401e+02	-2.680461e+01
2.619444e+02	-2.685424e+01
2.634574e+02	-2.690418e+01
2.649791e+02	-2.695348e+01
2.665096e+02	-2.700440e+01
2.680489e+02	-2.705195e+01
2.695972e+02	-2.710580e+01
2.711544e+02	-2.715491e+01
2.727205e+02	-2.720519e+01
2.742958e+02	-2.725289e+01
2.758801e+02	-2.730684e+01
2.774736e+02	-2.735305e+01
2.790762e+02	-2.740456e+01
2.806882e+02	-2.745504e+01
2.823094e+02	-2.750596e+01
2.839400e+02	-2.755753e+01
2.855800e+02	-2.760679e+01
2.872295e+02	-2.765921e+01
2.888886e+02	-2.770550e+01
2.905572e+02	-2.775467e+01
2.922354e+02	-2.780273e+01
2.939234e+02	-2.785503e+01
2.956211e+02	-2.790475e+01
2.973286e+02	-2.795214e+01
2.990459e+02	-2.800592e+01
3.007732e+02	-2.805668e+01
3.025104e+02	-2.810439e+01
3.042577e+02	-2.815720e+01
3.060151e+02	-2.820210e+01
3.077826e+02	-2.825585e+01
3.095604e+02	-2.830505e+01
3.113484e+02	-2.835165e+01
3.131467e+02	-2.840568e+01
3.149554e+02	-2.845327e+01
3.167746e+02	-2.850779e+01
3.186043e+02	-2.855542e+01
3.204445e+02	-2.860622e+01
3.222954e+02	-2.865629e+01
3.241570e+02	-2.870255e+01
3.260293e+02	-2.875945e+01
3.279124e+02	-2.880214e+01
3.298064e+02	-2.885579e+01
3.317114e+02	-2.890598e+01
3.336273e+02	-2.895279e+01
3.355544e+02	-2.900768e+01
3.374925e+02	-2.905401e+01
3.394418e+02	-2.910695e+01
3.414024e+02	-2.915715e+01
3.433744e+02	-2.920695e+01
3.453577e+02	-2.925457e+01
3.473525e+02	-2.930769e+01
3.493588e+02	-2.935540e+01
3.513766e+02	-2.940779e+01
3.534062e+02	-2.945330e+01
3.554474e+02	-2.950574e+01
3.575005e+02	-2.955583e+01
3.595654e+02	-2.960365e+01
3.616422e+02	-2.965610e+01
3.637311e+02	-2.970421e+01
3.658320e+02	-2.975703e+01
3.679450e+02	-2.980918e+01
3.700702e+02	-2.985658e+01
3.722077e+02	-2.990818e+01
3.743576e+02	-2.995384e+01
3.765199e+02	-3.001048e+01
3.786946e+02	-3.005691e+01
3.808820e+02	-3.010651e+01
3.830819e+02	-3.015856e+01
3.852946e+02	-3.020894e+01
3.875200e+02	-3.025710e+01
3.897583e+02	-3.030730e+01
3.920096e+02	-3.036194e+01
3.942738e+02	-3.040804e+01
3.965511e+02	-3.045741e+01
3.988416e+02	-3.051183e+01
4.011452e+02	-3.055684e+01
4.034622e+02	-3.061496e+01
4.057926e+02	-3.066415e+01
4.081365e+02	-3.070900e+01
4.104938e+02	-3.075807e+01
4.128648e+02	-3.080750e+01
4.152495e+02	-3.086108e+01
4.176480e+02	-3.091158e+01
4.200603e+02	-3.096313e+01
4.224866e+02	-3.100821e+01
4.249268e+02	-3.105721e+01
4.273812e+02	-3.110847e+01
4.298497e+02	-3.115631e+01
4.323325e+02	-3.120667e+01
4.348297e+02	-3.125860e+01
4.373412e+02	-3.130807e+01
4.398673e+02	-3.135996e+01
4.424079e+02	-3.141083e+01
4.449633e+02	-3.146122e+01
4.475334e+02	-3.150902e+01
4.501183e+02	-3.156627e+01
4.527182e+02	-3.161219e+01
4.553330e+02	-3.165804e+01
4.579630e+02	-3.171365e+01
4.606082e+02	-3.176309e+01
4.632687e+02	-3.181756e+01
4.659445e+02	-3.186544e+01
4.686358e+02	-3.191148e+01
4.713426e+02	-3.196283e+01
4.740650e+02	-3.201202e+01
4.768032e+02	-3.206106e+01
4.795572e+02	-3.211496e+01
4.823271e+02	-3.216516e+01
4.851130e+02	-3.221301e+01
4.879150e+02	-3.225192e+01
4.907332e+02	-3.230677e+01
4.935676e+02	-3.236765e+01
4.964185e+02	-3.241301e+01
4.992858e+02	-3.245933e+01
5.021696e+02	-3.251132e+01
5.050701e+02	-3.256526e+01
5.079874e+02	-3.262188e+01
5.109215e+02	-3.266759e+01
5.138726e+02	-3.271616e+01
5.168407e+02	-3.276350e+01
5.198259e+02	-3.281402e+01
5.228284e+02	-3.286543e+01
5.258482e+02	-3.291467e+01
5.288855e+02	-3.297031e+01
5.319403e+02	-3.302531e+01
5.350128e+02	-3.306915e+01
5.381030e+02	-3.311497e+01
5.412111e+02	-3.316259e+01
5.443371e+02	-3.321289e+01
5.474812e+02	-3.326342e+01
5.506434e+02	-3.331404e+01
5.538239e+02	-3.337855e+01
5.570228e+02	-3.343014e+01
5.602401e+02	-3.347967e+01
5.634760e+02	-3.351728e+01
5.667306e+02	-3.356948e+01
5.700040e+02	-3.362541e+01
5.732964e+02	-3.367022e+01
5.766077e+02	-3.372298e+01
5.799382e+02	-3.377276e+01
5.832879e+02	-3.382028e+01
5.866569e+02	-3.387215e+01
5.900454e+02	-3.391795e+01
5.934535e+02	-3.397101e+01
5.968813e+02	-3.402136e+01
6.003288e+02	-3.407131e+01
6.037963e+02	-3.412018e+01
6.072838e+02	-3.417086e+01
6.107914e+02	-3.422473e+01
6.143194e+02	-3.427885e+01
6.178676e+02	-3.432250e+01
6.214364e+02	-3.436870e+01
6.250258e+02	-3.442126e+01
6.286359e+02	-3.447028e+01
6.322669e+02	-3.451526e+01
6.359189e+02	-3.457628e+01
6.395919e+02	-3.463196e+01
6.432862e+02	-3.466896e+01
6.470017e+02	-3.473599e+01
6.507388e+02	-3.477886e+01
6.544974e+02	-3.483026e+01
6.582778e+02	-3.488352e+01
6.620800e+02	-3.492492e+01
6.659041e+02	-3.498257e+01
6.697504e+02	-3.503536e+01
6.736188e+02	-3.507791e+01
6.775096e+02	-3.512382e+01
6.814229e+02	-3.517332e+01
6.853587e+02	-3.523579e+01
6.893173e+02	-3.528945e+01
6.932988e+02	-3.534671e+01
6.973033e+02	-3.538046e+01
7.013309e+02	-3.543669e+01
