Frequency(Hz)	Magnitude(dB)
1.000000e+01	-1.723254e-05
1.005776e+01	-1.743218e-05
1.011585e+01	-1.763414e-05
1.017428e+01	-1.783844e-05
1.023305e+01	-1.804510e-05
1.029215e+01	-1.825416e-05
1.035160e+01	-1.846564e-05
1.041139e+01	-1.867957e-05
1.047153e+01	-1.889597e-05
1.053201e+01	-1.911489e-05
1.059284e+01	-1.933634e-05
1.065403e+01	-1.956035e-05
1.071556e+01	-1.978697e-05
1.077746e+01	-2.001620e-05
1.083971e+01	-2.024810e-05
1.090232e+01	-2.048268e-05
1.096529e+01	-2.071997e-05
1.102862e+01	-2.096002e-05
1.109232e+01	-2.120285e-05
1.115639e+01	-2.144849e-05
1.122083e+01	-2.169697e-05
1.128564e+01	-2.194834e-05
1.135083e+01	-2.220261e-05
1.141639e+01	-2.245984e-05
1.148233e+01	-2.272004e-05
1.154865e+01	-2.298326e-05
1.161536e+01	-2.324952e-05
1.168245e+01	-2.351887e-05
1.174992e+01	-2.379135e-05
1.181779e+01	-2.406698e-05
1.188605e+01	-2.434580e-05
1.195470e+01	-2.462785e-05
1.202375e+01	-2.491317e-05
1.209320e+01	-2.520179e-05
1.216305e+01	-2.549376e-05
1.223330e+01	-2.578912e-05
1.230396e+01	-2.608789e-05
1.237503e+01	-2.639012e-05
1.244651e+01	-2.669586e-05
1.251840e+01	-2.700514e-05
1.259070e+01	-2.731800e-05
1.266343e+01	-2.763448e-05
1.273657e+01	-2.795464e-05
1.281014e+01	-2.827850e-05
1.288413e+01	-2.860611e-05
1.295855e+01	-2.893752e-05
1.303339e+01	-2.927277e-05
1.310867e+01	-2.961190e-05
1.318439e+01	-2.995496e-05
1.326054e+01	-3.030200e-05
1.333713e+01	-3.065305e-05
1.341417e+01	-3.100817e-05
1.349165e+01	-3.136741e-05
1.356958e+01	-3.173081e-05
1.364795e+01	-3.209842e-05
1.372678e+01	-3.247029e-05
1.380607e+01	-3.284646e-05
1.388581e+01	-3.322700e-05
1.396602e+01	-3.361194e-05
1.404668e+01	-3.400134e-05
1.412782e+01	-3.439526e-05
1.420942e+01	-3.479373e-05
1.429149e+01	-3.519683e-05
1.437404e+01	-3.560459e-05
1.445706e+01	-3.601708e-05
1.454057e+01	-3.643434e-05
1.462455e+01	-3.685644e-05
1.470902e+01	-3.728343e-05
1.479398e+01	-3.771537e-05
1.487943e+01	-3.815231e-05
1.496537e+01	-3.859432e-05
1.505181e+01	-3.904144e-05
1.513875e+01	-3.949374e-05
1.522619e+01	-3.995129e-05
1.531414e+01	-4.041413e-05
1.540259e+01	-4.088234e-05
1.549156e+01	-4.135597e-05
1.558103e+01	-4.183509e-05
1.567103e+01	-4.231976e-05
1.576155e+01	-4.281004e-05
1.585258e+01	-4.330600e-05
1.594415e+01	-4.380771e-05
1.603624e+01	-4.431524e-05
1.612886e+01	-4.482864e-05
1.622202e+01	-4.534799e-05
1.631572e+01	-4.587335e-05
1.640996e+01	-4.640481e-05
1.650474e+01	-4.694242e-05
1.660008e+01	-4.748625e-05
1.669596e+01	-4.803639e-05
1.679239e+01	-4.859290e-05
1.688938e+01	-4.915586e-05
1.698694e+01	-4.972535e-05
1.708505e+01	-5.030142e-05
1.718373e+01	-5.088418e-05
1.728299e+01	-5.147368e-05
1.738281e+01	-5.207001e-05
1.748322e+01	-5.267326e-05
1.758420e+01	-5.328349e-05
1.768576e+01	-5.390079e-05
1.778792e+01	-5.452524e-05
1.789066e+01	-5.515692e-05
1.799399e+01	-5.579593e-05
1.809793e+01	-5.644234e-05
1.820246e+01	-5.709623e-05
1.830760e+01	-5.775770e-05
1.841334e+01	-5.842684e-05
1.851969e+01	-5.910373e-05
1.862666e+01	-5.978845e-05
1.873425e+01	-6.048111e-05
1.884246e+01	-6.118180e-05
1.895129e+01	-6.189060e-05
1.906075e+01	-6.260762e-05
1.917085e+01	-6.333294e-05
1.928158e+01	-6.406666e-05
1.939295e+01	-6.480889e-05
1.950496e+01	-6.555971e-05
1.961762e+01	-6.631923e-05
1.973093e+01	-6.708756e-05
1.984490e+01	-6.786478e-05
1.995952e+01	-6.865100e-05
2.007480e+01	-6.944634e-05
2.019076e+01	-7.025089e-05
2.030738e+01	-7.106476e-05
2.042467e+01	-7.188805e-05
2.054264e+01	-7.272089e-05
2.066130e+01	-7.356338e-05
2.078064e+01	-7.441562e-05
2.090066e+01	-7.527774e-05
2.102139e+01	-7.614985e-05
2.114280e+01	-7.703205e-05
2.126492e+01	-7.792448e-05
2.138775e+01	-7.882725e-05
2.151128e+01	-7.974048e-05
2.163553e+01	-8.066429e-05
2.176050e+01	-8.159880e-05
2.188619e+01	-8.254413e-05
2.201260e+01	-8.350042e-05
2.213974e+01	-8.446779e-05
2.226762e+01	-8.544636e-05
2.239624e+01	-8.643627e-05
2.252560e+01	-8.743765e-05
2.265571e+01	-8.845063e-05
2.278656e+01	-8.947534e-05
2.291818e+01	-9.051193e-05
2.305055e+01	-9.156052e-05
2.318369e+01	-9.262127e-05
2.331760e+01	-9.369430e-05
2.345228e+01	-9.477976e-05
2.358774e+01	-9.587780e-05
2.372398e+01	-9.698856e-05
2.386101e+01	-9.811218e-05
2.399883e+01	-9.924883e-05
2.413745e+01	-1.003986e-04
2.427686e+01	-1.015618e-04
2.441709e+01	-1.027384e-04
2.455812e+01	-1.039286e-04
2.469997e+01	-1.051326e-04
2.484263e+01	-1.063506e-04
2.498612e+01	-1.075827e-04
2.513044e+01	-1.088291e-04
2.527559e+01	-1.100899e-04
2.542158e+01	-1.113653e-04
2.556842e+01	-1.126555e-04
2.571610e+01	-1.139606e-04
2.586463e+01	-1.152808e-04
2.601403e+01	-1.166164e-04
2.616428e+01	-1.179674e-04
2.631541e+01	-1.193341e-04
2.646740e+01	-1.207166e-04
2.662028e+01	-1.221151e-04
2.677404e+01	-1.235298e-04
2.692868e+01	-1.249609e-04
2.708422e+01	-1.264086e-04
2.724066e+01	-1.278730e-04
2.739800e+01	-1.293545e-04
2.755625e+01	-1.308530e-04
2.771541e+01	-1.323690e-04
2.787550e+01	-1.339025e-04
2.803650e+01	-1.354538e-04
2.819844e+01	-1.370230e-04
2.836131e+01	-1.386104e-04
2.852513e+01	-1.402163e-04
2.868989e+01	-1.418407e-04
2.885560e+01	-1.434839e-04
2.902227e+01	-1.451462e-04
2.918990e+01	-1.468277e-04
2.935850e+01	-1.485287e-04
2.952807e+01	-1.502494e-04
2.969863e+01	-1.519901e-04
2.987016e+01	-1.537509e-04
3.004269e+01	-1.555321e-04
3.021622e+01	-1.573340e-04
3.039075e+01	-1.591567e-04
3.056628e+01	-1.610005e-04
3.074283e+01	-1.628657e-04
3.092040e+01	-1.647526e-04
3.109900e+01	-1.666612e-04
3.127862e+01	-1.685920e-04
3.145929e+01	-1.705451e-04
3.164099e+01	-1.725209e-04
3.182375e+01	-1.745196e-04
3.200756e+01	-1.765414e-04
3.219244e+01	-1.785866e-04
3.237838e+01	-1.806556e-04
3.256540e+01	-1.827485e-04
3.275349e+01	-1.848656e-04
3.294268e+01	-1.870073e-04
3.313295e+01	-1.891738e-04
3.332433e+01	-1.913654e-04
3.351681e+01	-1.935823e-04
3.371040e+01	-1.958250e-04
3.390511e+01	-1.980936e-04
3.410094e+01	-2.003885e-04
3.429791e+01	-2.027100e-04
3.449601e+01	-2.050584e-04
3.469526e+01	-2.074340e-04
3.489566e+01	-2.098372e-04
3.509721e+01	-2.122681e-04
3.529993e+01	-2.147273e-04
3.550382e+01	-2.172149e-04
3.570889e+01	-2.197313e-04
3.591515e+01	-2.222769e-04
3.612259e+01	-2.248520e-04
3.633123e+01	-2.274569e-04
3.654108e+01	-2.300919e-04
3.675214e+01	-2.327575e-04
3.696442e+01	-2.354540e-04
3.717792e+01	-2.381818e-04
3.739266e+01	-2.409411e-04
3.760864e+01	-2.437324e-04
3.782587e+01	-2.465560e-04
3.804435e+01	-2.494123e-04
3.826409e+01	-2.523018e-04
3.848510e+01	-2.552247e-04
3.870739e+01	-2.581814e-04
3.893096e+01	-2.611724e-04
3.915583e+01	-2.641981e-04
3.938199e+01	-2.672588e-04
3.960946e+01	-2.703550e-04
3.983824e+01	-2.734870e-04
4.006834e+01	-2.766554e-04
4.029978e+01	-2.798604e-04
4.053255e+01	-2.831025e-04
4.076666e+01	-2.863822e-04
4.100213e+01	-2.897000e-04
4.123896e+01	-2.930561e-04
4.147715e+01	-2.964511e-04
4.171672e+01	-2.998855e-04
4.195767e+01	-3.033596e-04
4.220002e+01	-3.068740e-04
4.244377e+01	-3.104291e-04
4.268892e+01	-3.140254e-04
4.293549e+01	-3.176633e-04
4.318348e+01	-3.213434e-04
4.343291e+01	-3.250661e-04
4.368377e+01	-3.288319e-04
4.393609e+01	-3.326414e-04
4.418986e+01	-3.364950e-04
4.444510e+01	-3.403932e-04
4.470182e+01	-3.443366e-04
4.496001e+01	-3.483257e-04
4.521970e+01	-3.523610e-04
4.548089e+01	-3.564430e-04
4.574358e+01	-3.605723e-04
4.600779e+01	-3.647495e-04
4.627353e+01	-3.689750e-04
4.654081e+01	-3.732495e-04
4.680963e+01	-3.775735e-04
4.708000e+01	-3.819476e-04
4.735193e+01	-3.863724e-04
4.762543e+01	-3.908484e-04
4.790051e+01	-3.953763e-04
4.817719e+01	-3.999566e-04
4.845545e+01	-4.045900e-04
4.873533e+01	-4.092771e-04
4.901682e+01	-4.140185e-04
4.929994e+01	-4.188148e-04
4.958470e+01	-4.236666e-04
4.987110e+01	-4.285747e-04
5.015915e+01	-4.335396e-04
5.044887e+01	-4.385620e-04
5.074026e+01	-4.436426e-04
5.103333e+01	-4.487820e-04
5.132810e+01	-4.539810e-04
5.162457e+01	-4.592403e-04
5.192275e+01	-4.645604e-04
5.222265e+01	-4.699422e-04
5.252429e+01	-4.753863e-04
5.282767e+01	-4.808935e-04
5.313280e+01	-4.864644e-04
5.343969e+01	-4.920999e-04
5.374836e+01	-4.978007e-04
5.405880e+01	-5.035675e-04
5.437105e+01	-5.094012e-04
5.468509e+01	-5.153024e-04
5.500095e+01	-5.212719e-04
5.531863e+01	-5.273106e-04
5.563815e+01	-5.334193e-04
5.595951e+01	-5.395987e-04
5.628273e+01	-5.458497e-04
5.660782e+01	-5.521732e-04
5.693479e+01	-5.585698e-04
5.726364e+01	-5.650406e-04
5.759439e+01	-5.715863e-04
5.792705e+01	-5.782079e-04
5.826164e+01	-5.849061e-04
5.859815e+01	-5.916819e-04
5.893662e+01	-5.985363e-04
5.927703e+01	-6.054700e-04
5.961941e+01	-6.124840e-04
5.996377e+01	-6.195793e-04
6.031012e+01	-6.267568e-04
6.065847e+01	-6.340174e-04
6.100883e+01	-6.413621e-04
6.136121e+01	-6.487919e-04
6.171563e+01	-6.563078e-04
6.207210e+01	-6.639107e-04
6.243063e+01	-6.716017e-04
6.279122e+01	-6.793818e-04
6.315390e+01	-6.872520e-04
6.351868e+01	-6.952134e-04
6.388556e+01	-7.032670e-04
6.425456e+01	-7.114138e-04
6.462569e+01	-7.196551e-04
6.499897e+01	-7.279918e-04
6.537440e+01	-7.364251e-04
6.575200e+01	-7.449560e-04
6.613178e+01	-7.535858e-04
6.651375e+01	-7.623155e-04
6.689793e+01	-7.711464e-04
6.728433e+01	-7.800795e-04
6.767297e+01	-7.891161e-04
6.806384e+01	-7.982574e-04
6.845698e+01	-8.075046e-04
6.885238e+01	-8.168589e-04
6.925007e+01	-8.263215e-04
6.965005e+01	-8.358937e-04
7.005235e+01	-8.455768e-04
7.045697e+01	-8.553721e-04
7.086393e+01	-8.652808e-04
7.127323e+01	-8.753044e-04
7.168490e+01	-8.854440e-04
7.209895e+01	-8.957010e-04
7.251539e+01	-9.060769e-04
7.293424e+01	-9.165729e-04
7.335551e+01	-9.271905e-04
7.377920e+01	-9.379311e-04
7.420535e+01	-9.487961e-04
7.463396e+01	-9.597870e-04
7.506504e+01	-9.709051e-04
7.549861e+01	-9.821520e-04
7.593469e+01	-9.935292e-04
7.637328e+01	-1.005038e-03
7.681441e+01	-1.016680e-03
7.725809e+01	-1.028458e-03
7.770433e+01	-1.040371e-03
7.815315e+01	-1.052423e-03
7.860456e+01	-1.064614e-03
7.905857e+01	-1.076946e-03
7.951521e+01	-1.089421e-03
7.997449e+01	-1.102041e-03
8.043642e+01	-1.114807e-03
8.090102e+01	-1.127720e-03
8.136830e+01	-1.140784e-03
8.183828e+01	-1.153998e-03
8.231097e+01	-1.167366e-03
8.278640e+01	-1.180888e-03
8.326457e+01	-1.194567e-03
8.374550e+01	-1.208405e-03
8.422921e+01	-1.222402e-03
8.471572e+01	-1.236562e-03
8.520503e+01	-1.250886e-03
8.569717e+01	-1.265376e-03
8.619215e+01	-1.280033e-03
8.669000e+01	-1.294861e-03
8.719071e+01	-1.309860e-03
8.769432e+01	-1.325032e-03
8.820084e+01	-1.340381e-03
8.871029e+01	-1.355907e-03
8.922267e+01	-1.371613e-03
8.973802e+01	-1.387501e-03
9.025634e+01	-1.403573e-03
9.077766e+01	-1.419831e-03
9.130199e+01	-1.436278e-03
9.182935e+01	-1.452915e-03
9.235975e+01	-1.469744e-03
9.289321e+01	-1.486769e-03
9.342976e+01	-1.503990e-03
9.396941e+01	-1.521411e-03
9.451217e+01	-1.539034e-03
9.505807e+01	-1.556861e-03
9.560712e+01	-1.574894e-03
9.615934e+01	-1.593137e-03
9.671476e+01	-1.611590e-03
9.727338e+01	-1.630257e-03
9.783522e+01	-1.649141e-03
9.840032e+01	-1.668243e-03
9.896867e+01	-1.687566e-03
9.954031e+01	-1.707113e-03
1.001153e+02	-1.726887e-03
1.006935e+02	-1.746889e-03
1.012751e+02	-1.767123e-03
1.018601e+02	-1.787591e-03
1.024484e+02	-1.808297e-03
1.030402e+02	-1.829242e-03
1.036353e+02	-1.850430e-03
1.042339e+02	-1.871863e-03
1.048360e+02	-1.893544e-03
1.054415e+02	-1.915477e-03
1.060505e+02	-1.937663e-03
1.066631e+02	-1.960106e-03
1.072791e+02	-1.982809e-03
1.078988e+02	-2.005775e-03
1.085220e+02	-2.029007e-03
1.091488e+02	-2.052508e-03
1.097793e+02	-2.076282e-03
1.104133e+02	-2.100330e-03
1.110511e+02	-2.124657e-03
1.116925e+02	-2.149266e-03
1.123376e+02	-2.174159e-03
1.129865e+02	-2.199341e-03
1.136391e+02	-2.224814e-03
1.142955e+02	-2.250583e-03
1.149556e+02	-2.276650e-03
1.156196e+02	-2.303018e-03
1.162874e+02	-2.329692e-03
1.169591e+02	-2.356675e-03
1.176347e+02	-2.383970e-03
1.183141e+02	-2.411581e-03
1.189975e+02	-2.439512e-03
1.196848e+02	-2.467767e-03
1.203761e+02	-2.496348e-03
1.210714e+02	-2.525261e-03
1.217707e+02	-2.554508e-03
1.224740e+02	-2.584094e-03
1.231814e+02	-2.614022e-03
1.238929e+02	-2.644297e-03
1.246085e+02	-2.674922e-03
1.253283e+02	-2.705902e-03
1.260522e+02	-2.737241e-03
1.267802e+02	-2.768943e-03
1.275125e+02	-2.801011e-03
1.282490e+02	-2.833451e-03
1.289898e+02	-2.866266e-03
1.297348e+02	-2.899462e-03
1.304842e+02	-2.933041e-03
1.312378e+02	-2.967010e-03
1.319959e+02	-3.001372e-03
1.327583e+02	-3.036131e-03
1.335251e+02	-3.071293e-03
1.342963e+02	-3.106862e-03
1.350720e+02	-3.142843e-03
1.358522e+02	-3.179240e-03
1.366368e+02	-3.216059e-03
1.374260e+02	-3.253304e-03
1.382198e+02	-3.290980e-03
1.390182e+02	-3.329092e-03
1.398211e+02	-3.367645e-03
1.406287e+02	-3.406645e-03
1.414410e+02	-3.446096e-03
1.422579e+02	-3.486004e-03
1.430796e+02	-3.526374e-03
1.439060e+02	-3.567211e-03
1.447372e+02	-3.608521e-03
1.455732e+02	-3.650309e-03
1.464141e+02	-3.692581e-03
1.472597e+02	-3.735342e-03
1.481103e+02	-3.778598e-03
1.489658e+02	-3.822355e-03
1.498262e+02	-3.866618e-03
1.506916e+02	-3.911393e-03
1.515620e+02	-3.956687e-03
1.524374e+02	-4.002505e-03
1.533179e+02	-4.048854e-03
1.542034e+02	-4.095739e-03
1.550941e+02	-4.143166e-03
1.559899e+02	-4.191143e-03
1.568909e+02	-4.239674e-03
1.577971e+02	-4.288768e-03
1.587085e+02	-4.338429e-03
1.596252e+02	-4.388666e-03
1.605472e+02	-4.439484e-03
1.614745e+02	-4.490889e-03
1.624072e+02	-4.542890e-03
1.633453e+02	-4.595493e-03
1.642887e+02	-4.648704e-03
1.652377e+02	-4.702532e-03
1.661921e+02	-4.756982e-03
1.671520e+02	-4.812062e-03
1.681175e+02	-4.867780e-03
1.690885e+02	-4.924142e-03
1.700651e+02	-4.981157e-03
1.710474e+02	-5.038831e-03
1.720354e+02	-5.097173e-03
1.730291e+02	-5.156190e-03
1.740285e+02	-5.215890e-03
1.750337e+02	-5.276280e-03
1.760446e+02	-5.337370e-03
1.770615e+02	-5.399166e-03
1.780842e+02	-5.461677e-03
1.791128e+02	-5.524912e-03
1.801473e+02	-5.588878e-03
1.811878e+02	-5.653584e-03
1.822344e+02	-5.719039e-03
1.832870e+02	-5.785252e-03
1.843456e+02	-5.852230e-03
1.854104e+02	-5.919983e-03
1.864813e+02	-5.988520e-03
1.875584e+02	-6.057851e-03
1.886418e+02	-6.127983e-03
1.897313e+02	-6.198926e-03
1.908272e+02	-6.270690e-03
1.919294e+02	-6.343285e-03
1.930380e+02	-6.416719e-03
1.941530e+02	-6.491002e-03
1.952744e+02	-6.566145e-03
1.964023e+02	-6.642157e-03
1.975367e+02	-6.719049e-03
1.986777e+02	-6.796830e-03
1.998252e+02	-6.875510e-03
2.009794e+02	-6.955101e-03
2.021403e+02	-7.035612e-03
2.033078e+02	-7.117054e-03
2.044821e+02	-7.199439e-03
2.056632e+02	-7.282776e-03
2.068511e+02	-7.367077e-03
2.080459e+02	-7.452353e-03
2.092475e+02	-7.538615e-03
2.104561e+02	-7.625875e-03
2.116717e+02	-7.714144e-03
2.128943e+02	-7.803434e-03
2.141240e+02	-7.893756e-03
2.153608e+02	-7.985123e-03
2.166047e+02	-8.077546e-03
2.178558e+02	-8.171038e-03
2.191141e+02	-8.265612e-03
2.203797e+02	-8.361278e-03
2.216526e+02	-8.458051e-03
2.229329e+02	-8.555943e-03
2.242205e+02	-8.654967e-03
2.255156e+02	-8.755135e-03
2.268182e+02	-8.856462e-03
2.281283e+02	-8.958960e-03
2.294459e+02	-9.062643e-03
2.307712e+02	-9.167525e-03
2.321041e+02	-9.273620e-03
2.334447e+02	-9.380940e-03
2.347931e+02	-9.489502e-03
2.361493e+02	-9.599318e-03
2.375133e+02	-9.710404e-03
2.388851e+02	-9.822774e-03
2.402649e+02	-9.936443e-03
2.416527e+02	-1.005143e-02
2.430484e+02	-1.016774e-02
2.444523e+02	-1.028539e-02
2.458642e+02	-1.040441e-02
2.472843e+02	-1.052480e-02
2.487126e+02	-1.064658e-02
2.501492e+02	-1.076977e-02
2.515940e+02	-1.089439e-02
2.530472e+02	-1.102044e-02
2.545088e+02	-1.114795e-02
2.559789e+02	-1.127693e-02
2.574574e+02	-1.140741e-02
2.589444e+02	-1.153939e-02
2.604401e+02	-1.167289e-02
2.619444e+02	-1.180794e-02
2.634574e+02	-1.194455e-02
2.649791e+02	-1.208274e-02
2.665096e+02	-1.222252e-02
2.680489e+02	-1.236392e-02
2.695972e+02	-1.250695e-02
2.711544e+02	-1.265164e-02
2.727205e+02	-1.279800e-02
2.742958e+02	-1.294604e-02
2.758801e+02	-1.309580e-02
2.774736e+02	-1.324728e-02
2.790762e+02	-1.340052e-02
2.806882e+02	-1.355552e-02
2.823094e+02	-1.371232e-02
2.839400e+02	-1.387093e-02
2.855800e+02	-1.403136e-02
2.872295e+02	-1.419365e-02
2.888886e+02	-1.435782e-02
2.905572e+02	-1.452388e-02
2.922354e+02	-1.469185e-02
2.939234e+02	-1.486177e-02
2.956211e+02	-1.503365e-02
2.973286e+02	-1.520751e-02
2.990459e+02	-1.538338e-02
3.007732e+02	-1.556128e-02
3.025104e+02	-1.574124e-02
3.042577e+02	-1.592327e-02
3.060151e+02	-1.610740e-02
3.077826e+02	-1.629365e-02
3.095604e+02	-1.648206e-02
3.113484e+02	-1.667264e-02
3.131467e+02	-1.686542e-02
3.149554e+02	-1.706043e-02
3.167746e+02	-1.725768e-02
3.186043e+02	-1.745721e-02
3.204445e+02	-1.765905e-02
3.222954e+02	-1.786321e-02
3.241570e+02	-1.806973e-02
3.260293e+02	-1.827863e-02
3.279124e+02	-1.848994e-02
3.298064e+02	-1.870369e-02
3.317114e+02	-1.891990e-02
3.336273e+02	-1.913861e-02
3.355544e+02	-1.935984e-02
3.374925e+02	-1.958362e-02
3.394418e+02	-1.980998e-02
3.414024e+02	-2.003895e-02
3.433744e+02	-2.027056e-02
3.453577e+02	-2.050485e-02
3.473525e+02	-2.074183e-02
3.493588e+02	-2.098155e-02
3.513766e+02	-2.122403e-02
3.534062e+02	-2.146931e-02
3.554474e+02	-2.171741e-02
3.575005e+02	-2.196837e-02
3.595654e+02	-2.222223e-02
3.616422e+02	-2.247901e-02
3.637311e+02	-2.273875e-02
3.658320e+02	-2.300148e-02
3.679450e+02	-2.326725e-02
3.700702e+02	-2.353607e-02
3.722077e+02	-2.380799e-02
3.743576e+02	-2.408304e-02
3.765199e+02	-2.436127e-02
3.786946e+02	-2.464270e-02
3.808820e+02	-2.492737e-02
3.830819e+02	-2.521531e-02
3.852946e+02	-2.550658e-02
3.875200e+02	-2.580120e-02
3.897583e+02	-2.609921e-02
3.920096e+02	-2.640066e-02
3.942738e+02	-2.670557e-02
3.965511e+02	-2.701400e-02
3.988416e+02	-2.732597e-02
4.011452e+02	-2.764154e-02
4.034622e+02	-2.796074e-02
4.057926e+02	-2.828361e-02
4.081365e+02	-2.861020e-02
4.104938e+02	-2.894055e-02
4.128648e+02	-2.927470e-02
4.152495e+02	-2.961270e-02
4.176480e+02	-2.995458e-02
4.200603e+02	-3.030040e-02
4.224866e+02	-3.065019e-02
4.249268e+02	-3.100401e-02
4.273812e+02	-3.136190e-02
4.298497e+02	-3.172390e-02
4.323325e+02	-3.209007e-02
4.348297e+02	-3.246045e-02
4.373412e+02	-3.283509e-02
4.398673e+02	-3.321403e-02
4.424079e+02	-3.359733e-02
4.449633e+02	-3.398504e-02
4.475334e+02	-3.437720e-02
4.501183e+02	-3.477387e-02
4.527182e+02	-3.517510e-02
4.553330e+02	-3.558093e-02
4.579630e+02	-3.599144e-02
4.606082e+02	-3.640665e-02
4.632687e+02	-3.682664e-02
4.659445e+02	-3.725145e-02
4.686358e+02	-3.768114e-02
4.713426e+02	-3.811577e-02
4.740650e+02	-3.855538e-02
4.768032e+02	-3.900004e-02
4.795572e+02	-3.944981e-02
4.823271e+02	-3.990474e-02
4.851130e+02	-4.036490e-02
4.879150e+02	-4.083033e-02
4.907332e+02	-4.130111e-02
4.935676e+02	-4.177728e-02
4.964185e+02	-4.225892e-02
4.992858e+02	-4.274609e-02
5.021696e+02	-4.323884e-02
5.050701e+02	-4.373724e-02
5.079874e+02	-4.424137e-02
5.109215e+02	-4.475127e-02
5.138726e+02	-4.526701e-02
5.168407e+02	-4.578867e-02
5.198259e+02	-4.631631e-02
5.228284e+02	-4.685000e-02
5.258482e+02	-4.738980e-02
5.288855e+02	-4.793578e-02
5.319403e+02	-4.848803e-02
5.350128e+02	-4.904659e-02
5.381030e+02	-4.961156e-02
5.412111e+02	-5.018300e-02
5.443371e+02	-5.076097e-02
5.474812e+02	-5.134557e-02
5.506434e+02	-5.193686e-02
5.538239e+02	-5.253491e-02
5.570228e+02	-5.313982e-02
5.602401e+02	-5.375164e-02
5.634760e+02	-5.437046e-02
5.667306e+02	-5.499636e-02
5.700040e+02	-5.562942e-02
5.732964e+02	-5.626972e-02
5.766077e+02	-5.691734e-02
5.799382e+02	-5.757237e-02
5.832879e+02	-5.823488e-02
5.866569e+02	-5.890496e-02
5.900454e+02	-5.958271e-02
5.934535e+02	-6.026819e-02
5.968813e+02	-6.096151e-02
6.003288e+02	-6.166274e-02
6.037963e+02	-6.237199e-02
6.072838e+02	-6.308933e-02
6.107914e+02	-6.381486e-02
6.143194e+02	-6.454867e-02
6.178676e+02	-6.529086e-02
6.214364e+02	-6.604151e-02
6.250258e+02	-6.680073e-02
6.286359e+02	-6.756861e-02
6.322669e+02	-6.834525e-02
6.359189e+02	-6.913074e-02
6.395919e+02	-6.992518e-02
6.432862e+02	-7.072869e-02
6.470017e+02	-7.154134e-02
6.507388e+02	-7.236326e-02
6.544974e+02	-7.319454e-02
6.582778e+02	-7.403529e-02
6.620800e+02	-7.488561e-02
6.659041e+02	-7.574561e-02
6.697504e+02	-7.661540e-02
6.736188e+02	-7.749509e-02
6.775096e+02	-7.838479e-02
6.814229e+02	-7.928461e-02
6.853587e+02	-8.019467e-02
6.893173e+02	-8.111507e-02
6.932988e+02	-8.204593e-02
6.973033e+02	-8.298738e-02
7.013309e+02	-8.393952e-02
