Frequency(Hz)	Magnitude(dB)
1.000000e+01	-1.623381e-05
1.005776e+01	-1.642188e-05
1.011585e+01	-1.661214e-05
1.017428e+01	-1.680459e-05
1.023305e+01	-1.699928e-05
1.029215e+01	-1.719622e-05
1.035160e+01	-1.739544e-05
1.041139e+01	-1.759697e-05
1.047153e+01	-1.780084e-05
1.053201e+01	-1.800706e-05
1.059284e+01	-1.821568e-05
1.065403e+01	-1.842671e-05
1.071556e+01	-1.864019e-05
1.077746e+01	-1.885614e-05
1.083971e+01	-1.907460e-05
1.090232e+01	-1.929558e-05
1.096529e+01	-1.951913e-05
1.102862e+01	-1.974526e-05
1.109232e+01	-1.997401e-05
1.115639e+01	-2.020542e-05
1.122083e+01	-2.043950e-05
1.128564e+01	-2.067630e-05
1.135083e+01	-2.091584e-05
1.141639e+01	-2.115815e-05
1.148233e+01	-2.140328e-05
1.154865e+01	-2.165124e-05
1.161536e+01	-2.190207e-05
1.168245e+01	-2.215582e-05
1.174992e+01	-2.241250e-05
1.181779e+01	-2.267215e-05
1.188605e+01	-2.293481e-05
1.195470e+01	-2.320052e-05
1.202375e+01	-2.346930e-05
1.209320e+01	-2.374120e-05
1.216305e+01	-2.401625e-05
1.223330e+01	-2.429448e-05
1.230396e+01	-2.457594e-05
1.237503e+01	-2.486066e-05
1.244651e+01	-2.514868e-05
1.251840e+01	-2.544003e-05
1.259070e+01	-2.573476e-05
1.266343e+01	-2.603290e-05
1.273657e+01	-2.633450e-05
1.281014e+01	-2.663959e-05
1.288413e+01	-2.694822e-05
1.295855e+01	-2.726042e-05
1.303339e+01	-2.757624e-05
1.310867e+01	-2.789571e-05
1.318439e+01	-2.821889e-05
1.326054e+01	-2.854582e-05
1.333713e+01	-2.887653e-05
1.341417e+01	-2.921107e-05
1.349165e+01	-2.954948e-05
1.356958e+01	-2.989182e-05
1.364795e+01	-3.023813e-05
1.372678e+01	-3.058844e-05
1.380607e+01	-3.094282e-05
1.388581e+01	-3.130130e-05
1.396602e+01	-3.166393e-05
1.404668e+01	-3.203076e-05
1.412782e+01	-3.240185e-05
1.420942e+01	-3.277723e-05
1.429149e+01	-3.315696e-05
1.437404e+01	-3.354109e-05
1.445706e+01	-3.392967e-05
1.454057e+01	-3.432276e-05
1.462455e+01	-3.472040e-05
1.470902e+01	-3.512264e-05
1.479398e+01	-3.552954e-05
1.487943e+01	-3.594116e-05
1.496537e+01	-3.635755e-05
1.505181e+01	-3.677876e-05
1.513875e+01	-3.720485e-05
1.522619e+01	-3.763588e-05
1.531414e+01	-3.807190e-05
1.540259e+01	-3.851297e-05
1.549156e+01	-3.895915e-05
1.558103e+01	-3.941050e-05
1.567103e+01	-3.986708e-05
1.576155e+01	-4.032895e-05
1.585258e+01	-4.079617e-05
1.594415e+01	-4.126880e-05
1.603624e+01	-4.174691e-05
1.612886e+01	-4.223056e-05
1.622202e+01	-4.271981e-05
1.631572e+01	-4.321473e-05
1.640996e+01	-4.371538e-05
1.650474e+01	-4.422183e-05
1.660008e+01	-4.473415e-05
1.669596e+01	-4.525240e-05
1.679239e+01	-4.577666e-05
1.688938e+01	-4.630700e-05
1.698694e+01	-4.684347e-05
1.708505e+01	-4.738616e-05
1.718373e+01	-4.793514e-05
1.728299e+01	-4.849048e-05
1.738281e+01	-4.905226e-05
1.748322e+01	-4.962054e-05
1.758420e+01	-5.019540e-05
1.768576e+01	-5.077692e-05
1.778792e+01	-5.136519e-05
1.789066e+01	-5.196026e-05
1.799399e+01	-5.256223e-05
1.809793e+01	-5.317118e-05
1.820246e+01	-5.378718e-05
1.830760e+01	-5.441031e-05
1.841334e+01	-5.504067e-05
1.851969e+01	-5.567832e-05
1.862666e+01	-5.632337e-05
1.873425e+01	-5.697589e-05
1.884246e+01	-5.763596e-05
1.895129e+01	-5.830369e-05
1.906075e+01	-5.897915e-05
1.917085e+01	-5.966243e-05
1.928158e+01	-6.035364e-05
1.939295e+01	-6.105284e-05
1.950496e+01	-6.176015e-05
1.961762e+01	-6.247566e-05
1.973093e+01	-6.319945e-05
1.984490e+01	-6.393163e-05
1.995952e+01	-6.467229e-05
2.007480e+01	-6.542153e-05
2.019076e+01	-6.617945e-05
2.030738e+01	-6.694615e-05
2.042467e+01	-6.772173e-05
2.054264e+01	-6.850630e-05
2.066130e+01	-6.929996e-05
2.078064e+01	-7.010282e-05
2.090066e+01	-7.091497e-05
2.102139e+01	-7.173653e-05
2.114280e+01	-7.256761e-05
2.126492e+01	-7.340832e-05
2.138775e+01	-7.425877e-05
2.151128e+01	-7.511907e-05
2.163553e+01	-7.598934e-05
2.176050e+01	-7.686969e-05
2.188619e+01	-7.776024e-05
2.201260e+01	-7.866110e-05
2.213974e+01	-7.957241e-05
2.226762e+01	-8.049427e-05
2.239624e+01	-8.142681e-05
2.252560e+01	-8.237015e-05
2.265571e+01	-8.332442e-05
2.278656e+01	-8.428975e-05
2.291818e+01	-8.526626e-05
2.305055e+01	-8.625408e-05
2.318369e+01	-8.725335e-05
2.331760e+01	-8.826420e-05
2.345228e+01	-8.928675e-05
2.358774e+01	-9.032115e-05
2.372398e+01	-9.136754e-05
2.386101e+01	-9.242604e-05
2.399883e+01	-9.349681e-05
2.413745e+01	-9.457999e-05
2.427686e+01	-9.567571e-05
2.441709e+01	-9.678413e-05
2.455812e+01	-9.790539e-05
2.469997e+01	-9.903964e-05
2.484263e+01	-1.001870e-04
2.498612e+01	-1.013477e-04
2.513044e+01	-1.025218e-04
2.527559e+01	-1.037096e-04
2.542158e+01	-1.049111e-04
2.556842e+01	-1.061265e-04
2.571610e+01	-1.073560e-04
2.586463e+01	-1.085997e-04
2.601403e+01	-1.098578e-04
2.616428e+01	-1.111305e-04
2.631541e+01	-1.124180e-04
2.646740e+01	-1.137204e-04
2.662028e+01	-1.150378e-04
2.677404e+01	-1.163706e-04
2.692868e+01	-1.177187e-04
2.708422e+01	-1.190825e-04
2.724066e+01	-1.204621e-04
2.739800e+01	-1.218577e-04
2.755625e+01	-1.232694e-04
2.771541e+01	-1.246975e-04
2.787550e+01	-1.261421e-04
2.803650e+01	-1.276035e-04
2.819844e+01	-1.290818e-04
2.836131e+01	-1.305772e-04
2.852513e+01	-1.320900e-04
2.868989e+01	-1.336203e-04
2.885560e+01	-1.351683e-04
2.902227e+01	-1.367342e-04
2.918990e+01	-1.383183e-04
2.935850e+01	-1.399207e-04
2.952807e+01	-1.415417e-04
2.969863e+01	-1.431815e-04
2.987016e+01	-1.448403e-04
3.004269e+01	-1.465182e-04
3.021622e+01	-1.482157e-04
3.039075e+01	-1.499328e-04
3.056628e+01	-1.516697e-04
3.074283e+01	-1.534268e-04
3.092040e+01	-1.552043e-04
3.109900e+01	-1.570024e-04
3.127862e+01	-1.588212e-04
3.145929e+01	-1.606612e-04
3.164099e+01	-1.625225e-04
3.182375e+01	-1.644053e-04
3.200756e+01	-1.663099e-04
3.219244e+01	-1.682367e-04
3.237838e+01	-1.701857e-04
3.256540e+01	-1.721573e-04
3.275349e+01	-1.741517e-04
3.294268e+01	-1.761693e-04
3.313295e+01	-1.782102e-04
3.332433e+01	-1.802748e-04
3.351681e+01	-1.823633e-04
3.371040e+01	-1.844760e-04
3.390511e+01	-1.866131e-04
3.410094e+01	-1.887751e-04
3.429791e+01	-1.909620e-04
3.449601e+01	-1.931743e-04
3.469526e+01	-1.954122e-04
3.489566e+01	-1.976761e-04
3.509721e+01	-1.999662e-04
3.529993e+01	-2.022828e-04
3.550382e+01	-2.046262e-04
3.570889e+01	-2.069968e-04
3.591515e+01	-2.093949e-04
3.612259e+01	-2.118207e-04
3.633123e+01	-2.142747e-04
3.654108e+01	-2.167570e-04
3.675214e+01	-2.192682e-04
3.696442e+01	-2.218084e-04
3.717792e+01	-2.243780e-04
3.739266e+01	-2.269774e-04
3.760864e+01	-2.296070e-04
3.782587e+01	-2.322670e-04
3.804435e+01	-2.349578e-04
3.826409e+01	-2.376797e-04
3.848510e+01	-2.404332e-04
3.870739e+01	-2.432187e-04
3.893096e+01	-2.460363e-04
3.915583e+01	-2.488866e-04
3.938199e+01	-2.517700e-04
3.960946e+01	-2.546867e-04
3.983824e+01	-2.576373e-04
4.006834e+01	-2.606220e-04
4.029978e+01	-2.636413e-04
4.053255e+01	-2.666955e-04
4.076666e+01	-2.697852e-04
4.100213e+01	-2.729106e-04
4.123896e+01	-2.760722e-04
4.147715e+01	-2.792705e-04
4.171672e+01	-2.825058e-04
4.195767e+01	-2.857786e-04
4.220002e+01	-2.890894e-04
4.244377e+01	-2.924384e-04
4.268892e+01	-2.958263e-04
4.293549e+01	-2.992534e-04
4.318348e+01	-3.027202e-04
4.343291e+01	-3.062272e-04
4.368377e+01	-3.097748e-04
4.393609e+01	-3.133635e-04
4.418986e+01	-3.169937e-04
4.444510e+01	-3.206661e-04
4.470182e+01	-3.243809e-04
4.496001e+01	-3.281388e-04
4.521970e+01	-3.319403e-04
4.548089e+01	-3.357857e-04
4.574358e+01	-3.396758e-04
4.600779e+01	-3.436108e-04
4.627353e+01	-3.475915e-04
4.654081e+01	-3.516183e-04
4.680963e+01	-3.556917e-04
4.708000e+01	-3.598123e-04
4.735193e+01	-3.639807e-04
4.762543e+01	-3.681973e-04
4.790051e+01	-3.724628e-04
4.817719e+01	-3.767777e-04
4.845545e+01	-3.811426e-04
4.873533e+01	-3.855580e-04
4.901682e+01	-3.900246e-04
4.929994e+01	-3.945430e-04
4.958470e+01	-3.991137e-04
4.987110e+01	-4.037373e-04
5.015915e+01	-4.084145e-04
5.044887e+01	-4.131458e-04
5.074026e+01	-4.179320e-04
5.103333e+01	-4.227736e-04
5.132810e+01	-4.276714e-04
5.162457e+01	-4.326258e-04
5.192275e+01	-4.376376e-04
5.222265e+01	-4.427075e-04
5.252429e+01	-4.478362e-04
5.282767e+01	-4.530242e-04
5.313280e+01	-4.582723e-04
5.343969e+01	-4.635813e-04
5.374836e+01	-4.689517e-04
5.405880e+01	-4.743843e-04
5.437105e+01	-4.798799e-04
5.468509e+01	-4.854391e-04
5.500095e+01	-4.910627e-04
5.531863e+01	-4.967515e-04
5.563815e+01	-5.025062e-04
5.595951e+01	-5.083275e-04
5.628273e+01	-5.142163e-04
5.660782e+01	-5.201733e-04
5.693479e+01	-5.261993e-04
5.726364e+01	-5.322950e-04
5.759439e+01	-5.384614e-04
5.792705e+01	-5.446993e-04
5.826164e+01	-5.510094e-04
5.859815e+01	-5.573926e-04
5.893662e+01	-5.638497e-04
5.927703e+01	-5.703816e-04
5.961941e+01	-5.769892e-04
5.996377e+01	-5.836733e-04
6.031012e+01	-5.904349e-04
6.065847e+01	-5.972748e-04
6.100883e+01	-6.041939e-04
6.136121e+01	-6.111931e-04
6.171563e+01	-6.182735e-04
6.207210e+01	-6.254358e-04
6.243063e+01	-6.326811e-04
6.279122e+01	-6.400104e-04
6.315390e+01	-6.474245e-04
6.351868e+01	-6.549246e-04
6.388556e+01	-6.625115e-04
6.425456e+01	-6.701862e-04
6.462569e+01	-6.779499e-04
6.499897e+01	-6.858035e-04
6.537440e+01	-6.937481e-04
6.575200e+01	-7.017847e-04
6.613178e+01	-7.099144e-04
6.651375e+01	-7.181383e-04
6.689793e+01	-7.264575e-04
6.728433e+01	-7.348730e-04
6.767297e+01	-7.433859e-04
6.806384e+01	-7.519975e-04
6.845698e+01	-7.607088e-04
6.885238e+01	-7.695211e-04
6.925007e+01	-7.784354e-04
6.965005e+01	-7.874530e-04
7.005235e+01	-7.965750e-04
7.045697e+01	-8.058027e-04
7.086393e+01	-8.151372e-04
7.127323e+01	-8.245799e-04
7.168490e+01	-8.341320e-04
7.209895e+01	-8.437947e-04
7.251539e+01	-8.535693e-04
7.293424e+01	-8.634572e-04
7.335551e+01	-8.734596e-04
7.377920e+01	-8.835778e-04
7.420535e+01	-8.938132e-04
7.463396e+01	-9.041672e-04
7.506504e+01	-9.146412e-04
7.549861e+01	-9.252364e-04
7.593469e+01	-9.359544e-04
7.637328e+01	-9.467965e-04
7.681441e+01	-9.577641e-04
7.725809e+01	-9.688589e-04
7.770433e+01	-9.800821e-04
7.815315e+01	-9.914353e-04
7.860456e+01	-1.002920e-03
7.905857e+01	-1.014538e-03
7.951521e+01	-1.026290e-03
7.997449e+01	-1.038179e-03
8.043642e+01	-1.050205e-03
8.090102e+01	-1.062370e-03
8.136830e+01	-1.074676e-03
8.183828e+01	-1.087125e-03
8.231097e+01	-1.099718e-03
8.278640e+01	-1.112457e-03
8.326457e+01	-1.125344e-03
8.374550e+01	-1.138379e-03
8.422921e+01	-1.151566e-03
8.471572e+01	-1.164905e-03
8.520503e+01	-1.178399e-03
8.569717e+01	-1.192050e-03
8.619215e+01	-1.205858e-03
8.669000e+01	-1.219826e-03
8.719071e+01	-1.233956e-03
8.769432e+01	-1.248250e-03
8.820084e+01	-1.262709e-03
8.871029e+01	-1.277336e-03
8.922267e+01	-1.292132e-03
8.973802e+01	-1.307099e-03
9.025634e+01	-1.322240e-03
9.077766e+01	-1.337556e-03
9.130199e+01	-1.353050e-03
9.182935e+01	-1.368723e-03
9.235975e+01	-1.384577e-03
9.289321e+01	-1.400615e-03
9.342976e+01	-1.416839e-03
9.396941e+01	-1.433251e-03
9.451217e+01	-1.449853e-03
9.505807e+01	-1.466647e-03
9.560712e+01	-1.483635e-03
9.615934e+01	-1.500821e-03
9.671476e+01	-1.518205e-03
9.727338e+01	-1.535791e-03
9.783522e+01	-1.553580e-03
9.840032e+01	-1.571575e-03
9.896867e+01	-1.589779e-03
9.954031e+01	-1.608194e-03
1.001153e+02	-1.626822e-03
1.006935e+02	-1.645665e-03
1.012751e+02	-1.664727e-03
1.018601e+02	-1.684010e-03
1.024484e+02	-1.703516e-03
1.030402e+02	-1.723247e-03
1.036353e+02	-1.743208e-03
1.042339e+02	-1.763399e-03
1.048360e+02	-1.783824e-03
1.054415e+02	-1.804486e-03
1.060505e+02	-1.825387e-03
1.066631e+02	-1.846530e-03
1.072791e+02	-1.867918e-03
1.078988e+02	-1.889554e-03
1.085220e+02	-1.911440e-03
1.091488e+02	-1.933580e-03
1.097793e+02	-1.955976e-03
1.104133e+02	-1.978631e-03
1.110511e+02	-2.001549e-03
1.116925e+02	-2.024732e-03
1.123376e+02	-2.048183e-03
1.129865e+02	-2.071906e-03
1.136391e+02	-2.095904e-03
1.142955e+02	-2.120180e-03
1.149556e+02	-2.144736e-03
1.156196e+02	-2.169578e-03
1.162874e+02	-2.194706e-03
1.169591e+02	-2.220126e-03
1.176347e+02	-2.245840e-03
1.183141e+02	-2.271852e-03
1.189975e+02	-2.298165e-03
1.196848e+02	-2.324783e-03
1.203761e+02	-2.351709e-03
1.210714e+02	-2.378946e-03
1.217707e+02	-2.406499e-03
1.224740e+02	-2.434372e-03
1.231814e+02	-2.462566e-03
1.238929e+02	-2.491088e-03
1.246085e+02	-2.519939e-03
1.253283e+02	-2.549125e-03
1.260522e+02	-2.578648e-03
1.267802e+02	-2.608514e-03
1.275125e+02	-2.638725e-03
1.282490e+02	-2.669286e-03
1.289898e+02	-2.700200e-03
1.297348e+02	-2.731473e-03
1.304842e+02	-2.763108e-03
1.312378e+02	-2.795109e-03
1.319959e+02	-2.827480e-03
1.327583e+02	-2.860227e-03
1.335251e+02	-2.893352e-03
1.342963e+02	-2.926861e-03
1.350720e+02	-2.960758e-03
1.358522e+02	-2.995047e-03
1.366368e+02	-3.029734e-03
1.374260e+02	-3.064821e-03
1.382198e+02	-3.100315e-03
1.390182e+02	-3.136220e-03
1.398211e+02	-3.172541e-03
1.406287e+02	-3.209282e-03
1.414410e+02	-3.246449e-03
1.422579e+02	-3.284045e-03
1.430796e+02	-3.322077e-03
1.439060e+02	-3.360550e-03
1.447372e+02	-3.399467e-03
1.455732e+02	-3.438835e-03
1.464141e+02	-3.478659e-03
1.472597e+02	-3.518944e-03
1.481103e+02	-3.559695e-03
1.489658e+02	-3.600918e-03
1.498262e+02	-3.642618e-03
1.506916e+02	-3.684801e-03
1.515620e+02	-3.727472e-03
1.524374e+02	-3.770637e-03
1.533179e+02	-3.814301e-03
1.542034e+02	-3.858471e-03
1.550941e+02	-3.903152e-03
1.559899e+02	-3.948351e-03
1.568909e+02	-3.994072e-03
1.577971e+02	-4.040323e-03
1.587085e+02	-4.087109e-03
1.596252e+02	-4.134437e-03
1.605472e+02	-4.182312e-03
1.614745e+02	-4.230742e-03
1.624072e+02	-4.279732e-03
1.633453e+02	-4.329289e-03
1.642887e+02	-4.379420e-03
1.652377e+02	-4.430130e-03
1.661921e+02	-4.481428e-03
1.671520e+02	-4.533319e-03
1.681175e+02	-4.585811e-03
1.690885e+02	-4.638911e-03
1.700651e+02	-4.692624e-03
1.710474e+02	-4.746960e-03
1.720354e+02	-4.801924e-03
1.730291e+02	-4.857525e-03
1.740285e+02	-4.913768e-03
1.750337e+02	-4.970663e-03
1.760446e+02	-5.028216e-03
1.770615e+02	-5.086435e-03
1.780842e+02	-5.145328e-03
1.791128e+02	-5.204902e-03
1.801473e+02	-5.265165e-03
1.811878e+02	-5.326126e-03
1.822344e+02	-5.387792e-03
1.832870e+02	-5.450172e-03
1.843456e+02	-5.513273e-03
1.854104e+02	-5.577105e-03
1.864813e+02	-5.641675e-03
1.875584e+02	-5.706992e-03
1.886418e+02	-5.773065e-03
1.897313e+02	-5.839902e-03
1.908272e+02	-5.907513e-03
1.919294e+02	-5.975906e-03
1.930380e+02	-6.045090e-03
1.941530e+02	-6.115074e-03
1.952744e+02	-6.185868e-03
1.964023e+02	-6.257481e-03
1.975367e+02	-6.329923e-03
1.986777e+02	-6.403203e-03
1.998252e+02	-6.477330e-03
2.009794e+02	-6.552315e-03
2.021403e+02	-6.628167e-03
2.033078e+02	-6.704896e-03
2.044821e+02	-6.782513e-03
2.056632e+02	-6.861028e-03
2.068511e+02	-6.940451e-03
2.080459e+02	-7.020793e-03
2.092475e+02	-7.102064e-03
2.104561e+02	-7.184275e-03
2.116717e+02	-7.267437e-03
2.128943e+02	-7.351560e-03
2.141240e+02	-7.436657e-03
2.153608e+02	-7.522738e-03
2.166047e+02	-7.609814e-03
2.178558e+02	-7.697897e-03
2.191141e+02	-7.786999e-03
2.203797e+02	-7.877131e-03
2.216526e+02	-7.968306e-03
2.229329e+02	-8.060535e-03
2.242205e+02	-8.153830e-03
2.255156e+02	-8.248204e-03
2.268182e+02	-8.343670e-03
2.281283e+02	-8.440239e-03
2.294459e+02	-8.537925e-03
2.307712e+02	-8.636740e-03
2.321041e+02	-8.736698e-03
2.334447e+02	-8.837812e-03
2.347931e+02	-8.940094e-03
2.361493e+02	-9.043559e-03
2.375133e+02	-9.148220e-03
2.388851e+02	-9.254091e-03
2.402649e+02	-9.361187e-03
2.416527e+02	-9.469520e-03
2.430484e+02	-9.579105e-03
2.444523e+02	-9.689957e-03
2.458642e+02	-9.802091e-03
2.472843e+02	-9.915520e-03
2.487126e+02	-1.003026e-02
2.501492e+02	-1.014633e-02
2.515940e+02	-1.026374e-02
2.530472e+02	-1.038250e-02
2.545088e+02	-1.050264e-02
2.559789e+02	-1.062417e-02
2.574574e+02	-1.074710e-02
2.589444e+02	-1.087145e-02
2.604401e+02	-1.099724e-02
2.619444e+02	-1.112448e-02
2.634574e+02	-1.125319e-02
2.649791e+02	-1.138339e-02
2.665096e+02	-1.151509e-02
2.680489e+02	-1.164832e-02
2.695972e+02	-1.178308e-02
2.711544e+02	-1.191941e-02
2.727205e+02	-1.205730e-02
2.742958e+02	-1.219679e-02
2.758801e+02	-1.233790e-02
2.774736e+02	-1.248063e-02
2.790762e+02	-1.262501e-02
2.806882e+02	-1.277106e-02
2.823094e+02	-1.291879e-02
2.839400e+02	-1.306823e-02
2.855800e+02	-1.321940e-02
2.872295e+02	-1.337231e-02
2.888886e+02	-1.352699e-02
2.905572e+02	-1.368346e-02
2.922354e+02	-1.384173e-02
2.939234e+02	-1.400183e-02
2.956211e+02	-1.416378e-02
2.973286e+02	-1.432760e-02
2.990459e+02	-1.449331e-02
3.007732e+02	-1.466093e-02
3.025104e+02	-1.483049e-02
3.042577e+02	-1.500201e-02
3.060151e+02	-1.517551e-02
3.077826e+02	-1.535101e-02
3.095604e+02	-1.552853e-02
3.113484e+02	-1.570811e-02
3.131467e+02	-1.588976e-02
3.149554e+02	-1.607350e-02
3.167746e+02	-1.625937e-02
3.186043e+02	-1.644738e-02
3.204445e+02	-1.663756e-02
3.222954e+02	-1.682994e-02
3.241570e+02	-1.702453e-02
3.260293e+02	-1.722137e-02
3.279124e+02	-1.742048e-02
3.298064e+02	-1.762189e-02
3.317114e+02	-1.782563e-02
3.336273e+02	-1.803171e-02
3.355544e+02	-1.824017e-02
3.374925e+02	-1.845104e-02
3.394418e+02	-1.866434e-02
3.414024e+02	-1.888010e-02
3.433744e+02	-1.909835e-02
3.453577e+02	-1.931911e-02
3.473525e+02	-1.954242e-02
3.493588e+02	-1.976831e-02
3.513766e+02	-1.999680e-02
3.534062e+02	-2.022793e-02
3.554474e+02	-2.046172e-02
3.575005e+02	-2.069821e-02
3.595654e+02	-2.093742e-02
3.616422e+02	-2.117939e-02
3.637311e+02	-2.142415e-02
3.658320e+02	-2.167173e-02
3.679450e+02	-2.192217e-02
3.700702e+02	-2.217549e-02
3.722077e+02	-2.243174e-02
3.743576e+02	-2.269093e-02
3.765199e+02	-2.295312e-02
3.786946e+02	-2.321832e-02
3.808820e+02	-2.348658e-02
3.830819e+02	-2.375793e-02
3.852946e+02	-2.403241e-02
3.875200e+02	-2.431005e-02
3.897583e+02	-2.459089e-02
3.920096e+02	-2.487496e-02
3.942738e+02	-2.516230e-02
3.965511e+02	-2.545296e-02
3.988416e+02	-2.574696e-02
4.011452e+02	-2.604435e-02
4.034622e+02	-2.634516e-02
4.057926e+02	-2.664943e-02
4.081365e+02	-2.695721e-02
4.104938e+02	-2.726854e-02
4.128648e+02	-2.758344e-02
4.152495e+02	-2.790197e-02
4.176480e+02	-2.822417e-02
4.200603e+02	-2.855008e-02
4.224866e+02	-2.887973e-02
4.249268e+02	-2.921318e-02
4.273812e+02	-2.955047e-02
4.298497e+02	-2.989164e-02
4.323325e+02	-3.023673e-02
4.348297e+02	-3.058579e-02
4.373412e+02	-3.093887e-02
4.398673e+02	-3.129601e-02
4.424079e+02	-3.165725e-02
4.449633e+02	-3.202265e-02
4.475334e+02	-3.239226e-02
4.501183e+02	-3.276611e-02
4.527182e+02	-3.314426e-02
4.553330e+02	-3.352676e-02
4.579630e+02	-3.391365e-02
4.606082e+02	-3.430499e-02
4.632687e+02	-3.470083e-02
4.659445e+02	-3.510122e-02
4.686358e+02	-3.550621e-02
4.713426e+02	-3.591585e-02
4.740650e+02	-3.633020e-02
4.768032e+02	-3.674931e-02
4.795572e+02	-3.717323e-02
4.823271e+02	-3.760202e-02
4.851130e+02	-3.803574e-02
4.879150e+02	-3.847444e-02
4.907332e+02	-3.891817e-02
4.935676e+02	-3.936700e-02
4.964185e+02	-3.982098e-02
4.992858e+02	-4.028017e-02
5.021696e+02	-4.074463e-02
5.050701e+02	-4.121442e-02
5.079874e+02	-4.168960e-02
5.109215e+02	-4.217023e-02
5.138726e+02	-4.265638e-02
5.168407e+02	-4.314810e-02
5.198259e+02	-4.364547e-02
5.228284e+02	-4.414854e-02
5.258482e+02	-4.465737e-02
5.288855e+02	-4.517204e-02
5.319403e+02	-4.569261e-02
5.350128e+02	-4.621915e-02
5.381030e+02	-4.675172e-02
5.412111e+02	-4.729039e-02
5.443371e+02	-4.783524e-02
5.474812e+02	-4.838633e-02
5.506434e+02	-4.894373e-02
5.538239e+02	-4.950752e-02
5.570228e+02	-5.007776e-02
5.602401e+02	-5.065454e-02
5.634760e+02	-5.123791e-02
5.667306e+02	-5.182797e-02
5.700040e+02	-5.242478e-02
5.732964e+02	-5.302842e-02
5.766077e+02	-5.363896e-02
5.799382e+02	-5.425649e-02
5.832879e+02	-5.488109e-02
5.866569e+02	-5.551283e-02
5.900454e+02	-5.615180e-02
5.934535e+02	-5.679807e-02
5.968813e+02	-5.745173e-02
6.003288e+02	-5.811286e-02
6.037963e+02	-5.878155e-02
6.072838e+02	-5.945788e-02
6.107914e+02	-6.014194e-02
6.143194e+02	-6.083381e-02
6.178676e+02	-6.153359e-02
6.214364e+02	-6.224135e-02
6.250258e+02	-6.295720e-02
6.286359e+02	-6.368123e-02
6.322669e+02	-6.441351e-02
6.359189e+02	-6.515415e-02
6.395919e+02	-6.590325e-02
6.432862e+02	-6.666089e-02
6.470017e+02	-6.742717e-02
6.507388e+02	-6.820219e-02
6.544974e+02	-6.898605e-02
6.582778e+02	-6.977885e-02
6.620800e+02	-7.058068e-02
6.659041e+02	-7.139165e-02
6.697504e+02	-7.221186e-02
6.736188e+02	-7.304141e-02
6.775096e+02	-7.388042e-02
6.814229e+02	-7.472897e-02
6.853587e+02	-7.558719e-02
6.893173e+02	-7.645518e-02
6.932988e+02	-7.733304e-02
6.973033e+02	-7.822089e-02
7.013309e+02	-7.911885e-02
