Frequency(Hz)	Magnitude(dB)
1.000000e+01	-1.573191e-05
1.005776e+01	-1.591417e-05
1.011585e+01	-1.609854e-05
1.017428e+01	-1.628505e-05
1.023305e+01	-1.647371e-05
1.029215e+01	-1.666457e-05
1.035160e+01	-1.685763e-05
1.041139e+01	-1.705293e-05
1.047153e+01	-1.725049e-05
1.053201e+01	-1.745034e-05
1.059284e+01	-1.765251e-05
1.065403e+01	-1.785702e-05
1.071556e+01	-1.806390e-05
1.077746e+01	-1.827317e-05
1.083971e+01	-1.848487e-05
1.090232e+01	-1.869902e-05
1.096529e+01	-1.891566e-05
1.102862e+01	-1.913480e-05
1.109232e+01	-1.935648e-05
1.115639e+01	-1.958073e-05
1.122083e+01	-1.980758e-05
1.128564e+01	-2.003705e-05
1.135083e+01	-2.026919e-05
1.141639e+01	-2.050401e-05
1.148233e+01	-2.074156e-05
1.154865e+01	-2.098185e-05
1.161536e+01	-2.122493e-05
1.168245e+01	-2.147083e-05
1.174992e+01	-2.171957e-05
1.181779e+01	-2.197120e-05
1.188605e+01	-2.222574e-05
1.195470e+01	-2.248323e-05
1.202375e+01	-2.274371e-05
1.209320e+01	-2.300720e-05
1.216305e+01	-2.327374e-05
1.223330e+01	-2.354338e-05
1.230396e+01	-2.381613e-05
1.237503e+01	-2.409205e-05
1.244651e+01	-2.437116e-05
1.251840e+01	-2.465351e-05
1.259070e+01	-2.493912e-05
1.266343e+01	-2.522805e-05
1.273657e+01	-2.552032e-05
1.281014e+01	-2.581598e-05
1.288413e+01	-2.611506e-05
1.295855e+01	-2.641761e-05
1.303339e+01	-2.672367e-05
1.310867e+01	-2.703327e-05
1.318439e+01	-2.734646e-05
1.326054e+01	-2.766327e-05
1.333713e+01	-2.798376e-05
1.341417e+01	-2.830796e-05
1.349165e+01	-2.863591e-05
1.356958e+01	-2.896766e-05
1.364795e+01	-2.930326e-05
1.372678e+01	-2.964275e-05
1.380607e+01	-2.998616e-05
1.388581e+01	-3.033356e-05
1.396602e+01	-3.068498e-05
1.404668e+01	-3.104048e-05
1.412782e+01	-3.140009e-05
1.420942e+01	-3.176387e-05
1.429149e+01	-3.213186e-05
1.437404e+01	-3.250411e-05
1.445706e+01	-3.288068e-05
1.454057e+01	-3.326161e-05
1.462455e+01	-3.364695e-05
1.470902e+01	-3.403676e-05
1.479398e+01	-3.443109e-05
1.487943e+01	-3.482998e-05
1.496537e+01	-3.523349e-05
1.505181e+01	-3.564168e-05
1.513875e+01	-3.605460e-05
1.522619e+01	-3.647230e-05
1.531414e+01	-3.689484e-05
1.540259e+01	-3.732227e-05
1.549156e+01	-3.775466e-05
1.558103e+01	-3.819206e-05
1.567103e+01	-3.863452e-05
1.576155e+01	-3.908211e-05
1.585258e+01	-3.953488e-05
1.594415e+01	-3.999291e-05
1.603624e+01	-4.045623e-05
1.612886e+01	-4.092493e-05
1.622202e+01	-4.139905e-05
1.631572e+01	-4.187867e-05
1.640996e+01	-4.236384e-05
1.650474e+01	-4.285464e-05
1.660008e+01	-4.335112e-05
1.669596e+01	-4.385335e-05
1.679239e+01	-4.436140e-05
1.688938e+01	-4.487534e-05
1.698694e+01	-4.539523e-05
1.708505e+01	-4.592114e-05
1.718373e+01	-4.645315e-05
1.728299e+01	-4.699132e-05
1.738281e+01	-4.753572e-05
1.748322e+01	-4.808643e-05
1.758420e+01	-4.864352e-05
1.768576e+01	-4.920707e-05
1.778792e+01	-4.977715e-05
1.789066e+01	-5.035382e-05
1.799399e+01	-5.093718e-05
1.809793e+01	-5.152730e-05
1.820246e+01	-5.212426e-05
1.830760e+01	-5.272813e-05
1.841334e+01	-5.333899e-05
1.851969e+01	-5.395694e-05
1.862666e+01	-5.458204e-05
1.873425e+01	-5.521438e-05
1.884246e+01	-5.585405e-05
1.895129e+01	-5.650113e-05
1.906075e+01	-5.715571e-05
1.917085e+01	-5.781787e-05
1.928158e+01	-5.848770e-05
1.939295e+01	-5.916529e-05
1.950496e+01	-5.985074e-05
1.961762e+01	-6.054412e-05
1.973093e+01	-6.124553e-05
1.984490e+01	-6.195508e-05
1.995952e+01	-6.267284e-05
2.007480e+01	-6.339892e-05
2.019076e+01	-6.413340e-05
2.030738e+01	-6.487640e-05
2.042467e+01	-6.562801e-05
2.054264e+01	-6.638832e-05
2.066130e+01	-6.715744e-05
2.078064e+01	-6.793547e-05
2.090066e+01	-6.872252e-05
2.102139e+01	-6.951868e-05
2.114280e+01	-7.032407e-05
2.126492e+01	-7.113879e-05
2.138775e+01	-7.196294e-05
2.151128e+01	-7.279665e-05
2.163553e+01	-7.364001e-05
2.176050e+01	-7.449314e-05
2.188619e+01	-7.535616e-05
2.201260e+01	-7.622917e-05
2.213974e+01	-7.711230e-05
2.226762e+01	-7.800566e-05
2.239624e+01	-7.890937e-05
2.252560e+01	-7.982355e-05
2.265571e+01	-8.074832e-05
2.278656e+01	-8.168380e-05
2.291818e+01	-8.263012e-05
2.305055e+01	-8.358740e-05
2.318369e+01	-8.455578e-05
2.331760e+01	-8.553537e-05
2.345228e+01	-8.652631e-05
2.358774e+01	-8.752873e-05
2.372398e+01	-8.854277e-05
2.386101e+01	-8.956855e-05
2.399883e+01	-9.060622e-05
2.413745e+01	-9.165590e-05
2.427686e+01	-9.271775e-05
2.441709e+01	-9.379190e-05
2.455812e+01	-9.487849e-05
2.469997e+01	-9.597768e-05
2.484263e+01	-9.708959e-05
2.498612e+01	-9.821439e-05
2.513044e+01	-9.935222e-05
2.527559e+01	-1.005032e-04
2.542158e+01	-1.016676e-04
2.556842e+01	-1.028454e-04
2.571610e+01	-1.040369e-04
2.586463e+01	-1.052422e-04
2.601403e+01	-1.064614e-04
2.616428e+01	-1.076948e-04
2.631541e+01	-1.089424e-04
2.646740e+01	-1.102046e-04
2.662028e+01	-1.114813e-04
2.677404e+01	-1.127728e-04
2.692868e+01	-1.140793e-04
2.708422e+01	-1.154009e-04
2.724066e+01	-1.167379e-04
2.739800e+01	-1.180903e-04
2.755625e+01	-1.194584e-04
2.771541e+01	-1.208423e-04
2.787550e+01	-1.222423e-04
2.803650e+01	-1.236585e-04
2.819844e+01	-1.250911e-04
2.836131e+01	-1.265403e-04
2.852513e+01	-1.280062e-04
2.868989e+01	-1.294892e-04
2.885560e+01	-1.309894e-04
2.902227e+01	-1.325069e-04
2.918990e+01	-1.340420e-04
2.935850e+01	-1.355949e-04
2.952807e+01	-1.371658e-04
2.969863e+01	-1.387548e-04
2.987016e+01	-1.403623e-04
3.004269e+01	-1.419884e-04
3.021622e+01	-1.436334e-04
3.039075e+01	-1.452974e-04
3.056628e+01	-1.469807e-04
3.074283e+01	-1.486834e-04
3.092040e+01	-1.504060e-04
3.109900e+01	-1.521484e-04
3.127862e+01	-1.539111e-04
3.145929e+01	-1.556941e-04
3.164099e+01	-1.574979e-04
3.182375e+01	-1.593225e-04
3.200756e+01	-1.611683e-04
3.219244e+01	-1.630354e-04
3.237838e+01	-1.649242e-04
3.256540e+01	-1.668348e-04
3.275349e+01	-1.687676e-04
3.294268e+01	-1.707228e-04
3.313295e+01	-1.727006e-04
3.332433e+01	-1.747014e-04
3.351681e+01	-1.767253e-04
3.371040e+01	-1.787727e-04
3.390511e+01	-1.808438e-04
3.410094e+01	-1.829388e-04
3.429791e+01	-1.850582e-04
3.449601e+01	-1.872021e-04
3.469526e+01	-1.893708e-04
3.489566e+01	-1.915647e-04
3.509721e+01	-1.937840e-04
3.529993e+01	-1.960290e-04
3.550382e+01	-1.983000e-04
3.570889e+01	-2.005973e-04
3.591515e+01	-2.029212e-04
3.612259e+01	-2.052720e-04
3.633123e+01	-2.076501e-04
3.654108e+01	-2.100558e-04
3.675214e+01	-2.124892e-04
3.696442e+01	-2.149509e-04
3.717792e+01	-2.174411e-04
3.739266e+01	-2.199602e-04
3.760864e+01	-2.225084e-04
3.782587e+01	-2.250862e-04
3.804435e+01	-2.276938e-04
3.826409e+01	-2.303316e-04
3.848510e+01	-2.330000e-04
3.870739e+01	-2.356993e-04
3.893096e+01	-2.384299e-04
3.915583e+01	-2.411921e-04
3.938199e+01	-2.439863e-04
3.960946e+01	-2.468128e-04
3.983824e+01	-2.496721e-04
4.006834e+01	-2.525646e-04
4.029978e+01	-2.554905e-04
4.053255e+01	-2.584504e-04
4.076666e+01	-2.614445e-04
4.100213e+01	-2.644733e-04
4.123896e+01	-2.675372e-04
4.147715e+01	-2.706366e-04
4.171672e+01	-2.737719e-04
4.195767e+01	-2.769435e-04
4.220002e+01	-2.801519e-04
4.244377e+01	-2.833974e-04
4.268892e+01	-2.866806e-04
4.293549e+01	-2.900017e-04
4.318348e+01	-2.933614e-04
4.343291e+01	-2.967599e-04
4.368377e+01	-3.001979e-04
4.393609e+01	-3.036756e-04
4.418986e+01	-3.071936e-04
4.444510e+01	-3.107524e-04
4.470182e+01	-3.143525e-04
4.496001e+01	-3.179942e-04
4.521970e+01	-3.216781e-04
4.548089e+01	-3.254047e-04
4.574358e+01	-3.291745e-04
4.600779e+01	-3.329879e-04
4.627353e+01	-3.368455e-04
4.654081e+01	-3.407478e-04
4.680963e+01	-3.446953e-04
4.708000e+01	-3.486885e-04
4.735193e+01	-3.527280e-04
4.762543e+01	-3.568143e-04
4.790051e+01	-3.609479e-04
4.817719e+01	-3.651294e-04
4.845545e+01	-3.693594e-04
4.873533e+01	-3.736383e-04
4.901682e+01	-3.779668e-04
4.929994e+01	-3.823455e-04
4.958470e+01	-3.867749e-04
4.987110e+01	-3.912556e-04
5.015915e+01	-3.957882e-04
5.044887e+01	-4.003733e-04
5.074026e+01	-4.050115e-04
5.103333e+01	-4.097034e-04
5.132810e+01	-4.144497e-04
5.162457e+01	-4.192510e-04
5.192275e+01	-4.241079e-04
5.222265e+01	-4.290211e-04
5.252429e+01	-4.339912e-04
5.282767e+01	-4.390188e-04
5.313280e+01	-4.441047e-04
5.343969e+01	-4.492495e-04
5.374836e+01	-4.544539e-04
5.405880e+01	-4.597186e-04
5.437105e+01	-4.650443e-04
5.468509e+01	-4.704317e-04
5.500095e+01	-4.758815e-04
5.531863e+01	-4.813944e-04
5.563815e+01	-4.869711e-04
5.595951e+01	-4.926125e-04
5.628273e+01	-4.983192e-04
5.660782e+01	-5.040921e-04
5.693479e+01	-5.099318e-04
5.726364e+01	-5.158391e-04
5.759439e+01	-5.218149e-04
5.792705e+01	-5.278599e-04
5.826164e+01	-5.339749e-04
5.859815e+01	-5.401608e-04
5.893662e+01	-5.464183e-04
5.927703e+01	-5.527483e-04
5.961941e+01	-5.591517e-04
5.996377e+01	-5.656292e-04
6.031012e+01	-5.721817e-04
6.065847e+01	-5.788101e-04
6.100883e+01	-5.855154e-04
6.136121e+01	-5.922983e-04
6.171563e+01	-5.991597e-04
6.207210e+01	-6.061007e-04
6.243063e+01	-6.131220e-04
6.279122e+01	-6.202247e-04
6.315390e+01	-6.274096e-04
6.351868e+01	-6.346778e-04
6.388556e+01	-6.420302e-04
6.425456e+01	-6.494677e-04
6.462569e+01	-6.569914e-04
6.499897e+01	-6.646023e-04
6.537440e+01	-6.723013e-04
6.575200e+01	-6.800895e-04
6.613178e+01	-6.879679e-04
6.651375e+01	-6.959375e-04
6.689793e+01	-7.039995e-04
6.728433e+01	-7.121549e-04
6.767297e+01	-7.204047e-04
6.806384e+01	-7.287501e-04
6.845698e+01	-7.371921e-04
6.885238e+01	-7.457320e-04
6.925007e+01	-7.543707e-04
6.965005e+01	-7.631095e-04
7.005235e+01	-7.719496e-04
7.045697e+01	-7.808920e-04
7.086393e+01	-7.899381e-04
7.127323e+01	-7.990889e-04
7.168490e+01	-8.083457e-04
7.209895e+01	-8.177097e-04
7.251539e+01	-8.271822e-04
7.293424e+01	-8.367644e-04
7.335551e+01	-8.464576e-04
7.377920e+01	-8.562631e-04
7.420535e+01	-8.661821e-04
7.463396e+01	-8.762161e-04
7.506504e+01	-8.863662e-04
7.549861e+01	-8.966340e-04
7.593469e+01	-9.070206e-04
7.637328e+01	-9.175276e-04
7.681441e+01	-9.281563e-04
7.725809e+01	-9.389080e-04
7.770433e+01	-9.497844e-04
7.815315e+01	-9.607866e-04
7.860456e+01	-9.719164e-04
7.905857e+01	-9.831750e-04
7.951521e+01	-9.945641e-04
7.997449e+01	-1.006085e-03
8.043642e+01	-1.017739e-03
8.090102e+01	-1.029529e-03
8.136830e+01	-1.041455e-03
8.183828e+01	-1.053519e-03
8.231097e+01	-1.065723e-03
8.278640e+01	-1.078068e-03
8.326457e+01	-1.090556e-03
8.374550e+01	-1.103189e-03
8.422921e+01	-1.115968e-03
8.471572e+01	-1.128895e-03
8.520503e+01	-1.141972e-03
8.569717e+01	-1.155200e-03
8.619215e+01	-1.168582e-03
8.669000e+01	-1.182118e-03
8.719071e+01	-1.195811e-03
8.769432e+01	-1.209663e-03
8.820084e+01	-1.223675e-03
8.871029e+01	-1.237850e-03
8.922267e+01	-1.252189e-03
8.973802e+01	-1.266694e-03
9.025634e+01	-1.281366e-03
9.077766e+01	-1.296209e-03
9.130199e+01	-1.311224e-03
9.182935e+01	-1.326412e-03
9.235975e+01	-1.341777e-03
9.289321e+01	-1.357319e-03
9.342976e+01	-1.373042e-03
9.396941e+01	-1.388946e-03
9.451217e+01	-1.405035e-03
9.505807e+01	-1.421310e-03
9.560712e+01	-1.437774e-03
9.615934e+01	-1.454428e-03
9.671476e+01	-1.471275e-03
9.727338e+01	-1.488317e-03
9.783522e+01	-1.505557e-03
9.840032e+01	-1.522996e-03
9.896867e+01	-1.540637e-03
9.954031e+01	-1.558483e-03
1.001153e+02	-1.576535e-03
1.006935e+02	-1.594796e-03
1.012751e+02	-1.613269e-03
1.018601e+02	-1.631955e-03
1.024484e+02	-1.650858e-03
1.030402e+02	-1.669980e-03
1.036353e+02	-1.689324e-03
1.042339e+02	-1.708891e-03
1.048360e+02	-1.728685e-03
1.054415e+02	-1.748708e-03
1.060505e+02	-1.768963e-03
1.066631e+02	-1.789453e-03
1.072791e+02	-1.810180e-03
1.078988e+02	-1.831147e-03
1.085220e+02	-1.852357e-03
1.091488e+02	-1.873812e-03
1.097793e+02	-1.895516e-03
1.104133e+02	-1.917471e-03
1.110511e+02	-1.939681e-03
1.116925e+02	-1.962147e-03
1.123376e+02	-1.984874e-03
1.129865e+02	-2.007864e-03
1.136391e+02	-2.031120e-03
1.142955e+02	-2.054646e-03
1.149556e+02	-2.078444e-03
1.156196e+02	-2.102517e-03
1.162874e+02	-2.126870e-03
1.169591e+02	-2.151504e-03
1.176347e+02	-2.176423e-03
1.183141e+02	-2.201631e-03
1.189975e+02	-2.227131e-03
1.196848e+02	-2.252926e-03
1.203761e+02	-2.279020e-03
1.210714e+02	-2.305416e-03
1.217707e+02	-2.332118e-03
1.224740e+02	-2.359129e-03
1.231814e+02	-2.386453e-03
1.238929e+02	-2.414093e-03
1.246085e+02	-2.442053e-03
1.253283e+02	-2.470336e-03
1.260522e+02	-2.498948e-03
1.267802e+02	-2.527890e-03
1.275125e+02	-2.557168e-03
1.282490e+02	-2.586784e-03
1.289898e+02	-2.616744e-03
1.297348e+02	-2.647050e-03
1.304842e+02	-2.677708e-03
1.312378e+02	-2.708720e-03
1.319959e+02	-2.740091e-03
1.327583e+02	-2.771826e-03
1.335251e+02	-2.803928e-03
1.342963e+02	-2.836401e-03
1.350720e+02	-2.869251e-03
1.358522e+02	-2.902481e-03
1.366368e+02	-2.936095e-03
1.374260e+02	-2.970099e-03
1.382198e+02	-3.004497e-03
1.390182e+02	-3.039292e-03
1.398211e+02	-3.074491e-03
1.406287e+02	-3.110097e-03
1.414410e+02	-3.146115e-03
1.422579e+02	-3.182550e-03
1.430796e+02	-3.219407e-03
1.439060e+02	-3.256691e-03
1.447372e+02	-3.294406e-03
1.455732e+02	-3.332558e-03
1.464141e+02	-3.371152e-03
1.472597e+02	-3.410192e-03
1.481103e+02	-3.449684e-03
1.489658e+02	-3.489634e-03
1.498262e+02	-3.530045e-03
1.506916e+02	-3.570925e-03
1.515620e+02	-3.612278e-03
1.524374e+02	-3.654109e-03
1.533179e+02	-3.696425e-03
1.542034e+02	-3.739231e-03
1.550941e+02	-3.782532e-03
1.559899e+02	-3.826334e-03
1.568909e+02	-3.870643e-03
1.577971e+02	-3.915466e-03
1.587085e+02	-3.960806e-03
1.596252e+02	-4.006672e-03
1.605472e+02	-4.053069e-03
1.614745e+02	-4.100002e-03
1.624072e+02	-4.147479e-03
1.633453e+02	-4.195506e-03
1.642887e+02	-4.244088e-03
1.652377e+02	-4.293232e-03
1.661921e+02	-4.342946e-03
1.671520e+02	-4.393234e-03
1.681175e+02	-4.444105e-03
1.690885e+02	-4.495564e-03
1.700651e+02	-4.547619e-03
1.710474e+02	-4.600277e-03
1.720354e+02	-4.653543e-03
1.730291e+02	-4.707427e-03
1.740285e+02	-4.761933e-03
1.750337e+02	-4.817071e-03
1.760446e+02	-4.872847e-03
1.770615e+02	-4.929268e-03
1.780842e+02	-4.986342e-03
1.791128e+02	-5.044076e-03
1.801473e+02	-5.102479e-03
1.811878e+02	-5.161557e-03
1.822344e+02	-5.221319e-03
1.832870e+02	-5.281772e-03
1.843456e+02	-5.342925e-03
1.854104e+02	-5.404786e-03
1.864813e+02	-5.467362e-03
1.875584e+02	-5.530662e-03
1.886418e+02	-5.594695e-03
1.897313e+02	-5.659469e-03
1.908272e+02	-5.724992e-03
1.919294e+02	-5.791273e-03
1.930380e+02	-5.858321e-03
1.941530e+02	-5.926145e-03
1.952744e+02	-5.994753e-03
1.964023e+02	-6.064155e-03
1.975367e+02	-6.134360e-03
1.986777e+02	-6.205377e-03
1.998252e+02	-6.277216e-03
2.009794e+02	-6.349886e-03
2.021403e+02	-6.423396e-03
2.033078e+02	-6.497757e-03
2.044821e+02	-6.572978e-03
2.056632e+02	-6.649069e-03
2.068511e+02	-6.726041e-03
2.080459e+02	-6.803902e-03
2.092475e+02	-6.882665e-03
2.104561e+02	-6.962338e-03
2.116717e+02	-7.042933e-03
2.128943e+02	-7.124460e-03
2.141240e+02	-7.206930e-03
2.153608e+02	-7.290354e-03
2.166047e+02	-7.374742e-03
2.178558e+02	-7.460107e-03
2.191141e+02	-7.546459e-03
2.203797e+02	-7.633809e-03
2.216526e+02	-7.722170e-03
2.229329e+02	-7.811553e-03
2.242205e+02	-7.901969e-03
2.255156e+02	-7.993431e-03
2.268182e+02	-8.085950e-03
2.281283e+02	-8.179539e-03
2.294459e+02	-8.274211e-03
2.307712e+02	-8.369977e-03
2.321041e+02	-8.466850e-03
2.334447e+02	-8.564844e-03
2.347931e+02	-8.663970e-03
2.361493e+02	-8.764243e-03
2.375133e+02	-8.865675e-03
2.388851e+02	-8.968280e-03
2.402649e+02	-9.072071e-03
2.416527e+02	-9.177061e-03
2.430484e+02	-9.283266e-03
2.444523e+02	-9.390698e-03
2.458642e+02	-9.499372e-03
2.472843e+02	-9.609303e-03
2.487126e+02	-9.720504e-03
2.501492e+02	-9.832991e-03
2.515940e+02	-9.946777e-03
2.530472e+02	-1.006188e-02
2.545088e+02	-1.017831e-02
2.559789e+02	-1.029609e-02
2.574574e+02	-1.041523e-02
2.589444e+02	-1.053574e-02
2.604401e+02	-1.065765e-02
2.619444e+02	-1.078097e-02
2.634574e+02	-1.090571e-02
2.649791e+02	-1.103190e-02
2.665096e+02	-1.115954e-02
2.680489e+02	-1.128866e-02
2.695972e+02	-1.141927e-02
2.711544e+02	-1.155139e-02
2.727205e+02	-1.168503e-02
2.742958e+02	-1.182022e-02
2.758801e+02	-1.195697e-02
2.774736e+02	-1.209530e-02
2.790762e+02	-1.223523e-02
2.806882e+02	-1.237678e-02
2.823094e+02	-1.251996e-02
2.839400e+02	-1.266479e-02
2.855800e+02	-1.281130e-02
2.872295e+02	-1.295950e-02
2.888886e+02	-1.310941e-02
2.905572e+02	-1.326105e-02
2.922354e+02	-1.341445e-02
2.939234e+02	-1.356961e-02
2.956211e+02	-1.372657e-02
2.973286e+02	-1.388534e-02
2.990459e+02	-1.404595e-02
3.007732e+02	-1.420841e-02
3.025104e+02	-1.437274e-02
3.042577e+02	-1.453897e-02
3.060151e+02	-1.470712e-02
3.077826e+02	-1.487722e-02
3.095604e+02	-1.504927e-02
3.113484e+02	-1.522332e-02
3.131467e+02	-1.539937e-02
3.149554e+02	-1.557745e-02
3.167746e+02	-1.575759e-02
3.186043e+02	-1.593981e-02
3.204445e+02	-1.612413e-02
3.222954e+02	-1.631058e-02
3.241570e+02	-1.649919e-02
3.260293e+02	-1.668996e-02
3.279124e+02	-1.688294e-02
3.298064e+02	-1.707815e-02
3.317114e+02	-1.727561e-02
3.336273e+02	-1.747535e-02
3.355544e+02	-1.767739e-02
3.374925e+02	-1.788177e-02
3.394418e+02	-1.808850e-02
3.414024e+02	-1.829761e-02
3.433744e+02	-1.850914e-02
3.453577e+02	-1.872311e-02
3.473525e+02	-1.893955e-02
3.493588e+02	-1.915848e-02
3.513766e+02	-1.937994e-02
3.534062e+02	-1.960395e-02
3.554474e+02	-1.983055e-02
3.575005e+02	-2.005976e-02
3.595654e+02	-2.029161e-02
3.616422e+02	-2.052614e-02
3.637311e+02	-2.076337e-02
3.658320e+02	-2.100333e-02
3.679450e+02	-2.124606e-02
3.700702e+02	-2.149159e-02
3.722077e+02	-2.173995e-02
3.743576e+02	-2.199118e-02
3.765199e+02	-2.224529e-02
3.786946e+02	-2.250234e-02
3.808820e+02	-2.276235e-02
3.830819e+02	-2.302536e-02
3.852946e+02	-2.329139e-02
3.875200e+02	-2.356050e-02
3.897583e+02	-2.383270e-02
3.920096e+02	-2.410804e-02
3.942738e+02	-2.438655e-02
3.965511e+02	-2.466827e-02
3.988416e+02	-2.495323e-02
4.011452e+02	-2.524148e-02
4.034622e+02	-2.553304e-02
4.057926e+02	-2.582797e-02
4.081365e+02	-2.612629e-02
4.104938e+02	-2.642804e-02
4.128648e+02	-2.673327e-02
4.152495e+02	-2.704202e-02
4.176480e+02	-2.735431e-02
4.200603e+02	-2.767021e-02
4.224866e+02	-2.798974e-02
4.249268e+02	-2.831294e-02
4.273812e+02	-2.863987e-02
4.298497e+02	-2.897056e-02
4.323325e+02	-2.930506e-02
4.348297e+02	-2.964340e-02
4.373412e+02	-2.998564e-02
4.398673e+02	-3.033181e-02
4.424079e+02	-3.068197e-02
4.449633e+02	-3.103615e-02
4.475334e+02	-3.139441e-02
4.501183e+02	-3.175678e-02
4.527182e+02	-3.212333e-02
4.553330e+02	-3.249409e-02
4.579630e+02	-3.286911e-02
4.606082e+02	-3.324845e-02
4.632687e+02	-3.363214e-02
4.659445e+02	-3.402025e-02
4.686358e+02	-3.441281e-02
4.713426e+02	-3.480989e-02
4.740650e+02	-3.521153e-02
4.768032e+02	-3.561779e-02
4.795572e+02	-3.602871e-02
4.823271e+02	-3.644436e-02
4.851130e+02	-3.686478e-02
4.879150e+02	-3.729003e-02
4.907332e+02	-3.772016e-02
4.935676e+02	-3.815523e-02
4.964185e+02	-3.859530e-02
4.992858e+02	-3.904042e-02
5.021696e+02	-3.949065e-02
5.050701e+02	-3.994605e-02
5.079874e+02	-4.040668e-02
5.109215e+02	-4.087259e-02
5.138726e+02	-4.134385e-02
5.168407e+02	-4.182051e-02
5.198259e+02	-4.230265e-02
5.228284e+02	-4.279031e-02
5.258482e+02	-4.328357e-02
5.288855e+02	-4.378249e-02
5.319403e+02	-4.428713e-02
5.350128e+02	-4.479755e-02
5.381030e+02	-4.531383e-02
5.412111e+02	-4.583602e-02
5.443371e+02	-4.636420e-02
5.474812e+02	-4.689844e-02
5.506434e+02	-4.743879e-02
5.538239e+02	-4.798534e-02
5.570228e+02	-4.853815e-02
5.602401e+02	-4.909729e-02
5.634760e+02	-4.966283e-02
5.667306e+02	-5.023485e-02
5.700040e+02	-5.081343e-02
5.732964e+02	-5.139862e-02
5.766077e+02	-5.199051e-02
5.799382e+02	-5.258918e-02
5.832879e+02	-5.319470e-02
5.866569e+02	-5.380715e-02
5.900454e+02	-5.442661e-02
5.934535e+02	-5.505315e-02
5.968813e+02	-5.568686e-02
6.003288e+02	-5.632781e-02
6.037963e+02	-5.697610e-02
6.072838e+02	-5.763179e-02
6.107914e+02	-5.829498e-02
6.143194e+02	-5.896575e-02
6.178676e+02	-5.964418e-02
6.214364e+02	-6.033037e-02
6.250258e+02	-6.102440e-02
6.286359e+02	-6.172635e-02
6.322669e+02	-6.243631e-02
6.359189e+02	-6.315439e-02
6.395919e+02	-6.388066e-02
6.432862e+02	-6.461522e-02
6.470017e+02	-6.535816e-02
6.507388e+02	-6.610959e-02
6.544974e+02	-6.686958e-02
6.582778e+02	-6.763824e-02
6.620800e+02	-6.841567e-02
6.659041e+02	-6.920196e-02
6.697504e+02	-6.999722e-02
6.736188e+02	-7.080154e-02
6.775096e+02	-7.161502e-02
6.814229e+02	-7.243778e-02
6.853587e+02	-7.326990e-02
6.893173e+02	-7.411150e-02
6.932988e+02	-7.496269e-02
6.973033e+02	-7.582357e-02
7.013309e+02	-7.669424e-02
