Frequency(Hz)	Magnitude(dB)
1.000000e+01	-1.588025e-05
1.005776e+01	-1.606422e-05
1.011585e+01	-1.625033e-05
1.017428e+01	-1.643860e-05
1.023305e+01	-1.662904e-05
1.029215e+01	-1.682169e-05
1.035160e+01	-1.701658e-05
1.041139e+01	-1.721372e-05
1.047153e+01	-1.741314e-05
1.053201e+01	-1.761488e-05
1.059284e+01	-1.781895e-05
1.065403e+01	-1.802539e-05
1.071556e+01	-1.823422e-05
1.077746e+01	-1.844547e-05
1.083971e+01	-1.865916e-05
1.090232e+01	-1.887533e-05
1.096529e+01	-1.909401e-05
1.102862e+01	-1.931522e-05
1.109232e+01	-1.953899e-05
1.115639e+01	-1.976535e-05
1.122083e+01	-1.999434e-05
1.128564e+01	-2.022598e-05
1.135083e+01	-2.046030e-05
1.141639e+01	-2.069734e-05
1.148233e+01	-2.093712e-05
1.154865e+01	-2.117969e-05
1.161536e+01	-2.142506e-05
1.168245e+01	-2.167327e-05
1.174992e+01	-2.192436e-05
1.181779e+01	-2.217836e-05
1.188605e+01	-2.243530e-05
1.195470e+01	-2.269522e-05
1.202375e+01	-2.295815e-05
1.209320e+01	-2.322413e-05
1.216305e+01	-2.349318e-05
1.223330e+01	-2.376536e-05
1.230396e+01	-2.404069e-05
1.237503e+01	-2.431920e-05
1.244651e+01	-2.460095e-05
1.251840e+01	-2.488596e-05
1.259070e+01	-2.517427e-05
1.266343e+01	-2.546592e-05
1.273657e+01	-2.576094e-05
1.281014e+01	-2.605939e-05
1.288413e+01	-2.636130e-05
1.295855e+01	-2.666670e-05
1.303339e+01	-2.697564e-05
1.310867e+01	-2.728816e-05
1.318439e+01	-2.760430e-05
1.326054e+01	-2.792410e-05
1.333713e+01	-2.824761e-05
1.341417e+01	-2.857486e-05
1.349165e+01	-2.890591e-05
1.356958e+01	-2.924079e-05
1.364795e+01	-2.957955e-05
1.372678e+01	-2.992224e-05
1.380607e+01	-3.026890e-05
1.388581e+01	-3.061957e-05
1.396602e+01	-3.097430e-05
1.404668e+01	-3.133315e-05
1.412782e+01	-3.169615e-05
1.420942e+01	-3.206336e-05
1.429149e+01	-3.243482e-05
1.437404e+01	-3.281058e-05
1.445706e+01	-3.319070e-05
1.454057e+01	-3.357522e-05
1.462455e+01	-3.396420e-05
1.470902e+01	-3.435768e-05
1.479398e+01	-3.475573e-05
1.487943e+01	-3.515838e-05
1.496537e+01	-3.556570e-05
1.505181e+01	-3.597773e-05
1.513875e+01	-3.639454e-05
1.522619e+01	-3.681618e-05
1.531414e+01	-3.724271e-05
1.540259e+01	-3.767417e-05
1.549156e+01	-3.811064e-05
1.558103e+01	-3.855216e-05
1.567103e+01	-3.899879e-05
1.576155e+01	-3.945060e-05
1.585258e+01	-3.990765e-05
1.594415e+01	-4.036999e-05
1.603624e+01	-4.083768e-05
1.612886e+01	-4.131080e-05
1.622202e+01	-4.178939e-05
1.631572e+01	-4.227353e-05
1.640996e+01	-4.276328e-05
1.650474e+01	-4.325870e-05
1.660008e+01	-4.375986e-05
1.669596e+01	-4.426683e-05
1.679239e+01	-4.477967e-05
1.688938e+01	-4.529845e-05
1.698694e+01	-4.582324e-05
1.708505e+01	-4.635412e-05
1.718373e+01	-4.689114e-05
1.728299e+01	-4.743438e-05
1.738281e+01	-4.798392e-05
1.748322e+01	-4.853983e-05
1.758420e+01	-4.910217e-05
1.768576e+01	-4.967103e-05
1.778792e+01	-5.024648e-05
1.789066e+01	-5.082859e-05
1.799399e+01	-5.141745e-05
1.809793e+01	-5.201314e-05
1.820246e+01	-5.261572e-05
1.830760e+01	-5.322528e-05
1.841334e+01	-5.384191e-05
1.851969e+01	-5.446568e-05
1.862666e+01	-5.509668e-05
1.873425e+01	-5.573498e-05
1.884246e+01	-5.638068e-05
1.895129e+01	-5.703386e-05
1.906075e+01	-5.769461e-05
1.917085e+01	-5.836302e-05
1.928158e+01	-5.903916e-05
1.939295e+01	-5.972314e-05
1.950496e+01	-6.041505e-05
1.961762e+01	-6.111497e-05
1.973093e+01	-6.182300e-05
1.984490e+01	-6.253923e-05
1.995952e+01	-6.326376e-05
2.007480e+01	-6.399668e-05
2.019076e+01	-6.473810e-05
2.030738e+01	-6.548810e-05
2.042467e+01	-6.624679e-05
2.054264e+01	-6.701427e-05
2.066130e+01	-6.779065e-05
2.078064e+01	-6.857601e-05
2.090066e+01	-6.937048e-05
2.102139e+01	-7.017415e-05
2.114280e+01	-7.098713e-05
2.126492e+01	-7.180953e-05
2.138775e+01	-7.264146e-05
2.151128e+01	-7.348302e-05
2.163553e+01	-7.433433e-05
2.176050e+01	-7.519551e-05
2.188619e+01	-7.606666e-05
2.201260e+01	-7.694791e-05
2.213974e+01	-7.783937e-05
2.226762e+01	-7.874115e-05
2.239624e+01	-7.965338e-05
2.252560e+01	-8.057618e-05
2.265571e+01	-8.150966e-05
2.278656e+01	-8.245397e-05
2.291818e+01	-8.340921e-05
2.305055e+01	-8.437552e-05
2.318369e+01	-8.535303e-05
2.331760e+01	-8.634185e-05
2.345228e+01	-8.734214e-05
2.358774e+01	-8.835401e-05
2.372398e+01	-8.937761e-05
2.386101e+01	-9.041306e-05
2.399883e+01	-9.146051e-05
2.413745e+01	-9.252009e-05
2.427686e+01	-9.359195e-05
2.441709e+01	-9.467623e-05
2.455812e+01	-9.577307e-05
2.469997e+01	-9.688261e-05
2.484263e+01	-9.800501e-05
2.498612e+01	-9.914042e-05
2.513044e+01	-1.002890e-04
2.527559e+01	-1.014508e-04
2.542158e+01	-1.026262e-04
2.556842e+01	-1.038151e-04
2.571610e+01	-1.050178e-04
2.586463e+01	-1.062345e-04
2.601403e+01	-1.074652e-04
2.616428e+01	-1.087102e-04
2.631541e+01	-1.099696e-04
2.646740e+01	-1.112436e-04
2.662028e+01	-1.125324e-04
2.677404e+01	-1.138361e-04
2.692868e+01	-1.151549e-04
2.708422e+01	-1.164890e-04
2.724066e+01	-1.178385e-04
2.739800e+01	-1.192037e-04
2.755625e+01	-1.205847e-04
2.771541e+01	-1.219817e-04
2.787550e+01	-1.233949e-04
2.803650e+01	-1.248244e-04
2.819844e+01	-1.262705e-04
2.836131e+01	-1.277334e-04
2.852513e+01	-1.292132e-04
2.868989e+01	-1.307101e-04
2.885560e+01	-1.322244e-04
2.902227e+01	-1.337562e-04
2.918990e+01	-1.353058e-04
2.935850e+01	-1.368733e-04
2.952807e+01	-1.384590e-04
2.969863e+01	-1.400631e-04
2.987016e+01	-1.416857e-04
3.004269e+01	-1.433272e-04
3.021622e+01	-1.449876e-04
3.039075e+01	-1.466673e-04
3.056628e+01	-1.483665e-04
3.074283e+01	-1.500853e-04
3.092040e+01	-1.518241e-04
3.109900e+01	-1.535830e-04
3.127862e+01	-1.553622e-04
3.145929e+01	-1.571621e-04
3.164099e+01	-1.589829e-04
3.182375e+01	-1.608247e-04
3.200756e+01	-1.626878e-04
3.219244e+01	-1.645726e-04
3.237838e+01	-1.664792e-04
3.256540e+01	-1.684078e-04
3.275349e+01	-1.703589e-04
3.294268e+01	-1.723325e-04
3.313295e+01	-1.743290e-04
3.332433e+01	-1.763486e-04
3.351681e+01	-1.783916e-04
3.371040e+01	-1.804582e-04
3.390511e+01	-1.825489e-04
3.410094e+01	-1.846637e-04
3.429791e+01	-1.868030e-04
3.449601e+01	-1.889671e-04
3.469526e+01	-1.911563e-04
3.489566e+01	-1.933709e-04
3.509721e+01	-1.956111e-04
3.529993e+01	-1.978772e-04
3.550382e+01	-2.001697e-04
3.570889e+01	-2.024886e-04
3.591515e+01	-2.048345e-04
3.612259e+01	-2.072075e-04
3.633123e+01	-2.096080e-04
3.654108e+01	-2.120363e-04
3.675214e+01	-2.144927e-04
3.696442e+01	-2.169776e-04
3.717792e+01	-2.194913e-04
3.739266e+01	-2.220341e-04
3.760864e+01	-2.246063e-04
3.782587e+01	-2.272084e-04
3.804435e+01	-2.298406e-04
3.826409e+01	-2.325033e-04
3.848510e+01	-2.351968e-04
3.870739e+01	-2.379216e-04
3.893096e+01	-2.406779e-04
3.915583e+01	-2.434661e-04
3.938199e+01	-2.462867e-04
3.960946e+01	-2.491399e-04
3.983824e+01	-2.520262e-04
4.006834e+01	-2.549459e-04
4.029978e+01	-2.578994e-04
4.053255e+01	-2.608872e-04
4.076666e+01	-2.639095e-04
4.100213e+01	-2.669669e-04
4.123896e+01	-2.700597e-04
4.147715e+01	-2.731883e-04
4.171672e+01	-2.763532e-04
4.195767e+01	-2.795547e-04
4.220002e+01	-2.827933e-04
4.244377e+01	-2.860694e-04
4.268892e+01	-2.893835e-04
4.293549e+01	-2.927360e-04
4.318348e+01	-2.961273e-04
4.343291e+01	-2.995579e-04
4.368377e+01	-3.030282e-04
4.393609e+01	-3.065388e-04
4.418986e+01	-3.100900e-04
4.444510e+01	-3.136823e-04
4.470182e+01	-3.173163e-04
4.496001e+01	-3.209924e-04
4.521970e+01	-3.247110e-04
4.548089e+01	-3.284727e-04
4.574358e+01	-3.322780e-04
4.600779e+01	-3.361274e-04
4.627353e+01	-3.400214e-04
4.654081e+01	-3.439605e-04
4.680963e+01	-3.479452e-04
4.708000e+01	-3.519761e-04
4.735193e+01	-3.560537e-04
4.762543e+01	-3.601785e-04
4.790051e+01	-3.643511e-04
4.817719e+01	-3.685720e-04
4.845545e+01	-3.728418e-04
4.873533e+01	-3.771611e-04
4.901682e+01	-3.815304e-04
4.929994e+01	-3.859504e-04
4.958470e+01	-3.904215e-04
4.987110e+01	-3.949444e-04
5.015915e+01	-3.995198e-04
5.044887e+01	-4.041481e-04
5.074026e+01	-4.088301e-04
5.103333e+01	-4.135662e-04
5.132810e+01	-4.183573e-04
5.162457e+01	-4.232038e-04
5.192275e+01	-4.281065e-04
5.222265e+01	-4.330660e-04
5.252429e+01	-4.380830e-04
5.282767e+01	-4.431580e-04
5.313280e+01	-4.482918e-04
5.343969e+01	-4.534852e-04
5.374836e+01	-4.587386e-04
5.405880e+01	-4.640530e-04
5.437105e+01	-4.694289e-04
5.468509e+01	-4.748670e-04
5.500095e+01	-4.803682e-04
5.531863e+01	-4.859331e-04
5.563815e+01	-4.915624e-04
5.595951e+01	-4.972570e-04
5.628273e+01	-5.030175e-04
5.660782e+01	-5.088448e-04
5.693479e+01	-5.147395e-04
5.726364e+01	-5.207026e-04
5.759439e+01	-5.267347e-04
5.792705e+01	-5.328367e-04
5.826164e+01	-5.390093e-04
5.859815e+01	-5.452535e-04
5.893662e+01	-5.515700e-04
5.927703e+01	-5.579597e-04
5.961941e+01	-5.644234e-04
5.996377e+01	-5.709620e-04
6.031012e+01	-5.775763e-04
6.065847e+01	-5.842672e-04
6.100883e+01	-5.910357e-04
6.136121e+01	-5.978825e-04
6.171563e+01	-6.048087e-04
6.207210e+01	-6.118150e-04
6.243063e+01	-6.189026e-04
6.279122e+01	-6.260722e-04
6.315390e+01	-6.333249e-04
6.351868e+01	-6.406616e-04
6.388556e+01	-6.480833e-04
6.425456e+01	-6.555910e-04
6.462569e+01	-6.631856e-04
6.499897e+01	-6.708682e-04
6.537440e+01	-6.786398e-04
6.575200e+01	-6.865014e-04
6.613178e+01	-6.944540e-04
6.651375e+01	-7.024988e-04
6.689793e+01	-7.106368e-04
6.728433e+01	-7.188690e-04
6.767297e+01	-7.271966e-04
6.806384e+01	-7.356207e-04
6.845698e+01	-7.441423e-04
6.885238e+01	-7.527627e-04
6.925007e+01	-7.614829e-04
6.965005e+01	-7.703041e-04
7.005235e+01	-7.792275e-04
7.045697e+01	-7.882542e-04
7.086393e+01	-7.973855e-04
7.127323e+01	-8.066226e-04
7.168490e+01	-8.159666e-04
7.209895e+01	-8.254189e-04
7.251539e+01	-8.349807e-04
7.293424e+01	-8.446533e-04
7.335551e+01	-8.544378e-04
7.377920e+01	-8.643358e-04
7.420535e+01	-8.743483e-04
7.463396e+01	-8.844769e-04
7.506504e+01	-8.947227e-04
7.549861e+01	-9.050872e-04
7.593469e+01	-9.155718e-04
7.637328e+01	-9.261778e-04
7.681441e+01	-9.369067e-04
7.725809e+01	-9.477598e-04
7.770433e+01	-9.587387e-04
7.815315e+01	-9.698447e-04
7.860456e+01	-9.810793e-04
7.905857e+01	-9.924441e-04
7.951521e+01	-1.003941e-03
7.997449e+01	-1.015570e-03
8.043642e+01	-1.027334e-03
8.090102e+01	-1.039235e-03
8.136830e+01	-1.051273e-03
8.183828e+01	-1.063451e-03
8.231097e+01	-1.075770e-03
8.278640e+01	-1.088231e-03
8.326457e+01	-1.100837e-03
8.374550e+01	-1.113589e-03
8.422921e+01	-1.126489e-03
8.471572e+01	-1.139538e-03
8.520503e+01	-1.152738e-03
8.569717e+01	-1.166091e-03
8.619215e+01	-1.179598e-03
8.669000e+01	-1.193262e-03
8.719071e+01	-1.207085e-03
8.769432e+01	-1.221067e-03
8.820084e+01	-1.235212e-03
8.871029e+01	-1.249520e-03
8.922267e+01	-1.263994e-03
8.973802e+01	-1.278635e-03
9.025634e+01	-1.293446e-03
9.077766e+01	-1.308429e-03
9.130199e+01	-1.323585e-03
9.182935e+01	-1.338917e-03
9.235975e+01	-1.354426e-03
9.289321e+01	-1.370115e-03
9.342976e+01	-1.385986e-03
9.396941e+01	-1.402040e-03
9.451217e+01	-1.418281e-03
9.505807e+01	-1.434709e-03
9.560712e+01	-1.451328e-03
9.615934e+01	-1.468139e-03
9.671476e+01	-1.485145e-03
9.727338e+01	-1.502348e-03
9.783522e+01	-1.519750e-03
9.840032e+01	-1.537353e-03
9.896867e+01	-1.555161e-03
9.954031e+01	-1.573174e-03
1.001153e+02	-1.591397e-03
1.006935e+02	-1.609830e-03
1.012751e+02	-1.628477e-03
1.018601e+02	-1.647340e-03
1.024484e+02	-1.666421e-03
1.030402e+02	-1.685723e-03
1.036353e+02	-1.705249e-03
1.042339e+02	-1.725001e-03
1.048360e+02	-1.744981e-03
1.054415e+02	-1.765193e-03
1.060505e+02	-1.785639e-03
1.066631e+02	-1.806322e-03
1.072791e+02	-1.827244e-03
1.078988e+02	-1.848409e-03
1.085220e+02	-1.869819e-03
1.091488e+02	-1.891476e-03
1.097793e+02	-1.913385e-03
1.104133e+02	-1.935547e-03
1.110511e+02	-1.957966e-03
1.116925e+02	-1.980644e-03
1.123376e+02	-2.003585e-03
1.129865e+02	-2.026792e-03
1.136391e+02	-2.050267e-03
1.142955e+02	-2.074014e-03
1.149556e+02	-2.098036e-03
1.156196e+02	-2.122337e-03
1.162874e+02	-2.146918e-03
1.169591e+02	-2.171785e-03
1.176347e+02	-2.196939e-03
1.183141e+02	-2.222385e-03
1.189975e+02	-2.248125e-03
1.196848e+02	-2.274163e-03
1.203761e+02	-2.300503e-03
1.210714e+02	-2.327148e-03
1.217707e+02	-2.354101e-03
1.224740e+02	-2.381367e-03
1.231814e+02	-2.408948e-03
1.238929e+02	-2.436848e-03
1.246085e+02	-2.465072e-03
1.253283e+02	-2.493622e-03
1.260522e+02	-2.522503e-03
1.267802e+02	-2.551718e-03
1.275125e+02	-2.581272e-03
1.282490e+02	-2.611167e-03
1.289898e+02	-2.641409e-03
1.297348e+02	-2.672001e-03
1.304842e+02	-2.702947e-03
1.312378e+02	-2.734252e-03
1.319959e+02	-2.765919e-03
1.327583e+02	-2.797952e-03
1.335251e+02	-2.830357e-03
1.342963e+02	-2.863136e-03
1.350720e+02	-2.896296e-03
1.358522e+02	-2.929839e-03
1.366368e+02	-2.963770e-03
1.374260e+02	-2.998094e-03
1.382198e+02	-3.032816e-03
1.390182e+02	-3.067939e-03
1.398211e+02	-3.103469e-03
1.406287e+02	-3.139411e-03
1.414410e+02	-3.175768e-03
1.422579e+02	-3.212547e-03
1.430796e+02	-3.249751e-03
1.439060e+02	-3.287386e-03
1.447372e+02	-3.325457e-03
1.455732e+02	-3.363968e-03
1.464141e+02	-3.402925e-03
1.472597e+02	-3.442333e-03
1.481103e+02	-3.482198e-03
1.489658e+02	-3.522524e-03
1.498262e+02	-3.563316e-03
1.506916e+02	-3.604581e-03
1.515620e+02	-3.646323e-03
1.524374e+02	-3.688549e-03
1.533179e+02	-3.731263e-03
1.542034e+02	-3.774472e-03
1.550941e+02	-3.818181e-03
1.559899e+02	-3.862396e-03
1.568909e+02	-3.907123e-03
1.577971e+02	-3.952367e-03
1.587085e+02	-3.998135e-03
1.596252e+02	-4.044433e-03
1.605472e+02	-4.091267e-03
1.614745e+02	-4.138643e-03
1.624072e+02	-4.186567e-03
1.633453e+02	-4.235045e-03
1.642887e+02	-4.284085e-03
1.652377e+02	-4.333693e-03
1.661921e+02	-4.383874e-03
1.671520e+02	-4.434637e-03
1.681175e+02	-4.485986e-03
1.690885e+02	-4.537930e-03
1.700651e+02	-4.590476e-03
1.710474e+02	-4.643629e-03
1.720354e+02	-4.697398e-03
1.730291e+02	-4.751788e-03
1.740285e+02	-4.806808e-03
1.750337e+02	-4.862465e-03
1.760446e+02	-4.918766e-03
1.770615e+02	-4.975719e-03
1.780842e+02	-5.033330e-03
1.791128e+02	-5.091608e-03
1.801473e+02	-5.150561e-03
1.811878e+02	-5.210196e-03
1.822344e+02	-5.270520e-03
1.832870e+02	-5.331543e-03
1.843456e+02	-5.393272e-03
1.854104e+02	-5.455715e-03
1.864813e+02	-5.518881e-03
1.875584e+02	-5.582777e-03
1.886418e+02	-5.647413e-03
1.897313e+02	-5.712796e-03
1.908272e+02	-5.778936e-03
1.919294e+02	-5.845842e-03
1.930380e+02	-5.913521e-03
1.941530e+02	-5.981983e-03
1.952744e+02	-6.051238e-03
1.964023e+02	-6.121293e-03
1.975367e+02	-6.192160e-03
1.986777e+02	-6.263845e-03
1.998252e+02	-6.336361e-03
2.009794e+02	-6.409715e-03
2.021403e+02	-6.483917e-03
2.033078e+02	-6.558978e-03
2.044821e+02	-6.634907e-03
2.056632e+02	-6.711715e-03
2.068511e+02	-6.789411e-03
2.080459e+02	-6.868006e-03
2.092475e+02	-6.947509e-03
2.104561e+02	-7.027933e-03
2.116717e+02	-7.109286e-03
2.128943e+02	-7.191581e-03
2.141240e+02	-7.274827e-03
2.153608e+02	-7.359036e-03
2.166047e+02	-7.444219e-03
2.178558e+02	-7.530387e-03
2.191141e+02	-7.617552e-03
2.203797e+02	-7.705725e-03
2.216526e+02	-7.794917e-03
2.229329e+02	-7.885141e-03
2.242205e+02	-7.976408e-03
2.255156e+02	-8.068731e-03
2.268182e+02	-8.162121e-03
2.281283e+02	-8.256591e-03
2.294459e+02	-8.352154e-03
2.307712e+02	-8.448821e-03
2.321041e+02	-8.546606e-03
2.334447e+02	-8.645522e-03
2.347931e+02	-8.745581e-03
2.361493e+02	-8.846798e-03
2.375133e+02	-8.949184e-03
2.388851e+02	-9.052754e-03
2.402649e+02	-9.157522e-03
2.416527e+02	-9.263500e-03
2.430484e+02	-9.370704e-03
2.444523e+02	-9.479147e-03
2.458642e+02	-9.588844e-03
2.472843e+02	-9.699809e-03
2.487126e+02	-9.812056e-03
2.501492e+02	-9.925601e-03
2.515940e+02	-1.004046e-02
2.530472e+02	-1.015664e-02
2.545088e+02	-1.027417e-02
2.559789e+02	-1.039306e-02
2.574574e+02	-1.051332e-02
2.589444e+02	-1.063497e-02
2.604401e+02	-1.075802e-02
2.619444e+02	-1.088250e-02
2.634574e+02	-1.100842e-02
2.649791e+02	-1.113579e-02
2.665096e+02	-1.126463e-02
2.680489e+02	-1.139496e-02
2.695972e+02	-1.152680e-02
2.711544e+02	-1.166016e-02
2.727205e+02	-1.179506e-02
2.742958e+02	-1.193152e-02
2.758801e+02	-1.206956e-02
2.774736e+02	-1.220919e-02
2.790762e+02	-1.235044e-02
2.806882e+02	-1.249331e-02
2.823094e+02	-1.263784e-02
2.839400e+02	-1.278404e-02
2.855800e+02	-1.293192e-02
2.872295e+02	-1.308151e-02
2.888886e+02	-1.323283e-02
2.905572e+02	-1.338590e-02
2.922354e+02	-1.354074e-02
2.939234e+02	-1.369736e-02
2.956211e+02	-1.385580e-02
2.973286e+02	-1.401606e-02
2.990459e+02	-1.417817e-02
3.007732e+02	-1.434216e-02
3.025104e+02	-1.450804e-02
3.042577e+02	-1.467583e-02
3.060151e+02	-1.484557e-02
3.077826e+02	-1.501726e-02
3.095604e+02	-1.519093e-02
3.113484e+02	-1.536661e-02
3.131467e+02	-1.554431e-02
3.149554e+02	-1.572407e-02
3.167746e+02	-1.590590e-02
3.186043e+02	-1.608984e-02
3.204445e+02	-1.627589e-02
3.222954e+02	-1.646409e-02
3.241570e+02	-1.665447e-02
3.260293e+02	-1.684704e-02
3.279124e+02	-1.704183e-02
3.298064e+02	-1.723887e-02
3.317114e+02	-1.743818e-02
3.336273e+02	-1.763980e-02
3.355544e+02	-1.784374e-02
3.374925e+02	-1.805003e-02
3.394418e+02	-1.825870e-02
3.414024e+02	-1.846978e-02
3.433744e+02	-1.868330e-02
3.453577e+02	-1.889928e-02
3.473525e+02	-1.911775e-02
3.493588e+02	-1.933874e-02
3.513766e+02	-1.956227e-02
3.534062e+02	-1.978839e-02
3.554474e+02	-2.001711e-02
3.575005e+02	-2.024847e-02
3.595654e+02	-2.048250e-02
3.616422e+02	-2.071923e-02
3.637311e+02	-2.095868e-02
3.658320e+02	-2.120090e-02
3.679450e+02	-2.144591e-02
3.700702e+02	-2.169374e-02
3.722077e+02	-2.194443e-02
3.743576e+02	-2.219801e-02
3.765199e+02	-2.245452e-02
3.786946e+02	-2.271398e-02
3.808820e+02	-2.297642e-02
3.830819e+02	-2.324190e-02
3.852946e+02	-2.351043e-02
3.875200e+02	-2.378206e-02
3.897583e+02	-2.405681e-02
3.920096e+02	-2.433473e-02
3.942738e+02	-2.461585e-02
3.965511e+02	-2.490021e-02
3.988416e+02	-2.518785e-02
4.011452e+02	-2.547880e-02
4.034622e+02	-2.577310e-02
4.057926e+02	-2.607079e-02
4.081365e+02	-2.637190e-02
4.104938e+02	-2.667649e-02
4.128648e+02	-2.698458e-02
4.152495e+02	-2.729622e-02
4.176480e+02	-2.761144e-02
4.200603e+02	-2.793029e-02
4.224866e+02	-2.825282e-02
4.249268e+02	-2.857905e-02
4.273812e+02	-2.890904e-02
4.298497e+02	-2.924283e-02
4.323325e+02	-2.958046e-02
4.348297e+02	-2.992197e-02
4.373412e+02	-3.026741e-02
4.398673e+02	-3.061683e-02
4.424079e+02	-3.097026e-02
4.449633e+02	-3.132776e-02
4.475334e+02	-3.168938e-02
4.501183e+02	-3.205515e-02
4.527182e+02	-3.242512e-02
4.553330e+02	-3.279935e-02
4.579630e+02	-3.317789e-02
4.606082e+02	-3.356077e-02
4.632687e+02	-3.394806e-02
4.659445e+02	-3.433979e-02
4.686358e+02	-3.473603e-02
4.713426e+02	-3.513683e-02
4.740650e+02	-3.554223e-02
4.768032e+02	-3.595228e-02
4.795572e+02	-3.636705e-02
4.823271e+02	-3.678658e-02
4.851130e+02	-3.721093e-02
4.879150e+02	-3.764016e-02
4.907332e+02	-3.807431e-02
4.935676e+02	-3.851345e-02
4.964185e+02	-3.895763e-02
4.992858e+02	-3.940691e-02
5.021696e+02	-3.986135e-02
5.050701e+02	-4.032101e-02
5.079874e+02	-4.078594e-02
5.109215e+02	-4.125620e-02
5.138726e+02	-4.173186e-02
5.168407e+02	-4.221298e-02
5.198259e+02	-4.269962e-02
5.228284e+02	-4.319184e-02
5.258482e+02	-4.368971e-02
5.288855e+02	-4.419328e-02
5.319403e+02	-4.470263e-02
5.350128e+02	-4.521782e-02
5.381030e+02	-4.573892e-02
5.412111e+02	-4.626598e-02
5.443371e+02	-4.679909e-02
5.474812e+02	-4.733831e-02
5.506434e+02	-4.788371e-02
5.538239e+02	-4.843535e-02
5.570228e+02	-4.899332e-02
5.602401e+02	-4.955767e-02
5.634760e+02	-5.012849e-02
5.667306e+02	-5.070585e-02
5.700040e+02	-5.128981e-02
5.732964e+02	-5.188046e-02
5.766077e+02	-5.247787e-02
5.799382e+02	-5.308212e-02
5.832879e+02	-5.369328e-02
5.866569e+02	-5.431144e-02
5.900454e+02	-5.493666e-02
5.934535e+02	-5.556904e-02
5.968813e+02	-5.620865e-02
6.003288e+02	-5.685557e-02
6.037963e+02	-5.750989e-02
6.072838e+02	-5.817169e-02
6.107914e+02	-5.884105e-02
6.143194e+02	-5.951806e-02
6.178676e+02	-6.020281e-02
6.214364e+02	-6.089538e-02
6.250258e+02	-6.159586e-02
6.286359e+02	-6.230434e-02
6.322669e+02	-6.302091e-02
6.359189e+02	-6.374566e-02
6.395919e+02	-6.447868e-02
6.432862e+02	-6.522007e-02
6.470017e+02	-6.596991e-02
6.507388e+02	-6.672832e-02
6.544974e+02	-6.749537e-02
6.582778e+02	-6.827117e-02
6.620800e+02	-6.905582e-02
6.659041e+02	-6.984941e-02
6.697504e+02	-7.065205e-02
6.736188e+02	-7.146383e-02
6.775096e+02	-7.228487e-02
6.814229e+02	-7.311525e-02
6.853587e+02	-7.395510e-02
6.893173e+02	-7.480451e-02
6.932988e+02	-7.566359e-02
6.973033e+02	-7.653244e-02
7.013309e+02	-7.741119e-02
