Frequency(Hz)	Magnitude(dB)
1.000000e+01	-2.211297e+00
1.005776e+01	-2.231343e+00
1.011585e+01	-2.251542e+00
1.017428e+01	-2.271831e+00
1.023305e+01	-2.292481e+00
1.029215e+01	-2.312695e+00
1.035160e+01	-2.333806e+00
1.041139e+01	-2.354491e+00
1.047153e+01	-2.375500e+00
1.053201e+01	-2.396798e+00
1.059284e+01	-2.417970e+00
1.065403e+01	-2.439352e+00
1.071556e+01	-2.460896e+00
1.077746e+01	-2.482645e+00
1.083971e+01	-2.504399e+00
1.090232e+01	-2.526492e+00
1.096529e+01	-2.548618e+00
1.102862e+01	-2.571081e+00
1.109232e+01	-2.593183e+00
1.115639e+01	-2.615925e+00
1.122083e+01	-2.638328e+00
1.128564e+01	-2.661611e+00
1.135083e+01	-2.684355e+00
1.141639e+01	-2.707544e+00
1.148233e+01	-2.730574e+00
1.154865e+01	-2.754347e+00
1.161536e+01	-2.777652e+00
1.168245e+01	-2.801529e+00
1.174992e+01	-2.825411e+00
1.181779e+01	-2.849500e+00
1.188605e+01	-2.873420e+00
1.195470e+01	-2.897748e+00
1.202375e+01	-2.922042e+00
1.209320e+01	-2.946805e+00
1.216305e+01	-2.971540e+00
1.223330e+01	-2.996322e+00
1.230396e+01	-3.021390e+00
1.237503e+01	-3.046510e+00
1.244651e+01	-3.071963e+00
1.251840e+01	-3.097174e+00
1.259070e+01	-3.122691e+00
1.266343e+01	-3.148488e+00
1.273657e+01	-3.174542e+00
1.281014e+01	-3.200596e+00
1.288413e+01	-3.226468e+00
1.295855e+01	-3.252795e+00
1.303339e+01	-3.279127e+00
1.310867e+01	-3.306033e+00
1.318439e+01	-3.332543e+00
1.326054e+01	-3.359663e+00
1.333713e+01	-3.386629e+00
1.341417e+01	-3.413792e+00
1.349165e+01	-3.441186e+00
1.356958e+01	-3.468452e+00
1.364795e+01	-3.496062e+00
1.372678e+01	-3.523631e+00
1.380607e+01	-3.551654e+00
1.388581e+01	-3.579525e+00
1.396602e+01	-3.607891e+00
1.404668e+01	-3.636260e+00
1.412782e+01	-3.664608e+00
1.420942e+01	-3.693292e+00
1.429149e+01	-3.721634e+00
1.437404e+01	-3.750790e+00
1.445706e+01	-3.779689e+00
1.454057e+01	-3.808810e+00
1.462455e+01	-3.838298e+00
1.470902e+01	-3.867321e+00
1.479398e+01	-3.897015e+00
1.487943e+01	-3.926863e+00
1.496537e+01	-3.956812e+00
1.505181e+01	-3.986553e+00
1.513875e+01	-4.016655e+00
1.522619e+01	-4.046994e+00
1.531414e+01	-4.077430e+00
1.540259e+01	-4.107853e+00
1.549156e+01	-4.138582e+00
1.558103e+01	-4.169601e+00
1.567103e+01	-4.200308e+00
1.576155e+01	-4.231510e+00
1.585258e+01	-4.262604e+00
1.594415e+01	-4.293784e+00
1.603624e+01	-4.325489e+00
1.612886e+01	-4.357102e+00
1.622202e+01	-4.388566e+00
1.631572e+01	-4.420642e+00
1.640996e+01	-4.453040e+00
1.650474e+01	-4.484968e+00
1.660008e+01	-4.517322e+00
1.669596e+01	-4.549275e+00
1.679239e+01	-4.582314e+00
1.688938e+01	-4.614682e+00
1.698694e+01	-4.647350e+00
1.708505e+01	-4.680567e+00
1.718373e+01	-4.713809e+00
1.728299e+01	-4.746677e+00
1.738281e+01	-4.780060e+00
1.748322e+01	-4.813245e+00
1.758420e+01	-4.847133e+00
1.768576e+01	-4.880846e+00
1.778792e+01	-4.914333e+00
1.789066e+01	-4.948312e+00
1.799399e+01	-4.982759e+00
1.809793e+01	-5.017055e+00
1.820246e+01	-5.050972e+00
1.830760e+01	-5.085766e+00
1.841334e+01	-5.120395e+00
1.851969e+01	-5.154723e+00
1.862666e+01	-5.189845e+00
1.873425e+01	-5.224650e+00
1.884246e+01	-5.259629e+00
1.895129e+01	-5.295127e+00
1.906075e+01	-5.330211e+00
1.917085e+01	-5.365462e+00
1.928158e+01	-5.401320e+00
1.939295e+01	-5.436733e+00
1.950496e+01	-5.472724e+00
1.961762e+01	-5.508575e+00
1.973093e+01	-5.544666e+00
1.984490e+01	-5.580770e+00
1.995952e+01	-5.617097e+00
2.007480e+01	-5.653503e+00
2.019076e+01	-5.689849e+00
2.030738e+01	-5.726462e+00
2.042467e+01	-5.762845e+00
2.054264e+01	-5.799751e+00
2.066130e+01	-5.837006e+00
2.078064e+01	-5.873751e+00
2.090066e+01	-5.911123e+00
2.102139e+01	-5.948368e+00
2.114280e+01	-5.985882e+00
2.126492e+01	-6.023096e+00
2.138775e+01	-6.060498e+00
2.151128e+01	-6.098435e+00
2.163553e+01	-6.136160e+00
2.176050e+01	-6.174256e+00
2.188619e+01	-6.212295e+00
2.201260e+01	-6.250095e+00
2.213974e+01	-6.288188e+00
2.226762e+01	-6.326670e+00
2.239624e+01	-6.365218e+00
2.252560e+01	-6.403463e+00
2.265571e+01	-6.441980e+00
2.278656e+01	-6.480865e+00
2.291818e+01	-6.520073e+00
2.305055e+01	-6.558671e+00
2.318369e+01	-6.597983e+00
2.331760e+01	-6.636676e+00
2.345228e+01	-6.676264e+00
2.358774e+01	-6.715474e+00
2.372398e+01	-6.755034e+00
2.386101e+01	-6.794303e+00
2.399883e+01	-6.833925e+00
2.413745e+01	-6.873863e+00
2.427686e+01	-6.913506e+00
2.441709e+01	-6.953310e+00
2.455812e+01	-6.993472e+00
2.469997e+01	-7.033239e+00
2.484263e+01	-7.073813e+00
2.498612e+01	-7.114169e+00
2.513044e+01	-7.154634e+00
2.527559e+01	-7.194851e+00
2.542158e+01	-7.235265e+00
2.556842e+01	-7.275574e+00
2.571610e+01	-7.316619e+00
2.586463e+01	-7.357569e+00
2.601403e+01	-7.397947e+00
2.616428e+01	-7.439130e+00
2.631541e+01	-7.480352e+00
2.646740e+01	-7.521358e+00
2.662028e+01	-7.562566e+00
2.677404e+01	-7.603929e+00
2.692868e+01	-7.645178e+00
2.708422e+01	-7.686844e+00
2.724066e+01	-7.728327e+00
2.739800e+01	-7.769771e+00
2.755625e+01	-7.811387e+00
2.771541e+01	-7.853415e+00
2.787550e+01	-7.895581e+00
2.803650e+01	-7.937705e+00
2.819844e+01	-7.979084e+00
2.836131e+01	-8.021439e+00
2.852513e+01	-8.063129e+00
2.868989e+01	-8.105679e+00
2.885560e+01	-8.147645e+00
2.902227e+01	-8.190156e+00
2.918990e+01	-8.232658e+00
2.935850e+01	-8.275695e+00
2.952807e+01	-8.317654e+00
2.969863e+01	-8.360718e+00
2.987016e+01	-8.403481e+00
3.004269e+01	-8.446447e+00
3.021622e+01	-8.488826e+00
3.039075e+01	-8.532438e+00
3.056628e+01	-8.574741e+00
3.074283e+01	-8.618271e+00
3.092040e+01	-8.661474e+00
3.109900e+01	-8.704722e+00
3.127862e+01	-8.748266e+00
3.145929e+01	-8.791498e+00
3.164099e+01	-8.835208e+00
3.182375e+01	-8.878628e+00
3.200756e+01	-8.922102e+00
3.219244e+01	-8.965725e+00
3.237838e+01	-9.009389e+00
3.256540e+01	-9.053053e+00
3.275349e+01	-9.096635e+00
3.294268e+01	-9.140707e+00
3.313295e+01	-9.184629e+00
3.332433e+01	-9.228691e+00
3.351681e+01	-9.272868e+00
3.371040e+01	-9.317312e+00
3.390511e+01	-9.361800e+00
3.410094e+01	-9.405659e+00
3.429791e+01	-9.449863e+00
3.449601e+01	-9.493690e+00
3.469526e+01	-9.538515e+00
3.489566e+01	-9.582536e+00
3.509721e+01	-9.627540e+00
3.529993e+01	-9.672611e+00
3.550382e+01	-9.717076e+00
3.570889e+01	-9.761323e+00
3.591515e+01	-9.806531e+00
3.612259e+01	-9.851363e+00
3.633123e+01	-9.896422e+00
3.654108e+01	-9.940981e+00
3.675214e+01	-9.985897e+00
3.696442e+01	-1.003155e+01
3.717792e+01	-1.007634e+01
3.739266e+01	-1.012127e+01
3.760864e+01	-1.016687e+01
3.782587e+01	-1.021131e+01
3.804435e+01	-1.025711e+01
3.826409e+01	-1.030196e+01
3.848510e+01	-1.034769e+01
3.870739e+01	-1.039282e+01
3.893096e+01	-1.043851e+01
3.915583e+01	-1.048431e+01
3.938199e+01	-1.052985e+01
3.960946e+01	-1.057531e+01
3.983824e+01	-1.062056e+01
4.006834e+01	-1.066719e+01
4.029978e+01	-1.071274e+01
4.053255e+01	-1.075834e+01
4.076666e+01	-1.080376e+01
4.100213e+01	-1.084981e+01
4.123896e+01	-1.089557e+01
4.147715e+01	-1.094207e+01
4.171672e+01	-1.098812e+01
4.195767e+01	-1.103400e+01
4.220002e+01	-1.108038e+01
4.244377e+01	-1.112617e+01
4.268892e+01	-1.117216e+01
4.293549e+01	-1.121892e+01
4.318348e+01	-1.126524e+01
4.343291e+01	-1.131121e+01
4.368377e+01	-1.135796e+01
4.393609e+01	-1.140379e+01
4.418986e+01	-1.145043e+01
4.444510e+01	-1.149686e+01
4.470182e+01	-1.154333e+01
4.496001e+01	-1.158984e+01
4.521970e+01	-1.163615e+01
4.548089e+01	-1.168338e+01
4.574358e+01	-1.173043e+01
4.600779e+01	-1.177598e+01
4.627353e+01	-1.182321e+01
4.654081e+01	-1.186977e+01
4.680963e+01	-1.191686e+01
4.708000e+01	-1.196325e+01
4.735193e+01	-1.201003e+01
4.762543e+01	-1.205817e+01
4.790051e+01	-1.210490e+01
4.817719e+01	-1.215106e+01
4.845545e+01	-1.219831e+01
4.873533e+01	-1.224566e+01
4.901682e+01	-1.229222e+01
4.929994e+01	-1.233931e+01
4.958470e+01	-1.238607e+01
4.987110e+01	-1.243362e+01
5.015915e+01	-1.248133e+01
5.044887e+01	-1.252800e+01
5.074026e+01	-1.257476e+01
5.103333e+01	-1.262288e+01
5.132810e+01	-1.266957e+01
5.162457e+01	-1.271724e+01
5.192275e+01	-1.276478e+01
5.222265e+01	-1.281255e+01
5.252429e+01	-1.285940e+01
5.282767e+01	-1.290740e+01
5.313280e+01	-1.295526e+01
5.343969e+01	-1.300099e+01
5.374836e+01	-1.304910e+01
5.405880e+01	-1.309666e+01
5.437105e+01	-1.314457e+01
5.468509e+01	-1.319220e+01
5.500095e+01	-1.323954e+01
5.531863e+01	-1.328661e+01
5.563815e+01	-1.333577e+01
5.595951e+01	-1.338318e+01
5.628273e+01	-1.343156e+01
5.660782e+01	-1.347840e+01
5.693479e+01	-1.352550e+01
5.726364e+01	-1.357399e+01
5.759439e+01	-1.362266e+01
5.792705e+01	-1.366973e+01
5.826164e+01	-1.371879e+01
5.859815e+01	-1.376533e+01
5.893662e+01	-1.381375e+01
5.927703e+01	-1.386093e+01
5.961941e+01	-1.390923e+01
5.996377e+01	-1.395757e+01
6.031012e+01	-1.400507e+01
6.065847e+01	-1.405349e+01
6.100883e+01	-1.410180e+01
6.136121e+01	-1.414918e+01
6.171563e+01	-1.419765e+01
6.207210e+01	-1.424608e+01
6.243063e+01	-1.429433e+01
6.279122e+01	-1.434235e+01
6.315390e+01	-1.439087e+01
6.351868e+01	-1.443868e+01
6.388556e+01	-1.448664e+01
6.425456e+01	-1.453524e+01
6.462569e+01	-1.458277e+01
6.499897e+01	-1.463162e+01
6.537440e+01	-1.467963e+01
6.575200e+01	-1.472930e+01
6.613178e+01	-1.477594e+01
6.651375e+01	-1.482580e+01
6.689793e+01	-1.487314e+01
6.728433e+01	-1.492138e+01
6.767297e+01	-1.497066e+01
6.806384e+01	-1.501926e+01
6.845698e+01	-1.506778e+01
6.885238e+01	-1.511517e+01
6.925007e+01	-1.516333e+01
6.965005e+01	-1.521240e+01
7.005235e+01	-1.526231e+01
7.045697e+01	-1.530967e+01
7.086393e+01	-1.535781e+01
7.127323e+01	-1.540669e+01
7.168490e+01	-1.545576e+01
7.209895e+01	-1.550556e+01
7.251539e+01	-1.555252e+01
7.293424e+01	-1.560198e+01
7.335551e+01	-1.565028e+01
7.377920e+01	-1.569910e+01
7.420535e+01	-1.574770e+01
7.463396e+01	-1.579564e+01
7.506504e+01	-1.584460e+01
7.549861e+01	-1.589413e+01
7.593469e+01	-1.594250e+01
7.637328e+01	-1.599091e+01
7.681441e+01	-1.603926e+01
7.725809e+01	-1.608913e+01
7.770433e+01	-1.613772e+01
7.815315e+01	-1.618634e+01
7.860456e+01	-1.623472e+01
7.905857e+01	-1.628489e+01
7.951521e+01	-1.633246e+01
7.997449e+01	-1.638108e+01
8.043642e+01	-1.643139e+01
8.090102e+01	-1.647938e+01
8.136830e+01	-1.652938e+01
8.183828e+01	-1.657744e+01
8.231097e+01	-1.662722e+01
8.278640e+01	-1.667542e+01
8.326457e+01	-1.672471e+01
8.374550e+01	-1.677272e+01
8.422921e+01	-1.682328e+01
8.471572e+01	-1.687059e+01
8.520503e+01	-1.691991e+01
8.569717e+01	-1.696873e+01
8.619215e+01	-1.701819e+01
8.669000e+01	-1.706805e+01
8.719071e+01	-1.711633e+01
8.769432e+01	-1.716538e+01
8.820084e+01	-1.721445e+01
8.871029e+01	-1.726321e+01
8.922267e+01	-1.731191e+01
8.973802e+01	-1.736125e+01
9.025634e+01	-1.741088e+01
9.077766e+01	-1.745964e+01
9.130199e+01	-1.750885e+01
9.182935e+01	-1.755824e+01
9.235975e+01	-1.760751e+01
9.289321e+01	-1.765527e+01
9.342976e+01	-1.770621e+01
9.396941e+01	-1.775557e+01
9.451217e+01	-1.780484e+01
9.505807e+01	-1.785304e+01
9.560712e+01	-1.790213e+01
9.615934e+01	-1.795193e+01
9.671476e+01	-1.800159e+01
9.727338e+01	-1.804964e+01
9.783522e+01	-1.809947e+01
9.840032e+01	-1.814832e+01
9.896867e+01	-1.819782e+01
9.954031e+01	-1.824665e+01
1.001153e+02	-1.829669e+01
1.006935e+02	-1.834611e+01
1.012751e+02	-1.839570e+01
1.018601e+02	-1.844500e+01
1.024484e+02	-1.849286e+01
1.030402e+02	-1.854323e+01
1.036353e+02	-1.859175e+01
1.042339e+02	-1.864119e+01
1.048360e+02	-1.869062e+01
1.054415e+02	-1.874212e+01
1.060505e+02	-1.878966e+01
1.066631e+02	-1.883947e+01
1.072791e+02	-1.888868e+01
1.078988e+02	-1.893752e+01
1.085220e+02	-1.898734e+01
1.091488e+02	-1.903707e+01
1.097793e+02	-1.908627e+01
1.104133e+02	-1.913579e+01
1.110511e+02	-1.918407e+01
1.116925e+02	-1.923530e+01
1.123376e+02	-1.928469e+01
1.129865e+02	-1.933373e+01
1.136391e+02	-1.938405e+01
1.142955e+02	-1.943313e+01
1.149556e+02	-1.948268e+01
1.156196e+02	-1.953074e+01
1.162874e+02	-1.958059e+01
1.169591e+02	-1.963166e+01
1.176347e+02	-1.967718e+01
1.183141e+02	-1.972899e+01
1.189975e+02	-1.977977e+01
1.196848e+02	-1.982897e+01
1.203761e+02	-1.987643e+01
1.210714e+02	-1.992700e+01
1.217707e+02	-1.997623e+01
1.224740e+02	-2.002697e+01
1.231814e+02	-2.007676e+01
1.238929e+02	-2.012493e+01
1.246085e+02	-2.017495e+01
1.253283e+02	-2.022493e+01
1.260522e+02	-2.027584e+01
1.267802e+02	-2.032528e+01
1.275125e+02	-2.037261e+01
1.282490e+02	-2.042268e+01
1.289898e+02	-2.047341e+01
1.297348e+02	-2.052263e+01
1.304842e+02	-2.057130e+01
1.312378e+02	-2.062010e+01
1.319959e+02	-2.066980e+01
1.327583e+02	-2.072128e+01
1.335251e+02	-2.077089e+01
1.342963e+02	-2.081936e+01
1.350720e+02	-2.087010e+01
1.358522e+02	-2.091830e+01
1.366368e+02	-2.096909e+01
1.374260e+02	-2.101921e+01
1.382198e+02	-2.106794e+01
1.390182e+02	-2.111842e+01
1.398211e+02	-2.116786e+01
1.406287e+02	-2.121684e+01
1.414410e+02	-2.126739e+01
1.422579e+02	-2.131658e+01
1.430796e+02	-2.136553e+01
1.439060e+02	-2.141576e+01
1.447372e+02	-2.146487e+01
1.455732e+02	-2.151536e+01
1.464141e+02	-2.156634e+01
1.472597e+02	-2.161422e+01
1.481103e+02	-2.166402e+01
1.489658e+02	-2.171447e+01
1.498262e+02	-2.176340e+01
1.506916e+02	-2.181241e+01
1.515620e+02	-2.186333e+01
1.524374e+02	-2.191226e+01
1.533179e+02	-2.196125e+01
1.542034e+02	-2.201417e+01
1.550941e+02	-2.206191e+01
1.559899e+02	-2.211256e+01
1.568909e+02	-2.215977e+01
1.577971e+02	-2.221144e+01
1.587085e+02	-2.226050e+01
1.596252e+02	-2.231092e+01
1.605472e+02	-2.236138e+01
1.614745e+02	-2.240973e+01
1.624072e+02	-2.245972e+01
1.633453e+02	-2.251210e+01
1.642887e+02	-2.255731e+01
1.652377e+02	-2.260938e+01
1.661921e+02	-2.265773e+01
1.671520e+02	-2.271002e+01
1.681175e+02	-2.276036e+01
1.690885e+02	-2.281028e+01
1.700651e+02	-2.285866e+01
1.710474e+02	-2.290627e+01
1.720354e+02	-2.295623e+01
1.730291e+02	-2.300690e+01
1.740285e+02	-2.305834e+01
1.750337e+02	-2.310555e+01
1.760446e+02	-2.315475e+01
1.770615e+02	-2.320844e+01
1.780842e+02	-2.325666e+01
1.791128e+02	-2.330558e+01
1.801473e+02	-2.335551e+01
1.811878e+02	-2.340550e+01
1.822344e+02	-2.345346e+01
1.832870e+02	-2.350603e+01
1.843456e+02	-2.355337e+01
1.854104e+02	-2.360350e+01
1.864813e+02	-2.365636e+01
1.875584e+02	-2.370554e+01
1.886418e+02	-2.375453e+01
1.897313e+02	-2.380352e+01
1.908272e+02	-2.385425e+01
1.919294e+02	-2.390441e+01
1.930380e+02	-2.395272e+01
1.941530e+02	-2.400312e+01
1.952744e+02	-2.405337e+01
1.964023e+02	-2.410313e+01
1.975367e+02	-2.415368e+01
1.986777e+02	-2.420201e+01
1.998252e+02	-2.425336e+01
2.009794e+02	-2.430235e+01
2.021403e+02	-2.435495e+01
2.033078e+02	-2.440410e+01
2.044821e+02	-2.445334e+01
2.056632e+02	-2.450171e+01
2.068511e+02	-2.455565e+01
2.080459e+02	-2.460154e+01
2.092475e+02	-2.465392e+01
2.104561e+02	-2.470163e+01
2.116717e+02	-2.475200e+01
2.128943e+02	-2.480154e+01
2.141240e+02	-2.485171e+01
2.153608e+02	-2.490120e+01
2.166047e+02	-2.495131e+01
2.178558e+02	-2.500154e+01
2.191141e+02	-2.505234e+01
2.203797e+02	-2.510339e+01
2.216526e+02	-2.515517e+01
2.229329e+02	-2.520086e+01
2.242205e+02	-2.525152e+01
2.255156e+02	-2.530538e+01
2.268182e+02	-2.535129e+01
2.281283e+02	-2.540167e+01
2.294459e+02	-2.545109e+01
2.307712e+02	-2.549933e+01
2.321041e+02	-2.554934e+01
2.334447e+02	-2.559948e+01
2.347931e+02	-2.564819e+01
2.361493e+02	-2.570187e+01
2.375133e+02	-2.575306e+01
2.388851e+02	-2.580104e+01
2.402649e+02	-2.585114e+01
2.416527e+02	-2.589989e+01
2.430484e+02	-2.595129e+01
2.444523e+02	-2.599915e+01
2.458642e+02	-2.605164e+01
2.472843e+02	-2.609958e+01
2.487126e+02	-2.614593e+01
2.501492e+02	-2.619964e+01
2.515940e+02	-2.624897e+01
2.530472e+02	-2.629806e+01
2.545088e+02	-2.635058e+01
2.559789e+02	-2.639973e+01
2.574574e+02	-2.644971e+01
2.589444e+02	-2.650144e+01
2.604401e+02	-2.655020e+01
2.619444e+02	-2.659745e+01
2.634574e+02	-2.664713e+01
2.649791e+02	-2.670176e+01
2.665096e+02	-2.674824e+01
2.680489e+02	-2.680177e+01
2.695972e+02	-2.685036e+01
2.711544e+02	-2.689836e+01
2.727205e+02	-2.694862e+01
2.742958e+02	-2.699757e+01
2.758801e+02	-2.704546e+01
2.774736e+02	-2.709800e+01
2.790762e+02	-2.714739e+01
2.806882e+02	-2.720083e+01
2.823094e+02	-2.724938e+01
2.839400e+02	-2.729603e+01
2.855800e+02	-2.734980e+01
2.872295e+02	-2.740309e+01
2.888886e+02	-2.744926e+01
2.905572e+02	-2.749866e+01
2.922354e+02	-2.754922e+01
2.939234e+02	-2.759800e+01
2.956211e+02	-2.765113e+01
2.973286e+02	-2.769369e+01
2.990459e+02	-2.774720e+01
3.007732e+02	-2.780418e+01
3.025104e+02	-2.785307e+01
3.042577e+02	-2.790382e+01
3.060151e+02	-2.794996e+01
3.077826e+02	-2.800192e+01
3.095604e+02	-2.804820e+01
3.113484e+02	-2.810304e+01
3.131467e+02	-2.815007e+01
3.149554e+02	-2.819701e+01
3.167746e+02	-2.824980e+01
3.186043e+02	-2.830120e+01
3.204445e+02	-2.835306e+01
3.222954e+02	-2.839952e+01
3.241570e+02	-2.845096e+01
3.260293e+02	-2.849787e+01
3.279124e+02	-2.854912e+01
3.298064e+02	-2.859874e+01
3.317114e+02	-2.865065e+01
3.336273e+02	-2.870068e+01
3.355544e+02	-2.875156e+01
3.374925e+02	-2.880197e+01
3.394418e+02	-2.885177e+01
3.414024e+02	-2.889871e+01
3.433744e+02	-2.895032e+01
3.453577e+02	-2.900129e+01
3.473525e+02	-2.905167e+01
3.493588e+02	-2.909458e+01
3.513766e+02	-2.914766e+01
3.534062e+02	-2.919844e+01
3.554474e+02	-2.925215e+01
3.575005e+02	-2.930051e+01
3.595654e+02	-2.934958e+01
3.616422e+02	-2.939924e+01
3.637311e+02	-2.944689e+01
3.658320e+02	-2.950275e+01
3.679450e+02	-2.954951e+01
3.700702e+02	-2.960163e+01
3.722077e+02	-2.965142e+01
3.743576e+02	-2.970081e+01
3.765199e+02	-2.975802e+01
3.786946e+02	-2.980090e+01
3.808820e+02	-2.985159e+01
3.830819e+02	-2.990244e+01
3.852946e+02	-2.994859e+01
3.875200e+02	-3.000207e+01
3.897583e+02	-3.004853e+01
3.920096e+02	-3.009898e+01
3.942738e+02	-3.015141e+01
3.965511e+02	-3.020094e+01
3.988416e+02	-3.025189e+01
4.011452e+02	-3.030747e+01
4.034622e+02	-3.035256e+01
4.057926e+02	-3.040274e+01
4.081365e+02	-3.045778e+01
4.104938e+02	-3.050220e+01
4.128648e+02	-3.055288e+01
4.152495e+02	-3.060467e+01
4.176480e+02	-3.065207e+01
4.200603e+02	-3.070363e+01
4.224866e+02	-3.075298e+01
4.249268e+02	-3.080357e+01
4.273812e+02	-3.085183e+01
4.298497e+02	-3.090175e+01
4.323325e+02	-3.095380e+01
4.348297e+02	-3.100257e+01
4.373412e+02	-3.105934e+01
4.398673e+02	-3.109936e+01
4.424079e+02	-3.116176e+01
4.449633e+02	-3.120568e+01
4.475334e+02	-3.125838e+01
4.501183e+02	-3.130957e+01
4.527182e+02	-3.135972e+01
4.553330e+02	-3.140571e+01
4.579630e+02	-3.145536e+01
4.606082e+02	-3.150626e+01
4.632687e+02	-3.156049e+01
4.659445e+02	-3.160672e+01
4.686358e+02	-3.165474e+01
4.713426e+02	-3.171047e+01
4.740650e+02	-3.176298e+01
4.768032e+02	-3.180469e+01
4.795572e+02	-3.185183e+01
4.823271e+02	-3.190474e+01
4.851130e+02	-3.196275e+01
4.879150e+02	-3.200763e+01
4.907332e+02	-3.205907e+01
4.935676e+02	-3.210715e+01
4.964185e+02	-3.215947e+01
4.992858e+02	-3.220687e+01
5.021696e+02	-3.225161e+01
5.050701e+02	-3.230988e+01
5.079874e+02	-3.236120e+01
5.109215e+02	-3.240466e+01
5.138726e+02	-3.246239e+01
5.168407e+02	-3.250195e+01
5.198259e+02	-3.255916e+01
5.228284e+02	-3.260955e+01
5.258482e+02	-3.266090e+01
5.288855e+02	-3.271425e+01
5.319403e+02	-3.275410e+01
5.350128e+02	-3.280478e+01
5.381030e+02	-3.286170e+01
5.412111e+02	-3.290329e+01
5.443371e+02	-3.295838e+01
5.474812e+02	-3.300716e+01
5.506434e+02	-3.306258e+01
5.538239e+02	-3.310912e+01
5.570228e+02	-3.315954e+01
5.602401e+02	-3.320546e+01
5.634760e+02	-3.325693e+01
5.667306e+02	-3.331688e+01
5.700040e+02	-3.336171e+01
5.732964e+02	-3.341758e+01
5.766077e+02	-3.347366e+01
5.799382e+02	-3.351451e+01
5.832879e+02	-3.356265e+01
5.866569e+02	-3.361139e+01
5.900454e+02	-3.366894e+01
5.934535e+02	-3.371867e+01
5.968813e+02	-3.375918e+01
6.003288e+02	-3.381355e+01
6.037963e+02	-3.386935e+01
6.072838e+02	-3.391346e+01
6.107914e+02	-3.397188e+01
6.143194e+02	-3.401288e+01
6.178676e+02	-3.406686e+01
6.214364e+02	-3.412430e+01
6.250258e+02	-3.416930e+01
6.286359e+02	-3.421408e+01
6.322669e+02	-3.427165e+01
6.359189e+02	-3.431846e+01
6.395919e+02	-3.437083e+01
6.432862e+02	-3.441173e+01
6.470017e+02	-3.446065e+01
6.507388e+02	-3.452147e+01
6.544974e+02	-3.456975e+01
6.582778e+02	-3.462046e+01
6.620800e+02	-3.466742e+01
6.659041e+02	-3.471942e+01
6.697504e+02	-3.476934e+01
6.736188e+02	-3.481751e+01
6.775096e+02	-3.487862e+01
6.814229e+02	-3.492520e+01
6.853587e+02	-3.496944e+01
6.893173e+02	-3.501834e+01
6.932988e+02	-3.506742e+01
6.973033e+02	-3.512984e+01
7.013309e+02	-3.517882e+01
