Frequency(Hz)	Magnitude(dB)
1.000000e+01	-2.380200e+00
1.005776e+01	-2.401547e+00
1.011585e+01	-2.422997e+00
1.017428e+01	-2.444155e+00
1.023305e+01	-2.466042e+00
1.029215e+01	-2.487460e+00
1.035160e+01	-2.509383e+00
1.041139e+01	-2.531415e+00
1.047153e+01	-2.553840e+00
1.053201e+01	-2.576034e+00
1.059284e+01	-2.598424e+00
1.065403e+01	-2.620920e+00
1.071556e+01	-2.643753e+00
1.077746e+01	-2.666537e+00
1.083971e+01	-2.689819e+00
1.090232e+01	-2.712960e+00
1.096529e+01	-2.735971e+00
1.102862e+01	-2.759622e+00
1.109232e+01	-2.783380e+00
1.115639e+01	-2.806963e+00
1.122083e+01	-2.830871e+00
1.128564e+01	-2.854827e+00
1.135083e+01	-2.879091e+00
1.141639e+01	-2.903274e+00
1.148233e+01	-2.927873e+00
1.154865e+01	-2.952377e+00
1.161536e+01	-2.977203e+00
1.168245e+01	-3.001880e+00
1.174992e+01	-3.027171e+00
1.181779e+01	-3.052496e+00
1.188605e+01	-3.077499e+00
1.195470e+01	-3.103200e+00
1.202375e+01	-3.128842e+00
1.209320e+01	-3.154537e+00
1.216305e+01	-3.180273e+00
1.223330e+01	-3.206375e+00
1.230396e+01	-3.232528e+00
1.237503e+01	-3.259085e+00
1.244651e+01	-3.285395e+00
1.251840e+01	-3.312245e+00
1.259070e+01	-3.338736e+00
1.266343e+01	-3.365767e+00
1.273657e+01	-3.392698e+00
1.281014e+01	-3.420172e+00
1.288413e+01	-3.446970e+00
1.295855e+01	-3.474852e+00
1.303339e+01	-3.502345e+00
1.310867e+01	-3.530218e+00
1.318439e+01	-3.557948e+00
1.326054e+01	-3.586146e+00
1.333713e+01	-3.614358e+00
1.341417e+01	-3.642595e+00
1.349165e+01	-3.671098e+00
1.356958e+01	-3.699809e+00
1.364795e+01	-3.728501e+00
1.372678e+01	-3.757367e+00
1.380607e+01	-3.786506e+00
1.388581e+01	-3.815771e+00
1.396602e+01	-3.844970e+00
1.404668e+01	-3.874266e+00
1.412782e+01	-3.903932e+00
1.420942e+01	-3.933652e+00
1.429149e+01	-3.963697e+00
1.437404e+01	-3.993685e+00
1.445706e+01	-4.023738e+00
1.454057e+01	-4.054129e+00
1.462455e+01	-4.084394e+00
1.470902e+01	-4.115086e+00
1.479398e+01	-4.145498e+00
1.487943e+01	-4.176609e+00
1.496537e+01	-4.207269e+00
1.505181e+01	-4.238611e+00
1.513875e+01	-4.269986e+00
1.522619e+01	-4.301216e+00
1.531414e+01	-4.332694e+00
1.540259e+01	-4.364252e+00
1.549156e+01	-4.396363e+00
1.558103e+01	-4.428160e+00
1.567103e+01	-4.460132e+00
1.576155e+01	-4.491882e+00
1.585258e+01	-4.524457e+00
1.594415e+01	-4.556949e+00
1.603624e+01	-4.589475e+00
1.612886e+01	-4.622183e+00
1.622202e+01	-4.655335e+00
1.631572e+01	-4.687948e+00
1.640996e+01	-4.721551e+00
1.650474e+01	-4.754435e+00
1.660008e+01	-4.787709e+00
1.669596e+01	-4.821326e+00
1.679239e+01	-4.854864e+00
1.688938e+01	-4.888576e+00
1.698694e+01	-4.922335e+00
1.708505e+01	-4.956631e+00
1.718373e+01	-4.990763e+00
1.728299e+01	-5.024812e+00
1.738281e+01	-5.059508e+00
1.748322e+01	-5.093621e+00
1.758420e+01	-5.128080e+00
1.768576e+01	-5.163041e+00
1.778792e+01	-5.197931e+00
1.789066e+01	-5.232753e+00
1.799399e+01	-5.267887e+00
1.809793e+01	-5.303485e+00
1.820246e+01	-5.338369e+00
1.830760e+01	-5.373833e+00
1.841334e+01	-5.409389e+00
1.851969e+01	-5.445025e+00
1.862666e+01	-5.481180e+00
1.873425e+01	-5.516734e+00
1.884246e+01	-5.553137e+00
1.895129e+01	-5.589076e+00
1.906075e+01	-5.625178e+00
1.917085e+01	-5.661692e+00
1.928158e+01	-5.698370e+00
1.939295e+01	-5.734706e+00
1.950496e+01	-5.771561e+00
1.961762e+01	-5.808274e+00
1.973093e+01	-5.845175e+00
1.984490e+01	-5.882186e+00
1.995952e+01	-5.919522e+00
2.007480e+01	-5.956482e+00
2.019076e+01	-5.994138e+00
2.030738e+01	-6.031635e+00
2.042467e+01	-6.069420e+00
2.054264e+01	-6.107069e+00
2.066130e+01	-6.145293e+00
2.078064e+01	-6.182751e+00
2.090066e+01	-6.220969e+00
2.102139e+01	-6.258438e+00
2.114280e+01	-6.297459e+00
2.126492e+01	-6.335792e+00
2.138775e+01	-6.373822e+00
2.151128e+01	-6.412542e+00
2.163553e+01	-6.451132e+00
2.176050e+01	-6.490120e+00
2.188619e+01	-6.528926e+00
2.201260e+01	-6.567883e+00
2.213974e+01	-6.606852e+00
2.226762e+01	-6.645791e+00
2.239624e+01	-6.685284e+00
2.252560e+01	-6.724434e+00
2.265571e+01	-6.764196e+00
2.278656e+01	-6.803188e+00
2.291818e+01	-6.843226e+00
2.305055e+01	-6.882831e+00
2.318369e+01	-6.922526e+00
2.331760e+01	-6.962747e+00
2.345228e+01	-7.002857e+00
2.358774e+01	-7.042670e+00
2.372398e+01	-7.082924e+00
2.386101e+01	-7.122894e+00
2.399883e+01	-7.163287e+00
2.413745e+01	-7.203733e+00
2.427686e+01	-7.244164e+00
2.441709e+01	-7.285061e+00
2.455812e+01	-7.325813e+00
2.469997e+01	-7.366668e+00
2.484263e+01	-7.407633e+00
2.498612e+01	-7.448797e+00
2.513044e+01	-7.489482e+00
2.527559e+01	-7.530741e+00
2.542158e+01	-7.572024e+00
2.556842e+01	-7.613679e+00
2.571610e+01	-7.654446e+00
2.586463e+01	-7.696028e+00
2.601403e+01	-7.738000e+00
2.616428e+01	-7.779162e+00
2.631541e+01	-7.821108e+00
2.646740e+01	-7.863239e+00
2.662028e+01	-7.904930e+00
2.677404e+01	-7.947063e+00
2.692868e+01	-7.988633e+00
2.708422e+01	-8.030894e+00
2.724066e+01	-8.073132e+00
2.739800e+01	-8.115491e+00
2.755625e+01	-8.157548e+00
2.771541e+01	-8.200135e+00
2.787550e+01	-8.242738e+00
2.803650e+01	-8.285259e+00
2.819844e+01	-8.328188e+00
2.836131e+01	-8.370372e+00
2.852513e+01	-8.413537e+00
2.868989e+01	-8.456337e+00
2.885560e+01	-8.498748e+00
2.902227e+01	-8.541895e+00
2.918990e+01	-8.584819e+00
2.935850e+01	-8.628415e+00
2.952807e+01	-8.671755e+00
2.969863e+01	-8.714766e+00
2.987016e+01	-8.757996e+00
3.004269e+01	-8.801477e+00
3.021622e+01	-8.844626e+00
3.039075e+01	-8.888575e+00
3.056628e+01	-8.932005e+00
3.074283e+01	-8.975824e+00
3.092040e+01	-9.019319e+00
3.109900e+01	-9.063276e+00
3.127862e+01	-9.107135e+00
3.145929e+01	-9.151359e+00
3.164099e+01	-9.194808e+00
3.182375e+01	-9.239071e+00
3.200756e+01	-9.283121e+00
3.219244e+01	-9.327197e+00
3.237838e+01	-9.371432e+00
3.256540e+01	-9.415608e+00
3.275349e+01	-9.460671e+00
3.294268e+01	-9.504238e+00
3.313295e+01	-9.548804e+00
3.332433e+01	-9.593536e+00
3.351681e+01	-9.637787e+00
3.371040e+01	-9.682628e+00
3.390511e+01	-9.727335e+00
3.410094e+01	-9.771746e+00
3.429791e+01	-9.816291e+00
3.449601e+01	-9.861556e+00
3.469526e+01	-9.906386e+00
3.489566e+01	-9.951536e+00
3.509721e+01	-9.996493e+00
3.529993e+01	-1.004083e+01
3.550382e+01	-1.008678e+01
3.570889e+01	-1.013138e+01
3.591515e+01	-1.017657e+01
3.612259e+01	-1.022236e+01
3.633123e+01	-1.026735e+01
3.654108e+01	-1.031231e+01
3.675214e+01	-1.035852e+01
3.696442e+01	-1.040384e+01
3.717792e+01	-1.044955e+01
3.739266e+01	-1.049484e+01
3.760864e+01	-1.054013e+01
3.782587e+01	-1.058640e+01
3.804435e+01	-1.063135e+01
3.826409e+01	-1.067749e+01
3.848510e+01	-1.072285e+01
3.870739e+01	-1.076876e+01
3.893096e+01	-1.081493e+01
3.915583e+01	-1.086062e+01
3.938199e+01	-1.090595e+01
3.960946e+01	-1.095228e+01
3.983824e+01	-1.099845e+01
4.006834e+01	-1.104420e+01
4.029978e+01	-1.109072e+01
4.053255e+01	-1.113690e+01
4.076666e+01	-1.118306e+01
4.100213e+01	-1.122969e+01
4.123896e+01	-1.127586e+01
4.147715e+01	-1.132148e+01
4.171672e+01	-1.136837e+01
4.195767e+01	-1.141484e+01
4.220002e+01	-1.146120e+01
4.244377e+01	-1.150701e+01
4.268892e+01	-1.155409e+01
4.293549e+01	-1.160100e+01
4.318348e+01	-1.164740e+01
4.343291e+01	-1.169439e+01
4.368377e+01	-1.174054e+01
4.393609e+01	-1.178731e+01
4.418986e+01	-1.183333e+01
4.444510e+01	-1.188032e+01
4.470182e+01	-1.192752e+01
4.496001e+01	-1.197360e+01
4.521970e+01	-1.202144e+01
4.548089e+01	-1.206817e+01
4.574358e+01	-1.211564e+01
4.600779e+01	-1.216199e+01
4.627353e+01	-1.220892e+01
4.654081e+01	-1.225603e+01
4.680963e+01	-1.230227e+01
4.708000e+01	-1.235030e+01
4.735193e+01	-1.239735e+01
4.762543e+01	-1.244425e+01
4.790051e+01	-1.249167e+01
4.817719e+01	-1.253915e+01
4.845545e+01	-1.258618e+01
4.873533e+01	-1.263375e+01
4.901682e+01	-1.268019e+01
4.929994e+01	-1.272774e+01
4.958470e+01	-1.277563e+01
4.987110e+01	-1.282313e+01
5.015915e+01	-1.286981e+01
5.044887e+01	-1.291767e+01
5.074026e+01	-1.296492e+01
5.103333e+01	-1.301290e+01
5.132810e+01	-1.306078e+01
5.162457e+01	-1.310833e+01
5.192275e+01	-1.315579e+01
5.222265e+01	-1.320345e+01
5.252429e+01	-1.325123e+01
5.282767e+01	-1.329845e+01
5.313280e+01	-1.334607e+01
5.343969e+01	-1.339409e+01
5.374836e+01	-1.344236e+01
5.405880e+01	-1.348951e+01
5.437105e+01	-1.353732e+01
5.468509e+01	-1.358576e+01
5.500095e+01	-1.363318e+01
5.531863e+01	-1.368056e+01
5.563815e+01	-1.372787e+01
5.595951e+01	-1.377668e+01
5.628273e+01	-1.382398e+01
5.660782e+01	-1.387263e+01
5.693479e+01	-1.391978e+01
5.726364e+01	-1.396855e+01
5.759439e+01	-1.401723e+01
5.792705e+01	-1.406498e+01
5.826164e+01	-1.411326e+01
5.859815e+01	-1.416090e+01
5.893662e+01	-1.420952e+01
5.927703e+01	-1.425730e+01
5.961941e+01	-1.430498e+01
5.996377e+01	-1.435272e+01
6.031012e+01	-1.440219e+01
6.065847e+01	-1.444970e+01
6.100883e+01	-1.449810e+01
6.136121e+01	-1.454632e+01
6.171563e+01	-1.459458e+01
6.207210e+01	-1.464292e+01
6.243063e+01	-1.469148e+01
6.279122e+01	-1.473880e+01
6.315390e+01	-1.478827e+01
6.351868e+01	-1.483617e+01
6.388556e+01	-1.488436e+01
6.425456e+01	-1.493287e+01
6.462569e+01	-1.498130e+01
6.499897e+01	-1.502992e+01
6.537440e+01	-1.507895e+01
6.575200e+01	-1.512576e+01
6.613178e+01	-1.517493e+01
6.651375e+01	-1.522561e+01
6.689793e+01	-1.527245e+01
6.728433e+01	-1.532107e+01
6.767297e+01	-1.536967e+01
6.806384e+01	-1.541821e+01
6.845698e+01	-1.546667e+01
6.885238e+01	-1.551626e+01
6.925007e+01	-1.556482e+01
6.965005e+01	-1.561254e+01
7.005235e+01	-1.566146e+01
7.045697e+01	-1.571067e+01
7.086393e+01	-1.575844e+01
7.127323e+01	-1.580816e+01
7.168490e+01	-1.585664e+01
7.209895e+01	-1.590428e+01
7.251539e+01	-1.595331e+01
7.293424e+01	-1.600246e+01
7.335551e+01	-1.605011e+01
7.377920e+01	-1.610003e+01
7.420535e+01	-1.614945e+01
7.463396e+01	-1.619879e+01
7.506504e+01	-1.624597e+01
7.549861e+01	-1.629555e+01
7.593469e+01	-1.634425e+01
7.637328e+01	-1.639395e+01
7.681441e+01	-1.644276e+01
7.725809e+01	-1.649095e+01
7.770433e+01	-1.654015e+01
7.815315e+01	-1.658893e+01
7.860456e+01	-1.663848e+01
7.905857e+01	-1.668674e+01
7.951521e+01	-1.673610e+01
7.997449e+01	-1.678316e+01
8.043642e+01	-1.683252e+01
8.090102e+01	-1.688195e+01
8.136830e+01	-1.693113e+01
8.183828e+01	-1.698157e+01
8.231097e+01	-1.703061e+01
8.278640e+01	-1.707747e+01
8.326457e+01	-1.712795e+01
8.374550e+01	-1.717588e+01
8.422921e+01	-1.722644e+01
8.471572e+01	-1.727615e+01
8.520503e+01	-1.732305e+01
8.569717e+01	-1.737356e+01
8.619215e+01	-1.742179e+01
8.669000e+01	-1.747202e+01
8.719071e+01	-1.752071e+01
8.769432e+01	-1.756943e+01
8.820084e+01	-1.761942e+01
8.871029e+01	-1.766799e+01
8.922267e+01	-1.771629e+01
8.973802e+01	-1.776691e+01
9.025634e+01	-1.781615e+01
9.077766e+01	-1.786542e+01
9.130199e+01	-1.791416e+01
9.182935e+01	-1.796267e+01
9.235975e+01	-1.801259e+01
9.289321e+01	-1.806128e+01
9.342976e+01	-1.811044e+01
9.396941e+01	-1.816087e+01
9.451217e+01	-1.821025e+01
9.505807e+01	-1.825937e+01
9.560712e+01	-1.830876e+01
9.615934e+01	-1.835733e+01
9.671476e+01	-1.840718e+01
9.727338e+01	-1.845579e+01
9.783522e+01	-1.850571e+01
9.840032e+01	-1.855501e+01
9.896867e+01	-1.860449e+01
9.954031e+01	-1.865296e+01
1.001153e+02	-1.870177e+01
1.006935e+02	-1.875129e+01
1.012751e+02	-1.880275e+01
1.018601e+02	-1.885205e+01
1.024484e+02	-1.890034e+01
1.030402e+02	-1.894991e+01
1.036353e+02	-1.899897e+01
1.042339e+02	-1.904768e+01
1.048360e+02	-1.909829e+01
1.054415e+02	-1.914697e+01
1.060505e+02	-1.919720e+01
1.066631e+02	-1.924683e+01
1.072791e+02	-1.929572e+01
1.078988e+02	-1.934485e+01
1.085220e+02	-1.939342e+01
1.091488e+02	-1.944446e+01
1.097793e+02	-1.949460e+01
1.104133e+02	-1.954238e+01
1.110511e+02	-1.959306e+01
1.116925e+02	-1.964183e+01
1.123376e+02	-1.969091e+01
1.129865e+02	-1.974138e+01
1.136391e+02	-1.979044e+01
1.142955e+02	-1.984015e+01
1.149556e+02	-1.988826e+01
1.156196e+02	-1.993906e+01
1.162874e+02	-1.998801e+01
1.169591e+02	-2.003760e+01
1.176347e+02	-2.008734e+01
1.183141e+02	-2.013481e+01
1.189975e+02	-2.018847e+01
1.196848e+02	-2.023625e+01
1.203761e+02	-2.028512e+01
1.210714e+02	-2.033464e+01
1.217707e+02	-2.038550e+01
1.224740e+02	-2.043459e+01
1.231814e+02	-2.048159e+01
1.238929e+02	-2.053468e+01
1.246085e+02	-2.058360e+01
1.253283e+02	-2.063529e+01
1.260522e+02	-2.068110e+01
1.267802e+02	-2.073155e+01
1.275125e+02	-2.078206e+01
1.282490e+02	-2.083061e+01
1.289898e+02	-2.088091e+01
1.297348e+02	-2.093040e+01
1.304842e+02	-2.097869e+01
1.312378e+02	-2.103042e+01
1.319959e+02	-2.107914e+01
1.327583e+02	-2.112881e+01
1.335251e+02	-2.117901e+01
1.342963e+02	-2.122914e+01
1.350720e+02	-2.127775e+01
1.358522e+02	-2.132733e+01
1.366368e+02	-2.137716e+01
1.374260e+02	-2.142672e+01
1.382198e+02	-2.147506e+01
1.390182e+02	-2.152739e+01
1.398211e+02	-2.157679e+01
1.406287e+02	-2.162542e+01
1.414410e+02	-2.167647e+01
1.422579e+02	-2.172435e+01
1.430796e+02	-2.177450e+01
1.439060e+02	-2.182547e+01
1.447372e+02	-2.187444e+01
1.455732e+02	-2.192380e+01
1.464141e+02	-2.197431e+01
1.472597e+02	-2.202427e+01
1.481103e+02	-2.207360e+01
1.489658e+02	-2.212428e+01
1.498262e+02	-2.217204e+01
1.506916e+02	-2.222163e+01
1.515620e+02	-2.227410e+01
1.524374e+02	-2.232312e+01
1.533179e+02	-2.237236e+01
1.542034e+02	-2.242203e+01
1.550941e+02	-2.247024e+01
1.559899e+02	-2.251859e+01
1.568909e+02	-2.256945e+01
1.577971e+02	-2.262175e+01
1.587085e+02	-2.266915e+01
1.596252e+02	-2.272164e+01
1.605472e+02	-2.276895e+01
1.614745e+02	-2.282064e+01
1.624072e+02	-2.286685e+01
1.633453e+02	-2.291933e+01
1.642887e+02	-2.296902e+01
1.652377e+02	-2.301992e+01
1.661921e+02	-2.306892e+01
1.671520e+02	-2.311759e+01
1.681175e+02	-2.316944e+01
1.690885e+02	-2.321859e+01
1.700651e+02	-2.326913e+01
1.710474e+02	-2.331753e+01
1.720354e+02	-2.336605e+01
1.730291e+02	-2.341650e+01
1.740285e+02	-2.346760e+01
1.750337e+02	-2.351443e+01
1.760446e+02	-2.356818e+01
1.770615e+02	-2.361637e+01
1.780842e+02	-2.366625e+01
1.791128e+02	-2.371605e+01
1.801473e+02	-2.376608e+01
1.811878e+02	-2.381735e+01
1.822344e+02	-2.386646e+01
1.832870e+02	-2.391601e+01
1.843456e+02	-2.396517e+01
1.854104e+02	-2.401674e+01
1.864813e+02	-2.406570e+01
1.875584e+02	-2.411578e+01
1.886418e+02	-2.416703e+01
1.897313e+02	-2.421226e+01
1.908272e+02	-2.426376e+01
1.919294e+02	-2.431405e+01
1.930380e+02	-2.436526e+01
1.941530e+02	-2.441436e+01
1.952744e+02	-2.446435e+01
1.964023e+02	-2.451416e+01
1.975367e+02	-2.456462e+01
1.986777e+02	-2.461335e+01
1.998252e+02	-2.466468e+01
2.009794e+02	-2.471269e+01
2.021403e+02	-2.476337e+01
2.033078e+02	-2.481235e+01
2.044821e+02	-2.486494e+01
2.056632e+02	-2.491409e+01
2.068511e+02	-2.496409e+01
2.080459e+02	-2.501181e+01
2.092475e+02	-2.506270e+01
2.104561e+02	-2.511216e+01
2.116717e+02	-2.516250e+01
2.128943e+02	-2.521369e+01
2.141240e+02	-2.526207e+01
2.153608e+02	-2.531148e+01
2.166047e+02	-2.536149e+01
2.178558e+02	-2.541442e+01
2.191141e+02	-2.546330e+01
2.203797e+02	-2.550980e+01
2.216526e+02	-2.556230e+01
2.229329e+02	-2.561326e+01
2.242205e+02	-2.566437e+01
2.255156e+02	-2.571425e+01
2.268182e+02	-2.575869e+01
2.281283e+02	-2.581300e+01
2.294459e+02	-2.586225e+01
2.307712e+02	-2.591180e+01
2.321041e+02	-2.596171e+01
2.334447e+02	-2.601000e+01
2.347931e+02	-2.605967e+01
2.361493e+02	-2.611327e+01
2.375133e+02	-2.616260e+01
2.388851e+02	-2.621037e+01
2.402649e+02	-2.626028e+01
2.416527e+02	-2.631512e+01
2.430484e+02	-2.635973e+01
2.444523e+02	-2.641410e+01
2.458642e+02	-2.646208e+01
2.472843e+02	-2.651284e+01
2.487126e+02	-2.656296e+01
2.501492e+02	-2.661100e+01
2.515940e+02	-2.666346e+01
2.530472e+02	-2.671197e+01
2.545088e+02	-2.676273e+01
2.559789e+02	-2.681110e+01
2.574574e+02	-2.686060e+01
2.589444e+02	-2.691340e+01
2.604401e+02	-2.696288e+01
2.619444e+02	-2.701129e+01
2.634574e+02	-2.706060e+01
2.649791e+02	-2.711276e+01
2.665096e+02	-2.716227e+01
2.680489e+02	-2.721133e+01
2.695972e+02	-2.726415e+01
2.711544e+02	-2.730809e+01
2.727205e+02	-2.736528e+01
2.742958e+02	-2.741073e+01
2.758801e+02	-2.746066e+01
2.774736e+02	-2.751262e+01
2.790762e+02	-2.756135e+01
2.806882e+02	-2.760996e+01
2.823094e+02	-2.765723e+01
2.839400e+02	-2.770979e+01
2.855800e+02	-2.775974e+01
2.872295e+02	-2.780950e+01
2.888886e+02	-2.786247e+01
2.905572e+02	-2.791372e+01
2.922354e+02	-2.796140e+01
2.939234e+02	-2.801051e+01
2.956211e+02	-2.806384e+01
2.973286e+02	-2.810901e+01
2.990459e+02	-2.816278e+01
3.007732e+02	-2.821187e+01
3.025104e+02	-2.826223e+01
3.042577e+02	-2.831458e+01
3.060151e+02	-2.836394e+01
3.077826e+02	-2.841036e+01
3.095604e+02	-2.846394e+01
3.113484e+02	-2.851290e+01
3.131467e+02	-2.856347e+01
3.149554e+02	-2.861225e+01
3.167746e+02	-2.866056e+01
3.186043e+02	-2.870913e+01
3.204445e+02	-2.876298e+01
3.222954e+02	-2.881232e+01
3.241570e+02	-2.885918e+01
3.260293e+02	-2.890965e+01
3.279124e+02	-2.896261e+01
3.298064e+02	-2.901058e+01
3.317114e+02	-2.906326e+01
3.336273e+02	-2.911245e+01
3.355544e+02	-2.915950e+01
3.374925e+02	-2.920768e+01
3.394418e+02	-2.926367e+01
3.414024e+02	-2.931358e+01
3.433744e+02	-2.935701e+01
3.453577e+02	-2.941632e+01
3.473525e+02	-2.946520e+01
3.493588e+02	-2.951509e+01
3.513766e+02	-2.956313e+01
3.534062e+02	-2.961316e+01
3.554474e+02	-2.966232e+01
3.575005e+02	-2.971314e+01
3.595654e+02	-2.975778e+01
3.616422e+02	-2.981466e+01
3.637311e+02	-2.986624e+01
3.658320e+02	-2.990994e+01
3.679450e+02	-2.996639e+01
3.700702e+02	-3.001306e+01
3.722077e+02	-3.006283e+01
3.743576e+02	-3.011717e+01
3.765199e+02	-3.016117e+01
3.786946e+02	-3.021161e+01
3.808820e+02	-3.026316e+01
3.830819e+02	-3.031375e+01
3.852946e+02	-3.036411e+01
3.875200e+02	-3.042026e+01
3.897583e+02	-3.045999e+01
3.920096e+02	-3.051584e+01
3.942738e+02	-3.056533e+01
3.965511e+02	-3.061017e+01
3.988416e+02	-3.066151e+01
4.011452e+02	-3.071903e+01
4.034622e+02	-3.077093e+01
4.057926e+02	-3.081211e+01
4.081365e+02	-3.086862e+01
4.104938e+02	-3.091785e+01
4.128648e+02	-3.096783e+01
4.152495e+02	-3.101477e+01
4.176480e+02	-3.106695e+01
4.200603e+02	-3.111074e+01
4.224866e+02	-3.116395e+01
4.249268e+02	-3.121797e+01
4.273812e+02	-3.126953e+01
4.298497e+02	-3.131507e+01
4.323325e+02	-3.136829e+01
4.348297e+02	-3.141396e+01
4.373412e+02	-3.146981e+01
4.398673e+02	-3.151837e+01
4.424079e+02	-3.157576e+01
4.449633e+02	-3.161472e+01
4.475334e+02	-3.166942e+01
4.501183e+02	-3.171762e+01
4.527182e+02	-3.176809e+01
4.553330e+02	-3.182343e+01
4.579630e+02	-3.186852e+01
4.606082e+02	-3.190938e+01
4.632687e+02	-3.196672e+01
4.659445e+02	-3.201743e+01
4.686358e+02	-3.207290e+01
4.713426e+02	-3.211672e+01
4.740650e+02	-3.216533e+01
4.768032e+02	-3.221967e+01
4.795572e+02	-3.227097e+01
4.823271e+02	-3.231798e+01
4.851130e+02	-3.237427e+01
4.879150e+02	-3.242504e+01
4.907332e+02	-3.247399e+01
4.935676e+02	-3.252126e+01
4.964185e+02	-3.257650e+01
4.992858e+02	-3.262143e+01
5.021696e+02	-3.267540e+01
5.050701e+02	-3.272083e+01
5.079874e+02	-3.277915e+01
5.109215e+02	-3.282452e+01
5.138726e+02	-3.287709e+01
5.168407e+02	-3.292690e+01
5.198259e+02	-3.297699e+01
5.228284e+02	-3.301910e+01
5.258482e+02	-3.307574e+01
5.288855e+02	-3.311655e+01
5.319403e+02	-3.316900e+01
5.350128e+02	-3.323164e+01
5.381030e+02	-3.326938e+01
5.412111e+02	-3.332640e+01
5.443371e+02	-3.337721e+01
5.474812e+02	-3.342030e+01
5.506434e+02	-3.346936e+01
5.538239e+02	-3.352724e+01
5.570228e+02	-3.357940e+01
5.602401e+02	-3.362961e+01
5.634760e+02	-3.368386e+01
5.667306e+02	-3.372419e+01
5.700040e+02	-3.377882e+01
5.732964e+02	-3.382962e+01
5.766077e+02	-3.387769e+01
5.799382e+02	-3.392976e+01
5.832879e+02	-3.398377e+01
5.866569e+02	-3.402839e+01
5.900454e+02	-3.408625e+01
5.934535e+02	-3.412895e+01
5.968813e+02	-3.418040e+01
6.003288e+02	-3.422854e+01
6.037963e+02	-3.427487e+01
6.072838e+02	-3.433032e+01
6.107914e+02	-3.438091e+01
6.143194e+02	-3.443869e+01
6.178676e+02	-3.448868e+01
6.214364e+02	-3.453090e+01
6.250258e+02	-3.458005e+01
6.286359e+02	-3.463941e+01
6.322669e+02	-3.469071e+01
6.359189e+02	-3.473281e+01
6.395919e+02	-3.478469e+01
6.432862e+02	-3.483876e+01
6.470017e+02	-3.488388e+01
6.507388e+02	-3.493881e+01
6.544974e+02	-3.498470e+01
6.582778e+02	-3.503580e+01
6.620800e+02	-3.508635e+01
6.659041e+02	-3.513741e+01
6.697504e+02	-3.519622e+01
6.736188e+02	-3.524721e+01
6.775096e+02	-3.528685e+01
6.814229e+02	-3.534715e+01
6.853587e+02	-3.539023e+01
6.893173e+02	-3.543884e+01
6.932988e+02	-3.548354e+01
6.973033e+02	-3.554899e+01
7.013309e+02	-3.559356e+01
