Frequency(Hz)	Magnitude(dB)
1.000000e+01	-2.042259e+00
1.005776e+01	-2.061333e+00
1.011585e+01	-2.079948e+00
1.017428e+01	-2.099090e+00
1.023305e+01	-2.118350e+00
1.029215e+01	-2.137856e+00
1.035160e+01	-2.157289e+00
1.041139e+01	-2.177081e+00
1.047153e+01	-2.196802e+00
1.053201e+01	-2.216680e+00
1.059284e+01	-2.236638e+00
1.065403e+01	-2.256725e+00
1.071556e+01	-2.277144e+00
1.077746e+01	-2.297724e+00
1.083971e+01	-2.318248e+00
1.090232e+01	-2.339190e+00
1.096529e+01	-2.359980e+00
1.102862e+01	-2.381107e+00
1.109232e+01	-2.402239e+00
1.115639e+01	-2.423726e+00
1.122083e+01	-2.445158e+00
1.128564e+01	-2.466554e+00
1.135083e+01	-2.488374e+00
1.141639e+01	-2.510387e+00
1.148233e+01	-2.532495e+00
1.154865e+01	-2.554776e+00
1.161536e+01	-2.576989e+00
1.168245e+01	-2.599157e+00
1.174992e+01	-2.622100e+00
1.181779e+01	-2.644867e+00
1.188605e+01	-2.667628e+00
1.195470e+01	-2.690603e+00
1.202375e+01	-2.713741e+00
1.209320e+01	-2.737060e+00
1.216305e+01	-2.760223e+00
1.223330e+01	-2.783917e+00
1.230396e+01	-2.807993e+00
1.237503e+01	-2.831753e+00
1.244651e+01	-2.855955e+00
1.251840e+01	-2.880078e+00
1.259070e+01	-2.904484e+00
1.266343e+01	-2.928741e+00
1.273657e+01	-2.953411e+00
1.281014e+01	-2.978220e+00
1.288413e+01	-3.002973e+00
1.295855e+01	-3.027876e+00
1.303339e+01	-3.053374e+00
1.310867e+01	-3.078514e+00
1.318439e+01	-3.104031e+00
1.326054e+01	-3.129765e+00
1.333713e+01	-3.155454e+00
1.341417e+01	-3.181473e+00
1.349165e+01	-3.207688e+00
1.356958e+01	-3.233590e+00
1.364795e+01	-3.259874e+00
1.372678e+01	-3.286319e+00
1.380607e+01	-3.312845e+00
1.388581e+01	-3.339814e+00
1.396602e+01	-3.366893e+00
1.404668e+01	-3.393699e+00
1.412782e+01	-3.420836e+00
1.420942e+01	-3.448212e+00
1.429149e+01	-3.475794e+00
1.437404e+01	-3.503314e+00
1.445706e+01	-3.531069e+00
1.454057e+01	-3.559284e+00
1.462455e+01	-3.587187e+00
1.470902e+01	-3.615508e+00
1.479398e+01	-3.643584e+00
1.487943e+01	-3.672070e+00
1.496537e+01	-3.700681e+00
1.505181e+01	-3.729729e+00
1.513875e+01	-3.758553e+00
1.522619e+01	-3.787455e+00
1.531414e+01	-3.816547e+00
1.540259e+01	-3.846206e+00
1.549156e+01	-3.875261e+00
1.558103e+01	-3.905053e+00
1.567103e+01	-3.934735e+00
1.576155e+01	-3.964643e+00
1.585258e+01	-3.994735e+00
1.594415e+01	-4.024804e+00
1.603624e+01	-4.055074e+00
1.612886e+01	-4.085513e+00
1.622202e+01	-4.116129e+00
1.631572e+01	-4.146760e+00
1.640996e+01	-4.177566e+00
1.650474e+01	-4.208816e+00
1.660008e+01	-4.239529e+00
1.669596e+01	-4.271010e+00
1.679239e+01	-4.302385e+00
1.688938e+01	-4.333966e+00
1.698694e+01	-4.365515e+00
1.708505e+01	-4.397391e+00
1.718373e+01	-4.429233e+00
1.728299e+01	-4.461784e+00
1.738281e+01	-4.493651e+00
1.748322e+01	-4.525811e+00
1.758420e+01	-4.558559e+00
1.768576e+01	-4.590866e+00
1.778792e+01	-4.623629e+00
1.789066e+01	-4.656278e+00
1.799399e+01	-4.689636e+00
1.809793e+01	-4.722365e+00
1.820246e+01	-4.755672e+00
1.830760e+01	-4.789177e+00
1.841334e+01	-4.822686e+00
1.851969e+01	-4.855934e+00
1.862666e+01	-4.889790e+00
1.873425e+01	-4.923740e+00
1.884246e+01	-4.957653e+00
1.895129e+01	-4.991512e+00
1.906075e+01	-5.026005e+00
1.917085e+01	-5.060142e+00
1.928158e+01	-5.095085e+00
1.939295e+01	-5.129538e+00
1.950496e+01	-5.164303e+00
1.961762e+01	-5.199156e+00
1.973093e+01	-5.234147e+00
1.984490e+01	-5.269174e+00
1.995952e+01	-5.304219e+00
2.007480e+01	-5.339584e+00
2.019076e+01	-5.375244e+00
2.030738e+01	-5.410762e+00
2.042467e+01	-5.446247e+00
2.054264e+01	-5.482671e+00
2.066130e+01	-5.518092e+00
2.078064e+01	-5.554393e+00
2.090066e+01	-5.590287e+00
2.102139e+01	-5.626643e+00
2.114280e+01	-5.663160e+00
2.126492e+01	-5.699475e+00
2.138775e+01	-5.736456e+00
2.151128e+01	-5.772780e+00
2.163553e+01	-5.810023e+00
2.176050e+01	-5.846643e+00
2.188619e+01	-5.883850e+00
2.201260e+01	-5.920928e+00
2.213974e+01	-5.958386e+00
2.226762e+01	-5.995665e+00
2.239624e+01	-6.032947e+00
2.252560e+01	-6.070836e+00
2.265571e+01	-6.108400e+00
2.278656e+01	-6.146423e+00
2.291818e+01	-6.184029e+00
2.305055e+01	-6.222307e+00
2.318369e+01	-6.260615e+00
2.331760e+01	-6.298364e+00
2.345228e+01	-6.337168e+00
2.358774e+01	-6.375442e+00
2.372398e+01	-6.413858e+00
2.386101e+01	-6.452428e+00
2.399883e+01	-6.491618e+00
2.413745e+01	-6.530055e+00
2.427686e+01	-6.569331e+00
2.441709e+01	-6.608325e+00
2.455812e+01	-6.647457e+00
2.469997e+01	-6.686225e+00
2.484263e+01	-6.725856e+00
2.498612e+01	-6.765378e+00
2.513044e+01	-6.805193e+00
2.527559e+01	-6.844637e+00
2.542158e+01	-6.884646e+00
2.556842e+01	-6.924157e+00
2.571610e+01	-6.963927e+00
2.586463e+01	-7.004052e+00
2.601403e+01	-7.043971e+00
2.616428e+01	-7.084382e+00
2.631541e+01	-7.124411e+00
2.646740e+01	-7.165124e+00
2.662028e+01	-7.205452e+00
2.677404e+01	-7.245876e+00
2.692868e+01	-7.286599e+00
2.708422e+01	-7.327505e+00
2.724066e+01	-7.368086e+00
2.739800e+01	-7.408889e+00
2.755625e+01	-7.449971e+00
2.771541e+01	-7.490831e+00
2.787550e+01	-7.532367e+00
2.803650e+01	-7.573295e+00
2.819844e+01	-7.615121e+00
2.836131e+01	-7.656300e+00
2.852513e+01	-7.697789e+00
2.868989e+01	-7.739557e+00
2.885560e+01	-7.780902e+00
2.902227e+01	-7.822594e+00
2.918990e+01	-7.864444e+00
2.935850e+01	-7.906485e+00
2.952807e+01	-7.948269e+00
2.969863e+01	-7.990328e+00
2.987016e+01	-8.032591e+00
3.004269e+01	-8.075010e+00
3.021622e+01	-8.117383e+00
3.039075e+01	-8.159012e+00
3.056628e+01	-8.201371e+00
3.074283e+01	-8.244497e+00
3.092040e+01	-8.287156e+00
3.109900e+01	-8.329193e+00
3.127862e+01	-8.372213e+00
3.145929e+01	-8.415091e+00
3.164099e+01	-8.457991e+00
3.182375e+01	-8.500526e+00
3.200756e+01	-8.543564e+00
3.219244e+01	-8.586296e+00
3.237838e+01	-8.630052e+00
3.256540e+01	-8.673222e+00
3.275349e+01	-8.716145e+00
3.294268e+01	-8.759757e+00
3.313295e+01	-8.803142e+00
3.332433e+01	-8.846497e+00
3.351681e+01	-8.889642e+00
3.371040e+01	-8.933757e+00
3.390511e+01	-8.977490e+00
3.410094e+01	-9.020716e+00
3.429791e+01	-9.064402e+00
3.449601e+01	-9.108828e+00
3.469526e+01	-9.152521e+00
3.489566e+01	-9.196861e+00
3.509721e+01	-9.240285e+00
3.529993e+01	-9.284829e+00
3.550382e+01	-9.328997e+00
3.570889e+01	-9.373192e+00
3.591515e+01	-9.417619e+00
3.612259e+01	-9.461496e+00
3.633123e+01	-9.506443e+00
3.654108e+01	-9.549834e+00
3.675214e+01	-9.594868e+00
3.696442e+01	-9.639416e+00
3.717792e+01	-9.684159e+00
3.739266e+01	-9.728540e+00
3.760864e+01	-9.773937e+00
3.782587e+01	-9.818313e+00
3.804435e+01	-9.862868e+00
3.826409e+01	-9.908108e+00
3.848510e+01	-9.952938e+00
3.870739e+01	-9.997925e+00
3.893096e+01	-1.004354e+01
3.915583e+01	-1.008843e+01
3.938199e+01	-1.013305e+01
3.960946e+01	-1.017858e+01
3.983824e+01	-1.022408e+01
4.006834e+01	-1.026938e+01
4.029978e+01	-1.031477e+01
4.053255e+01	-1.036001e+01
4.076666e+01	-1.040524e+01
4.100213e+01	-1.045102e+01
4.123896e+01	-1.049649e+01
4.147715e+01	-1.054195e+01
4.171672e+01	-1.058725e+01
4.195767e+01	-1.063322e+01
4.220002e+01	-1.067863e+01
4.244377e+01	-1.072516e+01
4.268892e+01	-1.077062e+01
4.293549e+01	-1.081695e+01
4.318348e+01	-1.086196e+01
4.343291e+01	-1.090810e+01
4.368377e+01	-1.095428e+01
4.393609e+01	-1.100031e+01
4.418986e+01	-1.104689e+01
4.444510e+01	-1.109220e+01
4.470182e+01	-1.113833e+01
4.496001e+01	-1.118500e+01
4.521970e+01	-1.123159e+01
4.548089e+01	-1.127702e+01
4.574358e+01	-1.132347e+01
4.600779e+01	-1.136980e+01
4.627353e+01	-1.141654e+01
4.654081e+01	-1.146269e+01
4.680963e+01	-1.150897e+01
4.708000e+01	-1.155650e+01
4.735193e+01	-1.160227e+01
4.762543e+01	-1.164887e+01
4.790051e+01	-1.169524e+01
4.817719e+01	-1.174211e+01
4.845545e+01	-1.178906e+01
4.873533e+01	-1.183575e+01
4.901682e+01	-1.188252e+01
4.929994e+01	-1.192909e+01
4.958470e+01	-1.197598e+01
4.987110e+01	-1.202276e+01
5.015915e+01	-1.207005e+01
5.044887e+01	-1.211728e+01
5.074026e+01	-1.216362e+01
5.103333e+01	-1.221107e+01
5.132810e+01	-1.225774e+01
5.162457e+01	-1.230502e+01
5.192275e+01	-1.235185e+01
5.222265e+01	-1.239842e+01
5.252429e+01	-1.244646e+01
5.282767e+01	-1.249384e+01
5.313280e+01	-1.254053e+01
5.343969e+01	-1.258802e+01
5.374836e+01	-1.263531e+01
5.405880e+01	-1.268258e+01
5.437105e+01	-1.272973e+01
5.468509e+01	-1.277695e+01
5.500095e+01	-1.282438e+01
5.531863e+01	-1.287163e+01
5.563815e+01	-1.291915e+01
5.595951e+01	-1.296653e+01
5.628273e+01	-1.301433e+01
5.660782e+01	-1.306179e+01
5.693479e+01	-1.311008e+01
5.726364e+01	-1.315700e+01
5.759439e+01	-1.320487e+01
5.792705e+01	-1.325365e+01
5.826164e+01	-1.330138e+01
5.859815e+01	-1.334751e+01
5.893662e+01	-1.339534e+01
5.927703e+01	-1.344361e+01
5.961941e+01	-1.349135e+01
5.996377e+01	-1.353899e+01
6.031012e+01	-1.358665e+01
6.065847e+01	-1.363432e+01
6.100883e+01	-1.368255e+01
6.136121e+01	-1.373040e+01
6.171563e+01	-1.377868e+01
6.207210e+01	-1.382639e+01
6.243063e+01	-1.387426e+01
6.279122e+01	-1.392208e+01
6.315390e+01	-1.397078e+01
6.351868e+01	-1.401835e+01
6.388556e+01	-1.406688e+01
6.425456e+01	-1.411413e+01
6.462569e+01	-1.416289e+01
6.499897e+01	-1.421041e+01
6.537440e+01	-1.425858e+01
6.575200e+01	-1.430778e+01
6.613178e+01	-1.435541e+01
6.651375e+01	-1.440293e+01
6.689793e+01	-1.445175e+01
6.728433e+01	-1.449917e+01
6.767297e+01	-1.454833e+01
6.806384e+01	-1.459581e+01
6.845698e+01	-1.464503e+01
6.885238e+01	-1.469349e+01
6.925007e+01	-1.474176e+01
6.965005e+01	-1.479024e+01
7.005235e+01	-1.483747e+01
7.045697e+01	-1.488724e+01
7.086393e+01	-1.493532e+01
7.127323e+01	-1.498307e+01
7.168490e+01	-1.503185e+01
7.209895e+01	-1.508060e+01
7.251539e+01	-1.512900e+01
7.293424e+01	-1.517689e+01
7.335551e+01	-1.522569e+01
7.377920e+01	-1.527433e+01
7.420535e+01	-1.532332e+01
7.463396e+01	-1.537140e+01
7.506504e+01	-1.541969e+01
7.549861e+01	-1.546884e+01
7.593469e+01	-1.551760e+01
7.637328e+01	-1.556568e+01
7.681441e+01	-1.561487e+01
7.725809e+01	-1.566440e+01
7.770433e+01	-1.571134e+01
7.815315e+01	-1.576097e+01
7.860456e+01	-1.580900e+01
7.905857e+01	-1.585896e+01
7.951521e+01	-1.590646e+01
7.997449e+01	-1.595636e+01
8.043642e+01	-1.600400e+01
8.090102e+01	-1.605257e+01
8.136830e+01	-1.610185e+01
8.183828e+01	-1.615024e+01
8.231097e+01	-1.619953e+01
8.278640e+01	-1.624855e+01
8.326457e+01	-1.629732e+01
8.374550e+01	-1.634618e+01
8.422921e+01	-1.639512e+01
8.471572e+01	-1.644369e+01
8.520503e+01	-1.649327e+01
8.569717e+01	-1.654200e+01
8.619215e+01	-1.659070e+01
8.669000e+01	-1.663983e+01
8.719071e+01	-1.668835e+01
8.769432e+01	-1.673781e+01
8.820084e+01	-1.678755e+01
8.871029e+01	-1.683425e+01
8.922267e+01	-1.688309e+01
8.973802e+01	-1.693317e+01
9.025634e+01	-1.698165e+01
9.077766e+01	-1.703250e+01
9.130199e+01	-1.707998e+01
9.182935e+01	-1.712933e+01
9.235975e+01	-1.717817e+01
9.289321e+01	-1.722804e+01
9.342976e+01	-1.727603e+01
9.396941e+01	-1.732622e+01
9.451217e+01	-1.737591e+01
9.505807e+01	-1.742407e+01
9.560712e+01	-1.747331e+01
9.615934e+01	-1.752309e+01
9.671476e+01	-1.757094e+01
9.727338e+01	-1.762175e+01
9.783522e+01	-1.767127e+01
9.840032e+01	-1.771986e+01
9.896867e+01	-1.776744e+01
9.954031e+01	-1.781744e+01
1.001153e+02	-1.786683e+01
1.006935e+02	-1.791564e+01
1.012751e+02	-1.796519e+01
1.018601e+02	-1.801358e+01
1.024484e+02	-1.806480e+01
1.030402e+02	-1.811275e+01
1.036353e+02	-1.816184e+01
1.042339e+02	-1.821216e+01
1.048360e+02	-1.826003e+01
1.054415e+02	-1.831011e+01
1.060505e+02	-1.835822e+01
1.066631e+02	-1.840861e+01
1.072791e+02	-1.845816e+01
1.078988e+02	-1.850633e+01
1.085220e+02	-1.855657e+01
1.091488e+02	-1.860459e+01
1.097793e+02	-1.865387e+01
1.104133e+02	-1.870352e+01
1.110511e+02	-1.875396e+01
1.116925e+02	-1.880341e+01
1.123376e+02	-1.885257e+01
1.129865e+02	-1.890269e+01
1.136391e+02	-1.895229e+01
1.142955e+02	-1.900100e+01
1.149556e+02	-1.904928e+01
1.156196e+02	-1.909969e+01
1.162874e+02	-1.914828e+01
1.169591e+02	-1.919846e+01
1.176347e+02	-1.924734e+01
1.183141e+02	-1.929852e+01
1.189975e+02	-1.934694e+01
1.196848e+02	-1.939790e+01
1.203761e+02	-1.944614e+01
1.210714e+02	-1.949580e+01
1.217707e+02	-1.954411e+01
1.224740e+02	-1.959352e+01
1.231814e+02	-1.964447e+01
1.238929e+02	-1.969369e+01
1.246085e+02	-1.974148e+01
1.253283e+02	-1.979335e+01
1.260522e+02	-1.984180e+01
1.267802e+02	-1.989070e+01
1.275125e+02	-1.994093e+01
1.282490e+02	-1.998955e+01
1.289898e+02	-2.003860e+01
1.297348e+02	-2.008927e+01
1.304842e+02	-2.013916e+01
1.312378e+02	-2.018945e+01
1.319959e+02	-2.023858e+01
1.327583e+02	-2.028715e+01
1.335251e+02	-2.033597e+01
1.342963e+02	-2.038625e+01
1.350720e+02	-2.043682e+01
1.358522e+02	-2.048601e+01
1.366368e+02	-2.053635e+01
1.374260e+02	-2.058453e+01
1.382198e+02	-2.063445e+01
1.390182e+02	-2.068200e+01
1.398211e+02	-2.073280e+01
1.406287e+02	-2.078317e+01
1.414410e+02	-2.083204e+01
1.422579e+02	-2.088343e+01
1.430796e+02	-2.093334e+01
1.439060e+02	-2.098245e+01
1.447372e+02	-2.103110e+01
1.455732e+02	-2.108248e+01
1.464141e+02	-2.113043e+01
1.472597e+02	-2.118048e+01
1.481103e+02	-2.123042e+01
1.489658e+02	-2.128170e+01
1.498262e+02	-2.132859e+01
1.506916e+02	-2.137817e+01
1.515620e+02	-2.143009e+01
1.524374e+02	-2.147847e+01
1.533179e+02	-2.152927e+01
1.542034e+02	-2.157654e+01
1.550941e+02	-2.162718e+01
1.559899e+02	-2.167766e+01
1.568909e+02	-2.172636e+01
1.577971e+02	-2.177633e+01
1.587085e+02	-2.182728e+01
1.596252e+02	-2.187666e+01
1.605472e+02	-2.192502e+01
1.614745e+02	-2.197531e+01
1.624072e+02	-2.202585e+01
1.633453e+02	-2.207681e+01
1.642887e+02	-2.212336e+01
1.652377e+02	-2.217450e+01
1.661921e+02	-2.222444e+01
1.671520e+02	-2.227596e+01
1.681175e+02	-2.232485e+01
1.690885e+02	-2.237420e+01
1.700651e+02	-2.242435e+01
1.710474e+02	-2.247501e+01
1.720354e+02	-2.252054e+01
1.730291e+02	-2.257212e+01
1.740285e+02	-2.262239e+01
1.750337e+02	-2.267212e+01
1.760446e+02	-2.272361e+01
1.770615e+02	-2.277117e+01
1.780842e+02	-2.282021e+01
1.791128e+02	-2.286907e+01
1.801473e+02	-2.292190e+01
1.811878e+02	-2.297124e+01
1.822344e+02	-2.302060e+01
1.832870e+02	-2.306952e+01
1.843456e+02	-2.312053e+01
1.854104e+02	-2.317066e+01
1.864813e+02	-2.322116e+01
1.875584e+02	-2.327063e+01
1.886418e+02	-2.331741e+01
1.897313e+02	-2.336988e+01
1.908272e+02	-2.341835e+01
1.919294e+02	-2.347056e+01
1.930380e+02	-2.352033e+01
1.941530e+02	-2.356978e+01
1.952744e+02	-2.361823e+01
1.964023e+02	-2.366723e+01
1.975367e+02	-2.371898e+01
1.986777e+02	-2.377134e+01
1.998252e+02	-2.381908e+01
2.009794e+02	-2.386827e+01
2.021403e+02	-2.391702e+01
2.033078e+02	-2.397141e+01
2.044821e+02	-2.401850e+01
2.056632e+02	-2.406696e+01
2.068511e+02	-2.411693e+01
2.080459e+02	-2.416612e+01
2.092475e+02	-2.421676e+01
2.104561e+02	-2.426680e+01
2.116717e+02	-2.431681e+01
2.128943e+02	-2.436356e+01
2.141240e+02	-2.441805e+01
2.153608e+02	-2.446540e+01
2.166047e+02	-2.451575e+01
2.178558e+02	-2.456731e+01
2.191141e+02	-2.461417e+01
2.203797e+02	-2.466389e+01
2.216526e+02	-2.471803e+01
2.229329e+02	-2.476510e+01
2.242205e+02	-2.481660e+01
2.255156e+02	-2.486650e+01
2.268182e+02	-2.491901e+01
2.281283e+02	-2.496393e+01
2.294459e+02	-2.501352e+01
2.307712e+02	-2.506296e+01
2.321041e+02	-2.511486e+01
2.334447e+02	-2.516343e+01
2.347931e+02	-2.521218e+01
2.361493e+02	-2.526719e+01
2.375133e+02	-2.531555e+01
2.388851e+02	-2.536437e+01
2.402649e+02	-2.541550e+01
2.416527e+02	-2.546557e+01
2.430484e+02	-2.551316e+01
2.444523e+02	-2.556499e+01
2.458642e+02	-2.561316e+01
2.472843e+02	-2.566390e+01
2.487126e+02	-2.571396e+01
2.501492e+02	-2.576288e+01
2.515940e+02	-2.581534e+01
2.530472e+02	-2.586469e+01
2.545088e+02	-2.591382e+01
2.559789e+02	-2.596030e+01
2.574574e+02	-2.601247e+01
2.589444e+02	-2.606392e+01
2.604401e+02	-2.611238e+01
2.619444e+02	-2.616363e+01
2.634574e+02	-2.621110e+01
2.649791e+02	-2.626438e+01
2.665096e+02	-2.631578e+01
2.680489e+02	-2.636292e+01
2.695972e+02	-2.641355e+01
2.711544e+02	-2.646160e+01
2.727205e+02	-2.651260e+01
2.742958e+02	-2.656552e+01
2.758801e+02	-2.661422e+01
2.774736e+02	-2.666450e+01
2.790762e+02	-2.671276e+01
2.806882e+02	-2.676209e+01
2.823094e+02	-2.681498e+01
2.839400e+02	-2.686308e+01
2.855800e+02	-2.691247e+01
2.872295e+02	-2.696058e+01
2.888886e+02	-2.701354e+01
2.905572e+02	-2.706487e+01
2.922354e+02	-2.711331e+01
2.939234e+02	-2.716471e+01
2.956211e+02	-2.721438e+01
2.973286e+02	-2.726316e+01
2.990459e+02	-2.731091e+01
3.007732e+02	-2.736133e+01
3.025104e+02	-2.741014e+01
3.042577e+02	-2.746422e+01
3.060151e+02	-2.751624e+01
3.077826e+02	-2.756621e+01
3.095604e+02	-2.761459e+01
3.113484e+02	-2.766538e+01
3.131467e+02	-2.770900e+01
3.149554e+02	-2.776495e+01
3.167746e+02	-2.781300e+01
3.186043e+02	-2.786319e+01
3.204445e+02	-2.791616e+01
3.222954e+02	-2.796556e+01
3.241570e+02	-2.801246e+01
3.260293e+02	-2.806349e+01
3.279124e+02	-2.811358e+01
3.298064e+02	-2.816329e+01
3.317114e+02	-2.820784e+01
3.336273e+02	-2.826328e+01
3.355544e+02	-2.831242e+01
3.374925e+02	-2.836562e+01
3.394418e+02	-2.841454e+01
3.414024e+02	-2.846504e+01
3.433744e+02	-2.851160e+01
3.453577e+02	-2.856183e+01
3.473525e+02	-2.861282e+01
3.493588e+02	-2.866443e+01
3.513766e+02	-2.871914e+01
3.534062e+02	-2.876082e+01
3.554474e+02	-2.881145e+01
3.575005e+02	-2.886796e+01
3.595654e+02	-2.891181e+01
3.616422e+02	-2.896672e+01
3.637311e+02	-2.901339e+01
3.658320e+02	-2.906678e+01
3.679450e+02	-2.912078e+01
3.700702e+02	-2.916511e+01
3.722077e+02	-2.921579e+01
3.743576e+02	-2.926295e+01
3.765199e+02	-2.931690e+01
3.786946e+02	-2.936941e+01
3.808820e+02	-2.941661e+01
3.830819e+02	-2.946425e+01
3.852946e+02	-2.951741e+01
3.875200e+02	-2.956428e+01
3.897583e+02	-2.961525e+01
3.920096e+02	-2.966645e+01
3.942738e+02	-2.971220e+01
3.965511e+02	-2.976898e+01
3.988416e+02	-2.981729e+01
4.011452e+02	-2.986503e+01
4.034622e+02	-2.991698e+01
4.057926e+02	-2.996553e+01
4.081365e+02	-3.001034e+01
4.104938e+02	-3.005993e+01
4.128648e+02	-3.011940e+01
4.152495e+02	-3.016479e+01
4.176480e+02	-3.021832e+01
4.200603e+02	-3.026628e+01
4.224866e+02	-3.031808e+01
4.249268e+02	-3.036303e+01
4.273812e+02	-3.041825e+01
4.298497e+02	-3.046712e+01
4.323325e+02	-3.051627e+01
4.348297e+02	-3.056877e+01
4.373412e+02	-3.061713e+01
4.398673e+02	-3.066460e+01
4.424079e+02	-3.071991e+01
4.449633e+02	-3.076917e+01
4.475334e+02	-3.082080e+01
4.501183e+02	-3.086914e+01
4.527182e+02	-3.092109e+01
4.553330e+02	-3.097374e+01
4.579630e+02	-3.101760e+01
4.606082e+02	-3.107017e+01
4.632687e+02	-3.111683e+01
4.659445e+02	-3.116879e+01
4.686358e+02	-3.121704e+01
4.713426e+02	-3.127229e+01
4.740650e+02	-3.131697e+01
4.768032e+02	-3.137141e+01
4.795572e+02	-3.141984e+01
4.823271e+02	-3.147053e+01
4.851130e+02	-3.152228e+01
4.879150e+02	-3.156764e+01
4.907332e+02	-3.162281e+01
4.935676e+02	-3.167071e+01
4.964185e+02	-3.171951e+01
4.992858e+02	-3.177025e+01
5.021696e+02	-3.181957e+01
5.050701e+02	-3.187371e+01
5.079874e+02	-3.192283e+01
5.109215e+02	-3.198051e+01
5.138726e+02	-3.201818e+01
5.168407e+02	-3.207089e+01
5.198259e+02	-3.212462e+01
5.228284e+02	-3.215571e+01
5.258482e+02	-3.221974e+01
5.288855e+02	-3.227231e+01
5.319403e+02	-3.232816e+01
5.350128e+02	-3.237361e+01
5.381030e+02	-3.242068e+01
5.412111e+02	-3.247846e+01
5.443371e+02	-3.252260e+01
5.474812e+02	-3.257270e+01
5.506434e+02	-3.262906e+01
5.538239e+02	-3.267466e+01
5.570228e+02	-3.272736e+01
5.602401e+02	-3.278033e+01
5.634760e+02	-3.281975e+01
5.667306e+02	-3.287787e+01
5.700040e+02	-3.292408e+01
5.732964e+02	-3.297287e+01
5.766077e+02	-3.302294e+01
5.799382e+02	-3.308081e+01
5.832879e+02	-3.312495e+01
5.866569e+02	-3.318057e+01
5.900454e+02	-3.322276e+01
5.934535e+02	-3.327550e+01
5.968813e+02	-3.333403e+01
6.003288e+02	-3.337463e+01
6.037963e+02	-3.342750e+01
6.072838e+02	-3.347886e+01
6.107914e+02	-3.352520e+01
6.143194e+02	-3.357269e+01
6.178676e+02	-3.362270e+01
6.214364e+02	-3.368031e+01
6.250258e+02	-3.373073e+01
6.286359e+02	-3.377743e+01
6.322669e+02	-3.383138e+01
6.359189e+02	-3.388317e+01
6.395919e+02	-3.393493e+01
6.432862e+02	-3.398260e+01
6.470017e+02	-3.403489e+01
6.507388e+02	-3.408749e+01
6.544974e+02	-3.413625e+01
6.582778e+02	-3.418263e+01
6.620800e+02	-3.423536e+01
6.659041e+02	-3.427745e+01
6.697504e+02	-3.432761e+01
6.736188e+02	-3.438295e+01
6.775096e+02	-3.443140e+01
6.814229e+02	-3.449767e+01
6.853587e+02	-3.453869e+01
6.893173e+02	-3.458837e+01
6.932988e+02	-3.464756e+01
6.973033e+02	-3.469564e+01
7.013309e+02	-3.473676e+01
