Frequency(Hz)	Magnitude(dB)
1.000000e+01	-2.047203e+00
1.005776e+01	-2.066013e+00
1.011585e+01	-2.085161e+00
1.017428e+01	-2.104271e+00
1.023305e+01	-2.123482e+00
1.029215e+01	-2.142818e+00
1.035160e+01	-2.162449e+00
1.041139e+01	-2.182338e+00
1.047153e+01	-2.202022e+00
1.053201e+01	-2.221899e+00
1.059284e+01	-2.242114e+00
1.065403e+01	-2.262339e+00
1.071556e+01	-2.282622e+00
1.077746e+01	-2.303250e+00
1.083971e+01	-2.323820e+00
1.090232e+01	-2.344540e+00
1.096529e+01	-2.365520e+00
1.102862e+01	-2.386834e+00
1.109232e+01	-2.407963e+00
1.115639e+01	-2.429287e+00
1.122083e+01	-2.450962e+00
1.128564e+01	-2.472363e+00
1.135083e+01	-2.494090e+00
1.141639e+01	-2.516088e+00
1.148233e+01	-2.538204e+00
1.154865e+01	-2.560442e+00
1.161536e+01	-2.582662e+00
1.168245e+01	-2.605187e+00
1.174992e+01	-2.627898e+00
1.181779e+01	-2.650783e+00
1.188605e+01	-2.673847e+00
1.195470e+01	-2.696744e+00
1.202375e+01	-2.719915e+00
1.209320e+01	-2.743290e+00
1.216305e+01	-2.766846e+00
1.223330e+01	-2.790270e+00
1.230396e+01	-2.814158e+00
1.237503e+01	-2.838195e+00
1.244651e+01	-2.862387e+00
1.251840e+01	-2.886576e+00
1.259070e+01	-2.910770e+00
1.266343e+01	-2.935279e+00
1.273657e+01	-2.959953e+00
1.281014e+01	-2.984535e+00
1.288413e+01	-3.009690e+00
1.295855e+01	-3.034891e+00
1.303339e+01	-3.059790e+00
1.310867e+01	-3.085473e+00
1.318439e+01	-3.110895e+00
1.326054e+01	-3.136434e+00
1.333713e+01	-3.162393e+00
1.341417e+01	-3.188194e+00
1.349165e+01	-3.214207e+00
1.356958e+01	-3.240656e+00
1.364795e+01	-3.266754e+00
1.372678e+01	-3.293415e+00
1.380607e+01	-3.319801e+00
1.388581e+01	-3.346546e+00
1.396602e+01	-3.373927e+00
1.404668e+01	-3.400854e+00
1.412782e+01	-3.428016e+00
1.420942e+01	-3.455631e+00
1.429149e+01	-3.483097e+00
1.437404e+01	-3.510825e+00
1.445706e+01	-3.538382e+00
1.454057e+01	-3.566475e+00
1.462455e+01	-3.594738e+00
1.470902e+01	-3.622953e+00
1.479398e+01	-3.651227e+00
1.487943e+01	-3.679530e+00
1.496537e+01	-3.708364e+00
1.505181e+01	-3.737002e+00
1.513875e+01	-3.766059e+00
1.522619e+01	-3.795115e+00
1.531414e+01	-3.824514e+00
1.540259e+01	-3.853701e+00
1.549156e+01	-3.883425e+00
1.558103e+01	-3.912759e+00
1.567103e+01	-3.942677e+00
1.576155e+01	-3.972646e+00
1.585258e+01	-4.002497e+00
1.594415e+01	-4.032918e+00
1.603624e+01	-4.063034e+00
1.612886e+01	-4.093742e+00
1.622202e+01	-4.124518e+00
1.631572e+01	-4.155065e+00
1.640996e+01	-4.185739e+00
1.650474e+01	-4.216995e+00
1.660008e+01	-4.248014e+00
1.669596e+01	-4.279605e+00
1.679239e+01	-4.310743e+00
1.688938e+01	-4.342287e+00
1.698694e+01	-4.374165e+00
1.708505e+01	-4.405696e+00
1.718373e+01	-4.437614e+00
1.728299e+01	-4.469654e+00
1.738281e+01	-4.502024e+00
1.748322e+01	-4.534353e+00
1.758420e+01	-4.566841e+00
1.768576e+01	-4.599139e+00
1.778792e+01	-4.631964e+00
1.789066e+01	-4.664899e+00
1.799399e+01	-4.698265e+00
1.809793e+01	-4.731257e+00
1.820246e+01	-4.764511e+00
1.830760e+01	-4.797688e+00
1.841334e+01	-4.831400e+00
1.851969e+01	-4.865127e+00
1.862666e+01	-4.898834e+00
1.873425e+01	-4.932738e+00
1.884246e+01	-4.966593e+00
1.895129e+01	-5.000958e+00
1.906075e+01	-5.035052e+00
1.917085e+01	-5.069479e+00
1.928158e+01	-5.103839e+00
1.939295e+01	-5.138417e+00
1.950496e+01	-5.173256e+00
1.961762e+01	-5.208579e+00
1.973093e+01	-5.243385e+00
1.984490e+01	-5.278553e+00
1.995952e+01	-5.313656e+00
2.007480e+01	-5.349136e+00
2.019076e+01	-5.384376e+00
2.030738e+01	-5.419801e+00
2.042467e+01	-5.455852e+00
2.054264e+01	-5.491768e+00
2.066130e+01	-5.527559e+00
2.078064e+01	-5.563512e+00
2.090066e+01	-5.599629e+00
2.102139e+01	-5.636312e+00
2.114280e+01	-5.672630e+00
2.126492e+01	-5.709066e+00
2.138775e+01	-5.745764e+00
2.151128e+01	-5.782450e+00
2.163553e+01	-5.819280e+00
2.176050e+01	-5.856408e+00
2.188619e+01	-5.893580e+00
2.201260e+01	-5.930711e+00
2.213974e+01	-5.967907e+00
2.226762e+01	-6.005216e+00
2.239624e+01	-6.043085e+00
2.252560e+01	-6.080528e+00
2.265571e+01	-6.118287e+00
2.278656e+01	-6.156374e+00
2.291818e+01	-6.194119e+00
2.305055e+01	-6.232088e+00
2.318369e+01	-6.270359e+00
2.331760e+01	-6.308769e+00
2.345228e+01	-6.347012e+00
2.358774e+01	-6.385762e+00
2.372398e+01	-6.424036e+00
2.386101e+01	-6.462661e+00
2.399883e+01	-6.501626e+00
2.413745e+01	-6.540630e+00
2.427686e+01	-6.579578e+00
2.441709e+01	-6.618572e+00
2.455812e+01	-6.657728e+00
2.469997e+01	-6.697222e+00
2.484263e+01	-6.736451e+00
2.498612e+01	-6.775812e+00
2.513044e+01	-6.815335e+00
2.527559e+01	-6.854874e+00
2.542158e+01	-6.894693e+00
2.556842e+01	-6.934446e+00
2.571610e+01	-6.974661e+00
2.586463e+01	-7.014685e+00
2.601403e+01	-7.054811e+00
2.616428e+01	-7.095179e+00
2.631541e+01	-7.135060e+00
2.646740e+01	-7.175864e+00
2.662028e+01	-7.216274e+00
2.677404e+01	-7.256769e+00
2.692868e+01	-7.297458e+00
2.708422e+01	-7.338248e+00
2.724066e+01	-7.379032e+00
2.739800e+01	-7.419931e+00
2.755625e+01	-7.460873e+00
2.771541e+01	-7.501824e+00
2.787550e+01	-7.542957e+00
2.803650e+01	-7.584730e+00
2.819844e+01	-7.625414e+00
2.836131e+01	-7.666909e+00
2.852513e+01	-7.708427e+00
2.868989e+01	-7.750600e+00
2.885560e+01	-7.792270e+00
2.902227e+01	-7.833539e+00
2.918990e+01	-7.875774e+00
2.935850e+01	-7.917776e+00
2.952807e+01	-7.959606e+00
2.969863e+01	-8.000978e+00
2.987016e+01	-8.043630e+00
3.004269e+01	-8.086004e+00
3.021622e+01	-8.128178e+00
3.039075e+01	-8.170413e+00
3.056628e+01	-8.213208e+00
3.074283e+01	-8.255333e+00
3.092040e+01	-8.297738e+00
3.109900e+01	-8.340438e+00
3.127862e+01	-8.383801e+00
3.145929e+01	-8.426180e+00
3.164099e+01	-8.468919e+00
3.182375e+01	-8.511951e+00
3.200756e+01	-8.554963e+00
3.219244e+01	-8.598122e+00
3.237838e+01	-8.641224e+00
3.256540e+01	-8.684617e+00
3.275349e+01	-8.727694e+00
3.294268e+01	-8.770969e+00
3.313295e+01	-8.814785e+00
3.332433e+01	-8.857518e+00
3.351681e+01	-8.901805e+00
3.371040e+01	-8.944911e+00
3.390511e+01	-8.988885e+00
3.410094e+01	-9.032741e+00
3.429791e+01	-9.076732e+00
3.449601e+01	-9.120484e+00
3.469526e+01	-9.164114e+00
3.489566e+01	-9.208247e+00
3.509721e+01	-9.252571e+00
3.529993e+01	-9.295938e+00
3.550382e+01	-9.340455e+00
3.570889e+01	-9.384568e+00
3.591515e+01	-9.428968e+00
3.612259e+01	-9.473575e+00
3.633123e+01	-9.517876e+00
3.654108e+01	-9.562118e+00
3.675214e+01	-9.606606e+00
3.696442e+01	-9.651406e+00
3.717792e+01	-9.696135e+00
3.739266e+01	-9.740771e+00
3.760864e+01	-9.785487e+00
3.782587e+01	-9.830007e+00
3.804435e+01	-9.875162e+00
3.826409e+01	-9.919800e+00
3.848510e+01	-9.964507e+00
3.870739e+01	-1.000960e+01
3.893096e+01	-1.005504e+01
3.915583e+01	-1.009996e+01
3.938199e+01	-1.014554e+01
3.960946e+01	-1.019037e+01
3.983824e+01	-1.023580e+01
4.006834e+01	-1.028090e+01
4.029978e+01	-1.032637e+01
4.053255e+01	-1.037149e+01
4.076666e+01	-1.041673e+01
4.100213e+01	-1.046258e+01
4.123896e+01	-1.050813e+01
4.147715e+01	-1.055367e+01
4.171672e+01	-1.060022e+01
4.195767e+01	-1.064530e+01
4.220002e+01	-1.069112e+01
4.244377e+01	-1.073665e+01
4.268892e+01	-1.078264e+01
4.293549e+01	-1.082869e+01
4.318348e+01	-1.087423e+01
4.343291e+01	-1.092008e+01
4.368377e+01	-1.096677e+01
4.393609e+01	-1.101230e+01
4.418986e+01	-1.105905e+01
4.444510e+01	-1.110464e+01
4.470182e+01	-1.115115e+01
4.496001e+01	-1.119693e+01
4.521970e+01	-1.124382e+01
4.548089e+01	-1.128961e+01
4.574358e+01	-1.133547e+01
4.600779e+01	-1.138197e+01
4.627353e+01	-1.142862e+01
4.654081e+01	-1.147504e+01
4.680963e+01	-1.152170e+01
4.708000e+01	-1.156785e+01
4.735193e+01	-1.161471e+01
4.762543e+01	-1.166100e+01
4.790051e+01	-1.170768e+01
4.817719e+01	-1.175526e+01
4.845545e+01	-1.180133e+01
4.873533e+01	-1.184816e+01
4.901682e+01	-1.189493e+01
4.929994e+01	-1.194111e+01
4.958470e+01	-1.198836e+01
4.987110e+01	-1.203514e+01
5.015915e+01	-1.208210e+01
5.044887e+01	-1.212909e+01
5.074026e+01	-1.217652e+01
5.103333e+01	-1.222236e+01
5.132810e+01	-1.226997e+01
5.162457e+01	-1.231793e+01
5.192275e+01	-1.236414e+01
5.222265e+01	-1.241138e+01
5.252429e+01	-1.245925e+01
5.282767e+01	-1.250615e+01
5.313280e+01	-1.255282e+01
5.343969e+01	-1.260108e+01
5.374836e+01	-1.264797e+01
5.405880e+01	-1.269496e+01
5.437105e+01	-1.274269e+01
5.468509e+01	-1.278955e+01
5.500095e+01	-1.283722e+01
5.531863e+01	-1.288462e+01
5.563815e+01	-1.293140e+01
5.595951e+01	-1.297974e+01
5.628273e+01	-1.302717e+01
5.660782e+01	-1.307501e+01
5.693479e+01	-1.312204e+01
5.726364e+01	-1.316971e+01
5.759439e+01	-1.321735e+01
5.792705e+01	-1.326577e+01
5.826164e+01	-1.331268e+01
5.859815e+01	-1.336060e+01
5.893662e+01	-1.340855e+01
5.927703e+01	-1.345611e+01
5.961941e+01	-1.350389e+01
5.996377e+01	-1.355174e+01
6.031012e+01	-1.359950e+01
6.065847e+01	-1.364703e+01
6.100883e+01	-1.369524e+01
6.136121e+01	-1.374288e+01
6.171563e+01	-1.379056e+01
6.207210e+01	-1.383912e+01
6.243063e+01	-1.388656e+01
6.279122e+01	-1.393509e+01
6.315390e+01	-1.398302e+01
6.351868e+01	-1.403059e+01
6.388556e+01	-1.407838e+01
6.425456e+01	-1.412677e+01
6.462569e+01	-1.417418e+01
6.499897e+01	-1.422354e+01
6.537440e+01	-1.427191e+01
6.575200e+01	-1.431872e+01
6.613178e+01	-1.436828e+01
6.651375e+01	-1.441722e+01
6.689793e+01	-1.446433e+01
6.728433e+01	-1.451244e+01
6.767297e+01	-1.456161e+01
6.806384e+01	-1.460838e+01
6.845698e+01	-1.465785e+01
6.885238e+01	-1.470605e+01
6.925007e+01	-1.475400e+01
6.965005e+01	-1.480252e+01
7.005235e+01	-1.485065e+01
7.045697e+01	-1.489889e+01
7.086393e+01	-1.494730e+01
7.127323e+01	-1.499650e+01
7.168490e+01	-1.504455e+01
7.209895e+01	-1.509353e+01
7.251539e+01	-1.514149e+01
7.293424e+01	-1.519008e+01
7.335551e+01	-1.523815e+01
7.377920e+01	-1.528794e+01
7.420535e+01	-1.533564e+01
7.463396e+01	-1.538342e+01
7.506504e+01	-1.543276e+01
7.549861e+01	-1.548147e+01
7.593469e+01	-1.553009e+01
7.637328e+01	-1.557831e+01
7.681441e+01	-1.562825e+01
7.725809e+01	-1.567562e+01
7.770433e+01	-1.572371e+01
7.815315e+01	-1.577397e+01
7.860456e+01	-1.582211e+01
7.905857e+01	-1.587072e+01
7.951521e+01	-1.591918e+01
7.997449e+01	-1.596788e+01
8.043642e+01	-1.601684e+01
8.090102e+01	-1.606647e+01
8.136830e+01	-1.611359e+01
8.183828e+01	-1.616318e+01
8.231097e+01	-1.621262e+01
8.278640e+01	-1.626088e+01
8.326457e+01	-1.631044e+01
8.374550e+01	-1.635755e+01
8.422921e+01	-1.640901e+01
8.471572e+01	-1.645601e+01
8.520503e+01	-1.650533e+01
8.569717e+01	-1.655368e+01
8.619215e+01	-1.660356e+01
8.669000e+01	-1.665196e+01
8.719071e+01	-1.670097e+01
8.769432e+01	-1.674940e+01
8.820084e+01	-1.679932e+01
8.871029e+01	-1.684800e+01
8.922267e+01	-1.689731e+01
8.973802e+01	-1.694641e+01
9.025634e+01	-1.699630e+01
9.077766e+01	-1.704435e+01
9.130199e+01	-1.709333e+01
9.182935e+01	-1.714211e+01
9.235975e+01	-1.719214e+01
9.289321e+01	-1.724207e+01
9.342976e+01	-1.729035e+01
9.396941e+01	-1.733889e+01
9.451217e+01	-1.738873e+01
9.505807e+01	-1.743688e+01
9.560712e+01	-1.748605e+01
9.615934e+01	-1.753609e+01
9.671476e+01	-1.758378e+01
9.727338e+01	-1.763339e+01
9.783522e+01	-1.768273e+01
9.840032e+01	-1.773252e+01
9.896867e+01	-1.778064e+01
9.954031e+01	-1.783067e+01
1.001153e+02	-1.787932e+01
1.006935e+02	-1.792865e+01
1.012751e+02	-1.797744e+01
1.018601e+02	-1.802708e+01
1.024484e+02	-1.807616e+01
1.030402e+02	-1.812682e+01
1.036353e+02	-1.817536e+01
1.042339e+02	-1.822500e+01
1.048360e+02	-1.827495e+01
1.054415e+02	-1.832277e+01
1.060505e+02	-1.837184e+01
1.066631e+02	-1.842062e+01
1.072791e+02	-1.847034e+01
1.078988e+02	-1.852015e+01
1.085220e+02	-1.856955e+01
1.091488e+02	-1.861922e+01
1.097793e+02	-1.866723e+01
1.104133e+02	-1.871893e+01
1.110511e+02	-1.876677e+01
1.116925e+02	-1.881618e+01
1.123376e+02	-1.886609e+01
1.129865e+02	-1.891449e+01
1.136391e+02	-1.896475e+01
1.142955e+02	-1.901301e+01
1.149556e+02	-1.906221e+01
1.156196e+02	-1.911266e+01
1.162874e+02	-1.916202e+01
1.169591e+02	-1.921236e+01
1.176347e+02	-1.926098e+01
1.183141e+02	-1.930950e+01
1.189975e+02	-1.935993e+01
1.196848e+02	-1.940912e+01
1.203761e+02	-1.945863e+01
1.210714e+02	-1.951035e+01
1.217707e+02	-1.955824e+01
1.224740e+02	-1.960637e+01
1.231814e+02	-1.965712e+01
1.238929e+02	-1.970446e+01
1.246085e+02	-1.975630e+01
1.253283e+02	-1.980468e+01
1.260522e+02	-1.985420e+01
1.267802e+02	-1.990353e+01
1.275125e+02	-1.995446e+01
1.282490e+02	-2.000200e+01
1.289898e+02	-2.005167e+01
1.297348e+02	-2.010114e+01
1.304842e+02	-2.015165e+01
1.312378e+02	-2.019999e+01
1.319959e+02	-2.025025e+01
1.327583e+02	-2.029913e+01
1.335251e+02	-2.035009e+01
1.342963e+02	-2.039907e+01
1.350720e+02	-2.045032e+01
1.358522e+02	-2.049803e+01
1.366368e+02	-2.054947e+01
1.374260e+02	-2.059875e+01
1.382198e+02	-2.064861e+01
1.390182e+02	-2.069632e+01
1.398211e+02	-2.074711e+01
1.406287e+02	-2.079569e+01
1.414410e+02	-2.084563e+01
1.422579e+02	-2.089535e+01
1.430796e+02	-2.094498e+01
1.439060e+02	-2.099583e+01
1.447372e+02	-2.104522e+01
1.455732e+02	-2.109401e+01
1.464141e+02	-2.114512e+01
1.472597e+02	-2.119498e+01
1.481103e+02	-2.124309e+01
1.489658e+02	-2.129411e+01
1.498262e+02	-2.134313e+01
1.506916e+02	-2.139149e+01
1.515620e+02	-2.144102e+01
1.524374e+02	-2.149294e+01
1.533179e+02	-2.154263e+01
1.542034e+02	-2.158972e+01
1.550941e+02	-2.163854e+01
1.559899e+02	-2.169044e+01
1.568909e+02	-2.174018e+01
1.577971e+02	-2.178994e+01
1.587085e+02	-2.184004e+01
1.596252e+02	-2.188956e+01
1.605472e+02	-2.193909e+01
1.614745e+02	-2.198746e+01
1.624072e+02	-2.203816e+01
1.633453e+02	-2.208898e+01
1.642887e+02	-2.213631e+01
1.652377e+02	-2.218861e+01
1.661921e+02	-2.223755e+01
1.671520e+02	-2.228686e+01
1.681175e+02	-2.233513e+01
1.690885e+02	-2.238589e+01
1.700651e+02	-2.243804e+01
1.710474e+02	-2.248681e+01
1.720354e+02	-2.253335e+01
1.730291e+02	-2.258501e+01
1.740285e+02	-2.263460e+01
1.750337e+02	-2.268448e+01
1.760446e+02	-2.273869e+01
1.770615e+02	-2.278504e+01
1.780842e+02	-2.283533e+01
1.791128e+02	-2.288505e+01
1.801473e+02	-2.293386e+01
1.811878e+02	-2.298227e+01
1.822344e+02	-2.303340e+01
1.832870e+02	-2.308399e+01
1.843456e+02	-2.313383e+01
1.854104e+02	-2.318234e+01
1.864813e+02	-2.323221e+01
1.875584e+02	-2.328152e+01
1.886418e+02	-2.333337e+01
1.897313e+02	-2.338143e+01
1.908272e+02	-2.343456e+01
1.919294e+02	-2.348435e+01
1.930380e+02	-2.353185e+01
1.941530e+02	-2.358117e+01
1.952744e+02	-2.363064e+01
1.964023e+02	-2.368186e+01
1.975367e+02	-2.373050e+01
1.986777e+02	-2.378082e+01
1.998252e+02	-2.383301e+01
2.009794e+02	-2.388257e+01
2.021403e+02	-2.393207e+01
2.033078e+02	-2.397852e+01
2.044821e+02	-2.402756e+01
2.056632e+02	-2.408200e+01
2.068511e+02	-2.412916e+01
2.080459e+02	-2.418013e+01
2.092475e+02	-2.422827e+01
2.104561e+02	-2.427913e+01
2.116717e+02	-2.432751e+01
2.128943e+02	-2.437880e+01
2.141240e+02	-2.442779e+01
2.153608e+02	-2.448030e+01
2.166047e+02	-2.452964e+01
2.178558e+02	-2.457823e+01
2.191141e+02	-2.462944e+01
2.203797e+02	-2.467904e+01
2.216526e+02	-2.472764e+01
2.229329e+02	-2.477819e+01
2.242205e+02	-2.482945e+01
2.255156e+02	-2.487964e+01
2.268182e+02	-2.492700e+01
2.281283e+02	-2.497926e+01
2.294459e+02	-2.503145e+01
2.307712e+02	-2.507726e+01
2.321041e+02	-2.512866e+01
2.334447e+02	-2.517927e+01
2.347931e+02	-2.522531e+01
2.361493e+02	-2.527990e+01
2.375133e+02	-2.532803e+01
2.388851e+02	-2.537898e+01
2.402649e+02	-2.542702e+01
2.416527e+02	-2.547669e+01
2.430484e+02	-2.552656e+01
2.444523e+02	-2.557908e+01
2.458642e+02	-2.562837e+01
2.472843e+02	-2.567816e+01
2.487126e+02	-2.572792e+01
2.501492e+02	-2.577779e+01
2.515940e+02	-2.582615e+01
2.530472e+02	-2.587600e+01
2.545088e+02	-2.592886e+01
2.559789e+02	-2.597723e+01
2.574574e+02	-2.602586e+01
2.589444e+02	-2.607880e+01
2.604401e+02	-2.612973e+01
2.619444e+02	-2.617570e+01
2.634574e+02	-2.622371e+01
2.649791e+02	-2.627838e+01
2.665096e+02	-2.632839e+01
2.680489e+02	-2.637562e+01
2.695972e+02	-2.642312e+01
2.711544e+02	-2.647864e+01
2.727205e+02	-2.652670e+01
2.742958e+02	-2.657555e+01
2.758801e+02	-2.662708e+01
2.774736e+02	-2.667487e+01
2.790762e+02	-2.672748e+01
2.806882e+02	-2.677968e+01
2.823094e+02	-2.682533e+01
2.839400e+02	-2.687996e+01
2.855800e+02	-2.692738e+01
2.872295e+02	-2.697598e+01
2.888886e+02	-2.702892e+01
2.905572e+02	-2.707605e+01
2.922354e+02	-2.712862e+01
2.939234e+02	-2.717485e+01
2.956211e+02	-2.722732e+01
2.973286e+02	-2.727827e+01
2.990459e+02	-2.732267e+01
3.007732e+02	-2.737446e+01
3.025104e+02	-2.742790e+01
3.042577e+02	-2.747508e+01
3.060151e+02	-2.752809e+01
3.077826e+02	-2.757911e+01
3.095604e+02	-2.762435e+01
3.113484e+02	-2.768058e+01
3.131467e+02	-2.772706e+01
3.149554e+02	-2.777776e+01
3.167746e+02	-2.782906e+01
3.186043e+02	-2.787401e+01
3.204445e+02	-2.792616e+01
3.222954e+02	-2.797621e+01
3.241570e+02	-2.802688e+01
3.260293e+02	-2.807299e+01
3.279124e+02	-2.813056e+01
3.298064e+02	-2.818319e+01
3.317114e+02	-2.822612e+01
3.336273e+02	-2.827568e+01
3.355544e+02	-2.832603e+01
3.374925e+02	-2.837991e+01
3.394418e+02	-2.842710e+01
3.414024e+02	-2.847059e+01
3.433744e+02	-2.853049e+01
3.453577e+02	-2.857634e+01
3.473525e+02	-2.862872e+01
3.493588e+02	-2.867738e+01
3.513766e+02	-2.872394e+01
3.534062e+02	-2.877480e+01
3.554474e+02	-2.882529e+01
3.575005e+02	-2.887505e+01
3.595654e+02	-2.892604e+01
3.616422e+02	-2.897821e+01
3.637311e+02	-2.902235e+01
3.658320e+02	-2.907398e+01
3.679450e+02	-2.913189e+01
3.700702e+02	-2.917799e+01
3.722077e+02	-2.922759e+01
3.743576e+02	-2.927876e+01
3.765199e+02	-2.932019e+01
3.786946e+02	-2.937769e+01
3.808820e+02	-2.942405e+01
3.830819e+02	-2.947973e+01
3.852946e+02	-2.952823e+01
3.875200e+02	-2.958127e+01
3.897583e+02	-2.962621e+01
3.920096e+02	-2.967672e+01
3.942738e+02	-2.972709e+01
3.965511e+02	-2.977623e+01
3.988416e+02	-2.983088e+01
4.011452e+02	-2.987633e+01
4.034622e+02	-2.992854e+01
4.057926e+02	-2.997924e+01
4.081365e+02	-3.003022e+01
4.104938e+02	-3.008100e+01
4.128648e+02	-3.012953e+01
4.152495e+02	-3.018277e+01
4.176480e+02	-3.022736e+01
4.200603e+02	-3.027887e+01
4.224866e+02	-3.032947e+01
4.249268e+02	-3.038416e+01
4.273812e+02	-3.043339e+01
4.298497e+02	-3.048159e+01
4.323325e+02	-3.053252e+01
4.348297e+02	-3.058939e+01
4.373412e+02	-3.062929e+01
4.398673e+02	-3.067686e+01
4.424079e+02	-3.072396e+01
4.449633e+02	-3.078040e+01
4.475334e+02	-3.083204e+01
4.501183e+02	-3.088149e+01
4.527182e+02	-3.092901e+01
4.553330e+02	-3.098478e+01
4.579630e+02	-3.103543e+01
4.606082e+02	-3.108601e+01
4.632687e+02	-3.112942e+01
4.659445e+02	-3.118244e+01
4.686358e+02	-3.123825e+01
4.713426e+02	-3.128285e+01
4.740650e+02	-3.133203e+01
4.768032e+02	-3.137958e+01
4.795572e+02	-3.143109e+01
4.823271e+02	-3.148689e+01
4.851130e+02	-3.153938e+01
4.879150e+02	-3.157894e+01
4.907332e+02	-3.163409e+01
4.935676e+02	-3.168758e+01
4.964185e+02	-3.173755e+01
4.992858e+02	-3.178372e+01
5.021696e+02	-3.183833e+01
5.050701e+02	-3.188237e+01
5.079874e+02	-3.193258e+01
5.109215e+02	-3.198368e+01
5.138726e+02	-3.203544e+01
5.168407e+02	-3.208751e+01
5.198259e+02	-3.213525e+01
5.228284e+02	-3.217958e+01
5.258482e+02	-3.223234e+01
5.288855e+02	-3.228904e+01
5.319403e+02	-3.233712e+01
5.350128e+02	-3.238765e+01
5.381030e+02	-3.243257e+01
5.412111e+02	-3.248797e+01
5.443371e+02	-3.253933e+01
5.474812e+02	-3.258766e+01
5.506434e+02	-3.263480e+01
5.538239e+02	-3.268882e+01
5.570228e+02	-3.273580e+01
5.602401e+02	-3.279148e+01
5.634760e+02	-3.284602e+01
5.667306e+02	-3.288795e+01
5.700040e+02	-3.293193e+01
5.732964e+02	-3.298961e+01
5.766077e+02	-3.303727e+01
5.799382e+02	-3.309373e+01
5.832879e+02	-3.313691e+01
5.866569e+02	-3.319091e+01
5.900454e+02	-3.324351e+01
5.934535e+02	-3.329182e+01
5.968813e+02	-3.333049e+01
6.003288e+02	-3.339110e+01
6.037963e+02	-3.344017e+01
6.072838e+02	-3.349164e+01
6.107914e+02	-3.353720e+01
6.143194e+02	-3.360114e+01
6.178676e+02	-3.364413e+01
6.214364e+02	-3.369518e+01
6.250258e+02	-3.374920e+01
6.286359e+02	-3.378858e+01
6.322669e+02	-3.384734e+01
6.359189e+02	-3.389660e+01
6.395919e+02	-3.394065e+01
6.432862e+02	-3.399915e+01
6.470017e+02	-3.404870e+01
6.507388e+02	-3.409397e+01
6.544974e+02	-3.414771e+01
6.582778e+02	-3.419721e+01
6.620800e+02	-3.424708e+01
6.659041e+02	-3.429549e+01
6.697504e+02	-3.434747e+01
6.736188e+02	-3.439170e+01
6.775096e+02	-3.445518e+01
6.814229e+02	-3.449763e+01
6.853587e+02	-3.455340e+01
6.893173e+02	-3.459685e+01
6.932988e+02	-3.464797e+01
6.973033e+02	-3.469882e+01
7.013309e+02	-3.474844e+01
