Frequency(Hz)	Magnitude(dB)
1.000000e+01	-2.188423e+00
1.005776e+01	-2.208404e+00
1.011585e+01	-2.228630e+00
1.017428e+01	-2.248551e+00
1.023305e+01	-2.268965e+00
1.029215e+01	-2.289428e+00
1.035160e+01	-2.309927e+00
1.041139e+01	-2.330730e+00
1.047153e+01	-2.351440e+00
1.053201e+01	-2.372484e+00
1.059284e+01	-2.393722e+00
1.065403e+01	-2.415090e+00
1.071556e+01	-2.436334e+00
1.077746e+01	-2.457922e+00
1.083971e+01	-2.479676e+00
1.090232e+01	-2.501287e+00
1.096529e+01	-2.523247e+00
1.102862e+01	-2.545605e+00
1.109232e+01	-2.567644e+00
1.115639e+01	-2.590201e+00
1.122083e+01	-2.612352e+00
1.128564e+01	-2.635275e+00
1.135083e+01	-2.658342e+00
1.141639e+01	-2.681118e+00
1.148233e+01	-2.704333e+00
1.154865e+01	-2.727538e+00
1.161536e+01	-2.751017e+00
1.168245e+01	-2.774366e+00
1.174992e+01	-2.798089e+00
1.181779e+01	-2.822070e+00
1.188605e+01	-2.845946e+00
1.195470e+01	-2.870277e+00
1.202375e+01	-2.894337e+00
1.209320e+01	-2.918508e+00
1.216305e+01	-2.943267e+00
1.223330e+01	-2.967882e+00
1.230396e+01	-2.992907e+00
1.237503e+01	-3.017720e+00
1.244651e+01	-3.043022e+00
1.251840e+01	-3.068238e+00
1.259070e+01	-3.093658e+00
1.266343e+01	-3.119241e+00
1.273657e+01	-3.144843e+00
1.281014e+01	-3.170765e+00
1.288413e+01	-3.196927e+00
1.295855e+01	-3.222749e+00
1.303339e+01	-3.249069e+00
1.310867e+01	-3.275444e+00
1.318439e+01	-3.302102e+00
1.326054e+01	-3.328994e+00
1.333713e+01	-3.355718e+00
1.341417e+01	-3.382629e+00
1.349165e+01	-3.409651e+00
1.356958e+01	-3.437179e+00
1.364795e+01	-3.464407e+00
1.372678e+01	-3.492055e+00
1.380607e+01	-3.519709e+00
1.388581e+01	-3.547637e+00
1.396602e+01	-3.575766e+00
1.404668e+01	-3.604035e+00
1.412782e+01	-3.632152e+00
1.420942e+01	-3.660542e+00
1.429149e+01	-3.689047e+00
1.437404e+01	-3.717554e+00
1.445706e+01	-3.746881e+00
1.454057e+01	-3.775804e+00
1.462455e+01	-3.804818e+00
1.470902e+01	-3.834260e+00
1.479398e+01	-3.863382e+00
1.487943e+01	-3.892781e+00
1.496537e+01	-3.922510e+00
1.505181e+01	-3.952306e+00
1.513875e+01	-3.982604e+00
1.522619e+01	-4.012605e+00
1.531414e+01	-4.042961e+00
1.540259e+01	-4.073220e+00
1.549156e+01	-4.103538e+00
1.558103e+01	-4.134095e+00
1.567103e+01	-4.165114e+00
1.576155e+01	-4.196212e+00
1.585258e+01	-4.226896e+00
1.594415e+01	-4.257967e+00
1.603624e+01	-4.289633e+00
1.612886e+01	-4.321222e+00
1.622202e+01	-4.352763e+00
1.631572e+01	-4.384305e+00
1.640996e+01	-4.415820e+00
1.650474e+01	-4.447915e+00
1.660008e+01	-4.480272e+00
1.669596e+01	-4.512474e+00
1.679239e+01	-4.545297e+00
1.688938e+01	-4.577376e+00
1.698694e+01	-4.610081e+00
1.708505e+01	-4.642852e+00
1.718373e+01	-4.675793e+00
1.728299e+01	-4.709031e+00
1.738281e+01	-4.741819e+00
1.748322e+01	-4.775492e+00
1.758420e+01	-4.808806e+00
1.768576e+01	-4.842464e+00
1.778792e+01	-4.876076e+00
1.789066e+01	-4.909426e+00
1.799399e+01	-4.943632e+00
1.809793e+01	-4.977754e+00
1.820246e+01	-5.012204e+00
1.830760e+01	-5.046303e+00
1.841334e+01	-5.080647e+00
1.851969e+01	-5.115403e+00
1.862666e+01	-5.150014e+00
1.873425e+01	-5.184610e+00
1.884246e+01	-5.219902e+00
1.895129e+01	-5.254647e+00
1.906075e+01	-5.289937e+00
1.917085e+01	-5.325652e+00
1.928158e+01	-5.360649e+00
1.939295e+01	-5.395940e+00
1.950496e+01	-5.431819e+00
1.961762e+01	-5.467588e+00
1.973093e+01	-5.503409e+00
1.984490e+01	-5.539589e+00
1.995952e+01	-5.575814e+00
2.007480e+01	-5.611628e+00
2.019076e+01	-5.648332e+00
2.030738e+01	-5.684633e+00
2.042467e+01	-5.721140e+00
2.054264e+01	-5.757914e+00
2.066130e+01	-5.794697e+00
2.078064e+01	-5.831778e+00
2.090066e+01	-5.868820e+00
2.102139e+01	-5.905998e+00
2.114280e+01	-5.942774e+00
2.126492e+01	-5.980324e+00
2.138775e+01	-6.017587e+00
2.151128e+01	-6.055448e+00
2.163553e+01	-6.093214e+00
2.176050e+01	-6.130828e+00
2.188619e+01	-6.168290e+00
2.201260e+01	-6.206900e+00
2.213974e+01	-6.244750e+00
2.226762e+01	-6.283093e+00
2.239624e+01	-6.321046e+00
2.252560e+01	-6.359795e+00
2.265571e+01	-6.398277e+00
2.278656e+01	-6.436946e+00
2.291818e+01	-6.475354e+00
2.305055e+01	-6.514157e+00
2.318369e+01	-6.553607e+00
2.331760e+01	-6.592276e+00
2.345228e+01	-6.631406e+00
2.358774e+01	-6.670334e+00
2.372398e+01	-6.709949e+00
2.386101e+01	-6.749481e+00
2.399883e+01	-6.788665e+00
2.413745e+01	-6.828007e+00
2.427686e+01	-6.867714e+00
2.441709e+01	-6.907918e+00
2.455812e+01	-6.947894e+00
2.469997e+01	-6.988132e+00
2.484263e+01	-7.028166e+00
2.498612e+01	-7.067911e+00
2.513044e+01	-7.107973e+00
2.527559e+01	-7.148661e+00
2.542158e+01	-7.188943e+00
2.556842e+01	-7.229216e+00
2.571610e+01	-7.269755e+00
2.586463e+01	-7.311101e+00
2.601403e+01	-7.350872e+00
2.616428e+01	-7.392166e+00
2.631541e+01	-7.433553e+00
2.646740e+01	-7.474508e+00
2.662028e+01	-7.515585e+00
2.677404e+01	-7.556441e+00
2.692868e+01	-7.597787e+00
2.708422e+01	-7.639313e+00
2.724066e+01	-7.680808e+00
2.739800e+01	-7.722114e+00
2.755625e+01	-7.763680e+00
2.771541e+01	-7.805610e+00
2.787550e+01	-7.847773e+00
2.803650e+01	-7.889489e+00
2.819844e+01	-7.931468e+00
2.836131e+01	-7.973007e+00
2.852513e+01	-8.015100e+00
2.868989e+01	-8.057428e+00
2.885560e+01	-8.100248e+00
2.902227e+01	-8.141615e+00
2.918990e+01	-8.184554e+00
2.935850e+01	-8.227145e+00
2.952807e+01	-8.269477e+00
2.969863e+01	-8.312377e+00
2.987016e+01	-8.355091e+00
3.004269e+01	-8.397291e+00
3.021622e+01	-8.440746e+00
3.039075e+01	-8.483023e+00
3.056628e+01	-8.525717e+00
3.074283e+01	-8.569141e+00
3.092040e+01	-8.612143e+00
3.109900e+01	-8.655445e+00
3.127862e+01	-8.699125e+00
3.145929e+01	-8.741894e+00
3.164099e+01	-8.785350e+00
3.182375e+01	-8.828744e+00
3.200756e+01	-8.872377e+00
3.219244e+01	-8.915827e+00
3.237838e+01	-8.959558e+00
3.256540e+01	-9.003001e+00
3.275349e+01	-9.047023e+00
3.294268e+01	-9.090957e+00
3.313295e+01	-9.134636e+00
3.332433e+01	-9.178560e+00
3.351681e+01	-9.222802e+00
3.371040e+01	-9.266621e+00
3.390511e+01	-9.311023e+00
3.410094e+01	-9.354700e+00
3.429791e+01	-9.398802e+00
3.449601e+01	-9.444290e+00
3.469526e+01	-9.488268e+00
3.489566e+01	-9.532503e+00
3.509721e+01	-9.576794e+00
3.529993e+01	-9.621685e+00
3.550382e+01	-9.666426e+00
3.570889e+01	-9.711093e+00
3.591515e+01	-9.755559e+00
3.612259e+01	-9.799964e+00
3.633123e+01	-9.845188e+00
3.654108e+01	-9.890368e+00
3.675214e+01	-9.935130e+00
3.696442e+01	-9.980367e+00
3.717792e+01	-1.002480e+01
3.739266e+01	-1.007004e+01
3.760864e+01	-1.011515e+01
3.782587e+01	-1.016052e+01
3.804435e+01	-1.020545e+01
3.826409e+01	-1.025024e+01
3.848510e+01	-1.029575e+01
3.870739e+01	-1.034076e+01
3.893096e+01	-1.038693e+01
3.915583e+01	-1.043242e+01
3.938199e+01	-1.047759e+01
3.960946e+01	-1.052344e+01
3.983824e+01	-1.056894e+01
4.006834e+01	-1.061457e+01
4.029978e+01	-1.066002e+01
4.053255e+01	-1.070607e+01
4.076666e+01	-1.075186e+01
4.100213e+01	-1.079786e+01
4.123896e+01	-1.084312e+01
4.147715e+01	-1.088986e+01
4.171672e+01	-1.093486e+01
4.195767e+01	-1.098136e+01
4.220002e+01	-1.102735e+01
4.244377e+01	-1.107381e+01
4.268892e+01	-1.111995e+01
4.293549e+01	-1.116608e+01
4.318348e+01	-1.121263e+01
4.343291e+01	-1.125891e+01
4.368377e+01	-1.130483e+01
4.393609e+01	-1.135108e+01
4.418986e+01	-1.139785e+01
4.444510e+01	-1.144382e+01
4.470182e+01	-1.149082e+01
4.496001e+01	-1.153721e+01
4.521970e+01	-1.158415e+01
4.548089e+01	-1.162982e+01
4.574358e+01	-1.167685e+01
4.600779e+01	-1.172313e+01
4.627353e+01	-1.176965e+01
4.654081e+01	-1.181666e+01
4.680963e+01	-1.186403e+01
4.708000e+01	-1.191019e+01
4.735193e+01	-1.195747e+01
4.762543e+01	-1.200319e+01
4.790051e+01	-1.205102e+01
4.817719e+01	-1.209758e+01
4.845545e+01	-1.214472e+01
4.873533e+01	-1.219138e+01
4.901682e+01	-1.223822e+01
4.929994e+01	-1.228593e+01
4.958470e+01	-1.233215e+01
4.987110e+01	-1.238025e+01
5.015915e+01	-1.242688e+01
5.044887e+01	-1.247416e+01
5.074026e+01	-1.252163e+01
5.103333e+01	-1.256864e+01
5.132810e+01	-1.261528e+01
5.162457e+01	-1.266288e+01
5.192275e+01	-1.271042e+01
5.222265e+01	-1.275774e+01
5.252429e+01	-1.280474e+01
5.282767e+01	-1.285284e+01
5.313280e+01	-1.290096e+01
5.343969e+01	-1.294822e+01
5.374836e+01	-1.299470e+01
5.405880e+01	-1.304297e+01
5.437105e+01	-1.309070e+01
5.468509e+01	-1.313786e+01
5.500095e+01	-1.318534e+01
5.531863e+01	-1.323361e+01
5.563815e+01	-1.328057e+01
5.595951e+01	-1.332785e+01
5.628273e+01	-1.337560e+01
5.660782e+01	-1.342364e+01
5.693479e+01	-1.347292e+01
5.726364e+01	-1.351896e+01
5.759439e+01	-1.356708e+01
5.792705e+01	-1.361503e+01
5.826164e+01	-1.366271e+01
5.859815e+01	-1.371065e+01
5.893662e+01	-1.375890e+01
5.927703e+01	-1.380763e+01
5.961941e+01	-1.385490e+01
5.996377e+01	-1.390283e+01
6.031012e+01	-1.395056e+01
6.065847e+01	-1.399879e+01
6.100883e+01	-1.404591e+01
6.136121e+01	-1.409534e+01
6.171563e+01	-1.414304e+01
6.207210e+01	-1.419174e+01
6.243063e+01	-1.423932e+01
6.279122e+01	-1.428800e+01
6.315390e+01	-1.433623e+01
6.351868e+01	-1.438312e+01
6.388556e+01	-1.443153e+01
6.425456e+01	-1.447994e+01
6.462569e+01	-1.452848e+01
6.499897e+01	-1.457674e+01
6.537440e+01	-1.462477e+01
6.575200e+01	-1.467310e+01
6.613178e+01	-1.472153e+01
6.651375e+01	-1.477027e+01
6.689793e+01	-1.481831e+01
6.728433e+01	-1.486753e+01
6.767297e+01	-1.491545e+01
6.806384e+01	-1.496384e+01
6.845698e+01	-1.501178e+01
6.885238e+01	-1.506056e+01
6.925007e+01	-1.510961e+01
6.965005e+01	-1.515705e+01
7.005235e+01	-1.520647e+01
7.045697e+01	-1.525440e+01
7.086393e+01	-1.530257e+01
7.127323e+01	-1.535248e+01
7.168490e+01	-1.540060e+01
7.209895e+01	-1.544867e+01
7.251539e+01	-1.549598e+01
7.293424e+01	-1.554628e+01
7.335551e+01	-1.559443e+01
7.377920e+01	-1.564292e+01
7.420535e+01	-1.569225e+01
7.463396e+01	-1.574096e+01
7.506504e+01	-1.578844e+01
7.549861e+01	-1.583720e+01
7.593469e+01	-1.588791e+01
7.637328e+01	-1.593575e+01
7.681441e+01	-1.598589e+01
7.725809e+01	-1.603258e+01
7.770433e+01	-1.608164e+01
7.815315e+01	-1.612921e+01
7.860456e+01	-1.617889e+01
7.905857e+01	-1.622795e+01
7.951521e+01	-1.627753e+01
7.997449e+01	-1.632538e+01
8.043642e+01	-1.637483e+01
8.090102e+01	-1.642484e+01
8.136830e+01	-1.647227e+01
8.183828e+01	-1.652191e+01
8.231097e+01	-1.657076e+01
8.278640e+01	-1.661891e+01
8.326457e+01	-1.666718e+01
8.374550e+01	-1.671841e+01
8.422921e+01	-1.676631e+01
8.471572e+01	-1.681410e+01
8.520503e+01	-1.686559e+01
8.569717e+01	-1.691196e+01
8.619215e+01	-1.696092e+01
8.669000e+01	-1.701212e+01
8.719071e+01	-1.705997e+01
8.769432e+01	-1.710937e+01
8.820084e+01	-1.715824e+01
8.871029e+01	-1.720827e+01
8.922267e+01	-1.725641e+01
8.973802e+01	-1.730642e+01
9.025634e+01	-1.735552e+01
9.077766e+01	-1.740469e+01
9.130199e+01	-1.745387e+01
9.182935e+01	-1.750262e+01
9.235975e+01	-1.755106e+01
9.289321e+01	-1.760175e+01
9.342976e+01	-1.765006e+01
9.396941e+01	-1.769964e+01
9.451217e+01	-1.774842e+01
9.505807e+01	-1.779685e+01
9.560712e+01	-1.784644e+01
9.615934e+01	-1.789592e+01
9.671476e+01	-1.794579e+01
9.727338e+01	-1.799487e+01
9.783522e+01	-1.804412e+01
9.840032e+01	-1.809368e+01
9.896867e+01	-1.814406e+01
9.954031e+01	-1.819194e+01
1.001153e+02	-1.824036e+01
1.006935e+02	-1.828897e+01
1.012751e+02	-1.833934e+01
1.018601e+02	-1.838917e+01
1.024484e+02	-1.843770e+01
1.030402e+02	-1.848651e+01
1.036353e+02	-1.853656e+01
1.042339e+02	-1.858602e+01
1.048360e+02	-1.863385e+01
1.054415e+02	-1.868447e+01
1.060505e+02	-1.873356e+01
1.066631e+02	-1.878380e+01
1.072791e+02	-1.883259e+01
1.078988e+02	-1.888238e+01
1.085220e+02	-1.893174e+01
1.091488e+02	-1.897946e+01
1.097793e+02	-1.902993e+01
1.104133e+02	-1.907911e+01
1.110511e+02	-1.912911e+01
1.116925e+02	-1.917915e+01
1.123376e+02	-1.922884e+01
1.129865e+02	-1.927890e+01
1.136391e+02	-1.932759e+01
1.142955e+02	-1.937547e+01
1.149556e+02	-1.942648e+01
1.156196e+02	-1.947516e+01
1.162874e+02	-1.952459e+01
1.169591e+02	-1.957550e+01
1.176347e+02	-1.962376e+01
1.183141e+02	-1.967264e+01
1.189975e+02	-1.972220e+01
1.196848e+02	-1.977295e+01
1.203761e+02	-1.982018e+01
1.210714e+02	-1.987120e+01
1.217707e+02	-1.992177e+01
1.224740e+02	-1.996952e+01
1.231814e+02	-2.001890e+01
1.238929e+02	-2.006902e+01
1.246085e+02	-2.011731e+01
1.253283e+02	-2.016888e+01
1.260522e+02	-2.021874e+01
1.267802e+02	-2.026766e+01
1.275125e+02	-2.031700e+01
1.282490e+02	-2.036493e+01
1.289898e+02	-2.041555e+01
1.297348e+02	-2.046584e+01
1.304842e+02	-2.051505e+01
1.312378e+02	-2.056413e+01
1.319959e+02	-2.061425e+01
1.327583e+02	-2.066422e+01
1.335251e+02	-2.071312e+01
1.342963e+02	-2.076137e+01
1.350720e+02	-2.081367e+01
1.358522e+02	-2.086258e+01
1.366368e+02	-2.091243e+01
1.374260e+02	-2.096518e+01
1.382198e+02	-2.101021e+01
1.390182e+02	-2.106088e+01
1.398211e+02	-2.110985e+01
1.406287e+02	-2.116042e+01
1.414410e+02	-2.121102e+01
1.422579e+02	-2.126024e+01
1.430796e+02	-2.130938e+01
1.439060e+02	-2.135882e+01
1.447372e+02	-2.140742e+01
1.455732e+02	-2.145783e+01
1.464141e+02	-2.150527e+01
1.472597e+02	-2.155821e+01
1.481103e+02	-2.160878e+01
1.489658e+02	-2.165717e+01
1.498262e+02	-2.170676e+01
1.506916e+02	-2.175510e+01
1.515620e+02	-2.180854e+01
1.524374e+02	-2.185703e+01
1.533179e+02	-2.190718e+01
1.542034e+02	-2.195639e+01
1.550941e+02	-2.200642e+01
1.559899e+02	-2.205563e+01
1.568909e+02	-2.210637e+01
1.577971e+02	-2.215679e+01
1.587085e+02	-2.220380e+01
1.596252e+02	-2.225368e+01
1.605472e+02	-2.230486e+01
1.614745e+02	-2.235294e+01
1.624072e+02	-2.240488e+01
1.633453e+02	-2.245285e+01
1.642887e+02	-2.250214e+01
1.652377e+02	-2.255122e+01
1.661921e+02	-2.260116e+01
1.671520e+02	-2.265126e+01
1.681175e+02	-2.270193e+01
1.690885e+02	-2.275431e+01
1.700651e+02	-2.280161e+01
1.710474e+02	-2.285121e+01
1.720354e+02	-2.290109e+01
1.730291e+02	-2.295057e+01
1.740285e+02	-2.300024e+01
1.750337e+02	-2.305028e+01
1.760446e+02	-2.310023e+01
1.770615e+02	-2.314816e+01
1.780842e+02	-2.320000e+01
1.791128e+02	-2.325127e+01
1.801473e+02	-2.329958e+01
1.811878e+02	-2.335081e+01
1.822344e+02	-2.339690e+01
1.832870e+02	-2.344839e+01
1.843456e+02	-2.349782e+01
1.854104e+02	-2.354982e+01
1.864813e+02	-2.360140e+01
1.875584e+02	-2.364701e+01
1.886418e+02	-2.369765e+01
1.897313e+02	-2.374707e+01
1.908272e+02	-2.379740e+01
1.919294e+02	-2.384773e+01
1.930380e+02	-2.389590e+01
1.941530e+02	-2.394772e+01
1.952744e+02	-2.399774e+01
1.964023e+02	-2.404545e+01
1.975367e+02	-2.409807e+01
1.986777e+02	-2.414807e+01
1.998252e+02	-2.419505e+01
2.009794e+02	-2.424590e+01
2.021403e+02	-2.429711e+01
2.033078e+02	-2.434646e+01
2.044821e+02	-2.439733e+01
2.056632e+02	-2.444591e+01
2.068511e+02	-2.449507e+01
2.080459e+02	-2.454547e+01
2.092475e+02	-2.459598e+01
2.104561e+02	-2.464730e+01
2.116717e+02	-2.469592e+01
2.128943e+02	-2.474778e+01
2.141240e+02	-2.479588e+01
2.153608e+02	-2.484801e+01
2.166047e+02	-2.489530e+01
2.178558e+02	-2.494472e+01
2.191141e+02	-2.499424e+01
2.203797e+02	-2.504470e+01
2.216526e+02	-2.509728e+01
2.229329e+02	-2.514601e+01
2.242205e+02	-2.519433e+01
2.255156e+02	-2.524569e+01
2.268182e+02	-2.529227e+01
2.281283e+02	-2.534521e+01
2.294459e+02	-2.539632e+01
2.307712e+02	-2.544600e+01
2.321041e+02	-2.549222e+01
2.334447e+02	-2.554638e+01
2.347931e+02	-2.559835e+01
2.361493e+02	-2.564192e+01
2.375133e+02	-2.569376e+01
2.388851e+02	-2.574251e+01
2.402649e+02	-2.579253e+01
2.416527e+02	-2.584202e+01
2.430484e+02	-2.589550e+01
2.444523e+02	-2.594327e+01
2.458642e+02	-2.599345e+01
2.472843e+02	-2.604237e+01
2.487126e+02	-2.609239e+01
2.501492e+02	-2.614451e+01
2.515940e+02	-2.618959e+01
2.530472e+02	-2.624488e+01
2.545088e+02	-2.629721e+01
2.559789e+02	-2.634647e+01
2.574574e+02	-2.638973e+01
2.589444e+02	-2.644359e+01
2.604401e+02	-2.649488e+01
2.619444e+02	-2.654255e+01
2.634574e+02	-2.659328e+01
2.649791e+02	-2.664682e+01
2.665096e+02	-2.669122e+01
2.680489e+02	-2.674415e+01
2.695972e+02	-2.679756e+01
2.711544e+02	-2.684314e+01
2.727205e+02	-2.689766e+01
2.742958e+02	-2.694316e+01
2.758801e+02	-2.699710e+01
2.774736e+02	-2.704090e+01
2.790762e+02	-2.708994e+01
2.806882e+02	-2.714495e+01
2.823094e+02	-2.718912e+01
2.839400e+02	-2.724392e+01
2.855800e+02	-2.728912e+01
2.872295e+02	-2.734474e+01
2.888886e+02	-2.739314e+01
2.905572e+02	-2.743872e+01
2.922354e+02	-2.749398e+01
2.939234e+02	-2.754159e+01
2.956211e+02	-2.759425e+01
2.973286e+02	-2.764519e+01
2.990459e+02	-2.769082e+01
3.007732e+02	-2.774259e+01
3.025104e+02	-2.779757e+01
3.042577e+02	-2.784396e+01
3.060151e+02	-2.789310e+01
3.077826e+02	-2.794431e+01
3.095604e+02	-2.799381e+01
3.113484e+02	-2.804354e+01
3.131467e+02	-2.809343e+01
3.149554e+02	-2.814356e+01
3.167746e+02	-2.819412e+01
3.186043e+02	-2.824420e+01
3.204445e+02	-2.829260e+01
3.222954e+02	-2.833961e+01
3.241570e+02	-2.839463e+01
3.260293e+02	-2.844027e+01
3.279124e+02	-2.849292e+01
3.298064e+02	-2.854290e+01
3.317114e+02	-2.859253e+01
3.336273e+02	-2.864868e+01
3.355544e+02	-2.869351e+01
3.374925e+02	-2.874291e+01
3.394418e+02	-2.879203e+01
3.414024e+02	-2.884449e+01
3.433744e+02	-2.889478e+01
3.453577e+02	-2.894505e+01
3.473525e+02	-2.899287e+01
3.493588e+02	-2.904318e+01
3.513766e+02	-2.909301e+01
3.534062e+02	-2.914121e+01
3.554474e+02	-2.919202e+01
3.575005e+02	-2.924544e+01
3.595654e+02	-2.929229e+01
3.616422e+02	-2.934759e+01
3.637311e+02	-2.939274e+01
3.658320e+02	-2.944427e+01
3.679450e+02	-2.949921e+01
3.700702e+02	-2.954681e+01
3.722077e+02	-2.959728e+01
3.743576e+02	-2.964141e+01
3.765199e+02	-2.969505e+01
3.786946e+02	-2.974236e+01
3.808820e+02	-2.979992e+01
3.830819e+02	-2.984354e+01
3.852946e+02	-2.989978e+01
3.875200e+02	-2.994354e+01
3.897583e+02	-2.999515e+01
3.920096e+02	-3.004631e+01
3.942738e+02	-3.009566e+01
3.965511e+02	-3.014403e+01
3.988416e+02	-3.019876e+01
4.011452e+02	-3.024446e+01
4.034622e+02	-3.029884e+01
4.057926e+02	-3.034754e+01
4.081365e+02	-3.040016e+01
4.104938e+02	-3.045121e+01
4.128648e+02	-3.049763e+01
4.152495e+02	-3.054352e+01
4.176480e+02	-3.058682e+01
4.200603e+02	-3.064515e+01
4.224866e+02	-3.069871e+01
4.249268e+02	-3.075532e+01
4.273812e+02	-3.079585e+01
4.298497e+02	-3.084871e+01
4.323325e+02	-3.089378e+01
4.348297e+02	-3.094507e+01
4.373412e+02	-3.100279e+01
4.398673e+02	-3.105169e+01
4.424079e+02	-3.109747e+01
4.449633e+02	-3.114839e+01
4.475334e+02	-3.120035e+01
4.501183e+02	-3.125017e+01
4.527182e+02	-3.129933e+01
4.553330e+02	-3.135329e+01
4.579630e+02	-3.139657e+01
4.606082e+02	-3.145135e+01
4.632687e+02	-3.150091e+01
4.659445e+02	-3.155081e+01
4.686358e+02	-3.160751e+01
4.713426e+02	-3.164746e+01
4.740650e+02	-3.170522e+01
4.768032e+02	-3.175510e+01
4.795572e+02	-3.180382e+01
4.823271e+02	-3.185052e+01
4.851130e+02	-3.190055e+01
4.879150e+02	-3.195762e+01
4.907332e+02	-3.200482e+01
4.935676e+02	-3.204883e+01
4.964185e+02	-3.209704e+01
4.992858e+02	-3.215276e+01
5.021696e+02	-3.220958e+01
5.050701e+02	-3.225049e+01
5.079874e+02	-3.230293e+01
5.109215e+02	-3.234721e+01
5.138726e+02	-3.240528e+01
5.168407e+02	-3.245678e+01
5.198259e+02	-3.250284e+01
5.228284e+02	-3.255348e+01
5.258482e+02	-3.260679e+01
5.288855e+02	-3.266145e+01
5.319403e+02	-3.270171e+01
5.350128e+02	-3.275573e+01
5.381030e+02	-3.280998e+01
5.412111e+02	-3.284975e+01
5.443371e+02	-3.291067e+01
5.474812e+02	-3.294990e+01
5.506434e+02	-3.301052e+01
5.538239e+02	-3.305120e+01
5.570228e+02	-3.310615e+01
5.602401e+02	-3.315516e+01
5.634760e+02	-3.321238e+01
5.667306e+02	-3.326031e+01
5.700040e+02	-3.330617e+01
5.732964e+02	-3.335872e+01
5.766077e+02	-3.340703e+01
5.799382e+02	-3.346459e+01
5.832879e+02	-3.350650e+01
5.866569e+02	-3.355727e+01
5.900454e+02	-3.361256e+01
5.934535e+02	-3.366024e+01
5.968813e+02	-3.371649e+01
6.003288e+02	-3.375957e+01
6.037963e+02	-3.380691e+01
6.072838e+02	-3.386224e+01
6.107914e+02	-3.391139e+01
6.143194e+02	-3.396660e+01
6.178676e+02	-3.401535e+01
6.214364e+02	-3.406168e+01
6.250258e+02	-3.411524e+01
6.286359e+02	-3.416504e+01
6.322669e+02	-3.420704e+01
6.359189e+02	-3.425687e+01
6.395919e+02	-3.431638e+01
6.432862e+02	-3.436333e+01
6.470017e+02	-3.441012e+01
6.507388e+02	-3.445967e+01
6.544974e+02	-3.452210e+01
6.582778e+02	-3.456449e+01
6.620800e+02	-3.462464e+01
6.659041e+02	-3.466529e+01
6.697504e+02	-3.471239e+01
6.736188e+02	-3.477246e+01
6.775096e+02	-3.481859e+01
6.814229e+02	-3.486677e+01
6.853587e+02	-3.491473e+01
6.893173e+02	-3.497024e+01
6.932988e+02	-3.502739e+01
6.973033e+02	-3.507578e+01
7.013309e+02	-3.511521e+01
