Frequency(Hz)	Magnitude(dB)
1.000000e+01	-1.788787e-05
1.005776e+01	-1.809510e-05
1.011585e+01	-1.830474e-05
1.017428e+01	-1.851680e-05
1.023305e+01	-1.873133e-05
1.029215e+01	-1.894833e-05
1.035160e+01	-1.916785e-05
1.041139e+01	-1.938992e-05
1.047153e+01	-1.961456e-05
1.053201e+01	-1.984180e-05
1.059284e+01	-2.007167e-05
1.065403e+01	-2.030420e-05
1.071556e+01	-2.053943e-05
1.077746e+01	-2.077739e-05
1.083971e+01	-2.101810e-05
1.090232e+01	-2.126160e-05
1.096529e+01	-2.150792e-05
1.102862e+01	-2.175709e-05
1.109232e+01	-2.200916e-05
1.115639e+01	-2.226414e-05
1.122083e+01	-2.252207e-05
1.128564e+01	-2.278300e-05
1.135083e+01	-2.304694e-05
1.141639e+01	-2.331395e-05
1.148233e+01	-2.358405e-05
1.154865e+01	-2.385727e-05
1.161536e+01	-2.413366e-05
1.168245e+01	-2.441326e-05
1.174992e+01	-2.469609e-05
1.181779e+01	-2.498220e-05
1.188605e+01	-2.527163e-05
1.195470e+01	-2.556441e-05
1.202375e+01	-2.586058e-05
1.209320e+01	-2.616018e-05
1.216305e+01	-2.646325e-05
1.223330e+01	-2.676983e-05
1.230396e+01	-2.707997e-05
1.237503e+01	-2.739370e-05
1.244651e+01	-2.771106e-05
1.251840e+01	-2.803210e-05
1.259070e+01	-2.835686e-05
1.266343e+01	-2.868538e-05
1.273657e+01	-2.901770e-05
1.281014e+01	-2.935388e-05
1.288413e+01	-2.969395e-05
1.295855e+01	-3.003797e-05
1.303339e+01	-3.038596e-05
1.310867e+01	-3.073799e-05
1.318439e+01	-3.109410e-05
1.326054e+01	-3.145433e-05
1.333713e+01	-3.181874e-05
1.341417e+01	-3.218736e-05
1.349165e+01	-3.256026e-05
1.356958e+01	-3.293748e-05
1.364795e+01	-3.331907e-05
1.372678e+01	-3.370508e-05
1.380607e+01	-3.409556e-05
1.388581e+01	-3.449056e-05
1.396602e+01	-3.489015e-05
1.404668e+01	-3.529436e-05
1.412782e+01	-3.570325e-05
1.420942e+01	-3.611688e-05
1.429149e+01	-3.653530e-05
1.437404e+01	-3.695857e-05
1.445706e+01	-3.738675e-05
1.454057e+01	-3.781988e-05
1.462455e+01	-3.825803e-05
1.470902e+01	-3.870126e-05
1.479398e+01	-3.914962e-05
1.487943e+01	-3.960318e-05
1.496537e+01	-4.006199e-05
1.505181e+01	-4.052612e-05
1.513875e+01	-4.099562e-05
1.522619e+01	-4.147057e-05
1.531414e+01	-4.195101e-05
1.540259e+01	-4.243702e-05
1.549156e+01	-4.292867e-05
1.558103e+01	-4.342600e-05
1.567103e+01	-4.392910e-05
1.576155e+01	-4.443803e-05
1.585258e+01	-4.495286e-05
1.594415e+01	-4.547365e-05
1.603624e+01	-4.600047e-05
1.612886e+01	-4.653339e-05
1.622202e+01	-4.707249e-05
1.631572e+01	-4.761784e-05
1.640996e+01	-4.816950e-05
1.650474e+01	-4.872755e-05
1.660008e+01	-4.929207e-05
1.669596e+01	-4.986313e-05
1.679239e+01	-5.044081e-05
1.688938e+01	-5.102518e-05
1.698694e+01	-5.161631e-05
1.708505e+01	-5.221430e-05
1.718373e+01	-5.281921e-05
1.728299e+01	-5.343113e-05
1.738281e+01	-5.405014e-05
1.748322e+01	-5.467633e-05
1.758420e+01	-5.530976e-05
1.768576e+01	-5.595054e-05
1.778792e+01	-5.659874e-05
1.789066e+01	-5.725444e-05
1.799399e+01	-5.791775e-05
1.809793e+01	-5.858874e-05
1.820246e+01	-5.926750e-05
1.830760e+01	-5.995413e-05
1.841334e+01	-6.064871e-05
1.851969e+01	-6.135133e-05
1.862666e+01	-6.206210e-05
1.873425e+01	-6.278110e-05
1.884246e+01	-6.350843e-05
1.895129e+01	-6.424419e-05
1.906075e+01	-6.498847e-05
1.917085e+01	-6.574138e-05
1.928158e+01	-6.650300e-05
1.939295e+01	-6.727345e-05
1.950496e+01	-6.805283e-05
1.961762e+01	-6.884123e-05
1.973093e+01	-6.963877e-05
1.984490e+01	-7.044555e-05
1.995952e+01	-7.126168e-05
2.007480e+01	-7.208725e-05
2.019076e+01	-7.292240e-05
2.030738e+01	-7.376722e-05
2.042467e+01	-7.462182e-05
2.054264e+01	-7.548633e-05
2.066130e+01	-7.636085e-05
2.078064e+01	-7.724551e-05
2.090066e+01	-7.814041e-05
2.102139e+01	-7.904568e-05
2.114280e+01	-7.996144e-05
2.126492e+01	-8.088781e-05
2.138775e+01	-8.182491e-05
2.151128e+01	-8.277286e-05
2.163553e+01	-8.373180e-05
2.176050e+01	-8.470184e-05
2.188619e+01	-8.568313e-05
2.201260e+01	-8.667578e-05
2.213974e+01	-8.767994e-05
2.226762e+01	-8.869572e-05
2.239624e+01	-8.972328e-05
2.252560e+01	-9.076273e-05
2.265571e+01	-9.181424e-05
2.278656e+01	-9.287792e-05
2.291818e+01	-9.395392e-05
2.305055e+01	-9.504239e-05
2.318369e+01	-9.614347e-05
2.331760e+01	-9.725731e-05
2.345228e+01	-9.838405e-05
2.358774e+01	-9.952384e-05
2.372398e+01	-1.006768e-04
2.386101e+01	-1.018432e-04
2.399883e+01	-1.030231e-04
2.413745e+01	-1.042166e-04
2.427686e+01	-1.054240e-04
2.441709e+01	-1.066453e-04
2.455812e+01	-1.078808e-04
2.469997e+01	-1.091306e-04
2.484263e+01	-1.103949e-04
2.498612e+01	-1.116739e-04
2.513044e+01	-1.129676e-04
2.527559e+01	-1.142764e-04
2.542158e+01	-1.156003e-04
2.556842e+01	-1.169395e-04
2.571610e+01	-1.182943e-04
2.586463e+01	-1.196647e-04
2.601403e+01	-1.210511e-04
2.616428e+01	-1.224534e-04
2.631541e+01	-1.238721e-04
2.646740e+01	-1.253072e-04
2.662028e+01	-1.267589e-04
2.677404e+01	-1.282274e-04
2.692868e+01	-1.297129e-04
2.708422e+01	-1.312156e-04
2.724066e+01	-1.327358e-04
2.739800e+01	-1.342735e-04
2.755625e+01	-1.358291e-04
2.771541e+01	-1.374027e-04
2.787550e+01	-1.389945e-04
2.803650e+01	-1.406048e-04
2.819844e+01	-1.422337e-04
2.836131e+01	-1.438815e-04
2.852513e+01	-1.455484e-04
2.868989e+01	-1.472346e-04
2.885560e+01	-1.489403e-04
2.902227e+01	-1.506658e-04
2.918990e+01	-1.524113e-04
2.935850e+01	-1.541769e-04
2.952807e+01	-1.559631e-04
2.969863e+01	-1.577699e-04
2.987016e+01	-1.595977e-04
3.004269e+01	-1.614467e-04
3.021622e+01	-1.633170e-04
3.039075e+01	-1.652091e-04
3.056628e+01	-1.671230e-04
3.074283e+01	-1.690592e-04
3.092040e+01	-1.710177e-04
3.109900e+01	-1.729990e-04
3.127862e+01	-1.750032e-04
3.145929e+01	-1.770306e-04
3.164099e+01	-1.790815e-04
3.182375e+01	-1.811562e-04
3.200756e+01	-1.832549e-04
3.219244e+01	-1.853779e-04
3.237838e+01	-1.875255e-04
3.256540e+01	-1.896980e-04
3.275349e+01	-1.918956e-04
3.294268e+01	-1.941187e-04
3.313295e+01	-1.963676e-04
3.332433e+01	-1.986425e-04
3.351681e+01	-2.009438e-04
3.371040e+01	-2.032717e-04
3.390511e+01	-2.056266e-04
3.410094e+01	-2.080088e-04
3.429791e+01	-2.104186e-04
3.449601e+01	-2.128563e-04
3.469526e+01	-2.153222e-04
3.489566e+01	-2.178168e-04
3.509721e+01	-2.203402e-04
3.529993e+01	-2.228928e-04
3.550382e+01	-2.254750e-04
3.570889e+01	-2.280871e-04
3.591515e+01	-2.307295e-04
3.612259e+01	-2.334025e-04
3.633123e+01	-2.361065e-04
3.654108e+01	-2.388417e-04
3.675214e+01	-2.416087e-04
3.696442e+01	-2.444077e-04
3.717792e+01	-2.472392e-04
3.739266e+01	-2.501034e-04
3.760864e+01	-2.530009e-04
3.782587e+01	-2.559319e-04
3.804435e+01	-2.588968e-04
3.826409e+01	-2.618961e-04
3.848510e+01	-2.649302e-04
3.870739e+01	-2.679994e-04
3.893096e+01	-2.711041e-04
3.915583e+01	-2.742448e-04
3.938199e+01	-2.774219e-04
3.960946e+01	-2.806359e-04
3.983824e+01	-2.838870e-04
4.006834e+01	-2.871758e-04
4.029978e+01	-2.905027e-04
4.053255e+01	-2.938681e-04
4.076666e+01	-2.972726e-04
4.100213e+01	-3.007164e-04
4.123896e+01	-3.042002e-04
4.147715e+01	-3.077243e-04
4.171672e+01	-3.112892e-04
4.195767e+01	-3.148955e-04
4.220002e+01	-3.185435e-04
4.244377e+01	-3.222338e-04
4.268892e+01	-3.259668e-04
4.293549e+01	-3.297431e-04
4.318348e+01	-3.335631e-04
4.343291e+01	-3.374274e-04
4.368377e+01	-3.413364e-04
4.393609e+01	-3.452907e-04
4.418986e+01	-3.492909e-04
4.444510e+01	-3.533373e-04
4.470182e+01	-3.574307e-04
4.496001e+01	-3.615714e-04
4.521970e+01	-3.657602e-04
4.548089e+01	-3.699974e-04
4.574358e+01	-3.742838e-04
4.600779e+01	-3.786197e-04
4.627353e+01	-3.830060e-04
4.654081e+01	-3.874430e-04
4.680963e+01	-3.919314e-04
4.708000e+01	-3.964719e-04
4.735193e+01	-4.010649e-04
4.762543e+01	-4.057111e-04
4.790051e+01	-4.104112e-04
4.817719e+01	-4.151657e-04
4.845545e+01	-4.199752e-04
4.873533e+01	-4.248405e-04
4.901682e+01	-4.297622e-04
4.929994e+01	-4.347409e-04
4.958470e+01	-4.397772e-04
4.987110e+01	-4.448719e-04
5.015915e+01	-4.500256e-04
5.044887e+01	-4.552390e-04
5.074026e+01	-4.605128e-04
5.103333e+01	-4.658476e-04
5.132810e+01	-4.712443e-04
5.162457e+01	-4.767035e-04
5.192275e+01	-4.822259e-04
5.222265e+01	-4.878124e-04
5.252429e+01	-4.934635e-04
5.282767e+01	-4.991801e-04
5.313280e+01	-5.049629e-04
5.343969e+01	-5.108127e-04
5.374836e+01	-5.167302e-04
5.405880e+01	-5.227163e-04
5.437105e+01	-5.287718e-04
5.468509e+01	-5.348973e-04
5.500095e+01	-5.410939e-04
5.531863e+01	-5.473622e-04
5.563815e+01	-5.537032e-04
5.595951e+01	-5.601175e-04
5.628273e+01	-5.666062e-04
5.660782e+01	-5.731701e-04
5.693479e+01	-5.798100e-04
5.726364e+01	-5.865268e-04
5.759439e+01	-5.933214e-04
5.792705e+01	-6.001947e-04
5.826164e+01	-6.071477e-04
5.859815e+01	-6.141811e-04
5.893662e+01	-6.212961e-04
5.927703e+01	-6.284934e-04
5.961941e+01	-6.357742e-04
5.996377e+01	-6.431393e-04
6.031012e+01	-6.505896e-04
6.065847e+01	-6.581263e-04
6.100883e+01	-6.657503e-04
6.136121e+01	-6.734626e-04
6.171563e+01	-6.812643e-04
6.207210e+01	-6.891563e-04
6.243063e+01	-6.971397e-04
6.279122e+01	-7.052156e-04
6.315390e+01	-7.133850e-04
6.351868e+01	-7.216491e-04
6.388556e+01	-7.300089e-04
6.425456e+01	-7.384655e-04
6.462569e+01	-7.470201e-04
6.499897e+01	-7.556738e-04
6.537440e+01	-7.644277e-04
6.575200e+01	-7.732831e-04
6.613178e+01	-7.822409e-04
6.651375e+01	-7.913026e-04
6.689793e+01	-8.004692e-04
6.728433e+01	-8.097420e-04
6.767297e+01	-8.191222e-04
6.806384e+01	-8.286110e-04
6.845698e+01	-8.382098e-04
6.885238e+01	-8.479198e-04
6.925007e+01	-8.577422e-04
6.965005e+01	-8.676783e-04
7.005235e+01	-8.777296e-04
7.045697e+01	-8.878973e-04
7.086393e+01	-8.981828e-04
7.127323e+01	-9.085874e-04
7.168490e+01	-9.191125e-04
7.209895e+01	-9.297595e-04
7.251539e+01	-9.405299e-04
7.293424e+01	-9.514250e-04
7.335551e+01	-9.624463e-04
7.377920e+01	-9.735953e-04
7.420535e+01	-9.848733e-04
7.463396e+01	-9.962821e-04
7.506504e+01	-1.007823e-03
7.549861e+01	-1.019497e-03
7.593469e+01	-1.031307e-03
7.637328e+01	-1.043254e-03
7.681441e+01	-1.055339e-03
7.725809e+01	-1.067564e-03
7.770433e+01	-1.079930e-03
7.815315e+01	-1.092440e-03
7.860456e+01	-1.105094e-03
7.905857e+01	-1.117896e-03
7.951521e+01	-1.130845e-03
7.997449e+01	-1.143944e-03
8.043642e+01	-1.157196e-03
8.090102e+01	-1.170600e-03
8.136830e+01	-1.184160e-03
8.183828e+01	-1.197877e-03
8.231097e+01	-1.211753e-03
8.278640e+01	-1.225789e-03
8.326457e+01	-1.239988e-03
8.374550e+01	-1.254352e-03
8.422921e+01	-1.268882e-03
8.471572e+01	-1.283580e-03
8.520503e+01	-1.298448e-03
8.569717e+01	-1.313489e-03
8.619215e+01	-1.328704e-03
8.669000e+01	-1.344095e-03
8.719071e+01	-1.359664e-03
8.769432e+01	-1.375414e-03
8.820084e+01	-1.391345e-03
8.871029e+01	-1.407462e-03
8.922267e+01	-1.423765e-03
8.973802e+01	-1.440257e-03
9.025634e+01	-1.456940e-03
9.077766e+01	-1.473816e-03
9.130199e+01	-1.490888e-03
9.182935e+01	-1.508157e-03
9.235975e+01	-1.525627e-03
9.289321e+01	-1.543298e-03
9.342976e+01	-1.561175e-03
9.396941e+01	-1.579258e-03
9.451217e+01	-1.597551e-03
9.505807e+01	-1.616055e-03
9.560712e+01	-1.634774e-03
9.615934e+01	-1.653710e-03
9.671476e+01	-1.672865e-03
9.727338e+01	-1.692242e-03
9.783522e+01	-1.711843e-03
9.840032e+01	-1.731671e-03
9.896867e+01	-1.751729e-03
9.954031e+01	-1.772019e-03
1.001153e+02	-1.792544e-03
1.006935e+02	-1.813307e-03
1.012751e+02	-1.834310e-03
1.018601e+02	-1.855556e-03
1.024484e+02	-1.877049e-03
1.030402e+02	-1.898790e-03
1.036353e+02	-1.920783e-03
1.042339e+02	-1.943031e-03
1.048360e+02	-1.965537e-03
1.054415e+02	-1.988303e-03
1.060505e+02	-2.011332e-03
1.066631e+02	-2.034629e-03
1.072791e+02	-2.058195e-03
1.078988e+02	-2.082034e-03
1.085220e+02	-2.106149e-03
1.091488e+02	-2.130543e-03
1.097793e+02	-2.155220e-03
1.104133e+02	-2.180183e-03
1.110511e+02	-2.205434e-03
1.116925e+02	-2.230978e-03
1.123376e+02	-2.256818e-03
1.129865e+02	-2.282957e-03
1.136391e+02	-2.309399e-03
1.142955e+02	-2.336146e-03
1.149556e+02	-2.363204e-03
1.156196e+02	-2.390575e-03
1.162874e+02	-2.418262e-03
1.169591e+02	-2.446271e-03
1.176347e+02	-2.474603e-03
1.183141e+02	-2.503264e-03
1.189975e+02	-2.532256e-03
1.196848e+02	-2.561585e-03
1.203761e+02	-2.591252e-03
1.210714e+02	-2.621264e-03
1.217707e+02	-2.651622e-03
1.224740e+02	-2.682333e-03
1.231814e+02	-2.713399e-03
1.238929e+02	-2.744824e-03
1.246085e+02	-2.776613e-03
1.253283e+02	-2.808771e-03
1.260522e+02	-2.841300e-03
1.267802e+02	-2.874207e-03
1.275125e+02	-2.907494e-03
1.282490e+02	-2.941167e-03
1.289898e+02	-2.975229e-03
1.297348e+02	-3.009686e-03
1.304842e+02	-3.044542e-03
1.312378e+02	-3.079801e-03
1.319959e+02	-3.115469e-03
1.327583e+02	-3.151549e-03
1.335251e+02	-3.188047e-03
1.342963e+02	-3.224968e-03
1.350720e+02	-3.262316e-03
1.358522e+02	-3.300096e-03
1.366368e+02	-3.338314e-03
1.374260e+02	-3.376974e-03
1.382198e+02	-3.416082e-03
1.390182e+02	-3.455642e-03
1.398211e+02	-3.495661e-03
1.406287e+02	-3.536142e-03
1.414410e+02	-3.577093e-03
1.422579e+02	-3.618517e-03
1.430796e+02	-3.660421e-03
1.439060e+02	-3.702810e-03
1.447372e+02	-3.745689e-03
1.455732e+02	-3.789065e-03
1.464141e+02	-3.832943e-03
1.472597e+02	-3.877329e-03
1.481103e+02	-3.922228e-03
1.489658e+02	-3.967647e-03
1.498262e+02	-4.013592e-03
1.506916e+02	-4.060069e-03
1.515620e+02	-4.107084e-03
1.524374e+02	-4.154643e-03
1.533179e+02	-4.202752e-03
1.542034e+02	-4.251418e-03
1.550941e+02	-4.300647e-03
1.559899e+02	-4.350447e-03
1.568909e+02	-4.400822e-03
1.577971e+02	-4.451780e-03
1.587085e+02	-4.503329e-03
1.596252e+02	-4.555474e-03
1.605472e+02	-4.608222e-03
1.614745e+02	-4.661581e-03
1.624072e+02	-4.715557e-03
1.633453e+02	-4.770158e-03
1.642887e+02	-4.825391e-03
1.652377e+02	-4.881262e-03
1.661921e+02	-4.937781e-03
1.671520e+02	-4.994953e-03
1.681175e+02	-5.052788e-03
1.690885e+02	-5.111291e-03
1.700651e+02	-5.170471e-03
1.710474e+02	-5.230336e-03
1.720354e+02	-5.290894e-03
1.730291e+02	-5.352153e-03
1.740285e+02	-5.414120e-03
1.750337e+02	-5.476804e-03
1.760446e+02	-5.540214e-03
1.770615e+02	-5.604357e-03
1.780842e+02	-5.669243e-03
1.791128e+02	-5.734879e-03
1.801473e+02	-5.801275e-03
1.811878e+02	-5.868438e-03
1.822344e+02	-5.936379e-03
1.832870e+02	-6.005106e-03
1.843456e+02	-6.074628e-03
1.854104e+02	-6.144954e-03
1.864813e+02	-6.216094e-03
1.875584e+02	-6.288057e-03
1.886418e+02	-6.360852e-03
1.897313e+02	-6.434489e-03
1.908272e+02	-6.508979e-03
1.919294e+02	-6.584329e-03
1.930380e+02	-6.660552e-03
1.941530e+02	-6.737656e-03
1.952744e+02	-6.815652e-03
1.964023e+02	-6.894551e-03
1.975367e+02	-6.974361e-03
1.986777e+02	-7.055095e-03
1.998252e+02	-7.136763e-03
2.009794e+02	-7.219376e-03
2.021403e+02	-7.302943e-03
2.033078e+02	-7.387478e-03
2.044821e+02	-7.472990e-03
2.056632e+02	-7.559491e-03
2.068511e+02	-7.646992e-03
2.080459e+02	-7.735505e-03
2.092475e+02	-7.825042e-03
2.104561e+02	-7.915614e-03
2.116717e+02	-8.007234e-03
2.128943e+02	-8.099913e-03
2.141240e+02	-8.193664e-03
2.153608e+02	-8.288499e-03
2.166047e+02	-8.384430e-03
2.178558e+02	-8.481471e-03
2.191141e+02	-8.579634e-03
2.203797e+02	-8.678931e-03
2.216526e+02	-8.779377e-03
2.229329e+02	-8.880984e-03
2.242205e+02	-8.983766e-03
2.255156e+02	-9.087736e-03
2.268182e+02	-9.192908e-03
2.281283e+02	-9.299296e-03
2.294459e+02	-9.406914e-03
2.307712e+02	-9.515775e-03
2.321041e+02	-9.625896e-03
2.334447e+02	-9.737289e-03
2.347931e+02	-9.849969e-03
2.361493e+02	-9.963952e-03
2.375133e+02	-1.007925e-02
2.388851e+02	-1.019589e-02
2.402649e+02	-1.031387e-02
2.416527e+02	-1.043321e-02
2.430484e+02	-1.055394e-02
2.444523e+02	-1.067606e-02
2.458642e+02	-1.079959e-02
2.472843e+02	-1.092454e-02
2.487126e+02	-1.105095e-02
2.501492e+02	-1.117881e-02
2.515940e+02	-1.130815e-02
2.530472e+02	-1.143898e-02
2.545088e+02	-1.157133e-02
2.559789e+02	-1.170521e-02
2.574574e+02	-1.184063e-02
2.589444e+02	-1.197762e-02
2.604401e+02	-1.211619e-02
2.619444e+02	-1.225636e-02
2.634574e+02	-1.239815e-02
2.649791e+02	-1.254157e-02
2.665096e+02	-1.268666e-02
2.680489e+02	-1.283342e-02
2.695972e+02	-1.298187e-02
2.711544e+02	-1.313204e-02
2.727205e+02	-1.328395e-02
2.742958e+02	-1.343761e-02
2.758801e+02	-1.359304e-02
2.774736e+02	-1.375027e-02
2.790762e+02	-1.390932e-02
2.806882e+02	-1.407020e-02
2.823094e+02	-1.423294e-02
2.839400e+02	-1.439755e-02
2.855800e+02	-1.456407e-02
2.872295e+02	-1.473251e-02
2.888886e+02	-1.490290e-02
2.905572e+02	-1.507525e-02
2.922354e+02	-1.524960e-02
2.939234e+02	-1.542595e-02
2.956211e+02	-1.560434e-02
2.973286e+02	-1.578479e-02
2.990459e+02	-1.596733e-02
3.007732e+02	-1.615197e-02
3.025104e+02	-1.633874e-02
3.042577e+02	-1.652767e-02
3.060151e+02	-1.671877e-02
3.077826e+02	-1.691209e-02
3.095604e+02	-1.710763e-02
3.113484e+02	-1.730543e-02
3.131467e+02	-1.750551e-02
3.149554e+02	-1.770791e-02
3.167746e+02	-1.791263e-02
3.186043e+02	-1.811972e-02
3.204445e+02	-1.832920e-02
3.222954e+02	-1.854109e-02
3.241570e+02	-1.875543e-02
3.260293e+02	-1.897224e-02
3.279124e+02	-1.919155e-02
3.298064e+02	-1.941339e-02
3.317114e+02	-1.963779e-02
3.336273e+02	-1.986478e-02
3.355544e+02	-2.009438e-02
3.374925e+02	-2.032663e-02
3.394418e+02	-2.056156e-02
3.414024e+02	-2.079920e-02
3.433744e+02	-2.103958e-02
3.453577e+02	-2.128273e-02
3.473525e+02	-2.152868e-02
3.493588e+02	-2.177747e-02
3.513766e+02	-2.202913e-02
3.534062e+02	-2.228369e-02
3.554474e+02	-2.254118e-02
3.575005e+02	-2.280163e-02
3.595654e+02	-2.306509e-02
3.616422e+02	-2.333159e-02
3.637311e+02	-2.360115e-02
3.658320e+02	-2.387383e-02
3.679450e+02	-2.414964e-02
3.700702e+02	-2.442863e-02
3.722077e+02	-2.471083e-02
3.743576e+02	-2.499629e-02
3.765199e+02	-2.528503e-02
3.786946e+02	-2.557710e-02
3.808820e+02	-2.587253e-02
3.830819e+02	-2.617137e-02
3.852946e+02	-2.647364e-02
3.875200e+02	-2.677940e-02
3.897583e+02	-2.708867e-02
3.920096e+02	-2.740151e-02
3.942738e+02	-2.771795e-02
3.965511e+02	-2.803803e-02
3.988416e+02	-2.836179e-02
4.011452e+02	-2.868928e-02
4.034622e+02	-2.902054e-02
4.057926e+02	-2.935561e-02
4.081365e+02	-2.969454e-02
4.104938e+02	-3.003737e-02
4.128648e+02	-3.038414e-02
4.152495e+02	-3.073490e-02
4.176480e+02	-3.108969e-02
4.200603e+02	-3.144857e-02
4.224866e+02	-3.181157e-02
4.249268e+02	-3.217874e-02
4.273812e+02	-3.255014e-02
4.298497e+02	-3.292581e-02
4.323325e+02	-3.330580e-02
4.348297e+02	-3.369016e-02
4.373412e+02	-3.407893e-02
4.398673e+02	-3.447217e-02
4.424079e+02	-3.486993e-02
4.449633e+02	-3.527227e-02
4.475334e+02	-3.567922e-02
4.501183e+02	-3.609085e-02
4.527182e+02	-3.650722e-02
4.553330e+02	-3.692836e-02
4.579630e+02	-3.735434e-02
4.606082e+02	-3.778521e-02
4.632687e+02	-3.822103e-02
4.659445e+02	-3.866186e-02
4.686358e+02	-3.910775e-02
4.713426e+02	-3.955875e-02
4.740650e+02	-4.001493e-02
4.768032e+02	-4.047635e-02
4.795572e+02	-4.094307e-02
4.823271e+02	-4.141514e-02
4.851130e+02	-4.189262e-02
4.879150e+02	-4.237559e-02
4.907332e+02	-4.286409e-02
4.935676e+02	-4.335820e-02
4.964185e+02	-4.385798e-02
4.992858e+02	-4.436348e-02
5.021696e+02	-4.487479e-02
5.050701e+02	-4.539195e-02
5.079874e+02	-4.591505e-02
5.109215e+02	-4.644413e-02
5.138726e+02	-4.697929e-02
5.168407e+02	-4.752057e-02
5.198259e+02	-4.806806e-02
5.228284e+02	-4.862182e-02
5.258482e+02	-4.918192e-02
5.288855e+02	-4.974844e-02
5.319403e+02	-5.032144e-02
5.350128e+02	-5.090101e-02
5.381030e+02	-5.148721e-02
5.412111e+02	-5.208012e-02
5.443371e+02	-5.267982e-02
5.474812e+02	-5.328638e-02
5.506434e+02	-5.389989e-02
5.538239e+02	-5.452041e-02
5.570228e+02	-5.514802e-02
5.602401e+02	-5.578282e-02
5.634760e+02	-5.642488e-02
5.667306e+02	-5.707428e-02
5.700040e+02	-5.773110e-02
5.732964e+02	-5.839543e-02
5.766077e+02	-5.906735e-02
5.799382e+02	-5.974695e-02
5.832879e+02	-6.043432e-02
5.866569e+02	-6.112953e-02
5.900454e+02	-6.183269e-02
5.934535e+02	-6.254388e-02
5.968813e+02	-6.326319e-02
6.003288e+02	-6.399071e-02
6.037963e+02	-6.472653e-02
6.072838e+02	-6.547075e-02
6.107914e+02	-6.622346e-02
6.143194e+02	-6.698476e-02
6.178676e+02	-6.775474e-02
6.214364e+02	-6.853350e-02
6.250258e+02	-6.932115e-02
6.286359e+02	-7.011777e-02
6.322669e+02	-7.092347e-02
6.359189e+02	-7.173835e-02
6.395919e+02	-7.256252e-02
6.432862e+02	-7.339607e-02
6.470017e+02	-7.423912e-02
6.507388e+02	-7.509177e-02
6.544974e+02	-7.595412e-02
6.582778e+02	-7.682629e-02
6.620800e+02	-7.770839e-02
6.659041e+02	-7.860052e-02
6.697504e+02	-7.950280e-02
6.736188e+02	-8.041534e-02
6.775096e+02	-8.133825e-02
6.814229e+02	-8.227166e-02
6.853587e+02	-8.321568e-02
6.893173e+02	-8.417042e-02
6.932988e+02	-8.513601e-02
6.973033e+02	-8.611257e-02
7.013309e+02	-8.710022e-02
