Frequency(Hz)	Magnitude(dB)
1.000000e+01	-1.826890e-05
1.005776e+01	-1.848055e-05
1.011585e+01	-1.869465e-05
1.017428e+01	-1.891123e-05
1.023305e+01	-1.913032e-05
1.029215e+01	-1.935195e-05
1.035160e+01	-1.957615e-05
1.041139e+01	-1.980295e-05
1.047153e+01	-2.003237e-05
1.053201e+01	-2.026445e-05
1.059284e+01	-2.049922e-05
1.065403e+01	-2.073671e-05
1.071556e+01	-2.097695e-05
1.077746e+01	-2.121997e-05
1.083971e+01	-2.146581e-05
1.090232e+01	-2.171450e-05
1.096529e+01	-2.196606e-05
1.102862e+01	-2.222055e-05
1.109232e+01	-2.247798e-05
1.115639e+01	-2.273839e-05
1.122083e+01	-2.300182e-05
1.128564e+01	-2.326830e-05
1.135083e+01	-2.353787e-05
1.141639e+01	-2.381056e-05
1.148233e+01	-2.408641e-05
1.154865e+01	-2.436546e-05
1.161536e+01	-2.464774e-05
1.168245e+01	-2.493329e-05
1.174992e+01	-2.522215e-05
1.181779e+01	-2.551435e-05
1.188605e+01	-2.580994e-05
1.195470e+01	-2.610896e-05
1.202375e+01	-2.641144e-05
1.209320e+01	-2.671742e-05
1.216305e+01	-2.702695e-05
1.223330e+01	-2.734006e-05
1.230396e+01	-2.765680e-05
1.237503e+01	-2.797721e-05
1.244651e+01	-2.830134e-05
1.251840e+01	-2.862921e-05
1.259070e+01	-2.896089e-05
1.266343e+01	-2.929641e-05
1.273657e+01	-2.963581e-05
1.281014e+01	-2.997915e-05
1.288413e+01	-3.032647e-05
1.295855e+01	-3.067781e-05
1.303339e+01	-3.103322e-05
1.310867e+01	-3.139274e-05
1.318439e+01	-3.175644e-05
1.326054e+01	-3.212434e-05
1.333713e+01	-3.249651e-05
1.341417e+01	-3.287299e-05
1.349165e+01	-3.325383e-05
1.356958e+01	-3.363909e-05
1.364795e+01	-3.402880e-05
1.372678e+01	-3.442303e-05
1.380607e+01	-3.482183e-05
1.388581e+01	-3.522525e-05
1.396602e+01	-3.563334e-05
1.404668e+01	-3.604617e-05
1.412782e+01	-3.646377e-05
1.420942e+01	-3.688621e-05
1.429149e+01	-3.731354e-05
1.437404e+01	-3.774583e-05
1.445706e+01	-3.818312e-05
1.454057e+01	-3.862548e-05
1.462455e+01	-3.907297e-05
1.470902e+01	-3.952564e-05
1.479398e+01	-3.998355e-05
1.487943e+01	-4.044677e-05
1.496537e+01	-4.091536e-05
1.505181e+01	-4.138937e-05
1.513875e+01	-4.186887e-05
1.522619e+01	-4.235394e-05
1.531414e+01	-4.284461e-05
1.540259e+01	-4.334098e-05
1.549156e+01	-4.384309e-05
1.558103e+01	-4.435103e-05
1.567103e+01	-4.486484e-05
1.576155e+01	-4.538461e-05
1.585258e+01	-4.591040e-05
1.594415e+01	-4.644228e-05
1.603624e+01	-4.698033e-05
1.612886e+01	-4.752461e-05
1.622202e+01	-4.807519e-05
1.631572e+01	-4.863215e-05
1.640996e+01	-4.919556e-05
1.650474e+01	-4.976550e-05
1.660008e+01	-5.034205e-05
1.669596e+01	-5.092527e-05
1.679239e+01	-5.151525e-05
1.688938e+01	-5.211207e-05
1.698694e+01	-5.271580e-05
1.708505e+01	-5.332652e-05
1.718373e+01	-5.394432e-05
1.728299e+01	-5.456927e-05
1.738281e+01	-5.520147e-05
1.748322e+01	-5.584099e-05
1.758420e+01	-5.648792e-05
1.768576e+01	-5.714234e-05
1.778792e+01	-5.780435e-05
1.789066e+01	-5.847403e-05
1.799399e+01	-5.915146e-05
1.809793e+01	-5.983674e-05
1.820246e+01	-6.052996e-05
1.830760e+01	-6.123121e-05
1.841334e+01	-6.194059e-05
1.851969e+01	-6.265818e-05
1.862666e+01	-6.338409e-05
1.873425e+01	-6.411841e-05
1.884246e+01	-6.486123e-05
1.895129e+01	-6.561266e-05
1.906075e+01	-6.637280e-05
1.917085e+01	-6.714174e-05
1.928158e+01	-6.791959e-05
1.939295e+01	-6.870645e-05
1.950496e+01	-6.950242e-05
1.961762e+01	-7.030762e-05
1.973093e+01	-7.112215e-05
1.984490e+01	-7.194611e-05
1.995952e+01	-7.277962e-05
2.007480e+01	-7.362279e-05
2.019076e+01	-7.447572e-05
2.030738e+01	-7.533853e-05
2.042467e+01	-7.621135e-05
2.054264e+01	-7.709427e-05
2.066130e+01	-7.798742e-05
2.078064e+01	-7.889092e-05
2.090066e+01	-7.980488e-05
2.102139e+01	-8.072943e-05
2.114280e+01	-8.166470e-05
2.126492e+01	-8.261080e-05
2.138775e+01	-8.356786e-05
2.151128e+01	-8.453601e-05
2.163553e+01	-8.551537e-05
2.176050e+01	-8.650608e-05
2.188619e+01	-8.750827e-05
2.201260e+01	-8.852206e-05
2.213974e+01	-8.954761e-05
2.226762e+01	-9.058503e-05
2.239624e+01	-9.163447e-05
2.252560e+01	-9.269607e-05
2.265571e+01	-9.376997e-05
2.278656e+01	-9.485631e-05
2.291818e+01	-9.595523e-05
2.305055e+01	-9.706689e-05
2.318369e+01	-9.819142e-05
2.331760e+01	-9.932898e-05
2.345228e+01	-1.004797e-04
2.358774e+01	-1.016438e-04
2.372398e+01	-1.028214e-04
2.386101e+01	-1.040126e-04
2.399883e+01	-1.052176e-04
2.413745e+01	-1.064365e-04
2.427686e+01	-1.076696e-04
2.441709e+01	-1.089170e-04
2.455812e+01	-1.101788e-04
2.469997e+01	-1.114552e-04
2.484263e+01	-1.127464e-04
2.498612e+01	-1.140526e-04
2.513044e+01	-1.153739e-04
2.527559e+01	-1.167106e-04
2.542158e+01	-1.180627e-04
2.556842e+01	-1.194304e-04
2.571610e+01	-1.208140e-04
2.586463e+01	-1.222137e-04
2.601403e+01	-1.236296e-04
2.616428e+01	-1.250618e-04
2.631541e+01	-1.265107e-04
2.646740e+01	-1.279763e-04
2.662028e+01	-1.294589e-04
2.677404e+01	-1.309587e-04
2.692868e+01	-1.324759e-04
2.708422e+01	-1.340106e-04
2.724066e+01	-1.355632e-04
2.739800e+01	-1.371337e-04
2.755625e+01	-1.387224e-04
2.771541e+01	-1.403295e-04
2.787550e+01	-1.419552e-04
2.803650e+01	-1.435998e-04
2.819844e+01	-1.452634e-04
2.836131e+01	-1.469463e-04
2.852513e+01	-1.486487e-04
2.868989e+01	-1.503708e-04
2.885560e+01	-1.521128e-04
2.902227e+01	-1.538751e-04
2.918990e+01	-1.556577e-04
2.935850e+01	-1.574610e-04
2.952807e+01	-1.592852e-04
2.969863e+01	-1.611306e-04
2.987016e+01	-1.629973e-04
3.004269e+01	-1.648856e-04
3.021622e+01	-1.667958e-04
3.039075e+01	-1.687282e-04
3.056628e+01	-1.706829e-04
3.074283e+01	-1.726602e-04
3.092040e+01	-1.746605e-04
3.109900e+01	-1.766840e-04
3.127862e+01	-1.787309e-04
3.145929e+01	-1.808015e-04
3.164099e+01	-1.828961e-04
3.182375e+01	-1.850149e-04
3.200756e+01	-1.871583e-04
3.219244e+01	-1.893266e-04
3.237838e+01	-1.915199e-04
3.256540e+01	-1.937387e-04
3.275349e+01	-1.959831e-04
3.294268e+01	-1.982536e-04
3.313295e+01	-2.005504e-04
3.332433e+01	-2.028738e-04
3.351681e+01	-2.052240e-04
3.371040e+01	-2.076016e-04
3.390511e+01	-2.100066e-04
3.410094e+01	-2.124396e-04
3.429791e+01	-2.149007e-04
3.449601e+01	-2.173903e-04
3.469526e+01	-2.199088e-04
3.489566e+01	-2.224564e-04
3.509721e+01	-2.250335e-04
3.529993e+01	-2.276406e-04
3.550382e+01	-2.302778e-04
3.570889e+01	-2.329455e-04
3.591515e+01	-2.356442e-04
3.612259e+01	-2.383741e-04
3.633123e+01	-2.411357e-04
3.654108e+01	-2.439292e-04
3.675214e+01	-2.467551e-04
3.696442e+01	-2.496138e-04
3.717792e+01	-2.525055e-04
3.739266e+01	-2.554308e-04
3.760864e+01	-2.583899e-04
3.782587e+01	-2.613834e-04
3.804435e+01	-2.644115e-04
3.826409e+01	-2.674747e-04
3.848510e+01	-2.705733e-04
3.870739e+01	-2.737079e-04
3.893096e+01	-2.768788e-04
3.915583e+01	-2.800864e-04
3.938199e+01	-2.833312e-04
3.960946e+01	-2.866135e-04
3.983824e+01	-2.899339e-04
4.006834e+01	-2.932928e-04
4.029978e+01	-2.966905e-04
4.053255e+01	-3.001277e-04
4.076666e+01	-3.036046e-04
4.100213e+01	-3.071218e-04
4.123896e+01	-3.106798e-04
4.147715e+01	-3.142790e-04
4.171672e+01	-3.179198e-04
4.195767e+01	-3.216029e-04
4.220002e+01	-3.253286e-04
4.244377e+01	-3.290975e-04
4.268892e+01	-3.329100e-04
4.293549e+01	-3.367667e-04
4.318348e+01	-3.406681e-04
4.343291e+01	-3.446147e-04
4.368377e+01	-3.486070e-04
4.393609e+01	-3.526455e-04
4.418986e+01	-3.567309e-04
4.444510e+01	-3.608635e-04
4.470182e+01	-3.650440e-04
4.496001e+01	-3.692730e-04
4.521970e+01	-3.735509e-04
4.548089e+01	-3.778785e-04
4.574358e+01	-3.822561e-04
4.600779e+01	-3.866844e-04
4.627353e+01	-3.911641e-04
4.654081e+01	-3.956956e-04
4.680963e+01	-4.002796e-04
4.708000e+01	-4.049168e-04
4.735193e+01	-4.096076e-04
4.762543e+01	-4.143528e-04
4.790051e+01	-4.191530e-04
4.817719e+01	-4.240087e-04
4.845545e+01	-4.289208e-04
4.873533e+01	-4.338897e-04
4.901682e+01	-4.389162e-04
4.929994e+01	-4.440009e-04
4.958470e+01	-4.491445e-04
4.987110e+01	-4.543477e-04
5.015915e+01	-4.596111e-04
5.044887e+01	-4.649356e-04
5.074026e+01	-4.703217e-04
5.103333e+01	-4.757702e-04
5.132810e+01	-4.812818e-04
5.162457e+01	-4.868573e-04
5.192275e+01	-4.924973e-04
5.222265e+01	-4.982027e-04
5.252429e+01	-5.039742e-04
5.282767e+01	-5.098126e-04
5.313280e+01	-5.157185e-04
5.343969e+01	-5.216929e-04
5.374836e+01	-5.277365e-04
5.405880e+01	-5.338501e-04
5.437105e+01	-5.400345e-04
5.468509e+01	-5.462906e-04
5.500095e+01	-5.526191e-04
5.531863e+01	-5.590209e-04
5.563815e+01	-5.654969e-04
5.595951e+01	-5.720479e-04
5.628273e+01	-5.786748e-04
5.660782e+01	-5.853785e-04
5.693479e+01	-5.921598e-04
5.726364e+01	-5.990196e-04
5.759439e+01	-6.059590e-04
5.792705e+01	-6.129787e-04
5.826164e+01	-6.200797e-04
5.859815e+01	-6.272630e-04
5.893662e+01	-6.345294e-04
5.927703e+01	-6.418801e-04
5.961941e+01	-6.493159e-04
5.996377e+01	-6.568378e-04
6.031012e+01	-6.644469e-04
6.065847e+01	-6.721441e-04
6.100883e+01	-6.799305e-04
6.136121e+01	-6.878070e-04
6.171563e+01	-6.957748e-04
6.207210e+01	-7.038349e-04
6.243063e+01	-7.119884e-04
6.279122e+01	-7.202362e-04
6.315390e+01	-7.285797e-04
6.351868e+01	-7.370198e-04
6.388556e+01	-7.455576e-04
6.425456e+01	-7.541943e-04
6.462569e+01	-7.629311e-04
6.499897e+01	-7.717691e-04
6.537440e+01	-7.807095e-04
6.575200e+01	-7.897534e-04
6.613178e+01	-7.989020e-04
6.651375e+01	-8.081567e-04
6.689793e+01	-8.175185e-04
6.728433e+01	-8.269888e-04
6.767297e+01	-8.365688e-04
6.806384e+01	-8.462597e-04
6.845698e+01	-8.560629e-04
6.885238e+01	-8.659796e-04
6.925007e+01	-8.760112e-04
6.965005e+01	-8.861590e-04
7.005235e+01	-8.964243e-04
7.045697e+01	-9.068086e-04
7.086393e+01	-9.173131e-04
7.127323e+01	-9.279393e-04
7.168490e+01	-9.386885e-04
7.209895e+01	-9.495623e-04
7.251539e+01	-9.605620e-04
7.293424e+01	-9.716892e-04
7.335551e+01	-9.829452e-04
7.377920e+01	-9.943316e-04
7.420535e+01	-1.005850e-03
7.463396e+01	-1.017501e-03
7.506504e+01	-1.029288e-03
7.549861e+01	-1.041211e-03
7.593469e+01	-1.053273e-03
7.637328e+01	-1.065473e-03
7.681441e+01	-1.077816e-03
7.725809e+01	-1.090301e-03
7.770433e+01	-1.102931e-03
7.815315e+01	-1.115707e-03
7.860456e+01	-1.128631e-03
7.905857e+01	-1.141705e-03
7.951521e+01	-1.154930e-03
7.997449e+01	-1.168308e-03
8.043642e+01	-1.181842e-03
8.090102e+01	-1.195532e-03
8.136830e+01	-1.209380e-03
8.183828e+01	-1.223389e-03
8.231097e+01	-1.237561e-03
8.278640e+01	-1.251896e-03
8.326457e+01	-1.266398e-03
8.374550e+01	-1.281067e-03
8.422921e+01	-1.295906e-03
8.471572e+01	-1.310917e-03
8.520503e+01	-1.326102e-03
8.569717e+01	-1.341463e-03
8.619215e+01	-1.357002e-03
8.669000e+01	-1.372721e-03
8.719071e+01	-1.388622e-03
8.769432e+01	-1.404707e-03
8.820084e+01	-1.420978e-03
8.871029e+01	-1.437437e-03
8.922267e+01	-1.454088e-03
8.973802e+01	-1.470931e-03
9.025634e+01	-1.487969e-03
9.077766e+01	-1.505205e-03
9.130199e+01	-1.522640e-03
9.182935e+01	-1.540277e-03
9.235975e+01	-1.558118e-03
9.289321e+01	-1.576166e-03
9.342976e+01	-1.594423e-03
9.396941e+01	-1.612892e-03
9.451217e+01	-1.631574e-03
9.505807e+01	-1.650472e-03
9.560712e+01	-1.669590e-03
9.615934e+01	-1.688929e-03
9.671476e+01	-1.708492e-03
9.727338e+01	-1.728281e-03
9.783522e+01	-1.748300e-03
9.840032e+01	-1.768550e-03
9.896867e+01	-1.789035e-03
9.954031e+01	-1.809757e-03
1.001153e+02	-1.830719e-03
1.006935e+02	-1.851924e-03
1.012751e+02	-1.873374e-03
1.018601e+02	-1.895073e-03
1.024484e+02	-1.917023e-03
1.030402e+02	-1.939227e-03
1.036353e+02	-1.961689e-03
1.042339e+02	-1.984410e-03
1.048360e+02	-2.007395e-03
1.054415e+02	-2.030646e-03
1.060505e+02	-2.054166e-03
1.066631e+02	-2.077958e-03
1.072791e+02	-2.102026e-03
1.078988e+02	-2.126373e-03
1.085220e+02	-2.151001e-03
1.091488e+02	-2.175915e-03
1.097793e+02	-2.201117e-03
1.104133e+02	-2.226611e-03
1.110511e+02	-2.252400e-03
1.116925e+02	-2.278488e-03
1.123376e+02	-2.304878e-03
1.129865e+02	-2.331573e-03
1.136391e+02	-2.358578e-03
1.142955e+02	-2.385895e-03
1.149556e+02	-2.413528e-03
1.156196e+02	-2.441482e-03
1.162874e+02	-2.469759e-03
1.169591e+02	-2.498364e-03
1.176347e+02	-2.527299e-03
1.183141e+02	-2.556570e-03
1.189975e+02	-2.586180e-03
1.196848e+02	-2.616133e-03
1.203761e+02	-2.646432e-03
1.210714e+02	-2.677082e-03
1.217707e+02	-2.708087e-03
1.224740e+02	-2.739451e-03
1.231814e+02	-2.771178e-03
1.238929e+02	-2.803273e-03
1.246085e+02	-2.835739e-03
1.253283e+02	-2.868581e-03
1.260522e+02	-2.901803e-03
1.267802e+02	-2.935409e-03
1.275125e+02	-2.969405e-03
1.282490e+02	-3.003795e-03
1.289898e+02	-3.038582e-03
1.297348e+02	-3.073773e-03
1.304842e+02	-3.109370e-03
1.312378e+02	-3.145380e-03
1.319959e+02	-3.181807e-03
1.327583e+02	-3.218655e-03
1.335251e+02	-3.255930e-03
1.342963e+02	-3.293637e-03
1.350720e+02	-3.331780e-03
1.358522e+02	-3.370364e-03
1.366368e+02	-3.409395e-03
1.374260e+02	-3.448878e-03
1.382198e+02	-3.488818e-03
1.390182e+02	-3.529221e-03
1.398211e+02	-3.570091e-03
1.406287e+02	-3.611434e-03
1.414410e+02	-3.653256e-03
1.422579e+02	-3.695562e-03
1.430796e+02	-3.738357e-03
1.439060e+02	-3.781648e-03
1.447372e+02	-3.825440e-03
1.455732e+02	-3.869739e-03
1.464141e+02	-3.914551e-03
1.472597e+02	-3.959881e-03
1.481103e+02	-4.005736e-03
1.489658e+02	-4.052122e-03
1.498262e+02	-4.099045e-03
1.506916e+02	-4.146511e-03
1.515620e+02	-4.194526e-03
1.524374e+02	-4.243097e-03
1.533179e+02	-4.292230e-03
1.542034e+02	-4.341931e-03
1.550941e+02	-4.392208e-03
1.559899e+02	-4.443067e-03
1.568909e+02	-4.494515e-03
1.577971e+02	-4.546557e-03
1.587085e+02	-4.599202e-03
1.596252e+02	-4.652457e-03
1.605472e+02	-4.706327e-03
1.614745e+02	-4.760822e-03
1.624072e+02	-4.815946e-03
1.633453e+02	-4.871709e-03
1.642887e+02	-4.928117e-03
1.652377e+02	-4.985177e-03
1.661921e+02	-5.042898e-03
1.671520e+02	-5.101287e-03
1.681175e+02	-5.160352e-03
1.690885e+02	-5.220100e-03
1.700651e+02	-5.280539e-03
1.710474e+02	-5.341678e-03
1.720354e+02	-5.403524e-03
1.730291e+02	-5.466086e-03
1.740285e+02	-5.529371e-03
1.750337e+02	-5.593389e-03
1.760446e+02	-5.658148e-03
1.770615e+02	-5.723655e-03
1.780842e+02	-5.789921e-03
1.791128e+02	-5.856953e-03
1.801473e+02	-5.924761e-03
1.811878e+02	-5.993354e-03
1.822344e+02	-6.062740e-03
1.832870e+02	-6.132928e-03
1.843456e+02	-6.203929e-03
1.854104e+02	-6.275751e-03
1.864813e+02	-6.348404e-03
1.875584e+02	-6.421897e-03
1.886418e+02	-6.496241e-03
1.897313e+02	-6.571444e-03
1.908272e+02	-6.647518e-03
1.919294e+02	-6.724471e-03
1.930380e+02	-6.802315e-03
1.941530e+02	-6.881059e-03
1.952744e+02	-6.960713e-03
1.964023e+02	-7.041289e-03
1.975367e+02	-7.122797e-03
1.986777e+02	-7.205248e-03
1.998252e+02	-7.288653e-03
2.009794e+02	-7.373022e-03
2.021403e+02	-7.458366e-03
2.033078e+02	-7.544698e-03
2.044821e+02	-7.632028e-03
2.056632e+02	-7.720369e-03
2.068511e+02	-7.809730e-03
2.080459e+02	-7.900126e-03
2.092475e+02	-7.991566e-03
2.104561e+02	-8.084064e-03
2.116717e+02	-8.177631e-03
2.128943e+02	-8.272281e-03
2.141240e+02	-8.368025e-03
2.153608e+02	-8.464876e-03
2.166047e+02	-8.562846e-03
2.178558e+02	-8.661950e-03
2.191141e+02	-8.762199e-03
2.203797e+02	-8.863608e-03
2.216526e+02	-8.966188e-03
2.229329e+02	-9.069955e-03
2.242205e+02	-9.174922e-03
2.255156e+02	-9.281101e-03
2.268182e+02	-9.388509e-03
2.281283e+02	-9.497158e-03
2.294459e+02	-9.607063e-03
2.307712e+02	-9.718238e-03
2.321041e+02	-9.830698e-03
2.334447e+02	-9.944459e-03
2.347931e+02	-1.005953e-02
2.361493e+02	-1.017594e-02
2.375133e+02	-1.029369e-02
2.388851e+02	-1.041280e-02
2.402649e+02	-1.053329e-02
2.416527e+02	-1.065517e-02
2.430484e+02	-1.077846e-02
2.444523e+02	-1.090317e-02
2.458642e+02	-1.102933e-02
2.472843e+02	-1.115694e-02
2.487126e+02	-1.128603e-02
2.501492e+02	-1.141661e-02
2.515940e+02	-1.154870e-02
2.530472e+02	-1.168231e-02
2.545088e+02	-1.181747e-02
2.559789e+02	-1.195419e-02
2.574574e+02	-1.209249e-02
2.589444e+02	-1.223238e-02
2.604401e+02	-1.237389e-02
2.619444e+02	-1.251704e-02
2.634574e+02	-1.266184e-02
2.649791e+02	-1.280832e-02
2.665096e+02	-1.295648e-02
2.680489e+02	-1.310636e-02
2.695972e+02	-1.325797e-02
2.711544e+02	-1.341133e-02
2.727205e+02	-1.356646e-02
2.742958e+02	-1.372338e-02
2.758801e+02	-1.388211e-02
2.774736e+02	-1.404268e-02
2.790762e+02	-1.420510e-02
2.806882e+02	-1.436940e-02
2.823094e+02	-1.453559e-02
2.839400e+02	-1.470370e-02
2.855800e+02	-1.487375e-02
2.872295e+02	-1.504577e-02
2.888886e+02	-1.521977e-02
2.905572e+02	-1.539578e-02
2.922354e+02	-1.557383e-02
2.939234e+02	-1.575393e-02
2.956211e+02	-1.593610e-02
2.973286e+02	-1.612038e-02
2.990459e+02	-1.630679e-02
3.007732e+02	-1.649535e-02
3.025104e+02	-1.668608e-02
3.042577e+02	-1.687902e-02
3.060151e+02	-1.707418e-02
3.077826e+02	-1.727159e-02
3.095604e+02	-1.747129e-02
3.113484e+02	-1.767328e-02
3.131467e+02	-1.787761e-02
3.149554e+02	-1.808429e-02
3.167746e+02	-1.829336e-02
3.186043e+02	-1.850484e-02
3.204445e+02	-1.871876e-02
3.222954e+02	-1.893515e-02
3.241570e+02	-1.915403e-02
3.260293e+02	-1.937544e-02
3.279124e+02	-1.959940e-02
3.298064e+02	-1.982594e-02
3.317114e+02	-2.005510e-02
3.336273e+02	-2.028690e-02
3.355544e+02	-2.052137e-02
3.374925e+02	-2.075854e-02
3.394418e+02	-2.099845e-02
3.414024e+02	-2.124113e-02
3.433744e+02	-2.148660e-02
3.453577e+02	-2.173491e-02
3.473525e+02	-2.198607e-02
3.493588e+02	-2.224013e-02
3.513766e+02	-2.249712e-02
3.534062e+02	-2.275707e-02
3.554474e+02	-2.302001e-02
3.575005e+02	-2.328599e-02
3.595654e+02	-2.355503e-02
3.616422e+02	-2.382717e-02
3.637311e+02	-2.410244e-02
3.658320e+02	-2.438089e-02
3.679450e+02	-2.466254e-02
3.700702e+02	-2.494744e-02
3.722077e+02	-2.523562e-02
3.743576e+02	-2.552712e-02
3.765199e+02	-2.582198e-02
3.786946e+02	-2.612023e-02
3.808820e+02	-2.642191e-02
3.830819e+02	-2.672707e-02
3.852946e+02	-2.703575e-02
3.875200e+02	-2.734797e-02
3.897583e+02	-2.766379e-02
3.920096e+02	-2.798325e-02
3.942738e+02	-2.830638e-02
3.965511e+02	-2.863324e-02
3.988416e+02	-2.896385e-02
4.011452e+02	-2.929827e-02
4.034622e+02	-2.963653e-02
4.057926e+02	-2.997869e-02
4.081365e+02	-3.032479e-02
4.104938e+02	-3.067486e-02
4.128648e+02	-3.102896e-02
4.152495e+02	-3.138714e-02
4.176480e+02	-3.174943e-02
4.200603e+02	-3.211589e-02
4.224866e+02	-3.248657e-02
4.249268e+02	-3.286151e-02
4.273812e+02	-3.324075e-02
4.298497e+02	-3.362436e-02
4.323325e+02	-3.401238e-02
4.348297e+02	-3.440486e-02
4.373412e+02	-3.480184e-02
4.398673e+02	-3.520339e-02
4.424079e+02	-3.560956e-02
4.449633e+02	-3.602039e-02
4.475334e+02	-3.643594e-02
4.501183e+02	-3.685626e-02
4.527182e+02	-3.728141e-02
4.553330e+02	-3.771145e-02
4.579630e+02	-3.814642e-02
4.606082e+02	-3.858639e-02
4.632687e+02	-3.903140e-02
4.659445e+02	-3.948153e-02
4.686358e+02	-3.993683e-02
4.713426e+02	-4.039735e-02
4.740650e+02	-4.086316e-02
4.768032e+02	-4.133431e-02
4.795572e+02	-4.181086e-02
4.823271e+02	-4.229289e-02
4.851130e+02	-4.278044e-02
4.879150e+02	-4.327359e-02
4.907332e+02	-4.377240e-02
4.935676e+02	-4.427692e-02
4.964185e+02	-4.478723e-02
4.992858e+02	-4.530339e-02
5.021696e+02	-4.582546e-02
5.050701e+02	-4.635352e-02
5.079874e+02	-4.688764e-02
5.109215e+02	-4.742787e-02
5.138726e+02	-4.797429e-02
5.168407e+02	-4.852697e-02
5.198259e+02	-4.908599e-02
5.228284e+02	-4.965140e-02
5.258482e+02	-5.022330e-02
5.288855e+02	-5.080174e-02
5.319403e+02	-5.138680e-02
5.350128e+02	-5.197856e-02
5.381030e+02	-5.257709e-02
5.412111e+02	-5.318248e-02
5.443371e+02	-5.379479e-02
5.474812e+02	-5.441410e-02
5.506434e+02	-5.504050e-02
5.538239e+02	-5.567407e-02
5.570228e+02	-5.631488e-02
5.602401e+02	-5.696302e-02
5.634760e+02	-5.761856e-02
5.667306e+02	-5.828160e-02
5.700040e+02	-5.895222e-02
5.732964e+02	-5.963050e-02
5.766077e+02	-6.031654e-02
5.799382e+02	-6.101040e-02
5.832879e+02	-6.171220e-02
5.866569e+02	-6.242201e-02
5.900454e+02	-6.313992e-02
5.934535e+02	-6.386603e-02
5.968813e+02	-6.460042e-02
6.003288e+02	-6.534320e-02
6.037963e+02	-6.609445e-02
6.072838e+02	-6.685428e-02
6.107914e+02	-6.762277e-02
6.143194e+02	-6.840002e-02
6.178676e+02	-6.918614e-02
6.214364e+02	-6.998122e-02
6.250258e+02	-7.078536e-02
6.286359e+02	-7.159866e-02
6.322669e+02	-7.242123e-02
6.359189e+02	-7.325317e-02
6.395919e+02	-7.409459e-02
6.432862e+02	-7.494558e-02
6.470017e+02	-7.580627e-02
6.507388e+02	-7.667675e-02
6.544974e+02	-7.755714e-02
6.582778e+02	-7.844754e-02
6.620800e+02	-7.934808e-02
6.659041e+02	-8.025885e-02
6.697504e+02	-8.117999e-02
6.736188e+02	-8.211159e-02
6.775096e+02	-8.305378e-02
6.814229e+02	-8.400668e-02
6.853587e+02	-8.497040e-02
6.893173e+02	-8.594507e-02
6.932988e+02	-8.693081e-02
6.973033e+02	-8.792774e-02
7.013309e+02	-8.893598e-02
