Frequency(Hz)	Magnitude(dB)
1.000000e+01	-2.256710e+00
1.005776e+01	-2.276777e+00
1.011585e+01	-2.297299e+00
1.017428e+01	-2.317990e+00
1.023305e+01	-2.338856e+00
1.029215e+01	-2.359641e+00
1.035160e+01	-2.380883e+00
1.041139e+01	-2.402007e+00
1.047153e+01	-2.423377e+00
1.053201e+01	-2.444601e+00
1.059284e+01	-2.466285e+00
1.065403e+01	-2.487892e+00
1.071556e+01	-2.509971e+00
1.077746e+01	-2.531902e+00
1.083971e+01	-2.554103e+00
1.090232e+01	-2.576378e+00
1.096529e+01	-2.598967e+00
1.102862e+01	-2.621507e+00
1.109232e+01	-2.644306e+00
1.115639e+01	-2.667210e+00
1.122083e+01	-2.690194e+00
1.128564e+01	-2.713510e+00
1.135083e+01	-2.736861e+00
1.141639e+01	-2.760151e+00
1.148233e+01	-2.783590e+00
1.154865e+01	-2.807334e+00
1.161536e+01	-2.831302e+00
1.168245e+01	-2.855392e+00
1.174992e+01	-2.879428e+00
1.181779e+01	-2.903960e+00
1.188605e+01	-2.928165e+00
1.195470e+01	-2.953163e+00
1.202375e+01	-2.977799e+00
1.209320e+01	-3.002683e+00
1.216305e+01	-3.027551e+00
1.223330e+01	-3.052780e+00
1.230396e+01	-3.078083e+00
1.237503e+01	-3.103769e+00
1.244651e+01	-3.129009e+00
1.251840e+01	-3.155170e+00
1.259070e+01	-3.181084e+00
1.266343e+01	-3.207238e+00
1.273657e+01	-3.233117e+00
1.281014e+01	-3.259403e+00
1.288413e+01	-3.286020e+00
1.295855e+01	-3.312747e+00
1.303339e+01	-3.339254e+00
1.310867e+01	-3.366254e+00
1.318439e+01	-3.393208e+00
1.326054e+01	-3.420831e+00
1.333713e+01	-3.447889e+00
1.341417e+01	-3.475343e+00
1.349165e+01	-3.502913e+00
1.356958e+01	-3.530886e+00
1.364795e+01	-3.558808e+00
1.372678e+01	-3.586734e+00
1.380607e+01	-3.614811e+00
1.388581e+01	-3.643084e+00
1.396602e+01	-3.671829e+00
1.404668e+01	-3.700285e+00
1.412782e+01	-3.729177e+00
1.420942e+01	-3.758047e+00
1.429149e+01	-3.786882e+00
1.437404e+01	-3.815891e+00
1.445706e+01	-3.845462e+00
1.454057e+01	-3.875082e+00
1.462455e+01	-3.904428e+00
1.470902e+01	-3.934267e+00
1.479398e+01	-3.964006e+00
1.487943e+01	-3.994244e+00
1.496537e+01	-4.024274e+00
1.505181e+01	-4.054633e+00
1.513875e+01	-4.085213e+00
1.522619e+01	-4.115624e+00
1.531414e+01	-4.146391e+00
1.540259e+01	-4.177525e+00
1.549156e+01	-4.208385e+00
1.558103e+01	-4.239212e+00
1.567103e+01	-4.270489e+00
1.576155e+01	-4.301964e+00
1.585258e+01	-4.333419e+00
1.594415e+01	-4.365001e+00
1.603624e+01	-4.396724e+00
1.612886e+01	-4.428901e+00
1.622202e+01	-4.460880e+00
1.631572e+01	-4.492684e+00
1.640996e+01	-4.525338e+00
1.650474e+01	-4.557629e+00
1.660008e+01	-4.590292e+00
1.669596e+01	-4.623138e+00
1.679239e+01	-4.656026e+00
1.688938e+01	-4.688831e+00
1.698694e+01	-4.721856e+00
1.708505e+01	-4.754998e+00
1.718373e+01	-4.788489e+00
1.728299e+01	-4.822034e+00
1.738281e+01	-4.855204e+00
1.748322e+01	-4.889181e+00
1.758420e+01	-4.922865e+00
1.768576e+01	-4.957176e+00
1.778792e+01	-4.991145e+00
1.789066e+01	-5.025341e+00
1.799399e+01	-5.059850e+00
1.809793e+01	-5.094259e+00
1.820246e+01	-5.128744e+00
1.830760e+01	-5.163702e+00
1.841334e+01	-5.198901e+00
1.851969e+01	-5.233378e+00
1.862666e+01	-5.268547e+00
1.873425e+01	-5.303723e+00
1.884246e+01	-5.339115e+00
1.895129e+01	-5.374486e+00
1.906075e+01	-5.409887e+00
1.917085e+01	-5.445835e+00
1.928158e+01	-5.481833e+00
1.939295e+01	-5.517451e+00
1.950496e+01	-5.553405e+00
1.961762e+01	-5.589947e+00
1.973093e+01	-5.626323e+00
1.984490e+01	-5.662376e+00
1.995952e+01	-5.699100e+00
2.007480e+01	-5.735375e+00
2.019076e+01	-5.772564e+00
2.030738e+01	-5.809000e+00
2.042467e+01	-5.846029e+00
2.054264e+01	-5.882982e+00
2.066130e+01	-5.920402e+00
2.078064e+01	-5.957376e+00
2.090066e+01	-5.995052e+00
2.102139e+01	-6.032380e+00
2.114280e+01	-6.069956e+00
2.126492e+01	-6.107989e+00
2.138775e+01	-6.145617e+00
2.151128e+01	-6.183517e+00
2.163553e+01	-6.221706e+00
2.176050e+01	-6.259596e+00
2.188619e+01	-6.297847e+00
2.201260e+01	-6.336394e+00
2.213974e+01	-6.374997e+00
2.226762e+01	-6.413168e+00
2.239624e+01	-6.451904e+00
2.252560e+01	-6.490726e+00
2.265571e+01	-6.529613e+00
2.278656e+01	-6.568657e+00
2.291818e+01	-6.607838e+00
2.305055e+01	-6.646675e+00
2.318369e+01	-6.686125e+00
2.331760e+01	-6.725245e+00
2.345228e+01	-6.765022e+00
2.358774e+01	-6.804332e+00
2.372398e+01	-6.843689e+00
2.386101e+01	-6.883477e+00
2.399883e+01	-6.923329e+00
2.413745e+01	-6.963362e+00
2.427686e+01	-7.003587e+00
2.441709e+01	-7.043362e+00
2.455812e+01	-7.083984e+00
2.469997e+01	-7.123880e+00
2.484263e+01	-7.164439e+00
2.498612e+01	-7.204859e+00
2.513044e+01	-7.245134e+00
2.527559e+01	-7.285859e+00
2.542158e+01	-7.326644e+00
2.556842e+01	-7.367668e+00
2.571610e+01	-7.408559e+00
2.586463e+01	-7.449428e+00
2.601403e+01	-7.490147e+00
2.616428e+01	-7.531679e+00
2.631541e+01	-7.572781e+00
2.646740e+01	-7.613862e+00
2.662028e+01	-7.655192e+00
2.677404e+01	-7.696896e+00
2.692868e+01	-7.738742e+00
2.708422e+01	-7.780298e+00
2.724066e+01	-7.822060e+00
2.739800e+01	-7.864035e+00
2.755625e+01	-7.905652e+00
2.771541e+01	-7.947907e+00
2.787550e+01	-7.989565e+00
2.803650e+01	-8.031738e+00
2.819844e+01	-8.073867e+00
2.836131e+01	-8.116267e+00
2.852513e+01	-8.158251e+00
2.868989e+01	-8.200795e+00
2.885560e+01	-8.243520e+00
2.902227e+01	-8.285812e+00
2.918990e+01	-8.328814e+00
2.935850e+01	-8.371449e+00
2.952807e+01	-8.414368e+00
2.969863e+01	-8.456915e+00
2.987016e+01	-8.500190e+00
3.004269e+01	-8.542875e+00
3.021622e+01	-8.585681e+00
3.039075e+01	-8.629235e+00
3.056628e+01	-8.672654e+00
3.074283e+01	-8.715760e+00
3.092040e+01	-8.759094e+00
3.109900e+01	-8.802114e+00
3.127862e+01	-8.846016e+00
3.145929e+01	-8.889266e+00
3.164099e+01	-8.932796e+00
3.182375e+01	-8.976837e+00
3.200756e+01	-9.020371e+00
3.219244e+01	-9.063875e+00
3.237838e+01	-9.108228e+00
3.256540e+01	-9.152040e+00
3.275349e+01	-9.196157e+00
3.294268e+01	-9.240378e+00
3.313295e+01	-9.283975e+00
3.332433e+01	-9.327948e+00
3.351681e+01	-9.372282e+00
3.371040e+01	-9.416761e+00
3.390511e+01	-9.460728e+00
3.410094e+01	-9.505004e+00
3.429791e+01	-9.549472e+00
3.449601e+01	-9.594062e+00
3.469526e+01	-9.638997e+00
3.489566e+01	-9.683529e+00
3.509721e+01	-9.728355e+00
3.529993e+01	-9.772888e+00
3.550382e+01	-9.817880e+00
3.570889e+01	-9.863048e+00
3.591515e+01	-9.907460e+00
3.612259e+01	-9.952516e+00
3.633123e+01	-9.997391e+00
3.654108e+01	-1.004193e+01
3.675214e+01	-1.008759e+01
3.696442e+01	-1.013256e+01
3.717792e+01	-1.017802e+01
3.739266e+01	-1.022337e+01
3.760864e+01	-1.026875e+01
3.782587e+01	-1.031373e+01
3.804435e+01	-1.035907e+01
3.826409e+01	-1.040472e+01
3.848510e+01	-1.045050e+01
3.870739e+01	-1.049565e+01
3.893096e+01	-1.054172e+01
3.915583e+01	-1.058685e+01
3.938199e+01	-1.063252e+01
3.960946e+01	-1.067865e+01
3.983824e+01	-1.072418e+01
4.006834e+01	-1.077004e+01
4.029978e+01	-1.081545e+01
4.053255e+01	-1.086138e+01
4.076666e+01	-1.090768e+01
4.100213e+01	-1.095382e+01
4.123896e+01	-1.099971e+01
4.147715e+01	-1.104623e+01
4.171672e+01	-1.109180e+01
4.195767e+01	-1.113825e+01
4.220002e+01	-1.118365e+01
4.244377e+01	-1.123021e+01
4.268892e+01	-1.127697e+01
4.293549e+01	-1.132297e+01
4.318348e+01	-1.136882e+01
4.343291e+01	-1.141590e+01
4.368377e+01	-1.146299e+01
4.393609e+01	-1.150853e+01
4.418986e+01	-1.155485e+01
4.444510e+01	-1.160209e+01
4.470182e+01	-1.164847e+01
4.496001e+01	-1.169552e+01
4.521970e+01	-1.174146e+01
4.548089e+01	-1.178771e+01
4.574358e+01	-1.183515e+01
4.600779e+01	-1.188170e+01
4.627353e+01	-1.192884e+01
4.654081e+01	-1.197577e+01
4.680963e+01	-1.202203e+01
4.708000e+01	-1.206915e+01
4.735193e+01	-1.211598e+01
4.762543e+01	-1.216314e+01
4.790051e+01	-1.220981e+01
4.817719e+01	-1.225730e+01
4.845545e+01	-1.230413e+01
4.873533e+01	-1.235128e+01
4.901682e+01	-1.239834e+01
4.929994e+01	-1.244598e+01
4.958470e+01	-1.249254e+01
4.987110e+01	-1.254019e+01
5.015915e+01	-1.258741e+01
5.044887e+01	-1.263458e+01
5.074026e+01	-1.268173e+01
5.103333e+01	-1.272965e+01
5.132810e+01	-1.277718e+01
5.162457e+01	-1.282360e+01
5.192275e+01	-1.287062e+01
5.222265e+01	-1.291887e+01
5.252429e+01	-1.296616e+01
5.282767e+01	-1.301299e+01
5.313280e+01	-1.306111e+01
5.343969e+01	-1.310884e+01
5.374836e+01	-1.315669e+01
5.405880e+01	-1.320403e+01
5.437105e+01	-1.325214e+01
5.468509e+01	-1.329935e+01
5.500095e+01	-1.334734e+01
5.531863e+01	-1.339522e+01
5.563815e+01	-1.344290e+01
5.595951e+01	-1.349015e+01
5.628273e+01	-1.353847e+01
5.660782e+01	-1.358538e+01
5.693479e+01	-1.363389e+01
5.726364e+01	-1.368153e+01
5.759439e+01	-1.372966e+01
5.792705e+01	-1.377747e+01
5.826164e+01	-1.382535e+01
5.859815e+01	-1.387406e+01
5.893662e+01	-1.392100e+01
5.927703e+01	-1.396988e+01
5.961941e+01	-1.401805e+01
5.996377e+01	-1.406535e+01
6.031012e+01	-1.411331e+01
6.065847e+01	-1.416122e+01
6.100883e+01	-1.421072e+01
6.136121e+01	-1.425768e+01
6.171563e+01	-1.430592e+01
6.207210e+01	-1.435429e+01
6.243063e+01	-1.440330e+01
6.279122e+01	-1.445105e+01
6.315390e+01	-1.449969e+01
6.351868e+01	-1.454692e+01
6.388556e+01	-1.459515e+01
6.425456e+01	-1.464382e+01
6.462569e+01	-1.469238e+01
6.499897e+01	-1.474067e+01
6.537440e+01	-1.478940e+01
6.575200e+01	-1.483889e+01
6.613178e+01	-1.488514e+01
6.651375e+01	-1.493382e+01
6.689793e+01	-1.498184e+01
6.728433e+01	-1.503086e+01
6.767297e+01	-1.507927e+01
6.806384e+01	-1.512823e+01
6.845698e+01	-1.517750e+01
6.885238e+01	-1.522472e+01
6.925007e+01	-1.527293e+01
6.965005e+01	-1.532193e+01
7.005235e+01	-1.537063e+01
7.045697e+01	-1.541910e+01
7.086393e+01	-1.546681e+01
7.127323e+01	-1.551639e+01
7.168490e+01	-1.556493e+01
7.209895e+01	-1.561394e+01
7.251539e+01	-1.566263e+01
7.293424e+01	-1.571114e+01
7.335551e+01	-1.575970e+01
7.377920e+01	-1.580726e+01
7.420535e+01	-1.585689e+01
7.463396e+01	-1.590554e+01
7.506504e+01	-1.595346e+01
7.549861e+01	-1.600393e+01
7.593469e+01	-1.605185e+01
7.637328e+01	-1.610024e+01
7.681441e+01	-1.614970e+01
7.725809e+01	-1.619833e+01
7.770433e+01	-1.624712e+01
7.815315e+01	-1.629644e+01
7.860456e+01	-1.634529e+01
7.905857e+01	-1.639411e+01
7.951521e+01	-1.644202e+01
7.997449e+01	-1.649217e+01
8.043642e+01	-1.654147e+01
8.090102e+01	-1.658845e+01
8.136830e+01	-1.663828e+01
8.183828e+01	-1.668663e+01
8.231097e+01	-1.673768e+01
8.278640e+01	-1.678436e+01
8.326457e+01	-1.683489e+01
8.374550e+01	-1.688305e+01
8.422921e+01	-1.693277e+01
8.471572e+01	-1.698096e+01
8.520503e+01	-1.703097e+01
8.569717e+01	-1.707905e+01
8.619215e+01	-1.712966e+01
8.669000e+01	-1.717794e+01
8.719071e+01	-1.722655e+01
8.769432e+01	-1.727632e+01
8.820084e+01	-1.732405e+01
8.871029e+01	-1.737462e+01
8.922267e+01	-1.742220e+01
8.973802e+01	-1.747184e+01
9.025634e+01	-1.752173e+01
9.077766e+01	-1.757065e+01
9.130199e+01	-1.761986e+01
9.182935e+01	-1.766906e+01
9.235975e+01	-1.771776e+01
9.289321e+01	-1.776793e+01
9.342976e+01	-1.781685e+01
9.396941e+01	-1.786501e+01
9.451217e+01	-1.791571e+01
9.505807e+01	-1.796347e+01
9.560712e+01	-1.801258e+01
9.615934e+01	-1.806257e+01
9.671476e+01	-1.811201e+01
9.727338e+01	-1.816120e+01
9.783522e+01	-1.821155e+01
9.840032e+01	-1.825969e+01
9.896867e+01	-1.830913e+01
9.954031e+01	-1.835972e+01
1.001153e+02	-1.840738e+01
1.006935e+02	-1.845793e+01
1.012751e+02	-1.850811e+01
1.018601e+02	-1.855613e+01
1.024484e+02	-1.860587e+01
1.030402e+02	-1.865417e+01
1.036353e+02	-1.870426e+01
1.042339e+02	-1.875299e+01
1.048360e+02	-1.880268e+01
1.054415e+02	-1.885036e+01
1.060505e+02	-1.890207e+01
1.066631e+02	-1.895206e+01
1.072791e+02	-1.899936e+01
1.078988e+02	-1.904851e+01
1.085220e+02	-1.909761e+01
1.091488e+02	-1.914735e+01
1.097793e+02	-1.919870e+01
1.104133e+02	-1.924870e+01
1.110511e+02	-1.929708e+01
1.116925e+02	-1.934628e+01
1.123376e+02	-1.939619e+01
1.129865e+02	-1.944535e+01
1.136391e+02	-1.949530e+01
1.142955e+02	-1.954319e+01
1.149556e+02	-1.959280e+01
1.156196e+02	-1.964310e+01
1.162874e+02	-1.969173e+01
1.169591e+02	-1.974128e+01
1.176347e+02	-1.979052e+01
1.183141e+02	-1.984227e+01
1.189975e+02	-1.989142e+01
1.196848e+02	-1.994037e+01
1.203761e+02	-1.998949e+01
1.210714e+02	-2.003856e+01
1.217707e+02	-2.008936e+01
1.224740e+02	-2.013852e+01
1.231814e+02	-2.018887e+01
1.238929e+02	-2.023770e+01
1.246085e+02	-2.028748e+01
1.253283e+02	-2.033644e+01
1.260522e+02	-2.038515e+01
1.267802e+02	-2.043753e+01
1.275125e+02	-2.048517e+01
1.282490e+02	-2.053416e+01
1.289898e+02	-2.058528e+01
1.297348e+02	-2.063467e+01
1.304842e+02	-2.068535e+01
1.312378e+02	-2.073340e+01
1.319959e+02	-2.078210e+01
1.327583e+02	-2.083283e+01
1.335251e+02	-2.088169e+01
1.342963e+02	-2.093169e+01
1.350720e+02	-2.098060e+01
1.358522e+02	-2.103204e+01
1.366368e+02	-2.108092e+01
1.374260e+02	-2.113048e+01
1.382198e+02	-2.117917e+01
1.390182e+02	-2.123002e+01
1.398211e+02	-2.127969e+01
1.406287e+02	-2.132808e+01
1.414410e+02	-2.137960e+01
1.422579e+02	-2.142755e+01
1.430796e+02	-2.147843e+01
1.439060e+02	-2.152843e+01
1.447372e+02	-2.157649e+01
1.455732e+02	-2.162656e+01
1.464141e+02	-2.167805e+01
1.472597e+02	-2.172480e+01
1.481103e+02	-2.177600e+01
1.489658e+02	-2.182389e+01
1.498262e+02	-2.187631e+01
1.506916e+02	-2.192486e+01
1.515620e+02	-2.197410e+01
1.524374e+02	-2.202344e+01
1.533179e+02	-2.207450e+01
1.542034e+02	-2.212547e+01
1.550941e+02	-2.217554e+01
1.559899e+02	-2.222308e+01
1.568909e+02	-2.227234e+01
1.577971e+02	-2.232283e+01
1.587085e+02	-2.237408e+01
1.596252e+02	-2.242371e+01
1.605472e+02	-2.247302e+01
1.614745e+02	-2.252165e+01
1.624072e+02	-2.256992e+01
1.633453e+02	-2.262370e+01
1.642887e+02	-2.267158e+01
1.652377e+02	-2.272079e+01
1.661921e+02	-2.277069e+01
1.671520e+02	-2.282030e+01
1.681175e+02	-2.286986e+01
1.690885e+02	-2.292175e+01
1.700651e+02	-2.296840e+01
1.710474e+02	-2.301856e+01
1.720354e+02	-2.307248e+01
1.730291e+02	-2.312105e+01
1.740285e+02	-2.316813e+01
1.750337e+02	-2.322137e+01
1.760446e+02	-2.326840e+01
1.770615e+02	-2.331963e+01
1.780842e+02	-2.336919e+01
1.791128e+02	-2.342099e+01
1.801473e+02	-2.346791e+01
1.811878e+02	-2.352023e+01
1.822344e+02	-2.356626e+01
1.832870e+02	-2.361635e+01
1.843456e+02	-2.366741e+01
1.854104e+02	-2.371680e+01
1.864813e+02	-2.376645e+01
1.875584e+02	-2.382048e+01
1.886418e+02	-2.386597e+01
1.897313e+02	-2.391607e+01
1.908272e+02	-2.396592e+01
1.919294e+02	-2.401798e+01
1.930380e+02	-2.406921e+01
1.941530e+02	-2.411917e+01
1.952744e+02	-2.416681e+01
1.964023e+02	-2.421899e+01
1.975367e+02	-2.426495e+01
1.986777e+02	-2.431510e+01
1.998252e+02	-2.436628e+01
2.009794e+02	-2.441712e+01
2.021403e+02	-2.446560e+01
2.033078e+02	-2.451350e+01
2.044821e+02	-2.456557e+01
2.056632e+02	-2.461620e+01
2.068511e+02	-2.466688e+01
2.080459e+02	-2.471417e+01
2.092475e+02	-2.476510e+01
2.104561e+02	-2.481512e+01
2.116717e+02	-2.486268e+01
2.128943e+02	-2.491381e+01
2.141240e+02	-2.496423e+01
2.153608e+02	-2.501334e+01
2.166047e+02	-2.506195e+01
2.178558e+02	-2.511358e+01
2.191141e+02	-2.516458e+01
2.203797e+02	-2.521395e+01
2.216526e+02	-2.526627e+01
2.229329e+02	-2.531573e+01
2.242205e+02	-2.536483e+01
2.255156e+02	-2.541413e+01
2.268182e+02	-2.546396e+01
2.281283e+02	-2.551306e+01
2.294459e+02	-2.556446e+01
2.307712e+02	-2.561252e+01
2.321041e+02	-2.566672e+01
2.334447e+02	-2.571350e+01
2.347931e+02	-2.576111e+01
2.361493e+02	-2.581333e+01
2.375133e+02	-2.586183e+01
2.388851e+02	-2.591168e+01
2.402649e+02	-2.596504e+01
2.416527e+02	-2.601149e+01
2.430484e+02	-2.606095e+01
2.444523e+02	-2.611548e+01
2.458642e+02	-2.616098e+01
2.472843e+02	-2.621482e+01
2.487126e+02	-2.626277e+01
2.501492e+02	-2.631183e+01
2.515940e+02	-2.636403e+01
2.530472e+02	-2.641032e+01
2.545088e+02	-2.646254e+01
2.559789e+02	-2.651417e+01
2.574574e+02	-2.656132e+01
2.589444e+02	-2.661197e+01
2.604401e+02	-2.666429e+01
2.619444e+02	-2.670988e+01
2.634574e+02	-2.676312e+01
2.649791e+02	-2.681378e+01
2.665096e+02	-2.686190e+01
2.680489e+02	-2.691307e+01
2.695972e+02	-2.696345e+01
2.711544e+02	-2.701141e+01
2.727205e+02	-2.706128e+01
2.742958e+02	-2.711218e+01
2.758801e+02	-2.716046e+01
2.774736e+02	-2.721256e+01
2.790762e+02	-2.726463e+01
2.806882e+02	-2.731266e+01
2.823094e+02	-2.736499e+01
2.839400e+02	-2.740870e+01
2.855800e+02	-2.746599e+01
2.872295e+02	-2.751357e+01
2.888886e+02	-2.756328e+01
2.905572e+02	-2.761398e+01
2.922354e+02	-2.766296e+01
2.939234e+02	-2.771298e+01
2.956211e+02	-2.776380e+01
2.973286e+02	-2.780994e+01
2.990459e+02	-2.786322e+01
3.007732e+02	-2.791018e+01
3.025104e+02	-2.796175e+01
3.042577e+02	-2.800906e+01
3.060151e+02	-2.806108e+01
3.077826e+02	-2.811090e+01
3.095604e+02	-2.816004e+01
3.113484e+02	-2.821254e+01
3.131467e+02	-2.826336e+01
3.149554e+02	-2.831355e+01
3.167746e+02	-2.836494e+01
3.186043e+02	-2.841162e+01
3.204445e+02	-2.846602e+01
3.222954e+02	-2.850824e+01
3.241570e+02	-2.856255e+01
3.260293e+02	-2.861172e+01
3.279124e+02	-2.866187e+01
3.298064e+02	-2.871492e+01
3.317114e+02	-2.876139e+01
3.336273e+02	-2.881482e+01
3.355544e+02	-2.886445e+01
3.374925e+02	-2.891094e+01
3.394418e+02	-2.896438e+01
3.414024e+02	-2.901129e+01
3.433744e+02	-2.906631e+01
3.453577e+02	-2.911221e+01
3.473525e+02	-2.916254e+01
3.493588e+02	-2.921319e+01
3.513766e+02	-2.926556e+01
3.534062e+02	-2.931185e+01
3.554474e+02	-2.936610e+01
3.575005e+02	-2.941089e+01
3.595654e+02	-2.946607e+01
3.616422e+02	-2.951404e+01
3.637311e+02	-2.956792e+01
3.658320e+02	-2.961695e+01
3.679450e+02	-2.966321e+01
3.700702e+02	-2.971380e+01
3.722077e+02	-2.976439e+01
3.743576e+02	-2.981613e+01
3.765199e+02	-2.986793e+01
3.786946e+02	-2.991317e+01
3.808820e+02	-2.996165e+01
3.830819e+02	-3.001242e+01
3.852946e+02	-3.006451e+01
3.875200e+02	-3.011838e+01
3.897583e+02	-3.016409e+01
3.920096e+02	-3.021245e+01
3.942738e+02	-3.026522e+01
3.965511e+02	-3.031932e+01
3.988416e+02	-3.036767e+01
4.011452e+02	-3.041829e+01
4.034622e+02	-3.046648e+01
4.057926e+02	-3.051960e+01
4.081365e+02	-3.056871e+01
4.104938e+02	-3.061228e+01
4.128648e+02	-3.066839e+01
4.152495e+02	-3.071300e+01
4.176480e+02	-3.075999e+01
4.200603e+02	-3.082071e+01
4.224866e+02	-3.087320e+01
4.249268e+02	-3.092152e+01
4.273812e+02	-3.097184e+01
4.298497e+02	-3.101503e+01
4.323325e+02	-3.107023e+01
4.348297e+02	-3.111949e+01
4.373412e+02	-3.116622e+01
4.398673e+02	-3.121598e+01
4.424079e+02	-3.126691e+01
4.449633e+02	-3.132192e+01
4.475334e+02	-3.136899e+01
4.501183e+02	-3.142215e+01
4.527182e+02	-3.146979e+01
4.553330e+02	-3.152116e+01
4.579630e+02	-3.156665e+01
4.606082e+02	-3.162227e+01
4.632687e+02	-3.167004e+01
4.659445e+02	-3.172115e+01
4.686358e+02	-3.176993e+01
4.713426e+02	-3.181691e+01
4.740650e+02	-3.186896e+01
4.768032e+02	-3.192209e+01
4.795572e+02	-3.197642e+01
4.823271e+02	-3.202567e+01
4.851130e+02	-3.207942e+01
4.879150e+02	-3.212214e+01
4.907332e+02	-3.217257e+01
4.935676e+02	-3.222289e+01
4.964185e+02	-3.227152e+01
4.992858e+02	-3.232249e+01
5.021696e+02	-3.237179e+01
5.050701e+02	-3.242296e+01
5.079874e+02	-3.248461e+01
5.109215e+02	-3.252157e+01
5.138726e+02	-3.257259e+01
5.168407e+02	-3.262989e+01
5.198259e+02	-3.268188e+01
5.228284e+02	-3.272253e+01
5.258482e+02	-3.277642e+01
5.288855e+02	-3.282029e+01
5.319403e+02	-3.287468e+01
5.350128e+02	-3.292894e+01
5.381030e+02	-3.297088e+01
5.412111e+02	-3.302327e+01
5.443371e+02	-3.307797e+01
5.474812e+02	-3.313774e+01
5.506434e+02	-3.317583e+01
5.538239e+02	-3.322343e+01
5.570228e+02	-3.327820e+01
5.602401e+02	-3.332158e+01
5.634760e+02	-3.337722e+01
5.667306e+02	-3.343262e+01
5.700040e+02	-3.348574e+01
5.732964e+02	-3.353339e+01
5.766077e+02	-3.358297e+01
5.799382e+02	-3.362818e+01
5.832879e+02	-3.367437e+01
5.866569e+02	-3.372911e+01
5.900454e+02	-3.377678e+01
5.934535e+02	-3.383203e+01
5.968813e+02	-3.388110e+01
6.003288e+02	-3.393080e+01
6.037963e+02	-3.397824e+01
6.072838e+02	-3.402928e+01
6.107914e+02	-3.408073e+01
6.143194e+02	-3.413312e+01
6.178676e+02	-3.418579e+01
6.214364e+02	-3.423064e+01
6.250258e+02	-3.428110e+01
6.286359e+02	-3.433995e+01
6.322669e+02	-3.438666e+01
6.359189e+02	-3.444107e+01
6.395919e+02	-3.448398e+01
6.432862e+02	-3.453995e+01
6.470017e+02	-3.458452e+01
6.507388e+02	-3.463259e+01
6.544974e+02	-3.468998e+01
6.582778e+02	-3.474183e+01
6.620800e+02	-3.479752e+01
6.659041e+02	-3.483207e+01
6.697504e+02	-3.489307e+01
6.736188e+02	-3.494188e+01
6.775096e+02	-3.498924e+01
6.814229e+02	-3.503989e+01
6.853587e+02	-3.507958e+01
6.893173e+02	-3.514232e+01
6.932988e+02	-3.519094e+01
6.973033e+02	-3.523871e+01
7.013309e+02	-3.529251e+01
