Frequency(Hz)	Magnitude(dB)
1.000000e+01	-2.355012e+00
1.005776e+01	-2.375836e+00
1.011585e+01	-2.397070e+00
1.017428e+01	-2.418377e+00
1.023305e+01	-2.439895e+00
1.029215e+01	-2.461205e+00
1.035160e+01	-2.483076e+00
1.041139e+01	-2.504851e+00
1.047153e+01	-2.526670e+00
1.053201e+01	-2.549126e+00
1.059284e+01	-2.571220e+00
1.065403e+01	-2.593723e+00
1.071556e+01	-2.616228e+00
1.077746e+01	-2.638884e+00
1.083971e+01	-2.662029e+00
1.090232e+01	-2.684801e+00
1.096529e+01	-2.707819e+00
1.102862e+01	-2.731042e+00
1.109232e+01	-2.754710e+00
1.115639e+01	-2.778297e+00
1.122083e+01	-2.802025e+00
1.128564e+01	-2.825688e+00
1.135083e+01	-2.849863e+00
1.141639e+01	-2.874202e+00
1.148233e+01	-2.898271e+00
1.154865e+01	-2.922601e+00
1.161536e+01	-2.947191e+00
1.168245e+01	-2.971915e+00
1.174992e+01	-2.996802e+00
1.181779e+01	-3.021889e+00
1.188605e+01	-3.047064e+00
1.195470e+01	-3.072270e+00
1.202375e+01	-3.097601e+00
1.209320e+01	-3.123334e+00
1.216305e+01	-3.148905e+00
1.223330e+01	-3.174910e+00
1.230396e+01	-3.200987e+00
1.237503e+01	-3.227072e+00
1.244651e+01	-3.253469e+00
1.251840e+01	-3.279632e+00
1.259070e+01	-3.306404e+00
1.266343e+01	-3.333172e+00
1.273657e+01	-3.360088e+00
1.281014e+01	-3.386865e+00
1.288413e+01	-3.413975e+00
1.295855e+01	-3.441335e+00
1.303339e+01	-3.469000e+00
1.310867e+01	-3.496448e+00
1.318439e+01	-3.524278e+00
1.326054e+01	-3.552074e+00
1.333713e+01	-3.579964e+00
1.341417e+01	-3.608341e+00
1.349165e+01	-3.636787e+00
1.356958e+01	-3.665100e+00
1.364795e+01	-3.693806e+00
1.372678e+01	-3.722404e+00
1.380607e+01	-3.751116e+00
1.388581e+01	-3.780266e+00
1.396602e+01	-3.809490e+00
1.404668e+01	-3.838787e+00
1.412782e+01	-3.868052e+00
1.420942e+01	-3.897943e+00
1.429149e+01	-3.927371e+00
1.437404e+01	-3.957509e+00
1.445706e+01	-3.987198e+00
1.454057e+01	-4.017417e+00
1.462455e+01	-4.047728e+00
1.470902e+01	-4.078143e+00
1.479398e+01	-4.108520e+00
1.487943e+01	-4.139227e+00
1.496537e+01	-4.169903e+00
1.505181e+01	-4.200851e+00
1.513875e+01	-4.231909e+00
1.522619e+01	-4.263130e+00
1.531414e+01	-4.294570e+00
1.540259e+01	-4.326017e+00
1.549156e+01	-4.357736e+00
1.558103e+01	-4.389270e+00
1.567103e+01	-4.421341e+00
1.576155e+01	-4.453329e+00
1.585258e+01	-4.485414e+00
1.594415e+01	-4.517697e+00
1.603624e+01	-4.550025e+00
1.612886e+01	-4.582588e+00
1.622202e+01	-4.615736e+00
1.631572e+01	-4.648013e+00
1.640996e+01	-4.681077e+00
1.650474e+01	-4.714142e+00
1.660008e+01	-4.747461e+00
1.669596e+01	-4.780673e+00
1.679239e+01	-4.814058e+00
1.688938e+01	-4.847466e+00
1.698694e+01	-4.881406e+00
1.708505e+01	-4.915216e+00
1.718373e+01	-4.949318e+00
1.728299e+01	-4.983611e+00
1.738281e+01	-5.017687e+00
1.748322e+01	-5.051556e+00
1.758420e+01	-5.086415e+00
1.768576e+01	-5.120713e+00
1.778792e+01	-5.155661e+00
1.789066e+01	-5.190405e+00
1.799399e+01	-5.225549e+00
1.809793e+01	-5.260490e+00
1.820246e+01	-5.295319e+00
1.830760e+01	-5.330825e+00
1.841334e+01	-5.366338e+00
1.851969e+01	-5.402171e+00
1.862666e+01	-5.437708e+00
1.873425e+01	-5.473117e+00
1.884246e+01	-5.509340e+00
1.895129e+01	-5.545279e+00
1.906075e+01	-5.581395e+00
1.917085e+01	-5.617710e+00
1.928158e+01	-5.654083e+00
1.939295e+01	-5.690500e+00
1.950496e+01	-5.727033e+00
1.961762e+01	-5.763925e+00
1.973093e+01	-5.800728e+00
1.984490e+01	-5.837385e+00
1.995952e+01	-5.874185e+00
2.007480e+01	-5.911534e+00
2.019076e+01	-5.948948e+00
2.030738e+01	-5.986195e+00
2.042467e+01	-6.023667e+00
2.054264e+01	-6.061614e+00
2.066130e+01	-6.099177e+00
2.078064e+01	-6.137164e+00
2.090066e+01	-6.174764e+00
2.102139e+01	-6.212850e+00
2.114280e+01	-6.250848e+00
2.126492e+01	-6.288871e+00
2.138775e+01	-6.327453e+00
2.151128e+01	-6.365573e+00
2.163553e+01	-6.404277e+00
2.176050e+01	-6.442901e+00
2.188619e+01	-6.481684e+00
2.201260e+01	-6.520506e+00
2.213974e+01	-6.559694e+00
2.226762e+01	-6.598521e+00
2.239624e+01	-6.637626e+00
2.252560e+01	-6.676490e+00
2.265571e+01	-6.716200e+00
2.278656e+01	-6.755753e+00
2.291818e+01	-6.795326e+00
2.305055e+01	-6.834701e+00
2.318369e+01	-6.874435e+00
2.331760e+01	-6.914169e+00
2.345228e+01	-6.953802e+00
2.358774e+01	-6.994319e+00
2.372398e+01	-7.034246e+00
2.386101e+01	-7.074179e+00
2.399883e+01	-7.114441e+00
2.413745e+01	-7.154847e+00
2.427686e+01	-7.194992e+00
2.441709e+01	-7.235887e+00
2.455812e+01	-7.276587e+00
2.469997e+01	-7.316917e+00
2.484263e+01	-7.358134e+00
2.498612e+01	-7.399365e+00
2.513044e+01	-7.439571e+00
2.527559e+01	-7.481094e+00
2.542158e+01	-7.521778e+00
2.556842e+01	-7.563005e+00
2.571610e+01	-7.604619e+00
2.586463e+01	-7.645760e+00
2.601403e+01	-7.687362e+00
2.616428e+01	-7.728833e+00
2.631541e+01	-7.770519e+00
2.646740e+01	-7.811936e+00
2.662028e+01	-7.854579e+00
2.677404e+01	-7.896331e+00
2.692868e+01	-7.937888e+00
2.708422e+01	-7.979798e+00
2.724066e+01	-8.021576e+00
2.739800e+01	-8.063966e+00
2.755625e+01	-8.106323e+00
2.771541e+01	-8.148606e+00
2.787550e+01	-8.191271e+00
2.803650e+01	-8.233741e+00
2.819844e+01	-8.276426e+00
2.836131e+01	-8.318927e+00
2.852513e+01	-8.361797e+00
2.868989e+01	-8.404226e+00
2.885560e+01	-8.447443e+00
2.902227e+01	-8.490249e+00
2.918990e+01	-8.533258e+00
2.935850e+01	-8.576443e+00
2.952807e+01	-8.619604e+00
2.969863e+01	-8.662194e+00
2.987016e+01	-8.705581e+00
3.004269e+01	-8.748464e+00
3.021622e+01	-8.792675e+00
3.039075e+01	-8.835383e+00
3.056628e+01	-8.879387e+00
3.074283e+01	-8.923020e+00
3.092040e+01	-8.966355e+00
3.109900e+01	-9.010132e+00
3.127862e+01	-9.053879e+00
3.145929e+01	-9.097925e+00
3.164099e+01	-9.141803e+00
3.182375e+01	-9.185956e+00
3.200756e+01	-9.229824e+00
3.219244e+01	-9.273857e+00
3.237838e+01	-9.317691e+00
3.256540e+01	-9.361969e+00
3.275349e+01	-9.406948e+00
3.294268e+01	-9.451142e+00
3.313295e+01	-9.495194e+00
3.332433e+01	-9.539152e+00
3.351681e+01	-9.584093e+00
3.371040e+01	-9.628957e+00
3.390511e+01	-9.673274e+00
3.410094e+01	-9.717746e+00
3.429791e+01	-9.762613e+00
3.449601e+01	-9.806705e+00
3.469526e+01	-9.852426e+00
3.489566e+01	-9.896956e+00
3.509721e+01	-9.941901e+00
3.529993e+01	-9.986694e+00
3.550382e+01	-1.003197e+01
3.570889e+01	-1.007724e+01
3.591515e+01	-1.012258e+01
3.612259e+01	-1.016751e+01
3.633123e+01	-1.021260e+01
3.654108e+01	-1.025820e+01
3.675214e+01	-1.030325e+01
3.696442e+01	-1.034870e+01
3.717792e+01	-1.039472e+01
3.739266e+01	-1.043958e+01
3.760864e+01	-1.048514e+01
3.782587e+01	-1.053112e+01
3.804435e+01	-1.057622e+01
3.826409e+01	-1.062196e+01
3.848510e+01	-1.066840e+01
3.870739e+01	-1.071332e+01
3.893096e+01	-1.075940e+01
3.915583e+01	-1.080499e+01
3.938199e+01	-1.085121e+01
3.960946e+01	-1.089731e+01
3.983824e+01	-1.094331e+01
4.006834e+01	-1.098903e+01
4.029978e+01	-1.103411e+01
4.053255e+01	-1.108054e+01
4.076666e+01	-1.112693e+01
4.100213e+01	-1.117307e+01
4.123896e+01	-1.121973e+01
4.147715e+01	-1.126537e+01
4.171672e+01	-1.131249e+01
4.195767e+01	-1.135788e+01
4.220002e+01	-1.140484e+01
4.244377e+01	-1.145133e+01
4.268892e+01	-1.149764e+01
4.293549e+01	-1.154464e+01
4.318348e+01	-1.159160e+01
4.343291e+01	-1.163735e+01
4.368377e+01	-1.168412e+01
4.393609e+01	-1.173028e+01
4.418986e+01	-1.177741e+01
4.444510e+01	-1.182364e+01
4.470182e+01	-1.187092e+01
4.496001e+01	-1.191804e+01
4.521970e+01	-1.196472e+01
4.548089e+01	-1.201086e+01
4.574358e+01	-1.205869e+01
4.600779e+01	-1.210519e+01
4.627353e+01	-1.215226e+01
4.654081e+01	-1.219894e+01
4.680963e+01	-1.224612e+01
4.708000e+01	-1.229301e+01
4.735193e+01	-1.233998e+01
4.762543e+01	-1.238729e+01
4.790051e+01	-1.243523e+01
4.817719e+01	-1.248162e+01
4.845545e+01	-1.252883e+01
4.873533e+01	-1.257615e+01
4.901682e+01	-1.262383e+01
4.929994e+01	-1.267065e+01
4.958470e+01	-1.271756e+01
4.987110e+01	-1.276527e+01
5.015915e+01	-1.281189e+01
5.044887e+01	-1.286008e+01
5.074026e+01	-1.290811e+01
5.103333e+01	-1.295512e+01
5.132810e+01	-1.300247e+01
5.162457e+01	-1.304961e+01
5.192275e+01	-1.309705e+01
5.222265e+01	-1.314539e+01
5.252429e+01	-1.319381e+01
5.282767e+01	-1.324138e+01
5.313280e+01	-1.328880e+01
5.343969e+01	-1.333668e+01
5.374836e+01	-1.338337e+01
5.405880e+01	-1.343133e+01
5.437105e+01	-1.347886e+01
5.468509e+01	-1.352725e+01
5.500095e+01	-1.357437e+01
5.531863e+01	-1.362238e+01
5.563815e+01	-1.367111e+01
5.595951e+01	-1.371813e+01
5.628273e+01	-1.376691e+01
5.660782e+01	-1.381442e+01
5.693479e+01	-1.386215e+01
5.726364e+01	-1.391057e+01
5.759439e+01	-1.395845e+01
5.792705e+01	-1.400582e+01
5.826164e+01	-1.405472e+01
5.859815e+01	-1.410218e+01
5.893662e+01	-1.415042e+01
5.927703e+01	-1.419837e+01
5.961941e+01	-1.424763e+01
5.996377e+01	-1.429512e+01
6.031012e+01	-1.434403e+01
6.065847e+01	-1.439155e+01
6.100883e+01	-1.443987e+01
6.136121e+01	-1.448803e+01
6.171563e+01	-1.453608e+01
6.207210e+01	-1.458483e+01
6.243063e+01	-1.463270e+01
6.279122e+01	-1.468120e+01
6.315390e+01	-1.472902e+01
6.351868e+01	-1.477827e+01
6.388556e+01	-1.482577e+01
6.425456e+01	-1.487450e+01
6.462569e+01	-1.492291e+01
6.499897e+01	-1.497138e+01
6.537440e+01	-1.501952e+01
6.575200e+01	-1.506824e+01
6.613178e+01	-1.511685e+01
6.651375e+01	-1.516500e+01
6.689793e+01	-1.521389e+01
6.728433e+01	-1.526254e+01
6.767297e+01	-1.530988e+01
6.806384e+01	-1.535849e+01
6.845698e+01	-1.540726e+01
6.885238e+01	-1.545551e+01
6.925007e+01	-1.550549e+01
6.965005e+01	-1.555353e+01
7.005235e+01	-1.560212e+01
7.045697e+01	-1.565091e+01
7.086393e+01	-1.570014e+01
7.127323e+01	-1.574777e+01
7.168490e+01	-1.579613e+01
7.209895e+01	-1.584615e+01
7.251539e+01	-1.589433e+01
7.293424e+01	-1.594340e+01
7.335551e+01	-1.599181e+01
7.377920e+01	-1.604146e+01
7.420535e+01	-1.608983e+01
7.463396e+01	-1.613846e+01
7.506504e+01	-1.618708e+01
7.549861e+01	-1.623647e+01
7.593469e+01	-1.628607e+01
7.637328e+01	-1.633367e+01
7.681441e+01	-1.638275e+01
7.725809e+01	-1.643305e+01
7.770433e+01	-1.648084e+01
7.815315e+01	-1.652874e+01
7.860456e+01	-1.657763e+01
7.905857e+01	-1.662781e+01
7.951521e+01	-1.667619e+01
7.997449e+01	-1.672499e+01
8.043642e+01	-1.677471e+01
8.090102e+01	-1.682281e+01
8.136830e+01	-1.687186e+01
8.183828e+01	-1.692065e+01
8.231097e+01	-1.696929e+01
8.278640e+01	-1.701974e+01
8.326457e+01	-1.706678e+01
8.374550e+01	-1.711684e+01
8.422921e+01	-1.716682e+01
8.471572e+01	-1.721541e+01
8.520503e+01	-1.726472e+01
8.569717e+01	-1.731289e+01
8.619215e+01	-1.736376e+01
8.669000e+01	-1.741010e+01
8.719071e+01	-1.746030e+01
8.769432e+01	-1.750846e+01
8.820084e+01	-1.755923e+01
8.871029e+01	-1.760818e+01
8.922267e+01	-1.765791e+01
8.973802e+01	-1.770732e+01
9.025634e+01	-1.775653e+01
9.077766e+01	-1.780633e+01
9.130199e+01	-1.785513e+01
9.182935e+01	-1.790399e+01
9.235975e+01	-1.795214e+01
9.289321e+01	-1.800230e+01
9.342976e+01	-1.805125e+01
9.396941e+01	-1.810095e+01
9.451217e+01	-1.815041e+01
9.505807e+01	-1.819810e+01
9.560712e+01	-1.824745e+01
9.615934e+01	-1.829777e+01
9.671476e+01	-1.834787e+01
9.727338e+01	-1.839605e+01
9.783522e+01	-1.844574e+01
9.840032e+01	-1.849524e+01
9.896867e+01	-1.854591e+01
9.954031e+01	-1.859366e+01
1.001153e+02	-1.864238e+01
1.006935e+02	-1.869279e+01
1.012751e+02	-1.874153e+01
1.018601e+02	-1.879133e+01
1.024484e+02	-1.884125e+01
1.030402e+02	-1.888950e+01
1.036353e+02	-1.893859e+01
1.042339e+02	-1.898788e+01
1.048360e+02	-1.903736e+01
1.054415e+02	-1.908825e+01
1.060505e+02	-1.913593e+01
1.066631e+02	-1.918675e+01
1.072791e+02	-1.923426e+01
1.078988e+02	-1.928498e+01
1.085220e+02	-1.933431e+01
1.091488e+02	-1.938508e+01
1.097793e+02	-1.943420e+01
1.104133e+02	-1.948277e+01
1.110511e+02	-1.953340e+01
1.116925e+02	-1.957973e+01
1.123376e+02	-1.963116e+01
1.129865e+02	-1.967980e+01
1.136391e+02	-1.973025e+01
1.142955e+02	-1.977946e+01
1.149556e+02	-1.982858e+01
1.156196e+02	-1.987832e+01
1.162874e+02	-1.992807e+01
1.169591e+02	-1.997690e+01
1.176347e+02	-2.002835e+01
1.183141e+02	-2.007641e+01
1.189975e+02	-2.012659e+01
1.196848e+02	-2.017736e+01
1.203761e+02	-2.022529e+01
1.210714e+02	-2.027647e+01
1.217707e+02	-2.032521e+01
1.224740e+02	-2.037401e+01
1.231814e+02	-2.042491e+01
1.238929e+02	-2.047434e+01
1.246085e+02	-2.052387e+01
1.253283e+02	-2.057182e+01
1.260522e+02	-2.062187e+01
1.267802e+02	-2.067261e+01
1.275125e+02	-2.072349e+01
1.282490e+02	-2.077083e+01
1.289898e+02	-2.082056e+01
1.297348e+02	-2.086999e+01
1.304842e+02	-2.092080e+01
1.312378e+02	-2.096886e+01
1.319959e+02	-2.102049e+01
1.327583e+02	-2.106959e+01
1.335251e+02	-2.111945e+01
1.342963e+02	-2.116938e+01
1.350720e+02	-2.121799e+01
1.358522e+02	-2.126773e+01
1.366368e+02	-2.131801e+01
1.374260e+02	-2.136715e+01
1.382198e+02	-2.141588e+01
1.390182e+02	-2.146766e+01
1.398211e+02	-2.151611e+01
1.406287e+02	-2.156639e+01
1.414410e+02	-2.161600e+01
1.422579e+02	-2.166532e+01
1.430796e+02	-2.171468e+01
1.439060e+02	-2.176375e+01
1.447372e+02	-2.181435e+01
1.455732e+02	-2.186425e+01
1.464141e+02	-2.191208e+01
1.472597e+02	-2.196257e+01
1.481103e+02	-2.201273e+01
1.489658e+02	-2.206536e+01
1.498262e+02	-2.211356e+01
1.506916e+02	-2.216408e+01
1.515620e+02	-2.221395e+01
1.524374e+02	-2.226185e+01
1.533179e+02	-2.231308e+01
1.542034e+02	-2.236022e+01
1.550941e+02	-2.241108e+01
1.559899e+02	-2.246197e+01
1.568909e+02	-2.251023e+01
1.577971e+02	-2.256024e+01
1.587085e+02	-2.261010e+01
1.596252e+02	-2.266048e+01
1.605472e+02	-2.271060e+01
1.614745e+02	-2.275760e+01
1.624072e+02	-2.280820e+01
1.633453e+02	-2.285871e+01
1.642887e+02	-2.290863e+01
1.652377e+02	-2.296016e+01
1.661921e+02	-2.300768e+01
1.671520e+02	-2.305747e+01
1.681175e+02	-2.310890e+01
1.690885e+02	-2.315754e+01
1.700651e+02	-2.320765e+01
1.710474e+02	-2.325801e+01
1.720354e+02	-2.330486e+01
1.730291e+02	-2.335828e+01
1.740285e+02	-2.340914e+01
1.750337e+02	-2.345423e+01
1.760446e+02	-2.350628e+01
1.770615e+02	-2.355616e+01
1.780842e+02	-2.360413e+01
1.791128e+02	-2.365614e+01
1.801473e+02	-2.370512e+01
1.811878e+02	-2.375490e+01
1.822344e+02	-2.380435e+01
1.832870e+02	-2.385535e+01
1.843456e+02	-2.390492e+01
1.854104e+02	-2.395285e+01
1.864813e+02	-2.400482e+01
1.875584e+02	-2.405556e+01
1.886418e+02	-2.410491e+01
1.897313e+02	-2.415508e+01
1.908272e+02	-2.420478e+01
1.919294e+02	-2.425846e+01
1.930380e+02	-2.430430e+01
1.941530e+02	-2.435027e+01
1.952744e+02	-2.440734e+01
1.964023e+02	-2.445362e+01
1.975367e+02	-2.450486e+01
1.986777e+02	-2.455247e+01
1.998252e+02	-2.460217e+01
2.009794e+02	-2.465195e+01
2.021403e+02	-2.470378e+01
2.033078e+02	-2.475377e+01
2.044821e+02	-2.480290e+01
2.056632e+02	-2.485514e+01
2.068511e+02	-2.489840e+01
2.080459e+02	-2.495345e+01
2.092475e+02	-2.500273e+01
2.104561e+02	-2.505234e+01
2.116717e+02	-2.510269e+01
2.128943e+02	-2.515067e+01
2.141240e+02	-2.520215e+01
2.153608e+02	-2.525574e+01
2.166047e+02	-2.530006e+01
2.178558e+02	-2.535287e+01
2.191141e+02	-2.540187e+01
2.203797e+02	-2.545172e+01
2.216526e+02	-2.550185e+01
2.229329e+02	-2.555320e+01
2.242205e+02	-2.560248e+01
2.255156e+02	-2.565368e+01
2.268182e+02	-2.570146e+01
2.281283e+02	-2.575028e+01
2.294459e+02	-2.580056e+01
2.307712e+02	-2.585276e+01
2.321041e+02	-2.589946e+01
2.334447e+02	-2.594849e+01
2.347931e+02	-2.599891e+01
2.361493e+02	-2.605266e+01
2.375133e+02	-2.610067e+01
2.388851e+02	-2.614868e+01
2.402649e+02	-2.619842e+01
2.416527e+02	-2.625180e+01
2.430484e+02	-2.629995e+01
2.444523e+02	-2.635144e+01
2.458642e+02	-2.640137e+01
2.472843e+02	-2.644862e+01
2.487126e+02	-2.650149e+01
2.501492e+02	-2.655293e+01
2.515940e+02	-2.660273e+01
2.530472e+02	-2.665175e+01
2.545088e+02	-2.669921e+01
2.559789e+02	-2.675316e+01
2.574574e+02	-2.680198e+01
2.589444e+02	-2.685180e+01
2.604401e+02	-2.689956e+01
2.619444e+02	-2.695151e+01
2.634574e+02	-2.700225e+01
2.649791e+02	-2.704888e+01
2.665096e+02	-2.710000e+01
2.680489e+02	-2.714771e+01
2.695972e+02	-2.719949e+01
2.711544e+02	-2.725140e+01
2.727205e+02	-2.730034e+01
2.742958e+02	-2.735211e+01
2.758801e+02	-2.740417e+01
2.774736e+02	-2.745102e+01
2.790762e+02	-2.750025e+01
2.806882e+02	-2.755139e+01
2.823094e+02	-2.760138e+01
2.839400e+02	-2.764941e+01
2.855800e+02	-2.769856e+01
2.872295e+02	-2.774683e+01
2.888886e+02	-2.779992e+01
2.905572e+02	-2.785329e+01
2.922354e+02	-2.790129e+01
2.939234e+02	-2.795157e+01
2.956211e+02	-2.799904e+01
2.973286e+02	-2.805109e+01
2.990459e+02	-2.810487e+01
3.007732e+02	-2.815397e+01
3.025104e+02	-2.820066e+01
3.042577e+02	-2.825008e+01
3.060151e+02	-2.830233e+01
3.077826e+02	-2.835227e+01
3.095604e+02	-2.839956e+01
3.113484e+02	-2.845110e+01
3.131467e+02	-2.849870e+01
3.149554e+02	-2.854922e+01
3.167746e+02	-2.860349e+01
3.186043e+02	-2.865191e+01
3.204445e+02	-2.870265e+01
3.222954e+02	-2.875217e+01
3.241570e+02	-2.880678e+01
3.260293e+02	-2.885549e+01
3.279124e+02	-2.890171e+01
3.298064e+02	-2.895308e+01
3.317114e+02	-2.900503e+01
3.336273e+02	-2.905361e+01
3.355544e+02	-2.910059e+01
3.374925e+02	-2.915206e+01
3.394418e+02	-2.920476e+01
3.414024e+02	-2.925487e+01
3.433744e+02	-2.930217e+01
3.453577e+02	-2.935352e+01
3.473525e+02	-2.940335e+01
3.493588e+02	-2.945201e+01
3.513766e+02	-2.950153e+01
3.534062e+02	-2.955203e+01
3.554474e+02	-2.960085e+01
3.575005e+02	-2.965267e+01
3.595654e+02	-2.970028e+01
3.616422e+02	-2.975395e+01
3.637311e+02	-2.980248e+01
3.658320e+02	-2.984904e+01
3.679450e+02	-2.990174e+01
3.700702e+02	-2.995882e+01
3.722077e+02	-3.000376e+01
3.743576e+02	-3.005361e+01
3.765199e+02	-3.010168e+01
3.786946e+02	-3.015537e+01
3.808820e+02	-3.020211e+01
3.830819e+02	-3.025740e+01
3.852946e+02	-3.030455e+01
3.875200e+02	-3.035646e+01
3.897583e+02	-3.039750e+01
3.920096e+02	-3.045192e+01
3.942738e+02	-3.050236e+01
3.965511e+02	-3.055835e+01
3.988416e+02	-3.061092e+01
4.011452e+02	-3.065566e+01
4.034622e+02	-3.070559e+01
4.057926e+02	-3.076001e+01
4.081365e+02	-3.080474e+01
4.104938e+02	-3.085488e+01
4.128648e+02	-3.090738e+01
4.152495e+02	-3.095903e+01
4.176480e+02	-3.100192e+01
4.200603e+02	-3.105648e+01
4.224866e+02	-3.110058e+01
4.249268e+02	-3.115957e+01
4.273812e+02	-3.121211e+01
4.298497e+02	-3.125765e+01
4.323325e+02	-3.129778e+01
4.348297e+02	-3.135524e+01
4.373412e+02	-3.140616e+01
4.398673e+02	-3.146320e+01
4.424079e+02	-3.150546e+01
4.449633e+02	-3.155904e+01
4.475334e+02	-3.160934e+01
4.501183e+02	-3.165379e+01
4.527182e+02	-3.170258e+01
4.553330e+02	-3.175811e+01
4.579630e+02	-3.181183e+01
4.606082e+02	-3.185839e+01
4.632687e+02	-3.190475e+01
4.659445e+02	-3.195851e+01
4.686358e+02	-3.201696e+01
4.713426e+02	-3.206748e+01
4.740650e+02	-3.211161e+01
4.768032e+02	-3.215767e+01
4.795572e+02	-3.221204e+01
4.823271e+02	-3.225695e+01
4.851130e+02	-3.231524e+01
4.879150e+02	-3.235435e+01
4.907332e+02	-3.241251e+01
4.935676e+02	-3.246967e+01
4.964185e+02	-3.251280e+01
4.992858e+02	-3.255768e+01
5.021696e+02	-3.261451e+01
5.050701e+02	-3.265367e+01
5.079874e+02	-3.271181e+01
5.109215e+02	-3.276626e+01
5.138726e+02	-3.281406e+01
5.168407e+02	-3.285753e+01
5.198259e+02	-3.290855e+01
5.228284e+02	-3.295926e+01
5.258482e+02	-3.301279e+01
5.288855e+02	-3.306374e+01
5.319403e+02	-3.311143e+01
5.350128e+02	-3.316289e+01
5.381030e+02	-3.321920e+01
5.412111e+02	-3.326284e+01
5.443371e+02	-3.331314e+01
5.474812e+02	-3.336262e+01
5.506434e+02	-3.341212e+01
5.538239e+02	-3.346634e+01
5.570228e+02	-3.351553e+01
5.602401e+02	-3.356935e+01
5.634760e+02	-3.361358e+01
5.667306e+02	-3.366327e+01
5.700040e+02	-3.372345e+01
5.732964e+02	-3.377585e+01
5.766077e+02	-3.381005e+01
5.799382e+02	-3.386340e+01
5.832879e+02	-3.391836e+01
5.866569e+02	-3.396432e+01
5.900454e+02	-3.402078e+01
5.934535e+02	-3.407222e+01
5.968813e+02	-3.411840e+01
6.003288e+02	-3.416532e+01
6.037963e+02	-3.422603e+01
6.072838e+02	-3.426906e+01
6.107914e+02	-3.431525e+01
6.143194e+02	-3.437068e+01
6.178676e+02	-3.442033e+01
6.214364e+02	-3.446779e+01
6.250258e+02	-3.451884e+01
6.286359e+02	-3.457736e+01
6.322669e+02	-3.461861e+01
6.359189e+02	-3.467499e+01
6.395919e+02	-3.472067e+01
6.432862e+02	-3.477577e+01
6.470017e+02	-3.482768e+01
6.507388e+02	-3.487700e+01
6.544974e+02	-3.492644e+01
6.582778e+02	-3.497620e+01
6.620800e+02	-3.502161e+01
6.659041e+02	-3.507355e+01
6.697504e+02	-3.513071e+01
6.736188e+02	-3.518494e+01
6.775096e+02	-3.523270e+01
6.814229e+02	-3.528328e+01
6.853587e+02	-3.532438e+01
6.893173e+02	-3.538278e+01
6.932988e+02	-3.542544e+01
6.973033e+02	-3.548505e+01
7.013309e+02	-3.553945e+01
