Frequency(Hz)	Magnitude(dB)
1.000000e+01	-2.093648e+00
1.005776e+01	-2.112742e+00
1.011585e+01	-2.132054e+00
1.017428e+01	-2.151643e+00
1.023305e+01	-2.171307e+00
1.029215e+01	-2.190859e+00
1.035160e+01	-2.210912e+00
1.041139e+01	-2.231090e+00
1.047153e+01	-2.251115e+00
1.053201e+01	-2.271367e+00
1.059284e+01	-2.291717e+00
1.065403e+01	-2.312423e+00
1.071556e+01	-2.333264e+00
1.077746e+01	-2.354080e+00
1.083971e+01	-2.374761e+00
1.090232e+01	-2.396218e+00
1.096529e+01	-2.417344e+00
1.102862e+01	-2.438937e+00
1.109232e+01	-2.460752e+00
1.115639e+01	-2.482112e+00
1.122083e+01	-2.503976e+00
1.128564e+01	-2.525972e+00
1.135083e+01	-2.547821e+00
1.141639e+01	-2.570494e+00
1.148233e+01	-2.592648e+00
1.154865e+01	-2.615379e+00
1.161536e+01	-2.638131e+00
1.168245e+01	-2.661005e+00
1.174992e+01	-2.683932e+00
1.181779e+01	-2.706888e+00
1.188605e+01	-2.730348e+00
1.195470e+01	-2.753723e+00
1.202375e+01	-2.777379e+00
1.209320e+01	-2.800932e+00
1.216305e+01	-2.824766e+00
1.223330e+01	-2.848854e+00
1.230396e+01	-2.872978e+00
1.237503e+01	-2.897243e+00
1.244651e+01	-2.921831e+00
1.251840e+01	-2.946487e+00
1.259070e+01	-2.970920e+00
1.266343e+01	-2.995683e+00
1.273657e+01	-3.020894e+00
1.281014e+01	-3.045820e+00
1.288413e+01	-3.071304e+00
1.295855e+01	-3.096578e+00
1.303339e+01	-3.122295e+00
1.310867e+01	-3.148099e+00
1.318439e+01	-3.173969e+00
1.326054e+01	-3.200106e+00
1.333713e+01	-3.226118e+00
1.341417e+01	-3.252180e+00
1.349165e+01	-3.278825e+00
1.356958e+01	-3.305353e+00
1.364795e+01	-3.331945e+00
1.372678e+01	-3.359029e+00
1.380607e+01	-3.385909e+00
1.388581e+01	-3.413260e+00
1.396602e+01	-3.440527e+00
1.404668e+01	-3.468095e+00
1.412782e+01	-3.495503e+00
1.420942e+01	-3.523350e+00
1.429149e+01	-3.551141e+00
1.437404e+01	-3.579234e+00
1.445706e+01	-3.607081e+00
1.454057e+01	-3.635394e+00
1.462455e+01	-3.663758e+00
1.470902e+01	-3.692474e+00
1.479398e+01	-3.721221e+00
1.487943e+01	-3.749989e+00
1.496537e+01	-3.779198e+00
1.505181e+01	-3.808243e+00
1.513875e+01	-3.837537e+00
1.522619e+01	-3.866788e+00
1.531414e+01	-3.896778e+00
1.540259e+01	-3.925960e+00
1.549156e+01	-3.955871e+00
1.558103e+01	-3.986187e+00
1.567103e+01	-4.016210e+00
1.576155e+01	-4.046330e+00
1.585258e+01	-4.076782e+00
1.594415e+01	-4.107255e+00
1.603624e+01	-4.137751e+00
1.612886e+01	-4.168613e+00
1.622202e+01	-4.199324e+00
1.631572e+01	-4.230730e+00
1.640996e+01	-4.261906e+00
1.650474e+01	-4.293596e+00
1.660008e+01	-4.324676e+00
1.669596e+01	-4.356323e+00
1.679239e+01	-4.388417e+00
1.688938e+01	-4.420377e+00
1.698694e+01	-4.452230e+00
1.708505e+01	-4.484203e+00
1.718373e+01	-4.516186e+00
1.728299e+01	-4.548945e+00
1.738281e+01	-4.581332e+00
1.748322e+01	-4.614130e+00
1.758420e+01	-4.646679e+00
1.768576e+01	-4.679697e+00
1.778792e+01	-4.712928e+00
1.789066e+01	-4.746040e+00
1.799399e+01	-4.779514e+00
1.809793e+01	-4.812687e+00
1.820246e+01	-4.846547e+00
1.830760e+01	-4.880049e+00
1.841334e+01	-4.914102e+00
1.851969e+01	-4.948144e+00
1.862666e+01	-4.981702e+00
1.873425e+01	-5.016158e+00
1.884246e+01	-5.050450e+00
1.895129e+01	-5.084870e+00
1.906075e+01	-5.119513e+00
1.917085e+01	-5.154107e+00
1.928158e+01	-5.189397e+00
1.939295e+01	-5.223834e+00
1.950496e+01	-5.258992e+00
1.961762e+01	-5.294377e+00
1.973093e+01	-5.329378e+00
1.984490e+01	-5.364906e+00
1.995952e+01	-5.400201e+00
2.007480e+01	-5.436004e+00
2.019076e+01	-5.471954e+00
2.030738e+01	-5.507917e+00
2.042467e+01	-5.543975e+00
2.054264e+01	-5.579853e+00
2.066130e+01	-5.616352e+00
2.078064e+01	-5.652252e+00
2.090066e+01	-5.688892e+00
2.102139e+01	-5.725403e+00
2.114280e+01	-5.762239e+00
2.126492e+01	-5.799234e+00
2.138775e+01	-5.835932e+00
2.151128e+01	-5.872954e+00
2.163553e+01	-5.910522e+00
2.176050e+01	-5.947528e+00
2.188619e+01	-5.984762e+00
2.201260e+01	-6.022305e+00
2.213974e+01	-6.059879e+00
2.226762e+01	-6.097524e+00
2.239624e+01	-6.135187e+00
2.252560e+01	-6.173116e+00
2.265571e+01	-6.211206e+00
2.278656e+01	-6.249133e+00
2.291818e+01	-6.287555e+00
2.305055e+01	-6.325877e+00
2.318369e+01	-6.364022e+00
2.331760e+01	-6.402859e+00
2.345228e+01	-6.441515e+00
2.358774e+01	-6.480021e+00
2.372398e+01	-6.518911e+00
2.386101e+01	-6.557837e+00
2.399883e+01	-6.596864e+00
2.413745e+01	-6.636048e+00
2.427686e+01	-6.675314e+00
2.441709e+01	-6.714782e+00
2.455812e+01	-6.753999e+00
2.469997e+01	-6.793560e+00
2.484263e+01	-6.833331e+00
2.498612e+01	-6.872665e+00
2.513044e+01	-6.912421e+00
2.527559e+01	-6.952626e+00
2.542158e+01	-6.992186e+00
2.556842e+01	-7.032541e+00
2.571610e+01	-7.072871e+00
2.586463e+01	-7.112833e+00
2.601403e+01	-7.153274e+00
2.616428e+01	-7.193640e+00
2.631541e+01	-7.234238e+00
2.646740e+01	-7.274892e+00
2.662028e+01	-7.315042e+00
2.677404e+01	-7.356275e+00
2.692868e+01	-7.396950e+00
2.708422e+01	-7.438240e+00
2.724066e+01	-7.479541e+00
2.739800e+01	-7.520593e+00
2.755625e+01	-7.561397e+00
2.771541e+01	-7.602768e+00
2.787550e+01	-7.644544e+00
2.803650e+01	-7.685873e+00
2.819844e+01	-7.727401e+00
2.836131e+01	-7.768616e+00
2.852513e+01	-7.810657e+00
2.868989e+01	-7.852084e+00
2.885560e+01	-7.894188e+00
2.902227e+01	-7.936026e+00
2.918990e+01	-7.978422e+00
2.935850e+01	-8.020652e+00
2.952807e+01	-8.062503e+00
2.969863e+01	-8.104557e+00
2.987016e+01	-8.146972e+00
3.004269e+01	-8.189143e+00
3.021622e+01	-8.232337e+00
3.039075e+01	-8.274287e+00
3.056628e+01	-8.317357e+00
3.074283e+01	-8.359803e+00
3.092040e+01	-8.402838e+00
3.109900e+01	-8.445847e+00
3.127862e+01	-8.488086e+00
3.145929e+01	-8.531173e+00
3.164099e+01	-8.574009e+00
3.182375e+01	-8.617625e+00
3.200756e+01	-8.660293e+00
3.219244e+01	-8.704154e+00
3.237838e+01	-8.746888e+00
3.256540e+01	-8.790635e+00
3.275349e+01	-8.833922e+00
3.294268e+01	-8.877506e+00
3.313295e+01	-8.921127e+00
3.332433e+01	-8.965046e+00
3.351681e+01	-9.008060e+00
3.371040e+01	-9.052275e+00
3.390511e+01	-9.096144e+00
3.410094e+01	-9.139973e+00
3.429791e+01	-9.183890e+00
3.449601e+01	-9.227860e+00
3.469526e+01	-9.272237e+00
3.489566e+01	-9.315735e+00
3.509721e+01	-9.360205e+00
3.529993e+01	-9.404445e+00
3.550382e+01	-9.448905e+00
3.570889e+01	-9.493116e+00
3.591515e+01	-9.538016e+00
3.612259e+01	-9.582395e+00
3.633123e+01	-9.626853e+00
3.654108e+01	-9.671367e+00
3.675214e+01	-9.716125e+00
3.696442e+01	-9.760750e+00
3.717792e+01	-9.805344e+00
3.739266e+01	-9.850384e+00
3.760864e+01	-9.895109e+00
3.782587e+01	-9.940127e+00
3.804435e+01	-9.984928e+00
3.826409e+01	-1.003008e+01
3.848510e+01	-1.007513e+01
3.870739e+01	-1.012020e+01
3.893096e+01	-1.016520e+01
3.915583e+01	-1.021144e+01
3.938199e+01	-1.025619e+01
3.960946e+01	-1.030134e+01
3.983824e+01	-1.034662e+01
4.006834e+01	-1.039140e+01
4.029978e+01	-1.043732e+01
4.053255e+01	-1.048283e+01
4.076666e+01	-1.052871e+01
4.100213e+01	-1.057401e+01
4.123896e+01	-1.062032e+01
4.147715e+01	-1.066553e+01
4.171672e+01	-1.071180e+01
4.195767e+01	-1.075753e+01
4.220002e+01	-1.080295e+01
4.244377e+01	-1.084917e+01
4.268892e+01	-1.089524e+01
4.293549e+01	-1.094061e+01
4.318348e+01	-1.098675e+01
4.343291e+01	-1.103299e+01
4.368377e+01	-1.107870e+01
4.393609e+01	-1.112522e+01
4.418986e+01	-1.117125e+01
4.444510e+01	-1.121713e+01
4.470182e+01	-1.126346e+01
4.496001e+01	-1.131025e+01
4.521970e+01	-1.135641e+01
4.548089e+01	-1.140320e+01
4.574358e+01	-1.144914e+01
4.600779e+01	-1.149614e+01
4.627353e+01	-1.154240e+01
4.654081e+01	-1.158927e+01
4.680963e+01	-1.163549e+01
4.708000e+01	-1.168207e+01
4.735193e+01	-1.172846e+01
4.762543e+01	-1.177566e+01
4.790051e+01	-1.182232e+01
4.817719e+01	-1.186897e+01
4.845545e+01	-1.191513e+01
4.873533e+01	-1.196285e+01
4.901682e+01	-1.200937e+01
4.929994e+01	-1.205690e+01
4.958470e+01	-1.210370e+01
4.987110e+01	-1.215010e+01
5.015915e+01	-1.219680e+01
5.044887e+01	-1.224433e+01
5.074026e+01	-1.229143e+01
5.103333e+01	-1.233856e+01
5.132810e+01	-1.238586e+01
5.162457e+01	-1.243265e+01
5.192275e+01	-1.247980e+01
5.222265e+01	-1.252762e+01
5.252429e+01	-1.257436e+01
5.282767e+01	-1.262110e+01
5.313280e+01	-1.266872e+01
5.343969e+01	-1.271577e+01
5.374836e+01	-1.276367e+01
5.405880e+01	-1.281079e+01
5.437105e+01	-1.285842e+01
5.468509e+01	-1.290630e+01
5.500095e+01	-1.295366e+01
5.531863e+01	-1.300034e+01
5.563815e+01	-1.304855e+01
5.595951e+01	-1.309662e+01
5.628273e+01	-1.314307e+01
5.660782e+01	-1.319023e+01
5.693479e+01	-1.323835e+01
5.726364e+01	-1.328656e+01
5.759439e+01	-1.333432e+01
5.792705e+01	-1.338246e+01
5.826164e+01	-1.342982e+01
5.859815e+01	-1.347783e+01
5.893662e+01	-1.352495e+01
5.927703e+01	-1.357375e+01
5.961941e+01	-1.362090e+01
5.996377e+01	-1.366862e+01
6.031012e+01	-1.371711e+01
6.065847e+01	-1.376471e+01
6.100883e+01	-1.381245e+01
6.136121e+01	-1.385964e+01
6.171563e+01	-1.390851e+01
6.207210e+01	-1.395664e+01
6.243063e+01	-1.400415e+01
6.279122e+01	-1.405234e+01
6.315390e+01	-1.410122e+01
6.351868e+01	-1.414895e+01
6.388556e+01	-1.419681e+01
6.425456e+01	-1.424409e+01
6.462569e+01	-1.429322e+01
6.499897e+01	-1.434116e+01
6.537440e+01	-1.438915e+01
6.575200e+01	-1.443794e+01
6.613178e+01	-1.448585e+01
6.651375e+01	-1.453377e+01
6.689793e+01	-1.458236e+01
6.728433e+01	-1.463080e+01
6.767297e+01	-1.468031e+01
6.806384e+01	-1.472739e+01
6.845698e+01	-1.477619e+01
6.885238e+01	-1.482415e+01
6.925007e+01	-1.487243e+01
6.965005e+01	-1.492113e+01
7.005235e+01	-1.496925e+01
7.045697e+01	-1.501747e+01
7.086393e+01	-1.506558e+01
7.127323e+01	-1.511423e+01
7.168490e+01	-1.516354e+01
7.209895e+01	-1.521162e+01
7.251539e+01	-1.525961e+01
7.293424e+01	-1.530866e+01
7.335551e+01	-1.535737e+01
7.377920e+01	-1.540618e+01
7.420535e+01	-1.545416e+01
7.463396e+01	-1.550405e+01
7.506504e+01	-1.555142e+01
7.549861e+01	-1.559977e+01
7.593469e+01	-1.564867e+01
7.637328e+01	-1.569643e+01
7.681441e+01	-1.574689e+01
7.725809e+01	-1.579490e+01
7.770433e+01	-1.584400e+01
7.815315e+01	-1.589380e+01
7.860456e+01	-1.594005e+01
7.905857e+01	-1.598954e+01
7.951521e+01	-1.603995e+01
7.997449e+01	-1.608710e+01
8.043642e+01	-1.613709e+01
8.090102e+01	-1.618556e+01
8.136830e+01	-1.623453e+01
8.183828e+01	-1.628357e+01
8.231097e+01	-1.633196e+01
8.278640e+01	-1.638209e+01
8.326457e+01	-1.642969e+01
8.374550e+01	-1.647869e+01
8.422921e+01	-1.652592e+01
8.471572e+01	-1.657657e+01
8.520503e+01	-1.662593e+01
8.569717e+01	-1.667336e+01
8.619215e+01	-1.672367e+01
8.669000e+01	-1.677123e+01
8.719071e+01	-1.682224e+01
8.769432e+01	-1.686907e+01
8.820084e+01	-1.691859e+01
8.871029e+01	-1.696815e+01
8.922267e+01	-1.701783e+01
8.973802e+01	-1.706617e+01
9.025634e+01	-1.711483e+01
9.077766e+01	-1.716422e+01
9.130199e+01	-1.721328e+01
9.182935e+01	-1.726235e+01
9.235975e+01	-1.731131e+01
9.289321e+01	-1.736087e+01
9.342976e+01	-1.740992e+01
9.396941e+01	-1.745843e+01
9.451217e+01	-1.750880e+01
9.505807e+01	-1.755741e+01
9.560712e+01	-1.760641e+01
9.615934e+01	-1.765478e+01
9.671476e+01	-1.770424e+01
9.727338e+01	-1.775336e+01
9.783522e+01	-1.780308e+01
9.840032e+01	-1.785173e+01
9.896867e+01	-1.790120e+01
9.954031e+01	-1.794982e+01
1.001153e+02	-1.800069e+01
1.006935e+02	-1.804921e+01
1.012751e+02	-1.809961e+01
1.018601e+02	-1.814869e+01
1.024484e+02	-1.819753e+01
1.030402e+02	-1.824696e+01
1.036353e+02	-1.829562e+01
1.042339e+02	-1.834368e+01
1.048360e+02	-1.839512e+01
1.054415e+02	-1.844337e+01
1.060505e+02	-1.849371e+01
1.066631e+02	-1.854165e+01
1.072791e+02	-1.859115e+01
1.078988e+02	-1.864107e+01
1.085220e+02	-1.868944e+01
1.091488e+02	-1.874113e+01
1.097793e+02	-1.878931e+01
1.104133e+02	-1.883824e+01
1.110511e+02	-1.888938e+01
1.116925e+02	-1.893644e+01
1.123376e+02	-1.898688e+01
1.129865e+02	-1.903687e+01
1.136391e+02	-1.908549e+01
1.142955e+02	-1.913412e+01
1.149556e+02	-1.918377e+01
1.156196e+02	-1.923304e+01
1.162874e+02	-1.928335e+01
1.169591e+02	-1.933302e+01
1.176347e+02	-1.938189e+01
1.183141e+02	-1.943086e+01
1.189975e+02	-1.948205e+01
1.196848e+02	-1.952977e+01
1.203761e+02	-1.957866e+01
1.210714e+02	-1.962928e+01
1.217707e+02	-1.967791e+01
1.224740e+02	-1.972856e+01
1.231814e+02	-1.977891e+01
1.238929e+02	-1.982768e+01
1.246085e+02	-1.987743e+01
1.253283e+02	-1.992707e+01
1.260522e+02	-1.997609e+01
1.267802e+02	-2.002499e+01
1.275125e+02	-2.007561e+01
1.282490e+02	-2.012186e+01
1.289898e+02	-2.017397e+01
1.297348e+02	-2.022402e+01
1.304842e+02	-2.027476e+01
1.312378e+02	-2.032353e+01
1.319959e+02	-2.037365e+01
1.327583e+02	-2.042056e+01
1.335251e+02	-2.047080e+01
1.342963e+02	-2.052161e+01
1.350720e+02	-2.057177e+01
1.358522e+02	-2.062185e+01
1.366368e+02	-2.067025e+01
1.374260e+02	-2.071846e+01
1.382198e+02	-2.077090e+01
1.390182e+02	-2.081964e+01
1.398211e+02	-2.086966e+01
1.406287e+02	-2.091867e+01
1.414410e+02	-2.096723e+01
1.422579e+02	-2.101735e+01
1.430796e+02	-2.106625e+01
1.439060e+02	-2.111713e+01
1.447372e+02	-2.116800e+01
1.455732e+02	-2.121578e+01
1.464141e+02	-2.126541e+01
1.472597e+02	-2.131727e+01
1.481103e+02	-2.136517e+01
1.489658e+02	-2.141362e+01
1.498262e+02	-2.146528e+01
1.506916e+02	-2.151427e+01
1.515620e+02	-2.156310e+01
1.524374e+02	-2.161591e+01
1.533179e+02	-2.166334e+01
1.542034e+02	-2.171218e+01
1.550941e+02	-2.176221e+01
1.559899e+02	-2.181157e+01
1.568909e+02	-2.186134e+01
1.577971e+02	-2.191141e+01
1.587085e+02	-2.196124e+01
1.596252e+02	-2.201404e+01
1.605472e+02	-2.206345e+01
1.614745e+02	-2.211176e+01
1.624072e+02	-2.216019e+01
1.633453e+02	-2.220991e+01
1.642887e+02	-2.226071e+01
1.652377e+02	-2.230939e+01
1.661921e+02	-2.235938e+01
1.671520e+02	-2.240720e+01
1.681175e+02	-2.245914e+01
1.690885e+02	-2.250942e+01
1.700651e+02	-2.255687e+01
1.710474e+02	-2.260890e+01
1.720354e+02	-2.265664e+01
1.730291e+02	-2.270777e+01
1.740285e+02	-2.275742e+01
1.750337e+02	-2.280832e+01
1.760446e+02	-2.285530e+01
1.770615e+02	-2.290623e+01
1.780842e+02	-2.295815e+01
1.791128e+02	-2.300602e+01
1.801473e+02	-2.305536e+01
1.811878e+02	-2.310522e+01
1.822344e+02	-2.315709e+01
1.832870e+02	-2.320433e+01
1.843456e+02	-2.325752e+01
1.854104e+02	-2.330420e+01
1.864813e+02	-2.335146e+01
1.875584e+02	-2.340358e+01
1.886418e+02	-2.345562e+01
1.897313e+02	-2.350389e+01
1.908272e+02	-2.355429e+01
1.919294e+02	-2.360691e+01
1.930380e+02	-2.365428e+01
1.941530e+02	-2.370651e+01
1.952744e+02	-2.375299e+01
1.964023e+02	-2.380384e+01
1.975367e+02	-2.385328e+01
1.986777e+02	-2.390461e+01
1.998252e+02	-2.395512e+01
2.009794e+02	-2.400249e+01
2.021403e+02	-2.405399e+01
2.033078e+02	-2.410173e+01
2.044821e+02	-2.415504e+01
2.056632e+02	-2.420331e+01
2.068511e+02	-2.425123e+01
2.080459e+02	-2.430142e+01
2.092475e+02	-2.435041e+01
2.104561e+02	-2.440052e+01
2.116717e+02	-2.444916e+01
2.128943e+02	-2.450289e+01
2.141240e+02	-2.455067e+01
2.153608e+02	-2.459786e+01
2.166047e+02	-2.465184e+01
2.178558e+02	-2.470122e+01
2.191141e+02	-2.475290e+01
2.203797e+02	-2.479935e+01
2.216526e+02	-2.485176e+01
2.229329e+02	-2.490142e+01
2.242205e+02	-2.495034e+01
2.255156e+02	-2.500117e+01
2.268182e+02	-2.504814e+01
2.281283e+02	-2.509960e+01
2.294459e+02	-2.515004e+01
2.307712e+02	-2.519901e+01
2.321041e+02	-2.525035e+01
2.334447e+02	-2.529752e+01
2.347931e+02	-2.534858e+01
2.361493e+02	-2.540033e+01
2.375133e+02	-2.544745e+01
2.388851e+02	-2.549805e+01
2.402649e+02	-2.554733e+01
2.416527e+02	-2.560014e+01
2.430484e+02	-2.564857e+01
2.444523e+02	-2.570024e+01
2.458642e+02	-2.575057e+01
2.472843e+02	-2.579937e+01
2.487126e+02	-2.584803e+01
2.501492e+02	-2.589958e+01
2.515940e+02	-2.595049e+01
2.530472e+02	-2.599610e+01
2.545088e+02	-2.605062e+01
2.559789e+02	-2.609821e+01
2.574574e+02	-2.614803e+01
2.589444e+02	-2.619951e+01
2.604401e+02	-2.624922e+01
2.619444e+02	-2.629614e+01
2.634574e+02	-2.634961e+01
2.649791e+02	-2.640340e+01
2.665096e+02	-2.645057e+01
2.680489e+02	-2.649875e+01
2.695972e+02	-2.654981e+01
2.711544e+02	-2.659743e+01
2.727205e+02	-2.664746e+01
2.742958e+02	-2.669881e+01
2.758801e+02	-2.674794e+01
2.774736e+02	-2.680013e+01
2.790762e+02	-2.684970e+01
2.806882e+02	-2.689795e+01
2.823094e+02	-2.694818e+01
2.839400e+02	-2.699877e+01
2.855800e+02	-2.704903e+01
2.872295e+02	-2.709740e+01
2.888886e+02	-2.714815e+01
2.905572e+02	-2.719924e+01
2.922354e+02	-2.725030e+01
2.939234e+02	-2.730150e+01
2.956211e+02	-2.734984e+01
2.973286e+02	-2.739817e+01
2.990459e+02	-2.744967e+01
3.007732e+02	-2.749722e+01
3.025104e+02	-2.754829e+01
3.042577e+02	-2.759798e+01
3.060151e+02	-2.764910e+01
3.077826e+02	-2.769649e+01
3.095604e+02	-2.774705e+01
3.113484e+02	-2.779516e+01
3.131467e+02	-2.785211e+01
3.149554e+02	-2.790016e+01
3.167746e+02	-2.794786e+01
3.186043e+02	-2.799999e+01
3.204445e+02	-2.804542e+01
3.222954e+02	-2.810018e+01
3.241570e+02	-2.814807e+01
3.260293e+02	-2.819552e+01
3.279124e+02	-2.825052e+01
3.298064e+02	-2.829937e+01
3.317114e+02	-2.835032e+01
3.336273e+02	-2.839518e+01
3.355544e+02	-2.844828e+01
3.374925e+02	-2.850147e+01
3.394418e+02	-2.854917e+01
3.414024e+02	-2.860069e+01
3.433744e+02	-2.865329e+01
3.453577e+02	-2.870254e+01
3.473525e+02	-2.874772e+01
3.493588e+02	-2.880134e+01
3.513766e+02	-2.884826e+01
3.534062e+02	-2.889594e+01
3.554474e+02	-2.894816e+01
3.575005e+02	-2.899877e+01
3.595654e+02	-2.905329e+01
3.616422e+02	-2.909619e+01
3.637311e+02	-2.914896e+01
3.658320e+02	-2.920227e+01
3.679450e+02	-2.925072e+01
3.700702e+02	-2.929744e+01
3.722077e+02	-2.934977e+01
3.743576e+02	-2.940322e+01
3.765199e+02	-2.944932e+01
3.786946e+02	-2.950058e+01
3.808820e+02	-2.955267e+01
3.830819e+02	-2.960540e+01
3.852946e+02	-2.965250e+01
3.875200e+02	-2.970092e+01
3.897583e+02	-2.975284e+01
3.920096e+02	-2.980091e+01
3.942738e+02	-2.985146e+01
3.965511e+02	-2.990314e+01
3.988416e+02	-2.994972e+01
4.011452e+02	-3.000575e+01
4.034622e+02	-3.004865e+01
4.057926e+02	-3.010216e+01
4.081365e+02	-3.015353e+01
4.104938e+02	-3.020619e+01
4.128648e+02	-3.025341e+01
4.152495e+02	-3.029793e+01
4.176480e+02	-3.035091e+01
4.200603e+02	-3.040410e+01
4.224866e+02	-3.045135e+01
4.249268e+02	-3.049912e+01
4.273812e+02	-3.055424e+01
4.298497e+02	-3.060537e+01
4.323325e+02	-3.065331e+01
4.348297e+02	-3.070364e+01
4.373412e+02	-3.075115e+01
4.398673e+02	-3.080348e+01
4.424079e+02	-3.085720e+01
4.449633e+02	-3.090789e+01
4.475334e+02	-3.095036e+01
4.501183e+02	-3.100481e+01
4.527182e+02	-3.105504e+01
4.553330e+02	-3.110713e+01
4.579630e+02	-3.115509e+01
4.606082e+02	-3.120968e+01
4.632687e+02	-3.125605e+01
4.659445e+02	-3.130571e+01
4.686358e+02	-3.135713e+01
4.713426e+02	-3.140210e+01
4.740650e+02	-3.145315e+01
4.768032e+02	-3.150641e+01
4.795572e+02	-3.156079e+01
4.823271e+02	-3.161100e+01
4.851130e+02	-3.165718e+01
4.879150e+02	-3.171218e+01
4.907332e+02	-3.176254e+01
4.935676e+02	-3.180427e+01
4.964185e+02	-3.186164e+01
4.992858e+02	-3.190251e+01
5.021696e+02	-3.195679e+01
5.050701e+02	-3.200449e+01
5.079874e+02	-3.206018e+01
5.109215e+02	-3.210641e+01
5.138726e+02	-3.215843e+01
5.168407e+02	-3.220776e+01
5.198259e+02	-3.225857e+01
5.228284e+02	-3.230656e+01
5.258482e+02	-3.236212e+01
5.288855e+02	-3.241158e+01
5.319403e+02	-3.245736e+01
5.350128e+02	-3.251042e+01
5.381030e+02	-3.256168e+01
5.412111e+02	-3.260284e+01
5.443371e+02	-3.266914e+01
5.474812e+02	-3.271513e+01
5.506434e+02	-3.276528e+01
5.538239e+02	-3.281015e+01
5.570228e+02	-3.286620e+01
5.602401e+02	-3.291599e+01
5.634760e+02	-3.296531e+01
5.667306e+02	-3.301867e+01
5.700040e+02	-3.307175e+01
5.732964e+02	-3.311072e+01
5.766077e+02	-3.316409e+01
5.799382e+02	-3.321238e+01
5.832879e+02	-3.325974e+01
5.866569e+02	-3.331593e+01
5.900454e+02	-3.337145e+01
5.934535e+02	-3.341494e+01
5.968813e+02	-3.346712e+01
6.003288e+02	-3.351183e+01
6.037963e+02	-3.356195e+01
6.072838e+02	-3.362111e+01
6.107914e+02	-3.367200e+01
6.143194e+02	-3.371047e+01
6.178676e+02	-3.376869e+01
6.214364e+02	-3.382019e+01
6.250258e+02	-3.386785e+01
6.286359e+02	-3.392515e+01
6.322669e+02	-3.397187e+01
6.359189e+02	-3.403078e+01
6.395919e+02	-3.406570e+01
6.432862e+02	-3.411683e+01
6.470017e+02	-3.416934e+01
6.507388e+02	-3.421898e+01
6.544974e+02	-3.428231e+01
6.582778e+02	-3.432635e+01
6.620800e+02	-3.436940e+01
6.659041e+02	-3.441632e+01
6.697504e+02	-3.447014e+01
6.736188e+02	-3.452239e+01
6.775096e+02	-3.457406e+01
6.814229e+02	-3.461517e+01
6.853587e+02	-3.467431e+01
6.893173e+02	-3.472366e+01
6.932988e+02	-3.477190e+01
6.973033e+02	-3.482074e+01
7.013309e+02	-3.487949e+01
