Frequency(Hz)	Magnitude(dB)
1.000000e+01	-2.111147e+00
1.005776e+01	-2.130393e+00
1.011585e+01	-2.150091e+00
1.017428e+01	-2.169576e+00
1.023305e+01	-2.189363e+00
1.029215e+01	-2.209202e+00
1.035160e+01	-2.229303e+00
1.041139e+01	-2.249548e+00
1.047153e+01	-2.269666e+00
1.053201e+01	-2.289890e+00
1.059284e+01	-2.310650e+00
1.065403e+01	-2.331574e+00
1.071556e+01	-2.352298e+00
1.077746e+01	-2.373202e+00
1.083971e+01	-2.394493e+00
1.090232e+01	-2.415739e+00
1.096529e+01	-2.437092e+00
1.102862e+01	-2.458592e+00
1.109232e+01	-2.480418e+00
1.115639e+01	-2.502196e+00
1.122083e+01	-2.524028e+00
1.128564e+01	-2.546080e+00
1.135083e+01	-2.568447e+00
1.141639e+01	-2.590783e+00
1.148233e+01	-2.613507e+00
1.154865e+01	-2.636150e+00
1.161536e+01	-2.659010e+00
1.168245e+01	-2.681874e+00
1.174992e+01	-2.705191e+00
1.181779e+01	-2.728317e+00
1.188605e+01	-2.751644e+00
1.195470e+01	-2.775342e+00
1.202375e+01	-2.798880e+00
1.209320e+01	-2.822652e+00
1.216305e+01	-2.846862e+00
1.223330e+01	-2.870897e+00
1.230396e+01	-2.895397e+00
1.237503e+01	-2.919519e+00
1.244651e+01	-2.943963e+00
1.251840e+01	-2.968735e+00
1.259070e+01	-2.993758e+00
1.266343e+01	-3.018663e+00
1.273657e+01	-3.043955e+00
1.281014e+01	-3.069207e+00
1.288413e+01	-3.094628e+00
1.295855e+01	-3.120244e+00
1.303339e+01	-3.145921e+00
1.310867e+01	-3.171514e+00
1.318439e+01	-3.197606e+00
1.326054e+01	-3.223612e+00
1.333713e+01	-3.249961e+00
1.341417e+01	-3.276284e+00
1.349165e+01	-3.303273e+00
1.356958e+01	-3.329812e+00
1.364795e+01	-3.356619e+00
1.372678e+01	-3.383331e+00
1.380607e+01	-3.410840e+00
1.388581e+01	-3.438202e+00
1.396602e+01	-3.465267e+00
1.404668e+01	-3.493080e+00
1.412782e+01	-3.520828e+00
1.420942e+01	-3.548691e+00
1.429149e+01	-3.576636e+00
1.437404e+01	-3.604721e+00
1.445706e+01	-3.633054e+00
1.454057e+01	-3.661599e+00
1.462455e+01	-3.690002e+00
1.470902e+01	-3.718583e+00
1.479398e+01	-3.747529e+00
1.487943e+01	-3.776672e+00
1.496537e+01	-3.805908e+00
1.505181e+01	-3.835102e+00
1.513875e+01	-3.864364e+00
1.522619e+01	-3.893803e+00
1.531414e+01	-3.923818e+00
1.540259e+01	-3.953582e+00
1.549156e+01	-3.983557e+00
1.558103e+01	-4.013423e+00
1.567103e+01	-4.043828e+00
1.576155e+01	-4.074300e+00
1.585258e+01	-4.104481e+00
1.594415e+01	-4.135422e+00
1.603624e+01	-4.166192e+00
1.612886e+01	-4.197088e+00
1.622202e+01	-4.228139e+00
1.631572e+01	-4.259276e+00
1.640996e+01	-4.290588e+00
1.650474e+01	-4.322107e+00
1.660008e+01	-4.353952e+00
1.669596e+01	-4.385449e+00
1.679239e+01	-4.417140e+00
1.688938e+01	-4.448900e+00
1.698694e+01	-4.481383e+00
1.708505e+01	-4.513589e+00
1.718373e+01	-4.546109e+00
1.728299e+01	-4.578667e+00
1.738281e+01	-4.611288e+00
1.748322e+01	-4.644156e+00
1.758420e+01	-4.677155e+00
1.768576e+01	-4.709998e+00
1.778792e+01	-4.743366e+00
1.789066e+01	-4.776411e+00
1.799399e+01	-4.809905e+00
1.809793e+01	-4.843548e+00
1.820246e+01	-4.877280e+00
1.830760e+01	-4.910852e+00
1.841334e+01	-4.944955e+00
1.851969e+01	-4.978962e+00
1.862666e+01	-5.012976e+00
1.873425e+01	-5.047341e+00
1.884246e+01	-5.082019e+00
1.895129e+01	-5.116801e+00
1.906075e+01	-5.151248e+00
1.917085e+01	-5.186228e+00
1.928158e+01	-5.221157e+00
1.939295e+01	-5.255723e+00
1.950496e+01	-5.291077e+00
1.961762e+01	-5.326596e+00
1.973093e+01	-5.361922e+00
1.984490e+01	-5.397321e+00
1.995952e+01	-5.433248e+00
2.007480e+01	-5.468680e+00
2.019076e+01	-5.504737e+00
2.030738e+01	-5.540745e+00
2.042467e+01	-5.576871e+00
2.054264e+01	-5.613161e+00
2.066130e+01	-5.649539e+00
2.078064e+01	-5.686161e+00
2.090066e+01	-5.722649e+00
2.102139e+01	-5.759099e+00
2.114280e+01	-5.796005e+00
2.126492e+01	-5.832782e+00
2.138775e+01	-5.869805e+00
2.151128e+01	-5.907064e+00
2.163553e+01	-5.944247e+00
2.176050e+01	-5.981867e+00
2.188619e+01	-6.019013e+00
2.201260e+01	-6.056518e+00
2.213974e+01	-6.094607e+00
2.226762e+01	-6.131989e+00
2.239624e+01	-6.169888e+00
2.252560e+01	-6.208024e+00
2.265571e+01	-6.246316e+00
2.278656e+01	-6.284187e+00
2.291818e+01	-6.322670e+00
2.305055e+01	-6.361004e+00
2.318369e+01	-6.399483e+00
2.331760e+01	-6.438074e+00
2.345228e+01	-6.476874e+00
2.358774e+01	-6.515619e+00
2.372398e+01	-6.554807e+00
2.386101e+01	-6.593610e+00
2.399883e+01	-6.632620e+00
2.413745e+01	-6.671858e+00
2.427686e+01	-6.711332e+00
2.441709e+01	-6.750594e+00
2.455812e+01	-6.789823e+00
2.469997e+01	-6.829510e+00
2.484263e+01	-6.869241e+00
2.498612e+01	-6.909149e+00
2.513044e+01	-6.949144e+00
2.527559e+01	-6.988993e+00
2.542158e+01	-7.029241e+00
2.556842e+01	-7.069757e+00
2.571610e+01	-7.109680e+00
2.586463e+01	-7.150005e+00
2.601403e+01	-7.190538e+00
2.616428e+01	-7.230734e+00
2.631541e+01	-7.271149e+00
2.646740e+01	-7.312328e+00
2.662028e+01	-7.352789e+00
2.677404e+01	-7.393478e+00
2.692868e+01	-7.434734e+00
2.708422e+01	-7.475725e+00
2.724066e+01	-7.516621e+00
2.739800e+01	-7.558071e+00
2.755625e+01	-7.599267e+00
2.771541e+01	-7.640813e+00
2.787550e+01	-7.682220e+00
2.803650e+01	-7.723777e+00
2.819844e+01	-7.765325e+00
2.836131e+01	-7.807025e+00
2.852513e+01	-7.848665e+00
2.868989e+01	-7.890851e+00
2.885560e+01	-7.932351e+00
2.902227e+01	-7.974768e+00
2.918990e+01	-8.016799e+00
2.935850e+01	-8.058977e+00
2.952807e+01	-8.100858e+00
2.969863e+01	-8.143534e+00
2.987016e+01	-8.185572e+00
3.004269e+01	-8.227995e+00
3.021622e+01	-8.270760e+00
3.039075e+01	-8.313250e+00
3.056628e+01	-8.356348e+00
3.074283e+01	-8.398936e+00
3.092040e+01	-8.441795e+00
3.109900e+01	-8.484400e+00
3.127862e+01	-8.527305e+00
3.145929e+01	-8.570730e+00
3.164099e+01	-8.613526e+00
3.182375e+01	-8.656914e+00
3.200756e+01	-8.700351e+00
3.219244e+01	-8.743374e+00
3.237838e+01	-8.786667e+00
3.256540e+01	-8.830155e+00
3.275349e+01	-8.873471e+00
3.294268e+01	-8.917103e+00
3.313295e+01	-8.961091e+00
3.332433e+01	-9.005322e+00
3.351681e+01	-9.048498e+00
3.371040e+01	-9.091992e+00
3.390511e+01	-9.136365e+00
3.410094e+01	-9.180035e+00
3.429791e+01	-9.224379e+00
3.449601e+01	-9.268233e+00
3.469526e+01	-9.312258e+00
3.489566e+01	-9.356500e+00
3.509721e+01	-9.400895e+00
3.529993e+01	-9.445304e+00
3.550382e+01	-9.489195e+00
3.570889e+01	-9.534097e+00
3.591515e+01	-9.578221e+00
3.612259e+01	-9.622917e+00
3.633123e+01	-9.667798e+00
3.654108e+01	-9.712170e+00
3.675214e+01	-9.757287e+00
3.696442e+01	-9.802137e+00
3.717792e+01	-9.845992e+00
3.739266e+01	-9.891381e+00
3.760864e+01	-9.936717e+00
3.782587e+01	-9.981442e+00
3.804435e+01	-1.002633e+01
3.826409e+01	-1.007136e+01
3.848510e+01	-1.011642e+01
3.870739e+01	-1.016211e+01
3.893096e+01	-1.020743e+01
3.915583e+01	-1.025211e+01
3.938199e+01	-1.029739e+01
3.960946e+01	-1.034294e+01
3.983824e+01	-1.038863e+01
4.006834e+01	-1.043372e+01
4.029978e+01	-1.047908e+01
4.053255e+01	-1.052456e+01
4.076666e+01	-1.057024e+01
4.100213e+01	-1.061644e+01
4.123896e+01	-1.066174e+01
4.147715e+01	-1.070733e+01
4.171672e+01	-1.075324e+01
4.195767e+01	-1.079978e+01
4.220002e+01	-1.084540e+01
4.244377e+01	-1.089086e+01
4.268892e+01	-1.093747e+01
4.293549e+01	-1.098293e+01
4.318348e+01	-1.102877e+01
4.343291e+01	-1.107464e+01
4.368377e+01	-1.112120e+01
4.393609e+01	-1.116769e+01
4.418986e+01	-1.121411e+01
4.444510e+01	-1.126046e+01
4.470182e+01	-1.130632e+01
4.496001e+01	-1.135264e+01
4.521970e+01	-1.139919e+01
4.548089e+01	-1.144600e+01
4.574358e+01	-1.149193e+01
4.600779e+01	-1.153852e+01
4.627353e+01	-1.158460e+01
4.654081e+01	-1.163059e+01
4.680963e+01	-1.167788e+01
4.708000e+01	-1.172518e+01
4.735193e+01	-1.177165e+01
4.762543e+01	-1.181863e+01
4.790051e+01	-1.186516e+01
4.817719e+01	-1.191139e+01
4.845545e+01	-1.195873e+01
4.873533e+01	-1.200543e+01
4.901682e+01	-1.205272e+01
4.929994e+01	-1.209924e+01
4.958470e+01	-1.214602e+01
4.987110e+01	-1.219333e+01
5.015915e+01	-1.223987e+01
5.044887e+01	-1.228729e+01
5.074026e+01	-1.233445e+01
5.103333e+01	-1.238140e+01
5.132810e+01	-1.242853e+01
5.162457e+01	-1.247601e+01
5.192275e+01	-1.252280e+01
5.222265e+01	-1.257007e+01
5.252429e+01	-1.261741e+01
5.282767e+01	-1.266493e+01
5.313280e+01	-1.271302e+01
5.343969e+01	-1.275951e+01
5.374836e+01	-1.280707e+01
5.405880e+01	-1.285453e+01
5.437105e+01	-1.290105e+01
5.468509e+01	-1.294977e+01
5.500095e+01	-1.299705e+01
5.531863e+01	-1.304384e+01
5.563815e+01	-1.309183e+01
5.595951e+01	-1.313931e+01
5.628273e+01	-1.318772e+01
5.660782e+01	-1.323460e+01
5.693479e+01	-1.328209e+01
5.726364e+01	-1.332976e+01
5.759439e+01	-1.337807e+01
5.792705e+01	-1.342495e+01
5.826164e+01	-1.347294e+01
5.859815e+01	-1.352117e+01
5.893662e+01	-1.356871e+01
5.927703e+01	-1.361667e+01
5.961941e+01	-1.366492e+01
5.996377e+01	-1.371232e+01
6.031012e+01	-1.376047e+01
6.065847e+01	-1.380841e+01
6.100883e+01	-1.385634e+01
6.136121e+01	-1.390415e+01
6.171563e+01	-1.395257e+01
6.207210e+01	-1.400063e+01
6.243063e+01	-1.404802e+01
6.279122e+01	-1.409640e+01
6.315390e+01	-1.414430e+01
6.351868e+01	-1.419270e+01
6.388556e+01	-1.424111e+01
6.425456e+01	-1.428850e+01
6.462569e+01	-1.433710e+01
6.499897e+01	-1.438558e+01
6.537440e+01	-1.443347e+01
6.575200e+01	-1.448208e+01
6.613178e+01	-1.452998e+01
6.651375e+01	-1.457817e+01
6.689793e+01	-1.462626e+01
6.728433e+01	-1.467486e+01
6.767297e+01	-1.472339e+01
6.806384e+01	-1.477200e+01
6.845698e+01	-1.482003e+01
6.885238e+01	-1.486835e+01
6.925007e+01	-1.491747e+01
6.965005e+01	-1.496399e+01
7.005235e+01	-1.501372e+01
7.045697e+01	-1.506259e+01
7.086393e+01	-1.511036e+01
7.127323e+01	-1.515947e+01
7.168490e+01	-1.520726e+01
7.209895e+01	-1.525727e+01
7.251539e+01	-1.530481e+01
7.293424e+01	-1.535255e+01
7.335551e+01	-1.540167e+01
7.377920e+01	-1.545018e+01
7.420535e+01	-1.549856e+01
7.463396e+01	-1.554695e+01
7.506504e+01	-1.559683e+01
7.549861e+01	-1.564511e+01
7.593469e+01	-1.569357e+01
7.637328e+01	-1.574216e+01
7.681441e+01	-1.579164e+01
7.725809e+01	-1.583986e+01
7.770433e+01	-1.588812e+01
7.815315e+01	-1.593661e+01
7.860456e+01	-1.598633e+01
7.905857e+01	-1.603525e+01
7.951521e+01	-1.608335e+01
7.997449e+01	-1.613257e+01
8.043642e+01	-1.618098e+01
8.090102e+01	-1.622991e+01
8.136830e+01	-1.627946e+01
8.183828e+01	-1.632759e+01
8.231097e+01	-1.637608e+01
8.278640e+01	-1.642566e+01
8.326457e+01	-1.647525e+01
8.374550e+01	-1.652253e+01
8.422921e+01	-1.657069e+01
8.471572e+01	-1.662159e+01
8.520503e+01	-1.667053e+01
8.569717e+01	-1.671978e+01
8.619215e+01	-1.676815e+01
8.669000e+01	-1.681690e+01
8.719071e+01	-1.686587e+01
8.769432e+01	-1.691641e+01
8.820084e+01	-1.696418e+01
8.871029e+01	-1.701186e+01
8.922267e+01	-1.706256e+01
8.973802e+01	-1.711195e+01
9.025634e+01	-1.716053e+01
9.077766e+01	-1.720756e+01
9.130199e+01	-1.725860e+01
9.182935e+01	-1.730779e+01
9.235975e+01	-1.735589e+01
9.289321e+01	-1.740581e+01
9.342976e+01	-1.745507e+01
9.396941e+01	-1.750328e+01
9.451217e+01	-1.755356e+01
9.505807e+01	-1.760274e+01
9.560712e+01	-1.765218e+01
9.615934e+01	-1.769983e+01
9.671476e+01	-1.774963e+01
9.727338e+01	-1.779940e+01
9.783522e+01	-1.784760e+01
9.840032e+01	-1.789711e+01
9.896867e+01	-1.794619e+01
9.954031e+01	-1.799563e+01
1.001153e+02	-1.804472e+01
1.006935e+02	-1.809505e+01
1.012751e+02	-1.814427e+01
1.018601e+02	-1.819406e+01
1.024484e+02	-1.824254e+01
1.030402e+02	-1.829119e+01
1.036353e+02	-1.834019e+01
1.042339e+02	-1.838927e+01
1.048360e+02	-1.843948e+01
1.054415e+02	-1.848906e+01
1.060505e+02	-1.853850e+01
1.066631e+02	-1.858667e+01
1.072791e+02	-1.863640e+01
1.078988e+02	-1.868489e+01
1.085220e+02	-1.873496e+01
1.091488e+02	-1.878662e+01
1.097793e+02	-1.883255e+01
1.104133e+02	-1.888421e+01
1.110511e+02	-1.893292e+01
1.116925e+02	-1.898124e+01
1.123376e+02	-1.903234e+01
1.129865e+02	-1.908048e+01
1.136391e+02	-1.913149e+01
1.142955e+02	-1.917887e+01
1.149556e+02	-1.922836e+01
1.156196e+02	-1.927987e+01
1.162874e+02	-1.932820e+01
1.169591e+02	-1.937770e+01
1.176347e+02	-1.942673e+01
1.183141e+02	-1.947614e+01
1.189975e+02	-1.952671e+01
1.196848e+02	-1.957629e+01
1.203761e+02	-1.962500e+01
1.210714e+02	-1.967609e+01
1.217707e+02	-1.972378e+01
1.224740e+02	-1.977273e+01
1.231814e+02	-1.982293e+01
1.238929e+02	-1.987267e+01
1.246085e+02	-1.992253e+01
1.253283e+02	-1.997287e+01
1.260522e+02	-2.002219e+01
1.267802e+02	-2.007069e+01
1.275125e+02	-2.012059e+01
1.282490e+02	-2.016912e+01
1.289898e+02	-2.022075e+01
1.297348e+02	-2.026864e+01
1.304842e+02	-2.032026e+01
1.312378e+02	-2.036926e+01
1.319959e+02	-2.041876e+01
1.327583e+02	-2.046685e+01
1.335251e+02	-2.051648e+01
1.342963e+02	-2.056800e+01
1.350720e+02	-2.061516e+01
1.358522e+02	-2.066775e+01
1.366368e+02	-2.071647e+01
1.374260e+02	-2.076331e+01
1.382198e+02	-2.081592e+01
1.390182e+02	-2.086633e+01
1.398211e+02	-2.091317e+01
1.406287e+02	-2.096377e+01
1.414410e+02	-2.101284e+01
1.422579e+02	-2.106406e+01
1.430796e+02	-2.111302e+01
1.439060e+02	-2.116323e+01
1.447372e+02	-2.121293e+01
1.455732e+02	-2.126065e+01
1.464141e+02	-2.130993e+01
1.472597e+02	-2.136222e+01
1.481103e+02	-2.141134e+01
1.489658e+02	-2.146021e+01
1.498262e+02	-2.151120e+01
1.506916e+02	-2.155956e+01
1.515620e+02	-2.160930e+01
1.524374e+02	-2.166080e+01
1.533179e+02	-2.170834e+01
1.542034e+02	-2.175843e+01
1.550941e+02	-2.180786e+01
1.559899e+02	-2.185752e+01
1.568909e+02	-2.190727e+01
1.577971e+02	-2.195873e+01
1.587085e+02	-2.200722e+01
1.596252e+02	-2.205473e+01
1.605472e+02	-2.210497e+01
1.614745e+02	-2.215524e+01
1.624072e+02	-2.220795e+01
1.633453e+02	-2.225532e+01
1.642887e+02	-2.230562e+01
1.652377e+02	-2.235443e+01
1.661921e+02	-2.240285e+01
1.671520e+02	-2.245384e+01
1.681175e+02	-2.250407e+01
1.690885e+02	-2.255593e+01
1.700651e+02	-2.260227e+01
1.710474e+02	-2.265304e+01
1.720354e+02	-2.270418e+01
1.730291e+02	-2.275396e+01
1.740285e+02	-2.280279e+01
1.750337e+02	-2.285211e+01
1.760446e+02	-2.290272e+01
1.770615e+02	-2.295228e+01
1.780842e+02	-2.300382e+01
1.791128e+02	-2.305154e+01
1.801473e+02	-2.310156e+01
1.811878e+02	-2.315237e+01
1.822344e+02	-2.320197e+01
1.832870e+02	-2.324997e+01
1.843456e+02	-2.330247e+01
1.854104e+02	-2.335410e+01
1.864813e+02	-2.340023e+01
1.875584e+02	-2.345112e+01
1.886418e+02	-2.350240e+01
1.897313e+02	-2.354991e+01
1.908272e+02	-2.360119e+01
1.919294e+02	-2.365124e+01
1.930380e+02	-2.369697e+01
1.941530e+02	-2.375003e+01
1.952744e+02	-2.379953e+01
1.964023e+02	-2.384982e+01
1.975367e+02	-2.389967e+01
1.986777e+02	-2.394904e+01
1.998252e+02	-2.399808e+01
2.009794e+02	-2.405023e+01
2.021403e+02	-2.409692e+01
2.033078e+02	-2.414883e+01
2.044821e+02	-2.419776e+01
2.056632e+02	-2.425018e+01
2.068511e+02	-2.429728e+01
2.080459e+02	-2.434897e+01
2.092475e+02	-2.439600e+01
2.104561e+02	-2.444594e+01
2.116717e+02	-2.449604e+01
2.128943e+02	-2.455157e+01
2.141240e+02	-2.459919e+01
2.153608e+02	-2.464679e+01
2.166047e+02	-2.469592e+01
2.178558e+02	-2.474735e+01
2.191141e+02	-2.479404e+01
2.203797e+02	-2.484432e+01
2.216526e+02	-2.489748e+01
2.229329e+02	-2.494583e+01
2.242205e+02	-2.499999e+01
2.255156e+02	-2.504616e+01
2.268182e+02	-2.509507e+01
2.281283e+02	-2.514950e+01
2.294459e+02	-2.519972e+01
2.307712e+02	-2.524382e+01
2.321041e+02	-2.529313e+01
2.334447e+02	-2.534836e+01
2.347931e+02	-2.539439e+01
2.361493e+02	-2.544551e+01
2.375133e+02	-2.549256e+01
2.388851e+02	-2.554520e+01
2.402649e+02	-2.559462e+01
2.416527e+02	-2.564966e+01
2.430484e+02	-2.569524e+01
2.444523e+02	-2.574342e+01
2.458642e+02	-2.579594e+01
2.472843e+02	-2.584677e+01
2.487126e+02	-2.589480e+01
2.501492e+02	-2.594599e+01
2.515940e+02	-2.599519e+01
2.530472e+02	-2.604764e+01
2.545088e+02	-2.609658e+01
2.559789e+02	-2.614669e+01
2.574574e+02	-2.619413e+01
2.589444e+02	-2.624461e+01
2.604401e+02	-2.629441e+01
2.619444e+02	-2.634753e+01
2.634574e+02	-2.639194e+01
2.649791e+02	-2.644172e+01
2.665096e+02	-2.649461e+01
2.680489e+02	-2.654744e+01
2.695972e+02	-2.658902e+01
2.711544e+02	-2.664362e+01
2.727205e+02	-2.669439e+01
2.742958e+02	-2.674576e+01
2.758801e+02	-2.679635e+01
2.774736e+02	-2.684578e+01
2.790762e+02	-2.689467e+01
2.806882e+02	-2.694283e+01
2.823094e+02	-2.699126e+01
2.839400e+02	-2.704189e+01
2.855800e+02	-2.709494e+01
2.872295e+02	-2.714584e+01
2.888886e+02	-2.719632e+01
2.905572e+02	-2.724654e+01
2.922354e+02	-2.728984e+01
2.939234e+02	-2.734698e+01
2.956211e+02	-2.739450e+01
2.973286e+02	-2.744670e+01
2.990459e+02	-2.749250e+01
3.007732e+02	-2.754440e+01
3.025104e+02	-2.759499e+01
3.042577e+02	-2.764270e+01
3.060151e+02	-2.769384e+01
3.077826e+02	-2.774538e+01
3.095604e+02	-2.779440e+01
3.113484e+02	-2.784723e+01
3.131467e+02	-2.789995e+01
3.149554e+02	-2.794924e+01
3.167746e+02	-2.799618e+01
3.186043e+02	-2.804515e+01
3.204445e+02	-2.809863e+01
3.222954e+02	-2.814412e+01
3.241570e+02	-2.819680e+01
3.260293e+02	-2.824313e+01
3.279124e+02	-2.829298e+01
3.298064e+02	-2.835056e+01
3.317114e+02	-2.839516e+01
3.336273e+02	-2.844563e+01
3.355544e+02	-2.849470e+01
3.374925e+02	-2.854434e+01
3.394418e+02	-2.859536e+01
3.414024e+02	-2.864373e+01
3.433744e+02	-2.869239e+01
3.453577e+02	-2.874237e+01
3.473525e+02	-2.879943e+01
3.493588e+02	-2.884726e+01
3.513766e+02	-2.889895e+01
3.534062e+02	-2.894809e+01
3.554474e+02	-2.899610e+01
3.575005e+02	-2.904610e+01
3.595654e+02	-2.909799e+01
3.616422e+02	-2.914506e+01
3.637311e+02	-2.919619e+01
3.658320e+02	-2.924548e+01
3.679450e+02	-2.929854e+01
3.700702e+02	-2.934141e+01
3.722077e+02	-2.939523e+01
3.743576e+02	-2.944401e+01
3.765199e+02	-2.949523e+01
3.786946e+02	-2.954484e+01
3.808820e+02	-2.959895e+01
3.830819e+02	-2.964663e+01
3.852946e+02	-2.970064e+01
3.875200e+02	-2.974287e+01
3.897583e+02	-2.979961e+01
3.920096e+02	-2.984256e+01
3.942738e+02	-2.989430e+01
3.965511e+02	-2.994989e+01
3.988416e+02	-2.999447e+01
4.011452e+02	-3.004970e+01
4.034622e+02	-3.009639e+01
4.057926e+02	-3.015003e+01
4.081365e+02	-3.019727e+01
4.104938e+02	-3.024851e+01
4.128648e+02	-3.029597e+01
4.152495e+02	-3.034918e+01
4.176480e+02	-3.040308e+01
4.200603e+02	-3.044503e+01
4.224866e+02	-3.050030e+01
4.249268e+02	-3.055207e+01
4.273812e+02	-3.059839e+01
4.298497e+02	-3.065371e+01
4.323325e+02	-3.069756e+01
4.348297e+02	-3.074581e+01
4.373412e+02	-3.079916e+01
4.398673e+02	-3.085000e+01
4.424079e+02	-3.089712e+01
4.449633e+02	-3.095481e+01
4.475334e+02	-3.099763e+01
4.501183e+02	-3.105000e+01
4.527182e+02	-3.110032e+01
4.553330e+02	-3.114838e+01
4.579630e+02	-3.119881e+01
4.606082e+02	-3.125180e+01
4.632687e+02	-3.129940e+01
4.659445e+02	-3.135156e+01
4.686358e+02	-3.140025e+01
4.713426e+02	-3.144778e+01
4.740650e+02	-3.149622e+01
4.768032e+02	-3.154984e+01
4.795572e+02	-3.160695e+01
4.823271e+02	-3.166126e+01
4.851130e+02	-3.170374e+01
4.879150e+02	-3.175240e+01
4.907332e+02	-3.180721e+01
4.935676e+02	-3.185397e+01
4.964185e+02	-3.189706e+01
4.992858e+02	-3.195336e+01
5.021696e+02	-3.200548e+01
5.050701e+02	-3.205728e+01
5.079874e+02	-3.210405e+01
5.109215e+02	-3.215590e+01
5.138726e+02	-3.220293e+01
5.168407e+02	-3.225800e+01
5.198259e+02	-3.230395e+01
5.228284e+02	-3.235284e+01
5.258482e+02	-3.240225e+01
5.288855e+02	-3.245658e+01
5.319403e+02	-3.250670e+01
5.350128e+02	-3.255822e+01
5.381030e+02	-3.259775e+01
5.412111e+02	-3.265773e+01
5.443371e+02	-3.271196e+01
5.474812e+02	-3.275298e+01
5.506434e+02	-3.280956e+01
5.538239e+02	-3.285796e+01
5.570228e+02	-3.290613e+01
5.602401e+02	-3.295948e+01
5.634760e+02	-3.301105e+01
5.667306e+02	-3.305799e+01
5.700040e+02	-3.310638e+01
5.732964e+02	-3.315247e+01
5.766077e+02	-3.320352e+01
5.799382e+02	-3.326345e+01
5.832879e+02	-3.330665e+01
5.866569e+02	-3.335430e+01
5.900454e+02	-3.341005e+01
5.934535e+02	-3.346047e+01
5.968813e+02	-3.351823e+01
6.003288e+02	-3.356043e+01
6.037963e+02	-3.361632e+01
6.072838e+02	-3.365226e+01
6.107914e+02	-3.370866e+01
6.143194e+02	-3.376405e+01
6.178676e+02	-3.381779e+01
6.214364e+02	-3.386516e+01
6.250258e+02	-3.391897e+01
6.286359e+02	-3.395847e+01
6.322669e+02	-3.401054e+01
6.359189e+02	-3.405993e+01
6.395919e+02	-3.411311e+01
6.432862e+02	-3.416495e+01
6.470017e+02	-3.421168e+01
6.507388e+02	-3.426660e+01
6.544974e+02	-3.432556e+01
6.582778e+02	-3.437326e+01
6.620800e+02	-3.441392e+01
6.659041e+02	-3.446184e+01
6.697504e+02	-3.451795e+01
6.736188e+02	-3.456419e+01
6.775096e+02	-3.461941e+01
6.814229e+02	-3.467498e+01
6.853587e+02	-3.472279e+01
6.893173e+02	-3.477178e+01
6.932988e+02	-3.481833e+01
6.973033e+02	-3.486734e+01
7.013309e+02	-3.492177e+01
