Frequency(Hz)	Magnitude(dB)
1.000000e+01	-1.811945e-05
1.005776e+01	-1.832937e-05
1.011585e+01	-1.854172e-05
1.017428e+01	-1.875653e-05
1.023305e+01	-1.897383e-05
1.029215e+01	-1.919365e-05
1.035160e+01	-1.941601e-05
1.041139e+01	-1.964095e-05
1.047153e+01	-1.986849e-05
1.053201e+01	-2.009868e-05
1.059284e+01	-2.033152e-05
1.065403e+01	-2.056707e-05
1.071556e+01	-2.080534e-05
1.077746e+01	-2.104638e-05
1.083971e+01	-2.129021e-05
1.090232e+01	-2.153686e-05
1.096529e+01	-2.178637e-05
1.102862e+01	-2.203877e-05
1.109232e+01	-2.229409e-05
1.115639e+01	-2.255238e-05
1.122083e+01	-2.281365e-05
1.128564e+01	-2.307795e-05
1.135083e+01	-2.334532e-05
1.141639e+01	-2.361578e-05
1.148233e+01	-2.388937e-05
1.154865e+01	-2.416614e-05
1.161536e+01	-2.444611e-05
1.168245e+01	-2.472932e-05
1.174992e+01	-2.501582e-05
1.181779e+01	-2.530563e-05
1.188605e+01	-2.559880e-05
1.195470e+01	-2.589537e-05
1.202375e+01	-2.619538e-05
1.209320e+01	-2.649886e-05
1.216305e+01	-2.680585e-05
1.223330e+01	-2.711640e-05
1.230396e+01	-2.743056e-05
1.237503e+01	-2.774834e-05
1.244651e+01	-2.806982e-05
1.251840e+01	-2.839501e-05
1.259070e+01	-2.872397e-05
1.266343e+01	-2.905675e-05
1.273657e+01	-2.939338e-05
1.281014e+01	-2.973391e-05
1.288413e+01	-3.007838e-05
1.295855e+01	-3.042685e-05
1.303339e+01	-3.077935e-05
1.310867e+01	-3.113594e-05
1.318439e+01	-3.149665e-05
1.326054e+01	-3.186155e-05
1.333713e+01	-3.223067e-05
1.341417e+01	-3.260407e-05
1.349165e+01	-3.298180e-05
1.356958e+01	-3.336390e-05
1.364795e+01	-3.375043e-05
1.372678e+01	-3.414144e-05
1.380607e+01	-3.453697e-05
1.388581e+01	-3.493709e-05
1.396602e+01	-3.534185e-05
1.404668e+01	-3.575129e-05
1.412782e+01	-3.616548e-05
1.420942e+01	-3.658446e-05
1.429149e+01	-3.700830e-05
1.437404e+01	-3.743705e-05
1.445706e+01	-3.787077e-05
1.454057e+01	-3.830951e-05
1.462455e+01	-3.875333e-05
1.470902e+01	-3.920230e-05
1.479398e+01	-3.965647e-05
1.487943e+01	-4.011590e-05
1.496537e+01	-4.058065e-05
1.505181e+01	-4.105078e-05
1.513875e+01	-4.152637e-05
1.522619e+01	-4.200746e-05
1.531414e+01	-4.249412e-05
1.540259e+01	-4.298643e-05
1.549156e+01	-4.348444e-05
1.558103e+01	-4.398821e-05
1.567103e+01	-4.449783e-05
1.576155e+01	-4.501334e-05
1.585258e+01	-4.553483e-05
1.594415e+01	-4.606236e-05
1.603624e+01	-4.659601e-05
1.612886e+01	-4.713583e-05
1.622202e+01	-4.768191e-05
1.631572e+01	-4.823431e-05
1.640996e+01	-4.879312e-05
1.650474e+01	-4.935840e-05
1.660008e+01	-4.993023e-05
1.669596e+01	-5.050868e-05
1.679239e+01	-5.109383e-05
1.688938e+01	-5.168576e-05
1.698694e+01	-5.228456e-05
1.708505e+01	-5.289028e-05
1.718373e+01	-5.350303e-05
1.728299e+01	-5.412287e-05
1.738281e+01	-5.474990e-05
1.748322e+01	-5.538418e-05
1.758420e+01	-5.602582e-05
1.768576e+01	-5.667489e-05
1.778792e+01	-5.733148e-05
1.789066e+01	-5.799568e-05
1.799399e+01	-5.866757e-05
1.809793e+01	-5.934725e-05
1.820246e+01	-6.003480e-05
1.830760e+01	-6.073031e-05
1.841334e+01	-6.143388e-05
1.851969e+01	-6.214561e-05
1.862666e+01	-6.286558e-05
1.873425e+01	-6.359389e-05
1.884246e+01	-6.433063e-05
1.895129e+01	-6.507592e-05
1.906075e+01	-6.582983e-05
1.917085e+01	-6.659249e-05
1.928158e+01	-6.736397e-05
1.939295e+01	-6.814440e-05
1.950496e+01	-6.893386e-05
1.961762e+01	-6.973247e-05
1.973093e+01	-7.054034e-05
1.984490e+01	-7.135756e-05
1.995952e+01	-7.218425e-05
2.007480e+01	-7.302052e-05
2.019076e+01	-7.386647e-05
2.030738e+01	-7.472223e-05
2.042467e+01	-7.558790e-05
2.054264e+01	-7.646360e-05
2.066130e+01	-7.734944e-05
2.078064e+01	-7.824555e-05
2.090066e+01	-7.915204e-05
2.102139e+01	-8.006903e-05
2.114280e+01	-8.099664e-05
2.126492e+01	-8.193500e-05
2.138775e+01	-8.288423e-05
2.151128e+01	-8.384446e-05
2.163553e+01	-8.481581e-05
2.176050e+01	-8.579842e-05
2.188619e+01	-8.679241e-05
2.201260e+01	-8.779791e-05
2.213974e+01	-8.881507e-05
2.226762e+01	-8.984400e-05
2.239624e+01	-9.088486e-05
2.252560e+01	-9.193777e-05
2.265571e+01	-9.300289e-05
2.278656e+01	-9.408034e-05
2.291818e+01	-9.517028e-05
2.305055e+01	-9.627284e-05
2.318369e+01	-9.738817e-05
2.331760e+01	-9.851643e-05
2.345228e+01	-9.965776e-05
2.358774e+01	-1.008123e-04
2.372398e+01	-1.019802e-04
2.386101e+01	-1.031617e-04
2.399883e+01	-1.043568e-04
2.413745e+01	-1.055658e-04
2.427686e+01	-1.067888e-04
2.441709e+01	-1.080260e-04
2.455812e+01	-1.092775e-04
2.469997e+01	-1.105435e-04
2.484263e+01	-1.118241e-04
2.498612e+01	-1.131196e-04
2.513044e+01	-1.144301e-04
2.527559e+01	-1.157558e-04
2.542158e+01	-1.170969e-04
2.556842e+01	-1.184534e-04
2.571610e+01	-1.198257e-04
2.586463e+01	-1.212139e-04
2.601403e+01	-1.226182e-04
2.616428e+01	-1.240388e-04
2.631541e+01	-1.254758e-04
2.646740e+01	-1.269294e-04
2.662028e+01	-1.283999e-04
2.677404e+01	-1.298874e-04
2.692868e+01	-1.313922e-04
2.708422e+01	-1.329144e-04
2.724066e+01	-1.344542e-04
2.739800e+01	-1.360119e-04
2.755625e+01	-1.375876e-04
2.771541e+01	-1.391815e-04
2.787550e+01	-1.407940e-04
2.803650e+01	-1.424251e-04
2.819844e+01	-1.440751e-04
2.836131e+01	-1.457442e-04
2.852513e+01	-1.474327e-04
2.868989e+01	-1.491407e-04
2.885560e+01	-1.508685e-04
2.902227e+01	-1.526163e-04
2.918990e+01	-1.543844e-04
2.935850e+01	-1.561730e-04
2.952807e+01	-1.579822e-04
2.969863e+01	-1.598125e-04
2.987016e+01	-1.616639e-04
3.004269e+01	-1.635368e-04
3.021622e+01	-1.654314e-04
3.039075e+01	-1.673479e-04
3.056628e+01	-1.692866e-04
3.074283e+01	-1.712478e-04
3.092040e+01	-1.732317e-04
3.109900e+01	-1.752386e-04
3.127862e+01	-1.772688e-04
3.145929e+01	-1.793225e-04
3.164099e+01	-1.813999e-04
3.182375e+01	-1.835014e-04
3.200756e+01	-1.856273e-04
3.219244e+01	-1.877778e-04
3.237838e+01	-1.899532e-04
3.256540e+01	-1.921538e-04
3.275349e+01	-1.943799e-04
3.294268e+01	-1.966318e-04
3.313295e+01	-1.989098e-04
3.332433e+01	-2.012142e-04
3.351681e+01	-2.035452e-04
3.371040e+01	-2.059033e-04
3.390511e+01	-2.082887e-04
3.410094e+01	-2.107017e-04
3.429791e+01	-2.131427e-04
3.449601e+01	-2.156120e-04
3.469526e+01	-2.181098e-04
3.489566e+01	-2.206366e-04
3.509721e+01	-2.231927e-04
3.529993e+01	-2.257784e-04
3.550382e+01	-2.283940e-04
3.570889e+01	-2.310400e-04
3.591515e+01	-2.337165e-04
3.612259e+01	-2.364241e-04
3.633123e+01	-2.391631e-04
3.654108e+01	-2.419338e-04
3.675214e+01	-2.447366e-04
3.696442e+01	-2.475719e-04
3.717792e+01	-2.504400e-04
3.739266e+01	-2.533413e-04
3.760864e+01	-2.562762e-04
3.782587e+01	-2.592452e-04
3.804435e+01	-2.622485e-04
3.826409e+01	-2.652866e-04
3.848510e+01	-2.683600e-04
3.870739e+01	-2.714689e-04
3.893096e+01	-2.746138e-04
3.915583e+01	-2.777952e-04
3.938199e+01	-2.810134e-04
3.960946e+01	-2.842690e-04
3.983824e+01	-2.875622e-04
4.006834e+01	-2.908936e-04
4.029978e+01	-2.942635e-04
4.053255e+01	-2.976725e-04
4.076666e+01	-3.011210e-04
4.100213e+01	-3.046095e-04
4.123896e+01	-3.081383e-04
4.147715e+01	-3.117081e-04
4.171672e+01	-3.153192e-04
4.195767e+01	-3.189721e-04
4.220002e+01	-3.226674e-04
4.244377e+01	-3.264054e-04
4.268892e+01	-3.301868e-04
4.293549e+01	-3.340119e-04
4.318348e+01	-3.378814e-04
4.343291e+01	-3.417957e-04
4.368377e+01	-3.457553e-04
4.393609e+01	-3.497608e-04
4.418986e+01	-3.538127e-04
4.444510e+01	-3.579116e-04
4.470182e+01	-3.620579e-04
4.496001e+01	-3.662523e-04
4.521970e+01	-3.704952e-04
4.548089e+01	-3.747873e-04
4.574358e+01	-3.791292e-04
4.600779e+01	-3.835213e-04
4.627353e+01	-3.879643e-04
4.654081e+01	-3.924588e-04
4.680963e+01	-3.970053e-04
4.708000e+01	-4.016045e-04
4.735193e+01	-4.062570e-04
4.762543e+01	-4.109634e-04
4.790051e+01	-4.157243e-04
4.817719e+01	-4.205403e-04
4.845545e+01	-4.254121e-04
4.873533e+01	-4.303404e-04
4.901682e+01	-4.353258e-04
4.929994e+01	-4.403689e-04
4.958470e+01	-4.454704e-04
4.987110e+01	-4.506311e-04
5.015915e+01	-4.558515e-04
5.044887e+01	-4.611324e-04
5.074026e+01	-4.664744e-04
5.103333e+01	-4.718784e-04
5.132810e+01	-4.773449e-04
5.162457e+01	-4.828748e-04
5.192275e+01	-4.884687e-04
5.222265e+01	-4.941274e-04
5.252429e+01	-4.998517e-04
5.282767e+01	-5.056423e-04
5.313280e+01	-5.114999e-04
5.343969e+01	-5.174254e-04
5.374836e+01	-5.234196e-04
5.405880e+01	-5.294832e-04
5.437105e+01	-5.356170e-04
5.468509e+01	-5.418219e-04
5.500095e+01	-5.480987e-04
5.531863e+01	-5.544481e-04
5.563815e+01	-5.608712e-04
5.595951e+01	-5.673686e-04
5.628273e+01	-5.739413e-04
5.660782e+01	-5.805901e-04
5.693479e+01	-5.873159e-04
5.726364e+01	-5.941197e-04
5.759439e+01	-6.010023e-04
5.792705e+01	-6.079645e-04
5.826164e+01	-6.150075e-04
5.859815e+01	-6.221320e-04
5.893662e+01	-6.293390e-04
5.927703e+01	-6.366296e-04
5.961941e+01	-6.440046e-04
5.996377e+01	-6.514650e-04
6.031012e+01	-6.590118e-04
6.065847e+01	-6.666460e-04
6.100883e+01	-6.743687e-04
6.136121e+01	-6.821809e-04
6.171563e+01	-6.900835e-04
6.207210e+01	-6.980777e-04
6.243063e+01	-7.061644e-04
6.279122e+01	-7.143449e-04
6.315390e+01	-7.226200e-04
6.351868e+01	-7.309911e-04
6.388556e+01	-7.394591e-04
6.425456e+01	-7.480252e-04
6.462569e+01	-7.566905e-04
6.499897e+01	-7.654562e-04
6.537440e+01	-7.743235e-04
6.575200e+01	-7.832934e-04
6.613178e+01	-7.923672e-04
6.651375e+01	-8.015462e-04
6.689793e+01	-8.108314e-04
6.728433e+01	-8.202243e-04
6.767297e+01	-8.297259e-04
6.806384e+01	-8.393375e-04
6.845698e+01	-8.490606e-04
6.885238e+01	-8.588962e-04
6.925007e+01	-8.688457e-04
6.965005e+01	-8.789105e-04
7.005235e+01	-8.890919e-04
7.045697e+01	-8.993912e-04
7.086393e+01	-9.098098e-04
7.127323e+01	-9.203491e-04
7.168490e+01	-9.310104e-04
7.209895e+01	-9.417953e-04
7.251539e+01	-9.527050e-04
7.293424e+01	-9.637412e-04
7.335551e+01	-9.749051e-04
7.377920e+01	-9.861984e-04
7.420535e+01	-9.976224e-04
7.463396e+01	-1.009179e-03
7.506504e+01	-1.020869e-03
7.549861e+01	-1.032695e-03
7.593469e+01	-1.044657e-03
7.637328e+01	-1.056758e-03
7.681441e+01	-1.069000e-03
7.725809e+01	-1.081383e-03
7.770433e+01	-1.093909e-03
7.815315e+01	-1.106581e-03
7.860456e+01	-1.119399e-03
7.905857e+01	-1.132366e-03
7.951521e+01	-1.145483e-03
7.997449e+01	-1.158752e-03
8.043642e+01	-1.172175e-03
8.090102e+01	-1.185753e-03
8.136830e+01	-1.199488e-03
8.183828e+01	-1.213383e-03
8.231097e+01	-1.227438e-03
8.278640e+01	-1.241657e-03
8.326457e+01	-1.256039e-03
8.374550e+01	-1.270589e-03
8.422921e+01	-1.285307e-03
8.471572e+01	-1.300195e-03
8.520503e+01	-1.315256e-03
8.569717e+01	-1.330491e-03
8.619215e+01	-1.345903e-03
8.669000e+01	-1.361493e-03
8.719071e+01	-1.377264e-03
8.769432e+01	-1.393217e-03
8.820084e+01	-1.409355e-03
8.871029e+01	-1.425681e-03
8.922267e+01	-1.442195e-03
8.973802e+01	-1.458900e-03
9.025634e+01	-1.475799e-03
9.077766e+01	-1.492894e-03
9.130199e+01	-1.510186e-03
9.182935e+01	-1.527679e-03
9.235975e+01	-1.545374e-03
9.289321e+01	-1.563275e-03
9.342976e+01	-1.581382e-03
9.396941e+01	-1.599700e-03
9.451217e+01	-1.618229e-03
9.505807e+01	-1.636973e-03
9.560712e+01	-1.655935e-03
9.615934e+01	-1.675115e-03
9.671476e+01	-1.694518e-03
9.727338e+01	-1.714146e-03
9.783522e+01	-1.734001e-03
9.840032e+01	-1.754085e-03
9.896867e+01	-1.774403e-03
9.954031e+01	-1.794956e-03
1.001153e+02	-1.815746e-03
1.006935e+02	-1.836778e-03
1.012751e+02	-1.858053e-03
1.018601e+02	-1.879574e-03
1.024484e+02	-1.901345e-03
1.030402e+02	-1.923367e-03
1.036353e+02	-1.945645e-03
1.042339e+02	-1.968181e-03
1.048360e+02	-1.990977e-03
1.054415e+02	-2.014038e-03
1.060505e+02	-2.037366e-03
1.066631e+02	-2.060964e-03
1.072791e+02	-2.084835e-03
1.078988e+02	-2.108982e-03
1.085220e+02	-2.133409e-03
1.091488e+02	-2.158119e-03
1.097793e+02	-2.183115e-03
1.104133e+02	-2.208401e-03
1.110511e+02	-2.233979e-03
1.116925e+02	-2.259854e-03
1.123376e+02	-2.286028e-03
1.129865e+02	-2.312505e-03
1.136391e+02	-2.339289e-03
1.142955e+02	-2.366383e-03
1.149556e+02	-2.393790e-03
1.156196e+02	-2.421515e-03
1.162874e+02	-2.449561e-03
1.169591e+02	-2.477932e-03
1.176347e+02	-2.506631e-03
1.183141e+02	-2.535663e-03
1.189975e+02	-2.565030e-03
1.196848e+02	-2.594738e-03
1.203761e+02	-2.624790e-03
1.210714e+02	-2.655189e-03
1.217707e+02	-2.685941e-03
1.224740e+02	-2.717048e-03
1.231814e+02	-2.748516e-03
1.238929e+02	-2.780348e-03
1.246085e+02	-2.812549e-03
1.253283e+02	-2.845122e-03
1.260522e+02	-2.878073e-03
1.267802e+02	-2.911405e-03
1.275125e+02	-2.945123e-03
1.282490e+02	-2.979231e-03
1.289898e+02	-3.013734e-03
1.297348e+02	-3.048637e-03
1.304842e+02	-3.083944e-03
1.312378e+02	-3.119659e-03
1.319959e+02	-3.155788e-03
1.327583e+02	-3.192335e-03
1.335251e+02	-3.229306e-03
1.342963e+02	-3.266704e-03
1.350720e+02	-3.304535e-03
1.358522e+02	-3.342804e-03
1.366368e+02	-3.381516e-03
1.374260e+02	-3.420677e-03
1.382198e+02	-3.460290e-03
1.390182e+02	-3.500362e-03
1.398211e+02	-3.540899e-03
1.406287e+02	-3.581904e-03
1.414410e+02	-3.623384e-03
1.422579e+02	-3.665344e-03
1.430796e+02	-3.707790e-03
1.439060e+02	-3.750727e-03
1.447372e+02	-3.794161e-03
1.455732e+02	-3.838098e-03
1.464141e+02	-3.882543e-03
1.472597e+02	-3.927503e-03
1.481103e+02	-3.972984e-03
1.489658e+02	-4.018990e-03
1.498262e+02	-4.065530e-03
1.506916e+02	-4.112607e-03
1.515620e+02	-4.160230e-03
1.524374e+02	-4.208404e-03
1.533179e+02	-4.257136e-03
1.542034e+02	-4.306431e-03
1.550941e+02	-4.356297e-03
1.559899e+02	-4.406740e-03
1.568909e+02	-4.457767e-03
1.577971e+02	-4.509385e-03
1.587085e+02	-4.561600e-03
1.596252e+02	-4.614419e-03
1.605472e+02	-4.667850e-03
1.614745e+02	-4.721898e-03
1.624072e+02	-4.776573e-03
1.633453e+02	-4.831880e-03
1.642887e+02	-4.887827e-03
1.652377e+02	-4.944421e-03
1.661921e+02	-5.001670e-03
1.671520e+02	-5.059582e-03
1.681175e+02	-5.118164e-03
1.690885e+02	-5.177424e-03
1.700651e+02	-5.237370e-03
1.710474e+02	-5.298009e-03
1.720354e+02	-5.359350e-03
1.730291e+02	-5.421400e-03
1.740285e+02	-5.484169e-03
1.750337e+02	-5.547664e-03
1.760446e+02	-5.611893e-03
1.770615e+02	-5.676866e-03
1.780842e+02	-5.742590e-03
1.791128e+02	-5.809075e-03
1.801473e+02	-5.876329e-03
1.811878e+02	-5.944361e-03
1.822344e+02	-6.013180e-03
1.832870e+02	-6.082796e-03
1.843456e+02	-6.153216e-03
1.854104e+02	-6.224452e-03
1.864813e+02	-6.296511e-03
1.875584e+02	-6.369404e-03
1.886418e+02	-6.443141e-03
1.897313e+02	-6.517730e-03
1.908272e+02	-6.593182e-03
1.919294e+02	-6.669507e-03
1.930380e+02	-6.746715e-03
1.941530e+02	-6.824816e-03
1.952744e+02	-6.903820e-03
1.964023e+02	-6.983738e-03
1.975367e+02	-7.064581e-03
1.986777e+02	-7.146358e-03
1.998252e+02	-7.229081e-03
2.009794e+02	-7.312761e-03
2.021403e+02	-7.397409e-03
2.033078e+02	-7.483036e-03
2.044821e+02	-7.569653e-03
2.056632e+02	-7.657272e-03
2.068511e+02	-7.745904e-03
2.080459e+02	-7.835561e-03
2.092475e+02	-7.926255e-03
2.104561e+02	-8.017998e-03
2.116717e+02	-8.110802e-03
2.128943e+02	-8.204678e-03
2.141240e+02	-8.299641e-03
2.153608e+02	-8.395701e-03
2.166047e+02	-8.492872e-03
2.178558e+02	-8.591166e-03
2.191141e+02	-8.690597e-03
2.203797e+02	-8.791178e-03
2.216526e+02	-8.892922e-03
2.229329e+02	-8.995841e-03
2.242205e+02	-9.099951e-03
2.255156e+02	-9.205264e-03
2.268182e+02	-9.311795e-03
2.281283e+02	-9.419557e-03
2.294459e+02	-9.528565e-03
2.307712e+02	-9.638833e-03
2.321041e+02	-9.750376e-03
2.334447e+02	-9.863208e-03
2.347931e+02	-9.977344e-03
2.361493e+02	-1.009280e-02
2.375133e+02	-1.020959e-02
2.388851e+02	-1.032773e-02
2.402649e+02	-1.044723e-02
2.416527e+02	-1.056812e-02
2.430484e+02	-1.069040e-02
2.444523e+02	-1.081410e-02
2.458642e+02	-1.093923e-02
2.472843e+02	-1.106580e-02
2.487126e+02	-1.119383e-02
2.501492e+02	-1.132335e-02
2.515940e+02	-1.145436e-02
2.530472e+02	-1.158688e-02
2.545088e+02	-1.172094e-02
2.559789e+02	-1.185654e-02
2.574574e+02	-1.199371e-02
2.589444e+02	-1.213247e-02
2.604401e+02	-1.227282e-02
2.619444e+02	-1.241480e-02
2.634574e+02	-1.255842e-02
2.649791e+02	-1.270370e-02
2.665096e+02	-1.285066e-02
2.680489e+02	-1.299932e-02
2.695972e+02	-1.314969e-02
2.711544e+02	-1.330180e-02
2.727205e+02	-1.345566e-02
2.742958e+02	-1.361130e-02
2.758801e+02	-1.376874e-02
2.774736e+02	-1.392800e-02
2.790762e+02	-1.408910e-02
2.806882e+02	-1.425205e-02
2.823094e+02	-1.441689e-02
2.839400e+02	-1.458364e-02
2.855800e+02	-1.475230e-02
2.872295e+02	-1.492292e-02
2.888886e+02	-1.509550e-02
2.905572e+02	-1.527008e-02
2.922354e+02	-1.544667e-02
2.939234e+02	-1.562530e-02
2.956211e+02	-1.580599e-02
2.973286e+02	-1.598877e-02
2.990459e+02	-1.617366e-02
3.007732e+02	-1.636068e-02
3.025104e+02	-1.654986e-02
3.042577e+02	-1.674123e-02
3.060151e+02	-1.693480e-02
3.077826e+02	-1.713060e-02
3.095604e+02	-1.732867e-02
3.113484e+02	-1.752902e-02
3.131467e+02	-1.773168e-02
3.149554e+02	-1.793668e-02
3.167746e+02	-1.814405e-02
3.186043e+02	-1.835381e-02
3.204445e+02	-1.856599e-02
3.222954e+02	-1.878061e-02
3.241570e+02	-1.899771e-02
3.260293e+02	-1.921732e-02
3.279124e+02	-1.943945e-02
3.298064e+02	-1.966415e-02
3.317114e+02	-1.989144e-02
3.336273e+02	-2.012136e-02
3.355544e+02	-2.035392e-02
3.374925e+02	-2.058916e-02
3.394418e+02	-2.082712e-02
3.414024e+02	-2.106782e-02
3.433744e+02	-2.131130e-02
3.453577e+02	-2.155758e-02
3.473525e+02	-2.180670e-02
3.493588e+02	-2.205869e-02
3.513766e+02	-2.231359e-02
3.534062e+02	-2.257143e-02
3.554474e+02	-2.283223e-02
3.575005e+02	-2.309604e-02
3.595654e+02	-2.336290e-02
3.616422e+02	-2.363282e-02
3.637311e+02	-2.390586e-02
3.658320e+02	-2.418204e-02
3.679450e+02	-2.446141e-02
3.700702e+02	-2.474399e-02
3.722077e+02	-2.502982e-02
3.743576e+02	-2.531895e-02
3.765199e+02	-2.561141e-02
3.786946e+02	-2.590724e-02
3.808820e+02	-2.620647e-02
3.830819e+02	-2.650915e-02
3.852946e+02	-2.681532e-02
3.875200e+02	-2.712501e-02
3.897583e+02	-2.743826e-02
3.920096e+02	-2.775512e-02
3.942738e+02	-2.807563e-02
3.965511e+02	-2.839983e-02
3.988416e+02	-2.872776e-02
4.011452e+02	-2.905946e-02
4.034622e+02	-2.939498e-02
4.057926e+02	-2.973436e-02
4.081365e+02	-3.007764e-02
4.104938e+02	-3.042488e-02
4.128648e+02	-3.077610e-02
4.152495e+02	-3.113137e-02
4.176480e+02	-3.149073e-02
4.200603e+02	-3.185421e-02
4.224866e+02	-3.222188e-02
4.249268e+02	-3.259377e-02
4.273812e+02	-3.296994e-02
4.298497e+02	-3.335044e-02
4.323325e+02	-3.373531e-02
4.348297e+02	-3.412460e-02
4.373412e+02	-3.451837e-02
4.398673e+02	-3.491666e-02
4.424079e+02	-3.531953e-02
4.449633e+02	-3.572703e-02
4.475334e+02	-3.613921e-02
4.501183e+02	-3.655613e-02
4.527182e+02	-3.697783e-02
4.553330e+02	-3.740438e-02
4.579630e+02	-3.783583e-02
4.606082e+02	-3.827223e-02
4.632687e+02	-3.871365e-02
4.659445e+02	-3.916013e-02
4.686358e+02	-3.961173e-02
4.713426e+02	-4.006853e-02
4.740650e+02	-4.053056e-02
4.768032e+02	-4.099790e-02
4.795572e+02	-4.147059e-02
4.823271e+02	-4.194872e-02
4.851130e+02	-4.243233e-02
4.879150e+02	-4.292148e-02
4.907332e+02	-4.341625e-02
4.935676e+02	-4.391669e-02
4.964185e+02	-4.442287e-02
4.992858e+02	-4.493485e-02
5.021696e+02	-4.545271e-02
5.050701e+02	-4.597650e-02
5.079874e+02	-4.650629e-02
5.109215e+02	-4.704215e-02
5.138726e+02	-4.758416e-02
5.168407e+02	-4.813237e-02
5.198259e+02	-4.868687e-02
5.228284e+02	-4.924772e-02
5.258482e+02	-4.981499e-02
5.288855e+02	-5.038876e-02
5.319403e+02	-5.096909e-02
5.350128e+02	-5.155607e-02
5.381030e+02	-5.214977e-02
5.412111e+02	-5.275027e-02
5.443371e+02	-5.335764e-02
5.474812e+02	-5.397195e-02
5.506434e+02	-5.459330e-02
5.538239e+02	-5.522175e-02
5.570228e+02	-5.585739e-02
5.602401e+02	-5.650030e-02
5.634760e+02	-5.715056e-02
5.667306e+02	-5.780826e-02
5.700040e+02	-5.847347e-02
5.732964e+02	-5.914628e-02
5.766077e+02	-5.982678e-02
5.799382e+02	-6.051506e-02
5.832879e+02	-6.121120e-02
5.866569e+02	-6.191529e-02
5.900454e+02	-6.262742e-02
5.934535e+02	-6.334768e-02
5.968813e+02	-6.407617e-02
6.003288e+02	-6.481296e-02
6.037963e+02	-6.555817e-02
6.072838e+02	-6.631188e-02
6.107914e+02	-6.707419e-02
6.143194e+02	-6.784519e-02
6.178676e+02	-6.862498e-02
6.214364e+02	-6.941367e-02
6.250258e+02	-7.021134e-02
6.286359e+02	-7.101811e-02
6.322669e+02	-7.183407e-02
6.359189e+02	-7.265933e-02
6.395919e+02	-7.349399e-02
6.432862e+02	-7.433815e-02
6.470017e+02	-7.519192e-02
6.507388e+02	-7.605542e-02
6.544974e+02	-7.692874e-02
6.582778e+02	-7.781200e-02
6.620800e+02	-7.870531e-02
6.659041e+02	-7.960878e-02
6.697504e+02	-8.052253e-02
6.736188e+02	-8.144666e-02
6.775096e+02	-8.238130e-02
6.814229e+02	-8.332657e-02
6.853587e+02	-8.428257e-02
6.893173e+02	-8.524943e-02
6.932988e+02	-8.622728e-02
6.973033e+02	-8.721623e-02
7.013309e+02	-8.821640e-02
