Frequency(Hz)	Magnitude(dB)
1.000000e+01	-1.834925e-05
1.005776e+01	-1.856183e-05
1.011585e+01	-1.877687e-05
1.017428e+01	-1.899441e-05
1.023305e+01	-1.921446e-05
1.029215e+01	-1.943706e-05
1.035160e+01	-1.966225e-05
1.041139e+01	-1.989004e-05
1.047153e+01	-2.012047e-05
1.053201e+01	-2.035357e-05
1.059284e+01	-2.058937e-05
1.065403e+01	-2.082791e-05
1.071556e+01	-2.106920e-05
1.077746e+01	-2.131330e-05
1.083971e+01	-2.156021e-05
1.090232e+01	-2.181000e-05
1.096529e+01	-2.206267e-05
1.102862e+01	-2.231827e-05
1.109232e+01	-2.257683e-05
1.115639e+01	-2.283839e-05
1.122083e+01	-2.310298e-05
1.128564e+01	-2.337063e-05
1.135083e+01	-2.364139e-05
1.141639e+01	-2.391528e-05
1.148233e+01	-2.419235e-05
1.154865e+01	-2.447262e-05
1.161536e+01	-2.475614e-05
1.168245e+01	-2.504295e-05
1.174992e+01	-2.533308e-05
1.181779e+01	-2.562657e-05
1.188605e+01	-2.592346e-05
1.195470e+01	-2.622378e-05
1.202375e+01	-2.652759e-05
1.209320e+01	-2.683492e-05
1.216305e+01	-2.714581e-05
1.223330e+01	-2.746030e-05
1.230396e+01	-2.777844e-05
1.237503e+01	-2.810026e-05
1.244651e+01	-2.842581e-05
1.251840e+01	-2.875512e-05
1.259070e+01	-2.908826e-05
1.266343e+01	-2.942525e-05
1.273657e+01	-2.976615e-05
1.281014e+01	-3.011100e-05
1.288413e+01	-3.045984e-05
1.295855e+01	-3.081273e-05
1.303339e+01	-3.116970e-05
1.310867e+01	-3.153081e-05
1.318439e+01	-3.189610e-05
1.326054e+01	-3.226563e-05
1.333713e+01	-3.263943e-05
1.341417e+01	-3.301757e-05
1.349165e+01	-3.340008e-05
1.356958e+01	-3.378703e-05
1.364795e+01	-3.417846e-05
1.372678e+01	-3.457443e-05
1.380607e+01	-3.497498e-05
1.388581e+01	-3.538017e-05
1.396602e+01	-3.579006e-05
1.404668e+01	-3.620470e-05
1.412782e+01	-3.662414e-05
1.420942e+01	-3.704844e-05
1.429149e+01	-3.747765e-05
1.437404e+01	-3.791184e-05
1.445706e+01	-3.835105e-05
1.454057e+01	-3.879536e-05
1.462455e+01	-3.924481e-05
1.470902e+01	-3.969947e-05
1.479398e+01	-4.015940e-05
1.487943e+01	-4.062466e-05
1.496537e+01	-4.109530e-05
1.505181e+01	-4.157140e-05
1.513875e+01	-4.205301e-05
1.522619e+01	-4.254021e-05
1.531414e+01	-4.303305e-05
1.540259e+01	-4.353159e-05
1.549156e+01	-4.403592e-05
1.558103e+01	-4.454608e-05
1.567103e+01	-4.506216e-05
1.576155e+01	-4.558421e-05
1.585258e+01	-4.611232e-05
1.594415e+01	-4.664654e-05
1.603624e+01	-4.718695e-05
1.612886e+01	-4.773362e-05
1.622202e+01	-4.828662e-05
1.631572e+01	-4.884603e-05
1.640996e+01	-4.941193e-05
1.650474e+01	-4.998437e-05
1.660008e+01	-5.056345e-05
1.669596e+01	-5.114924e-05
1.679239e+01	-5.174182e-05
1.688938e+01	-5.234126e-05
1.698694e+01	-5.294764e-05
1.708505e+01	-5.356105e-05
1.718373e+01	-5.418157e-05
1.728299e+01	-5.480927e-05
1.738281e+01	-5.544425e-05
1.748322e+01	-5.608658e-05
1.758420e+01	-5.673635e-05
1.768576e+01	-5.739366e-05
1.778792e+01	-5.805857e-05
1.789066e+01	-5.873119e-05
1.799399e+01	-5.941161e-05
1.809793e+01	-6.009990e-05
1.820246e+01	-6.079617e-05
1.830760e+01	-6.150051e-05
1.841334e+01	-6.221300e-05
1.851969e+01	-6.293375e-05
1.862666e+01	-6.366285e-05
1.873425e+01	-6.440040e-05
1.884246e+01	-6.514649e-05
1.895129e+01	-6.590122e-05
1.906075e+01	-6.666470e-05
1.917085e+01	-6.743703e-05
1.928158e+01	-6.821830e-05
1.939295e+01	-6.900862e-05
1.950496e+01	-6.980810e-05
1.961762e+01	-7.061684e-05
1.973093e+01	-7.143494e-05
1.984490e+01	-7.226253e-05
1.995952e+01	-7.309971e-05
2.007480e+01	-7.394658e-05
2.019076e+01	-7.480326e-05
2.030738e+01	-7.566987e-05
2.042467e+01	-7.654652e-05
2.054264e+01	-7.743333e-05
2.066130e+01	-7.833041e-05
2.078064e+01	-7.923788e-05
2.090066e+01	-8.015586e-05
2.102139e+01	-8.108448e-05
2.114280e+01	-8.202386e-05
2.126492e+01	-8.297412e-05
2.138775e+01	-8.393539e-05
2.151128e+01	-8.490779e-05
2.163553e+01	-8.589146e-05
2.176050e+01	-8.688653e-05
2.188619e+01	-8.789313e-05
2.201260e+01	-8.891138e-05
2.213974e+01	-8.994143e-05
2.226762e+01	-9.098342e-05
2.239624e+01	-9.203748e-05
2.252560e+01	-9.310375e-05
2.265571e+01	-9.418237e-05
2.278656e+01	-9.527348e-05
2.291818e+01	-9.637724e-05
2.305055e+01	-9.749379e-05
2.318369e+01	-9.862327e-05
2.331760e+01	-9.976583e-05
2.345228e+01	-1.009216e-04
2.358774e+01	-1.020908e-04
2.372398e+01	-1.032736e-04
2.386101e+01	-1.044700e-04
2.399883e+01	-1.056803e-04
2.413745e+01	-1.069046e-04
2.427686e+01	-1.081431e-04
2.441709e+01	-1.093960e-04
2.455812e+01	-1.106633e-04
2.469997e+01	-1.119454e-04
2.484263e+01	-1.132423e-04
2.498612e+01	-1.145542e-04
2.513044e+01	-1.158813e-04
2.527559e+01	-1.172238e-04
2.542158e+01	-1.185819e-04
2.556842e+01	-1.199557e-04
2.571610e+01	-1.213454e-04
2.586463e+01	-1.227512e-04
2.601403e+01	-1.241733e-04
2.616428e+01	-1.256118e-04
2.631541e+01	-1.270671e-04
2.646740e+01	-1.285391e-04
2.662028e+01	-1.300283e-04
2.677404e+01	-1.315347e-04
2.692868e+01	-1.330585e-04
2.708422e+01	-1.346000e-04
2.724066e+01	-1.361594e-04
2.739800e+01	-1.377368e-04
2.755625e+01	-1.393325e-04
2.771541e+01	-1.409467e-04
2.787550e+01	-1.425795e-04
2.803650e+01	-1.442313e-04
2.819844e+01	-1.459023e-04
2.836131e+01	-1.475926e-04
2.852513e+01	-1.493024e-04
2.868989e+01	-1.510321e-04
2.885560e+01	-1.527818e-04
2.902227e+01	-1.545518e-04
2.918990e+01	-1.563423e-04
2.935850e+01	-1.581535e-04
2.952807e+01	-1.599858e-04
2.969863e+01	-1.618392e-04
2.987016e+01	-1.637141e-04
3.004269e+01	-1.656108e-04
3.021622e+01	-1.675294e-04
3.039075e+01	-1.694702e-04
3.056628e+01	-1.714335e-04
3.074283e+01	-1.734196e-04
3.092040e+01	-1.754287e-04
3.109900e+01	-1.774610e-04
3.127862e+01	-1.795169e-04
3.145929e+01	-1.815966e-04
3.164099e+01	-1.837004e-04
3.182375e+01	-1.858286e-04
3.200756e+01	-1.879814e-04
3.219244e+01	-1.901592e-04
3.237838e+01	-1.923622e-04
3.256540e+01	-1.945907e-04
3.275349e+01	-1.968451e-04
3.294268e+01	-1.991255e-04
3.313295e+01	-2.014324e-04
3.332433e+01	-2.037660e-04
3.351681e+01	-2.061266e-04
3.371040e+01	-2.085146e-04
3.390511e+01	-2.109302e-04
3.410094e+01	-2.133739e-04
3.429791e+01	-2.158458e-04
3.449601e+01	-2.183464e-04
3.469526e+01	-2.208759e-04
3.489566e+01	-2.234347e-04
3.509721e+01	-2.260232e-04
3.529993e+01	-2.286417e-04
3.550382e+01	-2.312905e-04
3.570889e+01	-2.339700e-04
3.591515e+01	-2.366805e-04
3.612259e+01	-2.394225e-04
3.633123e+01	-2.421962e-04
3.654108e+01	-2.450020e-04
3.675214e+01	-2.478403e-04
3.696442e+01	-2.507115e-04
3.717792e+01	-2.536160e-04
3.739266e+01	-2.565542e-04
3.760864e+01	-2.595263e-04
3.782587e+01	-2.625329e-04
3.804435e+01	-2.655743e-04
3.826409e+01	-2.686510e-04
3.848510e+01	-2.717633e-04
3.870739e+01	-2.749116e-04
3.893096e+01	-2.780965e-04
3.915583e+01	-2.813182e-04
3.938199e+01	-2.845772e-04
3.960946e+01	-2.878740e-04
3.983824e+01	-2.912090e-04
4.006834e+01	-2.945826e-04
4.029978e+01	-2.979953e-04
4.053255e+01	-3.014476e-04
4.076666e+01	-3.049398e-04
4.100213e+01	-3.084725e-04
4.123896e+01	-3.120461e-04
4.147715e+01	-3.156611e-04
4.171672e+01	-3.193180e-04
4.195767e+01	-3.230173e-04
4.220002e+01	-3.267594e-04
4.244377e+01	-3.305448e-04
4.268892e+01	-3.343741e-04
4.293549e+01	-3.382478e-04
4.318348e+01	-3.421663e-04
4.343291e+01	-3.461303e-04
4.368377e+01	-3.501401e-04
4.393609e+01	-3.541964e-04
4.418986e+01	-3.582997e-04
4.444510e+01	-3.624505e-04
4.470182e+01	-3.666495e-04
4.496001e+01	-3.708970e-04
4.521970e+01	-3.751938e-04
4.548089e+01	-3.795403e-04
4.574358e+01	-3.839372e-04
4.600779e+01	-3.883850e-04
4.627353e+01	-3.928844e-04
4.654081e+01	-3.974358e-04
4.680963e+01	-4.020400e-04
4.708000e+01	-4.066975e-04
4.735193e+01	-4.114090e-04
4.762543e+01	-4.161751e-04
4.790051e+01	-4.209964e-04
4.817719e+01	-4.258735e-04
4.845545e+01	-4.308071e-04
4.873533e+01	-4.357979e-04
4.901682e+01	-4.408464e-04
4.929994e+01	-4.459535e-04
4.958470e+01	-4.511197e-04
4.987110e+01	-4.563458e-04
5.015915e+01	-4.616324e-04
5.044887e+01	-4.669803e-04
5.074026e+01	-4.723901e-04
5.103333e+01	-4.778625e-04
5.132810e+01	-4.833984e-04
5.162457e+01	-4.889984e-04
5.192275e+01	-4.946633e-04
5.222265e+01	-5.003937e-04
5.252429e+01	-5.061906e-04
5.282767e+01	-5.120546e-04
5.313280e+01	-5.179865e-04
5.343969e+01	-5.239872e-04
5.374836e+01	-5.300574e-04
5.405880e+01	-5.361978e-04
5.437105e+01	-5.424095e-04
5.468509e+01	-5.486930e-04
5.500095e+01	-5.550494e-04
5.531863e+01	-5.614794e-04
5.563815e+01	-5.679838e-04
5.595951e+01	-5.745636e-04
5.628273e+01	-5.812197e-04
5.660782e+01	-5.879528e-04
5.693479e+01	-5.947639e-04
5.726364e+01	-6.016540e-04
5.759439e+01	-6.086238e-04
5.792705e+01	-6.156744e-04
5.826164e+01	-6.228066e-04
5.859815e+01	-6.300215e-04
5.893662e+01	-6.373199e-04
5.927703e+01	-6.447029e-04
5.961941e+01	-6.521714e-04
5.996377e+01	-6.597264e-04
6.031012e+01	-6.673690e-04
6.065847e+01	-6.751000e-04
6.100883e+01	-6.829206e-04
6.136121e+01	-6.908318e-04
6.171563e+01	-6.988346e-04
6.207210e+01	-7.069302e-04
6.243063e+01	-7.151195e-04
6.279122e+01	-7.234036e-04
6.315390e+01	-7.317838e-04
6.351868e+01	-7.402610e-04
6.388556e+01	-7.488363e-04
6.425456e+01	-7.575111e-04
6.462569e+01	-7.662863e-04
6.499897e+01	-7.751631e-04
6.537440e+01	-7.841428e-04
6.575200e+01	-7.932265e-04
6.613178e+01	-8.024154e-04
6.651375e+01	-8.117107e-04
6.689793e+01	-8.211137e-04
6.728433e+01	-8.306256e-04
6.767297e+01	-8.402477e-04
6.806384e+01	-8.499812e-04
6.845698e+01	-8.598275e-04
6.885238e+01	-8.697879e-04
6.925007e+01	-8.798636e-04
6.965005e+01	-8.900560e-04
7.005235e+01	-9.003665e-04
7.045697e+01	-9.107964e-04
7.086393e+01	-9.213471e-04
7.127323e+01	-9.320200e-04
7.168490e+01	-9.428165e-04
7.209895e+01	-9.537381e-04
7.251539e+01	-9.647862e-04
7.293424e+01	-9.759623e-04
7.335551e+01	-9.872678e-04
7.377920e+01	-9.987042e-04
7.420535e+01	-1.010273e-03
7.463396e+01	-1.021976e-03
7.506504e+01	-1.033815e-03
7.549861e+01	-1.045790e-03
7.593469e+01	-1.057904e-03
7.637328e+01	-1.070159e-03
7.681441e+01	-1.082556e-03
7.725809e+01	-1.095096e-03
7.770433e+01	-1.107781e-03
7.815315e+01	-1.120613e-03
7.860456e+01	-1.133594e-03
7.905857e+01	-1.146725e-03
7.951521e+01	-1.160009e-03
7.997449e+01	-1.173446e-03
8.043642e+01	-1.187039e-03
8.090102e+01	-1.200789e-03
8.136830e+01	-1.214699e-03
8.183828e+01	-1.228769e-03
8.231097e+01	-1.243003e-03
8.278640e+01	-1.257401e-03
8.326457e+01	-1.271967e-03
8.374550e+01	-1.286700e-03
8.422921e+01	-1.301605e-03
8.471572e+01	-1.316682e-03
8.520503e+01	-1.331934e-03
8.569717e+01	-1.347362e-03
8.619215e+01	-1.362969e-03
8.669000e+01	-1.378757e-03
8.719071e+01	-1.394728e-03
8.769432e+01	-1.410884e-03
8.820084e+01	-1.427226e-03
8.871029e+01	-1.443758e-03
8.922267e+01	-1.460482e-03
8.973802e+01	-1.477399e-03
9.025634e+01	-1.494512e-03
9.077766e+01	-1.511824e-03
9.130199e+01	-1.529335e-03
9.182935e+01	-1.547050e-03
9.235975e+01	-1.564970e-03
9.289321e+01	-1.583097e-03
9.342976e+01	-1.601434e-03
9.396941e+01	-1.619984e-03
9.451217e+01	-1.638748e-03
9.505807e+01	-1.657730e-03
9.560712e+01	-1.676932e-03
9.615934e+01	-1.696355e-03
9.671476e+01	-1.716004e-03
9.727338e+01	-1.735881e-03
9.783522e+01	-1.755987e-03
9.840032e+01	-1.776327e-03
9.896867e+01	-1.796902e-03
9.954031e+01	-1.817715e-03
1.001153e+02	-1.838769e-03
1.006935e+02	-1.860067e-03
1.012751e+02	-1.881612e-03
1.018601e+02	-1.903406e-03
1.024484e+02	-1.925453e-03
1.030402e+02	-1.947755e-03
1.036353e+02	-1.970315e-03
1.042339e+02	-1.993136e-03
1.048360e+02	-2.016222e-03
1.054415e+02	-2.039575e-03
1.060505e+02	-2.063198e-03
1.066631e+02	-2.087095e-03
1.072791e+02	-2.111269e-03
1.078988e+02	-2.135722e-03
1.085220e+02	-2.160459e-03
1.091488e+02	-2.185482e-03
1.097793e+02	-2.210795e-03
1.104133e+02	-2.236401e-03
1.110511e+02	-2.262304e-03
1.116925e+02	-2.288506e-03
1.123376e+02	-2.315012e-03
1.129865e+02	-2.341825e-03
1.136391e+02	-2.368948e-03
1.142955e+02	-2.396386e-03
1.149556e+02	-2.424141e-03
1.156196e+02	-2.452217e-03
1.162874e+02	-2.480619e-03
1.169591e+02	-2.509349e-03
1.176347e+02	-2.538412e-03
1.183141e+02	-2.567811e-03
1.189975e+02	-2.597551e-03
1.196848e+02	-2.627635e-03
1.203761e+02	-2.658068e-03
1.210714e+02	-2.688853e-03
1.217707e+02	-2.719994e-03
1.224740e+02	-2.751496e-03
1.231814e+02	-2.783363e-03
1.238929e+02	-2.815598e-03
1.246085e+02	-2.848207e-03
1.253283e+02	-2.881193e-03
1.260522e+02	-2.914561e-03
1.267802e+02	-2.948316e-03
1.275125e+02	-2.982461e-03
1.282490e+02	-3.017002e-03
1.289898e+02	-3.051942e-03
1.297348e+02	-3.087287e-03
1.304842e+02	-3.123041e-03
1.312378e+02	-3.159209e-03
1.319959e+02	-3.195796e-03
1.327583e+02	-3.232806e-03
1.335251e+02	-3.270245e-03
1.342963e+02	-3.308117e-03
1.350720e+02	-3.346428e-03
1.358522e+02	-3.385182e-03
1.366368e+02	-3.424385e-03
1.374260e+02	-3.464041e-03
1.382198e+02	-3.504157e-03
1.390182e+02	-3.544737e-03
1.398211e+02	-3.585787e-03
1.406287e+02	-3.627312e-03
1.414410e+02	-3.669317e-03
1.422579e+02	-3.711809e-03
1.430796e+02	-3.754793e-03
1.439060e+02	-3.798274e-03
1.447372e+02	-3.842258e-03
1.455732e+02	-3.886752e-03
1.464141e+02	-3.931761e-03
1.472597e+02	-3.977290e-03
1.481103e+02	-4.023347e-03
1.489658e+02	-4.069937e-03
1.498262e+02	-4.117065e-03
1.506916e+02	-4.164740e-03
1.515620e+02	-4.212966e-03
1.524374e+02	-4.261750e-03
1.533179e+02	-4.311099e-03
1.542034e+02	-4.361019e-03
1.550941e+02	-4.411517e-03
1.559899e+02	-4.462599e-03
1.568909e+02	-4.514273e-03
1.577971e+02	-4.566544e-03
1.587085e+02	-4.619421e-03
1.596252e+02	-4.672909e-03
1.605472e+02	-4.727016e-03
1.614745e+02	-4.781750e-03
1.624072e+02	-4.837117e-03
1.633453e+02	-4.893125e-03
1.642887e+02	-4.949780e-03
1.652377e+02	-5.007092e-03
1.661921e+02	-5.065066e-03
1.671520e+02	-5.123712e-03
1.681175e+02	-5.183036e-03
1.690885e+02	-5.243046e-03
1.700651e+02	-5.303751e-03
1.710474e+02	-5.365158e-03
1.720354e+02	-5.427276e-03
1.730291e+02	-5.490113e-03
1.740285e+02	-5.553676e-03
1.750337e+02	-5.617975e-03
1.760446e+02	-5.683018e-03
1.770615e+02	-5.748814e-03
1.780842e+02	-5.815371e-03
1.791128e+02	-5.882698e-03
1.801473e+02	-5.950804e-03
1.811878e+02	-6.019697e-03
1.822344e+02	-6.089388e-03
1.832870e+02	-6.159885e-03
1.843456e+02	-6.231198e-03
1.854104e+02	-6.303335e-03
1.864813e+02	-6.376307e-03
1.875584e+02	-6.450123e-03
1.886418e+02	-6.524793e-03
1.897313e+02	-6.600327e-03
1.908272e+02	-6.676735e-03
1.919294e+02	-6.754026e-03
1.930380e+02	-6.832212e-03
1.941530e+02	-6.911301e-03
1.952744e+02	-6.991306e-03
1.964023e+02	-7.072236e-03
1.975367e+02	-7.154102e-03
1.986777e+02	-7.236915e-03
1.998252e+02	-7.320686e-03
2.009794e+02	-7.405425e-03
2.021403e+02	-7.491145e-03
2.033078e+02	-7.577856e-03
2.044821e+02	-7.665569e-03
2.056632e+02	-7.754297e-03
2.068511e+02	-7.844052e-03
2.080459e+02	-7.934844e-03
2.092475e+02	-8.026686e-03
2.104561e+02	-8.119590e-03
2.116717e+02	-8.213568e-03
2.128943e+02	-8.308633e-03
2.141240e+02	-8.404798e-03
2.153608e+02	-8.502074e-03
2.166047e+02	-8.600475e-03
2.178558e+02	-8.700013e-03
2.191141e+02	-8.800703e-03
2.203797e+02	-8.902556e-03
2.216526e+02	-9.005588e-03
2.229329e+02	-9.109810e-03
2.242205e+02	-9.215237e-03
2.255156e+02	-9.321883e-03
2.268182e+02	-9.429762e-03
2.281283e+02	-9.538888e-03
2.294459e+02	-9.649275e-03
2.307712e+02	-9.760938e-03
2.321041e+02	-9.873893e-03
2.334447e+02	-9.988152e-03
2.347931e+02	-1.010373e-02
2.361493e+02	-1.022065e-02
2.375133e+02	-1.033892e-02
2.388851e+02	-1.045855e-02
2.402649e+02	-1.057957e-02
2.416527e+02	-1.070198e-02
2.430484e+02	-1.082581e-02
2.444523e+02	-1.095107e-02
2.458642e+02	-1.107778e-02
2.472843e+02	-1.120596e-02
2.487126e+02	-1.133561e-02
2.501492e+02	-1.146676e-02
2.515940e+02	-1.159943e-02
2.530472e+02	-1.173363e-02
2.545088e+02	-1.186938e-02
2.559789e+02	-1.200670e-02
2.574574e+02	-1.214561e-02
2.589444e+02	-1.228612e-02
2.604401e+02	-1.242825e-02
2.619444e+02	-1.257202e-02
2.634574e+02	-1.271746e-02
2.649791e+02	-1.286458e-02
2.665096e+02	-1.301339e-02
2.680489e+02	-1.316393e-02
2.695972e+02	-1.331620e-02
2.711544e+02	-1.347023e-02
2.727205e+02	-1.362604e-02
2.742958e+02	-1.378365e-02
2.758801e+02	-1.394308e-02
2.774736e+02	-1.410435e-02
2.790762e+02	-1.426749e-02
2.806882e+02	-1.443250e-02
2.823094e+02	-1.459943e-02
2.839400e+02	-1.476828e-02
2.855800e+02	-1.493907e-02
2.872295e+02	-1.511185e-02
2.888886e+02	-1.528661e-02
2.905572e+02	-1.546339e-02
2.922354e+02	-1.564222e-02
2.939234e+02	-1.582311e-02
2.956211e+02	-1.600608e-02
2.973286e+02	-1.619117e-02
2.990459e+02	-1.637839e-02
3.007732e+02	-1.656778e-02
3.025104e+02	-1.675935e-02
3.042577e+02	-1.695313e-02
3.060151e+02	-1.714915e-02
3.077826e+02	-1.734743e-02
3.095604e+02	-1.754799e-02
3.113484e+02	-1.775088e-02
3.131467e+02	-1.795610e-02
3.149554e+02	-1.816369e-02
3.167746e+02	-1.837367e-02
3.186043e+02	-1.858608e-02
3.204445e+02	-1.880094e-02
3.222954e+02	-1.901827e-02
3.241570e+02	-1.923811e-02
3.260293e+02	-1.946049e-02
3.279124e+02	-1.968543e-02
3.298064e+02	-1.991297e-02
3.317114e+02	-2.014313e-02
3.336273e+02	-2.037594e-02
3.355544e+02	-2.061144e-02
3.374925e+02	-2.084966e-02
3.394418e+02	-2.109062e-02
3.414024e+02	-2.133436e-02
3.433744e+02	-2.158090e-02
3.453577e+02	-2.183029e-02
3.473525e+02	-2.208256e-02
3.493588e+02	-2.233773e-02
3.513766e+02	-2.259584e-02
3.534062e+02	-2.285693e-02
3.554474e+02	-2.312103e-02
3.575005e+02	-2.338817e-02
3.595654e+02	-2.365839e-02
3.616422e+02	-2.393172e-02
3.637311e+02	-2.420820e-02
3.658320e+02	-2.448786e-02
3.679450e+02	-2.477075e-02
3.700702e+02	-2.505689e-02
3.722077e+02	-2.534634e-02
3.743576e+02	-2.563911e-02
3.765199e+02	-2.593526e-02
3.786946e+02	-2.623481e-02
3.808820e+02	-2.653782e-02
3.830819e+02	-2.684431e-02
3.852946e+02	-2.715434e-02
3.875200e+02	-2.746793e-02
3.897583e+02	-2.778513e-02
3.920096e+02	-2.810599e-02
3.942738e+02	-2.843053e-02
3.965511e+02	-2.875881e-02
3.988416e+02	-2.909087e-02
4.011452e+02	-2.942675e-02
4.034622e+02	-2.976650e-02
4.057926e+02	-3.011015e-02
4.081365e+02	-3.045776e-02
4.104938e+02	-3.080937e-02
4.128648e+02	-3.116502e-02
4.152495e+02	-3.152476e-02
4.176480e+02	-3.188864e-02
4.200603e+02	-3.225670e-02
4.224866e+02	-3.262900e-02
4.249268e+02	-3.300557e-02
4.273812e+02	-3.338648e-02
4.298497e+02	-3.377176e-02
4.323325e+02	-3.416147e-02
4.348297e+02	-3.455566e-02
4.373412e+02	-3.495438e-02
4.398673e+02	-3.535769e-02
4.424079e+02	-3.576563e-02
4.449633e+02	-3.617825e-02
4.475334e+02	-3.659561e-02
4.501183e+02	-3.701777e-02
4.527182e+02	-3.744478e-02
4.553330e+02	-3.787669e-02
4.579630e+02	-3.831357e-02
4.606082e+02	-3.875545e-02
4.632687e+02	-3.920241e-02
4.659445e+02	-3.965451e-02
4.686358e+02	-4.011179e-02
4.713426e+02	-4.057432e-02
4.740650e+02	-4.104216e-02
4.768032e+02	-4.151537e-02
4.795572e+02	-4.199400e-02
4.823271e+02	-4.247813e-02
4.851130e+02	-4.296781e-02
4.879150e+02	-4.346311e-02
4.907332e+02	-4.396409e-02
4.935676e+02	-4.447081e-02
4.964185e+02	-4.498335e-02
4.992858e+02	-4.550176e-02
5.021696e+02	-4.602611e-02
5.050701e+02	-4.655647e-02
5.079874e+02	-4.709291e-02
5.109215e+02	-4.763550e-02
5.138726e+02	-4.818430e-02
5.168407e+02	-4.873939e-02
5.198259e+02	-4.930084e-02
5.228284e+02	-4.986872e-02
5.258482e+02	-5.044310e-02
5.288855e+02	-5.102406e-02
5.319403e+02	-5.161167e-02
5.350128e+02	-5.220601e-02
5.381030e+02	-5.280715e-02
5.412111e+02	-5.341517e-02
5.443371e+02	-5.403014e-02
5.474812e+02	-5.465215e-02
5.506434e+02	-5.528128e-02
5.538239e+02	-5.591760e-02
5.570228e+02	-5.656120e-02
5.602401e+02	-5.721216e-02
5.634760e+02	-5.787056e-02
5.667306e+02	-5.853648e-02
5.700040e+02	-5.921001e-02
5.732964e+02	-5.989125e-02
5.766077e+02	-6.058026e-02
5.799382e+02	-6.127714e-02
5.832879e+02	-6.198199e-02
5.866569e+02	-6.269488e-02
5.900454e+02	-6.341591e-02
5.934535e+02	-6.414517e-02
5.968813e+02	-6.488276e-02
6.003288e+02	-6.562876e-02
6.037963e+02	-6.638328e-02
6.072838e+02	-6.714640e-02
6.107914e+02	-6.791823e-02
6.143194e+02	-6.869885e-02
6.178676e+02	-6.948838e-02
6.214364e+02	-7.028691e-02
6.250258e+02	-7.109454e-02
6.286359e+02	-7.191137e-02
6.322669e+02	-7.273751e-02
6.359189e+02	-7.357306e-02
6.395919e+02	-7.441812e-02
6.432862e+02	-7.527280e-02
6.470017e+02	-7.613722e-02
6.507388e+02	-7.701147e-02
6.544974e+02	-7.789568e-02
6.582778e+02	-7.878994e-02
6.620800e+02	-7.969437e-02
6.659041e+02	-8.060909e-02
6.697504e+02	-8.153421e-02
6.736188e+02	-8.246985e-02
6.775096e+02	-8.341612e-02
6.814229e+02	-8.437314e-02
6.853587e+02	-8.534103e-02
6.893173e+02	-8.631992e-02
6.932988e+02	-8.730992e-02
6.973033e+02	-8.831116e-02
7.013309e+02	-8.932376e-02
