Frequency(Hz)	Magnitude(dB)
1.000000e+01	-2.136377e+00
1.005776e+01	-2.156060e+00
1.011585e+01	-2.175625e+00
1.017428e+01	-2.195296e+00
1.023305e+01	-2.215281e+00
1.029215e+01	-2.235234e+00
1.035160e+01	-2.255621e+00
1.041139e+01	-2.275917e+00
1.047153e+01	-2.296372e+00
1.053201e+01	-2.316869e+00
1.059284e+01	-2.337612e+00
1.065403e+01	-2.358563e+00
1.071556e+01	-2.379536e+00
1.077746e+01	-2.400739e+00
1.083971e+01	-2.422140e+00
1.090232e+01	-2.443721e+00
1.096529e+01	-2.465134e+00
1.102862e+01	-2.487020e+00
1.109232e+01	-2.508765e+00
1.115639e+01	-2.530753e+00
1.122083e+01	-2.553017e+00
1.128564e+01	-2.575350e+00
1.135083e+01	-2.597766e+00
1.141639e+01	-2.620343e+00
1.148233e+01	-2.643079e+00
1.154865e+01	-2.665866e+00
1.161536e+01	-2.688807e+00
1.168245e+01	-2.712083e+00
1.174992e+01	-2.735565e+00
1.181779e+01	-2.758822e+00
1.188605e+01	-2.782401e+00
1.195470e+01	-2.806172e+00
1.202375e+01	-2.829896e+00
1.209320e+01	-2.854175e+00
1.216305e+01	-2.878309e+00
1.223330e+01	-2.902553e+00
1.230396e+01	-2.926766e+00
1.237503e+01	-2.951834e+00
1.244651e+01	-2.976401e+00
1.251840e+01	-3.001439e+00
1.259070e+01	-3.026215e+00
1.266343e+01	-3.051613e+00
1.273657e+01	-3.076892e+00
1.281014e+01	-3.102250e+00
1.288413e+01	-3.127844e+00
1.295855e+01	-3.153480e+00
1.303339e+01	-3.179502e+00
1.310867e+01	-3.205653e+00
1.318439e+01	-3.231806e+00
1.326054e+01	-3.258159e+00
1.333713e+01	-3.284705e+00
1.341417e+01	-3.311146e+00
1.349165e+01	-3.337983e+00
1.356958e+01	-3.364782e+00
1.364795e+01	-3.391801e+00
1.372678e+01	-3.419056e+00
1.380607e+01	-3.446586e+00
1.388581e+01	-3.473950e+00
1.396602e+01	-3.501670e+00
1.404668e+01	-3.529180e+00
1.412782e+01	-3.557159e+00
1.420942e+01	-3.585123e+00
1.429149e+01	-3.613291e+00
1.437404e+01	-3.641524e+00
1.445706e+01	-3.670093e+00
1.454057e+01	-3.698468e+00
1.462455e+01	-3.727644e+00
1.470902e+01	-3.756373e+00
1.479398e+01	-3.785310e+00
1.487943e+01	-3.814656e+00
1.496537e+01	-3.843977e+00
1.505181e+01	-3.873563e+00
1.513875e+01	-3.902861e+00
1.522619e+01	-3.932764e+00
1.531414e+01	-3.962668e+00
1.540259e+01	-3.992296e+00
1.549156e+01	-4.022815e+00
1.558103e+01	-4.053127e+00
1.567103e+01	-4.083421e+00
1.576155e+01	-4.114076e+00
1.585258e+01	-4.144649e+00
1.594415e+01	-4.175298e+00
1.603624e+01	-4.206629e+00
1.612886e+01	-4.237441e+00
1.622202e+01	-4.268843e+00
1.631572e+01	-4.299901e+00
1.640996e+01	-4.331607e+00
1.650474e+01	-4.363363e+00
1.660008e+01	-4.394926e+00
1.669596e+01	-4.426872e+00
1.679239e+01	-4.459077e+00
1.688938e+01	-4.491380e+00
1.698694e+01	-4.523548e+00
1.708505e+01	-4.555982e+00
1.718373e+01	-4.588467e+00
1.728299e+01	-4.621313e+00
1.738281e+01	-4.654133e+00
1.748322e+01	-4.687043e+00
1.758420e+01	-4.719959e+00
1.768576e+01	-4.753466e+00
1.778792e+01	-4.786593e+00
1.789066e+01	-4.820168e+00
1.799399e+01	-4.853739e+00
1.809793e+01	-4.887406e+00
1.820246e+01	-4.921026e+00
1.830760e+01	-4.955328e+00
1.841334e+01	-4.989353e+00
1.851969e+01	-5.023549e+00
1.862666e+01	-5.058109e+00
1.873425e+01	-5.092407e+00
1.884246e+01	-5.127067e+00
1.895129e+01	-5.161963e+00
1.906075e+01	-5.196495e+00
1.917085e+01	-5.231392e+00
1.928158e+01	-5.266666e+00
1.939295e+01	-5.301847e+00
1.950496e+01	-5.337377e+00
1.961762e+01	-5.372602e+00
1.973093e+01	-5.408230e+00
1.984490e+01	-5.443932e+00
1.995952e+01	-5.479547e+00
2.007480e+01	-5.515673e+00
2.019076e+01	-5.551608e+00
2.030738e+01	-5.587618e+00
2.042467e+01	-5.623813e+00
2.054264e+01	-5.660520e+00
2.066130e+01	-5.696783e+00
2.078064e+01	-5.733504e+00
2.090066e+01	-5.770134e+00
2.102139e+01	-5.807375e+00
2.114280e+01	-5.843978e+00
2.126492e+01	-5.881270e+00
2.138775e+01	-5.918013e+00
2.151128e+01	-5.955194e+00
2.163553e+01	-5.992867e+00
2.176050e+01	-6.030305e+00
2.188619e+01	-6.068175e+00
2.201260e+01	-6.105833e+00
2.213974e+01	-6.143933e+00
2.226762e+01	-6.181534e+00
2.239624e+01	-6.219291e+00
2.252560e+01	-6.257676e+00
2.265571e+01	-6.295615e+00
2.278656e+01	-6.334401e+00
2.291818e+01	-6.373168e+00
2.305055e+01	-6.411322e+00
2.318369e+01	-6.450057e+00
2.331760e+01	-6.488439e+00
2.345228e+01	-6.527396e+00
2.358774e+01	-6.566667e+00
2.372398e+01	-6.605520e+00
2.386101e+01	-6.644565e+00
2.399883e+01	-6.683970e+00
2.413745e+01	-6.723337e+00
2.427686e+01	-6.762539e+00
2.441709e+01	-6.801900e+00
2.455812e+01	-6.841882e+00
2.469997e+01	-6.881449e+00
2.484263e+01	-6.921165e+00
2.498612e+01	-6.961436e+00
2.513044e+01	-7.001148e+00
2.527559e+01	-7.040897e+00
2.542158e+01	-7.081293e+00
2.556842e+01	-7.121576e+00
2.571610e+01	-7.162117e+00
2.586463e+01	-7.202797e+00
2.601403e+01	-7.243178e+00
2.616428e+01	-7.283723e+00
2.631541e+01	-7.324429e+00
2.646740e+01	-7.365291e+00
2.662028e+01	-7.405864e+00
2.677404e+01	-7.446876e+00
2.692868e+01	-7.488086e+00
2.708422e+01	-7.529571e+00
2.724066e+01	-7.570475e+00
2.739800e+01	-7.611881e+00
2.755625e+01	-7.653284e+00
2.771541e+01	-7.694235e+00
2.787550e+01	-7.736322e+00
2.803650e+01	-7.777965e+00
2.819844e+01	-7.819692e+00
2.836131e+01	-7.861605e+00
2.852513e+01	-7.903624e+00
2.868989e+01	-7.945485e+00
2.885560e+01	-7.987321e+00
2.902227e+01	-8.029824e+00
2.918990e+01	-8.071717e+00
2.935850e+01	-8.114069e+00
2.952807e+01	-8.156352e+00
2.969863e+01	-8.198850e+00
2.987016e+01	-8.241534e+00
3.004269e+01	-8.283634e+00
3.021622e+01	-8.326481e+00
3.039075e+01	-8.369483e+00
3.056628e+01	-8.411703e+00
3.074283e+01	-8.454575e+00
3.092040e+01	-8.497992e+00
3.109900e+01	-8.540529e+00
3.127862e+01	-8.583906e+00
3.145929e+01	-8.626678e+00
3.164099e+01	-8.669953e+00
3.182375e+01	-8.713193e+00
3.200756e+01	-8.756675e+00
3.219244e+01	-8.799785e+00
3.237838e+01	-8.843264e+00
3.256540e+01	-8.886942e+00
3.275349e+01	-8.930541e+00
3.294268e+01	-8.974223e+00
3.313295e+01	-9.018237e+00
3.332433e+01	-9.062007e+00
3.351681e+01	-9.105764e+00
3.371040e+01	-9.149379e+00
3.390511e+01	-9.193628e+00
3.410094e+01	-9.237351e+00
3.429791e+01	-9.281605e+00
3.449601e+01	-9.325963e+00
3.469526e+01	-9.369705e+00
3.489566e+01	-9.414720e+00
3.509721e+01	-9.458551e+00
3.529993e+01	-9.502780e+00
3.550382e+01	-9.547627e+00
3.570889e+01	-9.591994e+00
3.591515e+01	-9.636623e+00
3.612259e+01	-9.681488e+00
3.633123e+01	-9.726084e+00
3.654108e+01	-9.769880e+00
3.675214e+01	-9.815692e+00
3.696442e+01	-9.860609e+00
3.717792e+01	-9.904974e+00
3.739266e+01	-9.950205e+00
3.760864e+01	-9.995289e+00
3.782587e+01	-1.003979e+01
3.804435e+01	-1.008510e+01
3.826409e+01	-1.013032e+01
3.848510e+01	-1.017523e+01
3.870739e+01	-1.022067e+01
3.893096e+01	-1.026608e+01
3.915583e+01	-1.031130e+01
3.938199e+01	-1.035663e+01
3.960946e+01	-1.040208e+01
3.983824e+01	-1.044769e+01
4.006834e+01	-1.049313e+01
4.029978e+01	-1.053883e+01
4.053255e+01	-1.058462e+01
4.076666e+01	-1.063027e+01
4.100213e+01	-1.067594e+01
4.123896e+01	-1.072156e+01
4.147715e+01	-1.076730e+01
4.171672e+01	-1.081366e+01
4.195767e+01	-1.085932e+01
4.220002e+01	-1.090484e+01
4.244377e+01	-1.095096e+01
4.268892e+01	-1.099700e+01
4.293549e+01	-1.104265e+01
4.318348e+01	-1.108959e+01
4.343291e+01	-1.113547e+01
4.368377e+01	-1.118171e+01
4.393609e+01	-1.122767e+01
4.418986e+01	-1.127428e+01
4.444510e+01	-1.131985e+01
4.470182e+01	-1.136679e+01
4.496001e+01	-1.141345e+01
4.521970e+01	-1.145975e+01
4.548089e+01	-1.150624e+01
4.574358e+01	-1.155238e+01
4.600779e+01	-1.159850e+01
4.627353e+01	-1.164576e+01
4.654081e+01	-1.169207e+01
4.680963e+01	-1.173988e+01
4.708000e+01	-1.178613e+01
4.735193e+01	-1.183233e+01
4.762543e+01	-1.187954e+01
4.790051e+01	-1.192600e+01
4.817719e+01	-1.197292e+01
4.845545e+01	-1.201960e+01
4.873533e+01	-1.206614e+01
4.901682e+01	-1.211330e+01
4.929994e+01	-1.216052e+01
4.958470e+01	-1.220802e+01
4.987110e+01	-1.225461e+01
5.015915e+01	-1.230164e+01
5.044887e+01	-1.234888e+01
5.074026e+01	-1.239489e+01
5.103333e+01	-1.244325e+01
5.132810e+01	-1.249054e+01
5.162457e+01	-1.253713e+01
5.192275e+01	-1.258533e+01
5.222265e+01	-1.263260e+01
5.252429e+01	-1.267905e+01
5.282767e+01	-1.272663e+01
5.313280e+01	-1.277350e+01
5.343969e+01	-1.282166e+01
5.374836e+01	-1.286862e+01
5.405880e+01	-1.291591e+01
5.437105e+01	-1.296415e+01
5.468509e+01	-1.301064e+01
5.500095e+01	-1.305888e+01
5.531863e+01	-1.310568e+01
5.563815e+01	-1.315371e+01
5.595951e+01	-1.320171e+01
5.628273e+01	-1.324868e+01
5.660782e+01	-1.329642e+01
5.693479e+01	-1.334439e+01
5.726364e+01	-1.339195e+01
5.759439e+01	-1.343944e+01
5.792705e+01	-1.348763e+01
5.826164e+01	-1.353662e+01
5.859815e+01	-1.358354e+01
5.893662e+01	-1.363094e+01
5.927703e+01	-1.367924e+01
5.961941e+01	-1.372655e+01
5.996377e+01	-1.377535e+01
6.031012e+01	-1.382305e+01
6.065847e+01	-1.387200e+01
6.100883e+01	-1.391916e+01
6.136121e+01	-1.396708e+01
6.171563e+01	-1.401474e+01
6.207210e+01	-1.406206e+01
6.243063e+01	-1.411083e+01
6.279122e+01	-1.415886e+01
6.315390e+01	-1.420744e+01
6.351868e+01	-1.425463e+01
6.388556e+01	-1.430339e+01
6.425456e+01	-1.435127e+01
6.462569e+01	-1.439986e+01
6.499897e+01	-1.444822e+01
6.537440e+01	-1.449583e+01
6.575200e+01	-1.454510e+01
6.613178e+01	-1.459309e+01
6.651375e+01	-1.464170e+01
6.689793e+01	-1.468992e+01
6.728433e+01	-1.473782e+01
6.767297e+01	-1.478577e+01
6.806384e+01	-1.483499e+01
6.845698e+01	-1.488291e+01
6.885238e+01	-1.493150e+01
6.925007e+01	-1.497914e+01
6.965005e+01	-1.502882e+01
7.005235e+01	-1.507817e+01
7.045697e+01	-1.512589e+01
7.086393e+01	-1.517367e+01
7.127323e+01	-1.522219e+01
7.168490e+01	-1.527113e+01
7.209895e+01	-1.531966e+01
7.251539e+01	-1.536870e+01
7.293424e+01	-1.541614e+01
7.335551e+01	-1.546525e+01
7.377920e+01	-1.551344e+01
7.420535e+01	-1.556249e+01
7.463396e+01	-1.561177e+01
7.506504e+01	-1.566008e+01
7.549861e+01	-1.570812e+01
7.593469e+01	-1.575709e+01
7.637328e+01	-1.580561e+01
7.681441e+01	-1.585445e+01
7.725809e+01	-1.590400e+01
7.770433e+01	-1.595245e+01
7.815315e+01	-1.600150e+01
7.860456e+01	-1.605016e+01
7.905857e+01	-1.609729e+01
7.951521e+01	-1.614698e+01
7.997449e+01	-1.619586e+01
8.043642e+01	-1.624424e+01
8.090102e+01	-1.629428e+01
8.136830e+01	-1.634185e+01
8.183828e+01	-1.639157e+01
8.231097e+01	-1.644039e+01
8.278640e+01	-1.648960e+01
8.326457e+01	-1.653920e+01
8.374550e+01	-1.658699e+01
8.422921e+01	-1.663603e+01
8.471572e+01	-1.668542e+01
8.520503e+01	-1.673421e+01
8.569717e+01	-1.678319e+01
8.619215e+01	-1.683130e+01
8.669000e+01	-1.688091e+01
8.719071e+01	-1.693007e+01
8.769432e+01	-1.697956e+01
8.820084e+01	-1.702768e+01
8.871029e+01	-1.707726e+01
8.922267e+01	-1.712561e+01
8.973802e+01	-1.717531e+01
9.025634e+01	-1.722384e+01
9.077766e+01	-1.727462e+01
9.130199e+01	-1.732115e+01
9.182935e+01	-1.737144e+01
9.235975e+01	-1.741994e+01
9.289321e+01	-1.746989e+01
9.342976e+01	-1.751845e+01
9.396941e+01	-1.756762e+01
9.451217e+01	-1.761729e+01
9.505807e+01	-1.766696e+01
9.560712e+01	-1.771550e+01
9.615934e+01	-1.776419e+01
9.671476e+01	-1.781366e+01
9.727338e+01	-1.786230e+01
9.783522e+01	-1.791213e+01
9.840032e+01	-1.796068e+01
9.896867e+01	-1.801200e+01
9.954031e+01	-1.805996e+01
1.001153e+02	-1.810902e+01
1.006935e+02	-1.815759e+01
1.012751e+02	-1.820759e+01
1.018601e+02	-1.825710e+01
1.024484e+02	-1.830421e+01
1.030402e+02	-1.835619e+01
1.036353e+02	-1.840463e+01
1.042339e+02	-1.845443e+01
1.048360e+02	-1.850297e+01
1.054415e+02	-1.855280e+01
1.060505e+02	-1.860258e+01
1.066631e+02	-1.865166e+01
1.072791e+02	-1.869991e+01
1.078988e+02	-1.875020e+01
1.085220e+02	-1.880085e+01
1.091488e+02	-1.884893e+01
1.097793e+02	-1.889852e+01
1.104133e+02	-1.894764e+01
1.110511e+02	-1.899639e+01
1.116925e+02	-1.904633e+01
1.123376e+02	-1.909737e+01
1.129865e+02	-1.914608e+01
1.136391e+02	-1.919526e+01
1.142955e+02	-1.924547e+01
1.149556e+02	-1.929503e+01
1.156196e+02	-1.934350e+01
1.162874e+02	-1.939299e+01
1.169591e+02	-1.944253e+01
1.176347e+02	-1.949394e+01
1.183141e+02	-1.954045e+01
1.189975e+02	-1.959118e+01
1.196848e+02	-1.964039e+01
1.203761e+02	-1.968962e+01
1.210714e+02	-1.973858e+01
1.217707e+02	-1.978990e+01
1.224740e+02	-1.984003e+01
1.231814e+02	-1.988879e+01
1.238929e+02	-1.993568e+01
1.246085e+02	-1.998536e+01
1.253283e+02	-2.003599e+01
1.260522e+02	-2.008549e+01
1.267802e+02	-2.013573e+01
1.275125e+02	-2.018380e+01
1.282490e+02	-2.023451e+01
1.289898e+02	-2.028305e+01
1.297348e+02	-2.033393e+01
1.304842e+02	-2.038369e+01
1.312378e+02	-2.043254e+01
1.319959e+02	-2.048057e+01
1.327583e+02	-2.053276e+01
1.335251e+02	-2.058117e+01
1.342963e+02	-2.063139e+01
1.350720e+02	-2.068028e+01
1.358522e+02	-2.073132e+01
1.366368e+02	-2.077800e+01
1.374260e+02	-2.082825e+01
1.382198e+02	-2.087855e+01
1.390182e+02	-2.092809e+01
1.398211e+02	-2.097986e+01
1.406287e+02	-2.102863e+01
1.414410e+02	-2.107815e+01
1.422579e+02	-2.112794e+01
1.430796e+02	-2.117449e+01
1.439060e+02	-2.122760e+01
1.447372e+02	-2.127652e+01
1.455732e+02	-2.132790e+01
1.464141e+02	-2.137643e+01
1.472597e+02	-2.142537e+01
1.481103e+02	-2.147554e+01
1.489658e+02	-2.152497e+01
1.498262e+02	-2.157523e+01
1.506916e+02	-2.162418e+01
1.515620e+02	-2.167372e+01
1.524374e+02	-2.172467e+01
1.533179e+02	-2.177234e+01
1.542034e+02	-2.182329e+01
1.550941e+02	-2.187209e+01
1.559899e+02	-2.192344e+01
1.568909e+02	-2.197071e+01
1.577971e+02	-2.202234e+01
1.587085e+02	-2.207162e+01
1.596252e+02	-2.212149e+01
1.605472e+02	-2.217007e+01
1.614745e+02	-2.222076e+01
1.624072e+02	-2.227137e+01
1.633453e+02	-2.231801e+01
1.642887e+02	-2.236905e+01
1.652377e+02	-2.242019e+01
1.661921e+02	-2.246855e+01
1.671520e+02	-2.251913e+01
1.681175e+02	-2.256744e+01
1.690885e+02	-2.261993e+01
1.700651e+02	-2.266940e+01
1.710474e+02	-2.271898e+01
1.720354e+02	-2.276732e+01
1.730291e+02	-2.281947e+01
1.740285e+02	-2.287121e+01
1.750337e+02	-2.291942e+01
1.760446e+02	-2.296732e+01
1.770615e+02	-2.301543e+01
1.780842e+02	-2.306683e+01
1.791128e+02	-2.311744e+01
1.801473e+02	-2.316781e+01
1.811878e+02	-2.321641e+01
1.822344e+02	-2.326656e+01
1.832870e+02	-2.331585e+01
1.843456e+02	-2.336695e+01
1.854104e+02	-2.341773e+01
1.864813e+02	-2.346459e+01
1.875584e+02	-2.351375e+01
1.886418e+02	-2.356445e+01
1.897313e+02	-2.361620e+01
1.908272e+02	-2.366434e+01
1.919294e+02	-2.371559e+01
1.930380e+02	-2.376332e+01
1.941530e+02	-2.381562e+01
1.952744e+02	-2.386509e+01
1.964023e+02	-2.391222e+01
1.975367e+02	-2.396312e+01
1.986777e+02	-2.401631e+01
1.998252e+02	-2.406332e+01
2.009794e+02	-2.411517e+01
2.021403e+02	-2.416473e+01
2.033078e+02	-2.421207e+01
2.044821e+02	-2.426307e+01
2.056632e+02	-2.431295e+01
2.068511e+02	-2.436355e+01
2.080459e+02	-2.441255e+01
2.092475e+02	-2.446170e+01
2.104561e+02	-2.451137e+01
2.116717e+02	-2.456122e+01
2.128943e+02	-2.460999e+01
2.141240e+02	-2.466206e+01
2.153608e+02	-2.471252e+01
2.166047e+02	-2.475998e+01
2.178558e+02	-2.481403e+01
2.191141e+02	-2.486153e+01
2.203797e+02	-2.491233e+01
2.216526e+02	-2.496274e+01
2.229329e+02	-2.501202e+01
2.242205e+02	-2.506120e+01
2.255156e+02	-2.511037e+01
2.268182e+02	-2.516315e+01
2.281283e+02	-2.520996e+01
2.294459e+02	-2.526144e+01
2.307712e+02	-2.531340e+01
2.321041e+02	-2.536003e+01
2.334447e+02	-2.541233e+01
2.347931e+02	-2.546038e+01
2.361493e+02	-2.551179e+01
2.375133e+02	-2.556191e+01
2.388851e+02	-2.561091e+01
2.402649e+02	-2.565995e+01
2.416527e+02	-2.570979e+01
2.430484e+02	-2.576270e+01
2.444523e+02	-2.580849e+01
2.458642e+02	-2.586205e+01
2.472843e+02	-2.591214e+01
2.487126e+02	-2.596170e+01
2.501492e+02	-2.601102e+01
2.515940e+02	-2.605980e+01
2.530472e+02	-2.610914e+01
2.545088e+02	-2.615958e+01
2.559789e+02	-2.620803e+01
2.574574e+02	-2.626012e+01
2.589444e+02	-2.631363e+01
2.604401e+02	-2.636152e+01
2.619444e+02	-2.640944e+01
2.634574e+02	-2.646168e+01
2.649791e+02	-2.650805e+01
2.665096e+02	-2.656159e+01
2.680489e+02	-2.660902e+01
2.695972e+02	-2.665783e+01
2.711544e+02	-2.670866e+01
2.727205e+02	-2.676050e+01
2.742958e+02	-2.681048e+01
2.758801e+02	-2.685932e+01
2.774736e+02	-2.691002e+01
2.790762e+02	-2.696169e+01
2.806882e+02	-2.701048e+01
2.823094e+02	-2.706016e+01
2.839400e+02	-2.711020e+01
2.855800e+02	-2.715918e+01
2.872295e+02	-2.720806e+01
2.888886e+02	-2.725744e+01
2.905572e+02	-2.730980e+01
2.922354e+02	-2.735782e+01
2.939234e+02	-2.741141e+01
2.956211e+02	-2.745883e+01
2.973286e+02	-2.751069e+01
2.990459e+02	-2.755935e+01
3.007732e+02	-2.761138e+01
3.025104e+02	-2.766108e+01
3.042577e+02	-2.770863e+01
3.060151e+02	-2.776021e+01
3.077826e+02	-2.780944e+01
3.095604e+02	-2.786026e+01
3.113484e+02	-2.790920e+01
3.131467e+02	-2.796291e+01
3.149554e+02	-2.800708e+01
3.167746e+02	-2.806025e+01
3.186043e+02	-2.811310e+01
3.204445e+02	-2.815968e+01
3.222954e+02	-2.821227e+01
3.241570e+02	-2.825993e+01
3.260293e+02	-2.831275e+01
3.279124e+02	-2.835945e+01
3.298064e+02	-2.841341e+01
3.317114e+02	-2.846011e+01
3.336273e+02	-2.850819e+01
3.355544e+02	-2.855780e+01
3.374925e+02	-2.860887e+01
3.394418e+02	-2.865957e+01
3.414024e+02	-2.870961e+01
3.433744e+02	-2.876305e+01
3.453577e+02	-2.881152e+01
3.473525e+02	-2.885990e+01
3.493588e+02	-2.891251e+01
3.513766e+02	-2.895888e+01
3.534062e+02	-2.901396e+01
3.554474e+02	-2.906172e+01
3.575005e+02	-2.911107e+01
3.595654e+02	-2.916100e+01
3.616422e+02	-2.920756e+01
3.637311e+02	-2.926486e+01
3.658320e+02	-2.931068e+01
3.679450e+02	-2.935624e+01
3.700702e+02	-2.940609e+01
3.722077e+02	-2.946091e+01
3.743576e+02	-2.951623e+01
3.765199e+02	-2.956137e+01
3.786946e+02	-2.961716e+01
3.808820e+02	-2.966405e+01
3.830819e+02	-2.970833e+01
3.852946e+02	-2.976081e+01
3.875200e+02	-2.981287e+01
3.897583e+02	-2.986427e+01
3.920096e+02	-2.991238e+01
3.942738e+02	-2.996143e+01
3.965511e+02	-3.001175e+01
3.988416e+02	-3.006043e+01
4.011452e+02	-3.011370e+01
4.034622e+02	-3.016347e+01
4.057926e+02	-3.021189e+01
4.081365e+02	-3.026394e+01
4.104938e+02	-3.031674e+01
4.128648e+02	-3.036461e+01
4.152495e+02	-3.040936e+01
4.176480e+02	-3.045850e+01
4.200603e+02	-3.051068e+01
4.224866e+02	-3.056239e+01
4.249268e+02	-3.060935e+01
4.273812e+02	-3.065908e+01
4.298497e+02	-3.071496e+01
4.323325e+02	-3.076615e+01
4.348297e+02	-3.081260e+01
4.373412e+02	-3.086661e+01
4.398673e+02	-3.091644e+01
4.424079e+02	-3.096539e+01
4.449633e+02	-3.101216e+01
4.475334e+02	-3.106347e+01
4.501183e+02	-3.111622e+01
4.527182e+02	-3.116106e+01
4.553330e+02	-3.121570e+01
4.579630e+02	-3.127071e+01
4.606082e+02	-3.131471e+01
4.632687e+02	-3.136155e+01
4.659445e+02	-3.141414e+01
4.686358e+02	-3.147094e+01
4.713426e+02	-3.151405e+01
4.740650e+02	-3.156917e+01
4.768032e+02	-3.161698e+01
4.795572e+02	-3.166713e+01
4.823271e+02	-3.171544e+01
4.851130e+02	-3.176792e+01
4.879150e+02	-3.181139e+01
4.907332e+02	-3.186513e+01
4.935676e+02	-3.191995e+01
4.964185e+02	-3.196767e+01
4.992858e+02	-3.202123e+01
5.021696e+02	-3.207144e+01
5.050701e+02	-3.212196e+01
5.079874e+02	-3.217256e+01
5.109215e+02	-3.221529e+01
5.138726e+02	-3.226804e+01
5.168407e+02	-3.231281e+01
5.198259e+02	-3.237063e+01
5.228284e+02	-3.242286e+01
5.258482e+02	-3.246493e+01
5.288855e+02	-3.251575e+01
5.319403e+02	-3.256810e+01
5.350128e+02	-3.261760e+01
5.381030e+02	-3.267564e+01
5.412111e+02	-3.272312e+01
5.443371e+02	-3.276977e+01
5.474812e+02	-3.282229e+01
5.506434e+02	-3.287269e+01
5.538239e+02	-3.292178e+01
5.570228e+02	-3.296986e+01
5.602401e+02	-3.301748e+01
5.634760e+02	-3.307482e+01
5.667306e+02	-3.311797e+01
5.700040e+02	-3.317462e+01
5.732964e+02	-3.322605e+01
5.766077e+02	-3.327163e+01
5.799382e+02	-3.332767e+01
5.832879e+02	-3.337720e+01
5.866569e+02	-3.342646e+01
5.900454e+02	-3.347261e+01
5.934535e+02	-3.352481e+01
5.968813e+02	-3.356851e+01
6.003288e+02	-3.362850e+01
6.037963e+02	-3.367415e+01
6.072838e+02	-3.372707e+01
6.107914e+02	-3.378199e+01
6.143194e+02	-3.381784e+01
6.178676e+02	-3.386773e+01
6.214364e+02	-3.392985e+01
6.250258e+02	-3.397586e+01
6.286359e+02	-3.402442e+01
6.322669e+02	-3.408015e+01
6.359189e+02	-3.412797e+01
6.395919e+02	-3.418101e+01
6.432862e+02	-3.423310e+01
6.470017e+02	-3.427479e+01
6.507388e+02	-3.433184e+01
6.544974e+02	-3.438510e+01
6.582778e+02	-3.442545e+01
6.620800e+02	-3.447650e+01
6.659041e+02	-3.452810e+01
6.697504e+02	-3.458866e+01
6.736188e+02	-3.462842e+01
6.775096e+02	-3.468052e+01
6.814229e+02	-3.472433e+01
6.853587e+02	-3.478564e+01
6.893173e+02	-3.482425e+01
6.932988e+02	-3.487352e+01
6.973033e+02	-3.492952e+01
7.013309e+02	-3.498547e+01
