Frequency(Hz)	Magnitude(dB)
1.000000e+01	-1.970613e+00
1.005776e+01	-1.989106e+00
1.011585e+01	-2.007588e+00
1.017428e+01	-2.026095e+00
1.023305e+01	-2.044869e+00
1.029215e+01	-2.063582e+00
1.035160e+01	-2.082795e+00
1.041139e+01	-2.101979e+00
1.047153e+01	-2.121043e+00
1.053201e+01	-2.140484e+00
1.059284e+01	-2.160011e+00
1.065403e+01	-2.179797e+00
1.071556e+01	-2.199416e+00
1.077746e+01	-2.219512e+00
1.083971e+01	-2.239569e+00
1.090232e+01	-2.259780e+00
1.096529e+01	-2.280150e+00
1.102862e+01	-2.300750e+00
1.109232e+01	-2.321344e+00
1.115639e+01	-2.342121e+00
1.122083e+01	-2.363050e+00
1.128564e+01	-2.383895e+00
1.135083e+01	-2.405195e+00
1.141639e+01	-2.426508e+00
1.148233e+01	-2.447915e+00
1.154865e+01	-2.469745e+00
1.161536e+01	-2.491558e+00
1.168245e+01	-2.513329e+00
1.174992e+01	-2.535516e+00
1.181779e+01	-2.557558e+00
1.188605e+01	-2.579864e+00
1.195470e+01	-2.602383e+00
1.202375e+01	-2.624951e+00
1.209320e+01	-2.647926e+00
1.216305e+01	-2.670729e+00
1.223330e+01	-2.693925e+00
1.230396e+01	-2.717133e+00
1.237503e+01	-2.740222e+00
1.244651e+01	-2.763797e+00
1.251840e+01	-2.787550e+00
1.259070e+01	-2.811181e+00
1.266343e+01	-2.835083e+00
1.273657e+01	-2.859240e+00
1.281014e+01	-2.883357e+00
1.288413e+01	-2.907586e+00
1.295855e+01	-2.932159e+00
1.303339e+01	-2.956987e+00
1.310867e+01	-2.981594e+00
1.318439e+01	-3.006584e+00
1.326054e+01	-3.031450e+00
1.333713e+01	-3.056635e+00
1.341417e+01	-3.081837e+00
1.349165e+01	-3.107484e+00
1.356958e+01	-3.133491e+00
1.364795e+01	-3.159067e+00
1.372678e+01	-3.185122e+00
1.380607e+01	-3.210965e+00
1.388581e+01	-3.237388e+00
1.396602e+01	-3.263496e+00
1.404668e+01	-3.289993e+00
1.412782e+01	-3.316727e+00
1.420942e+01	-3.343550e+00
1.429149e+01	-3.370553e+00
1.437404e+01	-3.397466e+00
1.445706e+01	-3.424783e+00
1.454057e+01	-3.452298e+00
1.462455e+01	-3.479520e+00
1.470902e+01	-3.507267e+00
1.479398e+01	-3.534814e+00
1.487943e+01	-3.562871e+00
1.496537e+01	-3.591085e+00
1.505181e+01	-3.619311e+00
1.513875e+01	-3.647634e+00
1.522619e+01	-3.676275e+00
1.531414e+01	-3.704539e+00
1.540259e+01	-3.733588e+00
1.549156e+01	-3.762440e+00
1.558103e+01	-3.791430e+00
1.567103e+01	-3.820728e+00
1.576155e+01	-3.850090e+00
1.585258e+01	-3.879355e+00
1.594415e+01	-3.909359e+00
1.603624e+01	-3.938869e+00
1.612886e+01	-3.968844e+00
1.622202e+01	-3.998693e+00
1.631572e+01	-4.028933e+00
1.640996e+01	-4.059238e+00
1.650474e+01	-4.089608e+00
1.660008e+01	-4.120396e+00
1.669596e+01	-4.150846e+00
1.679239e+01	-4.182101e+00
1.688938e+01	-4.212845e+00
1.698694e+01	-4.244121e+00
1.708505e+01	-4.275225e+00
1.718373e+01	-4.306886e+00
1.728299e+01	-4.338402e+00
1.738281e+01	-4.370016e+00
1.748322e+01	-4.401971e+00
1.758420e+01	-4.433683e+00
1.768576e+01	-4.465675e+00
1.778792e+01	-4.497872e+00
1.789066e+01	-4.530631e+00
1.799399e+01	-4.562701e+00
1.809793e+01	-4.595335e+00
1.820246e+01	-4.627865e+00
1.830760e+01	-4.660978e+00
1.841334e+01	-4.693721e+00
1.851969e+01	-4.726868e+00
1.862666e+01	-4.760112e+00
1.873425e+01	-4.793540e+00
1.884246e+01	-4.827174e+00
1.895129e+01	-4.860698e+00
1.906075e+01	-4.894429e+00
1.917085e+01	-4.928189e+00
1.928158e+01	-4.962545e+00
1.939295e+01	-4.996625e+00
1.950496e+01	-5.030586e+00
1.961762e+01	-5.065148e+00
1.973093e+01	-5.099592e+00
1.984490e+01	-5.134196e+00
1.995952e+01	-5.169232e+00
2.007480e+01	-5.204015e+00
2.019076e+01	-5.239054e+00
2.030738e+01	-5.274148e+00
2.042467e+01	-5.309564e+00
2.054264e+01	-5.344527e+00
2.066130e+01	-5.379950e+00
2.078064e+01	-5.415280e+00
2.090066e+01	-5.451134e+00
2.102139e+01	-5.487248e+00
2.114280e+01	-5.522940e+00
2.126492e+01	-5.559158e+00
2.138775e+01	-5.595473e+00
2.151128e+01	-5.631975e+00
2.163553e+01	-5.667902e+00
2.176050e+01	-5.704710e+00
2.188619e+01	-5.741405e+00
2.201260e+01	-5.778199e+00
2.213974e+01	-5.815040e+00
2.226762e+01	-5.851676e+00
2.239624e+01	-5.888913e+00
2.252560e+01	-5.925944e+00
2.265571e+01	-5.963755e+00
2.278656e+01	-6.000750e+00
2.291818e+01	-6.038307e+00
2.305055e+01	-6.076062e+00
2.318369e+01	-6.113919e+00
2.331760e+01	-6.151641e+00
2.345228e+01	-6.189643e+00
2.358774e+01	-6.227210e+00
2.372398e+01	-6.265900e+00
2.386101e+01	-6.303989e+00
2.399883e+01	-6.341895e+00
2.413745e+01	-6.380839e+00
2.427686e+01	-6.419203e+00
2.441709e+01	-6.457835e+00
2.455812e+01	-6.496857e+00
2.469997e+01	-6.535683e+00
2.484263e+01	-6.574761e+00
2.498612e+01	-6.613889e+00
2.513044e+01	-6.652866e+00
2.527559e+01	-6.692161e+00
2.542158e+01	-6.731312e+00
2.556842e+01	-6.770957e+00
2.571610e+01	-6.810397e+00
2.586463e+01	-6.849864e+00
2.601403e+01	-6.889770e+00
2.616428e+01	-6.929648e+00
2.631541e+01	-6.969722e+00
2.646740e+01	-7.009279e+00
2.662028e+01	-7.049651e+00
2.677404e+01	-7.089767e+00
2.692868e+01	-7.130385e+00
2.708422e+01	-7.170375e+00
2.724066e+01	-7.211072e+00
2.739800e+01	-7.251550e+00
2.755625e+01	-7.292170e+00
2.771541e+01	-7.333142e+00
2.787550e+01	-7.374015e+00
2.803650e+01	-7.414846e+00
2.819844e+01	-7.456112e+00
2.836131e+01	-7.496948e+00
2.852513e+01	-7.537769e+00
2.868989e+01	-7.578946e+00
2.885560e+01	-7.620504e+00
2.902227e+01	-7.661930e+00
2.918990e+01	-7.703763e+00
2.935850e+01	-7.744973e+00
2.952807e+01	-7.786595e+00
2.969863e+01	-7.828395e+00
2.987016e+01	-7.870369e+00
3.004269e+01	-7.912476e+00
3.021622e+01	-7.953769e+00
3.039075e+01	-7.996285e+00
3.056628e+01	-8.038165e+00
3.074283e+01	-8.080444e+00
3.092040e+01	-8.122380e+00
3.109900e+01	-8.165144e+00
3.127862e+01	-8.207589e+00
3.145929e+01	-8.249774e+00
3.164099e+01	-8.292791e+00
3.182375e+01	-8.335668e+00
3.200756e+01	-8.378670e+00
3.219244e+01	-8.420615e+00
3.237838e+01	-8.463596e+00
3.256540e+01	-8.506224e+00
3.275349e+01	-8.549455e+00
3.294268e+01	-8.592834e+00
3.313295e+01	-8.635710e+00
3.332433e+01	-8.678934e+00
3.351681e+01	-8.722486e+00
3.371040e+01	-8.765699e+00
3.390511e+01	-8.809075e+00
3.410094e+01	-8.852070e+00
3.429791e+01	-8.896243e+00
3.449601e+01	-8.939390e+00
3.469526e+01	-8.983517e+00
3.489566e+01	-9.026833e+00
3.509721e+01	-9.070664e+00
3.529993e+01	-9.114598e+00
3.550382e+01	-9.158815e+00
3.570889e+01	-9.202894e+00
3.591515e+01	-9.246744e+00
3.612259e+01	-9.290942e+00
3.633123e+01	-9.335015e+00
3.654108e+01	-9.379628e+00
3.675214e+01	-9.423602e+00
3.696442e+01	-9.467722e+00
3.717792e+01	-9.512278e+00
3.739266e+01	-9.557116e+00
3.760864e+01	-9.600754e+00
3.782587e+01	-9.645640e+00
3.804435e+01	-9.690374e+00
3.826409e+01	-9.735049e+00
3.848510e+01	-9.779944e+00
3.870739e+01	-9.824798e+00
3.893096e+01	-9.869333e+00
3.915583e+01	-9.914436e+00
3.938199e+01	-9.959116e+00
3.960946e+01	-1.000466e+01
3.983824e+01	-1.004986e+01
4.006834e+01	-1.009487e+01
4.029978e+01	-1.013951e+01
4.053255e+01	-1.018459e+01
4.076666e+01	-1.022985e+01
4.100213e+01	-1.027520e+01
4.123896e+01	-1.032032e+01
4.147715e+01	-1.036603e+01
4.171672e+01	-1.041163e+01
4.195767e+01	-1.045764e+01
4.220002e+01	-1.050307e+01
4.244377e+01	-1.054906e+01
4.268892e+01	-1.059410e+01
4.293549e+01	-1.064001e+01
4.318348e+01	-1.068525e+01
4.343291e+01	-1.073136e+01
4.368377e+01	-1.077685e+01
4.393609e+01	-1.082234e+01
4.418986e+01	-1.086876e+01
4.444510e+01	-1.091431e+01
4.470182e+01	-1.096100e+01
4.496001e+01	-1.100665e+01
4.521970e+01	-1.105294e+01
4.548089e+01	-1.109875e+01
4.574358e+01	-1.114473e+01
4.600779e+01	-1.119077e+01
4.627353e+01	-1.123767e+01
4.654081e+01	-1.128368e+01
4.680963e+01	-1.133017e+01
4.708000e+01	-1.137651e+01
4.735193e+01	-1.142245e+01
4.762543e+01	-1.146950e+01
4.790051e+01	-1.151588e+01
4.817719e+01	-1.156233e+01
4.845545e+01	-1.160915e+01
4.873533e+01	-1.165558e+01
4.901682e+01	-1.170202e+01
4.929994e+01	-1.174826e+01
4.958470e+01	-1.179577e+01
4.987110e+01	-1.184236e+01
5.015915e+01	-1.188867e+01
5.044887e+01	-1.193548e+01
5.074026e+01	-1.198280e+01
5.103333e+01	-1.202941e+01
5.132810e+01	-1.207642e+01
5.162457e+01	-1.212294e+01
5.192275e+01	-1.217036e+01
5.222265e+01	-1.221740e+01
5.252429e+01	-1.226400e+01
5.282767e+01	-1.231091e+01
5.313280e+01	-1.235874e+01
5.343969e+01	-1.240595e+01
5.374836e+01	-1.245319e+01
5.405880e+01	-1.249961e+01
5.437105e+01	-1.254706e+01
5.468509e+01	-1.259498e+01
5.500095e+01	-1.264151e+01
5.531863e+01	-1.268936e+01
5.563815e+01	-1.273693e+01
5.595951e+01	-1.278321e+01
5.628273e+01	-1.283086e+01
5.660782e+01	-1.287835e+01
5.693479e+01	-1.292652e+01
5.726364e+01	-1.297304e+01
5.759439e+01	-1.301970e+01
5.792705e+01	-1.306920e+01
5.826164e+01	-1.311624e+01
5.859815e+01	-1.316467e+01
5.893662e+01	-1.321148e+01
5.927703e+01	-1.325954e+01
5.961941e+01	-1.330690e+01
5.996377e+01	-1.335497e+01
6.031012e+01	-1.340259e+01
6.065847e+01	-1.345002e+01
6.100883e+01	-1.349765e+01
6.136121e+01	-1.354468e+01
6.171563e+01	-1.359324e+01
6.207210e+01	-1.364151e+01
6.243063e+01	-1.368875e+01
6.279122e+01	-1.373701e+01
6.315390e+01	-1.378592e+01
6.351868e+01	-1.383281e+01
6.388556e+01	-1.388138e+01
6.425456e+01	-1.392948e+01
6.462569e+01	-1.397661e+01
6.499897e+01	-1.402466e+01
6.537440e+01	-1.407309e+01
6.575200e+01	-1.412146e+01
6.613178e+01	-1.416952e+01
6.651375e+01	-1.421741e+01
6.689793e+01	-1.426532e+01
6.728433e+01	-1.431414e+01
6.767297e+01	-1.436151e+01
6.806384e+01	-1.441014e+01
6.845698e+01	-1.445845e+01
6.885238e+01	-1.450709e+01
6.925007e+01	-1.455561e+01
6.965005e+01	-1.460307e+01
7.005235e+01	-1.465071e+01
7.045697e+01	-1.470052e+01
7.086393e+01	-1.474819e+01
7.127323e+01	-1.479590e+01
7.168490e+01	-1.484444e+01
7.209895e+01	-1.489281e+01
7.251539e+01	-1.494105e+01
7.293424e+01	-1.499100e+01
7.335551e+01	-1.503799e+01
7.377920e+01	-1.508652e+01
7.420535e+01	-1.513638e+01
7.463396e+01	-1.518347e+01
7.506504e+01	-1.523302e+01
7.549861e+01	-1.528025e+01
7.593469e+01	-1.533027e+01
7.637328e+01	-1.537774e+01
7.681441e+01	-1.542754e+01
7.725809e+01	-1.547531e+01
7.770433e+01	-1.552445e+01
7.815315e+01	-1.557195e+01
7.860456e+01	-1.562079e+01
7.905857e+01	-1.567010e+01
7.951521e+01	-1.571929e+01
7.997449e+01	-1.576809e+01
8.043642e+01	-1.581621e+01
8.090102e+01	-1.586381e+01
8.136830e+01	-1.591407e+01
8.183828e+01	-1.596170e+01
8.231097e+01	-1.601122e+01
8.278640e+01	-1.605976e+01
8.326457e+01	-1.610791e+01
8.374550e+01	-1.615774e+01
8.422921e+01	-1.620581e+01
8.471572e+01	-1.625491e+01
8.520503e+01	-1.630403e+01
8.569717e+01	-1.635382e+01
8.619215e+01	-1.640097e+01
8.669000e+01	-1.645103e+01
8.719071e+01	-1.650053e+01
8.769432e+01	-1.654865e+01
8.820084e+01	-1.659800e+01
8.871029e+01	-1.664665e+01
8.922267e+01	-1.669485e+01
8.973802e+01	-1.674501e+01
9.025634e+01	-1.679282e+01
9.077766e+01	-1.684131e+01
9.130199e+01	-1.689044e+01
9.182935e+01	-1.694015e+01
9.235975e+01	-1.698923e+01
9.289321e+01	-1.703724e+01
9.342976e+01	-1.708779e+01
9.396941e+01	-1.713596e+01
9.451217e+01	-1.718532e+01
9.505807e+01	-1.723477e+01
9.560712e+01	-1.728452e+01
9.615934e+01	-1.733159e+01
9.671476e+01	-1.738150e+01
9.727338e+01	-1.743033e+01
9.783522e+01	-1.747986e+01
9.840032e+01	-1.752905e+01
9.896867e+01	-1.757886e+01
9.954031e+01	-1.762758e+01
1.001153e+02	-1.767595e+01
1.006935e+02	-1.772525e+01
1.012751e+02	-1.777553e+01
1.018601e+02	-1.782485e+01
1.024484e+02	-1.787300e+01
1.030402e+02	-1.792188e+01
1.036353e+02	-1.797265e+01
1.042339e+02	-1.802049e+01
1.048360e+02	-1.807059e+01
1.054415e+02	-1.811880e+01
1.060505e+02	-1.816959e+01
1.066631e+02	-1.821715e+01
1.072791e+02	-1.826883e+01
1.078988e+02	-1.831684e+01
1.085220e+02	-1.836625e+01
1.091488e+02	-1.841518e+01
1.097793e+02	-1.846523e+01
1.104133e+02	-1.851335e+01
1.110511e+02	-1.856451e+01
1.116925e+02	-1.861301e+01
1.123376e+02	-1.866269e+01
1.129865e+02	-1.871203e+01
1.136391e+02	-1.876024e+01
1.142955e+02	-1.881127e+01
1.149556e+02	-1.885879e+01
1.156196e+02	-1.891018e+01
1.162874e+02	-1.895913e+01
1.169591e+02	-1.900700e+01
1.176347e+02	-1.905660e+01
1.183141e+02	-1.910689e+01
1.189975e+02	-1.915634e+01
1.196848e+02	-1.920503e+01
1.203761e+02	-1.925624e+01
1.210714e+02	-1.930528e+01
1.217707e+02	-1.935317e+01
1.224740e+02	-1.940405e+01
1.231814e+02	-1.945332e+01
1.238929e+02	-1.950122e+01
1.246085e+02	-1.955134e+01
1.253283e+02	-1.960138e+01
1.260522e+02	-1.965060e+01
1.267802e+02	-1.970128e+01
1.275125e+02	-1.974944e+01
1.282490e+02	-1.979956e+01
1.289898e+02	-1.984887e+01
1.297348e+02	-1.989847e+01
1.304842e+02	-1.994752e+01
1.312378e+02	-1.999672e+01
1.319959e+02	-2.004709e+01
1.327583e+02	-2.009637e+01
1.335251e+02	-2.014614e+01
1.342963e+02	-2.019536e+01
1.350720e+02	-2.024366e+01
1.358522e+02	-2.029543e+01
1.366368e+02	-2.034450e+01
1.374260e+02	-2.039307e+01
1.382198e+02	-2.044216e+01
1.390182e+02	-2.049284e+01
1.398211e+02	-2.054355e+01
1.406287e+02	-2.059295e+01
1.414410e+02	-2.064380e+01
1.422579e+02	-2.069133e+01
1.430796e+02	-2.074197e+01
1.439060e+02	-2.079038e+01
1.447372e+02	-2.084118e+01
1.455732e+02	-2.089048e+01
1.464141e+02	-2.093885e+01
1.472597e+02	-2.098895e+01
1.481103e+02	-2.104069e+01
1.489658e+02	-2.108885e+01
1.498262e+02	-2.113919e+01
1.506916e+02	-2.118736e+01
1.515620e+02	-2.123742e+01
1.524374e+02	-2.128696e+01
1.533179e+02	-2.133603e+01
1.542034e+02	-2.138483e+01
1.550941e+02	-2.143439e+01
1.559899e+02	-2.148486e+01
1.568909e+02	-2.153584e+01
1.577971e+02	-2.158607e+01
1.587085e+02	-2.163413e+01
1.596252e+02	-2.168605e+01
1.605472e+02	-2.173661e+01
1.614745e+02	-2.178518e+01
1.624072e+02	-2.183418e+01
1.633453e+02	-2.188261e+01
1.642887e+02	-2.193467e+01
1.652377e+02	-2.198293e+01
1.661921e+02	-2.203429e+01
1.671520e+02	-2.208168e+01
1.681175e+02	-2.213017e+01
1.690885e+02	-2.218322e+01
1.700651e+02	-2.223158e+01
1.710474e+02	-2.228164e+01
1.720354e+02	-2.232864e+01
1.730291e+02	-2.238134e+01
1.740285e+02	-2.243027e+01
1.750337e+02	-2.248081e+01
1.760446e+02	-2.253195e+01
1.770615e+02	-2.258098e+01
1.780842e+02	-2.263056e+01
1.791128e+02	-2.267946e+01
1.801473e+02	-2.272894e+01
1.811878e+02	-2.277899e+01
1.822344e+02	-2.282953e+01
1.832870e+02	-2.287846e+01
1.843456e+02	-2.292685e+01
1.854104e+02	-2.297811e+01
1.864813e+02	-2.302742e+01
1.875584e+02	-2.307823e+01
1.886418e+02	-2.312702e+01
1.897313e+02	-2.317670e+01
1.908272e+02	-2.322689e+01
1.919294e+02	-2.327731e+01
1.930380e+02	-2.332872e+01
1.941530e+02	-2.337749e+01
1.952744e+02	-2.342365e+01
1.964023e+02	-2.347679e+01
1.975367e+02	-2.352660e+01
1.986777e+02	-2.357728e+01
1.998252e+02	-2.362827e+01
2.009794e+02	-2.367543e+01
2.021403e+02	-2.372555e+01
2.033078e+02	-2.377621e+01
2.044821e+02	-2.382705e+01
2.056632e+02	-2.387621e+01
2.068511e+02	-2.392579e+01
2.080459e+02	-2.397586e+01
2.092475e+02	-2.402433e+01
2.104561e+02	-2.407404e+01
2.116717e+02	-2.412388e+01
2.128943e+02	-2.417373e+01
2.141240e+02	-2.422291e+01
2.153608e+02	-2.427425e+01
2.166047e+02	-2.432407e+01
2.178558e+02	-2.437598e+01
2.191141e+02	-2.442411e+01
2.203797e+02	-2.447392e+01
2.216526e+02	-2.452269e+01
2.229329e+02	-2.457169e+01
2.242205e+02	-2.462050e+01
2.255156e+02	-2.467344e+01
2.268182e+02	-2.472521e+01
2.281283e+02	-2.477860e+01
2.294459e+02	-2.482342e+01
2.307712e+02	-2.487224e+01
2.321041e+02	-2.492283e+01
2.334447e+02	-2.497305e+01
2.347931e+02	-2.502200e+01
2.361493e+02	-2.507144e+01
2.375133e+02	-2.512190e+01
2.388851e+02	-2.517007e+01
2.402649e+02	-2.522433e+01
2.416527e+02	-2.527135e+01
2.430484e+02	-2.531992e+01
2.444523e+02	-2.537518e+01
2.458642e+02	-2.542154e+01
2.472843e+02	-2.547490e+01
2.487126e+02	-2.552363e+01
2.501492e+02	-2.557077e+01
2.515940e+02	-2.562486e+01
2.530472e+02	-2.567524e+01
2.545088e+02	-2.571878e+01
2.559789e+02	-2.576980e+01
2.574574e+02	-2.582007e+01
2.589444e+02	-2.587112e+01
2.604401e+02	-2.592414e+01
2.619444e+02	-2.596959e+01
2.634574e+02	-2.602114e+01
2.649791e+02	-2.607119e+01
2.665096e+02	-2.612047e+01
2.680489e+02	-2.616877e+01
2.695972e+02	-2.622064e+01
2.711544e+02	-2.626988e+01
2.727205e+02	-2.632223e+01
2.742958e+02	-2.637309e+01
2.758801e+02	-2.642057e+01
2.774736e+02	-2.647020e+01
2.790762e+02	-2.652412e+01
2.806882e+02	-2.657002e+01
2.823094e+02	-2.662428e+01
2.839400e+02	-2.666784e+01
2.855800e+02	-2.672063e+01
2.872295e+02	-2.677012e+01
2.888886e+02	-2.682111e+01
2.905572e+02	-2.686848e+01
2.922354e+02	-2.692229e+01
2.939234e+02	-2.697233e+01
2.956211e+02	-2.702004e+01
2.973286e+02	-2.706783e+01
2.990459e+02	-2.712202e+01
3.007732e+02	-2.716894e+01
3.025104e+02	-2.722140e+01
3.042577e+02	-2.727286e+01
3.060151e+02	-2.732320e+01
3.077826e+02	-2.737321e+01
3.095604e+02	-2.742185e+01
3.113484e+02	-2.747263e+01
3.131467e+02	-2.752291e+01
3.149554e+02	-2.757589e+01
3.167746e+02	-2.761997e+01
3.186043e+02	-2.766745e+01
3.204445e+02	-2.772162e+01
3.222954e+02	-2.777023e+01
3.241570e+02	-2.782144e+01
3.260293e+02	-2.786978e+01
3.279124e+02	-2.792091e+01
3.298064e+02	-2.797124e+01
3.317114e+02	-2.802343e+01
3.336273e+02	-2.806941e+01
3.355544e+02	-2.812399e+01
3.374925e+02	-2.817264e+01
3.394418e+02	-2.822424e+01
3.414024e+02	-2.827184e+01
3.433744e+02	-2.831865e+01
3.453577e+02	-2.837170e+01
3.473525e+02	-2.842292e+01
3.493588e+02	-2.847219e+01
3.513766e+02	-2.852146e+01
3.534062e+02	-2.856844e+01
3.554474e+02	-2.861900e+01
3.575005e+02	-2.867498e+01
3.595654e+02	-2.871979e+01
3.616422e+02	-2.877094e+01
3.637311e+02	-2.881906e+01
3.658320e+02	-2.887353e+01
3.679450e+02	-2.892449e+01
3.700702e+02	-2.897264e+01
3.722077e+02	-2.901812e+01
3.743576e+02	-2.907185e+01
3.765199e+02	-2.912149e+01
3.786946e+02	-2.917100e+01
3.808820e+02	-2.922477e+01
3.830819e+02	-2.927754e+01
3.852946e+02	-2.932193e+01
3.875200e+02	-2.937203e+01
3.897583e+02	-2.942336e+01
3.920096e+02	-2.947559e+01
3.942738e+02	-2.952715e+01
3.965511e+02	-2.957507e+01
3.988416e+02	-2.962211e+01
4.011452e+02	-2.967413e+01
4.034622e+02	-2.972771e+01
4.057926e+02	-2.977424e+01
4.081365e+02	-2.982710e+01
4.104938e+02	-2.987434e+01
4.128648e+02	-2.992447e+01
4.152495e+02	-2.997750e+01
4.176480e+02	-3.002653e+01
4.200603e+02	-3.007964e+01
4.224866e+02	-3.012254e+01
4.249268e+02	-3.017204e+01
4.273812e+02	-3.022660e+01
4.298497e+02	-3.027666e+01
4.323325e+02	-3.032468e+01
4.348297e+02	-3.037243e+01
4.373412e+02	-3.042473e+01
4.398673e+02	-3.047528e+01
4.424079e+02	-3.052520e+01
4.449633e+02	-3.057782e+01
4.475334e+02	-3.062871e+01
4.501183e+02	-3.068134e+01
4.527182e+02	-3.072775e+01
4.553330e+02	-3.077637e+01
4.579630e+02	-3.082804e+01
4.606082e+02	-3.087263e+01
4.632687e+02	-3.093033e+01
4.659445e+02	-3.097746e+01
4.686358e+02	-3.102967e+01
4.713426e+02	-3.107305e+01
4.740650e+02	-3.113192e+01
4.768032e+02	-3.118546e+01
4.795572e+02	-3.123003e+01
4.823271e+02	-3.128022e+01
4.851130e+02	-3.133123e+01
4.879150e+02	-3.138610e+01
4.907332e+02	-3.142791e+01
4.935676e+02	-3.148367e+01
4.964185e+02	-3.152957e+01
4.992858e+02	-3.158477e+01
5.021696e+02	-3.163177e+01
5.050701e+02	-3.168155e+01
5.079874e+02	-3.172545e+01
5.109215e+02	-3.178264e+01
5.138726e+02	-3.183044e+01
5.168407e+02	-3.188760e+01
5.198259e+02	-3.193493e+01
5.228284e+02	-3.198160e+01
5.258482e+02	-3.202671e+01
5.288855e+02	-3.208524e+01
5.319403e+02	-3.213479e+01
5.350128e+02	-3.217880e+01
5.381030e+02	-3.223150e+01
5.412111e+02	-3.227824e+01
5.443371e+02	-3.233149e+01
5.474812e+02	-3.238667e+01
5.506434e+02	-3.243869e+01
5.538239e+02	-3.248434e+01
5.570228e+02	-3.252843e+01
5.602401e+02	-3.258197e+01
5.634760e+02	-3.263245e+01
5.667306e+02	-3.268780e+01
5.700040e+02	-3.273280e+01
5.732964e+02	-3.279153e+01
5.766077e+02	-3.284075e+01
5.799382e+02	-3.288545e+01
5.832879e+02	-3.293229e+01
5.866569e+02	-3.298842e+01
5.900454e+02	-3.303857e+01
5.934535e+02	-3.308899e+01
5.968813e+02	-3.314595e+01
6.003288e+02	-3.318772e+01
6.037963e+02	-3.323810e+01
6.072838e+02	-3.328192e+01
6.107914e+02	-3.333790e+01
6.143194e+02	-3.338897e+01
6.178676e+02	-3.344100e+01
6.214364e+02	-3.349396e+01
6.250258e+02	-3.354303e+01
6.286359e+02	-3.359301e+01
6.322669e+02	-3.363740e+01
6.359189e+02	-3.369544e+01
6.395919e+02	-3.373621e+01
6.432862e+02	-3.379537e+01
6.470017e+02	-3.384486e+01
6.507388e+02	-3.388092e+01
6.544974e+02	-3.394560e+01
6.582778e+02	-3.398542e+01
6.620800e+02	-3.404614e+01
6.659041e+02	-3.410169e+01
6.697504e+02	-3.414099e+01
6.736188e+02	-3.419681e+01
6.775096e+02	-3.424620e+01
6.814229e+02	-3.429692e+01
6.853587e+02	-3.434094e+01
6.893173e+02	-3.439977e+01
6.932988e+02	-3.444781e+01
6.973033e+02	-3.449389e+01
7.013309e+02	-3.454668e+01
