Frequency(Hz)	Magnitude(dB)
1.000000e+01	-2.003186e+00
1.005776e+01	-2.021801e+00
1.011585e+01	-2.040556e+00
1.017428e+01	-2.059528e+00
1.023305e+01	-2.078543e+00
1.029215e+01	-2.097564e+00
1.035160e+01	-2.116902e+00
1.041139e+01	-2.135987e+00
1.047153e+01	-2.155698e+00
1.053201e+01	-2.175162e+00
1.059284e+01	-2.194987e+00
1.065403e+01	-2.215011e+00
1.071556e+01	-2.234979e+00
1.077746e+01	-2.255153e+00
1.083971e+01	-2.275561e+00
1.090232e+01	-2.296074e+00
1.096529e+01	-2.316738e+00
1.102862e+01	-2.337154e+00
1.109232e+01	-2.358100e+00
1.115639e+01	-2.379155e+00
1.122083e+01	-2.400400e+00
1.128564e+01	-2.421873e+00
1.135083e+01	-2.443142e+00
1.141639e+01	-2.464572e+00
1.148233e+01	-2.486618e+00
1.154865e+01	-2.508435e+00
1.161536e+01	-2.530429e+00
1.168245e+01	-2.552443e+00
1.174992e+01	-2.574984e+00
1.181779e+01	-2.597258e+00
1.188605e+01	-2.619590e+00
1.195470e+01	-2.642733e+00
1.202375e+01	-2.665509e+00
1.209320e+01	-2.688506e+00
1.216305e+01	-2.711544e+00
1.223330e+01	-2.734991e+00
1.230396e+01	-2.758518e+00
1.237503e+01	-2.781880e+00
1.244651e+01	-2.805876e+00
1.251840e+01	-2.829620e+00
1.259070e+01	-2.853618e+00
1.266343e+01	-2.877690e+00
1.273657e+01	-2.902162e+00
1.281014e+01	-2.926485e+00
1.288413e+01	-2.951319e+00
1.295855e+01	-2.975948e+00
1.303339e+01	-3.001119e+00
1.310867e+01	-3.025908e+00
1.318439e+01	-3.050966e+00
1.326054e+01	-3.076566e+00
1.333713e+01	-3.102082e+00
1.341417e+01	-3.127458e+00
1.349165e+01	-3.153138e+00
1.356958e+01	-3.179034e+00
1.364795e+01	-3.205198e+00
1.372678e+01	-3.231129e+00
1.380607e+01	-3.257829e+00
1.388581e+01	-3.283965e+00
1.396602e+01	-3.310491e+00
1.404668e+01	-3.337627e+00
1.412782e+01	-3.364404e+00
1.420942e+01	-3.391376e+00
1.429149e+01	-3.418705e+00
1.437404e+01	-3.446035e+00
1.445706e+01	-3.473401e+00
1.454057e+01	-3.500963e+00
1.462455e+01	-3.528891e+00
1.470902e+01	-3.556793e+00
1.479398e+01	-3.584644e+00
1.487943e+01	-3.612779e+00
1.496537e+01	-3.641329e+00
1.505181e+01	-3.669679e+00
1.513875e+01	-3.698579e+00
1.522619e+01	-3.727240e+00
1.531414e+01	-3.755821e+00
1.540259e+01	-3.784844e+00
1.549156e+01	-3.814128e+00
1.558103e+01	-3.843451e+00
1.567103e+01	-3.873111e+00
1.576155e+01	-3.902628e+00
1.585258e+01	-3.932522e+00
1.594415e+01	-3.962170e+00
1.603624e+01	-3.991828e+00
1.612886e+01	-4.022269e+00
1.622202e+01	-4.052576e+00
1.631572e+01	-4.082793e+00
1.640996e+01	-4.113456e+00
1.650474e+01	-4.144079e+00
1.660008e+01	-4.174956e+00
1.669596e+01	-4.205911e+00
1.679239e+01	-4.236965e+00
1.688938e+01	-4.268137e+00
1.698694e+01	-4.299548e+00
1.708505e+01	-4.331067e+00
1.718373e+01	-4.362742e+00
1.728299e+01	-4.394182e+00
1.738281e+01	-4.426464e+00
1.748322e+01	-4.458697e+00
1.758420e+01	-4.490562e+00
1.768576e+01	-4.522947e+00
1.778792e+01	-4.555150e+00
1.789066e+01	-4.587952e+00
1.799399e+01	-4.620757e+00
1.809793e+01	-4.653295e+00
1.820246e+01	-4.686536e+00
1.830760e+01	-4.719473e+00
1.841334e+01	-4.752876e+00
1.851969e+01	-4.786180e+00
1.862666e+01	-4.819355e+00
1.873425e+01	-4.852921e+00
1.884246e+01	-4.886808e+00
1.895129e+01	-4.920684e+00
1.906075e+01	-4.954771e+00
1.917085e+01	-4.988864e+00
1.928158e+01	-5.023171e+00
1.939295e+01	-5.057579e+00
1.950496e+01	-5.091857e+00
1.961762e+01	-5.126428e+00
1.973093e+01	-5.161244e+00
1.984490e+01	-5.195959e+00
1.995952e+01	-5.230716e+00
2.007480e+01	-5.266061e+00
2.019076e+01	-5.301620e+00
2.030738e+01	-5.336613e+00
2.042467e+01	-5.372027e+00
2.054264e+01	-5.407469e+00
2.066130e+01	-5.443318e+00
2.078064e+01	-5.478966e+00
2.090066e+01	-5.515000e+00
2.102139e+01	-5.551352e+00
2.114280e+01	-5.587336e+00
2.126492e+01	-5.623394e+00
2.138775e+01	-5.659666e+00
2.151128e+01	-5.696163e+00
2.163553e+01	-5.732905e+00
2.176050e+01	-5.769586e+00
2.188619e+01	-5.806816e+00
2.201260e+01	-5.843216e+00
2.213974e+01	-5.880370e+00
2.226762e+01	-5.917571e+00
2.239624e+01	-5.954939e+00
2.252560e+01	-5.992506e+00
2.265571e+01	-6.029697e+00
2.278656e+01	-6.067379e+00
2.291818e+01	-6.104978e+00
2.305055e+01	-6.143136e+00
2.318369e+01	-6.180467e+00
2.331760e+01	-6.218950e+00
2.345228e+01	-6.256921e+00
2.358774e+01	-6.295049e+00
2.372398e+01	-6.333525e+00
2.386101e+01	-6.371986e+00
2.399883e+01	-6.410539e+00
2.413745e+01	-6.449351e+00
2.427686e+01	-6.487962e+00
2.441709e+01	-6.526653e+00
2.455812e+01	-6.565618e+00
2.469997e+01	-6.604623e+00
2.484263e+01	-6.643566e+00
2.498612e+01	-6.683342e+00
2.513044e+01	-6.722603e+00
2.527559e+01	-6.761945e+00
2.542158e+01	-6.801130e+00
2.556842e+01	-6.841204e+00
2.571610e+01	-6.880786e+00
2.586463e+01	-6.920527e+00
2.601403e+01	-6.960716e+00
2.616428e+01	-7.000508e+00
2.631541e+01	-7.040741e+00
2.646740e+01	-7.081006e+00
2.662028e+01	-7.120962e+00
2.677404e+01	-7.161420e+00
2.692868e+01	-7.201767e+00
2.708422e+01	-7.242446e+00
2.724066e+01	-7.283125e+00
2.739800e+01	-7.324120e+00
2.755625e+01	-7.364780e+00
2.771541e+01	-7.405495e+00
2.787550e+01	-7.446504e+00
2.803650e+01	-7.487590e+00
2.819844e+01	-7.528553e+00
2.836131e+01	-7.569591e+00
2.852513e+01	-7.611316e+00
2.868989e+01	-7.652640e+00
2.885560e+01	-7.694014e+00
2.902227e+01	-7.735495e+00
2.918990e+01	-7.777142e+00
2.935850e+01	-7.819093e+00
2.952807e+01	-7.860991e+00
2.969863e+01	-7.902800e+00
2.987016e+01	-7.944900e+00
3.004269e+01	-7.986559e+00
3.021622e+01	-8.028759e+00
3.039075e+01	-8.070737e+00
3.056628e+01	-8.113203e+00
3.074283e+01	-8.155353e+00
3.092040e+01	-8.198355e+00
3.109900e+01	-8.240503e+00
3.127862e+01	-8.283012e+00
3.145929e+01	-8.325834e+00
3.164099e+01	-8.367919e+00
3.182375e+01	-8.410831e+00
3.200756e+01	-8.453306e+00
3.219244e+01	-8.496706e+00
3.237838e+01	-8.539938e+00
3.256540e+01	-8.583321e+00
3.275349e+01	-8.626104e+00
3.294268e+01	-8.668845e+00
3.313295e+01	-8.712468e+00
3.332433e+01	-8.755677e+00
3.351681e+01	-8.799286e+00
3.371040e+01	-8.842637e+00
3.390511e+01	-8.886220e+00
3.410094e+01	-8.929968e+00
3.429791e+01	-8.973382e+00
3.449601e+01	-9.017278e+00
3.469526e+01	-9.060931e+00
3.489566e+01	-9.104871e+00
3.509721e+01	-9.148813e+00
3.529993e+01	-9.192748e+00
3.550382e+01	-9.236765e+00
3.570889e+01	-9.281095e+00
3.591515e+01	-9.325236e+00
3.612259e+01	-9.369162e+00
3.633123e+01	-9.413657e+00
3.654108e+01	-9.458187e+00
3.675214e+01	-9.501988e+00
3.696442e+01	-9.546325e+00
3.717792e+01	-9.591452e+00
3.739266e+01	-9.635811e+00
3.760864e+01	-9.680482e+00
3.782587e+01	-9.724739e+00
3.804435e+01	-9.770095e+00
3.826409e+01	-9.814848e+00
3.848510e+01	-9.859666e+00
3.870739e+01	-9.903729e+00
3.893096e+01	-9.949249e+00
3.915583e+01	-9.994365e+00
3.938199e+01	-1.003985e+01
3.960946e+01	-1.008451e+01
3.983824e+01	-1.012910e+01
4.006834e+01	-1.017465e+01
4.029978e+01	-1.022037e+01
4.053255e+01	-1.026567e+01
4.076666e+01	-1.031054e+01
4.100213e+01	-1.035606e+01
4.123896e+01	-1.040150e+01
4.147715e+01	-1.044632e+01
4.171672e+01	-1.049279e+01
4.195767e+01	-1.053792e+01
4.220002e+01	-1.058349e+01
4.244377e+01	-1.062944e+01
4.268892e+01	-1.067479e+01
4.293549e+01	-1.072074e+01
4.318348e+01	-1.076599e+01
4.343291e+01	-1.081274e+01
4.368377e+01	-1.085835e+01
4.393609e+01	-1.090424e+01
4.418986e+01	-1.094990e+01
4.444510e+01	-1.099659e+01
4.470182e+01	-1.104207e+01
4.496001e+01	-1.108817e+01
4.521970e+01	-1.113468e+01
4.548089e+01	-1.118084e+01
4.574358e+01	-1.122673e+01
4.600779e+01	-1.127316e+01
4.627353e+01	-1.131899e+01
4.654081e+01	-1.136589e+01
4.680963e+01	-1.141266e+01
4.708000e+01	-1.145845e+01
4.735193e+01	-1.150553e+01
4.762543e+01	-1.155245e+01
4.790051e+01	-1.159800e+01
4.817719e+01	-1.164469e+01
4.845545e+01	-1.169134e+01
4.873533e+01	-1.173836e+01
4.901682e+01	-1.178465e+01
4.929994e+01	-1.183200e+01
4.958470e+01	-1.187861e+01
4.987110e+01	-1.192552e+01
5.015915e+01	-1.197224e+01
5.044887e+01	-1.201908e+01
5.074026e+01	-1.206587e+01
5.103333e+01	-1.211225e+01
5.132810e+01	-1.215942e+01
5.162457e+01	-1.220667e+01
5.192275e+01	-1.225370e+01
5.222265e+01	-1.230034e+01
5.252429e+01	-1.234801e+01
5.282767e+01	-1.239497e+01
5.313280e+01	-1.244205e+01
5.343969e+01	-1.248856e+01
5.374836e+01	-1.253627e+01
5.405880e+01	-1.258368e+01
5.437105e+01	-1.263163e+01
5.468509e+01	-1.267859e+01
5.500095e+01	-1.272620e+01
5.531863e+01	-1.277282e+01
5.563815e+01	-1.282086e+01
5.595951e+01	-1.286760e+01
5.628273e+01	-1.291496e+01
5.660782e+01	-1.296303e+01
5.693479e+01	-1.301110e+01
5.726364e+01	-1.305817e+01
5.759439e+01	-1.310413e+01
5.792705e+01	-1.315277e+01
5.826164e+01	-1.320093e+01
5.859815e+01	-1.324870e+01
5.893662e+01	-1.329617e+01
5.927703e+01	-1.334403e+01
5.961941e+01	-1.339160e+01
5.996377e+01	-1.343889e+01
6.031012e+01	-1.348751e+01
6.065847e+01	-1.353515e+01
6.100883e+01	-1.358298e+01
6.136121e+01	-1.363094e+01
6.171563e+01	-1.367836e+01
6.207210e+01	-1.372578e+01
6.243063e+01	-1.377354e+01
6.279122e+01	-1.382219e+01
6.315390e+01	-1.387070e+01
6.351868e+01	-1.391818e+01
6.388556e+01	-1.396596e+01
6.425456e+01	-1.401452e+01
6.462569e+01	-1.406206e+01
6.499897e+01	-1.411024e+01
6.537440e+01	-1.415861e+01
6.575200e+01	-1.420606e+01
6.613178e+01	-1.425446e+01
6.651375e+01	-1.430344e+01
6.689793e+01	-1.435169e+01
6.728433e+01	-1.439845e+01
6.767297e+01	-1.444712e+01
6.806384e+01	-1.449568e+01
6.845698e+01	-1.454462e+01
6.885238e+01	-1.459268e+01
6.925007e+01	-1.463946e+01
6.965005e+01	-1.468910e+01
7.005235e+01	-1.473772e+01
7.045697e+01	-1.478565e+01
7.086393e+01	-1.483343e+01
7.127323e+01	-1.488129e+01
7.168490e+01	-1.493128e+01
7.209895e+01	-1.497925e+01
7.251539e+01	-1.502697e+01
7.293424e+01	-1.507518e+01
7.335551e+01	-1.512474e+01
7.377920e+01	-1.517294e+01
7.420535e+01	-1.522110e+01
7.463396e+01	-1.526974e+01
7.506504e+01	-1.531796e+01
7.549861e+01	-1.536689e+01
7.593469e+01	-1.541574e+01
7.637328e+01	-1.546423e+01
7.681441e+01	-1.551299e+01
7.725809e+01	-1.556185e+01
7.770433e+01	-1.561028e+01
7.815315e+01	-1.565915e+01
7.860456e+01	-1.570771e+01
7.905857e+01	-1.575597e+01
7.951521e+01	-1.580485e+01
7.997449e+01	-1.585403e+01
8.043642e+01	-1.590251e+01
8.090102e+01	-1.595125e+01
8.136830e+01	-1.600100e+01
8.183828e+01	-1.604894e+01
8.231097e+01	-1.609770e+01
8.278640e+01	-1.614632e+01
8.326457e+01	-1.619395e+01
8.374550e+01	-1.624384e+01
8.422921e+01	-1.629341e+01
8.471572e+01	-1.634008e+01
8.520503e+01	-1.639063e+01
8.569717e+01	-1.643941e+01
8.619215e+01	-1.648922e+01
8.669000e+01	-1.653638e+01
8.719071e+01	-1.658680e+01
8.769432e+01	-1.663586e+01
8.820084e+01	-1.668422e+01
8.871029e+01	-1.673326e+01
8.922267e+01	-1.678268e+01
8.973802e+01	-1.683171e+01
9.025634e+01	-1.688004e+01
9.077766e+01	-1.692790e+01
9.130199e+01	-1.697730e+01
9.182935e+01	-1.702796e+01
9.235975e+01	-1.707585e+01
9.289321e+01	-1.712558e+01
9.342976e+01	-1.717448e+01
9.396941e+01	-1.722396e+01
9.451217e+01	-1.727333e+01
9.505807e+01	-1.732196e+01
9.560712e+01	-1.736993e+01
9.615934e+01	-1.742004e+01
9.671476e+01	-1.746836e+01
9.727338e+01	-1.751867e+01
9.783522e+01	-1.756696e+01
9.840032e+01	-1.761686e+01
9.896867e+01	-1.766496e+01
9.954031e+01	-1.771394e+01
1.001153e+02	-1.776364e+01
1.006935e+02	-1.781360e+01
1.012751e+02	-1.786207e+01
1.018601e+02	-1.791170e+01
1.024484e+02	-1.796094e+01
1.030402e+02	-1.801046e+01
1.036353e+02	-1.805870e+01
1.042339e+02	-1.810835e+01
1.048360e+02	-1.815826e+01
1.054415e+02	-1.820673e+01
1.060505e+02	-1.825606e+01
1.066631e+02	-1.830558e+01
1.072791e+02	-1.835409e+01
1.078988e+02	-1.840448e+01
1.085220e+02	-1.845357e+01
1.091488e+02	-1.850342e+01
1.097793e+02	-1.855145e+01
1.104133e+02	-1.860115e+01
1.110511e+02	-1.864943e+01
1.116925e+02	-1.870050e+01
1.123376e+02	-1.875038e+01
1.129865e+02	-1.879952e+01
1.136391e+02	-1.884912e+01
1.142955e+02	-1.889800e+01
1.149556e+02	-1.894710e+01
1.156196e+02	-1.899699e+01
1.162874e+02	-1.904587e+01
1.169591e+02	-1.909531e+01
1.176347e+02	-1.914431e+01
1.183141e+02	-1.919347e+01
1.189975e+02	-1.924368e+01
1.196848e+02	-1.929218e+01
1.203761e+02	-1.934259e+01
1.210714e+02	-1.939296e+01
1.217707e+02	-1.944250e+01
1.224740e+02	-1.949124e+01
1.231814e+02	-1.954090e+01
1.238929e+02	-1.958933e+01
1.246085e+02	-1.963841e+01
1.253283e+02	-1.968923e+01
1.260522e+02	-1.973900e+01
1.267802e+02	-1.978870e+01
1.275125e+02	-1.983826e+01
1.282490e+02	-1.988760e+01
1.289898e+02	-1.993712e+01
1.297348e+02	-1.998632e+01
1.304842e+02	-2.003457e+01
1.312378e+02	-2.008410e+01
1.319959e+02	-2.013476e+01
1.327583e+02	-2.018404e+01
1.335251e+02	-2.023300e+01
1.342963e+02	-2.028367e+01
1.350720e+02	-2.033214e+01
1.358522e+02	-2.038283e+01
1.366368e+02	-2.043262e+01
1.374260e+02	-2.048038e+01
1.382198e+02	-2.053163e+01
1.390182e+02	-2.057974e+01
1.398211e+02	-2.062997e+01
1.406287e+02	-2.067953e+01
1.414410e+02	-2.072911e+01
1.422579e+02	-2.077962e+01
1.430796e+02	-2.083133e+01
1.439060e+02	-2.087798e+01
1.447372e+02	-2.092873e+01
1.455732e+02	-2.097875e+01
1.464141e+02	-2.102643e+01
1.472597e+02	-2.107802e+01
1.481103e+02	-2.112664e+01
1.489658e+02	-2.117579e+01
1.498262e+02	-2.122591e+01
1.506916e+02	-2.127503e+01
1.515620e+02	-2.132458e+01
1.524374e+02	-2.137378e+01
1.533179e+02	-2.142533e+01
1.542034e+02	-2.147375e+01
1.550941e+02	-2.152476e+01
1.559899e+02	-2.157223e+01
1.568909e+02	-2.162479e+01
1.577971e+02	-2.167419e+01
1.587085e+02	-2.172271e+01
1.596252e+02	-2.177285e+01
1.605472e+02	-2.182147e+01
1.614745e+02	-2.187293e+01
1.624072e+02	-2.192104e+01
1.633453e+02	-2.197086e+01
1.642887e+02	-2.202136e+01
1.652377e+02	-2.207046e+01
1.661921e+02	-2.212028e+01
1.671520e+02	-2.216924e+01
1.681175e+02	-2.222125e+01
1.690885e+02	-2.226999e+01
1.700651e+02	-2.231874e+01
1.710474e+02	-2.236744e+01
1.720354e+02	-2.242093e+01
1.730291e+02	-2.246964e+01
1.740285e+02	-2.251793e+01
1.750337e+02	-2.256919e+01
1.760446e+02	-2.262036e+01
1.770615e+02	-2.266823e+01
1.780842e+02	-2.271561e+01
1.791128e+02	-2.276842e+01
1.801473e+02	-2.281820e+01
1.811878e+02	-2.286591e+01
1.822344e+02	-2.291748e+01
1.832870e+02	-2.296678e+01
1.843456e+02	-2.301643e+01
1.854104e+02	-2.306807e+01
1.864813e+02	-2.311752e+01
1.875584e+02	-2.316759e+01
1.886418e+02	-2.321530e+01
1.897313e+02	-2.326637e+01
1.908272e+02	-2.331340e+01
1.919294e+02	-2.336484e+01
1.930380e+02	-2.341616e+01
1.941530e+02	-2.346380e+01
1.952744e+02	-2.351217e+01
1.964023e+02	-2.356406e+01
1.975367e+02	-2.361474e+01
1.986777e+02	-2.366407e+01
1.998252e+02	-2.371395e+01
2.009794e+02	-2.376443e+01
2.021403e+02	-2.381390e+01
2.033078e+02	-2.386275e+01
2.044821e+02	-2.391181e+01
2.056632e+02	-2.396352e+01
2.068511e+02	-2.401307e+01
2.080459e+02	-2.406167e+01
2.092475e+02	-2.411227e+01
2.104561e+02	-2.416232e+01
2.116717e+02	-2.421261e+01
2.128943e+02	-2.425886e+01
2.141240e+02	-2.431288e+01
2.153608e+02	-2.436228e+01
2.166047e+02	-2.441361e+01
2.178558e+02	-2.446258e+01
2.191141e+02	-2.450983e+01
2.203797e+02	-2.456457e+01
2.216526e+02	-2.461041e+01
2.229329e+02	-2.466204e+01
2.242205e+02	-2.470962e+01
2.255156e+02	-2.476347e+01
2.268182e+02	-2.481102e+01
2.281283e+02	-2.486397e+01
2.294459e+02	-2.491180e+01
2.307712e+02	-2.496097e+01
2.321041e+02	-2.500908e+01
2.334447e+02	-2.505933e+01
2.347931e+02	-2.511085e+01
2.361493e+02	-2.516019e+01
2.375133e+02	-2.521139e+01
2.388851e+02	-2.526003e+01
2.402649e+02	-2.531120e+01
2.416527e+02	-2.535902e+01
2.430484e+02	-2.540909e+01
2.444523e+02	-2.545686e+01
2.458642e+02	-2.551120e+01
2.472843e+02	-2.556143e+01
2.487126e+02	-2.561102e+01
2.501492e+02	-2.565832e+01
2.515940e+02	-2.570858e+01
2.530472e+02	-2.575939e+01
2.545088e+02	-2.580967e+01
2.559789e+02	-2.585691e+01
2.574574e+02	-2.591032e+01
2.589444e+02	-2.596122e+01
2.604401e+02	-2.600963e+01
2.619444e+02	-2.605900e+01
2.634574e+02	-2.610744e+01
2.649791e+02	-2.615790e+01
2.665096e+02	-2.620808e+01
2.680489e+02	-2.626268e+01
2.695972e+02	-2.630884e+01
2.711544e+02	-2.635961e+01
2.727205e+02	-2.640658e+01
2.742958e+02	-2.645934e+01
2.758801e+02	-2.651160e+01
2.774736e+02	-2.655985e+01
2.790762e+02	-2.660824e+01
2.806882e+02	-2.665929e+01
2.823094e+02	-2.670559e+01
2.839400e+02	-2.675676e+01
2.855800e+02	-2.680501e+01
2.872295e+02	-2.685905e+01
2.888886e+02	-2.690981e+01
2.905572e+02	-2.695912e+01
2.922354e+02	-2.701125e+01
2.939234e+02	-2.705735e+01
2.956211e+02	-2.710845e+01
2.973286e+02	-2.715422e+01
2.990459e+02	-2.720852e+01
3.007732e+02	-2.725851e+01
3.025104e+02	-2.730924e+01
3.042577e+02	-2.735733e+01
3.060151e+02	-2.740835e+01
3.077826e+02	-2.746020e+01
3.095604e+02	-2.751173e+01
3.113484e+02	-2.756022e+01
3.131467e+02	-2.761272e+01
3.149554e+02	-2.765929e+01
3.167746e+02	-2.770775e+01
3.186043e+02	-2.776026e+01
3.204445e+02	-2.780698e+01
3.222954e+02	-2.786253e+01
3.241570e+02	-2.791129e+01
3.260293e+02	-2.795679e+01
3.279124e+02	-2.800620e+01
3.298064e+02	-2.805959e+01
3.317114e+02	-2.811043e+01
3.336273e+02	-2.816215e+01
3.355544e+02	-2.821080e+01
3.374925e+02	-2.825328e+01
3.394418e+02	-2.830892e+01
3.414024e+02	-2.835647e+01
3.433744e+02	-2.841113e+01
3.453577e+02	-2.845909e+01
3.473525e+02	-2.850861e+01
3.493588e+02	-2.855713e+01
3.513766e+02	-2.860950e+01
3.534062e+02	-2.865870e+01
3.554474e+02	-2.870967e+01
3.575005e+02	-2.875508e+01
3.595654e+02	-2.880861e+01
3.616422e+02	-2.886068e+01
3.637311e+02	-2.891033e+01
3.658320e+02	-2.895935e+01
3.679450e+02	-2.901155e+01
3.700702e+02	-2.905728e+01
3.722077e+02	-2.910965e+01
3.743576e+02	-2.916270e+01
3.765199e+02	-2.920618e+01
3.786946e+02	-2.925674e+01
3.808820e+02	-2.930738e+01
3.830819e+02	-2.936232e+01
3.852946e+02	-2.940959e+01
3.875200e+02	-2.945916e+01
3.897583e+02	-2.950604e+01
3.920096e+02	-2.956222e+01
3.942738e+02	-2.960682e+01
3.965511e+02	-2.965794e+01
3.988416e+02	-2.971367e+01
4.011452e+02	-2.976094e+01
4.034622e+02	-2.981121e+01
4.057926e+02	-2.986273e+01
4.081365e+02	-2.991102e+01
4.104938e+02	-2.996540e+01
4.128648e+02	-3.001167e+01
4.152495e+02	-3.005758e+01
4.176480e+02	-3.011005e+01
4.200603e+02	-3.016217e+01
4.224866e+02	-3.020989e+01
4.249268e+02	-3.026206e+01
4.273812e+02	-3.030917e+01
4.298497e+02	-3.035857e+01
4.323325e+02	-3.041248e+01
4.348297e+02	-3.046268e+01
4.373412e+02	-3.051199e+01
4.398673e+02	-3.056156e+01
4.424079e+02	-3.061259e+01
4.449633e+02	-3.066436e+01
4.475334e+02	-3.071284e+01
4.501183e+02	-3.076352e+01
4.527182e+02	-3.081437e+01
4.553330e+02	-3.086145e+01
4.579630e+02	-3.091052e+01
4.606082e+02	-3.096395e+01
4.632687e+02	-3.101494e+01
4.659445e+02	-3.106488e+01
4.686358e+02	-3.111057e+01
4.713426e+02	-3.116058e+01
4.740650e+02	-3.121956e+01
4.768032e+02	-3.126053e+01
4.795572e+02	-3.131383e+01
4.823271e+02	-3.136205e+01
4.851130e+02	-3.141226e+01
4.879150e+02	-3.146120e+01
4.907332e+02	-3.151297e+01
4.935676e+02	-3.156468e+01
4.964185e+02	-3.161244e+01
4.992858e+02	-3.166508e+01
5.021696e+02	-3.171278e+01
5.050701e+02	-3.176835e+01
5.079874e+02	-3.181374e+01
5.109215e+02	-3.185903e+01
5.138726e+02	-3.191351e+01
5.168407e+02	-3.196612e+01
5.198259e+02	-3.201535e+01
5.228284e+02	-3.207187e+01
5.258482e+02	-3.210864e+01
5.288855e+02	-3.217245e+01
5.319403e+02	-3.221712e+01
5.350128e+02	-3.227204e+01
5.381030e+02	-3.232304e+01
5.412111e+02	-3.237123e+01
5.443371e+02	-3.241357e+01
5.474812e+02	-3.246907e+01
5.506434e+02	-3.251625e+01
5.538239e+02	-3.256603e+01
5.570228e+02	-3.262065e+01
5.602401e+02	-3.266442e+01
5.634760e+02	-3.270896e+01
5.667306e+02	-3.276573e+01
5.700040e+02	-3.282262e+01
5.732964e+02	-3.286059e+01
5.766077e+02	-3.291767e+01
5.799382e+02	-3.296982e+01
5.832879e+02	-3.302695e+01
5.866569e+02	-3.307197e+01
5.900454e+02	-3.311796e+01
5.934535e+02	-3.317227e+01
5.968813e+02	-3.321879e+01
6.003288e+02	-3.327578e+01
6.037963e+02	-3.331262e+01
6.072838e+02	-3.336919e+01
6.107914e+02	-3.342113e+01
6.143194e+02	-3.347519e+01
6.178676e+02	-3.351865e+01
6.214364e+02	-3.357591e+01
6.250258e+02	-3.362397e+01
6.286359e+02	-3.366643e+01
6.322669e+02	-3.372121e+01
6.359189e+02	-3.377709e+01
6.395919e+02	-3.382785e+01
6.432862e+02	-3.387685e+01
6.470017e+02	-3.392291e+01
6.507388e+02	-3.397971e+01
6.544974e+02	-3.402127e+01
6.582778e+02	-3.407559e+01
6.620800e+02	-3.412867e+01
6.659041e+02	-3.418030e+01
6.697504e+02	-3.422516e+01
6.736188e+02	-3.427538e+01
6.775096e+02	-3.433363e+01
6.814229e+02	-3.438037e+01
6.853587e+02	-3.442749e+01
6.893173e+02	-3.447923e+01
6.932988e+02	-3.452780e+01
6.973033e+02	-3.457188e+01
7.013309e+02	-3.463024e+01
