Frequency(Hz)	Magnitude(dB)
1.000000e+01	-2.005239e+00
1.005776e+01	-2.023456e+00
1.011585e+01	-2.042569e+00
1.017428e+01	-2.061136e+00
1.023305e+01	-2.080115e+00
1.029215e+01	-2.099124e+00
1.035160e+01	-2.118645e+00
1.041139e+01	-2.137871e+00
1.047153e+01	-2.157391e+00
1.053201e+01	-2.177039e+00
1.059284e+01	-2.196740e+00
1.065403e+01	-2.216924e+00
1.071556e+01	-2.236723e+00
1.077746e+01	-2.257069e+00
1.083971e+01	-2.277559e+00
1.090232e+01	-2.297902e+00
1.096529e+01	-2.318412e+00
1.102862e+01	-2.339388e+00
1.109232e+01	-2.360099e+00
1.115639e+01	-2.381473e+00
1.122083e+01	-2.402110e+00
1.128564e+01	-2.423647e+00
1.135083e+01	-2.445352e+00
1.141639e+01	-2.466698e+00
1.148233e+01	-2.488417e+00
1.154865e+01	-2.510485e+00
1.161536e+01	-2.532237e+00
1.168245e+01	-2.554738e+00
1.174992e+01	-2.576905e+00
1.181779e+01	-2.599514e+00
1.188605e+01	-2.621874e+00
1.195470e+01	-2.644636e+00
1.202375e+01	-2.667591e+00
1.209320e+01	-2.690883e+00
1.216305e+01	-2.713921e+00
1.223330e+01	-2.737207e+00
1.230396e+01	-2.760659e+00
1.237503e+01	-2.784277e+00
1.244651e+01	-2.807767e+00
1.251840e+01	-2.831830e+00
1.259070e+01	-2.855833e+00
1.266343e+01	-2.880142e+00
1.273657e+01	-2.904334e+00
1.281014e+01	-2.928696e+00
1.288413e+01	-2.953320e+00
1.295855e+01	-2.978289e+00
1.303339e+01	-3.003283e+00
1.310867e+01	-3.028137e+00
1.318439e+01	-3.053229e+00
1.326054e+01	-3.078812e+00
1.333713e+01	-3.104084e+00
1.341417e+01	-3.129975e+00
1.349165e+01	-3.155550e+00
1.356958e+01	-3.181438e+00
1.364795e+01	-3.207402e+00
1.372678e+01	-3.233656e+00
1.380607e+01	-3.260002e+00
1.388581e+01	-3.286542e+00
1.396602e+01	-3.313053e+00
1.404668e+01	-3.339771e+00
1.412782e+01	-3.367018e+00
1.420942e+01	-3.393747e+00
1.429149e+01	-3.421004e+00
1.437404e+01	-3.448253e+00
1.445706e+01	-3.475718e+00
1.454057e+01	-3.503756e+00
1.462455e+01	-3.531275e+00
1.470902e+01	-3.559117e+00
1.479398e+01	-3.587343e+00
1.487943e+01	-3.615586e+00
1.496537e+01	-3.643527e+00
1.505181e+01	-3.672480e+00
1.513875e+01	-3.700863e+00
1.522619e+01	-3.729645e+00
1.531414e+01	-3.758665e+00
1.540259e+01	-3.787732e+00
1.549156e+01	-3.816706e+00
1.558103e+01	-3.846050e+00
1.567103e+01	-3.875697e+00
1.576155e+01	-3.905317e+00
1.585258e+01	-3.934676e+00
1.594415e+01	-3.964578e+00
1.603624e+01	-3.994653e+00
1.612886e+01	-4.024987e+00
1.622202e+01	-4.055193e+00
1.631572e+01	-4.085617e+00
1.640996e+01	-4.116213e+00
1.650474e+01	-4.146974e+00
1.660008e+01	-4.177849e+00
1.669596e+01	-4.208780e+00
1.679239e+01	-4.239874e+00
1.688938e+01	-4.271036e+00
1.698694e+01	-4.302474e+00
1.708505e+01	-4.334015e+00
1.718373e+01	-4.365496e+00
1.728299e+01	-4.397612e+00
1.738281e+01	-4.429282e+00
1.748322e+01	-4.461353e+00
1.758420e+01	-4.493437e+00
1.768576e+01	-4.525877e+00
1.778792e+01	-4.558478e+00
1.789066e+01	-4.590945e+00
1.799399e+01	-4.623711e+00
1.809793e+01	-4.656618e+00
1.820246e+01	-4.689702e+00
1.830760e+01	-4.722469e+00
1.841334e+01	-4.755891e+00
1.851969e+01	-4.788965e+00
1.862666e+01	-4.822652e+00
1.873425e+01	-4.856046e+00
1.884246e+01	-4.889909e+00
1.895129e+01	-4.923712e+00
1.906075e+01	-4.957634e+00
1.917085e+01	-4.991919e+00
1.928158e+01	-5.026044e+00
1.939295e+01	-5.060755e+00
1.950496e+01	-5.095092e+00
1.961762e+01	-5.129554e+00
1.973093e+01	-5.164272e+00
1.984490e+01	-5.199200e+00
1.995952e+01	-5.234213e+00
2.007480e+01	-5.269123e+00
2.019076e+01	-5.304619e+00
2.030738e+01	-5.339756e+00
2.042467e+01	-5.375355e+00
2.054264e+01	-5.410952e+00
2.066130e+01	-5.446637e+00
2.078064e+01	-5.482017e+00
2.090066e+01	-5.518105e+00
2.102139e+01	-5.554233e+00
2.114280e+01	-5.590474e+00
2.126492e+01	-5.626857e+00
2.138775e+01	-5.663329e+00
2.151128e+01	-5.699633e+00
2.163553e+01	-5.736111e+00
2.176050e+01	-5.773272e+00
2.188619e+01	-5.809901e+00
2.201260e+01	-5.846560e+00
2.213974e+01	-5.883812e+00
2.226762e+01	-5.921040e+00
2.239624e+01	-5.958390e+00
2.252560e+01	-5.995958e+00
2.265571e+01	-6.033117e+00
2.278656e+01	-6.070681e+00
2.291818e+01	-6.108632e+00
2.305055e+01	-6.146426e+00
2.318369e+01	-6.183984e+00
2.331760e+01	-6.222530e+00
2.345228e+01	-6.260256e+00
2.358774e+01	-6.298882e+00
2.372398e+01	-6.337192e+00
2.386101e+01	-6.375286e+00
2.399883e+01	-6.414232e+00
2.413745e+01	-6.452698e+00
2.427686e+01	-6.491476e+00
2.441709e+01	-6.530458e+00
2.455812e+01	-6.569508e+00
2.469997e+01	-6.608526e+00
2.484263e+01	-6.647705e+00
2.498612e+01	-6.686982e+00
2.513044e+01	-6.726365e+00
2.527559e+01	-6.765503e+00
2.542158e+01	-6.804878e+00
2.556842e+01	-6.844971e+00
2.571610e+01	-6.884420e+00
2.586463e+01	-6.924123e+00
2.601403e+01	-6.964030e+00
2.616428e+01	-7.004349e+00
2.631541e+01	-7.044117e+00
2.646740e+01	-7.084571e+00
2.662028e+01	-7.124528e+00
2.677404e+01	-7.165286e+00
2.692868e+01	-7.205581e+00
2.708422e+01	-7.246123e+00
2.724066e+01	-7.286845e+00
2.739800e+01	-7.327734e+00
2.755625e+01	-7.368499e+00
2.771541e+01	-7.409041e+00
2.787550e+01	-7.450047e+00
2.803650e+01	-7.491345e+00
2.819844e+01	-7.532434e+00
2.836131e+01	-7.573496e+00
2.852513e+01	-7.615110e+00
2.868989e+01	-7.656520e+00
2.885560e+01	-7.697502e+00
2.902227e+01	-7.739184e+00
2.918990e+01	-7.781415e+00
2.935850e+01	-7.822735e+00
2.952807e+01	-7.865091e+00
2.969863e+01	-7.906482e+00
2.987016e+01	-7.948285e+00
3.004269e+01	-7.990714e+00
3.021622e+01	-8.032513e+00
3.039075e+01	-8.074573e+00
3.056628e+01	-8.117242e+00
3.074283e+01	-8.159304e+00
3.092040e+01	-8.201529e+00
3.109900e+01	-8.244508e+00
3.127862e+01	-8.287190e+00
3.145929e+01	-8.329715e+00
3.164099e+01	-8.372249e+00
3.182375e+01	-8.415015e+00
3.200756e+01	-8.457848e+00
3.219244e+01	-8.500804e+00
3.237838e+01	-8.543509e+00
3.256540e+01	-8.586749e+00
3.275349e+01	-8.629694e+00
3.294268e+01	-8.672970e+00
3.313295e+01	-8.716413e+00
3.332433e+01	-8.759583e+00
3.351681e+01	-8.803294e+00
3.371040e+01	-8.846573e+00
3.390511e+01	-8.890695e+00
3.410094e+01	-8.934029e+00
3.429791e+01	-8.977693e+00
3.449601e+01	-9.021052e+00
3.469526e+01	-9.064571e+00
3.489566e+01	-9.108465e+00
3.509721e+01	-9.152261e+00
3.529993e+01	-9.196683e+00
3.550382e+01	-9.240566e+00
3.570889e+01	-9.285064e+00
3.591515e+01	-9.329069e+00
3.612259e+01	-9.373597e+00
3.633123e+01	-9.417386e+00
3.654108e+01	-9.461289e+00
3.675214e+01	-9.506326e+00
3.696442e+01	-9.550975e+00
3.717792e+01	-9.595276e+00
3.739266e+01	-9.639603e+00
3.760864e+01	-9.684741e+00
3.782587e+01	-9.729242e+00
3.804435e+01	-9.773435e+00
3.826409e+01	-9.818292e+00
3.848510e+01	-9.863035e+00
3.870739e+01	-9.908371e+00
3.893096e+01	-9.952732e+00
3.915583e+01	-9.997657e+00
3.938199e+01	-1.004367e+01
3.960946e+01	-1.008825e+01
3.983824e+01	-1.013361e+01
4.006834e+01	-1.017847e+01
4.029978e+01	-1.022425e+01
4.053255e+01	-1.026947e+01
4.076666e+01	-1.031442e+01
4.100213e+01	-1.035965e+01
4.123896e+01	-1.040561e+01
4.147715e+01	-1.045086e+01
4.171672e+01	-1.049648e+01
4.195767e+01	-1.054253e+01
4.220002e+01	-1.058755e+01
4.244377e+01	-1.063367e+01
4.268892e+01	-1.067887e+01
4.293549e+01	-1.072428e+01
4.318348e+01	-1.077067e+01
4.343291e+01	-1.081639e+01
4.368377e+01	-1.086246e+01
4.393609e+01	-1.090806e+01
4.418986e+01	-1.095446e+01
4.444510e+01	-1.100066e+01
4.470182e+01	-1.104631e+01
4.496001e+01	-1.109291e+01
4.521970e+01	-1.113870e+01
4.548089e+01	-1.118532e+01
4.574358e+01	-1.123111e+01
4.600779e+01	-1.127760e+01
4.627353e+01	-1.132386e+01
4.654081e+01	-1.136982e+01
4.680963e+01	-1.141695e+01
4.708000e+01	-1.146316e+01
4.735193e+01	-1.151001e+01
4.762543e+01	-1.155606e+01
4.790051e+01	-1.160299e+01
4.817719e+01	-1.164917e+01
4.845545e+01	-1.169569e+01
4.873533e+01	-1.174232e+01
4.901682e+01	-1.178885e+01
4.929994e+01	-1.183550e+01
4.958470e+01	-1.188280e+01
4.987110e+01	-1.192883e+01
5.015915e+01	-1.197571e+01
5.044887e+01	-1.202306e+01
5.074026e+01	-1.207051e+01
5.103333e+01	-1.211655e+01
5.132810e+01	-1.216408e+01
5.162457e+01	-1.221086e+01
5.192275e+01	-1.225792e+01
5.222265e+01	-1.230457e+01
5.252429e+01	-1.235137e+01
5.282767e+01	-1.239951e+01
5.313280e+01	-1.244709e+01
5.343969e+01	-1.249317e+01
5.374836e+01	-1.254053e+01
5.405880e+01	-1.258824e+01
5.437105e+01	-1.263581e+01
5.468509e+01	-1.268300e+01
5.500095e+01	-1.272993e+01
5.531863e+01	-1.277734e+01
5.563815e+01	-1.282453e+01
5.595951e+01	-1.287184e+01
5.628273e+01	-1.291944e+01
5.660782e+01	-1.296772e+01
5.693479e+01	-1.301440e+01
5.726364e+01	-1.306226e+01
5.759439e+01	-1.311010e+01
5.792705e+01	-1.315680e+01
5.826164e+01	-1.320542e+01
5.859815e+01	-1.325195e+01
5.893662e+01	-1.330123e+01
5.927703e+01	-1.334756e+01
5.961941e+01	-1.339665e+01
5.996377e+01	-1.344331e+01
6.031012e+01	-1.349201e+01
6.065847e+01	-1.353838e+01
6.100883e+01	-1.358661e+01
6.136121e+01	-1.363492e+01
6.171563e+01	-1.368310e+01
6.207210e+01	-1.373096e+01
6.243063e+01	-1.377863e+01
6.279122e+01	-1.382667e+01
6.315390e+01	-1.387431e+01
6.351868e+01	-1.392140e+01
6.388556e+01	-1.397041e+01
6.425456e+01	-1.401879e+01
6.462569e+01	-1.406650e+01
6.499897e+01	-1.411418e+01
6.537440e+01	-1.416248e+01
6.575200e+01	-1.421068e+01
6.613178e+01	-1.425846e+01
6.651375e+01	-1.430770e+01
6.689793e+01	-1.435564e+01
6.728433e+01	-1.440390e+01
6.767297e+01	-1.445142e+01
6.806384e+01	-1.450012e+01
6.845698e+01	-1.454868e+01
6.885238e+01	-1.459621e+01
6.925007e+01	-1.464497e+01
6.965005e+01	-1.469439e+01
7.005235e+01	-1.474188e+01
7.045697e+01	-1.478988e+01
7.086393e+01	-1.483791e+01
7.127323e+01	-1.488715e+01
7.168490e+01	-1.493457e+01
7.209895e+01	-1.498362e+01
7.251539e+01	-1.503130e+01
7.293424e+01	-1.508074e+01
7.335551e+01	-1.512863e+01
7.377920e+01	-1.517625e+01
7.420535e+01	-1.522668e+01
7.463396e+01	-1.527517e+01
7.506504e+01	-1.532267e+01
7.549861e+01	-1.537166e+01
7.593469e+01	-1.542053e+01
7.637328e+01	-1.546806e+01
7.681441e+01	-1.551696e+01
7.725809e+01	-1.556566e+01
7.770433e+01	-1.561489e+01
7.815315e+01	-1.566351e+01
7.860456e+01	-1.571162e+01
7.905857e+01	-1.575974e+01
7.951521e+01	-1.580911e+01
7.997449e+01	-1.585864e+01
8.043642e+01	-1.590763e+01
8.090102e+01	-1.595585e+01
8.136830e+01	-1.600478e+01
8.183828e+01	-1.605373e+01
8.231097e+01	-1.610195e+01
8.278640e+01	-1.615038e+01
8.326457e+01	-1.619901e+01
8.374550e+01	-1.624967e+01
8.422921e+01	-1.629700e+01
8.471572e+01	-1.634679e+01
8.520503e+01	-1.639486e+01
8.569717e+01	-1.644377e+01
8.619215e+01	-1.649298e+01
8.669000e+01	-1.654216e+01
8.719071e+01	-1.658978e+01
8.769432e+01	-1.663863e+01
8.820084e+01	-1.668857e+01
8.871029e+01	-1.673734e+01
8.922267e+01	-1.678691e+01
8.973802e+01	-1.683522e+01
9.025634e+01	-1.688470e+01
9.077766e+01	-1.693342e+01
9.130199e+01	-1.698257e+01
9.182935e+01	-1.703161e+01
9.235975e+01	-1.708136e+01
9.289321e+01	-1.712932e+01
9.342976e+01	-1.717966e+01
9.396941e+01	-1.722757e+01
9.451217e+01	-1.727607e+01
9.505807e+01	-1.732588e+01
9.560712e+01	-1.737493e+01
9.615934e+01	-1.742530e+01
9.671476e+01	-1.747342e+01
9.727338e+01	-1.752318e+01
9.783522e+01	-1.757190e+01
9.840032e+01	-1.762051e+01
9.896867e+01	-1.767002e+01
9.954031e+01	-1.771866e+01
1.001153e+02	-1.776795e+01
1.006935e+02	-1.781807e+01
1.012751e+02	-1.786732e+01
1.018601e+02	-1.791632e+01
1.024484e+02	-1.796422e+01
1.030402e+02	-1.801602e+01
1.036353e+02	-1.806213e+01
1.042339e+02	-1.811180e+01
1.048360e+02	-1.816249e+01
1.054415e+02	-1.821049e+01
1.060505e+02	-1.825990e+01
1.066631e+02	-1.830986e+01
1.072791e+02	-1.835929e+01
1.078988e+02	-1.840861e+01
1.085220e+02	-1.845687e+01
1.091488e+02	-1.850864e+01
1.097793e+02	-1.855703e+01
1.104133e+02	-1.860491e+01
1.110511e+02	-1.865359e+01
1.116925e+02	-1.870423e+01
1.123376e+02	-1.875466e+01
1.129865e+02	-1.880421e+01
1.136391e+02	-1.885244e+01
1.142955e+02	-1.890268e+01
1.149556e+02	-1.895201e+01
1.156196e+02	-1.900051e+01
1.162874e+02	-1.905022e+01
1.169591e+02	-1.909882e+01
1.176347e+02	-1.915030e+01
1.183141e+02	-1.919882e+01
1.189975e+02	-1.924774e+01
1.196848e+02	-1.929659e+01
1.203761e+02	-1.934547e+01
1.210714e+02	-1.939861e+01
1.217707e+02	-1.944568e+01
1.224740e+02	-1.949678e+01
1.231814e+02	-1.954354e+01
1.238929e+02	-1.959495e+01
1.246085e+02	-1.964345e+01
1.253283e+02	-1.969214e+01
1.260522e+02	-1.974151e+01
1.267802e+02	-1.979237e+01
1.275125e+02	-1.984338e+01
1.282490e+02	-1.989015e+01
1.289898e+02	-1.994030e+01
1.297348e+02	-1.999248e+01
1.304842e+02	-2.003977e+01
1.312378e+02	-2.008898e+01
1.319959e+02	-2.013887e+01
1.327583e+02	-2.018740e+01
1.335251e+02	-2.023837e+01
1.342963e+02	-2.028734e+01
1.350720e+02	-2.033731e+01
1.358522e+02	-2.038633e+01
1.366368e+02	-2.043620e+01
1.374260e+02	-2.048611e+01
1.382198e+02	-2.053636e+01
1.390182e+02	-2.058579e+01
1.398211e+02	-2.063664e+01
1.406287e+02	-2.068418e+01
1.414410e+02	-2.073331e+01
1.422579e+02	-2.078324e+01
1.430796e+02	-2.083356e+01
1.439060e+02	-2.088382e+01
1.447372e+02	-2.093281e+01
1.455732e+02	-2.098364e+01
1.464141e+02	-2.103074e+01
1.472597e+02	-2.108146e+01
1.481103e+02	-2.113149e+01
1.489658e+02	-2.117986e+01
1.498262e+02	-2.122803e+01
1.506916e+02	-2.128211e+01
1.515620e+02	-2.133131e+01
1.524374e+02	-2.137738e+01
1.533179e+02	-2.142770e+01
1.542034e+02	-2.147805e+01
1.550941e+02	-2.152675e+01
1.559899e+02	-2.157684e+01
1.568909e+02	-2.162752e+01
1.577971e+02	-2.167550e+01
1.587085e+02	-2.172572e+01
1.596252e+02	-2.177857e+01
1.605472e+02	-2.182679e+01
1.614745e+02	-2.187548e+01
1.624072e+02	-2.192730e+01
1.633453e+02	-2.197540e+01
1.642887e+02	-2.202580e+01
1.652377e+02	-2.207482e+01
1.661921e+02	-2.212630e+01
1.671520e+02	-2.217291e+01
1.681175e+02	-2.222395e+01
1.690885e+02	-2.227603e+01
1.700651e+02	-2.232336e+01
1.710474e+02	-2.237541e+01
1.720354e+02	-2.242383e+01
1.730291e+02	-2.247302e+01
1.740285e+02	-2.252385e+01
1.750337e+02	-2.257289e+01
1.760446e+02	-2.262005e+01
1.770615e+02	-2.267276e+01
1.780842e+02	-2.272307e+01
1.791128e+02	-2.277210e+01
1.801473e+02	-2.282238e+01
1.811878e+02	-2.287368e+01
1.822344e+02	-2.292048e+01
1.832870e+02	-2.297395e+01
1.843456e+02	-2.302007e+01
1.854104e+02	-2.307172e+01
1.864813e+02	-2.311979e+01
1.875584e+02	-2.316821e+01
1.886418e+02	-2.321985e+01
1.897313e+02	-2.326818e+01
1.908272e+02	-2.331946e+01
1.919294e+02	-2.337053e+01
1.930380e+02	-2.341858e+01
1.941530e+02	-2.346819e+01
1.952744e+02	-2.351874e+01
1.964023e+02	-2.357214e+01
1.975367e+02	-2.361967e+01
1.986777e+02	-2.366735e+01
1.998252e+02	-2.372084e+01
2.009794e+02	-2.376562e+01
2.021403e+02	-2.381741e+01
2.033078e+02	-2.386758e+01
2.044821e+02	-2.391621e+01
2.056632e+02	-2.396807e+01
2.068511e+02	-2.401933e+01
2.080459e+02	-2.406628e+01
2.092475e+02	-2.411326e+01
2.104561e+02	-2.416718e+01
2.116717e+02	-2.421590e+01
2.128943e+02	-2.426592e+01
2.141240e+02	-2.431672e+01
2.153608e+02	-2.436489e+01
2.166047e+02	-2.441582e+01
2.178558e+02	-2.446662e+01
2.191141e+02	-2.451890e+01
2.203797e+02	-2.456795e+01
2.216526e+02	-2.461481e+01
2.229329e+02	-2.466787e+01
2.242205e+02	-2.471575e+01
2.255156e+02	-2.476435e+01
2.268182e+02	-2.481543e+01
2.281283e+02	-2.486438e+01
2.294459e+02	-2.491498e+01
2.307712e+02	-2.496800e+01
2.321041e+02	-2.501432e+01
2.334447e+02	-2.506332e+01
2.347931e+02	-2.511342e+01
2.361493e+02	-2.516145e+01
2.375133e+02	-2.521368e+01
2.388851e+02	-2.526607e+01
2.402649e+02	-2.531434e+01
2.416527e+02	-2.536303e+01
2.430484e+02	-2.541538e+01
2.444523e+02	-2.546464e+01
2.458642e+02	-2.551399e+01
2.472843e+02	-2.556694e+01
2.487126e+02	-2.561319e+01
2.501492e+02	-2.566698e+01
2.515940e+02	-2.571027e+01
2.530472e+02	-2.576586e+01
2.545088e+02	-2.581488e+01
2.559789e+02	-2.586424e+01
2.574574e+02	-2.591553e+01
2.589444e+02	-2.596338e+01
2.604401e+02	-2.601303e+01
2.619444e+02	-2.606445e+01
2.634574e+02	-2.611516e+01
2.649791e+02	-2.616504e+01
2.665096e+02	-2.621336e+01
2.680489e+02	-2.625894e+01
2.695972e+02	-2.631374e+01
2.711544e+02	-2.636983e+01
2.727205e+02	-2.641108e+01
2.742958e+02	-2.646491e+01
2.758801e+02	-2.651196e+01
2.774736e+02	-2.656428e+01
2.790762e+02	-2.661430e+01
2.806882e+02	-2.666302e+01
2.823094e+02	-2.671322e+01
2.839400e+02	-2.676539e+01
2.855800e+02	-2.681031e+01
2.872295e+02	-2.686636e+01
2.888886e+02	-2.690962e+01
2.905572e+02	-2.696005e+01
2.922354e+02	-2.701329e+01
2.939234e+02	-2.706274e+01
2.956211e+02	-2.711100e+01
2.973286e+02	-2.716153e+01
2.990459e+02	-2.721729e+01
3.007732e+02	-2.726343e+01
3.025104e+02	-2.731202e+01
3.042577e+02	-2.736474e+01
3.060151e+02	-2.741112e+01
3.077826e+02	-2.746168e+01
3.095604e+02	-2.751549e+01
3.113484e+02	-2.756409e+01
3.131467e+02	-2.761441e+01
3.149554e+02	-2.766480e+01
3.167746e+02	-2.771225e+01
3.186043e+02	-2.776203e+01
3.204445e+02	-2.781453e+01
3.222954e+02	-2.786290e+01
3.241570e+02	-2.791105e+01
3.260293e+02	-2.796107e+01
3.279124e+02	-2.801328e+01
3.298064e+02	-2.806027e+01
3.317114e+02	-2.811203e+01
3.336273e+02	-2.816218e+01
3.355544e+02	-2.821007e+01
3.374925e+02	-2.826473e+01
3.394418e+02	-2.831852e+01
3.414024e+02	-2.836469e+01
3.433744e+02	-2.840914e+01
3.453577e+02	-2.845808e+01
3.473525e+02	-2.851233e+01
3.493588e+02	-2.856406e+01
3.513766e+02	-2.861239e+01
3.534062e+02	-2.866518e+01
3.554474e+02	-2.871016e+01
3.575005e+02	-2.876152e+01
3.595654e+02	-2.881268e+01
3.616422e+02	-2.886375e+01
3.637311e+02	-2.890969e+01
3.658320e+02	-2.896102e+01
3.679450e+02	-2.901417e+01
3.700702e+02	-2.906252e+01
3.722077e+02	-2.911462e+01
3.743576e+02	-2.916573e+01
3.765199e+02	-2.921573e+01
3.786946e+02	-2.926401e+01
3.808820e+02	-2.931362e+01
3.830819e+02	-2.936435e+01
3.852946e+02	-2.941154e+01
3.875200e+02	-2.946173e+01
3.897583e+02	-2.951461e+01
3.920096e+02	-2.956499e+01
3.942738e+02	-2.961390e+01
3.965511e+02	-2.966737e+01
3.988416e+02	-2.971439e+01
4.011452e+02	-2.976349e+01
4.034622e+02	-2.981563e+01
4.057926e+02	-2.986452e+01
4.081365e+02	-2.991961e+01
4.104938e+02	-2.996475e+01
4.128648e+02	-3.001650e+01
4.152495e+02	-3.006071e+01
4.176480e+02	-3.012338e+01
4.200603e+02	-3.016352e+01
4.224866e+02	-3.021081e+01
4.249268e+02	-3.026345e+01
4.273812e+02	-3.031485e+01
4.298497e+02	-3.036217e+01
4.323325e+02	-3.041582e+01
4.348297e+02	-3.046878e+01
4.373412e+02	-3.051566e+01
4.398673e+02	-3.056043e+01
4.424079e+02	-3.061405e+01
4.449633e+02	-3.066619e+01
4.475334e+02	-3.071589e+01
4.501183e+02	-3.076103e+01
4.527182e+02	-3.081278e+01
4.553330e+02	-3.086871e+01
4.579630e+02	-3.091297e+01
4.606082e+02	-3.096186e+01
4.632687e+02	-3.101912e+01
4.659445e+02	-3.106562e+01
4.686358e+02	-3.111728e+01
4.713426e+02	-3.116352e+01
4.740650e+02	-3.121877e+01
4.768032e+02	-3.126827e+01
4.795572e+02	-3.131747e+01
4.823271e+02	-3.137789e+01
4.851130e+02	-3.141726e+01
4.879150e+02	-3.146964e+01
4.907332e+02	-3.151812e+01
4.935676e+02	-3.156502e+01
4.964185e+02	-3.161695e+01
4.992858e+02	-3.166986e+01
5.021696e+02	-3.172179e+01
5.050701e+02	-3.176335e+01
5.079874e+02	-3.182009e+01
5.109215e+02	-3.186509e+01
5.138726e+02	-3.191672e+01
5.168407e+02	-3.196537e+01
5.198259e+02	-3.201197e+01
5.228284e+02	-3.206907e+01
5.258482e+02	-3.211882e+01
5.288855e+02	-3.217133e+01
5.319403e+02	-3.222088e+01
5.350128e+02	-3.226962e+01
5.381030e+02	-3.232509e+01
5.412111e+02	-3.237081e+01
5.443371e+02	-3.242435e+01
5.474812e+02	-3.247675e+01
5.506434e+02	-3.251605e+01
5.538239e+02	-3.256686e+01
5.570228e+02	-3.261869e+01
5.602401e+02	-3.267969e+01
5.634760e+02	-3.272213e+01
5.667306e+02	-3.277367e+01
5.700040e+02	-3.282660e+01
5.732964e+02	-3.287670e+01
5.766077e+02	-3.292326e+01
5.799382e+02	-3.297273e+01
5.832879e+02	-3.302370e+01
5.866569e+02	-3.307269e+01
5.900454e+02	-3.312637e+01
5.934535e+02	-3.317130e+01
5.968813e+02	-3.322602e+01
6.003288e+02	-3.326906e+01
6.037963e+02	-3.332411e+01
6.072838e+02	-3.337726e+01
6.107914e+02	-3.342565e+01
6.143194e+02	-3.347984e+01
6.178676e+02	-3.353013e+01
6.214364e+02	-3.358200e+01
6.250258e+02	-3.362609e+01
6.286359e+02	-3.367385e+01
6.322669e+02	-3.373098e+01
6.359189e+02	-3.377332e+01
6.395919e+02	-3.382895e+01
6.432862e+02	-3.387747e+01
6.470017e+02	-3.392623e+01
6.507388e+02	-3.397631e+01
6.544974e+02	-3.403718e+01
6.582778e+02	-3.408348e+01
6.620800e+02	-3.412209e+01
6.659041e+02	-3.418242e+01
6.697504e+02	-3.422935e+01
6.736188e+02	-3.427648e+01
6.775096e+02	-3.434499e+01
6.814229e+02	-3.438905e+01
6.853587e+02	-3.443455e+01
6.893173e+02	-3.448434e+01
6.932988e+02	-3.452989e+01
6.973033e+02	-3.458227e+01
7.013309e+02	-3.463484e+01
