Frequency(Hz)	Magnitude(dB)
1.000000e+01	-2.235234e+00
1.005776e+01	-2.255311e+00
1.011585e+01	-2.275856e+00
1.017428e+01	-2.296498e+00
1.023305e+01	-2.317092e+00
1.029215e+01	-2.337570e+00
1.035160e+01	-2.358510e+00
1.041139e+01	-2.379583e+00
1.047153e+01	-2.400956e+00
1.053201e+01	-2.421938e+00
1.059284e+01	-2.443603e+00
1.065403e+01	-2.465323e+00
1.071556e+01	-2.486808e+00
1.077746e+01	-2.508611e+00
1.083971e+01	-2.530914e+00
1.090232e+01	-2.552931e+00
1.096529e+01	-2.575276e+00
1.102862e+01	-2.597749e+00
1.109232e+01	-2.620336e+00
1.115639e+01	-2.642911e+00
1.122083e+01	-2.665941e+00
1.128564e+01	-2.688917e+00
1.135083e+01	-2.712351e+00
1.141639e+01	-2.735470e+00
1.148233e+01	-2.758815e+00
1.154865e+01	-2.782439e+00
1.161536e+01	-2.806282e+00
1.168245e+01	-2.830055e+00
1.174992e+01	-2.853990e+00
1.181779e+01	-2.878264e+00
1.188605e+01	-2.902582e+00
1.195470e+01	-2.927212e+00
1.202375e+01	-2.951789e+00
1.209320e+01	-2.976246e+00
1.216305e+01	-3.001363e+00
1.223330e+01	-3.026324e+00
1.230396e+01	-3.051530e+00
1.237503e+01	-3.076972e+00
1.244651e+01	-3.102459e+00
1.251840e+01	-3.128024e+00
1.259070e+01	-3.153640e+00
1.266343e+01	-3.179415e+00
1.273657e+01	-3.205559e+00
1.281014e+01	-3.231914e+00
1.288413e+01	-3.257998e+00
1.295855e+01	-3.284736e+00
1.303339e+01	-3.311174e+00
1.310867e+01	-3.337974e+00
1.318439e+01	-3.364746e+00
1.326054e+01	-3.391884e+00
1.333713e+01	-3.419142e+00
1.341417e+01	-3.446758e+00
1.349165e+01	-3.474136e+00
1.356958e+01	-3.501535e+00
1.364795e+01	-3.529124e+00
1.372678e+01	-3.557041e+00
1.380607e+01	-3.585308e+00
1.388581e+01	-3.613369e+00
1.396602e+01	-3.641543e+00
1.404668e+01	-3.670186e+00
1.412782e+01	-3.698655e+00
1.420942e+01	-3.727753e+00
1.429149e+01	-3.756538e+00
1.437404e+01	-3.785458e+00
1.445706e+01	-3.814511e+00
1.454057e+01	-3.843815e+00
1.462455e+01	-3.873534e+00
1.470902e+01	-3.903138e+00
1.479398e+01	-3.932802e+00
1.487943e+01	-3.962484e+00
1.496537e+01	-3.992561e+00
1.505181e+01	-4.022677e+00
1.513875e+01	-4.052999e+00
1.522619e+01	-4.083550e+00
1.531414e+01	-4.114105e+00
1.540259e+01	-4.144823e+00
1.549156e+01	-4.175775e+00
1.558103e+01	-4.206358e+00
1.567103e+01	-4.237880e+00
1.576155e+01	-4.268880e+00
1.585258e+01	-4.300238e+00
1.594415e+01	-4.331898e+00
1.603624e+01	-4.363455e+00
1.612886e+01	-4.395283e+00
1.622202e+01	-4.427017e+00
1.631572e+01	-4.459015e+00
1.640996e+01	-4.491026e+00
1.650474e+01	-4.523757e+00
1.660008e+01	-4.555888e+00
1.669596e+01	-4.588708e+00
1.679239e+01	-4.621266e+00
1.688938e+01	-4.654190e+00
1.698694e+01	-4.686945e+00
1.708505e+01	-4.720268e+00
1.718373e+01	-4.753201e+00
1.728299e+01	-4.786768e+00
1.738281e+01	-4.820118e+00
1.748322e+01	-4.853648e+00
1.758420e+01	-4.887649e+00
1.768576e+01	-4.921434e+00
1.778792e+01	-4.955386e+00
1.789066e+01	-4.989341e+00
1.799399e+01	-5.023582e+00
1.809793e+01	-5.057663e+00
1.820246e+01	-5.092528e+00
1.830760e+01	-5.126874e+00
1.841334e+01	-5.161539e+00
1.851969e+01	-5.196643e+00
1.862666e+01	-5.231781e+00
1.873425e+01	-5.266827e+00
1.884246e+01	-5.301540e+00
1.895129e+01	-5.337228e+00
1.906075e+01	-5.372777e+00
1.917085e+01	-5.408245e+00
1.928158e+01	-5.444064e+00
1.939295e+01	-5.479615e+00
1.950496e+01	-5.515804e+00
1.961762e+01	-5.551589e+00
1.973093e+01	-5.588059e+00
1.984490e+01	-5.624160e+00
1.995952e+01	-5.660710e+00
2.007480e+01	-5.697132e+00
2.019076e+01	-5.733831e+00
2.030738e+01	-5.770228e+00
2.042467e+01	-5.806665e+00
2.054264e+01	-5.844087e+00
2.066130e+01	-5.880772e+00
2.078064e+01	-5.918313e+00
2.090066e+01	-5.955397e+00
2.102139e+01	-5.992845e+00
2.114280e+01	-6.030561e+00
2.126492e+01	-6.068495e+00
2.138775e+01	-6.105877e+00
2.151128e+01	-6.143864e+00
2.163553e+01	-6.181856e+00
2.176050e+01	-6.219653e+00
2.188619e+01	-6.257294e+00
2.201260e+01	-6.295882e+00
2.213974e+01	-6.334173e+00
2.226762e+01	-6.372399e+00
2.239624e+01	-6.411311e+00
2.252560e+01	-6.449547e+00
2.265571e+01	-6.488424e+00
2.278656e+01	-6.527896e+00
2.291818e+01	-6.566683e+00
2.305055e+01	-6.605560e+00
2.318369e+01	-6.644560e+00
2.331760e+01	-6.683534e+00
2.345228e+01	-6.723599e+00
2.358774e+01	-6.762963e+00
2.372398e+01	-6.802377e+00
2.386101e+01	-6.841832e+00
2.399883e+01	-6.881213e+00
2.413745e+01	-6.921132e+00
2.427686e+01	-6.961190e+00
2.441709e+01	-7.001168e+00
2.455812e+01	-7.041405e+00
2.469997e+01	-7.081479e+00
2.484263e+01	-7.121795e+00
2.498612e+01	-7.162414e+00
2.513044e+01	-7.202585e+00
2.527559e+01	-7.243152e+00
2.542158e+01	-7.283972e+00
2.556842e+01	-7.324163e+00
2.571610e+01	-7.365499e+00
2.586463e+01	-7.406087e+00
2.601403e+01	-7.447191e+00
2.616428e+01	-7.488146e+00
2.631541e+01	-7.529330e+00
2.646740e+01	-7.570692e+00
2.662028e+01	-7.612187e+00
2.677404e+01	-7.653587e+00
2.692868e+01	-7.694806e+00
2.708422e+01	-7.736408e+00
2.724066e+01	-7.778187e+00
2.739800e+01	-7.819913e+00
2.755625e+01	-7.861650e+00
2.771541e+01	-7.903237e+00
2.787550e+01	-7.945892e+00
2.803650e+01	-7.987006e+00
2.819844e+01	-8.029340e+00
2.836131e+01	-8.071865e+00
2.852513e+01	-8.113784e+00
2.868989e+01	-8.156436e+00
2.885560e+01	-8.198740e+00
2.902227e+01	-8.241339e+00
2.918990e+01	-8.284053e+00
2.935850e+01	-8.326835e+00
2.952807e+01	-8.369017e+00
2.969863e+01	-8.411703e+00
2.987016e+01	-8.454423e+00
3.004269e+01	-8.498006e+00
3.021622e+01	-8.540790e+00
3.039075e+01	-8.583965e+00
3.056628e+01	-8.626758e+00
3.074283e+01	-8.669977e+00
3.092040e+01	-8.713278e+00
3.109900e+01	-8.756556e+00
3.127862e+01	-8.799873e+00
3.145929e+01	-8.843726e+00
3.164099e+01	-8.887153e+00
3.182375e+01	-8.930768e+00
3.200756e+01	-8.974673e+00
3.219244e+01	-9.018463e+00
3.237838e+01	-9.061604e+00
3.256540e+01	-9.105761e+00
3.275349e+01	-9.149422e+00
3.294268e+01	-9.193409e+00
3.313295e+01	-9.237496e+00
3.332433e+01	-9.281160e+00
3.351681e+01	-9.325806e+00
3.371040e+01	-9.369939e+00
3.390511e+01	-9.414241e+00
3.410094e+01	-9.458820e+00
3.429791e+01	-9.502856e+00
3.449601e+01	-9.547521e+00
3.469526e+01	-9.591953e+00
3.489566e+01	-9.636797e+00
3.509721e+01	-9.681080e+00
3.529993e+01	-9.725552e+00
3.550382e+01	-9.770706e+00
3.570889e+01	-9.815671e+00
3.591515e+01	-9.860216e+00
3.612259e+01	-9.905082e+00
3.633123e+01	-9.949902e+00
3.654108e+01	-9.995980e+00
3.675214e+01	-1.003992e+01
3.696442e+01	-1.008526e+01
3.717792e+01	-1.012996e+01
3.739266e+01	-1.017490e+01
3.760864e+01	-1.022086e+01
3.782587e+01	-1.026614e+01
3.804435e+01	-1.031154e+01
3.826409e+01	-1.035642e+01
3.848510e+01	-1.040221e+01
3.870739e+01	-1.044772e+01
3.893096e+01	-1.049360e+01
3.915583e+01	-1.053883e+01
3.938199e+01	-1.058479e+01
3.960946e+01	-1.063019e+01
3.983824e+01	-1.067600e+01
4.006834e+01	-1.072099e+01
4.029978e+01	-1.076770e+01
4.053255e+01	-1.081325e+01
4.076666e+01	-1.085858e+01
4.100213e+01	-1.090550e+01
4.123896e+01	-1.095119e+01
4.147715e+01	-1.099683e+01
4.171672e+01	-1.104374e+01
4.195767e+01	-1.108927e+01
4.220002e+01	-1.113501e+01
4.244377e+01	-1.118179e+01
4.268892e+01	-1.122790e+01
4.293549e+01	-1.127401e+01
4.318348e+01	-1.132055e+01
4.343291e+01	-1.136688e+01
4.368377e+01	-1.141268e+01
4.393609e+01	-1.145934e+01
4.418986e+01	-1.150625e+01
4.444510e+01	-1.155291e+01
4.470182e+01	-1.159931e+01
4.496001e+01	-1.164567e+01
4.521970e+01	-1.169256e+01
4.548089e+01	-1.173920e+01
4.574358e+01	-1.178578e+01
4.600779e+01	-1.183232e+01
4.627353e+01	-1.187964e+01
4.654081e+01	-1.192608e+01
4.680963e+01	-1.197280e+01
4.708000e+01	-1.202062e+01
4.735193e+01	-1.206631e+01
4.762543e+01	-1.211393e+01
4.790051e+01	-1.216057e+01
4.817719e+01	-1.220780e+01
4.845545e+01	-1.225488e+01
4.873533e+01	-1.230131e+01
4.901682e+01	-1.234876e+01
4.929994e+01	-1.239634e+01
4.958470e+01	-1.244332e+01
4.987110e+01	-1.248988e+01
5.015915e+01	-1.253740e+01
5.044887e+01	-1.258544e+01
5.074026e+01	-1.263191e+01
5.103333e+01	-1.267847e+01
5.132810e+01	-1.272644e+01
5.162457e+01	-1.277415e+01
5.192275e+01	-1.282098e+01
5.222265e+01	-1.286932e+01
5.252429e+01	-1.291661e+01
5.282767e+01	-1.296412e+01
5.313280e+01	-1.301127e+01
5.343969e+01	-1.305951e+01
5.374836e+01	-1.310566e+01
5.405880e+01	-1.315454e+01
5.437105e+01	-1.320124e+01
5.468509e+01	-1.324894e+01
5.500095e+01	-1.329644e+01
5.531863e+01	-1.334451e+01
5.563815e+01	-1.339199e+01
5.595951e+01	-1.344009e+01
5.628273e+01	-1.348767e+01
5.660782e+01	-1.353529e+01
5.693479e+01	-1.358338e+01
5.726364e+01	-1.363102e+01
5.759439e+01	-1.367947e+01
5.792705e+01	-1.372748e+01
5.826164e+01	-1.377474e+01
5.859815e+01	-1.382328e+01
5.893662e+01	-1.387153e+01
5.927703e+01	-1.391947e+01
5.961941e+01	-1.396763e+01
5.996377e+01	-1.401525e+01
6.031012e+01	-1.406333e+01
6.065847e+01	-1.411142e+01
6.100883e+01	-1.415945e+01
6.136121e+01	-1.420695e+01
6.171563e+01	-1.425528e+01
6.207210e+01	-1.430334e+01
6.243063e+01	-1.435189e+01
6.279122e+01	-1.439931e+01
6.315390e+01	-1.444778e+01
6.351868e+01	-1.449699e+01
6.388556e+01	-1.454494e+01
6.425456e+01	-1.459345e+01
6.462569e+01	-1.464129e+01
6.499897e+01	-1.469001e+01
6.537440e+01	-1.473798e+01
6.575200e+01	-1.478649e+01
6.613178e+01	-1.483513e+01
6.651375e+01	-1.488336e+01
6.689793e+01	-1.493154e+01
6.728433e+01	-1.498088e+01
6.767297e+01	-1.502887e+01
6.806384e+01	-1.507765e+01
6.845698e+01	-1.512537e+01
6.885238e+01	-1.517381e+01
6.925007e+01	-1.522210e+01
6.965005e+01	-1.527053e+01
7.005235e+01	-1.532031e+01
7.045697e+01	-1.536787e+01
7.086393e+01	-1.541615e+01
7.127323e+01	-1.546488e+01
7.168490e+01	-1.551278e+01
7.209895e+01	-1.556205e+01
7.251539e+01	-1.561160e+01
7.293424e+01	-1.565956e+01
7.335551e+01	-1.570786e+01
7.377920e+01	-1.575843e+01
7.420535e+01	-1.580595e+01
7.463396e+01	-1.585534e+01
7.506504e+01	-1.590281e+01
7.549861e+01	-1.595221e+01
7.593469e+01	-1.600093e+01
7.637328e+01	-1.604960e+01
7.681441e+01	-1.609878e+01
7.725809e+01	-1.614645e+01
7.770433e+01	-1.619625e+01
7.815315e+01	-1.624454e+01
7.860456e+01	-1.629385e+01
7.905857e+01	-1.634301e+01
7.951521e+01	-1.639117e+01
7.997449e+01	-1.644143e+01
8.043642e+01	-1.648941e+01
8.090102e+01	-1.653831e+01
8.136830e+01	-1.658734e+01
8.183828e+01	-1.663614e+01
8.231097e+01	-1.668445e+01
8.278640e+01	-1.673315e+01
8.326457e+01	-1.678223e+01
8.374550e+01	-1.683229e+01
8.422921e+01	-1.688099e+01
8.471572e+01	-1.692976e+01
8.520503e+01	-1.697857e+01
8.569717e+01	-1.702828e+01
8.619215e+01	-1.707689e+01
8.669000e+01	-1.712603e+01
8.719071e+01	-1.717567e+01
8.769432e+01	-1.722545e+01
8.820084e+01	-1.727282e+01
8.871029e+01	-1.732242e+01
8.922267e+01	-1.737061e+01
8.973802e+01	-1.742163e+01
9.025634e+01	-1.747048e+01
9.077766e+01	-1.751930e+01
9.130199e+01	-1.756800e+01
9.182935e+01	-1.761759e+01
9.235975e+01	-1.766696e+01
9.289321e+01	-1.771654e+01
9.342976e+01	-1.776545e+01
9.396941e+01	-1.781496e+01
9.451217e+01	-1.786368e+01
9.505807e+01	-1.791196e+01
9.560712e+01	-1.796351e+01
9.615934e+01	-1.801040e+01
9.671476e+01	-1.805964e+01
9.727338e+01	-1.811012e+01
9.783522e+01	-1.815826e+01
9.840032e+01	-1.820921e+01
9.896867e+01	-1.825685e+01
9.954031e+01	-1.830614e+01
1.001153e+02	-1.835497e+01
1.006935e+02	-1.840445e+01
1.012751e+02	-1.845470e+01
1.018601e+02	-1.850336e+01
1.024484e+02	-1.855394e+01
1.030402e+02	-1.860330e+01
1.036353e+02	-1.865187e+01
1.042339e+02	-1.870187e+01
1.048360e+02	-1.875083e+01
1.054415e+02	-1.879975e+01
1.060505e+02	-1.884887e+01
1.066631e+02	-1.889977e+01
1.072791e+02	-1.894743e+01
1.078988e+02	-1.899736e+01
1.085220e+02	-1.904848e+01
1.091488e+02	-1.909591e+01
1.097793e+02	-1.914534e+01
1.104133e+02	-1.919546e+01
1.110511e+02	-1.924368e+01
1.116925e+02	-1.929413e+01
1.123376e+02	-1.934221e+01
1.129865e+02	-1.939415e+01
1.136391e+02	-1.944277e+01
1.142955e+02	-1.949069e+01
1.149556e+02	-1.954301e+01
1.156196e+02	-1.959007e+01
1.162874e+02	-1.963998e+01
1.169591e+02	-1.968892e+01
1.176347e+02	-1.973994e+01
1.183141e+02	-1.978988e+01
1.189975e+02	-1.983872e+01
1.196848e+02	-1.988791e+01
1.203761e+02	-1.993761e+01
1.210714e+02	-1.998702e+01
1.217707e+02	-2.003558e+01
1.224740e+02	-2.008756e+01
1.231814e+02	-2.013415e+01
1.238929e+02	-2.018617e+01
1.246085e+02	-2.023473e+01
1.253283e+02	-2.028305e+01
1.260522e+02	-2.033255e+01
1.267802e+02	-2.038409e+01
1.275125e+02	-2.043173e+01
1.282490e+02	-2.048177e+01
1.289898e+02	-2.053192e+01
1.297348e+02	-2.058230e+01
1.304842e+02	-2.063069e+01
1.312378e+02	-2.067955e+01
1.319959e+02	-2.072978e+01
1.327583e+02	-2.078028e+01
1.335251e+02	-2.082907e+01
1.342963e+02	-2.087918e+01
1.350720e+02	-2.092959e+01
1.358522e+02	-2.097888e+01
1.366368e+02	-2.102632e+01
1.374260e+02	-2.107834e+01
1.382198e+02	-2.112698e+01
1.390182e+02	-2.117648e+01
1.398211e+02	-2.122572e+01
1.406287e+02	-2.127657e+01
1.414410e+02	-2.132597e+01
1.422579e+02	-2.137820e+01
1.430796e+02	-2.142596e+01
1.439060e+02	-2.147347e+01
1.447372e+02	-2.152572e+01
1.455732e+02	-2.157503e+01
1.464141e+02	-2.162441e+01
1.472597e+02	-2.167183e+01
1.481103e+02	-2.172312e+01
1.489658e+02	-2.177301e+01
1.498262e+02	-2.182334e+01
1.506916e+02	-2.187396e+01
1.515620e+02	-2.192388e+01
1.524374e+02	-2.197172e+01
1.533179e+02	-2.202143e+01
1.542034e+02	-2.207124e+01
1.550941e+02	-2.212164e+01
1.559899e+02	-2.217038e+01
1.568909e+02	-2.222038e+01
1.577971e+02	-2.227042e+01
1.587085e+02	-2.232063e+01
1.596252e+02	-2.236980e+01
1.605472e+02	-2.241882e+01
1.614745e+02	-2.247214e+01
1.624072e+02	-2.252040e+01
1.633453e+02	-2.256891e+01
1.642887e+02	-2.261936e+01
1.652377e+02	-2.266824e+01
1.661921e+02	-2.271976e+01
1.671520e+02	-2.276768e+01
1.681175e+02	-2.281884e+01
1.690885e+02	-2.286622e+01
1.700651e+02	-2.291832e+01
1.710474e+02	-2.296816e+01
1.720354e+02	-2.301757e+01
1.730291e+02	-2.306794e+01
1.740285e+02	-2.311676e+01
1.750337e+02	-2.316676e+01
1.760446e+02	-2.321662e+01
1.770615e+02	-2.326577e+01
1.780842e+02	-2.331602e+01
1.791128e+02	-2.336577e+01
1.801473e+02	-2.341848e+01
1.811878e+02	-2.346454e+01
1.822344e+02	-2.351574e+01
1.832870e+02	-2.356399e+01
1.843456e+02	-2.361620e+01
1.854104e+02	-2.366547e+01
1.864813e+02	-2.371640e+01
1.875584e+02	-2.376434e+01
1.886418e+02	-2.381380e+01
1.897313e+02	-2.386641e+01
1.908272e+02	-2.391067e+01
1.919294e+02	-2.396345e+01
1.930380e+02	-2.401271e+01
1.941530e+02	-2.406464e+01
1.952744e+02	-2.411531e+01
1.964023e+02	-2.416522e+01
1.975367e+02	-2.421390e+01
1.986777e+02	-2.426400e+01
1.998252e+02	-2.430926e+01
2.009794e+02	-2.436352e+01
2.021403e+02	-2.441150e+01
2.033078e+02	-2.446391e+01
2.044821e+02	-2.451263e+01
2.056632e+02	-2.456605e+01
2.068511e+02	-2.461186e+01
2.080459e+02	-2.466135e+01
2.092475e+02	-2.471331e+01
2.104561e+02	-2.476172e+01
2.116717e+02	-2.481209e+01
2.128943e+02	-2.486133e+01
2.141240e+02	-2.491291e+01
2.153608e+02	-2.496237e+01
2.166047e+02	-2.501013e+01
2.178558e+02	-2.506108e+01
2.191141e+02	-2.511217e+01
2.203797e+02	-2.515915e+01
2.216526e+02	-2.521303e+01
2.229329e+02	-2.526076e+01
2.242205e+02	-2.531304e+01
2.255156e+02	-2.536226e+01
2.268182e+02	-2.540856e+01
2.281283e+02	-2.545984e+01
2.294459e+02	-2.550999e+01
2.307712e+02	-2.556136e+01
2.321041e+02	-2.560999e+01
2.334447e+02	-2.566033e+01
2.347931e+02	-2.571030e+01
2.361493e+02	-2.575895e+01
2.375133e+02	-2.580823e+01
2.388851e+02	-2.585866e+01
2.402649e+02	-2.591001e+01
2.416527e+02	-2.595788e+01
2.430484e+02	-2.600978e+01
2.444523e+02	-2.605991e+01
2.458642e+02	-2.610918e+01
2.472843e+02	-2.615983e+01
2.487126e+02	-2.621123e+01
2.501492e+02	-2.625908e+01
2.515940e+02	-2.631319e+01
2.530472e+02	-2.635800e+01
2.545088e+02	-2.641075e+01
2.559789e+02	-2.645953e+01
2.574574e+02	-2.650855e+01
2.589444e+02	-2.656076e+01
2.604401e+02	-2.661378e+01
2.619444e+02	-2.666133e+01
2.634574e+02	-2.670999e+01
2.649791e+02	-2.676243e+01
2.665096e+02	-2.680718e+01
2.680489e+02	-2.685705e+01
2.695972e+02	-2.690971e+01
2.711544e+02	-2.695722e+01
2.727205e+02	-2.700826e+01
2.742958e+02	-2.705962e+01
2.758801e+02	-2.711169e+01
2.774736e+02	-2.716031e+01
2.790762e+02	-2.721362e+01
2.806882e+02	-2.725912e+01
2.823094e+02	-2.731257e+01
2.839400e+02	-2.736349e+01
2.855800e+02	-2.741175e+01
2.872295e+02	-2.746212e+01
2.888886e+02	-2.750818e+01
2.905572e+02	-2.756047e+01
2.922354e+02	-2.761145e+01
2.939234e+02	-2.766168e+01
2.956211e+02	-2.770738e+01
2.973286e+02	-2.776109e+01
2.990459e+02	-2.781302e+01
3.007732e+02	-2.785870e+01
3.025104e+02	-2.790700e+01
3.042577e+02	-2.795902e+01
3.060151e+02	-2.801021e+01
3.077826e+02	-2.805805e+01
3.095604e+02	-2.810645e+01
3.113484e+02	-2.815710e+01
3.131467e+02	-2.820843e+01
3.149554e+02	-2.826093e+01
3.167746e+02	-2.830986e+01
3.186043e+02	-2.835780e+01
3.204445e+02	-2.841051e+01
3.222954e+02	-2.845803e+01
3.241570e+02	-2.850983e+01
3.260293e+02	-2.856453e+01
3.279124e+02	-2.861051e+01
3.298064e+02	-2.865962e+01
3.317114e+02	-2.870631e+01
3.336273e+02	-2.875988e+01
3.355544e+02	-2.881095e+01
3.374925e+02	-2.886284e+01
3.394418e+02	-2.890831e+01
3.414024e+02	-2.895957e+01
3.433744e+02	-2.901263e+01
3.453577e+02	-2.906361e+01
3.473525e+02	-2.911034e+01
3.493588e+02	-2.916161e+01
3.513766e+02	-2.921095e+01
3.534062e+02	-2.925643e+01
3.554474e+02	-2.931487e+01
3.575005e+02	-2.936319e+01
3.595654e+02	-2.941124e+01
3.616422e+02	-2.946305e+01
3.637311e+02	-2.950957e+01
3.658320e+02	-2.955756e+01
3.679450e+02	-2.961432e+01
3.700702e+02	-2.965688e+01
3.722077e+02	-2.971143e+01
3.743576e+02	-2.976028e+01
3.765199e+02	-2.981311e+01
3.786946e+02	-2.986019e+01
3.808820e+02	-2.991370e+01
3.830819e+02	-2.996607e+01
3.852946e+02	-3.002053e+01
3.875200e+02	-3.006426e+01
3.897583e+02	-3.010985e+01
3.920096e+02	-3.016428e+01
3.942738e+02	-3.021308e+01
3.965511e+02	-3.025645e+01
3.988416e+02	-3.031031e+01
4.011452e+02	-3.036779e+01
4.034622e+02	-3.041166e+01
4.057926e+02	-3.046164e+01
4.081365e+02	-3.051063e+01
4.104938e+02	-3.055998e+01
4.128648e+02	-3.061599e+01
4.152495e+02	-3.066351e+01
4.176480e+02	-3.071880e+01
4.200603e+02	-3.076322e+01
4.224866e+02	-3.081156e+01
4.249268e+02	-3.086834e+01
4.273812e+02	-3.092019e+01
4.298497e+02	-3.096449e+01
4.323325e+02	-3.101893e+01
4.348297e+02	-3.106201e+01
4.373412e+02	-3.111376e+01
4.398673e+02	-3.115941e+01
4.424079e+02	-3.121746e+01
4.449633e+02	-3.126457e+01
4.475334e+02	-3.131652e+01
4.501183e+02	-3.136539e+01
4.527182e+02	-3.141714e+01
4.553330e+02	-3.146378e+01
4.579630e+02	-3.151826e+01
4.606082e+02	-3.157076e+01
4.632687e+02	-3.161563e+01
4.659445e+02	-3.167079e+01
4.686358e+02	-3.171090e+01
4.713426e+02	-3.176554e+01
4.740650e+02	-3.181428e+01
4.768032e+02	-3.186847e+01
4.795572e+02	-3.191787e+01
4.823271e+02	-3.197114e+01
4.851130e+02	-3.202207e+01
4.879150e+02	-3.206697e+01
4.907332e+02	-3.212237e+01
4.935676e+02	-3.216759e+01
4.964185e+02	-3.221695e+01
4.992858e+02	-3.227031e+01
5.021696e+02	-3.230772e+01
5.050701e+02	-3.237122e+01
5.079874e+02	-3.242069e+01
5.109215e+02	-3.247146e+01
5.138726e+02	-3.251537e+01
5.168407e+02	-3.256637e+01
5.198259e+02	-3.261911e+01
5.228284e+02	-3.267207e+01
5.258482e+02	-3.272247e+01
5.288855e+02	-3.277624e+01
5.319403e+02	-3.282801e+01
5.350128e+02	-3.286939e+01
5.381030e+02	-3.292460e+01
5.412111e+02	-3.297228e+01
5.443371e+02	-3.302464e+01
5.474812e+02	-3.307385e+01
5.506434e+02	-3.312290e+01
5.538239e+02	-3.317715e+01
5.570228e+02	-3.322762e+01
5.602401e+02	-3.327255e+01
5.634760e+02	-3.331526e+01
5.667306e+02	-3.337610e+01
5.700040e+02	-3.342373e+01
5.732964e+02	-3.347842e+01
5.766077e+02	-3.352248e+01
5.799382e+02	-3.358093e+01
5.832879e+02	-3.362337e+01
5.866569e+02	-3.368080e+01
5.900454e+02	-3.372441e+01
5.934535e+02	-3.377040e+01
5.968813e+02	-3.383025e+01
6.003288e+02	-3.387429e+01
6.037963e+02	-3.392944e+01
6.072838e+02	-3.397921e+01
6.107914e+02	-3.402808e+01
6.143194e+02	-3.408331e+01
6.178676e+02	-3.412700e+01
6.214364e+02	-3.418635e+01
6.250258e+02	-3.422232e+01
6.286359e+02	-3.428652e+01
6.322669e+02	-3.433291e+01
6.359189e+02	-3.438377e+01
6.395919e+02	-3.442051e+01
6.432862e+02	-3.447731e+01
6.470017e+02	-3.453794e+01
6.507388e+02	-3.458225e+01
6.544974e+02	-3.464222e+01
6.582778e+02	-3.468382e+01
6.620800e+02	-3.472531e+01
6.659041e+02	-3.477734e+01
6.697504e+02	-3.483721e+01
6.736188e+02	-3.488488e+01
6.775096e+02	-3.492740e+01
6.814229e+02	-3.498563e+01
6.853587e+02	-3.503934e+01
6.893173e+02	-3.508710e+01
6.932988e+02	-3.514279e+01
6.973033e+02	-3.518618e+01
7.013309e+02	-3.522773e+01
