Frequency(Hz)	Magnitude(dB)
1.000000e+01	-1.734383e-05
1.005776e+01	-1.754476e-05
1.011585e+01	-1.774802e-05
1.017428e+01	-1.795364e-05
1.023305e+01	-1.816163e-05
1.029215e+01	-1.837204e-05
1.035160e+01	-1.858488e-05
1.041139e+01	-1.880020e-05
1.047153e+01	-1.901800e-05
1.053201e+01	-1.923833e-05
1.059284e+01	-1.946121e-05
1.065403e+01	-1.968667e-05
1.071556e+01	-1.991475e-05
1.077746e+01	-2.014547e-05
1.083971e+01	-2.037886e-05
1.090232e+01	-2.061495e-05
1.096529e+01	-2.085378e-05
1.102862e+01	-2.109538e-05
1.109232e+01	-2.133977e-05
1.115639e+01	-2.158700e-05
1.122083e+01	-2.183709e-05
1.128564e+01	-2.209008e-05
1.135083e+01	-2.234600e-05
1.141639e+01	-2.260488e-05
1.148233e+01	-2.286676e-05
1.154865e+01	-2.313168e-05
1.161536e+01	-2.339967e-05
1.168245e+01	-2.367076e-05
1.174992e+01	-2.394499e-05
1.181779e+01	-2.422240e-05
1.188605e+01	-2.450302e-05
1.195470e+01	-2.478689e-05
1.202375e+01	-2.507406e-05
1.209320e+01	-2.536454e-05
1.216305e+01	-2.565840e-05
1.223330e+01	-2.595566e-05
1.230396e+01	-2.625636e-05
1.237503e+01	-2.656055e-05
1.244651e+01	-2.686826e-05
1.251840e+01	-2.717953e-05
1.259070e+01	-2.749441e-05
1.266343e+01	-2.781294e-05
1.273657e+01	-2.813516e-05
1.281014e+01	-2.846112e-05
1.288413e+01	-2.879084e-05
1.295855e+01	-2.912439e-05
1.303339e+01	-2.946181e-05
1.310867e+01	-2.980313e-05
1.318439e+01	-3.014840e-05
1.326054e+01	-3.049768e-05
1.333713e+01	-3.085100e-05
1.341417e+01	-3.120842e-05
1.349165e+01	-3.156998e-05
1.356958e+01	-3.193572e-05
1.364795e+01	-3.230571e-05
1.372678e+01	-3.267998e-05
1.380607e+01	-3.305858e-05
1.388581e+01	-3.344157e-05
1.396602e+01	-3.382900e-05
1.404668e+01	-3.422092e-05
1.412782e+01	-3.461737e-05
1.420942e+01	-3.501843e-05
1.429149e+01	-3.542412e-05
1.437404e+01	-3.583452e-05
1.445706e+01	-3.624967e-05
1.454057e+01	-3.666963e-05
1.462455e+01	-3.709446e-05
1.470902e+01	-3.752420e-05
1.479398e+01	-3.795893e-05
1.487943e+01	-3.839869e-05
1.496537e+01	-3.884355e-05
1.505181e+01	-3.929356e-05
1.513875e+01	-3.974879e-05
1.522619e+01	-4.020929e-05
1.531414e+01	-4.067512e-05
1.540259e+01	-4.114635e-05
1.549156e+01	-4.162304e-05
1.558103e+01	-4.210525e-05
1.567103e+01	-4.259305e-05
1.576155e+01	-4.308650e-05
1.585258e+01	-4.358567e-05
1.594415e+01	-4.409062e-05
1.603624e+01	-4.460142e-05
1.612886e+01	-4.511813e-05
1.622202e+01	-4.564084e-05
1.631572e+01	-4.616960e-05
1.640996e+01	-4.670448e-05
1.650474e+01	-4.724556e-05
1.660008e+01	-4.779291e-05
1.669596e+01	-4.834660e-05
1.679239e+01	-4.890671e-05
1.688938e+01	-4.947330e-05
1.698694e+01	-5.004646e-05
1.708505e+01	-5.062626e-05
1.718373e+01	-5.121278e-05
1.728299e+01	-5.180609e-05
1.738281e+01	-5.240627e-05
1.748322e+01	-5.301341e-05
1.758420e+01	-5.362758e-05
1.768576e+01	-5.424887e-05
1.778792e+01	-5.487735e-05
1.789066e+01	-5.551312e-05
1.799399e+01	-5.615625e-05
1.809793e+01	-5.680683e-05
1.820246e+01	-5.746495e-05
1.830760e+01	-5.813069e-05
1.841334e+01	-5.880415e-05
1.851969e+01	-5.948541e-05
1.862666e+01	-6.017456e-05
1.873425e+01	-6.087169e-05
1.884246e+01	-6.157690e-05
1.895129e+01	-6.229028e-05
1.906075e+01	-6.301193e-05
1.917085e+01	-6.374193e-05
1.928158e+01	-6.448040e-05
1.939295e+01	-6.522741e-05
1.950496e+01	-6.598309e-05
1.961762e+01	-6.674751e-05
1.973093e+01	-6.752079e-05
1.984490e+01	-6.830304e-05
1.995952e+01	-6.909434e-05
2.007480e+01	-6.989481e-05
2.019076e+01	-7.070455e-05
2.030738e+01	-7.152368e-05
2.042467e+01	-7.235229e-05
2.054264e+01	-7.319051e-05
2.066130e+01	-7.403843e-05
2.078064e+01	-7.489618e-05
2.090066e+01	-7.576387e-05
2.102139e+01	-7.664161e-05
2.114280e+01	-7.752951e-05
2.126492e+01	-7.842771e-05
2.138775e+01	-7.933631e-05
2.151128e+01	-8.025543e-05
2.163553e+01	-8.118520e-05
2.176050e+01	-8.212575e-05
2.188619e+01	-8.307719e-05
2.201260e+01	-8.403965e-05
2.213974e+01	-8.501326e-05
2.226762e+01	-8.599816e-05
2.239624e+01	-8.699446e-05
2.252560e+01	-8.800230e-05
2.265571e+01	-8.902183e-05
2.278656e+01	-9.005316e-05
2.291818e+01	-9.109644e-05
2.305055e+01	-9.215180e-05
2.318369e+01	-9.321940e-05
2.331760e+01	-9.429936e-05
2.345228e+01	-9.539183e-05
2.358774e+01	-9.649696e-05
2.372398e+01	-9.761489e-05
2.386101e+01	-9.874577e-05
2.399883e+01	-9.988976e-05
2.413745e+01	-1.010470e-04
2.427686e+01	-1.022176e-04
2.441709e+01	-1.034018e-04
2.455812e+01	-1.045998e-04
2.469997e+01	-1.058116e-04
2.484263e+01	-1.070374e-04
2.498612e+01	-1.082775e-04
2.513044e+01	-1.095319e-04
2.527559e+01	-1.108008e-04
2.542158e+01	-1.120844e-04
2.556842e+01	-1.133830e-04
2.571610e+01	-1.146965e-04
2.586463e+01	-1.160253e-04
2.601403e+01	-1.173695e-04
2.616428e+01	-1.187292e-04
2.631541e+01	-1.201047e-04
2.646740e+01	-1.214961e-04
2.662028e+01	-1.229037e-04
2.677404e+01	-1.243275e-04
2.692868e+01	-1.257679e-04
2.708422e+01	-1.272249e-04
2.724066e+01	-1.286988e-04
2.739800e+01	-1.301898e-04
2.755625e+01	-1.316981e-04
2.771541e+01	-1.332238e-04
2.787550e+01	-1.347672e-04
2.803650e+01	-1.363285e-04
2.819844e+01	-1.379079e-04
2.836131e+01	-1.395056e-04
2.852513e+01	-1.411217e-04
2.868989e+01	-1.427566e-04
2.885560e+01	-1.444105e-04
2.902227e+01	-1.460835e-04
2.918990e+01	-1.477759e-04
2.935850e+01	-1.494879e-04
2.952807e+01	-1.512197e-04
2.969863e+01	-1.529716e-04
2.987016e+01	-1.547438e-04
3.004269e+01	-1.565365e-04
3.021622e+01	-1.583500e-04
3.039075e+01	-1.601845e-04
3.056628e+01	-1.620402e-04
3.074283e+01	-1.639175e-04
3.092040e+01	-1.658165e-04
3.109900e+01	-1.677375e-04
3.127862e+01	-1.696807e-04
3.145929e+01	-1.716465e-04
3.164099e+01	-1.736350e-04
3.182375e+01	-1.756466e-04
3.200756e+01	-1.776815e-04
3.219244e+01	-1.797399e-04
3.237838e+01	-1.818222e-04
3.256540e+01	-1.839286e-04
3.275349e+01	-1.860594e-04
3.294268e+01	-1.882149e-04
3.313295e+01	-1.903954e-04
3.332433e+01	-1.926011e-04
3.351681e+01	-1.948324e-04
3.371040e+01	-1.970896e-04
3.390511e+01	-1.993729e-04
3.410094e+01	-2.016826e-04
3.429791e+01	-2.040191e-04
3.449601e+01	-2.063826e-04
3.469526e+01	-2.087736e-04
3.489566e+01	-2.111922e-04
3.509721e+01	-2.136389e-04
3.529993e+01	-2.161139e-04
3.550382e+01	-2.186176e-04
3.570889e+01	-2.211503e-04
3.591515e+01	-2.237123e-04
3.612259e+01	-2.263040e-04
3.633123e+01	-2.289257e-04
3.654108e+01	-2.315778e-04
3.675214e+01	-2.342606e-04
3.696442e+01	-2.369745e-04
3.717792e+01	-2.397199e-04
3.739266e+01	-2.424970e-04
3.760864e+01	-2.453063e-04
3.782587e+01	-2.481482e-04
3.804435e+01	-2.510230e-04
3.826409e+01	-2.539311e-04
3.848510e+01	-2.568728e-04
3.870739e+01	-2.598487e-04
3.893096e+01	-2.628590e-04
3.915583e+01	-2.659042e-04
3.938199e+01	-2.689847e-04
3.960946e+01	-2.721009e-04
3.983824e+01	-2.752531e-04
4.006834e+01	-2.784419e-04
4.029978e+01	-2.816676e-04
4.053255e+01	-2.849307e-04
4.076666e+01	-2.882316e-04
4.100213e+01	-2.915707e-04
4.123896e+01	-2.949486e-04
4.147715e+01	-2.983655e-04
4.171672e+01	-3.018220e-04
4.195767e+01	-3.053186e-04
4.220002e+01	-3.088557e-04
4.244377e+01	-3.124337e-04
4.268892e+01	-3.160532e-04
4.293549e+01	-3.197146e-04
4.318348e+01	-3.234185e-04
4.343291e+01	-3.271652e-04
4.368377e+01	-3.309554e-04
4.393609e+01	-3.347895e-04
4.418986e+01	-3.386679e-04
4.444510e+01	-3.425913e-04
4.470182e+01	-3.465602e-04
4.496001e+01	-3.505750e-04
4.521970e+01	-3.546364e-04
4.548089e+01	-3.587448e-04
4.574358e+01	-3.629008e-04
4.600779e+01	-3.671049e-04
4.627353e+01	-3.713577e-04
4.654081e+01	-3.756598e-04
4.680963e+01	-3.800117e-04
4.708000e+01	-3.844141e-04
4.735193e+01	-3.888674e-04
4.762543e+01	-3.933724e-04
4.790051e+01	-3.979295e-04
4.817719e+01	-4.025394e-04
4.845545e+01	-4.072027e-04
4.873533e+01	-4.119200e-04
4.901682e+01	-4.166920e-04
4.929994e+01	-4.215193e-04
4.958470e+01	-4.264025e-04
4.987110e+01	-4.313422e-04
5.015915e+01	-4.363392e-04
5.044887e+01	-4.413940e-04
5.074026e+01	-4.465074e-04
5.103333e+01	-4.516801e-04
5.132810e+01	-4.569126e-04
5.162457e+01	-4.622058e-04
5.192275e+01	-4.675603e-04
5.222265e+01	-4.729768e-04
5.252429e+01	-4.784561e-04
5.282767e+01	-4.839988e-04
5.313280e+01	-4.896058e-04
5.343969e+01	-4.952777e-04
5.374836e+01	-5.010153e-04
5.405880e+01	-5.068193e-04
5.437105e+01	-5.126906e-04
5.468509e+01	-5.186299e-04
5.500095e+01	-5.246380e-04
5.531863e+01	-5.307157e-04
5.563815e+01	-5.368639e-04
5.595951e+01	-5.430832e-04
5.628273e+01	-5.493746e-04
5.660782e+01	-5.557388e-04
5.693479e+01	-5.621768e-04
5.726364e+01	-5.686893e-04
5.759439e+01	-5.752773e-04
5.792705e+01	-5.819416e-04
5.826164e+01	-5.886831e-04
5.859815e+01	-5.955027e-04
5.893662e+01	-6.024013e-04
5.927703e+01	-6.093798e-04
5.961941e+01	-6.164391e-04
5.996377e+01	-6.235802e-04
6.031012e+01	-6.308040e-04
6.065847e+01	-6.381115e-04
6.100883e+01	-6.455037e-04
6.136121e+01	-6.529815e-04
6.171563e+01	-6.605458e-04
6.207210e+01	-6.681979e-04
6.243063e+01	-6.759385e-04
6.279122e+01	-6.837688e-04
6.315390e+01	-6.916899e-04
6.351868e+01	-6.997026e-04
6.388556e+01	-7.078082e-04
6.425456e+01	-7.160077e-04
6.462569e+01	-7.243021e-04
6.499897e+01	-7.326927e-04
6.537440e+01	-7.411804e-04
6.575200e+01	-7.497664e-04
6.613178e+01	-7.584519e-04
6.651375e+01	-7.672380e-04
6.689793e+01	-7.761259e-04
6.728433e+01	-7.851167e-04
6.767297e+01	-7.942117e-04
6.806384e+01	-8.034120e-04
6.845698e+01	-8.127189e-04
6.885238e+01	-8.221335e-04
6.925007e+01	-8.316573e-04
6.965005e+01	-8.412913e-04
7.005235e+01	-8.510369e-04
7.045697e+01	-8.608955e-04
7.086393e+01	-8.708682e-04
7.127323e+01	-8.809564e-04
7.168490e+01	-8.911615e-04
7.209895e+01	-9.014847e-04
7.251539e+01	-9.119276e-04
7.293424e+01	-9.224914e-04
7.335551e+01	-9.331776e-04
7.377920e+01	-9.439875e-04
7.420535e+01	-9.549227e-04
7.463396e+01	-9.659845e-04
7.506504e+01	-9.771744e-04
7.549861e+01	-9.884939e-04
7.593469e+01	-9.999446e-04
7.637328e+01	-1.011528e-03
7.681441e+01	-1.023245e-03
7.725809e+01	-1.035098e-03
7.770433e+01	-1.047089e-03
7.815315e+01	-1.059218e-03
7.860456e+01	-1.071488e-03
7.905857e+01	-1.083900e-03
7.951521e+01	-1.096456e-03
7.997449e+01	-1.109157e-03
8.043642e+01	-1.122005e-03
8.090102e+01	-1.135002e-03
8.136830e+01	-1.148150e-03
8.183828e+01	-1.161449e-03
8.231097e+01	-1.174903e-03
8.278640e+01	-1.188513e-03
8.326457e+01	-1.202280e-03
8.374550e+01	-1.216207e-03
8.422921e+01	-1.230295e-03
8.471572e+01	-1.244547e-03
8.520503e+01	-1.258963e-03
8.569717e+01	-1.273546e-03
8.619215e+01	-1.288298e-03
8.669000e+01	-1.303221e-03
8.719071e+01	-1.318317e-03
8.769432e+01	-1.333588e-03
8.820084e+01	-1.349036e-03
8.871029e+01	-1.364662e-03
8.922267e+01	-1.380470e-03
8.973802e+01	-1.396460e-03
9.025634e+01	-1.412636e-03
9.077766e+01	-1.428999e-03
9.130199e+01	-1.445551e-03
9.182935e+01	-1.462296e-03
9.235975e+01	-1.479234e-03
9.289321e+01	-1.496368e-03
9.342976e+01	-1.513701e-03
9.396941e+01	-1.531235e-03
9.451217e+01	-1.548971e-03
9.505807e+01	-1.566913e-03
9.560712e+01	-1.585063e-03
9.615934e+01	-1.603423e-03
9.671476e+01	-1.621996e-03
9.727338e+01	-1.640783e-03
9.783522e+01	-1.659789e-03
9.840032e+01	-1.679014e-03
9.896867e+01	-1.698462e-03
9.954031e+01	-1.718135e-03
1.001153e+02	-1.738036e-03
1.006935e+02	-1.758168e-03
1.012751e+02	-1.778533e-03
1.018601e+02	-1.799133e-03
1.024484e+02	-1.819972e-03
1.030402e+02	-1.841053e-03
1.036353e+02	-1.862377e-03
1.042339e+02	-1.883949e-03
1.048360e+02	-1.905770e-03
1.054415e+02	-1.927844e-03
1.060505e+02	-1.950173e-03
1.066631e+02	-1.972761e-03
1.072791e+02	-1.995611e-03
1.078988e+02	-2.018725e-03
1.085220e+02	-2.042107e-03
1.091488e+02	-2.065760e-03
1.097793e+02	-2.089687e-03
1.104133e+02	-2.113890e-03
1.110511e+02	-2.138374e-03
1.116925e+02	-2.163142e-03
1.123376e+02	-2.188196e-03
1.129865e+02	-2.213541e-03
1.136391e+02	-2.239178e-03
1.142955e+02	-2.265113e-03
1.149556e+02	-2.291348e-03
1.156196e+02	-2.317887e-03
1.162874e+02	-2.344733e-03
1.169591e+02	-2.371890e-03
1.176347e+02	-2.399361e-03
1.183141e+02	-2.427151e-03
1.189975e+02	-2.455262e-03
1.196848e+02	-2.483699e-03
1.203761e+02	-2.512465e-03
1.210714e+02	-2.541564e-03
1.217707e+02	-2.571000e-03
1.224740e+02	-2.600776e-03
1.231814e+02	-2.630898e-03
1.238929e+02	-2.661368e-03
1.246085e+02	-2.692191e-03
1.253283e+02	-2.723371e-03
1.260522e+02	-2.754912e-03
1.267802e+02	-2.786818e-03
1.275125e+02	-2.819094e-03
1.282490e+02	-2.851743e-03
1.289898e+02	-2.884770e-03
1.297348e+02	-2.918180e-03
1.304842e+02	-2.951976e-03
1.312378e+02	-2.986164e-03
1.319959e+02	-3.020747e-03
1.327583e+02	-3.055731e-03
1.335251e+02	-3.091120e-03
1.342963e+02	-3.126919e-03
1.350720e+02	-3.163132e-03
1.358522e+02	-3.199764e-03
1.366368e+02	-3.236820e-03
1.374260e+02	-3.274305e-03
1.382198e+02	-3.312224e-03
1.390182e+02	-3.350583e-03
1.398211e+02	-3.389385e-03
1.406287e+02	-3.428636e-03
1.414410e+02	-3.468342e-03
1.422579e+02	-3.508507e-03
1.430796e+02	-3.549138e-03
1.439060e+02	-3.590238e-03
1.447372e+02	-3.631815e-03
1.455732e+02	-3.673872e-03
1.464141e+02	-3.716417e-03
1.472597e+02	-3.759454e-03
1.481103e+02	-3.802989e-03
1.489658e+02	-3.847028e-03
1.498262e+02	-3.891577e-03
1.506916e+02	-3.936641e-03
1.515620e+02	-3.982228e-03
1.524374e+02	-4.028341e-03
1.533179e+02	-4.074989e-03
1.542034e+02	-4.122176e-03
1.550941e+02	-4.169910e-03
1.559899e+02	-4.218196e-03
1.568909e+02	-4.267040e-03
1.577971e+02	-4.316450e-03
1.587085e+02	-4.366432e-03
1.596252e+02	-4.416993e-03
1.605472e+02	-4.468139e-03
1.614745e+02	-4.519876e-03
1.624072e+02	-4.572212e-03
1.633453e+02	-4.625154e-03
1.642887e+02	-4.678709e-03
1.652377e+02	-4.732884e-03
1.661921e+02	-4.787685e-03
1.671520e+02	-4.843121e-03
1.681175e+02	-4.899198e-03
1.690885e+02	-4.955924e-03
1.700651e+02	-5.013306e-03
1.710474e+02	-5.071353e-03
1.720354e+02	-5.130071e-03
1.730291e+02	-5.189468e-03
1.740285e+02	-5.249553e-03
1.750337e+02	-5.310333e-03
1.760446e+02	-5.371817e-03
1.770615e+02	-5.434012e-03
1.780842e+02	-5.496926e-03
1.791128e+02	-5.560569e-03
1.801473e+02	-5.624947e-03
1.811878e+02	-5.690071e-03
1.822344e+02	-5.755948e-03
1.832870e+02	-5.822588e-03
1.843456e+02	-5.889998e-03
1.854104e+02	-5.958188e-03
1.864813e+02	-6.027167e-03
1.875584e+02	-6.096944e-03
1.886418e+02	-6.167529e-03
1.897313e+02	-6.238930e-03
1.908272e+02	-6.311157e-03
1.919294e+02	-6.384219e-03
1.930380e+02	-6.458127e-03
1.941530e+02	-6.532889e-03
1.952744e+02	-6.608517e-03
1.964023e+02	-6.685019e-03
1.975367e+02	-6.762406e-03
1.986777e+02	-6.840689e-03
1.998252e+02	-6.919876e-03
2.009794e+02	-6.999980e-03
2.021403e+02	-7.081010e-03
2.033078e+02	-7.162978e-03
2.044821e+02	-7.245893e-03
2.056632e+02	-7.329768e-03
2.068511e+02	-7.414612e-03
2.080459e+02	-7.500438e-03
2.092475e+02	-7.587257e-03
2.104561e+02	-7.675079e-03
2.116717e+02	-7.763917e-03
2.128943e+02	-7.853782e-03
2.141240e+02	-7.944687e-03
2.153608e+02	-8.036643e-03
2.166047e+02	-8.129662e-03
2.178558e+02	-8.223757e-03
2.191141e+02	-8.318939e-03
2.203797e+02	-8.415223e-03
2.216526e+02	-8.512619e-03
2.229329e+02	-8.611142e-03
2.242205e+02	-8.710804e-03
2.255156e+02	-8.811618e-03
2.268182e+02	-8.913598e-03
2.281283e+02	-9.016757e-03
2.294459e+02	-9.121108e-03
2.307712e+02	-9.226666e-03
2.321041e+02	-9.333444e-03
2.334447e+02	-9.441457e-03
2.347931e+02	-9.550718e-03
2.361493e+02	-9.661242e-03
2.375133e+02	-9.773043e-03
2.388851e+02	-9.886137e-03
2.402649e+02	-1.000054e-02
2.416527e+02	-1.011626e-02
2.430484e+02	-1.023332e-02
2.444523e+02	-1.035174e-02
2.458642e+02	-1.047152e-02
2.472843e+02	-1.059269e-02
2.487126e+02	-1.071525e-02
2.501492e+02	-1.083924e-02
2.515940e+02	-1.096465e-02
2.530472e+02	-1.109152e-02
2.545088e+02	-1.121985e-02
2.559789e+02	-1.134966e-02
2.574574e+02	-1.148098e-02
2.589444e+02	-1.161381e-02
2.604401e+02	-1.174818e-02
2.619444e+02	-1.188409e-02
2.634574e+02	-1.202158e-02
2.649791e+02	-1.216066e-02
2.665096e+02	-1.230135e-02
2.680489e+02	-1.244365e-02
2.695972e+02	-1.258761e-02
2.711544e+02	-1.273322e-02
2.727205e+02	-1.288052e-02
2.742958e+02	-1.302952e-02
2.758801e+02	-1.318024e-02
2.774736e+02	-1.333270e-02
2.790762e+02	-1.348693e-02
2.806882e+02	-1.364293e-02
2.823094e+02	-1.380073e-02
2.839400e+02	-1.396036e-02
2.855800e+02	-1.412183e-02
2.872295e+02	-1.428517e-02
2.888886e+02	-1.445039e-02
2.905572e+02	-1.461752e-02
2.922354e+02	-1.478657e-02
2.939234e+02	-1.495758e-02
2.956211e+02	-1.513057e-02
2.973286e+02	-1.530555e-02
2.990459e+02	-1.548255e-02
3.007732e+02	-1.566160e-02
3.025104e+02	-1.584271e-02
3.042577e+02	-1.602591e-02
3.060151e+02	-1.621123e-02
3.077826e+02	-1.639868e-02
3.095604e+02	-1.658830e-02
3.113484e+02	-1.678011e-02
3.131467e+02	-1.697413e-02
3.149554e+02	-1.717039e-02
3.167746e+02	-1.736891e-02
3.186043e+02	-1.756973e-02
3.204445e+02	-1.777286e-02
3.222954e+02	-1.797833e-02
3.241570e+02	-1.818618e-02
3.260293e+02	-1.839642e-02
3.279124e+02	-1.860909e-02
3.298064e+02	-1.882421e-02
3.317114e+02	-1.904182e-02
3.336273e+02	-1.926193e-02
3.355544e+02	-1.948458e-02
3.374925e+02	-1.970980e-02
3.394418e+02	-1.993762e-02
3.414024e+02	-2.016806e-02
3.433744e+02	-2.040117e-02
3.453577e+02	-2.063696e-02
3.473525e+02	-2.087546e-02
3.493588e+02	-2.111672e-02
3.513766e+02	-2.136076e-02
3.534062e+02	-2.160761e-02
3.554474e+02	-2.185731e-02
3.575005e+02	-2.210989e-02
3.595654e+02	-2.236537e-02
3.616422e+02	-2.262380e-02
3.637311e+02	-2.288521e-02
3.658320e+02	-2.314963e-02
3.679450e+02	-2.341710e-02
3.700702e+02	-2.368765e-02
3.722077e+02	-2.396132e-02
3.743576e+02	-2.423814e-02
3.765199e+02	-2.451815e-02
3.786946e+02	-2.480139e-02
3.808820e+02	-2.508789e-02
3.830819e+02	-2.537768e-02
3.852946e+02	-2.567082e-02
3.875200e+02	-2.596733e-02
3.897583e+02	-2.626726e-02
3.920096e+02	-2.657063e-02
3.942738e+02	-2.687751e-02
3.965511e+02	-2.718791e-02
3.988416e+02	-2.750189e-02
4.011452e+02	-2.781948e-02
4.034622e+02	-2.814073e-02
4.057926e+02	-2.846568e-02
4.081365e+02	-2.879436e-02
4.104938e+02	-2.912683e-02
4.128648e+02	-2.946312e-02
4.152495e+02	-2.980329e-02
4.176480e+02	-3.014736e-02
4.200603e+02	-3.049540e-02
4.224866e+02	-3.084744e-02
4.249268e+02	-3.120352e-02
4.273812e+02	-3.156371e-02
4.298497e+02	-3.192803e-02
4.323325e+02	-3.229655e-02
4.348297e+02	-3.266930e-02
4.373412e+02	-3.304634e-02
4.398673e+02	-3.342771e-02
4.424079e+02	-3.381347e-02
4.449633e+02	-3.420366e-02
4.475334e+02	-3.459833e-02
4.501183e+02	-3.499754e-02
4.527182e+02	-3.540134e-02
4.553330e+02	-3.580978e-02
4.579630e+02	-3.622291e-02
4.606082e+02	-3.664079e-02
4.632687e+02	-3.706346e-02
4.659445e+02	-3.749100e-02
4.686358e+02	-3.792344e-02
4.713426e+02	-3.836084e-02
4.740650e+02	-3.880327e-02
4.768032e+02	-3.925078e-02
4.795572e+02	-3.970343e-02
4.823271e+02	-4.016127e-02
4.851130e+02	-4.062437e-02
4.879150e+02	-4.109278e-02
4.907332e+02	-4.156657e-02
4.935676e+02	-4.204579e-02
4.964185e+02	-4.253051e-02
4.992858e+02	-4.302079e-02
5.021696e+02	-4.351670e-02
5.050701e+02	-4.401829e-02
5.079874e+02	-4.452563e-02
5.109215e+02	-4.503879e-02
5.138726e+02	-4.555784e-02
5.168407e+02	-4.608283e-02
5.198259e+02	-4.661384e-02
5.228284e+02	-4.715093e-02
5.258482e+02	-4.769418e-02
5.288855e+02	-4.824366e-02
5.319403e+02	-4.879943e-02
5.350128e+02	-4.936156e-02
5.381030e+02	-4.993014e-02
5.412111e+02	-5.050522e-02
5.443371e+02	-5.108689e-02
5.474812e+02	-5.167522e-02
5.506434e+02	-5.227028e-02
5.538239e+02	-5.287215e-02
5.570228e+02	-5.348091e-02
5.602401e+02	-5.409664e-02
5.634760e+02	-5.471941e-02
5.667306e+02	-5.534930e-02
5.700040e+02	-5.598640e-02
5.732964e+02	-5.663078e-02
5.766077e+02	-5.728253e-02
5.799382e+02	-5.794173e-02
5.832879e+02	-5.860846e-02
5.866569e+02	-5.928282e-02
5.900454e+02	-5.996488e-02
5.934535e+02	-6.065473e-02
5.968813e+02	-6.135246e-02
6.003288e+02	-6.205816e-02
6.037963e+02	-6.277192e-02
6.072838e+02	-6.349383e-02
6.107914e+02	-6.422398e-02
6.143194e+02	-6.496246e-02
6.178676e+02	-6.570937e-02
6.214364e+02	-6.646480e-02
6.250258e+02	-6.722885e-02
6.286359e+02	-6.800161e-02
6.322669e+02	-6.878318e-02
6.359189e+02	-6.957367e-02
6.395919e+02	-7.037317e-02
6.432862e+02	-7.118177e-02
6.470017e+02	-7.199959e-02
6.507388e+02	-7.282673e-02
6.544974e+02	-7.366329e-02
6.582778e+02	-7.450938e-02
6.620800e+02	-7.536510e-02
6.659041e+02	-7.623056e-02
6.697504e+02	-7.710587e-02
6.736188e+02	-7.799115e-02
6.775096e+02	-7.888649e-02
6.814229e+02	-7.979202e-02
6.853587e+02	-8.070784e-02
6.893173e+02	-8.163408e-02
6.932988e+02	-8.257084e-02
6.973033e+02	-8.351825e-02
7.013309e+02	-8.447643e-02
