Frequency(Hz)	Magnitude(dB)
1.000000e+01	-1.915080e+00
1.005776e+01	-1.933274e+00
1.011585e+01	-1.951211e+00
1.017428e+01	-1.969315e+00
1.023305e+01	-1.987766e+00
1.029215e+01	-2.005952e+00
1.035160e+01	-2.024814e+00
1.041139e+01	-2.043357e+00
1.047153e+01	-2.062084e+00
1.053201e+01	-2.081214e+00
1.059284e+01	-2.100336e+00
1.065403e+01	-2.119496e+00
1.071556e+01	-2.138852e+00
1.077746e+01	-2.158448e+00
1.083971e+01	-2.178239e+00
1.090232e+01	-2.197874e+00
1.096529e+01	-2.217784e+00
1.102862e+01	-2.237794e+00
1.109232e+01	-2.258117e+00
1.115639e+01	-2.278451e+00
1.122083e+01	-2.298877e+00
1.128564e+01	-2.319592e+00
1.135083e+01	-2.340506e+00
1.141639e+01	-2.361338e+00
1.148233e+01	-2.382317e+00
1.154865e+01	-2.403302e+00
1.161536e+01	-2.424884e+00
1.168245e+01	-2.446275e+00
1.174992e+01	-2.467988e+00
1.181779e+01	-2.489801e+00
1.188605e+01	-2.511491e+00
1.195470e+01	-2.533588e+00
1.202375e+01	-2.555846e+00
1.209320e+01	-2.578222e+00
1.216305e+01	-2.600698e+00
1.223330e+01	-2.623025e+00
1.230396e+01	-2.645664e+00
1.237503e+01	-2.668952e+00
1.244651e+01	-2.692068e+00
1.251840e+01	-2.715219e+00
1.259070e+01	-2.738538e+00
1.266343e+01	-2.762062e+00
1.273657e+01	-2.785528e+00
1.281014e+01	-2.809372e+00
1.288413e+01	-2.833098e+00
1.295855e+01	-2.857211e+00
1.303339e+01	-2.881397e+00
1.310867e+01	-2.905649e+00
1.318439e+01	-2.930059e+00
1.326054e+01	-2.954891e+00
1.333713e+01	-2.979435e+00
1.341417e+01	-3.004330e+00
1.349165e+01	-3.029448e+00
1.356958e+01	-3.055072e+00
1.364795e+01	-3.080160e+00
1.372678e+01	-3.105511e+00
1.380607e+01	-3.131067e+00
1.388581e+01	-3.157088e+00
1.396602e+01	-3.183086e+00
1.404668e+01	-3.208897e+00
1.412782e+01	-3.235068e+00
1.420942e+01	-3.261672e+00
1.429149e+01	-3.288057e+00
1.437404e+01	-3.314697e+00
1.445706e+01	-3.341373e+00
1.454057e+01	-3.368161e+00
1.462455e+01	-3.395538e+00
1.470902e+01	-3.422657e+00
1.479398e+01	-3.449900e+00
1.487943e+01	-3.477236e+00
1.496537e+01	-3.505040e+00
1.505181e+01	-3.532832e+00
1.513875e+01	-3.560665e+00
1.522619e+01	-3.588922e+00
1.531414e+01	-3.616951e+00
1.540259e+01	-3.645338e+00
1.549156e+01	-3.673610e+00
1.558103e+01	-3.702466e+00
1.567103e+01	-3.731109e+00
1.576155e+01	-3.759989e+00
1.585258e+01	-3.789145e+00
1.594415e+01	-3.818053e+00
1.603624e+01	-3.847458e+00
1.612886e+01	-3.876893e+00
1.622202e+01	-3.906677e+00
1.631572e+01	-3.936475e+00
1.640996e+01	-3.966645e+00
1.650474e+01	-3.996387e+00
1.660008e+01	-4.026727e+00
1.669596e+01	-4.056595e+00
1.679239e+01	-4.087470e+00
1.688938e+01	-4.117910e+00
1.698694e+01	-4.148774e+00
1.708505e+01	-4.179319e+00
1.718373e+01	-4.210126e+00
1.728299e+01	-4.241385e+00
1.738281e+01	-4.272765e+00
1.748322e+01	-4.304274e+00
1.758420e+01	-4.335646e+00
1.768576e+01	-4.367458e+00
1.778792e+01	-4.399233e+00
1.789066e+01	-4.431136e+00
1.799399e+01	-4.463280e+00
1.809793e+01	-4.495360e+00
1.820246e+01	-4.527624e+00
1.830760e+01	-4.560259e+00
1.841334e+01	-4.592711e+00
1.851969e+01	-4.625612e+00
1.862666e+01	-4.658302e+00
1.873425e+01	-4.691474e+00
1.884246e+01	-4.724572e+00
1.895129e+01	-4.757627e+00
1.906075e+01	-4.790975e+00
1.917085e+01	-4.824499e+00
1.928158e+01	-4.858009e+00
1.939295e+01	-4.891779e+00
1.950496e+01	-4.925665e+00
1.961762e+01	-4.959571e+00
1.973093e+01	-4.993834e+00
1.984490e+01	-5.028177e+00
1.995952e+01	-5.062328e+00
2.007480e+01	-5.096825e+00
2.019076e+01	-5.131178e+00
2.030738e+01	-5.166375e+00
2.042467e+01	-5.200999e+00
2.054264e+01	-5.235940e+00
2.066130e+01	-5.271106e+00
2.078064e+01	-5.306323e+00
2.090066e+01	-5.341790e+00
2.102139e+01	-5.376963e+00
2.114280e+01	-5.412689e+00
2.126492e+01	-5.448691e+00
2.138775e+01	-5.484226e+00
2.151128e+01	-5.520454e+00
2.163553e+01	-5.556318e+00
2.176050e+01	-5.592201e+00
2.188619e+01	-5.628467e+00
2.201260e+01	-5.665097e+00
2.213974e+01	-5.701269e+00
2.226762e+01	-5.738276e+00
2.239624e+01	-5.774609e+00
2.252560e+01	-5.811824e+00
2.265571e+01	-5.848852e+00
2.278656e+01	-5.886119e+00
2.291818e+01	-5.923325e+00
2.305055e+01	-5.960153e+00
2.318369e+01	-5.997802e+00
2.331760e+01	-6.035040e+00
2.345228e+01	-6.072757e+00
2.358774e+01	-6.110810e+00
2.372398e+01	-6.148163e+00
2.386101e+01	-6.186706e+00
2.399883e+01	-6.224285e+00
2.413745e+01	-6.262287e+00
2.427686e+01	-6.300799e+00
2.441709e+01	-6.339352e+00
2.455812e+01	-6.377535e+00
2.469997e+01	-6.416193e+00
2.484263e+01	-6.454859e+00
2.498612e+01	-6.493234e+00
2.513044e+01	-6.532167e+00
2.527559e+01	-6.571198e+00
2.542158e+01	-6.610405e+00
2.556842e+01	-6.649149e+00
2.571610e+01	-6.688609e+00
2.586463e+01	-6.728288e+00
2.601403e+01	-6.767527e+00
2.616428e+01	-6.807360e+00
2.631541e+01	-6.846915e+00
2.646740e+01	-6.886408e+00
2.662028e+01	-6.926613e+00
2.677404e+01	-6.966493e+00
2.692868e+01	-7.006224e+00
2.708422e+01	-7.046359e+00
2.724066e+01	-7.086917e+00
2.739800e+01	-7.126991e+00
2.755625e+01	-7.167337e+00
2.771541e+01	-7.207826e+00
2.787550e+01	-7.248576e+00
2.803650e+01	-7.288804e+00
2.819844e+01	-7.329857e+00
2.836131e+01	-7.370556e+00
2.852513e+01	-7.411319e+00
2.868989e+01	-7.452355e+00
2.885560e+01	-7.493481e+00
2.902227e+01	-7.534593e+00
2.918990e+01	-7.576044e+00
2.935850e+01	-7.617217e+00
2.952807e+01	-7.658545e+00
2.969863e+01	-7.699659e+00
2.987016e+01	-7.741712e+00
3.004269e+01	-7.783386e+00
3.021622e+01	-7.825083e+00
3.039075e+01	-7.866922e+00
3.056628e+01	-7.908588e+00
3.074283e+01	-7.950552e+00
3.092040e+01	-7.992495e+00
3.109900e+01	-8.034708e+00
3.127862e+01	-8.077074e+00
3.145929e+01	-8.119438e+00
3.164099e+01	-8.161572e+00
3.182375e+01	-8.204098e+00
3.200756e+01	-8.246343e+00
3.219244e+01	-8.289279e+00
3.237838e+01	-8.331497e+00
3.256540e+01	-8.374536e+00
3.275349e+01	-8.417288e+00
3.294268e+01	-8.460645e+00
3.313295e+01	-8.503662e+00
3.332433e+01	-8.546546e+00
3.351681e+01	-8.589436e+00
3.371040e+01	-8.632132e+00
3.390511e+01	-8.675748e+00
3.410094e+01	-8.718834e+00
3.429791e+01	-8.762021e+00
3.449601e+01	-8.805393e+00
3.469526e+01	-8.849473e+00
3.489566e+01	-8.892454e+00
3.509721e+01	-8.935953e+00
3.529993e+01	-8.979491e+00
3.550382e+01	-9.023888e+00
3.570889e+01	-9.067464e+00
3.591515e+01	-9.111081e+00
3.612259e+01	-9.154771e+00
3.633123e+01	-9.199531e+00
3.654108e+01	-9.243343e+00
3.675214e+01	-9.287245e+00
3.696442e+01	-9.331559e+00
3.717792e+01	-9.375761e+00
3.739266e+01	-9.419691e+00
3.760864e+01	-9.463851e+00
3.782587e+01	-9.508581e+00
3.804435e+01	-9.553321e+00
3.826409e+01	-9.597287e+00
3.848510e+01	-9.642059e+00
3.870739e+01	-9.686951e+00
3.893096e+01	-9.730986e+00
3.915583e+01	-9.776361e+00
3.938199e+01	-9.820965e+00
3.960946e+01	-9.865982e+00
3.983824e+01	-9.911008e+00
4.006834e+01	-9.955742e+00
4.029978e+01	-1.000065e+01
4.053255e+01	-1.004491e+01
4.076666e+01	-1.009077e+01
4.100213e+01	-1.013628e+01
4.123896e+01	-1.018154e+01
4.147715e+01	-1.022641e+01
4.171672e+01	-1.027170e+01
4.195767e+01	-1.031704e+01
4.220002e+01	-1.036244e+01
4.244377e+01	-1.040832e+01
4.268892e+01	-1.045362e+01
4.293549e+01	-1.049907e+01
4.318348e+01	-1.054465e+01
4.343291e+01	-1.059012e+01
4.368377e+01	-1.063606e+01
4.393609e+01	-1.068191e+01
4.418986e+01	-1.072745e+01
4.444510e+01	-1.077356e+01
4.470182e+01	-1.081871e+01
4.496001e+01	-1.086528e+01
4.521970e+01	-1.091085e+01
4.548089e+01	-1.095695e+01
4.574358e+01	-1.100311e+01
4.600779e+01	-1.104927e+01
4.627353e+01	-1.109503e+01
4.654081e+01	-1.114148e+01
4.680963e+01	-1.118810e+01
4.708000e+01	-1.123314e+01
4.735193e+01	-1.128062e+01
4.762543e+01	-1.132594e+01
4.790051e+01	-1.137248e+01
4.817719e+01	-1.141913e+01
4.845545e+01	-1.146540e+01
4.873533e+01	-1.151192e+01
4.901682e+01	-1.155890e+01
4.929994e+01	-1.160504e+01
4.958470e+01	-1.165097e+01
4.987110e+01	-1.169800e+01
5.015915e+01	-1.174574e+01
5.044887e+01	-1.179121e+01
5.074026e+01	-1.183828e+01
5.103333e+01	-1.188551e+01
5.132810e+01	-1.193225e+01
5.162457e+01	-1.197853e+01
5.192275e+01	-1.202609e+01
5.222265e+01	-1.207338e+01
5.252429e+01	-1.211972e+01
5.282767e+01	-1.216721e+01
5.313280e+01	-1.221410e+01
5.343969e+01	-1.226062e+01
5.374836e+01	-1.230751e+01
5.405880e+01	-1.235476e+01
5.437105e+01	-1.240188e+01
5.468509e+01	-1.244918e+01
5.500095e+01	-1.249667e+01
5.531863e+01	-1.254287e+01
5.563815e+01	-1.259075e+01
5.595951e+01	-1.263818e+01
5.628273e+01	-1.268534e+01
5.660782e+01	-1.273265e+01
5.693479e+01	-1.278025e+01
5.726364e+01	-1.282795e+01
5.759439e+01	-1.287493e+01
5.792705e+01	-1.292169e+01
5.826164e+01	-1.296948e+01
5.859815e+01	-1.301744e+01
5.893662e+01	-1.306471e+01
5.927703e+01	-1.311280e+01
5.961941e+01	-1.316006e+01
5.996377e+01	-1.320762e+01
6.031012e+01	-1.325449e+01
6.065847e+01	-1.330287e+01
6.100883e+01	-1.335001e+01
6.136121e+01	-1.339840e+01
6.171563e+01	-1.344626e+01
6.207210e+01	-1.349377e+01
6.243063e+01	-1.354148e+01
6.279122e+01	-1.358989e+01
6.315390e+01	-1.363705e+01
6.351868e+01	-1.368589e+01
6.388556e+01	-1.373413e+01
6.425456e+01	-1.378130e+01
6.462569e+01	-1.382914e+01
6.499897e+01	-1.387730e+01
6.537440e+01	-1.392465e+01
6.575200e+01	-1.397289e+01
6.613178e+01	-1.402110e+01
6.651375e+01	-1.406940e+01
6.689793e+01	-1.411690e+01
6.728433e+01	-1.416561e+01
6.767297e+01	-1.421378e+01
6.806384e+01	-1.426051e+01
6.845698e+01	-1.431004e+01
6.885238e+01	-1.435774e+01
6.925007e+01	-1.440604e+01
6.965005e+01	-1.445422e+01
7.005235e+01	-1.450284e+01
7.045697e+01	-1.455066e+01
7.086393e+01	-1.459932e+01
7.127323e+01	-1.464688e+01
7.168490e+01	-1.469590e+01
7.209895e+01	-1.474337e+01
7.251539e+01	-1.479188e+01
7.293424e+01	-1.484149e+01
7.335551e+01	-1.488882e+01
7.377920e+01	-1.493839e+01
7.420535e+01	-1.498523e+01
7.463396e+01	-1.503425e+01
7.506504e+01	-1.508298e+01
7.549861e+01	-1.513099e+01
7.593469e+01	-1.518023e+01
7.637328e+01	-1.522795e+01
7.681441e+01	-1.527718e+01
7.725809e+01	-1.532563e+01
7.770433e+01	-1.537389e+01
7.815315e+01	-1.542242e+01
7.860456e+01	-1.547126e+01
7.905857e+01	-1.552014e+01
7.951521e+01	-1.556884e+01
7.997449e+01	-1.561603e+01
8.043642e+01	-1.566613e+01
8.090102e+01	-1.571509e+01
8.136830e+01	-1.576415e+01
8.183828e+01	-1.581128e+01
8.231097e+01	-1.586130e+01
8.278640e+01	-1.590891e+01
8.326457e+01	-1.595831e+01
8.374550e+01	-1.600744e+01
8.422921e+01	-1.605584e+01
8.471572e+01	-1.610451e+01
8.520503e+01	-1.615374e+01
8.569717e+01	-1.620104e+01
8.619215e+01	-1.625059e+01
8.669000e+01	-1.629968e+01
8.719071e+01	-1.634961e+01
8.769432e+01	-1.639790e+01
8.820084e+01	-1.644517e+01
8.871029e+01	-1.649460e+01
8.922267e+01	-1.654377e+01
8.973802e+01	-1.659418e+01
9.025634e+01	-1.664274e+01
9.077766e+01	-1.669033e+01
9.130199e+01	-1.674044e+01
9.182935e+01	-1.678920e+01
9.235975e+01	-1.683778e+01
9.289321e+01	-1.688679e+01
9.342976e+01	-1.693651e+01
9.396941e+01	-1.698528e+01
9.451217e+01	-1.703291e+01
9.505807e+01	-1.708405e+01
9.560712e+01	-1.713175e+01
9.615934e+01	-1.718050e+01
9.671476e+01	-1.722997e+01
9.727338e+01	-1.727903e+01
9.783522e+01	-1.732910e+01
9.840032e+01	-1.737695e+01
9.896867e+01	-1.742629e+01
9.954031e+01	-1.747469e+01
1.001153e+02	-1.752561e+01
1.006935e+02	-1.757454e+01
1.012751e+02	-1.762365e+01
1.018601e+02	-1.767228e+01
1.024484e+02	-1.772194e+01
1.030402e+02	-1.777198e+01
1.036353e+02	-1.782092e+01
1.042339e+02	-1.786988e+01
1.048360e+02	-1.791849e+01
1.054415e+02	-1.796750e+01
1.060505e+02	-1.801599e+01
1.066631e+02	-1.806730e+01
1.072791e+02	-1.811507e+01
1.078988e+02	-1.816348e+01
1.085220e+02	-1.821583e+01
1.091488e+02	-1.826249e+01
1.097793e+02	-1.831316e+01
1.104133e+02	-1.836229e+01
1.110511e+02	-1.841262e+01
1.116925e+02	-1.846047e+01
1.123376e+02	-1.850952e+01
1.129865e+02	-1.856009e+01
1.136391e+02	-1.860847e+01
1.142955e+02	-1.865856e+01
1.149556e+02	-1.870633e+01
1.156196e+02	-1.875698e+01
1.162874e+02	-1.880446e+01
1.169591e+02	-1.885450e+01
1.176347e+02	-1.890420e+01
1.183141e+02	-1.895386e+01
1.189975e+02	-1.900415e+01
1.196848e+02	-1.905287e+01
1.203761e+02	-1.910324e+01
1.210714e+02	-1.915307e+01
1.217707e+02	-1.920039e+01
1.224740e+02	-1.925166e+01
1.231814e+02	-1.929977e+01
1.238929e+02	-1.934954e+01
1.246085e+02	-1.939894e+01
1.253283e+02	-1.944746e+01
1.260522e+02	-1.949931e+01
1.267802e+02	-1.954725e+01
1.275125e+02	-1.959605e+01
1.282490e+02	-1.964585e+01
1.289898e+02	-1.969727e+01
1.297348e+02	-1.974528e+01
1.304842e+02	-1.979542e+01
1.312378e+02	-1.984153e+01
1.319959e+02	-1.989563e+01
1.327583e+02	-1.994340e+01
1.335251e+02	-1.999340e+01
1.342963e+02	-2.004420e+01
1.350720e+02	-2.009281e+01
1.358522e+02	-2.014144e+01
1.366368e+02	-2.019176e+01
1.374260e+02	-2.024123e+01
1.382198e+02	-2.028947e+01
1.390182e+02	-2.034072e+01
1.398211e+02	-2.038878e+01
1.406287e+02	-2.043791e+01
1.414410e+02	-2.048813e+01
1.422579e+02	-2.053675e+01
1.430796e+02	-2.058753e+01
1.439060e+02	-2.063789e+01
1.447372e+02	-2.068707e+01
1.455732e+02	-2.073611e+01
1.464141e+02	-2.078685e+01
1.472597e+02	-2.083676e+01
1.481103e+02	-2.088538e+01
1.489658e+02	-2.093479e+01
1.498262e+02	-2.098446e+01
1.506916e+02	-2.103604e+01
1.515620e+02	-2.108415e+01
1.524374e+02	-2.113529e+01
1.533179e+02	-2.118556e+01
1.542034e+02	-2.123503e+01
1.550941e+02	-2.128226e+01
1.559899e+02	-2.133323e+01
1.568909e+02	-2.138181e+01
1.577971e+02	-2.143158e+01
1.587085e+02	-2.148041e+01
1.596252e+02	-2.153167e+01
1.605472e+02	-2.157962e+01
1.614745e+02	-2.162871e+01
1.624072e+02	-2.168156e+01
1.633453e+02	-2.172857e+01
1.642887e+02	-2.177838e+01
1.652377e+02	-2.182825e+01
1.661921e+02	-2.187795e+01
1.671520e+02	-2.192783e+01
1.681175e+02	-2.197805e+01
1.690885e+02	-2.202789e+01
1.700651e+02	-2.208009e+01
1.710474e+02	-2.212808e+01
1.720354e+02	-2.217723e+01
1.730291e+02	-2.222692e+01
1.740285e+02	-2.227864e+01
1.750337e+02	-2.232658e+01
1.760446e+02	-2.237666e+01
1.770615e+02	-2.242629e+01
1.780842e+02	-2.247740e+01
1.791128e+02	-2.252415e+01
1.801473e+02	-2.257608e+01
1.811878e+02	-2.262480e+01
1.822344e+02	-2.267365e+01
1.832870e+02	-2.272502e+01
1.843456e+02	-2.277581e+01
1.854104e+02	-2.282447e+01
1.864813e+02	-2.287442e+01
1.875584e+02	-2.292437e+01
1.886418e+02	-2.297413e+01
1.897313e+02	-2.302483e+01
1.908272e+02	-2.307351e+01
1.919294e+02	-2.312424e+01
1.930380e+02	-2.317327e+01
1.941530e+02	-2.322205e+01
1.952744e+02	-2.327373e+01
1.964023e+02	-2.332195e+01
1.975367e+02	-2.337165e+01
1.986777e+02	-2.341934e+01
1.998252e+02	-2.347146e+01
2.009794e+02	-2.352217e+01
2.021403e+02	-2.357295e+01
2.033078e+02	-2.362099e+01
2.044821e+02	-2.366895e+01
2.056632e+02	-2.372102e+01
2.068511e+02	-2.377017e+01
2.080459e+02	-2.382234e+01
2.092475e+02	-2.387048e+01
2.104561e+02	-2.392063e+01
2.116717e+02	-2.397153e+01
2.128943e+02	-2.401985e+01
2.141240e+02	-2.406700e+01
2.153608e+02	-2.412015e+01
2.166047e+02	-2.416862e+01
2.178558e+02	-2.422236e+01
2.191141e+02	-2.426944e+01
2.203797e+02	-2.432247e+01
2.216526e+02	-2.437092e+01
2.229329e+02	-2.441749e+01
2.242205e+02	-2.446817e+01
2.255156e+02	-2.451804e+01
2.268182e+02	-2.456807e+01
2.281283e+02	-2.462188e+01
2.294459e+02	-2.466965e+01
2.307712e+02	-2.471732e+01
2.321041e+02	-2.476798e+01
2.334447e+02	-2.481895e+01
2.347931e+02	-2.486686e+01
2.361493e+02	-2.491962e+01
2.375133e+02	-2.496901e+01
2.388851e+02	-2.502031e+01
2.402649e+02	-2.506812e+01
2.416527e+02	-2.511542e+01
2.430484e+02	-2.516962e+01
2.444523e+02	-2.521948e+01
2.458642e+02	-2.526558e+01
2.472843e+02	-2.531675e+01
2.487126e+02	-2.536953e+01
2.501492e+02	-2.541795e+01
2.515940e+02	-2.546819e+01
2.530472e+02	-2.551519e+01
2.545088e+02	-2.556715e+01
2.559789e+02	-2.561611e+01
2.574574e+02	-2.566548e+01
2.589444e+02	-2.571757e+01
2.604401e+02	-2.576786e+01
2.619444e+02	-2.581827e+01
2.634574e+02	-2.586616e+01
2.649791e+02	-2.591791e+01
2.665096e+02	-2.596701e+01
2.680489e+02	-2.601674e+01
2.695972e+02	-2.606923e+01
2.711544e+02	-2.611368e+01
2.727205e+02	-2.616218e+01
2.742958e+02	-2.621627e+01
2.758801e+02	-2.626536e+01
2.774736e+02	-2.632012e+01
2.790762e+02	-2.636530e+01
2.806882e+02	-2.641955e+01
2.823094e+02	-2.646515e+01
2.839400e+02	-2.651704e+01
2.855800e+02	-2.656654e+01
2.872295e+02	-2.661827e+01
2.888886e+02	-2.666809e+01
2.905572e+02	-2.671854e+01
2.922354e+02	-2.676785e+01
2.939234e+02	-2.681639e+01
2.956211e+02	-2.686722e+01
2.973286e+02	-2.691609e+01
2.990459e+02	-2.696661e+01
3.007732e+02	-2.701553e+01
3.025104e+02	-2.706912e+01
3.042577e+02	-2.711642e+01
3.060151e+02	-2.716633e+01
3.077826e+02	-2.721871e+01
3.095604e+02	-2.726795e+01
3.113484e+02	-2.731902e+01
3.131467e+02	-2.736230e+01
3.149554e+02	-2.741687e+01
3.167746e+02	-2.746398e+01
3.186043e+02	-2.751515e+01
3.204445e+02	-2.756942e+01
3.222954e+02	-2.761671e+01
3.241570e+02	-2.766458e+01
3.260293e+02	-2.771824e+01
3.279124e+02	-2.776975e+01
3.298064e+02	-2.781590e+01
3.317114e+02	-2.786539e+01
3.336273e+02	-2.791676e+01
3.355544e+02	-2.796807e+01
3.374925e+02	-2.801805e+01
3.394418e+02	-2.806468e+01
3.414024e+02	-2.811868e+01
3.433744e+02	-2.816739e+01
3.453577e+02	-2.821856e+01
3.473525e+02	-2.826758e+01
3.493588e+02	-2.832002e+01
3.513766e+02	-2.836465e+01
3.534062e+02	-2.841675e+01
3.554474e+02	-2.846818e+01
3.575005e+02	-2.851737e+01
3.595654e+02	-2.857032e+01
3.616422e+02	-2.861430e+01
3.637311e+02	-2.866913e+01
3.658320e+02	-2.871884e+01
3.679450e+02	-2.876717e+01
3.700702e+02	-2.881323e+01
3.722077e+02	-2.886385e+01
3.743576e+02	-2.891574e+01
3.765199e+02	-2.896635e+01
3.786946e+02	-2.902042e+01
3.808820e+02	-2.906833e+01
3.830819e+02	-2.911806e+01
3.852946e+02	-2.916387e+01
3.875200e+02	-2.921948e+01
3.897583e+02	-2.926580e+01
3.920096e+02	-2.932147e+01
3.942738e+02	-2.937198e+01
3.965511e+02	-2.942259e+01
3.988416e+02	-2.946850e+01
4.011452e+02	-2.952208e+01
4.034622e+02	-2.956851e+01
4.057926e+02	-2.961828e+01
4.081365e+02	-2.967036e+01
4.104938e+02	-2.971739e+01
4.128648e+02	-2.977108e+01
4.152495e+02	-2.981929e+01
4.176480e+02	-2.986615e+01
4.200603e+02	-2.992321e+01
4.224866e+02	-2.996469e+01
4.249268e+02	-3.001910e+01
4.273812e+02	-3.006623e+01
4.298497e+02	-3.012235e+01
4.323325e+02	-3.016078e+01
4.348297e+02	-3.021707e+01
4.373412e+02	-3.026837e+01
4.398673e+02	-3.032048e+01
4.424079e+02	-3.037188e+01
4.449633e+02	-3.042558e+01
4.475334e+02	-3.046442e+01
4.501183e+02	-3.051902e+01
4.527182e+02	-3.057106e+01
4.553330e+02	-3.062157e+01
4.579630e+02	-3.066918e+01
4.606082e+02	-3.072086e+01
4.632687e+02	-3.077986e+01
4.659445e+02	-3.082367e+01
4.686358e+02	-3.087483e+01
4.713426e+02	-3.092320e+01
4.740650e+02	-3.096922e+01
4.768032e+02	-3.102372e+01
4.795572e+02	-3.107349e+01
4.823271e+02	-3.112186e+01
4.851130e+02	-3.117534e+01
4.879150e+02	-3.122461e+01
4.907332e+02	-3.127591e+01
4.935676e+02	-3.132177e+01
4.964185e+02	-3.137793e+01
4.992858e+02	-3.142749e+01
5.021696e+02	-3.147239e+01
5.050701e+02	-3.152354e+01
5.079874e+02	-3.157251e+01
5.109215e+02	-3.162254e+01
5.138726e+02	-3.167083e+01
5.168407e+02	-3.172584e+01
5.198259e+02	-3.177459e+01
5.228284e+02	-3.182715e+01
5.258482e+02	-3.187300e+01
5.288855e+02	-3.192195e+01
5.319403e+02	-3.197277e+01
5.350128e+02	-3.203312e+01
5.381030e+02	-3.207901e+01
5.412111e+02	-3.213199e+01
5.443371e+02	-3.217840e+01
5.474812e+02	-3.222760e+01
5.506434e+02	-3.227942e+01
5.538239e+02	-3.232807e+01
5.570228e+02	-3.237400e+01
5.602401e+02	-3.242415e+01
5.634760e+02	-3.248349e+01
5.667306e+02	-3.253026e+01
5.700040e+02	-3.257599e+01
5.732964e+02	-3.262788e+01
5.766077e+02	-3.268091e+01
5.799382e+02	-3.272845e+01
5.832879e+02	-3.278060e+01
5.866569e+02	-3.283024e+01
5.900454e+02	-3.287526e+01
5.934535e+02	-3.292989e+01
5.968813e+02	-3.298270e+01
6.003288e+02	-3.302553e+01
6.037963e+02	-3.307581e+01
6.072838e+02	-3.313851e+01
6.107914e+02	-3.318198e+01
6.143194e+02	-3.322630e+01
6.178676e+02	-3.328252e+01
6.214364e+02	-3.333355e+01
6.250258e+02	-3.338447e+01
6.286359e+02	-3.343056e+01
6.322669e+02	-3.348482e+01
6.359189e+02	-3.353755e+01
6.395919e+02	-3.358435e+01
6.432862e+02	-3.364049e+01
6.470017e+02	-3.368206e+01
6.507388e+02	-3.374290e+01
6.544974e+02	-3.378619e+01
6.582778e+02	-3.383720e+01
6.620800e+02	-3.388857e+01
6.659041e+02	-3.393289e+01
6.697504e+02	-3.399224e+01
6.736188e+02	-3.404314e+01
6.775096e+02	-3.408870e+01
6.814229e+02	-3.414302e+01
6.853587e+02	-3.418751e+01
6.893173e+02	-3.424124e+01
6.932988e+02	-3.429353e+01
6.973033e+02	-3.434057e+01
7.013309e+02	-3.439384e+01
