Frequency(Hz)	Magnitude(dB)
1.000000e+01	-2.157611e+00
1.005776e+01	-2.177220e+00
1.011585e+01	-2.196745e+00
1.017428e+01	-2.216916e+00
1.023305e+01	-2.237031e+00
1.029215e+01	-2.257097e+00
1.035160e+01	-2.277431e+00
1.041139e+01	-2.297860e+00
1.047153e+01	-2.318576e+00
1.053201e+01	-2.339525e+00
1.059284e+01	-2.360375e+00
1.065403e+01	-2.381468e+00
1.071556e+01	-2.402842e+00
1.077746e+01	-2.423972e+00
1.083971e+01	-2.445329e+00
1.090232e+01	-2.467000e+00
1.096529e+01	-2.488784e+00
1.102862e+01	-2.510688e+00
1.109232e+01	-2.532475e+00
1.115639e+01	-2.554851e+00
1.122083e+01	-2.577213e+00
1.128564e+01	-2.599640e+00
1.135083e+01	-2.622135e+00
1.141639e+01	-2.644846e+00
1.148233e+01	-2.667986e+00
1.154865e+01	-2.690782e+00
1.161536e+01	-2.714229e+00
1.168245e+01	-2.737217e+00
1.174992e+01	-2.760686e+00
1.181779e+01	-2.784624e+00
1.188605e+01	-2.808328e+00
1.195470e+01	-2.832208e+00
1.202375e+01	-2.856023e+00
1.209320e+01	-2.880194e+00
1.216305e+01	-2.904472e+00
1.223330e+01	-2.929209e+00
1.230396e+01	-2.953779e+00
1.237503e+01	-2.978429e+00
1.244651e+01	-3.003318e+00
1.251840e+01	-3.028472e+00
1.259070e+01	-3.053366e+00
1.266343e+01	-3.079022e+00
1.273657e+01	-3.104291e+00
1.281014e+01	-3.130029e+00
1.288413e+01	-3.155692e+00
1.295855e+01	-3.181799e+00
1.303339e+01	-3.207658e+00
1.310867e+01	-3.233896e+00
1.318439e+01	-3.260182e+00
1.326054e+01	-3.286995e+00
1.333713e+01	-3.313479e+00
1.341417e+01	-3.340090e+00
1.349165e+01	-3.367032e+00
1.356958e+01	-3.394194e+00
1.364795e+01	-3.421602e+00
1.372678e+01	-3.448760e+00
1.380607e+01	-3.476373e+00
1.388581e+01	-3.503876e+00
1.396602e+01	-3.531334e+00
1.404668e+01	-3.559319e+00
1.412782e+01	-3.587830e+00
1.420942e+01	-3.615765e+00
1.429149e+01	-3.643922e+00
1.437404e+01	-3.672567e+00
1.445706e+01	-3.700950e+00
1.454057e+01	-3.729999e+00
1.462455e+01	-3.758960e+00
1.470902e+01	-3.788152e+00
1.479398e+01	-3.817060e+00
1.487943e+01	-3.846400e+00
1.496537e+01	-3.875743e+00
1.505181e+01	-3.905433e+00
1.513875e+01	-3.935171e+00
1.522619e+01	-3.965123e+00
1.531414e+01	-3.995047e+00
1.540259e+01	-4.025347e+00
1.549156e+01	-4.055448e+00
1.558103e+01	-4.085986e+00
1.567103e+01	-4.116314e+00
1.576155e+01	-4.147311e+00
1.585258e+01	-4.177821e+00
1.594415e+01	-4.209016e+00
1.603624e+01	-4.240052e+00
1.612886e+01	-4.271666e+00
1.622202e+01	-4.302710e+00
1.631572e+01	-4.334231e+00
1.640996e+01	-4.366080e+00
1.650474e+01	-4.397995e+00
1.660008e+01	-4.429545e+00
1.669596e+01	-4.461412e+00
1.679239e+01	-4.493822e+00
1.688938e+01	-4.526129e+00
1.698694e+01	-4.558651e+00
1.708505e+01	-4.591144e+00
1.718373e+01	-4.623967e+00
1.728299e+01	-4.656925e+00
1.738281e+01	-4.689398e+00
1.748322e+01	-4.722920e+00
1.758420e+01	-4.756297e+00
1.768576e+01	-4.789514e+00
1.778792e+01	-4.822927e+00
1.789066e+01	-4.856356e+00
1.799399e+01	-4.890173e+00
1.809793e+01	-4.924013e+00
1.820246e+01	-4.958170e+00
1.830760e+01	-4.992373e+00
1.841334e+01	-5.026444e+00
1.851969e+01	-5.060825e+00
1.862666e+01	-5.095302e+00
1.873425e+01	-5.129729e+00
1.884246e+01	-5.164635e+00
1.895129e+01	-5.199443e+00
1.906075e+01	-5.234594e+00
1.917085e+01	-5.269614e+00
1.928158e+01	-5.305050e+00
1.939295e+01	-5.339761e+00
1.950496e+01	-5.375485e+00
1.961762e+01	-5.411243e+00
1.973093e+01	-5.446928e+00
1.984490e+01	-5.482660e+00
1.995952e+01	-5.518450e+00
2.007480e+01	-5.554403e+00
2.019076e+01	-5.590425e+00
2.030738e+01	-5.626965e+00
2.042467e+01	-5.663433e+00
2.054264e+01	-5.699744e+00
2.066130e+01	-5.736576e+00
2.078064e+01	-5.773082e+00
2.090066e+01	-5.810235e+00
2.102139e+01	-5.847489e+00
2.114280e+01	-5.884387e+00
2.126492e+01	-5.921184e+00
2.138775e+01	-5.958788e+00
2.151128e+01	-5.996408e+00
2.163553e+01	-6.033821e+00
2.176050e+01	-6.071402e+00
2.188619e+01	-6.108691e+00
2.201260e+01	-6.146716e+00
2.213974e+01	-6.184765e+00
2.226762e+01	-6.222585e+00
2.239624e+01	-6.260812e+00
2.252560e+01	-6.298944e+00
2.265571e+01	-6.337355e+00
2.278656e+01	-6.375884e+00
2.291818e+01	-6.414361e+00
2.305055e+01	-6.453037e+00
2.318369e+01	-6.491494e+00
2.331760e+01	-6.530624e+00
2.345228e+01	-6.569324e+00
2.358774e+01	-6.608544e+00
2.372398e+01	-6.647887e+00
2.386101e+01	-6.687094e+00
2.399883e+01	-6.726516e+00
2.413745e+01	-6.766129e+00
2.427686e+01	-6.805851e+00
2.441709e+01	-6.845009e+00
2.455812e+01	-6.884771e+00
2.469997e+01	-6.924538e+00
2.484263e+01	-6.964679e+00
2.498612e+01	-7.004614e+00
2.513044e+01	-7.044716e+00
2.527559e+01	-7.084660e+00
2.542158e+01	-7.125170e+00
2.556842e+01	-7.165765e+00
2.571610e+01	-7.205890e+00
2.586463e+01	-7.246080e+00
2.601403e+01	-7.287048e+00
2.616428e+01	-7.327828e+00
2.631541e+01	-7.368694e+00
2.646740e+01	-7.409730e+00
2.662028e+01	-7.450523e+00
2.677404e+01	-7.491607e+00
2.692868e+01	-7.532498e+00
2.708422e+01	-7.574385e+00
2.724066e+01	-7.615181e+00
2.739800e+01	-7.656602e+00
2.755625e+01	-7.698602e+00
2.771541e+01	-7.739777e+00
2.787550e+01	-7.781655e+00
2.803650e+01	-7.823132e+00
2.819844e+01	-7.865230e+00
2.836131e+01	-7.907100e+00
2.852513e+01	-7.949131e+00
2.868989e+01	-7.990809e+00
2.885560e+01	-8.033074e+00
2.902227e+01	-8.075282e+00
2.918990e+01	-8.117202e+00
2.935850e+01	-8.159408e+00
2.952807e+01	-8.202081e+00
2.969863e+01	-8.244773e+00
2.987016e+01	-8.287328e+00
3.004269e+01	-8.329635e+00
3.021622e+01	-8.372292e+00
3.039075e+01	-8.415032e+00
3.056628e+01	-8.458292e+00
3.074283e+01	-8.501335e+00
3.092040e+01	-8.543913e+00
3.109900e+01	-8.587291e+00
3.127862e+01	-8.630585e+00
3.145929e+01	-8.673611e+00
3.164099e+01	-8.717110e+00
3.182375e+01	-8.760462e+00
3.200756e+01	-8.803591e+00
3.219244e+01	-8.846992e+00
3.237838e+01	-8.890596e+00
3.256540e+01	-8.934205e+00
3.275349e+01	-8.978171e+00
3.294268e+01	-9.021754e+00
3.313295e+01	-9.065543e+00
3.332433e+01	-9.108915e+00
3.351681e+01	-9.152822e+00
3.371040e+01	-9.196812e+00
3.390511e+01	-9.241107e+00
3.410094e+01	-9.285005e+00
3.429791e+01	-9.329162e+00
3.449601e+01	-9.373635e+00
3.469526e+01	-9.418023e+00
3.489566e+01	-9.462625e+00
3.509721e+01	-9.506484e+00
3.529993e+01	-9.550711e+00
3.550382e+01	-9.595802e+00
3.570889e+01	-9.639932e+00
3.591515e+01	-9.684776e+00
3.612259e+01	-9.729544e+00
3.633123e+01	-9.773742e+00
3.654108e+01	-9.818957e+00
3.675214e+01	-9.863957e+00
3.696442e+01	-9.908573e+00
3.717792e+01	-9.953745e+00
3.739266e+01	-9.999270e+00
3.760864e+01	-1.004362e+01
3.782587e+01	-1.008871e+01
3.804435e+01	-1.013410e+01
3.826409e+01	-1.017936e+01
3.848510e+01	-1.022439e+01
3.870739e+01	-1.026985e+01
3.893096e+01	-1.031506e+01
3.915583e+01	-1.036025e+01
3.938199e+01	-1.040603e+01
3.960946e+01	-1.045120e+01
3.983824e+01	-1.049673e+01
4.006834e+01	-1.054297e+01
4.029978e+01	-1.058797e+01
4.053255e+01	-1.063365e+01
4.076666e+01	-1.067984e+01
4.100213e+01	-1.072552e+01
4.123896e+01	-1.077123e+01
4.147715e+01	-1.081673e+01
4.171672e+01	-1.086282e+01
4.195767e+01	-1.090859e+01
4.220002e+01	-1.095491e+01
4.244377e+01	-1.100071e+01
4.268892e+01	-1.104747e+01
4.293549e+01	-1.109372e+01
4.318348e+01	-1.113875e+01
4.343291e+01	-1.118516e+01
4.368377e+01	-1.123187e+01
4.393609e+01	-1.127808e+01
4.418986e+01	-1.132408e+01
4.444510e+01	-1.137035e+01
4.470182e+01	-1.141697e+01
4.496001e+01	-1.146319e+01
4.521970e+01	-1.151008e+01
4.548089e+01	-1.155633e+01
4.574358e+01	-1.160276e+01
4.600779e+01	-1.164915e+01
4.627353e+01	-1.169642e+01
4.654081e+01	-1.174254e+01
4.680963e+01	-1.178986e+01
4.708000e+01	-1.183601e+01
4.735193e+01	-1.188311e+01
4.762543e+01	-1.192919e+01
4.790051e+01	-1.197685e+01
4.817719e+01	-1.202411e+01
4.845545e+01	-1.207009e+01
4.873533e+01	-1.211734e+01
4.901682e+01	-1.216434e+01
4.929994e+01	-1.221134e+01
4.958470e+01	-1.225867e+01
4.987110e+01	-1.230590e+01
5.015915e+01	-1.235227e+01
5.044887e+01	-1.240031e+01
5.074026e+01	-1.244779e+01
5.103333e+01	-1.249397e+01
5.132810e+01	-1.254092e+01
5.162457e+01	-1.258947e+01
5.192275e+01	-1.263506e+01
5.222265e+01	-1.268298e+01
5.252429e+01	-1.273046e+01
5.282767e+01	-1.277804e+01
5.313280e+01	-1.282490e+01
5.343969e+01	-1.287294e+01
5.374836e+01	-1.291977e+01
5.405880e+01	-1.296837e+01
5.437105e+01	-1.301543e+01
5.468509e+01	-1.306316e+01
5.500095e+01	-1.311046e+01
5.531863e+01	-1.315735e+01
5.563815e+01	-1.320561e+01
5.595951e+01	-1.325317e+01
5.628273e+01	-1.330071e+01
5.660782e+01	-1.334781e+01
5.693479e+01	-1.339624e+01
5.726364e+01	-1.344398e+01
5.759439e+01	-1.349215e+01
5.792705e+01	-1.353929e+01
5.826164e+01	-1.358755e+01
5.859815e+01	-1.363418e+01
5.893662e+01	-1.368336e+01
5.927703e+01	-1.373153e+01
5.961941e+01	-1.377830e+01
5.996377e+01	-1.382672e+01
6.031012e+01	-1.387472e+01
6.065847e+01	-1.392272e+01
6.100883e+01	-1.397102e+01
6.136121e+01	-1.401904e+01
6.171563e+01	-1.406651e+01
6.207210e+01	-1.411528e+01
6.243063e+01	-1.416351e+01
6.279122e+01	-1.421187e+01
6.315390e+01	-1.425904e+01
6.351868e+01	-1.430733e+01
6.388556e+01	-1.435541e+01
6.425456e+01	-1.440427e+01
6.462569e+01	-1.445214e+01
6.499897e+01	-1.450079e+01
6.537440e+01	-1.454970e+01
6.575200e+01	-1.459603e+01
6.613178e+01	-1.464560e+01
6.651375e+01	-1.469388e+01
6.689793e+01	-1.474249e+01
6.728433e+01	-1.479037e+01
6.767297e+01	-1.483850e+01
6.806384e+01	-1.488715e+01
6.845698e+01	-1.493544e+01
6.885238e+01	-1.498389e+01
6.925007e+01	-1.503215e+01
6.965005e+01	-1.508023e+01
7.005235e+01	-1.512846e+01
7.045697e+01	-1.517763e+01
7.086393e+01	-1.522640e+01
7.127323e+01	-1.527528e+01
7.168490e+01	-1.532363e+01
7.209895e+01	-1.537269e+01
7.251539e+01	-1.542079e+01
7.293424e+01	-1.546904e+01
7.335551e+01	-1.551879e+01
7.377920e+01	-1.556631e+01
7.420535e+01	-1.561511e+01
7.463396e+01	-1.566369e+01
7.506504e+01	-1.571265e+01
7.549861e+01	-1.576124e+01
7.593469e+01	-1.580902e+01
7.637328e+01	-1.585871e+01
7.681441e+01	-1.590734e+01
7.725809e+01	-1.595536e+01
7.770433e+01	-1.600531e+01
7.815315e+01	-1.605330e+01
7.860456e+01	-1.610173e+01
7.905857e+01	-1.615103e+01
7.951521e+01	-1.620027e+01
7.997449e+01	-1.624919e+01
8.043642e+01	-1.629799e+01
8.090102e+01	-1.634639e+01
8.136830e+01	-1.639572e+01
8.183828e+01	-1.644506e+01
8.231097e+01	-1.649308e+01
8.278640e+01	-1.654296e+01
8.326457e+01	-1.659024e+01
8.374550e+01	-1.663951e+01
8.422921e+01	-1.668884e+01
8.471572e+01	-1.673738e+01
8.520503e+01	-1.678773e+01
8.569717e+01	-1.683565e+01
8.619215e+01	-1.688511e+01
8.669000e+01	-1.693383e+01
8.719071e+01	-1.698240e+01
8.769432e+01	-1.703134e+01
8.820084e+01	-1.708103e+01
8.871029e+01	-1.713056e+01
8.922267e+01	-1.717817e+01
8.973802e+01	-1.722827e+01
9.025634e+01	-1.727709e+01
9.077766e+01	-1.732614e+01
9.130199e+01	-1.737631e+01
9.182935e+01	-1.742376e+01
9.235975e+01	-1.747337e+01
9.289321e+01	-1.752328e+01
9.342976e+01	-1.757240e+01
9.396941e+01	-1.762044e+01
9.451217e+01	-1.767014e+01
9.505807e+01	-1.771966e+01
9.560712e+01	-1.776779e+01
9.615934e+01	-1.781864e+01
9.671476e+01	-1.786723e+01
9.727338e+01	-1.791511e+01
9.783522e+01	-1.796478e+01
9.840032e+01	-1.801635e+01
9.896867e+01	-1.806428e+01
9.954031e+01	-1.811321e+01
1.001153e+02	-1.816190e+01
1.006935e+02	-1.821144e+01
1.012751e+02	-1.826193e+01
1.018601e+02	-1.830963e+01
1.024484e+02	-1.836009e+01
1.030402e+02	-1.841052e+01
1.036353e+02	-1.845793e+01
1.042339e+02	-1.850857e+01
1.048360e+02	-1.855688e+01
1.054415e+02	-1.860707e+01
1.060505e+02	-1.865649e+01
1.066631e+02	-1.870554e+01
1.072791e+02	-1.875391e+01
1.078988e+02	-1.880268e+01
1.085220e+02	-1.885301e+01
1.091488e+02	-1.890235e+01
1.097793e+02	-1.895216e+01
1.104133e+02	-1.900240e+01
1.110511e+02	-1.905107e+01
1.116925e+02	-1.910063e+01
1.123376e+02	-1.915022e+01
1.129865e+02	-1.919831e+01
1.136391e+02	-1.924798e+01
1.142955e+02	-1.929676e+01
1.149556e+02	-1.934732e+01
1.156196e+02	-1.939579e+01
1.162874e+02	-1.944584e+01
1.169591e+02	-1.949582e+01
1.176347e+02	-1.954579e+01
1.183141e+02	-1.959503e+01
1.189975e+02	-1.964461e+01
1.196848e+02	-1.969418e+01
1.203761e+02	-1.974272e+01
1.210714e+02	-1.979369e+01
1.217707e+02	-1.984232e+01
1.224740e+02	-1.989086e+01
1.231814e+02	-1.994050e+01
1.238929e+02	-1.999029e+01
1.246085e+02	-2.003891e+01
1.253283e+02	-2.008958e+01
1.260522e+02	-2.013813e+01
1.267802e+02	-2.018959e+01
1.275125e+02	-2.023948e+01
1.282490e+02	-2.028780e+01
1.289898e+02	-2.033769e+01
1.297348e+02	-2.038658e+01
1.304842e+02	-2.043655e+01
1.312378e+02	-2.048541e+01
1.319959e+02	-2.053652e+01
1.327583e+02	-2.058770e+01
1.335251e+02	-2.063567e+01
1.342963e+02	-2.068598e+01
1.350720e+02	-2.073334e+01
1.358522e+02	-2.078369e+01
1.366368e+02	-2.083316e+01
1.374260e+02	-2.088345e+01
1.382198e+02	-2.093237e+01
1.390182e+02	-2.098098e+01
1.398211e+02	-2.103134e+01
1.406287e+02	-2.108108e+01
1.414410e+02	-2.112928e+01
1.422579e+02	-2.118039e+01
1.430796e+02	-2.122970e+01
1.439060e+02	-2.127912e+01
1.447372e+02	-2.132997e+01
1.455732e+02	-2.137982e+01
1.464141e+02	-2.142702e+01
1.472597e+02	-2.147988e+01
1.481103e+02	-2.152912e+01
1.489658e+02	-2.158018e+01
1.498262e+02	-2.162978e+01
1.506916e+02	-2.167705e+01
1.515620e+02	-2.172776e+01
1.524374e+02	-2.177754e+01
1.533179e+02	-2.182633e+01
1.542034e+02	-2.187526e+01
1.550941e+02	-2.192533e+01
1.559899e+02	-2.197526e+01
1.568909e+02	-2.202610e+01
1.577971e+02	-2.207451e+01
1.587085e+02	-2.212342e+01
1.596252e+02	-2.217695e+01
1.605472e+02	-2.222369e+01
1.614745e+02	-2.227375e+01
1.624072e+02	-2.232482e+01
1.633453e+02	-2.237380e+01
1.642887e+02	-2.242233e+01
1.652377e+02	-2.247266e+01
1.661921e+02	-2.252401e+01
1.671520e+02	-2.257180e+01
1.681175e+02	-2.262377e+01
1.690885e+02	-2.267365e+01
1.700651e+02	-2.272311e+01
1.710474e+02	-2.277517e+01
1.720354e+02	-2.282031e+01
1.730291e+02	-2.287289e+01
1.740285e+02	-2.292221e+01
1.750337e+02	-2.297141e+01
1.760446e+02	-2.302181e+01
1.770615e+02	-2.307166e+01
1.780842e+02	-2.312053e+01
1.791128e+02	-2.317184e+01
1.801473e+02	-2.322186e+01
1.811878e+02	-2.326988e+01
1.822344e+02	-2.332095e+01
1.832870e+02	-2.337106e+01
1.843456e+02	-2.341982e+01
1.854104e+02	-2.346826e+01
1.864813e+02	-2.352066e+01
1.875584e+02	-2.356998e+01
1.886418e+02	-2.362189e+01
1.897313e+02	-2.366586e+01
1.908272e+02	-2.371942e+01
1.919294e+02	-2.376833e+01
1.930380e+02	-2.381757e+01
1.941530e+02	-2.387026e+01
1.952744e+02	-2.391779e+01
1.964023e+02	-2.396907e+01
1.975367e+02	-2.401816e+01
1.986777e+02	-2.406809e+01
1.998252e+02	-2.411818e+01
2.009794e+02	-2.416595e+01
2.021403e+02	-2.421693e+01
2.033078e+02	-2.426661e+01
2.044821e+02	-2.431672e+01
2.056632e+02	-2.436769e+01
2.068511e+02	-2.441781e+01
2.080459e+02	-2.446729e+01
2.092475e+02	-2.451516e+01
2.104561e+02	-2.456385e+01
2.116717e+02	-2.461378e+01
2.128943e+02	-2.466725e+01
2.141240e+02	-2.471684e+01
2.153608e+02	-2.476547e+01
2.166047e+02	-2.481600e+01
2.178558e+02	-2.486625e+01
2.191141e+02	-2.491507e+01
2.203797e+02	-2.496560e+01
2.216526e+02	-2.501694e+01
2.229329e+02	-2.506403e+01
2.242205e+02	-2.511448e+01
2.255156e+02	-2.516527e+01
2.268182e+02	-2.521260e+01
2.281283e+02	-2.526612e+01
2.294459e+02	-2.531428e+01
2.307712e+02	-2.536601e+01
2.321041e+02	-2.541282e+01
2.334447e+02	-2.546211e+01
2.347931e+02	-2.551612e+01
2.361493e+02	-2.556365e+01
2.375133e+02	-2.561192e+01
2.388851e+02	-2.566538e+01
2.402649e+02	-2.571069e+01
2.416527e+02	-2.576231e+01
2.430484e+02	-2.581283e+01
2.444523e+02	-2.586468e+01
2.458642e+02	-2.591401e+01
2.472843e+02	-2.595943e+01
2.487126e+02	-2.601259e+01
2.501492e+02	-2.606406e+01
2.515940e+02	-2.610882e+01
2.530472e+02	-2.616600e+01
2.545088e+02	-2.621333e+01
2.559789e+02	-2.626099e+01
2.574574e+02	-2.631352e+01
2.589444e+02	-2.636299e+01
2.604401e+02	-2.641158e+01
2.619444e+02	-2.646211e+01
2.634574e+02	-2.651469e+01
2.649791e+02	-2.656235e+01
2.665096e+02	-2.661269e+01
2.680489e+02	-2.666554e+01
2.695972e+02	-2.671450e+01
2.711544e+02	-2.676592e+01
2.727205e+02	-2.681595e+01
2.742958e+02	-2.686558e+01
2.758801e+02	-2.691539e+01
2.774736e+02	-2.696686e+01
2.790762e+02	-2.701550e+01
2.806882e+02	-2.705964e+01
2.823094e+02	-2.711050e+01
2.839400e+02	-2.716391e+01
2.855800e+02	-2.721540e+01
2.872295e+02	-2.726129e+01
2.888886e+02	-2.731043e+01
2.905572e+02	-2.736412e+01
2.922354e+02	-2.741370e+01
2.939234e+02	-2.746628e+01
2.956211e+02	-2.751116e+01
2.973286e+02	-2.756346e+01
2.990459e+02	-2.761247e+01
3.007732e+02	-2.766274e+01
3.025104e+02	-2.771151e+01
3.042577e+02	-2.775665e+01
3.060151e+02	-2.780924e+01
3.077826e+02	-2.786190e+01
3.095604e+02	-2.791396e+01
3.113484e+02	-2.796669e+01
3.131467e+02	-2.801015e+01
3.149554e+02	-2.806078e+01
3.167746e+02	-2.811595e+01
3.186043e+02	-2.816343e+01
3.204445e+02	-2.821366e+01
3.222954e+02	-2.826462e+01
3.241570e+02	-2.831047e+01
3.260293e+02	-2.836017e+01
3.279124e+02	-2.841536e+01
3.298064e+02	-2.846253e+01
3.317114e+02	-2.851163e+01
3.336273e+02	-2.856216e+01
3.355544e+02	-2.861459e+01
3.374925e+02	-2.865954e+01
3.394418e+02	-2.871156e+01
3.414024e+02	-2.876585e+01
3.433744e+02	-2.880910e+01
3.453577e+02	-2.886334e+01
3.473525e+02	-2.891239e+01
3.493588e+02	-2.896169e+01
3.513766e+02	-2.901111e+01
3.534062e+02	-2.906360e+01
3.554474e+02	-2.911326e+01
3.575005e+02	-2.916100e+01
3.595654e+02	-2.921212e+01
3.616422e+02	-2.926395e+01
3.637311e+02	-2.931212e+01
3.658320e+02	-2.936176e+01
3.679450e+02	-2.941600e+01
3.700702e+02	-2.946364e+01
3.722077e+02	-2.951163e+01
3.743576e+02	-2.956924e+01
3.765199e+02	-2.961406e+01
3.786946e+02	-2.966312e+01
3.808820e+02	-2.970976e+01
3.830819e+02	-2.976366e+01
3.852946e+02	-2.981273e+01
3.875200e+02	-2.986387e+01
3.897583e+02	-2.991053e+01
3.920096e+02	-2.996041e+01
3.942738e+02	-3.001370e+01
3.965511e+02	-3.005720e+01
3.988416e+02	-3.011851e+01
4.011452e+02	-3.016558e+01
4.034622e+02	-3.021088e+01
4.057926e+02	-3.026741e+01
4.081365e+02	-3.031332e+01
4.104938e+02	-3.036940e+01
4.128648e+02	-3.041535e+01
4.152495e+02	-3.046464e+01
4.176480e+02	-3.051221e+01
4.200603e+02	-3.056294e+01
4.224866e+02	-3.061767e+01
4.249268e+02	-3.066515e+01
4.273812e+02	-3.071178e+01
4.298497e+02	-3.076684e+01
4.323325e+02	-3.082250e+01
4.348297e+02	-3.087754e+01
4.373412e+02	-3.091843e+01
4.398673e+02	-3.096273e+01
4.424079e+02	-3.101610e+01
4.449633e+02	-3.106942e+01
4.475334e+02	-3.111839e+01
4.501183e+02	-3.116420e+01
4.527182e+02	-3.121743e+01
4.553330e+02	-3.126877e+01
4.579630e+02	-3.131470e+01
4.606082e+02	-3.136555e+01
4.632687e+02	-3.141429e+01
4.659445e+02	-3.147446e+01
4.686358e+02	-3.152201e+01
4.713426e+02	-3.156648e+01
4.740650e+02	-3.161879e+01
4.768032e+02	-3.166413e+01
4.795572e+02	-3.171872e+01
4.823271e+02	-3.177016e+01
4.851130e+02	-3.181940e+01
4.879150e+02	-3.186601e+01
4.907332e+02	-3.192294e+01
4.935676e+02	-3.196948e+01
4.964185e+02	-3.201969e+01
4.992858e+02	-3.207112e+01
5.021696e+02	-3.212117e+01
5.050701e+02	-3.217411e+01
5.079874e+02	-3.221757e+01
5.109215e+02	-3.226409e+01
5.138726e+02	-3.232092e+01
5.168407e+02	-3.236934e+01
5.198259e+02	-3.241910e+01
5.228284e+02	-3.246832e+01
5.258482e+02	-3.251642e+01
5.288855e+02	-3.257160e+01
5.319403e+02	-3.262549e+01
5.350128e+02	-3.267022e+01
5.381030e+02	-3.272421e+01
5.412111e+02	-3.277767e+01
5.443371e+02	-3.282242e+01
5.474812e+02	-3.287179e+01
5.506434e+02	-3.292409e+01
5.538239e+02	-3.297363e+01
5.570228e+02	-3.302228e+01
5.602401e+02	-3.307410e+01
5.634760e+02	-3.312951e+01
5.667306e+02	-3.316477e+01
5.700040e+02	-3.321832e+01
5.732964e+02	-3.327389e+01
5.766077e+02	-3.331689e+01
5.799382e+02	-3.337579e+01
5.832879e+02	-3.342779e+01
5.866569e+02	-3.346650e+01
5.900454e+02	-3.352513e+01
5.934535e+02	-3.357196e+01
5.968813e+02	-3.362718e+01
6.003288e+02	-3.367155e+01
6.037963e+02	-3.372567e+01
6.072838e+02	-3.377226e+01
6.107914e+02	-3.382054e+01
6.143194e+02	-3.387795e+01
6.178676e+02	-3.392136e+01
6.214364e+02	-3.397806e+01
6.250258e+02	-3.402750e+01
6.286359e+02	-3.407559e+01
6.322669e+02	-3.412578e+01
6.359189e+02	-3.417828e+01
6.395919e+02	-3.422541e+01
6.432862e+02	-3.427730e+01
6.470017e+02	-3.432909e+01
6.507388e+02	-3.439016e+01
6.544974e+02	-3.442874e+01
6.582778e+02	-3.448003e+01
6.620800e+02	-3.452266e+01
6.659041e+02	-3.458359e+01
6.697504e+02	-3.463145e+01
6.736188e+02	-3.468239e+01
6.775096e+02	-3.473121e+01
6.814229e+02	-3.478314e+01
6.853587e+02	-3.483261e+01
6.893173e+02	-3.488458e+01
6.932988e+02	-3.493731e+01
6.973033e+02	-3.498564e+01
7.013309e+02	-3.503253e+01
