Frequency(Hz)	Magnitude(dB)
1.000000e+01	-2.114142e+00
1.005776e+01	-2.133394e+00
1.011585e+01	-2.152798e+00
1.017428e+01	-2.172537e+00
1.023305e+01	-2.192429e+00
1.029215e+01	-2.212450e+00
1.035160e+01	-2.232260e+00
1.041139e+01	-2.252471e+00
1.047153e+01	-2.272389e+00
1.053201e+01	-2.293075e+00
1.059284e+01	-2.313857e+00
1.065403e+01	-2.334478e+00
1.071556e+01	-2.355096e+00
1.077746e+01	-2.376186e+00
1.083971e+01	-2.397358e+00
1.090232e+01	-2.418505e+00
1.096529e+01	-2.440220e+00
1.102862e+01	-2.461811e+00
1.109232e+01	-2.483459e+00
1.115639e+01	-2.505263e+00
1.122083e+01	-2.527295e+00
1.128564e+01	-2.549410e+00
1.135083e+01	-2.571655e+00
1.141639e+01	-2.594134e+00
1.148233e+01	-2.616566e+00
1.154865e+01	-2.639393e+00
1.161536e+01	-2.662423e+00
1.168245e+01	-2.685342e+00
1.174992e+01	-2.708464e+00
1.181779e+01	-2.731688e+00
1.188605e+01	-2.755190e+00
1.195470e+01	-2.778993e+00
1.202375e+01	-2.802385e+00
1.209320e+01	-2.826398e+00
1.216305e+01	-2.850221e+00
1.223330e+01	-2.874414e+00
1.230396e+01	-2.898640e+00
1.237503e+01	-2.923227e+00
1.244651e+01	-2.947682e+00
1.251840e+01	-2.972473e+00
1.259070e+01	-2.997119e+00
1.266343e+01	-3.022371e+00
1.273657e+01	-3.047595e+00
1.281014e+01	-3.072882e+00
1.288413e+01	-3.098346e+00
1.295855e+01	-3.123770e+00
1.303339e+01	-3.149823e+00
1.310867e+01	-3.175300e+00
1.318439e+01	-3.201530e+00
1.326054e+01	-3.227644e+00
1.333713e+01	-3.253670e+00
1.341417e+01	-3.280289e+00
1.349165e+01	-3.306929e+00
1.356958e+01	-3.333629e+00
1.364795e+01	-3.360589e+00
1.372678e+01	-3.387609e+00
1.380607e+01	-3.414777e+00
1.388581e+01	-3.442535e+00
1.396602e+01	-3.469505e+00
1.404668e+01	-3.497261e+00
1.412782e+01	-3.524834e+00
1.420942e+01	-3.552761e+00
1.429149e+01	-3.580821e+00
1.437404e+01	-3.608678e+00
1.445706e+01	-3.636871e+00
1.454057e+01	-3.665549e+00
1.462455e+01	-3.694241e+00
1.470902e+01	-3.723212e+00
1.479398e+01	-3.751838e+00
1.487943e+01	-3.781119e+00
1.496537e+01	-3.810147e+00
1.505181e+01	-3.839316e+00
1.513875e+01	-3.868777e+00
1.522619e+01	-3.898296e+00
1.531414e+01	-3.927967e+00
1.540259e+01	-3.957861e+00
1.549156e+01	-3.987753e+00
1.558103e+01	-4.017955e+00
1.567103e+01	-4.048115e+00
1.576155e+01	-4.078826e+00
1.585258e+01	-4.108995e+00
1.594415e+01	-4.139611e+00
1.603624e+01	-4.170568e+00
1.612886e+01	-4.201659e+00
1.622202e+01	-4.232713e+00
1.631572e+01	-4.263593e+00
1.640996e+01	-4.295123e+00
1.650474e+01	-4.326690e+00
1.660008e+01	-4.358343e+00
1.669596e+01	-4.390117e+00
1.679239e+01	-4.421987e+00
1.688938e+01	-4.454123e+00
1.698694e+01	-4.486060e+00
1.708505e+01	-4.518716e+00
1.718373e+01	-4.550511e+00
1.728299e+01	-4.583201e+00
1.738281e+01	-4.616134e+00
1.748322e+01	-4.648924e+00
1.758420e+01	-4.681774e+00
1.768576e+01	-4.714894e+00
1.778792e+01	-4.748008e+00
1.789066e+01	-4.781441e+00
1.799399e+01	-4.815083e+00
1.809793e+01	-4.848657e+00
1.820246e+01	-4.882066e+00
1.830760e+01	-4.916107e+00
1.841334e+01	-4.949869e+00
1.851969e+01	-4.983985e+00
1.862666e+01	-5.018081e+00
1.873425e+01	-5.052679e+00
1.884246e+01	-5.086911e+00
1.895129e+01	-5.121531e+00
1.906075e+01	-5.156403e+00
1.917085e+01	-5.190962e+00
1.928158e+01	-5.226261e+00
1.939295e+01	-5.261230e+00
1.950496e+01	-5.296275e+00
1.961762e+01	-5.331617e+00
1.973093e+01	-5.367117e+00
1.984490e+01	-5.402556e+00
1.995952e+01	-5.438384e+00
2.007480e+01	-5.474051e+00
2.019076e+01	-5.509897e+00
2.030738e+01	-5.546066e+00
2.042467e+01	-5.581995e+00
2.054264e+01	-5.618438e+00
2.066130e+01	-5.654677e+00
2.078064e+01	-5.691231e+00
2.090066e+01	-5.728060e+00
2.102139e+01	-5.764275e+00
2.114280e+01	-5.801520e+00
2.126492e+01	-5.838064e+00
2.138775e+01	-5.875283e+00
2.151128e+01	-5.912213e+00
2.163553e+01	-5.949890e+00
2.176050e+01	-5.986836e+00
2.188619e+01	-6.024355e+00
2.201260e+01	-6.062242e+00
2.213974e+01	-6.099696e+00
2.226762e+01	-6.137596e+00
2.239624e+01	-6.175616e+00
2.252560e+01	-6.213731e+00
2.265571e+01	-6.251848e+00
2.278656e+01	-6.289648e+00
2.291818e+01	-6.327933e+00
2.305055e+01	-6.366493e+00
2.318369e+01	-6.405577e+00
2.331760e+01	-6.443720e+00
2.345228e+01	-6.482555e+00
2.358774e+01	-6.521559e+00
2.372398e+01	-6.560020e+00
2.386101e+01	-6.599507e+00
2.399883e+01	-6.638648e+00
2.413745e+01	-6.677513e+00
2.427686e+01	-6.716963e+00
2.441709e+01	-6.756170e+00
2.455812e+01	-6.795544e+00
2.469997e+01	-6.835497e+00
2.484263e+01	-6.875637e+00
2.498612e+01	-6.914807e+00
2.513044e+01	-6.954843e+00
2.527559e+01	-6.995017e+00
2.542158e+01	-7.034852e+00
2.556842e+01	-7.075314e+00
2.571610e+01	-7.115610e+00
2.586463e+01	-7.155539e+00
2.601403e+01	-7.196227e+00
2.616428e+01	-7.236413e+00
2.631541e+01	-7.277264e+00
2.646740e+01	-7.318400e+00
2.662028e+01	-7.359003e+00
2.677404e+01	-7.399654e+00
2.692868e+01	-7.440577e+00
2.708422e+01	-7.482053e+00
2.724066e+01	-7.523021e+00
2.739800e+01	-7.564097e+00
2.755625e+01	-7.605229e+00
2.771541e+01	-7.646629e+00
2.787550e+01	-7.688192e+00
2.803650e+01	-7.730002e+00
2.819844e+01	-7.771380e+00
2.836131e+01	-7.812963e+00
2.852513e+01	-7.855092e+00
2.868989e+01	-7.896825e+00
2.885560e+01	-7.938811e+00
2.902227e+01	-7.980586e+00
2.918990e+01	-8.022590e+00
2.935850e+01	-8.064988e+00
2.952807e+01	-8.107077e+00
2.969863e+01	-8.150057e+00
2.987016e+01	-8.191674e+00
3.004269e+01	-8.234588e+00
3.021622e+01	-8.276644e+00
3.039075e+01	-8.319454e+00
3.056628e+01	-8.362224e+00
3.074283e+01	-8.405261e+00
3.092040e+01	-8.447622e+00
3.109900e+01	-8.491441e+00
3.127862e+01	-8.533932e+00
3.145929e+01	-8.577196e+00
3.164099e+01	-8.620049e+00
3.182375e+01	-8.663262e+00
3.200756e+01	-8.706561e+00
3.219244e+01	-8.749013e+00
3.237838e+01	-8.793282e+00
3.256540e+01	-8.836645e+00
3.275349e+01	-8.880626e+00
3.294268e+01	-8.923598e+00
3.313295e+01	-8.967535e+00
3.332433e+01	-9.010548e+00
3.351681e+01	-9.054871e+00
3.371040e+01	-9.098967e+00
3.390511e+01	-9.142770e+00
3.410094e+01	-9.186959e+00
3.429791e+01	-9.230247e+00
3.449601e+01	-9.274542e+00
3.469526e+01	-9.318722e+00
3.489566e+01	-9.362539e+00
3.509721e+01	-9.407703e+00
3.529993e+01	-9.451626e+00
3.550382e+01	-9.495811e+00
3.570889e+01	-9.540508e+00
3.591515e+01	-9.584639e+00
3.612259e+01	-9.629573e+00
3.633123e+01	-9.673778e+00
3.654108e+01	-9.718884e+00
3.675214e+01	-9.763704e+00
3.696442e+01	-9.808102e+00
3.717792e+01	-9.852816e+00
3.739266e+01	-9.898168e+00
3.760864e+01	-9.942404e+00
3.782587e+01	-9.987961e+00
3.804435e+01	-1.003272e+01
3.826409e+01	-1.007796e+01
3.848510e+01	-1.012291e+01
3.870739e+01	-1.016797e+01
3.893096e+01	-1.021389e+01
3.915583e+01	-1.025874e+01
3.938199e+01	-1.030436e+01
3.960946e+01	-1.034920e+01
3.983824e+01	-1.039565e+01
4.006834e+01	-1.044034e+01
4.029978e+01	-1.048598e+01
4.053255e+01	-1.053200e+01
4.076666e+01	-1.057750e+01
4.100213e+01	-1.062309e+01
4.123896e+01	-1.066871e+01
4.147715e+01	-1.071422e+01
4.171672e+01	-1.075958e+01
4.195767e+01	-1.080686e+01
4.220002e+01	-1.085162e+01
4.244377e+01	-1.089824e+01
4.268892e+01	-1.094382e+01
4.293549e+01	-1.099004e+01
4.318348e+01	-1.103557e+01
4.343291e+01	-1.108201e+01
4.368377e+01	-1.112819e+01
4.393609e+01	-1.117442e+01
4.418986e+01	-1.122030e+01
4.444510e+01	-1.126651e+01
4.470182e+01	-1.131324e+01
4.496001e+01	-1.135956e+01
4.521970e+01	-1.140570e+01
4.548089e+01	-1.145244e+01
4.574358e+01	-1.149836e+01
4.600779e+01	-1.154588e+01
4.627353e+01	-1.159172e+01
4.654081e+01	-1.163827e+01
4.680963e+01	-1.168417e+01
4.708000e+01	-1.173191e+01
4.735193e+01	-1.177850e+01
4.762543e+01	-1.182527e+01
4.790051e+01	-1.187209e+01
4.817719e+01	-1.191899e+01
4.845545e+01	-1.196525e+01
4.873533e+01	-1.201234e+01
4.901682e+01	-1.205915e+01
4.929994e+01	-1.210626e+01
4.958470e+01	-1.215332e+01
4.987110e+01	-1.220005e+01
5.015915e+01	-1.224684e+01
5.044887e+01	-1.229348e+01
5.074026e+01	-1.234182e+01
5.103333e+01	-1.238825e+01
5.132810e+01	-1.243517e+01
5.162457e+01	-1.248311e+01
5.192275e+01	-1.253005e+01
5.222265e+01	-1.257698e+01
5.252429e+01	-1.262510e+01
5.282767e+01	-1.267151e+01
5.313280e+01	-1.271912e+01
5.343969e+01	-1.276652e+01
5.374836e+01	-1.281422e+01
5.405880e+01	-1.286062e+01
5.437105e+01	-1.290872e+01
5.468509e+01	-1.295635e+01
5.500095e+01	-1.300374e+01
5.531863e+01	-1.305138e+01
5.563815e+01	-1.309858e+01
5.595951e+01	-1.314606e+01
5.628273e+01	-1.319389e+01
5.660782e+01	-1.324181e+01
5.693479e+01	-1.328853e+01
5.726364e+01	-1.333655e+01
5.759439e+01	-1.338438e+01
5.792705e+01	-1.343237e+01
5.826164e+01	-1.348092e+01
5.859815e+01	-1.352904e+01
5.893662e+01	-1.357607e+01
5.927703e+01	-1.362357e+01
5.961941e+01	-1.367263e+01
5.996377e+01	-1.371998e+01
6.031012e+01	-1.376776e+01
6.065847e+01	-1.381552e+01
6.100883e+01	-1.386285e+01
6.136121e+01	-1.391190e+01
6.171563e+01	-1.395958e+01
6.207210e+01	-1.400720e+01
6.243063e+01	-1.405542e+01
6.279122e+01	-1.410402e+01
6.315390e+01	-1.415203e+01
6.351868e+01	-1.419930e+01
6.388556e+01	-1.424778e+01
6.425456e+01	-1.429680e+01
6.462569e+01	-1.434419e+01
6.499897e+01	-1.439276e+01
6.537440e+01	-1.444117e+01
6.575200e+01	-1.448821e+01
6.613178e+01	-1.453654e+01
6.651375e+01	-1.458554e+01
6.689793e+01	-1.463346e+01
6.728433e+01	-1.468274e+01
6.767297e+01	-1.473042e+01
6.806384e+01	-1.477855e+01
6.845698e+01	-1.482672e+01
6.885238e+01	-1.487521e+01
6.925007e+01	-1.492309e+01
6.965005e+01	-1.497177e+01
7.005235e+01	-1.502045e+01
7.045697e+01	-1.506903e+01
7.086393e+01	-1.511799e+01
7.127323e+01	-1.516572e+01
7.168490e+01	-1.521373e+01
7.209895e+01	-1.526332e+01
7.251539e+01	-1.531152e+01
7.293424e+01	-1.536015e+01
7.335551e+01	-1.540862e+01
7.377920e+01	-1.545731e+01
7.420535e+01	-1.550449e+01
7.463396e+01	-1.555458e+01
7.506504e+01	-1.560384e+01
7.549861e+01	-1.565181e+01
7.593469e+01	-1.570107e+01
7.637328e+01	-1.575039e+01
7.681441e+01	-1.579888e+01
7.725809e+01	-1.584648e+01
7.770433e+01	-1.589575e+01
7.815315e+01	-1.594412e+01
7.860456e+01	-1.599336e+01
7.905857e+01	-1.604173e+01
7.951521e+01	-1.609052e+01
7.997449e+01	-1.613965e+01
8.043642e+01	-1.618865e+01
8.090102e+01	-1.623736e+01
8.136830e+01	-1.628543e+01
8.183828e+01	-1.633508e+01
8.231097e+01	-1.638401e+01
8.278640e+01	-1.643220e+01
8.326457e+01	-1.648150e+01
8.374550e+01	-1.653074e+01
8.422921e+01	-1.657894e+01
8.471572e+01	-1.662839e+01
8.520503e+01	-1.667781e+01
8.569717e+01	-1.672608e+01
8.619215e+01	-1.677490e+01
8.669000e+01	-1.682414e+01
8.719071e+01	-1.687334e+01
8.769432e+01	-1.692246e+01
8.820084e+01	-1.697126e+01
8.871029e+01	-1.702027e+01
8.922267e+01	-1.706921e+01
8.973802e+01	-1.711771e+01
9.025634e+01	-1.716777e+01
9.077766e+01	-1.721511e+01
9.130199e+01	-1.726577e+01
9.182935e+01	-1.731345e+01
9.235975e+01	-1.736381e+01
9.289321e+01	-1.741295e+01
9.342976e+01	-1.746157e+01
9.396941e+01	-1.751154e+01
9.451217e+01	-1.756034e+01
9.505807e+01	-1.760988e+01
9.560712e+01	-1.765833e+01
9.615934e+01	-1.770740e+01
9.671476e+01	-1.775651e+01
9.727338e+01	-1.780638e+01
9.783522e+01	-1.785647e+01
9.840032e+01	-1.790536e+01
9.896867e+01	-1.795371e+01
9.954031e+01	-1.800184e+01
1.001153e+02	-1.805303e+01
1.006935e+02	-1.810071e+01
1.012751e+02	-1.815195e+01
1.018601e+02	-1.820054e+01
1.024484e+02	-1.824895e+01
1.030402e+02	-1.829824e+01
1.036353e+02	-1.834753e+01
1.042339e+02	-1.839831e+01
1.048360e+02	-1.844688e+01
1.054415e+02	-1.849550e+01
1.060505e+02	-1.854506e+01
1.066631e+02	-1.859560e+01
1.072791e+02	-1.864281e+01
1.078988e+02	-1.869369e+01
1.085220e+02	-1.874317e+01
1.091488e+02	-1.879228e+01
1.097793e+02	-1.884287e+01
1.104133e+02	-1.889092e+01
1.110511e+02	-1.894035e+01
1.116925e+02	-1.898869e+01
1.123376e+02	-1.903767e+01
1.129865e+02	-1.908864e+01
1.136391e+02	-1.913733e+01
1.142955e+02	-1.918849e+01
1.149556e+02	-1.923667e+01
1.156196e+02	-1.928579e+01
1.162874e+02	-1.933641e+01
1.169591e+02	-1.938440e+01
1.176347e+02	-1.943426e+01
1.183141e+02	-1.948352e+01
1.189975e+02	-1.953294e+01
1.196848e+02	-1.958366e+01
1.203761e+02	-1.963215e+01
1.210714e+02	-1.968237e+01
1.217707e+02	-1.973047e+01
1.224740e+02	-1.978013e+01
1.231814e+02	-1.982925e+01
1.238929e+02	-1.987844e+01
1.246085e+02	-1.992816e+01
1.253283e+02	-1.997820e+01
1.260522e+02	-2.003044e+01
1.267802e+02	-2.007917e+01
1.275125e+02	-2.012627e+01
1.282490e+02	-2.017594e+01
1.289898e+02	-2.022728e+01
1.297348e+02	-2.027565e+01
1.304842e+02	-2.032584e+01
1.312378e+02	-2.037541e+01
1.319959e+02	-2.042485e+01
1.327583e+02	-2.047460e+01
1.335251e+02	-2.052456e+01
1.342963e+02	-2.057516e+01
1.350720e+02	-2.062262e+01
1.358522e+02	-2.067302e+01
1.366368e+02	-2.072409e+01
1.374260e+02	-2.077140e+01
1.382198e+02	-2.082181e+01
1.390182e+02	-2.087133e+01
1.398211e+02	-2.092063e+01
1.406287e+02	-2.096929e+01
1.414410e+02	-2.102175e+01
1.422579e+02	-2.107108e+01
1.430796e+02	-2.111943e+01
1.439060e+02	-2.116749e+01
1.447372e+02	-2.121829e+01
1.455732e+02	-2.127042e+01
1.464141e+02	-2.132012e+01
1.472597e+02	-2.136824e+01
1.481103e+02	-2.141833e+01
1.489658e+02	-2.146779e+01
1.498262e+02	-2.151763e+01
1.506916e+02	-2.156721e+01
1.515620e+02	-2.161594e+01
1.524374e+02	-2.166794e+01
1.533179e+02	-2.171685e+01
1.542034e+02	-2.176531e+01
1.550941e+02	-2.181723e+01
1.559899e+02	-2.186498e+01
1.568909e+02	-2.191556e+01
1.577971e+02	-2.196493e+01
1.587085e+02	-2.201361e+01
1.596252e+02	-2.206324e+01
1.605472e+02	-2.211497e+01
1.614745e+02	-2.216146e+01
1.624072e+02	-2.221306e+01
1.633453e+02	-2.226499e+01
1.642887e+02	-2.231418e+01
1.652377e+02	-2.236224e+01
1.661921e+02	-2.241298e+01
1.671520e+02	-2.246251e+01
1.681175e+02	-2.251181e+01
1.690885e+02	-2.256174e+01
1.700651e+02	-2.261305e+01
1.710474e+02	-2.265973e+01
1.720354e+02	-2.271007e+01
1.730291e+02	-2.276208e+01
1.740285e+02	-2.280962e+01
1.750337e+02	-2.285779e+01
1.760446e+02	-2.291009e+01
1.770615e+02	-2.296040e+01
1.780842e+02	-2.300706e+01
1.791128e+02	-2.306146e+01
1.801473e+02	-2.310843e+01
1.811878e+02	-2.316065e+01
1.822344e+02	-2.320805e+01
1.832870e+02	-2.325850e+01
1.843456e+02	-2.330748e+01
1.854104e+02	-2.335933e+01
1.864813e+02	-2.340545e+01
1.875584e+02	-2.345557e+01
1.886418e+02	-2.350706e+01
1.897313e+02	-2.355808e+01
1.908272e+02	-2.360854e+01
1.919294e+02	-2.365825e+01
1.930380e+02	-2.370961e+01
1.941530e+02	-2.375846e+01
1.952744e+02	-2.380812e+01
1.964023e+02	-2.385643e+01
1.975367e+02	-2.390547e+01
1.986777e+02	-2.395568e+01
1.998252e+02	-2.400787e+01
2.009794e+02	-2.405489e+01
2.021403e+02	-2.410705e+01
2.033078e+02	-2.415216e+01
2.044821e+02	-2.420624e+01
2.056632e+02	-2.425449e+01
2.068511e+02	-2.430532e+01
2.080459e+02	-2.435474e+01
2.092475e+02	-2.440728e+01
2.104561e+02	-2.445405e+01
2.116717e+02	-2.450398e+01
2.128943e+02	-2.455565e+01
2.141240e+02	-2.460532e+01
2.153608e+02	-2.465513e+01
2.166047e+02	-2.470513e+01
2.178558e+02	-2.475381e+01
2.191141e+02	-2.480350e+01
2.203797e+02	-2.485337e+01
2.216526e+02	-2.490494e+01
2.229329e+02	-2.495464e+01
2.242205e+02	-2.500422e+01
2.255156e+02	-2.505295e+01
2.268182e+02	-2.510334e+01
2.281283e+02	-2.515230e+01
2.294459e+02	-2.520432e+01
2.307712e+02	-2.525476e+01
2.321041e+02	-2.530480e+01
2.334447e+02	-2.535449e+01
2.347931e+02	-2.540116e+01
2.361493e+02	-2.545368e+01
2.375133e+02	-2.550346e+01
2.388851e+02	-2.555299e+01
2.402649e+02	-2.559939e+01
2.416527e+02	-2.565438e+01
2.430484e+02	-2.569832e+01
2.444523e+02	-2.575259e+01
2.458642e+02	-2.580162e+01
2.472843e+02	-2.585399e+01
2.487126e+02	-2.590244e+01
2.501492e+02	-2.595293e+01
2.515940e+02	-2.600063e+01
2.530472e+02	-2.605190e+01
2.545088e+02	-2.610078e+01
2.559789e+02	-2.615175e+01
2.574574e+02	-2.620110e+01
2.589444e+02	-2.625348e+01
2.604401e+02	-2.630326e+01
2.619444e+02	-2.635188e+01
2.634574e+02	-2.640090e+01
2.649791e+02	-2.644983e+01
2.665096e+02	-2.650143e+01
2.680489e+02	-2.655204e+01
2.695972e+02	-2.660250e+01
2.711544e+02	-2.665046e+01
2.727205e+02	-2.670184e+01
2.742958e+02	-2.675115e+01
2.758801e+02	-2.680523e+01
2.774736e+02	-2.685177e+01
2.790762e+02	-2.689769e+01
2.806882e+02	-2.695216e+01
2.823094e+02	-2.700374e+01
2.839400e+02	-2.705236e+01
2.855800e+02	-2.710069e+01
2.872295e+02	-2.715089e+01
2.888886e+02	-2.720036e+01
2.905572e+02	-2.725212e+01
2.922354e+02	-2.730402e+01
2.939234e+02	-2.735243e+01
2.956211e+02	-2.739851e+01
2.973286e+02	-2.744857e+01
2.990459e+02	-2.750114e+01
3.007732e+02	-2.754932e+01
3.025104e+02	-2.760156e+01
3.042577e+02	-2.765410e+01
3.060151e+02	-2.770183e+01
3.077826e+02	-2.775295e+01
3.095604e+02	-2.780180e+01
3.113484e+02	-2.784964e+01
3.131467e+02	-2.790334e+01
3.149554e+02	-2.795356e+01
3.167746e+02	-2.800352e+01
3.186043e+02	-2.805093e+01
3.204445e+02	-2.810142e+01
3.222954e+02	-2.814793e+01
3.241570e+02	-2.820269e+01
3.260293e+02	-2.824760e+01
3.279124e+02	-2.830066e+01
3.298064e+02	-2.835272e+01
3.317114e+02	-2.839983e+01
3.336273e+02	-2.845078e+01
3.355544e+02	-2.850393e+01
3.374925e+02	-2.855063e+01
3.394418e+02	-2.860273e+01
3.414024e+02	-2.864926e+01
3.433744e+02	-2.870030e+01
3.453577e+02	-2.875297e+01
3.473525e+02	-2.880227e+01
3.493588e+02	-2.884869e+01
3.513766e+02	-2.889908e+01
3.534062e+02	-2.895253e+01
3.554474e+02	-2.900189e+01
3.575005e+02	-2.905417e+01
3.595654e+02	-2.909914e+01
3.616422e+02	-2.915202e+01
3.637311e+02	-2.919732e+01
3.658320e+02	-2.925111e+01
3.679450e+02	-2.929610e+01
3.700702e+02	-2.935427e+01
3.722077e+02	-2.940139e+01
3.743576e+02	-2.945705e+01
3.765199e+02	-2.950487e+01
3.786946e+02	-2.954843e+01
3.808820e+02	-2.960606e+01
3.830819e+02	-2.965472e+01
3.852946e+02	-2.970603e+01
3.875200e+02	-2.975029e+01
3.897583e+02	-2.980611e+01
3.920096e+02	-2.985483e+01
3.942738e+02	-2.990180e+01
3.965511e+02	-2.995003e+01
3.988416e+02	-3.000423e+01
4.011452e+02	-3.005837e+01
4.034622e+02	-3.010228e+01
4.057926e+02	-3.015283e+01
4.081365e+02	-3.020693e+01
4.104938e+02	-3.025356e+01
4.128648e+02	-3.030360e+01
4.152495e+02	-3.035879e+01
4.176480e+02	-3.040615e+01
4.200603e+02	-3.045526e+01
4.224866e+02	-3.050030e+01
4.249268e+02	-3.055596e+01
4.273812e+02	-3.060317e+01
4.298497e+02	-3.065506e+01
4.323325e+02	-3.070876e+01
4.348297e+02	-3.075667e+01
4.373412e+02	-3.080580e+01
4.398673e+02	-3.085058e+01
4.424079e+02	-3.090338e+01
4.449633e+02	-3.095604e+01
4.475334e+02	-3.100886e+01
4.501183e+02	-3.105350e+01
4.527182e+02	-3.110363e+01
4.553330e+02	-3.116109e+01
4.579630e+02	-3.121035e+01
4.606082e+02	-3.125175e+01
4.632687e+02	-3.130864e+01
4.659445e+02	-3.136221e+01
4.686358e+02	-3.140485e+01
4.713426e+02	-3.146235e+01
4.740650e+02	-3.150792e+01
4.768032e+02	-3.155590e+01
4.795572e+02	-3.161302e+01
4.823271e+02	-3.165834e+01
4.851130e+02	-3.171439e+01
4.879150e+02	-3.175142e+01
4.907332e+02	-3.181120e+01
4.935676e+02	-3.186247e+01
4.964185e+02	-3.190966e+01
4.992858e+02	-3.196273e+01
5.021696e+02	-3.200870e+01
5.050701e+02	-3.205799e+01
5.079874e+02	-3.210986e+01
5.109215e+02	-3.216280e+01
5.138726e+02	-3.221131e+01
5.168407e+02	-3.225700e+01
5.198259e+02	-3.230377e+01
5.228284e+02	-3.236540e+01
5.258482e+02	-3.240836e+01
5.288855e+02	-3.246614e+01
5.319403e+02	-3.250907e+01
5.350128e+02	-3.255910e+01
5.381030e+02	-3.261192e+01
5.412111e+02	-3.266761e+01
5.443371e+02	-3.270158e+01
5.474812e+02	-3.276254e+01
5.506434e+02	-3.281469e+01
5.538239e+02	-3.285816e+01
5.570228e+02	-3.291179e+01
5.602401e+02	-3.297128e+01
5.634760e+02	-3.301279e+01
5.667306e+02	-3.306417e+01
5.700040e+02	-3.311421e+01
5.732964e+02	-3.316613e+01
5.766077e+02	-3.320844e+01
5.799382e+02	-3.326223e+01
5.832879e+02	-3.331874e+01
5.866569e+02	-3.336614e+01
5.900454e+02	-3.340982e+01
5.934535e+02	-3.346262e+01
5.968813e+02	-3.351787e+01
6.003288e+02	-3.356214e+01
6.037963e+02	-3.361401e+01
6.072838e+02	-3.367423e+01
6.107914e+02	-3.373158e+01
6.143194e+02	-3.375962e+01
6.178676e+02	-3.381621e+01
6.214364e+02	-3.386916e+01
6.250258e+02	-3.391944e+01
6.286359e+02	-3.396894e+01
6.322669e+02	-3.401629e+01
6.359189e+02	-3.407394e+01
6.395919e+02	-3.412224e+01
6.432862e+02	-3.416591e+01
6.470017e+02	-3.421933e+01
6.507388e+02	-3.427528e+01
6.544974e+02	-3.432434e+01
6.582778e+02	-3.436703e+01
6.620800e+02	-3.443069e+01
6.659041e+02	-3.447430e+01
6.697504e+02	-3.452617e+01
6.736188e+02	-3.456964e+01
6.775096e+02	-3.461749e+01
6.814229e+02	-3.468074e+01
6.853587e+02	-3.472581e+01
6.893173e+02	-3.477329e+01
6.932988e+02	-3.482499e+01
6.973033e+02	-3.487636e+01
7.013309e+02	-3.493030e+01
