Frequency(Hz)	Magnitude(dB)
1.000000e+01	-2.002929e+00
1.005776e+01	-2.021398e+00
1.011585e+01	-2.040093e+00
1.017428e+01	-2.058801e+00
1.023305e+01	-2.078079e+00
1.029215e+01	-2.097021e+00
1.035160e+01	-2.116272e+00
1.041139e+01	-2.135738e+00
1.047153e+01	-2.154879e+00
1.053201e+01	-2.174493e+00
1.059284e+01	-2.194618e+00
1.065403e+01	-2.214366e+00
1.071556e+01	-2.234341e+00
1.077746e+01	-2.254451e+00
1.083971e+01	-2.275127e+00
1.090232e+01	-2.295242e+00
1.096529e+01	-2.316261e+00
1.102862e+01	-2.336744e+00
1.109232e+01	-2.357719e+00
1.115639e+01	-2.378662e+00
1.122083e+01	-2.399843e+00
1.128564e+01	-2.421088e+00
1.135083e+01	-2.442646e+00
1.141639e+01	-2.464270e+00
1.148233e+01	-2.485660e+00
1.154865e+01	-2.507777e+00
1.161536e+01	-2.529804e+00
1.168245e+01	-2.551985e+00
1.174992e+01	-2.574364e+00
1.181779e+01	-2.596956e+00
1.188605e+01	-2.619393e+00
1.195470e+01	-2.642091e+00
1.202375e+01	-2.665111e+00
1.209320e+01	-2.687833e+00
1.216305e+01	-2.711033e+00
1.223330e+01	-2.734494e+00
1.230396e+01	-2.757920e+00
1.237503e+01	-2.781200e+00
1.244651e+01	-2.805168e+00
1.251840e+01	-2.829115e+00
1.259070e+01	-2.852685e+00
1.266343e+01	-2.877273e+00
1.273657e+01	-2.901830e+00
1.281014e+01	-2.925981e+00
1.288413e+01	-2.950567e+00
1.295855e+01	-2.975143e+00
1.303339e+01	-3.000099e+00
1.310867e+01	-3.024907e+00
1.318439e+01	-3.050386e+00
1.326054e+01	-3.075593e+00
1.333713e+01	-3.101143e+00
1.341417e+01	-3.126811e+00
1.349165e+01	-3.152593e+00
1.356958e+01	-3.178415e+00
1.364795e+01	-3.204479e+00
1.372678e+01	-3.230623e+00
1.380607e+01	-3.256666e+00
1.388581e+01	-3.283534e+00
1.396602e+01	-3.309895e+00
1.404668e+01	-3.336677e+00
1.412782e+01	-3.363358e+00
1.420942e+01	-3.390805e+00
1.429149e+01	-3.417720e+00
1.437404e+01	-3.445299e+00
1.445706e+01	-3.472572e+00
1.454057e+01	-3.500267e+00
1.462455e+01	-3.527741e+00
1.470902e+01	-3.556033e+00
1.479398e+01	-3.584090e+00
1.487943e+01	-3.612113e+00
1.496537e+01	-3.640526e+00
1.505181e+01	-3.668919e+00
1.513875e+01	-3.697563e+00
1.522619e+01	-3.726404e+00
1.531414e+01	-3.755253e+00
1.540259e+01	-3.784160e+00
1.549156e+01	-3.813380e+00
1.558103e+01	-3.842425e+00
1.567103e+01	-3.872254e+00
1.576155e+01	-3.901868e+00
1.585258e+01	-3.931289e+00
1.594415e+01	-3.961305e+00
1.603624e+01	-3.991215e+00
1.612886e+01	-4.021483e+00
1.622202e+01	-4.051634e+00
1.631572e+01	-4.082207e+00
1.640996e+01	-4.112633e+00
1.650474e+01	-4.143348e+00
1.660008e+01	-4.174257e+00
1.669596e+01	-4.205306e+00
1.679239e+01	-4.235986e+00
1.688938e+01	-4.267238e+00
1.698694e+01	-4.298560e+00
1.708505e+01	-4.330120e+00
1.718373e+01	-4.362071e+00
1.728299e+01	-4.393524e+00
1.738281e+01	-4.425740e+00
1.748322e+01	-4.457964e+00
1.758420e+01	-4.489602e+00
1.768576e+01	-4.521974e+00
1.778792e+01	-4.554285e+00
1.789066e+01	-4.587133e+00
1.799399e+01	-4.619945e+00
1.809793e+01	-4.652329e+00
1.820246e+01	-4.685554e+00
1.830760e+01	-4.718699e+00
1.841334e+01	-4.751498e+00
1.851969e+01	-4.784979e+00
1.862666e+01	-4.818599e+00
1.873425e+01	-4.852448e+00
1.884246e+01	-4.885959e+00
1.895129e+01	-4.919889e+00
1.906075e+01	-4.953678e+00
1.917085e+01	-4.987669e+00
1.928158e+01	-5.022125e+00
1.939295e+01	-5.056396e+00
1.950496e+01	-5.090854e+00
1.961762e+01	-5.125520e+00
1.973093e+01	-5.160149e+00
1.984490e+01	-5.195104e+00
1.995952e+01	-5.229912e+00
2.007480e+01	-5.265054e+00
2.019076e+01	-5.300346e+00
2.030738e+01	-5.335870e+00
2.042467e+01	-5.371104e+00
2.054264e+01	-5.406954e+00
2.066130e+01	-5.442357e+00
2.078064e+01	-5.478120e+00
2.090066e+01	-5.514220e+00
2.102139e+01	-5.549919e+00
2.114280e+01	-5.586142e+00
2.126492e+01	-5.622626e+00
2.138775e+01	-5.658477e+00
2.151128e+01	-5.695153e+00
2.163553e+01	-5.731799e+00
2.176050e+01	-5.768734e+00
2.188619e+01	-5.805350e+00
2.201260e+01	-5.842840e+00
2.213974e+01	-5.879758e+00
2.226762e+01	-5.916826e+00
2.239624e+01	-5.953967e+00
2.252560e+01	-5.991646e+00
2.265571e+01	-6.028583e+00
2.278656e+01	-6.066418e+00
2.291818e+01	-6.103796e+00
2.305055e+01	-6.142164e+00
2.318369e+01	-6.179663e+00
2.331760e+01	-6.217824e+00
2.345228e+01	-6.256393e+00
2.358774e+01	-6.294141e+00
2.372398e+01	-6.332671e+00
2.386101e+01	-6.370765e+00
2.399883e+01	-6.409729e+00
2.413745e+01	-6.448059e+00
2.427686e+01	-6.487135e+00
2.441709e+01	-6.525994e+00
2.455812e+01	-6.564813e+00
2.469997e+01	-6.603742e+00
2.484263e+01	-6.642833e+00
2.498612e+01	-6.682092e+00
2.513044e+01	-6.721328e+00
2.527559e+01	-6.761014e+00
2.542158e+01	-6.800396e+00
2.556842e+01	-6.840028e+00
2.571610e+01	-6.879932e+00
2.586463e+01	-6.919154e+00
2.601403e+01	-6.959513e+00
2.616428e+01	-6.999703e+00
2.631541e+01	-7.039754e+00
2.646740e+01	-7.079370e+00
2.662028e+01	-7.120041e+00
2.677404e+01	-7.160306e+00
2.692868e+01	-7.200489e+00
2.708422e+01	-7.241185e+00
2.724066e+01	-7.281901e+00
2.739800e+01	-7.322842e+00
2.755625e+01	-7.363599e+00
2.771541e+01	-7.404291e+00
2.787550e+01	-7.445297e+00
2.803650e+01	-7.486418e+00
2.819844e+01	-7.527250e+00
2.836131e+01	-7.568810e+00
2.852513e+01	-7.610178e+00
2.868989e+01	-7.651537e+00
2.885560e+01	-7.693084e+00
2.902227e+01	-7.734805e+00
2.918990e+01	-7.776465e+00
2.935850e+01	-7.817997e+00
2.952807e+01	-7.859581e+00
2.969863e+01	-7.901595e+00
2.987016e+01	-7.943561e+00
3.004269e+01	-7.985715e+00
3.021622e+01	-8.027676e+00
3.039075e+01	-8.070030e+00
3.056628e+01	-8.112212e+00
3.074283e+01	-8.154525e+00
3.092040e+01	-8.196734e+00
3.109900e+01	-8.239260e+00
3.127862e+01	-8.281800e+00
3.145929e+01	-8.324394e+00
3.164099e+01	-8.367452e+00
3.182375e+01	-8.410206e+00
3.200756e+01	-8.452994e+00
3.219244e+01	-8.496056e+00
3.237838e+01	-8.538946e+00
3.256540e+01	-8.581897e+00
3.275349e+01	-8.624862e+00
3.294268e+01	-8.667995e+00
3.313295e+01	-8.710722e+00
3.332433e+01	-8.754816e+00
3.351681e+01	-8.798111e+00
3.371040e+01	-8.841496e+00
3.390511e+01	-8.885124e+00
3.410094e+01	-8.928348e+00
3.429791e+01	-8.972170e+00
3.449601e+01	-9.015976e+00
3.469526e+01	-9.059354e+00
3.489566e+01	-9.103821e+00
3.509721e+01	-9.147688e+00
3.529993e+01	-9.191690e+00
3.550382e+01	-9.235276e+00
3.570889e+01	-9.279938e+00
3.591515e+01	-9.323953e+00
3.612259e+01	-9.367638e+00
3.633123e+01	-9.412153e+00
3.654108e+01	-9.456599e+00
3.675214e+01	-9.501360e+00
3.696442e+01	-9.545445e+00
3.717792e+01	-9.589621e+00
3.739266e+01	-9.634699e+00
3.760864e+01	-9.679186e+00
3.782587e+01	-9.724002e+00
3.804435e+01	-9.768503e+00
3.826409e+01	-9.813455e+00
3.848510e+01	-9.858303e+00
3.870739e+01	-9.902956e+00
3.893096e+01	-9.947829e+00
3.915583e+01	-9.992761e+00
3.938199e+01	-1.003791e+01
3.960946e+01	-1.008304e+01
3.983824e+01	-1.012830e+01
4.006834e+01	-1.017363e+01
4.029978e+01	-1.021887e+01
4.053255e+01	-1.026392e+01
4.076666e+01	-1.030965e+01
4.100213e+01	-1.035507e+01
4.123896e+01	-1.040074e+01
4.147715e+01	-1.044569e+01
4.171672e+01	-1.049114e+01
4.195767e+01	-1.053723e+01
4.220002e+01	-1.058221e+01
4.244377e+01	-1.062795e+01
4.268892e+01	-1.067357e+01
4.293549e+01	-1.071968e+01
4.318348e+01	-1.076553e+01
4.343291e+01	-1.081134e+01
4.368377e+01	-1.085772e+01
4.393609e+01	-1.090315e+01
4.418986e+01	-1.094865e+01
4.444510e+01	-1.099490e+01
4.470182e+01	-1.104089e+01
4.496001e+01	-1.108724e+01
4.521970e+01	-1.113338e+01
4.548089e+01	-1.117955e+01
4.574358e+01	-1.122581e+01
4.600779e+01	-1.127169e+01
4.627353e+01	-1.131835e+01
4.654081e+01	-1.136455e+01
4.680963e+01	-1.141085e+01
4.708000e+01	-1.145746e+01
4.735193e+01	-1.150391e+01
4.762543e+01	-1.155088e+01
4.790051e+01	-1.159744e+01
4.817719e+01	-1.164402e+01
4.845545e+01	-1.169049e+01
4.873533e+01	-1.173710e+01
4.901682e+01	-1.178407e+01
4.929994e+01	-1.183034e+01
4.958470e+01	-1.187677e+01
4.987110e+01	-1.192374e+01
5.015915e+01	-1.197046e+01
5.044887e+01	-1.201748e+01
5.074026e+01	-1.206558e+01
5.103333e+01	-1.211127e+01
5.132810e+01	-1.215846e+01
5.162457e+01	-1.220502e+01
5.192275e+01	-1.225213e+01
5.222265e+01	-1.229875e+01
5.252429e+01	-1.234705e+01
5.282767e+01	-1.239401e+01
5.313280e+01	-1.244118e+01
5.343969e+01	-1.248885e+01
5.374836e+01	-1.253541e+01
5.405880e+01	-1.258247e+01
5.437105e+01	-1.262941e+01
5.468509e+01	-1.267774e+01
5.500095e+01	-1.272454e+01
5.531863e+01	-1.277158e+01
5.563815e+01	-1.281922e+01
5.595951e+01	-1.286666e+01
5.628273e+01	-1.291400e+01
5.660782e+01	-1.296117e+01
5.693479e+01	-1.300856e+01
5.726364e+01	-1.305697e+01
5.759439e+01	-1.310381e+01
5.792705e+01	-1.315203e+01
5.826164e+01	-1.319943e+01
5.859815e+01	-1.324726e+01
5.893662e+01	-1.329473e+01
5.927703e+01	-1.334271e+01
5.961941e+01	-1.338998e+01
5.996377e+01	-1.343838e+01
6.031012e+01	-1.348553e+01
6.065847e+01	-1.353351e+01
6.100883e+01	-1.358138e+01
6.136121e+01	-1.362935e+01
6.171563e+01	-1.367748e+01
6.207210e+01	-1.372478e+01
6.243063e+01	-1.377240e+01
6.279122e+01	-1.382141e+01
6.315390e+01	-1.386876e+01
6.351868e+01	-1.391645e+01
6.388556e+01	-1.396437e+01
6.425456e+01	-1.401300e+01
6.462569e+01	-1.406050e+01
6.499897e+01	-1.410948e+01
6.537440e+01	-1.415750e+01
6.575200e+01	-1.420537e+01
6.613178e+01	-1.425338e+01
6.651375e+01	-1.430140e+01
6.689793e+01	-1.434944e+01
6.728433e+01	-1.439786e+01
6.767297e+01	-1.444572e+01
6.806384e+01	-1.449465e+01
6.845698e+01	-1.454256e+01
6.885238e+01	-1.459127e+01
6.925007e+01	-1.463907e+01
6.965005e+01	-1.468790e+01
7.005235e+01	-1.473603e+01
7.045697e+01	-1.478375e+01
7.086393e+01	-1.483285e+01
7.127323e+01	-1.488104e+01
7.168490e+01	-1.492949e+01
7.209895e+01	-1.497787e+01
7.251539e+01	-1.502560e+01
7.293424e+01	-1.507479e+01
7.335551e+01	-1.512331e+01
7.377920e+01	-1.517220e+01
7.420535e+01	-1.522011e+01
7.463396e+01	-1.526929e+01
7.506504e+01	-1.531708e+01
7.549861e+01	-1.536614e+01
7.593469e+01	-1.541444e+01
7.637328e+01	-1.546384e+01
7.681441e+01	-1.551174e+01
7.725809e+01	-1.555948e+01
7.770433e+01	-1.560810e+01
7.815315e+01	-1.565716e+01
7.860456e+01	-1.570536e+01
7.905857e+01	-1.575519e+01
7.951521e+01	-1.580298e+01
7.997449e+01	-1.585207e+01
8.043642e+01	-1.590182e+01
8.090102e+01	-1.594915e+01
8.136830e+01	-1.599748e+01
8.183828e+01	-1.604726e+01
8.231097e+01	-1.609505e+01
8.278640e+01	-1.614527e+01
8.326457e+01	-1.619345e+01
8.374550e+01	-1.624278e+01
8.422921e+01	-1.629100e+01
8.471572e+01	-1.634080e+01
8.520503e+01	-1.638947e+01
8.569717e+01	-1.643858e+01
8.619215e+01	-1.648646e+01
8.669000e+01	-1.653663e+01
8.719071e+01	-1.658541e+01
8.769432e+01	-1.663494e+01
8.820084e+01	-1.668241e+01
8.871029e+01	-1.673047e+01
8.922267e+01	-1.678026e+01
8.973802e+01	-1.683009e+01
9.025634e+01	-1.687932e+01
9.077766e+01	-1.692747e+01
9.130199e+01	-1.697749e+01
9.182935e+01	-1.702599e+01
9.235975e+01	-1.707534e+01
9.289321e+01	-1.712301e+01
9.342976e+01	-1.717275e+01
9.396941e+01	-1.722233e+01
9.451217e+01	-1.727190e+01
9.505807e+01	-1.731969e+01
9.560712e+01	-1.736931e+01
9.615934e+01	-1.741739e+01
9.671476e+01	-1.746782e+01
9.727338e+01	-1.751714e+01
9.783522e+01	-1.756564e+01
9.840032e+01	-1.761581e+01
9.896867e+01	-1.766354e+01
9.954031e+01	-1.771346e+01
1.001153e+02	-1.776229e+01
1.006935e+02	-1.781197e+01
1.012751e+02	-1.785918e+01
1.018601e+02	-1.791068e+01
1.024484e+02	-1.796064e+01
1.030402e+02	-1.800842e+01
1.036353e+02	-1.805834e+01
1.042339e+02	-1.810718e+01
1.048360e+02	-1.815778e+01
1.054415e+02	-1.820554e+01
1.060505e+02	-1.825492e+01
1.066631e+02	-1.830478e+01
1.072791e+02	-1.835287e+01
1.078988e+02	-1.840338e+01
1.085220e+02	-1.845146e+01
1.091488e+02	-1.849976e+01
1.097793e+02	-1.855076e+01
1.104133e+02	-1.860016e+01
1.110511e+02	-1.864947e+01
1.116925e+02	-1.869876e+01
1.123376e+02	-1.874869e+01
1.129865e+02	-1.879854e+01
1.136391e+02	-1.884702e+01
1.142955e+02	-1.889803e+01
1.149556e+02	-1.894590e+01
1.156196e+02	-1.899488e+01
1.162874e+02	-1.904486e+01
1.169591e+02	-1.909467e+01
1.176347e+02	-1.914370e+01
1.183141e+02	-1.919300e+01
1.189975e+02	-1.924353e+01
1.196848e+02	-1.929183e+01
1.203761e+02	-1.934076e+01
1.210714e+02	-1.939094e+01
1.217707e+02	-1.943998e+01
1.224740e+02	-1.948983e+01
1.231814e+02	-1.953776e+01
1.238929e+02	-1.958855e+01
1.246085e+02	-1.963893e+01
1.253283e+02	-1.968674e+01
1.260522e+02	-1.973560e+01
1.267802e+02	-1.978545e+01
1.275125e+02	-1.983727e+01
1.282490e+02	-1.988645e+01
1.289898e+02	-1.993620e+01
1.297348e+02	-1.998659e+01
1.304842e+02	-2.003547e+01
1.312378e+02	-2.008472e+01
1.319959e+02	-2.013369e+01
1.327583e+02	-2.018279e+01
1.335251e+02	-2.023098e+01
1.342963e+02	-2.028092e+01
1.350720e+02	-2.033184e+01
1.358522e+02	-2.038145e+01
1.366368e+02	-2.043206e+01
1.374260e+02	-2.048142e+01
1.382198e+02	-2.053182e+01
1.390182e+02	-2.057970e+01
1.398211e+02	-2.062905e+01
1.406287e+02	-2.068075e+01
1.414410e+02	-2.072645e+01
1.422579e+02	-2.077640e+01
1.430796e+02	-2.082616e+01
1.439060e+02	-2.087591e+01
1.447372e+02	-2.092674e+01
1.455732e+02	-2.097657e+01
1.464141e+02	-2.102663e+01
1.472597e+02	-2.107684e+01
1.481103e+02	-2.112710e+01
1.489658e+02	-2.117209e+01
1.498262e+02	-2.122400e+01
1.506916e+02	-2.127279e+01
1.515620e+02	-2.132555e+01
1.524374e+02	-2.137229e+01
1.533179e+02	-2.142231e+01
1.542034e+02	-2.147395e+01
1.550941e+02	-2.152367e+01
1.559899e+02	-2.157300e+01
1.568909e+02	-2.162319e+01
1.577971e+02	-2.167207e+01
1.587085e+02	-2.172298e+01
1.596252e+02	-2.177202e+01
1.605472e+02	-2.182257e+01
1.614745e+02	-2.187036e+01
1.624072e+02	-2.191874e+01
1.633453e+02	-2.197062e+01
1.642887e+02	-2.202060e+01
1.652377e+02	-2.206944e+01
1.661921e+02	-2.211946e+01
1.671520e+02	-2.216737e+01
1.681175e+02	-2.221929e+01
1.690885e+02	-2.226971e+01
1.700651e+02	-2.231891e+01
1.710474e+02	-2.236700e+01
1.720354e+02	-2.241738e+01
1.730291e+02	-2.246626e+01
1.740285e+02	-2.251709e+01
1.750337e+02	-2.256875e+01
1.760446e+02	-2.261630e+01
1.770615e+02	-2.266540e+01
1.780842e+02	-2.271732e+01
1.791128e+02	-2.276775e+01
1.801473e+02	-2.281625e+01
1.811878e+02	-2.286475e+01
1.822344e+02	-2.291550e+01
1.832870e+02	-2.296486e+01
1.843456e+02	-2.301515e+01
1.854104e+02	-2.306584e+01
1.864813e+02	-2.311584e+01
1.875584e+02	-2.316346e+01
1.886418e+02	-2.321281e+01
1.897313e+02	-2.326644e+01
1.908272e+02	-2.331440e+01
1.919294e+02	-2.336542e+01
1.930380e+02	-2.341537e+01
1.941530e+02	-2.346485e+01
1.952744e+02	-2.351467e+01
1.964023e+02	-2.356234e+01
1.975367e+02	-2.361415e+01
1.986777e+02	-2.366377e+01
1.998252e+02	-2.371252e+01
2.009794e+02	-2.376306e+01
2.021403e+02	-2.381343e+01
2.033078e+02	-2.386323e+01
2.044821e+02	-2.391166e+01
2.056632e+02	-2.396221e+01
2.068511e+02	-2.401393e+01
2.080459e+02	-2.406062e+01
2.092475e+02	-2.411216e+01
2.104561e+02	-2.416222e+01
2.116717e+02	-2.421147e+01
2.128943e+02	-2.426216e+01
2.141240e+02	-2.431101e+01
2.153608e+02	-2.436021e+01
2.166047e+02	-2.440900e+01
2.178558e+02	-2.446163e+01
2.191141e+02	-2.451054e+01
2.203797e+02	-2.455871e+01
2.216526e+02	-2.461148e+01
2.229329e+02	-2.466047e+01
2.242205e+02	-2.471078e+01
2.255156e+02	-2.476007e+01
2.268182e+02	-2.480756e+01
2.281283e+02	-2.485709e+01
2.294459e+02	-2.491192e+01
2.307712e+02	-2.495874e+01
2.321041e+02	-2.500857e+01
2.334447e+02	-2.506159e+01
2.347931e+02	-2.511053e+01
2.361493e+02	-2.515969e+01
2.375133e+02	-2.520687e+01
2.388851e+02	-2.525995e+01
2.402649e+02	-2.530973e+01
2.416527e+02	-2.535955e+01
2.430484e+02	-2.540883e+01
2.444523e+02	-2.546130e+01
2.458642e+02	-2.550810e+01
2.472843e+02	-2.555849e+01
2.487126e+02	-2.560772e+01
2.501492e+02	-2.565924e+01
2.515940e+02	-2.571142e+01
2.530472e+02	-2.575700e+01
2.545088e+02	-2.580796e+01
2.559789e+02	-2.585880e+01
2.574574e+02	-2.590930e+01
2.589444e+02	-2.595753e+01
2.604401e+02	-2.600751e+01
2.619444e+02	-2.606035e+01
2.634574e+02	-2.611087e+01
2.649791e+02	-2.615648e+01
2.665096e+02	-2.621055e+01
2.680489e+02	-2.625497e+01
2.695972e+02	-2.630718e+01
2.711544e+02	-2.635600e+01
2.727205e+02	-2.640892e+01
2.742958e+02	-2.645589e+01
2.758801e+02	-2.650880e+01
2.774736e+02	-2.655741e+01
2.790762e+02	-2.660975e+01
2.806882e+02	-2.665985e+01
2.823094e+02	-2.670790e+01
2.839400e+02	-2.675855e+01
2.855800e+02	-2.681047e+01
2.872295e+02	-2.685887e+01
2.888886e+02	-2.691054e+01
2.905572e+02	-2.695604e+01
2.922354e+02	-2.700556e+01
2.939234e+02	-2.705555e+01
2.956211e+02	-2.711031e+01
2.973286e+02	-2.715966e+01
2.990459e+02	-2.720705e+01
3.007732e+02	-2.725602e+01
3.025104e+02	-2.730662e+01
3.042577e+02	-2.735581e+01
3.060151e+02	-2.740893e+01
3.077826e+02	-2.745917e+01
3.095604e+02	-2.750622e+01
3.113484e+02	-2.755994e+01
3.131467e+02	-2.760977e+01
3.149554e+02	-2.765939e+01
3.167746e+02	-2.770637e+01
3.186043e+02	-2.775576e+01
3.204445e+02	-2.780583e+01
3.222954e+02	-2.785566e+01
3.241570e+02	-2.790894e+01
3.260293e+02	-2.795350e+01
3.279124e+02	-2.801172e+01
3.298064e+02	-2.805783e+01
3.317114e+02	-2.811355e+01
3.336273e+02	-2.816125e+01
3.355544e+02	-2.821045e+01
3.374925e+02	-2.825653e+01
3.394418e+02	-2.830845e+01
3.414024e+02	-2.836115e+01
3.433744e+02	-2.840983e+01
3.453577e+02	-2.845995e+01
3.473525e+02	-2.850960e+01
3.493588e+02	-2.856100e+01
3.513766e+02	-2.861230e+01
3.534062e+02	-2.865087e+01
3.554474e+02	-2.871190e+01
3.575005e+02	-2.875916e+01
3.595654e+02	-2.880475e+01
3.616422e+02	-2.885906e+01
3.637311e+02	-2.890822e+01
3.658320e+02	-2.895860e+01
3.679450e+02	-2.901086e+01
3.700702e+02	-2.905679e+01
3.722077e+02	-2.910689e+01
3.743576e+02	-2.915968e+01
3.765199e+02	-2.920666e+01
3.786946e+02	-2.925472e+01
3.808820e+02	-2.930700e+01
3.830819e+02	-2.935513e+01
3.852946e+02	-2.941207e+01
3.875200e+02	-2.946189e+01
3.897583e+02	-2.951056e+01
3.920096e+02	-2.955953e+01
3.942738e+02	-2.960313e+01
3.965511e+02	-2.966049e+01
3.988416e+02	-2.970872e+01
4.011452e+02	-2.976087e+01
4.034622e+02	-2.980944e+01
4.057926e+02	-2.986705e+01
4.081365e+02	-2.991151e+01
4.104938e+02	-2.996322e+01
4.128648e+02	-3.000991e+01
4.152495e+02	-3.006140e+01
4.176480e+02	-3.011827e+01
4.200603e+02	-3.016075e+01
4.224866e+02	-3.020817e+01
4.249268e+02	-3.026049e+01
4.273812e+02	-3.031103e+01
4.298497e+02	-3.036480e+01
4.323325e+02	-3.041346e+01
4.348297e+02	-3.045880e+01
4.373412e+02	-3.050970e+01
4.398673e+02	-3.056264e+01
4.424079e+02	-3.061025e+01
4.449633e+02	-3.066631e+01
4.475334e+02	-3.071156e+01
4.501183e+02	-3.076753e+01
4.527182e+02	-3.081699e+01
4.553330e+02	-3.086343e+01
4.579630e+02	-3.091480e+01
4.606082e+02	-3.096724e+01
4.632687e+02	-3.101836e+01
4.659445e+02	-3.106595e+01
4.686358e+02	-3.111156e+01
4.713426e+02	-3.116406e+01
4.740650e+02	-3.121556e+01
4.768032e+02	-3.126397e+01
4.795572e+02	-3.131513e+01
4.823271e+02	-3.136613e+01
4.851130e+02	-3.141607e+01
4.879150e+02	-3.146735e+01
4.907332e+02	-3.151619e+01
4.935676e+02	-3.156954e+01
4.964185e+02	-3.162311e+01
4.992858e+02	-3.166722e+01
5.021696e+02	-3.171180e+01
5.050701e+02	-3.176656e+01
5.079874e+02	-3.181744e+01
5.109215e+02	-3.186231e+01
5.138726e+02	-3.191548e+01
5.168407e+02	-3.196757e+01
5.198259e+02	-3.202876e+01
5.228284e+02	-3.206585e+01
5.258482e+02	-3.211899e+01
5.288855e+02	-3.216745e+01
5.319403e+02	-3.221243e+01
5.350128e+02	-3.227054e+01
5.381030e+02	-3.231341e+01
5.412111e+02	-3.236903e+01
5.443371e+02	-3.242314e+01
5.474812e+02	-3.247065e+01
5.506434e+02	-3.251579e+01
5.538239e+02	-3.256684e+01
5.570228e+02	-3.262326e+01
5.602401e+02	-3.267174e+01
5.634760e+02	-3.272751e+01
5.667306e+02	-3.277141e+01
5.700040e+02	-3.282600e+01
5.732964e+02	-3.287322e+01
5.766077e+02	-3.292447e+01
5.799382e+02	-3.297570e+01
5.832879e+02	-3.301656e+01
5.866569e+02	-3.307328e+01
5.900454e+02	-3.312535e+01
5.934535e+02	-3.317080e+01
5.968813e+02	-3.323002e+01
6.003288e+02	-3.327270e+01
6.037963e+02	-3.332916e+01
6.072838e+02	-3.337272e+01
6.107914e+02	-3.342675e+01
6.143194e+02	-3.347136e+01
6.178676e+02	-3.352673e+01
6.214364e+02	-3.357707e+01
6.250258e+02	-3.362628e+01
6.286359e+02	-3.367721e+01
6.322669e+02	-3.372673e+01
6.359189e+02	-3.377693e+01
6.395919e+02	-3.382417e+01
6.432862e+02	-3.388017e+01
6.470017e+02	-3.393251e+01
6.507388e+02	-3.397494e+01
6.544974e+02	-3.402929e+01
6.582778e+02	-3.407635e+01
6.620800e+02	-3.413000e+01
6.659041e+02	-3.418695e+01
6.697504e+02	-3.423123e+01
6.736188e+02	-3.427697e+01
6.775096e+02	-3.432617e+01
6.814229e+02	-3.438417e+01
6.853587e+02	-3.443205e+01
6.893173e+02	-3.448702e+01
6.932988e+02	-3.453401e+01
6.973033e+02	-3.458624e+01
7.013309e+02	-3.464143e+01
