Frequency(Hz)	Magnitude(dB)
1.000000e+01	-1.859548e+00
1.005776e+01	-1.877225e+00
1.011585e+01	-1.894874e+00
1.017428e+01	-1.912401e+00
1.023305e+01	-1.930165e+00
1.029215e+01	-1.948307e+00
1.035160e+01	-1.966546e+00
1.041139e+01	-1.984806e+00
1.047153e+01	-2.003338e+00
1.053201e+01	-2.021701e+00
1.059284e+01	-2.040452e+00
1.065403e+01	-2.059289e+00
1.071556e+01	-2.078296e+00
1.077746e+01	-2.097333e+00
1.083971e+01	-2.116535e+00
1.090232e+01	-2.135958e+00
1.096529e+01	-2.155452e+00
1.102862e+01	-2.175061e+00
1.109232e+01	-2.195015e+00
1.115639e+01	-2.214603e+00
1.122083e+01	-2.234924e+00
1.128564e+01	-2.254841e+00
1.135083e+01	-2.275296e+00
1.141639e+01	-2.295873e+00
1.148233e+01	-2.316387e+00
1.154865e+01	-2.337265e+00
1.161536e+01	-2.358087e+00
1.168245e+01	-2.378892e+00
1.174992e+01	-2.400462e+00
1.181779e+01	-2.421604e+00
1.188605e+01	-2.443096e+00
1.195470e+01	-2.464624e+00
1.202375e+01	-2.486061e+00
1.209320e+01	-2.508173e+00
1.216305e+01	-2.530390e+00
1.223330e+01	-2.552309e+00
1.230396e+01	-2.574909e+00
1.237503e+01	-2.597146e+00
1.244651e+01	-2.619869e+00
1.251840e+01	-2.642675e+00
1.259070e+01	-2.665270e+00
1.266343e+01	-2.688374e+00
1.273657e+01	-2.711510e+00
1.281014e+01	-2.734922e+00
1.288413e+01	-2.758354e+00
1.295855e+01	-2.781984e+00
1.303339e+01	-2.805675e+00
1.310867e+01	-2.829642e+00
1.318439e+01	-2.853629e+00
1.326054e+01	-2.877694e+00
1.333713e+01	-2.901755e+00
1.341417e+01	-2.926447e+00
1.349165e+01	-2.951137e+00
1.356958e+01	-2.975847e+00
1.364795e+01	-3.000815e+00
1.372678e+01	-3.025647e+00
1.380607e+01	-3.050778e+00
1.388581e+01	-3.076071e+00
1.396602e+01	-3.101669e+00
1.404668e+01	-3.127266e+00
1.412782e+01	-3.152835e+00
1.420942e+01	-3.179008e+00
1.429149e+01	-3.204887e+00
1.437404e+01	-3.231032e+00
1.445706e+01	-3.257516e+00
1.454057e+01	-3.284104e+00
1.462455e+01	-3.310708e+00
1.470902e+01	-3.337271e+00
1.479398e+01	-3.364131e+00
1.487943e+01	-3.391143e+00
1.496537e+01	-3.418335e+00
1.505181e+01	-3.445617e+00
1.513875e+01	-3.473286e+00
1.522619e+01	-3.500712e+00
1.531414e+01	-3.528523e+00
1.540259e+01	-3.556391e+00
1.549156e+01	-3.584538e+00
1.558103e+01	-3.612638e+00
1.567103e+01	-3.640909e+00
1.576155e+01	-3.669467e+00
1.585258e+01	-3.697919e+00
1.594415e+01	-3.726610e+00
1.603624e+01	-3.755597e+00
1.612886e+01	-3.784752e+00
1.622202e+01	-3.813839e+00
1.631572e+01	-3.843117e+00
1.640996e+01	-3.872497e+00
1.650474e+01	-3.902219e+00
1.660008e+01	-3.931749e+00
1.669596e+01	-3.961896e+00
1.679239e+01	-3.991728e+00
1.688938e+01	-4.021742e+00
1.698694e+01	-4.052373e+00
1.708505e+01	-4.082693e+00
1.718373e+01	-4.113099e+00
1.728299e+01	-4.144075e+00
1.738281e+01	-4.174510e+00
1.748322e+01	-4.205589e+00
1.758420e+01	-4.236886e+00
1.768576e+01	-4.267939e+00
1.778792e+01	-4.299151e+00
1.789066e+01	-4.330943e+00
1.799399e+01	-4.362490e+00
1.809793e+01	-4.394493e+00
1.820246e+01	-4.426114e+00
1.830760e+01	-4.458263e+00
1.841334e+01	-4.490533e+00
1.851969e+01	-4.522596e+00
1.862666e+01	-4.555220e+00
1.873425e+01	-4.587643e+00
1.884246e+01	-4.620159e+00
1.895129e+01	-4.653054e+00
1.906075e+01	-4.685798e+00
1.917085e+01	-4.719036e+00
1.928158e+01	-4.752586e+00
1.939295e+01	-4.785888e+00
1.950496e+01	-4.819446e+00
1.961762e+01	-4.852988e+00
1.973093e+01	-4.886776e+00
1.984490e+01	-4.920478e+00
1.995952e+01	-4.954499e+00
2.007480e+01	-4.988242e+00
2.019076e+01	-5.022688e+00
2.030738e+01	-5.057047e+00
2.042467e+01	-5.091458e+00
2.054264e+01	-5.126193e+00
2.066130e+01	-5.161003e+00
2.078064e+01	-5.195669e+00
2.090066e+01	-5.230492e+00
2.102139e+01	-5.265843e+00
2.114280e+01	-5.300896e+00
2.126492e+01	-5.336324e+00
2.138775e+01	-5.371636e+00
2.151128e+01	-5.407199e+00
2.163553e+01	-5.442967e+00
2.176050e+01	-5.478878e+00
2.188619e+01	-5.514898e+00
2.201260e+01	-5.550889e+00
2.213974e+01	-5.586673e+00
2.226762e+01	-5.623166e+00
2.239624e+01	-5.659540e+00
2.252560e+01	-5.696108e+00
2.265571e+01	-5.732716e+00
2.278656e+01	-5.769658e+00
2.291818e+01	-5.806245e+00
2.305055e+01	-5.843063e+00
2.318369e+01	-5.880675e+00
2.331760e+01	-5.917255e+00
2.345228e+01	-5.954919e+00
2.358774e+01	-5.992059e+00
2.372398e+01	-6.029637e+00
2.386101e+01	-6.067104e+00
2.399883e+01	-6.104910e+00
2.413745e+01	-6.142767e+00
2.427686e+01	-6.180288e+00
2.441709e+01	-6.218358e+00
2.455812e+01	-6.256670e+00
2.469997e+01	-6.295149e+00
2.484263e+01	-6.333283e+00
2.498612e+01	-6.371801e+00
2.513044e+01	-6.410066e+00
2.527559e+01	-6.449072e+00
2.542158e+01	-6.487713e+00
2.556842e+01	-6.526300e+00
2.571610e+01	-6.565382e+00
2.586463e+01	-6.604581e+00
2.601403e+01	-6.643879e+00
2.616428e+01	-6.682716e+00
2.631541e+01	-6.722333e+00
2.646740e+01	-6.761491e+00
2.662028e+01	-6.801289e+00
2.677404e+01	-6.841025e+00
2.692868e+01	-6.880848e+00
2.708422e+01	-6.920288e+00
2.724066e+01	-6.960014e+00
2.739800e+01	-7.000414e+00
2.755625e+01	-7.040271e+00
2.771541e+01	-7.080750e+00
2.787550e+01	-7.120486e+00
2.803650e+01	-7.160886e+00
2.819844e+01	-7.201421e+00
2.836131e+01	-7.241943e+00
2.852513e+01	-7.282680e+00
2.868989e+01	-7.323405e+00
2.885560e+01	-7.364317e+00
2.902227e+01	-7.405074e+00
2.918990e+01	-7.445841e+00
2.935850e+01	-7.486865e+00
2.952807e+01	-7.528344e+00
2.969863e+01	-7.569538e+00
2.987016e+01	-7.610784e+00
3.004269e+01	-7.652282e+00
3.021622e+01	-7.693633e+00
3.039075e+01	-7.735393e+00
3.056628e+01	-7.776994e+00
3.074283e+01	-7.818894e+00
3.092040e+01	-7.860439e+00
3.109900e+01	-7.902711e+00
3.127862e+01	-7.944439e+00
3.145929e+01	-7.986336e+00
3.164099e+01	-8.028640e+00
3.182375e+01	-8.070249e+00
3.200756e+01	-8.112762e+00
3.219244e+01	-8.155266e+00
3.237838e+01	-8.197533e+00
3.256540e+01	-8.239998e+00
3.275349e+01	-8.282662e+00
3.294268e+01	-8.325227e+00
3.313295e+01	-8.368389e+00
3.332433e+01	-8.411051e+00
3.351681e+01	-8.453275e+00
3.371040e+01	-8.496591e+00
3.390511e+01	-8.539283e+00
3.410094e+01	-8.582813e+00
3.429791e+01	-8.625176e+00
3.449601e+01	-8.668608e+00
3.469526e+01	-8.711699e+00
3.489566e+01	-8.755466e+00
3.509721e+01	-8.799080e+00
3.529993e+01	-8.842025e+00
3.550382e+01	-8.885775e+00
3.570889e+01	-8.929631e+00
3.591515e+01	-8.972930e+00
3.612259e+01	-9.017000e+00
3.633123e+01	-9.060528e+00
3.654108e+01	-9.104130e+00
3.675214e+01	-9.148482e+00
3.696442e+01	-9.192742e+00
3.717792e+01	-9.236560e+00
3.739266e+01	-9.280722e+00
3.760864e+01	-9.324639e+00
3.782587e+01	-9.368933e+00
3.804435e+01	-9.413375e+00
3.826409e+01	-9.457623e+00
3.848510e+01	-9.501560e+00
3.870739e+01	-9.546255e+00
3.893096e+01	-9.590436e+00
3.915583e+01	-9.635202e+00
3.938199e+01	-9.679792e+00
3.960946e+01	-9.724870e+00
3.983824e+01	-9.769152e+00
4.006834e+01	-9.814446e+00
4.029978e+01	-9.858794e+00
4.053255e+01	-9.903720e+00
4.076666e+01	-9.948267e+00
4.100213e+01	-9.994070e+00
4.123896e+01	-1.003869e+01
4.147715e+01	-1.008380e+01
4.171672e+01	-1.012906e+01
4.195767e+01	-1.017406e+01
4.220002e+01	-1.021926e+01
4.244377e+01	-1.026502e+01
4.268892e+01	-1.030986e+01
4.293549e+01	-1.035573e+01
4.318348e+01	-1.040103e+01
4.343291e+01	-1.044642e+01
4.368377e+01	-1.049199e+01
4.393609e+01	-1.053756e+01
4.418986e+01	-1.058277e+01
4.444510e+01	-1.062866e+01
4.470182e+01	-1.067442e+01
4.496001e+01	-1.072005e+01
4.521970e+01	-1.076511e+01
4.548089e+01	-1.081191e+01
4.574358e+01	-1.085822e+01
4.600779e+01	-1.090408e+01
4.627353e+01	-1.094975e+01
4.654081e+01	-1.099562e+01
4.680963e+01	-1.104182e+01
4.708000e+01	-1.108826e+01
4.735193e+01	-1.113375e+01
4.762543e+01	-1.118008e+01
4.790051e+01	-1.122664e+01
4.817719e+01	-1.127296e+01
4.845545e+01	-1.131938e+01
4.873533e+01	-1.136541e+01
4.901682e+01	-1.141199e+01
4.929994e+01	-1.145813e+01
4.958470e+01	-1.150486e+01
4.987110e+01	-1.155157e+01
5.015915e+01	-1.159775e+01
5.044887e+01	-1.164416e+01
5.074026e+01	-1.169084e+01
5.103333e+01	-1.173738e+01
5.132810e+01	-1.178425e+01
5.162457e+01	-1.183033e+01
5.192275e+01	-1.187849e+01
5.222265e+01	-1.192475e+01
5.252429e+01	-1.197098e+01
5.282767e+01	-1.201827e+01
5.313280e+01	-1.206521e+01
5.343969e+01	-1.211263e+01
5.374836e+01	-1.215916e+01
5.405880e+01	-1.220652e+01
5.437105e+01	-1.225351e+01
5.468509e+01	-1.230011e+01
5.500095e+01	-1.234678e+01
5.531863e+01	-1.239463e+01
5.563815e+01	-1.244173e+01
5.595951e+01	-1.248865e+01
5.628273e+01	-1.253626e+01
5.660782e+01	-1.258325e+01
5.693479e+01	-1.263081e+01
5.726364e+01	-1.267745e+01
5.759439e+01	-1.272526e+01
5.792705e+01	-1.277205e+01
5.826164e+01	-1.281976e+01
5.859815e+01	-1.286713e+01
5.893662e+01	-1.291471e+01
5.927703e+01	-1.296256e+01
5.961941e+01	-1.300934e+01
5.996377e+01	-1.305742e+01
6.031012e+01	-1.310516e+01
6.065847e+01	-1.315265e+01
6.100883e+01	-1.320006e+01
6.136121e+01	-1.324815e+01
6.171563e+01	-1.329547e+01
6.207210e+01	-1.334243e+01
6.243063e+01	-1.339118e+01
6.279122e+01	-1.343896e+01
6.315390e+01	-1.348674e+01
6.351868e+01	-1.353397e+01
6.388556e+01	-1.358254e+01
6.425456e+01	-1.363030e+01
6.462569e+01	-1.367791e+01
6.499897e+01	-1.372656e+01
6.537440e+01	-1.377332e+01
6.575200e+01	-1.382136e+01
6.613178e+01	-1.387045e+01
6.651375e+01	-1.391732e+01
6.689793e+01	-1.396588e+01
6.728433e+01	-1.401408e+01
6.767297e+01	-1.406192e+01
6.806384e+01	-1.410980e+01
6.845698e+01	-1.415834e+01
6.885238e+01	-1.420580e+01
6.925007e+01	-1.425372e+01
6.965005e+01	-1.430305e+01
7.005235e+01	-1.435037e+01
7.045697e+01	-1.439883e+01
7.086393e+01	-1.444680e+01
7.127323e+01	-1.449481e+01
7.168490e+01	-1.454302e+01
7.209895e+01	-1.459183e+01
7.251539e+01	-1.464023e+01
7.293424e+01	-1.468811e+01
7.335551e+01	-1.473718e+01
7.377920e+01	-1.478555e+01
7.420535e+01	-1.483406e+01
7.463396e+01	-1.488116e+01
7.506504e+01	-1.493009e+01
7.549861e+01	-1.497911e+01
7.593469e+01	-1.502738e+01
7.637328e+01	-1.507516e+01
7.681441e+01	-1.512484e+01
7.725809e+01	-1.517237e+01
7.770433e+01	-1.522158e+01
7.815315e+01	-1.526958e+01
7.860456e+01	-1.531804e+01
7.905857e+01	-1.536694e+01
7.951521e+01	-1.541501e+01
7.997449e+01	-1.546388e+01
8.043642e+01	-1.551319e+01
8.090102e+01	-1.556152e+01
8.136830e+01	-1.560950e+01
8.183828e+01	-1.565800e+01
8.231097e+01	-1.570741e+01
8.278640e+01	-1.575600e+01
8.326457e+01	-1.580398e+01
8.374550e+01	-1.585339e+01
8.422921e+01	-1.590235e+01
8.471572e+01	-1.595076e+01
8.520503e+01	-1.599973e+01
8.569717e+01	-1.604790e+01
8.619215e+01	-1.609738e+01
8.669000e+01	-1.614584e+01
8.719071e+01	-1.619373e+01
8.769432e+01	-1.624407e+01
8.820084e+01	-1.629266e+01
8.871029e+01	-1.634074e+01
8.922267e+01	-1.639107e+01
8.973802e+01	-1.643828e+01
9.025634e+01	-1.648855e+01
9.077766e+01	-1.653687e+01
9.130199e+01	-1.658589e+01
9.182935e+01	-1.663388e+01
9.235975e+01	-1.668409e+01
9.289321e+01	-1.673277e+01
9.342976e+01	-1.678179e+01
9.396941e+01	-1.683155e+01
9.451217e+01	-1.688054e+01
9.505807e+01	-1.692859e+01
9.560712e+01	-1.697671e+01
9.615934e+01	-1.702759e+01
9.671476e+01	-1.707606e+01
9.727338e+01	-1.712507e+01
9.783522e+01	-1.717337e+01
9.840032e+01	-1.722331e+01
9.896867e+01	-1.727159e+01
9.954031e+01	-1.732166e+01
1.001153e+02	-1.737027e+01
1.006935e+02	-1.742004e+01
1.012751e+02	-1.746913e+01
1.018601e+02	-1.751712e+01
1.024484e+02	-1.756575e+01
1.030402e+02	-1.761586e+01
1.036353e+02	-1.766545e+01
1.042339e+02	-1.771388e+01
1.048360e+02	-1.776440e+01
1.054415e+02	-1.781306e+01
1.060505e+02	-1.786226e+01
1.066631e+02	-1.791097e+01
1.072791e+02	-1.796036e+01
1.078988e+02	-1.801069e+01
1.085220e+02	-1.805793e+01
1.091488e+02	-1.810832e+01
1.097793e+02	-1.815788e+01
1.104133e+02	-1.820667e+01
1.110511e+02	-1.825538e+01
1.116925e+02	-1.830479e+01
1.123376e+02	-1.835371e+01
1.129865e+02	-1.840321e+01
1.136391e+02	-1.845405e+01
1.142955e+02	-1.850140e+01
1.149556e+02	-1.855052e+01
1.156196e+02	-1.860088e+01
1.162874e+02	-1.865041e+01
1.169591e+02	-1.869840e+01
1.176347e+02	-1.874907e+01
1.183141e+02	-1.879854e+01
1.189975e+02	-1.884764e+01
1.196848e+02	-1.889845e+01
1.203761e+02	-1.894690e+01
1.210714e+02	-1.899488e+01
1.217707e+02	-1.904658e+01
1.224740e+02	-1.909495e+01
1.231814e+02	-1.914364e+01
1.238929e+02	-1.919263e+01
1.246085e+02	-1.924370e+01
1.253283e+02	-1.929156e+01
1.260522e+02	-1.934266e+01
1.267802e+02	-1.939033e+01
1.275125e+02	-1.944065e+01
1.282490e+02	-1.949105e+01
1.289898e+02	-1.953970e+01
1.297348e+02	-1.958984e+01
1.304842e+02	-1.963955e+01
1.312378e+02	-1.968821e+01
1.319959e+02	-1.973832e+01
1.327583e+02	-1.978724e+01
1.335251e+02	-1.983718e+01
1.342963e+02	-1.988685e+01
1.350720e+02	-1.993543e+01
1.358522e+02	-1.998501e+01
1.366368e+02	-2.003359e+01
1.374260e+02	-2.008415e+01
1.382198e+02	-2.013423e+01
1.390182e+02	-2.018377e+01
1.398211e+02	-2.023288e+01
1.406287e+02	-2.028257e+01
1.414410e+02	-2.033227e+01
1.422579e+02	-2.038164e+01
1.430796e+02	-2.043137e+01
1.439060e+02	-2.048023e+01
1.447372e+02	-2.053215e+01
1.455732e+02	-2.058075e+01
1.464141e+02	-2.062975e+01
1.472597e+02	-2.068039e+01
1.481103e+02	-2.073132e+01
1.489658e+02	-2.077954e+01
1.498262e+02	-2.082863e+01
1.506916e+02	-2.087924e+01
1.515620e+02	-2.092659e+01
1.524374e+02	-2.097838e+01
1.533179e+02	-2.102660e+01
1.542034e+02	-2.107673e+01
1.550941e+02	-2.112774e+01
1.559899e+02	-2.117641e+01
1.568909e+02	-2.122553e+01
1.577971e+02	-2.127432e+01
1.587085e+02	-2.132459e+01
1.596252e+02	-2.137669e+01
1.605472e+02	-2.142301e+01
1.614745e+02	-2.147306e+01
1.624072e+02	-2.152223e+01
1.633453e+02	-2.157300e+01
1.642887e+02	-2.162257e+01
1.652377e+02	-2.167299e+01
1.661921e+02	-2.172190e+01
1.671520e+02	-2.177226e+01
1.681175e+02	-2.182380e+01
1.690885e+02	-2.187081e+01
1.700651e+02	-2.192307e+01
1.710474e+02	-2.197150e+01
1.720354e+02	-2.202116e+01
1.730291e+02	-2.206984e+01
1.740285e+02	-2.212233e+01
1.750337e+02	-2.217034e+01
1.760446e+02	-2.222067e+01
1.770615e+02	-2.226994e+01
1.780842e+02	-2.231842e+01
1.791128e+02	-2.236962e+01
1.801473e+02	-2.241953e+01
1.811878e+02	-2.246958e+01
1.822344e+02	-2.251819e+01
1.832870e+02	-2.256786e+01
1.843456e+02	-2.261852e+01
1.854104e+02	-2.266956e+01
1.864813e+02	-2.271875e+01
1.875584e+02	-2.276729e+01
1.886418e+02	-2.281840e+01
1.897313e+02	-2.286644e+01
1.908272e+02	-2.291592e+01
1.919294e+02	-2.296809e+01
1.930380e+02	-2.301644e+01
1.941530e+02	-2.306774e+01
1.952744e+02	-2.311523e+01
1.964023e+02	-2.316724e+01
1.975367e+02	-2.321887e+01
1.986777e+02	-2.326430e+01
1.998252e+02	-2.331424e+01
2.009794e+02	-2.336399e+01
2.021403e+02	-2.341480e+01
2.033078e+02	-2.346496e+01
2.044821e+02	-2.351495e+01
2.056632e+02	-2.356418e+01
2.068511e+02	-2.361691e+01
2.080459e+02	-2.366449e+01
2.092475e+02	-2.371452e+01
2.104561e+02	-2.376326e+01
2.116717e+02	-2.381237e+01
2.128943e+02	-2.386306e+01
2.141240e+02	-2.391242e+01
2.153608e+02	-2.396075e+01
2.166047e+02	-2.401316e+01
2.178558e+02	-2.406256e+01
2.191141e+02	-2.411175e+01
2.203797e+02	-2.416096e+01
2.216526e+02	-2.420919e+01
2.229329e+02	-2.426428e+01
2.242205e+02	-2.431265e+01
2.255156e+02	-2.436297e+01
2.268182e+02	-2.441318e+01
2.281283e+02	-2.446372e+01
2.294459e+02	-2.451338e+01
2.307712e+02	-2.455865e+01
2.321041e+02	-2.461328e+01
2.334447e+02	-2.466270e+01
2.347931e+02	-2.470842e+01
2.361493e+02	-2.475919e+01
2.375133e+02	-2.481250e+01
2.388851e+02	-2.486418e+01
2.402649e+02	-2.491286e+01
2.416527e+02	-2.496028e+01
2.430484e+02	-2.500998e+01
2.444523e+02	-2.505933e+01
2.458642e+02	-2.510851e+01
2.472843e+02	-2.515917e+01
2.487126e+02	-2.521180e+01
2.501492e+02	-2.526140e+01
2.515940e+02	-2.530883e+01
2.530472e+02	-2.535887e+01
2.545088e+02	-2.541004e+01
2.559789e+02	-2.545955e+01
2.574574e+02	-2.551030e+01
2.589444e+02	-2.556031e+01
2.604401e+02	-2.561220e+01
2.619444e+02	-2.565969e+01
2.634574e+02	-2.571074e+01
2.649791e+02	-2.576026e+01
2.665096e+02	-2.581030e+01
2.680489e+02	-2.586386e+01
2.695972e+02	-2.591005e+01
2.711544e+02	-2.595929e+01
2.727205e+02	-2.600795e+01
2.742958e+02	-2.606036e+01
2.758801e+02	-2.610723e+01
2.774736e+02	-2.616017e+01
2.790762e+02	-2.620999e+01
2.806882e+02	-2.625976e+01
2.823094e+02	-2.630369e+01
2.839400e+02	-2.636039e+01
2.855800e+02	-2.640874e+01
2.872295e+02	-2.645908e+01
2.888886e+02	-2.650540e+01
2.905572e+02	-2.656200e+01
2.922354e+02	-2.660724e+01
2.939234e+02	-2.665689e+01
2.956211e+02	-2.671083e+01
2.973286e+02	-2.675875e+01
2.990459e+02	-2.680644e+01
3.007732e+02	-2.685932e+01
3.025104e+02	-2.690796e+01
3.042577e+02	-2.696017e+01
3.060151e+02	-2.701130e+01
3.077826e+02	-2.706161e+01
3.095604e+02	-2.710623e+01
3.113484e+02	-2.715497e+01
3.131467e+02	-2.720797e+01
3.149554e+02	-2.725979e+01
3.167746e+02	-2.730896e+01
3.186043e+02	-2.735770e+01
3.204445e+02	-2.740700e+01
3.222954e+02	-2.745620e+01
3.241570e+02	-2.750478e+01
3.260293e+02	-2.755664e+01
3.279124e+02	-2.760833e+01
3.298064e+02	-2.766074e+01
3.317114e+02	-2.771012e+01
3.336273e+02	-2.775905e+01
3.355544e+02	-2.781156e+01
3.374925e+02	-2.785398e+01
3.394418e+02	-2.790989e+01
3.414024e+02	-2.795640e+01
3.433744e+02	-2.801289e+01
3.453577e+02	-2.805906e+01
3.473525e+02	-2.810581e+01
3.493588e+02	-2.816299e+01
3.513766e+02	-2.820869e+01
3.534062e+02	-2.825852e+01
3.554474e+02	-2.830816e+01
3.575005e+02	-2.835957e+01
3.595654e+02	-2.841056e+01
3.616422e+02	-2.846096e+01
3.637311e+02	-2.850989e+01
3.658320e+02	-2.855949e+01
3.679450e+02	-2.860352e+01
3.700702e+02	-2.865357e+01
3.722077e+02	-2.871113e+01
3.743576e+02	-2.875592e+01
3.765199e+02	-2.880851e+01
3.786946e+02	-2.885971e+01
3.808820e+02	-2.891223e+01
3.830819e+02	-2.896231e+01
3.852946e+02	-2.901342e+01
3.875200e+02	-2.905464e+01
3.897583e+02	-2.910937e+01
3.920096e+02	-2.915931e+01
3.942738e+02	-2.921420e+01
3.965511e+02	-2.925776e+01
3.988416e+02	-2.931121e+01
4.011452e+02	-2.935790e+01
4.034622e+02	-2.941384e+01
4.057926e+02	-2.946040e+01
4.081365e+02	-2.951012e+01
4.104938e+02	-2.956191e+01
4.128648e+02	-2.961019e+01
4.152495e+02	-2.966156e+01
4.176480e+02	-2.971010e+01
4.200603e+02	-2.976061e+01
4.224866e+02	-2.980880e+01
4.249268e+02	-2.985919e+01
4.273812e+02	-2.991253e+01
4.298497e+02	-2.996270e+01
4.323325e+02	-3.001437e+01
4.348297e+02	-3.006297e+01
4.373412e+02	-3.011073e+01
4.398673e+02	-3.016766e+01
4.424079e+02	-3.021265e+01
4.449633e+02	-3.026209e+01
4.475334e+02	-3.031327e+01
4.501183e+02	-3.035988e+01
4.527182e+02	-3.041255e+01
4.553330e+02	-3.046264e+01
4.579630e+02	-3.051642e+01
4.606082e+02	-3.056294e+01
4.632687e+02	-3.061352e+01
4.659445e+02	-3.066233e+01
4.686358e+02	-3.071471e+01
4.713426e+02	-3.076590e+01
4.740650e+02	-3.081379e+01
4.768032e+02	-3.086377e+01
4.795572e+02	-3.091504e+01
4.823271e+02	-3.096835e+01
4.851130e+02	-3.101398e+01
4.879150e+02	-3.106975e+01
4.907332e+02	-3.111521e+01
4.935676e+02	-3.116269e+01
4.964185e+02	-3.121536e+01
4.992858e+02	-3.126325e+01
5.021696e+02	-3.131542e+01
5.050701e+02	-3.136883e+01
5.079874e+02	-3.141532e+01
5.109215e+02	-3.146812e+01
5.138726e+02	-3.151534e+01
5.168407e+02	-3.156347e+01
5.198259e+02	-3.161298e+01
5.228284e+02	-3.167277e+01
5.258482e+02	-3.171243e+01
5.288855e+02	-3.175978e+01
5.319403e+02	-3.181444e+01
5.350128e+02	-3.187034e+01
5.381030e+02	-3.191941e+01
5.412111e+02	-3.196385e+01
5.443371e+02	-3.201976e+01
5.474812e+02	-3.206535e+01
5.506434e+02	-3.211610e+01
5.538239e+02	-3.217111e+01
5.570228e+02	-3.222167e+01
5.602401e+02	-3.227018e+01
5.634760e+02	-3.232415e+01
5.667306e+02	-3.236951e+01
5.700040e+02	-3.241386e+01
5.732964e+02	-3.247281e+01
5.766077e+02	-3.251618e+01
5.799382e+02	-3.256650e+01
5.832879e+02	-3.262278e+01
5.866569e+02	-3.266953e+01
5.900454e+02	-3.272199e+01
5.934535e+02	-3.277052e+01
5.968813e+02	-3.281665e+01
6.003288e+02	-3.286548e+01
6.037963e+02	-3.292332e+01
6.072838e+02	-3.296777e+01
6.107914e+02	-3.302399e+01
6.143194e+02	-3.307745e+01
6.178676e+02	-3.312727e+01
6.214364e+02	-3.317641e+01
6.250258e+02	-3.321798e+01
6.286359e+02	-3.327822e+01
6.322669e+02	-3.332726e+01
6.359189e+02	-3.338130e+01
6.395919e+02	-3.342230e+01
6.432862e+02	-3.347489e+01
6.470017e+02	-3.353524e+01
6.507388e+02	-3.357001e+01
6.544974e+02	-3.362864e+01
6.582778e+02	-3.367888e+01
6.620800e+02	-3.372147e+01
6.659041e+02	-3.377246e+01
6.697504e+02	-3.382907e+01
6.736188e+02	-3.387430e+01
6.775096e+02	-3.393098e+01
6.814229e+02	-3.397580e+01
6.853587e+02	-3.402717e+01
6.893173e+02	-3.407813e+01
6.932988e+02	-3.412557e+01
6.973033e+02	-3.417040e+01
7.013309e+02	-3.423215e+01
