Frequency(Hz)	Magnitude(dB)
1.000000e+01	-2.316837e+00
1.005776e+01	-2.337209e+00
1.011585e+01	-2.358346e+00
1.017428e+01	-2.379235e+00
1.023305e+01	-2.400295e+00
1.029215e+01	-2.421580e+00
1.035160e+01	-2.443273e+00
1.041139e+01	-2.464611e+00
1.047153e+01	-2.486481e+00
1.053201e+01	-2.508346e+00
1.059284e+01	-2.530432e+00
1.065403e+01	-2.552695e+00
1.071556e+01	-2.574856e+00
1.077746e+01	-2.597158e+00
1.083971e+01	-2.619942e+00
1.090232e+01	-2.642609e+00
1.096529e+01	-2.665725e+00
1.102862e+01	-2.688515e+00
1.109232e+01	-2.711540e+00
1.115639e+01	-2.735038e+00
1.122083e+01	-2.758597e+00
1.128564e+01	-2.781961e+00
1.135083e+01	-2.805807e+00
1.141639e+01	-2.829620e+00
1.148233e+01	-2.853524e+00
1.154865e+01	-2.877836e+00
1.161536e+01	-2.901940e+00
1.168245e+01	-2.926712e+00
1.174992e+01	-2.951238e+00
1.181779e+01	-2.976071e+00
1.188605e+01	-3.000659e+00
1.195470e+01	-3.025827e+00
1.202375e+01	-3.050771e+00
1.209320e+01	-3.076321e+00
1.216305e+01	-3.101667e+00
1.223330e+01	-3.127325e+00
1.230396e+01	-3.153182e+00
1.237503e+01	-3.178870e+00
1.244651e+01	-3.205052e+00
1.251840e+01	-3.231295e+00
1.259070e+01	-3.257581e+00
1.266343e+01	-3.283862e+00
1.273657e+01	-3.310883e+00
1.281014e+01	-3.337459e+00
1.288413e+01	-3.364323e+00
1.295855e+01	-3.391449e+00
1.303339e+01	-3.418569e+00
1.310867e+01	-3.445998e+00
1.318439e+01	-3.473589e+00
1.326054e+01	-3.501236e+00
1.333713e+01	-3.528827e+00
1.341417e+01	-3.556590e+00
1.349165e+01	-3.584723e+00
1.356958e+01	-3.613025e+00
1.364795e+01	-3.641157e+00
1.372678e+01	-3.669580e+00
1.380607e+01	-3.698231e+00
1.388581e+01	-3.727015e+00
1.396602e+01	-3.755929e+00
1.404668e+01	-3.784936e+00
1.412782e+01	-3.814128e+00
1.420942e+01	-3.843578e+00
1.429149e+01	-3.872894e+00
1.437404e+01	-3.902445e+00
1.445706e+01	-3.932190e+00
1.454057e+01	-3.962137e+00
1.462455e+01	-3.991711e+00
1.470902e+01	-4.022133e+00
1.479398e+01	-4.052498e+00
1.487943e+01	-4.083127e+00
1.496537e+01	-4.113615e+00
1.505181e+01	-4.144333e+00
1.513875e+01	-4.174699e+00
1.522619e+01	-4.205838e+00
1.531414e+01	-4.237238e+00
1.540259e+01	-4.268259e+00
1.549156e+01	-4.299552e+00
1.558103e+01	-4.331197e+00
1.567103e+01	-4.362803e+00
1.576155e+01	-4.394874e+00
1.585258e+01	-4.426592e+00
1.594415e+01	-4.458443e+00
1.603624e+01	-4.490451e+00
1.612886e+01	-4.522811e+00
1.622202e+01	-4.555480e+00
1.631572e+01	-4.587909e+00
1.640996e+01	-4.620500e+00
1.650474e+01	-4.653535e+00
1.660008e+01	-4.686328e+00
1.669596e+01	-4.719397e+00
1.679239e+01	-4.752583e+00
1.688938e+01	-4.786248e+00
1.698694e+01	-4.819343e+00
1.708505e+01	-4.852975e+00
1.718373e+01	-4.887114e+00
1.728299e+01	-4.920928e+00
1.738281e+01	-4.954412e+00
1.748322e+01	-4.988825e+00
1.758420e+01	-5.023022e+00
1.768576e+01	-5.057422e+00
1.778792e+01	-5.092180e+00
1.789066e+01	-5.126592e+00
1.799399e+01	-5.161208e+00
1.809793e+01	-5.195963e+00
1.820246e+01	-5.231078e+00
1.830760e+01	-5.265986e+00
1.841334e+01	-5.300943e+00
1.851969e+01	-5.336740e+00
1.862666e+01	-5.371987e+00
1.873425e+01	-5.407433e+00
1.884246e+01	-5.443313e+00
1.895129e+01	-5.479143e+00
1.906075e+01	-5.515033e+00
1.917085e+01	-5.550993e+00
1.928158e+01	-5.587329e+00
1.939295e+01	-5.623040e+00
1.950496e+01	-5.659911e+00
1.961762e+01	-5.696539e+00
1.973093e+01	-5.732880e+00
1.984490e+01	-5.769735e+00
1.995952e+01	-5.806575e+00
2.007480e+01	-5.843517e+00
2.019076e+01	-5.880536e+00
2.030738e+01	-5.917555e+00
2.042467e+01	-5.955174e+00
2.054264e+01	-5.992049e+00
2.066130e+01	-6.029689e+00
2.078064e+01	-6.067604e+00
2.090066e+01	-6.104951e+00
2.102139e+01	-6.142998e+00
2.114280e+01	-6.181002e+00
2.126492e+01	-6.218678e+00
2.138775e+01	-6.256920e+00
2.151128e+01	-6.295468e+00
2.163553e+01	-6.333367e+00
2.176050e+01	-6.371866e+00
2.188619e+01	-6.410449e+00
2.201260e+01	-6.449304e+00
2.213974e+01	-6.487582e+00
2.226762e+01	-6.526621e+00
2.239624e+01	-6.565728e+00
2.252560e+01	-6.604403e+00
2.265571e+01	-6.643789e+00
2.278656e+01	-6.682941e+00
2.291818e+01	-6.722316e+00
2.305055e+01	-6.761756e+00
2.318369e+01	-6.801373e+00
2.331760e+01	-6.840726e+00
2.345228e+01	-6.880746e+00
2.358774e+01	-6.920359e+00
2.372398e+01	-6.960248e+00
2.386101e+01	-7.000630e+00
2.399883e+01	-7.040756e+00
2.413745e+01	-7.080727e+00
2.427686e+01	-7.121328e+00
2.441709e+01	-7.161068e+00
2.455812e+01	-7.201798e+00
2.469997e+01	-7.242470e+00
2.484263e+01	-7.283103e+00
2.498612e+01	-7.323702e+00
2.513044e+01	-7.364555e+00
2.527559e+01	-7.405471e+00
2.542158e+01	-7.446082e+00
2.556842e+01	-7.487655e+00
2.571610e+01	-7.528471e+00
2.586463e+01	-7.570243e+00
2.601403e+01	-7.611175e+00
2.616428e+01	-7.652511e+00
2.631541e+01	-7.693746e+00
2.646740e+01	-7.735428e+00
2.662028e+01	-7.777270e+00
2.677404e+01	-7.819031e+00
2.692868e+01	-7.860784e+00
2.708422e+01	-7.902798e+00
2.724066e+01	-7.944889e+00
2.739800e+01	-7.986616e+00
2.755625e+01	-8.028475e+00
2.771541e+01	-8.071066e+00
2.787550e+01	-8.112978e+00
2.803650e+01	-8.155544e+00
2.819844e+01	-8.197741e+00
2.836131e+01	-8.240384e+00
2.852513e+01	-8.283024e+00
2.868989e+01	-8.325562e+00
2.885560e+01	-8.368061e+00
2.902227e+01	-8.411421e+00
2.918990e+01	-8.454161e+00
2.935850e+01	-8.497117e+00
2.952807e+01	-8.539760e+00
2.969863e+01	-8.582891e+00
2.987016e+01	-8.626075e+00
3.004269e+01	-8.669095e+00
3.021622e+01	-8.712407e+00
3.039075e+01	-8.755864e+00
3.056628e+01	-8.798930e+00
3.074283e+01	-8.842378e+00
3.092040e+01	-8.886230e+00
3.109900e+01	-8.929451e+00
3.127862e+01	-8.973906e+00
3.145929e+01	-9.017035e+00
3.164099e+01	-9.061227e+00
3.182375e+01	-9.104880e+00
3.200756e+01	-9.148951e+00
3.219244e+01	-9.193120e+00
3.237838e+01	-9.236568e+00
3.256540e+01	-9.280598e+00
3.275349e+01	-9.325504e+00
3.294268e+01	-9.369154e+00
3.313295e+01	-9.413784e+00
3.332433e+01	-9.457632e+00
3.351681e+01	-9.502000e+00
3.371040e+01	-9.546650e+00
3.390511e+01	-9.590652e+00
3.410094e+01	-9.636252e+00
3.429791e+01	-9.680334e+00
3.449601e+01	-9.725174e+00
3.469526e+01	-9.769632e+00
3.489566e+01	-9.814746e+00
3.509721e+01	-9.859499e+00
3.529993e+01	-9.904169e+00
3.550382e+01	-9.948987e+00
3.570889e+01	-9.994273e+00
3.591515e+01	-1.003897e+01
3.612259e+01	-1.008429e+01
3.633123e+01	-1.013027e+01
3.654108e+01	-1.017433e+01
3.675214e+01	-1.021994e+01
3.696442e+01	-1.026485e+01
3.717792e+01	-1.031048e+01
3.739266e+01	-1.035544e+01
3.760864e+01	-1.040170e+01
3.782587e+01	-1.044694e+01
3.804435e+01	-1.049258e+01
3.826409e+01	-1.053805e+01
3.848510e+01	-1.058344e+01
3.870739e+01	-1.062898e+01
3.893096e+01	-1.067534e+01
3.915583e+01	-1.072083e+01
3.938199e+01	-1.076664e+01
3.960946e+01	-1.081240e+01
3.983824e+01	-1.085815e+01
4.006834e+01	-1.090380e+01
4.029978e+01	-1.094977e+01
4.053255e+01	-1.099632e+01
4.076666e+01	-1.104219e+01
4.100213e+01	-1.108804e+01
4.123896e+01	-1.113448e+01
4.147715e+01	-1.118080e+01
4.171672e+01	-1.122637e+01
4.195767e+01	-1.127323e+01
4.220002e+01	-1.131937e+01
4.244377e+01	-1.136621e+01
4.268892e+01	-1.141201e+01
4.293549e+01	-1.145869e+01
4.318348e+01	-1.150595e+01
4.343291e+01	-1.155108e+01
4.368377e+01	-1.159843e+01
4.393609e+01	-1.164518e+01
4.418986e+01	-1.169246e+01
4.444510e+01	-1.173804e+01
4.470182e+01	-1.178433e+01
4.496001e+01	-1.183134e+01
4.521970e+01	-1.187862e+01
4.548089e+01	-1.192482e+01
4.574358e+01	-1.197265e+01
4.600779e+01	-1.201893e+01
4.627353e+01	-1.206512e+01
4.654081e+01	-1.211332e+01
4.680963e+01	-1.215992e+01
4.708000e+01	-1.220669e+01
4.735193e+01	-1.225442e+01
4.762543e+01	-1.230111e+01
4.790051e+01	-1.234795e+01
4.817719e+01	-1.239478e+01
4.845545e+01	-1.244158e+01
4.873533e+01	-1.248896e+01
4.901682e+01	-1.253695e+01
4.929994e+01	-1.258318e+01
4.958470e+01	-1.263131e+01
4.987110e+01	-1.267816e+01
5.015915e+01	-1.272537e+01
5.044887e+01	-1.277329e+01
5.074026e+01	-1.282036e+01
5.103333e+01	-1.286795e+01
5.132810e+01	-1.291580e+01
5.162457e+01	-1.296277e+01
5.192275e+01	-1.301035e+01
5.222265e+01	-1.305757e+01
5.252429e+01	-1.310583e+01
5.282767e+01	-1.315348e+01
5.313280e+01	-1.320037e+01
5.343969e+01	-1.324865e+01
5.374836e+01	-1.329631e+01
5.405880e+01	-1.334379e+01
5.437105e+01	-1.339160e+01
5.468509e+01	-1.343908e+01
5.500095e+01	-1.348710e+01
5.531863e+01	-1.353527e+01
5.563815e+01	-1.358265e+01
5.595951e+01	-1.363015e+01
5.628273e+01	-1.367844e+01
5.660782e+01	-1.372624e+01
5.693479e+01	-1.377438e+01
5.726364e+01	-1.382190e+01
5.759439e+01	-1.386990e+01
5.792705e+01	-1.391793e+01
5.826164e+01	-1.396623e+01
5.859815e+01	-1.401400e+01
5.893662e+01	-1.406281e+01
5.927703e+01	-1.411087e+01
5.961941e+01	-1.415852e+01
5.996377e+01	-1.420654e+01
6.031012e+01	-1.425468e+01
6.065847e+01	-1.430295e+01
6.100883e+01	-1.435146e+01
6.136121e+01	-1.439907e+01
6.171563e+01	-1.444710e+01
6.207210e+01	-1.449481e+01
6.243063e+01	-1.454317e+01
6.279122e+01	-1.459212e+01
6.315390e+01	-1.464039e+01
6.351868e+01	-1.468800e+01
6.388556e+01	-1.473719e+01
6.425456e+01	-1.478551e+01
6.462569e+01	-1.483404e+01
6.499897e+01	-1.488212e+01
6.537440e+01	-1.493054e+01
6.575200e+01	-1.497832e+01
6.613178e+01	-1.502729e+01
6.651375e+01	-1.507555e+01
6.689793e+01	-1.512365e+01
6.728433e+01	-1.517280e+01
6.767297e+01	-1.522190e+01
6.806384e+01	-1.527007e+01
6.845698e+01	-1.531958e+01
6.885238e+01	-1.536811e+01
6.925007e+01	-1.541561e+01
6.965005e+01	-1.546408e+01
7.005235e+01	-1.551314e+01
7.045697e+01	-1.556095e+01
7.086393e+01	-1.560949e+01
7.127323e+01	-1.565950e+01
7.168490e+01	-1.570700e+01
7.209895e+01	-1.575647e+01
7.251539e+01	-1.580507e+01
7.293424e+01	-1.585366e+01
7.335551e+01	-1.590264e+01
7.377920e+01	-1.595162e+01
7.420535e+01	-1.600019e+01
7.463396e+01	-1.604846e+01
7.506504e+01	-1.609764e+01
7.549861e+01	-1.614600e+01
7.593469e+01	-1.619563e+01
7.637328e+01	-1.624326e+01
7.681441e+01	-1.629187e+01
7.725809e+01	-1.634085e+01
7.770433e+01	-1.638995e+01
7.815315e+01	-1.643995e+01
7.860456e+01	-1.648894e+01
7.905857e+01	-1.653633e+01
7.951521e+01	-1.658524e+01
7.997449e+01	-1.663486e+01
8.043642e+01	-1.668488e+01
8.090102e+01	-1.673397e+01
8.136830e+01	-1.678231e+01
8.183828e+01	-1.683127e+01
8.231097e+01	-1.687988e+01
8.278640e+01	-1.692864e+01
8.326457e+01	-1.697736e+01
8.374550e+01	-1.702783e+01
8.422921e+01	-1.707542e+01
8.471572e+01	-1.712562e+01
8.520503e+01	-1.717356e+01
8.569717e+01	-1.722357e+01
8.619215e+01	-1.727282e+01
8.669000e+01	-1.732141e+01
8.719071e+01	-1.737079e+01
8.769432e+01	-1.741991e+01
8.820084e+01	-1.746982e+01
8.871029e+01	-1.751904e+01
8.922267e+01	-1.756806e+01
8.973802e+01	-1.761730e+01
9.025634e+01	-1.766546e+01
9.077766e+01	-1.771407e+01
9.130199e+01	-1.776351e+01
9.182935e+01	-1.781288e+01
9.235975e+01	-1.786291e+01
9.289321e+01	-1.791145e+01
9.342976e+01	-1.795976e+01
9.396941e+01	-1.801001e+01
9.451217e+01	-1.805913e+01
9.505807e+01	-1.810805e+01
9.560712e+01	-1.815793e+01
9.615934e+01	-1.820719e+01
9.671476e+01	-1.825508e+01
9.727338e+01	-1.830553e+01
9.783522e+01	-1.835519e+01
9.840032e+01	-1.840438e+01
9.896867e+01	-1.845308e+01
9.954031e+01	-1.850217e+01
1.001153e+02	-1.855251e+01
1.006935e+02	-1.860169e+01
1.012751e+02	-1.865082e+01
1.018601e+02	-1.869987e+01
1.024484e+02	-1.875098e+01
1.030402e+02	-1.879948e+01
1.036353e+02	-1.884742e+01
1.042339e+02	-1.889828e+01
1.048360e+02	-1.894672e+01
1.054415e+02	-1.899729e+01
1.060505e+02	-1.904619e+01
1.066631e+02	-1.909527e+01
1.072791e+02	-1.914474e+01
1.078988e+02	-1.919415e+01
1.085220e+02	-1.924375e+01
1.091488e+02	-1.929369e+01
1.097793e+02	-1.934209e+01
1.104133e+02	-1.939258e+01
1.110511e+02	-1.944083e+01
1.116925e+02	-1.949141e+01
1.123376e+02	-1.954069e+01
1.129865e+02	-1.958900e+01
1.136391e+02	-1.963844e+01
1.142955e+02	-1.968946e+01
1.149556e+02	-1.973918e+01
1.156196e+02	-1.978925e+01
1.162874e+02	-1.983928e+01
1.169591e+02	-1.988725e+01
1.176347e+02	-1.993713e+01
1.183141e+02	-1.998521e+01
1.189975e+02	-2.003469e+01
1.196848e+02	-2.008609e+01
1.203761e+02	-2.013479e+01
1.210714e+02	-2.018388e+01
1.217707e+02	-2.023401e+01
1.224740e+02	-2.028331e+01
1.231814e+02	-2.033287e+01
1.238929e+02	-2.038280e+01
1.246085e+02	-2.043196e+01
1.253283e+02	-2.048167e+01
1.260522e+02	-2.053231e+01
1.267802e+02	-2.057899e+01
1.275125e+02	-2.062955e+01
1.282490e+02	-2.068214e+01
1.289898e+02	-2.072910e+01
1.297348e+02	-2.077885e+01
1.304842e+02	-2.082795e+01
1.312378e+02	-2.087844e+01
1.319959e+02	-2.092883e+01
1.327583e+02	-2.097878e+01
1.335251e+02	-2.102873e+01
1.342963e+02	-2.107623e+01
1.350720e+02	-2.112583e+01
1.358522e+02	-2.117689e+01
1.366368e+02	-2.122718e+01
1.374260e+02	-2.127711e+01
1.382198e+02	-2.132558e+01
1.390182e+02	-2.137452e+01
1.398211e+02	-2.142275e+01
1.406287e+02	-2.147271e+01
1.414410e+02	-2.152414e+01
1.422579e+02	-2.157431e+01
1.430796e+02	-2.162242e+01
1.439060e+02	-2.167110e+01
1.447372e+02	-2.172364e+01
1.455732e+02	-2.177143e+01
1.464141e+02	-2.182416e+01
1.472597e+02	-2.187230e+01
1.481103e+02	-2.192062e+01
1.489658e+02	-2.197065e+01
1.498262e+02	-2.202102e+01
1.506916e+02	-2.206994e+01
1.515620e+02	-2.211970e+01
1.524374e+02	-2.217167e+01
1.533179e+02	-2.221939e+01
1.542034e+02	-2.226914e+01
1.550941e+02	-2.232038e+01
1.559899e+02	-2.236890e+01
1.568909e+02	-2.241842e+01
1.577971e+02	-2.246929e+01
1.587085e+02	-2.252156e+01
1.596252e+02	-2.256711e+01
1.605472e+02	-2.261924e+01
1.614745e+02	-2.266615e+01
1.624072e+02	-2.271669e+01
1.633453e+02	-2.276685e+01
1.642887e+02	-2.281663e+01
1.652377e+02	-2.286642e+01
1.661921e+02	-2.291580e+01
1.671520e+02	-2.296429e+01
1.681175e+02	-2.301762e+01
1.690885e+02	-2.306697e+01
1.700651e+02	-2.311351e+01
1.710474e+02	-2.316617e+01
1.720354e+02	-2.321670e+01
1.730291e+02	-2.326622e+01
1.740285e+02	-2.331679e+01
1.750337e+02	-2.336479e+01
1.760446e+02	-2.341458e+01
1.770615e+02	-2.346516e+01
1.780842e+02	-2.351443e+01
1.791128e+02	-2.356556e+01
1.801473e+02	-2.361370e+01
1.811878e+02	-2.366240e+01
1.822344e+02	-2.371256e+01
1.832870e+02	-2.376489e+01
1.843456e+02	-2.381307e+01
1.854104e+02	-2.386328e+01
1.864813e+02	-2.391421e+01
1.875584e+02	-2.396421e+01
1.886418e+02	-2.401118e+01
1.897313e+02	-2.406320e+01
1.908272e+02	-2.411298e+01
1.919294e+02	-2.416246e+01
1.930380e+02	-2.421347e+01
1.941530e+02	-2.426432e+01
1.952744e+02	-2.431274e+01
1.964023e+02	-2.436226e+01
1.975367e+02	-2.441593e+01
1.986777e+02	-2.446083e+01
1.998252e+02	-2.451280e+01
2.009794e+02	-2.456189e+01
2.021403e+02	-2.461328e+01
2.033078e+02	-2.466094e+01
2.044821e+02	-2.471202e+01
2.056632e+02	-2.476079e+01
2.068511e+02	-2.481181e+01
2.080459e+02	-2.486199e+01
2.092475e+02	-2.491235e+01
2.104561e+02	-2.496259e+01
2.116717e+02	-2.500983e+01
2.128943e+02	-2.505843e+01
2.141240e+02	-2.511094e+01
2.153608e+02	-2.515950e+01
2.166047e+02	-2.521022e+01
2.178558e+02	-2.526324e+01
2.191141e+02	-2.531122e+01
2.203797e+02	-2.535547e+01
2.216526e+02	-2.541155e+01
2.229329e+02	-2.546060e+01
2.242205e+02	-2.550805e+01
2.255156e+02	-2.556004e+01
2.268182e+02	-2.560637e+01
2.281283e+02	-2.565803e+01
2.294459e+02	-2.571038e+01
2.307712e+02	-2.575948e+01
2.321041e+02	-2.580804e+01
2.334447e+02	-2.585863e+01
2.347931e+02	-2.590902e+01
2.361493e+02	-2.595865e+01
2.375133e+02	-2.600910e+01
2.388851e+02	-2.606175e+01
2.402649e+02	-2.610986e+01
2.416527e+02	-2.615808e+01
2.430484e+02	-2.621269e+01
2.444523e+02	-2.625471e+01
2.458642e+02	-2.631084e+01
2.472843e+02	-2.635853e+01
2.487126e+02	-2.641107e+01
2.501492e+02	-2.645895e+01
2.515940e+02	-2.650809e+01
2.530472e+02	-2.655803e+01
2.545088e+02	-2.660694e+01
2.559789e+02	-2.665853e+01
2.574574e+02	-2.670820e+01
2.589444e+02	-2.675837e+01
2.604401e+02	-2.680632e+01
2.619444e+02	-2.686127e+01
2.634574e+02	-2.690856e+01
2.649791e+02	-2.695689e+01
2.665096e+02	-2.700776e+01
2.680489e+02	-2.705755e+01
2.695972e+02	-2.711010e+01
2.711544e+02	-2.715748e+01
2.727205e+02	-2.720833e+01
2.742958e+02	-2.725720e+01
2.758801e+02	-2.730729e+01
2.774736e+02	-2.735935e+01
2.790762e+02	-2.740769e+01
2.806882e+02	-2.745932e+01
2.823094e+02	-2.750814e+01
2.839400e+02	-2.755953e+01
2.855800e+02	-2.761132e+01
2.872295e+02	-2.765965e+01
2.888886e+02	-2.771046e+01
2.905572e+02	-2.775667e+01
2.922354e+02	-2.780829e+01
2.939234e+02	-2.785944e+01
2.956211e+02	-2.790946e+01
2.973286e+02	-2.795653e+01
2.990459e+02	-2.801305e+01
3.007732e+02	-2.805824e+01
3.025104e+02	-2.811014e+01
3.042577e+02	-2.815791e+01
3.060151e+02	-2.820917e+01
3.077826e+02	-2.825881e+01
3.095604e+02	-2.831098e+01
3.113484e+02	-2.835789e+01
3.131467e+02	-2.840855e+01
3.149554e+02	-2.846103e+01
3.167746e+02	-2.850803e+01
3.186043e+02	-2.856126e+01
3.204445e+02	-2.860835e+01
3.222954e+02	-2.866020e+01
3.241570e+02	-2.870448e+01
3.260293e+02	-2.875895e+01
3.279124e+02	-2.880695e+01
3.298064e+02	-2.886317e+01
3.317114e+02	-2.890971e+01
3.336273e+02	-2.896338e+01
3.355544e+02	-2.901511e+01
3.374925e+02	-2.906058e+01
3.394418e+02	-2.910826e+01
3.414024e+02	-2.915884e+01
3.433744e+02	-2.921335e+01
3.453577e+02	-2.925684e+01
3.473525e+02	-2.930841e+01
3.493588e+02	-2.936092e+01
3.513766e+02	-2.941231e+01
3.534062e+02	-2.946157e+01
3.554474e+02	-2.951144e+01
3.575005e+02	-2.956111e+01
3.595654e+02	-2.961018e+01
3.616422e+02	-2.965446e+01
3.637311e+02	-2.970767e+01
3.658320e+02	-2.976356e+01
3.679450e+02	-2.981467e+01
3.700702e+02	-2.985731e+01
3.722077e+02	-2.991077e+01
3.743576e+02	-2.996246e+01
3.765199e+02	-3.001179e+01
3.786946e+02	-3.006103e+01
3.808820e+02	-3.011215e+01
3.830819e+02	-3.015786e+01
3.852946e+02	-3.021440e+01
3.875200e+02	-3.025583e+01
3.897583e+02	-3.031764e+01
3.920096e+02	-3.036047e+01
3.942738e+02	-3.041108e+01
3.965511e+02	-3.045956e+01
3.988416e+02	-3.051288e+01
4.011452e+02	-3.056235e+01
4.034622e+02	-3.061425e+01
4.057926e+02	-3.066495e+01
4.081365e+02	-3.071233e+01
4.104938e+02	-3.075880e+01
4.128648e+02	-3.081262e+01
4.152495e+02	-3.086212e+01
4.176480e+02	-3.091018e+01
4.200603e+02	-3.096622e+01
4.224866e+02	-3.101357e+01
4.249268e+02	-3.106443e+01
4.273812e+02	-3.111728e+01
4.298497e+02	-3.116237e+01
4.323325e+02	-3.121735e+01
4.348297e+02	-3.126128e+01
4.373412e+02	-3.131603e+01
4.398673e+02	-3.136079e+01
4.424079e+02	-3.141442e+01
4.449633e+02	-3.146293e+01
4.475334e+02	-3.151229e+01
4.501183e+02	-3.156527e+01
4.527182e+02	-3.161776e+01
4.553330e+02	-3.166769e+01
4.579630e+02	-3.171650e+01
4.606082e+02	-3.176799e+01
4.632687e+02	-3.181089e+01
4.659445e+02	-3.186197e+01
4.686358e+02	-3.191619e+01
4.713426e+02	-3.196612e+01
4.740650e+02	-3.201316e+01
4.768032e+02	-3.206672e+01
4.795572e+02	-3.211439e+01
4.823271e+02	-3.216816e+01
4.851130e+02	-3.221898e+01
4.879150e+02	-3.226327e+01
4.907332e+02	-3.231426e+01
4.935676e+02	-3.237157e+01
4.964185e+02	-3.241771e+01
4.992858e+02	-3.247176e+01
5.021696e+02	-3.252293e+01
5.050701e+02	-3.256982e+01
5.079874e+02	-3.262165e+01
5.109215e+02	-3.266798e+01
5.138726e+02	-3.272260e+01
5.168407e+02	-3.276710e+01
5.198259e+02	-3.281503e+01
5.228284e+02	-3.287114e+01
5.258482e+02	-3.291954e+01
5.288855e+02	-3.297785e+01
5.319403e+02	-3.302112e+01
5.350128e+02	-3.307235e+01
5.381030e+02	-3.313056e+01
5.412111e+02	-3.317139e+01
5.443371e+02	-3.322170e+01
5.474812e+02	-3.326967e+01
5.506434e+02	-3.332140e+01
5.538239e+02	-3.337622e+01
5.570228e+02	-3.342302e+01
5.602401e+02	-3.347896e+01
5.634760e+02	-3.352412e+01
5.667306e+02	-3.357051e+01
5.700040e+02	-3.362249e+01
5.732964e+02	-3.367936e+01
5.766077e+02	-3.372563e+01
5.799382e+02	-3.377361e+01
5.832879e+02	-3.382389e+01
5.866569e+02	-3.387541e+01
5.900454e+02	-3.393170e+01
5.934535e+02	-3.397600e+01
5.968813e+02	-3.402360e+01
6.003288e+02	-3.406594e+01
6.037963e+02	-3.413747e+01
6.072838e+02	-3.417144e+01
6.107914e+02	-3.423200e+01
6.143194e+02	-3.427621e+01
6.178676e+02	-3.433073e+01
6.214364e+02	-3.438195e+01
6.250258e+02	-3.442914e+01
6.286359e+02	-3.448071e+01
6.322669e+02	-3.452283e+01
6.359189e+02	-3.458335e+01
6.395919e+02	-3.463732e+01
6.432862e+02	-3.468316e+01
6.470017e+02	-3.473163e+01
6.507388e+02	-3.478265e+01
6.544974e+02	-3.483755e+01
6.582778e+02	-3.489177e+01
6.620800e+02	-3.493514e+01
6.659041e+02	-3.498513e+01
6.697504e+02	-3.504309e+01
6.736188e+02	-3.508189e+01
6.775096e+02	-3.513782e+01
6.814229e+02	-3.518492e+01
6.853587e+02	-3.523013e+01
6.893173e+02	-3.528167e+01
6.932988e+02	-3.532893e+01
6.973033e+02	-3.538645e+01
7.013309e+02	-3.543224e+01
