Frequency(Hz)	Magnitude(dB)
1.000000e+01	-2.272413e+00
1.005776e+01	-2.292636e+00
1.011585e+01	-2.313329e+00
1.017428e+01	-2.334044e+00
1.023305e+01	-2.355008e+00
1.029215e+01	-2.375880e+00
1.035160e+01	-2.397100e+00
1.041139e+01	-2.418393e+00
1.047153e+01	-2.439909e+00
1.053201e+01	-2.461446e+00
1.059284e+01	-2.483007e+00
1.065403e+01	-2.505005e+00
1.071556e+01	-2.526870e+00
1.077746e+01	-2.549241e+00
1.083971e+01	-2.571332e+00
1.090232e+01	-2.593860e+00
1.096529e+01	-2.616343e+00
1.102862e+01	-2.639271e+00
1.109232e+01	-2.662072e+00
1.115639e+01	-2.684888e+00
1.122083e+01	-2.708173e+00
1.128564e+01	-2.731476e+00
1.135083e+01	-2.754731e+00
1.141639e+01	-2.778436e+00
1.148233e+01	-2.801851e+00
1.154865e+01	-2.825922e+00
1.161536e+01	-2.849965e+00
1.168245e+01	-2.874038e+00
1.174992e+01	-2.898292e+00
1.181779e+01	-2.922900e+00
1.188605e+01	-2.947332e+00
1.195470e+01	-2.971964e+00
1.202375e+01	-2.996760e+00
1.209320e+01	-3.021942e+00
1.216305e+01	-3.047212e+00
1.223330e+01	-3.072374e+00
1.230396e+01	-3.097869e+00
1.237503e+01	-3.123444e+00
1.244651e+01	-3.149075e+00
1.251840e+01	-3.175146e+00
1.259070e+01	-3.200927e+00
1.266343e+01	-3.227318e+00
1.273657e+01	-3.253551e+00
1.281014e+01	-3.279832e+00
1.288413e+01	-3.306628e+00
1.295855e+01	-3.333260e+00
1.303339e+01	-3.360043e+00
1.310867e+01	-3.387002e+00
1.318439e+01	-3.414454e+00
1.326054e+01	-3.441862e+00
1.333713e+01	-3.469043e+00
1.341417e+01	-3.496893e+00
1.349165e+01	-3.524309e+00
1.356958e+01	-3.552125e+00
1.364795e+01	-3.580272e+00
1.372678e+01	-3.608685e+00
1.380607e+01	-3.636860e+00
1.388581e+01	-3.665052e+00
1.396602e+01	-3.693409e+00
1.404668e+01	-3.722319e+00
1.412782e+01	-3.751294e+00
1.420942e+01	-3.780394e+00
1.429149e+01	-3.809637e+00
1.437404e+01	-3.838606e+00
1.445706e+01	-3.868099e+00
1.454057e+01	-3.897632e+00
1.462455e+01	-3.927614e+00
1.470902e+01	-3.957474e+00
1.479398e+01	-3.987166e+00
1.487943e+01	-4.017316e+00
1.496537e+01	-4.047658e+00
1.505181e+01	-4.077754e+00
1.513875e+01	-4.108817e+00
1.522619e+01	-4.139432e+00
1.531414e+01	-4.170201e+00
1.540259e+01	-4.201361e+00
1.549156e+01	-4.232443e+00
1.558103e+01	-4.263382e+00
1.567103e+01	-4.294552e+00
1.576155e+01	-4.326138e+00
1.585258e+01	-4.357713e+00
1.594415e+01	-4.389583e+00
1.603624e+01	-4.421615e+00
1.612886e+01	-4.453582e+00
1.622202e+01	-4.485607e+00
1.631572e+01	-4.517881e+00
1.640996e+01	-4.550304e+00
1.650474e+01	-4.582520e+00
1.660008e+01	-4.615801e+00
1.669596e+01	-4.648278e+00
1.679239e+01	-4.681134e+00
1.688938e+01	-4.714165e+00
1.698694e+01	-4.747626e+00
1.708505e+01	-4.780689e+00
1.718373e+01	-4.814208e+00
1.728299e+01	-4.848012e+00
1.738281e+01	-4.881632e+00
1.748322e+01	-4.915391e+00
1.758420e+01	-4.949163e+00
1.768576e+01	-4.983380e+00
1.778792e+01	-5.017734e+00
1.789066e+01	-5.052038e+00
1.799399e+01	-5.086553e+00
1.809793e+01	-5.121034e+00
1.820246e+01	-5.155765e+00
1.830760e+01	-5.190477e+00
1.841334e+01	-5.225496e+00
1.851969e+01	-5.260764e+00
1.862666e+01	-5.295815e+00
1.873425e+01	-5.331131e+00
1.884246e+01	-5.366701e+00
1.895129e+01	-5.402012e+00
1.906075e+01	-5.437429e+00
1.917085e+01	-5.473454e+00
1.928158e+01	-5.509395e+00
1.939295e+01	-5.545135e+00
1.950496e+01	-5.581537e+00
1.961762e+01	-5.617762e+00
1.973093e+01	-5.654236e+00
1.984490e+01	-5.690487e+00
1.995952e+01	-5.727315e+00
2.007480e+01	-5.763732e+00
2.019076e+01	-5.800911e+00
2.030738e+01	-5.837906e+00
2.042467e+01	-5.874728e+00
2.054264e+01	-5.911911e+00
2.066130e+01	-5.949054e+00
2.078064e+01	-5.986433e+00
2.090066e+01	-6.023807e+00
2.102139e+01	-6.061852e+00
2.114280e+01	-6.099267e+00
2.126492e+01	-6.136955e+00
2.138775e+01	-6.175068e+00
2.151128e+01	-6.212771e+00
2.163553e+01	-6.251064e+00
2.176050e+01	-6.289364e+00
2.188619e+01	-6.327141e+00
2.201260e+01	-6.365932e+00
2.213974e+01	-6.404526e+00
2.226762e+01	-6.443057e+00
2.239624e+01	-6.481906e+00
2.252560e+01	-6.520679e+00
2.265571e+01	-6.559420e+00
2.278656e+01	-6.598391e+00
2.291818e+01	-6.637915e+00
2.305055e+01	-6.677106e+00
2.318369e+01	-6.716314e+00
2.331760e+01	-6.755972e+00
2.345228e+01	-6.795295e+00
2.358774e+01	-6.834830e+00
2.372398e+01	-6.874727e+00
2.386101e+01	-6.914157e+00
2.399883e+01	-6.954229e+00
2.413745e+01	-6.994297e+00
2.427686e+01	-7.034453e+00
2.441709e+01	-7.074598e+00
2.455812e+01	-7.114498e+00
2.469997e+01	-7.154896e+00
2.484263e+01	-7.195625e+00
2.498612e+01	-7.236317e+00
2.513044e+01	-7.276657e+00
2.527559e+01	-7.317161e+00
2.542158e+01	-7.358011e+00
2.556842e+01	-7.398880e+00
2.571610e+01	-7.440032e+00
2.586463e+01	-7.481010e+00
2.601403e+01	-7.522713e+00
2.616428e+01	-7.563760e+00
2.631541e+01	-7.605080e+00
2.646740e+01	-7.645887e+00
2.662028e+01	-7.687555e+00
2.677404e+01	-7.729585e+00
2.692868e+01	-7.771205e+00
2.708422e+01	-7.812465e+00
2.724066e+01	-7.854236e+00
2.739800e+01	-7.895994e+00
2.755625e+01	-7.938219e+00
2.771541e+01	-7.980014e+00
2.787550e+01	-8.022127e+00
2.803650e+01	-8.064216e+00
2.819844e+01	-8.106758e+00
2.836131e+01	-8.148576e+00
2.852513e+01	-8.191420e+00
2.868989e+01	-8.233779e+00
2.885560e+01	-8.277147e+00
2.902227e+01	-8.318728e+00
2.918990e+01	-8.361535e+00
2.935850e+01	-8.404302e+00
2.952807e+01	-8.447573e+00
2.969863e+01	-8.490267e+00
2.987016e+01	-8.533140e+00
3.004269e+01	-8.575824e+00
3.021622e+01	-8.619368e+00
3.039075e+01	-8.662676e+00
3.056628e+01	-8.706175e+00
3.074283e+01	-8.749275e+00
3.092040e+01	-8.792661e+00
3.109900e+01	-8.835574e+00
3.127862e+01	-8.879372e+00
3.145929e+01	-8.922980e+00
3.164099e+01	-8.966375e+00
3.182375e+01	-9.010121e+00
3.200756e+01	-9.054615e+00
3.219244e+01	-9.098503e+00
3.237838e+01	-9.141758e+00
3.256540e+01	-9.185832e+00
3.275349e+01	-9.229952e+00
3.294268e+01	-9.273854e+00
3.313295e+01	-9.318502e+00
3.332433e+01	-9.362255e+00
3.351681e+01	-9.406863e+00
3.371040e+01	-9.450647e+00
3.390511e+01	-9.496200e+00
3.410094e+01	-9.539553e+00
3.429791e+01	-9.584021e+00
3.449601e+01	-9.628865e+00
3.469526e+01	-9.673242e+00
3.489566e+01	-9.717856e+00
3.509721e+01	-9.763076e+00
3.529993e+01	-9.807399e+00
3.550382e+01	-9.852579e+00
3.570889e+01	-9.896724e+00
3.591515e+01	-9.941820e+00
3.612259e+01	-9.987386e+00
3.633123e+01	-1.003222e+01
3.654108e+01	-1.007697e+01
3.675214e+01	-1.012216e+01
3.696442e+01	-1.016727e+01
3.717792e+01	-1.021255e+01
3.739266e+01	-1.025767e+01
3.760864e+01	-1.030344e+01
3.782587e+01	-1.034868e+01
3.804435e+01	-1.039409e+01
3.826409e+01	-1.043963e+01
3.848510e+01	-1.048570e+01
3.870739e+01	-1.053070e+01
3.893096e+01	-1.057662e+01
3.915583e+01	-1.062274e+01
3.938199e+01	-1.066791e+01
3.960946e+01	-1.071356e+01
3.983824e+01	-1.075928e+01
4.006834e+01	-1.080544e+01
4.029978e+01	-1.085135e+01
4.053255e+01	-1.089773e+01
4.076666e+01	-1.094262e+01
4.100213e+01	-1.098912e+01
4.123896e+01	-1.103469e+01
4.147715e+01	-1.108166e+01
4.171672e+01	-1.112681e+01
4.195767e+01	-1.117371e+01
4.220002e+01	-1.121971e+01
4.244377e+01	-1.126667e+01
4.268892e+01	-1.131260e+01
4.293549e+01	-1.135915e+01
4.318348e+01	-1.140501e+01
4.343291e+01	-1.145075e+01
4.368377e+01	-1.149807e+01
4.393609e+01	-1.154468e+01
4.418986e+01	-1.159084e+01
4.444510e+01	-1.163771e+01
4.470182e+01	-1.168424e+01
4.496001e+01	-1.173119e+01
4.521970e+01	-1.177730e+01
4.548089e+01	-1.182431e+01
4.574358e+01	-1.187087e+01
4.600779e+01	-1.191765e+01
4.627353e+01	-1.196486e+01
4.654081e+01	-1.201200e+01
4.680963e+01	-1.205820e+01
4.708000e+01	-1.210563e+01
4.735193e+01	-1.215201e+01
4.762543e+01	-1.219903e+01
4.790051e+01	-1.224629e+01
4.817719e+01	-1.229370e+01
4.845545e+01	-1.234062e+01
4.873533e+01	-1.238767e+01
4.901682e+01	-1.243437e+01
4.929994e+01	-1.248237e+01
4.958470e+01	-1.252936e+01
4.987110e+01	-1.257609e+01
5.015915e+01	-1.262368e+01
5.044887e+01	-1.267103e+01
5.074026e+01	-1.271869e+01
5.103333e+01	-1.276603e+01
5.132810e+01	-1.281296e+01
5.162457e+01	-1.286090e+01
5.192275e+01	-1.290801e+01
5.222265e+01	-1.295543e+01
5.252429e+01	-1.300352e+01
5.282767e+01	-1.305091e+01
5.313280e+01	-1.309853e+01
5.343969e+01	-1.314574e+01
5.374836e+01	-1.319323e+01
5.405880e+01	-1.324095e+01
5.437105e+01	-1.328887e+01
5.468509e+01	-1.333644e+01
5.500095e+01	-1.338447e+01
5.531863e+01	-1.343225e+01
5.563815e+01	-1.347957e+01
5.595951e+01	-1.352753e+01
5.628273e+01	-1.357464e+01
5.660782e+01	-1.362313e+01
5.693479e+01	-1.367102e+01
5.726364e+01	-1.371914e+01
5.759439e+01	-1.376710e+01
5.792705e+01	-1.381422e+01
5.826164e+01	-1.386172e+01
5.859815e+01	-1.391103e+01
5.893662e+01	-1.395821e+01
5.927703e+01	-1.400630e+01
5.961941e+01	-1.405427e+01
5.996377e+01	-1.410252e+01
6.031012e+01	-1.415019e+01
6.065847e+01	-1.419921e+01
6.100883e+01	-1.424721e+01
6.136121e+01	-1.429559e+01
6.171563e+01	-1.434296e+01
6.207210e+01	-1.439237e+01
6.243063e+01	-1.443949e+01
6.279122e+01	-1.448759e+01
6.315390e+01	-1.453595e+01
6.351868e+01	-1.458406e+01
6.388556e+01	-1.463243e+01
6.425456e+01	-1.468122e+01
6.462569e+01	-1.472971e+01
6.499897e+01	-1.477807e+01
6.537440e+01	-1.482587e+01
6.575200e+01	-1.487467e+01
6.613178e+01	-1.492326e+01
6.651375e+01	-1.497195e+01
6.689793e+01	-1.502048e+01
6.728433e+01	-1.506797e+01
6.767297e+01	-1.511693e+01
6.806384e+01	-1.516543e+01
6.845698e+01	-1.521318e+01
6.885238e+01	-1.526187e+01
6.925007e+01	-1.531153e+01
6.965005e+01	-1.535955e+01
7.005235e+01	-1.540751e+01
7.045697e+01	-1.545633e+01
7.086393e+01	-1.550571e+01
7.127323e+01	-1.555432e+01
7.168490e+01	-1.560148e+01
7.209895e+01	-1.565163e+01
7.251539e+01	-1.569965e+01
7.293424e+01	-1.574845e+01
7.335551e+01	-1.579667e+01
7.377920e+01	-1.584609e+01
7.420535e+01	-1.589444e+01
7.463396e+01	-1.594325e+01
7.506504e+01	-1.599247e+01
7.549861e+01	-1.604184e+01
7.593469e+01	-1.608978e+01
7.637328e+01	-1.613857e+01
7.681441e+01	-1.618830e+01
7.725809e+01	-1.623616e+01
7.770433e+01	-1.628523e+01
7.815315e+01	-1.633519e+01
7.860456e+01	-1.638301e+01
7.905857e+01	-1.643189e+01
7.951521e+01	-1.648189e+01
7.997449e+01	-1.652976e+01
8.043642e+01	-1.657867e+01
8.090102e+01	-1.662720e+01
8.136830e+01	-1.667683e+01
8.183828e+01	-1.672584e+01
8.231097e+01	-1.677447e+01
8.278640e+01	-1.682326e+01
8.326457e+01	-1.687290e+01
8.374550e+01	-1.692133e+01
8.422921e+01	-1.697122e+01
8.471572e+01	-1.701906e+01
8.520503e+01	-1.706842e+01
8.569717e+01	-1.711721e+01
8.619215e+01	-1.716629e+01
8.669000e+01	-1.721499e+01
8.719071e+01	-1.726479e+01
8.769432e+01	-1.731404e+01
8.820084e+01	-1.736325e+01
8.871029e+01	-1.741183e+01
8.922267e+01	-1.746102e+01
8.973802e+01	-1.751015e+01
9.025634e+01	-1.755893e+01
9.077766e+01	-1.760853e+01
9.130199e+01	-1.765807e+01
9.182935e+01	-1.770704e+01
9.235975e+01	-1.775803e+01
9.289321e+01	-1.780529e+01
9.342976e+01	-1.785447e+01
9.396941e+01	-1.790348e+01
9.451217e+01	-1.795374e+01
9.505807e+01	-1.800235e+01
9.560712e+01	-1.805109e+01
9.615934e+01	-1.810000e+01
9.671476e+01	-1.814987e+01
9.727338e+01	-1.819979e+01
9.783522e+01	-1.824911e+01
9.840032e+01	-1.829898e+01
9.896867e+01	-1.834645e+01
9.954031e+01	-1.839625e+01
1.001153e+02	-1.844435e+01
1.006935e+02	-1.849429e+01
1.012751e+02	-1.854505e+01
1.018601e+02	-1.859408e+01
1.024484e+02	-1.864293e+01
1.030402e+02	-1.869316e+01
1.036353e+02	-1.874180e+01
1.042339e+02	-1.879026e+01
1.048360e+02	-1.884115e+01
1.054415e+02	-1.888941e+01
1.060505e+02	-1.893916e+01
1.066631e+02	-1.898898e+01
1.072791e+02	-1.903711e+01
1.078988e+02	-1.908698e+01
1.085220e+02	-1.913842e+01
1.091488e+02	-1.918506e+01
1.097793e+02	-1.923681e+01
1.104133e+02	-1.928579e+01
1.110511e+02	-1.933335e+01
1.116925e+02	-1.938415e+01
1.123376e+02	-1.943453e+01
1.129865e+02	-1.948322e+01
1.136391e+02	-1.953378e+01
1.142955e+02	-1.958058e+01
1.149556e+02	-1.963215e+01
1.156196e+02	-1.968130e+01
1.162874e+02	-1.973043e+01
1.169591e+02	-1.977812e+01
1.176347e+02	-1.982734e+01
1.183141e+02	-1.987940e+01
1.189975e+02	-1.992901e+01
1.196848e+02	-1.997785e+01
1.203761e+02	-2.002633e+01
1.210714e+02	-2.007685e+01
1.217707e+02	-2.012734e+01
1.224740e+02	-2.017682e+01
1.231814e+02	-2.022752e+01
1.238929e+02	-2.027377e+01
1.246085e+02	-2.032561e+01
1.253283e+02	-2.037426e+01
1.260522e+02	-2.042351e+01
1.267802e+02	-2.047413e+01
1.275125e+02	-2.052370e+01
1.282490e+02	-2.057258e+01
1.289898e+02	-2.062126e+01
1.297348e+02	-2.067268e+01
1.304842e+02	-2.072283e+01
1.312378e+02	-2.077153e+01
1.319959e+02	-2.082087e+01
1.327583e+02	-2.087007e+01
1.335251e+02	-2.092114e+01
1.342963e+02	-2.097096e+01
1.350720e+02	-2.101915e+01
1.358522e+02	-2.106807e+01
1.366368e+02	-2.111912e+01
1.374260e+02	-2.116861e+01
1.382198e+02	-2.121708e+01
1.390182e+02	-2.126711e+01
1.398211e+02	-2.131832e+01
1.406287e+02	-2.136792e+01
1.414410e+02	-2.141786e+01
1.422579e+02	-2.146695e+01
1.430796e+02	-2.151677e+01
1.439060e+02	-2.156488e+01
1.447372e+02	-2.161433e+01
1.455732e+02	-2.166369e+01
1.464141e+02	-2.171489e+01
1.472597e+02	-2.176558e+01
1.481103e+02	-2.181307e+01
1.489658e+02	-2.186476e+01
1.498262e+02	-2.191298e+01
1.506916e+02	-2.196476e+01
1.515620e+02	-2.201232e+01
1.524374e+02	-2.206344e+01
1.533179e+02	-2.211159e+01
1.542034e+02	-2.216176e+01
1.550941e+02	-2.221248e+01
1.559899e+02	-2.226143e+01
1.568909e+02	-2.231265e+01
1.577971e+02	-2.236292e+01
1.587085e+02	-2.241018e+01
1.596252e+02	-2.246199e+01
1.605472e+02	-2.251482e+01
1.614745e+02	-2.256112e+01
1.624072e+02	-2.260856e+01
1.633453e+02	-2.266033e+01
1.642887e+02	-2.271041e+01
1.652377e+02	-2.276017e+01
1.661921e+02	-2.280971e+01
1.671520e+02	-2.285912e+01
1.681175e+02	-2.290779e+01
1.690885e+02	-2.295990e+01
1.700651e+02	-2.300888e+01
1.710474e+02	-2.306009e+01
1.720354e+02	-2.310869e+01
1.730291e+02	-2.315866e+01
1.740285e+02	-2.320988e+01
1.750337e+02	-2.325694e+01
1.760446e+02	-2.330665e+01
1.770615e+02	-2.335587e+01
1.780842e+02	-2.340478e+01
1.791128e+02	-2.345713e+01
1.801473e+02	-2.350626e+01
1.811878e+02	-2.355780e+01
1.822344e+02	-2.360535e+01
1.832870e+02	-2.365704e+01
1.843456e+02	-2.370866e+01
1.854104e+02	-2.375533e+01
1.864813e+02	-2.380566e+01
1.875584e+02	-2.385641e+01
1.886418e+02	-2.390417e+01
1.897313e+02	-2.395597e+01
1.908272e+02	-2.400502e+01
1.919294e+02	-2.405678e+01
1.930380e+02	-2.410545e+01
1.941530e+02	-2.415317e+01
1.952744e+02	-2.420259e+01
1.964023e+02	-2.425229e+01
1.975367e+02	-2.430514e+01
1.986777e+02	-2.435362e+01
1.998252e+02	-2.440528e+01
2.009794e+02	-2.445317e+01
2.021403e+02	-2.450477e+01
2.033078e+02	-2.455602e+01
2.044821e+02	-2.460446e+01
2.056632e+02	-2.465364e+01
2.068511e+02	-2.470396e+01
2.080459e+02	-2.475195e+01
2.092475e+02	-2.480429e+01
2.104561e+02	-2.485211e+01
2.116717e+02	-2.490145e+01
2.128943e+02	-2.495463e+01
2.141240e+02	-2.500227e+01
2.153608e+02	-2.505566e+01
2.166047e+02	-2.510422e+01
2.178558e+02	-2.515413e+01
2.191141e+02	-2.519957e+01
2.203797e+02	-2.524891e+01
2.216526e+02	-2.530544e+01
2.229329e+02	-2.535172e+01
2.242205e+02	-2.539958e+01
2.255156e+02	-2.545272e+01
2.268182e+02	-2.550053e+01
2.281283e+02	-2.555310e+01
2.294459e+02	-2.560166e+01
2.307712e+02	-2.565162e+01
2.321041e+02	-2.570159e+01
2.334447e+02	-2.575269e+01
2.347931e+02	-2.580037e+01
2.361493e+02	-2.585110e+01
2.375133e+02	-2.590125e+01
2.388851e+02	-2.595419e+01
2.402649e+02	-2.600050e+01
2.416527e+02	-2.605022e+01
2.430484e+02	-2.610183e+01
2.444523e+02	-2.615543e+01
2.458642e+02	-2.620205e+01
2.472843e+02	-2.625230e+01
2.487126e+02	-2.630265e+01
2.501492e+02	-2.635145e+01
2.515940e+02	-2.640081e+01
2.530472e+02	-2.645182e+01
2.545088e+02	-2.650449e+01
2.559789e+02	-2.654956e+01
2.574574e+02	-2.660076e+01
2.589444e+02	-2.664890e+01
2.604401e+02	-2.670269e+01
2.619444e+02	-2.675091e+01
2.634574e+02	-2.680479e+01
2.649791e+02	-2.685468e+01
2.665096e+02	-2.690302e+01
2.680489e+02	-2.695300e+01
2.695972e+02	-2.700370e+01
2.711544e+02	-2.704870e+01
2.727205e+02	-2.709677e+01
2.742958e+02	-2.715374e+01
2.758801e+02	-2.720077e+01
2.774736e+02	-2.725035e+01
2.790762e+02	-2.730094e+01
2.806882e+02	-2.735147e+01
2.823094e+02	-2.740220e+01
2.839400e+02	-2.744768e+01
2.855800e+02	-2.750171e+01
2.872295e+02	-2.754855e+01
2.888886e+02	-2.760239e+01
2.905572e+02	-2.764917e+01
2.922354e+02	-2.770183e+01
2.939234e+02	-2.774988e+01
2.956211e+02	-2.780389e+01
2.973286e+02	-2.784864e+01
2.990459e+02	-2.790401e+01
3.007732e+02	-2.795111e+01
3.025104e+02	-2.799962e+01
3.042577e+02	-2.805120e+01
3.060151e+02	-2.809784e+01
3.077826e+02	-2.815205e+01
3.095604e+02	-2.820136e+01
3.113484e+02	-2.825456e+01
3.131467e+02	-2.829899e+01
3.149554e+02	-2.835366e+01
3.167746e+02	-2.839879e+01
3.186043e+02	-2.844942e+01
3.204445e+02	-2.850202e+01
3.222954e+02	-2.854930e+01
3.241570e+02	-2.860167e+01
3.260293e+02	-2.865422e+01
3.279124e+02	-2.869837e+01
3.298064e+02	-2.875451e+01
3.317114e+02	-2.879850e+01
3.336273e+02	-2.884862e+01
3.355544e+02	-2.890195e+01
3.374925e+02	-2.894915e+01
3.394418e+02	-2.900003e+01
3.414024e+02	-2.904948e+01
3.433744e+02	-2.910257e+01
3.453577e+02	-2.914820e+01
3.473525e+02	-2.920164e+01
3.493588e+02	-2.924614e+01
3.513766e+02	-2.930235e+01
3.534062e+02	-2.934810e+01
3.554474e+02	-2.940260e+01
3.575005e+02	-2.945313e+01
3.595654e+02	-2.950142e+01
3.616422e+02	-2.955145e+01
3.637311e+02	-2.960146e+01
3.658320e+02	-2.965358e+01
3.679450e+02	-2.969879e+01
3.700702e+02	-2.975216e+01
3.722077e+02	-2.980356e+01
3.743576e+02	-2.985253e+01
3.765199e+02	-2.990049e+01
3.786946e+02	-2.995047e+01
3.808820e+02	-3.000585e+01
3.830819e+02	-3.005044e+01
3.852946e+02	-3.010510e+01
3.875200e+02	-3.015416e+01
3.897583e+02	-3.020508e+01
3.920096e+02	-3.024984e+01
3.942738e+02	-3.030421e+01
3.965511e+02	-3.035405e+01
3.988416e+02	-3.041058e+01
4.011452e+02	-3.045436e+01
4.034622e+02	-3.050196e+01
4.057926e+02	-3.055777e+01
4.081365e+02	-3.060621e+01
4.104938e+02	-3.065586e+01
4.128648e+02	-3.070610e+01
4.152495e+02	-3.075571e+01
4.176480e+02	-3.080370e+01
4.200603e+02	-3.085308e+01
4.224866e+02	-3.091090e+01
4.249268e+02	-3.095496e+01
4.273812e+02	-3.100375e+01
4.298497e+02	-3.105069e+01
4.323325e+02	-3.111036e+01
4.348297e+02	-3.115648e+01
4.373412e+02	-3.120498e+01
4.398673e+02	-3.125627e+01
4.424079e+02	-3.130598e+01
4.449633e+02	-3.135526e+01
4.475334e+02	-3.140689e+01
4.501183e+02	-3.145652e+01
4.527182e+02	-3.151402e+01
4.553330e+02	-3.156298e+01
4.579630e+02	-3.160759e+01
4.606082e+02	-3.165562e+01
4.632687e+02	-3.170784e+01
4.659445e+02	-3.175371e+01
4.686358e+02	-3.181413e+01
4.713426e+02	-3.185882e+01
4.740650e+02	-3.190891e+01
4.768032e+02	-3.195924e+01
4.795572e+02	-3.201042e+01
4.823271e+02	-3.205342e+01
4.851130e+02	-3.211256e+01
4.879150e+02	-3.215980e+01
4.907332e+02	-3.221571e+01
4.935676e+02	-3.225993e+01
4.964185e+02	-3.231009e+01
4.992858e+02	-3.235820e+01
5.021696e+02	-3.240756e+01
5.050701e+02	-3.246035e+01
5.079874e+02	-3.251454e+01
5.109215e+02	-3.255725e+01
5.138726e+02	-3.261470e+01
5.168407e+02	-3.265305e+01
5.198259e+02	-3.271121e+01
5.228284e+02	-3.276328e+01
5.258482e+02	-3.281649e+01
5.288855e+02	-3.285931e+01
5.319403e+02	-3.291297e+01
5.350128e+02	-3.296234e+01
5.381030e+02	-3.301274e+01
5.412111e+02	-3.306903e+01
5.443371e+02	-3.311169e+01
5.474812e+02	-3.316701e+01
5.506434e+02	-3.321511e+01
5.538239e+02	-3.326113e+01
5.570228e+02	-3.331348e+01
5.602401e+02	-3.336237e+01
5.634760e+02	-3.341288e+01
5.667306e+02	-3.347181e+01
5.700040e+02	-3.350975e+01
5.732964e+02	-3.357128e+01
5.766077e+02	-3.362004e+01
5.799382e+02	-3.366327e+01
5.832879e+02	-3.371245e+01
5.866569e+02	-3.376244e+01
5.900454e+02	-3.381718e+01
5.934535e+02	-3.386810e+01
5.968813e+02	-3.391375e+01
6.003288e+02	-3.396872e+01
6.037963e+02	-3.402509e+01
6.072838e+02	-3.406984e+01
6.107914e+02	-3.411374e+01
6.143194e+02	-3.416905e+01
6.178676e+02	-3.422348e+01
6.214364e+02	-3.426634e+01
6.250258e+02	-3.431961e+01
6.286359e+02	-3.437177e+01
6.322669e+02	-3.441497e+01
6.359189e+02	-3.447736e+01
6.395919e+02	-3.452947e+01
6.432862e+02	-3.457080e+01
6.470017e+02	-3.463101e+01
6.507388e+02	-3.466944e+01
6.544974e+02	-3.472570e+01
6.582778e+02	-3.477866e+01
6.620800e+02	-3.482238e+01
6.659041e+02	-3.487565e+01
6.697504e+02	-3.491625e+01
6.736188e+02	-3.496463e+01
6.775096e+02	-3.503845e+01
6.814229e+02	-3.507441e+01
6.853587e+02	-3.513145e+01
6.893173e+02	-3.516834e+01
6.932988e+02	-3.523557e+01
6.973033e+02	-3.527469e+01
7.013309e+02	-3.533158e+01
