Frequency(Hz)	Magnitude(dB)
1.000000e+01	-2.209225e+00
1.005776e+01	-2.229409e+00
1.011585e+01	-2.249341e+00
1.017428e+01	-2.269894e+00
1.023305e+01	-2.290275e+00
1.029215e+01	-2.310793e+00
1.035160e+01	-2.331530e+00
1.041139e+01	-2.352536e+00
1.047153e+01	-2.373345e+00
1.053201e+01	-2.394337e+00
1.059284e+01	-2.415909e+00
1.065403e+01	-2.437138e+00
1.071556e+01	-2.458654e+00
1.077746e+01	-2.480258e+00
1.083971e+01	-2.502109e+00
1.090232e+01	-2.524312e+00
1.096529e+01	-2.546557e+00
1.102862e+01	-2.568859e+00
1.109232e+01	-2.590945e+00
1.115639e+01	-2.613704e+00
1.122083e+01	-2.636170e+00
1.128564e+01	-2.659082e+00
1.135083e+01	-2.682049e+00
1.141639e+01	-2.705425e+00
1.148233e+01	-2.728576e+00
1.154865e+01	-2.751952e+00
1.161536e+01	-2.775344e+00
1.168245e+01	-2.799158e+00
1.174992e+01	-2.823057e+00
1.181779e+01	-2.846937e+00
1.188605e+01	-2.871095e+00
1.195470e+01	-2.895382e+00
1.202375e+01	-2.919925e+00
1.209320e+01	-2.944302e+00
1.216305e+01	-2.969142e+00
1.223330e+01	-2.993776e+00
1.230396e+01	-3.018934e+00
1.237503e+01	-3.044054e+00
1.244651e+01	-3.069213e+00
1.251840e+01	-3.094762e+00
1.259070e+01	-3.120267e+00
1.266343e+01	-3.145960e+00
1.273657e+01	-3.171997e+00
1.281014e+01	-3.197679e+00
1.288413e+01	-3.223907e+00
1.295855e+01	-3.250282e+00
1.303339e+01	-3.276736e+00
1.310867e+01	-3.303294e+00
1.318439e+01	-3.329908e+00
1.326054e+01	-3.356940e+00
1.333713e+01	-3.383920e+00
1.341417e+01	-3.411086e+00
1.349165e+01	-3.438388e+00
1.356958e+01	-3.465747e+00
1.364795e+01	-3.493142e+00
1.372678e+01	-3.521016e+00
1.380607e+01	-3.549045e+00
1.388581e+01	-3.576484e+00
1.396602e+01	-3.605195e+00
1.404668e+01	-3.633258e+00
1.412782e+01	-3.661843e+00
1.420942e+01	-3.690365e+00
1.429149e+01	-3.718927e+00
1.437404e+01	-3.747849e+00
1.445706e+01	-3.776836e+00
1.454057e+01	-3.806077e+00
1.462455e+01	-3.835254e+00
1.470902e+01	-3.864716e+00
1.479398e+01	-3.894383e+00
1.487943e+01	-3.923982e+00
1.496537e+01	-3.953765e+00
1.505181e+01	-3.983812e+00
1.513875e+01	-4.013964e+00
1.522619e+01	-4.043961e+00
1.531414e+01	-4.074148e+00
1.540259e+01	-4.104830e+00
1.549156e+01	-4.135641e+00
1.558103e+01	-4.166187e+00
1.567103e+01	-4.197144e+00
1.576155e+01	-4.228377e+00
1.585258e+01	-4.259484e+00
1.594415e+01	-4.291053e+00
1.603624e+01	-4.322545e+00
1.612886e+01	-4.354160e+00
1.622202e+01	-4.385616e+00
1.631572e+01	-4.417784e+00
1.640996e+01	-4.449509e+00
1.650474e+01	-4.481984e+00
1.660008e+01	-4.513901e+00
1.669596e+01	-4.546185e+00
1.679239e+01	-4.579135e+00
1.688938e+01	-4.611542e+00
1.698694e+01	-4.644485e+00
1.708505e+01	-4.677288e+00
1.718373e+01	-4.710269e+00
1.728299e+01	-4.743587e+00
1.738281e+01	-4.777051e+00
1.748322e+01	-4.810133e+00
1.758420e+01	-4.843862e+00
1.768576e+01	-4.877431e+00
1.778792e+01	-4.911620e+00
1.789066e+01	-4.945429e+00
1.799399e+01	-4.979456e+00
1.809793e+01	-5.013324e+00
1.820246e+01	-5.048034e+00
1.830760e+01	-5.082224e+00
1.841334e+01	-5.117126e+00
1.851969e+01	-5.151689e+00
1.862666e+01	-5.186230e+00
1.873425e+01	-5.221258e+00
1.884246e+01	-5.256364e+00
1.895129e+01	-5.291413e+00
1.906075e+01	-5.326681e+00
1.917085e+01	-5.362227e+00
1.928158e+01	-5.397678e+00
1.939295e+01	-5.433646e+00
1.950496e+01	-5.468969e+00
1.961762e+01	-5.505112e+00
1.973093e+01	-5.541087e+00
1.984490e+01	-5.576984e+00
1.995952e+01	-5.613204e+00
2.007480e+01	-5.649660e+00
2.019076e+01	-5.686329e+00
2.030738e+01	-5.722660e+00
2.042467e+01	-5.759235e+00
2.054264e+01	-5.796244e+00
2.066130e+01	-5.833028e+00
2.078064e+01	-5.869812e+00
2.090066e+01	-5.907048e+00
2.102139e+01	-5.944617e+00
2.114280e+01	-5.982146e+00
2.126492e+01	-6.019505e+00
2.138775e+01	-6.057055e+00
2.151128e+01	-6.094658e+00
2.163553e+01	-6.132536e+00
2.176050e+01	-6.170180e+00
2.188619e+01	-6.208619e+00
2.201260e+01	-6.246566e+00
2.213974e+01	-6.284571e+00
2.226762e+01	-6.322951e+00
2.239624e+01	-6.361240e+00
2.252560e+01	-6.399851e+00
2.265571e+01	-6.438247e+00
2.278656e+01	-6.477074e+00
2.291818e+01	-6.516102e+00
2.305055e+01	-6.554886e+00
2.318369e+01	-6.594117e+00
2.331760e+01	-6.633317e+00
2.345228e+01	-6.672196e+00
2.358774e+01	-6.711171e+00
2.372398e+01	-6.750607e+00
2.386101e+01	-6.790424e+00
2.399883e+01	-6.830232e+00
2.413745e+01	-6.869646e+00
2.427686e+01	-6.909735e+00
2.441709e+01	-6.949517e+00
2.455812e+01	-6.989008e+00
2.469997e+01	-7.029200e+00
2.484263e+01	-7.069824e+00
2.498612e+01	-7.109960e+00
2.513044e+01	-7.150114e+00
2.527559e+01	-7.190497e+00
2.542158e+01	-7.231428e+00
2.556842e+01	-7.271740e+00
2.571610e+01	-7.312514e+00
2.586463e+01	-7.353054e+00
2.601403e+01	-7.394351e+00
2.616428e+01	-7.434609e+00
2.631541e+01	-7.476042e+00
2.646740e+01	-7.517227e+00
2.662028e+01	-7.558479e+00
2.677404e+01	-7.599916e+00
2.692868e+01	-7.640863e+00
2.708422e+01	-7.682766e+00
2.724066e+01	-7.723928e+00
2.739800e+01	-7.765934e+00
2.755625e+01	-7.807549e+00
2.771541e+01	-7.849495e+00
2.787550e+01	-7.890942e+00
2.803650e+01	-7.932843e+00
2.819844e+01	-7.974989e+00
2.836131e+01	-8.016968e+00
2.852513e+01	-8.059301e+00
2.868989e+01	-8.101781e+00
2.885560e+01	-8.143775e+00
2.902227e+01	-8.186316e+00
2.918990e+01	-8.228423e+00
2.935850e+01	-8.271127e+00
2.952807e+01	-8.313653e+00
2.969863e+01	-8.356653e+00
2.987016e+01	-8.399355e+00
3.004269e+01	-8.441752e+00
3.021622e+01	-8.485114e+00
3.039075e+01	-8.528010e+00
3.056628e+01	-8.570509e+00
3.074283e+01	-8.614017e+00
3.092040e+01	-8.657222e+00
3.109900e+01	-8.700948e+00
3.127862e+01	-8.743378e+00
3.145929e+01	-8.786801e+00
3.164099e+01	-8.830356e+00
3.182375e+01	-8.874440e+00
3.200756e+01	-8.917667e+00
3.219244e+01	-8.961173e+00
3.237838e+01	-9.004773e+00
3.256540e+01	-9.048433e+00
3.275349e+01	-9.092786e+00
3.294268e+01	-9.137094e+00
3.313295e+01	-9.180234e+00
3.332433e+01	-9.224384e+00
3.351681e+01	-9.267964e+00
3.371040e+01	-9.312833e+00
3.390511e+01	-9.356659e+00
3.410094e+01	-9.401613e+00
3.429791e+01	-9.445822e+00
3.449601e+01	-9.489632e+00
3.469526e+01	-9.534347e+00
3.489566e+01	-9.578807e+00
3.509721e+01	-9.623092e+00
3.529993e+01	-9.668159e+00
3.550382e+01	-9.712167e+00
3.570889e+01	-9.757266e+00
3.591515e+01	-9.802504e+00
3.612259e+01	-9.846547e+00
3.633123e+01	-9.891683e+00
3.654108e+01	-9.936328e+00
3.675214e+01	-9.981417e+00
3.696442e+01	-1.002634e+01
3.717792e+01	-1.007160e+01
3.739266e+01	-1.011690e+01
3.760864e+01	-1.016175e+01
3.782587e+01	-1.020738e+01
3.804435e+01	-1.025282e+01
3.826409e+01	-1.029824e+01
3.848510e+01	-1.034339e+01
3.870739e+01	-1.038856e+01
3.893096e+01	-1.043411e+01
3.915583e+01	-1.047999e+01
3.938199e+01	-1.052512e+01
3.960946e+01	-1.057116e+01
3.983824e+01	-1.061630e+01
4.006834e+01	-1.066199e+01
4.029978e+01	-1.070826e+01
4.053255e+01	-1.075415e+01
4.076666e+01	-1.079956e+01
4.100213e+01	-1.084546e+01
4.123896e+01	-1.089088e+01
4.147715e+01	-1.093780e+01
4.171672e+01	-1.098379e+01
4.195767e+01	-1.103017e+01
4.220002e+01	-1.107579e+01
4.244377e+01	-1.112216e+01
4.268892e+01	-1.116808e+01
4.293549e+01	-1.121377e+01
4.318348e+01	-1.126025e+01
4.343291e+01	-1.130656e+01
4.368377e+01	-1.135286e+01
4.393609e+01	-1.139942e+01
4.418986e+01	-1.144576e+01
4.444510e+01	-1.149183e+01
4.470182e+01	-1.153883e+01
4.496001e+01	-1.158460e+01
4.521970e+01	-1.163171e+01
4.548089e+01	-1.167890e+01
4.574358e+01	-1.172490e+01
4.600779e+01	-1.177156e+01
4.627353e+01	-1.181887e+01
4.654081e+01	-1.186497e+01
4.680963e+01	-1.191234e+01
4.708000e+01	-1.195918e+01
4.735193e+01	-1.200564e+01
4.762543e+01	-1.205269e+01
4.790051e+01	-1.210009e+01
4.817719e+01	-1.214649e+01
4.845545e+01	-1.219375e+01
4.873533e+01	-1.224080e+01
4.901682e+01	-1.228880e+01
4.929994e+01	-1.233486e+01
4.958470e+01	-1.238146e+01
4.987110e+01	-1.242908e+01
5.015915e+01	-1.247548e+01
5.044887e+01	-1.252325e+01
5.074026e+01	-1.257053e+01
5.103333e+01	-1.261763e+01
5.132810e+01	-1.266581e+01
5.162457e+01	-1.271168e+01
5.192275e+01	-1.276022e+01
5.222265e+01	-1.280815e+01
5.252429e+01	-1.285507e+01
5.282767e+01	-1.290203e+01
5.313280e+01	-1.294870e+01
5.343969e+01	-1.299733e+01
5.374836e+01	-1.304495e+01
5.405880e+01	-1.309202e+01
5.437105e+01	-1.313980e+01
5.468509e+01	-1.318776e+01
5.500095e+01	-1.323533e+01
5.531863e+01	-1.328290e+01
5.563815e+01	-1.333045e+01
5.595951e+01	-1.337822e+01
5.628273e+01	-1.342582e+01
5.660782e+01	-1.347402e+01
5.693479e+01	-1.352154e+01
5.726364e+01	-1.356992e+01
5.759439e+01	-1.361754e+01
5.792705e+01	-1.366410e+01
5.826164e+01	-1.371319e+01
5.859815e+01	-1.376076e+01
5.893662e+01	-1.380767e+01
5.927703e+01	-1.385608e+01
5.961941e+01	-1.390453e+01
5.996377e+01	-1.395236e+01
6.031012e+01	-1.400043e+01
6.065847e+01	-1.404874e+01
6.100883e+01	-1.409726e+01
6.136121e+01	-1.414428e+01
6.171563e+01	-1.419256e+01
6.207210e+01	-1.424151e+01
6.243063e+01	-1.428939e+01
6.279122e+01	-1.433664e+01
6.315390e+01	-1.438542e+01
6.351868e+01	-1.443454e+01
6.388556e+01	-1.448146e+01
6.425456e+01	-1.453121e+01
6.462569e+01	-1.457840e+01
6.499897e+01	-1.462721e+01
6.537440e+01	-1.467567e+01
6.575200e+01	-1.472325e+01
6.613178e+01	-1.477230e+01
6.651375e+01	-1.482048e+01
6.689793e+01	-1.486875e+01
6.728433e+01	-1.491676e+01
6.767297e+01	-1.496556e+01
6.806384e+01	-1.501345e+01
6.845698e+01	-1.506295e+01
6.885238e+01	-1.511116e+01
6.925007e+01	-1.516016e+01
6.965005e+01	-1.520728e+01
7.005235e+01	-1.525577e+01
7.045697e+01	-1.530596e+01
7.086393e+01	-1.535313e+01
7.127323e+01	-1.540253e+01
7.168490e+01	-1.545080e+01
7.209895e+01	-1.549963e+01
7.251539e+01	-1.554777e+01
7.293424e+01	-1.559672e+01
7.335551e+01	-1.564469e+01
7.377920e+01	-1.569393e+01
7.420535e+01	-1.574318e+01
7.463396e+01	-1.579216e+01
7.506504e+01	-1.583907e+01
7.549861e+01	-1.588815e+01
7.593469e+01	-1.593737e+01
7.637328e+01	-1.598663e+01
7.681441e+01	-1.603465e+01
7.725809e+01	-1.608355e+01
7.770433e+01	-1.613311e+01
7.815315e+01	-1.618138e+01
7.860456e+01	-1.623120e+01
7.905857e+01	-1.627886e+01
7.951521e+01	-1.632817e+01
7.997449e+01	-1.637643e+01
8.043642e+01	-1.642531e+01
8.090102e+01	-1.647455e+01
8.136830e+01	-1.652412e+01
8.183828e+01	-1.657215e+01
8.231097e+01	-1.662194e+01
8.278640e+01	-1.667072e+01
8.326457e+01	-1.671894e+01
8.374550e+01	-1.676745e+01
8.422921e+01	-1.681718e+01
8.471572e+01	-1.686644e+01
8.520503e+01	-1.691459e+01
8.569717e+01	-1.696489e+01
8.619215e+01	-1.701392e+01
8.669000e+01	-1.706196e+01
8.719071e+01	-1.711180e+01
8.769432e+01	-1.715973e+01
8.820084e+01	-1.720975e+01
8.871029e+01	-1.725872e+01
8.922267e+01	-1.730788e+01
8.973802e+01	-1.735686e+01
9.025634e+01	-1.740629e+01
9.077766e+01	-1.745570e+01
9.130199e+01	-1.750409e+01
9.182935e+01	-1.755356e+01
9.235975e+01	-1.760389e+01
9.289321e+01	-1.765144e+01
9.342976e+01	-1.770043e+01
9.396941e+01	-1.775024e+01
9.451217e+01	-1.779904e+01
9.505807e+01	-1.784758e+01
9.560712e+01	-1.789809e+01
9.615934e+01	-1.794774e+01
9.671476e+01	-1.799630e+01
9.727338e+01	-1.804621e+01
9.783522e+01	-1.809568e+01
9.840032e+01	-1.814413e+01
9.896867e+01	-1.819280e+01
9.954031e+01	-1.824285e+01
1.001153e+02	-1.829267e+01
1.006935e+02	-1.834197e+01
1.012751e+02	-1.839005e+01
1.018601e+02	-1.843922e+01
1.024484e+02	-1.848968e+01
1.030402e+02	-1.853746e+01
1.036353e+02	-1.858918e+01
1.042339e+02	-1.863645e+01
1.048360e+02	-1.868634e+01
1.054415e+02	-1.873709e+01
1.060505e+02	-1.878575e+01
1.066631e+02	-1.883421e+01
1.072791e+02	-1.888400e+01
1.078988e+02	-1.893193e+01
1.085220e+02	-1.898435e+01
1.091488e+02	-1.903335e+01
1.097793e+02	-1.908221e+01
1.104133e+02	-1.913178e+01
1.110511e+02	-1.917987e+01
1.116925e+02	-1.922929e+01
1.123376e+02	-1.927939e+01
1.129865e+02	-1.932950e+01
1.136391e+02	-1.937832e+01
1.142955e+02	-1.942633e+01
1.149556e+02	-1.947793e+01
1.156196e+02	-1.952682e+01
1.162874e+02	-1.957548e+01
1.169591e+02	-1.962378e+01
1.176347e+02	-1.967473e+01
1.183141e+02	-1.972317e+01
1.189975e+02	-1.977436e+01
1.196848e+02	-1.982575e+01
1.203761e+02	-1.987394e+01
1.210714e+02	-1.992148e+01
1.217707e+02	-1.997146e+01
1.224740e+02	-2.002113e+01
1.231814e+02	-2.007046e+01
1.238929e+02	-2.012136e+01
1.246085e+02	-2.017099e+01
1.253283e+02	-2.021909e+01
1.260522e+02	-2.027051e+01
1.267802e+02	-2.031973e+01
1.275125e+02	-2.037002e+01
1.282490e+02	-2.041769e+01
1.289898e+02	-2.046610e+01
1.297348e+02	-2.051880e+01
1.304842e+02	-2.056736e+01
1.312378e+02	-2.061670e+01
1.319959e+02	-2.066584e+01
1.327583e+02	-2.071560e+01
1.335251e+02	-2.076572e+01
1.342963e+02	-2.081358e+01
1.350720e+02	-2.086556e+01
1.358522e+02	-2.091414e+01
1.366368e+02	-2.096391e+01
1.374260e+02	-2.101263e+01
1.382198e+02	-2.106451e+01
1.390182e+02	-2.111240e+01
1.398211e+02	-2.116315e+01
1.406287e+02	-2.121091e+01
1.414410e+02	-2.126179e+01
1.422579e+02	-2.130992e+01
1.430796e+02	-2.136054e+01
1.439060e+02	-2.140923e+01
1.447372e+02	-2.145892e+01
1.455732e+02	-2.150916e+01
1.464141e+02	-2.156036e+01
1.472597e+02	-2.161027e+01
1.481103e+02	-2.165937e+01
1.489658e+02	-2.171052e+01
1.498262e+02	-2.175823e+01
1.506916e+02	-2.180985e+01
1.515620e+02	-2.185773e+01
1.524374e+02	-2.190800e+01
1.533179e+02	-2.195789e+01
1.542034e+02	-2.200729e+01
1.550941e+02	-2.205773e+01
1.559899e+02	-2.210813e+01
1.568909e+02	-2.215684e+01
1.577971e+02	-2.220486e+01
1.587085e+02	-2.225688e+01
1.596252e+02	-2.230557e+01
1.605472e+02	-2.235546e+01
1.614745e+02	-2.240729e+01
1.624072e+02	-2.245776e+01
1.633453e+02	-2.250491e+01
1.642887e+02	-2.255400e+01
1.652377e+02	-2.260504e+01
1.661921e+02	-2.265369e+01
1.671520e+02	-2.270584e+01
1.681175e+02	-2.275475e+01
1.690885e+02	-2.280172e+01
1.700651e+02	-2.285370e+01
1.710474e+02	-2.290224e+01
1.720354e+02	-2.295393e+01
1.730291e+02	-2.300369e+01
1.740285e+02	-2.305116e+01
1.750337e+02	-2.310268e+01
1.760446e+02	-2.315339e+01
1.770615e+02	-2.320086e+01
1.780842e+02	-2.325057e+01
1.791128e+02	-2.330183e+01
1.801473e+02	-2.335392e+01
1.811878e+02	-2.340241e+01
1.822344e+02	-2.345251e+01
1.832870e+02	-2.350254e+01
1.843456e+02	-2.355041e+01
1.854104e+02	-2.360008e+01
1.864813e+02	-2.364960e+01
1.875584e+02	-2.369989e+01
1.886418e+02	-2.375266e+01
1.897313e+02	-2.379900e+01
1.908272e+02	-2.384833e+01
1.919294e+02	-2.389863e+01
1.930380e+02	-2.394956e+01
1.941530e+02	-2.400004e+01
1.952744e+02	-2.404812e+01
1.964023e+02	-2.409726e+01
1.975367e+02	-2.414995e+01
1.986777e+02	-2.419833e+01
1.998252e+02	-2.424805e+01
2.009794e+02	-2.429776e+01
2.021403e+02	-2.434931e+01
2.033078e+02	-2.439886e+01
2.044821e+02	-2.444776e+01
2.056632e+02	-2.449682e+01
2.068511e+02	-2.454741e+01
2.080459e+02	-2.459599e+01
2.092475e+02	-2.464943e+01
2.104561e+02	-2.469673e+01
2.116717e+02	-2.474908e+01
2.128943e+02	-2.479774e+01
2.141240e+02	-2.484597e+01
2.153608e+02	-2.489834e+01
2.166047e+02	-2.494466e+01
2.178558e+02	-2.499401e+01
2.191141e+02	-2.504675e+01
2.203797e+02	-2.509601e+01
2.216526e+02	-2.514584e+01
2.229329e+02	-2.519625e+01
2.242205e+02	-2.524471e+01
2.255156e+02	-2.529295e+01
2.268182e+02	-2.534499e+01
2.281283e+02	-2.539798e+01
2.294459e+02	-2.544752e+01
2.307712e+02	-2.549372e+01
2.321041e+02	-2.554195e+01
2.334447e+02	-2.559919e+01
2.347931e+02	-2.564603e+01
2.361493e+02	-2.569398e+01
2.375133e+02	-2.574299e+01
2.388851e+02	-2.579619e+01
2.402649e+02	-2.584570e+01
2.416527e+02	-2.589823e+01
2.430484e+02	-2.594368e+01
2.444523e+02	-2.599444e+01
2.458642e+02	-2.604815e+01
2.472843e+02	-2.609439e+01
2.487126e+02	-2.614274e+01
2.501492e+02	-2.619180e+01
2.515940e+02	-2.624463e+01
2.530472e+02	-2.629199e+01
2.545088e+02	-2.634695e+01
2.559789e+02	-2.639186e+01
2.574574e+02	-2.644417e+01
2.589444e+02	-2.649227e+01
2.604401e+02	-2.654511e+01
2.619444e+02	-2.659356e+01
2.634574e+02	-2.664538e+01
2.649791e+02	-2.669494e+01
2.665096e+02	-2.674256e+01
2.680489e+02	-2.679630e+01
2.695972e+02	-2.684410e+01
2.711544e+02	-2.689362e+01
2.727205e+02	-2.694547e+01
2.742958e+02	-2.699689e+01
2.758801e+02	-2.704561e+01
2.774736e+02	-2.709551e+01
2.790762e+02	-2.714633e+01
2.806882e+02	-2.719440e+01
2.823094e+02	-2.724712e+01
2.839400e+02	-2.729504e+01
2.855800e+02	-2.734664e+01
2.872295e+02	-2.739331e+01
2.888886e+02	-2.744623e+01
2.905572e+02	-2.749196e+01
2.922354e+02	-2.754381e+01
2.939234e+02	-2.759591e+01
2.956211e+02	-2.764750e+01
2.973286e+02	-2.769435e+01
2.990459e+02	-2.774476e+01
3.007732e+02	-2.779361e+01
3.025104e+02	-2.784396e+01
3.042577e+02	-2.789421e+01
3.060151e+02	-2.794818e+01
3.077826e+02	-2.799685e+01
3.095604e+02	-2.804784e+01
3.113484e+02	-2.809468e+01
3.131467e+02	-2.814346e+01
3.149554e+02	-2.819460e+01
3.167746e+02	-2.824703e+01
3.186043e+02	-2.829268e+01
3.204445e+02	-2.834063e+01
3.222954e+02	-2.839322e+01
3.241570e+02	-2.844819e+01
3.260293e+02	-2.849299e+01
3.279124e+02	-2.854476e+01
3.298064e+02	-2.859405e+01
3.317114e+02	-2.864672e+01
3.336273e+02	-2.869495e+01
3.355544e+02	-2.874597e+01
3.374925e+02	-2.879649e+01
3.394418e+02	-2.884249e+01
3.414024e+02	-2.889610e+01
3.433744e+02	-2.894622e+01
3.453577e+02	-2.899479e+01
3.473525e+02	-2.904542e+01
3.493588e+02	-2.909859e+01
3.513766e+02	-2.914484e+01
3.534062e+02	-2.918979e+01
3.554474e+02	-2.924485e+01
3.575005e+02	-2.929210e+01
3.595654e+02	-2.934594e+01
3.616422e+02	-2.939417e+01
3.637311e+02	-2.944714e+01
3.658320e+02	-2.949467e+01
3.679450e+02	-2.954580e+01
3.700702e+02	-2.959878e+01
3.722077e+02	-2.964569e+01
3.743576e+02	-2.969894e+01
3.765199e+02	-2.974682e+01
3.786946e+02	-2.979463e+01
3.808820e+02	-2.984495e+01
3.830819e+02	-2.989431e+01
3.852946e+02	-2.995300e+01
3.875200e+02	-2.999421e+01
3.897583e+02	-3.004943e+01
3.920096e+02	-3.009481e+01
3.942738e+02	-3.015080e+01
3.965511e+02	-3.020035e+01
3.988416e+02	-3.024883e+01
4.011452e+02	-3.029829e+01
4.034622e+02	-3.034806e+01
4.057926e+02	-3.039617e+01
4.081365e+02	-3.044279e+01
4.104938e+02	-3.050157e+01
4.128648e+02	-3.055266e+01
4.152495e+02	-3.059932e+01
4.176480e+02	-3.064801e+01
4.200603e+02	-3.070109e+01
4.224866e+02	-3.075023e+01
4.249268e+02	-3.079760e+01
4.273812e+02	-3.085014e+01
4.298497e+02	-3.089457e+01
4.323325e+02	-3.094716e+01
4.348297e+02	-3.100235e+01
4.373412e+02	-3.104919e+01
4.398673e+02	-3.110243e+01
4.424079e+02	-3.115018e+01
4.449633e+02	-3.119771e+01
4.475334e+02	-3.125125e+01
4.501183e+02	-3.130045e+01
4.527182e+02	-3.134859e+01
4.553330e+02	-3.140198e+01
4.579630e+02	-3.145068e+01
4.606082e+02	-3.150102e+01
4.632687e+02	-3.155176e+01
4.659445e+02	-3.159709e+01
4.686358e+02	-3.165104e+01
4.713426e+02	-3.169844e+01
4.740650e+02	-3.175013e+01
4.768032e+02	-3.179885e+01
4.795572e+02	-3.185406e+01
4.823271e+02	-3.190550e+01
4.851130e+02	-3.195104e+01
4.879150e+02	-3.200865e+01
4.907332e+02	-3.205701e+01
4.935676e+02	-3.210282e+01
4.964185e+02	-3.216089e+01
4.992858e+02	-3.220188e+01
5.021696e+02	-3.225480e+01
5.050701e+02	-3.230024e+01
5.079874e+02	-3.235122e+01
5.109215e+02	-3.239884e+01
5.138726e+02	-3.245438e+01
5.168407e+02	-3.250196e+01
5.198259e+02	-3.255248e+01
5.228284e+02	-3.260927e+01
5.258482e+02	-3.265447e+01
5.288855e+02	-3.270769e+01
5.319403e+02	-3.275506e+01
5.350128e+02	-3.280942e+01
5.381030e+02	-3.285840e+01
5.412111e+02	-3.290581e+01
5.443371e+02	-3.295335e+01
5.474812e+02	-3.300636e+01
5.506434e+02	-3.305578e+01
5.538239e+02	-3.310967e+01
5.570228e+02	-3.315338e+01
5.602401e+02	-3.320931e+01
5.634760e+02	-3.326465e+01
5.667306e+02	-3.330889e+01
5.700040e+02	-3.336277e+01
5.732964e+02	-3.340631e+01
5.766077e+02	-3.345585e+01
5.799382e+02	-3.351274e+01
5.832879e+02	-3.355780e+01
5.866569e+02	-3.360805e+01
5.900454e+02	-3.365763e+01
5.934535e+02	-3.371536e+01
5.968813e+02	-3.376177e+01
6.003288e+02	-3.380898e+01
6.037963e+02	-3.386093e+01
6.072838e+02	-3.391436e+01
6.107914e+02	-3.396262e+01
6.143194e+02	-3.401119e+01
6.178676e+02	-3.406320e+01
6.214364e+02	-3.411059e+01
6.250258e+02	-3.416353e+01
6.286359e+02	-3.422126e+01
6.322669e+02	-3.426518e+01
6.359189e+02	-3.432181e+01
6.395919e+02	-3.436235e+01
6.432862e+02	-3.441911e+01
6.470017e+02	-3.446283e+01
6.507388e+02	-3.451217e+01
6.544974e+02	-3.456608e+01
6.582778e+02	-3.461458e+01
6.620800e+02	-3.466626e+01
6.659041e+02	-3.472271e+01
6.697504e+02	-3.476734e+01
6.736188e+02	-3.482220e+01
6.775096e+02	-3.486740e+01
6.814229e+02	-3.491600e+01
6.853587e+02	-3.497277e+01
6.893173e+02	-3.502220e+01
6.932988e+02	-3.506312e+01
6.973033e+02	-3.511840e+01
7.013309e+02	-3.516906e+01
