Frequency(Hz)	Magnitude(dB)
1.000000e+01	-2.206156e+00
1.005776e+01	-2.226052e+00
1.011585e+01	-2.246237e+00
1.017428e+01	-2.266411e+00
1.023305e+01	-2.286791e+00
1.029215e+01	-2.307451e+00
1.035160e+01	-2.328248e+00
1.041139e+01	-2.348943e+00
1.047153e+01	-2.370095e+00
1.053201e+01	-2.390919e+00
1.059284e+01	-2.412544e+00
1.065403e+01	-2.433536e+00
1.071556e+01	-2.455176e+00
1.077746e+01	-2.476826e+00
1.083971e+01	-2.498539e+00
1.090232e+01	-2.520634e+00
1.096529e+01	-2.542540e+00
1.102862e+01	-2.565063e+00
1.109232e+01	-2.587174e+00
1.115639e+01	-2.609914e+00
1.122083e+01	-2.632482e+00
1.128564e+01	-2.655247e+00
1.135083e+01	-2.678262e+00
1.141639e+01	-2.701552e+00
1.148233e+01	-2.724616e+00
1.154865e+01	-2.748030e+00
1.161536e+01	-2.771550e+00
1.168245e+01	-2.795276e+00
1.174992e+01	-2.818966e+00
1.181779e+01	-2.842943e+00
1.188605e+01	-2.867040e+00
1.195470e+01	-2.891294e+00
1.202375e+01	-2.915965e+00
1.209320e+01	-2.940286e+00
1.216305e+01	-2.964990e+00
1.223330e+01	-2.989563e+00
1.230396e+01	-3.014562e+00
1.237503e+01	-3.039584e+00
1.244651e+01	-3.065157e+00
1.251840e+01	-3.090578e+00
1.259070e+01	-3.116070e+00
1.266343e+01	-3.141777e+00
1.273657e+01	-3.167670e+00
1.281014e+01	-3.193649e+00
1.288413e+01	-3.219515e+00
1.295855e+01	-3.246030e+00
1.303339e+01	-3.272329e+00
1.310867e+01	-3.298825e+00
1.318439e+01	-3.325538e+00
1.326054e+01	-3.352409e+00
1.333713e+01	-3.379428e+00
1.341417e+01	-3.406345e+00
1.349165e+01	-3.433500e+00
1.356958e+01	-3.460965e+00
1.364795e+01	-3.488716e+00
1.372678e+01	-3.516305e+00
1.380607e+01	-3.544325e+00
1.388581e+01	-3.572127e+00
1.396602e+01	-3.600396e+00
1.404668e+01	-3.628370e+00
1.412782e+01	-3.657101e+00
1.420942e+01	-3.685795e+00
1.429149e+01	-3.714343e+00
1.437404e+01	-3.743075e+00
1.445706e+01	-3.772200e+00
1.454057e+01	-3.801290e+00
1.462455e+01	-3.830230e+00
1.470902e+01	-3.859840e+00
1.479398e+01	-3.889403e+00
1.487943e+01	-3.918773e+00
1.496537e+01	-3.949099e+00
1.505181e+01	-3.978551e+00
1.513875e+01	-4.008657e+00
1.522619e+01	-4.038935e+00
1.531414e+01	-4.069254e+00
1.540259e+01	-4.099730e+00
1.549156e+01	-4.130573e+00
1.558103e+01	-4.161146e+00
1.567103e+01	-4.192015e+00
1.576155e+01	-4.223288e+00
1.585258e+01	-4.254184e+00
1.594415e+01	-4.285449e+00
1.603624e+01	-4.317019e+00
1.612886e+01	-4.348912e+00
1.622202e+01	-4.380534e+00
1.631572e+01	-4.412536e+00
1.640996e+01	-4.444356e+00
1.650474e+01	-4.476345e+00
1.660008e+01	-4.508734e+00
1.669596e+01	-4.540906e+00
1.679239e+01	-4.573517e+00
1.688938e+01	-4.606138e+00
1.698694e+01	-4.639017e+00
1.708505e+01	-4.671910e+00
1.718373e+01	-4.704405e+00
1.728299e+01	-4.737954e+00
1.738281e+01	-4.771138e+00
1.748322e+01	-4.804702e+00
1.758420e+01	-4.838100e+00
1.768576e+01	-4.871795e+00
1.778792e+01	-4.905616e+00
1.789066e+01	-4.939550e+00
1.799399e+01	-4.973755e+00
1.809793e+01	-5.007751e+00
1.820246e+01	-5.041991e+00
1.830760e+01	-5.076554e+00
1.841334e+01	-5.111152e+00
1.851969e+01	-5.145530e+00
1.862666e+01	-5.180775e+00
1.873425e+01	-5.215498e+00
1.884246e+01	-5.250575e+00
1.895129e+01	-5.285571e+00
1.906075e+01	-5.321076e+00
1.917085e+01	-5.356401e+00
1.928158e+01	-5.391484e+00
1.939295e+01	-5.427255e+00
1.950496e+01	-5.463469e+00
1.961762e+01	-5.499268e+00
1.973093e+01	-5.535145e+00
1.984490e+01	-5.570856e+00
1.995952e+01	-5.607603e+00
2.007480e+01	-5.643496e+00
2.019076e+01	-5.680284e+00
2.030738e+01	-5.716513e+00
2.042467e+01	-5.753279e+00
2.054264e+01	-5.790092e+00
2.066130e+01	-5.827112e+00
2.078064e+01	-5.864098e+00
2.090066e+01	-5.901123e+00
2.102139e+01	-5.938468e+00
2.114280e+01	-5.975565e+00
2.126492e+01	-6.012894e+00
2.138775e+01	-6.050402e+00
2.151128e+01	-6.088194e+00
2.163553e+01	-6.126078e+00
2.176050e+01	-6.163961e+00
2.188619e+01	-6.201886e+00
2.201260e+01	-6.240087e+00
2.213974e+01	-6.278185e+00
2.226762e+01	-6.316623e+00
2.239624e+01	-6.354946e+00
2.252560e+01	-6.393753e+00
2.265571e+01	-6.432069e+00
2.278656e+01	-6.470447e+00
2.291818e+01	-6.509517e+00
2.305055e+01	-6.548420e+00
2.318369e+01	-6.587375e+00
2.331760e+01	-6.626782e+00
2.345228e+01	-6.665812e+00
2.358774e+01	-6.705148e+00
2.372398e+01	-6.744339e+00
2.386101e+01	-6.783985e+00
2.399883e+01	-6.823661e+00
2.413745e+01	-6.863051e+00
2.427686e+01	-6.903143e+00
2.441709e+01	-6.942609e+00
2.455812e+01	-6.982474e+00
2.469997e+01	-7.022790e+00
2.484263e+01	-7.062941e+00
2.498612e+01	-7.103442e+00
2.513044e+01	-7.143572e+00
2.527559e+01	-7.183837e+00
2.542158e+01	-7.224364e+00
2.556842e+01	-7.265134e+00
2.571610e+01	-7.305586e+00
2.586463e+01	-7.345979e+00
2.601403e+01	-7.387552e+00
2.616428e+01	-7.428423e+00
2.631541e+01	-7.469283e+00
2.646740e+01	-7.510592e+00
2.662028e+01	-7.551158e+00
2.677404e+01	-7.592833e+00
2.692868e+01	-7.634528e+00
2.708422e+01	-7.675829e+00
2.724066e+01	-7.716830e+00
2.739800e+01	-7.759167e+00
2.755625e+01	-7.800423e+00
2.771541e+01	-7.841499e+00
2.787550e+01	-7.884826e+00
2.803650e+01	-7.926156e+00
2.819844e+01	-7.967923e+00
2.836131e+01	-8.009897e+00
2.852513e+01	-8.052079e+00
2.868989e+01	-8.094237e+00
2.885560e+01	-8.137044e+00
2.902227e+01	-8.179331e+00
2.918990e+01	-8.221337e+00
2.935850e+01	-8.263857e+00
2.952807e+01	-8.306888e+00
2.969863e+01	-8.349568e+00
2.987016e+01	-8.392256e+00
3.004269e+01	-8.435387e+00
3.021622e+01	-8.477902e+00
3.039075e+01	-8.520413e+00
3.056628e+01	-8.563996e+00
3.074283e+01	-8.606910e+00
3.092040e+01	-8.650659e+00
3.109900e+01	-8.693680e+00
3.127862e+01	-8.736991e+00
3.145929e+01	-8.779880e+00
3.164099e+01	-8.823125e+00
3.182375e+01	-8.866580e+00
3.200756e+01	-8.910275e+00
3.219244e+01	-8.954339e+00
3.237838e+01	-8.997174e+00
3.256540e+01	-9.041608e+00
3.275349e+01	-9.085220e+00
3.294268e+01	-9.129189e+00
3.313295e+01	-9.173582e+00
3.332433e+01	-9.216971e+00
3.351681e+01	-9.260888e+00
3.371040e+01	-9.305805e+00
3.390511e+01	-9.349349e+00
3.410094e+01	-9.393936e+00
3.429791e+01	-9.437996e+00
3.449601e+01	-9.482557e+00
3.469526e+01	-9.526892e+00
3.489566e+01	-9.571368e+00
3.509721e+01	-9.615709e+00
3.529993e+01	-9.660402e+00
3.550382e+01	-9.705094e+00
3.570889e+01	-9.749634e+00
3.591515e+01	-9.794851e+00
3.612259e+01	-9.839699e+00
3.633123e+01	-9.884007e+00
3.654108e+01	-9.929389e+00
3.675214e+01	-9.974163e+00
3.696442e+01	-1.001899e+01
3.717792e+01	-1.006426e+01
3.739266e+01	-1.010908e+01
3.760864e+01	-1.015394e+01
3.782587e+01	-1.020000e+01
3.804435e+01	-1.024505e+01
3.826409e+01	-1.029044e+01
3.848510e+01	-1.033616e+01
3.870739e+01	-1.038113e+01
3.893096e+01	-1.042703e+01
3.915583e+01	-1.047189e+01
3.938199e+01	-1.051740e+01
3.960946e+01	-1.056327e+01
3.983824e+01	-1.060843e+01
4.006834e+01	-1.065426e+01
4.029978e+01	-1.070057e+01
4.053255e+01	-1.074622e+01
4.076666e+01	-1.079175e+01
4.100213e+01	-1.083815e+01
4.123896e+01	-1.088427e+01
4.147715e+01	-1.092941e+01
4.171672e+01	-1.097632e+01
4.195767e+01	-1.102186e+01
4.220002e+01	-1.106819e+01
4.244377e+01	-1.111391e+01
4.268892e+01	-1.116040e+01
4.293549e+01	-1.120602e+01
4.318348e+01	-1.125238e+01
4.343291e+01	-1.129941e+01
4.368377e+01	-1.134494e+01
4.393609e+01	-1.139148e+01
4.418986e+01	-1.143781e+01
4.444510e+01	-1.148456e+01
4.470182e+01	-1.153114e+01
4.496001e+01	-1.157775e+01
4.521970e+01	-1.162474e+01
4.548089e+01	-1.167130e+01
4.574358e+01	-1.171740e+01
4.600779e+01	-1.176374e+01
4.627353e+01	-1.181057e+01
4.654081e+01	-1.185706e+01
4.680963e+01	-1.190413e+01
4.708000e+01	-1.195135e+01
4.735193e+01	-1.199773e+01
4.762543e+01	-1.204461e+01
4.790051e+01	-1.209227e+01
4.817719e+01	-1.213902e+01
4.845545e+01	-1.218597e+01
4.873533e+01	-1.223255e+01
4.901682e+01	-1.227988e+01
4.929994e+01	-1.232663e+01
4.958470e+01	-1.237440e+01
4.987110e+01	-1.242116e+01
5.015915e+01	-1.246819e+01
5.044887e+01	-1.251569e+01
5.074026e+01	-1.256313e+01
5.103333e+01	-1.261031e+01
5.132810e+01	-1.265780e+01
5.162457e+01	-1.270470e+01
5.192275e+01	-1.275284e+01
5.222265e+01	-1.279946e+01
5.252429e+01	-1.284772e+01
5.282767e+01	-1.289438e+01
5.313280e+01	-1.294255e+01
5.343969e+01	-1.298929e+01
5.374836e+01	-1.303720e+01
5.405880e+01	-1.308463e+01
5.437105e+01	-1.313170e+01
5.468509e+01	-1.317905e+01
5.500095e+01	-1.322691e+01
5.531863e+01	-1.327439e+01
5.563815e+01	-1.332321e+01
5.595951e+01	-1.336982e+01
5.628273e+01	-1.341752e+01
5.660782e+01	-1.346573e+01
5.693479e+01	-1.351414e+01
5.726364e+01	-1.356155e+01
5.759439e+01	-1.360911e+01
5.792705e+01	-1.365766e+01
5.826164e+01	-1.370425e+01
5.859815e+01	-1.375266e+01
5.893662e+01	-1.380088e+01
5.927703e+01	-1.384875e+01
5.961941e+01	-1.389693e+01
5.996377e+01	-1.394459e+01
6.031012e+01	-1.399204e+01
6.065847e+01	-1.404117e+01
6.100883e+01	-1.408920e+01
6.136121e+01	-1.413700e+01
6.171563e+01	-1.418533e+01
6.207210e+01	-1.423272e+01
6.243063e+01	-1.428161e+01
6.279122e+01	-1.432932e+01
6.315390e+01	-1.437786e+01
6.351868e+01	-1.442627e+01
6.388556e+01	-1.447359e+01
6.425456e+01	-1.452250e+01
6.462569e+01	-1.457021e+01
6.499897e+01	-1.461920e+01
6.537440e+01	-1.466702e+01
6.575200e+01	-1.471569e+01
6.613178e+01	-1.476409e+01
6.651375e+01	-1.481231e+01
6.689793e+01	-1.486126e+01
6.728433e+01	-1.490893e+01
6.767297e+01	-1.495758e+01
6.806384e+01	-1.500537e+01
6.845698e+01	-1.505408e+01
6.885238e+01	-1.510267e+01
6.925007e+01	-1.515129e+01
6.965005e+01	-1.520003e+01
7.005235e+01	-1.524817e+01
7.045697e+01	-1.529731e+01
7.086393e+01	-1.534488e+01
7.127323e+01	-1.539342e+01
7.168490e+01	-1.544236e+01
7.209895e+01	-1.549156e+01
7.251539e+01	-1.553959e+01
7.293424e+01	-1.558852e+01
7.335551e+01	-1.563683e+01
7.377920e+01	-1.568623e+01
7.420535e+01	-1.573420e+01
7.463396e+01	-1.578349e+01
7.506504e+01	-1.583187e+01
7.549861e+01	-1.588112e+01
7.593469e+01	-1.592928e+01
7.637328e+01	-1.597845e+01
7.681441e+01	-1.602688e+01
7.725809e+01	-1.607583e+01
7.770433e+01	-1.612415e+01
7.815315e+01	-1.617412e+01
7.860456e+01	-1.622248e+01
7.905857e+01	-1.627189e+01
7.951521e+01	-1.631991e+01
7.997449e+01	-1.636917e+01
8.043642e+01	-1.641806e+01
8.090102e+01	-1.646653e+01
8.136830e+01	-1.651520e+01
8.183828e+01	-1.656531e+01
8.231097e+01	-1.661282e+01
8.278640e+01	-1.666349e+01
8.326457e+01	-1.671128e+01
8.374550e+01	-1.676069e+01
8.422921e+01	-1.680954e+01
8.471572e+01	-1.685788e+01
8.520503e+01	-1.690709e+01
8.569717e+01	-1.695670e+01
8.619215e+01	-1.700593e+01
8.669000e+01	-1.705333e+01
8.719071e+01	-1.710270e+01
8.769432e+01	-1.715230e+01
8.820084e+01	-1.719986e+01
8.871029e+01	-1.725087e+01
8.922267e+01	-1.729948e+01
8.973802e+01	-1.734809e+01
9.025634e+01	-1.739822e+01
9.077766e+01	-1.744677e+01
9.130199e+01	-1.749678e+01
9.182935e+01	-1.754469e+01
9.235975e+01	-1.759432e+01
9.289321e+01	-1.764358e+01
9.342976e+01	-1.769303e+01
9.396941e+01	-1.774190e+01
9.451217e+01	-1.779162e+01
9.505807e+01	-1.784179e+01
9.560712e+01	-1.788841e+01
9.615934e+01	-1.793800e+01
9.671476e+01	-1.798734e+01
9.727338e+01	-1.803741e+01
9.783522e+01	-1.808682e+01
9.840032e+01	-1.813458e+01
9.896867e+01	-1.818442e+01
9.954031e+01	-1.823447e+01
1.001153e+02	-1.828428e+01
1.006935e+02	-1.833365e+01
1.012751e+02	-1.838210e+01
1.018601e+02	-1.843275e+01
1.024484e+02	-1.848122e+01
1.030402e+02	-1.853071e+01
1.036353e+02	-1.857823e+01
1.042339e+02	-1.862820e+01
1.048360e+02	-1.867679e+01
1.054415e+02	-1.872745e+01
1.060505e+02	-1.877710e+01
1.066631e+02	-1.882708e+01
1.072791e+02	-1.887479e+01
1.078988e+02	-1.892449e+01
1.085220e+02	-1.897316e+01
1.091488e+02	-1.902258e+01
1.097793e+02	-1.907287e+01
1.104133e+02	-1.912131e+01
1.110511e+02	-1.917255e+01
1.116925e+02	-1.922196e+01
1.123376e+02	-1.927124e+01
1.129865e+02	-1.932122e+01
1.136391e+02	-1.937000e+01
1.142955e+02	-1.941927e+01
1.149556e+02	-1.946910e+01
1.156196e+02	-1.951787e+01
1.162874e+02	-1.956582e+01
1.169591e+02	-1.961645e+01
1.176347e+02	-1.966706e+01
1.183141e+02	-1.971744e+01
1.189975e+02	-1.976533e+01
1.196848e+02	-1.981681e+01
1.203761e+02	-1.986518e+01
1.210714e+02	-1.991455e+01
1.217707e+02	-1.996399e+01
1.224740e+02	-2.001412e+01
1.231814e+02	-2.006273e+01
1.238929e+02	-2.011147e+01
1.246085e+02	-2.016318e+01
1.253283e+02	-2.021263e+01
1.260522e+02	-2.026175e+01
1.267802e+02	-2.030943e+01
1.275125e+02	-2.035874e+01
1.282490e+02	-2.040911e+01
1.289898e+02	-2.046013e+01
1.297348e+02	-2.050841e+01
1.304842e+02	-2.055950e+01
1.312378e+02	-2.060836e+01
1.319959e+02	-2.065730e+01
1.327583e+02	-2.070647e+01
1.335251e+02	-2.075735e+01
1.342963e+02	-2.080773e+01
1.350720e+02	-2.085695e+01
1.358522e+02	-2.090663e+01
1.366368e+02	-2.095533e+01
1.374260e+02	-2.100457e+01
1.382198e+02	-2.105356e+01
1.390182e+02	-2.110332e+01
1.398211e+02	-2.115455e+01
1.406287e+02	-2.120356e+01
1.414410e+02	-2.125314e+01
1.422579e+02	-2.130137e+01
1.430796e+02	-2.135262e+01
1.439060e+02	-2.140130e+01
1.447372e+02	-2.145298e+01
1.455732e+02	-2.150299e+01
1.464141e+02	-2.155210e+01
1.472597e+02	-2.160041e+01
1.481103e+02	-2.165120e+01
1.489658e+02	-2.169920e+01
1.498262e+02	-2.175084e+01
1.506916e+02	-2.180011e+01
1.515620e+02	-2.184843e+01
1.524374e+02	-2.190089e+01
1.533179e+02	-2.195067e+01
1.542034e+02	-2.199898e+01
1.550941e+02	-2.205038e+01
1.559899e+02	-2.209784e+01
1.568909e+02	-2.214721e+01
1.577971e+02	-2.219781e+01
1.587085e+02	-2.224886e+01
1.596252e+02	-2.229634e+01
1.605472e+02	-2.234837e+01
1.614745e+02	-2.239697e+01
1.624072e+02	-2.244772e+01
1.633453e+02	-2.249659e+01
1.642887e+02	-2.254631e+01
1.652377e+02	-2.259726e+01
1.661921e+02	-2.264768e+01
1.671520e+02	-2.269610e+01
1.681175e+02	-2.274726e+01
1.690885e+02	-2.279600e+01
1.700651e+02	-2.284706e+01
1.710474e+02	-2.289614e+01
1.720354e+02	-2.294478e+01
1.730291e+02	-2.299424e+01
1.740285e+02	-2.304763e+01
1.750337e+02	-2.309427e+01
1.760446e+02	-2.314249e+01
1.770615e+02	-2.319400e+01
1.780842e+02	-2.324551e+01
1.791128e+02	-2.329294e+01
1.801473e+02	-2.334212e+01
1.811878e+02	-2.339287e+01
1.822344e+02	-2.344306e+01
1.832870e+02	-2.349577e+01
1.843456e+02	-2.353905e+01
1.854104e+02	-2.359272e+01
1.864813e+02	-2.364060e+01
1.875584e+02	-2.369065e+01
1.886418e+02	-2.374093e+01
1.897313e+02	-2.379373e+01
1.908272e+02	-2.384135e+01
1.919294e+02	-2.389075e+01
1.930380e+02	-2.394228e+01
1.941530e+02	-2.398937e+01
1.952744e+02	-2.403967e+01
1.964023e+02	-2.408909e+01
1.975367e+02	-2.414089e+01
1.986777e+02	-2.418905e+01
1.998252e+02	-2.423921e+01
2.009794e+02	-2.428896e+01
2.021403e+02	-2.433946e+01
2.033078e+02	-2.439007e+01
2.044821e+02	-2.444048e+01
2.056632e+02	-2.448857e+01
2.068511e+02	-2.453842e+01
2.080459e+02	-2.459173e+01
2.092475e+02	-2.463813e+01
2.104561e+02	-2.469024e+01
2.116717e+02	-2.473698e+01
2.128943e+02	-2.479081e+01
2.141240e+02	-2.483661e+01
2.153608e+02	-2.488979e+01
2.166047e+02	-2.493718e+01
2.178558e+02	-2.498831e+01
2.191141e+02	-2.503987e+01
2.203797e+02	-2.508722e+01
2.216526e+02	-2.513780e+01
2.229329e+02	-2.518721e+01
2.242205e+02	-2.523662e+01
2.255156e+02	-2.528853e+01
2.268182e+02	-2.533726e+01
2.281283e+02	-2.538678e+01
2.294459e+02	-2.543951e+01
2.307712e+02	-2.548731e+01
2.321041e+02	-2.553811e+01
2.334447e+02	-2.558734e+01
2.347931e+02	-2.563683e+01
2.361493e+02	-2.568680e+01
2.375133e+02	-2.573651e+01
2.388851e+02	-2.578777e+01
2.402649e+02	-2.583603e+01
2.416527e+02	-2.588709e+01
2.430484e+02	-2.593963e+01
2.444523e+02	-2.598910e+01
2.458642e+02	-2.603818e+01
2.472843e+02	-2.608900e+01
2.487126e+02	-2.613896e+01
2.501492e+02	-2.618964e+01
2.515940e+02	-2.623695e+01
2.530472e+02	-2.628535e+01
2.545088e+02	-2.633604e+01
2.559789e+02	-2.638446e+01
2.574574e+02	-2.643699e+01
2.589444e+02	-2.648833e+01
2.604401e+02	-2.653659e+01
2.619444e+02	-2.658718e+01
2.634574e+02	-2.663235e+01
2.649791e+02	-2.668655e+01
2.665096e+02	-2.673479e+01
2.680489e+02	-2.678768e+01
2.695972e+02	-2.683471e+01
2.711544e+02	-2.688801e+01
2.727205e+02	-2.693590e+01
2.742958e+02	-2.698629e+01
2.758801e+02	-2.703608e+01
2.774736e+02	-2.708742e+01
2.790762e+02	-2.713882e+01
2.806882e+02	-2.718355e+01
2.823094e+02	-2.723587e+01
2.839400e+02	-2.728644e+01
2.855800e+02	-2.733555e+01
2.872295e+02	-2.738457e+01
2.888886e+02	-2.743573e+01
2.905572e+02	-2.748371e+01
2.922354e+02	-2.753767e+01
2.939234e+02	-2.758124e+01
2.956211e+02	-2.763661e+01
2.973286e+02	-2.768704e+01
2.990459e+02	-2.773813e+01
3.007732e+02	-2.778917e+01
3.025104e+02	-2.783570e+01
3.042577e+02	-2.788777e+01
3.060151e+02	-2.793566e+01
3.077826e+02	-2.798797e+01
3.095604e+02	-2.803485e+01
3.113484e+02	-2.808757e+01
3.131467e+02	-2.813246e+01
3.149554e+02	-2.818530e+01
3.167746e+02	-2.823655e+01
3.186043e+02	-2.828524e+01
3.204445e+02	-2.833520e+01
3.222954e+02	-2.838450e+01
3.241570e+02	-2.843664e+01
3.260293e+02	-2.848670e+01
3.279124e+02	-2.853976e+01
3.298064e+02	-2.858889e+01
3.317114e+02	-2.863559e+01
3.336273e+02	-2.868841e+01
3.355544e+02	-2.873668e+01
3.374925e+02	-2.878555e+01
3.394418e+02	-2.883605e+01
3.414024e+02	-2.888836e+01
3.433744e+02	-2.893866e+01
3.453577e+02	-2.898801e+01
3.473525e+02	-2.903984e+01
3.493588e+02	-2.908485e+01
3.513766e+02	-2.913676e+01
3.534062e+02	-2.918783e+01
3.554474e+02	-2.923653e+01
3.575005e+02	-2.928898e+01
3.595654e+02	-2.933839e+01
3.616422e+02	-2.938934e+01
3.637311e+02	-2.943265e+01
3.658320e+02	-2.948802e+01
3.679450e+02	-2.953909e+01
3.700702e+02	-2.958834e+01
3.722077e+02	-2.964025e+01
3.743576e+02	-2.968800e+01
3.765199e+02	-2.973805e+01
3.786946e+02	-2.978860e+01
3.808820e+02	-2.984197e+01
3.830819e+02	-2.989001e+01
3.852946e+02	-2.994020e+01
3.875200e+02	-2.998650e+01
3.897583e+02	-3.003965e+01
3.920096e+02	-3.009356e+01
3.942738e+02	-3.013917e+01
3.965511e+02	-3.018697e+01
3.988416e+02	-3.023962e+01
4.011452e+02	-3.028824e+01
4.034622e+02	-3.033757e+01
4.057926e+02	-3.039107e+01
4.081365e+02	-3.043708e+01
4.104938e+02	-3.048932e+01
4.128648e+02	-3.053869e+01
4.152495e+02	-3.059422e+01
4.176480e+02	-3.064153e+01
4.200603e+02	-3.069355e+01
4.224866e+02	-3.074568e+01
4.249268e+02	-3.079551e+01
4.273812e+02	-3.084491e+01
4.298497e+02	-3.089233e+01
4.323325e+02	-3.094246e+01
4.348297e+02	-3.099517e+01
4.373412e+02	-3.103335e+01
4.398673e+02	-3.109432e+01
4.424079e+02	-3.113783e+01
4.449633e+02	-3.119420e+01
4.475334e+02	-3.124500e+01
4.501183e+02	-3.128872e+01
4.527182e+02	-3.133985e+01
4.553330e+02	-3.139360e+01
4.579630e+02	-3.144238e+01
4.606082e+02	-3.149392e+01
4.632687e+02	-3.154112e+01
4.659445e+02	-3.159041e+01
4.686358e+02	-3.164669e+01
4.713426e+02	-3.169089e+01
4.740650e+02	-3.174616e+01
4.768032e+02	-3.179281e+01
4.795572e+02	-3.185028e+01
4.823271e+02	-3.190156e+01
4.851130e+02	-3.194222e+01
4.879150e+02	-3.199404e+01
4.907332e+02	-3.204952e+01
4.935676e+02	-3.210115e+01
4.964185e+02	-3.214309e+01
4.992858e+02	-3.219480e+01
5.021696e+02	-3.224544e+01
5.050701e+02	-3.229056e+01
5.079874e+02	-3.234906e+01
5.109215e+02	-3.239506e+01
5.138726e+02	-3.244346e+01
5.168407e+02	-3.249899e+01
5.198259e+02	-3.254750e+01
5.228284e+02	-3.259309e+01
5.258482e+02	-3.264392e+01
5.288855e+02	-3.269189e+01
5.319403e+02	-3.275094e+01
5.350128e+02	-3.280335e+01
5.381030e+02	-3.284837e+01
5.412111e+02	-3.289727e+01
5.443371e+02	-3.294918e+01
5.474812e+02	-3.299444e+01
5.506434e+02	-3.304736e+01
5.538239e+02	-3.309869e+01
5.570228e+02	-3.313943e+01
5.602401e+02	-3.320026e+01
5.634760e+02	-3.325574e+01
5.667306e+02	-3.330847e+01
5.700040e+02	-3.334533e+01
5.732964e+02	-3.340285e+01
5.766077e+02	-3.345502e+01
5.799382e+02	-3.350134e+01
5.832879e+02	-3.355619e+01
5.866569e+02	-3.359998e+01
5.900454e+02	-3.365344e+01
5.934535e+02	-3.370553e+01
5.968813e+02	-3.375188e+01
6.003288e+02	-3.379876e+01
6.037963e+02	-3.385218e+01
6.072838e+02	-3.389712e+01
6.107914e+02	-3.396289e+01
6.143194e+02	-3.401032e+01
6.178676e+02	-3.405866e+01
6.214364e+02	-3.410737e+01
6.250258e+02	-3.414854e+01
6.286359e+02	-3.420786e+01
6.322669e+02	-3.426557e+01
6.359189e+02	-3.430930e+01
6.395919e+02	-3.435379e+01
6.432862e+02	-3.440802e+01
6.470017e+02	-3.446216e+01
6.507388e+02	-3.450896e+01
6.544974e+02	-3.456056e+01
6.582778e+02	-3.460572e+01
6.620800e+02	-3.466153e+01
6.659041e+02	-3.471859e+01
6.697504e+02	-3.475739e+01
6.736188e+02	-3.481209e+01
6.775096e+02	-3.486028e+01
6.814229e+02	-3.491555e+01
6.853587e+02	-3.495756e+01
6.893173e+02	-3.501484e+01
6.932988e+02	-3.505717e+01
6.973033e+02	-3.512047e+01
7.013309e+02	-3.516022e+01
