Frequency(Hz)	Magnitude(dB)
1.000000e+01	-2.067474e+00
1.005776e+01	-2.086667e+00
1.011585e+01	-2.105587e+00
1.017428e+01	-2.125070e+00
1.023305e+01	-2.144614e+00
1.029215e+01	-2.163910e+00
1.035160e+01	-2.183753e+00
1.041139e+01	-2.203617e+00
1.047153e+01	-2.223389e+00
1.053201e+01	-2.243556e+00
1.059284e+01	-2.263720e+00
1.065403e+01	-2.284343e+00
1.071556e+01	-2.304955e+00
1.077746e+01	-2.325490e+00
1.083971e+01	-2.346251e+00
1.090232e+01	-2.367141e+00
1.096529e+01	-2.388314e+00
1.102862e+01	-2.409661e+00
1.109232e+01	-2.430713e+00
1.115639e+01	-2.452361e+00
1.122083e+01	-2.474102e+00
1.128564e+01	-2.495919e+00
1.135083e+01	-2.517733e+00
1.141639e+01	-2.539771e+00
1.148233e+01	-2.562055e+00
1.154865e+01	-2.584188e+00
1.161536e+01	-2.607154e+00
1.168245e+01	-2.629729e+00
1.174992e+01	-2.652530e+00
1.181779e+01	-2.675319e+00
1.188605e+01	-2.698501e+00
1.195470e+01	-2.721714e+00
1.202375e+01	-2.745062e+00
1.209320e+01	-2.768613e+00
1.216305e+01	-2.792304e+00
1.223330e+01	-2.816058e+00
1.230396e+01	-2.839734e+00
1.237503e+01	-2.864088e+00
1.244651e+01	-2.888410e+00
1.251840e+01	-2.912689e+00
1.259070e+01	-2.937283e+00
1.266343e+01	-2.961841e+00
1.273657e+01	-2.986472e+00
1.281014e+01	-3.011690e+00
1.288413e+01	-3.036577e+00
1.295855e+01	-3.061888e+00
1.303339e+01	-3.087196e+00
1.310867e+01	-3.112672e+00
1.318439e+01	-3.138636e+00
1.326054e+01	-3.164179e+00
1.333713e+01	-3.189994e+00
1.341417e+01	-3.216428e+00
1.349165e+01	-3.242662e+00
1.356958e+01	-3.269092e+00
1.364795e+01	-3.295308e+00
1.372678e+01	-3.321954e+00
1.380607e+01	-3.349231e+00
1.388581e+01	-3.375938e+00
1.396602e+01	-3.402984e+00
1.404668e+01	-3.430193e+00
1.412782e+01	-3.457746e+00
1.420942e+01	-3.485134e+00
1.429149e+01	-3.512811e+00
1.437404e+01	-3.540613e+00
1.445706e+01	-3.568620e+00
1.454057e+01	-3.596502e+00
1.462455e+01	-3.624944e+00
1.470902e+01	-3.653387e+00
1.479398e+01	-3.681996e+00
1.487943e+01	-3.710413e+00
1.496537e+01	-3.739422e+00
1.505181e+01	-3.768346e+00
1.513875e+01	-3.797504e+00
1.522619e+01	-3.826504e+00
1.531414e+01	-3.856173e+00
1.540259e+01	-3.885336e+00
1.549156e+01	-3.915261e+00
1.558103e+01	-3.944797e+00
1.567103e+01	-3.974927e+00
1.576155e+01	-4.004802e+00
1.585258e+01	-4.034996e+00
1.594415e+01	-4.065169e+00
1.603624e+01	-4.095774e+00
1.612886e+01	-4.126451e+00
1.622202e+01	-4.157322e+00
1.631572e+01	-4.188137e+00
1.640996e+01	-4.219290e+00
1.650474e+01	-4.250355e+00
1.660008e+01	-4.281462e+00
1.669596e+01	-4.313114e+00
1.679239e+01	-4.344565e+00
1.688938e+01	-4.376132e+00
1.698694e+01	-4.408163e+00
1.708505e+01	-4.440199e+00
1.718373e+01	-4.472022e+00
1.728299e+01	-4.504245e+00
1.738281e+01	-4.536924e+00
1.748322e+01	-4.569401e+00
1.758420e+01	-4.602022e+00
1.768576e+01	-4.634681e+00
1.778792e+01	-4.667658e+00
1.789066e+01	-4.700607e+00
1.799399e+01	-4.733883e+00
1.809793e+01	-4.767054e+00
1.820246e+01	-4.800418e+00
1.830760e+01	-4.833720e+00
1.841334e+01	-4.867525e+00
1.851969e+01	-4.901249e+00
1.862666e+01	-4.935040e+00
1.873425e+01	-4.969157e+00
1.884246e+01	-5.003699e+00
1.895129e+01	-5.037407e+00
1.906075e+01	-5.072167e+00
1.917085e+01	-5.106504e+00
1.928158e+01	-5.141436e+00
1.939295e+01	-5.175892e+00
1.950496e+01	-5.210915e+00
1.961762e+01	-5.246041e+00
1.973093e+01	-5.280947e+00
1.984490e+01	-5.316425e+00
1.995952e+01	-5.351563e+00
2.007480e+01	-5.387097e+00
2.019076e+01	-5.422926e+00
2.030738e+01	-5.458574e+00
2.042467e+01	-5.494406e+00
2.054264e+01	-5.530323e+00
2.066130e+01	-5.566636e+00
2.078064e+01	-5.602227e+00
2.090066e+01	-5.638987e+00
2.102139e+01	-5.675638e+00
2.114280e+01	-5.712141e+00
2.126492e+01	-5.748218e+00
2.138775e+01	-5.785464e+00
2.151128e+01	-5.822287e+00
2.163553e+01	-5.859349e+00
2.176050e+01	-5.896461e+00
2.188619e+01	-5.933411e+00
2.201260e+01	-5.971132e+00
2.213974e+01	-6.008040e+00
2.226762e+01	-6.045540e+00
2.239624e+01	-6.083501e+00
2.252560e+01	-6.121010e+00
2.265571e+01	-6.159139e+00
2.278656e+01	-6.197198e+00
2.291818e+01	-6.235197e+00
2.305055e+01	-6.273129e+00
2.318369e+01	-6.311651e+00
2.331760e+01	-6.349889e+00
2.345228e+01	-6.388366e+00
2.358774e+01	-6.427042e+00
2.372398e+01	-6.465510e+00
2.386101e+01	-6.504367e+00
2.399883e+01	-6.543394e+00
2.413745e+01	-6.582550e+00
2.427686e+01	-6.621282e+00
2.441709e+01	-6.661009e+00
2.455812e+01	-6.700269e+00
2.469997e+01	-6.739247e+00
2.484263e+01	-6.779042e+00
2.498612e+01	-6.818408e+00
2.513044e+01	-6.858090e+00
2.527559e+01	-6.897662e+00
2.542158e+01	-6.937626e+00
2.556842e+01	-6.977519e+00
2.571610e+01	-7.017572e+00
2.586463e+01	-7.057710e+00
2.601403e+01	-7.098157e+00
2.616428e+01	-7.138488e+00
2.631541e+01	-7.178677e+00
2.646740e+01	-7.219204e+00
2.662028e+01	-7.259947e+00
2.677404e+01	-7.300465e+00
2.692868e+01	-7.340977e+00
2.708422e+01	-7.382117e+00
2.724066e+01	-7.423077e+00
2.739800e+01	-7.463801e+00
2.755625e+01	-7.505460e+00
2.771541e+01	-7.546082e+00
2.787550e+01	-7.587490e+00
2.803650e+01	-7.628804e+00
2.819844e+01	-7.670228e+00
2.836131e+01	-7.711825e+00
2.852513e+01	-7.753502e+00
2.868989e+01	-7.795108e+00
2.885560e+01	-7.836883e+00
2.902227e+01	-7.879268e+00
2.918990e+01	-7.920748e+00
2.935850e+01	-7.962714e+00
2.952807e+01	-8.004652e+00
2.969863e+01	-8.046392e+00
2.987016e+01	-8.088812e+00
3.004269e+01	-8.131127e+00
3.021622e+01	-8.173782e+00
3.039075e+01	-8.216075e+00
3.056628e+01	-8.258649e+00
3.074283e+01	-8.300837e+00
3.092040e+01	-8.344148e+00
3.109900e+01	-8.386898e+00
3.127862e+01	-8.429634e+00
3.145929e+01	-8.472147e+00
3.164099e+01	-8.515586e+00
3.182375e+01	-8.558146e+00
3.200756e+01	-8.601413e+00
3.219244e+01	-8.644792e+00
3.237838e+01	-8.687951e+00
3.256540e+01	-8.730990e+00
3.275349e+01	-8.774589e+00
3.294268e+01	-8.817529e+00
3.313295e+01	-8.861681e+00
3.332433e+01	-8.905097e+00
3.351681e+01	-8.948468e+00
3.371040e+01	-8.992227e+00
3.390511e+01	-9.035927e+00
3.410094e+01	-9.079582e+00
3.429791e+01	-9.123932e+00
3.449601e+01	-9.168067e+00
3.469526e+01	-9.211554e+00
3.489566e+01	-9.255814e+00
3.509721e+01	-9.299640e+00
3.529993e+01	-9.343789e+00
3.550382e+01	-9.388122e+00
3.570889e+01	-9.432525e+00
3.591515e+01	-9.476841e+00
3.612259e+01	-9.521175e+00
3.633123e+01	-9.565578e+00
3.654108e+01	-9.610327e+00
3.675214e+01	-9.654537e+00
3.696442e+01	-9.699484e+00
3.717792e+01	-9.744496e+00
3.739266e+01	-9.789095e+00
3.760864e+01	-9.833555e+00
3.782587e+01	-9.878385e+00
3.804435e+01	-9.923918e+00
3.826409e+01	-9.968021e+00
3.848510e+01	-1.001338e+01
3.870739e+01	-1.005856e+01
3.893096e+01	-1.010320e+01
3.915583e+01	-1.014893e+01
3.938199e+01	-1.019455e+01
3.960946e+01	-1.023901e+01
3.983824e+01	-1.028524e+01
4.006834e+01	-1.032968e+01
4.029978e+01	-1.037538e+01
4.053255e+01	-1.042087e+01
4.076666e+01	-1.046646e+01
4.100213e+01	-1.051210e+01
4.123896e+01	-1.055719e+01
4.147715e+01	-1.060340e+01
4.171672e+01	-1.064853e+01
4.195767e+01	-1.069427e+01
4.220002e+01	-1.074062e+01
4.244377e+01	-1.078613e+01
4.268892e+01	-1.083206e+01
4.293549e+01	-1.087821e+01
4.318348e+01	-1.092385e+01
4.343291e+01	-1.096974e+01
4.368377e+01	-1.101581e+01
4.393609e+01	-1.106160e+01
4.418986e+01	-1.110807e+01
4.444510e+01	-1.115398e+01
4.470182e+01	-1.120103e+01
4.496001e+01	-1.124627e+01
4.521970e+01	-1.129314e+01
4.548089e+01	-1.134005e+01
4.574358e+01	-1.138562e+01
4.600779e+01	-1.143215e+01
4.627353e+01	-1.147896e+01
4.654081e+01	-1.152512e+01
4.680963e+01	-1.157204e+01
4.708000e+01	-1.161836e+01
4.735193e+01	-1.166489e+01
4.762543e+01	-1.171147e+01
4.790051e+01	-1.175798e+01
4.817719e+01	-1.180439e+01
4.845545e+01	-1.185145e+01
4.873533e+01	-1.189840e+01
4.901682e+01	-1.194556e+01
4.929994e+01	-1.199213e+01
4.958470e+01	-1.203853e+01
4.987110e+01	-1.208627e+01
5.015915e+01	-1.213277e+01
5.044887e+01	-1.217942e+01
5.074026e+01	-1.222695e+01
5.103333e+01	-1.227431e+01
5.132810e+01	-1.232026e+01
5.162457e+01	-1.236838e+01
5.192275e+01	-1.241579e+01
5.222265e+01	-1.246271e+01
5.252429e+01	-1.250995e+01
5.282767e+01	-1.255656e+01
5.313280e+01	-1.260386e+01
5.343969e+01	-1.265144e+01
5.374836e+01	-1.269852e+01
5.405880e+01	-1.274570e+01
5.437105e+01	-1.279344e+01
5.468509e+01	-1.284087e+01
5.500095e+01	-1.288871e+01
5.531863e+01	-1.293602e+01
5.563815e+01	-1.298350e+01
5.595951e+01	-1.303021e+01
5.628273e+01	-1.307910e+01
5.660782e+01	-1.312555e+01
5.693479e+01	-1.317255e+01
5.726364e+01	-1.322103e+01
5.759439e+01	-1.326922e+01
5.792705e+01	-1.331642e+01
5.826164e+01	-1.336410e+01
5.859815e+01	-1.341220e+01
5.893662e+01	-1.345989e+01
5.927703e+01	-1.350708e+01
5.961941e+01	-1.355591e+01
5.996377e+01	-1.360328e+01
6.031012e+01	-1.365138e+01
6.065847e+01	-1.369870e+01
6.100883e+01	-1.374648e+01
6.136121e+01	-1.379408e+01
6.171563e+01	-1.384342e+01
6.207210e+01	-1.389050e+01
6.243063e+01	-1.393889e+01
6.279122e+01	-1.398740e+01
6.315390e+01	-1.403515e+01
6.351868e+01	-1.408281e+01
6.388556e+01	-1.413097e+01
6.425456e+01	-1.417941e+01
6.462569e+01	-1.422718e+01
6.499897e+01	-1.427511e+01
6.537440e+01	-1.432384e+01
6.575200e+01	-1.437128e+01
6.613178e+01	-1.441945e+01
6.651375e+01	-1.446770e+01
6.689793e+01	-1.451752e+01
6.728433e+01	-1.456431e+01
6.767297e+01	-1.461314e+01
6.806384e+01	-1.466175e+01
6.845698e+01	-1.470880e+01
6.885238e+01	-1.475766e+01
6.925007e+01	-1.480497e+01
6.965005e+01	-1.485545e+01
7.005235e+01	-1.490271e+01
7.045697e+01	-1.495018e+01
7.086393e+01	-1.499992e+01
7.127323e+01	-1.504800e+01
7.168490e+01	-1.509585e+01
7.209895e+01	-1.514482e+01
7.251539e+01	-1.519448e+01
7.293424e+01	-1.524272e+01
7.335551e+01	-1.528978e+01
7.377920e+01	-1.533920e+01
7.420535e+01	-1.538702e+01
7.463396e+01	-1.543651e+01
7.506504e+01	-1.548545e+01
7.549861e+01	-1.553326e+01
7.593469e+01	-1.558184e+01
7.637328e+01	-1.563094e+01
7.681441e+01	-1.568037e+01
7.725809e+01	-1.572779e+01
7.770433e+01	-1.577628e+01
7.815315e+01	-1.582482e+01
7.860456e+01	-1.587471e+01
7.905857e+01	-1.592332e+01
7.951521e+01	-1.597089e+01
7.997449e+01	-1.602055e+01
8.043642e+01	-1.607038e+01
8.090102e+01	-1.611805e+01
8.136830e+01	-1.616674e+01
8.183828e+01	-1.621612e+01
8.231097e+01	-1.626443e+01
8.278640e+01	-1.631412e+01
8.326457e+01	-1.636237e+01
8.374550e+01	-1.641086e+01
8.422921e+01	-1.646091e+01
8.471572e+01	-1.650994e+01
8.520503e+01	-1.655873e+01
8.569717e+01	-1.660616e+01
8.619215e+01	-1.665590e+01
8.669000e+01	-1.670484e+01
8.719071e+01	-1.675396e+01
8.769432e+01	-1.680245e+01
8.820084e+01	-1.685132e+01
8.871029e+01	-1.690085e+01
8.922267e+01	-1.694955e+01
8.973802e+01	-1.699964e+01
9.025634e+01	-1.704879e+01
9.077766e+01	-1.709784e+01
9.130199e+01	-1.714617e+01
9.182935e+01	-1.719525e+01
9.235975e+01	-1.724423e+01
9.289321e+01	-1.729438e+01
9.342976e+01	-1.734379e+01
9.396941e+01	-1.739057e+01
9.451217e+01	-1.744139e+01
9.505807e+01	-1.749004e+01
9.560712e+01	-1.753881e+01
9.615934e+01	-1.758793e+01
9.671476e+01	-1.763756e+01
9.727338e+01	-1.768612e+01
9.783522e+01	-1.773526e+01
9.840032e+01	-1.778509e+01
9.896867e+01	-1.783512e+01
9.954031e+01	-1.788304e+01
1.001153e+02	-1.793134e+01
1.006935e+02	-1.798119e+01
1.012751e+02	-1.803037e+01
1.018601e+02	-1.808058e+01
1.024484e+02	-1.812919e+01
1.030402e+02	-1.817916e+01
1.036353e+02	-1.822761e+01
1.042339e+02	-1.827742e+01
1.048360e+02	-1.832670e+01
1.054415e+02	-1.837630e+01
1.060505e+02	-1.842557e+01
1.066631e+02	-1.847443e+01
1.072791e+02	-1.852488e+01
1.078988e+02	-1.857442e+01
1.085220e+02	-1.862260e+01
1.091488e+02	-1.867186e+01
1.097793e+02	-1.872176e+01
1.104133e+02	-1.877003e+01
1.110511e+02	-1.882017e+01
1.116925e+02	-1.886978e+01
1.123376e+02	-1.891902e+01
1.129865e+02	-1.896726e+01
1.136391e+02	-1.901625e+01
1.142955e+02	-1.906654e+01
1.149556e+02	-1.911668e+01
1.156196e+02	-1.916565e+01
1.162874e+02	-1.921569e+01
1.169591e+02	-1.926468e+01
1.176347e+02	-1.931504e+01
1.183141e+02	-1.936372e+01
1.189975e+02	-1.941284e+01
1.196848e+02	-1.946331e+01
1.203761e+02	-1.951451e+01
1.210714e+02	-1.956116e+01
1.217707e+02	-1.961128e+01
1.224740e+02	-1.965913e+01
1.231814e+02	-1.970919e+01
1.238929e+02	-1.975869e+01
1.246085e+02	-1.980818e+01
1.253283e+02	-1.985754e+01
1.260522e+02	-1.990883e+01
1.267802e+02	-1.995686e+01
1.275125e+02	-2.000771e+01
1.282490e+02	-2.005691e+01
1.289898e+02	-2.010708e+01
1.297348e+02	-2.015621e+01
1.304842e+02	-2.020577e+01
1.312378e+02	-2.025591e+01
1.319959e+02	-2.030478e+01
1.327583e+02	-2.035539e+01
1.335251e+02	-2.040270e+01
1.342963e+02	-2.045435e+01
1.350720e+02	-2.050243e+01
1.358522e+02	-2.055320e+01
1.366368e+02	-2.060194e+01
1.374260e+02	-2.065240e+01
1.382198e+02	-2.070261e+01
1.390182e+02	-2.075176e+01
1.398211e+02	-2.080015e+01
1.406287e+02	-2.085089e+01
1.414410e+02	-2.089890e+01
1.422579e+02	-2.094716e+01
1.430796e+02	-2.100086e+01
1.439060e+02	-2.104973e+01
1.447372e+02	-2.109854e+01
1.455732e+02	-2.114801e+01
1.464141e+02	-2.119713e+01
1.472597e+02	-2.124750e+01
1.481103e+02	-2.129701e+01
1.489658e+02	-2.134681e+01
1.498262e+02	-2.139878e+01
1.506916e+02	-2.144730e+01
1.515620e+02	-2.149298e+01
1.524374e+02	-2.154565e+01
1.533179e+02	-2.159432e+01
1.542034e+02	-2.164529e+01
1.550941e+02	-2.169300e+01
1.559899e+02	-2.174458e+01
1.568909e+02	-2.179381e+01
1.577971e+02	-2.184499e+01
1.587085e+02	-2.189425e+01
1.596252e+02	-2.194301e+01
1.605472e+02	-2.199328e+01
1.614745e+02	-2.204266e+01
1.624072e+02	-2.209261e+01
1.633453e+02	-2.214126e+01
1.642887e+02	-2.219162e+01
1.652377e+02	-2.223974e+01
1.661921e+02	-2.229191e+01
1.671520e+02	-2.234048e+01
1.681175e+02	-2.238924e+01
1.690885e+02	-2.244137e+01
1.700651e+02	-2.249145e+01
1.710474e+02	-2.253915e+01
1.720354e+02	-2.258828e+01
1.730291e+02	-2.264080e+01
1.740285e+02	-2.268882e+01
1.750337e+02	-2.274053e+01
1.760446e+02	-2.278969e+01
1.770615e+02	-2.283910e+01
1.780842e+02	-2.288947e+01
1.791128e+02	-2.293791e+01
1.801473e+02	-2.298777e+01
1.811878e+02	-2.303871e+01
1.822344e+02	-2.308914e+01
1.832870e+02	-2.313705e+01
1.843456e+02	-2.318437e+01
1.854104e+02	-2.323556e+01
1.864813e+02	-2.328596e+01
1.875584e+02	-2.333786e+01
1.886418e+02	-2.338386e+01
1.897313e+02	-2.343696e+01
1.908272e+02	-2.348644e+01
1.919294e+02	-2.353405e+01
1.930380e+02	-2.358637e+01
1.941530e+02	-2.363832e+01
1.952744e+02	-2.368469e+01
1.964023e+02	-2.373209e+01
1.975367e+02	-2.378570e+01
1.986777e+02	-2.383704e+01
1.998252e+02	-2.388486e+01
2.009794e+02	-2.393375e+01
2.021403e+02	-2.398471e+01
2.033078e+02	-2.403313e+01
2.044821e+02	-2.408314e+01
2.056632e+02	-2.413623e+01
2.068511e+02	-2.418302e+01
2.080459e+02	-2.423283e+01
2.092475e+02	-2.428258e+01
2.104561e+02	-2.433622e+01
2.116717e+02	-2.438551e+01
2.128943e+02	-2.443064e+01
2.141240e+02	-2.448510e+01
2.153608e+02	-2.453305e+01
2.166047e+02	-2.458662e+01
2.178558e+02	-2.463334e+01
2.191141e+02	-2.468224e+01
2.203797e+02	-2.473237e+01
2.216526e+02	-2.478396e+01
2.229329e+02	-2.483224e+01
2.242205e+02	-2.488289e+01
2.255156e+02	-2.493177e+01
2.268182e+02	-2.498274e+01
2.281283e+02	-2.503420e+01
2.294459e+02	-2.508127e+01
2.307712e+02	-2.513174e+01
2.321041e+02	-2.518123e+01
2.334447e+02	-2.522921e+01
2.347931e+02	-2.528332e+01
2.361493e+02	-2.533162e+01
2.375133e+02	-2.538247e+01
2.388851e+02	-2.543142e+01
2.402649e+02	-2.548393e+01
2.416527e+02	-2.552944e+01
2.430484e+02	-2.558111e+01
2.444523e+02	-2.563154e+01
2.458642e+02	-2.568257e+01
2.472843e+02	-2.572915e+01
2.487126e+02	-2.578167e+01
2.501492e+02	-2.583078e+01
2.515940e+02	-2.588217e+01
2.530472e+02	-2.593193e+01
2.545088e+02	-2.597903e+01
2.559789e+02	-2.603248e+01
2.574574e+02	-2.608018e+01
2.589444e+02	-2.613040e+01
2.604401e+02	-2.617888e+01
2.619444e+02	-2.622968e+01
2.634574e+02	-2.628073e+01
2.649791e+02	-2.633119e+01
2.665096e+02	-2.637979e+01
2.680489e+02	-2.643154e+01
2.695972e+02	-2.647770e+01
2.711544e+02	-2.653347e+01
2.727205e+02	-2.657963e+01
2.742958e+02	-2.663191e+01
2.758801e+02	-2.668346e+01
2.774736e+02	-2.672937e+01
2.790762e+02	-2.677933e+01
2.806882e+02	-2.683179e+01
2.823094e+02	-2.687386e+01
2.839400e+02	-2.693074e+01
2.855800e+02	-2.698136e+01
2.872295e+02	-2.703303e+01
2.888886e+02	-2.708278e+01
2.905572e+02	-2.712976e+01
2.922354e+02	-2.717841e+01
2.939234e+02	-2.723307e+01
2.956211e+02	-2.728163e+01
2.973286e+02	-2.733038e+01
2.990459e+02	-2.737782e+01
3.007732e+02	-2.742804e+01
3.025104e+02	-2.747610e+01
3.042577e+02	-2.753057e+01
3.060151e+02	-2.757935e+01
3.077826e+02	-2.763189e+01
3.095604e+02	-2.768051e+01
3.113484e+02	-2.772709e+01
3.131467e+02	-2.777998e+01
3.149554e+02	-2.782986e+01
3.167746e+02	-2.788289e+01
3.186043e+02	-2.792889e+01
3.204445e+02	-2.798004e+01
3.222954e+02	-2.803241e+01
3.241570e+02	-2.807963e+01
3.260293e+02	-2.813101e+01
3.279124e+02	-2.817786e+01
3.298064e+02	-2.823257e+01
3.317114e+02	-2.827986e+01
3.336273e+02	-2.833098e+01
3.355544e+02	-2.838161e+01
3.374925e+02	-2.843088e+01
3.394418e+02	-2.847577e+01
3.414024e+02	-2.853092e+01
3.433744e+02	-2.857918e+01
3.453577e+02	-2.863061e+01
3.473525e+02	-2.868008e+01
3.493588e+02	-2.873007e+01
3.513766e+02	-2.878094e+01
3.534062e+02	-2.882995e+01
3.554474e+02	-2.887963e+01
3.575005e+02	-2.893211e+01
3.595654e+02	-2.897699e+01
3.616422e+02	-2.902953e+01
3.637311e+02	-2.908603e+01
3.658320e+02	-2.913734e+01
3.679450e+02	-2.917685e+01
3.700702e+02	-2.923129e+01
3.722077e+02	-2.927740e+01
3.743576e+02	-2.933087e+01
3.765199e+02	-2.937882e+01
3.786946e+02	-2.943424e+01
3.808820e+02	-2.947999e+01
3.830819e+02	-2.953089e+01
3.852946e+02	-2.958302e+01
3.875200e+02	-2.963169e+01
3.897583e+02	-2.968468e+01
3.920096e+02	-2.973264e+01
3.942738e+02	-2.977737e+01
3.965511e+02	-2.982953e+01
3.988416e+02	-2.988129e+01
4.011452e+02	-2.993306e+01
4.034622e+02	-2.998264e+01
4.057926e+02	-3.003064e+01
4.081365e+02	-3.008719e+01
4.104938e+02	-3.013372e+01
4.128648e+02	-3.017647e+01
4.152495e+02	-3.022950e+01
4.176480e+02	-3.028251e+01
4.200603e+02	-3.033538e+01
4.224866e+02	-3.038191e+01
4.249268e+02	-3.043464e+01
4.273812e+02	-3.048065e+01
4.298497e+02	-3.053355e+01
4.323325e+02	-3.058473e+01
4.348297e+02	-3.063329e+01
4.373412e+02	-3.068204e+01
4.398673e+02	-3.073619e+01
4.424079e+02	-3.078765e+01
4.449633e+02	-3.083671e+01
4.475334e+02	-3.088336e+01
4.501183e+02	-3.093657e+01
4.527182e+02	-3.098613e+01
4.553330e+02	-3.102941e+01
4.579630e+02	-3.108630e+01
4.606082e+02	-3.114120e+01
4.632687e+02	-3.118507e+01
4.659445e+02	-3.123644e+01
4.686358e+02	-3.128726e+01
4.713426e+02	-3.133517e+01
4.740650e+02	-3.139093e+01
4.768032e+02	-3.144083e+01
4.795572e+02	-3.148674e+01
4.823271e+02	-3.153670e+01
4.851130e+02	-3.158227e+01
4.879150e+02	-3.164136e+01
4.907332e+02	-3.168360e+01
4.935676e+02	-3.173163e+01
4.964185e+02	-3.178639e+01
4.992858e+02	-3.183837e+01
5.021696e+02	-3.188582e+01
5.050701e+02	-3.193836e+01
5.079874e+02	-3.199009e+01
5.109215e+02	-3.204718e+01
5.138726e+02	-3.209044e+01
5.168407e+02	-3.213357e+01
5.198259e+02	-3.219039e+01
5.228284e+02	-3.224224e+01
5.258482e+02	-3.229046e+01
5.288855e+02	-3.233961e+01
5.319403e+02	-3.239356e+01
5.350128e+02	-3.244240e+01
5.381030e+02	-3.249129e+01
5.412111e+02	-3.254228e+01
5.443371e+02	-3.259004e+01
5.474812e+02	-3.264250e+01
5.506434e+02	-3.268930e+01
5.538239e+02	-3.273767e+01
5.570228e+02	-3.279364e+01
5.602401e+02	-3.283531e+01
5.634760e+02	-3.289121e+01
5.667306e+02	-3.294256e+01
5.700040e+02	-3.299108e+01
5.732964e+02	-3.304160e+01
5.766077e+02	-3.309233e+01
5.799382e+02	-3.314368e+01
5.832879e+02	-3.319753e+01
5.866569e+02	-3.324779e+01
5.900454e+02	-3.328573e+01
5.934535e+02	-3.334807e+01
5.968813e+02	-3.338945e+01
6.003288e+02	-3.344268e+01
6.037963e+02	-3.349765e+01
6.072838e+02	-3.354628e+01
6.107914e+02	-3.359722e+01
6.143194e+02	-3.364241e+01
6.178676e+02	-3.369571e+01
6.214364e+02	-3.374576e+01
6.250258e+02	-3.379517e+01
6.286359e+02	-3.385133e+01
6.322669e+02	-3.389347e+01
6.359189e+02	-3.394412e+01
6.395919e+02	-3.399248e+01
6.432862e+02	-3.404602e+01
6.470017e+02	-3.409625e+01
6.507388e+02	-3.414675e+01
6.544974e+02	-3.420527e+01
6.582778e+02	-3.425129e+01
6.620800e+02	-3.430698e+01
6.659041e+02	-3.435008e+01
6.697504e+02	-3.440722e+01
6.736188e+02	-3.445279e+01
6.775096e+02	-3.449603e+01
6.814229e+02	-3.455520e+01
6.853587e+02	-3.459920e+01
6.893173e+02	-3.465691e+01
6.932988e+02	-3.470657e+01
6.973033e+02	-3.475263e+01
7.013309e+02	-3.480814e+01
