Frequency(Hz)	Magnitude(dB)
1.000000e+01	-2.053633e+00
1.005776e+01	-2.072499e+00
1.011585e+01	-2.091692e+00
1.017428e+01	-2.110636e+00
1.023305e+01	-2.130122e+00
1.029215e+01	-2.149682e+00
1.035160e+01	-2.169206e+00
1.041139e+01	-2.189054e+00
1.047153e+01	-2.208917e+00
1.053201e+01	-2.228862e+00
1.059284e+01	-2.249201e+00
1.065403e+01	-2.269321e+00
1.071556e+01	-2.289877e+00
1.077746e+01	-2.310410e+00
1.083971e+01	-2.331025e+00
1.090232e+01	-2.351864e+00
1.096529e+01	-2.372849e+00
1.102862e+01	-2.393911e+00
1.109232e+01	-2.415043e+00
1.115639e+01	-2.436806e+00
1.122083e+01	-2.458152e+00
1.128564e+01	-2.479912e+00
1.135083e+01	-2.501666e+00
1.141639e+01	-2.523755e+00
1.148233e+01	-2.545726e+00
1.154865e+01	-2.568113e+00
1.161536e+01	-2.590788e+00
1.168245e+01	-2.612917e+00
1.174992e+01	-2.635893e+00
1.181779e+01	-2.658471e+00
1.188605e+01	-2.681377e+00
1.195470e+01	-2.704772e+00
1.202375e+01	-2.727985e+00
1.209320e+01	-2.751175e+00
1.216305e+01	-2.774814e+00
1.223330e+01	-2.798508e+00
1.230396e+01	-2.822430e+00
1.237503e+01	-2.846201e+00
1.244651e+01	-2.870522e+00
1.251840e+01	-2.895084e+00
1.259070e+01	-2.918917e+00
1.266343e+01	-2.943821e+00
1.273657e+01	-2.968632e+00
1.281014e+01	-2.993453e+00
1.288413e+01	-3.018197e+00
1.295855e+01	-3.043310e+00
1.303339e+01	-3.068766e+00
1.310867e+01	-3.094236e+00
1.318439e+01	-3.119612e+00
1.326054e+01	-3.145183e+00
1.333713e+01	-3.171460e+00
1.341417e+01	-3.197052e+00
1.349165e+01	-3.223308e+00
1.356958e+01	-3.249681e+00
1.364795e+01	-3.276182e+00
1.372678e+01	-3.302581e+00
1.380607e+01	-3.329284e+00
1.388581e+01	-3.356149e+00
1.396602e+01	-3.383325e+00
1.404668e+01	-3.410566e+00
1.412782e+01	-3.437677e+00
1.420942e+01	-3.465212e+00
1.429149e+01	-3.492607e+00
1.437404e+01	-3.520206e+00
1.445706e+01	-3.548349e+00
1.454057e+01	-3.576304e+00
1.462455e+01	-3.604360e+00
1.470902e+01	-3.632636e+00
1.479398e+01	-3.661056e+00
1.487943e+01	-3.689705e+00
1.496537e+01	-3.718441e+00
1.505181e+01	-3.747297e+00
1.513875e+01	-3.776292e+00
1.522619e+01	-3.805241e+00
1.531414e+01	-3.834537e+00
1.540259e+01	-3.864188e+00
1.549156e+01	-3.893824e+00
1.558103e+01	-3.923362e+00
1.567103e+01	-3.952945e+00
1.576155e+01	-3.983021e+00
1.585258e+01	-4.013248e+00
1.594415e+01	-4.043267e+00
1.603624e+01	-4.073501e+00
1.612886e+01	-4.104223e+00
1.622202e+01	-4.134876e+00
1.631572e+01	-4.165517e+00
1.640996e+01	-4.196445e+00
1.650474e+01	-4.227795e+00
1.660008e+01	-4.258643e+00
1.669596e+01	-4.290503e+00
1.679239e+01	-4.321542e+00
1.688938e+01	-4.353366e+00
1.698694e+01	-4.385231e+00
1.708505e+01	-4.417017e+00
1.718373e+01	-4.448822e+00
1.728299e+01	-4.481206e+00
1.738281e+01	-4.513335e+00
1.748322e+01	-4.545551e+00
1.758420e+01	-4.577967e+00
1.768576e+01	-4.610471e+00
1.778792e+01	-4.643405e+00
1.789066e+01	-4.676434e+00
1.799399e+01	-4.709573e+00
1.809793e+01	-4.742795e+00
1.820246e+01	-4.775870e+00
1.830760e+01	-4.809578e+00
1.841334e+01	-4.843085e+00
1.851969e+01	-4.876689e+00
1.862666e+01	-4.910498e+00
1.873425e+01	-4.944344e+00
1.884246e+01	-4.978583e+00
1.895129e+01	-5.012604e+00
1.906075e+01	-5.046626e+00
1.917085e+01	-5.081558e+00
1.928158e+01	-5.116099e+00
1.939295e+01	-5.150822e+00
1.950496e+01	-5.185426e+00
1.961762e+01	-5.220663e+00
1.973093e+01	-5.255643e+00
1.984490e+01	-5.290996e+00
1.995952e+01	-5.326111e+00
2.007480e+01	-5.361627e+00
2.019076e+01	-5.397092e+00
2.030738e+01	-5.432610e+00
2.042467e+01	-5.468428e+00
2.054264e+01	-5.504365e+00
2.066130e+01	-5.540043e+00
2.078064e+01	-5.576524e+00
2.090066e+01	-5.612335e+00
2.102139e+01	-5.648984e+00
2.114280e+01	-5.685458e+00
2.126492e+01	-5.721964e+00
2.138775e+01	-5.758404e+00
2.151128e+01	-5.795062e+00
2.163553e+01	-5.832120e+00
2.176050e+01	-5.869397e+00
2.188619e+01	-5.906205e+00
2.201260e+01	-5.943765e+00
2.213974e+01	-5.980746e+00
2.226762e+01	-6.018238e+00
2.239624e+01	-6.055838e+00
2.252560e+01	-6.093828e+00
2.265571e+01	-6.131525e+00
2.278656e+01	-6.169596e+00
2.291818e+01	-6.207102e+00
2.305055e+01	-6.245132e+00
2.318369e+01	-6.283583e+00
2.331760e+01	-6.322321e+00
2.345228e+01	-6.360581e+00
2.358774e+01	-6.398831e+00
2.372398e+01	-6.437369e+00
2.386101e+01	-6.476525e+00
2.399883e+01	-6.515156e+00
2.413745e+01	-6.553991e+00
2.427686e+01	-6.592637e+00
2.441709e+01	-6.632136e+00
2.455812e+01	-6.671122e+00
2.469997e+01	-6.710840e+00
2.484263e+01	-6.750226e+00
2.498612e+01	-6.789496e+00
2.513044e+01	-6.829430e+00
2.527559e+01	-6.868836e+00
2.542158e+01	-6.908625e+00
2.556842e+01	-6.948464e+00
2.571610e+01	-6.988559e+00
2.586463e+01	-7.028718e+00
2.601403e+01	-7.069051e+00
2.616428e+01	-7.109388e+00
2.631541e+01	-7.149102e+00
2.646740e+01	-7.189807e+00
2.662028e+01	-7.230191e+00
2.677404e+01	-7.271058e+00
2.692868e+01	-7.311275e+00
2.708422e+01	-7.352165e+00
2.724066e+01	-7.393015e+00
2.739800e+01	-7.434362e+00
2.755625e+01	-7.475283e+00
2.771541e+01	-7.516002e+00
2.787550e+01	-7.557280e+00
2.803650e+01	-7.598676e+00
2.819844e+01	-7.639937e+00
2.836131e+01	-7.681643e+00
2.852513e+01	-7.722667e+00
2.868989e+01	-7.764794e+00
2.885560e+01	-7.806157e+00
2.902227e+01	-7.847880e+00
2.918990e+01	-7.890148e+00
2.935850e+01	-7.931903e+00
2.952807e+01	-7.973958e+00
2.969863e+01	-8.015715e+00
2.987016e+01	-8.058272e+00
3.004269e+01	-8.100852e+00
3.021622e+01	-8.142695e+00
3.039075e+01	-8.185524e+00
3.056628e+01	-8.227940e+00
3.074283e+01	-8.270443e+00
3.092040e+01	-8.312699e+00
3.109900e+01	-8.355879e+00
3.127862e+01	-8.398129e+00
3.145929e+01	-8.440884e+00
3.164099e+01	-8.483894e+00
3.182375e+01	-8.526992e+00
3.200756e+01	-8.569554e+00
3.219244e+01	-8.613020e+00
3.237838e+01	-8.656516e+00
3.256540e+01	-8.699307e+00
3.275349e+01	-8.742581e+00
3.294268e+01	-8.786340e+00
3.313295e+01	-8.830126e+00
3.332433e+01	-8.873184e+00
3.351681e+01	-8.916462e+00
3.371040e+01	-8.960296e+00
3.390511e+01	-9.003845e+00
3.410094e+01	-9.047626e+00
3.429791e+01	-9.091609e+00
3.449601e+01	-9.135866e+00
3.469526e+01	-9.179216e+00
3.489566e+01	-9.223791e+00
3.509721e+01	-9.267521e+00
3.529993e+01	-9.312073e+00
3.550382e+01	-9.356101e+00
3.570889e+01	-9.400258e+00
3.591515e+01	-9.444685e+00
3.612259e+01	-9.488662e+00
3.633123e+01	-9.533095e+00
3.654108e+01	-9.577387e+00
3.675214e+01	-9.622049e+00
3.696442e+01	-9.666775e+00
3.717792e+01	-9.710913e+00
3.739266e+01	-9.756179e+00
3.760864e+01	-9.800840e+00
3.782587e+01	-9.845962e+00
3.804435e+01	-9.890699e+00
3.826409e+01	-9.935582e+00
3.848510e+01	-9.980144e+00
3.870739e+01	-1.002572e+01
3.893096e+01	-1.007136e+01
3.915583e+01	-1.011573e+01
3.938199e+01	-1.016099e+01
3.960946e+01	-1.020619e+01
3.983824e+01	-1.025166e+01
4.006834e+01	-1.029674e+01
4.029978e+01	-1.034263e+01
4.053255e+01	-1.038767e+01
4.076666e+01	-1.043309e+01
4.100213e+01	-1.047874e+01
4.123896e+01	-1.052420e+01
4.147715e+01	-1.056966e+01
4.171672e+01	-1.061546e+01
4.195767e+01	-1.066101e+01
4.220002e+01	-1.070677e+01
4.244377e+01	-1.075255e+01
4.268892e+01	-1.079905e+01
4.293549e+01	-1.084409e+01
4.318348e+01	-1.089022e+01
4.343291e+01	-1.093655e+01
4.368377e+01	-1.098217e+01
4.393609e+01	-1.102869e+01
4.418986e+01	-1.107439e+01
4.444510e+01	-1.112067e+01
4.470182e+01	-1.116681e+01
4.496001e+01	-1.121343e+01
4.521970e+01	-1.125926e+01
4.548089e+01	-1.130577e+01
4.574358e+01	-1.135226e+01
4.600779e+01	-1.139901e+01
4.627353e+01	-1.144481e+01
4.654081e+01	-1.149078e+01
4.680963e+01	-1.153800e+01
4.708000e+01	-1.158451e+01
4.735193e+01	-1.163074e+01
4.762543e+01	-1.167759e+01
4.790051e+01	-1.172407e+01
4.817719e+01	-1.177032e+01
4.845545e+01	-1.181748e+01
4.873533e+01	-1.186469e+01
4.901682e+01	-1.191159e+01
4.929994e+01	-1.195849e+01
4.958470e+01	-1.200461e+01
4.987110e+01	-1.205122e+01
5.015915e+01	-1.209832e+01
5.044887e+01	-1.214565e+01
5.074026e+01	-1.219213e+01
5.103333e+01	-1.223942e+01
5.132810e+01	-1.228645e+01
5.162457e+01	-1.233369e+01
5.192275e+01	-1.238118e+01
5.222265e+01	-1.242780e+01
5.252429e+01	-1.247482e+01
5.282767e+01	-1.252267e+01
5.313280e+01	-1.256986e+01
5.343969e+01	-1.261704e+01
5.374836e+01	-1.266395e+01
5.405880e+01	-1.271127e+01
5.437105e+01	-1.275836e+01
5.468509e+01	-1.280601e+01
5.500095e+01	-1.285349e+01
5.531863e+01	-1.290118e+01
5.563815e+01	-1.294820e+01
5.595951e+01	-1.299604e+01
5.628273e+01	-1.304305e+01
5.660782e+01	-1.309042e+01
5.693479e+01	-1.313850e+01
5.726364e+01	-1.318589e+01
5.759439e+01	-1.323416e+01
5.792705e+01	-1.328202e+01
5.826164e+01	-1.332970e+01
5.859815e+01	-1.337675e+01
5.893662e+01	-1.342492e+01
5.927703e+01	-1.347256e+01
5.961941e+01	-1.352014e+01
5.996377e+01	-1.356809e+01
6.031012e+01	-1.361619e+01
6.065847e+01	-1.366399e+01
6.100883e+01	-1.371254e+01
6.136121e+01	-1.376066e+01
6.171563e+01	-1.380754e+01
6.207210e+01	-1.385573e+01
6.243063e+01	-1.390343e+01
6.279122e+01	-1.395244e+01
6.315390e+01	-1.399996e+01
6.351868e+01	-1.404801e+01
6.388556e+01	-1.409628e+01
6.425456e+01	-1.414331e+01
6.462569e+01	-1.419315e+01
6.499897e+01	-1.424005e+01
6.537440e+01	-1.428864e+01
6.575200e+01	-1.433566e+01
6.613178e+01	-1.438419e+01
6.651375e+01	-1.443344e+01
6.689793e+01	-1.448143e+01
6.728433e+01	-1.452965e+01
6.767297e+01	-1.457657e+01
6.806384e+01	-1.462598e+01
6.845698e+01	-1.467384e+01
6.885238e+01	-1.472168e+01
6.925007e+01	-1.477107e+01
6.965005e+01	-1.481938e+01
7.005235e+01	-1.486712e+01
7.045697e+01	-1.491706e+01
7.086393e+01	-1.496443e+01
7.127323e+01	-1.501332e+01
7.168490e+01	-1.506163e+01
7.209895e+01	-1.511035e+01
7.251539e+01	-1.515877e+01
7.293424e+01	-1.520662e+01
7.335551e+01	-1.525472e+01
7.377920e+01	-1.530313e+01
7.420535e+01	-1.535198e+01
7.463396e+01	-1.540020e+01
7.506504e+01	-1.544921e+01
7.549861e+01	-1.549878e+01
7.593469e+01	-1.554702e+01
7.637328e+01	-1.559560e+01
7.681441e+01	-1.564360e+01
7.725809e+01	-1.569279e+01
7.770433e+01	-1.574017e+01
7.815315e+01	-1.579008e+01
7.860456e+01	-1.583940e+01
7.905857e+01	-1.588727e+01
7.951521e+01	-1.593659e+01
7.997449e+01	-1.598436e+01
8.043642e+01	-1.603384e+01
8.090102e+01	-1.608242e+01
8.136830e+01	-1.613236e+01
8.183828e+01	-1.617980e+01
8.231097e+01	-1.622878e+01
8.278640e+01	-1.627866e+01
8.326457e+01	-1.632751e+01
8.374550e+01	-1.637489e+01
8.422921e+01	-1.642517e+01
8.471572e+01	-1.647403e+01
8.520503e+01	-1.652281e+01
8.569717e+01	-1.657156e+01
8.619215e+01	-1.662085e+01
8.669000e+01	-1.666978e+01
8.719071e+01	-1.671882e+01
8.769432e+01	-1.676612e+01
8.820084e+01	-1.681663e+01
8.871029e+01	-1.686474e+01
8.922267e+01	-1.691334e+01
8.973802e+01	-1.696347e+01
9.025634e+01	-1.701195e+01
9.077766e+01	-1.706131e+01
9.130199e+01	-1.711117e+01
9.182935e+01	-1.716027e+01
9.235975e+01	-1.720834e+01
9.289321e+01	-1.725808e+01
9.342976e+01	-1.730737e+01
9.396941e+01	-1.735565e+01
9.451217e+01	-1.740579e+01
9.505807e+01	-1.745434e+01
9.560712e+01	-1.750427e+01
9.615934e+01	-1.755195e+01
9.671476e+01	-1.760085e+01
9.727338e+01	-1.765106e+01
9.783522e+01	-1.770009e+01
9.840032e+01	-1.774947e+01
9.896867e+01	-1.779904e+01
9.954031e+01	-1.784829e+01
1.001153e+02	-1.789728e+01
1.006935e+02	-1.794614e+01
1.012751e+02	-1.799522e+01
1.018601e+02	-1.804412e+01
1.024484e+02	-1.809300e+01
1.030402e+02	-1.814199e+01
1.036353e+02	-1.819310e+01
1.042339e+02	-1.824146e+01
1.048360e+02	-1.829058e+01
1.054415e+02	-1.833906e+01
1.060505e+02	-1.838918e+01
1.066631e+02	-1.843803e+01
1.072791e+02	-1.848767e+01
1.078988e+02	-1.853611e+01
1.085220e+02	-1.858697e+01
1.091488e+02	-1.863455e+01
1.097793e+02	-1.868546e+01
1.104133e+02	-1.873505e+01
1.110511e+02	-1.878449e+01
1.116925e+02	-1.883327e+01
1.123376e+02	-1.888237e+01
1.129865e+02	-1.893277e+01
1.136391e+02	-1.898274e+01
1.142955e+02	-1.903083e+01
1.149556e+02	-1.908024e+01
1.156196e+02	-1.913021e+01
1.162874e+02	-1.917666e+01
1.169591e+02	-1.922914e+01
1.176347e+02	-1.927766e+01
1.183141e+02	-1.932631e+01
1.189975e+02	-1.937741e+01
1.196848e+02	-1.942768e+01
1.203761e+02	-1.947632e+01
1.210714e+02	-1.952584e+01
1.217707e+02	-1.957670e+01
1.224740e+02	-1.962430e+01
1.231814e+02	-1.967498e+01
1.238929e+02	-1.972463e+01
1.246085e+02	-1.977369e+01
1.253283e+02	-1.982342e+01
1.260522e+02	-1.987309e+01
1.267802e+02	-1.992209e+01
1.275125e+02	-1.997032e+01
1.282490e+02	-2.001975e+01
1.289898e+02	-2.007073e+01
1.297348e+02	-2.011936e+01
1.304842e+02	-2.016838e+01
1.312378e+02	-2.021799e+01
1.319959e+02	-2.026951e+01
1.327583e+02	-2.031707e+01
1.335251e+02	-2.036746e+01
1.342963e+02	-2.041743e+01
1.350720e+02	-2.046586e+01
1.358522e+02	-2.051676e+01
1.366368e+02	-2.056776e+01
1.374260e+02	-2.061350e+01
1.382198e+02	-2.066485e+01
1.390182e+02	-2.071544e+01
1.398211e+02	-2.076324e+01
1.406287e+02	-2.081109e+01
1.414410e+02	-2.086436e+01
1.422579e+02	-2.091130e+01
1.430796e+02	-2.096276e+01
1.439060e+02	-2.101314e+01
1.447372e+02	-2.106367e+01
1.455732e+02	-2.111044e+01
1.464141e+02	-2.116118e+01
1.472597e+02	-2.121085e+01
1.481103e+02	-2.126270e+01
1.489658e+02	-2.131048e+01
1.498262e+02	-2.136019e+01
1.506916e+02	-2.140909e+01
1.515620e+02	-2.145922e+01
1.524374e+02	-2.150811e+01
1.533179e+02	-2.155893e+01
1.542034e+02	-2.161125e+01
1.550941e+02	-2.165931e+01
1.559899e+02	-2.170764e+01
1.568909e+02	-2.175760e+01
1.577971e+02	-2.180711e+01
1.587085e+02	-2.185620e+01
1.596252e+02	-2.190582e+01
1.605472e+02	-2.195528e+01
1.614745e+02	-2.200518e+01
1.624072e+02	-2.205675e+01
1.633453e+02	-2.210769e+01
1.642887e+02	-2.215724e+01
1.652377e+02	-2.220539e+01
1.661921e+02	-2.225510e+01
1.671520e+02	-2.230641e+01
1.681175e+02	-2.235485e+01
1.690885e+02	-2.240421e+01
1.700651e+02	-2.245311e+01
1.710474e+02	-2.250328e+01
1.720354e+02	-2.255440e+01
1.730291e+02	-2.260278e+01
1.740285e+02	-2.265391e+01
1.750337e+02	-2.270010e+01
1.760446e+02	-2.275278e+01
1.770615e+02	-2.280369e+01
1.780842e+02	-2.285557e+01
1.791128e+02	-2.290161e+01
1.801473e+02	-2.295255e+01
1.811878e+02	-2.300140e+01
1.822344e+02	-2.305112e+01
1.832870e+02	-2.310114e+01
1.843456e+02	-2.315194e+01
1.854104e+02	-2.320135e+01
1.864813e+02	-2.325039e+01
1.875584e+02	-2.330023e+01
1.886418e+02	-2.334909e+01
1.897313e+02	-2.340272e+01
1.908272e+02	-2.344945e+01
1.919294e+02	-2.349912e+01
1.930380e+02	-2.354924e+01
1.941530e+02	-2.359899e+01
1.952744e+02	-2.364805e+01
1.964023e+02	-2.369838e+01
1.975367e+02	-2.374890e+01
1.986777e+02	-2.379808e+01
1.998252e+02	-2.384990e+01
2.009794e+02	-2.389877e+01
2.021403e+02	-2.394710e+01
2.033078e+02	-2.399759e+01
2.044821e+02	-2.404767e+01
2.056632e+02	-2.409763e+01
2.068511e+02	-2.415067e+01
2.080459e+02	-2.419679e+01
2.092475e+02	-2.424599e+01
2.104561e+02	-2.429801e+01
2.116717e+02	-2.434728e+01
2.128943e+02	-2.439745e+01
2.141240e+02	-2.444818e+01
2.153608e+02	-2.449709e+01
2.166047e+02	-2.454400e+01
2.178558e+02	-2.459774e+01
2.191141e+02	-2.464643e+01
2.203797e+02	-2.469759e+01
2.216526e+02	-2.474771e+01
2.229329e+02	-2.479983e+01
2.242205e+02	-2.484853e+01
2.255156e+02	-2.489409e+01
2.268182e+02	-2.494500e+01
2.281283e+02	-2.499553e+01
2.294459e+02	-2.504677e+01
2.307712e+02	-2.509732e+01
2.321041e+02	-2.514653e+01
2.334447e+02	-2.519590e+01
2.347931e+02	-2.524401e+01
2.361493e+02	-2.529444e+01
2.375133e+02	-2.534737e+01
2.388851e+02	-2.539626e+01
2.402649e+02	-2.544189e+01
2.416527e+02	-2.549546e+01
2.430484e+02	-2.554626e+01
2.444523e+02	-2.559502e+01
2.458642e+02	-2.564493e+01
2.472843e+02	-2.569756e+01
2.487126e+02	-2.574503e+01
2.501492e+02	-2.579559e+01
2.515940e+02	-2.584626e+01
2.530472e+02	-2.589605e+01
2.545088e+02	-2.594421e+01
2.559789e+02	-2.599380e+01
2.574574e+02	-2.604413e+01
2.589444e+02	-2.609289e+01
2.604401e+02	-2.614510e+01
2.619444e+02	-2.619520e+01
2.634574e+02	-2.624374e+01
2.649791e+02	-2.629545e+01
2.665096e+02	-2.634386e+01
2.680489e+02	-2.638967e+01
2.695972e+02	-2.644366e+01
2.711544e+02	-2.649266e+01
2.727205e+02	-2.654241e+01
2.742958e+02	-2.659579e+01
2.758801e+02	-2.664470e+01
2.774736e+02	-2.669545e+01
2.790762e+02	-2.674338e+01
2.806882e+02	-2.679348e+01
2.823094e+02	-2.684062e+01
2.839400e+02	-2.689483e+01
2.855800e+02	-2.694440e+01
2.872295e+02	-2.699482e+01
2.888886e+02	-2.704504e+01
2.905572e+02	-2.709521e+01
2.922354e+02	-2.714529e+01
2.939234e+02	-2.719130e+01
2.956211e+02	-2.724216e+01
2.973286e+02	-2.729433e+01
2.990459e+02	-2.734243e+01
3.007732e+02	-2.739830e+01
3.025104e+02	-2.744239e+01
3.042577e+02	-2.749414e+01
3.060151e+02	-2.754151e+01
3.077826e+02	-2.759193e+01
3.095604e+02	-2.764035e+01
3.113484e+02	-2.769183e+01
3.131467e+02	-2.774755e+01
3.149554e+02	-2.779354e+01
3.167746e+02	-2.784240e+01
3.186043e+02	-2.789523e+01
3.204445e+02	-2.794639e+01
3.222954e+02	-2.798929e+01
3.241570e+02	-2.804121e+01
3.260293e+02	-2.809290e+01
3.279124e+02	-2.814631e+01
3.298064e+02	-2.819319e+01
3.317114e+02	-2.824564e+01
3.336273e+02	-2.829475e+01
3.355544e+02	-2.834334e+01
3.374925e+02	-2.839406e+01
3.394418e+02	-2.844827e+01
3.414024e+02	-2.849385e+01
3.433744e+02	-2.854358e+01
3.453577e+02	-2.859494e+01
3.473525e+02	-2.863930e+01
3.493588e+02	-2.869320e+01
3.513766e+02	-2.874578e+01
3.534062e+02	-2.879235e+01
3.554474e+02	-2.884309e+01
3.575005e+02	-2.889214e+01
3.595654e+02	-2.894130e+01
3.616422e+02	-2.899907e+01
3.637311e+02	-2.904480e+01
3.658320e+02	-2.909610e+01
3.679450e+02	-2.914814e+01
3.700702e+02	-2.919246e+01
3.722077e+02	-2.924626e+01
3.743576e+02	-2.929824e+01
3.765199e+02	-2.934484e+01
3.786946e+02	-2.939605e+01
3.808820e+02	-2.945020e+01
3.830819e+02	-2.949844e+01
3.852946e+02	-2.954354e+01
3.875200e+02	-2.959254e+01
3.897583e+02	-2.964652e+01
3.920096e+02	-2.970026e+01
3.942738e+02	-2.975006e+01
3.965511e+02	-2.979894e+01
3.988416e+02	-2.984707e+01
4.011452e+02	-2.989517e+01
4.034622e+02	-2.995030e+01
4.057926e+02	-3.000091e+01
4.081365e+02	-3.004712e+01
4.104938e+02	-3.010024e+01
4.128648e+02	-3.014724e+01
4.152495e+02	-3.019381e+01
4.176480e+02	-3.024470e+01
4.200603e+02	-3.029509e+01
4.224866e+02	-3.034978e+01
4.249268e+02	-3.040264e+01
4.273812e+02	-3.044693e+01
4.298497e+02	-3.049499e+01
4.323325e+02	-3.054323e+01
4.348297e+02	-3.059315e+01
4.373412e+02	-3.065103e+01
4.398673e+02	-3.070180e+01
4.424079e+02	-3.074147e+01
4.449633e+02	-3.079852e+01
4.475334e+02	-3.084761e+01
4.501183e+02	-3.090285e+01
4.527182e+02	-3.095660e+01
4.553330e+02	-3.098976e+01
4.579630e+02	-3.104340e+01
4.606082e+02	-3.109733e+01
4.632687e+02	-3.114993e+01
4.659445e+02	-3.119395e+01
4.686358e+02	-3.125482e+01
4.713426e+02	-3.130340e+01
4.740650e+02	-3.135777e+01
4.768032e+02	-3.139688e+01
4.795572e+02	-3.145067e+01
4.823271e+02	-3.150285e+01
4.851130e+02	-3.156038e+01
4.879150e+02	-3.160439e+01
4.907332e+02	-3.165553e+01
4.935676e+02	-3.169884e+01
4.964185e+02	-3.174631e+01
4.992858e+02	-3.180315e+01
5.021696e+02	-3.185372e+01
5.050701e+02	-3.190378e+01
5.079874e+02	-3.195462e+01
5.109215e+02	-3.201010e+01
5.138726e+02	-3.205222e+01
5.168407e+02	-3.210090e+01
5.198259e+02	-3.215512e+01
5.228284e+02	-3.219772e+01
5.258482e+02	-3.225037e+01
5.288855e+02	-3.230314e+01
5.319403e+02	-3.236527e+01
5.350128e+02	-3.241161e+01
5.381030e+02	-3.245684e+01
5.412111e+02	-3.250804e+01
5.443371e+02	-3.255058e+01
5.474812e+02	-3.259968e+01
5.506434e+02	-3.265381e+01
5.538239e+02	-3.270828e+01
5.570228e+02	-3.275445e+01
5.602401e+02	-3.280025e+01
5.634760e+02	-3.284865e+01
5.667306e+02	-3.290679e+01
5.700040e+02	-3.295793e+01
5.732964e+02	-3.301576e+01
5.766077e+02	-3.305427e+01
5.799382e+02	-3.310940e+01
5.832879e+02	-3.315703e+01
5.866569e+02	-3.320825e+01
5.900454e+02	-3.325335e+01
5.934535e+02	-3.330253e+01
5.968813e+02	-3.335689e+01
6.003288e+02	-3.340905e+01
6.037963e+02	-3.346012e+01
6.072838e+02	-3.350527e+01
6.107914e+02	-3.355308e+01
6.143194e+02	-3.361475e+01
6.178676e+02	-3.366181e+01
6.214364e+02	-3.370854e+01
6.250258e+02	-3.376040e+01
6.286359e+02	-3.381493e+01
6.322669e+02	-3.385905e+01
6.359189e+02	-3.391864e+01
6.395919e+02	-3.396761e+01
6.432862e+02	-3.401591e+01
6.470017e+02	-3.406630e+01
6.507388e+02	-3.411035e+01
6.544974e+02	-3.416086e+01
6.582778e+02	-3.421298e+01
6.620800e+02	-3.426565e+01
6.659041e+02	-3.431503e+01
6.697504e+02	-3.436038e+01
6.736188e+02	-3.441451e+01
6.775096e+02	-3.446433e+01
6.814229e+02	-3.451396e+01
6.853587e+02	-3.456988e+01
6.893173e+02	-3.461059e+01
6.932988e+02	-3.466017e+01
6.973033e+02	-3.471494e+01
7.013309e+02	-3.476538e+01
