Frequency(Hz)	Magnitude(dB)
1.000000e+01	-2.367230e+00
1.005776e+01	-2.388442e+00
1.011585e+01	-2.409478e+00
1.017428e+01	-2.431188e+00
1.023305e+01	-2.452587e+00
1.029215e+01	-2.474423e+00
1.035160e+01	-2.496079e+00
1.041139e+01	-2.518138e+00
1.047153e+01	-2.540071e+00
1.053201e+01	-2.562041e+00
1.059284e+01	-2.584606e+00
1.065403e+01	-2.607199e+00
1.071556e+01	-2.629911e+00
1.077746e+01	-2.652656e+00
1.083971e+01	-2.675562e+00
1.090232e+01	-2.698723e+00
1.096529e+01	-2.721834e+00
1.102862e+01	-2.745200e+00
1.109232e+01	-2.768804e+00
1.115639e+01	-2.792319e+00
1.122083e+01	-2.816150e+00
1.128564e+01	-2.840190e+00
1.135083e+01	-2.864368e+00
1.141639e+01	-2.888597e+00
1.148233e+01	-2.912735e+00
1.154865e+01	-2.937444e+00
1.161536e+01	-2.961991e+00
1.168245e+01	-2.987014e+00
1.174992e+01	-3.011713e+00
1.181779e+01	-3.036820e+00
1.188605e+01	-3.062118e+00
1.195470e+01	-3.087338e+00
1.202375e+01	-3.113046e+00
1.209320e+01	-3.138917e+00
1.216305e+01	-3.164737e+00
1.223330e+01	-3.190587e+00
1.230396e+01	-3.216591e+00
1.237503e+01	-3.242766e+00
1.244651e+01	-3.269036e+00
1.251840e+01	-3.295616e+00
1.259070e+01	-3.322352e+00
1.266343e+01	-3.349348e+00
1.273657e+01	-3.376083e+00
1.281014e+01	-3.403545e+00
1.288413e+01	-3.430683e+00
1.295855e+01	-3.457978e+00
1.303339e+01	-3.485339e+00
1.310867e+01	-3.513260e+00
1.318439e+01	-3.541030e+00
1.326054e+01	-3.568993e+00
1.333713e+01	-3.597051e+00
1.341417e+01	-3.625254e+00
1.349165e+01	-3.653725e+00
1.356958e+01	-3.682044e+00
1.364795e+01	-3.710939e+00
1.372678e+01	-3.739529e+00
1.380607e+01	-3.768673e+00
1.388581e+01	-3.797383e+00
1.396602e+01	-3.826898e+00
1.404668e+01	-3.856291e+00
1.412782e+01	-3.885771e+00
1.420942e+01	-3.915336e+00
1.429149e+01	-3.945370e+00
1.437404e+01	-3.975236e+00
1.445706e+01	-4.005222e+00
1.454057e+01	-4.035312e+00
1.462455e+01	-4.065495e+00
1.470902e+01	-4.096242e+00
1.479398e+01	-4.126917e+00
1.487943e+01	-4.157707e+00
1.496537e+01	-4.188517e+00
1.505181e+01	-4.219626e+00
1.513875e+01	-4.250508e+00
1.522619e+01	-4.282030e+00
1.531414e+01	-4.313213e+00
1.540259e+01	-4.344976e+00
1.549156e+01	-4.376493e+00
1.558103e+01	-4.408575e+00
1.567103e+01	-4.440579e+00
1.576155e+01	-4.472468e+00
1.585258e+01	-4.504732e+00
1.594415e+01	-4.537120e+00
1.603624e+01	-4.569573e+00
1.612886e+01	-4.602145e+00
1.622202e+01	-4.635086e+00
1.631572e+01	-4.667980e+00
1.640996e+01	-4.701019e+00
1.650474e+01	-4.733791e+00
1.660008e+01	-4.767330e+00
1.669596e+01	-4.800813e+00
1.679239e+01	-4.834259e+00
1.688938e+01	-4.867882e+00
1.698694e+01	-4.901549e+00
1.708505e+01	-4.935453e+00
1.718373e+01	-4.969384e+00
1.728299e+01	-5.003614e+00
1.738281e+01	-5.037922e+00
1.748322e+01	-5.072379e+00
1.758420e+01	-5.106964e+00
1.768576e+01	-5.141621e+00
1.778792e+01	-5.176495e+00
1.789066e+01	-5.211038e+00
1.799399e+01	-5.246225e+00
1.809793e+01	-5.281521e+00
1.820246e+01	-5.316597e+00
1.830760e+01	-5.351955e+00
1.841334e+01	-5.387507e+00
1.851969e+01	-5.423261e+00
1.862666e+01	-5.458556e+00
1.873425e+01	-5.494712e+00
1.884246e+01	-5.530658e+00
1.895129e+01	-5.567045e+00
1.906075e+01	-5.602957e+00
1.917085e+01	-5.639515e+00
1.928158e+01	-5.675953e+00
1.939295e+01	-5.712536e+00
1.950496e+01	-5.749122e+00
1.961762e+01	-5.785921e+00
1.973093e+01	-5.822948e+00
1.984490e+01	-5.859505e+00
1.995952e+01	-5.896696e+00
2.007480e+01	-5.933671e+00
2.019076e+01	-5.971196e+00
2.030738e+01	-6.008637e+00
2.042467e+01	-6.046350e+00
2.054264e+01	-6.084058e+00
2.066130e+01	-6.121598e+00
2.078064e+01	-6.159436e+00
2.090066e+01	-6.197687e+00
2.102139e+01	-6.235556e+00
2.114280e+01	-6.273765e+00
2.126492e+01	-6.311929e+00
2.138775e+01	-6.350636e+00
2.151128e+01	-6.389010e+00
2.163553e+01	-6.427245e+00
2.176050e+01	-6.466216e+00
2.188619e+01	-6.505059e+00
2.201260e+01	-6.543844e+00
2.213974e+01	-6.582576e+00
2.226762e+01	-6.621798e+00
2.239624e+01	-6.661117e+00
2.252560e+01	-6.700454e+00
2.265571e+01	-6.740058e+00
2.278656e+01	-6.779256e+00
2.291818e+01	-6.818575e+00
2.305055e+01	-6.858707e+00
2.318369e+01	-6.898340e+00
2.331760e+01	-6.937943e+00
2.345228e+01	-6.977885e+00
2.358774e+01	-7.018068e+00
2.372398e+01	-7.058044e+00
2.386101e+01	-7.098796e+00
2.399883e+01	-7.138492e+00
2.413745e+01	-7.179228e+00
2.427686e+01	-7.219828e+00
2.441709e+01	-7.259899e+00
2.455812e+01	-7.300432e+00
2.469997e+01	-7.341755e+00
2.484263e+01	-7.382220e+00
2.498612e+01	-7.423369e+00
2.513044e+01	-7.464101e+00
2.527559e+01	-7.505706e+00
2.542158e+01	-7.546937e+00
2.556842e+01	-7.588090e+00
2.571610e+01	-7.629236e+00
2.586463e+01	-7.670780e+00
2.601403e+01	-7.712396e+00
2.616428e+01	-7.753778e+00
2.631541e+01	-7.795023e+00
2.646740e+01	-7.836958e+00
2.662028e+01	-7.879191e+00
2.677404e+01	-7.921168e+00
2.692868e+01	-7.963002e+00
2.708422e+01	-8.004846e+00
2.724066e+01	-8.047315e+00
2.739800e+01	-8.089206e+00
2.755625e+01	-8.131998e+00
2.771541e+01	-8.174228e+00
2.787550e+01	-8.216406e+00
2.803650e+01	-8.259357e+00
2.819844e+01	-8.301542e+00
2.836131e+01	-8.343946e+00
2.852513e+01	-8.386821e+00
2.868989e+01	-8.430104e+00
2.885560e+01	-8.472536e+00
2.902227e+01	-8.515074e+00
2.918990e+01	-8.558926e+00
2.935850e+01	-8.601647e+00
2.952807e+01	-8.645180e+00
2.969863e+01	-8.688070e+00
2.987016e+01	-8.731469e+00
3.004269e+01	-8.774778e+00
3.021622e+01	-8.818460e+00
3.039075e+01	-8.861907e+00
3.056628e+01	-8.905577e+00
3.074283e+01	-8.948279e+00
3.092040e+01	-8.992429e+00
3.109900e+01	-9.036264e+00
3.127862e+01	-9.080070e+00
3.145929e+01	-9.124093e+00
3.164099e+01	-9.168133e+00
3.182375e+01	-9.211843e+00
3.200756e+01	-9.255832e+00
3.219244e+01	-9.299672e+00
3.237838e+01	-9.344205e+00
3.256540e+01	-9.388432e+00
3.275349e+01	-9.433224e+00
3.294268e+01	-9.476801e+00
3.313295e+01	-9.521527e+00
3.332433e+01	-9.566238e+00
3.351681e+01	-9.610775e+00
3.371040e+01	-9.655578e+00
3.390511e+01	-9.699872e+00
3.410094e+01	-9.744449e+00
3.429791e+01	-9.789402e+00
3.449601e+01	-9.834161e+00
3.469526e+01	-9.878973e+00
3.489566e+01	-9.924114e+00
3.509721e+01	-9.968795e+00
3.529993e+01	-1.001392e+01
3.550382e+01	-1.005939e+01
3.570889e+01	-1.010365e+01
3.591515e+01	-1.014969e+01
3.612259e+01	-1.019429e+01
3.633123e+01	-1.023960e+01
3.654108e+01	-1.028492e+01
3.675214e+01	-1.033000e+01
3.696442e+01	-1.037576e+01
3.717792e+01	-1.042134e+01
3.739266e+01	-1.046711e+01
3.760864e+01	-1.051187e+01
3.782587e+01	-1.055812e+01
3.804435e+01	-1.060342e+01
3.826409e+01	-1.064948e+01
3.848510e+01	-1.069492e+01
3.870739e+01	-1.074110e+01
3.893096e+01	-1.078682e+01
3.915583e+01	-1.083309e+01
3.938199e+01	-1.087865e+01
3.960946e+01	-1.092471e+01
3.983824e+01	-1.097046e+01
4.006834e+01	-1.101635e+01
4.029978e+01	-1.106252e+01
4.053255e+01	-1.110934e+01
4.076666e+01	-1.115446e+01
4.100213e+01	-1.120104e+01
4.123896e+01	-1.124756e+01
4.147715e+01	-1.129369e+01
4.171672e+01	-1.133987e+01
4.195767e+01	-1.138587e+01
4.220002e+01	-1.143226e+01
4.244377e+01	-1.147912e+01
4.268892e+01	-1.152587e+01
4.293549e+01	-1.157186e+01
4.318348e+01	-1.161840e+01
4.343291e+01	-1.166587e+01
4.368377e+01	-1.171231e+01
4.393609e+01	-1.175847e+01
4.418986e+01	-1.180519e+01
4.444510e+01	-1.185170e+01
4.470182e+01	-1.189890e+01
4.496001e+01	-1.194536e+01
4.521970e+01	-1.199220e+01
4.548089e+01	-1.203905e+01
4.574358e+01	-1.208627e+01
4.600779e+01	-1.213317e+01
4.627353e+01	-1.218023e+01
4.654081e+01	-1.222756e+01
4.680963e+01	-1.227464e+01
4.708000e+01	-1.232183e+01
4.735193e+01	-1.236851e+01
4.762543e+01	-1.241620e+01
4.790051e+01	-1.246284e+01
4.817719e+01	-1.250966e+01
4.845545e+01	-1.255775e+01
4.873533e+01	-1.260368e+01
4.901682e+01	-1.265198e+01
4.929994e+01	-1.269893e+01
4.958470e+01	-1.274607e+01
4.987110e+01	-1.279466e+01
5.015915e+01	-1.284144e+01
5.044887e+01	-1.288898e+01
5.074026e+01	-1.293624e+01
5.103333e+01	-1.298392e+01
5.132810e+01	-1.303120e+01
5.162457e+01	-1.307927e+01
5.192275e+01	-1.312615e+01
5.222265e+01	-1.317398e+01
5.252429e+01	-1.322072e+01
5.282767e+01	-1.326934e+01
5.313280e+01	-1.331696e+01
5.343969e+01	-1.336507e+01
5.374836e+01	-1.341294e+01
5.405880e+01	-1.345946e+01
5.437105e+01	-1.350835e+01
5.468509e+01	-1.355619e+01
5.500095e+01	-1.360383e+01
5.531863e+01	-1.365273e+01
5.563815e+01	-1.369936e+01
5.595951e+01	-1.374684e+01
5.628273e+01	-1.379522e+01
5.660782e+01	-1.384270e+01
5.693479e+01	-1.389101e+01
5.726364e+01	-1.393903e+01
5.759439e+01	-1.398722e+01
5.792705e+01	-1.403524e+01
5.826164e+01	-1.408269e+01
5.859815e+01	-1.413094e+01
5.893662e+01	-1.417901e+01
5.927703e+01	-1.422777e+01
5.961941e+01	-1.427608e+01
5.996377e+01	-1.432439e+01
6.031012e+01	-1.437147e+01
6.065847e+01	-1.442000e+01
6.100883e+01	-1.446864e+01
6.136121e+01	-1.451667e+01
6.171563e+01	-1.456486e+01
6.207210e+01	-1.461324e+01
6.243063e+01	-1.466156e+01
6.279122e+01	-1.470994e+01
6.315390e+01	-1.475834e+01
6.351868e+01	-1.480642e+01
6.388556e+01	-1.485474e+01
6.425456e+01	-1.490403e+01
6.462569e+01	-1.495269e+01
6.499897e+01	-1.499915e+01
6.537440e+01	-1.504973e+01
6.575200e+01	-1.509811e+01
6.613178e+01	-1.514557e+01
6.651375e+01	-1.519408e+01
6.689793e+01	-1.524325e+01
6.728433e+01	-1.529172e+01
6.767297e+01	-1.534053e+01
6.806384e+01	-1.538841e+01
6.845698e+01	-1.543766e+01
6.885238e+01	-1.548592e+01
6.925007e+01	-1.553389e+01
6.965005e+01	-1.558230e+01
7.005235e+01	-1.563106e+01
7.045697e+01	-1.568041e+01
7.086393e+01	-1.572911e+01
7.127323e+01	-1.577726e+01
7.168490e+01	-1.582614e+01
7.209895e+01	-1.587458e+01
7.251539e+01	-1.592429e+01
7.293424e+01	-1.597215e+01
7.335551e+01	-1.602167e+01
7.377920e+01	-1.607110e+01
7.420535e+01	-1.611953e+01
7.463396e+01	-1.616711e+01
7.506504e+01	-1.621675e+01
7.549861e+01	-1.626554e+01
7.593469e+01	-1.631446e+01
7.637328e+01	-1.636162e+01
7.681441e+01	-1.641158e+01
7.725809e+01	-1.646157e+01
7.770433e+01	-1.650920e+01
7.815315e+01	-1.656006e+01
7.860456e+01	-1.660755e+01
7.905857e+01	-1.665655e+01
7.951521e+01	-1.670580e+01
7.997449e+01	-1.675434e+01
8.043642e+01	-1.680421e+01
8.090102e+01	-1.685251e+01
8.136830e+01	-1.690202e+01
8.183828e+01	-1.694952e+01
8.231097e+01	-1.699894e+01
8.278640e+01	-1.704820e+01
8.326457e+01	-1.709662e+01
8.374550e+01	-1.714746e+01
8.422921e+01	-1.719545e+01
8.471572e+01	-1.724596e+01
8.520503e+01	-1.729328e+01
8.569717e+01	-1.734243e+01
8.619215e+01	-1.739128e+01
8.669000e+01	-1.744096e+01
8.719071e+01	-1.748958e+01
8.769432e+01	-1.753972e+01
8.820084e+01	-1.758832e+01
8.871029e+01	-1.763849e+01
8.922267e+01	-1.768664e+01
8.973802e+01	-1.773640e+01
9.025634e+01	-1.778557e+01
9.077766e+01	-1.783500e+01
9.130199e+01	-1.788410e+01
9.182935e+01	-1.793225e+01
9.235975e+01	-1.798234e+01
9.289321e+01	-1.802938e+01
9.342976e+01	-1.808014e+01
9.396941e+01	-1.813049e+01
9.451217e+01	-1.818010e+01
9.505807e+01	-1.822935e+01
9.560712e+01	-1.827738e+01
9.615934e+01	-1.832833e+01
9.671476e+01	-1.837547e+01
9.727338e+01	-1.842665e+01
9.783522e+01	-1.847508e+01
9.840032e+01	-1.852467e+01
9.896867e+01	-1.857345e+01
9.954031e+01	-1.862197e+01
1.001153e+02	-1.867121e+01
1.006935e+02	-1.872311e+01
1.012751e+02	-1.877177e+01
1.018601e+02	-1.882065e+01
1.024484e+02	-1.886899e+01
1.030402e+02	-1.891830e+01
1.036353e+02	-1.896893e+01
1.042339e+02	-1.901801e+01
1.048360e+02	-1.906647e+01
1.054415e+02	-1.911754e+01
1.060505e+02	-1.916595e+01
1.066631e+02	-1.921557e+01
1.072791e+02	-1.926493e+01
1.078988e+02	-1.931441e+01
1.085220e+02	-1.936311e+01
1.091488e+02	-1.941360e+01
1.097793e+02	-1.946265e+01
1.104133e+02	-1.951321e+01
1.110511e+02	-1.956247e+01
1.116925e+02	-1.961039e+01
1.123376e+02	-1.966001e+01
1.129865e+02	-1.970992e+01
1.136391e+02	-1.976009e+01
1.142955e+02	-1.980869e+01
1.149556e+02	-1.985842e+01
1.156196e+02	-1.990929e+01
1.162874e+02	-1.995767e+01
1.169591e+02	-2.000642e+01
1.176347e+02	-2.005602e+01
1.183141e+02	-2.010632e+01
1.189975e+02	-2.015530e+01
1.196848e+02	-2.020620e+01
1.203761e+02	-2.025557e+01
1.210714e+02	-2.030477e+01
1.217707e+02	-2.035481e+01
1.224740e+02	-2.040385e+01
1.231814e+02	-2.045493e+01
1.238929e+02	-2.050245e+01
1.246085e+02	-2.055278e+01
1.253283e+02	-2.060462e+01
1.260522e+02	-2.065213e+01
1.267802e+02	-2.070150e+01
1.275125e+02	-2.075062e+01
1.282490e+02	-2.079948e+01
1.289898e+02	-2.084923e+01
1.297348e+02	-2.089904e+01
1.304842e+02	-2.094847e+01
1.312378e+02	-2.100076e+01
1.319959e+02	-2.104841e+01
1.327583e+02	-2.109931e+01
1.335251e+02	-2.114886e+01
1.342963e+02	-2.119643e+01
1.350720e+02	-2.124828e+01
1.358522e+02	-2.129666e+01
1.366368e+02	-2.134742e+01
1.374260e+02	-2.139720e+01
1.382198e+02	-2.144534e+01
1.390182e+02	-2.149657e+01
1.398211e+02	-2.154490e+01
1.406287e+02	-2.159704e+01
1.414410e+02	-2.164399e+01
1.422579e+02	-2.169636e+01
1.430796e+02	-2.174397e+01
1.439060e+02	-2.179239e+01
1.447372e+02	-2.184369e+01
1.455732e+02	-2.189415e+01
1.464141e+02	-2.194454e+01
1.472597e+02	-2.199391e+01
1.481103e+02	-2.204237e+01
1.489658e+02	-2.209192e+01
1.498262e+02	-2.214181e+01
1.506916e+02	-2.219270e+01
1.515620e+02	-2.224082e+01
1.524374e+02	-2.229030e+01
1.533179e+02	-2.234106e+01
1.542034e+02	-2.238980e+01
1.550941e+02	-2.244007e+01
1.559899e+02	-2.249074e+01
1.568909e+02	-2.254099e+01
1.577971e+02	-2.259081e+01
1.587085e+02	-2.263767e+01
1.596252e+02	-2.268989e+01
1.605472e+02	-2.273890e+01
1.614745e+02	-2.279013e+01
1.624072e+02	-2.283695e+01
1.633453e+02	-2.288805e+01
1.642887e+02	-2.293847e+01
1.652377e+02	-2.299003e+01
1.661921e+02	-2.303914e+01
1.671520e+02	-2.308878e+01
1.681175e+02	-2.313689e+01
1.690885e+02	-2.318742e+01
1.700651e+02	-2.323483e+01
1.710474e+02	-2.328587e+01
1.720354e+02	-2.333901e+01
1.730291e+02	-2.338520e+01
1.740285e+02	-2.343619e+01
1.750337e+02	-2.348600e+01
1.760446e+02	-2.353702e+01
1.770615e+02	-2.358733e+01
1.780842e+02	-2.363524e+01
1.791128e+02	-2.368293e+01
1.801473e+02	-2.373613e+01
1.811878e+02	-2.378581e+01
1.822344e+02	-2.383397e+01
1.832870e+02	-2.388758e+01
1.843456e+02	-2.393571e+01
1.854104e+02	-2.398613e+01
1.864813e+02	-2.403266e+01
1.875584e+02	-2.408395e+01
1.886418e+02	-2.413444e+01
1.897313e+02	-2.418474e+01
1.908272e+02	-2.423536e+01
1.919294e+02	-2.428287e+01
1.930380e+02	-2.433444e+01
1.941530e+02	-2.438345e+01
1.952744e+02	-2.443559e+01
1.964023e+02	-2.448289e+01
1.975367e+02	-2.453052e+01
1.986777e+02	-2.458372e+01
1.998252e+02	-2.463426e+01
2.009794e+02	-2.468112e+01
2.021403e+02	-2.473262e+01
2.033078e+02	-2.478550e+01
2.044821e+02	-2.483456e+01
2.056632e+02	-2.488324e+01
2.068511e+02	-2.493340e+01
2.080459e+02	-2.498230e+01
2.092475e+02	-2.503523e+01
2.104561e+02	-2.508075e+01
2.116717e+02	-2.513166e+01
2.128943e+02	-2.518427e+01
2.141240e+02	-2.523028e+01
2.153608e+02	-2.528044e+01
2.166047e+02	-2.533542e+01
2.178558e+02	-2.538168e+01
2.191141e+02	-2.543172e+01
2.203797e+02	-2.548305e+01
2.216526e+02	-2.553149e+01
2.229329e+02	-2.558088e+01
2.242205e+02	-2.563143e+01
2.255156e+02	-2.567983e+01
2.268182e+02	-2.573058e+01
2.281283e+02	-2.578216e+01
2.294459e+02	-2.583096e+01
2.307712e+02	-2.587762e+01
2.321041e+02	-2.592858e+01
2.334447e+02	-2.598197e+01
2.347931e+02	-2.603459e+01
2.361493e+02	-2.607884e+01
2.375133e+02	-2.613443e+01
2.388851e+02	-2.618073e+01
2.402649e+02	-2.623003e+01
2.416527e+02	-2.627987e+01
2.430484e+02	-2.632884e+01
2.444523e+02	-2.638139e+01
2.458642e+02	-2.642877e+01
2.472843e+02	-2.647843e+01
2.487126e+02	-2.652872e+01
2.501492e+02	-2.658115e+01
2.515940e+02	-2.663028e+01
2.530472e+02	-2.668269e+01
2.545088e+02	-2.673126e+01
2.559789e+02	-2.678380e+01
2.574574e+02	-2.683111e+01
2.589444e+02	-2.688182e+01
2.604401e+02	-2.692851e+01
2.619444e+02	-2.698077e+01
2.634574e+02	-2.703051e+01
2.649791e+02	-2.707905e+01
2.665096e+02	-2.713061e+01
2.680489e+02	-2.717853e+01
2.695972e+02	-2.722965e+01
2.711544e+02	-2.727866e+01
2.727205e+02	-2.732777e+01
2.742958e+02	-2.737728e+01
2.758801e+02	-2.743020e+01
2.774736e+02	-2.748066e+01
2.790762e+02	-2.752918e+01
2.806882e+02	-2.758031e+01
2.823094e+02	-2.763165e+01
2.839400e+02	-2.768092e+01
2.855800e+02	-2.772900e+01
2.872295e+02	-2.778016e+01
2.888886e+02	-2.783036e+01
2.905572e+02	-2.787880e+01
2.922354e+02	-2.793236e+01
2.939234e+02	-2.797977e+01
2.956211e+02	-2.802876e+01
2.973286e+02	-2.808209e+01
2.990459e+02	-2.813052e+01
3.007732e+02	-2.817450e+01
3.025104e+02	-2.822991e+01
3.042577e+02	-2.828090e+01
3.060151e+02	-2.832561e+01
3.077826e+02	-2.838143e+01
3.095604e+02	-2.842805e+01
3.113484e+02	-2.847874e+01
3.131467e+02	-2.853148e+01
3.149554e+02	-2.858053e+01
3.167746e+02	-2.863126e+01
3.186043e+02	-2.868545e+01
3.204445e+02	-2.873820e+01
3.222954e+02	-2.878114e+01
3.241570e+02	-2.882861e+01
3.260293e+02	-2.888338e+01
3.279124e+02	-2.893348e+01
3.298064e+02	-2.898322e+01
3.317114e+02	-2.903272e+01
3.336273e+02	-2.907952e+01
3.355544e+02	-2.912949e+01
3.374925e+02	-2.918247e+01
3.394418e+02	-2.922898e+01
3.414024e+02	-2.927748e+01
3.433744e+02	-2.933430e+01
3.453577e+02	-2.938208e+01
3.473525e+02	-2.943103e+01
3.493588e+02	-2.948101e+01
3.513766e+02	-2.952803e+01
3.534062e+02	-2.957917e+01
3.554474e+02	-2.962816e+01
3.575005e+02	-2.968362e+01
3.595654e+02	-2.973381e+01
3.616422e+02	-2.977893e+01
3.637311e+02	-2.983052e+01
3.658320e+02	-2.987689e+01
3.679450e+02	-2.993169e+01
3.700702e+02	-2.998188e+01
3.722077e+02	-3.003449e+01
3.743576e+02	-3.008286e+01
3.765199e+02	-3.013064e+01
3.786946e+02	-3.018745e+01
3.808820e+02	-3.023165e+01
3.830819e+02	-3.027854e+01
3.852946e+02	-3.032377e+01
3.875200e+02	-3.039178e+01
3.897583e+02	-3.043739e+01
3.920096e+02	-3.048277e+01
3.942738e+02	-3.053726e+01
3.965511e+02	-3.057946e+01
3.988416e+02	-3.063498e+01
4.011452e+02	-3.068404e+01
4.034622e+02	-3.073354e+01
4.057926e+02	-3.078850e+01
4.081365e+02	-3.083636e+01
4.104938e+02	-3.088240e+01
4.128648e+02	-3.093377e+01
4.152495e+02	-3.098980e+01
4.176480e+02	-3.103881e+01
4.200603e+02	-3.108147e+01
4.224866e+02	-3.114073e+01
4.249268e+02	-3.118916e+01
4.273812e+02	-3.123150e+01
4.298497e+02	-3.129113e+01
4.323325e+02	-3.133930e+01
4.348297e+02	-3.138286e+01
4.373412e+02	-3.143582e+01
4.398673e+02	-3.149121e+01
4.424079e+02	-3.153656e+01
4.449633e+02	-3.159129e+01
4.475334e+02	-3.164080e+01
4.501183e+02	-3.168497e+01
4.527182e+02	-3.174403e+01
4.553330e+02	-3.179107e+01
4.579630e+02	-3.183446e+01
4.606082e+02	-3.188867e+01
4.632687e+02	-3.193895e+01
4.659445e+02	-3.198996e+01
4.686358e+02	-3.204329e+01
4.713426e+02	-3.208485e+01
4.740650e+02	-3.213734e+01
4.768032e+02	-3.218255e+01
4.795572e+02	-3.224100e+01
4.823271e+02	-3.228627e+01
4.851130e+02	-3.233913e+01
4.879150e+02	-3.239158e+01
4.907332e+02	-3.243714e+01
4.935676e+02	-3.248935e+01
4.964185e+02	-3.254099e+01
4.992858e+02	-3.258833e+01
5.021696e+02	-3.263880e+01
5.050701e+02	-3.268203e+01
5.079874e+02	-3.274462e+01
5.109215e+02	-3.279085e+01
5.138726e+02	-3.284202e+01
5.168407e+02	-3.289215e+01
5.198259e+02	-3.293585e+01
5.228284e+02	-3.300021e+01
5.258482e+02	-3.303917e+01
5.288855e+02	-3.308456e+01
5.319403e+02	-3.314461e+01
5.350128e+02	-3.319190e+01
5.381030e+02	-3.324395e+01
5.412111e+02	-3.329077e+01
5.443371e+02	-3.334066e+01
5.474812e+02	-3.339780e+01
5.506434e+02	-3.344785e+01
5.538239e+02	-3.348770e+01
5.570228e+02	-3.354916e+01
5.602401e+02	-3.359231e+01
5.634760e+02	-3.364044e+01
5.667306e+02	-3.369512e+01
5.700040e+02	-3.374297e+01
5.732964e+02	-3.378748e+01
5.766077e+02	-3.384405e+01
5.799382e+02	-3.389275e+01
5.832879e+02	-3.394509e+01
5.866569e+02	-3.400078e+01
5.900454e+02	-3.404840e+01
5.934535e+02	-3.409804e+01
5.968813e+02	-3.414029e+01
6.003288e+02	-3.420821e+01
6.037963e+02	-3.425065e+01
6.072838e+02	-3.429537e+01
6.107914e+02	-3.433831e+01
6.143194e+02	-3.439617e+01
6.178676e+02	-3.445360e+01
6.214364e+02	-3.449601e+01
6.250258e+02	-3.455070e+01
6.286359e+02	-3.460797e+01
6.322669e+02	-3.465655e+01
6.359189e+02	-3.470429e+01
6.395919e+02	-3.474570e+01
6.432862e+02	-3.479570e+01
6.470017e+02	-3.485396e+01
6.507388e+02	-3.489665e+01
6.544974e+02	-3.495430e+01
6.582778e+02	-3.500446e+01
6.620800e+02	-3.505948e+01
6.659041e+02	-3.509784e+01
6.697504e+02	-3.515117e+01
6.736188e+02	-3.520785e+01
6.775096e+02	-3.525118e+01
6.814229e+02	-3.529232e+01
6.853587e+02	-3.536035e+01
6.893173e+02	-3.540163e+01
6.932988e+02	-3.545824e+01
6.973033e+02	-3.550282e+01
7.013309e+02	-3.556441e+01
