Frequency(Hz)	Magnitude(dB)
1.000000e+01	-2.003477e-05
1.005776e+01	-2.026688e-05
1.011585e+01	-2.050167e-05
1.017428e+01	-2.073919e-05
1.023305e+01	-2.097946e-05
1.029215e+01	-2.122251e-05
1.035160e+01	-2.146838e-05
1.041139e+01	-2.171709e-05
1.047153e+01	-2.196869e-05
1.053201e+01	-2.222321e-05
1.059284e+01	-2.248067e-05
1.065403e+01	-2.274111e-05
1.071556e+01	-2.300457e-05
1.077746e+01	-2.327109e-05
1.083971e+01	-2.354069e-05
1.090232e+01	-2.381341e-05
1.096529e+01	-2.408930e-05
1.102862e+01	-2.436838e-05
1.109232e+01	-2.465069e-05
1.115639e+01	-2.493628e-05
1.122083e+01	-2.522517e-05
1.128564e+01	-2.551741e-05
1.135083e+01	-2.581303e-05
1.141639e+01	-2.611208e-05
1.148233e+01	-2.641460e-05
1.154865e+01	-2.672062e-05
1.161536e+01	-2.703018e-05
1.168245e+01	-2.734333e-05
1.174992e+01	-2.766011e-05
1.181779e+01	-2.798056e-05
1.188605e+01	-2.830472e-05
1.195470e+01	-2.863264e-05
1.202375e+01	-2.896436e-05
1.209320e+01	-2.929992e-05
1.216305e+01	-2.963936e-05
1.223330e+01	-2.998274e-05
1.230396e+01	-3.033010e-05
1.237503e+01	-3.068148e-05
1.244651e+01	-3.103693e-05
1.251840e+01	-3.139650e-05
1.259070e+01	-3.176024e-05
1.266343e+01	-3.212819e-05
1.273657e+01	-3.250040e-05
1.281014e+01	-3.287693e-05
1.288413e+01	-3.325781e-05
1.295855e+01	-3.364311e-05
1.303339e+01	-3.403288e-05
1.310867e+01	-3.442716e-05
1.318439e+01	-3.482600e-05
1.326054e+01	-3.522947e-05
1.333713e+01	-3.563761e-05
1.341417e+01	-3.605048e-05
1.349165e+01	-3.646813e-05
1.356958e+01	-3.689063e-05
1.364795e+01	-3.731801e-05
1.372678e+01	-3.775035e-05
1.380607e+01	-3.818770e-05
1.388581e+01	-3.863011e-05
1.396602e+01	-3.907765e-05
1.404668e+01	-3.953037e-05
1.412782e+01	-3.998834e-05
1.420942e+01	-4.045161e-05
1.429149e+01	-4.092026e-05
1.437404e+01	-4.139433e-05
1.445706e+01	-4.187389e-05
1.454057e+01	-4.235901e-05
1.462455e+01	-4.284974e-05
1.470902e+01	-4.334617e-05
1.479398e+01	-4.384834e-05
1.487943e+01	-4.435634e-05
1.496537e+01	-4.487021e-05
1.505181e+01	-4.539005e-05
1.513875e+01	-4.591590e-05
1.522619e+01	-4.644784e-05
1.531414e+01	-4.698595e-05
1.540259e+01	-4.753030e-05
1.549156e+01	-4.808094e-05
1.558103e+01	-4.863797e-05
1.567103e+01	-4.920145e-05
1.576155e+01	-4.977146e-05
1.585258e+01	-5.034808e-05
1.594415e+01	-5.093137e-05
1.603624e+01	-5.152142e-05
1.612886e+01	-5.211831e-05
1.622202e+01	-5.272211e-05
1.631572e+01	-5.333290e-05
1.640996e+01	-5.395078e-05
1.650474e+01	-5.457581e-05
1.660008e+01	-5.520808e-05
1.669596e+01	-5.584768e-05
1.679239e+01	-5.649468e-05
1.688938e+01	-5.714919e-05
1.698694e+01	-5.781127e-05
1.708505e+01	-5.848103e-05
1.718373e+01	-5.915854e-05
1.728299e+01	-5.984390e-05
1.738281e+01	-6.053721e-05
1.748322e+01	-6.123854e-05
1.758420e+01	-6.194800e-05
1.768576e+01	-6.266568e-05
1.778792e+01	-6.339168e-05
1.789066e+01	-6.412608e-05
1.799399e+01	-6.486900e-05
1.809793e+01	-6.562052e-05
1.820246e+01	-6.638074e-05
1.830760e+01	-6.714978e-05
1.841334e+01	-6.792772e-05
1.851969e+01	-6.871467e-05
1.862666e+01	-6.951075e-05
1.873425e+01	-7.031604e-05
1.884246e+01	-7.113067e-05
1.895129e+01	-7.195473e-05
1.906075e+01	-7.278834e-05
1.917085e+01	-7.363160e-05
1.928158e+01	-7.448464e-05
1.939295e+01	-7.534756e-05
1.950496e+01	-7.622047e-05
1.961762e+01	-7.710350e-05
1.973093e+01	-7.799676e-05
1.984490e+01	-7.890036e-05
1.995952e+01	-7.981444e-05
2.007480e+01	-8.073910e-05
2.019076e+01	-8.167448e-05
2.030738e+01	-8.262069e-05
2.042467e+01	-8.357786e-05
2.054264e+01	-8.454613e-05
2.066130e+01	-8.552561e-05
2.078064e+01	-8.651644e-05
2.090066e+01	-8.751874e-05
2.102139e+01	-8.853266e-05
2.114280e+01	-8.955833e-05
2.126492e+01	-9.059587e-05
2.138775e+01	-9.164544e-05
2.151128e+01	-9.270717e-05
2.163553e+01	-9.378120e-05
2.176050e+01	-9.486766e-05
2.188619e+01	-9.596672e-05
2.201260e+01	-9.707851e-05
2.213974e+01	-9.820318e-05
2.226762e+01	-9.934088e-05
2.239624e+01	-1.004918e-04
2.252560e+01	-1.016560e-04
2.265571e+01	-1.028337e-04
2.278656e+01	-1.040250e-04
2.291818e+01	-1.052302e-04
2.305055e+01	-1.064493e-04
2.318369e+01	-1.076825e-04
2.331760e+01	-1.089300e-04
2.345228e+01	-1.101920e-04
2.358774e+01	-1.114686e-04
2.372398e+01	-1.127599e-04
2.386101e+01	-1.140663e-04
2.399883e+01	-1.153877e-04
2.413745e+01	-1.167245e-04
2.427686e+01	-1.180768e-04
2.441709e+01	-1.194447e-04
2.455812e+01	-1.208285e-04
2.469997e+01	-1.222283e-04
2.484263e+01	-1.236444e-04
2.498612e+01	-1.250768e-04
2.513044e+01	-1.265258e-04
2.527559e+01	-1.279916e-04
2.542158e+01	-1.294744e-04
2.556842e+01	-1.309744e-04
2.571610e+01	-1.324918e-04
2.586463e+01	-1.340267e-04
2.601403e+01	-1.355794e-04
2.616428e+01	-1.371501e-04
2.631541e+01	-1.387390e-04
2.646740e+01	-1.403463e-04
2.662028e+01	-1.419722e-04
2.677404e+01	-1.436170e-04
2.692868e+01	-1.452808e-04
2.708422e+01	-1.469639e-04
2.724066e+01	-1.486665e-04
2.739800e+01	-1.503888e-04
2.755625e+01	-1.521311e-04
2.771541e+01	-1.538935e-04
2.787550e+01	-1.556764e-04
2.803650e+01	-1.574799e-04
2.819844e+01	-1.593043e-04
2.836131e+01	-1.611499e-04
2.852513e+01	-1.630168e-04
2.868989e+01	-1.649054e-04
2.885560e+01	-1.668158e-04
2.902227e+01	-1.687484e-04
2.918990e+01	-1.707033e-04
2.935850e+01	-1.726809e-04
2.952807e+01	-1.746814e-04
2.969863e+01	-1.767051e-04
2.987016e+01	-1.787523e-04
3.004269e+01	-1.808231e-04
3.021622e+01	-1.829180e-04
3.039075e+01	-1.850371e-04
3.056628e+01	-1.871807e-04
3.074283e+01	-1.893492e-04
3.092040e+01	-1.915428e-04
3.109900e+01	-1.937619e-04
3.127862e+01	-1.960066e-04
3.145929e+01	-1.982773e-04
3.164099e+01	-2.005744e-04
3.182375e+01	-2.028980e-04
3.200756e+01	-2.052486e-04
3.219244e+01	-2.076264e-04
3.237838e+01	-2.100318e-04
3.256540e+01	-2.124650e-04
3.275349e+01	-2.149264e-04
3.294268e+01	-2.174163e-04
3.313295e+01	-2.199351e-04
3.332433e+01	-2.224830e-04
3.351681e+01	-2.250605e-04
3.371040e+01	-2.276678e-04
3.390511e+01	-2.303053e-04
3.410094e+01	-2.329734e-04
3.429791e+01	-2.356724e-04
3.449601e+01	-2.384027e-04
3.469526e+01	-2.411645e-04
3.489566e+01	-2.439584e-04
3.509721e+01	-2.467847e-04
3.529993e+01	-2.496437e-04
3.550382e+01	-2.525358e-04
3.570889e+01	-2.554614e-04
3.591515e+01	-2.584209e-04
3.612259e+01	-2.614147e-04
3.633123e+01	-2.644431e-04
3.654108e+01	-2.675067e-04
3.675214e+01	-2.706057e-04
3.696442e+01	-2.737407e-04
3.717792e+01	-2.769119e-04
3.739266e+01	-2.801199e-04
3.760864e+01	-2.833651e-04
3.782587e+01	-2.866479e-04
3.804435e+01	-2.899686e-04
3.826409e+01	-2.933279e-04
3.848510e+01	-2.967261e-04
3.870739e+01	-3.001636e-04
3.893096e+01	-3.036410e-04
3.915583e+01	-3.071586e-04
3.938199e+01	-3.107170e-04
3.960946e+01	-3.143166e-04
3.983824e+01	-3.179579e-04
4.006834e+01	-3.216414e-04
4.029978e+01	-3.253676e-04
4.053255e+01	-3.291369e-04
4.076666e+01	-3.329499e-04
4.100213e+01	-3.368071e-04
4.123896e+01	-3.407089e-04
4.147715e+01	-3.446560e-04
4.171672e+01	-3.486487e-04
4.195767e+01	-3.526878e-04
4.220002e+01	-3.567736e-04
4.244377e+01	-3.609067e-04
4.268892e+01	-3.650878e-04
4.293549e+01	-3.693172e-04
4.318348e+01	-3.735957e-04
4.343291e+01	-3.779237e-04
4.368377e+01	-3.823019e-04
4.393609e+01	-3.867307e-04
4.418986e+01	-3.912109e-04
4.444510e+01	-3.957430e-04
4.470182e+01	-4.003276e-04
4.496001e+01	-4.049653e-04
4.521970e+01	-4.096567e-04
4.548089e+01	-4.144024e-04
4.574358e+01	-4.192032e-04
4.600779e+01	-4.240595e-04
4.627353e+01	-4.289721e-04
4.654081e+01	-4.339416e-04
4.680963e+01	-4.389687e-04
4.708000e+01	-4.440540e-04
4.735193e+01	-4.491983e-04
4.762543e+01	-4.544021e-04
4.790051e+01	-4.596662e-04
4.817719e+01	-4.649912e-04
4.845545e+01	-4.703780e-04
4.873533e+01	-4.758272e-04
4.901682e+01	-4.813395e-04
4.929994e+01	-4.869156e-04
4.958470e+01	-4.925563e-04
4.987110e+01	-4.982624e-04
5.015915e+01	-5.040346e-04
5.044887e+01	-5.098736e-04
5.074026e+01	-5.157803e-04
5.103333e+01	-5.217554e-04
5.132810e+01	-5.277997e-04
5.162457e+01	-5.339140e-04
5.192275e+01	-5.400992e-04
5.222265e+01	-5.463560e-04
5.252429e+01	-5.526853e-04
5.282767e+01	-5.590879e-04
5.313280e+01	-5.655646e-04
5.343969e+01	-5.721164e-04
5.374836e+01	-5.787441e-04
5.405880e+01	-5.854486e-04
5.437105e+01	-5.922307e-04
5.468509e+01	-5.990914e-04
5.500095e+01	-6.060315e-04
5.531863e+01	-6.130521e-04
5.563815e+01	-6.201539e-04
5.595951e+01	-6.273381e-04
5.628273e+01	-6.346054e-04
5.660782e+01	-6.419570e-04
5.693479e+01	-6.493937e-04
5.726364e+01	-6.569165e-04
5.759439e+01	-6.645265e-04
5.792705e+01	-6.722246e-04
5.826164e+01	-6.800119e-04
5.859815e+01	-6.878894e-04
5.893662e+01	-6.958581e-04
5.927703e+01	-7.039192e-04
5.961941e+01	-7.120736e-04
5.996377e+01	-7.203225e-04
6.031012e+01	-7.286669e-04
6.065847e+01	-7.371080e-04
6.100883e+01	-7.456469e-04
6.136121e+01	-7.542847e-04
6.171563e+01	-7.630225e-04
6.207210e+01	-7.718615e-04
6.243063e+01	-7.808030e-04
6.279122e+01	-7.898480e-04
6.315390e+01	-7.989977e-04
6.351868e+01	-8.082535e-04
6.388556e+01	-8.176164e-04
6.425456e+01	-8.270878e-04
6.462569e+01	-8.366690e-04
6.499897e+01	-8.463611e-04
6.537440e+01	-8.561654e-04
6.575200e+01	-8.660833e-04
6.613178e+01	-8.761161e-04
6.651375e+01	-8.862651e-04
6.689793e+01	-8.965317e-04
6.728433e+01	-9.069172e-04
6.767297e+01	-9.174230e-04
6.806384e+01	-9.280504e-04
6.845698e+01	-9.388010e-04
6.885238e+01	-9.496761e-04
6.925007e+01	-9.606771e-04
6.965005e+01	-9.718056e-04
7.005235e+01	-9.830629e-04
7.045697e+01	-9.944507e-04
7.086393e+01	-1.005970e-03
7.127323e+01	-1.017623e-03
7.168490e+01	-1.029411e-03
7.209895e+01	-1.041336e-03
7.251539e+01	-1.053399e-03
7.293424e+01	-1.065601e-03
7.335551e+01	-1.077945e-03
7.377920e+01	-1.090432e-03
7.420535e+01	-1.103063e-03
7.463396e+01	-1.115841e-03
7.506504e+01	-1.128766e-03
7.549861e+01	-1.141842e-03
7.593469e+01	-1.155068e-03
7.637328e+01	-1.168448e-03
7.681441e+01	-1.181983e-03
7.725809e+01	-1.195675e-03
7.770433e+01	-1.209525e-03
7.815315e+01	-1.223536e-03
7.860456e+01	-1.237709e-03
7.905857e+01	-1.252046e-03
7.951521e+01	-1.266549e-03
7.997449e+01	-1.281220e-03
8.043642e+01	-1.296062e-03
8.090102e+01	-1.311074e-03
8.136830e+01	-1.326261e-03
8.183828e+01	-1.341624e-03
8.231097e+01	-1.357165e-03
8.278640e+01	-1.372885e-03
8.326457e+01	-1.388788e-03
8.374550e+01	-1.404875e-03
8.422921e+01	-1.421148e-03
8.471572e+01	-1.437610e-03
8.520503e+01	-1.454262e-03
8.569717e+01	-1.471107e-03
8.619215e+01	-1.488147e-03
8.669000e+01	-1.505385e-03
8.719071e+01	-1.522822e-03
8.769432e+01	-1.540461e-03
8.820084e+01	-1.558305e-03
8.871029e+01	-1.576355e-03
8.922267e+01	-1.594614e-03
8.973802e+01	-1.613085e-03
9.025634e+01	-1.631769e-03
9.077766e+01	-1.650670e-03
9.130199e+01	-1.669790e-03
9.182935e+01	-1.689131e-03
9.235975e+01	-1.708696e-03
9.289321e+01	-1.728488e-03
9.342976e+01	-1.748509e-03
9.396941e+01	-1.768762e-03
9.451217e+01	-1.789249e-03
9.505807e+01	-1.809974e-03
9.560712e+01	-1.830939e-03
9.615934e+01	-1.852146e-03
9.671476e+01	-1.873599e-03
9.727338e+01	-1.895300e-03
9.783522e+01	-1.917253e-03
9.840032e+01	-1.939460e-03
9.896867e+01	-1.961924e-03
9.954031e+01	-1.984648e-03
1.001153e+02	-2.007636e-03
1.006935e+02	-2.030889e-03
1.012751e+02	-2.054412e-03
1.018601e+02	-2.078207e-03
1.024484e+02	-2.102278e-03
1.030402e+02	-2.126627e-03
1.036353e+02	-2.151259e-03
1.042339e+02	-2.176176e-03
1.048360e+02	-2.201381e-03
1.054415e+02	-2.226878e-03
1.060505e+02	-2.252670e-03
1.066631e+02	-2.278761e-03
1.072791e+02	-2.305154e-03
1.078988e+02	-2.331853e-03
1.085220e+02	-2.358860e-03
1.091488e+02	-2.386181e-03
1.097793e+02	-2.413818e-03
1.104133e+02	-2.441775e-03
1.110511e+02	-2.470055e-03
1.116925e+02	-2.498663e-03
1.123376e+02	-2.527602e-03
1.129865e+02	-2.556877e-03
1.136391e+02	-2.586490e-03
1.142955e+02	-2.616446e-03
1.149556e+02	-2.646749e-03
1.156196e+02	-2.677403e-03
1.162874e+02	-2.708412e-03
1.169591e+02	-2.739780e-03
1.176347e+02	-2.771510e-03
1.183141e+02	-2.803609e-03
1.189975e+02	-2.836079e-03
1.196848e+02	-2.868925e-03
1.203761e+02	-2.902151e-03
1.210714e+02	-2.935761e-03
1.217707e+02	-2.969761e-03
1.224740e+02	-3.004155e-03
1.231814e+02	-3.038947e-03
1.238929e+02	-3.074141e-03
1.246085e+02	-3.109743e-03
1.253283e+02	-3.145757e-03
1.260522e+02	-3.182188e-03
1.267802e+02	-3.219041e-03
1.275125e+02	-3.256321e-03
1.282490e+02	-3.294032e-03
1.289898e+02	-3.332179e-03
1.297348e+02	-3.370768e-03
1.304842e+02	-3.409804e-03
1.312378e+02	-3.449292e-03
1.319959e+02	-3.489237e-03
1.327583e+02	-3.529644e-03
1.335251e+02	-3.570519e-03
1.342963e+02	-3.611867e-03
1.350720e+02	-3.653694e-03
1.358522e+02	-3.696005e-03
1.366368e+02	-3.738806e-03
1.374260e+02	-3.782102e-03
1.382198e+02	-3.825899e-03
1.390182e+02	-3.870204e-03
1.398211e+02	-3.915021e-03
1.406287e+02	-3.960357e-03
1.414410e+02	-4.006217e-03
1.422579e+02	-4.052609e-03
1.430796e+02	-4.099537e-03
1.439060e+02	-4.147008e-03
1.447372e+02	-4.195029e-03
1.455732e+02	-4.243606e-03
1.464141e+02	-4.292745e-03
1.472597e+02	-4.342453e-03
1.481103e+02	-4.392736e-03
1.489658e+02	-4.443600e-03
1.498262e+02	-4.495054e-03
1.506916e+02	-4.547103e-03
1.515620e+02	-4.599755e-03
1.524374e+02	-4.653015e-03
1.533179e+02	-4.706892e-03
1.542034e+02	-4.761393e-03
1.550941e+02	-4.816524e-03
1.559899e+02	-4.872294e-03
1.568909e+02	-4.928708e-03
1.577971e+02	-4.985776e-03
1.587085e+02	-5.043504e-03
1.596252e+02	-5.101900e-03
1.605472e+02	-5.160971e-03
1.614745e+02	-5.220727e-03
1.624072e+02	-5.281173e-03
1.633453e+02	-5.342319e-03
1.642887e+02	-5.404173e-03
1.652377e+02	-5.466742e-03
1.661921e+02	-5.530035e-03
1.671520e+02	-5.594061e-03
1.681175e+02	-5.658827e-03
1.690885e+02	-5.724343e-03
1.700651e+02	-5.790617e-03
1.710474e+02	-5.857657e-03
1.720354e+02	-5.925473e-03
1.730291e+02	-5.994074e-03
1.740285e+02	-6.063468e-03
1.750337e+02	-6.133665e-03
1.760446e+02	-6.204674e-03
1.770615e+02	-6.276505e-03
1.780842e+02	-6.349167e-03
1.791128e+02	-6.422669e-03
1.801473e+02	-6.497021e-03
1.811878e+02	-6.572234e-03
1.822344e+02	-6.648317e-03
1.832870e+02	-6.725279e-03
1.843456e+02	-6.803132e-03
1.854104e+02	-6.881886e-03
1.864813e+02	-6.961550e-03
1.875584e+02	-7.042136e-03
1.886418e+02	-7.123654e-03
1.897313e+02	-7.206114e-03
1.908272e+02	-7.289529e-03
1.919294e+02	-7.373908e-03
1.930380e+02	-7.459263e-03
1.941530e+02	-7.545605e-03
1.952744e+02	-7.632946e-03
1.964023e+02	-7.721297e-03
1.975367e+02	-7.810670e-03
1.986777e+02	-7.901076e-03
1.998252e+02	-7.992527e-03
2.009794e+02	-8.085036e-03
2.021403e+02	-8.178615e-03
2.033078e+02	-8.273276e-03
2.044821e+02	-8.369031e-03
2.056632e+02	-8.465894e-03
2.068511e+02	-8.563877e-03
2.080459e+02	-8.662992e-03
2.092475e+02	-8.763254e-03
2.104561e+02	-8.864674e-03
2.116717e+02	-8.967267e-03
2.128943e+02	-9.071047e-03
2.141240e+02	-9.176026e-03
2.153608e+02	-9.282218e-03
2.166047e+02	-9.389639e-03
2.178558e+02	-9.498301e-03
2.191141e+02	-9.608219e-03
2.203797e+02	-9.719408e-03
2.216526e+02	-9.831882e-03
2.229329e+02	-9.945656e-03
2.242205e+02	-1.006075e-02
2.255156e+02	-1.017716e-02
2.268182e+02	-1.029493e-02
2.281283e+02	-1.041406e-02
2.294459e+02	-1.053456e-02
2.307712e+02	-1.065645e-02
2.321041e+02	-1.077976e-02
2.334447e+02	-1.090449e-02
2.347931e+02	-1.103066e-02
2.361493e+02	-1.115829e-02
2.375133e+02	-1.128739e-02
2.388851e+02	-1.141798e-02
2.402649e+02	-1.155009e-02
2.416527e+02	-1.168372e-02
2.430484e+02	-1.181889e-02
2.444523e+02	-1.195563e-02
2.458642e+02	-1.209394e-02
2.472843e+02	-1.223386e-02
2.487126e+02	-1.237539e-02
2.501492e+02	-1.251855e-02
2.515940e+02	-1.266337e-02
2.530472e+02	-1.280986e-02
2.545088e+02	-1.295804e-02
2.559789e+02	-1.310794e-02
2.574574e+02	-1.325957e-02
2.589444e+02	-1.341294e-02
2.604401e+02	-1.356809e-02
2.619444e+02	-1.372503e-02
2.634574e+02	-1.388379e-02
2.649791e+02	-1.404437e-02
2.665096e+02	-1.420681e-02
2.680489e+02	-1.437113e-02
2.695972e+02	-1.453734e-02
2.711544e+02	-1.470548e-02
2.727205e+02	-1.487555e-02
2.742958e+02	-1.504759e-02
2.758801e+02	-1.522161e-02
2.774736e+02	-1.539764e-02
2.790762e+02	-1.557571e-02
2.806882e+02	-1.575583e-02
2.823094e+02	-1.593803e-02
2.839400e+02	-1.612233e-02
2.855800e+02	-1.630876e-02
2.872295e+02	-1.649734e-02
2.888886e+02	-1.668810e-02
2.905572e+02	-1.688106e-02
2.922354e+02	-1.707624e-02
2.939234e+02	-1.727368e-02
2.956211e+02	-1.747340e-02
2.973286e+02	-1.767542e-02
2.990459e+02	-1.787977e-02
3.007732e+02	-1.808648e-02
3.025104e+02	-1.829557e-02
3.042577e+02	-1.850708e-02
3.060151e+02	-1.872102e-02
3.077826e+02	-1.893744e-02
3.095604e+02	-1.915635e-02
3.113484e+02	-1.937778e-02
3.131467e+02	-1.960177e-02
3.149554e+02	-1.982834e-02
3.167746e+02	-2.005753e-02
3.186043e+02	-2.028935e-02
3.204445e+02	-2.052385e-02
3.222954e+02	-2.076106e-02
3.241570e+02	-2.100100e-02
3.260293e+02	-2.124370e-02
3.279124e+02	-2.148921e-02
3.298064e+02	-2.173754e-02
3.317114e+02	-2.198873e-02
3.336273e+02	-2.224283e-02
3.355544e+02	-2.249985e-02
3.374925e+02	-2.275983e-02
3.394418e+02	-2.302280e-02
3.414024e+02	-2.328881e-02
3.433744e+02	-2.355789e-02
3.453577e+02	-2.383006e-02
3.473525e+02	-2.410537e-02
3.493588e+02	-2.438385e-02
3.513766e+02	-2.466554e-02
3.534062e+02	-2.495047e-02
3.554474e+02	-2.523869e-02
3.575005e+02	-2.553022e-02
3.595654e+02	-2.582511e-02
3.616422e+02	-2.612340e-02
3.637311e+02	-2.642512e-02
3.658320e+02	-2.673032e-02
3.679450e+02	-2.703903e-02
3.700702e+02	-2.735130e-02
3.722077e+02	-2.766716e-02
3.743576e+02	-2.798665e-02
3.765199e+02	-2.830983e-02
3.786946e+02	-2.863672e-02
3.808820e+02	-2.896737e-02
3.830819e+02	-2.930183e-02
3.852946e+02	-2.964014e-02
3.875200e+02	-2.998234e-02
3.897583e+02	-3.032848e-02
3.920096e+02	-3.067860e-02
3.942738e+02	-3.103274e-02
3.965511e+02	-3.139096e-02
3.988416e+02	-3.175330e-02
4.011452e+02	-3.211981e-02
4.034622e+02	-3.249053e-02
4.057926e+02	-3.286551e-02
4.081365e+02	-3.324481e-02
4.104938e+02	-3.362846e-02
4.128648e+02	-3.401653e-02
4.152495e+02	-3.440905e-02
4.176480e+02	-3.480609e-02
4.200603e+02	-3.520769e-02
4.224866e+02	-3.561391e-02
4.249268e+02	-3.602479e-02
4.273812e+02	-3.644039e-02
4.298497e+02	-3.686076e-02
4.323325e+02	-3.728597e-02
4.348297e+02	-3.771606e-02
4.373412e+02	-3.815108e-02
4.398673e+02	-3.859111e-02
4.424079e+02	-3.903618e-02
4.449633e+02	-3.948637e-02
4.475334e+02	-3.994172e-02
4.501183e+02	-4.040230e-02
4.527182e+02	-4.086816e-02
4.553330e+02	-4.133937e-02
4.579630e+02	-4.181599e-02
4.606082e+02	-4.229807e-02
4.632687e+02	-4.278569e-02
4.659445e+02	-4.327890e-02
4.686358e+02	-4.377777e-02
4.713426e+02	-4.428235e-02
4.740650e+02	-4.479272e-02
4.768032e+02	-4.530895e-02
4.795572e+02	-4.583109e-02
4.823271e+02	-4.635922e-02
4.851130e+02	-4.689340e-02
4.879150e+02	-4.743370e-02
4.907332e+02	-4.798019e-02
4.935676e+02	-4.853294e-02
4.964185e+02	-4.909203e-02
4.992858e+02	-4.965752e-02
5.021696e+02	-5.022948e-02
5.050701e+02	-5.080799e-02
5.079874e+02	-5.139313e-02
5.109215e+02	-5.198497e-02
5.138726e+02	-5.258358e-02
5.168407e+02	-5.318904e-02
5.198259e+02	-5.380142e-02
5.228284e+02	-5.442082e-02
5.258482e+02	-5.504730e-02
5.288855e+02	-5.568094e-02
5.319403e+02	-5.632184e-02
5.350128e+02	-5.697006e-02
5.381030e+02	-5.762569e-02
5.412111e+02	-5.828881e-02
5.443371e+02	-5.895952e-02
5.474812e+02	-5.963788e-02
5.506434e+02	-6.032400e-02
5.538239e+02	-6.101796e-02
5.570228e+02	-6.171984e-02
5.602401e+02	-6.242974e-02
5.634760e+02	-6.314775e-02
5.667306e+02	-6.387395e-02
5.700040e+02	-6.460844e-02
5.732964e+02	-6.535131e-02
5.766077e+02	-6.610266e-02
5.799382e+02	-6.686258e-02
5.832879e+02	-6.763117e-02
5.866569e+02	-6.840853e-02
5.900454e+02	-6.919474e-02
5.934535e+02	-6.998993e-02
5.968813e+02	-7.079417e-02
6.003288e+02	-7.160758e-02
6.037963e+02	-7.243026e-02
6.072838e+02	-7.326230e-02
6.107914e+02	-7.410383e-02
6.143194e+02	-7.495494e-02
6.178676e+02	-7.581573e-02
6.214364e+02	-7.668633e-02
6.250258e+02	-7.756683e-02
6.286359e+02	-7.845735e-02
6.322669e+02	-7.935800e-02
6.359189e+02	-8.026890e-02
6.395919e+02	-8.119015e-02
6.432862e+02	-8.212188e-02
6.470017e+02	-8.306419e-02
6.507388e+02	-8.401721e-02
6.544974e+02	-8.498106e-02
6.582778e+02	-8.595586e-02
6.620800e+02	-8.694173e-02
6.659041e+02	-8.793879e-02
6.697504e+02	-8.894717e-02
6.736188e+02	-8.996699e-02
6.775096e+02	-9.099838e-02
6.814229e+02	-9.204146e-02
6.853587e+02	-9.309638e-02
6.893173e+02	-9.416326e-02
6.932988e+02	-9.524222e-02
6.973033e+02	-9.633342e-02
7.013309e+02	-9.743697e-02
