Frequency(Hz)	Magnitude(dB)
1.000000e+01	-2.133466e+00
1.005776e+01	-2.153090e+00
1.011585e+01	-2.172498e+00
1.017428e+01	-2.192154e+00
1.023305e+01	-2.212064e+00
1.029215e+01	-2.232279e+00
1.035160e+01	-2.252051e+00
1.041139e+01	-2.272699e+00
1.047153e+01	-2.292886e+00
1.053201e+01	-2.313756e+00
1.059284e+01	-2.334414e+00
1.065403e+01	-2.355293e+00
1.071556e+01	-2.376611e+00
1.077746e+01	-2.397343e+00
1.083971e+01	-2.418970e+00
1.090232e+01	-2.440157e+00
1.096529e+01	-2.461774e+00
1.102862e+01	-2.483167e+00
1.109232e+01	-2.505292e+00
1.115639e+01	-2.527214e+00
1.122083e+01	-2.549528e+00
1.128564e+01	-2.571890e+00
1.135083e+01	-2.594112e+00
1.141639e+01	-2.616754e+00
1.148233e+01	-2.639330e+00
1.154865e+01	-2.662227e+00
1.161536e+01	-2.685044e+00
1.168245e+01	-2.708471e+00
1.174992e+01	-2.731725e+00
1.181779e+01	-2.755073e+00
1.188605e+01	-2.778511e+00
1.195470e+01	-2.802391e+00
1.202375e+01	-2.826215e+00
1.209320e+01	-2.850155e+00
1.216305e+01	-2.874373e+00
1.223330e+01	-2.898591e+00
1.230396e+01	-2.922924e+00
1.237503e+01	-2.947599e+00
1.244651e+01	-2.972400e+00
1.251840e+01	-2.997440e+00
1.259070e+01	-3.022259e+00
1.266343e+01	-3.047450e+00
1.273657e+01	-3.072975e+00
1.281014e+01	-3.098185e+00
1.288413e+01	-3.124040e+00
1.295855e+01	-3.149622e+00
1.303339e+01	-3.175515e+00
1.310867e+01	-3.201406e+00
1.318439e+01	-3.227197e+00
1.326054e+01	-3.253714e+00
1.333713e+01	-3.280504e+00
1.341417e+01	-3.306791e+00
1.349165e+01	-3.333742e+00
1.356958e+01	-3.360378e+00
1.364795e+01	-3.387687e+00
1.372678e+01	-3.414880e+00
1.380607e+01	-3.442222e+00
1.388581e+01	-3.469296e+00
1.396602e+01	-3.496887e+00
1.404668e+01	-3.524654e+00
1.412782e+01	-3.552611e+00
1.420942e+01	-3.580532e+00
1.429149e+01	-3.608738e+00
1.437404e+01	-3.636987e+00
1.445706e+01	-3.665353e+00
1.454057e+01	-3.694153e+00
1.462455e+01	-3.723031e+00
1.470902e+01	-3.751845e+00
1.479398e+01	-3.780800e+00
1.487943e+01	-3.809802e+00
1.496537e+01	-3.839069e+00
1.505181e+01	-3.868691e+00
1.513875e+01	-3.898307e+00
1.522619e+01	-3.927844e+00
1.531414e+01	-3.957872e+00
1.540259e+01	-3.987770e+00
1.549156e+01	-4.017873e+00
1.558103e+01	-4.048211e+00
1.567103e+01	-4.078531e+00
1.576155e+01	-4.109150e+00
1.585258e+01	-4.139870e+00
1.594415e+01	-4.170683e+00
1.603624e+01	-4.201880e+00
1.612886e+01	-4.232506e+00
1.622202e+01	-4.264047e+00
1.631572e+01	-4.295242e+00
1.640996e+01	-4.326526e+00
1.650474e+01	-4.358236e+00
1.660008e+01	-4.390064e+00
1.669596e+01	-4.421971e+00
1.679239e+01	-4.453650e+00
1.688938e+01	-4.486167e+00
1.698694e+01	-4.518538e+00
1.708505e+01	-4.550511e+00
1.718373e+01	-4.583373e+00
1.728299e+01	-4.616138e+00
1.738281e+01	-4.648929e+00
1.748322e+01	-4.681710e+00
1.758420e+01	-4.714936e+00
1.768576e+01	-4.748100e+00
1.778792e+01	-4.781675e+00
1.789066e+01	-4.814910e+00
1.799399e+01	-4.848439e+00
1.809793e+01	-4.882182e+00
1.820246e+01	-4.915848e+00
1.830760e+01	-4.949925e+00
1.841334e+01	-4.983767e+00
1.851969e+01	-5.018356e+00
1.862666e+01	-5.052381e+00
1.873425e+01	-5.087209e+00
1.884246e+01	-5.121192e+00
1.895129e+01	-5.156014e+00
1.906075e+01	-5.191235e+00
1.917085e+01	-5.225871e+00
1.928158e+01	-5.260711e+00
1.939295e+01	-5.296389e+00
1.950496e+01	-5.331658e+00
1.961762e+01	-5.367216e+00
1.973093e+01	-5.402471e+00
1.984490e+01	-5.438074e+00
1.995952e+01	-5.473907e+00
2.007480e+01	-5.509695e+00
2.019076e+01	-5.546101e+00
2.030738e+01	-5.582090e+00
2.042467e+01	-5.617991e+00
2.054264e+01	-5.654619e+00
2.066130e+01	-5.691276e+00
2.078064e+01	-5.727516e+00
2.090066e+01	-5.764301e+00
2.102139e+01	-5.801109e+00
2.114280e+01	-5.838011e+00
2.126492e+01	-5.875108e+00
2.138775e+01	-5.912100e+00
2.151128e+01	-5.949610e+00
2.163553e+01	-5.986954e+00
2.176050e+01	-6.024477e+00
2.188619e+01	-6.062196e+00
2.201260e+01	-6.099633e+00
2.213974e+01	-6.137212e+00
2.226762e+01	-6.175448e+00
2.239624e+01	-6.213474e+00
2.252560e+01	-6.251480e+00
2.265571e+01	-6.289634e+00
2.278656e+01	-6.327727e+00
2.291818e+01	-6.366682e+00
2.305055e+01	-6.404890e+00
2.318369e+01	-6.443583e+00
2.331760e+01	-6.482348e+00
2.345228e+01	-6.521348e+00
2.358774e+01	-6.559898e+00
2.372398e+01	-6.598996e+00
2.386101e+01	-6.638497e+00
2.399883e+01	-6.677342e+00
2.413745e+01	-6.716795e+00
2.427686e+01	-6.756063e+00
2.441709e+01	-6.795878e+00
2.455812e+01	-6.835369e+00
2.469997e+01	-6.875209e+00
2.484263e+01	-6.914897e+00
2.498612e+01	-6.954423e+00
2.513044e+01	-6.995055e+00
2.527559e+01	-7.034874e+00
2.542158e+01	-7.074810e+00
2.556842e+01	-7.115152e+00
2.571610e+01	-7.155749e+00
2.586463e+01	-7.196213e+00
2.601403e+01	-7.236465e+00
2.616428e+01	-7.277097e+00
2.631541e+01	-7.317883e+00
2.646740e+01	-7.358675e+00
2.662028e+01	-7.399622e+00
2.677404e+01	-7.440911e+00
2.692868e+01	-7.481517e+00
2.708422e+01	-7.522825e+00
2.724066e+01	-7.563838e+00
2.739800e+01	-7.605376e+00
2.755625e+01	-7.646874e+00
2.771541e+01	-7.688281e+00
2.787550e+01	-7.729164e+00
2.803650e+01	-7.771723e+00
2.819844e+01	-7.812998e+00
2.836131e+01	-7.854622e+00
2.852513e+01	-7.896582e+00
2.868989e+01	-7.938830e+00
2.885560e+01	-7.980473e+00
2.902227e+01	-8.022617e+00
2.918990e+01	-8.064818e+00
2.935850e+01	-8.107473e+00
2.952807e+01	-8.149703e+00
2.969863e+01	-8.192204e+00
2.987016e+01	-8.234759e+00
3.004269e+01	-8.276672e+00
3.021622e+01	-8.319788e+00
3.039075e+01	-8.361938e+00
3.056628e+01	-8.405067e+00
3.074283e+01	-8.447830e+00
3.092040e+01	-8.490708e+00
3.109900e+01	-8.534085e+00
3.127862e+01	-8.576856e+00
3.145929e+01	-8.619643e+00
3.164099e+01	-8.663039e+00
3.182375e+01	-8.706504e+00
3.200756e+01	-8.749753e+00
3.219244e+01	-8.793629e+00
3.237838e+01	-8.836838e+00
3.256540e+01	-8.880117e+00
3.275349e+01	-8.924049e+00
3.294268e+01	-8.967418e+00
3.313295e+01	-9.011038e+00
3.332433e+01	-9.054468e+00
3.351681e+01	-9.098272e+00
3.371040e+01	-9.142366e+00
3.390511e+01	-9.186548e+00
3.410094e+01	-9.230619e+00
3.429791e+01	-9.274906e+00
3.449601e+01	-9.318646e+00
3.469526e+01	-9.362957e+00
3.489566e+01	-9.407138e+00
3.509721e+01	-9.451157e+00
3.529993e+01	-9.495774e+00
3.550382e+01	-9.540346e+00
3.570889e+01	-9.584713e+00
3.591515e+01	-9.628978e+00
3.612259e+01	-9.674013e+00
3.633123e+01	-9.718472e+00
3.654108e+01	-9.763704e+00
3.675214e+01	-9.807936e+00
3.696442e+01	-9.852900e+00
3.717792e+01	-9.897404e+00
3.739266e+01	-9.942753e+00
3.760864e+01	-9.987700e+00
3.782587e+01	-1.003277e+01
3.804435e+01	-1.007767e+01
3.826409e+01	-1.012265e+01
3.848510e+01	-1.016841e+01
3.870739e+01	-1.021337e+01
3.893096e+01	-1.025892e+01
3.915583e+01	-1.030398e+01
3.938199e+01	-1.034929e+01
3.960946e+01	-1.039458e+01
3.983824e+01	-1.044035e+01
4.006834e+01	-1.048602e+01
4.029978e+01	-1.053101e+01
4.053255e+01	-1.057671e+01
4.076666e+01	-1.062321e+01
4.100213e+01	-1.066790e+01
4.123896e+01	-1.071439e+01
4.147715e+01	-1.076008e+01
4.171672e+01	-1.080624e+01
4.195767e+01	-1.085213e+01
4.220002e+01	-1.089826e+01
4.244377e+01	-1.094445e+01
4.268892e+01	-1.098888e+01
4.293549e+01	-1.103571e+01
4.318348e+01	-1.108193e+01
4.343291e+01	-1.112745e+01
4.368377e+01	-1.117451e+01
4.393609e+01	-1.122018e+01
4.418986e+01	-1.126629e+01
4.444510e+01	-1.131300e+01
4.470182e+01	-1.135976e+01
4.496001e+01	-1.140618e+01
4.521970e+01	-1.145174e+01
4.548089e+01	-1.149847e+01
4.574358e+01	-1.154523e+01
4.600779e+01	-1.159192e+01
4.627353e+01	-1.163738e+01
4.654081e+01	-1.168487e+01
4.680963e+01	-1.173160e+01
4.708000e+01	-1.177890e+01
4.735193e+01	-1.182533e+01
4.762543e+01	-1.187143e+01
4.790051e+01	-1.191807e+01
4.817719e+01	-1.196554e+01
4.845545e+01	-1.201291e+01
4.873533e+01	-1.205839e+01
4.901682e+01	-1.210608e+01
4.929994e+01	-1.215282e+01
4.958470e+01	-1.220018e+01
4.987110e+01	-1.224771e+01
5.015915e+01	-1.229422e+01
5.044887e+01	-1.234118e+01
5.074026e+01	-1.238807e+01
5.103333e+01	-1.243595e+01
5.132810e+01	-1.248270e+01
5.162457e+01	-1.252979e+01
5.192275e+01	-1.257658e+01
5.222265e+01	-1.262425e+01
5.252429e+01	-1.267188e+01
5.282767e+01	-1.271861e+01
5.313280e+01	-1.276638e+01
5.343969e+01	-1.281382e+01
5.374836e+01	-1.286173e+01
5.405880e+01	-1.290887e+01
5.437105e+01	-1.295605e+01
5.468509e+01	-1.300345e+01
5.500095e+01	-1.305072e+01
5.531863e+01	-1.309875e+01
5.563815e+01	-1.314641e+01
5.595951e+01	-1.319421e+01
5.628273e+01	-1.324168e+01
5.660782e+01	-1.328911e+01
5.693479e+01	-1.333739e+01
5.726364e+01	-1.338424e+01
5.759439e+01	-1.343291e+01
5.792705e+01	-1.348035e+01
5.826164e+01	-1.352793e+01
5.859815e+01	-1.357622e+01
5.893662e+01	-1.362359e+01
5.927703e+01	-1.367122e+01
5.961941e+01	-1.371993e+01
5.996377e+01	-1.376701e+01
6.031012e+01	-1.381534e+01
6.065847e+01	-1.386312e+01
6.100883e+01	-1.391187e+01
6.136121e+01	-1.395886e+01
6.171563e+01	-1.400747e+01
6.207210e+01	-1.405497e+01
6.243063e+01	-1.410427e+01
6.279122e+01	-1.415136e+01
6.315390e+01	-1.419971e+01
6.351868e+01	-1.424819e+01
6.388556e+01	-1.429563e+01
6.425456e+01	-1.434405e+01
6.462569e+01	-1.439243e+01
6.499897e+01	-1.444015e+01
6.537440e+01	-1.448816e+01
6.575200e+01	-1.453713e+01
6.613178e+01	-1.458550e+01
6.651375e+01	-1.463424e+01
6.689793e+01	-1.468240e+01
6.728433e+01	-1.472963e+01
6.767297e+01	-1.477928e+01
6.806384e+01	-1.482770e+01
6.845698e+01	-1.487505e+01
6.885238e+01	-1.492427e+01
6.925007e+01	-1.497148e+01
6.965005e+01	-1.502062e+01
7.005235e+01	-1.506916e+01
7.045697e+01	-1.511742e+01
7.086393e+01	-1.516631e+01
7.127323e+01	-1.521479e+01
7.168490e+01	-1.526222e+01
7.209895e+01	-1.531169e+01
7.251539e+01	-1.536012e+01
7.293424e+01	-1.540930e+01
7.335551e+01	-1.545769e+01
7.377920e+01	-1.550624e+01
7.420535e+01	-1.555454e+01
7.463396e+01	-1.560352e+01
7.506504e+01	-1.565197e+01
7.549861e+01	-1.570048e+01
7.593469e+01	-1.574948e+01
7.637328e+01	-1.579851e+01
7.681441e+01	-1.584716e+01
7.725809e+01	-1.589491e+01
7.770433e+01	-1.594503e+01
7.815315e+01	-1.599319e+01
7.860456e+01	-1.604163e+01
7.905857e+01	-1.609021e+01
7.951521e+01	-1.613957e+01
7.997449e+01	-1.618800e+01
8.043642e+01	-1.623670e+01
8.090102e+01	-1.628585e+01
8.136830e+01	-1.633387e+01
8.183828e+01	-1.638275e+01
8.231097e+01	-1.643075e+01
8.278640e+01	-1.648034e+01
8.326457e+01	-1.652977e+01
8.374550e+01	-1.657914e+01
8.422921e+01	-1.662897e+01
8.471572e+01	-1.667727e+01
8.520503e+01	-1.672593e+01
8.569717e+01	-1.677565e+01
8.619215e+01	-1.682450e+01
8.669000e+01	-1.687224e+01
8.719071e+01	-1.692167e+01
8.769432e+01	-1.697111e+01
8.820084e+01	-1.702040e+01
8.871029e+01	-1.706848e+01
8.922267e+01	-1.711761e+01
8.973802e+01	-1.716752e+01
9.025634e+01	-1.721626e+01
9.077766e+01	-1.726458e+01
9.130199e+01	-1.731478e+01
9.182935e+01	-1.736363e+01
9.235975e+01	-1.741183e+01
9.289321e+01	-1.746077e+01
9.342976e+01	-1.751150e+01
9.396941e+01	-1.755988e+01
9.451217e+01	-1.760979e+01
9.505807e+01	-1.765746e+01
9.560712e+01	-1.770793e+01
9.615934e+01	-1.775759e+01
9.671476e+01	-1.780552e+01
9.727338e+01	-1.785563e+01
9.783522e+01	-1.790421e+01
9.840032e+01	-1.795474e+01
9.896867e+01	-1.800224e+01
9.954031e+01	-1.805156e+01
1.001153e+02	-1.810059e+01
1.006935e+02	-1.814991e+01
1.012751e+02	-1.819981e+01
1.018601e+02	-1.825004e+01
1.024484e+02	-1.829844e+01
1.030402e+02	-1.834721e+01
1.036353e+02	-1.839584e+01
1.042339e+02	-1.844620e+01
1.048360e+02	-1.849598e+01
1.054415e+02	-1.854522e+01
1.060505e+02	-1.859454e+01
1.066631e+02	-1.864399e+01
1.072791e+02	-1.869313e+01
1.078988e+02	-1.874328e+01
1.085220e+02	-1.879180e+01
1.091488e+02	-1.884237e+01
1.097793e+02	-1.889119e+01
1.104133e+02	-1.893925e+01
1.110511e+02	-1.898893e+01
1.116925e+02	-1.903861e+01
1.123376e+02	-1.908884e+01
1.129865e+02	-1.913683e+01
1.136391e+02	-1.918800e+01
1.142955e+02	-1.923617e+01
1.149556e+02	-1.928695e+01
1.156196e+02	-1.933599e+01
1.162874e+02	-1.938595e+01
1.169591e+02	-1.943433e+01
1.176347e+02	-1.948291e+01
1.183141e+02	-1.953176e+01
1.189975e+02	-1.958359e+01
1.196848e+02	-1.963159e+01
1.203761e+02	-1.968210e+01
1.210714e+02	-1.973088e+01
1.217707e+02	-1.978089e+01
1.224740e+02	-1.983040e+01
1.231814e+02	-1.987849e+01
1.238929e+02	-1.992927e+01
1.246085e+02	-1.997888e+01
1.253283e+02	-2.002807e+01
1.260522e+02	-2.007684e+01
1.267802e+02	-2.012741e+01
1.275125e+02	-2.017639e+01
1.282490e+02	-2.022710e+01
1.289898e+02	-2.027614e+01
1.297348e+02	-2.032472e+01
1.304842e+02	-2.037634e+01
1.312378e+02	-2.042383e+01
1.319959e+02	-2.047597e+01
1.327583e+02	-2.052384e+01
1.335251e+02	-2.057370e+01
1.342963e+02	-2.062415e+01
1.350720e+02	-2.067231e+01
1.358522e+02	-2.072420e+01
1.366368e+02	-2.077187e+01
1.374260e+02	-2.082251e+01
1.382198e+02	-2.087162e+01
1.390182e+02	-2.092067e+01
1.398211e+02	-2.097119e+01
1.406287e+02	-2.102258e+01
1.414410e+02	-2.106982e+01
1.422579e+02	-2.112129e+01
1.430796e+02	-2.116703e+01
1.439060e+02	-2.121726e+01
1.447372e+02	-2.126982e+01
1.455732e+02	-2.131917e+01
1.464141e+02	-2.136751e+01
1.472597e+02	-2.141739e+01
1.481103e+02	-2.146738e+01
1.489658e+02	-2.151918e+01
1.498262e+02	-2.156648e+01
1.506916e+02	-2.161644e+01
1.515620e+02	-2.166425e+01
1.524374e+02	-2.171534e+01
1.533179e+02	-2.176572e+01
1.542034e+02	-2.181422e+01
1.550941e+02	-2.186303e+01
1.559899e+02	-2.191561e+01
1.568909e+02	-2.196298e+01
1.577971e+02	-2.201274e+01
1.587085e+02	-2.206500e+01
1.596252e+02	-2.211311e+01
1.605472e+02	-2.216536e+01
1.614745e+02	-2.221228e+01
1.624072e+02	-2.226357e+01
1.633453e+02	-2.231338e+01
1.642887e+02	-2.236254e+01
1.652377e+02	-2.241355e+01
1.661921e+02	-2.246050e+01
1.671520e+02	-2.251172e+01
1.681175e+02	-2.256201e+01
1.690885e+02	-2.260856e+01
1.700651e+02	-2.265888e+01
1.710474e+02	-2.270971e+01
1.720354e+02	-2.275957e+01
1.730291e+02	-2.281120e+01
1.740285e+02	-2.286044e+01
1.750337e+02	-2.290964e+01
1.760446e+02	-2.295893e+01
1.770615e+02	-2.301014e+01
1.780842e+02	-2.305748e+01
1.791128e+02	-2.311052e+01
1.801473e+02	-2.315729e+01
1.811878e+02	-2.320819e+01
1.822344e+02	-2.325645e+01
1.832870e+02	-2.330896e+01
1.843456e+02	-2.335776e+01
1.854104e+02	-2.340994e+01
1.864813e+02	-2.345856e+01
1.875584e+02	-2.350563e+01
1.886418e+02	-2.355821e+01
1.897313e+02	-2.360712e+01
1.908272e+02	-2.365485e+01
1.919294e+02	-2.370672e+01
1.930380e+02	-2.375733e+01
1.941530e+02	-2.380785e+01
1.952744e+02	-2.385638e+01
1.964023e+02	-2.390415e+01
1.975367e+02	-2.395790e+01
1.986777e+02	-2.400457e+01
1.998252e+02	-2.405512e+01
2.009794e+02	-2.410510e+01
2.021403e+02	-2.415574e+01
2.033078e+02	-2.420597e+01
2.044821e+02	-2.425414e+01
2.056632e+02	-2.430341e+01
2.068511e+02	-2.435445e+01
2.080459e+02	-2.440529e+01
2.092475e+02	-2.445401e+01
2.104561e+02	-2.450495e+01
2.116717e+02	-2.455491e+01
2.128943e+02	-2.460385e+01
2.141240e+02	-2.465394e+01
2.153608e+02	-2.470265e+01
2.166047e+02	-2.475508e+01
2.178558e+02	-2.480392e+01
2.191141e+02	-2.484958e+01
2.203797e+02	-2.490493e+01
2.216526e+02	-2.495468e+01
2.229329e+02	-2.500354e+01
2.242205e+02	-2.505199e+01
2.255156e+02	-2.510664e+01
2.268182e+02	-2.515331e+01
2.281283e+02	-2.520393e+01
2.294459e+02	-2.525163e+01
2.307712e+02	-2.530399e+01
2.321041e+02	-2.535124e+01
2.334447e+02	-2.540265e+01
2.347931e+02	-2.545452e+01
2.361493e+02	-2.550317e+01
2.375133e+02	-2.554874e+01
2.388851e+02	-2.559992e+01
2.402649e+02	-2.565461e+01
2.416527e+02	-2.570155e+01
2.430484e+02	-2.575265e+01
2.444523e+02	-2.580442e+01
2.458642e+02	-2.585150e+01
2.472843e+02	-2.590140e+01
2.487126e+02	-2.595547e+01
2.501492e+02	-2.599983e+01
2.515940e+02	-2.605287e+01
2.530472e+02	-2.610074e+01
2.545088e+02	-2.615205e+01
2.559789e+02	-2.620228e+01
2.574574e+02	-2.625223e+01
2.589444e+02	-2.630599e+01
2.604401e+02	-2.635132e+01
2.619444e+02	-2.640365e+01
2.634574e+02	-2.645417e+01
2.649791e+02	-2.649995e+01
2.665096e+02	-2.655366e+01
2.680489e+02	-2.659944e+01
2.695972e+02	-2.665285e+01
2.711544e+02	-2.670329e+01
2.727205e+02	-2.675366e+01
2.742958e+02	-2.680074e+01
2.758801e+02	-2.685100e+01
2.774736e+02	-2.690003e+01
2.790762e+02	-2.695449e+01
2.806882e+02	-2.700288e+01
2.823094e+02	-2.705117e+01
2.839400e+02	-2.710158e+01
2.855800e+02	-2.715057e+01
2.872295e+02	-2.720340e+01
2.888886e+02	-2.724815e+01
2.905572e+02	-2.730087e+01
2.922354e+02	-2.734740e+01
2.939234e+02	-2.739908e+01
2.956211e+02	-2.745276e+01
2.973286e+02	-2.749805e+01
2.990459e+02	-2.755174e+01
3.007732e+02	-2.760079e+01
3.025104e+02	-2.764655e+01
3.042577e+02	-2.770151e+01
3.060151e+02	-2.775214e+01
3.077826e+02	-2.779893e+01
3.095604e+02	-2.785140e+01
3.113484e+02	-2.790318e+01
3.131467e+02	-2.795185e+01
3.149554e+02	-2.800396e+01
3.167746e+02	-2.805106e+01
3.186043e+02	-2.810444e+01
3.204445e+02	-2.815416e+01
3.222954e+02	-2.820109e+01
3.241570e+02	-2.825279e+01
3.260293e+02	-2.830271e+01
3.279124e+02	-2.835233e+01
3.298064e+02	-2.840030e+01
3.317114e+02	-2.845149e+01
3.336273e+02	-2.850388e+01
3.355544e+02	-2.855185e+01
3.374925e+02	-2.860601e+01
3.394418e+02	-2.865274e+01
3.414024e+02	-2.869942e+01
3.433744e+02	-2.875494e+01
3.453577e+02	-2.880414e+01
3.473525e+02	-2.884978e+01
3.493588e+02	-2.890135e+01
3.513766e+02	-2.894728e+01
3.534062e+02	-2.900092e+01
3.554474e+02	-2.905158e+01
3.575005e+02	-2.910405e+01
3.595654e+02	-2.915518e+01
3.616422e+02	-2.920821e+01
3.637311e+02	-2.925180e+01
3.658320e+02	-2.930323e+01
3.679450e+02	-2.935207e+01
3.700702e+02	-2.940160e+01
3.722077e+02	-2.945696e+01
3.743576e+02	-2.950047e+01
3.765199e+02	-2.955156e+01
3.786946e+02	-2.960909e+01
3.808820e+02	-2.965426e+01
3.830819e+02	-2.970611e+01
3.852946e+02	-2.975677e+01
3.875200e+02	-2.980609e+01
3.897583e+02	-2.985327e+01
3.920096e+02	-2.990224e+01
3.942738e+02	-2.995405e+01
3.965511e+02	-3.000354e+01
3.988416e+02	-3.005564e+01
4.011452e+02	-3.010086e+01
4.034622e+02	-3.015355e+01
4.057926e+02	-3.020825e+01
4.081365e+02	-3.025374e+01
4.104938e+02	-3.030272e+01
4.128648e+02	-3.035490e+01
4.152495e+02	-3.040914e+01
4.176480e+02	-3.045441e+01
4.200603e+02	-3.050519e+01
4.224866e+02	-3.055575e+01
4.249268e+02	-3.060106e+01
4.273812e+02	-3.065767e+01
4.298497e+02	-3.070775e+01
4.323325e+02	-3.075657e+01
4.348297e+02	-3.080709e+01
4.373412e+02	-3.085134e+01
4.398673e+02	-3.090832e+01
4.424079e+02	-3.095956e+01
4.449633e+02	-3.100710e+01
4.475334e+02	-3.105579e+01
4.501183e+02	-3.111112e+01
4.527182e+02	-3.115911e+01
4.553330e+02	-3.120575e+01
4.579630e+02	-3.126510e+01
4.606082e+02	-3.130292e+01
4.632687e+02	-3.135393e+01
4.659445e+02	-3.140118e+01
4.686358e+02	-3.145830e+01
4.713426e+02	-3.150780e+01
4.740650e+02	-3.155623e+01
4.768032e+02	-3.160748e+01
4.795572e+02	-3.165649e+01
4.823271e+02	-3.170877e+01
4.851130e+02	-3.176081e+01
4.879150e+02	-3.180727e+01
4.907332e+02	-3.186377e+01
4.935676e+02	-3.190528e+01
4.964185e+02	-3.196557e+01
4.992858e+02	-3.200860e+01
5.021696e+02	-3.206242e+01
5.050701e+02	-3.210965e+01
5.079874e+02	-3.215343e+01
5.109215e+02	-3.221071e+01
5.138726e+02	-3.226137e+01
5.168407e+02	-3.231364e+01
5.198259e+02	-3.235968e+01
5.228284e+02	-3.241923e+01
5.258482e+02	-3.245937e+01
5.288855e+02	-3.250777e+01
5.319403e+02	-3.255394e+01
5.350128e+02	-3.261653e+01
5.381030e+02	-3.266478e+01
5.412111e+02	-3.271357e+01
5.443371e+02	-3.275919e+01
5.474812e+02	-3.281257e+01
5.506434e+02	-3.286973e+01
5.538239e+02	-3.292185e+01
5.570228e+02	-3.296774e+01
5.602401e+02	-3.300807e+01
5.634760e+02	-3.306351e+01
5.667306e+02	-3.310790e+01
5.700040e+02	-3.316401e+01
5.732964e+02	-3.321941e+01
5.766077e+02	-3.326400e+01
5.799382e+02	-3.331143e+01
5.832879e+02	-3.336211e+01
5.866569e+02	-3.341429e+01
5.900454e+02	-3.346258e+01
5.934535e+02	-3.351698e+01
5.968813e+02	-3.357298e+01
6.003288e+02	-3.361442e+01
6.037963e+02	-3.366774e+01
6.072838e+02	-3.371466e+01
6.107914e+02	-3.377529e+01
6.143194e+02	-3.381838e+01
6.178676e+02	-3.387025e+01
6.214364e+02	-3.392125e+01
6.250258e+02	-3.396866e+01
6.286359e+02	-3.402090e+01
6.322669e+02	-3.407208e+01
6.359189e+02	-3.412686e+01
6.395919e+02	-3.416702e+01
6.432862e+02	-3.422264e+01
6.470017e+02	-3.427128e+01
6.507388e+02	-3.432271e+01
6.544974e+02	-3.437766e+01
6.582778e+02	-3.442444e+01
6.620800e+02	-3.447276e+01
6.659041e+02	-3.452338e+01
6.697504e+02	-3.457764e+01
6.736188e+02	-3.462351e+01
6.775096e+02	-3.467557e+01
6.814229e+02	-3.471837e+01
6.853587e+02	-3.478424e+01
6.893173e+02	-3.482744e+01
6.932988e+02	-3.488018e+01
6.973033e+02	-3.493483e+01
7.013309e+02	-3.498091e+01
