Frequency(Hz)	Magnitude(dB)
1.000000e+01	-2.140471e+00
1.005776e+01	-2.160076e+00
1.011585e+01	-2.179819e+00
1.017428e+01	-2.199667e+00
1.023305e+01	-2.219283e+00
1.029215e+01	-2.239387e+00
1.035160e+01	-2.259733e+00
1.041139e+01	-2.280124e+00
1.047153e+01	-2.300820e+00
1.053201e+01	-2.321342e+00
1.059284e+01	-2.342087e+00
1.065403e+01	-2.362886e+00
1.071556e+01	-2.384016e+00
1.077746e+01	-2.405467e+00
1.083971e+01	-2.426425e+00
1.090232e+01	-2.448149e+00
1.096529e+01	-2.469747e+00
1.102862e+01	-2.491371e+00
1.109232e+01	-2.513416e+00
1.115639e+01	-2.535519e+00
1.122083e+01	-2.557671e+00
1.128564e+01	-2.579863e+00
1.135083e+01	-2.602506e+00
1.141639e+01	-2.625076e+00
1.148233e+01	-2.647784e+00
1.154865e+01	-2.670847e+00
1.161536e+01	-2.693966e+00
1.168245e+01	-2.716813e+00
1.174992e+01	-2.740215e+00
1.181779e+01	-2.763949e+00
1.188605e+01	-2.787354e+00
1.195470e+01	-2.811274e+00
1.202375e+01	-2.835053e+00
1.209320e+01	-2.858914e+00
1.216305e+01	-2.883377e+00
1.223330e+01	-2.907475e+00
1.230396e+01	-2.932410e+00
1.237503e+01	-2.956872e+00
1.244651e+01	-2.981535e+00
1.251840e+01	-3.006502e+00
1.259070e+01	-3.031642e+00
1.266343e+01	-3.056899e+00
1.273657e+01	-3.082235e+00
1.281014e+01	-3.107628e+00
1.288413e+01	-3.133339e+00
1.295855e+01	-3.158989e+00
1.303339e+01	-3.185112e+00
1.310867e+01	-3.211108e+00
1.318439e+01	-3.237089e+00
1.326054e+01	-3.263417e+00
1.333713e+01	-3.290111e+00
1.341417e+01	-3.316964e+00
1.349165e+01	-3.343532e+00
1.356958e+01	-3.370507e+00
1.364795e+01	-3.397515e+00
1.372678e+01	-3.424707e+00
1.380607e+01	-3.451961e+00
1.388581e+01	-3.479841e+00
1.396602e+01	-3.507395e+00
1.404668e+01	-3.535028e+00
1.412782e+01	-3.563007e+00
1.420942e+01	-3.591011e+00
1.429149e+01	-3.619301e+00
1.437404e+01	-3.647771e+00
1.445706e+01	-3.675912e+00
1.454057e+01	-3.704698e+00
1.462455e+01	-3.733599e+00
1.470902e+01	-3.762453e+00
1.479398e+01	-3.791576e+00
1.487943e+01	-3.820842e+00
1.496537e+01	-3.850040e+00
1.505181e+01	-3.879658e+00
1.513875e+01	-3.909251e+00
1.522619e+01	-3.938682e+00
1.531414e+01	-3.968988e+00
1.540259e+01	-3.998884e+00
1.549156e+01	-4.028844e+00
1.558103e+01	-4.059361e+00
1.567103e+01	-4.089807e+00
1.576155e+01	-4.120450e+00
1.585258e+01	-4.151182e+00
1.594415e+01	-4.182015e+00
1.603624e+01	-4.212729e+00
1.612886e+01	-4.244131e+00
1.622202e+01	-4.275502e+00
1.631572e+01	-4.306884e+00
1.640996e+01	-4.338243e+00
1.650474e+01	-4.370140e+00
1.660008e+01	-4.401642e+00
1.669596e+01	-4.433568e+00
1.679239e+01	-4.465903e+00
1.688938e+01	-4.497952e+00
1.698694e+01	-4.529959e+00
1.708505e+01	-4.562835e+00
1.718373e+01	-4.595541e+00
1.728299e+01	-4.628295e+00
1.738281e+01	-4.661153e+00
1.748322e+01	-4.694020e+00
1.758420e+01	-4.726859e+00
1.768576e+01	-4.760387e+00
1.778792e+01	-4.793704e+00
1.789066e+01	-4.827200e+00
1.799399e+01	-4.860771e+00
1.809793e+01	-4.894438e+00
1.820246e+01	-4.928300e+00
1.830760e+01	-4.962272e+00
1.841334e+01	-4.996584e+00
1.851969e+01	-5.030765e+00
1.862666e+01	-5.065131e+00
1.873425e+01	-5.100067e+00
1.884246e+01	-5.134306e+00
1.895129e+01	-5.169117e+00
1.906075e+01	-5.203919e+00
1.917085e+01	-5.239043e+00
1.928158e+01	-5.274429e+00
1.939295e+01	-5.309349e+00
1.950496e+01	-5.344923e+00
1.961762e+01	-5.380166e+00
1.973093e+01	-5.415848e+00
1.984490e+01	-5.451806e+00
1.995952e+01	-5.487109e+00
2.007480e+01	-5.523203e+00
2.019076e+01	-5.559264e+00
2.030738e+01	-5.595151e+00
2.042467e+01	-5.631686e+00
2.054264e+01	-5.668059e+00
2.066130e+01	-5.704714e+00
2.078064e+01	-5.741500e+00
2.090066e+01	-5.777978e+00
2.102139e+01	-5.814869e+00
2.114280e+01	-5.851750e+00
2.126492e+01	-5.888901e+00
2.138775e+01	-5.925872e+00
2.151128e+01	-5.963217e+00
2.163553e+01	-6.000650e+00
2.176050e+01	-6.038354e+00
2.188619e+01	-6.075992e+00
2.201260e+01	-6.113236e+00
2.213974e+01	-6.151337e+00
2.226762e+01	-6.189619e+00
2.239624e+01	-6.227502e+00
2.252560e+01	-6.265484e+00
2.265571e+01	-6.303983e+00
2.278656e+01	-6.342144e+00
2.291818e+01	-6.380900e+00
2.305055e+01	-6.419190e+00
2.318369e+01	-6.458126e+00
2.331760e+01	-6.496603e+00
2.345228e+01	-6.535815e+00
2.358774e+01	-6.574467e+00
2.372398e+01	-6.613489e+00
2.386101e+01	-6.653200e+00
2.399883e+01	-6.691702e+00
2.413745e+01	-6.731628e+00
2.427686e+01	-6.770935e+00
2.441709e+01	-6.810584e+00
2.455812e+01	-6.850259e+00
2.469997e+01	-6.889568e+00
2.484263e+01	-6.929632e+00
2.498612e+01	-6.969464e+00
2.513044e+01	-7.009475e+00
2.527559e+01	-7.049662e+00
2.542158e+01	-7.090190e+00
2.556842e+01	-7.129937e+00
2.571610e+01	-7.170496e+00
2.586463e+01	-7.211044e+00
2.601403e+01	-7.251856e+00
2.616428e+01	-7.292534e+00
2.631541e+01	-7.333421e+00
2.646740e+01	-7.373801e+00
2.662028e+01	-7.414601e+00
2.677404e+01	-7.455505e+00
2.692868e+01	-7.496609e+00
2.708422e+01	-7.537776e+00
2.724066e+01	-7.579144e+00
2.739800e+01	-7.620851e+00
2.755625e+01	-7.661975e+00
2.771541e+01	-7.703443e+00
2.787550e+01	-7.745128e+00
2.803650e+01	-7.786864e+00
2.819844e+01	-7.828157e+00
2.836131e+01	-7.870483e+00
2.852513e+01	-7.911975e+00
2.868989e+01	-7.954031e+00
2.885560e+01	-7.996439e+00
2.902227e+01	-8.038157e+00
2.918990e+01	-8.080384e+00
2.935850e+01	-8.122575e+00
2.952807e+01	-8.164985e+00
2.969863e+01	-8.207999e+00
2.987016e+01	-8.249961e+00
3.004269e+01	-8.292572e+00
3.021622e+01	-8.335086e+00
3.039075e+01	-8.378358e+00
3.056628e+01	-8.420606e+00
3.074283e+01	-8.463526e+00
3.092040e+01	-8.506452e+00
3.109900e+01	-8.549468e+00
3.127862e+01	-8.592923e+00
3.145929e+01	-8.636043e+00
3.164099e+01	-8.679066e+00
3.182375e+01	-8.722378e+00
3.200756e+01	-8.765560e+00
3.219244e+01	-8.808826e+00
3.237838e+01	-8.852768e+00
3.256540e+01	-8.896605e+00
3.275349e+01	-8.939710e+00
3.294268e+01	-8.983433e+00
3.313295e+01	-9.027431e+00
3.332433e+01	-9.071245e+00
3.351681e+01	-9.114944e+00
3.371040e+01	-9.158584e+00
3.390511e+01	-9.202871e+00
3.410094e+01	-9.246667e+00
3.429791e+01	-9.291301e+00
3.449601e+01	-9.334763e+00
3.469526e+01	-9.379462e+00
3.489566e+01	-9.423778e+00
3.509721e+01	-9.467981e+00
3.529993e+01	-9.512276e+00
3.550382e+01	-9.556668e+00
3.570889e+01	-9.601233e+00
3.591515e+01	-9.646068e+00
3.612259e+01	-9.690662e+00
3.633123e+01	-9.735116e+00
3.654108e+01	-9.779563e+00
3.675214e+01	-9.824594e+00
3.696442e+01	-9.869034e+00
3.717792e+01	-9.914538e+00
3.739266e+01	-9.959344e+00
3.760864e+01	-1.000427e+01
3.782587e+01	-1.004940e+01
3.804435e+01	-1.009451e+01
3.826409e+01	-1.013996e+01
3.848510e+01	-1.018521e+01
3.870739e+01	-1.023096e+01
3.893096e+01	-1.027538e+01
3.915583e+01	-1.032154e+01
3.938199e+01	-1.036646e+01
3.960946e+01	-1.041164e+01
3.983824e+01	-1.045734e+01
4.006834e+01	-1.050268e+01
4.029978e+01	-1.054878e+01
4.053255e+01	-1.059387e+01
4.076666e+01	-1.064041e+01
4.100213e+01	-1.068534e+01
4.123896e+01	-1.073122e+01
4.147715e+01	-1.077700e+01
4.171672e+01	-1.082286e+01
4.195767e+01	-1.086926e+01
4.220002e+01	-1.091464e+01
4.244377e+01	-1.096144e+01
4.268892e+01	-1.100660e+01
4.293549e+01	-1.105328e+01
4.318348e+01	-1.109888e+01
4.343291e+01	-1.114541e+01
4.368377e+01	-1.119118e+01
4.393609e+01	-1.123792e+01
4.418986e+01	-1.128344e+01
4.444510e+01	-1.133023e+01
4.470182e+01	-1.137669e+01
4.496001e+01	-1.142250e+01
4.521970e+01	-1.146984e+01
4.548089e+01	-1.151571e+01
4.574358e+01	-1.156239e+01
4.600779e+01	-1.160930e+01
4.627353e+01	-1.165558e+01
4.654081e+01	-1.170228e+01
4.680963e+01	-1.174840e+01
4.708000e+01	-1.179552e+01
4.735193e+01	-1.184196e+01
4.762543e+01	-1.188896e+01
4.790051e+01	-1.193608e+01
4.817719e+01	-1.198212e+01
4.845545e+01	-1.202952e+01
4.873533e+01	-1.207635e+01
4.901682e+01	-1.212342e+01
4.929994e+01	-1.217039e+01
4.958470e+01	-1.221772e+01
4.987110e+01	-1.226413e+01
5.015915e+01	-1.231111e+01
5.044887e+01	-1.235862e+01
5.074026e+01	-1.240594e+01
5.103333e+01	-1.245309e+01
5.132810e+01	-1.250026e+01
5.162457e+01	-1.254699e+01
5.192275e+01	-1.259441e+01
5.222265e+01	-1.264177e+01
5.252429e+01	-1.268909e+01
5.282767e+01	-1.273639e+01
5.313280e+01	-1.278393e+01
5.343969e+01	-1.283141e+01
5.374836e+01	-1.287919e+01
5.405880e+01	-1.292634e+01
5.437105e+01	-1.297283e+01
5.468509e+01	-1.302071e+01
5.500095e+01	-1.306851e+01
5.531863e+01	-1.311626e+01
5.563815e+01	-1.316391e+01
5.595951e+01	-1.321184e+01
5.628273e+01	-1.325833e+01
5.660782e+01	-1.330710e+01
5.693479e+01	-1.335404e+01
5.726364e+01	-1.340236e+01
5.759439e+01	-1.345019e+01
5.792705e+01	-1.349816e+01
5.826164e+01	-1.354588e+01
5.859815e+01	-1.359312e+01
5.893662e+01	-1.364154e+01
5.927703e+01	-1.368887e+01
5.961941e+01	-1.373685e+01
5.996377e+01	-1.378434e+01
6.031012e+01	-1.383335e+01
6.065847e+01	-1.388100e+01
6.100883e+01	-1.392917e+01
6.136121e+01	-1.397612e+01
6.171563e+01	-1.402495e+01
6.207210e+01	-1.407259e+01
6.243063e+01	-1.412180e+01
6.279122e+01	-1.416988e+01
6.315390e+01	-1.421671e+01
6.351868e+01	-1.426597e+01
6.388556e+01	-1.431317e+01
6.425456e+01	-1.436155e+01
6.462569e+01	-1.440971e+01
6.499897e+01	-1.445820e+01
6.537440e+01	-1.450557e+01
6.575200e+01	-1.455443e+01
6.613178e+01	-1.460313e+01
6.651375e+01	-1.465170e+01
6.689793e+01	-1.469919e+01
6.728433e+01	-1.474765e+01
6.767297e+01	-1.479733e+01
6.806384e+01	-1.484592e+01
6.845698e+01	-1.489299e+01
6.885238e+01	-1.494225e+01
6.925007e+01	-1.499025e+01
6.965005e+01	-1.503926e+01
7.005235e+01	-1.508615e+01
7.045697e+01	-1.513536e+01
7.086393e+01	-1.518428e+01
7.127323e+01	-1.523292e+01
7.168490e+01	-1.528090e+01
7.209895e+01	-1.532911e+01
7.251539e+01	-1.537695e+01
7.293424e+01	-1.542607e+01
7.335551e+01	-1.547460e+01
7.377920e+01	-1.552395e+01
7.420535e+01	-1.557333e+01
7.463396e+01	-1.562082e+01
7.506504e+01	-1.566948e+01
7.549861e+01	-1.571833e+01
7.593469e+01	-1.576597e+01
7.637328e+01	-1.581639e+01
7.681441e+01	-1.586480e+01
7.725809e+01	-1.591317e+01
7.770433e+01	-1.596229e+01
7.815315e+01	-1.601053e+01
7.860456e+01	-1.605986e+01
7.905857e+01	-1.610680e+01
7.951521e+01	-1.615718e+01
7.997449e+01	-1.620620e+01
8.043642e+01	-1.625595e+01
8.090102e+01	-1.630504e+01
8.136830e+01	-1.635298e+01
8.183828e+01	-1.640129e+01
8.231097e+01	-1.645059e+01
8.278640e+01	-1.649939e+01
8.326457e+01	-1.654887e+01
8.374550e+01	-1.659740e+01
8.422921e+01	-1.664658e+01
8.471572e+01	-1.669514e+01
8.520503e+01	-1.674499e+01
8.569717e+01	-1.679284e+01
8.619215e+01	-1.684196e+01
8.669000e+01	-1.689151e+01
8.719071e+01	-1.694008e+01
8.769432e+01	-1.699030e+01
8.820084e+01	-1.703751e+01
8.871029e+01	-1.708697e+01
8.922267e+01	-1.713658e+01
8.973802e+01	-1.718483e+01
9.025634e+01	-1.723523e+01
9.077766e+01	-1.728377e+01
9.130199e+01	-1.733357e+01
9.182935e+01	-1.738280e+01
9.235975e+01	-1.743059e+01
9.289321e+01	-1.748144e+01
9.342976e+01	-1.752984e+01
9.396941e+01	-1.757779e+01
9.451217e+01	-1.762672e+01
9.505807e+01	-1.767612e+01
9.560712e+01	-1.772568e+01
9.615934e+01	-1.777489e+01
9.671476e+01	-1.782394e+01
9.727338e+01	-1.787441e+01
9.783522e+01	-1.792234e+01
9.840032e+01	-1.797227e+01
9.896867e+01	-1.802043e+01
9.954031e+01	-1.806951e+01
1.001153e+02	-1.812003e+01
1.006935e+02	-1.816844e+01
1.012751e+02	-1.821750e+01
1.018601e+02	-1.826755e+01
1.024484e+02	-1.831647e+01
1.030402e+02	-1.836556e+01
1.036353e+02	-1.841502e+01
1.042339e+02	-1.846434e+01
1.048360e+02	-1.851325e+01
1.054415e+02	-1.856319e+01
1.060505e+02	-1.861227e+01
1.066631e+02	-1.866245e+01
1.072791e+02	-1.871087e+01
1.078988e+02	-1.876190e+01
1.085220e+02	-1.881061e+01
1.091488e+02	-1.885884e+01
1.097793e+02	-1.890892e+01
1.104133e+02	-1.895824e+01
1.110511e+02	-1.900731e+01
1.116925e+02	-1.905718e+01
1.123376e+02	-1.910630e+01
1.129865e+02	-1.915563e+01
1.136391e+02	-1.920651e+01
1.142955e+02	-1.925442e+01
1.149556e+02	-1.930538e+01
1.156196e+02	-1.935303e+01
1.162874e+02	-1.940299e+01
1.169591e+02	-1.945237e+01
1.176347e+02	-1.950236e+01
1.183141e+02	-1.955092e+01
1.189975e+02	-1.959985e+01
1.196848e+02	-1.964959e+01
1.203761e+02	-1.969929e+01
1.210714e+02	-1.974946e+01
1.217707e+02	-1.979933e+01
1.224740e+02	-1.984900e+01
1.231814e+02	-1.989887e+01
1.238929e+02	-1.994656e+01
1.246085e+02	-1.999587e+01
1.253283e+02	-2.004815e+01
1.260522e+02	-2.009586e+01
1.267802e+02	-2.014464e+01
1.275125e+02	-2.019416e+01
1.282490e+02	-2.024376e+01
1.289898e+02	-2.029592e+01
1.297348e+02	-2.034424e+01
1.304842e+02	-2.039235e+01
1.312378e+02	-2.044356e+01
1.319959e+02	-2.049161e+01
1.327583e+02	-2.054258e+01
1.335251e+02	-2.059249e+01
1.342963e+02	-2.064204e+01
1.350720e+02	-2.068930e+01
1.358522e+02	-2.074002e+01
1.366368e+02	-2.079105e+01
1.374260e+02	-2.083989e+01
1.382198e+02	-2.088911e+01
1.390182e+02	-2.093897e+01
1.398211e+02	-2.098531e+01
1.406287e+02	-2.103959e+01
1.414410e+02	-2.108668e+01
1.422579e+02	-2.113594e+01
1.430796e+02	-2.118619e+01
1.439060e+02	-2.123748e+01
1.447372e+02	-2.128676e+01
1.455732e+02	-2.133513e+01
1.464141e+02	-2.138546e+01
1.472597e+02	-2.143627e+01
1.481103e+02	-2.148423e+01
1.489658e+02	-2.153469e+01
1.498262e+02	-2.158373e+01
1.506916e+02	-2.163474e+01
1.515620e+02	-2.168431e+01
1.524374e+02	-2.173373e+01
1.533179e+02	-2.178315e+01
1.542034e+02	-2.183308e+01
1.550941e+02	-2.188210e+01
1.559899e+02	-2.193351e+01
1.568909e+02	-2.198308e+01
1.577971e+02	-2.203287e+01
1.587085e+02	-2.208177e+01
1.596252e+02	-2.212958e+01
1.605472e+02	-2.218031e+01
1.614745e+02	-2.223226e+01
1.624072e+02	-2.228265e+01
1.633453e+02	-2.232872e+01
1.642887e+02	-2.238004e+01
1.652377e+02	-2.243046e+01
1.661921e+02	-2.247872e+01
1.671520e+02	-2.252897e+01
1.681175e+02	-2.258140e+01
1.690885e+02	-2.263033e+01
1.700651e+02	-2.267838e+01
1.710474e+02	-2.272936e+01
1.720354e+02	-2.278141e+01
1.730291e+02	-2.282886e+01
1.740285e+02	-2.287854e+01
1.750337e+02	-2.292798e+01
1.760446e+02	-2.297693e+01
1.770615e+02	-2.302951e+01
1.780842e+02	-2.307997e+01
1.791128e+02	-2.312748e+01
1.801473e+02	-2.317325e+01
1.811878e+02	-2.322553e+01
1.822344e+02	-2.327775e+01
1.832870e+02	-2.332557e+01
1.843456e+02	-2.337713e+01
1.854104e+02	-2.342651e+01
1.864813e+02	-2.347472e+01
1.875584e+02	-2.352709e+01
1.886418e+02	-2.357759e+01
1.897313e+02	-2.362644e+01
1.908272e+02	-2.367295e+01
1.919294e+02	-2.372355e+01
1.930380e+02	-2.377523e+01
1.941530e+02	-2.382435e+01
1.952744e+02	-2.387284e+01
1.964023e+02	-2.392502e+01
1.975367e+02	-2.397625e+01
1.986777e+02	-2.402216e+01
1.998252e+02	-2.407466e+01
2.009794e+02	-2.412482e+01
2.021403e+02	-2.417144e+01
2.033078e+02	-2.422656e+01
2.044821e+02	-2.427475e+01
2.056632e+02	-2.432195e+01
2.068511e+02	-2.437230e+01
2.080459e+02	-2.442228e+01
2.092475e+02	-2.447183e+01
2.104561e+02	-2.452396e+01
2.116717e+02	-2.457583e+01
2.128943e+02	-2.462125e+01
2.141240e+02	-2.467251e+01
2.153608e+02	-2.472119e+01
2.166047e+02	-2.477080e+01
2.178558e+02	-2.482432e+01
2.191141e+02	-2.487280e+01
2.203797e+02	-2.492390e+01
2.216526e+02	-2.497211e+01
2.229329e+02	-2.502256e+01
2.242205e+02	-2.507224e+01
2.255156e+02	-2.512119e+01
2.268182e+02	-2.517112e+01
2.281283e+02	-2.522095e+01
2.294459e+02	-2.526918e+01
2.307712e+02	-2.532038e+01
2.321041e+02	-2.537252e+01
2.334447e+02	-2.542021e+01
2.347931e+02	-2.547306e+01
2.361493e+02	-2.551964e+01
2.375133e+02	-2.557232e+01
2.388851e+02	-2.562191e+01
2.402649e+02	-2.567367e+01
2.416527e+02	-2.572082e+01
2.430484e+02	-2.577037e+01
2.444523e+02	-2.582187e+01
2.458642e+02	-2.587001e+01
2.472843e+02	-2.592101e+01
2.487126e+02	-2.596885e+01
2.501492e+02	-2.602113e+01
2.515940e+02	-2.607095e+01
2.530472e+02	-2.612110e+01
2.545088e+02	-2.617205e+01
2.559789e+02	-2.621837e+01
2.574574e+02	-2.626928e+01
2.589444e+02	-2.632351e+01
2.604401e+02	-2.637136e+01
2.619444e+02	-2.642192e+01
2.634574e+02	-2.647078e+01
2.649791e+02	-2.651930e+01
2.665096e+02	-2.657148e+01
2.680489e+02	-2.662183e+01
2.695972e+02	-2.667087e+01
2.711544e+02	-2.671874e+01
2.727205e+02	-2.676601e+01
2.742958e+02	-2.682083e+01
2.758801e+02	-2.687185e+01
2.774736e+02	-2.692353e+01
2.790762e+02	-2.697223e+01
2.806882e+02	-2.701943e+01
2.823094e+02	-2.706647e+01
2.839400e+02	-2.711719e+01
2.855800e+02	-2.716950e+01
2.872295e+02	-2.722227e+01
2.888886e+02	-2.727374e+01
2.905572e+02	-2.731741e+01
2.922354e+02	-2.736626e+01
2.939234e+02	-2.741842e+01
2.956211e+02	-2.746933e+01
2.973286e+02	-2.752082e+01
2.990459e+02	-2.757224e+01
3.007732e+02	-2.762075e+01
3.025104e+02	-2.766706e+01
3.042577e+02	-2.771924e+01
3.060151e+02	-2.776940e+01
3.077826e+02	-2.782102e+01
3.095604e+02	-2.787117e+01
3.113484e+02	-2.791920e+01
3.131467e+02	-2.797028e+01
3.149554e+02	-2.801771e+01
3.167746e+02	-2.807239e+01
3.186043e+02	-2.811883e+01
3.204445e+02	-2.816938e+01
3.222954e+02	-2.822010e+01
3.241570e+02	-2.826993e+01
3.260293e+02	-2.831716e+01
3.279124e+02	-2.836902e+01
3.298064e+02	-2.842102e+01
3.317114e+02	-2.846937e+01
3.336273e+02	-2.851948e+01
3.355544e+02	-2.856883e+01
3.374925e+02	-2.862436e+01
3.394418e+02	-2.867094e+01
3.414024e+02	-2.871990e+01
3.433744e+02	-2.877435e+01
3.453577e+02	-2.882060e+01
3.473525e+02	-2.886987e+01
3.493588e+02	-2.891786e+01
3.513766e+02	-2.896768e+01
3.534062e+02	-2.902215e+01
3.554474e+02	-2.907178e+01
3.575005e+02	-2.911991e+01
3.595654e+02	-2.916992e+01
3.616422e+02	-2.922121e+01
3.637311e+02	-2.927545e+01
3.658320e+02	-2.932235e+01
3.679450e+02	-2.936909e+01
3.700702e+02	-2.942081e+01
3.722077e+02	-2.946948e+01
3.743576e+02	-2.951903e+01
3.765199e+02	-2.956926e+01
3.786946e+02	-2.962435e+01
3.808820e+02	-2.966660e+01
3.830819e+02	-2.972342e+01
3.852946e+02	-2.977225e+01
3.875200e+02	-2.981971e+01
3.897583e+02	-2.986958e+01
3.920096e+02	-2.991740e+01
3.942738e+02	-2.996931e+01
3.965511e+02	-3.001902e+01
3.988416e+02	-3.007246e+01
4.011452e+02	-3.012245e+01
4.034622e+02	-3.017126e+01
4.057926e+02	-3.022439e+01
4.081365e+02	-3.027178e+01
4.104938e+02	-3.031994e+01
4.128648e+02	-3.036832e+01
4.152495e+02	-3.042043e+01
4.176480e+02	-3.046783e+01
4.200603e+02	-3.052490e+01
4.224866e+02	-3.057350e+01
4.249268e+02	-3.062452e+01
4.273812e+02	-3.067559e+01
4.298497e+02	-3.072694e+01
4.323325e+02	-3.077524e+01
4.348297e+02	-3.082542e+01
4.373412e+02	-3.087351e+01
4.398673e+02	-3.092222e+01
4.424079e+02	-3.097456e+01
4.449633e+02	-3.103011e+01
4.475334e+02	-3.107628e+01
4.501183e+02	-3.111497e+01
4.527182e+02	-3.117271e+01
4.553330e+02	-3.122270e+01
4.579630e+02	-3.127077e+01
4.606082e+02	-3.132655e+01
4.632687e+02	-3.137805e+01
4.659445e+02	-3.142499e+01
4.686358e+02	-3.147673e+01
4.713426e+02	-3.152666e+01
4.740650e+02	-3.157480e+01
4.768032e+02	-3.162504e+01
4.795572e+02	-3.167644e+01
4.823271e+02	-3.172761e+01
4.851130e+02	-3.177293e+01
4.879150e+02	-3.182239e+01
4.907332e+02	-3.187810e+01
4.935676e+02	-3.192719e+01
4.964185e+02	-3.197946e+01
4.992858e+02	-3.202825e+01
5.021696e+02	-3.207409e+01
5.050701e+02	-3.212397e+01
5.079874e+02	-3.218274e+01
5.109215e+02	-3.222831e+01
5.138726e+02	-3.227495e+01
5.168407e+02	-3.232733e+01
5.198259e+02	-3.237408e+01
5.228284e+02	-3.243323e+01
5.258482e+02	-3.247949e+01
5.288855e+02	-3.253350e+01
5.319403e+02	-3.258390e+01
5.350128e+02	-3.262516e+01
5.381030e+02	-3.267919e+01
5.412111e+02	-3.273028e+01
5.443371e+02	-3.277978e+01
5.474812e+02	-3.282400e+01
5.506434e+02	-3.288099e+01
5.538239e+02	-3.292985e+01
5.570228e+02	-3.298001e+01
5.602401e+02	-3.302686e+01
5.634760e+02	-3.308507e+01
5.667306e+02	-3.313564e+01
5.700040e+02	-3.318381e+01
5.732964e+02	-3.323592e+01
5.766077e+02	-3.327860e+01
5.799382e+02	-3.332708e+01
5.832879e+02	-3.338833e+01
5.866569e+02	-3.343355e+01
5.900454e+02	-3.347919e+01
5.934535e+02	-3.353362e+01
5.968813e+02	-3.357758e+01
6.003288e+02	-3.363880e+01
6.037963e+02	-3.368729e+01
6.072838e+02	-3.373986e+01
6.107914e+02	-3.378441e+01
6.143194e+02	-3.383895e+01
6.178676e+02	-3.388514e+01
6.214364e+02	-3.393532e+01
6.250258e+02	-3.397577e+01
6.286359e+02	-3.403994e+01
6.322669e+02	-3.408791e+01
6.359189e+02	-3.413557e+01
6.395919e+02	-3.418469e+01
6.432862e+02	-3.423866e+01
6.470017e+02	-3.428305e+01
6.507388e+02	-3.433414e+01
6.544974e+02	-3.438302e+01
6.582778e+02	-3.443427e+01
6.620800e+02	-3.448979e+01
6.659041e+02	-3.453883e+01
6.697504e+02	-3.459852e+01
6.736188e+02	-3.463468e+01
6.775096e+02	-3.469261e+01
6.814229e+02	-3.473746e+01
6.853587e+02	-3.478420e+01
6.893173e+02	-3.484395e+01
6.932988e+02	-3.488291e+01
6.973033e+02	-3.495073e+01
7.013309e+02	-3.499770e+01
