Frequency(Hz)	Magnitude(dB)
1.000000e+01	-2.120220e+00
1.005776e+01	-2.139659e+00
1.011585e+01	-2.159074e+00
1.017428e+01	-2.178841e+00
1.023305e+01	-2.198657e+00
1.029215e+01	-2.218696e+00
1.035160e+01	-2.238779e+00
1.041139e+01	-2.258842e+00
1.047153e+01	-2.279288e+00
1.053201e+01	-2.299762e+00
1.059284e+01	-2.320426e+00
1.065403e+01	-2.341061e+00
1.071556e+01	-2.361873e+00
1.077746e+01	-2.382993e+00
1.083971e+01	-2.404206e+00
1.090232e+01	-2.425708e+00
1.096529e+01	-2.447020e+00
1.102862e+01	-2.468673e+00
1.109232e+01	-2.490604e+00
1.115639e+01	-2.512275e+00
1.122083e+01	-2.534493e+00
1.128564e+01	-2.556559e+00
1.135083e+01	-2.579015e+00
1.141639e+01	-2.601393e+00
1.148233e+01	-2.624207e+00
1.154865e+01	-2.646993e+00
1.161536e+01	-2.669608e+00
1.168245e+01	-2.692525e+00
1.174992e+01	-2.715819e+00
1.181779e+01	-2.738944e+00
1.188605e+01	-2.763018e+00
1.195470e+01	-2.786292e+00
1.202375e+01	-2.810093e+00
1.209320e+01	-2.833931e+00
1.216305e+01	-2.858155e+00
1.223330e+01	-2.882386e+00
1.230396e+01	-2.906462e+00
1.237503e+01	-2.930970e+00
1.244651e+01	-2.955818e+00
1.251840e+01	-2.980673e+00
1.259070e+01	-3.005384e+00
1.266343e+01	-3.030663e+00
1.273657e+01	-3.055306e+00
1.281014e+01	-3.081018e+00
1.288413e+01	-3.106473e+00
1.295855e+01	-3.131841e+00
1.303339e+01	-3.157586e+00
1.310867e+01	-3.183670e+00
1.318439e+01	-3.209749e+00
1.326054e+01	-3.236012e+00
1.333713e+01	-3.262200e+00
1.341417e+01	-3.288817e+00
1.349165e+01	-3.315350e+00
1.356958e+01	-3.342505e+00
1.364795e+01	-3.369305e+00
1.372678e+01	-3.396471e+00
1.380607e+01	-3.423583e+00
1.388581e+01	-3.450797e+00
1.396602e+01	-3.478550e+00
1.404668e+01	-3.506170e+00
1.412782e+01	-3.533951e+00
1.420942e+01	-3.562021e+00
1.429149e+01	-3.589888e+00
1.437404e+01	-3.618145e+00
1.445706e+01	-3.646306e+00
1.454057e+01	-3.674791e+00
1.462455e+01	-3.703682e+00
1.470902e+01	-3.732125e+00
1.479398e+01	-3.761121e+00
1.487943e+01	-3.790259e+00
1.496537e+01	-3.819792e+00
1.505181e+01	-3.848694e+00
1.513875e+01	-3.878406e+00
1.522619e+01	-3.908004e+00
1.531414e+01	-3.937732e+00
1.540259e+01	-3.967280e+00
1.549156e+01	-3.997632e+00
1.558103e+01	-4.027562e+00
1.567103e+01	-4.058200e+00
1.576155e+01	-4.088512e+00
1.585258e+01	-4.119222e+00
1.594415e+01	-4.149745e+00
1.603624e+01	-4.180683e+00
1.612886e+01	-4.211668e+00
1.622202e+01	-4.242861e+00
1.631572e+01	-4.273883e+00
1.640996e+01	-4.305437e+00
1.650474e+01	-4.336622e+00
1.660008e+01	-4.368447e+00
1.669596e+01	-4.400453e+00
1.679239e+01	-4.432362e+00
1.688938e+01	-4.464324e+00
1.698694e+01	-4.496532e+00
1.708505e+01	-4.528645e+00
1.718373e+01	-4.561453e+00
1.728299e+01	-4.593890e+00
1.738281e+01	-4.626626e+00
1.748322e+01	-4.659596e+00
1.758420e+01	-4.692449e+00
1.768576e+01	-4.725652e+00
1.778792e+01	-4.758927e+00
1.789066e+01	-4.791941e+00
1.799399e+01	-4.825635e+00
1.809793e+01	-4.859283e+00
1.820246e+01	-4.892798e+00
1.830760e+01	-4.927059e+00
1.841334e+01	-4.961078e+00
1.851969e+01	-4.995037e+00
1.862666e+01	-5.029167e+00
1.873425e+01	-5.063584e+00
1.884246e+01	-5.098144e+00
1.895129e+01	-5.132452e+00
1.906075e+01	-5.167486e+00
1.917085e+01	-5.202587e+00
1.928158e+01	-5.237364e+00
1.939295e+01	-5.272461e+00
1.950496e+01	-5.307792e+00
1.961762e+01	-5.343010e+00
1.973093e+01	-5.378643e+00
1.984490e+01	-5.413932e+00
1.995952e+01	-5.449757e+00
2.007480e+01	-5.485668e+00
2.019076e+01	-5.521489e+00
2.030738e+01	-5.557529e+00
2.042467e+01	-5.593486e+00
2.054264e+01	-5.630213e+00
2.066130e+01	-5.666300e+00
2.078064e+01	-5.702997e+00
2.090066e+01	-5.739699e+00
2.102139e+01	-5.776335e+00
2.114280e+01	-5.813424e+00
2.126492e+01	-5.850026e+00
2.138775e+01	-5.887414e+00
2.151128e+01	-5.924475e+00
2.163553e+01	-5.961522e+00
2.176050e+01	-5.999376e+00
2.188619e+01	-6.036822e+00
2.201260e+01	-6.074097e+00
2.213974e+01	-6.111880e+00
2.226762e+01	-6.149468e+00
2.239624e+01	-6.187791e+00
2.252560e+01	-6.225527e+00
2.265571e+01	-6.264022e+00
2.278656e+01	-6.301831e+00
2.291818e+01	-6.340559e+00
2.305055e+01	-6.379034e+00
2.318369e+01	-6.417315e+00
2.331760e+01	-6.456240e+00
2.345228e+01	-6.494927e+00
2.358774e+01	-6.533861e+00
2.372398e+01	-6.573053e+00
2.386101e+01	-6.611838e+00
2.399883e+01	-6.650812e+00
2.413745e+01	-6.690287e+00
2.427686e+01	-6.729693e+00
2.441709e+01	-6.769178e+00
2.455812e+01	-6.808870e+00
2.469997e+01	-6.848229e+00
2.484263e+01	-6.887906e+00
2.498612e+01	-6.927932e+00
2.513044e+01	-6.967864e+00
2.527559e+01	-7.007874e+00
2.542158e+01	-7.047612e+00
2.556842e+01	-7.087739e+00
2.571610e+01	-7.128843e+00
2.586463e+01	-7.168797e+00
2.601403e+01	-7.209385e+00
2.616428e+01	-7.249749e+00
2.631541e+01	-7.290435e+00
2.646740e+01	-7.330968e+00
2.662028e+01	-7.372095e+00
2.677404e+01	-7.412888e+00
2.692868e+01	-7.454077e+00
2.708422e+01	-7.495062e+00
2.724066e+01	-7.536273e+00
2.739800e+01	-7.577044e+00
2.755625e+01	-7.618390e+00
2.771541e+01	-7.660012e+00
2.787550e+01	-7.701202e+00
2.803650e+01	-7.743166e+00
2.819844e+01	-7.784996e+00
2.836131e+01	-7.826890e+00
2.852513e+01	-7.868402e+00
2.868989e+01	-7.910278e+00
2.885560e+01	-7.951963e+00
2.902227e+01	-7.994544e+00
2.918990e+01	-8.036250e+00
2.935850e+01	-8.078025e+00
2.952807e+01	-8.120867e+00
2.969863e+01	-8.163466e+00
2.987016e+01	-8.205191e+00
3.004269e+01	-8.247919e+00
3.021622e+01	-8.290549e+00
3.039075e+01	-8.333396e+00
3.056628e+01	-8.375981e+00
3.074283e+01	-8.418542e+00
3.092040e+01	-8.461845e+00
3.109900e+01	-8.504649e+00
3.127862e+01	-8.547507e+00
3.145929e+01	-8.590831e+00
3.164099e+01	-8.633916e+00
3.182375e+01	-8.677463e+00
3.200756e+01	-8.720772e+00
3.219244e+01	-8.763280e+00
3.237838e+01	-8.807061e+00
3.256540e+01	-8.850413e+00
3.275349e+01	-8.894067e+00
3.294268e+01	-8.937730e+00
3.313295e+01	-8.981530e+00
3.332433e+01	-9.025539e+00
3.351681e+01	-9.068778e+00
3.371040e+01	-9.112817e+00
3.390511e+01	-9.156723e+00
3.410094e+01	-9.200892e+00
3.429791e+01	-9.244925e+00
3.449601e+01	-9.289197e+00
3.469526e+01	-9.332748e+00
3.489566e+01	-9.377270e+00
3.509721e+01	-9.421480e+00
3.529993e+01	-9.465816e+00
3.550382e+01	-9.510250e+00
3.570889e+01	-9.554633e+00
3.591515e+01	-9.599461e+00
3.612259e+01	-9.643887e+00
3.633123e+01	-9.688303e+00
3.654108e+01	-9.733764e+00
3.675214e+01	-9.777660e+00
3.696442e+01	-9.822580e+00
3.717792e+01	-9.867347e+00
3.739266e+01	-9.912091e+00
3.760864e+01	-9.957070e+00
3.782587e+01	-1.000216e+01
3.804435e+01	-1.004751e+01
3.826409e+01	-1.009263e+01
3.848510e+01	-1.013770e+01
3.870739e+01	-1.018267e+01
3.893096e+01	-1.022843e+01
3.915583e+01	-1.027341e+01
3.938199e+01	-1.031854e+01
3.960946e+01	-1.036403e+01
3.983824e+01	-1.040943e+01
4.006834e+01	-1.045551e+01
4.029978e+01	-1.050064e+01
4.053255e+01	-1.054616e+01
4.076666e+01	-1.059188e+01
4.100213e+01	-1.063831e+01
4.123896e+01	-1.068308e+01
4.147715e+01	-1.072907e+01
4.171672e+01	-1.077498e+01
4.195767e+01	-1.082088e+01
4.220002e+01	-1.086629e+01
4.244377e+01	-1.091292e+01
4.268892e+01	-1.095896e+01
4.293549e+01	-1.100474e+01
4.318348e+01	-1.105091e+01
4.343291e+01	-1.109703e+01
4.368377e+01	-1.114298e+01
4.393609e+01	-1.118896e+01
4.418986e+01	-1.123593e+01
4.444510e+01	-1.128214e+01
4.470182e+01	-1.132807e+01
4.496001e+01	-1.137408e+01
4.521970e+01	-1.142095e+01
4.548089e+01	-1.146745e+01
4.574358e+01	-1.151355e+01
4.600779e+01	-1.156027e+01
4.627353e+01	-1.160664e+01
4.654081e+01	-1.165363e+01
4.680963e+01	-1.170024e+01
4.708000e+01	-1.174632e+01
4.735193e+01	-1.179327e+01
4.762543e+01	-1.184055e+01
4.790051e+01	-1.188634e+01
4.817719e+01	-1.193328e+01
4.845545e+01	-1.198058e+01
4.873533e+01	-1.202791e+01
4.901682e+01	-1.207458e+01
4.929994e+01	-1.212122e+01
4.958470e+01	-1.216767e+01
4.987110e+01	-1.221483e+01
5.015915e+01	-1.226213e+01
5.044887e+01	-1.230957e+01
5.074026e+01	-1.235582e+01
5.103333e+01	-1.240373e+01
5.132810e+01	-1.245060e+01
5.162457e+01	-1.249866e+01
5.192275e+01	-1.254574e+01
5.222265e+01	-1.259355e+01
5.252429e+01	-1.263954e+01
5.282767e+01	-1.268713e+01
5.313280e+01	-1.273412e+01
5.343969e+01	-1.278162e+01
5.374836e+01	-1.282991e+01
5.405880e+01	-1.287650e+01
5.437105e+01	-1.292407e+01
5.468509e+01	-1.297118e+01
5.500095e+01	-1.301805e+01
5.531863e+01	-1.306640e+01
5.563815e+01	-1.311425e+01
5.595951e+01	-1.316175e+01
5.628273e+01	-1.320917e+01
5.660782e+01	-1.325676e+01
5.693479e+01	-1.330481e+01
5.726364e+01	-1.335276e+01
5.759439e+01	-1.339985e+01
5.792705e+01	-1.344767e+01
5.826164e+01	-1.349610e+01
5.859815e+01	-1.354291e+01
5.893662e+01	-1.359133e+01
5.927703e+01	-1.363862e+01
5.961941e+01	-1.368675e+01
5.996377e+01	-1.373501e+01
6.031012e+01	-1.378298e+01
6.065847e+01	-1.383042e+01
6.100883e+01	-1.387879e+01
6.136121e+01	-1.392734e+01
6.171563e+01	-1.397514e+01
6.207210e+01	-1.402284e+01
6.243063e+01	-1.407026e+01
6.279122e+01	-1.411947e+01
6.315390e+01	-1.416721e+01
6.351868e+01	-1.421551e+01
6.388556e+01	-1.426281e+01
6.425456e+01	-1.431188e+01
6.462569e+01	-1.435905e+01
6.499897e+01	-1.440718e+01
6.537440e+01	-1.445688e+01
6.575200e+01	-1.450337e+01
6.613178e+01	-1.455242e+01
6.651375e+01	-1.460109e+01
6.689793e+01	-1.464928e+01
6.728433e+01	-1.469831e+01
6.767297e+01	-1.474583e+01
6.806384e+01	-1.479440e+01
6.845698e+01	-1.484392e+01
6.885238e+01	-1.489100e+01
6.925007e+01	-1.493944e+01
6.965005e+01	-1.498679e+01
7.005235e+01	-1.503608e+01
7.045697e+01	-1.508436e+01
7.086393e+01	-1.513398e+01
7.127323e+01	-1.518145e+01
7.168490e+01	-1.522991e+01
7.209895e+01	-1.527804e+01
7.251539e+01	-1.532654e+01
7.293424e+01	-1.537577e+01
7.335551e+01	-1.542445e+01
7.377920e+01	-1.547258e+01
7.420535e+01	-1.552101e+01
7.463396e+01	-1.557110e+01
7.506504e+01	-1.561923e+01
7.549861e+01	-1.566710e+01
7.593469e+01	-1.571684e+01
7.637328e+01	-1.576553e+01
7.681441e+01	-1.581321e+01
7.725809e+01	-1.586251e+01
7.770433e+01	-1.591142e+01
7.815315e+01	-1.595969e+01
7.860456e+01	-1.600808e+01
7.905857e+01	-1.605797e+01
7.951521e+01	-1.610574e+01
7.997449e+01	-1.615528e+01
8.043642e+01	-1.620448e+01
8.090102e+01	-1.625270e+01
8.136830e+01	-1.630276e+01
8.183828e+01	-1.635082e+01
8.231097e+01	-1.639880e+01
8.278640e+01	-1.644817e+01
8.326457e+01	-1.649707e+01
8.374550e+01	-1.654582e+01
8.422921e+01	-1.659510e+01
8.471572e+01	-1.664384e+01
8.520503e+01	-1.669344e+01
8.569717e+01	-1.674331e+01
8.619215e+01	-1.679066e+01
8.669000e+01	-1.683926e+01
8.719071e+01	-1.688976e+01
8.769432e+01	-1.693782e+01
8.820084e+01	-1.698686e+01
8.871029e+01	-1.703540e+01
8.922267e+01	-1.708520e+01
8.973802e+01	-1.713453e+01
9.025634e+01	-1.718448e+01
9.077766e+01	-1.723297e+01
9.130199e+01	-1.728211e+01
9.182935e+01	-1.733037e+01
9.235975e+01	-1.737887e+01
9.289321e+01	-1.742758e+01
9.342976e+01	-1.747827e+01
9.396941e+01	-1.752710e+01
9.451217e+01	-1.757604e+01
9.505807e+01	-1.762546e+01
9.560712e+01	-1.767301e+01
9.615934e+01	-1.772385e+01
9.671476e+01	-1.777280e+01
9.727338e+01	-1.782302e+01
9.783522e+01	-1.787157e+01
9.840032e+01	-1.792132e+01
9.896867e+01	-1.796831e+01
9.954031e+01	-1.801839e+01
1.001153e+02	-1.806887e+01
1.006935e+02	-1.811630e+01
1.012751e+02	-1.816703e+01
1.018601e+02	-1.821666e+01
1.024484e+02	-1.826432e+01
1.030402e+02	-1.831402e+01
1.036353e+02	-1.836384e+01
1.042339e+02	-1.841459e+01
1.048360e+02	-1.846259e+01
1.054415e+02	-1.851229e+01
1.060505e+02	-1.856036e+01
1.066631e+02	-1.860993e+01
1.072791e+02	-1.865878e+01
1.078988e+02	-1.870946e+01
1.085220e+02	-1.875932e+01
1.091488e+02	-1.880873e+01
1.097793e+02	-1.885710e+01
1.104133e+02	-1.890635e+01
1.110511e+02	-1.895639e+01
1.116925e+02	-1.900668e+01
1.123376e+02	-1.905502e+01
1.129865e+02	-1.910416e+01
1.136391e+02	-1.915392e+01
1.142955e+02	-1.920386e+01
1.149556e+02	-1.925306e+01
1.156196e+02	-1.930217e+01
1.162874e+02	-1.935032e+01
1.169591e+02	-1.939995e+01
1.176347e+02	-1.945099e+01
1.183141e+02	-1.949912e+01
1.189975e+02	-1.955013e+01
1.196848e+02	-1.959941e+01
1.203761e+02	-1.964880e+01
1.210714e+02	-1.969638e+01
1.217707e+02	-1.974787e+01
1.224740e+02	-1.979645e+01
1.231814e+02	-1.984718e+01
1.238929e+02	-1.989662e+01
1.246085e+02	-1.994603e+01
1.253283e+02	-1.999435e+01
1.260522e+02	-2.004381e+01
1.267802e+02	-2.009361e+01
1.275125e+02	-2.014361e+01
1.282490e+02	-2.019360e+01
1.289898e+02	-2.024295e+01
1.297348e+02	-2.029348e+01
1.304842e+02	-2.034240e+01
1.312378e+02	-2.039004e+01
1.319959e+02	-2.044116e+01
1.327583e+02	-2.048970e+01
1.335251e+02	-2.054209e+01
1.342963e+02	-2.058957e+01
1.350720e+02	-2.063901e+01
1.358522e+02	-2.068834e+01
1.366368e+02	-2.073881e+01
1.374260e+02	-2.078837e+01
1.382198e+02	-2.083740e+01
1.390182e+02	-2.088789e+01
1.398211e+02	-2.093650e+01
1.406287e+02	-2.098720e+01
1.414410e+02	-2.103580e+01
1.422579e+02	-2.108462e+01
1.430796e+02	-2.113574e+01
1.439060e+02	-2.118521e+01
1.447372e+02	-2.123528e+01
1.455732e+02	-2.128421e+01
1.464141e+02	-2.133413e+01
1.472597e+02	-2.138275e+01
1.481103e+02	-2.143224e+01
1.489658e+02	-2.148268e+01
1.498262e+02	-2.153364e+01
1.506916e+02	-2.158358e+01
1.515620e+02	-2.163347e+01
1.524374e+02	-2.168250e+01
1.533179e+02	-2.173248e+01
1.542034e+02	-2.178090e+01
1.550941e+02	-2.183228e+01
1.559899e+02	-2.188134e+01
1.568909e+02	-2.193137e+01
1.577971e+02	-2.198068e+01
1.587085e+02	-2.203037e+01
1.596252e+02	-2.208172e+01
1.605472e+02	-2.212951e+01
1.614745e+02	-2.217629e+01
1.624072e+02	-2.222656e+01
1.633453e+02	-2.227819e+01
1.642887e+02	-2.232803e+01
1.652377e+02	-2.237597e+01
1.661921e+02	-2.242850e+01
1.671520e+02	-2.247898e+01
1.681175e+02	-2.252829e+01
1.690885e+02	-2.257809e+01
1.700651e+02	-2.262819e+01
1.710474e+02	-2.267612e+01
1.720354e+02	-2.272753e+01
1.730291e+02	-2.277493e+01
1.740285e+02	-2.282528e+01
1.750337e+02	-2.287718e+01
1.760446e+02	-2.292515e+01
1.770615e+02	-2.297708e+01
1.780842e+02	-2.302549e+01
1.791128e+02	-2.307706e+01
1.801473e+02	-2.312512e+01
1.811878e+02	-2.317550e+01
1.822344e+02	-2.322441e+01
1.832870e+02	-2.327576e+01
1.843456e+02	-2.332406e+01
1.854104e+02	-2.337317e+01
1.864813e+02	-2.342474e+01
1.875584e+02	-2.347371e+01
1.886418e+02	-2.352319e+01
1.897313e+02	-2.357387e+01
1.908272e+02	-2.362484e+01
1.919294e+02	-2.367272e+01
1.930380e+02	-2.372008e+01
1.941530e+02	-2.377240e+01
1.952744e+02	-2.382359e+01
1.964023e+02	-2.387271e+01
1.975367e+02	-2.392233e+01
1.986777e+02	-2.396967e+01
1.998252e+02	-2.402472e+01
2.009794e+02	-2.407239e+01
2.021403e+02	-2.412225e+01
2.033078e+02	-2.417139e+01
2.044821e+02	-2.422121e+01
2.056632e+02	-2.427308e+01
2.068511e+02	-2.432221e+01
2.080459e+02	-2.436855e+01
2.092475e+02	-2.442166e+01
2.104561e+02	-2.447062e+01
2.116717e+02	-2.452285e+01
2.128943e+02	-2.457058e+01
2.141240e+02	-2.461877e+01
2.153608e+02	-2.467023e+01
2.166047e+02	-2.472037e+01
2.178558e+02	-2.476833e+01
2.191141e+02	-2.481931e+01
2.203797e+02	-2.486905e+01
2.216526e+02	-2.491997e+01
2.229329e+02	-2.496782e+01
2.242205e+02	-2.502371e+01
2.255156e+02	-2.506856e+01
2.268182e+02	-2.511907e+01
2.281283e+02	-2.516985e+01
2.294459e+02	-2.522133e+01
2.307712e+02	-2.527113e+01
2.321041e+02	-2.531972e+01
2.334447e+02	-2.536799e+01
2.347931e+02	-2.542219e+01
2.361493e+02	-2.546696e+01
2.375133e+02	-2.552094e+01
2.388851e+02	-2.557029e+01
2.402649e+02	-2.561892e+01
2.416527e+02	-2.566944e+01
2.430484e+02	-2.571831e+01
2.444523e+02	-2.576997e+01
2.458642e+02	-2.581831e+01
2.472843e+02	-2.587125e+01
2.487126e+02	-2.591910e+01
2.501492e+02	-2.597065e+01
2.515940e+02	-2.601635e+01
2.530472e+02	-2.606785e+01
2.545088e+02	-2.611730e+01
2.559789e+02	-2.616581e+01
2.574574e+02	-2.621747e+01
2.589444e+02	-2.627138e+01
2.604401e+02	-2.632197e+01
2.619444e+02	-2.636974e+01
2.634574e+02	-2.641602e+01
2.649791e+02	-2.647087e+01
2.665096e+02	-2.652001e+01
2.680489e+02	-2.656827e+01
2.695972e+02	-2.662206e+01
2.711544e+02	-2.667054e+01
2.727205e+02	-2.671975e+01
2.742958e+02	-2.676763e+01
2.758801e+02	-2.681612e+01
2.774736e+02	-2.686586e+01
2.790762e+02	-2.691837e+01
2.806882e+02	-2.697306e+01
2.823094e+02	-2.701995e+01
2.839400e+02	-2.706788e+01
2.855800e+02	-2.711855e+01
2.872295e+02	-2.716815e+01
2.888886e+02	-2.721771e+01
2.905572e+02	-2.726836e+01
2.922354e+02	-2.731410e+01
2.939234e+02	-2.736881e+01
2.956211e+02	-2.741857e+01
2.973286e+02	-2.746819e+01
2.990459e+02	-2.751595e+01
3.007732e+02	-2.756626e+01
3.025104e+02	-2.761764e+01
3.042577e+02	-2.766950e+01
3.060151e+02	-2.771888e+01
3.077826e+02	-2.777061e+01
3.095604e+02	-2.781816e+01
3.113484e+02	-2.786686e+01
3.131467e+02	-2.792065e+01
3.149554e+02	-2.796997e+01
3.167746e+02	-2.802054e+01
3.186043e+02	-2.806596e+01
3.204445e+02	-2.811610e+01
3.222954e+02	-2.816558e+01
3.241570e+02	-2.821972e+01
3.260293e+02	-2.826657e+01
3.279124e+02	-2.831972e+01
3.298064e+02	-2.836494e+01
3.317114e+02	-2.841718e+01
3.336273e+02	-2.846625e+01
3.355544e+02	-2.852010e+01
3.374925e+02	-2.856956e+01
3.394418e+02	-2.861928e+01
3.414024e+02	-2.866782e+01
3.433744e+02	-2.872034e+01
3.453577e+02	-2.876687e+01
3.473525e+02	-2.882042e+01
3.493588e+02	-2.887172e+01
3.513766e+02	-2.891938e+01
3.534062e+02	-2.897228e+01
3.554474e+02	-2.901972e+01
3.575005e+02	-2.906805e+01
3.595654e+02	-2.911640e+01
3.616422e+02	-2.917028e+01
3.637311e+02	-2.921942e+01
3.658320e+02	-2.927044e+01
3.679450e+02	-2.932086e+01
3.700702e+02	-2.936840e+01
3.722077e+02	-2.941750e+01
3.743576e+02	-2.946971e+01
3.765199e+02	-2.951543e+01
3.786946e+02	-2.956852e+01
3.808820e+02	-2.961977e+01
3.830819e+02	-2.966970e+01
3.852946e+02	-2.972131e+01
3.875200e+02	-2.977007e+01
3.897583e+02	-2.982127e+01
3.920096e+02	-2.986879e+01
3.942738e+02	-2.992231e+01
3.965511e+02	-2.997182e+01
3.988416e+02	-3.001792e+01
4.011452e+02	-3.007018e+01
4.034622e+02	-3.012419e+01
4.057926e+02	-3.016925e+01
4.081365e+02	-3.022457e+01
4.104938e+02	-3.027262e+01
4.128648e+02	-3.031867e+01
4.152495e+02	-3.036703e+01
4.176480e+02	-3.042158e+01
4.200603e+02	-3.047304e+01
4.224866e+02	-3.051818e+01
4.249268e+02	-3.057068e+01
4.273812e+02	-3.062203e+01
4.298497e+02	-3.067474e+01
4.323325e+02	-3.071913e+01
4.348297e+02	-3.077257e+01
4.373412e+02	-3.082289e+01
4.398673e+02	-3.087230e+01
4.424079e+02	-3.092326e+01
4.449633e+02	-3.096783e+01
4.475334e+02	-3.102197e+01
4.501183e+02	-3.107196e+01
4.527182e+02	-3.111732e+01
4.553330e+02	-3.117835e+01
4.579630e+02	-3.122491e+01
4.606082e+02	-3.127512e+01
4.632687e+02	-3.132066e+01
4.659445e+02	-3.137170e+01
4.686358e+02	-3.142054e+01
4.713426e+02	-3.147836e+01
4.740650e+02	-3.152729e+01
4.768032e+02	-3.157466e+01
4.795572e+02	-3.162674e+01
4.823271e+02	-3.167600e+01
4.851130e+02	-3.172137e+01
4.879150e+02	-3.177327e+01
4.907332e+02	-3.182783e+01
4.935676e+02	-3.187827e+01
4.964185e+02	-3.191933e+01
4.992858e+02	-3.197433e+01
5.021696e+02	-3.203358e+01
5.050701e+02	-3.207411e+01
5.079874e+02	-3.212777e+01
5.109215e+02	-3.218024e+01
5.138726e+02	-3.222391e+01
5.168407e+02	-3.227021e+01
5.198259e+02	-3.232300e+01
5.228284e+02	-3.237678e+01
5.258482e+02	-3.242577e+01
5.288855e+02	-3.248368e+01
5.319403e+02	-3.253099e+01
5.350128e+02	-3.258288e+01
5.381030e+02	-3.262857e+01
5.412111e+02	-3.267793e+01
5.443371e+02	-3.272912e+01
5.474812e+02	-3.277861e+01
5.506434e+02	-3.283304e+01
5.538239e+02	-3.288558e+01
5.570228e+02	-3.292852e+01
5.602401e+02	-3.298280e+01
5.634760e+02	-3.303146e+01
5.667306e+02	-3.308145e+01
5.700040e+02	-3.313519e+01
5.732964e+02	-3.317513e+01
5.766077e+02	-3.322495e+01
5.799382e+02	-3.327790e+01
5.832879e+02	-3.333586e+01
5.866569e+02	-3.338753e+01
5.900454e+02	-3.342839e+01
5.934535e+02	-3.348458e+01
5.968813e+02	-3.354120e+01
6.003288e+02	-3.358714e+01
6.037963e+02	-3.363203e+01
6.072838e+02	-3.368881e+01
6.107914e+02	-3.373881e+01
6.143194e+02	-3.379091e+01
6.178676e+02	-3.383892e+01
6.214364e+02	-3.388015e+01
6.250258e+02	-3.394165e+01
6.286359e+02	-3.398404e+01
6.322669e+02	-3.403686e+01
6.359189e+02	-3.409324e+01
6.395919e+02	-3.413129e+01
6.432862e+02	-3.418532e+01
6.470017e+02	-3.424180e+01
6.507388e+02	-3.427910e+01
6.544974e+02	-3.434361e+01
6.582778e+02	-3.439169e+01
6.620800e+02	-3.444572e+01
6.659041e+02	-3.448599e+01
6.697504e+02	-3.453680e+01
6.736188e+02	-3.459351e+01
6.775096e+02	-3.464506e+01
6.814229e+02	-3.468383e+01
6.853587e+02	-3.474173e+01
6.893173e+02	-3.479423e+01
6.932988e+02	-3.483583e+01
6.973033e+02	-3.490164e+01
7.013309e+02	-3.494530e+01
