Frequency(Hz)	Magnitude(dB)
1.000000e+01	-2.065173e+00
1.005776e+01	-2.084538e+00
1.011585e+01	-2.103352e+00
1.017428e+01	-2.122527e+00
1.023305e+01	-2.142059e+00
1.029215e+01	-2.161638e+00
1.035160e+01	-2.181312e+00
1.041139e+01	-2.201207e+00
1.047153e+01	-2.220988e+00
1.053201e+01	-2.240949e+00
1.059284e+01	-2.261424e+00
1.065403e+01	-2.281717e+00
1.071556e+01	-2.302106e+00
1.077746e+01	-2.322962e+00
1.083971e+01	-2.343534e+00
1.090232e+01	-2.364591e+00
1.096529e+01	-2.385631e+00
1.102862e+01	-2.406936e+00
1.109232e+01	-2.428184e+00
1.115639e+01	-2.449768e+00
1.122083e+01	-2.471523e+00
1.128564e+01	-2.493518e+00
1.135083e+01	-2.515199e+00
1.141639e+01	-2.537093e+00
1.148233e+01	-2.559304e+00
1.154865e+01	-2.581737e+00
1.161536e+01	-2.604063e+00
1.168245e+01	-2.626986e+00
1.174992e+01	-2.649533e+00
1.181779e+01	-2.672372e+00
1.188605e+01	-2.695762e+00
1.195470e+01	-2.718821e+00
1.202375e+01	-2.742118e+00
1.209320e+01	-2.765697e+00
1.216305e+01	-2.789184e+00
1.223330e+01	-2.813044e+00
1.230396e+01	-2.837138e+00
1.237503e+01	-2.861177e+00
1.244651e+01	-2.885244e+00
1.251840e+01	-2.909631e+00
1.259070e+01	-2.934252e+00
1.266343e+01	-2.958884e+00
1.273657e+01	-2.983723e+00
1.281014e+01	-3.008397e+00
1.288413e+01	-3.033565e+00
1.295855e+01	-3.058926e+00
1.303339e+01	-3.084209e+00
1.310867e+01	-3.109917e+00
1.318439e+01	-3.135334e+00
1.326054e+01	-3.161148e+00
1.333713e+01	-3.187010e+00
1.341417e+01	-3.213227e+00
1.349165e+01	-3.239319e+00
1.356958e+01	-3.265689e+00
1.364795e+01	-3.292453e+00
1.372678e+01	-3.318905e+00
1.380607e+01	-3.345715e+00
1.388581e+01	-3.372644e+00
1.396602e+01	-3.399789e+00
1.404668e+01	-3.426941e+00
1.412782e+01	-3.454385e+00
1.420942e+01	-3.481848e+00
1.429149e+01	-3.509637e+00
1.437404e+01	-3.537222e+00
1.445706e+01	-3.565249e+00
1.454057e+01	-3.593171e+00
1.462455e+01	-3.621617e+00
1.470902e+01	-3.649824e+00
1.479398e+01	-3.678364e+00
1.487943e+01	-3.707063e+00
1.496537e+01	-3.735993e+00
1.505181e+01	-3.764461e+00
1.513875e+01	-3.793931e+00
1.522619e+01	-3.823003e+00
1.531414e+01	-3.852678e+00
1.540259e+01	-3.881925e+00
1.549156e+01	-3.911727e+00
1.558103e+01	-3.941284e+00
1.567103e+01	-3.971275e+00
1.576155e+01	-4.001303e+00
1.585258e+01	-4.031378e+00
1.594415e+01	-4.062038e+00
1.603624e+01	-4.092491e+00
1.612886e+01	-4.122927e+00
1.622202e+01	-4.153637e+00
1.631572e+01	-4.184141e+00
1.640996e+01	-4.215621e+00
1.650474e+01	-4.246634e+00
1.660008e+01	-4.278056e+00
1.669596e+01	-4.309258e+00
1.679239e+01	-4.340943e+00
1.688938e+01	-4.372440e+00
1.698694e+01	-4.404324e+00
1.708505e+01	-4.436076e+00
1.718373e+01	-4.468177e+00
1.728299e+01	-4.500379e+00
1.738281e+01	-4.532931e+00
1.748322e+01	-4.565367e+00
1.758420e+01	-4.597742e+00
1.768576e+01	-4.630671e+00
1.778792e+01	-4.663388e+00
1.789066e+01	-4.696762e+00
1.799399e+01	-4.729750e+00
1.809793e+01	-4.763075e+00
1.820246e+01	-4.796283e+00
1.830760e+01	-4.829443e+00
1.841334e+01	-4.863512e+00
1.851969e+01	-4.897160e+00
1.862666e+01	-4.931248e+00
1.873425e+01	-4.964979e+00
1.884246e+01	-4.999260e+00
1.895129e+01	-5.033387e+00
1.906075e+01	-5.068054e+00
1.917085e+01	-5.102543e+00
1.928158e+01	-5.137163e+00
1.939295e+01	-5.171452e+00
1.950496e+01	-5.206844e+00
1.961762e+01	-5.241833e+00
1.973093e+01	-5.276800e+00
1.984490e+01	-5.311980e+00
1.995952e+01	-5.347448e+00
2.007480e+01	-5.383137e+00
2.019076e+01	-5.418276e+00
2.030738e+01	-5.454329e+00
2.042467e+01	-5.489960e+00
2.054264e+01	-5.525918e+00
2.066130e+01	-5.562457e+00
2.078064e+01	-5.598051e+00
2.090066e+01	-5.634629e+00
2.102139e+01	-5.670947e+00
2.114280e+01	-5.707728e+00
2.126492e+01	-5.744225e+00
2.138775e+01	-5.780814e+00
2.151128e+01	-5.817538e+00
2.163553e+01	-5.854577e+00
2.176050e+01	-5.891957e+00
2.188619e+01	-5.929147e+00
2.201260e+01	-5.966239e+00
2.213974e+01	-6.003650e+00
2.226762e+01	-6.041176e+00
2.239624e+01	-6.078958e+00
2.252560e+01	-6.116358e+00
2.265571e+01	-6.154489e+00
2.278656e+01	-6.192489e+00
2.291818e+01	-6.230801e+00
2.305055e+01	-6.268982e+00
2.318369e+01	-6.306998e+00
2.331760e+01	-6.345435e+00
2.345228e+01	-6.383908e+00
2.358774e+01	-6.422366e+00
2.372398e+01	-6.461049e+00
2.386101e+01	-6.500085e+00
2.399883e+01	-6.538579e+00
2.413745e+01	-6.577485e+00
2.427686e+01	-6.616694e+00
2.441709e+01	-6.656001e+00
2.455812e+01	-6.695347e+00
2.469997e+01	-6.734615e+00
2.484263e+01	-6.774072e+00
2.498612e+01	-6.813490e+00
2.513044e+01	-6.853387e+00
2.527559e+01	-6.893056e+00
2.542158e+01	-6.932649e+00
2.556842e+01	-6.972523e+00
2.571610e+01	-7.012941e+00
2.586463e+01	-7.052935e+00
2.601403e+01	-7.093039e+00
2.616428e+01	-7.133493e+00
2.631541e+01	-7.173833e+00
2.646740e+01	-7.214187e+00
2.662028e+01	-7.254854e+00
2.677404e+01	-7.295159e+00
2.692868e+01	-7.336256e+00
2.708422e+01	-7.377000e+00
2.724066e+01	-7.417809e+00
2.739800e+01	-7.458923e+00
2.755625e+01	-7.500352e+00
2.771541e+01	-7.541147e+00
2.787550e+01	-7.582488e+00
2.803650e+01	-7.623350e+00
2.819844e+01	-7.665575e+00
2.836131e+01	-7.707066e+00
2.852513e+01	-7.748042e+00
2.868989e+01	-7.789697e+00
2.885560e+01	-7.831674e+00
2.902227e+01	-7.873645e+00
2.918990e+01	-7.915624e+00
2.935850e+01	-7.957725e+00
2.952807e+01	-7.999574e+00
2.969863e+01	-8.041540e+00
2.987016e+01	-8.083472e+00
3.004269e+01	-8.125717e+00
3.021622e+01	-8.169095e+00
3.039075e+01	-8.210866e+00
3.056628e+01	-8.253571e+00
3.074283e+01	-8.296105e+00
3.092040e+01	-8.338643e+00
3.109900e+01	-8.381394e+00
3.127862e+01	-8.423950e+00
3.145929e+01	-8.467109e+00
3.164099e+01	-8.510544e+00
3.182375e+01	-8.553319e+00
3.200756e+01	-8.596243e+00
3.219244e+01	-8.638845e+00
3.237838e+01	-8.682240e+00
3.256540e+01	-8.726192e+00
3.275349e+01	-8.768862e+00
3.294268e+01	-8.812758e+00
3.313295e+01	-8.855847e+00
3.332433e+01	-8.899541e+00
3.351681e+01	-8.943303e+00
3.371040e+01	-8.987106e+00
3.390511e+01	-9.030681e+00
3.410094e+01	-9.073843e+00
3.429791e+01	-9.118838e+00
3.449601e+01	-9.162220e+00
3.469526e+01	-9.205967e+00
3.489566e+01	-9.250412e+00
3.509721e+01	-9.294222e+00
3.529993e+01	-9.338656e+00
3.550382e+01	-9.382827e+00
3.570889e+01	-9.427168e+00
3.591515e+01	-9.471969e+00
3.612259e+01	-9.515551e+00
3.633123e+01	-9.560576e+00
3.654108e+01	-9.604891e+00
3.675214e+01	-9.649044e+00
3.696442e+01	-9.693743e+00
3.717792e+01	-9.738907e+00
3.739266e+01	-9.783947e+00
3.760864e+01	-9.828068e+00
3.782587e+01	-9.872876e+00
3.804435e+01	-9.917715e+00
3.826409e+01	-9.962708e+00
3.848510e+01	-1.000825e+01
3.870739e+01	-1.005246e+01
3.893096e+01	-1.009825e+01
3.915583e+01	-1.014300e+01
3.938199e+01	-1.018864e+01
3.960946e+01	-1.023306e+01
3.983824e+01	-1.027884e+01
4.006834e+01	-1.032423e+01
4.029978e+01	-1.036986e+01
4.053255e+01	-1.041517e+01
4.076666e+01	-1.046083e+01
4.100213e+01	-1.050621e+01
4.123896e+01	-1.055219e+01
4.147715e+01	-1.059741e+01
4.171672e+01	-1.064376e+01
4.195767e+01	-1.068899e+01
4.220002e+01	-1.073489e+01
4.244377e+01	-1.078055e+01
4.268892e+01	-1.082639e+01
4.293549e+01	-1.087193e+01
4.318348e+01	-1.091814e+01
4.343291e+01	-1.096440e+01
4.368377e+01	-1.101073e+01
4.393609e+01	-1.105618e+01
4.418986e+01	-1.110270e+01
4.444510e+01	-1.114867e+01
4.470182e+01	-1.119489e+01
4.496001e+01	-1.124119e+01
4.521970e+01	-1.128780e+01
4.548089e+01	-1.133372e+01
4.574358e+01	-1.138044e+01
4.600779e+01	-1.142650e+01
4.627353e+01	-1.147323e+01
4.654081e+01	-1.151930e+01
4.680963e+01	-1.156574e+01
4.708000e+01	-1.161292e+01
4.735193e+01	-1.165898e+01
4.762543e+01	-1.170591e+01
4.790051e+01	-1.175287e+01
4.817719e+01	-1.179954e+01
4.845545e+01	-1.184620e+01
4.873533e+01	-1.189301e+01
4.901682e+01	-1.193862e+01
4.929994e+01	-1.198610e+01
4.958470e+01	-1.203317e+01
4.987110e+01	-1.208083e+01
5.015915e+01	-1.212678e+01
5.044887e+01	-1.217328e+01
5.074026e+01	-1.222155e+01
5.103333e+01	-1.226783e+01
5.132810e+01	-1.231539e+01
5.162457e+01	-1.236222e+01
5.192275e+01	-1.240918e+01
5.222265e+01	-1.245643e+01
5.252429e+01	-1.250308e+01
5.282767e+01	-1.255020e+01
5.313280e+01	-1.259818e+01
5.343969e+01	-1.264536e+01
5.374836e+01	-1.269292e+01
5.405880e+01	-1.274003e+01
5.437105e+01	-1.278758e+01
5.468509e+01	-1.283476e+01
5.500095e+01	-1.288244e+01
5.531863e+01	-1.293008e+01
5.563815e+01	-1.297726e+01
5.595951e+01	-1.302447e+01
5.628273e+01	-1.307243e+01
5.660782e+01	-1.312005e+01
5.693479e+01	-1.316765e+01
5.726364e+01	-1.321548e+01
5.759439e+01	-1.326298e+01
5.792705e+01	-1.331077e+01
5.826164e+01	-1.335809e+01
5.859815e+01	-1.340557e+01
5.893662e+01	-1.345303e+01
5.927703e+01	-1.350175e+01
5.961941e+01	-1.355029e+01
5.996377e+01	-1.359649e+01
6.031012e+01	-1.364536e+01
6.065847e+01	-1.369284e+01
6.100883e+01	-1.374079e+01
6.136121e+01	-1.378919e+01
6.171563e+01	-1.383728e+01
6.207210e+01	-1.388451e+01
6.243063e+01	-1.393344e+01
6.279122e+01	-1.398057e+01
6.315390e+01	-1.402902e+01
6.351868e+01	-1.407633e+01
6.388556e+01	-1.412433e+01
6.425456e+01	-1.417309e+01
6.462569e+01	-1.422116e+01
6.499897e+01	-1.426918e+01
6.537440e+01	-1.431749e+01
6.575200e+01	-1.436625e+01
6.613178e+01	-1.441298e+01
6.651375e+01	-1.446296e+01
6.689793e+01	-1.450993e+01
6.728433e+01	-1.455822e+01
6.767297e+01	-1.460751e+01
6.806384e+01	-1.465461e+01
6.845698e+01	-1.470345e+01
6.885238e+01	-1.475165e+01
6.925007e+01	-1.480027e+01
6.965005e+01	-1.484881e+01
7.005235e+01	-1.489718e+01
7.045697e+01	-1.494521e+01
7.086393e+01	-1.499417e+01
7.127323e+01	-1.504331e+01
7.168490e+01	-1.509043e+01
7.209895e+01	-1.513923e+01
7.251539e+01	-1.518801e+01
7.293424e+01	-1.523604e+01
7.335551e+01	-1.528532e+01
7.377920e+01	-1.533320e+01
7.420535e+01	-1.538221e+01
7.463396e+01	-1.543046e+01
7.506504e+01	-1.547919e+01
7.549861e+01	-1.552724e+01
7.593469e+01	-1.557607e+01
7.637328e+01	-1.562429e+01
7.681441e+01	-1.567373e+01
7.725809e+01	-1.572288e+01
7.770433e+01	-1.577084e+01
7.815315e+01	-1.581997e+01
7.860456e+01	-1.586825e+01
7.905857e+01	-1.591744e+01
7.951521e+01	-1.596584e+01
7.997449e+01	-1.601405e+01
8.043642e+01	-1.606405e+01
8.090102e+01	-1.611275e+01
8.136830e+01	-1.616079e+01
8.183828e+01	-1.621039e+01
8.231097e+01	-1.625865e+01
8.278640e+01	-1.630764e+01
8.326457e+01	-1.635730e+01
8.374550e+01	-1.640518e+01
8.422921e+01	-1.645496e+01
8.471572e+01	-1.650310e+01
8.520503e+01	-1.655328e+01
8.569717e+01	-1.660122e+01
8.619215e+01	-1.664916e+01
8.669000e+01	-1.669878e+01
8.719071e+01	-1.674760e+01
8.769432e+01	-1.679727e+01
8.820084e+01	-1.684728e+01
8.871029e+01	-1.689418e+01
8.922267e+01	-1.694393e+01
8.973802e+01	-1.699251e+01
9.025634e+01	-1.704192e+01
9.077766e+01	-1.709057e+01
9.130199e+01	-1.714035e+01
9.182935e+01	-1.718821e+01
9.235975e+01	-1.723829e+01
9.289321e+01	-1.728648e+01
9.342976e+01	-1.733657e+01
9.396941e+01	-1.738647e+01
9.451217e+01	-1.743445e+01
9.505807e+01	-1.748470e+01
9.560712e+01	-1.753311e+01
9.615934e+01	-1.758267e+01
9.671476e+01	-1.763030e+01
9.727338e+01	-1.768058e+01
9.783522e+01	-1.773112e+01
9.840032e+01	-1.777859e+01
9.896867e+01	-1.782772e+01
9.954031e+01	-1.787715e+01
1.001153e+02	-1.792576e+01
1.006935e+02	-1.797524e+01
1.012751e+02	-1.802474e+01
1.018601e+02	-1.807332e+01
1.024484e+02	-1.812360e+01
1.030402e+02	-1.817296e+01
1.036353e+02	-1.822300e+01
1.042339e+02	-1.827176e+01
1.048360e+02	-1.832174e+01
1.054415e+02	-1.837010e+01
1.060505e+02	-1.841953e+01
1.066631e+02	-1.846930e+01
1.072791e+02	-1.851836e+01
1.078988e+02	-1.856791e+01
1.085220e+02	-1.861631e+01
1.091488e+02	-1.866674e+01
1.097793e+02	-1.871502e+01
1.104133e+02	-1.876526e+01
1.110511e+02	-1.881361e+01
1.116925e+02	-1.886231e+01
1.123376e+02	-1.891158e+01
1.129865e+02	-1.896317e+01
1.136391e+02	-1.901269e+01
1.142955e+02	-1.906141e+01
1.149556e+02	-1.910931e+01
1.156196e+02	-1.916007e+01
1.162874e+02	-1.920874e+01
1.169591e+02	-1.925910e+01
1.176347e+02	-1.930910e+01
1.183141e+02	-1.935713e+01
1.189975e+02	-1.940747e+01
1.196848e+02	-1.945711e+01
1.203761e+02	-1.950805e+01
1.210714e+02	-1.955607e+01
1.217707e+02	-1.960515e+01
1.224740e+02	-1.965631e+01
1.231814e+02	-1.970413e+01
1.238929e+02	-1.975445e+01
1.246085e+02	-1.980432e+01
1.253283e+02	-1.985171e+01
1.260522e+02	-1.990160e+01
1.267802e+02	-1.995154e+01
1.275125e+02	-2.000003e+01
1.282490e+02	-2.005116e+01
1.289898e+02	-2.009777e+01
1.297348e+02	-2.014953e+01
1.304842e+02	-2.020045e+01
1.312378e+02	-2.024770e+01
1.319959e+02	-2.029777e+01
1.327583e+02	-2.034616e+01
1.335251e+02	-2.039740e+01
1.342963e+02	-2.044653e+01
1.350720e+02	-2.049625e+01
1.358522e+02	-2.054642e+01
1.366368e+02	-2.059673e+01
1.374260e+02	-2.064575e+01
1.382198e+02	-2.069432e+01
1.390182e+02	-2.074323e+01
1.398211e+02	-2.079271e+01
1.406287e+02	-2.084417e+01
1.414410e+02	-2.089416e+01
1.422579e+02	-2.094549e+01
1.430796e+02	-2.099244e+01
1.439060e+02	-2.104137e+01
1.447372e+02	-2.109112e+01
1.455732e+02	-2.114148e+01
1.464141e+02	-2.119052e+01
1.472597e+02	-2.124139e+01
1.481103e+02	-2.129146e+01
1.489658e+02	-2.134146e+01
1.498262e+02	-2.139257e+01
1.506916e+02	-2.143830e+01
1.515620e+02	-2.149072e+01
1.524374e+02	-2.153814e+01
1.533179e+02	-2.158726e+01
1.542034e+02	-2.163692e+01
1.550941e+02	-2.168796e+01
1.559899e+02	-2.173691e+01
1.568909e+02	-2.178764e+01
1.577971e+02	-2.183765e+01
1.587085e+02	-2.188756e+01
1.596252e+02	-2.193656e+01
1.605472e+02	-2.198665e+01
1.614745e+02	-2.203717e+01
1.624072e+02	-2.208784e+01
1.633453e+02	-2.213570e+01
1.642887e+02	-2.218423e+01
1.652377e+02	-2.223819e+01
1.661921e+02	-2.228403e+01
1.671520e+02	-2.233559e+01
1.681175e+02	-2.238515e+01
1.690885e+02	-2.243407e+01
1.700651e+02	-2.248545e+01
1.710474e+02	-2.253520e+01
1.720354e+02	-2.258385e+01
1.730291e+02	-2.263390e+01
1.740285e+02	-2.268437e+01
1.750337e+02	-2.273436e+01
1.760446e+02	-2.278201e+01
1.770615e+02	-2.283319e+01
1.780842e+02	-2.288183e+01
1.791128e+02	-2.293031e+01
1.801473e+02	-2.298166e+01
1.811878e+02	-2.303068e+01
1.822344e+02	-2.308377e+01
1.832870e+02	-2.313194e+01
1.843456e+02	-2.318367e+01
1.854104e+02	-2.323035e+01
1.864813e+02	-2.328128e+01
1.875584e+02	-2.333112e+01
1.886418e+02	-2.338163e+01
1.897313e+02	-2.343010e+01
1.908272e+02	-2.347995e+01
1.919294e+02	-2.353117e+01
1.930380e+02	-2.358190e+01
1.941530e+02	-2.362951e+01
1.952744e+02	-2.367722e+01
1.964023e+02	-2.372658e+01
1.975367e+02	-2.377649e+01
1.986777e+02	-2.382815e+01
1.998252e+02	-2.387959e+01
2.009794e+02	-2.392788e+01
2.021403e+02	-2.397734e+01
2.033078e+02	-2.403040e+01
2.044821e+02	-2.408162e+01
2.056632e+02	-2.412739e+01
2.068511e+02	-2.417590e+01
2.080459e+02	-2.422940e+01
2.092475e+02	-2.427744e+01
2.104561e+02	-2.432659e+01
2.116717e+02	-2.437686e+01
2.128943e+02	-2.442544e+01
2.141240e+02	-2.447895e+01
2.153608e+02	-2.452814e+01
2.166047e+02	-2.457864e+01
2.178558e+02	-2.462814e+01
2.191141e+02	-2.467652e+01
2.203797e+02	-2.472645e+01
2.216526e+02	-2.477825e+01
2.229329e+02	-2.482590e+01
2.242205e+02	-2.487503e+01
2.255156e+02	-2.492408e+01
2.268182e+02	-2.497553e+01
2.281283e+02	-2.502412e+01
2.294459e+02	-2.507599e+01
2.307712e+02	-2.512487e+01
2.321041e+02	-2.517359e+01
2.334447e+02	-2.522356e+01
2.347931e+02	-2.527454e+01
2.361493e+02	-2.532739e+01
2.375133e+02	-2.537669e+01
2.388851e+02	-2.542410e+01
2.402649e+02	-2.547445e+01
2.416527e+02	-2.552230e+01
2.430484e+02	-2.557475e+01
2.444523e+02	-2.562438e+01
2.458642e+02	-2.567510e+01
2.472843e+02	-2.572802e+01
2.487126e+02	-2.577345e+01
2.501492e+02	-2.582430e+01
2.515940e+02	-2.587883e+01
2.530472e+02	-2.592421e+01
2.545088e+02	-2.597209e+01
2.559789e+02	-2.602252e+01
2.574574e+02	-2.607492e+01
2.589444e+02	-2.612531e+01
2.604401e+02	-2.617532e+01
2.619444e+02	-2.622379e+01
2.634574e+02	-2.627055e+01
2.649791e+02	-2.632322e+01
2.665096e+02	-2.637391e+01
2.680489e+02	-2.641951e+01
2.695972e+02	-2.647267e+01
2.711544e+02	-2.652211e+01
2.727205e+02	-2.657414e+01
2.742958e+02	-2.662455e+01
2.758801e+02	-2.667246e+01
2.774736e+02	-2.672153e+01
2.790762e+02	-2.677350e+01
2.806882e+02	-2.682511e+01
2.823094e+02	-2.687644e+01
2.839400e+02	-2.692600e+01
2.855800e+02	-2.697332e+01
2.872295e+02	-2.702249e+01
2.888886e+02	-2.707141e+01
2.905572e+02	-2.712607e+01
2.922354e+02	-2.717130e+01
2.939234e+02	-2.722370e+01
2.956211e+02	-2.727348e+01
2.973286e+02	-2.732367e+01
2.990459e+02	-2.737194e+01
3.007732e+02	-2.742488e+01
3.025104e+02	-2.747327e+01
3.042577e+02	-2.752258e+01
3.060151e+02	-2.757284e+01
3.077826e+02	-2.762260e+01
3.095604e+02	-2.767766e+01
3.113484e+02	-2.772624e+01
3.131467e+02	-2.777770e+01
3.149554e+02	-2.782473e+01
3.167746e+02	-2.787443e+01
3.186043e+02	-2.792295e+01
3.204445e+02	-2.797222e+01
3.222954e+02	-2.802643e+01
3.241570e+02	-2.806969e+01
3.260293e+02	-2.812877e+01
3.279124e+02	-2.817629e+01
3.298064e+02	-2.822522e+01
3.317114e+02	-2.827725e+01
3.336273e+02	-2.832136e+01
3.355544e+02	-2.837462e+01
3.374925e+02	-2.842256e+01
3.394418e+02	-2.847334e+01
3.414024e+02	-2.852658e+01
3.433744e+02	-2.857657e+01
3.453577e+02	-2.862314e+01
3.473525e+02	-2.867679e+01
3.493588e+02	-2.872530e+01
3.513766e+02	-2.877215e+01
3.534062e+02	-2.882479e+01
3.554474e+02	-2.887712e+01
3.575005e+02	-2.892556e+01
3.595654e+02	-2.897297e+01
3.616422e+02	-2.902586e+01
3.637311e+02	-2.907710e+01
3.658320e+02	-2.912507e+01
3.679450e+02	-2.918087e+01
3.700702e+02	-2.922525e+01
3.722077e+02	-2.927715e+01
3.743576e+02	-2.932736e+01
3.765199e+02	-2.937223e+01
3.786946e+02	-2.942473e+01
3.808820e+02	-2.947768e+01
3.830819e+02	-2.952618e+01
3.852946e+02	-2.957798e+01
3.875200e+02	-2.962397e+01
3.897583e+02	-2.967350e+01
3.920096e+02	-2.972638e+01
3.942738e+02	-2.977913e+01
3.965511e+02	-2.983096e+01
3.988416e+02	-2.987298e+01
4.011452e+02	-2.992524e+01
4.034622e+02	-2.997919e+01
4.057926e+02	-3.002897e+01
4.081365e+02	-3.007700e+01
4.104938e+02	-3.012774e+01
4.128648e+02	-3.017446e+01
4.152495e+02	-3.022936e+01
4.176480e+02	-3.027381e+01
4.200603e+02	-3.032754e+01
4.224866e+02	-3.037664e+01
4.249268e+02	-3.042499e+01
4.273812e+02	-3.047362e+01
4.298497e+02	-3.052676e+01
4.323325e+02	-3.057911e+01
4.348297e+02	-3.062710e+01
4.373412e+02	-3.068040e+01
4.398673e+02	-3.072915e+01
4.424079e+02	-3.078321e+01
4.449633e+02	-3.083267e+01
4.475334e+02	-3.087309e+01
4.501183e+02	-3.092797e+01
4.527182e+02	-3.098514e+01
4.553330e+02	-3.103007e+01
4.579630e+02	-3.108684e+01
4.606082e+02	-3.113067e+01
4.632687e+02	-3.118400e+01
4.659445e+02	-3.122674e+01
4.686358e+02	-3.128059e+01
4.713426e+02	-3.133368e+01
4.740650e+02	-3.137894e+01
4.768032e+02	-3.143166e+01
4.795572e+02	-3.148053e+01
4.823271e+02	-3.153030e+01
4.851130e+02	-3.158363e+01
4.879150e+02	-3.162829e+01
4.907332e+02	-3.168377e+01
4.935676e+02	-3.172932e+01
4.964185e+02	-3.178069e+01
4.992858e+02	-3.183071e+01
5.021696e+02	-3.188667e+01
5.050701e+02	-3.193812e+01
5.079874e+02	-3.197901e+01
5.109215e+02	-3.202803e+01
5.138726e+02	-3.208759e+01
5.168407e+02	-3.213253e+01
5.198259e+02	-3.218265e+01
5.228284e+02	-3.224018e+01
5.258482e+02	-3.227992e+01
5.288855e+02	-3.232674e+01
5.319403e+02	-3.238492e+01
5.350128e+02	-3.243422e+01
5.381030e+02	-3.248290e+01
5.412111e+02	-3.252987e+01
5.443371e+02	-3.258470e+01
5.474812e+02	-3.263719e+01
5.506434e+02	-3.268478e+01
5.538239e+02	-3.274051e+01
5.570228e+02	-3.278649e+01
5.602401e+02	-3.284169e+01
5.634760e+02	-3.288877e+01
5.667306e+02	-3.293998e+01
5.700040e+02	-3.298345e+01
5.732964e+02	-3.304206e+01
5.766077e+02	-3.308889e+01
5.799382e+02	-3.314386e+01
5.832879e+02	-3.319163e+01
5.866569e+02	-3.323859e+01
5.900454e+02	-3.328673e+01
5.934535e+02	-3.333756e+01
5.968813e+02	-3.339518e+01
6.003288e+02	-3.343906e+01
6.037963e+02	-3.348652e+01
6.072838e+02	-3.353903e+01
6.107914e+02	-3.359365e+01
6.143194e+02	-3.363681e+01
6.178676e+02	-3.369491e+01
6.214364e+02	-3.374563e+01
6.250258e+02	-3.378605e+01
6.286359e+02	-3.384755e+01
6.322669e+02	-3.388929e+01
6.359189e+02	-3.393793e+01
6.395919e+02	-3.399310e+01
6.432862e+02	-3.404723e+01
6.470017e+02	-3.408910e+01
6.507388e+02	-3.414153e+01
6.544974e+02	-3.419578e+01
6.582778e+02	-3.424351e+01
6.620800e+02	-3.429563e+01
6.659041e+02	-3.435215e+01
6.697504e+02	-3.439772e+01
6.736188e+02	-3.444133e+01
6.775096e+02	-3.449483e+01
6.814229e+02	-3.454059e+01
6.853587e+02	-3.458970e+01
6.893173e+02	-3.464653e+01
6.932988e+02	-3.469766e+01
6.973033e+02	-3.475285e+01
7.013309e+02	-3.479802e+01
