Frequency(Hz)	Magnitude(dB)
1.000000e+01	-1.765165e-05
1.005776e+01	-1.785615e-05
1.011585e+01	-1.806301e-05
1.017428e+01	-1.827228e-05
1.023305e+01	-1.848397e-05
1.029215e+01	-1.869811e-05
1.035160e+01	-1.891473e-05
1.041139e+01	-1.913386e-05
1.047153e+01	-1.935553e-05
1.053201e+01	-1.957977e-05
1.059284e+01	-1.980661e-05
1.065403e+01	-2.003607e-05
1.071556e+01	-2.026820e-05
1.077746e+01	-2.050301e-05
1.083971e+01	-2.074054e-05
1.090232e+01	-2.098083e-05
1.096529e+01	-2.122389e-05
1.102862e+01	-2.146978e-05
1.109232e+01	-2.171851e-05
1.115639e+01	-2.197012e-05
1.122083e+01	-2.222465e-05
1.128564e+01	-2.248213e-05
1.135083e+01	-2.274259e-05
1.141639e+01	-2.300607e-05
1.148233e+01	-2.327260e-05
1.154865e+01	-2.354222e-05
1.161536e+01	-2.381496e-05
1.168245e+01	-2.409087e-05
1.174992e+01	-2.436997e-05
1.181779e+01	-2.465230e-05
1.188605e+01	-2.493790e-05
1.195470e+01	-2.522681e-05
1.202375e+01	-2.551907e-05
1.209320e+01	-2.581472e-05
1.216305e+01	-2.611379e-05
1.223330e+01	-2.641632e-05
1.230396e+01	-2.672236e-05
1.237503e+01	-2.703195e-05
1.244651e+01	-2.734512e-05
1.251840e+01	-2.766192e-05
1.259070e+01	-2.798239e-05
1.266343e+01	-2.830657e-05
1.273657e+01	-2.863451e-05
1.281014e+01	-2.896625e-05
1.288413e+01	-2.930183e-05
1.295855e+01	-2.964129e-05
1.303339e+01	-2.998470e-05
1.310867e+01	-3.033208e-05
1.318439e+01	-3.068348e-05
1.326054e+01	-3.103896e-05
1.333713e+01	-3.139855e-05
1.341417e+01	-3.176231e-05
1.349165e+01	-3.213028e-05
1.356958e+01	-3.250252e-05
1.364795e+01	-3.287907e-05
1.372678e+01	-3.325998e-05
1.380607e+01	-3.364531e-05
1.388581e+01	-3.403510e-05
1.396602e+01	-3.442940e-05
1.404668e+01	-3.482827e-05
1.412782e+01	-3.523177e-05
1.420942e+01	-3.563993e-05
1.429149e+01	-3.605283e-05
1.437404e+01	-3.647051e-05
1.445706e+01	-3.689303e-05
1.454057e+01	-3.732044e-05
1.462455e+01	-3.775281e-05
1.470902e+01	-3.819019e-05
1.479398e+01	-3.863263e-05
1.487943e+01	-3.908020e-05
1.496537e+01	-3.953295e-05
1.505181e+01	-3.999095e-05
1.513875e+01	-4.045425e-05
1.522619e+01	-4.092292e-05
1.531414e+01	-4.139702e-05
1.540259e+01	-4.187662e-05
1.549156e+01	-4.236177e-05
1.558103e+01	-4.285254e-05
1.567103e+01	-4.334899e-05
1.576155e+01	-4.385120e-05
1.585258e+01	-4.435923e-05
1.594415e+01	-4.487314e-05
1.603624e+01	-4.539300e-05
1.612886e+01	-4.591889e-05
1.622202e+01	-4.645087e-05
1.631572e+01	-4.698902e-05
1.640996e+01	-4.753339e-05
1.650474e+01	-4.808408e-05
1.660008e+01	-4.864114e-05
1.669596e+01	-4.920466e-05
1.679239e+01	-4.977471e-05
1.688938e+01	-5.035136e-05
1.698694e+01	-5.093469e-05
1.708505e+01	-5.152478e-05
1.718373e+01	-5.212170e-05
1.728299e+01	-5.272554e-05
1.738281e+01	-5.333638e-05
1.748322e+01	-5.395429e-05
1.758420e+01	-5.457937e-05
1.768576e+01	-5.521168e-05
1.778792e+01	-5.585132e-05
1.789066e+01	-5.649837e-05
1.799399e+01	-5.715291e-05
1.809793e+01	-5.781504e-05
1.820246e+01	-5.848484e-05
1.830760e+01	-5.916240e-05
1.841334e+01	-5.984781e-05
1.851969e+01	-6.054115e-05
1.862666e+01	-6.124254e-05
1.873425e+01	-6.195204e-05
1.884246e+01	-6.266977e-05
1.895129e+01	-6.339581e-05
1.906075e+01	-6.413026e-05
1.917085e+01	-6.487322e-05
1.928158e+01	-6.562479e-05
1.939295e+01	-6.638507e-05
1.950496e+01	-6.715415e-05
1.961762e+01	-6.793215e-05
1.973093e+01	-6.871915e-05
1.984490e+01	-6.951528e-05
1.995952e+01	-7.032062e-05
2.007480e+01	-7.113530e-05
2.019076e+01	-7.195942e-05
2.030738e+01	-7.279308e-05
2.042467e+01	-7.363640e-05
2.054264e+01	-7.448949e-05
2.066130e+01	-7.535247e-05
2.078064e+01	-7.622544e-05
2.090066e+01	-7.710852e-05
2.102139e+01	-7.800184e-05
2.114280e+01	-7.890550e-05
2.126492e+01	-7.981964e-05
2.138775e+01	-8.074436e-05
2.151128e+01	-8.167980e-05
2.163553e+01	-8.262607e-05
2.176050e+01	-8.358331e-05
2.188619e+01	-8.455164e-05
2.201260e+01	-8.553118e-05
2.213974e+01	-8.652208e-05
2.226762e+01	-8.752445e-05
2.239624e+01	-8.853843e-05
2.252560e+01	-8.956416e-05
2.265571e+01	-9.060178e-05
2.278656e+01	-9.165142e-05
2.291818e+01	-9.271321e-05
2.305055e+01	-9.378731e-05
2.318369e+01	-9.487385e-05
2.331760e+01	-9.597298e-05
2.345228e+01	-9.708484e-05
2.358774e+01	-9.820958e-05
2.372398e+01	-9.934735e-05
2.386101e+01	-1.004983e-04
2.399883e+01	-1.016626e-04
2.413745e+01	-1.028404e-04
2.427686e+01	-1.040318e-04
2.441709e+01	-1.052370e-04
2.455812e+01	-1.064562e-04
2.469997e+01	-1.076895e-04
2.484263e+01	-1.089371e-04
2.498612e+01	-1.101992e-04
2.513044e+01	-1.114758e-04
2.527559e+01	-1.127673e-04
2.542158e+01	-1.140737e-04
2.556842e+01	-1.153953e-04
2.571610e+01	-1.167321e-04
2.586463e+01	-1.180845e-04
2.601403e+01	-1.194525e-04
2.616428e+01	-1.208364e-04
2.631541e+01	-1.222363e-04
2.646740e+01	-1.236524e-04
2.662028e+01	-1.250849e-04
2.677404e+01	-1.265341e-04
2.692868e+01	-1.280000e-04
2.708422e+01	-1.294829e-04
2.724066e+01	-1.309829e-04
2.739800e+01	-1.325004e-04
2.755625e+01	-1.340354e-04
2.771541e+01	-1.355882e-04
2.787550e+01	-1.371590e-04
2.803650e+01	-1.387480e-04
2.819844e+01	-1.403554e-04
2.836131e+01	-1.419815e-04
2.852513e+01	-1.436263e-04
2.868989e+01	-1.452903e-04
2.885560e+01	-1.469735e-04
2.902227e+01	-1.486762e-04
2.918990e+01	-1.503986e-04
2.935850e+01	-1.521410e-04
2.952807e+01	-1.539035e-04
2.969863e+01	-1.556865e-04
2.987016e+01	-1.574902e-04
3.004269e+01	-1.593147e-04
3.021622e+01	-1.611604e-04
3.039075e+01	-1.630274e-04
3.056628e+01	-1.649161e-04
3.074283e+01	-1.668267e-04
3.092040e+01	-1.687594e-04
3.109900e+01	-1.707144e-04
3.127862e+01	-1.726922e-04
3.145929e+01	-1.746928e-04
3.164099e+01	-1.767166e-04
3.182375e+01	-1.787639e-04
3.200756e+01	-1.808349e-04
3.219244e+01	-1.829299e-04
3.237838e+01	-1.850491e-04
3.256540e+01	-1.871929e-04
3.275349e+01	-1.893616e-04
3.294268e+01	-1.915553e-04
3.313295e+01	-1.937745e-04
3.332433e+01	-1.960194e-04
3.351681e+01	-1.982903e-04
3.371040e+01	-2.005875e-04
3.390511e+01	-2.029113e-04
3.410094e+01	-2.052620e-04
3.429791e+01	-2.076400e-04
3.449601e+01	-2.100455e-04
3.469526e+01	-2.124788e-04
3.489566e+01	-2.149404e-04
3.509721e+01	-2.174305e-04
3.529993e+01	-2.199494e-04
3.550382e+01	-2.224975e-04
3.570889e+01	-2.250752e-04
3.591515e+01	-2.276826e-04
3.612259e+01	-2.303203e-04
3.633123e+01	-2.329886e-04
3.654108e+01	-2.356878e-04
3.675214e+01	-2.384182e-04
3.696442e+01	-2.411803e-04
3.717792e+01	-2.439743e-04
3.739266e+01	-2.468008e-04
3.760864e+01	-2.496599e-04
3.782587e+01	-2.525522e-04
3.804435e+01	-2.554780e-04
3.826409e+01	-2.584377e-04
3.848510e+01	-2.614317e-04
3.870739e+01	-2.644604e-04
3.893096e+01	-2.675241e-04
3.915583e+01	-2.706234e-04
3.938199e+01	-2.737585e-04
3.960946e+01	-2.769300e-04
3.983824e+01	-2.801382e-04
4.006834e+01	-2.833836e-04
4.029978e+01	-2.866665e-04
4.053255e+01	-2.899875e-04
4.076666e+01	-2.933470e-04
4.100213e+01	-2.967454e-04
4.123896e+01	-3.001832e-04
4.147715e+01	-3.036607e-04
4.171672e+01	-3.071786e-04
4.195767e+01	-3.107372e-04
4.220002e+01	-3.143371e-04
4.244377e+01	-3.179786e-04
4.268892e+01	-3.216624e-04
4.293549e+01	-3.253888e-04
4.318348e+01	-3.291583e-04
4.343291e+01	-3.329716e-04
4.368377e+01	-3.368290e-04
4.393609e+01	-3.407311e-04
4.418986e+01	-3.446784e-04
4.444510e+01	-3.486715e-04
4.470182e+01	-3.527107e-04
4.496001e+01	-3.567968e-04
4.521970e+01	-3.609302e-04
4.548089e+01	-3.651115e-04
4.574358e+01	-3.693413e-04
4.600779e+01	-3.736200e-04
4.627353e+01	-3.779483e-04
4.654081e+01	-3.823268e-04
4.680963e+01	-3.867559e-04
4.708000e+01	-3.912364e-04
4.735193e+01	-3.957688e-04
4.762543e+01	-4.003537e-04
4.790051e+01	-4.049917e-04
4.817719e+01	-4.096834e-04
4.845545e+01	-4.144294e-04
4.873533e+01	-4.192305e-04
4.901682e+01	-4.240872e-04
4.929994e+01	-4.290001e-04
4.958470e+01	-4.339699e-04
4.987110e+01	-4.389973e-04
5.015915e+01	-4.440830e-04
5.044887e+01	-4.492275e-04
5.074026e+01	-4.544317e-04
5.103333e+01	-4.596961e-04
5.132810e+01	-4.650215e-04
5.162457e+01	-4.704087e-04
5.192275e+01	-4.758582e-04
5.222265e+01	-4.813708e-04
5.252429e+01	-4.869473e-04
5.282767e+01	-4.925884e-04
5.313280e+01	-4.982949e-04
5.343969e+01	-5.040674e-04
5.374836e+01	-5.099068e-04
5.405880e+01	-5.158139e-04
5.437105e+01	-5.217894e-04
5.468509e+01	-5.278341e-04
5.500095e+01	-5.339488e-04
5.531863e+01	-5.401344e-04
5.563815e+01	-5.463916e-04
5.595951e+01	-5.527213e-04
5.628273e+01	-5.591243e-04
5.660782e+01	-5.656015e-04
5.693479e+01	-5.721537e-04
5.726364e+01	-5.787818e-04
5.759439e+01	-5.854867e-04
5.792705e+01	-5.922693e-04
5.826164e+01	-5.991304e-04
5.859815e+01	-6.060710e-04
5.893662e+01	-6.130920e-04
5.927703e+01	-6.201943e-04
5.961941e+01	-6.273789e-04
5.996377e+01	-6.346468e-04
6.031012e+01	-6.419988e-04
6.065847e+01	-6.494360e-04
6.100883e+01	-6.569593e-04
6.136121e+01	-6.645698e-04
6.171563e+01	-6.722684e-04
6.207210e+01	-6.800562e-04
6.243063e+01	-6.879342e-04
6.279122e+01	-6.959035e-04
6.315390e+01	-7.039650e-04
6.351868e+01	-7.121200e-04
6.388556e+01	-7.203694e-04
6.425456e+01	-7.287144e-04
6.462569e+01	-7.371560e-04
6.499897e+01	-7.456955e-04
6.537440e+01	-7.543338e-04
6.575200e+01	-7.630722e-04
6.613178e+01	-7.719118e-04
6.651375e+01	-7.808538e-04
6.689793e+01	-7.898994e-04
6.728433e+01	-7.990498e-04
6.767297e+01	-8.083061e-04
6.806384e+01	-8.176697e-04
6.845698e+01	-8.271417e-04
6.885238e+01	-8.367234e-04
6.925007e+01	-8.464162e-04
6.965005e+01	-8.562212e-04
7.005235e+01	-8.661397e-04
7.045697e+01	-8.761732e-04
7.086393e+01	-8.863229e-04
7.127323e+01	-8.965901e-04
7.168490e+01	-9.069762e-04
7.209895e+01	-9.174827e-04
7.251539e+01	-9.281109e-04
7.293424e+01	-9.388621e-04
7.335551e+01	-9.497379e-04
7.377920e+01	-9.607397e-04
7.420535e+01	-9.718688e-04
7.463396e+01	-9.831269e-04
7.506504e+01	-9.945154e-04
7.549861e+01	-1.006036e-03
7.593469e+01	-1.017690e-03
7.637328e+01	-1.029478e-03
7.681441e+01	-1.041404e-03
7.725809e+01	-1.053467e-03
7.770433e+01	-1.065671e-03
7.815315e+01	-1.078015e-03
7.860456e+01	-1.090503e-03
7.905857e+01	-1.103135e-03
7.951521e+01	-1.115913e-03
7.997449e+01	-1.128840e-03
8.043642e+01	-1.141916e-03
8.090102e+01	-1.155144e-03
8.136830e+01	-1.168524e-03
8.183828e+01	-1.182060e-03
8.231097e+01	-1.195753e-03
8.278640e+01	-1.209604e-03
8.326457e+01	-1.223616e-03
8.374550e+01	-1.237790e-03
8.422921e+01	-1.252128e-03
8.471572e+01	-1.266632e-03
8.520503e+01	-1.281304e-03
8.569717e+01	-1.296146e-03
8.619215e+01	-1.311160e-03
8.669000e+01	-1.326348e-03
8.719071e+01	-1.341711e-03
8.769432e+01	-1.357253e-03
8.820084e+01	-1.372975e-03
8.871029e+01	-1.388878e-03
8.922267e+01	-1.404966e-03
8.973802e+01	-1.421241e-03
9.025634e+01	-1.437703e-03
9.077766e+01	-1.454357e-03
9.130199e+01	-1.471203e-03
9.182935e+01	-1.488244e-03
9.235975e+01	-1.505483e-03
9.289321e+01	-1.522921e-03
9.342976e+01	-1.540562e-03
9.396941e+01	-1.558406e-03
9.451217e+01	-1.576458e-03
9.505807e+01	-1.594718e-03
9.560712e+01	-1.613190e-03
9.615934e+01	-1.631875e-03
9.671476e+01	-1.650778e-03
9.727338e+01	-1.669899e-03
9.783522e+01	-1.689241e-03
9.840032e+01	-1.708808e-03
9.896867e+01	-1.728601e-03
9.954031e+01	-1.748623e-03
1.001153e+02	-1.768877e-03
1.006935e+02	-1.789366e-03
1.012751e+02	-1.810092e-03
1.018601e+02	-1.831058e-03
1.024484e+02	-1.852266e-03
1.030402e+02	-1.873721e-03
1.036353e+02	-1.895424e-03
1.042339e+02	-1.917378e-03
1.048360e+02	-1.939586e-03
1.054415e+02	-1.962052e-03
1.060505e+02	-1.984777e-03
1.066631e+02	-2.007766e-03
1.072791e+02	-2.031021e-03
1.078988e+02	-2.054546e-03
1.085220e+02	-2.078342e-03
1.091488e+02	-2.102415e-03
1.097793e+02	-2.126766e-03
1.104133e+02	-2.151399e-03
1.110511e+02	-2.176317e-03
1.116925e+02	-2.201524e-03
1.123376e+02	-2.227023e-03
1.129865e+02	-2.252816e-03
1.136391e+02	-2.278909e-03
1.142955e+02	-2.305304e-03
1.149556e+02	-2.332004e-03
1.156196e+02	-2.359014e-03
1.162874e+02	-2.386336e-03
1.169591e+02	-2.413975e-03
1.176347e+02	-2.441933e-03
1.183141e+02	-2.470216e-03
1.189975e+02	-2.498826e-03
1.196848e+02	-2.527767e-03
1.203761e+02	-2.557043e-03
1.210714e+02	-2.586658e-03
1.217707e+02	-2.616616e-03
1.224740e+02	-2.646921e-03
1.231814e+02	-2.677577e-03
1.238929e+02	-2.708588e-03
1.246085e+02	-2.739957e-03
1.253283e+02	-2.771690e-03
1.260522e+02	-2.803791e-03
1.267802e+02	-2.836263e-03
1.275125e+02	-2.869111e-03
1.282490e+02	-2.902339e-03
1.289898e+02	-2.935952e-03
1.297348e+02	-2.969954e-03
1.304842e+02	-3.004350e-03
1.312378e+02	-3.039144e-03
1.319959e+02	-3.074341e-03
1.327583e+02	-3.109945e-03
1.335251e+02	-3.145962e-03
1.342963e+02	-3.182395e-03
1.350720e+02	-3.219250e-03
1.358522e+02	-3.256532e-03
1.366368e+02	-3.294246e-03
1.374260e+02	-3.332396e-03
1.382198e+02	-3.370987e-03
1.390182e+02	-3.410026e-03
1.398211e+02	-3.449516e-03
1.406287e+02	-3.489463e-03
1.414410e+02	-3.529873e-03
1.422579e+02	-3.570751e-03
1.430796e+02	-3.612102e-03
1.439060e+02	-3.653931e-03
1.447372e+02	-3.696245e-03
1.455732e+02	-3.739048e-03
1.464141e+02	-3.782347e-03
1.472597e+02	-3.826148e-03
1.481103e+02	-3.870455e-03
1.489658e+02	-3.915275e-03
1.498262e+02	-3.960613e-03
1.506916e+02	-4.006477e-03
1.515620e+02	-4.052871e-03
1.524374e+02	-4.099803e-03
1.533179e+02	-4.147277e-03
1.542034e+02	-4.195301e-03
1.550941e+02	-4.243881e-03
1.559899e+02	-4.293023e-03
1.568909e+02	-4.342734e-03
1.577971e+02	-4.393020e-03
1.587085e+02	-4.443889e-03
1.596252e+02	-4.495345e-03
1.605472e+02	-4.547398e-03
1.614745e+02	-4.600053e-03
1.624072e+02	-4.653317e-03
1.633453e+02	-4.707197e-03
1.642887e+02	-4.761702e-03
1.652377e+02	-4.816836e-03
1.661921e+02	-4.872609e-03
1.671520e+02	-4.929028e-03
1.681175e+02	-4.986099e-03
1.690885e+02	-5.043831e-03
1.700651e+02	-5.102230e-03
1.710474e+02	-5.161306e-03
1.720354e+02	-5.221065e-03
1.730291e+02	-5.281515e-03
1.740285e+02	-5.342665e-03
1.750337e+02	-5.404523e-03
1.760446e+02	-5.467096e-03
1.770615e+02	-5.530393e-03
1.780842e+02	-5.594423e-03
1.791128e+02	-5.659193e-03
1.801473e+02	-5.724713e-03
1.811878e+02	-5.790991e-03
1.822344e+02	-5.858036e-03
1.832870e+02	-5.925856e-03
1.843456e+02	-5.994462e-03
1.854104e+02	-6.063860e-03
1.864813e+02	-6.134062e-03
1.875584e+02	-6.205076e-03
1.886418e+02	-6.276911e-03
1.897313e+02	-6.349577e-03
1.908272e+02	-6.423084e-03
1.919294e+02	-6.497442e-03
1.930380e+02	-6.572659e-03
1.941530e+02	-6.648746e-03
1.952744e+02	-6.725714e-03
1.964023e+02	-6.803572e-03
1.975367e+02	-6.882330e-03
1.986777e+02	-6.962000e-03
1.998252e+02	-7.042591e-03
2.009794e+02	-7.124114e-03
2.021403e+02	-7.206580e-03
2.033078e+02	-7.290000e-03
2.044821e+02	-7.374384e-03
2.056632e+02	-7.459745e-03
2.068511e+02	-7.546093e-03
2.080459e+02	-7.633439e-03
2.092475e+02	-7.721796e-03
2.104561e+02	-7.811174e-03
2.116717e+02	-7.901586e-03
2.128943e+02	-7.993043e-03
2.141240e+02	-8.085558e-03
2.153608e+02	-8.179143e-03
2.166047e+02	-8.273810e-03
2.178558e+02	-8.369571e-03
2.191141e+02	-8.466440e-03
2.203797e+02	-8.564429e-03
2.216526e+02	-8.663551e-03
2.229329e+02	-8.763819e-03
2.242205e+02	-8.865246e-03
2.255156e+02	-8.967845e-03
2.268182e+02	-9.071631e-03
2.281283e+02	-9.176617e-03
2.294459e+02	-9.282817e-03
2.307712e+02	-9.390244e-03
2.321041e+02	-9.498913e-03
2.334447e+02	-9.608838e-03
2.347931e+02	-9.720034e-03
2.361493e+02	-9.832515e-03
2.375133e+02	-9.946296e-03
2.388851e+02	-1.006139e-02
2.402649e+02	-1.017782e-02
2.416527e+02	-1.029559e-02
2.430484e+02	-1.041473e-02
2.444523e+02	-1.053524e-02
2.458642e+02	-1.065714e-02
2.472843e+02	-1.078045e-02
2.487126e+02	-1.090519e-02
2.501492e+02	-1.103137e-02
2.515940e+02	-1.115900e-02
2.530472e+02	-1.128811e-02
2.545088e+02	-1.141872e-02
2.559789e+02	-1.155083e-02
2.574574e+02	-1.168447e-02
2.589444e+02	-1.181965e-02
2.604401e+02	-1.195640e-02
2.619444e+02	-1.209472e-02
2.634574e+02	-1.223464e-02
2.649791e+02	-1.237618e-02
2.665096e+02	-1.251935e-02
2.680489e+02	-1.266418e-02
2.695972e+02	-1.281068e-02
2.711544e+02	-1.295888e-02
2.727205e+02	-1.310878e-02
2.742958e+02	-1.326042e-02
2.758801e+02	-1.341380e-02
2.774736e+02	-1.356896e-02
2.790762e+02	-1.372591e-02
2.806882e+02	-1.388468e-02
2.823094e+02	-1.404527e-02
2.839400e+02	-1.420772e-02
2.855800e+02	-1.437205e-02
2.872295e+02	-1.453827e-02
2.888886e+02	-1.470642e-02
2.905572e+02	-1.487650e-02
2.922354e+02	-1.504855e-02
2.939234e+02	-1.522258e-02
2.956211e+02	-1.539863e-02
2.973286e+02	-1.557670e-02
2.990459e+02	-1.575684e-02
3.007732e+02	-1.593905e-02
3.025104e+02	-1.612336e-02
3.042577e+02	-1.630980e-02
3.060151e+02	-1.649839e-02
3.077826e+02	-1.668916e-02
3.095604e+02	-1.688214e-02
3.113484e+02	-1.707733e-02
3.131467e+02	-1.727478e-02
3.149554e+02	-1.747451e-02
3.167746e+02	-1.767655e-02
3.186043e+02	-1.788091e-02
3.204445e+02	-1.808763e-02
3.222954e+02	-1.829674e-02
3.241570e+02	-1.850826e-02
3.260293e+02	-1.872222e-02
3.279124e+02	-1.893864e-02
3.298064e+02	-1.915757e-02
3.317114e+02	-1.937902e-02
3.336273e+02	-1.960302e-02
3.355544e+02	-1.982960e-02
3.374925e+02	-2.005880e-02
3.394418e+02	-2.029064e-02
3.414024e+02	-2.052516e-02
3.433744e+02	-2.076238e-02
3.453577e+02	-2.100233e-02
3.473525e+02	-2.124505e-02
3.493588e+02	-2.149057e-02
3.513766e+02	-2.173892e-02
3.534062e+02	-2.199013e-02
3.554474e+02	-2.224424e-02
3.575005e+02	-2.250127e-02
3.595654e+02	-2.276127e-02
3.616422e+02	-2.302426e-02
3.637311e+02	-2.329029e-02
3.658320e+02	-2.355938e-02
3.679450e+02	-2.383157e-02
3.700702e+02	-2.410689e-02
3.722077e+02	-2.438539e-02
3.743576e+02	-2.466710e-02
3.765199e+02	-2.495205e-02
3.786946e+02	-2.524028e-02
3.808820e+02	-2.553183e-02
3.830819e+02	-2.582674e-02
3.852946e+02	-2.612505e-02
3.875200e+02	-2.642679e-02
3.897583e+02	-2.673201e-02
3.920096e+02	-2.704074e-02
3.942738e+02	-2.735302e-02
3.965511e+02	-2.766890e-02
3.988416e+02	-2.798841e-02
4.011452e+02	-2.831161e-02
4.034622e+02	-2.863852e-02
4.057926e+02	-2.896919e-02
4.081365e+02	-2.930367e-02
4.104938e+02	-2.964200e-02
4.128648e+02	-2.998422e-02
4.152495e+02	-3.033038e-02
4.176480e+02	-3.068052e-02
4.200603e+02	-3.103469e-02
4.224866e+02	-3.139293e-02
4.249268e+02	-3.175529e-02
4.273812e+02	-3.212182e-02
4.298497e+02	-3.249256e-02
4.323325e+02	-3.286757e-02
4.348297e+02	-3.324689e-02
4.373412e+02	-3.363056e-02
4.398673e+02	-3.401865e-02
4.424079e+02	-3.441120e-02
4.449633e+02	-3.480826e-02
4.475334e+02	-3.520989e-02
4.501183e+02	-3.561612e-02
4.527182e+02	-3.602703e-02
4.553330e+02	-3.644266e-02
4.579630e+02	-3.686306e-02
4.606082e+02	-3.728829e-02
4.632687e+02	-3.771840e-02
4.659445e+02	-3.815345e-02
4.686358e+02	-3.859350e-02
4.713426e+02	-3.903860e-02
4.740650e+02	-3.948881e-02
4.768032e+02	-3.994419e-02
4.795572e+02	-4.040480e-02
4.823271e+02	-4.087069e-02
4.851130e+02	-4.134193e-02
4.879150e+02	-4.181857e-02
4.907332e+02	-4.230069e-02
4.935676e+02	-4.278833e-02
4.964185e+02	-4.328157e-02
4.992858e+02	-4.378046e-02
5.021696e+02	-4.428508e-02
5.050701e+02	-4.479548e-02
5.079874e+02	-4.531174e-02
5.109215e+02	-4.583391e-02
5.138726e+02	-4.636207e-02
5.168407e+02	-4.689628e-02
5.198259e+02	-4.743661e-02
5.228284e+02	-4.798313e-02
5.258482e+02	-4.853592e-02
5.288855e+02	-4.909503e-02
5.319403e+02	-4.966055e-02
5.350128e+02	-5.023255e-02
5.381030e+02	-5.081110e-02
5.412111e+02	-5.139627e-02
5.443371e+02	-5.198814e-02
5.474812e+02	-5.258678e-02
5.506434e+02	-5.319227e-02
5.538239e+02	-5.380470e-02
5.570228e+02	-5.442413e-02
5.602401e+02	-5.505064e-02
5.634760e+02	-5.568432e-02
5.667306e+02	-5.632525e-02
5.700040e+02	-5.697351e-02
5.732964e+02	-5.762917e-02
5.766077e+02	-5.829234e-02
5.799382e+02	-5.896308e-02
5.832879e+02	-5.964148e-02
5.866569e+02	-6.032764e-02
5.900454e+02	-6.102164e-02
5.934535e+02	-6.172356e-02
5.968813e+02	-6.243350e-02
6.003288e+02	-6.315154e-02
6.037963e+02	-6.387778e-02
6.072838e+02	-6.461231e-02
6.107914e+02	-6.535523e-02
6.143194e+02	-6.610662e-02
6.178676e+02	-6.686658e-02
6.214364e+02	-6.763521e-02
6.250258e+02	-6.841261e-02
6.286359e+02	-6.919887e-02
6.322669e+02	-6.999409e-02
6.359189e+02	-7.079838e-02
6.395919e+02	-7.161183e-02
6.432862e+02	-7.243455e-02
6.470017e+02	-7.326664e-02
6.507388e+02	-7.410821e-02
6.544974e+02	-7.495937e-02
6.582778e+02	-7.582021e-02
6.620800e+02	-7.669085e-02
6.659041e+02	-7.757140e-02
6.697504e+02	-7.846197e-02
6.736188e+02	-7.936267e-02
6.775096e+02	-8.027361e-02
6.814229e+02	-8.119491e-02
6.853587e+02	-8.212668e-02
6.893173e+02	-8.306905e-02
6.932988e+02	-8.402212e-02
6.973033e+02	-8.498602e-02
7.013309e+02	-8.596087e-02
