Frequency(Hz)	Magnitude(dB)
1.000000e+01	-2.065651e+00
1.005776e+01	-2.084623e+00
1.011585e+01	-2.103682e+00
1.017428e+01	-2.123151e+00
1.023305e+01	-2.142520e+00
1.029215e+01	-2.162047e+00
1.035160e+01	-2.181524e+00
1.041139e+01	-2.201578e+00
1.047153e+01	-2.221345e+00
1.053201e+01	-2.241387e+00
1.059284e+01	-2.261890e+00
1.065403e+01	-2.282062e+00
1.071556e+01	-2.302514e+00
1.077746e+01	-2.323347e+00
1.083971e+01	-2.344288e+00
1.090232e+01	-2.365063e+00
1.096529e+01	-2.386052e+00
1.102862e+01	-2.407328e+00
1.109232e+01	-2.428662e+00
1.115639e+01	-2.450261e+00
1.122083e+01	-2.471955e+00
1.128564e+01	-2.493727e+00
1.135083e+01	-2.515722e+00
1.141639e+01	-2.537708e+00
1.148233e+01	-2.559941e+00
1.154865e+01	-2.582386e+00
1.161536e+01	-2.604761e+00
1.168245e+01	-2.627473e+00
1.174992e+01	-2.650407e+00
1.181779e+01	-2.673112e+00
1.188605e+01	-2.696290e+00
1.195470e+01	-2.719236e+00
1.202375e+01	-2.742863e+00
1.209320e+01	-2.766383e+00
1.216305e+01	-2.789836e+00
1.223330e+01	-2.813641e+00
1.230396e+01	-2.837575e+00
1.237503e+01	-2.861684e+00
1.244651e+01	-2.885802e+00
1.251840e+01	-2.910189e+00
1.259070e+01	-2.934786e+00
1.266343e+01	-2.959521e+00
1.273657e+01	-2.984381e+00
1.281014e+01	-3.009126e+00
1.288413e+01	-3.034093e+00
1.295855e+01	-3.059367e+00
1.303339e+01	-3.084652e+00
1.310867e+01	-3.110206e+00
1.318439e+01	-3.135998e+00
1.326054e+01	-3.161708e+00
1.333713e+01	-3.187962e+00
1.341417e+01	-3.213646e+00
1.349165e+01	-3.240014e+00
1.356958e+01	-3.266424e+00
1.364795e+01	-3.292929e+00
1.372678e+01	-3.319588e+00
1.380607e+01	-3.346295e+00
1.388581e+01	-3.373053e+00
1.396602e+01	-3.400428e+00
1.404668e+01	-3.427621e+00
1.412782e+01	-3.454794e+00
1.420942e+01	-3.482658e+00
1.429149e+01	-3.510051e+00
1.437404e+01	-3.537729e+00
1.445706e+01	-3.565820e+00
1.454057e+01	-3.593741e+00
1.462455e+01	-3.622055e+00
1.470902e+01	-3.650806e+00
1.479398e+01	-3.679003e+00
1.487943e+01	-3.707878e+00
1.496537e+01	-3.736467e+00
1.505181e+01	-3.765493e+00
1.513875e+01	-3.794217e+00
1.522619e+01	-3.823864e+00
1.531414e+01	-3.853141e+00
1.540259e+01	-3.882608e+00
1.549156e+01	-3.912327e+00
1.558103e+01	-3.942244e+00
1.567103e+01	-3.971640e+00
1.576155e+01	-4.001907e+00
1.585258e+01	-4.032065e+00
1.594415e+01	-4.062637e+00
1.603624e+01	-4.092738e+00
1.612886e+01	-4.123301e+00
1.622202e+01	-4.154327e+00
1.631572e+01	-4.185138e+00
1.640996e+01	-4.216097e+00
1.650474e+01	-4.247275e+00
1.660008e+01	-4.278747e+00
1.669596e+01	-4.310141e+00
1.679239e+01	-4.341352e+00
1.688938e+01	-4.373235e+00
1.698694e+01	-4.405057e+00
1.708505e+01	-4.437277e+00
1.718373e+01	-4.468921e+00
1.728299e+01	-4.501578e+00
1.738281e+01	-4.533661e+00
1.748322e+01	-4.566148e+00
1.758420e+01	-4.598729e+00
1.768576e+01	-4.631462e+00
1.778792e+01	-4.664237e+00
1.789066e+01	-4.697549e+00
1.799399e+01	-4.730551e+00
1.809793e+01	-4.763793e+00
1.820246e+01	-4.797044e+00
1.830760e+01	-4.830697e+00
1.841334e+01	-4.863976e+00
1.851969e+01	-4.897996e+00
1.862666e+01	-4.931916e+00
1.873425e+01	-4.965865e+00
1.884246e+01	-4.999961e+00
1.895129e+01	-5.034430e+00
1.906075e+01	-5.068639e+00
1.917085e+01	-5.103383e+00
1.928158e+01	-5.138027e+00
1.939295e+01	-5.172729e+00
1.950496e+01	-5.207514e+00
1.961762e+01	-5.242538e+00
1.973093e+01	-5.277817e+00
1.984490e+01	-5.313157e+00
1.995952e+01	-5.347925e+00
2.007480e+01	-5.384059e+00
2.019076e+01	-5.419652e+00
2.030738e+01	-5.455129e+00
2.042467e+01	-5.490815e+00
2.054264e+01	-5.526795e+00
2.066130e+01	-5.562903e+00
2.078064e+01	-5.599053e+00
2.090066e+01	-5.635728e+00
2.102139e+01	-5.671988e+00
2.114280e+01	-5.708310e+00
2.126492e+01	-5.744902e+00
2.138775e+01	-5.781860e+00
2.151128e+01	-5.818890e+00
2.163553e+01	-5.855296e+00
2.176050e+01	-5.892901e+00
2.188619e+01	-5.929769e+00
2.201260e+01	-5.967257e+00
2.213974e+01	-6.004991e+00
2.226762e+01	-6.042071e+00
2.239624e+01	-6.080022e+00
2.252560e+01	-6.117492e+00
2.265571e+01	-6.155732e+00
2.278656e+01	-6.193350e+00
2.291818e+01	-6.231059e+00
2.305055e+01	-6.269395e+00
2.318369e+01	-6.307652e+00
2.331760e+01	-6.346205e+00
2.345228e+01	-6.384733e+00
2.358774e+01	-6.423286e+00
2.372398e+01	-6.461917e+00
2.386101e+01	-6.500583e+00
2.399883e+01	-6.539803e+00
2.413745e+01	-6.578640e+00
2.427686e+01	-6.617497e+00
2.441709e+01	-6.657042e+00
2.455812e+01	-6.695925e+00
2.469997e+01	-6.735491e+00
2.484263e+01	-6.774835e+00
2.498612e+01	-6.814456e+00
2.513044e+01	-6.854044e+00
2.527559e+01	-6.894173e+00
2.542158e+01	-6.933623e+00
2.556842e+01	-6.974056e+00
2.571610e+01	-7.013827e+00
2.586463e+01	-7.053914e+00
2.601403e+01	-7.094175e+00
2.616428e+01	-7.134256e+00
2.631541e+01	-7.175034e+00
2.646740e+01	-7.215248e+00
2.662028e+01	-7.255152e+00
2.677404e+01	-7.296259e+00
2.692868e+01	-7.337087e+00
2.708422e+01	-7.378242e+00
2.724066e+01	-7.418829e+00
2.739800e+01	-7.459486e+00
2.755625e+01	-7.501309e+00
2.771541e+01	-7.542208e+00
2.787550e+01	-7.583598e+00
2.803650e+01	-7.624845e+00
2.819844e+01	-7.666553e+00
2.836131e+01	-7.707844e+00
2.852513e+01	-7.749305e+00
2.868989e+01	-7.791182e+00
2.885560e+01	-7.832957e+00
2.902227e+01	-7.874648e+00
2.918990e+01	-7.916302e+00
2.935850e+01	-7.958397e+00
2.952807e+01	-8.000424e+00
2.969863e+01	-8.042544e+00
2.987016e+01	-8.084641e+00
3.004269e+01	-8.127482e+00
3.021622e+01	-8.169114e+00
3.039075e+01	-8.211934e+00
3.056628e+01	-8.254470e+00
3.074283e+01	-8.297225e+00
3.092040e+01	-8.339767e+00
3.109900e+01	-8.382537e+00
3.127862e+01	-8.425346e+00
3.145929e+01	-8.468004e+00
3.164099e+01	-8.511249e+00
3.182375e+01	-8.553984e+00
3.200756e+01	-8.597203e+00
3.219244e+01	-8.640471e+00
3.237838e+01	-8.683348e+00
3.256540e+01	-8.726735e+00
3.275349e+01	-8.769924e+00
3.294268e+01	-8.813650e+00
3.313295e+01	-8.857132e+00
3.332433e+01	-8.900581e+00
3.351681e+01	-8.944610e+00
3.371040e+01	-8.988330e+00
3.390511e+01	-9.031688e+00
3.410094e+01	-9.075150e+00
3.429791e+01	-9.119507e+00
3.449601e+01	-9.162847e+00
3.469526e+01	-9.207425e+00
3.489566e+01	-9.251316e+00
3.509721e+01	-9.295117e+00
3.529993e+01	-9.339065e+00
3.550382e+01	-9.383844e+00
3.570889e+01	-9.428244e+00
3.591515e+01	-9.472534e+00
3.612259e+01	-9.517487e+00
3.633123e+01	-9.561252e+00
3.654108e+01	-9.605601e+00
3.675214e+01	-9.650417e+00
3.696442e+01	-9.695160e+00
3.717792e+01	-9.739683e+00
3.739266e+01	-9.785047e+00
3.760864e+01	-9.829343e+00
3.782587e+01	-9.874489e+00
3.804435e+01	-9.919156e+00
3.826409e+01	-9.964383e+00
3.848510e+01	-1.000927e+01
3.870739e+01	-1.005371e+01
3.893096e+01	-1.009899e+01
3.915583e+01	-1.014421e+01
3.938199e+01	-1.018972e+01
3.960946e+01	-1.023525e+01
3.983824e+01	-1.028072e+01
4.006834e+01	-1.032559e+01
4.029978e+01	-1.037053e+01
4.053255e+01	-1.041635e+01
4.076666e+01	-1.046182e+01
4.100213e+01	-1.050780e+01
4.123896e+01	-1.055288e+01
4.147715e+01	-1.059852e+01
4.171672e+01	-1.064485e+01
4.195767e+01	-1.068972e+01
4.220002e+01	-1.073611e+01
4.244377e+01	-1.078177e+01
4.268892e+01	-1.082757e+01
4.293549e+01	-1.087347e+01
4.318348e+01	-1.091953e+01
4.343291e+01	-1.096480e+01
4.368377e+01	-1.101093e+01
4.393609e+01	-1.105761e+01
4.418986e+01	-1.110357e+01
4.444510e+01	-1.114958e+01
4.470182e+01	-1.119606e+01
4.496001e+01	-1.124233e+01
4.521970e+01	-1.128849e+01
4.548089e+01	-1.133550e+01
4.574358e+01	-1.138143e+01
4.600779e+01	-1.142784e+01
4.627353e+01	-1.147442e+01
4.654081e+01	-1.152100e+01
4.680963e+01	-1.156701e+01
4.708000e+01	-1.161347e+01
4.735193e+01	-1.165972e+01
4.762543e+01	-1.170726e+01
4.790051e+01	-1.175385e+01
4.817719e+01	-1.180060e+01
4.845545e+01	-1.184720e+01
4.873533e+01	-1.189342e+01
4.901682e+01	-1.194054e+01
4.929994e+01	-1.198749e+01
4.958470e+01	-1.203426e+01
4.987110e+01	-1.208121e+01
5.015915e+01	-1.212808e+01
5.044887e+01	-1.217516e+01
5.074026e+01	-1.222275e+01
5.103333e+01	-1.226964e+01
5.132810e+01	-1.231630e+01
5.162457e+01	-1.236387e+01
5.192275e+01	-1.241006e+01
5.222265e+01	-1.245827e+01
5.252429e+01	-1.250469e+01
5.282767e+01	-1.255206e+01
5.313280e+01	-1.259884e+01
5.343969e+01	-1.264637e+01
5.374836e+01	-1.269418e+01
5.405880e+01	-1.274107e+01
5.437105e+01	-1.278797e+01
5.468509e+01	-1.283669e+01
5.500095e+01	-1.288297e+01
5.531863e+01	-1.293027e+01
5.563815e+01	-1.297863e+01
5.595951e+01	-1.302550e+01
5.628273e+01	-1.307399e+01
5.660782e+01	-1.312098e+01
5.693479e+01	-1.316861e+01
5.726364e+01	-1.321612e+01
5.759439e+01	-1.326333e+01
5.792705e+01	-1.331194e+01
5.826164e+01	-1.335985e+01
5.859815e+01	-1.340786e+01
5.893662e+01	-1.345507e+01
5.927703e+01	-1.350287e+01
5.961941e+01	-1.355064e+01
5.996377e+01	-1.359864e+01
6.031012e+01	-1.364651e+01
6.065847e+01	-1.369455e+01
6.100883e+01	-1.374297e+01
6.136121e+01	-1.378951e+01
6.171563e+01	-1.383770e+01
6.207210e+01	-1.388567e+01
6.243063e+01	-1.393349e+01
6.279122e+01	-1.398190e+01
6.315390e+01	-1.402980e+01
6.351868e+01	-1.407764e+01
6.388556e+01	-1.412565e+01
6.425456e+01	-1.417348e+01
6.462569e+01	-1.422222e+01
6.499897e+01	-1.426986e+01
6.537440e+01	-1.431921e+01
6.575200e+01	-1.436655e+01
6.613178e+01	-1.441496e+01
6.651375e+01	-1.446386e+01
6.689793e+01	-1.451191e+01
6.728433e+01	-1.455946e+01
6.767297e+01	-1.460848e+01
6.806384e+01	-1.465657e+01
6.845698e+01	-1.470466e+01
6.885238e+01	-1.475246e+01
6.925007e+01	-1.480139e+01
6.965005e+01	-1.484936e+01
7.005235e+01	-1.489846e+01
7.045697e+01	-1.494649e+01
7.086393e+01	-1.499442e+01
7.127323e+01	-1.504379e+01
7.168490e+01	-1.509196e+01
7.209895e+01	-1.514049e+01
7.251539e+01	-1.518795e+01
7.293424e+01	-1.523748e+01
7.335551e+01	-1.528669e+01
7.377920e+01	-1.533427e+01
7.420535e+01	-1.538315e+01
7.463396e+01	-1.543175e+01
7.506504e+01	-1.547966e+01
7.549861e+01	-1.552938e+01
7.593469e+01	-1.557751e+01
7.637328e+01	-1.562559e+01
7.681441e+01	-1.567471e+01
7.725809e+01	-1.572364e+01
7.770433e+01	-1.577248e+01
7.815315e+01	-1.582215e+01
7.860456e+01	-1.587007e+01
7.905857e+01	-1.591775e+01
7.951521e+01	-1.596685e+01
7.997449e+01	-1.601642e+01
8.043642e+01	-1.606480e+01
8.090102e+01	-1.611328e+01
8.136830e+01	-1.616273e+01
8.183828e+01	-1.621187e+01
8.231097e+01	-1.625997e+01
8.278640e+01	-1.630817e+01
8.326457e+01	-1.635824e+01
8.374550e+01	-1.640682e+01
8.422921e+01	-1.645589e+01
8.471572e+01	-1.650443e+01
8.520503e+01	-1.655297e+01
8.569717e+01	-1.660225e+01
8.619215e+01	-1.665074e+01
8.669000e+01	-1.669942e+01
8.719071e+01	-1.674947e+01
8.769432e+01	-1.679802e+01
8.820084e+01	-1.684704e+01
8.871029e+01	-1.689667e+01
8.922267e+01	-1.694494e+01
8.973802e+01	-1.699309e+01
9.025634e+01	-1.704297e+01
9.077766e+01	-1.709288e+01
9.130199e+01	-1.714106e+01
9.182935e+01	-1.718999e+01
9.235975e+01	-1.723975e+01
9.289321e+01	-1.728870e+01
9.342976e+01	-1.733780e+01
9.396941e+01	-1.738670e+01
9.451217e+01	-1.743595e+01
9.505807e+01	-1.748549e+01
9.560712e+01	-1.753442e+01
9.615934e+01	-1.758275e+01
9.671476e+01	-1.763257e+01
9.727338e+01	-1.768251e+01
9.783522e+01	-1.773291e+01
9.840032e+01	-1.778039e+01
9.896867e+01	-1.782997e+01
9.954031e+01	-1.787829e+01
1.001153e+02	-1.792837e+01
1.006935e+02	-1.797778e+01
1.012751e+02	-1.802601e+01
1.018601e+02	-1.807563e+01
1.024484e+02	-1.812480e+01
1.030402e+02	-1.817459e+01
1.036353e+02	-1.822333e+01
1.042339e+02	-1.827156e+01
1.048360e+02	-1.832188e+01
1.054415e+02	-1.837200e+01
1.060505e+02	-1.842058e+01
1.066631e+02	-1.847085e+01
1.072791e+02	-1.851798e+01
1.078988e+02	-1.856792e+01
1.085220e+02	-1.861814e+01
1.091488e+02	-1.866763e+01
1.097793e+02	-1.871504e+01
1.104133e+02	-1.876531e+01
1.110511e+02	-1.881514e+01
1.116925e+02	-1.886342e+01
1.123376e+02	-1.891462e+01
1.129865e+02	-1.896426e+01
1.136391e+02	-1.901353e+01
1.142955e+02	-1.906135e+01
1.149556e+02	-1.911156e+01
1.156196e+02	-1.916180e+01
1.162874e+02	-1.921107e+01
1.169591e+02	-1.925930e+01
1.176347e+02	-1.930896e+01
1.183141e+02	-1.935950e+01
1.189975e+02	-1.940552e+01
1.196848e+02	-1.945860e+01
1.203761e+02	-1.950711e+01
1.210714e+02	-1.955675e+01
1.217707e+02	-1.960676e+01
1.224740e+02	-1.965459e+01
1.231814e+02	-1.970640e+01
1.238929e+02	-1.975441e+01
1.246085e+02	-1.980362e+01
1.253283e+02	-1.985346e+01
1.260522e+02	-1.990303e+01
1.267802e+02	-1.995461e+01
1.275125e+02	-2.000175e+01
1.282490e+02	-2.005173e+01
1.289898e+02	-2.010158e+01
1.297348e+02	-2.015112e+01
1.304842e+02	-2.020082e+01
1.312378e+02	-2.024971e+01
1.319959e+02	-2.030014e+01
1.327583e+02	-2.034916e+01
1.335251e+02	-2.039860e+01
1.342963e+02	-2.044979e+01
1.350720e+02	-2.049767e+01
1.358522e+02	-2.054770e+01
1.366368e+02	-2.059738e+01
1.374260e+02	-2.064683e+01
1.382198e+02	-2.069646e+01
1.390182e+02	-2.074724e+01
1.398211e+02	-2.079497e+01
1.406287e+02	-2.084577e+01
1.414410e+02	-2.089464e+01
1.422579e+02	-2.094470e+01
1.430796e+02	-2.099349e+01
1.439060e+02	-2.104376e+01
1.447372e+02	-2.109288e+01
1.455732e+02	-2.114186e+01
1.464141e+02	-2.119249e+01
1.472597e+02	-2.124196e+01
1.481103e+02	-2.129260e+01
1.489658e+02	-2.134031e+01
1.498262e+02	-2.138963e+01
1.506916e+02	-2.144283e+01
1.515620e+02	-2.148895e+01
1.524374e+02	-2.153924e+01
1.533179e+02	-2.159031e+01
1.542034e+02	-2.164156e+01
1.550941e+02	-2.168894e+01
1.559899e+02	-2.174006e+01
1.568909e+02	-2.178905e+01
1.577971e+02	-2.183791e+01
1.587085e+02	-2.188861e+01
1.596252e+02	-2.193681e+01
1.605472e+02	-2.198785e+01
1.614745e+02	-2.203689e+01
1.624072e+02	-2.208582e+01
1.633453e+02	-2.213614e+01
1.642887e+02	-2.218904e+01
1.652377e+02	-2.223750e+01
1.661921e+02	-2.228771e+01
1.671520e+02	-2.233637e+01
1.681175e+02	-2.238472e+01
1.690885e+02	-2.243530e+01
1.700651e+02	-2.248544e+01
1.710474e+02	-2.253503e+01
1.720354e+02	-2.258293e+01
1.730291e+02	-2.263460e+01
1.740285e+02	-2.268596e+01
1.750337e+02	-2.273172e+01
1.760446e+02	-2.278458e+01
1.770615e+02	-2.283145e+01
1.780842e+02	-2.288363e+01
1.791128e+02	-2.293348e+01
1.801473e+02	-2.298349e+01
1.811878e+02	-2.303351e+01
1.822344e+02	-2.308378e+01
1.832870e+02	-2.313284e+01
1.843456e+02	-2.318311e+01
1.854104e+02	-2.323110e+01
1.864813e+02	-2.328167e+01
1.875584e+02	-2.333369e+01
1.886418e+02	-2.338075e+01
1.897313e+02	-2.342817e+01
1.908272e+02	-2.348224e+01
1.919294e+02	-2.353236e+01
1.930380e+02	-2.358302e+01
1.941530e+02	-2.363150e+01
1.952744e+02	-2.368367e+01
1.964023e+02	-2.372824e+01
1.975367e+02	-2.378120e+01
1.986777e+02	-2.383083e+01
1.998252e+02	-2.388042e+01
2.009794e+02	-2.392994e+01
2.021403e+02	-2.398141e+01
2.033078e+02	-2.402778e+01
2.044821e+02	-2.408085e+01
2.056632e+02	-2.412616e+01
2.068511e+02	-2.418080e+01
2.080459e+02	-2.422787e+01
2.092475e+02	-2.428035e+01
2.104561e+02	-2.433013e+01
2.116717e+02	-2.437921e+01
2.128943e+02	-2.442729e+01
2.141240e+02	-2.448143e+01
2.153608e+02	-2.452999e+01
2.166047e+02	-2.457920e+01
2.178558e+02	-2.462564e+01
2.191141e+02	-2.468078e+01
2.203797e+02	-2.472746e+01
2.216526e+02	-2.478039e+01
2.229329e+02	-2.482710e+01
2.242205e+02	-2.487819e+01
2.255156e+02	-2.493059e+01
2.268182e+02	-2.498019e+01
2.281283e+02	-2.502650e+01
2.294459e+02	-2.507691e+01
2.307712e+02	-2.512644e+01
2.321041e+02	-2.517683e+01
2.334447e+02	-2.522784e+01
2.347931e+02	-2.527455e+01
2.361493e+02	-2.532332e+01
2.375133e+02	-2.537633e+01
2.388851e+02	-2.542893e+01
2.402649e+02	-2.547726e+01
2.416527e+02	-2.552573e+01
2.430484e+02	-2.557730e+01
2.444523e+02	-2.562680e+01
2.458642e+02	-2.567446e+01
2.472843e+02	-2.572619e+01
2.487126e+02	-2.577542e+01
2.501492e+02	-2.582443e+01
2.515940e+02	-2.587761e+01
2.530472e+02	-2.592445e+01
2.545088e+02	-2.597409e+01
2.559789e+02	-2.602940e+01
2.574574e+02	-2.607486e+01
2.589444e+02	-2.612580e+01
2.604401e+02	-2.617806e+01
2.619444e+02	-2.622810e+01
2.634574e+02	-2.627476e+01
2.649791e+02	-2.632451e+01
2.665096e+02	-2.637610e+01
2.680489e+02	-2.642720e+01
2.695972e+02	-2.647322e+01
2.711544e+02	-2.652594e+01
2.727205e+02	-2.657659e+01
2.742958e+02	-2.662467e+01
2.758801e+02	-2.667479e+01
2.774736e+02	-2.672684e+01
2.790762e+02	-2.677712e+01
2.806882e+02	-2.682694e+01
2.823094e+02	-2.687557e+01
2.839400e+02	-2.692811e+01
2.855800e+02	-2.697645e+01
2.872295e+02	-2.702286e+01
2.888886e+02	-2.707901e+01
2.905572e+02	-2.712587e+01
2.922354e+02	-2.717703e+01
2.939234e+02	-2.722517e+01
2.956211e+02	-2.727724e+01
2.973286e+02	-2.732704e+01
2.990459e+02	-2.737097e+01
3.007732e+02	-2.742627e+01
3.025104e+02	-2.747515e+01
3.042577e+02	-2.753112e+01
3.060151e+02	-2.757467e+01
3.077826e+02	-2.762346e+01
3.095604e+02	-2.767126e+01
3.113484e+02	-2.772635e+01
3.131467e+02	-2.777702e+01
3.149554e+02	-2.782423e+01
3.167746e+02	-2.787351e+01
3.186043e+02	-2.792752e+01
3.204445e+02	-2.797596e+01
3.222954e+02	-2.802666e+01
3.241570e+02	-2.807727e+01
3.260293e+02	-2.812627e+01
3.279124e+02	-2.817618e+01
3.298064e+02	-2.822616e+01
3.317114e+02	-2.827448e+01
3.336273e+02	-2.832357e+01
3.355544e+02	-2.837534e+01
3.374925e+02	-2.842532e+01
3.394418e+02	-2.847449e+01
3.414024e+02	-2.853127e+01
3.433744e+02	-2.857623e+01
3.453577e+02	-2.862570e+01
3.473525e+02	-2.867331e+01
3.493588e+02	-2.872605e+01
3.513766e+02	-2.877214e+01
3.534062e+02	-2.882653e+01
3.554474e+02	-2.887783e+01
3.575005e+02	-2.892513e+01
3.595654e+02	-2.897818e+01
3.616422e+02	-2.902961e+01
3.637311e+02	-2.907403e+01
3.658320e+02	-2.912518e+01
3.679450e+02	-2.917705e+01
3.700702e+02	-2.922916e+01
3.722077e+02	-2.927829e+01
3.743576e+02	-2.932756e+01
3.765199e+02	-2.938047e+01
3.786946e+02	-2.943251e+01
3.808820e+02	-2.948030e+01
3.830819e+02	-2.952452e+01
3.852946e+02	-2.957561e+01
3.875200e+02	-2.962502e+01
3.897583e+02	-2.967745e+01
3.920096e+02	-2.972773e+01
3.942738e+02	-2.977798e+01
3.965511e+02	-2.982731e+01
3.988416e+02	-2.987995e+01
4.011452e+02	-2.992888e+01
4.034622e+02	-2.997828e+01
4.057926e+02	-3.003225e+01
4.081365e+02	-3.007400e+01
4.104938e+02	-3.013047e+01
4.128648e+02	-3.018014e+01
4.152495e+02	-3.022627e+01
4.176480e+02	-3.027966e+01
4.200603e+02	-3.033048e+01
4.224866e+02	-3.038019e+01
4.249268e+02	-3.043082e+01
4.273812e+02	-3.047596e+01
4.298497e+02	-3.052983e+01
4.323325e+02	-3.057804e+01
4.348297e+02	-3.062121e+01
4.373412e+02	-3.067505e+01
4.398673e+02	-3.073426e+01
4.424079e+02	-3.078359e+01
4.449633e+02	-3.082679e+01
4.475334e+02	-3.087792e+01
4.501183e+02	-3.093314e+01
4.527182e+02	-3.097516e+01
4.553330e+02	-3.103216e+01
4.579630e+02	-3.107919e+01
4.606082e+02	-3.112450e+01
4.632687e+02	-3.118051e+01
4.659445e+02	-3.122793e+01
4.686358e+02	-3.127479e+01
4.713426e+02	-3.133297e+01
4.740650e+02	-3.137780e+01
4.768032e+02	-3.143500e+01
4.795572e+02	-3.148335e+01
4.823271e+02	-3.153663e+01
4.851130e+02	-3.158667e+01
4.879150e+02	-3.163054e+01
4.907332e+02	-3.168375e+01
4.935676e+02	-3.172552e+01
4.964185e+02	-3.178185e+01
4.992858e+02	-3.183412e+01
5.021696e+02	-3.188665e+01
5.050701e+02	-3.193213e+01
5.079874e+02	-3.198765e+01
5.109215e+02	-3.203465e+01
5.138726e+02	-3.208152e+01
5.168407e+02	-3.213818e+01
5.198259e+02	-3.218592e+01
5.228284e+02	-3.223888e+01
5.258482e+02	-3.228340e+01
5.288855e+02	-3.233974e+01
5.319403e+02	-3.238772e+01
5.350128e+02	-3.243280e+01
5.381030e+02	-3.248669e+01
5.412111e+02	-3.253452e+01
5.443371e+02	-3.258805e+01
5.474812e+02	-3.263572e+01
5.506434e+02	-3.269674e+01
5.538239e+02	-3.274344e+01
5.570228e+02	-3.278479e+01
5.602401e+02	-3.284342e+01
5.634760e+02	-3.288210e+01
5.667306e+02	-3.293765e+01
5.700040e+02	-3.298971e+01
5.732964e+02	-3.303608e+01
5.766077e+02	-3.309030e+01
5.799382e+02	-3.313887e+01
5.832879e+02	-3.318076e+01
5.866569e+02	-3.323639e+01
5.900454e+02	-3.328740e+01
5.934535e+02	-3.334374e+01
5.968813e+02	-3.338284e+01
6.003288e+02	-3.344666e+01
6.037963e+02	-3.349039e+01
6.072838e+02	-3.354046e+01
6.107914e+02	-3.359699e+01
6.143194e+02	-3.364447e+01
6.178676e+02	-3.369700e+01
6.214364e+02	-3.374917e+01
6.250258e+02	-3.379469e+01
6.286359e+02	-3.383848e+01
6.322669e+02	-3.390085e+01
6.359189e+02	-3.394609e+01
6.395919e+02	-3.399446e+01
6.432862e+02	-3.404480e+01
6.470017e+02	-3.409417e+01
6.507388e+02	-3.414389e+01
6.544974e+02	-3.419637e+01
6.582778e+02	-3.424236e+01
6.620800e+02	-3.429699e+01
6.659041e+02	-3.434425e+01
6.697504e+02	-3.440236e+01
6.736188e+02	-3.445366e+01
6.775096e+02	-3.449312e+01
6.814229e+02	-3.454749e+01
6.853587e+02	-3.460271e+01
6.893173e+02	-3.465394e+01
6.932988e+02	-3.469755e+01
6.973033e+02	-3.474983e+01
7.013309e+02	-3.480771e+01
