Frequency(Hz)	Magnitude(dB)
1.000000e+01	-2.183835e+00
1.005776e+01	-2.203596e+00
1.011585e+01	-2.223781e+00
1.017428e+01	-2.243806e+00
1.023305e+01	-2.264003e+00
1.029215e+01	-2.284516e+00
1.035160e+01	-2.304812e+00
1.041139e+01	-2.325515e+00
1.047153e+01	-2.346545e+00
1.053201e+01	-2.367212e+00
1.059284e+01	-2.388523e+00
1.065403e+01	-2.409547e+00
1.071556e+01	-2.430967e+00
1.077746e+01	-2.452549e+00
1.083971e+01	-2.474441e+00
1.090232e+01	-2.496088e+00
1.096529e+01	-2.517828e+00
1.102862e+01	-2.540150e+00
1.109232e+01	-2.562211e+00
1.115639e+01	-2.584525e+00
1.122083e+01	-2.607037e+00
1.128564e+01	-2.629879e+00
1.135083e+01	-2.652628e+00
1.141639e+01	-2.675494e+00
1.148233e+01	-2.698821e+00
1.154865e+01	-2.721764e+00
1.161536e+01	-2.745161e+00
1.168245e+01	-2.768736e+00
1.174992e+01	-2.792335e+00
1.181779e+01	-2.816205e+00
1.188605e+01	-2.840143e+00
1.195470e+01	-2.864320e+00
1.202375e+01	-2.888474e+00
1.209320e+01	-2.912700e+00
1.216305e+01	-2.937465e+00
1.223330e+01	-2.962348e+00
1.230396e+01	-2.986851e+00
1.237503e+01	-3.011942e+00
1.244651e+01	-3.036738e+00
1.251840e+01	-3.062001e+00
1.259070e+01	-3.087309e+00
1.266343e+01	-3.112866e+00
1.273657e+01	-3.138493e+00
1.281014e+01	-3.164324e+00
1.288413e+01	-3.190334e+00
1.295855e+01	-3.216349e+00
1.303339e+01	-3.242910e+00
1.310867e+01	-3.268935e+00
1.318439e+01	-3.295537e+00
1.326054e+01	-3.322335e+00
1.333713e+01	-3.349117e+00
1.341417e+01	-3.376187e+00
1.349165e+01	-3.403380e+00
1.356958e+01	-3.430442e+00
1.364795e+01	-3.457857e+00
1.372678e+01	-3.485407e+00
1.380607e+01	-3.512914e+00
1.388581e+01	-3.540900e+00
1.396602e+01	-3.568662e+00
1.404668e+01	-3.596983e+00
1.412782e+01	-3.625174e+00
1.420942e+01	-3.653619e+00
1.429149e+01	-3.682167e+00
1.437404e+01	-3.710720e+00
1.445706e+01	-3.739393e+00
1.454057e+01	-3.768588e+00
1.462455e+01	-3.797736e+00
1.470902e+01	-3.826867e+00
1.479398e+01	-3.856019e+00
1.487943e+01	-3.885554e+00
1.496537e+01	-3.915279e+00
1.505181e+01	-3.945188e+00
1.513875e+01	-3.975020e+00
1.522619e+01	-4.005202e+00
1.531414e+01	-4.035202e+00
1.540259e+01	-4.065589e+00
1.549156e+01	-4.096242e+00
1.558103e+01	-4.126896e+00
1.567103e+01	-4.157399e+00
1.576155e+01	-4.188479e+00
1.585258e+01	-4.219563e+00
1.594415e+01	-4.250836e+00
1.603624e+01	-4.281916e+00
1.612886e+01	-4.313165e+00
1.622202e+01	-4.344777e+00
1.631572e+01	-4.376500e+00
1.640996e+01	-4.408492e+00
1.650474e+01	-4.440178e+00
1.660008e+01	-4.472429e+00
1.669596e+01	-4.504831e+00
1.679239e+01	-4.536975e+00
1.688938e+01	-4.569508e+00
1.698694e+01	-4.602353e+00
1.708505e+01	-4.634646e+00
1.718373e+01	-4.668019e+00
1.728299e+01	-4.700770e+00
1.738281e+01	-4.734003e+00
1.748322e+01	-4.767113e+00
1.758420e+01	-4.800630e+00
1.768576e+01	-4.833971e+00
1.778792e+01	-4.867882e+00
1.789066e+01	-4.901716e+00
1.799399e+01	-4.935609e+00
1.809793e+01	-4.969618e+00
1.820246e+01	-5.003749e+00
1.830760e+01	-5.037707e+00
1.841334e+01	-5.072366e+00
1.851969e+01	-5.107042e+00
1.862666e+01	-5.141787e+00
1.873425e+01	-5.176484e+00
1.884246e+01	-5.210855e+00
1.895129e+01	-5.246338e+00
1.906075e+01	-5.281268e+00
1.917085e+01	-5.316703e+00
1.928158e+01	-5.351843e+00
1.939295e+01	-5.387495e+00
1.950496e+01	-5.423072e+00
1.961762e+01	-5.458493e+00
1.973093e+01	-5.494617e+00
1.984490e+01	-5.530434e+00
1.995952e+01	-5.566738e+00
2.007480e+01	-5.603149e+00
2.019076e+01	-5.639292e+00
2.030738e+01	-5.675952e+00
2.042467e+01	-5.712067e+00
2.054264e+01	-5.748651e+00
2.066130e+01	-5.785741e+00
2.078064e+01	-5.822718e+00
2.090066e+01	-5.859761e+00
2.102139e+01	-5.896514e+00
2.114280e+01	-5.933978e+00
2.126492e+01	-5.971236e+00
2.138775e+01	-6.008403e+00
2.151128e+01	-6.046305e+00
2.163553e+01	-6.083643e+00
2.176050e+01	-6.121424e+00
2.188619e+01	-6.159789e+00
2.201260e+01	-6.197277e+00
2.213974e+01	-6.235609e+00
2.226762e+01	-6.273410e+00
2.239624e+01	-6.311574e+00
2.252560e+01	-6.350046e+00
2.265571e+01	-6.388652e+00
2.278656e+01	-6.427355e+00
2.291818e+01	-6.466121e+00
2.305055e+01	-6.504368e+00
2.318369e+01	-6.543753e+00
2.331760e+01	-6.582542e+00
2.345228e+01	-6.621798e+00
2.358774e+01	-6.660863e+00
2.372398e+01	-6.699957e+00
2.386101e+01	-6.739603e+00
2.399883e+01	-6.779112e+00
2.413745e+01	-6.818887e+00
2.427686e+01	-6.858509e+00
2.441709e+01	-6.898097e+00
2.455812e+01	-6.937880e+00
2.469997e+01	-6.977833e+00
2.484263e+01	-7.017856e+00
2.498612e+01	-7.057743e+00
2.513044e+01	-7.098245e+00
2.527559e+01	-7.138573e+00
2.542158e+01	-7.179205e+00
2.556842e+01	-7.219420e+00
2.571610e+01	-7.259987e+00
2.586463e+01	-7.300533e+00
2.601403e+01	-7.341643e+00
2.616428e+01	-7.382216e+00
2.631541e+01	-7.423088e+00
2.646740e+01	-7.464177e+00
2.662028e+01	-7.505510e+00
2.677404e+01	-7.546200e+00
2.692868e+01	-7.587560e+00
2.708422e+01	-7.628807e+00
2.724066e+01	-7.670475e+00
2.739800e+01	-7.712218e+00
2.755625e+01	-7.753548e+00
2.771541e+01	-7.795353e+00
2.787550e+01	-7.836997e+00
2.803650e+01	-7.879084e+00
2.819844e+01	-7.920896e+00
2.836131e+01	-7.962960e+00
2.852513e+01	-8.005310e+00
2.868989e+01	-8.047439e+00
2.885560e+01	-8.089048e+00
2.902227e+01	-8.131563e+00
2.918990e+01	-8.173866e+00
2.935850e+01	-8.216231e+00
2.952807e+01	-8.258933e+00
2.969863e+01	-8.301596e+00
2.987016e+01	-8.344153e+00
3.004269e+01	-8.386705e+00
3.021622e+01	-8.429899e+00
3.039075e+01	-8.472367e+00
3.056628e+01	-8.515902e+00
3.074283e+01	-8.558387e+00
3.092040e+01	-8.601606e+00
3.109900e+01	-8.644505e+00
3.127862e+01	-8.687734e+00
3.145929e+01	-8.731054e+00
3.164099e+01	-8.774488e+00
3.182375e+01	-8.818184e+00
3.200756e+01	-8.861443e+00
3.219244e+01	-8.904838e+00
3.237838e+01	-8.948553e+00
3.256540e+01	-8.992608e+00
3.275349e+01	-9.036293e+00
3.294268e+01	-9.080014e+00
3.313295e+01	-9.123895e+00
3.332433e+01	-9.167999e+00
3.351681e+01	-9.211595e+00
3.371040e+01	-9.256185e+00
3.390511e+01	-9.299544e+00
3.410094e+01	-9.344378e+00
3.429791e+01	-9.388632e+00
3.449601e+01	-9.432780e+00
3.469526e+01	-9.476831e+00
3.489566e+01	-9.521642e+00
3.509721e+01	-9.565994e+00
3.529993e+01	-9.610311e+00
3.550382e+01	-9.655355e+00
3.570889e+01	-9.699890e+00
3.591515e+01	-9.744265e+00
3.612259e+01	-9.789343e+00
3.633123e+01	-9.834206e+00
3.654108e+01	-9.878566e+00
3.675214e+01	-9.924065e+00
3.696442e+01	-9.968661e+00
3.717792e+01	-1.001338e+01
3.739266e+01	-1.005904e+01
3.760864e+01	-1.010379e+01
3.782587e+01	-1.014903e+01
3.804435e+01	-1.019413e+01
3.826409e+01	-1.023955e+01
3.848510e+01	-1.028465e+01
3.870739e+01	-1.033006e+01
3.893096e+01	-1.037572e+01
3.915583e+01	-1.042079e+01
3.938199e+01	-1.046624e+01
3.960946e+01	-1.051220e+01
3.983824e+01	-1.055825e+01
4.006834e+01	-1.060327e+01
4.029978e+01	-1.064894e+01
4.053255e+01	-1.069476e+01
4.076666e+01	-1.074070e+01
4.100213e+01	-1.078628e+01
4.123896e+01	-1.083226e+01
4.147715e+01	-1.087822e+01
4.171672e+01	-1.092462e+01
4.195767e+01	-1.097020e+01
4.220002e+01	-1.101600e+01
4.244377e+01	-1.106269e+01
4.268892e+01	-1.110885e+01
4.293549e+01	-1.115402e+01
4.318348e+01	-1.120114e+01
4.343291e+01	-1.124744e+01
4.368377e+01	-1.129346e+01
4.393609e+01	-1.133953e+01
4.418986e+01	-1.138549e+01
4.444510e+01	-1.143248e+01
4.470182e+01	-1.147882e+01
4.496001e+01	-1.152516e+01
4.521970e+01	-1.157200e+01
4.548089e+01	-1.161899e+01
4.574358e+01	-1.166529e+01
4.600779e+01	-1.171169e+01
4.627353e+01	-1.175912e+01
4.654081e+01	-1.180606e+01
4.680963e+01	-1.185193e+01
4.708000e+01	-1.189831e+01
4.735193e+01	-1.194536e+01
4.762543e+01	-1.199276e+01
4.790051e+01	-1.203970e+01
4.817719e+01	-1.208620e+01
4.845545e+01	-1.213276e+01
4.873533e+01	-1.217982e+01
4.901682e+01	-1.222644e+01
4.929994e+01	-1.227382e+01
4.958470e+01	-1.232192e+01
4.987110e+01	-1.236844e+01
5.015915e+01	-1.241505e+01
5.044887e+01	-1.246269e+01
5.074026e+01	-1.250967e+01
5.103333e+01	-1.255650e+01
5.132810e+01	-1.260392e+01
5.162457e+01	-1.265096e+01
5.192275e+01	-1.269848e+01
5.222265e+01	-1.274656e+01
5.252429e+01	-1.279402e+01
5.282767e+01	-1.284157e+01
5.313280e+01	-1.288867e+01
5.343969e+01	-1.293617e+01
5.374836e+01	-1.298320e+01
5.405880e+01	-1.303145e+01
5.437105e+01	-1.307826e+01
5.468509e+01	-1.312647e+01
5.500095e+01	-1.317388e+01
5.531863e+01	-1.322152e+01
5.563815e+01	-1.326915e+01
5.595951e+01	-1.331686e+01
5.628273e+01	-1.336470e+01
5.660782e+01	-1.341228e+01
5.693479e+01	-1.345946e+01
5.726364e+01	-1.350795e+01
5.759439e+01	-1.355578e+01
5.792705e+01	-1.360367e+01
5.826164e+01	-1.365128e+01
5.859815e+01	-1.369964e+01
5.893662e+01	-1.374768e+01
5.927703e+01	-1.379520e+01
5.961941e+01	-1.384308e+01
5.996377e+01	-1.389105e+01
6.031012e+01	-1.393919e+01
6.065847e+01	-1.398718e+01
6.100883e+01	-1.403478e+01
6.136121e+01	-1.408292e+01
6.171563e+01	-1.413179e+01
6.207210e+01	-1.417847e+01
6.243063e+01	-1.422739e+01
6.279122e+01	-1.427563e+01
6.315390e+01	-1.432419e+01
6.351868e+01	-1.437202e+01
6.388556e+01	-1.441947e+01
6.425456e+01	-1.446788e+01
6.462569e+01	-1.451673e+01
6.499897e+01	-1.456485e+01
6.537440e+01	-1.461338e+01
6.575200e+01	-1.466087e+01
6.613178e+01	-1.470985e+01
6.651375e+01	-1.475865e+01
6.689793e+01	-1.480596e+01
6.728433e+01	-1.485412e+01
6.767297e+01	-1.490267e+01
6.806384e+01	-1.495225e+01
6.845698e+01	-1.499881e+01
6.885238e+01	-1.504861e+01
6.925007e+01	-1.509770e+01
6.965005e+01	-1.514614e+01
7.005235e+01	-1.519489e+01
7.045697e+01	-1.524132e+01
7.086393e+01	-1.529135e+01
7.127323e+01	-1.533924e+01
7.168490e+01	-1.538842e+01
7.209895e+01	-1.543705e+01
7.251539e+01	-1.548538e+01
7.293424e+01	-1.553452e+01
7.335551e+01	-1.558185e+01
7.377920e+01	-1.563054e+01
7.420535e+01	-1.568055e+01
7.463396e+01	-1.572899e+01
7.506504e+01	-1.577741e+01
7.549861e+01	-1.582621e+01
7.593469e+01	-1.587439e+01
7.637328e+01	-1.592371e+01
7.681441e+01	-1.597177e+01
7.725809e+01	-1.602133e+01
7.770433e+01	-1.606963e+01
7.815315e+01	-1.611915e+01
7.860456e+01	-1.616721e+01
7.905857e+01	-1.621673e+01
7.951521e+01	-1.626530e+01
7.997449e+01	-1.631254e+01
8.043642e+01	-1.636376e+01
8.090102e+01	-1.641196e+01
8.136830e+01	-1.646017e+01
8.183828e+01	-1.650851e+01
8.231097e+01	-1.655893e+01
8.278640e+01	-1.660707e+01
8.326457e+01	-1.665702e+01
8.374550e+01	-1.670527e+01
8.422921e+01	-1.675392e+01
8.471572e+01	-1.680269e+01
8.520503e+01	-1.685187e+01
8.569717e+01	-1.690110e+01
8.619215e+01	-1.695001e+01
8.669000e+01	-1.700024e+01
8.719071e+01	-1.704789e+01
8.769432e+01	-1.709664e+01
8.820084e+01	-1.714640e+01
8.871029e+01	-1.719589e+01
8.922267e+01	-1.724454e+01
8.973802e+01	-1.729459e+01
9.025634e+01	-1.734333e+01
9.077766e+01	-1.739296e+01
9.130199e+01	-1.744223e+01
9.182935e+01	-1.749015e+01
9.235975e+01	-1.753894e+01
9.289321e+01	-1.758838e+01
9.342976e+01	-1.763771e+01
9.396941e+01	-1.768661e+01
9.451217e+01	-1.773642e+01
9.505807e+01	-1.778523e+01
9.560712e+01	-1.783346e+01
9.615934e+01	-1.788351e+01
9.671476e+01	-1.793224e+01
9.727338e+01	-1.798224e+01
9.783522e+01	-1.803125e+01
9.840032e+01	-1.807979e+01
9.896867e+01	-1.813009e+01
9.954031e+01	-1.817859e+01
1.001153e+02	-1.822756e+01
1.006935e+02	-1.827788e+01
1.012751e+02	-1.832705e+01
1.018601e+02	-1.837594e+01
1.024484e+02	-1.842438e+01
1.030402e+02	-1.847514e+01
1.036353e+02	-1.852588e+01
1.042339e+02	-1.857285e+01
1.048360e+02	-1.862348e+01
1.054415e+02	-1.867232e+01
1.060505e+02	-1.872187e+01
1.066631e+02	-1.877177e+01
1.072791e+02	-1.882068e+01
1.078988e+02	-1.887032e+01
1.085220e+02	-1.891918e+01
1.091488e+02	-1.896861e+01
1.097793e+02	-1.901833e+01
1.104133e+02	-1.906845e+01
1.110511e+02	-1.911517e+01
1.116925e+02	-1.916671e+01
1.123376e+02	-1.921558e+01
1.129865e+02	-1.926486e+01
1.136391e+02	-1.931544e+01
1.142955e+02	-1.936391e+01
1.149556e+02	-1.941325e+01
1.156196e+02	-1.946160e+01
1.162874e+02	-1.951241e+01
1.169591e+02	-1.956157e+01
1.176347e+02	-1.961202e+01
1.183141e+02	-1.966110e+01
1.189975e+02	-1.970996e+01
1.196848e+02	-1.975962e+01
1.203761e+02	-1.980920e+01
1.210714e+02	-1.985760e+01
1.217707e+02	-1.990827e+01
1.224740e+02	-1.995844e+01
1.231814e+02	-2.000730e+01
1.238929e+02	-2.005879e+01
1.246085e+02	-2.010616e+01
1.253283e+02	-2.015543e+01
1.260522e+02	-2.020525e+01
1.267802e+02	-2.025549e+01
1.275125e+02	-2.030465e+01
1.282490e+02	-2.035323e+01
1.289898e+02	-2.040201e+01
1.297348e+02	-2.045394e+01
1.304842e+02	-2.050203e+01
1.312378e+02	-2.055189e+01
1.319959e+02	-2.060221e+01
1.327583e+02	-2.065145e+01
1.335251e+02	-2.070013e+01
1.342963e+02	-2.075136e+01
1.350720e+02	-2.080053e+01
1.358522e+02	-2.084859e+01
1.366368e+02	-2.090041e+01
1.374260e+02	-2.094914e+01
1.382198e+02	-2.100000e+01
1.390182e+02	-2.105052e+01
1.398211e+02	-2.109940e+01
1.406287e+02	-2.114950e+01
1.414410e+02	-2.119860e+01
1.422579e+02	-2.124791e+01
1.430796e+02	-2.129639e+01
1.439060e+02	-2.134633e+01
1.447372e+02	-2.139585e+01
1.455732e+02	-2.144786e+01
1.464141e+02	-2.149582e+01
1.472597e+02	-2.154577e+01
1.481103e+02	-2.159700e+01
1.489658e+02	-2.164468e+01
1.498262e+02	-2.169495e+01
1.506916e+02	-2.174519e+01
1.515620e+02	-2.179367e+01
1.524374e+02	-2.184336e+01
1.533179e+02	-2.189345e+01
1.542034e+02	-2.194418e+01
1.550941e+02	-2.199299e+01
1.559899e+02	-2.204254e+01
1.568909e+02	-2.209302e+01
1.577971e+02	-2.214125e+01
1.587085e+02	-2.219019e+01
1.596252e+02	-2.224315e+01
1.605472e+02	-2.229007e+01
1.614745e+02	-2.234162e+01
1.624072e+02	-2.239344e+01
1.633453e+02	-2.244186e+01
1.642887e+02	-2.248857e+01
1.652377e+02	-2.253990e+01
1.661921e+02	-2.259142e+01
1.671520e+02	-2.263856e+01
1.681175e+02	-2.269092e+01
1.690885e+02	-2.273978e+01
1.700651e+02	-2.279029e+01
1.710474e+02	-2.284110e+01
1.720354e+02	-2.288881e+01
1.730291e+02	-2.293813e+01
1.740285e+02	-2.298871e+01
1.750337e+02	-2.303979e+01
1.760446e+02	-2.308811e+01
1.770615e+02	-2.313734e+01
1.780842e+02	-2.318521e+01
1.791128e+02	-2.323673e+01
1.801473e+02	-2.328610e+01
1.811878e+02	-2.333515e+01
1.822344e+02	-2.338739e+01
1.832870e+02	-2.343687e+01
1.843456e+02	-2.348826e+01
1.854104e+02	-2.353563e+01
1.864813e+02	-2.358494e+01
1.875584e+02	-2.363563e+01
1.886418e+02	-2.368673e+01
1.897313e+02	-2.373544e+01
1.908272e+02	-2.378566e+01
1.919294e+02	-2.383622e+01
1.930380e+02	-2.388670e+01
1.941530e+02	-2.393576e+01
1.952744e+02	-2.398610e+01
1.964023e+02	-2.403393e+01
1.975367e+02	-2.408409e+01
1.986777e+02	-2.413455e+01
1.998252e+02	-2.418609e+01
2.009794e+02	-2.423509e+01
2.021403e+02	-2.428270e+01
2.033078e+02	-2.433254e+01
2.044821e+02	-2.438365e+01
2.056632e+02	-2.443204e+01
2.068511e+02	-2.448253e+01
2.080459e+02	-2.453271e+01
2.092475e+02	-2.458476e+01
2.104561e+02	-2.463411e+01
2.116717e+02	-2.468227e+01
2.128943e+02	-2.473473e+01
2.141240e+02	-2.478301e+01
2.153608e+02	-2.483157e+01
2.166047e+02	-2.488425e+01
2.178558e+02	-2.493022e+01
2.191141e+02	-2.498184e+01
2.203797e+02	-2.503161e+01
2.216526e+02	-2.508384e+01
2.229329e+02	-2.513411e+01
2.242205e+02	-2.518235e+01
2.255156e+02	-2.523221e+01
2.268182e+02	-2.528067e+01
2.281283e+02	-2.533228e+01
2.294459e+02	-2.538069e+01
2.307712e+02	-2.543019e+01
2.321041e+02	-2.548337e+01
2.334447e+02	-2.553189e+01
2.347931e+02	-2.558032e+01
2.361493e+02	-2.562927e+01
2.375133e+02	-2.568184e+01
2.388851e+02	-2.572984e+01
2.402649e+02	-2.578278e+01
2.416527e+02	-2.582932e+01
2.430484e+02	-2.588237e+01
2.444523e+02	-2.593091e+01
2.458642e+02	-2.598058e+01
2.472843e+02	-2.603017e+01
2.487126e+02	-2.608009e+01
2.501492e+02	-2.612955e+01
2.515940e+02	-2.618371e+01
2.530472e+02	-2.622823e+01
2.545088e+02	-2.627900e+01
2.559789e+02	-2.633055e+01
2.574574e+02	-2.637911e+01
2.589444e+02	-2.643173e+01
2.604401e+02	-2.647850e+01
2.619444e+02	-2.652985e+01
2.634574e+02	-2.657690e+01
2.649791e+02	-2.663114e+01
2.665096e+02	-2.668346e+01
2.680489e+02	-2.673006e+01
2.695972e+02	-2.678349e+01
2.711544e+02	-2.682976e+01
2.727205e+02	-2.687996e+01
2.742958e+02	-2.692568e+01
2.758801e+02	-2.698320e+01
2.774736e+02	-2.703376e+01
2.790762e+02	-2.707996e+01
2.806882e+02	-2.713198e+01
2.823094e+02	-2.717971e+01
2.839400e+02	-2.723319e+01
2.855800e+02	-2.728216e+01
2.872295e+02	-2.733132e+01
2.888886e+02	-2.737872e+01
2.905572e+02	-2.742990e+01
2.922354e+02	-2.748001e+01
2.939234e+02	-2.752966e+01
2.956211e+02	-2.758015e+01
2.973286e+02	-2.762920e+01
2.990459e+02	-2.768211e+01
3.007732e+02	-2.773274e+01
3.025104e+02	-2.777444e+01
3.042577e+02	-2.783254e+01
3.060151e+02	-2.788220e+01
3.077826e+02	-2.792823e+01
3.095604e+02	-2.797870e+01
3.113484e+02	-2.803109e+01
3.131467e+02	-2.807689e+01
3.149554e+02	-2.812829e+01
3.167746e+02	-2.818104e+01
3.186043e+02	-2.823288e+01
3.204445e+02	-2.827995e+01
3.222954e+02	-2.833415e+01
3.241570e+02	-2.838141e+01
3.260293e+02	-2.843253e+01
3.279124e+02	-2.847871e+01
3.298064e+02	-2.852869e+01
3.317114e+02	-2.858011e+01
3.336273e+02	-2.863335e+01
3.355544e+02	-2.867889e+01
3.374925e+02	-2.872860e+01
3.394418e+02	-2.878048e+01
3.414024e+02	-2.883350e+01
3.433744e+02	-2.887983e+01
3.453577e+02	-2.893403e+01
3.473525e+02	-2.898076e+01
3.493588e+02	-2.902987e+01
3.513766e+02	-2.907928e+01
3.534062e+02	-2.912964e+01
3.554474e+02	-2.918318e+01
3.575005e+02	-2.923563e+01
3.595654e+02	-2.928246e+01
3.616422e+02	-2.933389e+01
3.637311e+02	-2.937907e+01
3.658320e+02	-2.943110e+01
3.679450e+02	-2.948199e+01
3.700702e+02	-2.952917e+01
3.722077e+02	-2.957942e+01
3.743576e+02	-2.963513e+01
3.765199e+02	-2.968247e+01
3.786946e+02	-2.973527e+01
3.808820e+02	-2.978248e+01
3.830819e+02	-2.983359e+01
3.852946e+02	-2.988047e+01
3.875200e+02	-2.993811e+01
3.897583e+02	-2.998476e+01
3.920096e+02	-3.003601e+01
3.942738e+02	-3.007859e+01
3.965511e+02	-3.013268e+01
3.988416e+02	-3.018137e+01
4.011452e+02	-3.022910e+01
4.034622e+02	-3.028410e+01
4.057926e+02	-3.033238e+01
4.081365e+02	-3.038540e+01
4.104938e+02	-3.044225e+01
4.128648e+02	-3.048166e+01
4.152495e+02	-3.053203e+01
4.176480e+02	-3.058081e+01
4.200603e+02	-3.063859e+01
4.224866e+02	-3.067916e+01
4.249268e+02	-3.073591e+01
4.273812e+02	-3.079125e+01
4.298497e+02	-3.083595e+01
4.323325e+02	-3.088325e+01
4.348297e+02	-3.094039e+01
4.373412e+02	-3.098132e+01
4.398673e+02	-3.103425e+01
4.424079e+02	-3.108674e+01
4.449633e+02	-3.114080e+01
4.475334e+02	-3.118441e+01
4.501183e+02	-3.123446e+01
4.527182e+02	-3.128831e+01
4.553330e+02	-3.132857e+01
4.579630e+02	-3.138565e+01
4.606082e+02	-3.143573e+01
4.632687e+02	-3.148560e+01
4.659445e+02	-3.154030e+01
4.686358e+02	-3.159046e+01
4.713426e+02	-3.163518e+01
4.740650e+02	-3.169083e+01
4.768032e+02	-3.174061e+01
4.795572e+02	-3.179634e+01
4.823271e+02	-3.183880e+01
4.851130e+02	-3.188828e+01
4.879150e+02	-3.193280e+01
4.907332e+02	-3.198325e+01
4.935676e+02	-3.204573e+01
4.964185e+02	-3.209741e+01
4.992858e+02	-3.213420e+01
5.021696e+02	-3.218254e+01
5.050701e+02	-3.224118e+01
5.079874e+02	-3.228876e+01
5.109215e+02	-3.233765e+01
5.138726e+02	-3.238595e+01
5.168407e+02	-3.244282e+01
5.198259e+02	-3.249307e+01
5.228284e+02	-3.254240e+01
5.258482e+02	-3.259249e+01
5.288855e+02	-3.263925e+01
5.319403e+02	-3.268246e+01
5.350128e+02	-3.274282e+01
5.381030e+02	-3.279306e+01
5.412111e+02	-3.284160e+01
5.443371e+02	-3.289542e+01
5.474812e+02	-3.294585e+01
5.506434e+02	-3.299219e+01
5.538239e+02	-3.304617e+01
5.570228e+02	-3.310052e+01
5.602401e+02	-3.314154e+01
5.634760e+02	-3.319936e+01
5.667306e+02	-3.324636e+01
5.700040e+02	-3.329516e+01
5.732964e+02	-3.334245e+01
5.766077e+02	-3.338799e+01
5.799382e+02	-3.344099e+01
5.832879e+02	-3.349204e+01
5.866569e+02	-3.355715e+01
5.900454e+02	-3.359279e+01
5.934535e+02	-3.363883e+01
5.968813e+02	-3.369129e+01
6.003288e+02	-3.375021e+01
6.037963e+02	-3.379274e+01
6.072838e+02	-3.384635e+01
6.107914e+02	-3.389608e+01
6.143194e+02	-3.395113e+01
6.178676e+02	-3.400124e+01
6.214364e+02	-3.405230e+01
6.250258e+02	-3.410213e+01
6.286359e+02	-3.415744e+01
6.322669e+02	-3.419728e+01
6.359189e+02	-3.424582e+01
6.395919e+02	-3.430392e+01
6.432862e+02	-3.435425e+01
6.470017e+02	-3.440190e+01
6.507388e+02	-3.446467e+01
6.544974e+02	-3.449968e+01
6.582778e+02	-3.455217e+01
6.620800e+02	-3.460091e+01
6.659041e+02	-3.464917e+01
6.697504e+02	-3.470391e+01
6.736188e+02	-3.475363e+01
6.775096e+02	-3.480125e+01
6.814229e+02	-3.485396e+01
6.853587e+02	-3.490278e+01
6.893173e+02	-3.495547e+01
6.932988e+02	-3.500350e+01
6.973033e+02	-3.505557e+01
7.013309e+02	-3.510863e+01
