Frequency(Hz)	Magnitude(dB)
1.000000e+01	-2.248425e+00
1.005776e+01	-2.268846e+00
1.011585e+01	-2.289129e+00
1.017428e+01	-2.309936e+00
1.023305e+01	-2.330466e+00
1.029215e+01	-2.351430e+00
1.035160e+01	-2.372197e+00
1.041139e+01	-2.393521e+00
1.047153e+01	-2.414689e+00
1.053201e+01	-2.436063e+00
1.059284e+01	-2.457692e+00
1.065403e+01	-2.479387e+00
1.071556e+01	-2.501154e+00
1.077746e+01	-2.523245e+00
1.083971e+01	-2.545181e+00
1.090232e+01	-2.567299e+00
1.096529e+01	-2.589876e+00
1.102862e+01	-2.612691e+00
1.109232e+01	-2.634979e+00
1.115639e+01	-2.657907e+00
1.122083e+01	-2.680961e+00
1.128564e+01	-2.704015e+00
1.135083e+01	-2.727404e+00
1.141639e+01	-2.750936e+00
1.148233e+01	-2.774179e+00
1.154865e+01	-2.798135e+00
1.161536e+01	-2.821827e+00
1.168245e+01	-2.845648e+00
1.174992e+01	-2.869944e+00
1.181779e+01	-2.894058e+00
1.188605e+01	-2.918571e+00
1.195470e+01	-2.943047e+00
1.202375e+01	-2.968135e+00
1.209320e+01	-2.992679e+00
1.216305e+01	-3.017379e+00
1.223330e+01	-3.042691e+00
1.230396e+01	-3.067948e+00
1.237503e+01	-3.093409e+00
1.244651e+01	-3.119073e+00
1.251840e+01	-3.144588e+00
1.259070e+01	-3.170315e+00
1.266343e+01	-3.196645e+00
1.273657e+01	-3.222687e+00
1.281014e+01	-3.249012e+00
1.288413e+01	-3.275496e+00
1.295855e+01	-3.301773e+00
1.303339e+01	-3.328561e+00
1.310867e+01	-3.355491e+00
1.318439e+01	-3.382412e+00
1.326054e+01	-3.409700e+00
1.333713e+01	-3.436646e+00
1.341417e+01	-3.464326e+00
1.349165e+01	-3.491943e+00
1.356958e+01	-3.519571e+00
1.364795e+01	-3.547409e+00
1.372678e+01	-3.575416e+00
1.380607e+01	-3.603856e+00
1.388581e+01	-3.631905e+00
1.396602e+01	-3.660164e+00
1.404668e+01	-3.688595e+00
1.412782e+01	-3.717697e+00
1.420942e+01	-3.746528e+00
1.429149e+01	-3.775304e+00
1.437404e+01	-3.804446e+00
1.445706e+01	-3.833787e+00
1.454057e+01	-3.863049e+00
1.462455e+01	-3.892658e+00
1.470902e+01	-3.922327e+00
1.479398e+01	-3.952218e+00
1.487943e+01	-3.982260e+00
1.496537e+01	-4.012229e+00
1.505181e+01	-4.042415e+00
1.513875e+01	-4.073102e+00
1.522619e+01	-4.103267e+00
1.531414e+01	-4.134051e+00
1.540259e+01	-4.164847e+00
1.549156e+01	-4.195566e+00
1.558103e+01	-4.226622e+00
1.567103e+01	-4.258062e+00
1.576155e+01	-4.289180e+00
1.585258e+01	-4.320753e+00
1.594415e+01	-4.352107e+00
1.603624e+01	-4.384175e+00
1.612886e+01	-4.415830e+00
1.622202e+01	-4.447985e+00
1.631572e+01	-4.479900e+00
1.640996e+01	-4.512446e+00
1.650474e+01	-4.544916e+00
1.660008e+01	-4.576975e+00
1.669596e+01	-4.609822e+00
1.679239e+01	-4.642523e+00
1.688938e+01	-4.675636e+00
1.698694e+01	-4.708877e+00
1.708505e+01	-4.741779e+00
1.718373e+01	-4.774827e+00
1.728299e+01	-4.808341e+00
1.738281e+01	-4.841809e+00
1.748322e+01	-4.875654e+00
1.758420e+01	-4.909266e+00
1.768576e+01	-4.943550e+00
1.778792e+01	-4.977546e+00
1.789066e+01	-5.011673e+00
1.799399e+01	-5.045828e+00
1.809793e+01	-5.080563e+00
1.820246e+01	-5.115205e+00
1.830760e+01	-5.149674e+00
1.841334e+01	-5.184554e+00
1.851969e+01	-5.219211e+00
1.862666e+01	-5.254273e+00
1.873425e+01	-5.289623e+00
1.884246e+01	-5.324812e+00
1.895129e+01	-5.360147e+00
1.906075e+01	-5.395998e+00
1.917085e+01	-5.431699e+00
1.928158e+01	-5.467349e+00
1.939295e+01	-5.503121e+00
1.950496e+01	-5.539180e+00
1.961762e+01	-5.575521e+00
1.973093e+01	-5.611554e+00
1.984490e+01	-5.647887e+00
1.995952e+01	-5.684014e+00
2.007480e+01	-5.720844e+00
2.019076e+01	-5.757576e+00
2.030738e+01	-5.794649e+00
2.042467e+01	-5.831159e+00
2.054264e+01	-5.868000e+00
2.066130e+01	-5.905467e+00
2.078064e+01	-5.942613e+00
2.090066e+01	-5.979780e+00
2.102139e+01	-6.017798e+00
2.114280e+01	-6.055177e+00
2.126492e+01	-6.092408e+00
2.138775e+01	-6.130204e+00
2.151128e+01	-6.168391e+00
2.163553e+01	-6.206792e+00
2.176050e+01	-6.244143e+00
2.188619e+01	-6.282559e+00
2.201260e+01	-6.321031e+00
2.213974e+01	-6.359475e+00
2.226762e+01	-6.397879e+00
2.239624e+01	-6.436221e+00
2.252560e+01	-6.475074e+00
2.265571e+01	-6.513842e+00
2.278656e+01	-6.552930e+00
2.291818e+01	-6.592005e+00
2.305055e+01	-6.630966e+00
2.318369e+01	-6.670129e+00
2.331760e+01	-6.709125e+00
2.345228e+01	-6.748777e+00
2.358774e+01	-6.788418e+00
2.372398e+01	-6.827883e+00
2.386101e+01	-6.867590e+00
2.399883e+01	-6.907618e+00
2.413745e+01	-6.947112e+00
2.427686e+01	-6.987426e+00
2.441709e+01	-7.027463e+00
2.455812e+01	-7.067514e+00
2.469997e+01	-7.108155e+00
2.484263e+01	-7.148140e+00
2.498612e+01	-7.188719e+00
2.513044e+01	-7.228834e+00
2.527559e+01	-7.269542e+00
2.542158e+01	-7.310282e+00
2.556842e+01	-7.350952e+00
2.571610e+01	-7.392056e+00
2.586463e+01	-7.432774e+00
2.601403e+01	-7.474009e+00
2.616428e+01	-7.515401e+00
2.631541e+01	-7.556334e+00
2.646740e+01	-7.597520e+00
2.662028e+01	-7.639043e+00
2.677404e+01	-7.680598e+00
2.692868e+01	-7.721665e+00
2.708422e+01	-7.763371e+00
2.724066e+01	-7.805078e+00
2.739800e+01	-7.847482e+00
2.755625e+01	-7.889140e+00
2.771541e+01	-7.930440e+00
2.787550e+01	-7.973016e+00
2.803650e+01	-8.014322e+00
2.819844e+01	-8.057420e+00
2.836131e+01	-8.099252e+00
2.852513e+01	-8.141536e+00
2.868989e+01	-8.184234e+00
2.885560e+01	-8.226853e+00
2.902227e+01	-8.268896e+00
2.918990e+01	-8.311597e+00
2.935850e+01	-8.354446e+00
2.952807e+01	-8.396964e+00
2.969863e+01	-8.440002e+00
2.987016e+01	-8.482872e+00
3.004269e+01	-8.525522e+00
3.021622e+01	-8.568684e+00
3.039075e+01	-8.611786e+00
3.056628e+01	-8.654882e+00
3.074283e+01	-8.698284e+00
3.092040e+01	-8.741552e+00
3.109900e+01	-8.784698e+00
3.127862e+01	-8.828422e+00
3.145929e+01	-8.871484e+00
3.164099e+01	-8.915640e+00
3.182375e+01	-8.959262e+00
3.200756e+01	-9.002459e+00
3.219244e+01	-9.046833e+00
3.237838e+01	-9.090761e+00
3.256540e+01	-9.134444e+00
3.275349e+01	-9.177863e+00
3.294268e+01	-9.222449e+00
3.313295e+01	-9.266208e+00
3.332433e+01	-9.310383e+00
3.351681e+01	-9.354855e+00
3.371040e+01	-9.398477e+00
3.390511e+01	-9.443658e+00
3.410094e+01	-9.487356e+00
3.429791e+01	-9.531924e+00
3.449601e+01	-9.576532e+00
3.469526e+01	-9.620943e+00
3.489566e+01	-9.665241e+00
3.509721e+01	-9.710214e+00
3.529993e+01	-9.754609e+00
3.550382e+01	-9.799572e+00
3.570889e+01	-9.844462e+00
3.591515e+01	-9.889191e+00
3.612259e+01	-9.934262e+00
3.633123e+01	-9.979344e+00
3.654108e+01	-1.002401e+01
3.675214e+01	-1.006964e+01
3.696442e+01	-1.011449e+01
3.717792e+01	-1.015973e+01
3.739266e+01	-1.020458e+01
3.760864e+01	-1.025047e+01
3.782587e+01	-1.029573e+01
3.804435e+01	-1.034127e+01
3.826409e+01	-1.038586e+01
3.848510e+01	-1.043152e+01
3.870739e+01	-1.047766e+01
3.893096e+01	-1.052321e+01
3.915583e+01	-1.056869e+01
3.938199e+01	-1.061410e+01
3.960946e+01	-1.066007e+01
3.983824e+01	-1.070543e+01
4.006834e+01	-1.075141e+01
4.029978e+01	-1.079708e+01
4.053255e+01	-1.084302e+01
4.076666e+01	-1.088923e+01
4.100213e+01	-1.093537e+01
4.123896e+01	-1.098177e+01
4.147715e+01	-1.102706e+01
4.171672e+01	-1.107363e+01
4.195767e+01	-1.111882e+01
4.220002e+01	-1.116549e+01
4.244377e+01	-1.121189e+01
4.268892e+01	-1.125787e+01
4.293549e+01	-1.130428e+01
4.318348e+01	-1.135074e+01
4.343291e+01	-1.139713e+01
4.368377e+01	-1.144300e+01
4.393609e+01	-1.148957e+01
4.418986e+01	-1.153707e+01
4.444510e+01	-1.158285e+01
4.470182e+01	-1.162990e+01
4.496001e+01	-1.167621e+01
4.521970e+01	-1.172239e+01
4.548089e+01	-1.176879e+01
4.574358e+01	-1.181600e+01
4.600779e+01	-1.186210e+01
4.627353e+01	-1.190936e+01
4.654081e+01	-1.195641e+01
4.680963e+01	-1.200321e+01
4.708000e+01	-1.205048e+01
4.735193e+01	-1.209741e+01
4.762543e+01	-1.214376e+01
4.790051e+01	-1.219108e+01
4.817719e+01	-1.223776e+01
4.845545e+01	-1.228571e+01
4.873533e+01	-1.233237e+01
4.901682e+01	-1.237924e+01
4.929994e+01	-1.242669e+01
4.958470e+01	-1.247422e+01
4.987110e+01	-1.252056e+01
5.015915e+01	-1.256829e+01
5.044887e+01	-1.261552e+01
5.074026e+01	-1.266239e+01
5.103333e+01	-1.271054e+01
5.132810e+01	-1.275722e+01
5.162457e+01	-1.280504e+01
5.192275e+01	-1.285254e+01
5.222265e+01	-1.290005e+01
5.252429e+01	-1.294725e+01
5.282767e+01	-1.299431e+01
5.313280e+01	-1.304266e+01
5.343969e+01	-1.308946e+01
5.374836e+01	-1.313738e+01
5.405880e+01	-1.318455e+01
5.437105e+01	-1.323273e+01
5.468509e+01	-1.328017e+01
5.500095e+01	-1.332806e+01
5.531863e+01	-1.337551e+01
5.563815e+01	-1.342324e+01
5.595951e+01	-1.347134e+01
5.628273e+01	-1.351964e+01
5.660782e+01	-1.356670e+01
5.693479e+01	-1.361449e+01
5.726364e+01	-1.366304e+01
5.759439e+01	-1.371006e+01
5.792705e+01	-1.375866e+01
5.826164e+01	-1.380702e+01
5.859815e+01	-1.385372e+01
5.893662e+01	-1.390339e+01
5.927703e+01	-1.395008e+01
5.961941e+01	-1.399857e+01
5.996377e+01	-1.404614e+01
6.031012e+01	-1.409477e+01
6.065847e+01	-1.414256e+01
6.100883e+01	-1.419018e+01
6.136121e+01	-1.423831e+01
6.171563e+01	-1.428713e+01
6.207210e+01	-1.433521e+01
6.243063e+01	-1.438296e+01
6.279122e+01	-1.443099e+01
6.315390e+01	-1.447923e+01
6.351868e+01	-1.452832e+01
6.388556e+01	-1.457610e+01
6.425456e+01	-1.462416e+01
6.462569e+01	-1.467276e+01
6.499897e+01	-1.472136e+01
6.537440e+01	-1.476872e+01
6.575200e+01	-1.481825e+01
6.613178e+01	-1.486590e+01
6.651375e+01	-1.491569e+01
6.689793e+01	-1.496363e+01
6.728433e+01	-1.501164e+01
6.767297e+01	-1.505953e+01
6.806384e+01	-1.510827e+01
6.845698e+01	-1.515691e+01
6.885238e+01	-1.520545e+01
6.925007e+01	-1.525470e+01
6.965005e+01	-1.530278e+01
7.005235e+01	-1.535214e+01
7.045697e+01	-1.539908e+01
7.086393e+01	-1.544840e+01
7.127323e+01	-1.549634e+01
7.168490e+01	-1.554523e+01
7.209895e+01	-1.559362e+01
7.251539e+01	-1.564315e+01
7.293424e+01	-1.569128e+01
7.335551e+01	-1.574026e+01
7.377920e+01	-1.578876e+01
7.420535e+01	-1.583793e+01
7.463396e+01	-1.588611e+01
7.506504e+01	-1.593588e+01
7.549861e+01	-1.598255e+01
7.593469e+01	-1.603297e+01
7.637328e+01	-1.608074e+01
7.681441e+01	-1.613059e+01
7.725809e+01	-1.617909e+01
7.770433e+01	-1.622673e+01
7.815315e+01	-1.627621e+01
7.860456e+01	-1.632578e+01
7.905857e+01	-1.637400e+01
7.951521e+01	-1.642320e+01
7.997449e+01	-1.647144e+01
8.043642e+01	-1.652074e+01
8.090102e+01	-1.657024e+01
8.136830e+01	-1.661920e+01
8.183828e+01	-1.666858e+01
8.231097e+01	-1.671624e+01
8.278640e+01	-1.676520e+01
8.326457e+01	-1.681469e+01
8.374550e+01	-1.686460e+01
8.422921e+01	-1.691276e+01
8.471572e+01	-1.696176e+01
8.520503e+01	-1.700994e+01
8.569717e+01	-1.705964e+01
8.619215e+01	-1.710860e+01
8.669000e+01	-1.715832e+01
8.719071e+01	-1.720679e+01
8.769432e+01	-1.725605e+01
8.820084e+01	-1.730542e+01
8.871029e+01	-1.735378e+01
8.922267e+01	-1.740356e+01
8.973802e+01	-1.745314e+01
9.025634e+01	-1.750184e+01
9.077766e+01	-1.755081e+01
9.130199e+01	-1.759936e+01
9.182935e+01	-1.764857e+01
9.235975e+01	-1.769846e+01
9.289321e+01	-1.774721e+01
9.342976e+01	-1.779617e+01
9.396941e+01	-1.784556e+01
9.451217e+01	-1.789633e+01
9.505807e+01	-1.794468e+01
9.560712e+01	-1.799299e+01
9.615934e+01	-1.804205e+01
9.671476e+01	-1.809163e+01
9.727338e+01	-1.814236e+01
9.783522e+01	-1.818967e+01
9.840032e+01	-1.823982e+01
9.896867e+01	-1.828957e+01
9.954031e+01	-1.833838e+01
1.001153e+02	-1.838836e+01
1.006935e+02	-1.843755e+01
1.012751e+02	-1.848737e+01
1.018601e+02	-1.853636e+01
1.024484e+02	-1.858584e+01
1.030402e+02	-1.863480e+01
1.036353e+02	-1.868376e+01
1.042339e+02	-1.873401e+01
1.048360e+02	-1.878146e+01
1.054415e+02	-1.883076e+01
1.060505e+02	-1.888187e+01
1.066631e+02	-1.892834e+01
1.072791e+02	-1.897900e+01
1.078988e+02	-1.903020e+01
1.085220e+02	-1.907867e+01
1.091488e+02	-1.912963e+01
1.097793e+02	-1.917755e+01
1.104133e+02	-1.922894e+01
1.110511e+02	-1.927655e+01
1.116925e+02	-1.932809e+01
1.123376e+02	-1.937569e+01
1.129865e+02	-1.942724e+01
1.136391e+02	-1.947570e+01
1.142955e+02	-1.952625e+01
1.149556e+02	-1.957334e+01
1.156196e+02	-1.962512e+01
1.162874e+02	-1.967239e+01
1.169591e+02	-1.972165e+01
1.176347e+02	-1.977047e+01
1.183141e+02	-1.982128e+01
1.189975e+02	-1.987117e+01
1.196848e+02	-1.992041e+01
1.203761e+02	-1.996966e+01
1.210714e+02	-2.002059e+01
1.217707e+02	-2.006784e+01
1.224740e+02	-2.011715e+01
1.231814e+02	-2.016905e+01
1.238929e+02	-2.021790e+01
1.246085e+02	-2.026616e+01
1.253283e+02	-2.031816e+01
1.260522e+02	-2.036602e+01
1.267802e+02	-2.041608e+01
1.275125e+02	-2.046413e+01
1.282490e+02	-2.051444e+01
1.289898e+02	-2.056495e+01
1.297348e+02	-2.061497e+01
1.304842e+02	-2.066216e+01
1.312378e+02	-2.071443e+01
1.319959e+02	-2.076173e+01
1.327583e+02	-2.081273e+01
1.335251e+02	-2.086195e+01
1.342963e+02	-2.091208e+01
1.350720e+02	-2.096175e+01
1.358522e+02	-2.101036e+01
1.366368e+02	-2.106021e+01
1.374260e+02	-2.110966e+01
1.382198e+02	-2.115868e+01
1.390182e+02	-2.120859e+01
1.398211e+02	-2.125837e+01
1.406287e+02	-2.130776e+01
1.414410e+02	-2.136008e+01
1.422579e+02	-2.140934e+01
1.430796e+02	-2.146050e+01
1.439060e+02	-2.150793e+01
1.447372e+02	-2.155825e+01
1.455732e+02	-2.160787e+01
1.464141e+02	-2.165615e+01
1.472597e+02	-2.170510e+01
1.481103e+02	-2.175516e+01
1.489658e+02	-2.180579e+01
1.498262e+02	-2.185587e+01
1.506916e+02	-2.190354e+01
1.515620e+02	-2.195519e+01
1.524374e+02	-2.200435e+01
1.533179e+02	-2.205385e+01
1.542034e+02	-2.210410e+01
1.550941e+02	-2.215374e+01
1.559899e+02	-2.220267e+01
1.568909e+02	-2.225324e+01
1.577971e+02	-2.230436e+01
1.587085e+02	-2.235449e+01
1.596252e+02	-2.240561e+01
1.605472e+02	-2.245350e+01
1.614745e+02	-2.250110e+01
1.624072e+02	-2.255330e+01
1.633453e+02	-2.260424e+01
1.642887e+02	-2.265116e+01
1.652377e+02	-2.270223e+01
1.661921e+02	-2.274985e+01
1.671520e+02	-2.280117e+01
1.681175e+02	-2.285328e+01
1.690885e+02	-2.290100e+01
1.700651e+02	-2.295060e+01
1.710474e+02	-2.300096e+01
1.720354e+02	-2.304845e+01
1.730291e+02	-2.310131e+01
1.740285e+02	-2.315052e+01
1.750337e+02	-2.319867e+01
1.760446e+02	-2.324842e+01
1.770615e+02	-2.329623e+01
1.780842e+02	-2.334823e+01
1.791128e+02	-2.339779e+01
1.801473e+02	-2.345026e+01
1.811878e+02	-2.349768e+01
1.822344e+02	-2.354840e+01
1.832870e+02	-2.360041e+01
1.843456e+02	-2.364800e+01
1.854104e+02	-2.369508e+01
1.864813e+02	-2.374704e+01
1.875584e+02	-2.379600e+01
1.886418e+02	-2.384682e+01
1.897313e+02	-2.389709e+01
1.908272e+02	-2.394613e+01
1.919294e+02	-2.399428e+01
1.930380e+02	-2.404588e+01
1.941530e+02	-2.409575e+01
1.952744e+02	-2.414597e+01
1.964023e+02	-2.419831e+01
1.975367e+02	-2.424580e+01
1.986777e+02	-2.429774e+01
1.998252e+02	-2.434586e+01
2.009794e+02	-2.439670e+01
2.021403e+02	-2.444769e+01
2.033078e+02	-2.449668e+01
2.044821e+02	-2.454490e+01
2.056632e+02	-2.459430e+01
2.068511e+02	-2.464420e+01
2.080459e+02	-2.469344e+01
2.092475e+02	-2.474199e+01
2.104561e+02	-2.479416e+01
2.116717e+02	-2.484309e+01
2.128943e+02	-2.489316e+01
2.141240e+02	-2.494619e+01
2.153608e+02	-2.499662e+01
2.166047e+02	-2.504254e+01
2.178558e+02	-2.509831e+01
2.191141e+02	-2.514394e+01
2.203797e+02	-2.519301e+01
2.216526e+02	-2.524348e+01
2.229329e+02	-2.529415e+01
2.242205e+02	-2.534358e+01
2.255156e+02	-2.539409e+01
2.268182e+02	-2.544367e+01
2.281283e+02	-2.549427e+01
2.294459e+02	-2.554269e+01
2.307712e+02	-2.559408e+01
2.321041e+02	-2.564302e+01
2.334447e+02	-2.569396e+01
2.347931e+02	-2.574718e+01
2.361493e+02	-2.579042e+01
2.375133e+02	-2.584136e+01
2.388851e+02	-2.588955e+01
2.402649e+02	-2.594144e+01
2.416527e+02	-2.599427e+01
2.430484e+02	-2.604064e+01
2.444523e+02	-2.609444e+01
2.458642e+02	-2.613903e+01
2.472843e+02	-2.618982e+01
2.487126e+02	-2.624100e+01
2.501492e+02	-2.628945e+01
2.515940e+02	-2.634208e+01
2.530472e+02	-2.639216e+01
2.545088e+02	-2.644102e+01
2.559789e+02	-2.649250e+01
2.574574e+02	-2.654238e+01
2.589444e+02	-2.659155e+01
2.604401e+02	-2.664358e+01
2.619444e+02	-2.669197e+01
2.634574e+02	-2.673913e+01
2.649791e+02	-2.679250e+01
2.665096e+02	-2.683997e+01
2.680489e+02	-2.689549e+01
2.695972e+02	-2.694021e+01
2.711544e+02	-2.699090e+01
2.727205e+02	-2.704548e+01
2.742958e+02	-2.709272e+01
2.758801e+02	-2.714174e+01
2.774736e+02	-2.719022e+01
2.790762e+02	-2.723982e+01
2.806882e+02	-2.729212e+01
2.823094e+02	-2.733922e+01
2.839400e+02	-2.739149e+01
2.855800e+02	-2.743817e+01
2.872295e+02	-2.749078e+01
2.888886e+02	-2.754463e+01
2.905572e+02	-2.759324e+01
2.922354e+02	-2.764215e+01
2.939234e+02	-2.768909e+01
2.956211e+02	-2.774040e+01
2.973286e+02	-2.779090e+01
2.990459e+02	-2.784211e+01
3.007732e+02	-2.789264e+01
3.025104e+02	-2.794199e+01
3.042577e+02	-2.799263e+01
3.060151e+02	-2.803996e+01
3.077826e+02	-2.809172e+01
3.095604e+02	-2.814624e+01
3.113484e+02	-2.819177e+01
3.131467e+02	-2.824139e+01
3.149554e+02	-2.829293e+01
3.167746e+02	-2.834345e+01
3.186043e+02	-2.839381e+01
3.204445e+02	-2.844631e+01
3.222954e+02	-2.849392e+01
3.241570e+02	-2.854088e+01
3.260293e+02	-2.859633e+01
3.279124e+02	-2.864466e+01
3.298064e+02	-2.869342e+01
3.317114e+02	-2.874398e+01
3.336273e+02	-2.879130e+01
3.355544e+02	-2.884934e+01
3.374925e+02	-2.889108e+01
3.394418e+02	-2.894188e+01
3.414024e+02	-2.899169e+01
3.433744e+02	-2.904654e+01
3.453577e+02	-2.909842e+01
3.473525e+02	-2.913961e+01
3.493588e+02	-2.919180e+01
3.513766e+02	-2.924906e+01
3.534062e+02	-2.929433e+01
3.554474e+02	-2.934400e+01
3.575005e+02	-2.939848e+01
3.595654e+02	-2.944487e+01
3.616422e+02	-2.949759e+01
3.637311e+02	-2.954088e+01
3.658320e+02	-2.959290e+01
3.679450e+02	-2.964071e+01
3.700702e+02	-2.968695e+01
3.722077e+02	-2.974383e+01
3.743576e+02	-2.979698e+01
3.765199e+02	-2.984282e+01
3.786946e+02	-2.989998e+01
3.808820e+02	-2.994590e+01
3.830819e+02	-2.999200e+01
3.852946e+02	-3.004504e+01
3.875200e+02	-3.009218e+01
3.897583e+02	-3.014144e+01
3.920096e+02	-3.019792e+01
3.942738e+02	-3.024460e+01
3.965511e+02	-3.028974e+01
3.988416e+02	-3.034448e+01
4.011452e+02	-3.040166e+01
4.034622e+02	-3.044832e+01
4.057926e+02	-3.049464e+01
4.081365e+02	-3.055093e+01
4.104938e+02	-3.059225e+01
4.128648e+02	-3.064398e+01
4.152495e+02	-3.069668e+01
4.176480e+02	-3.074992e+01
4.200603e+02	-3.079037e+01
4.224866e+02	-3.085058e+01
4.249268e+02	-3.089491e+01
4.273812e+02	-3.094644e+01
4.298497e+02	-3.099811e+01
4.323325e+02	-3.104722e+01
4.348297e+02	-3.109839e+01
4.373412e+02	-3.114666e+01
4.398673e+02	-3.119684e+01
4.424079e+02	-3.124785e+01
4.449633e+02	-3.129837e+01
4.475334e+02	-3.134575e+01
4.501183e+02	-3.139324e+01
4.527182e+02	-3.144555e+01
4.553330e+02	-3.150021e+01
4.579630e+02	-3.154548e+01
4.606082e+02	-3.160636e+01
4.632687e+02	-3.164767e+01
4.659445e+02	-3.169992e+01
4.686358e+02	-3.174861e+01
4.713426e+02	-3.179848e+01
4.740650e+02	-3.185881e+01
4.768032e+02	-3.189762e+01
4.795572e+02	-3.194884e+01
4.823271e+02	-3.200173e+01
4.851130e+02	-3.205200e+01
4.879150e+02	-3.210142e+01
4.907332e+02	-3.214906e+01
4.935676e+02	-3.219809e+01
4.964185e+02	-3.225467e+01
4.992858e+02	-3.230601e+01
5.021696e+02	-3.235584e+01
5.050701e+02	-3.239966e+01
5.079874e+02	-3.245330e+01
5.109215e+02	-3.250684e+01
5.138726e+02	-3.255432e+01
5.168407e+02	-3.259206e+01
5.198259e+02	-3.265540e+01
5.228284e+02	-3.270708e+01
5.258482e+02	-3.274873e+01
5.288855e+02	-3.280037e+01
5.319403e+02	-3.285237e+01
5.350128e+02	-3.290273e+01
5.381030e+02	-3.295425e+01
5.412111e+02	-3.300638e+01
5.443371e+02	-3.305507e+01
5.474812e+02	-3.310776e+01
5.506434e+02	-3.315371e+01
5.538239e+02	-3.320246e+01
5.570228e+02	-3.325149e+01
5.602401e+02	-3.330387e+01
5.634760e+02	-3.335668e+01
5.667306e+02	-3.340729e+01
5.700040e+02	-3.345284e+01
5.732964e+02	-3.351262e+01
5.766077e+02	-3.355287e+01
5.799382e+02	-3.360273e+01
5.832879e+02	-3.366139e+01
5.866569e+02	-3.371266e+01
5.900454e+02	-3.376228e+01
5.934535e+02	-3.380886e+01
5.968813e+02	-3.385389e+01
6.003288e+02	-3.390677e+01
6.037963e+02	-3.395063e+01
6.072838e+02	-3.401354e+01
6.107914e+02	-3.406039e+01
6.143194e+02	-3.412209e+01
6.178676e+02	-3.415776e+01
6.214364e+02	-3.421621e+01
6.250258e+02	-3.426013e+01
6.286359e+02	-3.431347e+01
6.322669e+02	-3.436348e+01
6.359189e+02	-3.441732e+01
6.395919e+02	-3.446293e+01
6.432862e+02	-3.450964e+01
6.470017e+02	-3.456160e+01
6.507388e+02	-3.461519e+01
6.544974e+02	-3.466932e+01
6.582778e+02	-3.471865e+01
6.620800e+02	-3.476080e+01
6.659041e+02	-3.482255e+01
6.697504e+02	-3.487062e+01
6.736188e+02	-3.491375e+01
6.775096e+02	-3.496688e+01
6.814229e+02	-3.501681e+01
6.853587e+02	-3.507622e+01
6.893173e+02	-3.512327e+01
6.932988e+02	-3.516238e+01
6.973033e+02	-3.522033e+01
7.013309e+02	-3.526400e+01
