Frequency(Hz)	Magnitude(dB)
1.000000e+01	-1.702278e-05
1.005776e+01	-1.721999e-05
1.011585e+01	-1.741949e-05
1.017428e+01	-1.762130e-05
1.023305e+01	-1.782545e-05
1.029215e+01	-1.803196e-05
1.035160e+01	-1.824086e-05
1.041139e+01	-1.845219e-05
1.047153e+01	-1.866596e-05
1.053201e+01	-1.888221e-05
1.059284e+01	-1.910097e-05
1.065403e+01	-1.932226e-05
1.071556e+01	-1.954611e-05
1.077746e+01	-1.977256e-05
1.083971e+01	-2.000163e-05
1.090232e+01	-2.023335e-05
1.096529e+01	-2.046776e-05
1.102862e+01	-2.070488e-05
1.109232e+01	-2.094475e-05
1.115639e+01	-2.118740e-05
1.122083e+01	-2.143287e-05
1.128564e+01	-2.168117e-05
1.135083e+01	-2.193235e-05
1.141639e+01	-2.218644e-05
1.148233e+01	-2.244348e-05
1.154865e+01	-2.270349e-05
1.161536e+01	-2.296652e-05
1.168245e+01	-2.323259e-05
1.174992e+01	-2.350175e-05
1.181779e+01	-2.377402e-05
1.188605e+01	-2.404945e-05
1.195470e+01	-2.432807e-05
1.202375e+01	-2.460991e-05
1.209320e+01	-2.489503e-05
1.216305e+01	-2.518344e-05
1.223330e+01	-2.547520e-05
1.230396e+01	-2.577033e-05
1.237503e+01	-2.606889e-05
1.244651e+01	-2.637090e-05
1.251840e+01	-2.667642e-05
1.259070e+01	-2.698547e-05
1.266343e+01	-2.729810e-05
1.273657e+01	-2.761436e-05
1.281014e+01	-2.793428e-05
1.288413e+01	-2.825790e-05
1.295855e+01	-2.858528e-05
1.303339e+01	-2.891645e-05
1.310867e+01	-2.925145e-05
1.318439e+01	-2.959033e-05
1.326054e+01	-2.993315e-05
1.333713e+01	-3.027993e-05
1.341417e+01	-3.063073e-05
1.349165e+01	-3.098559e-05
1.356958e+01	-3.134457e-05
1.364795e+01	-3.170770e-05
1.372678e+01	-3.207504e-05
1.380607e+01	-3.244664e-05
1.388581e+01	-3.282254e-05
1.396602e+01	-3.320280e-05
1.404668e+01	-3.358746e-05
1.412782e+01	-3.397658e-05
1.420942e+01	-3.437021e-05
1.429149e+01	-3.476839e-05
1.437404e+01	-3.517119e-05
1.445706e+01	-3.557866e-05
1.454057e+01	-3.599085e-05
1.462455e+01	-3.640781e-05
1.470902e+01	-3.682960e-05
1.479398e+01	-3.725628e-05
1.487943e+01	-3.768790e-05
1.496537e+01	-3.812453e-05
1.505181e+01	-3.856621e-05
1.513875e+01	-3.901301e-05
1.522619e+01	-3.946498e-05
1.531414e+01	-3.992219e-05
1.540259e+01	-4.038470e-05
1.549156e+01	-4.085257e-05
1.558103e+01	-4.132585e-05
1.567103e+01	-4.180462e-05
1.576155e+01	-4.228894e-05
1.585258e+01	-4.277886e-05
1.594415e+01	-4.327447e-05
1.603624e+01	-4.377581e-05
1.612886e+01	-4.428296e-05
1.622202e+01	-4.479599e-05
1.631572e+01	-4.531496e-05
1.640996e+01	-4.583995e-05
1.650474e+01	-4.637101e-05
1.660008e+01	-4.690823e-05
1.669596e+01	-4.745167e-05
1.679239e+01	-4.800141e-05
1.688938e+01	-4.855752e-05
1.698694e+01	-4.912007e-05
1.708505e+01	-4.968913e-05
1.718373e+01	-5.026479e-05
1.728299e+01	-5.084712e-05
1.738281e+01	-5.143620e-05
1.748322e+01	-5.203209e-05
1.758420e+01	-5.263490e-05
1.768576e+01	-5.324468e-05
1.778792e+01	-5.386153e-05
1.789066e+01	-5.448553e-05
1.799399e+01	-5.511676e-05
1.809793e+01	-5.575530e-05
1.820246e+01	-5.640123e-05
1.830760e+01	-5.705465e-05
1.841334e+01	-5.771564e-05
1.851969e+01	-5.838429e-05
1.862666e+01	-5.906068e-05
1.873425e+01	-5.974491e-05
1.884246e+01	-6.043707e-05
1.895129e+01	-6.113725e-05
1.906075e+01	-6.184553e-05
1.917085e+01	-6.256203e-05
1.928158e+01	-6.328682e-05
1.939295e+01	-6.402001e-05
1.950496e+01	-6.476169e-05
1.961762e+01	-6.551197e-05
1.973093e+01	-6.627094e-05
1.984490e+01	-6.703870e-05
1.995952e+01	-6.781536e-05
2.007480e+01	-6.860101e-05
2.019076e+01	-6.939577e-05
2.030738e+01	-7.019973e-05
2.042467e+01	-7.101300e-05
2.054264e+01	-7.183570e-05
2.066130e+01	-7.266793e-05
2.078064e+01	-7.350980e-05
2.090066e+01	-7.436143e-05
2.102139e+01	-7.522292e-05
2.114280e+01	-7.609439e-05
2.126492e+01	-7.697596e-05
2.138775e+01	-7.786774e-05
2.151128e+01	-7.876985e-05
2.163553e+01	-7.968241e-05
2.176050e+01	-8.060555e-05
2.188619e+01	-8.153937e-05
2.201260e+01	-8.248402e-05
2.213974e+01	-8.343961e-05
2.226762e+01	-8.440628e-05
2.239624e+01	-8.538414e-05
2.252560e+01	-8.637333e-05
2.265571e+01	-8.737397e-05
2.278656e+01	-8.838622e-05
2.291818e+01	-8.941018e-05
2.305055e+01	-9.044602e-05
2.318369e+01	-9.149385e-05
2.331760e+01	-9.255382e-05
2.345228e+01	-9.362607e-05
2.358774e+01	-9.471074e-05
2.372398e+01	-9.580798e-05
2.386101e+01	-9.691793e-05
2.399883e+01	-9.804074e-05
2.413745e+01	-9.917655e-05
2.427686e+01	-1.003255e-04
2.441709e+01	-1.014878e-04
2.455812e+01	-1.026636e-04
2.469997e+01	-1.038529e-04
2.484263e+01	-1.050561e-04
2.498612e+01	-1.062732e-04
2.513044e+01	-1.075044e-04
2.527559e+01	-1.087498e-04
2.542158e+01	-1.100097e-04
2.556842e+01	-1.112842e-04
2.571610e+01	-1.125734e-04
2.586463e+01	-1.138776e-04
2.601403e+01	-1.151969e-04
2.616428e+01	-1.165315e-04
2.631541e+01	-1.178815e-04
2.646740e+01	-1.192472e-04
2.662028e+01	-1.206286e-04
2.677404e+01	-1.220261e-04
2.692868e+01	-1.234398e-04
2.708422e+01	-1.248699e-04
2.724066e+01	-1.263165e-04
2.739800e+01	-1.277799e-04
2.755625e+01	-1.292603e-04
2.771541e+01	-1.307578e-04
2.787550e+01	-1.322726e-04
2.803650e+01	-1.338050e-04
2.819844e+01	-1.353551e-04
2.836131e+01	-1.369232e-04
2.852513e+01	-1.385095e-04
2.868989e+01	-1.401141e-04
2.885560e+01	-1.417374e-04
2.902227e+01	-1.433794e-04
2.918990e+01	-1.450405e-04
2.935850e+01	-1.467208e-04
2.952807e+01	-1.484206e-04
2.969863e+01	-1.501400e-04
2.987016e+01	-1.518794e-04
3.004269e+01	-1.536389e-04
3.021622e+01	-1.554189e-04
3.039075e+01	-1.572194e-04
3.056628e+01	-1.590408e-04
3.074283e+01	-1.608833e-04
3.092040e+01	-1.627471e-04
3.109900e+01	-1.646326e-04
3.127862e+01	-1.665399e-04
3.145929e+01	-1.684692e-04
3.164099e+01	-1.704210e-04
3.182375e+01	-1.723953e-04
3.200756e+01	-1.743925e-04
3.219244e+01	-1.764128e-04
3.237838e+01	-1.784566e-04
3.256540e+01	-1.805240e-04
3.275349e+01	-1.826154e-04
3.294268e+01	-1.847310e-04
3.313295e+01	-1.868711e-04
3.332433e+01	-1.890360e-04
3.351681e+01	-1.912260e-04
3.371040e+01	-1.934414e-04
3.390511e+01	-1.956824e-04
3.410094e+01	-1.979494e-04
3.429791e+01	-2.002426e-04
3.449601e+01	-2.025624e-04
3.469526e+01	-2.049091e-04
3.489566e+01	-2.072830e-04
3.509721e+01	-2.096844e-04
3.529993e+01	-2.121136e-04
3.550382e+01	-2.145709e-04
3.570889e+01	-2.170567e-04
3.591515e+01	-2.195713e-04
3.612259e+01	-2.221150e-04
3.633123e+01	-2.246882e-04
3.654108e+01	-2.272912e-04
3.675214e+01	-2.299244e-04
3.696442e+01	-2.325880e-04
3.717792e+01	-2.352826e-04
3.739266e+01	-2.380083e-04
3.760864e+01	-2.407656e-04
3.782587e+01	-2.435549e-04
3.804435e+01	-2.463765e-04
3.826409e+01	-2.492307e-04
3.848510e+01	-2.521180e-04
3.870739e+01	-2.550388e-04
3.893096e+01	-2.579934e-04
3.915583e+01	-2.609823e-04
3.938199e+01	-2.640057e-04
3.960946e+01	-2.670642e-04
3.983824e+01	-2.701581e-04
4.006834e+01	-2.732879e-04
4.029978e+01	-2.764539e-04
4.053255e+01	-2.796566e-04
4.076666e+01	-2.828964e-04
4.100213e+01	-2.861737e-04
4.123896e+01	-2.894890e-04
4.147715e+01	-2.928427e-04
4.171672e+01	-2.962352e-04
4.195767e+01	-2.996671e-04
4.220002e+01	-3.031387e-04
4.244377e+01	-3.066505e-04
4.268892e+01	-3.102030e-04
4.293549e+01	-3.137967e-04
4.318348e+01	-3.174320e-04
4.343291e+01	-3.211094e-04
4.368377e+01	-3.248294e-04
4.393609e+01	-3.285925e-04
4.418986e+01	-3.323992e-04
4.444510e+01	-3.362499e-04
4.470182e+01	-3.401453e-04
4.496001e+01	-3.440859e-04
4.521970e+01	-3.480720e-04
4.548089e+01	-3.521044e-04
4.574358e+01	-3.561834e-04
4.600779e+01	-3.603098e-04
4.627353e+01	-3.644839e-04
4.654081e+01	-3.687063e-04
4.680963e+01	-3.729777e-04
4.708000e+01	-3.772986e-04
4.735193e+01	-3.816695e-04
4.762543e+01	-3.860910e-04
4.790051e+01	-3.905638e-04
4.817719e+01	-3.950884e-04
4.845545e+01	-3.996654e-04
4.873533e+01	-4.042954e-04
4.901682e+01	-4.089791e-04
4.929994e+01	-4.137170e-04
4.958470e+01	-4.185098e-04
4.987110e+01	-4.233581e-04
5.015915e+01	-4.282626e-04
5.044887e+01	-4.332239e-04
5.074026e+01	-4.382426e-04
5.103333e+01	-4.433195e-04
5.132810e+01	-4.484552e-04
5.162457e+01	-4.536505e-04
5.192275e+01	-4.589058e-04
5.222265e+01	-4.642221e-04
5.252429e+01	-4.696000e-04
5.282767e+01	-4.750401e-04
5.313280e+01	-4.805433e-04
5.343969e+01	-4.861102e-04
5.374836e+01	-4.917416e-04
5.405880e+01	-4.974382e-04
5.437105e+01	-5.032009e-04
5.468509e+01	-5.090302e-04
5.500095e+01	-5.149271e-04
5.531863e+01	-5.208924e-04
5.563815e+01	-5.269267e-04
5.595951e+01	-5.330309e-04
5.628273e+01	-5.392058e-04
5.660782e+01	-5.454523e-04
5.693479e+01	-5.517711e-04
5.726364e+01	-5.581631e-04
5.759439e+01	-5.646291e-04
5.792705e+01	-5.711701e-04
5.826164e+01	-5.777868e-04
5.859815e+01	-5.844802e-04
5.893662e+01	-5.912511e-04
5.927703e+01	-5.981004e-04
5.961941e+01	-6.050291e-04
5.996377e+01	-6.120380e-04
6.031012e+01	-6.191282e-04
6.065847e+01	-6.263004e-04
6.100883e+01	-6.335558e-04
6.136121e+01	-6.408951e-04
6.171563e+01	-6.483195e-04
6.207210e+01	-6.558299e-04
6.243063e+01	-6.634273e-04
6.279122e+01	-6.711127e-04
6.315390e+01	-6.788871e-04
6.351868e+01	-6.867516e-04
6.388556e+01	-6.947072e-04
6.425456e+01	-7.027549e-04
6.462569e+01	-7.108958e-04
6.499897e+01	-7.191311e-04
6.537440e+01	-7.274617e-04
6.575200e+01	-7.358888e-04
6.613178e+01	-7.444136e-04
6.651375e+01	-7.530371e-04
6.689793e+01	-7.617604e-04
6.728433e+01	-7.705849e-04
6.767297e+01	-7.795115e-04
6.806384e+01	-7.885415e-04
6.845698e+01	-7.976762e-04
6.885238e+01	-8.069166e-04
6.925007e+01	-8.162641e-04
6.965005e+01	-8.257198e-04
7.005235e+01	-8.352851e-04
7.045697e+01	-8.449612e-04
7.086393e+01	-8.547493e-04
7.127323e+01	-8.646508e-04
7.168490e+01	-8.746670e-04
7.209895e+01	-8.847992e-04
7.251539e+01	-8.950488e-04
7.293424e+01	-9.054171e-04
7.335551e+01	-9.159055e-04
7.377920e+01	-9.265154e-04
7.420535e+01	-9.372482e-04
7.463396e+01	-9.481053e-04
7.506504e+01	-9.590881e-04
7.549861e+01	-9.701982e-04
7.593469e+01	-9.814369e-04
7.637328e+01	-9.928058e-04
7.681441e+01	-1.004306e-03
7.725809e+01	-1.015940e-03
7.770433e+01	-1.027709e-03
7.815315e+01	-1.039614e-03
7.860456e+01	-1.051656e-03
7.905857e+01	-1.063839e-03
7.951521e+01	-1.076162e-03
7.997449e+01	-1.088628e-03
8.043642e+01	-1.101238e-03
8.090102e+01	-1.113995e-03
8.136830e+01	-1.126899e-03
8.183828e+01	-1.139953e-03
8.231097e+01	-1.153158e-03
8.278640e+01	-1.166516e-03
8.326457e+01	-1.180028e-03
8.374550e+01	-1.193697e-03
8.422921e+01	-1.207525e-03
8.471572e+01	-1.221512e-03
8.520503e+01	-1.235662e-03
8.569717e+01	-1.249975e-03
8.619215e+01	-1.264454e-03
8.669000e+01	-1.279101e-03
8.719071e+01	-1.293918e-03
8.769432e+01	-1.308906e-03
8.820084e+01	-1.324068e-03
8.871029e+01	-1.339405e-03
8.922267e+01	-1.354920e-03
8.973802e+01	-1.370615e-03
9.025634e+01	-1.386491e-03
9.077766e+01	-1.402551e-03
9.130199e+01	-1.418798e-03
9.182935e+01	-1.435232e-03
9.235975e+01	-1.451857e-03
9.289321e+01	-1.468674e-03
9.342976e+01	-1.485686e-03
9.396941e+01	-1.502895e-03
9.451217e+01	-1.520304e-03
9.505807e+01	-1.537914e-03
9.560712e+01	-1.555728e-03
9.615934e+01	-1.573748e-03
9.671476e+01	-1.591977e-03
9.727338e+01	-1.610417e-03
9.783522e+01	-1.629071e-03
9.840032e+01	-1.647940e-03
9.896867e+01	-1.667028e-03
9.954031e+01	-1.686338e-03
1.001153e+02	-1.705870e-03
1.006935e+02	-1.725629e-03
1.012751e+02	-1.745617e-03
1.018601e+02	-1.765837e-03
1.024484e+02	-1.786290e-03
1.030402e+02	-1.806980e-03
1.036353e+02	-1.827910e-03
1.042339e+02	-1.849083e-03
1.048360e+02	-1.870500e-03
1.054415e+02	-1.892166e-03
1.060505e+02	-1.914082e-03
1.066631e+02	-1.936252e-03
1.072791e+02	-1.958679e-03
1.078988e+02	-1.981366e-03
1.085220e+02	-2.004315e-03
1.091488e+02	-2.027530e-03
1.097793e+02	-2.051014e-03
1.104133e+02	-2.074770e-03
1.110511e+02	-2.098801e-03
1.116925e+02	-2.123110e-03
1.123376e+02	-2.147701e-03
1.129865e+02	-2.172577e-03
1.136391e+02	-2.197740e-03
1.142955e+02	-2.223195e-03
1.149556e+02	-2.248945e-03
1.156196e+02	-2.274992e-03
1.162874e+02	-2.301342e-03
1.169591e+02	-2.327996e-03
1.176347e+02	-2.354959e-03
1.183141e+02	-2.382235e-03
1.189975e+02	-2.409826e-03
1.196848e+02	-2.437737e-03
1.203761e+02	-2.465970e-03
1.210714e+02	-2.494531e-03
1.217707e+02	-2.523422e-03
1.224740e+02	-2.552648e-03
1.231814e+02	-2.582213e-03
1.238929e+02	-2.612119e-03
1.246085e+02	-2.642372e-03
1.253283e+02	-2.672975e-03
1.260522e+02	-2.703933e-03
1.267802e+02	-2.735249e-03
1.275125e+02	-2.766927e-03
1.282490e+02	-2.798972e-03
1.289898e+02	-2.831389e-03
1.297348e+02	-2.864180e-03
1.304842e+02	-2.897351e-03
1.312378e+02	-2.930907e-03
1.319959e+02	-2.964850e-03
1.327583e+02	-2.999187e-03
1.335251e+02	-3.033921e-03
1.342963e+02	-3.069058e-03
1.350720e+02	-3.104601e-03
1.358522e+02	-3.140555e-03
1.366368e+02	-3.176926e-03
1.374260e+02	-3.213718e-03
1.382198e+02	-3.250936e-03
1.390182e+02	-3.288585e-03
1.398211e+02	-3.326669e-03
1.406287e+02	-3.365194e-03
1.414410e+02	-3.404166e-03
1.422579e+02	-3.443588e-03
1.430796e+02	-3.483467e-03
1.439060e+02	-3.523808e-03
1.447372e+02	-3.564615e-03
1.455732e+02	-3.605895e-03
1.464141e+02	-3.647653e-03
1.472597e+02	-3.689894e-03
1.481103e+02	-3.732624e-03
1.489658e+02	-3.775848e-03
1.498262e+02	-3.819573e-03
1.506916e+02	-3.863804e-03
1.515620e+02	-3.908547e-03
1.524374e+02	-3.953808e-03
1.533179e+02	-3.999593e-03
1.542034e+02	-4.045907e-03
1.550941e+02	-4.092758e-03
1.559899e+02	-4.140151e-03
1.568909e+02	-4.188093e-03
1.577971e+02	-4.236589e-03
1.587085e+02	-4.285647e-03
1.596252e+02	-4.335272e-03
1.605472e+02	-4.385472e-03
1.614745e+02	-4.436253e-03
1.624072e+02	-4.487622e-03
1.633453e+02	-4.539585e-03
1.642887e+02	-4.592149e-03
1.652377e+02	-4.645322e-03
1.661921e+02	-4.699110e-03
1.671520e+02	-4.753521e-03
1.681175e+02	-4.808561e-03
1.690885e+02	-4.864238e-03
1.700651e+02	-4.920559e-03
1.710474e+02	-4.977533e-03
1.720354e+02	-5.035165e-03
1.730291e+02	-5.093465e-03
1.740285e+02	-5.152439e-03
1.750337e+02	-5.212095e-03
1.760446e+02	-5.272442e-03
1.770615e+02	-5.333487e-03
1.780842e+02	-5.395238e-03
1.791128e+02	-5.457704e-03
1.801473e+02	-5.520893e-03
1.811878e+02	-5.584812e-03
1.822344e+02	-5.649472e-03
1.832870e+02	-5.714879e-03
1.843456e+02	-5.781043e-03
1.854104e+02	-5.847973e-03
1.864813e+02	-5.915677e-03
1.875584e+02	-5.984164e-03
1.886418e+02	-6.053444e-03
1.897313e+02	-6.123525e-03
1.908272e+02	-6.194417e-03
1.919294e+02	-6.266129e-03
1.930380e+02	-6.338671e-03
1.941530e+02	-6.412051e-03
1.952744e+02	-6.486281e-03
1.964023e+02	-6.561369e-03
1.975367e+02	-6.637326e-03
1.986777e+02	-6.714162e-03
1.998252e+02	-6.791886e-03
2.009794e+02	-6.870510e-03
2.021403e+02	-6.950042e-03
2.033078e+02	-7.030495e-03
2.044821e+02	-7.111878e-03
2.056632e+02	-7.194203e-03
2.068511e+02	-7.277479e-03
2.080459e+02	-7.361719e-03
2.092475e+02	-7.446933e-03
2.104561e+02	-7.533133e-03
2.116717e+02	-7.620329e-03
2.128943e+02	-7.708534e-03
2.141240e+02	-7.797759e-03
2.153608e+02	-7.888016e-03
2.166047e+02	-7.979316e-03
2.178558e+02	-8.071673e-03
2.191141e+02	-8.165097e-03
2.203797e+02	-8.259602e-03
2.216526e+02	-8.355199e-03
2.229329e+02	-8.451901e-03
2.242205e+02	-8.549722e-03
2.255156e+02	-8.648674e-03
2.268182e+02	-8.748770e-03
2.281283e+02	-8.850023e-03
2.294459e+02	-8.952447e-03
2.307712e+02	-9.056055e-03
2.321041e+02	-9.160861e-03
2.334447e+02	-9.266878e-03
2.347931e+02	-9.374121e-03
2.361493e+02	-9.482604e-03
2.375133e+02	-9.592340e-03
2.388851e+02	-9.703345e-03
2.402649e+02	-9.815634e-03
2.416527e+02	-9.929220e-03
2.430484e+02	-1.004412e-02
2.444523e+02	-1.016035e-02
2.458642e+02	-1.027792e-02
2.472843e+02	-1.039685e-02
2.487126e+02	-1.051715e-02
2.501492e+02	-1.063884e-02
2.515940e+02	-1.076194e-02
2.530472e+02	-1.088647e-02
2.545088e+02	-1.101243e-02
2.559789e+02	-1.113985e-02
2.574574e+02	-1.126874e-02
2.589444e+02	-1.139912e-02
2.604401e+02	-1.153100e-02
2.619444e+02	-1.166441e-02
2.634574e+02	-1.179936e-02
2.649791e+02	-1.193587e-02
2.665096e+02	-1.207396e-02
2.680489e+02	-1.221364e-02
2.695972e+02	-1.235494e-02
2.711544e+02	-1.249787e-02
2.727205e+02	-1.264245e-02
2.742958e+02	-1.278870e-02
2.758801e+02	-1.293664e-02
2.774736e+02	-1.308628e-02
2.790762e+02	-1.323766e-02
2.806882e+02	-1.339078e-02
2.823094e+02	-1.354568e-02
2.839400e+02	-1.370236e-02
2.855800e+02	-1.386085e-02
2.872295e+02	-1.402117e-02
2.888886e+02	-1.418334e-02
2.905572e+02	-1.434739e-02
2.922354e+02	-1.451333e-02
2.939234e+02	-1.468119e-02
2.956211e+02	-1.485098e-02
2.973286e+02	-1.502273e-02
2.990459e+02	-1.519647e-02
3.007732e+02	-1.537221e-02
3.025104e+02	-1.554998e-02
3.042577e+02	-1.572981e-02
3.060151e+02	-1.591170e-02
3.077826e+02	-1.609570e-02
3.095604e+02	-1.628183e-02
3.113484e+02	-1.647010e-02
3.131467e+02	-1.666054e-02
3.149554e+02	-1.685318e-02
3.167746e+02	-1.704804e-02
3.186043e+02	-1.724516e-02
3.204445e+02	-1.744454e-02
3.222954e+02	-1.764623e-02
3.241570e+02	-1.785025e-02
3.260293e+02	-1.805661e-02
3.279124e+02	-1.826536e-02
3.298064e+02	-1.847652e-02
3.317114e+02	-1.869011e-02
3.336273e+02	-1.890617e-02
3.355544e+02	-1.912472e-02
3.374925e+02	-1.934579e-02
3.394418e+02	-1.956941e-02
3.414024e+02	-1.979561e-02
3.433744e+02	-2.002441e-02
3.453577e+02	-2.025586e-02
3.473525e+02	-2.048997e-02
3.493588e+02	-2.072679e-02
3.513766e+02	-2.096633e-02
3.534062e+02	-2.120863e-02
3.554474e+02	-2.145373e-02
3.575005e+02	-2.170166e-02
3.595654e+02	-2.195244e-02
3.616422e+02	-2.220611e-02
3.637311e+02	-2.246271e-02
3.658320e+02	-2.272226e-02
3.679450e+02	-2.298481e-02
3.700702e+02	-2.325038e-02
3.722077e+02	-2.351901e-02
3.743576e+02	-2.379073e-02
3.765199e+02	-2.406559e-02
3.786946e+02	-2.434361e-02
3.808820e+02	-2.462483e-02
3.830819e+02	-2.490930e-02
3.852946e+02	-2.519704e-02
3.875200e+02	-2.548809e-02
3.897583e+02	-2.578250e-02
3.920096e+02	-2.608030e-02
3.942738e+02	-2.638152e-02
3.965511e+02	-2.668622e-02
3.988416e+02	-2.699442e-02
4.011452e+02	-2.730617e-02
4.034622e+02	-2.762151e-02
4.057926e+02	-2.794048e-02
4.081365e+02	-2.826313e-02
4.104938e+02	-2.858948e-02
4.128648e+02	-2.891959e-02
4.152495e+02	-2.925350e-02
4.176480e+02	-2.959125e-02
4.200603e+02	-2.993289e-02
4.224866e+02	-3.027846e-02
4.249268e+02	-3.062800e-02
4.273812e+02	-3.098156e-02
4.298497e+02	-3.133920e-02
4.323325e+02	-3.170094e-02
4.348297e+02	-3.206684e-02
4.373412e+02	-3.243695e-02
4.398673e+02	-3.281132e-02
4.424079e+02	-3.318999e-02
4.449633e+02	-3.357302e-02
4.475334e+02	-3.396045e-02
4.501183e+02	-3.435233e-02
4.527182e+02	-3.474871e-02
4.553330e+02	-3.514965e-02
4.579630e+02	-3.555520e-02
4.606082e+02	-3.596540e-02
4.632687e+02	-3.638032e-02
4.659445e+02	-3.680001e-02
4.686358e+02	-3.722451e-02
4.713426e+02	-3.765389e-02
4.740650e+02	-3.808821e-02
4.768032e+02	-3.852751e-02
4.795572e+02	-3.897185e-02
4.823271e+02	-3.942130e-02
4.851130e+02	-3.987590e-02
4.879150e+02	-4.033572e-02
4.907332e+02	-4.080082e-02
4.935676e+02	-4.127126e-02
4.964185e+02	-4.174710e-02
4.992858e+02	-4.222839e-02
5.021696e+02	-4.271521e-02
5.050701e+02	-4.320761e-02
5.079874e+02	-4.370566e-02
5.109215e+02	-4.420941e-02
5.138726e+02	-4.471895e-02
5.168407e+02	-4.523433e-02
5.198259e+02	-4.575561e-02
5.228284e+02	-4.628287e-02
5.258482e+02	-4.681618e-02
5.288855e+02	-4.735559e-02
5.319403e+02	-4.790119e-02
5.350128e+02	-4.845304e-02
5.381030e+02	-4.901121e-02
5.412111e+02	-4.957577e-02
5.443371e+02	-5.014679e-02
5.474812e+02	-5.072436e-02
5.506434e+02	-5.130854e-02
5.538239e+02	-5.189940e-02
5.570228e+02	-5.249703e-02
5.602401e+02	-5.310150e-02
5.634760e+02	-5.371289e-02
5.667306e+02	-5.433127e-02
5.700040e+02	-5.495672e-02
5.732964e+02	-5.558933e-02
5.766077e+02	-5.622917e-02
5.799382e+02	-5.687633e-02
5.832879e+02	-5.753089e-02
5.866569e+02	-5.819293e-02
5.900454e+02	-5.886254e-02
5.934535e+02	-5.953980e-02
5.968813e+02	-6.022480e-02
6.003288e+02	-6.091762e-02
6.037963e+02	-6.161836e-02
6.072838e+02	-6.232709e-02
6.107914e+02	-6.304393e-02
6.143194e+02	-6.376894e-02
6.178676e+02	-6.450223e-02
6.214364e+02	-6.524389e-02
6.250258e+02	-6.599401e-02
6.286359e+02	-6.675269e-02
6.322669e+02	-6.752003e-02
6.359189e+02	-6.829611e-02
6.395919e+02	-6.908105e-02
6.432862e+02	-6.987493e-02
6.470017e+02	-7.067786e-02
6.507388e+02	-7.148994e-02
6.544974e+02	-7.231128e-02
6.582778e+02	-7.314197e-02
6.620800e+02	-7.398212e-02
6.659041e+02	-7.483184e-02
6.697504e+02	-7.569124e-02
6.736188e+02	-7.656041e-02
6.775096e+02	-7.743948e-02
6.814229e+02	-7.832855e-02
6.853587e+02	-7.922773e-02
6.893173e+02	-8.013714e-02
6.932988e+02	-8.105690e-02
6.973033e+02	-8.198710e-02
7.013309e+02	-8.292788e-02
