Frequency(Hz)	Magnitude(dB)
1.000000e+01	-1.523182e-05
1.005776e+01	-1.540829e-05
1.011585e+01	-1.558680e-05
1.017428e+01	-1.576738e-05
1.023305e+01	-1.595004e-05
1.029215e+01	-1.613483e-05
1.035160e+01	-1.632176e-05
1.041139e+01	-1.651085e-05
1.047153e+01	-1.670213e-05
1.053201e+01	-1.689563e-05
1.059284e+01	-1.709137e-05
1.065403e+01	-1.728938e-05
1.071556e+01	-1.748968e-05
1.077746e+01	-1.769230e-05
1.083971e+01	-1.789727e-05
1.090232e+01	-1.810462e-05
1.096529e+01	-1.831436e-05
1.102862e+01	-1.852654e-05
1.109232e+01	-1.874117e-05
1.115639e+01	-1.895830e-05
1.122083e+01	-1.917793e-05
1.128564e+01	-1.940011e-05
1.135083e+01	-1.962487e-05
1.141639e+01	-1.985223e-05
1.148233e+01	-2.008222e-05
1.154865e+01	-2.031488e-05
1.161536e+01	-2.055023e-05
1.168245e+01	-2.078831e-05
1.174992e+01	-2.102915e-05
1.181779e+01	-2.127278e-05
1.188605e+01	-2.151923e-05
1.195470e+01	-2.176853e-05
1.202375e+01	-2.202073e-05
1.209320e+01	-2.227584e-05
1.216305e+01	-2.253391e-05
1.223330e+01	-2.279497e-05
1.230396e+01	-2.305906e-05
1.237503e+01	-2.332620e-05
1.244651e+01	-2.359644e-05
1.251840e+01	-2.386982e-05
1.259070e+01	-2.414635e-05
1.266343e+01	-2.442609e-05
1.273657e+01	-2.470908e-05
1.281014e+01	-2.499534e-05
1.288413e+01	-2.528491e-05
1.295855e+01	-2.557785e-05
1.303339e+01	-2.587417e-05
1.310867e+01	-2.617393e-05
1.318439e+01	-2.647716e-05
1.326054e+01	-2.678391e-05
1.333713e+01	-2.709420e-05
1.341417e+01	-2.740810e-05
1.349165e+01	-2.772563e-05
1.356958e+01	-2.804684e-05
1.364795e+01	-2.837176e-05
1.372678e+01	-2.870046e-05
1.380607e+01	-2.903296e-05
1.388581e+01	-2.936931e-05
1.396602e+01	-2.970956e-05
1.404668e+01	-3.005376e-05
1.412782e+01	-3.040194e-05
1.420942e+01	-3.075415e-05
1.429149e+01	-3.111044e-05
1.437404e+01	-3.147087e-05
1.445706e+01	-3.183546e-05
1.454057e+01	-3.220429e-05
1.462455e+01	-3.257738e-05
1.470902e+01	-3.295480e-05
1.479398e+01	-3.333659e-05
1.487943e+01	-3.372280e-05
1.496537e+01	-3.411348e-05
1.505181e+01	-3.450870e-05
1.513875e+01	-3.490849e-05
1.522619e+01	-3.531291e-05
1.531414e+01	-3.572202e-05
1.540259e+01	-3.613587e-05
1.549156e+01	-3.655451e-05
1.558103e+01	-3.697800e-05
1.567103e+01	-3.740640e-05
1.576155e+01	-3.783976e-05
1.585258e+01	-3.827814e-05
1.594415e+01	-3.872161e-05
1.603624e+01	-3.917020e-05
1.612886e+01	-3.962400e-05
1.622202e+01	-4.008305e-05
1.631572e+01	-4.054742e-05
1.640996e+01	-4.101718e-05
1.650474e+01	-4.149237e-05
1.660008e+01	-4.197307e-05
1.669596e+01	-4.245933e-05
1.679239e+01	-4.295124e-05
1.688938e+01	-4.344883e-05
1.698694e+01	-4.395220e-05
1.708505e+01	-4.446139e-05
1.718373e+01	-4.497649e-05
1.728299e+01	-4.549755e-05
1.738281e+01	-4.602465e-05
1.748322e+01	-4.655786e-05
1.758420e+01	-4.709724e-05
1.768576e+01	-4.764287e-05
1.778792e+01	-4.819482e-05
1.789066e+01	-4.875317e-05
1.799399e+01	-4.931799e-05
1.809793e+01	-4.988935e-05
1.820246e+01	-5.046733e-05
1.830760e+01	-5.105200e-05
1.841334e+01	-5.164345e-05
1.851969e+01	-5.224175e-05
1.862666e+01	-5.284698e-05
1.873425e+01	-5.345922e-05
1.884246e+01	-5.407856e-05
1.895129e+01	-5.470507e-05
1.906075e+01	-5.533884e-05
1.917085e+01	-5.597995e-05
1.928158e+01	-5.662849e-05
1.939295e+01	-5.728454e-05
1.950496e+01	-5.794820e-05
1.961762e+01	-5.861954e-05
1.973093e+01	-5.929866e-05
1.984490e+01	-5.998565e-05
1.995952e+01	-6.068059e-05
2.007480e+01	-6.138359e-05
2.019076e+01	-6.209473e-05
2.030738e+01	-6.281411e-05
2.042467e+01	-6.354182e-05
2.054264e+01	-6.427797e-05
2.066130e+01	-6.502264e-05
2.078064e+01	-6.577594e-05
2.090066e+01	-6.653797e-05
2.102139e+01	-6.730882e-05
2.114280e+01	-6.808861e-05
2.126492e+01	-6.887743e-05
2.138775e+01	-6.967538e-05
2.151128e+01	-7.048259e-05
2.163553e+01	-7.129914e-05
2.176050e+01	-7.212515e-05
2.188619e+01	-7.296074e-05
2.201260e+01	-7.380600e-05
2.213974e+01	-7.466105e-05
2.226762e+01	-7.552602e-05
2.239624e+01	-7.640100e-05
2.252560e+01	-7.728612e-05
2.265571e+01	-7.818149e-05
2.278656e+01	-7.908724e-05
2.291818e+01	-8.000348e-05
2.305055e+01	-8.093033e-05
2.318369e+01	-8.186792e-05
2.331760e+01	-8.281638e-05
2.345228e+01	-8.377582e-05
2.358774e+01	-8.474637e-05
2.372398e+01	-8.572818e-05
2.386101e+01	-8.672135e-05
2.399883e+01	-8.772603e-05
2.413745e+01	-8.874235e-05
2.427686e+01	-8.977045e-05
2.441709e+01	-9.081045e-05
2.455812e+01	-9.186250e-05
2.469997e+01	-9.292675e-05
2.484263e+01	-9.400332e-05
2.498612e+01	-9.509236e-05
2.513044e+01	-9.619402e-05
2.527559e+01	-9.730844e-05
2.542158e+01	-9.843577e-05
2.556842e+01	-9.957617e-05
2.571610e+01	-1.007298e-04
2.586463e+01	-1.018967e-04
2.601403e+01	-1.030772e-04
2.616428e+01	-1.042714e-04
2.631541e+01	-1.054794e-04
2.646740e+01	-1.067014e-04
2.662028e+01	-1.079375e-04
2.677404e+01	-1.091880e-04
2.692868e+01	-1.104530e-04
2.708422e+01	-1.117326e-04
2.724066e+01	-1.130270e-04
2.739800e+01	-1.143364e-04
2.755625e+01	-1.156610e-04
2.771541e+01	-1.170010e-04
2.787550e+01	-1.183565e-04
2.803650e+01	-1.197276e-04
2.819844e+01	-1.211147e-04
2.836131e+01	-1.225178e-04
2.852513e+01	-1.239372e-04
2.868989e+01	-1.253730e-04
2.885560e+01	-1.268255e-04
2.902227e+01	-1.282948e-04
2.918990e+01	-1.297811e-04
2.935850e+01	-1.312846e-04
2.952807e+01	-1.328056e-04
2.969863e+01	-1.343441e-04
2.987016e+01	-1.359005e-04
3.004269e+01	-1.374749e-04
3.021622e+01	-1.390676e-04
3.039075e+01	-1.406787e-04
3.056628e+01	-1.423085e-04
3.074283e+01	-1.439571e-04
3.092040e+01	-1.456249e-04
3.109900e+01	-1.473120e-04
3.127862e+01	-1.490186e-04
3.145929e+01	-1.507450e-04
3.164099e+01	-1.524914e-04
3.182375e+01	-1.542580e-04
3.200756e+01	-1.560451e-04
3.219244e+01	-1.578529e-04
3.237838e+01	-1.596816e-04
3.256540e+01	-1.615315e-04
3.275349e+01	-1.634029e-04
3.294268e+01	-1.652959e-04
3.313295e+01	-1.672109e-04
3.332433e+01	-1.691480e-04
3.351681e+01	-1.711076e-04
3.371040e+01	-1.730899e-04
3.390511e+01	-1.750952e-04
3.410094e+01	-1.771237e-04
3.429791e+01	-1.791756e-04
3.449601e+01	-1.812514e-04
3.469526e+01	-1.833512e-04
3.489566e+01	-1.854753e-04
3.509721e+01	-1.876241e-04
3.529993e+01	-1.897977e-04
3.550382e+01	-1.919965e-04
3.570889e+01	-1.942208e-04
3.591515e+01	-1.964708e-04
3.612259e+01	-1.987470e-04
3.633123e+01	-2.010494e-04
3.654108e+01	-2.033786e-04
3.675214e+01	-2.057347e-04
3.696442e+01	-2.081182e-04
3.717792e+01	-2.105292e-04
3.739266e+01	-2.129682e-04
3.760864e+01	-2.154354e-04
3.782587e+01	-2.179313e-04
3.804435e+01	-2.204560e-04
3.826409e+01	-2.230100e-04
3.848510e+01	-2.255935e-04
3.870739e+01	-2.282070e-04
3.893096e+01	-2.308508e-04
3.915583e+01	-2.335252e-04
3.938199e+01	-2.362306e-04
3.960946e+01	-2.389673e-04
3.983824e+01	-2.417357e-04
4.006834e+01	-2.445362e-04
4.029978e+01	-2.473692e-04
4.053255e+01	-2.502349e-04
4.076666e+01	-2.531339e-04
4.100213e+01	-2.560664e-04
4.123896e+01	-2.590329e-04
4.147715e+01	-2.620338e-04
4.171672e+01	-2.650694e-04
4.195767e+01	-2.681403e-04
4.220002e+01	-2.712466e-04
4.244377e+01	-2.743890e-04
4.268892e+01	-2.775678e-04
4.293549e+01	-2.807834e-04
4.318348e+01	-2.840362e-04
4.343291e+01	-2.873268e-04
4.368377e+01	-2.906554e-04
4.393609e+01	-2.940226e-04
4.418986e+01	-2.974288e-04
4.444510e+01	-3.008745e-04
4.470182e+01	-3.043601e-04
4.496001e+01	-3.078861e-04
4.521970e+01	-3.114529e-04
4.548089e+01	-3.150610e-04
4.574358e+01	-3.187110e-04
4.600779e+01	-3.224032e-04
4.627353e+01	-3.261382e-04
4.654081e+01	-3.299164e-04
4.680963e+01	-3.337385e-04
4.708000e+01	-3.376048e-04
4.735193e+01	-3.415158e-04
4.762543e+01	-3.454722e-04
4.790051e+01	-3.494745e-04
4.817719e+01	-3.535231e-04
4.845545e+01	-3.576186e-04
4.873533e+01	-3.617615e-04
4.901682e+01	-3.659524e-04
4.929994e+01	-3.701919e-04
4.958470e+01	-3.744805e-04
4.987110e+01	-3.788188e-04
5.015915e+01	-3.832073e-04
5.044887e+01	-3.876467e-04
5.074026e+01	-3.921375e-04
5.103333e+01	-3.966803e-04
5.132810e+01	-4.012757e-04
5.162457e+01	-4.059244e-04
5.192275e+01	-4.106269e-04
5.222265e+01	-4.153839e-04
5.252429e+01	-4.201960e-04
5.282767e+01	-4.250639e-04
5.313280e+01	-4.299881e-04
5.343969e+01	-4.349694e-04
5.374836e+01	-4.400084e-04
5.405880e+01	-4.451057e-04
5.437105e+01	-4.502621e-04
5.468509e+01	-4.554783e-04
5.500095e+01	-4.607548e-04
5.531863e+01	-4.660925e-04
5.563815e+01	-4.714920e-04
5.595951e+01	-4.769541e-04
5.628273e+01	-4.824794e-04
5.660782e+01	-4.880688e-04
5.693479e+01	-4.937229e-04
5.726364e+01	-4.994424e-04
5.759439e+01	-5.052283e-04
5.792705e+01	-5.110812e-04
5.826164e+01	-5.170018e-04
5.859815e+01	-5.229911e-04
5.893662e+01	-5.290497e-04
5.927703e+01	-5.351785e-04
5.961941e+01	-5.413783e-04
5.996377e+01	-5.476499e-04
6.031012e+01	-5.539942e-04
6.065847e+01	-5.604120e-04
6.100883e+01	-5.669041e-04
6.136121e+01	-5.734714e-04
6.171563e+01	-5.801147e-04
6.207210e+01	-5.868351e-04
6.243063e+01	-5.936333e-04
6.279122e+01	-6.005102e-04
6.315390e+01	-6.074668e-04
6.351868e+01	-6.145040e-04
6.388556e+01	-6.216226e-04
6.425456e+01	-6.288238e-04
6.462569e+01	-6.361084e-04
6.499897e+01	-6.434773e-04
6.537440e+01	-6.509316e-04
6.575200e+01	-6.584722e-04
6.613178e+01	-6.661002e-04
6.651375e+01	-6.738166e-04
6.689793e+01	-6.816223e-04
6.728433e+01	-6.895185e-04
6.767297e+01	-6.975061e-04
6.806384e+01	-7.055863e-04
6.845698e+01	-7.137600e-04
6.885238e+01	-7.220284e-04
6.925007e+01	-7.303926e-04
6.965005e+01	-7.388537e-04
7.005235e+01	-7.474128e-04
7.045697e+01	-7.560710e-04
7.086393e+01	-7.648295e-04
7.127323e+01	-7.736895e-04
7.168490e+01	-7.826521e-04
7.209895e+01	-7.917185e-04
7.251539e+01	-8.008899e-04
7.293424e+01	-8.101676e-04
7.335551e+01	-8.195527e-04
7.377920e+01	-8.290466e-04
7.420535e+01	-8.386504e-04
7.463396e+01	-8.483654e-04
7.506504e+01	-8.581930e-04
7.549861e+01	-8.681344e-04
7.593469e+01	-8.781909e-04
7.637328e+01	-8.883640e-04
7.681441e+01	-8.986549e-04
7.725809e+01	-9.090649e-04
7.770433e+01	-9.195956e-04
7.815315e+01	-9.302482e-04
7.860456e+01	-9.410242e-04
7.905857e+01	-9.519250e-04
7.951521e+01	-9.629521e-04
7.997449e+01	-9.741069e-04
8.043642e+01	-9.853909e-04
8.090102e+01	-9.968057e-04
8.136830e+01	-1.008353e-03
8.183828e+01	-1.020033e-03
8.231097e+01	-1.031849e-03
8.278640e+01	-1.043802e-03
8.326457e+01	-1.055893e-03
8.374550e+01	-1.068125e-03
8.422921e+01	-1.080498e-03
8.471572e+01	-1.093014e-03
8.520503e+01	-1.105675e-03
8.569717e+01	-1.118483e-03
8.619215e+01	-1.131439e-03
8.669000e+01	-1.144546e-03
8.719071e+01	-1.157804e-03
8.769432e+01	-1.171215e-03
8.820084e+01	-1.184782e-03
8.871029e+01	-1.198506e-03
8.922267e+01	-1.212389e-03
8.973802e+01	-1.226433e-03
9.025634e+01	-1.240640e-03
9.077766e+01	-1.255011e-03
9.130199e+01	-1.269548e-03
9.182935e+01	-1.284254e-03
9.235975e+01	-1.299131e-03
9.289321e+01	-1.314179e-03
9.342976e+01	-1.329402e-03
9.396941e+01	-1.344801e-03
9.451217e+01	-1.360378e-03
9.505807e+01	-1.376136e-03
9.560712e+01	-1.392077e-03
9.615934e+01	-1.408202e-03
9.671476e+01	-1.424513e-03
9.727338e+01	-1.441014e-03
9.783522e+01	-1.457706e-03
9.840032e+01	-1.474591e-03
9.896867e+01	-1.491671e-03
9.954031e+01	-1.508950e-03
1.001153e+02	-1.526428e-03
1.006935e+02	-1.544109e-03
1.012751e+02	-1.561995e-03
1.018601e+02	-1.580088e-03
1.024484e+02	-1.598390e-03
1.030402e+02	-1.616904e-03
1.036353e+02	-1.635633e-03
1.042339e+02	-1.654579e-03
1.048360e+02	-1.673744e-03
1.054415e+02	-1.693131e-03
1.060505e+02	-1.712742e-03
1.066631e+02	-1.732581e-03
1.072791e+02	-1.752649e-03
1.078988e+02	-1.772950e-03
1.085220e+02	-1.793486e-03
1.091488e+02	-1.814260e-03
1.097793e+02	-1.835274e-03
1.104133e+02	-1.856531e-03
1.110511e+02	-1.878035e-03
1.116925e+02	-1.899788e-03
1.123376e+02	-1.921793e-03
1.129865e+02	-1.944052e-03
1.136391e+02	-1.966569e-03
1.142955e+02	-1.989347e-03
1.149556e+02	-2.012389e-03
1.156196e+02	-2.035698e-03
1.162874e+02	-2.059276e-03
1.169591e+02	-2.083128e-03
1.176347e+02	-2.107255e-03
1.183141e+02	-2.131663e-03
1.189975e+02	-2.156352e-03
1.196848e+02	-2.181328e-03
1.203761e+02	-2.206593e-03
1.210714e+02	-2.232150e-03
1.217707e+02	-2.258003e-03
1.224740e+02	-2.284156e-03
1.231814e+02	-2.310612e-03
1.238929e+02	-2.337374e-03
1.246085e+02	-2.364445e-03
1.253283e+02	-2.391830e-03
1.260522e+02	-2.419533e-03
1.267802e+02	-2.447556e-03
1.275125e+02	-2.475903e-03
1.282490e+02	-2.504579e-03
1.289898e+02	-2.533587e-03
1.297348e+02	-2.562930e-03
1.304842e+02	-2.592614e-03
1.312378e+02	-2.622641e-03
1.319959e+02	-2.653015e-03
1.327583e+02	-2.683742e-03
1.335251e+02	-2.714824e-03
1.342963e+02	-2.746266e-03
1.350720e+02	-2.778072e-03
1.358522e+02	-2.810246e-03
1.366368e+02	-2.842793e-03
1.374260e+02	-2.875716e-03
1.382198e+02	-2.909021e-03
1.390182e+02	-2.942711e-03
1.398211e+02	-2.976792e-03
1.406287e+02	-3.011267e-03
1.414410e+02	-3.046141e-03
1.422579e+02	-3.081419e-03
1.430796e+02	-3.117105e-03
1.439060e+02	-3.153204e-03
1.447372e+02	-3.189721e-03
1.455732e+02	-3.226661e-03
1.464141e+02	-3.264029e-03
1.472597e+02	-3.301829e-03
1.481103e+02	-3.340067e-03
1.489658e+02	-3.378748e-03
1.498262e+02	-3.417876e-03
1.506916e+02	-3.457457e-03
1.515620e+02	-3.497496e-03
1.524374e+02	-3.537999e-03
1.533179e+02	-3.578971e-03
1.542034e+02	-3.620417e-03
1.550941e+02	-3.662343e-03
1.559899e+02	-3.704754e-03
1.568909e+02	-3.747656e-03
1.577971e+02	-3.791054e-03
1.587085e+02	-3.834955e-03
1.596252e+02	-3.879364e-03
1.605472e+02	-3.924287e-03
1.614745e+02	-3.969730e-03
1.624072e+02	-4.015699e-03
1.633453e+02	-4.062201e-03
1.642887e+02	-4.109240e-03
1.652377e+02	-4.156824e-03
1.661921e+02	-4.204958e-03
1.671520e+02	-4.253650e-03
1.681175e+02	-4.302905e-03
1.690885e+02	-4.352730e-03
1.700651e+02	-4.403132e-03
1.710474e+02	-4.454117e-03
1.720354e+02	-4.505693e-03
1.730291e+02	-4.557865e-03
1.740285e+02	-4.610641e-03
1.750337e+02	-4.664027e-03
1.760446e+02	-4.718032e-03
1.770615e+02	-4.772661e-03
1.780842e+02	-4.827923e-03
1.791128e+02	-4.883824e-03
1.801473e+02	-4.940372e-03
1.811878e+02	-4.997575e-03
1.822344e+02	-5.055439e-03
1.832870e+02	-5.113973e-03
1.843456e+02	-5.173185e-03
1.854104e+02	-5.233081e-03
1.864813e+02	-5.293671e-03
1.875584e+02	-5.354961e-03
1.886418e+02	-5.416961e-03
1.897313e+02	-5.479678e-03
1.908272e+02	-5.543121e-03
1.919294e+02	-5.607298e-03
1.930380e+02	-5.672217e-03
1.941530e+02	-5.737888e-03
1.952744e+02	-5.804318e-03
1.964023e+02	-5.871517e-03
1.975367e+02	-5.939494e-03
1.986777e+02	-6.008256e-03
1.998252e+02	-6.077815e-03
2.009794e+02	-6.148178e-03
2.021403e+02	-6.219355e-03
2.033078e+02	-6.291355e-03
2.044821e+02	-6.364189e-03
2.056632e+02	-6.437865e-03
2.068511e+02	-6.512393e-03
2.080459e+02	-6.587783e-03
2.092475e+02	-6.664046e-03
2.104561e+02	-6.741190e-03
2.116717e+02	-6.819227e-03
2.128943e+02	-6.898167e-03
2.141240e+02	-6.978019e-03
2.153608e+02	-7.058795e-03
2.166047e+02	-7.140506e-03
2.178558e+02	-7.223161e-03
2.191141e+02	-7.306773e-03
2.203797e+02	-7.391351e-03
2.216526e+02	-7.476908e-03
2.229329e+02	-7.563454e-03
2.242205e+02	-7.651002e-03
2.255156e+02	-7.739561e-03
2.268182e+02	-7.829145e-03
2.281283e+02	-7.919764e-03
2.294459e+02	-8.011432e-03
2.307712e+02	-8.104160e-03
2.321041e+02	-8.197959e-03
2.334447e+02	-8.292844e-03
2.347931e+02	-8.388825e-03
2.361493e+02	-8.485917e-03
2.375133e+02	-8.584131e-03
2.388851e+02	-8.683480e-03
2.402649e+02	-8.783979e-03
2.416527e+02	-8.885639e-03
2.430484e+02	-8.988474e-03
2.444523e+02	-9.092499e-03
2.458642e+02	-9.197725e-03
2.472843e+02	-9.304169e-03
2.487126e+02	-9.411843e-03
2.501492e+02	-9.520761e-03
2.515940e+02	-9.630939e-03
2.530472e+02	-9.742390e-03
2.545088e+02	-9.855130e-03
2.559789e+02	-9.969173e-03
2.574574e+02	-1.008453e-02
2.589444e+02	-1.020123e-02
2.604401e+02	-1.031927e-02
2.619444e+02	-1.043868e-02
2.634574e+02	-1.055946e-02
2.649791e+02	-1.068165e-02
2.665096e+02	-1.080524e-02
2.680489e+02	-1.093027e-02
2.695972e+02	-1.105673e-02
2.711544e+02	-1.118466e-02
2.727205e+02	-1.131407e-02
2.742958e+02	-1.144497e-02
2.758801e+02	-1.157739e-02
2.774736e+02	-1.171134e-02
2.790762e+02	-1.184683e-02
2.806882e+02	-1.198389e-02
2.823094e+02	-1.212253e-02
2.839400e+02	-1.226277e-02
2.855800e+02	-1.240464e-02
2.872295e+02	-1.254814e-02
2.888886e+02	-1.269330e-02
2.905572e+02	-1.284014e-02
2.922354e+02	-1.298867e-02
2.939234e+02	-1.313892e-02
2.956211e+02	-1.329090e-02
2.973286e+02	-1.344464e-02
2.990459e+02	-1.360015e-02
3.007732e+02	-1.375746e-02
3.025104e+02	-1.391659e-02
3.042577e+02	-1.407756e-02
3.060151e+02	-1.424038e-02
3.077826e+02	-1.440508e-02
3.095604e+02	-1.457169e-02
3.113484e+02	-1.474022e-02
3.131467e+02	-1.491069e-02
3.149554e+02	-1.508314e-02
3.167746e+02	-1.525757e-02
3.186043e+02	-1.543402e-02
3.204445e+02	-1.561250e-02
3.222954e+02	-1.579305e-02
3.241570e+02	-1.597568e-02
3.260293e+02	-1.616041e-02
3.279124e+02	-1.634728e-02
3.298064e+02	-1.653631e-02
3.317114e+02	-1.672751e-02
3.336273e+02	-1.692093e-02
3.355544e+02	-1.711657e-02
3.374925e+02	-1.731447e-02
3.394418e+02	-1.751466e-02
3.414024e+02	-1.771716e-02
3.433744e+02	-1.792199e-02
3.453577e+02	-1.812919e-02
3.473525e+02	-1.833877e-02
3.493588e+02	-1.855078e-02
3.513766e+02	-1.876522e-02
3.534062e+02	-1.898215e-02
3.554474e+02	-1.920157e-02
3.575005e+02	-1.942353e-02
3.595654e+02	-1.964804e-02
3.616422e+02	-1.987515e-02
3.637311e+02	-2.010487e-02
3.658320e+02	-2.033724e-02
3.679450e+02	-2.057230e-02
3.700702e+02	-2.081006e-02
3.722077e+02	-2.105056e-02
3.743576e+02	-2.129384e-02
3.765199e+02	-2.153992e-02
3.786946e+02	-2.178883e-02
3.808820e+02	-2.204062e-02
3.830819e+02	-2.229531e-02
3.852946e+02	-2.255293e-02
3.875200e+02	-2.281353e-02
3.897583e+02	-2.307712e-02
3.920096e+02	-2.334375e-02
3.942738e+02	-2.361346e-02
3.965511e+02	-2.388627e-02
3.988416e+02	-2.416223e-02
4.011452e+02	-2.444136e-02
4.034622e+02	-2.472371e-02
4.057926e+02	-2.500932e-02
4.081365e+02	-2.529821e-02
4.104938e+02	-2.559043e-02
4.128648e+02	-2.588601e-02
4.152495e+02	-2.618500e-02
4.176480e+02	-2.648743e-02
4.200603e+02	-2.679334e-02
4.224866e+02	-2.710278e-02
4.249268e+02	-2.741578e-02
4.273812e+02	-2.773238e-02
4.298497e+02	-2.805262e-02
4.323325e+02	-2.837656e-02
4.348297e+02	-2.870421e-02
4.373412e+02	-2.903564e-02
4.398673e+02	-2.937089e-02
4.424079e+02	-2.970999e-02
4.449633e+02	-3.005299e-02
4.475334e+02	-3.039994e-02
4.501183e+02	-3.075088e-02
4.527182e+02	-3.110586e-02
4.553330e+02	-3.146492e-02
4.579630e+02	-3.182811e-02
4.606082e+02	-3.219547e-02
4.632687e+02	-3.256706e-02
4.659445e+02	-3.294292e-02
4.686358e+02	-3.332310e-02
4.713426e+02	-3.370766e-02
4.740650e+02	-3.409663e-02
4.768032e+02	-3.449008e-02
4.795572e+02	-3.488804e-02
4.823271e+02	-3.529058e-02
4.851130e+02	-3.569775e-02
4.879150e+02	-3.610959e-02
4.907332e+02	-3.652616e-02
4.935676e+02	-3.694752e-02
4.964185e+02	-3.737372e-02
4.992858e+02	-3.780481e-02
5.021696e+02	-3.824086e-02
5.050701e+02	-3.868191e-02
5.079874e+02	-3.912802e-02
5.109215e+02	-3.957926e-02
5.138726e+02	-4.003568e-02
5.168407e+02	-4.049733e-02
5.198259e+02	-4.096428e-02
5.228284e+02	-4.143660e-02
5.258482e+02	-4.191433e-02
5.288855e+02	-4.239754e-02
5.319403e+02	-4.288629e-02
5.350128e+02	-4.338065e-02
5.381030e+02	-4.388068e-02
5.412111e+02	-4.438645e-02
5.443371e+02	-4.489801e-02
5.474812e+02	-4.541544e-02
5.506434e+02	-4.593880e-02
5.538239e+02	-4.646815e-02
5.570228e+02	-4.700358e-02
5.602401e+02	-4.754514e-02
5.634760e+02	-4.809291e-02
5.667306e+02	-4.864695e-02
5.700040e+02	-4.920733e-02
5.732964e+02	-4.977414e-02
5.766077e+02	-5.034743e-02
5.799382e+02	-5.092729e-02
5.832879e+02	-5.151379e-02
5.866569e+02	-5.210701e-02
5.900454e+02	-5.270701e-02
5.934535e+02	-5.331388e-02
5.968813e+02	-5.392769e-02
6.003288e+02	-5.454852e-02
6.037963e+02	-5.517646e-02
6.072838e+02	-5.581158e-02
6.107914e+02	-5.645396e-02
6.143194e+02	-5.710368e-02
6.178676e+02	-5.776084e-02
6.214364e+02	-5.842550e-02
6.250258e+02	-5.909776e-02
6.286359e+02	-5.977771e-02
6.322669e+02	-6.046542e-02
6.359189e+02	-6.116098e-02
6.395919e+02	-6.186450e-02
6.432862e+02	-6.257604e-02
6.470017e+02	-6.329571e-02
6.507388e+02	-6.402360e-02
6.544974e+02	-6.475979e-02
6.582778e+02	-6.550438e-02
6.620800e+02	-6.625747e-02
6.659041e+02	-6.701915e-02
6.697504e+02	-6.778952e-02
6.736188e+02	-6.856867e-02
6.775096e+02	-6.935671e-02
6.814229e+02	-7.015373e-02
6.853587e+02	-7.095983e-02
6.893173e+02	-7.177512e-02
6.932988e+02	-7.259970e-02
6.973033e+02	-7.343367e-02
7.013309e+02	-7.427714e-02
