Frequency(Hz)	Magnitude(dB)
1.000000e+01	-1.578192e-05
1.005776e+01	-1.596476e-05
1.011585e+01	-1.614972e-05
1.017428e+01	-1.633681e-05
1.023305e+01	-1.652608e-05
1.029215e+01	-1.671754e-05
1.035160e+01	-1.691122e-05
1.041139e+01	-1.710714e-05
1.047153e+01	-1.730533e-05
1.053201e+01	-1.750581e-05
1.059284e+01	-1.770862e-05
1.065403e+01	-1.791378e-05
1.071556e+01	-1.812132e-05
1.077746e+01	-1.833126e-05
1.083971e+01	-1.854363e-05
1.090232e+01	-1.875846e-05
1.096529e+01	-1.897578e-05
1.102862e+01	-1.919562e-05
1.109232e+01	-1.941801e-05
1.115639e+01	-1.964297e-05
1.122083e+01	-1.987054e-05
1.128564e+01	-2.010075e-05
1.135083e+01	-2.033362e-05
1.141639e+01	-2.056919e-05
1.148233e+01	-2.080749e-05
1.154865e+01	-2.104855e-05
1.161536e+01	-2.129240e-05
1.168245e+01	-2.153908e-05
1.174992e+01	-2.178861e-05
1.181779e+01	-2.204104e-05
1.188605e+01	-2.229639e-05
1.195470e+01	-2.255470e-05
1.202375e+01	-2.281600e-05
1.209320e+01	-2.308033e-05
1.216305e+01	-2.334772e-05
1.223330e+01	-2.361821e-05
1.230396e+01	-2.389184e-05
1.237503e+01	-2.416863e-05
1.244651e+01	-2.444863e-05
1.251840e+01	-2.473187e-05
1.259070e+01	-2.501840e-05
1.266343e+01	-2.530824e-05
1.273657e+01	-2.560144e-05
1.281014e+01	-2.589804e-05
1.288413e+01	-2.619808e-05
1.295855e+01	-2.650159e-05
1.303339e+01	-2.680862e-05
1.310867e+01	-2.711920e-05
1.318439e+01	-2.743338e-05
1.326054e+01	-2.775121e-05
1.333713e+01	-2.807271e-05
1.341417e+01	-2.839794e-05
1.349165e+01	-2.872694e-05
1.356958e+01	-2.905974e-05
1.364795e+01	-2.939641e-05
1.372678e+01	-2.973697e-05
1.380607e+01	-3.008148e-05
1.388581e+01	-3.042998e-05
1.396602e+01	-3.078252e-05
1.404668e+01	-3.113915e-05
1.412782e+01	-3.149990e-05
1.420942e+01	-3.186483e-05
1.429149e+01	-3.223400e-05
1.437404e+01	-3.260743e-05
1.445706e+01	-3.298520e-05
1.454057e+01	-3.336734e-05
1.462455e+01	-3.375391e-05
1.470902e+01	-3.414496e-05
1.479398e+01	-3.454053e-05
1.487943e+01	-3.494069e-05
1.496537e+01	-3.534549e-05
1.505181e+01	-3.575497e-05
1.513875e+01	-3.616920e-05
1.522619e+01	-3.658823e-05
1.531414e+01	-3.701212e-05
1.540259e+01	-3.744091e-05
1.549156e+01	-3.787467e-05
1.558103e+01	-3.831346e-05
1.567103e+01	-3.875733e-05
1.576155e+01	-3.920634e-05
1.585258e+01	-3.966056e-05
1.594415e+01	-4.012003e-05
1.603624e+01	-4.058483e-05
1.612886e+01	-4.105502e-05
1.622202e+01	-4.153065e-05
1.631572e+01	-4.201179e-05
1.640996e+01	-4.249851e-05
1.650474e+01	-4.299086e-05
1.660008e+01	-4.348892e-05
1.669596e+01	-4.399275e-05
1.679239e+01	-4.450241e-05
1.688938e+01	-4.501798e-05
1.698694e+01	-4.553953e-05
1.708505e+01	-4.606711e-05
1.718373e+01	-4.660081e-05
1.728299e+01	-4.714069e-05
1.738281e+01	-4.768682e-05
1.748322e+01	-4.823929e-05
1.758420e+01	-4.879815e-05
1.768576e+01	-4.936349e-05
1.778792e+01	-4.993537e-05
1.789066e+01	-5.051388e-05
1.799399e+01	-5.109910e-05
1.809793e+01	-5.169109e-05
1.820246e+01	-5.228994e-05
1.830760e+01	-5.289573e-05
1.841334e+01	-5.350854e-05
1.851969e+01	-5.412845e-05
1.862666e+01	-5.475554e-05
1.873425e+01	-5.538989e-05
1.884246e+01	-5.603160e-05
1.895129e+01	-5.668073e-05
1.906075e+01	-5.733739e-05
1.917085e+01	-5.800166e-05
1.928158e+01	-5.867362e-05
1.939295e+01	-5.935336e-05
1.950496e+01	-6.004099e-05
1.961762e+01	-6.073657e-05
1.973093e+01	-6.144022e-05
1.984490e+01	-6.215201e-05
1.995952e+01	-6.287206e-05
2.007480e+01	-6.360044e-05
2.019076e+01	-6.433727e-05
2.030738e+01	-6.508263e-05
2.042467e+01	-6.583662e-05
2.054264e+01	-6.659935e-05
2.066130e+01	-6.737092e-05
2.078064e+01	-6.815142e-05
2.090066e+01	-6.894097e-05
2.102139e+01	-6.973966e-05
2.114280e+01	-7.054761e-05
2.126492e+01	-7.136492e-05
2.138775e+01	-7.219169e-05
2.151128e+01	-7.302805e-05
2.163553e+01	-7.387409e-05
2.176050e+01	-7.472993e-05
2.188619e+01	-7.559569e-05
2.201260e+01	-7.647148e-05
2.213974e+01	-7.735742e-05
2.226762e+01	-7.825362e-05
2.239624e+01	-7.916020e-05
2.252560e+01	-8.007728e-05
2.265571e+01	-8.100499e-05
2.278656e+01	-8.194345e-05
2.291818e+01	-8.289278e-05
2.305055e+01	-8.385310e-05
2.318369e+01	-8.482456e-05
2.331760e+01	-8.580726e-05
2.345228e+01	-8.680135e-05
2.358774e+01	-8.780696e-05
2.372398e+01	-8.882422e-05
2.386101e+01	-8.985326e-05
2.399883e+01	-9.089423e-05
2.413745e+01	-9.194725e-05
2.427686e+01	-9.301247e-05
2.441709e+01	-9.409004e-05
2.455812e+01	-9.518009e-05
2.469997e+01	-9.628276e-05
2.484263e+01	-9.739821e-05
2.498612e+01	-9.852658e-05
2.513044e+01	-9.966803e-05
2.527559e+01	-1.008227e-04
2.542158e+01	-1.019907e-04
2.556842e+01	-1.031723e-04
2.571610e+01	-1.043676e-04
2.586463e+01	-1.055767e-04
2.601403e+01	-1.067998e-04
2.616428e+01	-1.080371e-04
2.631541e+01	-1.092887e-04
2.646740e+01	-1.105549e-04
2.662028e+01	-1.118357e-04
2.677404e+01	-1.131313e-04
2.692868e+01	-1.144419e-04
2.708422e+01	-1.157677e-04
2.724066e+01	-1.171089e-04
2.739800e+01	-1.184657e-04
2.755625e+01	-1.198381e-04
2.771541e+01	-1.212264e-04
2.787550e+01	-1.226308e-04
2.803650e+01	-1.240515e-04
2.819844e+01	-1.254887e-04
2.836131e+01	-1.269425e-04
2.852513e+01	-1.284131e-04
2.868989e+01	-1.299008e-04
2.885560e+01	-1.314057e-04
2.902227e+01	-1.329281e-04
2.918990e+01	-1.344681e-04
2.935850e+01	-1.360259e-04
2.952807e+01	-1.376018e-04
2.969863e+01	-1.391959e-04
2.987016e+01	-1.408085e-04
3.004269e+01	-1.424398e-04
3.021622e+01	-1.440899e-04
3.039075e+01	-1.457592e-04
3.056628e+01	-1.474479e-04
3.074283e+01	-1.491561e-04
3.092040e+01	-1.508841e-04
3.109900e+01	-1.526321e-04
3.127862e+01	-1.544003e-04
3.145929e+01	-1.561890e-04
3.164099e+01	-1.579985e-04
3.182375e+01	-1.598289e-04
3.200756e+01	-1.616806e-04
3.219244e+01	-1.635536e-04
3.237838e+01	-1.654484e-04
3.256540e+01	-1.673651e-04
3.275349e+01	-1.693041e-04
3.294268e+01	-1.712655e-04
3.313295e+01	-1.732496e-04
3.332433e+01	-1.752567e-04
3.351681e+01	-1.772871e-04
3.371040e+01	-1.793409e-04
3.390511e+01	-1.814186e-04
3.410094e+01	-1.835203e-04
3.429791e+01	-1.856464e-04
3.449601e+01	-1.877972e-04
3.469526e+01	-1.899728e-04
3.489566e+01	-1.921736e-04
3.509721e+01	-1.944000e-04
3.529993e+01	-1.966521e-04
3.550382e+01	-1.989303e-04
3.570889e+01	-2.012349e-04
3.591515e+01	-2.035662e-04
3.612259e+01	-2.059245e-04
3.633123e+01	-2.083102e-04
3.654108e+01	-2.107234e-04
3.675214e+01	-2.131647e-04
3.696442e+01	-2.156342e-04
3.717792e+01	-2.181323e-04
3.739266e+01	-2.206594e-04
3.760864e+01	-2.232157e-04
3.782587e+01	-2.258017e-04
3.804435e+01	-2.284176e-04
3.826409e+01	-2.310638e-04
3.848510e+01	-2.337406e-04
3.870739e+01	-2.364485e-04
3.893096e+01	-2.391878e-04
3.915583e+01	-2.419587e-04
3.938199e+01	-2.447618e-04
3.960946e+01	-2.475974e-04
3.983824e+01	-2.504658e-04
4.006834e+01	-2.533674e-04
4.029978e+01	-2.563026e-04
4.053255e+01	-2.592719e-04
4.076666e+01	-2.622755e-04
4.100213e+01	-2.653140e-04
4.123896e+01	-2.683876e-04
4.147715e+01	-2.714969e-04
4.171672e+01	-2.746421e-04
4.195767e+01	-2.778238e-04
4.220002e+01	-2.810424e-04
4.244377e+01	-2.842983e-04
4.268892e+01	-2.875918e-04
4.293549e+01	-2.909235e-04
4.318348e+01	-2.942939e-04
4.343291e+01	-2.977032e-04
4.368377e+01	-3.011521e-04
4.393609e+01	-3.046409e-04
4.418986e+01	-3.081701e-04
4.444510e+01	-3.117402e-04
4.470182e+01	-3.153517e-04
4.496001e+01	-3.190050e-04
4.521970e+01	-3.227006e-04
4.548089e+01	-3.264390e-04
4.574358e+01	-3.302208e-04
4.600779e+01	-3.340463e-04
4.627353e+01	-3.379162e-04
4.654081e+01	-3.418309e-04
4.680963e+01	-3.457910e-04
4.708000e+01	-3.497969e-04
4.735193e+01	-3.538492e-04
4.762543e+01	-3.579485e-04
4.790051e+01	-3.620952e-04
4.817719e+01	-3.662900e-04
4.845545e+01	-3.705334e-04
4.873533e+01	-3.748260e-04
4.901682e+01	-3.791682e-04
4.929994e+01	-3.835608e-04
4.958470e+01	-3.880043e-04
4.987110e+01	-3.924992e-04
5.015915e+01	-3.970462e-04
5.044887e+01	-4.016459e-04
5.074026e+01	-4.062989e-04
5.103333e+01	-4.110057e-04
5.132810e+01	-4.157671e-04
5.162457e+01	-4.205836e-04
5.192275e+01	-4.254560e-04
5.222265e+01	-4.303848e-04
5.252429e+01	-4.353706e-04
5.282767e+01	-4.404143e-04
5.313280e+01	-4.455163e-04
5.343969e+01	-4.506775e-04
5.374836e+01	-4.558985e-04
5.405880e+01	-4.611799e-04
5.437105e+01	-4.665225e-04
5.468509e+01	-4.719270e-04
5.500095e+01	-4.773941e-04
5.531863e+01	-4.829245e-04
5.563815e+01	-4.885190e-04
5.595951e+01	-4.941783e-04
5.628273e+01	-4.999032e-04
5.660782e+01	-5.056944e-04
5.693479e+01	-5.115526e-04
5.726364e+01	-5.174788e-04
5.759439e+01	-5.234735e-04
5.792705e+01	-5.295378e-04
5.826164e+01	-5.356722e-04
5.859815e+01	-5.418777e-04
5.893662e+01	-5.481551e-04
5.927703e+01	-5.545053e-04
5.961941e+01	-5.609290e-04
5.996377e+01	-5.674270e-04
6.031012e+01	-5.740004e-04
6.065847e+01	-5.806499e-04
6.100883e+01	-5.873765e-04
6.136121e+01	-5.941809e-04
6.171563e+01	-6.010642e-04
6.207210e+01	-6.080272e-04
6.243063e+01	-6.150708e-04
6.279122e+01	-6.221961e-04
6.315390e+01	-6.294039e-04
6.351868e+01	-6.366952e-04
6.388556e+01	-6.440709e-04
6.425456e+01	-6.515321e-04
6.462569e+01	-6.590797e-04
6.499897e+01	-6.667147e-04
6.537440e+01	-6.744382e-04
6.575200e+01	-6.822511e-04
6.613178e+01	-6.901546e-04
6.651375e+01	-6.981496e-04
6.689793e+01	-7.062372e-04
6.728433e+01	-7.144185e-04
6.767297e+01	-7.226945e-04
6.806384e+01	-7.310664e-04
6.845698e+01	-7.395353e-04
6.885238e+01	-7.481023e-04
6.925007e+01	-7.567685e-04
6.965005e+01	-7.655351e-04
7.005235e+01	-7.744032e-04
7.045697e+01	-7.833741e-04
7.086393e+01	-7.924489e-04
7.127323e+01	-8.016288e-04
7.168490e+01	-8.109150e-04
7.209895e+01	-8.203088e-04
7.251539e+01	-8.298114e-04
7.293424e+01	-8.394240e-04
7.335551e+01	-8.491480e-04
7.377920e+01	-8.589847e-04
7.420535e+01	-8.689352e-04
7.463396e+01	-8.790011e-04
7.506504e+01	-8.891835e-04
7.549861e+01	-8.994839e-04
7.593469e+01	-9.099035e-04
7.637328e+01	-9.204439e-04
7.681441e+01	-9.311064e-04
7.725809e+01	-9.418923e-04
7.770433e+01	-9.528032e-04
7.815315e+01	-9.638405e-04
7.860456e+01	-9.750056e-04
7.905857e+01	-9.863000e-04
7.951521e+01	-9.977252e-04
7.997449e+01	-1.009283e-03
8.043642e+01	-1.020974e-03
8.090102e+01	-1.032801e-03
8.136830e+01	-1.044765e-03
8.183828e+01	-1.056867e-03
8.231097e+01	-1.069110e-03
8.278640e+01	-1.081494e-03
8.326457e+01	-1.094022e-03
8.374550e+01	-1.106695e-03
8.422921e+01	-1.119515e-03
8.471572e+01	-1.132483e-03
8.520503e+01	-1.145601e-03
8.569717e+01	-1.158872e-03
8.619215e+01	-1.172296e-03
8.669000e+01	-1.185875e-03
8.719071e+01	-1.199612e-03
8.769432e+01	-1.213508e-03
8.820084e+01	-1.227565e-03
8.871029e+01	-1.241784e-03
8.922267e+01	-1.256169e-03
8.973802e+01	-1.270720e-03
9.025634e+01	-1.285439e-03
9.077766e+01	-1.300329e-03
9.130199e+01	-1.315391e-03
9.182935e+01	-1.330628e-03
9.235975e+01	-1.346042e-03
9.289321e+01	-1.361633e-03
9.342976e+01	-1.377406e-03
9.396941e+01	-1.393361e-03
9.451217e+01	-1.409501e-03
9.505807e+01	-1.425827e-03
9.560712e+01	-1.442343e-03
9.615934e+01	-1.459050e-03
9.671476e+01	-1.475951e-03
9.727338e+01	-1.493047e-03
9.783522e+01	-1.510342e-03
9.840032e+01	-1.527836e-03
9.896867e+01	-1.545534e-03
9.954031e+01	-1.563436e-03
1.001153e+02	-1.581545e-03
1.006935e+02	-1.599865e-03
1.012751e+02	-1.618396e-03
1.018601e+02	-1.637142e-03
1.024484e+02	-1.656105e-03
1.030402e+02	-1.675288e-03
1.036353e+02	-1.694693e-03
1.042339e+02	-1.714322e-03
1.048360e+02	-1.734179e-03
1.054415e+02	-1.754266e-03
1.060505e+02	-1.774586e-03
1.066631e+02	-1.795140e-03
1.072791e+02	-1.815933e-03
1.078988e+02	-1.836967e-03
1.085220e+02	-1.858244e-03
1.091488e+02	-1.879768e-03
1.097793e+02	-1.901540e-03
1.104133e+02	-1.923565e-03
1.110511e+02	-1.945845e-03
1.116925e+02	-1.968383e-03
1.123376e+02	-1.991182e-03
1.129865e+02	-2.014245e-03
1.136391e+02	-2.037576e-03
1.142955e+02	-2.061176e-03
1.149556e+02	-2.085049e-03
1.156196e+02	-2.109199e-03
1.162874e+02	-2.133629e-03
1.169591e+02	-2.158341e-03
1.176347e+02	-2.183340e-03
1.183141e+02	-2.208628e-03
1.189975e+02	-2.234209e-03
1.196848e+02	-2.260086e-03
1.203761e+02	-2.286263e-03
1.210714e+02	-2.312743e-03
1.217707e+02	-2.339530e-03
1.224740e+02	-2.366626e-03
1.231814e+02	-2.394037e-03
1.238929e+02	-2.421765e-03
1.246085e+02	-2.449813e-03
1.253283e+02	-2.478187e-03
1.260522e+02	-2.506889e-03
1.267802e+02	-2.535924e-03
1.275125e+02	-2.565294e-03
1.282490e+02	-2.595005e-03
1.289898e+02	-2.625060e-03
1.297348e+02	-2.655462e-03
1.304842e+02	-2.686217e-03
1.312378e+02	-2.717328e-03
1.319959e+02	-2.748799e-03
1.327583e+02	-2.780634e-03
1.335251e+02	-2.812838e-03
1.342963e+02	-2.845415e-03
1.350720e+02	-2.878369e-03
1.358522e+02	-2.911704e-03
1.366368e+02	-2.945426e-03
1.374260e+02	-2.979538e-03
1.382198e+02	-3.014044e-03
1.390182e+02	-3.048951e-03
1.398211e+02	-3.084261e-03
1.406287e+02	-3.119980e-03
1.414410e+02	-3.156113e-03
1.422579e+02	-3.192664e-03
1.430796e+02	-3.229638e-03
1.439060e+02	-3.267040e-03
1.447372e+02	-3.304875e-03
1.455732e+02	-3.343148e-03
1.464141e+02	-3.381864e-03
1.472597e+02	-3.421028e-03
1.481103e+02	-3.460646e-03
1.489658e+02	-3.500722e-03
1.498262e+02	-3.541263e-03
1.506916e+02	-3.582272e-03
1.515620e+02	-3.623756e-03
1.524374e+02	-3.665721e-03
1.533179e+02	-3.708171e-03
1.542034e+02	-3.751113e-03
1.550941e+02	-3.794551e-03
1.559899e+02	-3.838493e-03
1.568909e+02	-3.882943e-03
1.577971e+02	-3.927907e-03
1.587085e+02	-3.973392e-03
1.596252e+02	-4.019403e-03
1.605472e+02	-4.065947e-03
1.614745e+02	-4.113030e-03
1.624072e+02	-4.160658e-03
1.633453e+02	-4.208837e-03
1.642887e+02	-4.257573e-03
1.652377e+02	-4.306874e-03
1.661921e+02	-4.356745e-03
1.671520e+02	-4.407193e-03
1.681175e+02	-4.458226e-03
1.690885e+02	-4.509848e-03
1.700651e+02	-4.562069e-03
1.710474e+02	-4.614893e-03
1.720354e+02	-4.668329e-03
1.730291e+02	-4.722384e-03
1.740285e+02	-4.777063e-03
1.750337e+02	-4.832376e-03
1.760446e+02	-4.888329e-03
1.770615e+02	-4.944929e-03
1.780842e+02	-5.002184e-03
1.791128e+02	-5.060102e-03
1.801473e+02	-5.118690e-03
1.811878e+02	-5.177956e-03
1.822344e+02	-5.237908e-03
1.832870e+02	-5.298553e-03
1.843456e+02	-5.359900e-03
1.854104e+02	-5.421957e-03
1.864813e+02	-5.484732e-03
1.875584e+02	-5.548233e-03
1.886418e+02	-5.612470e-03
1.897313e+02	-5.677449e-03
1.908272e+02	-5.743180e-03
1.919294e+02	-5.809672e-03
1.930380e+02	-5.876932e-03
1.941530e+02	-5.944971e-03
1.952744e+02	-6.013798e-03
1.964023e+02	-6.083420e-03
1.975367e+02	-6.153848e-03
1.986777e+02	-6.225091e-03
1.998252e+02	-6.297158e-03
2.009794e+02	-6.370058e-03
2.021403e+02	-6.443802e-03
2.033078e+02	-6.518399e-03
2.044821e+02	-6.593859e-03
2.056632e+02	-6.670192e-03
2.068511e+02	-6.747407e-03
2.080459e+02	-6.825516e-03
2.092475e+02	-6.904528e-03
2.104561e+02	-6.984455e-03
2.116717e+02	-7.065305e-03
2.128943e+02	-7.147091e-03
2.141240e+02	-7.229823e-03
2.153608e+02	-7.313511e-03
2.166047e+02	-7.398168e-03
2.178558e+02	-7.483804e-03
2.191141e+02	-7.570430e-03
2.203797e+02	-7.658057e-03
2.216526e+02	-7.746699e-03
2.229329e+02	-7.836365e-03
2.242205e+02	-7.927068e-03
2.255156e+02	-8.018820e-03
2.268182e+02	-8.111633e-03
2.281283e+02	-8.205519e-03
2.294459e+02	-8.300491e-03
2.307712e+02	-8.396561e-03
2.321041e+02	-8.493742e-03
2.334447e+02	-8.592047e-03
2.347931e+02	-8.691488e-03
2.361493e+02	-8.792079e-03
2.375133e+02	-8.893833e-03
2.388851e+02	-8.996763e-03
2.402649e+02	-9.100883e-03
2.416527e+02	-9.206207e-03
2.430484e+02	-9.312749e-03
2.444523e+02	-9.420522e-03
2.458642e+02	-9.529541e-03
2.472843e+02	-9.639820e-03
2.487126e+02	-9.751374e-03
2.501492e+02	-9.864218e-03
2.515940e+02	-9.978365e-03
2.530472e+02	-1.009383e-02
2.545088e+02	-1.021063e-02
2.559789e+02	-1.032879e-02
2.574574e+02	-1.044830e-02
2.589444e+02	-1.056920e-02
2.604401e+02	-1.069150e-02
2.619444e+02	-1.081521e-02
2.634574e+02	-1.094034e-02
2.649791e+02	-1.106693e-02
2.665096e+02	-1.119498e-02
2.680489e+02	-1.132450e-02
2.695972e+02	-1.145553e-02
2.711544e+02	-1.158806e-02
2.727205e+02	-1.172213e-02
2.742958e+02	-1.185775e-02
2.758801e+02	-1.199494e-02
2.774736e+02	-1.213371e-02
2.790762e+02	-1.227408e-02
2.806882e+02	-1.241607e-02
2.823094e+02	-1.255971e-02
2.839400e+02	-1.270500e-02
2.855800e+02	-1.285197e-02
2.872295e+02	-1.300064e-02
2.888886e+02	-1.315103e-02
2.905572e+02	-1.330315e-02
2.922354e+02	-1.345704e-02
2.939234e+02	-1.361269e-02
2.956211e+02	-1.377015e-02
2.973286e+02	-1.392942e-02
2.990459e+02	-1.409054e-02
3.007732e+02	-1.425351e-02
3.025104e+02	-1.441836e-02
3.042577e+02	-1.458512e-02
3.060151e+02	-1.475381e-02
3.077826e+02	-1.492444e-02
3.095604e+02	-1.509704e-02
3.113484e+02	-1.527164e-02
3.131467e+02	-1.544825e-02
3.149554e+02	-1.562690e-02
3.167746e+02	-1.580761e-02
3.186043e+02	-1.599040e-02
3.204445e+02	-1.617531e-02
3.222954e+02	-1.636235e-02
3.241570e+02	-1.655155e-02
3.260293e+02	-1.674293e-02
3.279124e+02	-1.693652e-02
3.298064e+02	-1.713235e-02
3.317114e+02	-1.733044e-02
3.336273e+02	-1.753081e-02
3.355544e+02	-1.773349e-02
3.374925e+02	-1.793851e-02
3.394418e+02	-1.814590e-02
3.414024e+02	-1.835568e-02
3.433744e+02	-1.856787e-02
3.453577e+02	-1.878252e-02
3.473525e+02	-1.899964e-02
3.493588e+02	-1.921927e-02
3.513766e+02	-1.944143e-02
3.534062e+02	-1.966615e-02
3.554474e+02	-1.989347e-02
3.575005e+02	-2.012340e-02
3.595654e+02	-2.035599e-02
3.616422e+02	-2.059126e-02
3.637311e+02	-2.082924e-02
3.658320e+02	-2.106996e-02
3.679450e+02	-2.131346e-02
3.700702e+02	-2.155977e-02
3.722077e+02	-2.180892e-02
3.743576e+02	-2.206093e-02
3.765199e+02	-2.231586e-02
3.786946e+02	-2.257372e-02
3.808820e+02	-2.283455e-02
3.830819e+02	-2.309839e-02
3.852946e+02	-2.336527e-02
3.875200e+02	-2.363522e-02
3.897583e+02	-2.390828e-02
3.920096e+02	-2.418449e-02
3.942738e+02	-2.446388e-02
3.965511e+02	-2.474649e-02
3.988416e+02	-2.503236e-02
4.011452e+02	-2.532152e-02
4.034622e+02	-2.561401e-02
4.057926e+02	-2.590986e-02
4.081365e+02	-2.620913e-02
4.104938e+02	-2.651184e-02
4.128648e+02	-2.681803e-02
4.152495e+02	-2.712775e-02
4.176480e+02	-2.744104e-02
4.200603e+02	-2.775793e-02
4.224866e+02	-2.807847e-02
4.249268e+02	-2.840270e-02
4.273812e+02	-2.873066e-02
4.298497e+02	-2.906240e-02
4.323325e+02	-2.939795e-02
4.348297e+02	-2.973736e-02
4.373412e+02	-3.008068e-02
4.398673e+02	-3.042795e-02
4.424079e+02	-3.077921e-02
4.449633e+02	-3.113451e-02
4.475334e+02	-3.149390e-02
4.501183e+02	-3.185742e-02
4.527182e+02	-3.222513e-02
4.553330e+02	-3.259706e-02
4.579630e+02	-3.297327e-02
4.606082e+02	-3.335380e-02
4.632687e+02	-3.373871e-02
4.659445e+02	-3.412804e-02
4.686358e+02	-3.452184e-02
4.713426e+02	-3.492018e-02
4.740650e+02	-3.532308e-02
4.768032e+02	-3.573062e-02
4.795572e+02	-3.614285e-02
4.823271e+02	-3.655980e-02
4.851130e+02	-3.698155e-02
4.879150e+02	-3.740814e-02
4.907332e+02	-3.783963e-02
4.935676e+02	-3.827607e-02
4.964185e+02	-3.871753e-02
4.992858e+02	-3.916406e-02
5.021696e+02	-3.961571e-02
5.050701e+02	-4.007254e-02
5.079874e+02	-4.053462e-02
5.109215e+02	-4.100200e-02
5.138726e+02	-4.147475e-02
5.168407e+02	-4.195292e-02
5.198259e+02	-4.243657e-02
5.228284e+02	-4.292578e-02
5.258482e+02	-4.342059e-02
5.288855e+02	-4.392108e-02
5.319403e+02	-4.442731e-02
5.350128e+02	-4.493934e-02
5.381030e+02	-4.545725e-02
5.412111e+02	-4.598109e-02
5.443371e+02	-4.651093e-02
5.474812e+02	-4.704685e-02
5.506434e+02	-4.758890e-02
5.538239e+02	-4.813717e-02
5.570228e+02	-4.869172e-02
5.602401e+02	-4.925262e-02
5.634760e+02	-4.981995e-02
5.667306e+02	-5.039377e-02
5.700040e+02	-5.097416e-02
5.732964e+02	-5.156120e-02
5.766077e+02	-5.215496e-02
5.799382e+02	-5.275551e-02
5.832879e+02	-5.336294e-02
5.866569e+02	-5.397731e-02
5.900454e+02	-5.459872e-02
5.934535e+02	-5.522723e-02
5.968813e+02	-5.586293e-02
6.003288e+02	-5.650590e-02
6.037963e+02	-5.715622e-02
6.072838e+02	-5.781398e-02
6.107914e+02	-5.847925e-02
6.143194e+02	-5.915213e-02
6.178676e+02	-5.983270e-02
6.214364e+02	-6.052104e-02
6.250258e+02	-6.121725e-02
6.286359e+02	-6.192140e-02
6.322669e+02	-6.263360e-02
6.359189e+02	-6.335393e-02
6.395919e+02	-6.408248e-02
6.432862e+02	-6.481935e-02
6.470017e+02	-6.556463e-02
6.507388e+02	-6.631841e-02
6.544974e+02	-6.708079e-02
6.582778e+02	-6.785186e-02
6.620800e+02	-6.863173e-02
6.659041e+02	-6.942049e-02
6.697504e+02	-7.021824e-02
6.736188e+02	-7.102508e-02
6.775096e+02	-7.184111e-02
6.814229e+02	-7.266645e-02
6.853587e+02	-7.350118e-02
6.893173e+02	-7.434542e-02
6.932988e+02	-7.519928e-02
6.973033e+02	-7.606285e-02
7.013309e+02	-7.693625e-02
