Frequency(Hz)	Magnitude(dB)
1.000000e+01	-2.216422e+00
1.005776e+01	-2.236511e+00
1.011585e+01	-2.256860e+00
1.017428e+01	-2.277050e+00
1.023305e+01	-2.297554e+00
1.029215e+01	-2.318231e+00
1.035160e+01	-2.339025e+00
1.041139e+01	-2.359689e+00
1.047153e+01	-2.380873e+00
1.053201e+01	-2.402036e+00
1.059284e+01	-2.423556e+00
1.065403e+01	-2.445035e+00
1.071556e+01	-2.466591e+00
1.077746e+01	-2.487929e+00
1.083971e+01	-2.510127e+00
1.090232e+01	-2.532078e+00
1.096529e+01	-2.554295e+00
1.102862e+01	-2.576576e+00
1.109232e+01	-2.599134e+00
1.115639e+01	-2.621639e+00
1.122083e+01	-2.644418e+00
1.128564e+01	-2.667154e+00
1.135083e+01	-2.690204e+00
1.141639e+01	-2.713539e+00
1.148233e+01	-2.736372e+00
1.154865e+01	-2.760256e+00
1.161536e+01	-2.783892e+00
1.168245e+01	-2.807731e+00
1.174992e+01	-2.831511e+00
1.181779e+01	-2.855649e+00
1.188605e+01	-2.879704e+00
1.195470e+01	-2.904074e+00
1.202375e+01	-2.928425e+00
1.209320e+01	-2.953123e+00
1.216305e+01	-2.977668e+00
1.223330e+01	-3.002491e+00
1.230396e+01	-3.027687e+00
1.237503e+01	-3.052872e+00
1.244651e+01	-3.078357e+00
1.251840e+01	-3.103761e+00
1.259070e+01	-3.129635e+00
1.266343e+01	-3.155228e+00
1.273657e+01	-3.181084e+00
1.281014e+01	-3.206964e+00
1.288413e+01	-3.233216e+00
1.295855e+01	-3.259658e+00
1.303339e+01	-3.286272e+00
1.310867e+01	-3.312724e+00
1.318439e+01	-3.339560e+00
1.326054e+01	-3.366741e+00
1.333713e+01	-3.393378e+00
1.341417e+01	-3.420477e+00
1.349165e+01	-3.447797e+00
1.356958e+01	-3.475261e+00
1.364795e+01	-3.503049e+00
1.372678e+01	-3.530843e+00
1.380607e+01	-3.558643e+00
1.388581e+01	-3.586878e+00
1.396602e+01	-3.615003e+00
1.404668e+01	-3.643240e+00
1.412782e+01	-3.671941e+00
1.420942e+01	-3.700442e+00
1.429149e+01	-3.729059e+00
1.437404e+01	-3.758003e+00
1.445706e+01	-3.787010e+00
1.454057e+01	-3.816305e+00
1.462455e+01	-3.845709e+00
1.470902e+01	-3.875232e+00
1.479398e+01	-3.904948e+00
1.487943e+01	-3.934345e+00
1.496537e+01	-3.964553e+00
1.505181e+01	-3.994351e+00
1.513875e+01	-4.024259e+00
1.522619e+01	-4.054654e+00
1.531414e+01	-4.085193e+00
1.540259e+01	-4.115815e+00
1.549156e+01	-4.146579e+00
1.558103e+01	-4.177212e+00
1.567103e+01	-4.208185e+00
1.576155e+01	-4.239269e+00
1.585258e+01	-4.270618e+00
1.594415e+01	-4.302005e+00
1.603624e+01	-4.333298e+00
1.612886e+01	-4.365412e+00
1.622202e+01	-4.396889e+00
1.631572e+01	-4.428689e+00
1.640996e+01	-4.461042e+00
1.650474e+01	-4.492996e+00
1.660008e+01	-4.525556e+00
1.669596e+01	-4.557669e+00
1.679239e+01	-4.590289e+00
1.688938e+01	-4.622874e+00
1.698694e+01	-4.655865e+00
1.708505e+01	-4.689254e+00
1.718373e+01	-4.722177e+00
1.728299e+01	-4.755082e+00
1.738281e+01	-4.788689e+00
1.748322e+01	-4.821908e+00
1.758420e+01	-4.855446e+00
1.768576e+01	-4.889416e+00
1.778792e+01	-4.923075e+00
1.789066e+01	-4.957523e+00
1.799399e+01	-4.991380e+00
1.809793e+01	-5.025864e+00
1.820246e+01	-5.060027e+00
1.830760e+01	-5.094722e+00
1.841334e+01	-5.128863e+00
1.851969e+01	-5.163874e+00
1.862666e+01	-5.198608e+00
1.873425e+01	-5.233794e+00
1.884246e+01	-5.268876e+00
1.895129e+01	-5.304159e+00
1.906075e+01	-5.339247e+00
1.917085e+01	-5.374615e+00
1.928158e+01	-5.410087e+00
1.939295e+01	-5.446226e+00
1.950496e+01	-5.481857e+00
1.961762e+01	-5.517912e+00
1.973093e+01	-5.553810e+00
1.984490e+01	-5.589852e+00
1.995952e+01	-5.626186e+00
2.007480e+01	-5.662475e+00
2.019076e+01	-5.698955e+00
2.030738e+01	-5.735715e+00
2.042467e+01	-5.772280e+00
2.054264e+01	-5.809403e+00
2.066130e+01	-5.846131e+00
2.078064e+01	-5.883204e+00
2.090066e+01	-5.920119e+00
2.102139e+01	-5.957877e+00
2.114280e+01	-5.994945e+00
2.126492e+01	-6.032530e+00
2.138775e+01	-6.070121e+00
2.151128e+01	-6.108007e+00
2.163553e+01	-6.146026e+00
2.176050e+01	-6.183596e+00
2.188619e+01	-6.221796e+00
2.201260e+01	-6.260013e+00
2.213974e+01	-6.298434e+00
2.226762e+01	-6.336281e+00
2.239624e+01	-6.375045e+00
2.252560e+01	-6.413662e+00
2.265571e+01	-6.452347e+00
2.278656e+01	-6.490537e+00
2.291818e+01	-6.529804e+00
2.305055e+01	-6.568883e+00
2.318369e+01	-6.607530e+00
2.331760e+01	-6.647247e+00
2.345228e+01	-6.686423e+00
2.358774e+01	-6.725619e+00
2.372398e+01	-6.764889e+00
2.386101e+01	-6.804246e+00
2.399883e+01	-6.843897e+00
2.413745e+01	-6.884145e+00
2.427686e+01	-6.923687e+00
2.441709e+01	-6.963553e+00
2.455812e+01	-7.003677e+00
2.469997e+01	-7.043830e+00
2.484263e+01	-7.083563e+00
2.498612e+01	-7.124013e+00
2.513044e+01	-7.164610e+00
2.527559e+01	-7.204873e+00
2.542158e+01	-7.245690e+00
2.556842e+01	-7.285958e+00
2.571610e+01	-7.327223e+00
2.586463e+01	-7.367368e+00
2.601403e+01	-7.408768e+00
2.616428e+01	-7.449541e+00
2.631541e+01	-7.490514e+00
2.646740e+01	-7.532117e+00
2.662028e+01	-7.572792e+00
2.677404e+01	-7.614649e+00
2.692868e+01	-7.655531e+00
2.708422e+01	-7.697541e+00
2.724066e+01	-7.738926e+00
2.739800e+01	-7.779949e+00
2.755625e+01	-7.822155e+00
2.771541e+01	-7.863583e+00
2.787550e+01	-7.905811e+00
2.803650e+01	-7.947730e+00
2.819844e+01	-7.989931e+00
2.836131e+01	-8.031578e+00
2.852513e+01	-8.074050e+00
2.868989e+01	-8.116369e+00
2.885560e+01	-8.159155e+00
2.902227e+01	-8.200820e+00
2.918990e+01	-8.243780e+00
2.935850e+01	-8.286492e+00
2.952807e+01	-8.328818e+00
2.969863e+01	-8.371334e+00
2.987016e+01	-8.414320e+00
3.004269e+01	-8.457070e+00
3.021622e+01	-8.500332e+00
3.039075e+01	-8.543122e+00
3.056628e+01	-8.586652e+00
3.074283e+01	-8.629178e+00
3.092040e+01	-8.672840e+00
3.109900e+01	-8.715963e+00
3.127862e+01	-8.759208e+00
3.145929e+01	-8.802881e+00
3.164099e+01	-8.846361e+00
3.182375e+01	-8.888961e+00
3.200756e+01	-8.933067e+00
3.219244e+01	-8.976781e+00
3.237838e+01	-9.020751e+00
3.256540e+01	-9.064838e+00
3.275349e+01	-9.108344e+00
3.294268e+01	-9.152150e+00
3.313295e+01	-9.196649e+00
3.332433e+01	-9.240592e+00
3.351681e+01	-9.283747e+00
3.371040e+01	-9.328259e+00
3.390511e+01	-9.372169e+00
3.410094e+01	-9.416620e+00
3.429791e+01	-9.461281e+00
3.449601e+01	-9.505171e+00
3.469526e+01	-9.549942e+00
3.489566e+01	-9.594284e+00
3.509721e+01	-9.639256e+00
3.529993e+01	-9.683715e+00
3.550382e+01	-9.728431e+00
3.570889e+01	-9.773190e+00
3.591515e+01	-9.817859e+00
3.612259e+01	-9.862771e+00
3.633123e+01	-9.906962e+00
3.654108e+01	-9.951999e+00
3.675214e+01	-9.997632e+00
3.696442e+01	-1.004298e+01
3.717792e+01	-1.008762e+01
3.739266e+01	-1.013262e+01
3.760864e+01	-1.017754e+01
3.782587e+01	-1.022303e+01
3.804435e+01	-1.026865e+01
3.826409e+01	-1.031360e+01
3.848510e+01	-1.035967e+01
3.870739e+01	-1.040505e+01
3.893096e+01	-1.044963e+01
3.915583e+01	-1.049597e+01
3.938199e+01	-1.054177e+01
3.960946e+01	-1.058713e+01
3.983824e+01	-1.063247e+01
4.006834e+01	-1.067827e+01
4.029978e+01	-1.072397e+01
4.053255e+01	-1.077061e+01
4.076666e+01	-1.081615e+01
4.100213e+01	-1.086123e+01
4.123896e+01	-1.090776e+01
4.147715e+01	-1.095382e+01
4.171672e+01	-1.099951e+01
4.195767e+01	-1.104502e+01
4.220002e+01	-1.109196e+01
4.244377e+01	-1.113775e+01
4.268892e+01	-1.118476e+01
4.293549e+01	-1.123037e+01
4.318348e+01	-1.127753e+01
4.343291e+01	-1.132283e+01
4.368377e+01	-1.136930e+01
4.393609e+01	-1.141587e+01
4.418986e+01	-1.146215e+01
4.444510e+01	-1.150883e+01
4.470182e+01	-1.155476e+01
4.496001e+01	-1.160186e+01
4.521970e+01	-1.164814e+01
4.548089e+01	-1.169456e+01
4.574358e+01	-1.174178e+01
4.600779e+01	-1.178862e+01
4.627353e+01	-1.183510e+01
4.654081e+01	-1.188170e+01
4.680963e+01	-1.192898e+01
4.708000e+01	-1.197534e+01
4.735193e+01	-1.202219e+01
4.762543e+01	-1.206940e+01
4.790051e+01	-1.211595e+01
4.817719e+01	-1.216362e+01
4.845545e+01	-1.221037e+01
4.873533e+01	-1.225758e+01
4.901682e+01	-1.230386e+01
4.929994e+01	-1.235138e+01
4.958470e+01	-1.239915e+01
4.987110e+01	-1.244579e+01
5.015915e+01	-1.249308e+01
5.044887e+01	-1.253947e+01
5.074026e+01	-1.258684e+01
5.103333e+01	-1.263478e+01
5.132810e+01	-1.268220e+01
5.162457e+01	-1.272915e+01
5.192275e+01	-1.277712e+01
5.222265e+01	-1.282412e+01
5.252429e+01	-1.287198e+01
5.282767e+01	-1.291824e+01
5.313280e+01	-1.296634e+01
5.343969e+01	-1.301264e+01
5.374836e+01	-1.306142e+01
5.405880e+01	-1.310893e+01
5.437105e+01	-1.315651e+01
5.468509e+01	-1.320400e+01
5.500095e+01	-1.325156e+01
5.531863e+01	-1.329925e+01
5.563815e+01	-1.334735e+01
5.595951e+01	-1.339501e+01
5.628273e+01	-1.344320e+01
5.660782e+01	-1.349101e+01
5.693479e+01	-1.353853e+01
5.726364e+01	-1.358623e+01
5.759439e+01	-1.363449e+01
5.792705e+01	-1.368161e+01
5.826164e+01	-1.372998e+01
5.859815e+01	-1.377751e+01
5.893662e+01	-1.382600e+01
5.927703e+01	-1.387351e+01
5.961941e+01	-1.392195e+01
5.996377e+01	-1.396947e+01
6.031012e+01	-1.401764e+01
6.065847e+01	-1.406661e+01
6.100883e+01	-1.411412e+01
6.136121e+01	-1.416242e+01
6.171563e+01	-1.421063e+01
6.207210e+01	-1.425729e+01
6.243063e+01	-1.430667e+01
6.279122e+01	-1.435490e+01
6.315390e+01	-1.440273e+01
6.351868e+01	-1.445092e+01
6.388556e+01	-1.449864e+01
6.425456e+01	-1.454709e+01
6.462569e+01	-1.459560e+01
6.499897e+01	-1.464383e+01
6.537440e+01	-1.469255e+01
6.575200e+01	-1.473990e+01
6.613178e+01	-1.478848e+01
6.651375e+01	-1.483732e+01
6.689793e+01	-1.488592e+01
6.728433e+01	-1.493455e+01
6.767297e+01	-1.498291e+01
6.806384e+01	-1.503018e+01
6.845698e+01	-1.508112e+01
6.885238e+01	-1.512788e+01
6.925007e+01	-1.517659e+01
6.965005e+01	-1.522519e+01
7.005235e+01	-1.527398e+01
7.045697e+01	-1.532177e+01
7.086393e+01	-1.537086e+01
7.127323e+01	-1.541893e+01
7.168490e+01	-1.546786e+01
7.209895e+01	-1.551640e+01
7.251539e+01	-1.556531e+01
7.293424e+01	-1.561335e+01
7.335551e+01	-1.566298e+01
7.377920e+01	-1.571086e+01
7.420535e+01	-1.575866e+01
7.463396e+01	-1.580898e+01
7.506504e+01	-1.585728e+01
7.549861e+01	-1.590644e+01
7.593469e+01	-1.595509e+01
7.637328e+01	-1.600427e+01
7.681441e+01	-1.605222e+01
7.725809e+01	-1.610123e+01
7.770433e+01	-1.614863e+01
7.815315e+01	-1.619959e+01
7.860456e+01	-1.624764e+01
7.905857e+01	-1.629625e+01
7.951521e+01	-1.634514e+01
7.997449e+01	-1.639487e+01
8.043642e+01	-1.644282e+01
8.090102e+01	-1.649107e+01
8.136830e+01	-1.654055e+01
8.183828e+01	-1.658945e+01
8.231097e+01	-1.663863e+01
8.278640e+01	-1.668850e+01
8.326457e+01	-1.673637e+01
8.374550e+01	-1.678562e+01
8.422921e+01	-1.683464e+01
8.471572e+01	-1.688398e+01
8.520503e+01	-1.693268e+01
8.569717e+01	-1.698097e+01
8.619215e+01	-1.703106e+01
8.669000e+01	-1.707983e+01
8.719071e+01	-1.712818e+01
8.769432e+01	-1.717658e+01
8.820084e+01	-1.722611e+01
8.871029e+01	-1.727667e+01
8.922267e+01	-1.732524e+01
8.973802e+01	-1.737406e+01
9.025634e+01	-1.742356e+01
9.077766e+01	-1.747263e+01
9.130199e+01	-1.752221e+01
9.182935e+01	-1.757045e+01
9.235975e+01	-1.761979e+01
9.289321e+01	-1.766947e+01
9.342976e+01	-1.771843e+01
9.396941e+01	-1.776690e+01
9.451217e+01	-1.781603e+01
9.505807e+01	-1.786561e+01
9.560712e+01	-1.791508e+01
9.615934e+01	-1.796471e+01
9.671476e+01	-1.801398e+01
9.727338e+01	-1.806257e+01
9.783522e+01	-1.811209e+01
9.840032e+01	-1.816038e+01
9.896867e+01	-1.821111e+01
9.954031e+01	-1.826018e+01
1.001153e+02	-1.830858e+01
1.006935e+02	-1.835939e+01
1.012751e+02	-1.840619e+01
1.018601e+02	-1.845680e+01
1.024484e+02	-1.850643e+01
1.030402e+02	-1.855509e+01
1.036353e+02	-1.860476e+01
1.042339e+02	-1.865372e+01
1.048360e+02	-1.870302e+01
1.054415e+02	-1.875349e+01
1.060505e+02	-1.880165e+01
1.066631e+02	-1.885177e+01
1.072791e+02	-1.890129e+01
1.078988e+02	-1.895128e+01
1.085220e+02	-1.899980e+01
1.091488e+02	-1.904958e+01
1.097793e+02	-1.909982e+01
1.104133e+02	-1.914820e+01
1.110511e+02	-1.919724e+01
1.116925e+02	-1.924713e+01
1.123376e+02	-1.929787e+01
1.129865e+02	-1.934677e+01
1.136391e+02	-1.939571e+01
1.142955e+02	-1.944572e+01
1.149556e+02	-1.949573e+01
1.156196e+02	-1.954410e+01
1.162874e+02	-1.959236e+01
1.169591e+02	-1.964238e+01
1.176347e+02	-1.969195e+01
1.183141e+02	-1.974348e+01
1.189975e+02	-1.979079e+01
1.196848e+02	-1.984061e+01
1.203761e+02	-1.989089e+01
1.210714e+02	-1.993841e+01
1.217707e+02	-1.999035e+01
1.224740e+02	-2.003963e+01
1.231814e+02	-2.008751e+01
1.238929e+02	-2.013866e+01
1.246085e+02	-2.018895e+01
1.253283e+02	-2.023714e+01
1.260522e+02	-2.028642e+01
1.267802e+02	-2.033650e+01
1.275125e+02	-2.038615e+01
1.282490e+02	-2.043515e+01
1.289898e+02	-2.048568e+01
1.297348e+02	-2.053456e+01
1.304842e+02	-2.058387e+01
1.312378e+02	-2.063469e+01
1.319959e+02	-2.068275e+01
1.327583e+02	-2.073310e+01
1.335251e+02	-2.078231e+01
1.342963e+02	-2.083198e+01
1.350720e+02	-2.088161e+01
1.358522e+02	-2.093164e+01
1.366368e+02	-2.098157e+01
1.374260e+02	-2.103059e+01
1.382198e+02	-2.108109e+01
1.390182e+02	-2.113104e+01
1.398211e+02	-2.118005e+01
1.406287e+02	-2.122981e+01
1.414410e+02	-2.127839e+01
1.422579e+02	-2.132794e+01
1.430796e+02	-2.137713e+01
1.439060e+02	-2.142528e+01
1.447372e+02	-2.147676e+01
1.455732e+02	-2.152868e+01
1.464141e+02	-2.157860e+01
1.472597e+02	-2.162815e+01
1.481103e+02	-2.167804e+01
1.489658e+02	-2.172744e+01
1.498262e+02	-2.177463e+01
1.506916e+02	-2.182598e+01
1.515620e+02	-2.187644e+01
1.524374e+02	-2.192472e+01
1.533179e+02	-2.197447e+01
1.542034e+02	-2.202599e+01
1.550941e+02	-2.207428e+01
1.559899e+02	-2.212462e+01
1.568909e+02	-2.217405e+01
1.577971e+02	-2.222332e+01
1.587085e+02	-2.227500e+01
1.596252e+02	-2.232258e+01
1.605472e+02	-2.237200e+01
1.614745e+02	-2.242244e+01
1.624072e+02	-2.247192e+01
1.633453e+02	-2.252254e+01
1.642887e+02	-2.257198e+01
1.652377e+02	-2.262098e+01
1.661921e+02	-2.267020e+01
1.671520e+02	-2.272143e+01
1.681175e+02	-2.277219e+01
1.690885e+02	-2.282283e+01
1.700651e+02	-2.286910e+01
1.710474e+02	-2.292081e+01
1.720354e+02	-2.296936e+01
1.730291e+02	-2.302015e+01
1.740285e+02	-2.307064e+01
1.750337e+02	-2.312090e+01
1.760446e+02	-2.316738e+01
1.770615e+02	-2.321805e+01
1.780842e+02	-2.326730e+01
1.791128e+02	-2.331938e+01
1.801473e+02	-2.336545e+01
1.811878e+02	-2.341819e+01
1.822344e+02	-2.347039e+01
1.832870e+02	-2.351724e+01
1.843456e+02	-2.356661e+01
1.854104e+02	-2.362093e+01
1.864813e+02	-2.366720e+01
1.875584e+02	-2.371698e+01
1.886418e+02	-2.376666e+01
1.897313e+02	-2.381712e+01
1.908272e+02	-2.386686e+01
1.919294e+02	-2.391728e+01
1.930380e+02	-2.396659e+01
1.941530e+02	-2.401632e+01
1.952744e+02	-2.406465e+01
1.964023e+02	-2.411572e+01
1.975367e+02	-2.416714e+01
1.986777e+02	-2.421725e+01
1.998252e+02	-2.426764e+01
2.009794e+02	-2.431659e+01
2.021403e+02	-2.436506e+01
2.033078e+02	-2.441525e+01
2.044821e+02	-2.446582e+01
2.056632e+02	-2.451357e+01
2.068511e+02	-2.456390e+01
2.080459e+02	-2.461319e+01
2.092475e+02	-2.466395e+01
2.104561e+02	-2.471480e+01
2.116717e+02	-2.476646e+01
2.128943e+02	-2.481475e+01
2.141240e+02	-2.486430e+01
2.153608e+02	-2.491126e+01
2.166047e+02	-2.496370e+01
2.178558e+02	-2.501651e+01
2.191141e+02	-2.506475e+01
2.203797e+02	-2.511332e+01
2.216526e+02	-2.516000e+01
2.229329e+02	-2.521455e+01
2.242205e+02	-2.526360e+01
2.255156e+02	-2.531011e+01
2.268182e+02	-2.536532e+01
2.281283e+02	-2.541370e+01
2.294459e+02	-2.546094e+01
2.307712e+02	-2.551883e+01
2.321041e+02	-2.556388e+01
2.334447e+02	-2.561366e+01
2.347931e+02	-2.566144e+01
2.361493e+02	-2.571519e+01
2.375133e+02	-2.575843e+01
2.388851e+02	-2.581443e+01
2.402649e+02	-2.586393e+01
2.416527e+02	-2.591117e+01
2.430484e+02	-2.596087e+01
2.444523e+02	-2.601144e+01
2.458642e+02	-2.606372e+01
2.472843e+02	-2.611333e+01
2.487126e+02	-2.616424e+01
2.501492e+02	-2.621060e+01
2.515940e+02	-2.625945e+01
2.530472e+02	-2.631269e+01
2.545088e+02	-2.636317e+01
2.559789e+02	-2.641207e+01
2.574574e+02	-2.646084e+01
2.589444e+02	-2.651034e+01
2.604401e+02	-2.655884e+01
2.619444e+02	-2.661311e+01
2.634574e+02	-2.666104e+01
2.649791e+02	-2.670910e+01
2.665096e+02	-2.676327e+01
2.680489e+02	-2.681095e+01
2.695972e+02	-2.686377e+01
2.711544e+02	-2.690796e+01
2.727205e+02	-2.695930e+01
2.742958e+02	-2.701309e+01
2.758801e+02	-2.706236e+01
2.774736e+02	-2.711154e+01
2.790762e+02	-2.716161e+01
2.806882e+02	-2.720921e+01
2.823094e+02	-2.726454e+01
2.839400e+02	-2.730912e+01
2.855800e+02	-2.736065e+01
2.872295e+02	-2.741186e+01
2.888886e+02	-2.746198e+01
2.905572e+02	-2.751401e+01
2.922354e+02	-2.756138e+01
2.939234e+02	-2.761073e+01
2.956211e+02	-2.765959e+01
2.973286e+02	-2.771429e+01
2.990459e+02	-2.776292e+01
3.007732e+02	-2.781568e+01
3.025104e+02	-2.786370e+01
3.042577e+02	-2.791144e+01
3.060151e+02	-2.796062e+01
3.077826e+02	-2.801010e+01
3.095604e+02	-2.806551e+01
3.113484e+02	-2.811079e+01
3.131467e+02	-2.816000e+01
3.149554e+02	-2.821096e+01
3.167746e+02	-2.826484e+01
3.186043e+02	-2.831184e+01
3.204445e+02	-2.836055e+01
3.222954e+02	-2.841102e+01
3.241570e+02	-2.846123e+01
3.260293e+02	-2.851018e+01
3.279124e+02	-2.856052e+01
3.298064e+02	-2.860988e+01
3.317114e+02	-2.866328e+01
3.336273e+02	-2.871506e+01
3.355544e+02	-2.876338e+01
3.374925e+02	-2.881464e+01
3.394418e+02	-2.886113e+01
3.414024e+02	-2.890807e+01
3.433744e+02	-2.896420e+01
3.453577e+02	-2.901288e+01
3.473525e+02	-2.906236e+01
3.493588e+02	-2.911167e+01
3.513766e+02	-2.915613e+01
3.534062e+02	-2.920996e+01
3.554474e+02	-2.925685e+01
3.575005e+02	-2.931307e+01
3.595654e+02	-2.936271e+01
3.616422e+02	-2.941397e+01
3.637311e+02	-2.946367e+01
3.658320e+02	-2.951117e+01
3.679450e+02	-2.955911e+01
3.700702e+02	-2.960818e+01
3.722077e+02	-2.966685e+01
3.743576e+02	-2.971532e+01
3.765199e+02	-2.976356e+01
3.786946e+02	-2.980742e+01
3.808820e+02	-2.986217e+01
3.830819e+02	-2.990994e+01
3.852946e+02	-2.995870e+01
3.875200e+02	-3.001258e+01
3.897583e+02	-3.005886e+01
3.920096e+02	-3.010962e+01
3.942738e+02	-3.016762e+01
3.965511e+02	-3.020850e+01
3.988416e+02	-3.026799e+01
4.011452e+02	-3.031759e+01
4.034622e+02	-3.036933e+01
4.057926e+02	-3.041488e+01
4.081365e+02	-3.046210e+01
4.104938e+02	-3.052216e+01
4.128648e+02	-3.056596e+01
4.152495e+02	-3.062362e+01
4.176480e+02	-3.066856e+01
4.200603e+02	-3.071259e+01
4.224866e+02	-3.076439e+01
4.249268e+02	-3.081418e+01
4.273812e+02	-3.086689e+01
4.298497e+02	-3.091340e+01
4.323325e+02	-3.096811e+01
4.348297e+02	-3.101002e+01
4.373412e+02	-3.107158e+01
4.398673e+02	-3.111350e+01
4.424079e+02	-3.116170e+01
4.449633e+02	-3.121677e+01
4.475334e+02	-3.126648e+01
4.501183e+02	-3.132170e+01
4.527182e+02	-3.136589e+01
4.553330e+02	-3.141616e+01
4.579630e+02	-3.146073e+01
4.606082e+02	-3.151511e+01
4.632687e+02	-3.157223e+01
4.659445e+02	-3.161567e+01
4.686358e+02	-3.166727e+01
4.713426e+02	-3.171019e+01
4.740650e+02	-3.176924e+01
4.768032e+02	-3.182076e+01
4.795572e+02	-3.186846e+01
4.823271e+02	-3.191559e+01
4.851130e+02	-3.196708e+01
4.879150e+02	-3.201873e+01
4.907332e+02	-3.206918e+01
4.935676e+02	-3.212447e+01
4.964185e+02	-3.217139e+01
4.992858e+02	-3.221713e+01
5.021696e+02	-3.227127e+01
5.050701e+02	-3.231732e+01
5.079874e+02	-3.236765e+01
5.109215e+02	-3.241923e+01
5.138726e+02	-3.247568e+01
5.168407e+02	-3.252064e+01
5.198259e+02	-3.257141e+01
5.228284e+02	-3.262184e+01
5.258482e+02	-3.267440e+01
5.288855e+02	-3.272301e+01
5.319403e+02	-3.276629e+01
5.350128e+02	-3.282369e+01
5.381030e+02	-3.286986e+01
5.412111e+02	-3.291951e+01
5.443371e+02	-3.298038e+01
5.474812e+02	-3.302934e+01
5.506434e+02	-3.307176e+01
5.538239e+02	-3.312834e+01
5.570228e+02	-3.317333e+01
5.602401e+02	-3.322196e+01
5.634760e+02	-3.327967e+01
5.667306e+02	-3.332120e+01
5.700040e+02	-3.336851e+01
5.732964e+02	-3.342685e+01
5.766077e+02	-3.347658e+01
5.799382e+02	-3.352326e+01
5.832879e+02	-3.357331e+01
5.866569e+02	-3.362472e+01
5.900454e+02	-3.366562e+01
5.934535e+02	-3.372591e+01
5.968813e+02	-3.377291e+01
6.003288e+02	-3.382635e+01
6.037963e+02	-3.388190e+01
6.072838e+02	-3.393255e+01
6.107914e+02	-3.397896e+01
6.143194e+02	-3.402648e+01
6.178676e+02	-3.407846e+01
6.214364e+02	-3.412334e+01
6.250258e+02	-3.417224e+01
6.286359e+02	-3.423173e+01
6.322669e+02	-3.428679e+01
6.359189e+02	-3.432130e+01
6.395919e+02	-3.437441e+01
6.432862e+02	-3.443166e+01
6.470017e+02	-3.447158e+01
6.507388e+02	-3.452969e+01
6.544974e+02	-3.457916e+01
6.582778e+02	-3.463412e+01
6.620800e+02	-3.468510e+01
6.659041e+02	-3.473356e+01
6.697504e+02	-3.478412e+01
6.736188e+02	-3.483252e+01
6.775096e+02	-3.488294e+01
6.814229e+02	-3.493381e+01
6.853587e+02	-3.498063e+01
6.893173e+02	-3.503251e+01
6.932988e+02	-3.508612e+01
6.973033e+02	-3.513454e+01
7.013309e+02	-3.517892e+01
