Frequency(Hz)	Magnitude(dB)
1.000000e+01	-1.755952e-05
1.005776e+01	-1.776295e-05
1.011585e+01	-1.796874e-05
1.017428e+01	-1.817692e-05
1.023305e+01	-1.838750e-05
1.029215e+01	-1.860052e-05
1.035160e+01	-1.881602e-05
1.041139e+01	-1.903400e-05
1.047153e+01	-1.925452e-05
1.053201e+01	-1.947759e-05
1.059284e+01	-1.970324e-05
1.065403e+01	-1.993151e-05
1.071556e+01	-2.016242e-05
1.077746e+01	-2.039600e-05
1.083971e+01	-2.063230e-05
1.090232e+01	-2.087133e-05
1.096529e+01	-2.111313e-05
1.102862e+01	-2.135773e-05
1.109232e+01	-2.160516e-05
1.115639e+01	-2.185546e-05
1.122083e+01	-2.210866e-05
1.128564e+01	-2.236480e-05
1.135083e+01	-2.262390e-05
1.141639e+01	-2.288600e-05
1.148233e+01	-2.315114e-05
1.154865e+01	-2.341936e-05
1.161536e+01	-2.369068e-05
1.168245e+01	-2.396514e-05
1.174992e+01	-2.424278e-05
1.181779e+01	-2.452364e-05
1.188605e+01	-2.480775e-05
1.195470e+01	-2.509515e-05
1.202375e+01	-2.538589e-05
1.209320e+01	-2.567999e-05
1.216305e+01	-2.597750e-05
1.223330e+01	-2.627845e-05
1.230396e+01	-2.658290e-05
1.237503e+01	-2.689087e-05
1.244651e+01	-2.720240e-05
1.251840e+01	-2.751755e-05
1.259070e+01	-2.783635e-05
1.266343e+01	-2.815884e-05
1.273657e+01	-2.848506e-05
1.281014e+01	-2.881507e-05
1.288413e+01	-2.914890e-05
1.295855e+01	-2.948660e-05
1.303339e+01	-2.982821e-05
1.310867e+01	-3.017377e-05
1.318439e+01	-3.052334e-05
1.326054e+01	-3.087696e-05
1.333713e+01	-3.123468e-05
1.341417e+01	-3.159654e-05
1.349165e+01	-3.196260e-05
1.356958e+01	-3.233289e-05
1.364795e+01	-3.270747e-05
1.372678e+01	-3.308640e-05
1.380607e+01	-3.346971e-05
1.388581e+01	-3.385747e-05
1.396602e+01	-3.424971e-05
1.404668e+01	-3.464650e-05
1.412782e+01	-3.504789e-05
1.420942e+01	-3.545393e-05
1.429149e+01	-3.586467e-05
1.437404e+01	-3.628017e-05
1.445706e+01	-3.670049e-05
1.454057e+01	-3.712567e-05
1.462455e+01	-3.755578e-05
1.470902e+01	-3.799087e-05
1.479398e+01	-3.843101e-05
1.487943e+01	-3.887624e-05
1.496537e+01	-3.932663e-05
1.505181e+01	-3.978224e-05
1.513875e+01	-4.024312e-05
1.522619e+01	-4.070935e-05
1.531414e+01	-4.118097e-05
1.540259e+01	-4.165807e-05
1.549156e+01	-4.214068e-05
1.558103e+01	-4.262889e-05
1.567103e+01	-4.312276e-05
1.576155e+01	-4.362234e-05
1.585258e+01	-4.412772e-05
1.594415e+01	-4.463895e-05
1.603624e+01	-4.515610e-05
1.612886e+01	-4.567924e-05
1.622202e+01	-4.620845e-05
1.631572e+01	-4.674378e-05
1.640996e+01	-4.728532e-05
1.650474e+01	-4.783313e-05
1.660008e+01	-4.838729e-05
1.669596e+01	-4.894786e-05
1.679239e+01	-4.951494e-05
1.688938e+01	-5.008858e-05
1.698694e+01	-5.066886e-05
1.708505e+01	-5.125587e-05
1.718373e+01	-5.184968e-05
1.728299e+01	-5.245037e-05
1.738281e+01	-5.305802e-05
1.748322e+01	-5.367271e-05
1.758420e+01	-5.429452e-05
1.768576e+01	-5.492353e-05
1.778792e+01	-5.555983e-05
1.789066e+01	-5.620350e-05
1.799399e+01	-5.685463e-05
1.809793e+01	-5.751331e-05
1.820246e+01	-5.817961e-05
1.830760e+01	-5.885363e-05
1.841334e+01	-5.953546e-05
1.851969e+01	-6.022519e-05
1.862666e+01	-6.092291e-05
1.873425e+01	-6.162872e-05
1.884246e+01	-6.234270e-05
1.895129e+01	-6.306495e-05
1.906075e+01	-6.379557e-05
1.917085e+01	-6.453465e-05
1.928158e+01	-6.528230e-05
1.939295e+01	-6.603861e-05
1.950496e+01	-6.680368e-05
1.961762e+01	-6.757761e-05
1.973093e+01	-6.836051e-05
1.984490e+01	-6.915248e-05
1.995952e+01	-6.995363e-05
2.007480e+01	-7.076405e-05
2.019076e+01	-7.158387e-05
2.030738e+01	-7.241318e-05
2.042467e+01	-7.325210e-05
2.054264e+01	-7.410074e-05
2.066130e+01	-7.495921e-05
2.078064e+01	-7.582762e-05
2.090066e+01	-7.670610e-05
2.102139e+01	-7.759475e-05
2.114280e+01	-7.849370e-05
2.126492e+01	-7.940306e-05
2.138775e+01	-8.032296e-05
2.151128e+01	-8.125352e-05
2.163553e+01	-8.219485e-05
2.176050e+01	-8.314710e-05
2.188619e+01	-8.411037e-05
2.201260e+01	-8.508480e-05
2.213974e+01	-8.607052e-05
2.226762e+01	-8.706766e-05
2.239624e+01	-8.807636e-05
2.252560e+01	-8.909674e-05
2.265571e+01	-9.012894e-05
2.278656e+01	-9.117309e-05
2.291818e+01	-9.222935e-05
2.305055e+01	-9.329784e-05
2.318369e+01	-9.437871e-05
2.331760e+01	-9.547210e-05
2.345228e+01	-9.657816e-05
2.358774e+01	-9.769703e-05
2.372398e+01	-9.882887e-05
2.386101e+01	-9.997381e-05
2.399883e+01	-1.011320e-04
2.413745e+01	-1.023037e-04
2.427686e+01	-1.034889e-04
2.441709e+01	-1.046878e-04
2.455812e+01	-1.059006e-04
2.469997e+01	-1.071275e-04
2.484263e+01	-1.083686e-04
2.498612e+01	-1.096240e-04
2.513044e+01	-1.108940e-04
2.527559e+01	-1.121788e-04
2.542158e+01	-1.134784e-04
2.556842e+01	-1.147930e-04
2.571610e+01	-1.161229e-04
2.586463e+01	-1.174682e-04
2.601403e+01	-1.188291e-04
2.616428e+01	-1.202058e-04
2.631541e+01	-1.215984e-04
2.646740e+01	-1.230071e-04
2.662028e+01	-1.244321e-04
2.677404e+01	-1.258737e-04
2.692868e+01	-1.273320e-04
2.708422e+01	-1.288071e-04
2.724066e+01	-1.302994e-04
2.739800e+01	-1.318089e-04
2.755625e+01	-1.333359e-04
2.771541e+01	-1.348806e-04
2.787550e+01	-1.364432e-04
2.803650e+01	-1.380239e-04
2.819844e+01	-1.396229e-04
2.836131e+01	-1.412405e-04
2.852513e+01	-1.428768e-04
2.868989e+01	-1.445320e-04
2.885560e+01	-1.462064e-04
2.902227e+01	-1.479002e-04
2.918990e+01	-1.496137e-04
2.935850e+01	-1.513470e-04
2.952807e+01	-1.531003e-04
2.969863e+01	-1.548740e-04
2.987016e+01	-1.566682e-04
3.004269e+01	-1.584832e-04
3.021622e+01	-1.603193e-04
3.039075e+01	-1.621766e-04
3.056628e+01	-1.640554e-04
3.074283e+01	-1.659560e-04
3.092040e+01	-1.678786e-04
3.109900e+01	-1.698235e-04
3.127862e+01	-1.717909e-04
3.145929e+01	-1.737811e-04
3.164099e+01	-1.757944e-04
3.182375e+01	-1.778310e-04
3.200756e+01	-1.798912e-04
3.219244e+01	-1.819752e-04
3.237838e+01	-1.840834e-04
3.256540e+01	-1.862160e-04
3.275349e+01	-1.883733e-04
3.294268e+01	-1.905556e-04
3.313295e+01	-1.927632e-04
3.332433e+01	-1.949964e-04
3.351681e+01	-1.972554e-04
3.371040e+01	-1.995406e-04
3.390511e+01	-2.018523e-04
3.410094e+01	-2.041908e-04
3.429791e+01	-2.065563e-04
3.449601e+01	-2.089493e-04
3.469526e+01	-2.113699e-04
3.489566e+01	-2.138187e-04
3.509721e+01	-2.162958e-04
3.529993e+01	-2.188015e-04
3.550382e+01	-2.213363e-04
3.570889e+01	-2.239005e-04
3.591515e+01	-2.264944e-04
3.612259e+01	-2.291183e-04
3.633123e+01	-2.317727e-04
3.654108e+01	-2.344577e-04
3.675214e+01	-2.371739e-04
3.696442e+01	-2.399216e-04
3.717792e+01	-2.427011e-04
3.739266e+01	-2.455127e-04
3.760864e+01	-2.483570e-04
3.782587e+01	-2.512342e-04
3.804435e+01	-2.541447e-04
3.826409e+01	-2.570890e-04
3.848510e+01	-2.600673e-04
3.870739e+01	-2.630802e-04
3.893096e+01	-2.661280e-04
3.915583e+01	-2.692110e-04
3.938199e+01	-2.723298e-04
3.960946e+01	-2.754847e-04
3.983824e+01	-2.786762e-04
4.006834e+01	-2.819046e-04
4.029978e+01	-2.851705e-04
4.053255e+01	-2.884741e-04
4.076666e+01	-2.918161e-04
4.100213e+01	-2.951967e-04
4.123896e+01	-2.986166e-04
4.147715e+01	-3.020760e-04
4.171672e+01	-3.055755e-04
4.195767e+01	-3.091156e-04
4.220002e+01	-3.126966e-04
4.244377e+01	-3.163192e-04
4.268892e+01	-3.199837e-04
4.293549e+01	-3.236906e-04
4.318348e+01	-3.274405e-04
4.343291e+01	-3.312339e-04
4.368377e+01	-3.350712e-04
4.393609e+01	-3.389529e-04
4.418986e+01	-3.428796e-04
4.444510e+01	-3.468518e-04
4.470182e+01	-3.508700e-04
4.496001e+01	-3.549348e-04
4.521970e+01	-3.590466e-04
4.548089e+01	-3.632061e-04
4.574358e+01	-3.674138e-04
4.600779e+01	-3.716702e-04
4.627353e+01	-3.759759e-04
4.654081e+01	-3.803315e-04
4.680963e+01	-3.847376e-04
4.708000e+01	-3.891946e-04
4.735193e+01	-3.937034e-04
4.762543e+01	-3.982643e-04
4.790051e+01	-4.028781e-04
4.817719e+01	-4.075454e-04
4.845545e+01	-4.122667e-04
4.873533e+01	-4.170426e-04
4.901682e+01	-4.218740e-04
4.929994e+01	-4.267613e-04
4.958470e+01	-4.317052e-04
4.987110e+01	-4.367063e-04
5.015915e+01	-4.417654e-04
5.044887e+01	-4.468831e-04
5.074026e+01	-4.520601e-04
5.103333e+01	-4.572971e-04
5.132810e+01	-4.625947e-04
5.162457e+01	-4.679537e-04
5.192275e+01	-4.733748e-04
5.222265e+01	-4.788587e-04
5.252429e+01	-4.844061e-04
5.282767e+01	-4.900178e-04
5.313280e+01	-4.956944e-04
5.343969e+01	-5.014368e-04
5.374836e+01	-5.072458e-04
5.405880e+01	-5.131220e-04
5.437105e+01	-5.190663e-04
5.468509e+01	-5.250795e-04
5.500095e+01	-5.311623e-04
5.531863e+01	-5.373156e-04
5.563815e+01	-5.435402e-04
5.595951e+01	-5.498368e-04
5.628273e+01	-5.562064e-04
5.660782e+01	-5.626498e-04
5.693479e+01	-5.691678e-04
5.726364e+01	-5.757614e-04
5.759439e+01	-5.824313e-04
5.792705e+01	-5.891784e-04
5.826164e+01	-5.960038e-04
5.859815e+01	-6.029082e-04
5.893662e+01	-6.098925e-04
5.927703e+01	-6.169578e-04
5.961941e+01	-6.241049e-04
5.996377e+01	-6.313348e-04
6.031012e+01	-6.386485e-04
6.065847e+01	-6.460468e-04
6.100883e+01	-6.535309e-04
6.136121e+01	-6.611017e-04
6.171563e+01	-6.687601e-04
6.207210e+01	-6.765073e-04
6.243063e+01	-6.843442e-04
6.279122e+01	-6.922719e-04
6.315390e+01	-7.002914e-04
6.351868e+01	-7.084038e-04
6.388556e+01	-7.166102e-04
6.425456e+01	-7.249116e-04
6.462569e+01	-7.333092e-04
6.499897e+01	-7.418041e-04
6.537440e+01	-7.503973e-04
6.575200e+01	-7.590901e-04
6.613178e+01	-7.678836e-04
6.651375e+01	-7.767789e-04
6.689793e+01	-7.857773e-04
6.728433e+01	-7.948799e-04
6.767297e+01	-8.040880e-04
6.806384e+01	-8.134027e-04
6.845698e+01	-8.228253e-04
6.885238e+01	-8.323570e-04
6.925007e+01	-8.419992e-04
6.965005e+01	-8.517530e-04
7.005235e+01	-8.616198e-04
7.045697e+01	-8.716009e-04
7.086393e+01	-8.816977e-04
7.127323e+01	-8.919113e-04
7.168490e+01	-9.022433e-04
7.209895e+01	-9.126949e-04
7.251539e+01	-9.232676e-04
7.293424e+01	-9.339628e-04
7.335551e+01	-9.447818e-04
7.377920e+01	-9.557262e-04
7.420535e+01	-9.667973e-04
7.463396e+01	-9.779966e-04
7.506504e+01	-9.893257e-04
7.549861e+01	-1.000786e-03
7.593469e+01	-1.012379e-03
7.637328e+01	-1.024106e-03
7.681441e+01	-1.035969e-03
7.725809e+01	-1.047970e-03
7.770433e+01	-1.060110e-03
7.815315e+01	-1.072390e-03
7.860456e+01	-1.084812e-03
7.905857e+01	-1.097378e-03
7.951521e+01	-1.110090e-03
7.997449e+01	-1.122949e-03
8.043642e+01	-1.135957e-03
8.090102e+01	-1.149116e-03
8.136830e+01	-1.162427e-03
8.183828e+01	-1.175892e-03
8.231097e+01	-1.189513e-03
8.278640e+01	-1.203292e-03
8.326457e+01	-1.217231e-03
8.374550e+01	-1.231331e-03
8.422921e+01	-1.245594e-03
8.471572e+01	-1.260022e-03
8.520503e+01	-1.274618e-03
8.569717e+01	-1.289382e-03
8.619215e+01	-1.304318e-03
8.669000e+01	-1.319427e-03
8.719071e+01	-1.334710e-03
8.769432e+01	-1.350171e-03
8.820084e+01	-1.365810e-03
8.871029e+01	-1.381631e-03
8.922267e+01	-1.397635e-03
8.973802e+01	-1.413824e-03
9.025634e+01	-1.430201e-03
9.077766e+01	-1.446768e-03
9.130199e+01	-1.463526e-03
9.182935e+01	-1.480479e-03
9.235975e+01	-1.497627e-03
9.289321e+01	-1.514975e-03
9.342976e+01	-1.532523e-03
9.396941e+01	-1.550275e-03
9.451217e+01	-1.568232e-03
9.505807e+01	-1.586397e-03
9.560712e+01	-1.604772e-03
9.615934e+01	-1.623360e-03
9.671476e+01	-1.642164e-03
9.727338e+01	-1.661185e-03
9.783522e+01	-1.680427e-03
9.840032e+01	-1.699891e-03
9.896867e+01	-1.719581e-03
9.954031e+01	-1.739499e-03
1.001153e+02	-1.759647e-03
1.006935e+02	-1.780029e-03
1.012751e+02	-1.800647e-03
1.018601e+02	-1.821503e-03
1.024484e+02	-1.842602e-03
1.030402e+02	-1.863944e-03
1.036353e+02	-1.885534e-03
1.042339e+02	-1.907373e-03
1.048360e+02	-1.929466e-03
1.054415e+02	-1.951814e-03
1.060505e+02	-1.974421e-03
1.066631e+02	-1.997290e-03
1.072791e+02	-2.020424e-03
1.078988e+02	-2.043826e-03
1.085220e+02	-2.067498e-03
1.091488e+02	-2.091445e-03
1.097793e+02	-2.115669e-03
1.104133e+02	-2.140174e-03
1.110511e+02	-2.164962e-03
1.116925e+02	-2.190037e-03
1.123376e+02	-2.215403e-03
1.129865e+02	-2.241062e-03
1.136391e+02	-2.267019e-03
1.142955e+02	-2.293276e-03
1.149556e+02	-2.319837e-03
1.156196e+02	-2.346706e-03
1.162874e+02	-2.373885e-03
1.169591e+02	-2.401380e-03
1.176347e+02	-2.429193e-03
1.183141e+02	-2.457328e-03
1.189975e+02	-2.485788e-03
1.196848e+02	-2.514578e-03
1.203761e+02	-2.543702e-03
1.210714e+02	-2.573163e-03
1.217707e+02	-2.602965e-03
1.224740e+02	-2.633111e-03
1.231814e+02	-2.663607e-03
1.238929e+02	-2.694456e-03
1.246085e+02	-2.725663e-03
1.253283e+02	-2.757230e-03
1.260522e+02	-2.789163e-03
1.267802e+02	-2.821466e-03
1.275125e+02	-2.854142e-03
1.282490e+02	-2.887197e-03
1.289898e+02	-2.920635e-03
1.297348e+02	-2.954460e-03
1.304842e+02	-2.988676e-03
1.312378e+02	-3.023289e-03
1.319959e+02	-3.058302e-03
1.327583e+02	-3.093721e-03
1.335251e+02	-3.129549e-03
1.342963e+02	-3.165793e-03
1.350720e+02	-3.202456e-03
1.358522e+02	-3.239543e-03
1.366368e+02	-3.277060e-03
1.374260e+02	-3.315011e-03
1.382198e+02	-3.353401e-03
1.390182e+02	-3.392236e-03
1.398211e+02	-3.431521e-03
1.406287e+02	-3.471260e-03
1.414410e+02	-3.511459e-03
1.422579e+02	-3.552123e-03
1.430796e+02	-3.593259e-03
1.439060e+02	-3.634870e-03
1.447372e+02	-3.676963e-03
1.455732e+02	-3.719543e-03
1.464141e+02	-3.762617e-03
1.472597e+02	-3.806188e-03
1.481103e+02	-3.850264e-03
1.489658e+02	-3.894851e-03
1.498262e+02	-3.939953e-03
1.506916e+02	-3.985578e-03
1.515620e+02	-4.031730e-03
1.524374e+02	-4.078417e-03
1.533179e+02	-4.125644e-03
1.542034e+02	-4.173417e-03
1.550941e+02	-4.221744e-03
1.559899e+02	-4.270630e-03
1.568909e+02	-4.320082e-03
1.577971e+02	-4.370106e-03
1.587085e+02	-4.420709e-03
1.596252e+02	-4.471897e-03
1.605472e+02	-4.523678e-03
1.614745e+02	-4.576059e-03
1.624072e+02	-4.629045e-03
1.633453e+02	-4.682645e-03
1.642887e+02	-4.736865e-03
1.652377e+02	-4.791712e-03
1.661921e+02	-4.847195e-03
1.671520e+02	-4.903319e-03
1.681175e+02	-4.960092e-03
1.690885e+02	-5.017523e-03
1.700651e+02	-5.075618e-03
1.710474e+02	-5.134386e-03
1.720354e+02	-5.193834e-03
1.730291e+02	-5.253969e-03
1.740285e+02	-5.314800e-03
1.750337e+02	-5.376335e-03
1.760446e+02	-5.438582e-03
1.770615e+02	-5.501550e-03
1.780842e+02	-5.565246e-03
1.791128e+02	-5.629679e-03
1.801473e+02	-5.694857e-03
1.811878e+02	-5.760790e-03
1.822344e+02	-5.827485e-03
1.832870e+02	-5.894952e-03
1.843456e+02	-5.963200e-03
1.854104e+02	-6.032237e-03
1.864813e+02	-6.102073e-03
1.875584e+02	-6.172716e-03
1.886418e+02	-6.244177e-03
1.897313e+02	-6.316465e-03
1.908272e+02	-6.389589e-03
1.919294e+02	-6.463559e-03
1.930380e+02	-6.538384e-03
1.941530e+02	-6.614075e-03
1.952744e+02	-6.690642e-03
1.964023e+02	-6.768094e-03
1.975367e+02	-6.846442e-03
1.986777e+02	-6.925696e-03
1.998252e+02	-7.005868e-03
2.009794e+02	-7.086966e-03
2.021403e+02	-7.169002e-03
2.033078e+02	-7.251987e-03
2.044821e+02	-7.335932e-03
2.056632e+02	-7.420848e-03
2.068511e+02	-7.506746e-03
2.080459e+02	-7.593638e-03
2.092475e+02	-7.681534e-03
2.104561e+02	-7.770447e-03
2.116717e+02	-7.860387e-03
2.128943e+02	-7.951368e-03
2.141240e+02	-8.043402e-03
2.153608e+02	-8.136499e-03
2.166047e+02	-8.230673e-03
2.178558e+02	-8.325936e-03
2.191141e+02	-8.422300e-03
2.203797e+02	-8.519778e-03
2.216526e+02	-8.618384e-03
2.229329e+02	-8.718130e-03
2.242205e+02	-8.819029e-03
2.255156e+02	-8.921094e-03
2.268182e+02	-9.024339e-03
2.281283e+02	-9.128779e-03
2.294459e+02	-9.234425e-03
2.307712e+02	-9.341293e-03
2.321041e+02	-9.449396e-03
2.334447e+02	-9.558749e-03
2.347931e+02	-9.669366e-03
2.361493e+02	-9.781261e-03
2.375133e+02	-9.894450e-03
2.388851e+02	-1.000895e-02
2.402649e+02	-1.012477e-02
2.416527e+02	-1.024193e-02
2.430484e+02	-1.036044e-02
2.444523e+02	-1.048032e-02
2.458642e+02	-1.060159e-02
2.472843e+02	-1.072426e-02
2.487126e+02	-1.084835e-02
2.501492e+02	-1.097387e-02
2.515940e+02	-1.110084e-02
2.530472e+02	-1.122928e-02
2.545088e+02	-1.135921e-02
2.559789e+02	-1.149063e-02
2.574574e+02	-1.162357e-02
2.589444e+02	-1.175805e-02
2.604401e+02	-1.189409e-02
2.619444e+02	-1.203169e-02
2.634574e+02	-1.217089e-02
2.649791e+02	-1.231169e-02
2.665096e+02	-1.245412e-02
2.680489e+02	-1.259819e-02
2.695972e+02	-1.274393e-02
2.711544e+02	-1.289135e-02
2.727205e+02	-1.304048e-02
2.742958e+02	-1.319132e-02
2.758801e+02	-1.334391e-02
2.774736e+02	-1.349826e-02
2.790762e+02	-1.365440e-02
2.806882e+02	-1.381234e-02
2.823094e+02	-1.397210e-02
2.839400e+02	-1.413370e-02
2.855800e+02	-1.429717e-02
2.872295e+02	-1.446253e-02
2.888886e+02	-1.462980e-02
2.905572e+02	-1.479900e-02
2.922354e+02	-1.497016e-02
2.939234e+02	-1.514329e-02
2.956211e+02	-1.531842e-02
2.973286e+02	-1.549557e-02
2.990459e+02	-1.567476e-02
3.007732e+02	-1.585602e-02
3.025104e+02	-1.603938e-02
3.042577e+02	-1.622485e-02
3.060151e+02	-1.641246e-02
3.077826e+02	-1.660224e-02
3.095604e+02	-1.679421e-02
3.113484e+02	-1.698839e-02
3.131467e+02	-1.718482e-02
3.149554e+02	-1.738351e-02
3.167746e+02	-1.758449e-02
3.186043e+02	-1.778779e-02
3.204445e+02	-1.799344e-02
3.222954e+02	-1.820146e-02
3.241570e+02	-1.841188e-02
3.260293e+02	-1.862473e-02
3.279124e+02	-1.884003e-02
3.298064e+02	-1.905782e-02
3.317114e+02	-1.927812e-02
3.336273e+02	-1.950096e-02
3.355544e+02	-1.972637e-02
3.374925e+02	-1.995437e-02
3.394418e+02	-2.018501e-02
3.414024e+02	-2.041831e-02
3.433744e+02	-2.065430e-02
3.453577e+02	-2.089300e-02
3.473525e+02	-2.113446e-02
3.493588e+02	-2.137871e-02
3.513766e+02	-2.162577e-02
3.534062e+02	-2.187567e-02
3.554474e+02	-2.212846e-02
3.575005e+02	-2.238416e-02
3.595654e+02	-2.264281e-02
3.616422e+02	-2.290444e-02
3.637311e+02	-2.316908e-02
3.658320e+02	-2.343678e-02
3.679450e+02	-2.370755e-02
3.700702e+02	-2.398145e-02
3.722077e+02	-2.425850e-02
3.743576e+02	-2.453875e-02
3.765199e+02	-2.482222e-02
3.786946e+02	-2.510896e-02
3.808820e+02	-2.539900e-02
3.830819e+02	-2.569238e-02
3.852946e+02	-2.598914e-02
3.875200e+02	-2.628932e-02
3.897583e+02	-2.659295e-02
3.920096e+02	-2.690008e-02
3.942738e+02	-2.721074e-02
3.965511e+02	-2.752499e-02
3.988416e+02	-2.784284e-02
4.011452e+02	-2.816436e-02
4.034622e+02	-2.848958e-02
4.057926e+02	-2.881854e-02
4.081365e+02	-2.915129e-02
4.104938e+02	-2.948786e-02
4.128648e+02	-2.982831e-02
4.152495e+02	-3.017268e-02
4.176480e+02	-3.052100e-02
4.200603e+02	-3.087334e-02
4.224866e+02	-3.122972e-02
4.249268e+02	-3.159021e-02
4.273812e+02	-3.195484e-02
4.298497e+02	-3.232366e-02
4.323325e+02	-3.269673e-02
4.348297e+02	-3.307408e-02
4.373412e+02	-3.345577e-02
4.398673e+02	-3.384185e-02
4.424079e+02	-3.423237e-02
4.449633e+02	-3.462737e-02
4.475334e+02	-3.502692e-02
4.501183e+02	-3.543106e-02
4.527182e+02	-3.583984e-02
4.553330e+02	-3.625331e-02
4.579630e+02	-3.667154e-02
4.606082e+02	-3.709457e-02
4.632687e+02	-3.752246e-02
4.659445e+02	-3.795526e-02
4.686358e+02	-3.839304e-02
4.713426e+02	-3.883584e-02
4.740650e+02	-3.928372e-02
4.768032e+02	-3.973675e-02
4.795572e+02	-4.019497e-02
4.823271e+02	-4.065846e-02
4.851130e+02	-4.112726e-02
4.879150e+02	-4.160144e-02
4.907332e+02	-4.208107e-02
4.935676e+02	-4.256619e-02
4.964185e+02	-4.305688e-02
4.992858e+02	-4.355320e-02
5.021696e+02	-4.405521e-02
5.050701e+02	-4.456298e-02
5.079874e+02	-4.507657e-02
5.109215e+02	-4.559605e-02
5.138726e+02	-4.612148e-02
5.168407e+02	-4.665293e-02
5.198259e+02	-4.719048e-02
5.228284e+02	-4.773418e-02
5.258482e+02	-4.828412e-02
5.288855e+02	-4.884035e-02
5.319403e+02	-4.940295e-02
5.350128e+02	-4.997200e-02
5.381030e+02	-5.054757e-02
5.412111e+02	-5.112972e-02
5.443371e+02	-5.171854e-02
5.474812e+02	-5.231410e-02
5.506434e+02	-5.291647e-02
5.538239e+02	-5.352574e-02
5.570228e+02	-5.414198e-02
5.602401e+02	-5.476527e-02
5.634760e+02	-5.539569e-02
5.667306e+02	-5.603332e-02
5.700040e+02	-5.667824e-02
5.732964e+02	-5.733053e-02
5.766077e+02	-5.799028e-02
5.799382e+02	-5.865757e-02
5.832879e+02	-5.933249e-02
5.866569e+02	-6.001512e-02
5.900454e+02	-6.070555e-02
5.934535e+02	-6.140386e-02
5.968813e+02	-6.211015e-02
6.003288e+02	-6.282450e-02
6.037963e+02	-6.354701e-02
6.072838e+02	-6.427777e-02
6.107914e+02	-6.501687e-02
6.143194e+02	-6.576440e-02
6.178676e+02	-6.652046e-02
6.214364e+02	-6.728515e-02
6.250258e+02	-6.805855e-02
6.286359e+02	-6.884078e-02
6.322669e+02	-6.963192e-02
6.359189e+02	-7.043209e-02
6.395919e+02	-7.124137e-02
6.432862e+02	-7.205987e-02
6.470017e+02	-7.288770e-02
6.507388e+02	-7.372495e-02
6.544974e+02	-7.457174e-02
6.582778e+02	-7.542818e-02
6.620800e+02	-7.629436e-02
6.659041e+02	-7.717040e-02
6.697504e+02	-7.805641e-02
6.736188e+02	-7.895250e-02
6.775096e+02	-7.985878e-02
6.814229e+02	-8.077536e-02
6.853587e+02	-8.170237e-02
6.893173e+02	-8.263992e-02
6.932988e+02	-8.358812e-02
6.973033e+02	-8.454709e-02
7.013309e+02	-8.551695e-02
