Frequency(Hz)	Magnitude(dB)
1.000000e+01	-1.565593e-05
1.005776e+01	-1.583730e-05
1.011585e+01	-1.602078e-05
1.017428e+01	-1.620639e-05
1.023305e+01	-1.639414e-05
1.029215e+01	-1.658407e-05
1.035160e+01	-1.677620e-05
1.041139e+01	-1.697056e-05
1.047153e+01	-1.716717e-05
1.053201e+01	-1.736605e-05
1.059284e+01	-1.756725e-05
1.065403e+01	-1.777077e-05
1.071556e+01	-1.797664e-05
1.077746e+01	-1.818491e-05
1.083971e+01	-1.839559e-05
1.090232e+01	-1.860870e-05
1.096529e+01	-1.882429e-05
1.102862e+01	-1.904237e-05
1.109232e+01	-1.926298e-05
1.115639e+01	-1.948615e-05
1.122083e+01	-1.971190e-05
1.128564e+01	-1.994027e-05
1.135083e+01	-2.017128e-05
1.141639e+01	-2.040497e-05
1.148233e+01	-2.064137e-05
1.154865e+01	-2.088051e-05
1.161536e+01	-2.112241e-05
1.168245e+01	-2.136712e-05
1.174992e+01	-2.161466e-05
1.181779e+01	-2.186507e-05
1.188605e+01	-2.211839e-05
1.195470e+01	-2.237463e-05
1.202375e+01	-2.263385e-05
1.209320e+01	-2.289607e-05
1.216305e+01	-2.316133e-05
1.223330e+01	-2.342966e-05
1.230396e+01	-2.370109e-05
1.237503e+01	-2.397568e-05
1.244651e+01	-2.425344e-05
1.251840e+01	-2.453442e-05
1.259070e+01	-2.481866e-05
1.266343e+01	-2.510619e-05
1.273657e+01	-2.539705e-05
1.281014e+01	-2.569128e-05
1.288413e+01	-2.598892e-05
1.295855e+01	-2.629001e-05
1.303339e+01	-2.659459e-05
1.310867e+01	-2.690269e-05
1.318439e+01	-2.721437e-05
1.326054e+01	-2.752965e-05
1.333713e+01	-2.784859e-05
1.341417e+01	-2.817122e-05
1.349165e+01	-2.849759e-05
1.356958e+01	-2.882774e-05
1.364795e+01	-2.916172e-05
1.372678e+01	-2.949957e-05
1.380607e+01	-2.984132e-05
1.388581e+01	-3.018704e-05
1.396602e+01	-3.053677e-05
1.404668e+01	-3.089054e-05
1.412782e+01	-3.124842e-05
1.420942e+01	-3.161044e-05
1.429149e+01	-3.197665e-05
1.437404e+01	-3.234711e-05
1.445706e+01	-3.272186e-05
1.454057e+01	-3.310095e-05
1.462455e+01	-3.348443e-05
1.470902e+01	-3.387236e-05
1.479398e+01	-3.426478e-05
1.487943e+01	-3.466174e-05
1.496537e+01	-3.506331e-05
1.505181e+01	-3.546952e-05
1.513875e+01	-3.588044e-05
1.522619e+01	-3.629613e-05
1.531414e+01	-3.671663e-05
1.540259e+01	-3.714200e-05
1.549156e+01	-3.757230e-05
1.558103e+01	-3.800758e-05
1.567103e+01	-3.844791e-05
1.576155e+01	-3.889333e-05
1.585258e+01	-3.934392e-05
1.594415e+01	-3.979973e-05
1.603624e+01	-4.026082e-05
1.612886e+01	-4.072725e-05
1.622202e+01	-4.119908e-05
1.631572e+01	-4.167638e-05
1.640996e+01	-4.215921e-05
1.650474e+01	-4.264764e-05
1.660008e+01	-4.314172e-05
1.669596e+01	-4.364153e-05
1.679239e+01	-4.414712e-05
1.688938e+01	-4.465858e-05
1.698694e+01	-4.517596e-05
1.708505e+01	-4.569933e-05
1.718373e+01	-4.622877e-05
1.728299e+01	-4.676434e-05
1.738281e+01	-4.730611e-05
1.748322e+01	-4.785417e-05
1.758420e+01	-4.840857e-05
1.768576e+01	-4.896939e-05
1.778792e+01	-4.953671e-05
1.789066e+01	-5.011060e-05
1.799399e+01	-5.069115e-05
1.809793e+01	-5.127841e-05
1.820246e+01	-5.187248e-05
1.830760e+01	-5.247344e-05
1.841334e+01	-5.308135e-05
1.851969e+01	-5.369631e-05
1.862666e+01	-5.431840e-05
1.873425e+01	-5.494769e-05
1.884246e+01	-5.558427e-05
1.895129e+01	-5.622822e-05
1.906075e+01	-5.687964e-05
1.917085e+01	-5.753860e-05
1.928158e+01	-5.820519e-05
1.939295e+01	-5.887951e-05
1.950496e+01	-5.956164e-05
1.961762e+01	-6.025168e-05
1.973093e+01	-6.094971e-05
1.984490e+01	-6.165582e-05
1.995952e+01	-6.237011e-05
2.007480e+01	-6.309268e-05
2.019076e+01	-6.382363e-05
2.030738e+01	-6.456303e-05
2.042467e+01	-6.531101e-05
2.054264e+01	-6.606765e-05
2.066130e+01	-6.683306e-05
2.078064e+01	-6.760733e-05
2.090066e+01	-6.839057e-05
2.102139e+01	-6.918289e-05
2.114280e+01	-6.998439e-05
2.126492e+01	-7.079517e-05
2.138775e+01	-7.161535e-05
2.151128e+01	-7.244502e-05
2.163553e+01	-7.328431e-05
2.176050e+01	-7.413332e-05
2.188619e+01	-7.499217e-05
2.201260e+01	-7.586097e-05
2.213974e+01	-7.673983e-05
2.226762e+01	-7.762888e-05
2.239624e+01	-7.852822e-05
2.252560e+01	-7.943798e-05
2.265571e+01	-8.035829e-05
2.278656e+01	-8.128925e-05
2.291818e+01	-8.223100e-05
2.305055e+01	-8.318366e-05
2.318369e+01	-8.414736e-05
2.331760e+01	-8.512222e-05
2.345228e+01	-8.610837e-05
2.358774e+01	-8.710595e-05
2.372398e+01	-8.811509e-05
2.386101e+01	-8.913592e-05
2.399883e+01	-9.016857e-05
2.413745e+01	-9.121319e-05
2.427686e+01	-9.226991e-05
2.441709e+01	-9.333887e-05
2.455812e+01	-9.442021e-05
2.469997e+01	-9.551409e-05
2.484263e+01	-9.662063e-05
2.498612e+01	-9.774000e-05
2.513044e+01	-9.887233e-05
2.527559e+01	-1.000178e-04
2.542158e+01	-1.011765e-04
2.556842e+01	-1.023486e-04
2.571610e+01	-1.035344e-04
2.586463e+01	-1.047338e-04
2.601403e+01	-1.059472e-04
2.616428e+01	-1.071746e-04
2.631541e+01	-1.084162e-04
2.646740e+01	-1.096722e-04
2.662028e+01	-1.109428e-04
2.677404e+01	-1.122281e-04
2.692868e+01	-1.135283e-04
2.708422e+01	-1.148435e-04
2.724066e+01	-1.161740e-04
2.739800e+01	-1.175199e-04
2.755625e+01	-1.188814e-04
2.771541e+01	-1.202586e-04
2.787550e+01	-1.216518e-04
2.803650e+01	-1.230612e-04
2.819844e+01	-1.244869e-04
2.836131e+01	-1.259290e-04
2.852513e+01	-1.273880e-04
2.868989e+01	-1.288638e-04
2.885560e+01	-1.303567e-04
2.902227e+01	-1.318668e-04
2.918990e+01	-1.333945e-04
2.935850e+01	-1.349399e-04
2.952807e+01	-1.365032e-04
2.969863e+01	-1.380846e-04
2.987016e+01	-1.396843e-04
3.004269e+01	-1.413026e-04
3.021622e+01	-1.429396e-04
3.039075e+01	-1.445956e-04
3.056628e+01	-1.462707e-04
3.074283e+01	-1.479653e-04
3.092040e+01	-1.496795e-04
3.109900e+01	-1.514135e-04
3.127862e+01	-1.531677e-04
3.145929e+01	-1.549421e-04
3.164099e+01	-1.567371e-04
3.182375e+01	-1.585529e-04
3.200756e+01	-1.603898e-04
3.219244e+01	-1.622479e-04
3.237838e+01	-1.641276e-04
3.256540e+01	-1.660290e-04
3.275349e+01	-1.679524e-04
3.294268e+01	-1.698982e-04
3.313295e+01	-1.718665e-04
3.332433e+01	-1.738575e-04
3.351681e+01	-1.758717e-04
3.371040e+01	-1.779092e-04
3.390511e+01	-1.799703e-04
3.410094e+01	-1.820552e-04
3.429791e+01	-1.841643e-04
3.449601e+01	-1.862979e-04
3.469526e+01	-1.884562e-04
3.489566e+01	-1.906394e-04
3.509721e+01	-1.928480e-04
3.529993e+01	-1.950821e-04
3.550382e+01	-1.973422e-04
3.570889e+01	-1.996284e-04
3.591515e+01	-2.019411e-04
3.612259e+01	-2.042806e-04
3.633123e+01	-2.066471e-04
3.654108e+01	-2.090412e-04
3.675214e+01	-2.114629e-04
3.696442e+01	-2.139127e-04
3.717792e+01	-2.163909e-04
3.739266e+01	-2.188978e-04
3.760864e+01	-2.214337e-04
3.782587e+01	-2.239990e-04
3.804435e+01	-2.265940e-04
3.826409e+01	-2.292191e-04
3.848510e+01	-2.318746e-04
3.870739e+01	-2.345608e-04
3.893096e+01	-2.372782e-04
3.915583e+01	-2.400271e-04
3.938199e+01	-2.428078e-04
3.960946e+01	-2.456207e-04
3.983824e+01	-2.484662e-04
4.006834e+01	-2.513447e-04
4.029978e+01	-2.542565e-04
4.053255e+01	-2.572020e-04
4.076666e+01	-2.601817e-04
4.100213e+01	-2.631959e-04
4.123896e+01	-2.662450e-04
4.147715e+01	-2.693294e-04
4.171672e+01	-2.724496e-04
4.195767e+01	-2.756059e-04
4.220002e+01	-2.787987e-04
4.244377e+01	-2.820286e-04
4.268892e+01	-2.852959e-04
4.293549e+01	-2.886010e-04
4.318348e+01	-2.919444e-04
4.343291e+01	-2.953266e-04
4.368377e+01	-2.987479e-04
4.393609e+01	-3.022088e-04
4.418986e+01	-3.057099e-04
4.444510e+01	-3.092515e-04
4.470182e+01	-3.128341e-04
4.496001e+01	-3.164583e-04
4.521970e+01	-3.201244e-04
4.548089e+01	-3.238330e-04
4.574358e+01	-3.275845e-04
4.600779e+01	-3.313795e-04
4.627353e+01	-3.352185e-04
4.654081e+01	-3.391020e-04
4.680963e+01	-3.430304e-04
4.708000e+01	-3.470043e-04
4.735193e+01	-3.510243e-04
4.762543e+01	-3.550909e-04
4.790051e+01	-3.592045e-04
4.817719e+01	-3.633658e-04
4.845545e+01	-3.675754e-04
4.873533e+01	-3.718336e-04
4.901682e+01	-3.761412e-04
4.929994e+01	-3.804988e-04
4.958470e+01	-3.849067e-04
4.987110e+01	-3.893658e-04
5.015915e+01	-3.938765e-04
5.044887e+01	-3.984395e-04
5.074026e+01	-4.030553e-04
5.103333e+01	-4.077246e-04
5.132810e+01	-4.124479e-04
5.162457e+01	-4.172260e-04
5.192275e+01	-4.220595e-04
5.222265e+01	-4.269489e-04
5.252429e+01	-4.318950e-04
5.282767e+01	-4.368984e-04
5.313280e+01	-4.419597e-04
5.343969e+01	-4.470797e-04
5.374836e+01	-4.522589e-04
5.405880e+01	-4.574982e-04
5.437105e+01	-4.627982e-04
5.468509e+01	-4.681595e-04
5.500095e+01	-4.735830e-04
5.531863e+01	-4.790693e-04
5.563815e+01	-4.846191e-04
5.595951e+01	-4.902332e-04
5.628273e+01	-4.959124e-04
5.660782e+01	-5.016573e-04
5.693479e+01	-5.074688e-04
5.726364e+01	-5.133477e-04
5.759439e+01	-5.192946e-04
5.792705e+01	-5.253104e-04
5.826164e+01	-5.313959e-04
5.859815e+01	-5.375519e-04
5.893662e+01	-5.437792e-04
5.927703e+01	-5.500786e-04
5.961941e+01	-5.564510e-04
5.996377e+01	-5.628972e-04
6.031012e+01	-5.694181e-04
6.065847e+01	-5.760145e-04
6.100883e+01	-5.826874e-04
6.136121e+01	-5.894375e-04
6.171563e+01	-5.962658e-04
6.207210e+01	-6.031733e-04
6.243063e+01	-6.101607e-04
6.279122e+01	-6.172291e-04
6.315390e+01	-6.243793e-04
6.351868e+01	-6.316124e-04
6.388556e+01	-6.389293e-04
6.425456e+01	-6.463309e-04
6.462569e+01	-6.538183e-04
6.499897e+01	-6.613923e-04
6.537440e+01	-6.690542e-04
6.575200e+01	-6.768047e-04
6.613178e+01	-6.846451e-04
6.651375e+01	-6.925763e-04
6.689793e+01	-7.005993e-04
6.728433e+01	-7.087153e-04
6.767297e+01	-7.169253e-04
6.806384e+01	-7.252303e-04
6.845698e+01	-7.336316e-04
6.885238e+01	-7.421302e-04
6.925007e+01	-7.507273e-04
6.965005e+01	-7.594239e-04
7.005235e+01	-7.682212e-04
7.045697e+01	-7.771205e-04
7.086393e+01	-7.861228e-04
7.127323e+01	-7.952294e-04
7.168490e+01	-8.044415e-04
7.209895e+01	-8.137603e-04
7.251539e+01	-8.231871e-04
7.293424e+01	-8.327230e-04
7.335551e+01	-8.423694e-04
7.377920e+01	-8.521275e-04
7.420535e+01	-8.619987e-04
7.463396e+01	-8.719842e-04
7.506504e+01	-8.820853e-04
7.549861e+01	-8.923035e-04
7.593469e+01	-9.026400e-04
7.637328e+01	-9.130962e-04
7.681441e+01	-9.236736e-04
7.725809e+01	-9.343734e-04
7.770433e+01	-9.451972e-04
7.815315e+01	-9.561464e-04
7.860456e+01	-9.672223e-04
7.905857e+01	-9.784266e-04
7.951521e+01	-9.897607e-04
7.997449e+01	-1.001226e-03
8.043642e+01	-1.012824e-03
8.090102e+01	-1.024557e-03
8.136830e+01	-1.036425e-03
8.183828e+01	-1.048431e-03
8.231097e+01	-1.060576e-03
8.278640e+01	-1.072861e-03
8.326457e+01	-1.085289e-03
8.374550e+01	-1.097861e-03
8.422921e+01	-1.110578e-03
8.471572e+01	-1.123443e-03
8.520503e+01	-1.136457e-03
8.569717e+01	-1.149621e-03
8.619215e+01	-1.162938e-03
8.669000e+01	-1.176409e-03
8.719071e+01	-1.190036e-03
8.769432e+01	-1.203821e-03
8.820084e+01	-1.217766e-03
8.871029e+01	-1.231872e-03
8.922267e+01	-1.246141e-03
8.973802e+01	-1.260576e-03
9.025634e+01	-1.275178e-03
9.077766e+01	-1.289949e-03
9.130199e+01	-1.304891e-03
9.182935e+01	-1.320007e-03
9.235975e+01	-1.335297e-03
9.289321e+01	-1.350764e-03
9.342976e+01	-1.366411e-03
9.396941e+01	-1.382238e-03
9.451217e+01	-1.398250e-03
9.505807e+01	-1.414446e-03
9.560712e+01	-1.430830e-03
9.615934e+01	-1.447404e-03
9.671476e+01	-1.464170e-03
9.727338e+01	-1.481129e-03
9.783522e+01	-1.498286e-03
9.840032e+01	-1.515641e-03
9.896867e+01	-1.533197e-03
9.954031e+01	-1.550956e-03
1.001153e+02	-1.568921e-03
1.006935e+02	-1.587094e-03
1.012751e+02	-1.605478e-03
1.018601e+02	-1.624074e-03
1.024484e+02	-1.642886e-03
1.030402e+02	-1.661915e-03
1.036353e+02	-1.681165e-03
1.042339e+02	-1.700638e-03
1.048360e+02	-1.720337e-03
1.054415e+02	-1.740263e-03
1.060505e+02	-1.760421e-03
1.066631e+02	-1.780812e-03
1.072791e+02	-1.801438e-03
1.078988e+02	-1.822304e-03
1.085220e+02	-1.843412e-03
1.091488e+02	-1.864763e-03
1.097793e+02	-1.886363e-03
1.104133e+02	-1.908212e-03
1.110511e+02	-1.930314e-03
1.116925e+02	-1.952672e-03
1.123376e+02	-1.975289e-03
1.129865e+02	-1.998168e-03
1.136391e+02	-2.021312e-03
1.142955e+02	-2.044724e-03
1.149556e+02	-2.068407e-03
1.156196e+02	-2.092364e-03
1.162874e+02	-2.116599e-03
1.169591e+02	-2.141114e-03
1.176347e+02	-2.165913e-03
1.183141e+02	-2.191000e-03
1.189975e+02	-2.216377e-03
1.196848e+02	-2.242047e-03
1.203761e+02	-2.268015e-03
1.210714e+02	-2.294284e-03
1.217707e+02	-2.320857e-03
1.224740e+02	-2.347737e-03
1.231814e+02	-2.374929e-03
1.238929e+02	-2.402435e-03
1.246085e+02	-2.430260e-03
1.253283e+02	-2.458408e-03
1.260522e+02	-2.486881e-03
1.267802e+02	-2.515684e-03
1.275125e+02	-2.544820e-03
1.282490e+02	-2.574294e-03
1.289898e+02	-2.604109e-03
1.297348e+02	-2.634269e-03
1.304842e+02	-2.664778e-03
1.312378e+02	-2.695641e-03
1.319959e+02	-2.726860e-03
1.327583e+02	-2.758442e-03
1.335251e+02	-2.790389e-03
1.342963e+02	-2.822706e-03
1.350720e+02	-2.855397e-03
1.358522e+02	-2.888466e-03
1.366368e+02	-2.921919e-03
1.374260e+02	-2.955758e-03
1.382198e+02	-2.989990e-03
1.390182e+02	-3.024617e-03
1.398211e+02	-3.059646e-03
1.406287e+02	-3.095080e-03
1.414410e+02	-3.130925e-03
1.422579e+02	-3.167184e-03
1.430796e+02	-3.203863e-03
1.439060e+02	-3.240967e-03
1.447372e+02	-3.278500e-03
1.455732e+02	-3.316468e-03
1.464141e+02	-3.354875e-03
1.472597e+02	-3.393727e-03
1.481103e+02	-3.433029e-03
1.489658e+02	-3.472785e-03
1.498262e+02	-3.513002e-03
1.506916e+02	-3.553684e-03
1.515620e+02	-3.594838e-03
1.524374e+02	-3.636467e-03
1.533179e+02	-3.678579e-03
1.542034e+02	-3.721178e-03
1.550941e+02	-3.764270e-03
1.559899e+02	-3.807861e-03
1.568909e+02	-3.851956e-03
1.577971e+02	-3.896562e-03
1.587085e+02	-3.941684e-03
1.596252e+02	-3.987329e-03
1.605472e+02	-4.033501e-03
1.614745e+02	-4.080209e-03
1.624072e+02	-4.127456e-03
1.633453e+02	-4.175251e-03
1.642887e+02	-4.223599e-03
1.652377e+02	-4.272506e-03
1.661921e+02	-4.321980e-03
1.671520e+02	-4.372026e-03
1.681175e+02	-4.422651e-03
1.690885e+02	-4.473862e-03
1.700651e+02	-4.525666e-03
1.710474e+02	-4.578069e-03
1.720354e+02	-4.631079e-03
1.730291e+02	-4.684702e-03
1.740285e+02	-4.738946e-03
1.750337e+02	-4.793817e-03
1.760446e+02	-4.849324e-03
1.770615e+02	-4.905473e-03
1.780842e+02	-4.962271e-03
1.791128e+02	-5.019727e-03
1.801473e+02	-5.077848e-03
1.811878e+02	-5.136641e-03
1.822344e+02	-5.196115e-03
1.832870e+02	-5.256277e-03
1.843456e+02	-5.317135e-03
1.854104e+02	-5.378697e-03
1.864813e+02	-5.440971e-03
1.875584e+02	-5.503966e-03
1.886418e+02	-5.567690e-03
1.897313e+02	-5.632151e-03
1.908272e+02	-5.697358e-03
1.919294e+02	-5.763320e-03
1.930380e+02	-5.830045e-03
1.941530e+02	-5.897541e-03
1.952744e+02	-5.965819e-03
1.964023e+02	-6.034886e-03
1.975367e+02	-6.104752e-03
1.986777e+02	-6.175427e-03
1.998252e+02	-6.246919e-03
2.009794e+02	-6.319239e-03
2.021403e+02	-6.392395e-03
2.033078e+02	-6.466397e-03
2.044821e+02	-6.541255e-03
2.056632e+02	-6.616979e-03
2.068511e+02	-6.693580e-03
2.080459e+02	-6.771066e-03
2.092475e+02	-6.849448e-03
2.104561e+02	-6.928737e-03
2.116717e+02	-7.008944e-03
2.128943e+02	-7.090078e-03
2.141240e+02	-7.172150e-03
2.153608e+02	-7.255172e-03
2.166047e+02	-7.339153e-03
2.178558e+02	-7.424106e-03
2.191141e+02	-7.510042e-03
2.203797e+02	-7.596971e-03
2.216526e+02	-7.684906e-03
2.229329e+02	-7.773858e-03
2.242205e+02	-7.863838e-03
2.255156e+02	-7.954859e-03
2.268182e+02	-8.046933e-03
2.281283e+02	-8.140071e-03
2.294459e+02	-8.234286e-03
2.307712e+02	-8.329590e-03
2.321041e+02	-8.425997e-03
2.334447e+02	-8.523518e-03
2.347931e+02	-8.622167e-03
2.361493e+02	-8.721956e-03
2.375133e+02	-8.822899e-03
2.388851e+02	-8.925009e-03
2.402649e+02	-9.028300e-03
2.416527e+02	-9.132785e-03
2.430484e+02	-9.238478e-03
2.444523e+02	-9.345392e-03
2.458642e+02	-9.453543e-03
2.472843e+02	-9.562944e-03
2.487126e+02	-9.673609e-03
2.501492e+02	-9.785553e-03
2.515940e+02	-9.898792e-03
2.530472e+02	-1.001334e-02
2.545088e+02	-1.012921e-02
2.559789e+02	-1.024642e-02
2.574574e+02	-1.036499e-02
2.589444e+02	-1.048492e-02
2.604401e+02	-1.060624e-02
2.619444e+02	-1.072897e-02
2.634574e+02	-1.085311e-02
2.649791e+02	-1.097869e-02
2.665096e+02	-1.110571e-02
2.680489e+02	-1.123421e-02
2.695972e+02	-1.136419e-02
2.711544e+02	-1.149567e-02
2.727205e+02	-1.162867e-02
2.742958e+02	-1.176321e-02
2.758801e+02	-1.189930e-02
2.774736e+02	-1.203697e-02
2.790762e+02	-1.217622e-02
2.806882e+02	-1.231709e-02
2.823094e+02	-1.245958e-02
2.839400e+02	-1.260372e-02
2.855800e+02	-1.274952e-02
2.872295e+02	-1.289700e-02
2.888886e+02	-1.304619e-02
2.905572e+02	-1.319711e-02
2.922354e+02	-1.334976e-02
2.939234e+02	-1.350418e-02
2.956211e+02	-1.366038e-02
2.973286e+02	-1.381839e-02
2.990459e+02	-1.397822e-02
3.007732e+02	-1.413990e-02
3.025104e+02	-1.430344e-02
3.042577e+02	-1.446887e-02
3.060151e+02	-1.463622e-02
3.077826e+02	-1.480549e-02
3.095604e+02	-1.497672e-02
3.113484e+02	-1.514992e-02
3.131467e+02	-1.532513e-02
3.149554e+02	-1.550236e-02
3.167746e+02	-1.568163e-02
3.186043e+02	-1.586297e-02
3.204445e+02	-1.604641e-02
3.222954e+02	-1.623196e-02
3.241570e+02	-1.641966e-02
3.260293e+02	-1.660952e-02
3.279124e+02	-1.680157e-02
3.298064e+02	-1.699584e-02
3.317114e+02	-1.719235e-02
3.336273e+02	-1.739112e-02
3.355544e+02	-1.759220e-02
3.374925e+02	-1.779559e-02
3.394418e+02	-1.800132e-02
3.414024e+02	-1.820944e-02
3.433744e+02	-1.841995e-02
3.453577e+02	-1.863289e-02
3.473525e+02	-1.884828e-02
3.493588e+02	-1.906617e-02
3.513766e+02	-1.928656e-02
3.534062e+02	-1.950950e-02
3.554474e+02	-1.973500e-02
3.575005e+02	-1.996311e-02
3.595654e+02	-2.019385e-02
3.616422e+02	-2.042725e-02
3.637311e+02	-2.066334e-02
3.658320e+02	-2.090215e-02
3.679450e+02	-2.114371e-02
3.700702e+02	-2.138806e-02
3.722077e+02	-2.163523e-02
3.743576e+02	-2.188525e-02
3.765199e+02	-2.213814e-02
3.786946e+02	-2.239396e-02
3.808820e+02	-2.265272e-02
3.830819e+02	-2.291446e-02
3.852946e+02	-2.317922e-02
3.875200e+02	-2.344703e-02
3.897583e+02	-2.371792e-02
3.920096e+02	-2.399194e-02
3.942738e+02	-2.426911e-02
3.965511e+02	-2.454948e-02
3.988416e+02	-2.483308e-02
4.011452e+02	-2.511994e-02
4.034622e+02	-2.541011e-02
4.057926e+02	-2.570362e-02
4.081365e+02	-2.600050e-02
4.104938e+02	-2.630081e-02
4.128648e+02	-2.660458e-02
4.152495e+02	-2.691184e-02
4.176480e+02	-2.722264e-02
4.200603e+02	-2.753702e-02
4.224866e+02	-2.785501e-02
4.249268e+02	-2.817667e-02
4.273812e+02	-2.850203e-02
4.298497e+02	-2.883113e-02
4.323325e+02	-2.916403e-02
4.348297e+02	-2.950075e-02
4.373412e+02	-2.984134e-02
4.398673e+02	-3.018586e-02
4.424079e+02	-3.053433e-02
4.449633e+02	-3.088682e-02
4.475334e+02	-3.124336e-02
4.501183e+02	-3.160400e-02
4.527182e+02	-3.196879e-02
4.553330e+02	-3.233777e-02
4.579630e+02	-3.271100e-02
4.606082e+02	-3.308852e-02
4.632687e+02	-3.347038e-02
4.659445e+02	-3.385662e-02
4.686358e+02	-3.424731e-02
4.713426e+02	-3.464249e-02
4.740650e+02	-3.504220e-02
4.768032e+02	-3.544652e-02
4.795572e+02	-3.585547e-02
4.823271e+02	-3.626913e-02
4.851130e+02	-3.668754e-02
4.879150e+02	-3.711075e-02
4.907332e+02	-3.753882e-02
4.935676e+02	-3.797181e-02
4.964185e+02	-3.840978e-02
4.992858e+02	-3.885277e-02
5.021696e+02	-3.930085e-02
5.050701e+02	-3.975407e-02
5.079874e+02	-4.021249e-02
5.109215e+02	-4.067618e-02
5.138726e+02	-4.114518e-02
5.168407e+02	-4.161957e-02
5.198259e+02	-4.209940e-02
5.228284e+02	-4.258473e-02
5.258482e+02	-4.307564e-02
5.288855e+02	-4.357217e-02
5.319403e+02	-4.407440e-02
5.350128e+02	-4.458238e-02
5.381030e+02	-4.509620e-02
5.412111e+02	-4.561590e-02
5.443371e+02	-4.614155e-02
5.474812e+02	-4.667324e-02
5.506434e+02	-4.721101e-02
5.538239e+02	-4.775495e-02
5.570228e+02	-4.830512e-02
5.602401e+02	-4.886160e-02
5.634760e+02	-4.942444e-02
5.667306e+02	-4.999374e-02
5.700040e+02	-5.056955e-02
5.732964e+02	-5.115195e-02
5.766077e+02	-5.174102e-02
5.799382e+02	-5.233684e-02
5.832879e+02	-5.293947e-02
5.866569e+02	-5.354900e-02
5.900454e+02	-5.416551e-02
5.934535e+02	-5.478906e-02
5.968813e+02	-5.541975e-02
6.003288e+02	-5.605766e-02
6.037963e+02	-5.670285e-02
6.072838e+02	-5.735543e-02
6.107914e+02	-5.801546e-02
6.143194e+02	-5.868304e-02
6.178676e+02	-5.935824e-02
6.214364e+02	-6.004116e-02
6.250258e+02	-6.073189e-02
6.286359e+02	-6.143050e-02
6.322669e+02	-6.213709e-02
6.359189e+02	-6.285175e-02
6.395919e+02	-6.357457e-02
6.432862e+02	-6.430564e-02
6.470017e+02	-6.504505e-02
6.507388e+02	-6.579290e-02
6.544974e+02	-6.654929e-02
6.582778e+02	-6.731430e-02
6.620800e+02	-6.808804e-02
6.659041e+02	-6.887059e-02
6.697504e+02	-6.966208e-02
6.736188e+02	-7.046258e-02
6.775096e+02	-7.127220e-02
6.814229e+02	-7.209106e-02
6.853587e+02	-7.291924e-02
6.893173e+02	-7.375685e-02
6.932988e+02	-7.460400e-02
6.973033e+02	-7.546080e-02
7.013309e+02	-7.632735e-02
