Frequency(Hz)	Magnitude(dB)
1.000000e+01	-2.128740e+00
1.005776e+01	-2.148337e+00
1.011585e+01	-2.167937e+00
1.017428e+01	-2.187638e+00
1.023305e+01	-2.207423e+00
1.029215e+01	-2.227631e+00
1.035160e+01	-2.247636e+00
1.041139e+01	-2.267674e+00
1.047153e+01	-2.288248e+00
1.053201e+01	-2.308951e+00
1.059284e+01	-2.329509e+00
1.065403e+01	-2.350372e+00
1.071556e+01	-2.371363e+00
1.077746e+01	-2.392317e+00
1.083971e+01	-2.413915e+00
1.090232e+01	-2.435037e+00
1.096529e+01	-2.456797e+00
1.102862e+01	-2.478287e+00
1.109232e+01	-2.500070e+00
1.115639e+01	-2.522177e+00
1.122083e+01	-2.544111e+00
1.128564e+01	-2.566469e+00
1.135083e+01	-2.588899e+00
1.141639e+01	-2.611436e+00
1.148233e+01	-2.634216e+00
1.154865e+01	-2.656904e+00
1.161536e+01	-2.679887e+00
1.168245e+01	-2.703136e+00
1.174992e+01	-2.726558e+00
1.181779e+01	-2.749747e+00
1.188605e+01	-2.773274e+00
1.195470e+01	-2.797160e+00
1.202375e+01	-2.820672e+00
1.209320e+01	-2.844718e+00
1.216305e+01	-2.868637e+00
1.223330e+01	-2.893097e+00
1.230396e+01	-2.917496e+00
1.237503e+01	-2.941997e+00
1.244651e+01	-2.966623e+00
1.251840e+01	-2.991338e+00
1.259070e+01	-3.016552e+00
1.266343e+01	-3.041694e+00
1.273657e+01	-3.066950e+00
1.281014e+01	-3.092123e+00
1.288413e+01	-3.117932e+00
1.295855e+01	-3.143774e+00
1.303339e+01	-3.169447e+00
1.310867e+01	-3.195461e+00
1.318439e+01	-3.221606e+00
1.326054e+01	-3.247665e+00
1.333713e+01	-3.274253e+00
1.341417e+01	-3.300824e+00
1.349165e+01	-3.327567e+00
1.356958e+01	-3.354234e+00
1.364795e+01	-3.381413e+00
1.372678e+01	-3.408365e+00
1.380607e+01	-3.435764e+00
1.388581e+01	-3.463153e+00
1.396602e+01	-3.490866e+00
1.404668e+01	-3.518282e+00
1.412782e+01	-3.546174e+00
1.420942e+01	-3.574147e+00
1.429149e+01	-3.602424e+00
1.437404e+01	-3.630586e+00
1.445706e+01	-3.659149e+00
1.454057e+01	-3.687529e+00
1.462455e+01	-3.716331e+00
1.470902e+01	-3.745103e+00
1.479398e+01	-3.774171e+00
1.487943e+01	-3.803165e+00
1.496537e+01	-3.832545e+00
1.505181e+01	-3.861733e+00
1.513875e+01	-3.891369e+00
1.522619e+01	-3.921207e+00
1.531414e+01	-3.950872e+00
1.540259e+01	-3.980885e+00
1.549156e+01	-4.011028e+00
1.558103e+01	-4.041188e+00
1.567103e+01	-4.071553e+00
1.576155e+01	-4.102022e+00
1.585258e+01	-4.132659e+00
1.594415e+01	-4.163408e+00
1.603624e+01	-4.194136e+00
1.612886e+01	-4.225227e+00
1.622202e+01	-4.256552e+00
1.631572e+01	-4.287926e+00
1.640996e+01	-4.319230e+00
1.650474e+01	-4.350695e+00
1.660008e+01	-4.382423e+00
1.669596e+01	-4.414355e+00
1.679239e+01	-4.446687e+00
1.688938e+01	-4.478545e+00
1.698694e+01	-4.510967e+00
1.708505e+01	-4.543126e+00
1.718373e+01	-4.575868e+00
1.728299e+01	-4.608159e+00
1.738281e+01	-4.641226e+00
1.748322e+01	-4.674072e+00
1.758420e+01	-4.707289e+00
1.768576e+01	-4.740058e+00
1.778792e+01	-4.773512e+00
1.789066e+01	-4.807147e+00
1.799399e+01	-4.840548e+00
1.809793e+01	-4.874491e+00
1.820246e+01	-4.908347e+00
1.830760e+01	-4.942010e+00
1.841334e+01	-4.976229e+00
1.851969e+01	-5.010371e+00
1.862666e+01	-5.044526e+00
1.873425e+01	-5.078657e+00
1.884246e+01	-5.113526e+00
1.895129e+01	-5.148319e+00
1.906075e+01	-5.183231e+00
1.917085e+01	-5.217974e+00
1.928158e+01	-5.253163e+00
1.939295e+01	-5.288043e+00
1.950496e+01	-5.323831e+00
1.961762e+01	-5.359079e+00
1.973093e+01	-5.394086e+00
1.984490e+01	-5.430370e+00
1.995952e+01	-5.465890e+00
2.007480e+01	-5.501473e+00
2.019076e+01	-5.537882e+00
2.030738e+01	-5.573568e+00
2.042467e+01	-5.609961e+00
2.054264e+01	-5.646286e+00
2.066130e+01	-5.682401e+00
2.078064e+01	-5.719484e+00
2.090066e+01	-5.755633e+00
2.102139e+01	-5.792758e+00
2.114280e+01	-5.829765e+00
2.126492e+01	-5.866488e+00
2.138775e+01	-5.903761e+00
2.151128e+01	-5.941012e+00
2.163553e+01	-5.978172e+00
2.176050e+01	-6.015621e+00
2.188619e+01	-6.053080e+00
2.201260e+01	-6.090950e+00
2.213974e+01	-6.128908e+00
2.226762e+01	-6.166753e+00
2.239624e+01	-6.204895e+00
2.252560e+01	-6.242520e+00
2.265571e+01	-6.281037e+00
2.278656e+01	-6.319095e+00
2.291818e+01	-6.357900e+00
2.305055e+01	-6.395830e+00
2.318369e+01	-6.434790e+00
2.331760e+01	-6.473508e+00
2.345228e+01	-6.512623e+00
2.358774e+01	-6.551167e+00
2.372398e+01	-6.590370e+00
2.386101e+01	-6.629454e+00
2.399883e+01	-6.668448e+00
2.413745e+01	-6.707676e+00
2.427686e+01	-6.747039e+00
2.441709e+01	-6.786994e+00
2.455812e+01	-6.826158e+00
2.469997e+01	-6.865975e+00
2.484263e+01	-6.905463e+00
2.498612e+01	-6.945747e+00
2.513044e+01	-6.985476e+00
2.527559e+01	-7.025538e+00
2.542158e+01	-7.065678e+00
2.556842e+01	-7.105962e+00
2.571610e+01	-7.146662e+00
2.586463e+01	-7.187262e+00
2.601403e+01	-7.227295e+00
2.616428e+01	-7.267789e+00
2.631541e+01	-7.308813e+00
2.646740e+01	-7.349335e+00
2.662028e+01	-7.390314e+00
2.677404e+01	-7.431211e+00
2.692868e+01	-7.472227e+00
2.708422e+01	-7.513588e+00
2.724066e+01	-7.554558e+00
2.739800e+01	-7.596024e+00
2.755625e+01	-7.637031e+00
2.771541e+01	-7.678603e+00
2.787550e+01	-7.720078e+00
2.803650e+01	-7.761844e+00
2.819844e+01	-7.803591e+00
2.836131e+01	-7.845081e+00
2.852513e+01	-7.886891e+00
2.868989e+01	-7.928898e+00
2.885560e+01	-7.970886e+00
2.902227e+01	-8.012819e+00
2.918990e+01	-8.055379e+00
2.935850e+01	-8.097535e+00
2.952807e+01	-8.139419e+00
2.969863e+01	-8.182410e+00
2.987016e+01	-8.224799e+00
3.004269e+01	-8.266982e+00
3.021622e+01	-8.309596e+00
3.039075e+01	-8.351868e+00
3.056628e+01	-8.395337e+00
3.074283e+01	-8.437534e+00
3.092040e+01	-8.481204e+00
3.109900e+01	-8.524343e+00
3.127862e+01	-8.566534e+00
3.145929e+01	-8.610041e+00
3.164099e+01	-8.653097e+00
3.182375e+01	-8.696368e+00
3.200756e+01	-8.739672e+00
3.219244e+01	-8.782564e+00
3.237838e+01	-8.826639e+00
3.256540e+01	-8.869924e+00
3.275349e+01	-8.913503e+00
3.294268e+01	-8.957355e+00
3.313295e+01	-9.000819e+00
3.332433e+01	-9.044373e+00
3.351681e+01	-9.088591e+00
3.371040e+01	-9.132520e+00
3.390511e+01	-9.176276e+00
3.410094e+01	-9.220174e+00
3.429791e+01	-9.263993e+00
3.449601e+01	-9.308482e+00
3.469526e+01	-9.352667e+00
3.489566e+01	-9.396815e+00
3.509721e+01	-9.441372e+00
3.529993e+01	-9.485481e+00
3.550382e+01	-9.529985e+00
3.570889e+01	-9.574530e+00
3.591515e+01	-9.619024e+00
3.612259e+01	-9.663765e+00
3.633123e+01	-9.708526e+00
3.654108e+01	-9.753349e+00
3.675214e+01	-9.797923e+00
3.696442e+01	-9.842674e+00
3.717792e+01	-9.887713e+00
3.739266e+01	-9.932407e+00
3.760864e+01	-9.977600e+00
3.782587e+01	-1.002227e+01
3.804435e+01	-1.006777e+01
3.826409e+01	-1.011181e+01
3.848510e+01	-1.015751e+01
3.870739e+01	-1.020304e+01
3.893096e+01	-1.024819e+01
3.915583e+01	-1.029363e+01
3.938199e+01	-1.033906e+01
3.960946e+01	-1.038424e+01
3.983824e+01	-1.042958e+01
4.006834e+01	-1.047484e+01
4.029978e+01	-1.052124e+01
4.053255e+01	-1.056605e+01
4.076666e+01	-1.061201e+01
4.100213e+01	-1.065794e+01
4.123896e+01	-1.070355e+01
4.147715e+01	-1.074963e+01
4.171672e+01	-1.079545e+01
4.195767e+01	-1.084120e+01
4.220002e+01	-1.088673e+01
4.244377e+01	-1.093346e+01
4.268892e+01	-1.097861e+01
4.293549e+01	-1.102517e+01
4.318348e+01	-1.107090e+01
4.343291e+01	-1.111752e+01
4.368377e+01	-1.116351e+01
4.393609e+01	-1.121033e+01
4.418986e+01	-1.125601e+01
4.444510e+01	-1.130211e+01
4.470182e+01	-1.134885e+01
4.496001e+01	-1.139464e+01
4.521970e+01	-1.144217e+01
4.548089e+01	-1.148787e+01
4.574358e+01	-1.153475e+01
4.600779e+01	-1.158145e+01
4.627353e+01	-1.162726e+01
4.654081e+01	-1.167385e+01
4.680963e+01	-1.172088e+01
4.708000e+01	-1.176736e+01
4.735193e+01	-1.181442e+01
4.762543e+01	-1.186067e+01
4.790051e+01	-1.190768e+01
4.817719e+01	-1.195483e+01
4.845545e+01	-1.200152e+01
4.873533e+01	-1.204811e+01
4.901682e+01	-1.209562e+01
4.929994e+01	-1.214210e+01
4.958470e+01	-1.218932e+01
4.987110e+01	-1.223643e+01
5.015915e+01	-1.228364e+01
5.044887e+01	-1.233091e+01
5.074026e+01	-1.237757e+01
5.103333e+01	-1.242434e+01
5.132810e+01	-1.247090e+01
5.162457e+01	-1.251879e+01
5.192275e+01	-1.256649e+01
5.222265e+01	-1.261401e+01
5.252429e+01	-1.266132e+01
5.282767e+01	-1.270846e+01
5.313280e+01	-1.275592e+01
5.343969e+01	-1.280246e+01
5.374836e+01	-1.285048e+01
5.405880e+01	-1.289804e+01
5.437105e+01	-1.294561e+01
5.468509e+01	-1.299349e+01
5.500095e+01	-1.304084e+01
5.531863e+01	-1.308782e+01
5.563815e+01	-1.313466e+01
5.595951e+01	-1.318333e+01
5.628273e+01	-1.323080e+01
5.660782e+01	-1.327764e+01
5.693479e+01	-1.332564e+01
5.726364e+01	-1.337357e+01
5.759439e+01	-1.342129e+01
5.792705e+01	-1.346945e+01
5.826164e+01	-1.351732e+01
5.859815e+01	-1.356513e+01
5.893662e+01	-1.361195e+01
5.927703e+01	-1.366023e+01
5.961941e+01	-1.370814e+01
5.996377e+01	-1.375582e+01
6.031012e+01	-1.380370e+01
6.065847e+01	-1.385296e+01
6.100883e+01	-1.390013e+01
6.136121e+01	-1.394906e+01
6.171563e+01	-1.399576e+01
6.207210e+01	-1.404383e+01
6.243063e+01	-1.409226e+01
6.279122e+01	-1.414022e+01
6.315390e+01	-1.418867e+01
6.351868e+01	-1.423636e+01
6.388556e+01	-1.428466e+01
6.425456e+01	-1.433268e+01
6.462569e+01	-1.438100e+01
6.499897e+01	-1.443042e+01
6.537440e+01	-1.447796e+01
6.575200e+01	-1.452552e+01
6.613178e+01	-1.457462e+01
6.651375e+01	-1.462278e+01
6.689793e+01	-1.467072e+01
6.728433e+01	-1.471960e+01
6.767297e+01	-1.476740e+01
6.806384e+01	-1.481517e+01
6.845698e+01	-1.486429e+01
6.885238e+01	-1.491249e+01
6.925007e+01	-1.496114e+01
6.965005e+01	-1.500871e+01
7.005235e+01	-1.505763e+01
7.045697e+01	-1.510660e+01
7.086393e+01	-1.515519e+01
7.127323e+01	-1.520250e+01
7.168490e+01	-1.525166e+01
7.209895e+01	-1.530073e+01
7.251539e+01	-1.534938e+01
7.293424e+01	-1.539774e+01
7.335551e+01	-1.544640e+01
7.377920e+01	-1.549402e+01
7.420535e+01	-1.554415e+01
7.463396e+01	-1.559132e+01
7.506504e+01	-1.564118e+01
7.549861e+01	-1.568947e+01
7.593469e+01	-1.573718e+01
7.637328e+01	-1.578647e+01
7.681441e+01	-1.583659e+01
7.725809e+01	-1.588432e+01
7.770433e+01	-1.593376e+01
7.815315e+01	-1.598227e+01
7.860456e+01	-1.603041e+01
7.905857e+01	-1.607881e+01
7.951521e+01	-1.612844e+01
7.997449e+01	-1.617651e+01
8.043642e+01	-1.622574e+01
8.090102e+01	-1.627429e+01
8.136830e+01	-1.632384e+01
8.183828e+01	-1.637178e+01
8.231097e+01	-1.642096e+01
8.278640e+01	-1.646999e+01
8.326457e+01	-1.651945e+01
8.374550e+01	-1.656799e+01
8.422921e+01	-1.661788e+01
8.471572e+01	-1.666634e+01
8.520503e+01	-1.671419e+01
8.569717e+01	-1.676390e+01
8.619215e+01	-1.681348e+01
8.669000e+01	-1.686109e+01
8.719071e+01	-1.691130e+01
8.769432e+01	-1.695934e+01
8.820084e+01	-1.700878e+01
8.871029e+01	-1.705813e+01
8.922267e+01	-1.710603e+01
8.973802e+01	-1.715542e+01
9.025634e+01	-1.720464e+01
9.077766e+01	-1.725535e+01
9.130199e+01	-1.730339e+01
9.182935e+01	-1.735247e+01
9.235975e+01	-1.740128e+01
9.289321e+01	-1.745163e+01
9.342976e+01	-1.749928e+01
9.396941e+01	-1.754941e+01
9.451217e+01	-1.759802e+01
9.505807e+01	-1.764776e+01
9.560712e+01	-1.769690e+01
9.615934e+01	-1.774611e+01
9.671476e+01	-1.779465e+01
9.727338e+01	-1.784319e+01
9.783522e+01	-1.789194e+01
9.840032e+01	-1.794185e+01
9.896867e+01	-1.799176e+01
9.954031e+01	-1.804202e+01
1.001153e+02	-1.808911e+01
1.006935e+02	-1.813978e+01
1.012751e+02	-1.818797e+01
1.018601e+02	-1.823773e+01
1.024484e+02	-1.828668e+01
1.030402e+02	-1.833577e+01
1.036353e+02	-1.838575e+01
1.042339e+02	-1.843597e+01
1.048360e+02	-1.848503e+01
1.054415e+02	-1.853329e+01
1.060505e+02	-1.858396e+01
1.066631e+02	-1.863164e+01
1.072791e+02	-1.868231e+01
1.078988e+02	-1.873106e+01
1.085220e+02	-1.878057e+01
1.091488e+02	-1.882892e+01
1.097793e+02	-1.887843e+01
1.104133e+02	-1.892875e+01
1.110511e+02	-1.897821e+01
1.116925e+02	-1.902741e+01
1.123376e+02	-1.907734e+01
1.129865e+02	-1.912692e+01
1.136391e+02	-1.917587e+01
1.142955e+02	-1.922632e+01
1.149556e+02	-1.927567e+01
1.156196e+02	-1.932584e+01
1.162874e+02	-1.937287e+01
1.169591e+02	-1.942264e+01
1.176347e+02	-1.947234e+01
1.183141e+02	-1.952242e+01
1.189975e+02	-1.957169e+01
1.196848e+02	-1.962122e+01
1.203761e+02	-1.967014e+01
1.210714e+02	-1.972129e+01
1.217707e+02	-1.976810e+01
1.224740e+02	-1.981840e+01
1.231814e+02	-1.986772e+01
1.238929e+02	-1.991798e+01
1.246085e+02	-1.996678e+01
1.253283e+02	-2.001593e+01
1.260522e+02	-2.006665e+01
1.267802e+02	-2.011619e+01
1.275125e+02	-2.016574e+01
1.282490e+02	-2.021508e+01
1.289898e+02	-2.026468e+01
1.297348e+02	-2.031542e+01
1.304842e+02	-2.036361e+01
1.312378e+02	-2.041451e+01
1.319959e+02	-2.046295e+01
1.327583e+02	-2.051264e+01
1.335251e+02	-2.056264e+01
1.342963e+02	-2.061351e+01
1.350720e+02	-2.066253e+01
1.358522e+02	-2.071150e+01
1.366368e+02	-2.076061e+01
1.374260e+02	-2.081193e+01
1.382198e+02	-2.086051e+01
1.390182e+02	-2.090977e+01
1.398211e+02	-2.096005e+01
1.406287e+02	-2.100787e+01
1.414410e+02	-2.106026e+01
1.422579e+02	-2.110849e+01
1.430796e+02	-2.115875e+01
1.439060e+02	-2.120748e+01
1.447372e+02	-2.125789e+01
1.455732e+02	-2.130645e+01
1.464141e+02	-2.135633e+01
1.472597e+02	-2.140661e+01
1.481103e+02	-2.145543e+01
1.489658e+02	-2.150542e+01
1.498262e+02	-2.155587e+01
1.506916e+02	-2.160467e+01
1.515620e+02	-2.165569e+01
1.524374e+02	-2.170484e+01
1.533179e+02	-2.175512e+01
1.542034e+02	-2.180504e+01
1.550941e+02	-2.185219e+01
1.559899e+02	-2.190486e+01
1.568909e+02	-2.195239e+01
1.577971e+02	-2.200341e+01
1.587085e+02	-2.205207e+01
1.596252e+02	-2.210182e+01
1.605472e+02	-2.215159e+01
1.614745e+02	-2.220357e+01
1.624072e+02	-2.225065e+01
1.633453e+02	-2.230103e+01
1.642887e+02	-2.235114e+01
1.652377e+02	-2.240167e+01
1.661921e+02	-2.245157e+01
1.671520e+02	-2.249846e+01
1.681175e+02	-2.254949e+01
1.690885e+02	-2.260122e+01
1.700651e+02	-2.264891e+01
1.710474e+02	-2.269965e+01
1.720354e+02	-2.274994e+01
1.730291e+02	-2.279930e+01
1.740285e+02	-2.284690e+01
1.750337e+02	-2.289824e+01
1.760446e+02	-2.294629e+01
1.770615e+02	-2.299965e+01
1.780842e+02	-2.304603e+01
1.791128e+02	-2.309871e+01
1.801473e+02	-2.314611e+01
1.811878e+02	-2.319814e+01
1.822344e+02	-2.324499e+01
1.832870e+02	-2.329590e+01
1.843456e+02	-2.334355e+01
1.854104e+02	-2.339795e+01
1.864813e+02	-2.344567e+01
1.875584e+02	-2.349573e+01
1.886418e+02	-2.354712e+01
1.897313e+02	-2.359808e+01
1.908272e+02	-2.364586e+01
1.919294e+02	-2.369556e+01
1.930380e+02	-2.374608e+01
1.941530e+02	-2.379574e+01
1.952744e+02	-2.384634e+01
1.964023e+02	-2.389510e+01
1.975367e+02	-2.394456e+01
1.986777e+02	-2.399302e+01
1.998252e+02	-2.404603e+01
2.009794e+02	-2.409548e+01
2.021403e+02	-2.414461e+01
2.033078e+02	-2.419509e+01
2.044821e+02	-2.424335e+01
2.056632e+02	-2.429441e+01
2.068511e+02	-2.434476e+01
2.080459e+02	-2.439526e+01
2.092475e+02	-2.444368e+01
2.104561e+02	-2.449143e+01
2.116717e+02	-2.454279e+01
2.128943e+02	-2.459403e+01
2.141240e+02	-2.464275e+01
2.153608e+02	-2.469150e+01
2.166047e+02	-2.474632e+01
2.178558e+02	-2.479485e+01
2.191141e+02	-2.484246e+01
2.203797e+02	-2.489088e+01
2.216526e+02	-2.494242e+01
2.229329e+02	-2.499324e+01
2.242205e+02	-2.504329e+01
2.255156e+02	-2.509195e+01
2.268182e+02	-2.514157e+01
2.281283e+02	-2.519438e+01
2.294459e+02	-2.524158e+01
2.307712e+02	-2.529029e+01
2.321041e+02	-2.534370e+01
2.334447e+02	-2.539157e+01
2.347931e+02	-2.544167e+01
2.361493e+02	-2.549332e+01
2.375133e+02	-2.554074e+01
2.388851e+02	-2.559144e+01
2.402649e+02	-2.563945e+01
2.416527e+02	-2.569028e+01
2.430484e+02	-2.574205e+01
2.444523e+02	-2.578888e+01
2.458642e+02	-2.584118e+01
2.472843e+02	-2.589366e+01
2.487126e+02	-2.593961e+01
2.501492e+02	-2.599163e+01
2.515940e+02	-2.604159e+01
2.530472e+02	-2.608946e+01
2.545088e+02	-2.614101e+01
2.559789e+02	-2.619003e+01
2.574574e+02	-2.624012e+01
2.589444e+02	-2.629038e+01
2.604401e+02	-2.634248e+01
2.619444e+02	-2.638945e+01
2.634574e+02	-2.644326e+01
2.649791e+02	-2.649095e+01
2.665096e+02	-2.653785e+01
2.680489e+02	-2.658889e+01
2.695972e+02	-2.663927e+01
2.711544e+02	-2.669225e+01
2.727205e+02	-2.673932e+01
2.742958e+02	-2.679077e+01
2.758801e+02	-2.683917e+01
2.774736e+02	-2.689304e+01
2.790762e+02	-2.694453e+01
2.806882e+02	-2.699058e+01
2.823094e+02	-2.703950e+01
2.839400e+02	-2.708889e+01
2.855800e+02	-2.714058e+01
2.872295e+02	-2.718997e+01
2.888886e+02	-2.724080e+01
2.905572e+02	-2.728798e+01
2.922354e+02	-2.734069e+01
2.939234e+02	-2.738891e+01
2.956211e+02	-2.744035e+01
2.973286e+02	-2.748945e+01
2.990459e+02	-2.753424e+01
3.007732e+02	-2.759489e+01
3.025104e+02	-2.764264e+01
3.042577e+02	-2.769230e+01
3.060151e+02	-2.774246e+01
3.077826e+02	-2.779057e+01
3.095604e+02	-2.784478e+01
3.113484e+02	-2.789085e+01
3.131467e+02	-2.793947e+01
3.149554e+02	-2.799411e+01
3.167746e+02	-2.804175e+01
3.186043e+02	-2.809133e+01
3.204445e+02	-2.814193e+01
3.222954e+02	-2.818992e+01
3.241570e+02	-2.824048e+01
3.260293e+02	-2.828820e+01
3.279124e+02	-2.833955e+01
3.298064e+02	-2.839002e+01
3.317114e+02	-2.844215e+01
3.336273e+02	-2.848776e+01
3.355544e+02	-2.853832e+01
3.374925e+02	-2.859446e+01
3.394418e+02	-2.864136e+01
3.414024e+02	-2.869081e+01
3.433744e+02	-2.873612e+01
3.453577e+02	-2.879215e+01
3.473525e+02	-2.884124e+01
3.493588e+02	-2.888766e+01
3.513766e+02	-2.894267e+01
3.534062e+02	-2.900101e+01
3.554474e+02	-2.904225e+01
3.575005e+02	-2.909066e+01
3.595654e+02	-2.914195e+01
3.616422e+02	-2.919340e+01
3.637311e+02	-2.923882e+01
3.658320e+02	-2.929025e+01
3.679450e+02	-2.934384e+01
3.700702e+02	-2.939134e+01
3.722077e+02	-2.944766e+01
3.743576e+02	-2.949210e+01
3.765199e+02	-2.954289e+01
3.786946e+02	-2.959165e+01
3.808820e+02	-2.963985e+01
3.830819e+02	-2.969127e+01
3.852946e+02	-2.974539e+01
3.875200e+02	-2.979578e+01
3.897583e+02	-2.984288e+01
3.920096e+02	-2.989319e+01
3.942738e+02	-2.993776e+01
3.965511e+02	-2.999004e+01
3.988416e+02	-3.004786e+01
4.011452e+02	-3.009581e+01
4.034622e+02	-3.014219e+01
4.057926e+02	-3.019659e+01
4.081365e+02	-3.024449e+01
4.104938e+02	-3.029920e+01
4.128648e+02	-3.035057e+01
4.152495e+02	-3.039657e+01
4.176480e+02	-3.044750e+01
4.200603e+02	-3.050256e+01
4.224866e+02	-3.054751e+01
4.249268e+02	-3.059590e+01
4.273812e+02	-3.064192e+01
4.298497e+02	-3.069407e+01
4.323325e+02	-3.074020e+01
4.348297e+02	-3.079632e+01
4.373412e+02	-3.084513e+01
4.398673e+02	-3.090021e+01
4.424079e+02	-3.094665e+01
4.449633e+02	-3.099926e+01
4.475334e+02	-3.104436e+01
4.501183e+02	-3.109214e+01
4.527182e+02	-3.114723e+01
4.553330e+02	-3.119199e+01
4.579630e+02	-3.124766e+01
4.606082e+02	-3.130047e+01
4.632687e+02	-3.134805e+01
4.659445e+02	-3.139967e+01
4.686358e+02	-3.144299e+01
4.713426e+02	-3.149446e+01
4.740650e+02	-3.155197e+01
4.768032e+02	-3.160144e+01
4.795572e+02	-3.164975e+01
4.823271e+02	-3.170212e+01
4.851130e+02	-3.174850e+01
4.879150e+02	-3.179984e+01
4.907332e+02	-3.185245e+01
4.935676e+02	-3.190012e+01
4.964185e+02	-3.194775e+01
4.992858e+02	-3.200008e+01
5.021696e+02	-3.205129e+01
5.050701e+02	-3.210467e+01
5.079874e+02	-3.214304e+01
5.109215e+02	-3.220332e+01
5.138726e+02	-3.224833e+01
5.168407e+02	-3.230187e+01
5.198259e+02	-3.235020e+01
5.228284e+02	-3.240495e+01
5.258482e+02	-3.245945e+01
5.288855e+02	-3.250890e+01
5.319403e+02	-3.255478e+01
5.350128e+02	-3.259742e+01
5.381030e+02	-3.265344e+01
5.412111e+02	-3.270754e+01
5.443371e+02	-3.275896e+01
5.474812e+02	-3.280298e+01
5.506434e+02	-3.285087e+01
5.538239e+02	-3.290160e+01
5.570228e+02	-3.295626e+01
5.602401e+02	-3.301018e+01
5.634760e+02	-3.305151e+01
5.667306e+02	-3.310136e+01
5.700040e+02	-3.315742e+01
5.732964e+02	-3.320423e+01
5.766077e+02	-3.325231e+01
5.799382e+02	-3.330817e+01
5.832879e+02	-3.335787e+01
5.866569e+02	-3.340512e+01
5.900454e+02	-3.346817e+01
5.934535e+02	-3.350352e+01
5.968813e+02	-3.355932e+01
6.003288e+02	-3.360931e+01
6.037963e+02	-3.366451e+01
6.072838e+02	-3.370885e+01
6.107914e+02	-3.375827e+01
6.143194e+02	-3.381360e+01
6.178676e+02	-3.386051e+01
6.214364e+02	-3.390484e+01
6.250258e+02	-3.395485e+01
6.286359e+02	-3.400973e+01
6.322669e+02	-3.407135e+01
6.359189e+02	-3.411403e+01
6.395919e+02	-3.416633e+01
6.432862e+02	-3.421755e+01
6.470017e+02	-3.426293e+01
6.507388e+02	-3.431681e+01
6.544974e+02	-3.436935e+01
6.582778e+02	-3.441059e+01
6.620800e+02	-3.445694e+01
6.659041e+02	-3.450679e+01
6.697504e+02	-3.457477e+01
6.736188e+02	-3.461315e+01
6.775096e+02	-3.466567e+01
6.814229e+02	-3.471147e+01
6.853587e+02	-3.476224e+01
6.893173e+02	-3.481424e+01
6.932988e+02	-3.486132e+01
6.973033e+02	-3.492234e+01
7.013309e+02	-3.496272e+01
