Frequency(Hz)	Magnitude(dB)
1.000000e+01	-1.706225e-05
1.005776e+01	-1.725992e-05
1.011585e+01	-1.745988e-05
1.017428e+01	-1.766216e-05
1.023305e+01	-1.786678e-05
1.029215e+01	-1.807377e-05
1.035160e+01	-1.828316e-05
1.041139e+01	-1.849498e-05
1.047153e+01	-1.870925e-05
1.053201e+01	-1.892600e-05
1.059284e+01	-1.914526e-05
1.065403e+01	-1.936706e-05
1.071556e+01	-1.959144e-05
1.077746e+01	-1.981841e-05
1.083971e+01	-2.004801e-05
1.090232e+01	-2.028027e-05
1.096529e+01	-2.051522e-05
1.102862e+01	-2.075290e-05
1.109232e+01	-2.099332e-05
1.115639e+01	-2.123654e-05
1.122083e+01	-2.148257e-05
1.128564e+01	-2.173145e-05
1.135083e+01	-2.198321e-05
1.141639e+01	-2.223789e-05
1.148233e+01	-2.249553e-05
1.154865e+01	-2.275614e-05
1.161536e+01	-2.301978e-05
1.168245e+01	-2.328647e-05
1.174992e+01	-2.355625e-05
1.181779e+01	-2.382915e-05
1.188605e+01	-2.410522e-05
1.195470e+01	-2.438448e-05
1.202375e+01	-2.466698e-05
1.209320e+01	-2.495276e-05
1.216305e+01	-2.524184e-05
1.223330e+01	-2.553427e-05
1.230396e+01	-2.583009e-05
1.237503e+01	-2.612934e-05
1.244651e+01	-2.643206e-05
1.251840e+01	-2.673828e-05
1.259070e+01	-2.704805e-05
1.266343e+01	-2.736141e-05
1.273657e+01	-2.767839e-05
1.281014e+01	-2.799906e-05
1.288413e+01	-2.832343e-05
1.295855e+01	-2.865157e-05
1.303339e+01	-2.898350e-05
1.310867e+01	-2.931928e-05
1.318439e+01	-2.965895e-05
1.326054e+01	-3.000256e-05
1.333713e+01	-3.035015e-05
1.341417e+01	-3.070176e-05
1.349165e+01	-3.105745e-05
1.356958e+01	-3.141725e-05
1.364795e+01	-3.178123e-05
1.372678e+01	-3.214942e-05
1.380607e+01	-3.252188e-05
1.388581e+01	-3.289866e-05
1.396602e+01	-3.327979e-05
1.404668e+01	-3.366535e-05
1.412782e+01	-3.405537e-05
1.420942e+01	-3.444991e-05
1.429149e+01	-3.484902e-05
1.437404e+01	-3.525275e-05
1.445706e+01	-3.566116e-05
1.454057e+01	-3.607431e-05
1.462455e+01	-3.649224e-05
1.470902e+01	-3.691501e-05
1.479398e+01	-3.734268e-05
1.487943e+01	-3.777530e-05
1.496537e+01	-3.821294e-05
1.505181e+01	-3.865564e-05
1.513875e+01	-3.910348e-05
1.522619e+01	-3.955650e-05
1.531414e+01	-4.001477e-05
1.540259e+01	-4.047835e-05
1.549156e+01	-4.094730e-05
1.558103e+01	-4.142168e-05
1.567103e+01	-4.190156e-05
1.576155e+01	-4.238700e-05
1.585258e+01	-4.287807e-05
1.594415e+01	-4.337482e-05
1.603624e+01	-4.387732e-05
1.612886e+01	-4.438565e-05
1.622202e+01	-4.489987e-05
1.631572e+01	-4.542004e-05
1.640996e+01	-4.594625e-05
1.650474e+01	-4.647854e-05
1.660008e+01	-4.701701e-05
1.669596e+01	-4.756171e-05
1.679239e+01	-4.811272e-05
1.688938e+01	-4.867012e-05
1.698694e+01	-4.923397e-05
1.708505e+01	-4.980436e-05
1.718373e+01	-5.038135e-05
1.728299e+01	-5.096503e-05
1.738281e+01	-5.155547e-05
1.748322e+01	-5.215275e-05
1.758420e+01	-5.275695e-05
1.768576e+01	-5.336815e-05
1.778792e+01	-5.398643e-05
1.789066e+01	-5.461188e-05
1.799399e+01	-5.524457e-05
1.809793e+01	-5.588459e-05
1.820246e+01	-5.653202e-05
1.830760e+01	-5.718696e-05
1.841334e+01	-5.784948e-05
1.851969e+01	-5.851968e-05
1.862666e+01	-5.919764e-05
1.873425e+01	-5.988346e-05
1.884246e+01	-6.057722e-05
1.895129e+01	-6.127902e-05
1.906075e+01	-6.198895e-05
1.917085e+01	-6.270710e-05
1.928158e+01	-6.343358e-05
1.939295e+01	-6.416847e-05
1.950496e+01	-6.491187e-05
1.961762e+01	-6.566389e-05
1.973093e+01	-6.642461e-05
1.984490e+01	-6.719416e-05
1.995952e+01	-6.797261e-05
2.007480e+01	-6.876009e-05
2.019076e+01	-6.955669e-05
2.030738e+01	-7.036251e-05
2.042467e+01	-7.117768e-05
2.054264e+01	-7.200228e-05
2.066130e+01	-7.283644e-05
2.078064e+01	-7.368027e-05
2.090066e+01	-7.453387e-05
2.102139e+01	-7.539735e-05
2.114280e+01	-7.627085e-05
2.126492e+01	-7.715446e-05
2.138775e+01	-7.804831e-05
2.151128e+01	-7.895251e-05
2.163553e+01	-7.986719e-05
2.176050e+01	-8.079246e-05
2.188619e+01	-8.172846e-05
2.201260e+01	-8.267529e-05
2.213974e+01	-8.363310e-05
2.226762e+01	-8.460201e-05
2.239624e+01	-8.558213e-05
2.252560e+01	-8.657362e-05
2.265571e+01	-8.757659e-05
2.278656e+01	-8.859118e-05
2.291818e+01	-8.961752e-05
2.305055e+01	-9.065575e-05
2.318369e+01	-9.170601e-05
2.331760e+01	-9.276844e-05
2.345228e+01	-9.384318e-05
2.358774e+01	-9.493036e-05
2.372398e+01	-9.603015e-05
2.386101e+01	-9.714267e-05
2.399883e+01	-9.826808e-05
2.413745e+01	-9.940653e-05
2.427686e+01	-1.005582e-04
2.441709e+01	-1.017232e-04
2.455812e+01	-1.029016e-04
2.469997e+01	-1.040938e-04
2.484263e+01	-1.052997e-04
2.498612e+01	-1.065196e-04
2.513044e+01	-1.077537e-04
2.527559e+01	-1.090020e-04
2.542158e+01	-1.102648e-04
2.556842e+01	-1.115422e-04
2.571610e+01	-1.128345e-04
2.586463e+01	-1.141417e-04
2.601403e+01	-1.154640e-04
2.616428e+01	-1.168017e-04
2.631541e+01	-1.181548e-04
2.646740e+01	-1.195237e-04
2.662028e+01	-1.209084e-04
2.677404e+01	-1.223091e-04
2.692868e+01	-1.237261e-04
2.708422e+01	-1.251595e-04
2.724066e+01	-1.266094e-04
2.739800e+01	-1.280762e-04
2.755625e+01	-1.295600e-04
2.771541e+01	-1.310610e-04
2.787550e+01	-1.325793e-04
2.803650e+01	-1.341153e-04
2.819844e+01	-1.356690e-04
2.836131e+01	-1.372407e-04
2.852513e+01	-1.388307e-04
2.868989e+01	-1.404391e-04
2.885560e+01	-1.420661e-04
2.902227e+01	-1.437119e-04
2.918990e+01	-1.453768e-04
2.935850e+01	-1.470610e-04
2.952807e+01	-1.487647e-04
2.969863e+01	-1.504882e-04
2.987016e+01	-1.522316e-04
3.004269e+01	-1.539952e-04
3.021622e+01	-1.557793e-04
3.039075e+01	-1.575840e-04
3.056628e+01	-1.594096e-04
3.074283e+01	-1.612564e-04
3.092040e+01	-1.631245e-04
3.109900e+01	-1.650143e-04
3.127862e+01	-1.669260e-04
3.145929e+01	-1.688599e-04
3.164099e+01	-1.708161e-04
3.182375e+01	-1.727951e-04
3.200756e+01	-1.747969e-04
3.219244e+01	-1.768219e-04
3.237838e+01	-1.788704e-04
3.256540e+01	-1.809426e-04
3.275349e+01	-1.830389e-04
3.294268e+01	-1.851594e-04
3.313295e+01	-1.873044e-04
3.332433e+01	-1.894744e-04
3.351681e+01	-1.916694e-04
3.371040e+01	-1.938899e-04
3.390511e+01	-1.961361e-04
3.410094e+01	-1.984084e-04
3.429791e+01	-2.007070e-04
3.449601e+01	-2.030321e-04
3.469526e+01	-2.053843e-04
3.489566e+01	-2.077636e-04
3.509721e+01	-2.101706e-04
3.529993e+01	-2.126054e-04
3.550382e+01	-2.150684e-04
3.570889e+01	-2.175600e-04
3.591515e+01	-2.200804e-04
3.612259e+01	-2.226301e-04
3.633123e+01	-2.252092e-04
3.654108e+01	-2.278183e-04
3.675214e+01	-2.304575e-04
3.696442e+01	-2.331274e-04
3.717792e+01	-2.358282e-04
3.739266e+01	-2.385602e-04
3.760864e+01	-2.413239e-04
3.782587e+01	-2.441197e-04
3.804435e+01	-2.469478e-04
3.826409e+01	-2.498086e-04
3.848510e+01	-2.527027e-04
3.870739e+01	-2.556302e-04
3.893096e+01	-2.585917e-04
3.915583e+01	-2.615874e-04
3.938199e+01	-2.646179e-04
3.960946e+01	-2.676835e-04
3.983824e+01	-2.707846e-04
4.006834e+01	-2.739216e-04
4.029978e+01	-2.770949e-04
4.053255e+01	-2.803051e-04
4.076666e+01	-2.835524e-04
4.100213e+01	-2.868373e-04
4.123896e+01	-2.901603e-04
4.147715e+01	-2.935217e-04
4.171672e+01	-2.969222e-04
4.195767e+01	-3.003620e-04
4.220002e+01	-3.038416e-04
4.244377e+01	-3.073616e-04
4.268892e+01	-3.109223e-04
4.293549e+01	-3.145243e-04
4.318348e+01	-3.181680e-04
4.343291e+01	-3.218540e-04
4.368377e+01	-3.255826e-04
4.393609e+01	-3.293544e-04
4.418986e+01	-3.331699e-04
4.444510e+01	-3.370297e-04
4.470182e+01	-3.409341e-04
4.496001e+01	-3.448837e-04
4.521970e+01	-3.488792e-04
4.548089e+01	-3.529209e-04
4.574358e+01	-3.570094e-04
4.600779e+01	-3.611453e-04
4.627353e+01	-3.653290e-04
4.654081e+01	-3.695613e-04
4.680963e+01	-3.738426e-04
4.708000e+01	-3.781735e-04
4.735193e+01	-3.825545e-04
4.762543e+01	-3.869863e-04
4.790051e+01	-3.914695e-04
4.817719e+01	-3.960045e-04
4.845545e+01	-4.005922e-04
4.873533e+01	-4.052329e-04
4.901682e+01	-4.099274e-04
4.929994e+01	-4.146763e-04
4.958470e+01	-4.194802e-04
4.987110e+01	-4.243398e-04
5.015915e+01	-4.292556e-04
5.044887e+01	-4.342284e-04
5.074026e+01	-4.392588e-04
5.103333e+01	-4.443475e-04
5.132810e+01	-4.494951e-04
5.162457e+01	-4.547024e-04
5.192275e+01	-4.599700e-04
5.222265e+01	-4.652985e-04
5.252429e+01	-4.706889e-04
5.282767e+01	-4.761416e-04
5.313280e+01	-4.816576e-04
5.343969e+01	-4.872374e-04
5.374836e+01	-4.928818e-04
5.405880e+01	-4.985917e-04
5.437105e+01	-5.043677e-04
5.468509e+01	-5.102106e-04
5.500095e+01	-5.161211e-04
5.531863e+01	-5.221002e-04
5.563815e+01	-5.281485e-04
5.595951e+01	-5.342669e-04
5.628273e+01	-5.404561e-04
5.660782e+01	-5.467171e-04
5.693479e+01	-5.530505e-04
5.726364e+01	-5.594573e-04
5.759439e+01	-5.659384e-04
5.792705e+01	-5.724945e-04
5.826164e+01	-5.791266e-04
5.859815e+01	-5.858355e-04
5.893662e+01	-5.926221e-04
5.927703e+01	-5.994873e-04
5.961941e+01	-6.064320e-04
5.996377e+01	-6.134572e-04
6.031012e+01	-6.205638e-04
6.065847e+01	-6.277527e-04
6.100883e+01	-6.350248e-04
6.136121e+01	-6.423812e-04
6.171563e+01	-6.498228e-04
6.207210e+01	-6.573506e-04
6.243063e+01	-6.649656e-04
6.279122e+01	-6.726688e-04
6.315390e+01	-6.804613e-04
6.351868e+01	-6.883440e-04
6.388556e+01	-6.963180e-04
6.425456e+01	-7.043844e-04
6.462569e+01	-7.125442e-04
6.499897e+01	-7.207985e-04
6.537440e+01	-7.291485e-04
6.575200e+01	-7.375952e-04
6.613178e+01	-7.461397e-04
6.651375e+01	-7.547831e-04
6.689793e+01	-7.635267e-04
6.728433e+01	-7.723716e-04
6.767297e+01	-7.813190e-04
6.806384e+01	-7.903699e-04
6.845698e+01	-7.995257e-04
6.885238e+01	-8.087876e-04
6.925007e+01	-8.181567e-04
6.965005e+01	-8.276344e-04
7.005235e+01	-8.372219e-04
7.045697e+01	-8.469204e-04
7.086393e+01	-8.567312e-04
7.127323e+01	-8.666557e-04
7.168490e+01	-8.766951e-04
7.209895e+01	-8.868508e-04
7.251539e+01	-8.971242e-04
7.293424e+01	-9.075165e-04
7.335551e+01	-9.180292e-04
7.377920e+01	-9.286637e-04
7.420535e+01	-9.394214e-04
7.463396e+01	-9.503036e-04
7.506504e+01	-9.613119e-04
7.549861e+01	-9.724477e-04
7.593469e+01	-9.837125e-04
7.637328e+01	-9.951078e-04
7.681441e+01	-1.006635e-03
7.725809e+01	-1.018296e-03
7.770433e+01	-1.030092e-03
7.815315e+01	-1.042024e-03
7.860456e+01	-1.054095e-03
7.905857e+01	-1.066305e-03
7.951521e+01	-1.078657e-03
7.997449e+01	-1.091152e-03
8.043642e+01	-1.103792e-03
8.090102e+01	-1.116578e-03
8.136830e+01	-1.129512e-03
8.183828e+01	-1.142596e-03
8.231097e+01	-1.155832e-03
8.278640e+01	-1.169220e-03
8.326457e+01	-1.182764e-03
8.374550e+01	-1.196465e-03
8.422921e+01	-1.210325e-03
8.471572e+01	-1.224344e-03
8.520503e+01	-1.238527e-03
8.569717e+01	-1.252873e-03
8.619215e+01	-1.267386e-03
8.669000e+01	-1.282067e-03
8.719071e+01	-1.296918e-03
8.769432e+01	-1.311941e-03
8.820084e+01	-1.327138e-03
8.871029e+01	-1.342511e-03
8.922267e+01	-1.358061e-03
8.973802e+01	-1.373792e-03
9.025634e+01	-1.389706e-03
9.077766e+01	-1.405803e-03
9.130199e+01	-1.422087e-03
9.182935e+01	-1.438560e-03
9.235975e+01	-1.455223e-03
9.289321e+01	-1.472079e-03
9.342976e+01	-1.489131e-03
9.396941e+01	-1.506380e-03
9.451217e+01	-1.523829e-03
9.505807e+01	-1.541479e-03
9.560712e+01	-1.559335e-03
9.615934e+01	-1.577397e-03
9.671476e+01	-1.595668e-03
9.727338e+01	-1.614151e-03
9.783522e+01	-1.632847e-03
9.840032e+01	-1.651761e-03
9.896867e+01	-1.670893e-03
9.954031e+01	-1.690247e-03
1.001153e+02	-1.709825e-03
1.006935e+02	-1.729630e-03
1.012751e+02	-1.749664e-03
1.018601e+02	-1.769931e-03
1.024484e+02	-1.790431e-03
1.030402e+02	-1.811170e-03
1.036353e+02	-1.832148e-03
1.042339e+02	-1.853370e-03
1.048360e+02	-1.874837e-03
1.054415e+02	-1.896553e-03
1.060505e+02	-1.918520e-03
1.066631e+02	-1.940741e-03
1.072791e+02	-1.963220e-03
1.078988e+02	-1.985959e-03
1.085220e+02	-2.008962e-03
1.091488e+02	-2.032231e-03
1.097793e+02	-2.055769e-03
1.104133e+02	-2.079580e-03
1.110511e+02	-2.103667e-03
1.116925e+02	-2.128032e-03
1.123376e+02	-2.152680e-03
1.129865e+02	-2.177613e-03
1.136391e+02	-2.202835e-03
1.142955e+02	-2.228349e-03
1.149556e+02	-2.254158e-03
1.156196e+02	-2.280266e-03
1.162874e+02	-2.306677e-03
1.169591e+02	-2.333393e-03
1.176347e+02	-2.360419e-03
1.183141e+02	-2.387757e-03
1.189975e+02	-2.415412e-03
1.196848e+02	-2.443388e-03
1.203761e+02	-2.471687e-03
1.210714e+02	-2.500314e-03
1.217707e+02	-2.529272e-03
1.224740e+02	-2.558566e-03
1.231814e+02	-2.588199e-03
1.238929e+02	-2.618175e-03
1.246085e+02	-2.648498e-03
1.253283e+02	-2.679172e-03
1.260522e+02	-2.710201e-03
1.267802e+02	-2.741589e-03
1.275125e+02	-2.773341e-03
1.282490e+02	-2.805461e-03
1.289898e+02	-2.837952e-03
1.297348e+02	-2.870820e-03
1.304842e+02	-2.904068e-03
1.312378e+02	-2.937701e-03
1.319959e+02	-2.971723e-03
1.327583e+02	-3.006139e-03
1.335251e+02	-3.040954e-03
1.342963e+02	-3.076172e-03
1.350720e+02	-3.111797e-03
1.358522e+02	-3.147835e-03
1.366368e+02	-3.184290e-03
1.374260e+02	-3.221168e-03
1.382198e+02	-3.258472e-03
1.390182e+02	-3.296208e-03
1.398211e+02	-3.334380e-03
1.406287e+02	-3.372995e-03
1.414410e+02	-3.412057e-03
1.422579e+02	-3.451570e-03
1.430796e+02	-3.491542e-03
1.439060e+02	-3.531976e-03
1.447372e+02	-3.572878e-03
1.455732e+02	-3.614253e-03
1.464141e+02	-3.656108e-03
1.472597e+02	-3.698446e-03
1.481103e+02	-3.741275e-03
1.489658e+02	-3.784600e-03
1.498262e+02	-3.828426e-03
1.506916e+02	-3.872760e-03
1.515620e+02	-3.917607e-03
1.524374e+02	-3.962972e-03
1.533179e+02	-4.008863e-03
1.542034e+02	-4.055285e-03
1.550941e+02	-4.102244e-03
1.559899e+02	-4.149747e-03
1.568909e+02	-4.197800e-03
1.577971e+02	-4.246409e-03
1.587085e+02	-4.295580e-03
1.596252e+02	-4.345320e-03
1.605472e+02	-4.395637e-03
1.614745e+02	-4.446535e-03
1.624072e+02	-4.498023e-03
1.633453e+02	-4.550106e-03
1.642887e+02	-4.602792e-03
1.652377e+02	-4.656088e-03
1.661921e+02	-4.710001e-03
1.671520e+02	-4.764537e-03
1.681175e+02	-4.819705e-03
1.690885e+02	-4.875511e-03
1.700651e+02	-4.931963e-03
1.710474e+02	-4.989068e-03
1.720354e+02	-5.046834e-03
1.730291e+02	-5.105269e-03
1.740285e+02	-5.164379e-03
1.750337e+02	-5.224174e-03
1.760446e+02	-5.284660e-03
1.770615e+02	-5.345847e-03
1.780842e+02	-5.407741e-03
1.791128e+02	-5.470352e-03
1.801473e+02	-5.533687e-03
1.811878e+02	-5.597755e-03
1.822344e+02	-5.662564e-03
1.832870e+02	-5.728122e-03
1.843456e+02	-5.794440e-03
1.854104e+02	-5.861525e-03
1.864813e+02	-5.929385e-03
1.875584e+02	-5.998031e-03
1.886418e+02	-6.067471e-03
1.897313e+02	-6.137715e-03
1.908272e+02	-6.208771e-03
1.919294e+02	-6.280649e-03
1.930380e+02	-6.353358e-03
1.941530e+02	-6.426909e-03
1.952744e+02	-6.501311e-03
1.964023e+02	-6.576573e-03
1.975367e+02	-6.652706e-03
1.986777e+02	-6.729719e-03
1.998252e+02	-6.807623e-03
2.009794e+02	-6.886429e-03
2.021403e+02	-6.966146e-03
2.033078e+02	-7.046784e-03
2.044821e+02	-7.128356e-03
2.056632e+02	-7.210871e-03
2.068511e+02	-7.294341e-03
2.080459e+02	-7.378775e-03
2.092475e+02	-7.464187e-03
2.104561e+02	-7.550586e-03
2.116717e+02	-7.637984e-03
2.128943e+02	-7.726393e-03
2.141240e+02	-7.815825e-03
2.153608e+02	-7.906291e-03
2.166047e+02	-7.997802e-03
2.178558e+02	-8.090372e-03
2.191141e+02	-8.184013e-03
2.203797e+02	-8.278736e-03
2.216526e+02	-8.374555e-03
2.229329e+02	-8.471481e-03
2.242205e+02	-8.569528e-03
2.255156e+02	-8.668709e-03
2.268182e+02	-8.769037e-03
2.281283e+02	-8.870524e-03
2.294459e+02	-8.973185e-03
2.307712e+02	-9.077033e-03
2.321041e+02	-9.182081e-03
2.334447e+02	-9.288343e-03
2.347931e+02	-9.395835e-03
2.361493e+02	-9.504568e-03
2.375133e+02	-9.614559e-03
2.388851e+02	-9.725821e-03
2.402649e+02	-9.838369e-03
2.416527e+02	-9.952218e-03
2.430484e+02	-1.006738e-02
2.444523e+02	-1.018388e-02
2.458642e+02	-1.030172e-02
2.472843e+02	-1.042093e-02
2.487126e+02	-1.054151e-02
2.501492e+02	-1.066348e-02
2.515940e+02	-1.078687e-02
2.530472e+02	-1.091168e-02
2.545088e+02	-1.103793e-02
2.559789e+02	-1.116565e-02
2.574574e+02	-1.129483e-02
2.589444e+02	-1.142551e-02
2.604401e+02	-1.155771e-02
2.619444e+02	-1.169142e-02
2.634574e+02	-1.182669e-02
2.649791e+02	-1.196351e-02
2.665096e+02	-1.210192e-02
2.680489e+02	-1.224192e-02
2.695972e+02	-1.238355e-02
2.711544e+02	-1.252681e-02
2.727205e+02	-1.267172e-02
2.742958e+02	-1.281831e-02
2.758801e+02	-1.296659e-02
2.774736e+02	-1.311658e-02
2.790762e+02	-1.326831e-02
2.806882e+02	-1.342179e-02
2.823094e+02	-1.357704e-02
2.839400e+02	-1.373408e-02
2.855800e+02	-1.389294e-02
2.872295e+02	-1.405363e-02
2.888886e+02	-1.421618e-02
2.905572e+02	-1.438060e-02
2.922354e+02	-1.454693e-02
2.939234e+02	-1.471517e-02
2.956211e+02	-1.488536e-02
2.973286e+02	-1.505751e-02
2.990459e+02	-1.523165e-02
3.007732e+02	-1.540779e-02
3.025104e+02	-1.558598e-02
3.042577e+02	-1.576621e-02
3.060151e+02	-1.594853e-02
3.077826e+02	-1.613296e-02
3.095604e+02	-1.631951e-02
3.113484e+02	-1.650821e-02
3.131467e+02	-1.669910e-02
3.149554e+02	-1.689218e-02
3.167746e+02	-1.708750e-02
3.186043e+02	-1.728506e-02
3.204445e+02	-1.748491e-02
3.222954e+02	-1.768707e-02
3.241570e+02	-1.789155e-02
3.260293e+02	-1.809840e-02
3.279124e+02	-1.830763e-02
3.298064e+02	-1.851927e-02
3.317114e+02	-1.873336e-02
3.336273e+02	-1.894991e-02
3.355544e+02	-1.916897e-02
3.374925e+02	-1.939055e-02
3.394418e+02	-1.961468e-02
3.414024e+02	-1.984140e-02
3.433744e+02	-2.007074e-02
3.453577e+02	-2.030272e-02
3.473525e+02	-2.053737e-02
3.493588e+02	-2.077473e-02
3.513766e+02	-2.101483e-02
3.534062e+02	-2.125769e-02
3.554474e+02	-2.150336e-02
3.575005e+02	-2.175185e-02
3.595654e+02	-2.200321e-02
3.616422e+02	-2.225747e-02
3.637311e+02	-2.251466e-02
3.658320e+02	-2.277481e-02
3.679450e+02	-2.303796e-02
3.700702e+02	-2.330414e-02
3.722077e+02	-2.357339e-02
3.743576e+02	-2.384574e-02
3.765199e+02	-2.412123e-02
3.786946e+02	-2.439990e-02
3.808820e+02	-2.468177e-02
3.830819e+02	-2.496689e-02
3.852946e+02	-2.525529e-02
3.875200e+02	-2.554702e-02
3.897583e+02	-2.584210e-02
3.920096e+02	-2.614059e-02
3.942738e+02	-2.644251e-02
3.965511e+02	-2.674791e-02
3.988416e+02	-2.705682e-02
4.011452e+02	-2.736929e-02
4.034622e+02	-2.768536e-02
4.057926e+02	-2.800506e-02
4.081365e+02	-2.832844e-02
4.104938e+02	-2.865555e-02
4.128648e+02	-2.898642e-02
4.152495e+02	-2.932110e-02
4.176480e+02	-2.965963e-02
4.200603e+02	-3.000205e-02
4.224866e+02	-3.034842e-02
4.249268e+02	-3.069877e-02
4.273812e+02	-3.105314e-02
4.298497e+02	-3.141160e-02
4.323325e+02	-3.177417e-02
4.348297e+02	-3.214092e-02
4.373412e+02	-3.251188e-02
4.398673e+02	-3.288711e-02
4.424079e+02	-3.326665e-02
4.449633e+02	-3.365056e-02
4.475334e+02	-3.403888e-02
4.501183e+02	-3.443166e-02
4.527182e+02	-3.482896e-02
4.553330e+02	-3.523082e-02
4.579630e+02	-3.563730e-02
4.606082e+02	-3.604845e-02
4.632687e+02	-3.646432e-02
4.659445e+02	-3.688497e-02
4.686358e+02	-3.731045e-02
4.713426e+02	-3.774082e-02
4.740650e+02	-3.817613e-02
4.768032e+02	-3.861644e-02
4.795572e+02	-3.906181e-02
4.823271e+02	-3.951228e-02
4.851130e+02	-3.996793e-02
4.879150e+02	-4.042881e-02
4.907332e+02	-4.089498e-02
4.935676e+02	-4.136650e-02
4.964185e+02	-4.184342e-02
4.992858e+02	-4.232582e-02
5.021696e+02	-4.281376e-02
5.050701e+02	-4.330729e-02
5.079874e+02	-4.380648e-02
5.109215e+02	-4.431139e-02
5.138726e+02	-4.482210e-02
5.168407e+02	-4.533866e-02
5.198259e+02	-4.586114e-02
5.228284e+02	-4.638961e-02
5.258482e+02	-4.692414e-02
5.288855e+02	-4.746479e-02
5.319403e+02	-4.801164e-02
5.350128e+02	-4.856475e-02
5.381030e+02	-4.912420e-02
5.412111e+02	-4.969005e-02
5.443371e+02	-5.026239e-02
5.474812e+02	-5.084128e-02
5.506434e+02	-5.142679e-02
5.538239e+02	-5.201901e-02
5.570228e+02	-5.261801e-02
5.602401e+02	-5.322386e-02
5.634760e+02	-5.383665e-02
5.667306e+02	-5.445645e-02
5.700040e+02	-5.508333e-02
5.732964e+02	-5.571739e-02
5.766077e+02	-5.635870e-02
5.799382e+02	-5.700734e-02
5.832879e+02	-5.766339e-02
5.866569e+02	-5.832695e-02
5.900454e+02	-5.899808e-02
5.934535e+02	-5.967689e-02
5.968813e+02	-6.036346e-02
6.003288e+02	-6.105786e-02
6.037963e+02	-6.176020e-02
6.072838e+02	-6.247056e-02
6.107914e+02	-6.318903e-02
6.143194e+02	-6.391570e-02
6.178676e+02	-6.465066e-02
6.214364e+02	-6.539402e-02
6.250258e+02	-6.614585e-02
6.286359e+02	-6.690626e-02
6.322669e+02	-6.767535e-02
6.359189e+02	-6.845320e-02
6.395919e+02	-6.923993e-02
6.432862e+02	-7.003562e-02
6.470017e+02	-7.084038e-02
6.507388e+02	-7.165432e-02
6.544974e+02	-7.247752e-02
6.582778e+02	-7.331011e-02
6.620800e+02	-7.415218e-02
6.659041e+02	-7.500383e-02
6.697504e+02	-7.586518e-02
6.736188e+02	-7.673634e-02
6.775096e+02	-7.761741e-02
6.814229e+02	-7.850850e-02
6.853587e+02	-7.940973e-02
6.893173e+02	-8.032121e-02
6.932988e+02	-8.124306e-02
6.973033e+02	-8.217538e-02
7.013309e+02	-8.311830e-02
