Frequency(Hz)	Magnitude(dB)
1.000000e+01	-2.411161e+00
1.005776e+01	-2.432635e+00
1.011585e+01	-2.453876e+00
1.017428e+01	-2.475671e+00
1.023305e+01	-2.497659e+00
1.029215e+01	-2.519786e+00
1.035160e+01	-2.541811e+00
1.041139e+01	-2.563785e+00
1.047153e+01	-2.586392e+00
1.053201e+01	-2.608620e+00
1.059284e+01	-2.631175e+00
1.065403e+01	-2.654308e+00
1.071556e+01	-2.677271e+00
1.077746e+01	-2.700230e+00
1.083971e+01	-2.723658e+00
1.090232e+01	-2.746608e+00
1.096529e+01	-2.770369e+00
1.102862e+01	-2.794076e+00
1.109232e+01	-2.817718e+00
1.115639e+01	-2.841689e+00
1.122083e+01	-2.865942e+00
1.128564e+01	-2.890304e+00
1.135083e+01	-2.914534e+00
1.141639e+01	-2.939114e+00
1.148233e+01	-2.963807e+00
1.154865e+01	-2.988448e+00
1.161536e+01	-3.013392e+00
1.168245e+01	-3.038614e+00
1.174992e+01	-3.063920e+00
1.181779e+01	-3.089443e+00
1.188605e+01	-3.114928e+00
1.195470e+01	-3.140527e+00
1.202375e+01	-3.166485e+00
1.209320e+01	-3.192100e+00
1.216305e+01	-3.218408e+00
1.223330e+01	-3.244676e+00
1.230396e+01	-3.270961e+00
1.237503e+01	-3.297452e+00
1.244651e+01	-3.324310e+00
1.251840e+01	-3.351118e+00
1.259070e+01	-3.378137e+00
1.266343e+01	-3.405161e+00
1.273657e+01	-3.432646e+00
1.281014e+01	-3.460111e+00
1.288413e+01	-3.487364e+00
1.295855e+01	-3.515027e+00
1.303339e+01	-3.543033e+00
1.310867e+01	-3.570922e+00
1.318439e+01	-3.598879e+00
1.326054e+01	-3.627210e+00
1.333713e+01	-3.655661e+00
1.341417e+01	-3.684133e+00
1.349165e+01	-3.712708e+00
1.356958e+01	-3.741628e+00
1.364795e+01	-3.770542e+00
1.372678e+01	-3.799847e+00
1.380607e+01	-3.828893e+00
1.388581e+01	-3.858418e+00
1.396602e+01	-3.887815e+00
1.404668e+01	-3.917421e+00
1.412782e+01	-3.947391e+00
1.420942e+01	-3.977141e+00
1.429149e+01	-4.007279e+00
1.437404e+01	-4.037583e+00
1.445706e+01	-4.067915e+00
1.454057e+01	-4.098364e+00
1.462455e+01	-4.128960e+00
1.470902e+01	-4.159757e+00
1.479398e+01	-4.190779e+00
1.487943e+01	-4.222069e+00
1.496537e+01	-4.253129e+00
1.505181e+01	-4.284067e+00
1.513875e+01	-4.315556e+00
1.522619e+01	-4.347444e+00
1.531414e+01	-4.378997e+00
1.540259e+01	-4.410646e+00
1.549156e+01	-4.442709e+00
1.558103e+01	-4.474543e+00
1.567103e+01	-4.507273e+00
1.576155e+01	-4.539383e+00
1.585258e+01	-4.571844e+00
1.594415e+01	-4.604363e+00
1.603624e+01	-4.637261e+00
1.612886e+01	-4.670132e+00
1.622202e+01	-4.703346e+00
1.631572e+01	-4.736107e+00
1.640996e+01	-4.769661e+00
1.650474e+01	-4.803077e+00
1.660008e+01	-4.836623e+00
1.669596e+01	-4.870299e+00
1.679239e+01	-4.903947e+00
1.688938e+01	-4.937872e+00
1.698694e+01	-4.972401e+00
1.708505e+01	-5.006166e+00
1.718373e+01	-5.040363e+00
1.728299e+01	-5.074888e+00
1.738281e+01	-5.109148e+00
1.748322e+01	-5.144259e+00
1.758420e+01	-5.178833e+00
1.768576e+01	-5.214007e+00
1.778792e+01	-5.248767e+00
1.789066e+01	-5.283912e+00
1.799399e+01	-5.319223e+00
1.809793e+01	-5.354441e+00
1.820246e+01	-5.390001e+00
1.830760e+01	-5.425686e+00
1.841334e+01	-5.461725e+00
1.851969e+01	-5.497321e+00
1.862666e+01	-5.533428e+00
1.873425e+01	-5.569345e+00
1.884246e+01	-5.605434e+00
1.895129e+01	-5.642046e+00
1.906075e+01	-5.678556e+00
1.917085e+01	-5.715032e+00
1.928158e+01	-5.751642e+00
1.939295e+01	-5.788180e+00
1.950496e+01	-5.825105e+00
1.961762e+01	-5.862397e+00
1.973093e+01	-5.899284e+00
1.984490e+01	-5.936429e+00
1.995952e+01	-5.973923e+00
2.007480e+01	-6.011635e+00
2.019076e+01	-6.048938e+00
2.030738e+01	-6.086657e+00
2.042467e+01	-6.124181e+00
2.054264e+01	-6.162135e+00
2.066130e+01	-6.199731e+00
2.078064e+01	-6.237918e+00
2.090066e+01	-6.276710e+00
2.102139e+01	-6.314357e+00
2.114280e+01	-6.352988e+00
2.126492e+01	-6.391762e+00
2.138775e+01	-6.430153e+00
2.151128e+01	-6.468938e+00
2.163553e+01	-6.507394e+00
2.176050e+01	-6.546331e+00
2.188619e+01	-6.585570e+00
2.201260e+01	-6.624512e+00
2.213974e+01	-6.663654e+00
2.226762e+01	-6.703040e+00
2.239624e+01	-6.742581e+00
2.252560e+01	-6.782267e+00
2.265571e+01	-6.821625e+00
2.278656e+01	-6.861270e+00
2.291818e+01	-6.900826e+00
2.305055e+01	-6.940738e+00
2.318369e+01	-6.980878e+00
2.331760e+01	-7.021017e+00
2.345228e+01	-7.061089e+00
2.358774e+01	-7.101266e+00
2.372398e+01	-7.141608e+00
2.386101e+01	-7.182151e+00
2.399883e+01	-7.222327e+00
2.413745e+01	-7.263006e+00
2.427686e+01	-7.303583e+00
2.441709e+01	-7.344734e+00
2.455812e+01	-7.385094e+00
2.469997e+01	-7.426056e+00
2.484263e+01	-7.467085e+00
2.498612e+01	-7.508395e+00
2.513044e+01	-7.549859e+00
2.527559e+01	-7.590654e+00
2.542158e+01	-7.632014e+00
2.556842e+01	-7.673689e+00
2.571610e+01	-7.715519e+00
2.586463e+01	-7.756946e+00
2.601403e+01	-7.798247e+00
2.616428e+01	-7.839957e+00
2.631541e+01	-7.881792e+00
2.646740e+01	-7.924116e+00
2.662028e+01	-7.966354e+00
2.677404e+01	-8.008335e+00
2.692868e+01	-8.049896e+00
2.708422e+01	-8.092482e+00
2.724066e+01	-8.134850e+00
2.739800e+01	-8.177226e+00
2.755625e+01	-8.219889e+00
2.771541e+01	-8.262342e+00
2.787550e+01	-8.304635e+00
2.803650e+01	-8.347290e+00
2.819844e+01	-8.390072e+00
2.836131e+01	-8.432591e+00
2.852513e+01	-8.475333e+00
2.868989e+01	-8.518646e+00
2.885560e+01	-8.561889e+00
2.902227e+01	-8.604855e+00
2.918990e+01	-8.647985e+00
2.935850e+01	-8.690887e+00
2.952807e+01	-8.734670e+00
2.969863e+01	-8.777760e+00
2.987016e+01	-8.821003e+00
3.004269e+01	-8.864412e+00
3.021622e+01	-8.907815e+00
3.039075e+01	-8.952211e+00
3.056628e+01	-8.995898e+00
3.074283e+01	-9.039395e+00
3.092040e+01	-9.083635e+00
3.109900e+01	-9.127316e+00
3.127862e+01	-9.170945e+00
3.145929e+01	-9.214911e+00
3.164099e+01	-9.259579e+00
3.182375e+01	-9.303287e+00
3.200756e+01	-9.347559e+00
3.219244e+01	-9.391560e+00
3.237838e+01	-9.435839e+00
3.256540e+01	-9.480548e+00
3.275349e+01	-9.524422e+00
3.294268e+01	-9.569031e+00
3.313295e+01	-9.613705e+00
3.332433e+01	-9.658518e+00
3.351681e+01	-9.702662e+00
3.371040e+01	-9.748079e+00
3.390511e+01	-9.792537e+00
3.410094e+01	-9.836767e+00
3.429791e+01	-9.882028e+00
3.449601e+01	-9.927002e+00
3.469526e+01	-9.971977e+00
3.489566e+01	-1.001726e+01
3.509721e+01	-1.006213e+01
3.529993e+01	-1.010765e+01
3.550382e+01	-1.015226e+01
3.570889e+01	-1.019742e+01
3.591515e+01	-1.024348e+01
3.612259e+01	-1.028813e+01
3.633123e+01	-1.033324e+01
3.654108e+01	-1.037911e+01
3.675214e+01	-1.042490e+01
3.696442e+01	-1.047023e+01
3.717792e+01	-1.051554e+01
3.739266e+01	-1.056073e+01
3.760864e+01	-1.060682e+01
3.782587e+01	-1.065239e+01
3.804435e+01	-1.069827e+01
3.826409e+01	-1.074389e+01
3.848510e+01	-1.078961e+01
3.870739e+01	-1.083558e+01
3.893096e+01	-1.088208e+01
3.915583e+01	-1.092747e+01
3.938199e+01	-1.097287e+01
3.960946e+01	-1.101958e+01
3.983824e+01	-1.106622e+01
4.006834e+01	-1.111233e+01
4.029978e+01	-1.115832e+01
4.053255e+01	-1.120453e+01
4.076666e+01	-1.125057e+01
4.100213e+01	-1.129662e+01
4.123896e+01	-1.134358e+01
4.147715e+01	-1.138961e+01
4.171672e+01	-1.143574e+01
4.195767e+01	-1.148291e+01
4.220002e+01	-1.152871e+01
4.244377e+01	-1.157523e+01
4.268892e+01	-1.162186e+01
4.293549e+01	-1.166820e+01
4.318348e+01	-1.171529e+01
4.343291e+01	-1.176158e+01
4.368377e+01	-1.180861e+01
4.393609e+01	-1.185513e+01
4.418986e+01	-1.190244e+01
4.444510e+01	-1.194892e+01
4.470182e+01	-1.199647e+01
4.496001e+01	-1.204232e+01
4.521970e+01	-1.208945e+01
4.548089e+01	-1.213648e+01
4.574358e+01	-1.218370e+01
4.600779e+01	-1.223048e+01
4.627353e+01	-1.227730e+01
4.654081e+01	-1.232435e+01
4.680963e+01	-1.237124e+01
4.708000e+01	-1.241865e+01
4.735193e+01	-1.246643e+01
4.762543e+01	-1.251317e+01
4.790051e+01	-1.256072e+01
4.817719e+01	-1.260714e+01
4.845545e+01	-1.265484e+01
4.873533e+01	-1.270212e+01
4.901682e+01	-1.274960e+01
4.929994e+01	-1.279677e+01
4.958470e+01	-1.284445e+01
4.987110e+01	-1.289204e+01
5.015915e+01	-1.293892e+01
5.044887e+01	-1.298643e+01
5.074026e+01	-1.303449e+01
5.103333e+01	-1.308241e+01
5.132810e+01	-1.312847e+01
5.162457e+01	-1.317757e+01
5.192275e+01	-1.322531e+01
5.222265e+01	-1.327246e+01
5.252429e+01	-1.332018e+01
5.282767e+01	-1.336795e+01
5.313280e+01	-1.341570e+01
5.343969e+01	-1.346361e+01
5.374836e+01	-1.351094e+01
5.405880e+01	-1.355963e+01
5.437105e+01	-1.360707e+01
5.468509e+01	-1.365511e+01
5.500095e+01	-1.370274e+01
5.531863e+01	-1.374985e+01
5.563815e+01	-1.379898e+01
5.595951e+01	-1.384572e+01
5.628273e+01	-1.389418e+01
5.660782e+01	-1.394178e+01
5.693479e+01	-1.399002e+01
5.726364e+01	-1.403829e+01
5.759439e+01	-1.408627e+01
5.792705e+01	-1.413449e+01
5.826164e+01	-1.418330e+01
5.859815e+01	-1.423122e+01
5.893662e+01	-1.427924e+01
5.927703e+01	-1.432713e+01
5.961941e+01	-1.437505e+01
5.996377e+01	-1.442341e+01
6.031012e+01	-1.447190e+01
6.065847e+01	-1.452092e+01
6.100883e+01	-1.456828e+01
6.136121e+01	-1.461684e+01
6.171563e+01	-1.466490e+01
6.207210e+01	-1.471326e+01
6.243063e+01	-1.476160e+01
6.279122e+01	-1.481011e+01
6.315390e+01	-1.485854e+01
6.351868e+01	-1.490643e+01
6.388556e+01	-1.495507e+01
6.425456e+01	-1.500446e+01
6.462569e+01	-1.505175e+01
6.499897e+01	-1.510152e+01
6.537440e+01	-1.514910e+01
6.575200e+01	-1.519741e+01
6.613178e+01	-1.524554e+01
6.651375e+01	-1.529416e+01
6.689793e+01	-1.534409e+01
6.728433e+01	-1.539243e+01
6.767297e+01	-1.543988e+01
6.806384e+01	-1.548870e+01
6.845698e+01	-1.553763e+01
6.885238e+01	-1.558637e+01
6.925007e+01	-1.563508e+01
6.965005e+01	-1.568270e+01
7.005235e+01	-1.573237e+01
7.045697e+01	-1.578022e+01
7.086393e+01	-1.583050e+01
7.127323e+01	-1.587856e+01
7.168490e+01	-1.592762e+01
7.209895e+01	-1.597558e+01
7.251539e+01	-1.602457e+01
7.293424e+01	-1.607384e+01
7.335551e+01	-1.612275e+01
7.377920e+01	-1.617121e+01
7.420535e+01	-1.622062e+01
7.463396e+01	-1.626850e+01
7.506504e+01	-1.631772e+01
7.549861e+01	-1.636631e+01
7.593469e+01	-1.641516e+01
7.637328e+01	-1.646379e+01
7.681441e+01	-1.651265e+01
7.725809e+01	-1.656201e+01
7.770433e+01	-1.661099e+01
7.815315e+01	-1.665944e+01
7.860456e+01	-1.670912e+01
7.905857e+01	-1.675770e+01
7.951521e+01	-1.680653e+01
7.997449e+01	-1.685533e+01
8.043642e+01	-1.690487e+01
8.090102e+01	-1.695315e+01
8.136830e+01	-1.700290e+01
8.183828e+01	-1.705241e+01
8.231097e+01	-1.710166e+01
8.278640e+01	-1.715110e+01
8.326457e+01	-1.719828e+01
8.374550e+01	-1.724885e+01
8.422921e+01	-1.729776e+01
8.471572e+01	-1.734724e+01
8.520503e+01	-1.739631e+01
8.569717e+01	-1.744510e+01
8.619215e+01	-1.749409e+01
8.669000e+01	-1.754401e+01
8.719071e+01	-1.759116e+01
8.769432e+01	-1.764213e+01
8.820084e+01	-1.769096e+01
8.871029e+01	-1.773976e+01
8.922267e+01	-1.778762e+01
8.973802e+01	-1.783700e+01
9.025634e+01	-1.788658e+01
9.077766e+01	-1.793687e+01
9.130199e+01	-1.798598e+01
9.182935e+01	-1.803535e+01
9.235975e+01	-1.808456e+01
9.289321e+01	-1.813376e+01
9.342976e+01	-1.818307e+01
9.396941e+01	-1.823137e+01
9.451217e+01	-1.828057e+01
9.505807e+01	-1.832939e+01
9.560712e+01	-1.837961e+01
9.615934e+01	-1.842901e+01
9.671476e+01	-1.847986e+01
9.727338e+01	-1.852763e+01
9.783522e+01	-1.857648e+01
9.840032e+01	-1.862519e+01
9.896867e+01	-1.867614e+01
9.954031e+01	-1.872464e+01
1.001153e+02	-1.877388e+01
1.006935e+02	-1.882279e+01
1.012751e+02	-1.887286e+01
1.018601e+02	-1.892154e+01
1.024484e+02	-1.897060e+01
1.030402e+02	-1.902108e+01
1.036353e+02	-1.907003e+01
1.042339e+02	-1.912193e+01
1.048360e+02	-1.916918e+01
1.054415e+02	-1.921887e+01
1.060505e+02	-1.926918e+01
1.066631e+02	-1.931984e+01
1.072791e+02	-1.936717e+01
1.078988e+02	-1.941616e+01
1.085220e+02	-1.946624e+01
1.091488e+02	-1.951578e+01
1.097793e+02	-1.956547e+01
1.104133e+02	-1.961405e+01
1.110511e+02	-1.966360e+01
1.116925e+02	-1.971296e+01
1.123376e+02	-1.976422e+01
1.129865e+02	-1.981271e+01
1.136391e+02	-1.986109e+01
1.142955e+02	-1.991064e+01
1.149556e+02	-1.996124e+01
1.156196e+02	-2.001098e+01
1.162874e+02	-2.006023e+01
1.169591e+02	-2.010892e+01
1.176347e+02	-2.015940e+01
1.183141e+02	-2.020853e+01
1.189975e+02	-2.025843e+01
1.196848e+02	-2.030866e+01
1.203761e+02	-2.035877e+01
1.210714e+02	-2.040735e+01
1.217707e+02	-2.045630e+01
1.224740e+02	-2.050728e+01
1.231814e+02	-2.055830e+01
1.238929e+02	-2.060499e+01
1.246085e+02	-2.065505e+01
1.253283e+02	-2.070399e+01
1.260522e+02	-2.075497e+01
1.267802e+02	-2.080601e+01
1.275125e+02	-2.085297e+01
1.282490e+02	-2.090245e+01
1.289898e+02	-2.095455e+01
1.297348e+02	-2.100099e+01
1.304842e+02	-2.105109e+01
1.312378e+02	-2.110105e+01
1.319959e+02	-2.115238e+01
1.327583e+02	-2.120224e+01
1.335251e+02	-2.125189e+01
1.342963e+02	-2.130098e+01
1.350720e+02	-2.135055e+01
1.358522e+02	-2.139927e+01
1.366368e+02	-2.145157e+01
1.374260e+02	-2.150007e+01
1.382198e+02	-2.154887e+01
1.390182e+02	-2.159772e+01
1.398211e+02	-2.164775e+01
1.406287e+02	-2.169825e+01
1.414410e+02	-2.174825e+01
1.422579e+02	-2.179981e+01
1.430796e+02	-2.184845e+01
1.439060e+02	-2.189689e+01
1.447372e+02	-2.194713e+01
1.455732e+02	-2.199740e+01
1.464141e+02	-2.204533e+01
1.472597e+02	-2.209716e+01
1.481103e+02	-2.214558e+01
1.489658e+02	-2.219473e+01
1.498262e+02	-2.224421e+01
1.506916e+02	-2.229387e+01
1.515620e+02	-2.234442e+01
1.524374e+02	-2.239556e+01
1.533179e+02	-2.244479e+01
1.542034e+02	-2.249476e+01
1.550941e+02	-2.254373e+01
1.559899e+02	-2.259318e+01
1.568909e+02	-2.264308e+01
1.577971e+02	-2.269043e+01
1.587085e+02	-2.274063e+01
1.596252e+02	-2.279229e+01
1.605472e+02	-2.284131e+01
1.614745e+02	-2.289281e+01
1.624072e+02	-2.294077e+01
1.633453e+02	-2.299351e+01
1.642887e+02	-2.304435e+01
1.652377e+02	-2.309138e+01
1.661921e+02	-2.314171e+01
1.671520e+02	-2.319163e+01
1.681175e+02	-2.324129e+01
1.690885e+02	-2.329095e+01
1.700651e+02	-2.334122e+01
1.710474e+02	-2.338829e+01
1.720354e+02	-2.344015e+01
1.730291e+02	-2.348991e+01
1.740285e+02	-2.353936e+01
1.750337e+02	-2.358801e+01
1.760446e+02	-2.364066e+01
1.770615e+02	-2.368883e+01
1.780842e+02	-2.373801e+01
1.791128e+02	-2.378893e+01
1.801473e+02	-2.384062e+01
1.811878e+02	-2.388780e+01
1.822344e+02	-2.393856e+01
1.832870e+02	-2.398779e+01
1.843456e+02	-2.403927e+01
1.854104e+02	-2.408804e+01
1.864813e+02	-2.413775e+01
1.875584e+02	-2.418702e+01
1.886418e+02	-2.423782e+01
1.897313e+02	-2.428560e+01
1.908272e+02	-2.433944e+01
1.919294e+02	-2.438709e+01
1.930380e+02	-2.443751e+01
1.941530e+02	-2.448724e+01
1.952744e+02	-2.453669e+01
1.964023e+02	-2.458461e+01
1.975367e+02	-2.463379e+01
1.986777e+02	-2.468415e+01
1.998252e+02	-2.473459e+01
2.009794e+02	-2.478625e+01
2.021403e+02	-2.483701e+01
2.033078e+02	-2.488598e+01
2.044821e+02	-2.493734e+01
2.056632e+02	-2.498715e+01
2.068511e+02	-2.503394e+01
2.080459e+02	-2.508748e+01
2.092475e+02	-2.513224e+01
2.104561e+02	-2.518399e+01
2.116717e+02	-2.523557e+01
2.128943e+02	-2.528498e+01
2.141240e+02	-2.533555e+01
2.153608e+02	-2.538375e+01
2.166047e+02	-2.543416e+01
2.178558e+02	-2.548374e+01
2.191141e+02	-2.553681e+01
2.203797e+02	-2.558317e+01
2.216526e+02	-2.563320e+01
2.229329e+02	-2.568322e+01
2.242205e+02	-2.573249e+01
2.255156e+02	-2.578215e+01
2.268182e+02	-2.583487e+01
2.281283e+02	-2.588420e+01
2.294459e+02	-2.593222e+01
2.307712e+02	-2.598200e+01
2.321041e+02	-2.603300e+01
2.334447e+02	-2.608082e+01
2.347931e+02	-2.613413e+01
2.361493e+02	-2.618268e+01
2.375133e+02	-2.623333e+01
2.388851e+02	-2.628777e+01
2.402649e+02	-2.633756e+01
2.416527e+02	-2.638587e+01
2.430484e+02	-2.643258e+01
2.444523e+02	-2.648485e+01
2.458642e+02	-2.653376e+01
2.472843e+02	-2.658113e+01
2.487126e+02	-2.663447e+01
2.501492e+02	-2.668192e+01
2.515940e+02	-2.673602e+01
2.530472e+02	-2.678527e+01
2.545088e+02	-2.683507e+01
2.559789e+02	-2.688294e+01
2.574574e+02	-2.693294e+01
2.589444e+02	-2.698064e+01
2.604401e+02	-2.703653e+01
2.619444e+02	-2.708291e+01
2.634574e+02	-2.713133e+01
2.649791e+02	-2.718336e+01
2.665096e+02	-2.723130e+01
2.680489e+02	-2.728535e+01
2.695972e+02	-2.733506e+01
2.711544e+02	-2.738259e+01
2.727205e+02	-2.742981e+01
2.742958e+02	-2.748184e+01
2.758801e+02	-2.753425e+01
2.774736e+02	-2.757931e+01
2.790762e+02	-2.763151e+01
2.806882e+02	-2.768074e+01
2.823094e+02	-2.773241e+01
2.839400e+02	-2.778645e+01
2.855800e+02	-2.783217e+01
2.872295e+02	-2.788020e+01
2.888886e+02	-2.793714e+01
2.905572e+02	-2.798529e+01
2.922354e+02	-2.803087e+01
2.939234e+02	-2.808533e+01
2.956211e+02	-2.813046e+01
2.973286e+02	-2.818326e+01
2.990459e+02	-2.823161e+01
3.007732e+02	-2.828440e+01
3.025104e+02	-2.833795e+01
3.042577e+02	-2.838701e+01
3.060151e+02	-2.843508e+01
3.077826e+02	-2.848300e+01
3.095604e+02	-2.853625e+01
3.113484e+02	-2.858399e+01
3.131467e+02	-2.863725e+01
3.149554e+02	-2.868229e+01
3.167746e+02	-2.873725e+01
3.186043e+02	-2.878247e+01
3.204445e+02	-2.883525e+01
3.222954e+02	-2.888543e+01
3.241570e+02	-2.893655e+01
3.260293e+02	-2.899001e+01
3.279124e+02	-2.903469e+01
3.298064e+02	-2.908197e+01
3.317114e+02	-2.913691e+01
3.336273e+02	-2.918819e+01
3.355544e+02	-2.923436e+01
3.374925e+02	-2.928523e+01
3.394418e+02	-2.933056e+01
3.414024e+02	-2.938467e+01
3.433744e+02	-2.944098e+01
3.453577e+02	-2.948148e+01
3.473525e+02	-2.953769e+01
3.493588e+02	-2.958815e+01
3.513766e+02	-2.963828e+01
3.534062e+02	-2.968614e+01
3.554474e+02	-2.973293e+01
3.575005e+02	-2.978406e+01
3.595654e+02	-2.983107e+01
3.616422e+02	-2.988548e+01
3.637311e+02	-2.993452e+01
3.658320e+02	-2.998689e+01
3.679450e+02	-3.003345e+01
3.700702e+02	-3.008631e+01
3.722077e+02	-3.013289e+01
3.743576e+02	-3.018452e+01
3.765199e+02	-3.023870e+01
3.786946e+02	-3.028870e+01
3.808820e+02	-3.034152e+01
3.830819e+02	-3.038735e+01
3.852946e+02	-3.043885e+01
3.875200e+02	-3.048646e+01
3.897583e+02	-3.053737e+01
3.920096e+02	-3.058201e+01
3.942738e+02	-3.064484e+01
3.965511e+02	-3.068853e+01
3.988416e+02	-3.073465e+01
4.011452e+02	-3.078920e+01
4.034622e+02	-3.083945e+01
4.057926e+02	-3.089016e+01
4.081365e+02	-3.094006e+01
4.104938e+02	-3.099232e+01
4.128648e+02	-3.103916e+01
4.152495e+02	-3.108645e+01
4.176480e+02	-3.114263e+01
4.200603e+02	-3.118661e+01
4.224866e+02	-3.123926e+01
4.249268e+02	-3.129300e+01
4.273812e+02	-3.133833e+01
4.298497e+02	-3.138835e+01
4.323325e+02	-3.144138e+01
4.348297e+02	-3.148652e+01
4.373412e+02	-3.154147e+01
4.398673e+02	-3.159341e+01
4.424079e+02	-3.163957e+01
4.449633e+02	-3.168715e+01
4.475334e+02	-3.174671e+01
4.501183e+02	-3.178687e+01
4.527182e+02	-3.184305e+01
4.553330e+02	-3.188932e+01
4.579630e+02	-3.194144e+01
4.606082e+02	-3.199263e+01
4.632687e+02	-3.204164e+01
4.659445e+02	-3.208981e+01
4.686358e+02	-3.213876e+01
4.713426e+02	-3.219705e+01
4.740650e+02	-3.224325e+01
4.768032e+02	-3.229423e+01
4.795572e+02	-3.234050e+01
4.823271e+02	-3.239216e+01
4.851130e+02	-3.244923e+01
4.879150e+02	-3.249544e+01
4.907332e+02	-3.254208e+01
4.935676e+02	-3.259186e+01
4.964185e+02	-3.264315e+01
4.992858e+02	-3.269271e+01
5.021696e+02	-3.274568e+01
5.050701e+02	-3.280208e+01
5.079874e+02	-3.285030e+01
5.109215e+02	-3.290077e+01
5.138726e+02	-3.294510e+01
5.168407e+02	-3.299475e+01
5.198259e+02	-3.303806e+01
5.228284e+02	-3.309875e+01
5.258482e+02	-3.314768e+01
5.288855e+02	-3.318988e+01
5.319403e+02	-3.324928e+01
5.350128e+02	-3.329328e+01
5.381030e+02	-3.334701e+01
5.412111e+02	-3.340162e+01
5.443371e+02	-3.344172e+01
5.474812e+02	-3.350289e+01
5.506434e+02	-3.355677e+01
5.538239e+02	-3.360393e+01
5.570228e+02	-3.365186e+01
5.602401e+02	-3.369724e+01
5.634760e+02	-3.374950e+01
5.667306e+02	-3.380142e+01
5.700040e+02	-3.385335e+01
5.732964e+02	-3.389819e+01
5.766077e+02	-3.394922e+01
5.799382e+02	-3.400104e+01
5.832879e+02	-3.405034e+01
5.866569e+02	-3.409399e+01
5.900454e+02	-3.414207e+01
5.934535e+02	-3.420431e+01
5.968813e+02	-3.425365e+01
6.003288e+02	-3.430204e+01
6.037963e+02	-3.435594e+01
6.072838e+02	-3.440449e+01
6.107914e+02	-3.444658e+01
6.143194e+02	-3.449734e+01
6.178676e+02	-3.455694e+01
6.214364e+02	-3.461525e+01
6.250258e+02	-3.466423e+01
6.286359e+02	-3.470216e+01
6.322669e+02	-3.475096e+01
6.359189e+02	-3.481178e+01
6.395919e+02	-3.486265e+01
6.432862e+02	-3.490529e+01
6.470017e+02	-3.496141e+01
6.507388e+02	-3.500605e+01
6.544974e+02	-3.505290e+01
6.582778e+02	-3.510622e+01
6.620800e+02	-3.516185e+01
6.659041e+02	-3.520171e+01
6.697504e+02	-3.525681e+01
6.736188e+02	-3.530877e+01
6.775096e+02	-3.536208e+01
6.814229e+02	-3.540488e+01
6.853587e+02	-3.546039e+01
6.893173e+02	-3.550668e+01
6.932988e+02	-3.556444e+01
6.973033e+02	-3.560950e+01
7.013309e+02	-3.565900e+01
