Frequency(Hz)	Magnitude(dB)
1.000000e+01	-2.250130e+00
1.005776e+01	-2.270533e+00
1.011585e+01	-2.290829e+00
1.017428e+01	-2.311680e+00
1.023305e+01	-2.332366e+00
1.029215e+01	-2.353022e+00
1.035160e+01	-2.374130e+00
1.041139e+01	-2.395256e+00
1.047153e+01	-2.416606e+00
1.053201e+01	-2.438008e+00
1.059284e+01	-2.459679e+00
1.065403e+01	-2.481137e+00
1.071556e+01	-2.503001e+00
1.077746e+01	-2.525072e+00
1.083971e+01	-2.547231e+00
1.090232e+01	-2.569510e+00
1.096529e+01	-2.592004e+00
1.102862e+01	-2.614657e+00
1.109232e+01	-2.637294e+00
1.115639e+01	-2.660248e+00
1.122083e+01	-2.683101e+00
1.128564e+01	-2.706148e+00
1.135083e+01	-2.729352e+00
1.141639e+01	-2.752848e+00
1.148233e+01	-2.776612e+00
1.154865e+01	-2.800164e+00
1.161536e+01	-2.823965e+00
1.168245e+01	-2.848099e+00
1.174992e+01	-2.871822e+00
1.181779e+01	-2.896236e+00
1.188605e+01	-2.920484e+00
1.195470e+01	-2.945293e+00
1.202375e+01	-2.970109e+00
1.209320e+01	-2.994879e+00
1.216305e+01	-3.019905e+00
1.223330e+01	-3.044840e+00
1.230396e+01	-3.070507e+00
1.237503e+01	-3.095540e+00
1.244651e+01	-3.121431e+00
1.251840e+01	-3.146786e+00
1.259070e+01	-3.172658e+00
1.266343e+01	-3.198826e+00
1.273657e+01	-3.225181e+00
1.281014e+01	-3.251385e+00
1.288413e+01	-3.277722e+00
1.295855e+01	-3.304445e+00
1.303339e+01	-3.331130e+00
1.310867e+01	-3.357827e+00
1.318439e+01	-3.384841e+00
1.326054e+01	-3.412099e+00
1.333713e+01	-3.439263e+00
1.341417e+01	-3.466997e+00
1.349165e+01	-3.494465e+00
1.356958e+01	-3.522117e+00
1.364795e+01	-3.549835e+00
1.372678e+01	-3.578031e+00
1.380607e+01	-3.606227e+00
1.388581e+01	-3.634596e+00
1.396602e+01	-3.663003e+00
1.404668e+01	-3.691479e+00
1.412782e+01	-3.720112e+00
1.420942e+01	-3.748807e+00
1.429149e+01	-3.778053e+00
1.437404e+01	-3.806901e+00
1.445706e+01	-3.836651e+00
1.454057e+01	-3.865940e+00
1.462455e+01	-3.895272e+00
1.470902e+01	-3.924961e+00
1.479398e+01	-3.954811e+00
1.487943e+01	-3.984918e+00
1.496537e+01	-4.014911e+00
1.505181e+01	-4.045055e+00
1.513875e+01	-4.075675e+00
1.522619e+01	-4.106113e+00
1.531414e+01	-4.136909e+00
1.540259e+01	-4.167600e+00
1.549156e+01	-4.198584e+00
1.558103e+01	-4.229521e+00
1.567103e+01	-4.261053e+00
1.576155e+01	-4.292039e+00
1.585258e+01	-4.323900e+00
1.594415e+01	-4.355398e+00
1.603624e+01	-4.387021e+00
1.612886e+01	-4.418916e+00
1.622202e+01	-4.450456e+00
1.631572e+01	-4.482916e+00
1.640996e+01	-4.515230e+00
1.650474e+01	-4.547643e+00
1.660008e+01	-4.580107e+00
1.669596e+01	-4.612702e+00
1.679239e+01	-4.645684e+00
1.688938e+01	-4.678416e+00
1.698694e+01	-4.711697e+00
1.708505e+01	-4.744601e+00
1.718373e+01	-4.778132e+00
1.728299e+01	-4.811544e+00
1.738281e+01	-4.845326e+00
1.748322e+01	-4.879001e+00
1.758420e+01	-4.912446e+00
1.768576e+01	-4.946612e+00
1.778792e+01	-4.980435e+00
1.789066e+01	-5.014738e+00
1.799399e+01	-5.048950e+00
1.809793e+01	-5.083563e+00
1.820246e+01	-5.118357e+00
1.830760e+01	-5.153209e+00
1.841334e+01	-5.187697e+00
1.851969e+01	-5.222629e+00
1.862666e+01	-5.257455e+00
1.873425e+01	-5.292575e+00
1.884246e+01	-5.328363e+00
1.895129e+01	-5.363364e+00
1.906075e+01	-5.398958e+00
1.917085e+01	-5.434783e+00
1.928158e+01	-5.470712e+00
1.939295e+01	-5.506551e+00
1.950496e+01	-5.542335e+00
1.961762e+01	-5.578658e+00
1.973093e+01	-5.614878e+00
1.984490e+01	-5.650860e+00
1.995952e+01	-5.687576e+00
2.007480e+01	-5.724292e+00
2.019076e+01	-5.760968e+00
2.030738e+01	-5.797556e+00
2.042467e+01	-5.834382e+00
2.054264e+01	-5.871548e+00
2.066130e+01	-5.909023e+00
2.078064e+01	-5.945927e+00
2.090066e+01	-5.983173e+00
2.102139e+01	-6.020822e+00
2.114280e+01	-6.058248e+00
2.126492e+01	-6.095971e+00
2.138775e+01	-6.133826e+00
2.151128e+01	-6.171661e+00
2.163553e+01	-6.209897e+00
2.176050e+01	-6.248007e+00
2.188619e+01	-6.285957e+00
2.201260e+01	-6.324500e+00
2.213974e+01	-6.362809e+00
2.226762e+01	-6.401184e+00
2.239624e+01	-6.439841e+00
2.252560e+01	-6.478884e+00
2.265571e+01	-6.517801e+00
2.278656e+01	-6.556023e+00
2.291818e+01	-6.595231e+00
2.305055e+01	-6.634590e+00
2.318369e+01	-6.673524e+00
2.331760e+01	-6.712867e+00
2.345228e+01	-6.752616e+00
2.358774e+01	-6.791783e+00
2.372398e+01	-6.831750e+00
2.386101e+01	-6.871182e+00
2.399883e+01	-6.911006e+00
2.413745e+01	-6.950960e+00
2.427686e+01	-6.990719e+00
2.441709e+01	-7.030796e+00
2.455812e+01	-7.070950e+00
2.469997e+01	-7.111417e+00
2.484263e+01	-7.151998e+00
2.498612e+01	-7.192090e+00
2.513044e+01	-7.232684e+00
2.527559e+01	-7.273396e+00
2.542158e+01	-7.313896e+00
2.556842e+01	-7.354867e+00
2.571610e+01	-7.395517e+00
2.586463e+01	-7.436702e+00
2.601403e+01	-7.477916e+00
2.616428e+01	-7.518541e+00
2.631541e+01	-7.560216e+00
2.646740e+01	-7.601273e+00
2.662028e+01	-7.642693e+00
2.677404e+01	-7.683959e+00
2.692868e+01	-7.725723e+00
2.708422e+01	-7.767430e+00
2.724066e+01	-7.808756e+00
2.739800e+01	-7.850717e+00
2.755625e+01	-7.892422e+00
2.771541e+01	-7.934649e+00
2.787550e+01	-7.976032e+00
2.803650e+01	-8.018440e+00
2.819844e+01	-8.060926e+00
2.836131e+01	-8.102964e+00
2.852513e+01	-8.145335e+00
2.868989e+01	-8.187700e+00
2.885560e+01	-8.230188e+00
2.902227e+01	-8.272317e+00
2.918990e+01	-8.315343e+00
2.935850e+01	-8.357965e+00
2.952807e+01	-8.400627e+00
2.969863e+01	-8.443516e+00
2.987016e+01	-8.486487e+00
3.004269e+01	-8.529744e+00
3.021622e+01	-8.572762e+00
3.039075e+01	-8.615720e+00
3.056628e+01	-8.658849e+00
3.074283e+01	-8.702168e+00
3.092040e+01	-8.744988e+00
3.109900e+01	-8.789441e+00
3.127862e+01	-8.832387e+00
3.145929e+01	-8.875663e+00
3.164099e+01	-8.919445e+00
3.182375e+01	-8.962922e+00
3.200756e+01	-9.006271e+00
3.219244e+01	-9.050180e+00
3.237838e+01	-9.094460e+00
3.256540e+01	-9.138784e+00
3.275349e+01	-9.182292e+00
3.294268e+01	-9.226295e+00
3.313295e+01	-9.270467e+00
3.332433e+01	-9.314445e+00
3.351681e+01	-9.358934e+00
3.371040e+01	-9.402788e+00
3.390511e+01	-9.447327e+00
3.410094e+01	-9.491764e+00
3.429791e+01	-9.535623e+00
3.449601e+01	-9.580720e+00
3.469526e+01	-9.625015e+00
3.489566e+01	-9.669634e+00
3.509721e+01	-9.714296e+00
3.529993e+01	-9.759094e+00
3.550382e+01	-9.803698e+00
3.570889e+01	-9.848566e+00
3.591515e+01	-9.893408e+00
3.612259e+01	-9.938417e+00
3.633123e+01	-9.983492e+00
3.654108e+01	-1.002850e+01
3.675214e+01	-1.007403e+01
3.696442e+01	-1.011859e+01
3.717792e+01	-1.016389e+01
3.739266e+01	-1.020892e+01
3.760864e+01	-1.025379e+01
3.782587e+01	-1.029968e+01
3.804435e+01	-1.034479e+01
3.826409e+01	-1.039050e+01
3.848510e+01	-1.043606e+01
3.870739e+01	-1.048181e+01
3.893096e+01	-1.052729e+01
3.915583e+01	-1.057231e+01
3.938199e+01	-1.061903e+01
3.960946e+01	-1.066395e+01
3.983824e+01	-1.071006e+01
4.006834e+01	-1.075518e+01
4.029978e+01	-1.080146e+01
4.053255e+01	-1.084694e+01
4.076666e+01	-1.089317e+01
4.100213e+01	-1.093849e+01
4.123896e+01	-1.098514e+01
4.147715e+01	-1.103130e+01
4.171672e+01	-1.107729e+01
4.195767e+01	-1.112398e+01
4.220002e+01	-1.116993e+01
4.244377e+01	-1.121598e+01
4.268892e+01	-1.126236e+01
4.293549e+01	-1.130846e+01
4.318348e+01	-1.135483e+01
4.343291e+01	-1.140100e+01
4.368377e+01	-1.144717e+01
4.393609e+01	-1.149401e+01
4.418986e+01	-1.154058e+01
4.444510e+01	-1.158752e+01
4.470182e+01	-1.163361e+01
4.496001e+01	-1.167954e+01
4.521970e+01	-1.172669e+01
4.548089e+01	-1.177357e+01
4.574358e+01	-1.182067e+01
4.600779e+01	-1.186669e+01
4.627353e+01	-1.191413e+01
4.654081e+01	-1.196082e+01
4.680963e+01	-1.200778e+01
4.708000e+01	-1.205500e+01
4.735193e+01	-1.210109e+01
4.762543e+01	-1.214818e+01
4.790051e+01	-1.219535e+01
4.817719e+01	-1.224256e+01
4.845545e+01	-1.228892e+01
4.873533e+01	-1.233634e+01
4.901682e+01	-1.238346e+01
4.929994e+01	-1.243132e+01
4.958470e+01	-1.247736e+01
4.987110e+01	-1.252525e+01
5.015915e+01	-1.257301e+01
5.044887e+01	-1.261921e+01
5.074026e+01	-1.266583e+01
5.103333e+01	-1.271515e+01
5.132810e+01	-1.276239e+01
5.162457e+01	-1.280868e+01
5.192275e+01	-1.285589e+01
5.222265e+01	-1.290378e+01
5.252429e+01	-1.295173e+01
5.282767e+01	-1.299808e+01
5.313280e+01	-1.304697e+01
5.343969e+01	-1.309360e+01
5.374836e+01	-1.314141e+01
5.405880e+01	-1.318917e+01
5.437105e+01	-1.323723e+01
5.468509e+01	-1.328476e+01
5.500095e+01	-1.333232e+01
5.531863e+01	-1.337953e+01
5.563815e+01	-1.342743e+01
5.595951e+01	-1.347523e+01
5.628273e+01	-1.352373e+01
5.660782e+01	-1.357065e+01
5.693479e+01	-1.361862e+01
5.726364e+01	-1.366670e+01
5.759439e+01	-1.371492e+01
5.792705e+01	-1.376235e+01
5.826164e+01	-1.381113e+01
5.859815e+01	-1.385865e+01
5.893662e+01	-1.390637e+01
5.927703e+01	-1.395436e+01
5.961941e+01	-1.400241e+01
5.996377e+01	-1.405078e+01
6.031012e+01	-1.409845e+01
6.065847e+01	-1.414737e+01
6.100883e+01	-1.419395e+01
6.136121e+01	-1.424296e+01
6.171563e+01	-1.429092e+01
6.207210e+01	-1.433946e+01
6.243063e+01	-1.438794e+01
6.279122e+01	-1.443507e+01
6.315390e+01	-1.448392e+01
6.351868e+01	-1.453255e+01
6.388556e+01	-1.458057e+01
6.425456e+01	-1.462767e+01
6.462569e+01	-1.467620e+01
6.499897e+01	-1.472567e+01
6.537440e+01	-1.477374e+01
6.575200e+01	-1.482190e+01
6.613178e+01	-1.487103e+01
6.651375e+01	-1.491944e+01
6.689793e+01	-1.496755e+01
6.728433e+01	-1.501489e+01
6.767297e+01	-1.506445e+01
6.806384e+01	-1.511147e+01
6.845698e+01	-1.516109e+01
6.885238e+01	-1.520974e+01
6.925007e+01	-1.525877e+01
6.965005e+01	-1.530602e+01
7.005235e+01	-1.535641e+01
7.045697e+01	-1.540419e+01
7.086393e+01	-1.545245e+01
7.127323e+01	-1.550163e+01
7.168490e+01	-1.555036e+01
7.209895e+01	-1.559844e+01
7.251539e+01	-1.564850e+01
7.293424e+01	-1.569582e+01
7.335551e+01	-1.574477e+01
7.377920e+01	-1.579338e+01
7.420535e+01	-1.584233e+01
7.463396e+01	-1.589109e+01
7.506504e+01	-1.593999e+01
7.549861e+01	-1.598875e+01
7.593469e+01	-1.603706e+01
7.637328e+01	-1.608495e+01
7.681441e+01	-1.613478e+01
7.725809e+01	-1.618301e+01
7.770433e+01	-1.623143e+01
7.815315e+01	-1.628046e+01
7.860456e+01	-1.633072e+01
7.905857e+01	-1.637858e+01
7.951521e+01	-1.642828e+01
7.997449e+01	-1.647662e+01
8.043642e+01	-1.652591e+01
8.090102e+01	-1.657385e+01
8.136830e+01	-1.662267e+01
8.183828e+01	-1.667122e+01
8.231097e+01	-1.672172e+01
8.278640e+01	-1.676952e+01
8.326457e+01	-1.681821e+01
8.374550e+01	-1.686867e+01
8.422921e+01	-1.691730e+01
8.471572e+01	-1.696711e+01
8.520503e+01	-1.701546e+01
8.569717e+01	-1.706503e+01
8.619215e+01	-1.711376e+01
8.669000e+01	-1.716338e+01
8.719071e+01	-1.721092e+01
8.769432e+01	-1.726155e+01
8.820084e+01	-1.730941e+01
8.871029e+01	-1.735968e+01
8.922267e+01	-1.740765e+01
8.973802e+01	-1.745813e+01
9.025634e+01	-1.750698e+01
9.077766e+01	-1.755429e+01
9.130199e+01	-1.760522e+01
9.182935e+01	-1.765292e+01
9.235975e+01	-1.770272e+01
9.289321e+01	-1.775362e+01
9.342976e+01	-1.779985e+01
9.396941e+01	-1.784917e+01
9.451217e+01	-1.789939e+01
9.505807e+01	-1.794860e+01
9.560712e+01	-1.799790e+01
9.615934e+01	-1.804592e+01
9.671476e+01	-1.809711e+01
9.727338e+01	-1.814488e+01
9.783522e+01	-1.819446e+01
9.840032e+01	-1.824377e+01
9.896867e+01	-1.829391e+01
9.954031e+01	-1.834348e+01
1.001153e+02	-1.839385e+01
1.006935e+02	-1.844214e+01
1.012751e+02	-1.849142e+01
1.018601e+02	-1.853958e+01
1.024484e+02	-1.859005e+01
1.030402e+02	-1.863760e+01
1.036353e+02	-1.868746e+01
1.042339e+02	-1.873767e+01
1.048360e+02	-1.878720e+01
1.054415e+02	-1.883738e+01
1.060505e+02	-1.888620e+01
1.066631e+02	-1.893574e+01
1.072791e+02	-1.898610e+01
1.078988e+02	-1.903558e+01
1.085220e+02	-1.908272e+01
1.091488e+02	-1.913319e+01
1.097793e+02	-1.918195e+01
1.104133e+02	-1.923224e+01
1.110511e+02	-1.928104e+01
1.116925e+02	-1.933111e+01
1.123376e+02	-1.938099e+01
1.129865e+02	-1.942969e+01
1.136391e+02	-1.947770e+01
1.142955e+02	-1.952756e+01
1.149556e+02	-1.957802e+01
1.156196e+02	-1.962711e+01
1.162874e+02	-1.967783e+01
1.169591e+02	-1.972578e+01
1.176347e+02	-1.977620e+01
1.183141e+02	-1.982450e+01
1.189975e+02	-1.987394e+01
1.196848e+02	-1.992366e+01
1.203761e+02	-1.997445e+01
1.210714e+02	-2.002512e+01
1.217707e+02	-2.007307e+01
1.224740e+02	-2.012252e+01
1.231814e+02	-2.017238e+01
1.238929e+02	-2.021936e+01
1.246085e+02	-2.027160e+01
1.253283e+02	-2.032160e+01
1.260522e+02	-2.037076e+01
1.267802e+02	-2.042008e+01
1.275125e+02	-2.046905e+01
1.282490e+02	-2.051781e+01
1.289898e+02	-2.056848e+01
1.297348e+02	-2.061883e+01
1.304842e+02	-2.066868e+01
1.312378e+02	-2.071904e+01
1.319959e+02	-2.076796e+01
1.327583e+02	-2.081604e+01
1.335251e+02	-2.086530e+01
1.342963e+02	-2.091471e+01
1.350720e+02	-2.096578e+01
1.358522e+02	-2.101455e+01
1.366368e+02	-2.106439e+01
1.374260e+02	-2.111614e+01
1.382198e+02	-2.116509e+01
1.390182e+02	-2.121588e+01
1.398211e+02	-2.126559e+01
1.406287e+02	-2.131453e+01
1.414410e+02	-2.136320e+01
1.422579e+02	-2.141279e+01
1.430796e+02	-2.146322e+01
1.439060e+02	-2.151410e+01
1.447372e+02	-2.156320e+01
1.455732e+02	-2.161104e+01
1.464141e+02	-2.166055e+01
1.472597e+02	-2.171028e+01
1.481103e+02	-2.176125e+01
1.489658e+02	-2.181078e+01
1.498262e+02	-2.186084e+01
1.506916e+02	-2.190935e+01
1.515620e+02	-2.195990e+01
1.524374e+02	-2.201103e+01
1.533179e+02	-2.205884e+01
1.542034e+02	-2.210923e+01
1.550941e+02	-2.215862e+01
1.559899e+02	-2.220578e+01
1.568909e+02	-2.225936e+01
1.577971e+02	-2.230847e+01
1.587085e+02	-2.235842e+01
1.596252e+02	-2.240689e+01
1.605472e+02	-2.245637e+01
1.614745e+02	-2.250845e+01
1.624072e+02	-2.255626e+01
1.633453e+02	-2.260673e+01
1.642887e+02	-2.265472e+01
1.652377e+02	-2.270422e+01
1.661921e+02	-2.275544e+01
1.671520e+02	-2.280704e+01
1.681175e+02	-2.285433e+01
1.690885e+02	-2.290669e+01
1.700651e+02	-2.295385e+01
1.710474e+02	-2.300415e+01
1.720354e+02	-2.305424e+01
1.730291e+02	-2.310417e+01
1.740285e+02	-2.315362e+01
1.750337e+02	-2.320462e+01
1.760446e+02	-2.325358e+01
1.770615e+02	-2.330433e+01
1.780842e+02	-2.335383e+01
1.791128e+02	-2.340302e+01
1.801473e+02	-2.345225e+01
1.811878e+02	-2.350406e+01
1.822344e+02	-2.355335e+01
1.832870e+02	-2.360117e+01
1.843456e+02	-2.365163e+01
1.854104e+02	-2.370147e+01
1.864813e+02	-2.375133e+01
1.875584e+02	-2.380209e+01
1.886418e+02	-2.385233e+01
1.897313e+02	-2.389964e+01
1.908272e+02	-2.395054e+01
1.919294e+02	-2.400433e+01
1.930380e+02	-2.404990e+01
1.941530e+02	-2.410028e+01
1.952744e+02	-2.414968e+01
1.964023e+02	-2.419993e+01
1.975367e+02	-2.424986e+01
1.986777e+02	-2.430154e+01
1.998252e+02	-2.435120e+01
2.009794e+02	-2.439879e+01
2.021403e+02	-2.445050e+01
2.033078e+02	-2.449763e+01
2.044821e+02	-2.454734e+01
2.056632e+02	-2.460062e+01
2.068511e+02	-2.464775e+01
2.080459e+02	-2.469985e+01
2.092475e+02	-2.474863e+01
2.104561e+02	-2.480017e+01
2.116717e+02	-2.484742e+01
2.128943e+02	-2.489900e+01
2.141240e+02	-2.495262e+01
2.153608e+02	-2.499894e+01
2.166047e+02	-2.505064e+01
2.178558e+02	-2.509820e+01
2.191141e+02	-2.514780e+01
2.203797e+02	-2.520048e+01
2.216526e+02	-2.524704e+01
2.229329e+02	-2.529696e+01
2.242205e+02	-2.535246e+01
2.255156e+02	-2.539687e+01
2.268182e+02	-2.544903e+01
2.281283e+02	-2.549852e+01
2.294459e+02	-2.554800e+01
2.307712e+02	-2.559899e+01
2.321041e+02	-2.565007e+01
2.334447e+02	-2.569844e+01
2.347931e+02	-2.575050e+01
2.361493e+02	-2.579287e+01
2.375133e+02	-2.584852e+01
2.388851e+02	-2.589855e+01
2.402649e+02	-2.594633e+01
2.416527e+02	-2.600102e+01
2.430484e+02	-2.604450e+01
2.444523e+02	-2.609711e+01
2.458642e+02	-2.614710e+01
2.472843e+02	-2.619848e+01
2.487126e+02	-2.624805e+01
2.501492e+02	-2.630008e+01
2.515940e+02	-2.634675e+01
2.530472e+02	-2.639705e+01
2.545088e+02	-2.644473e+01
2.559789e+02	-2.649873e+01
2.574574e+02	-2.654785e+01
2.589444e+02	-2.659550e+01
2.604401e+02	-2.664930e+01
2.619444e+02	-2.669470e+01
2.634574e+02	-2.674885e+01
2.649791e+02	-2.679853e+01
2.665096e+02	-2.684919e+01
2.680489e+02	-2.689824e+01
2.695972e+02	-2.694441e+01
2.711544e+02	-2.699584e+01
2.727205e+02	-2.704838e+01
2.742958e+02	-2.709491e+01
2.758801e+02	-2.714380e+01
2.774736e+02	-2.719512e+01
2.790762e+02	-2.724609e+01
2.806882e+02	-2.729638e+01
2.823094e+02	-2.734530e+01
2.839400e+02	-2.739440e+01
2.855800e+02	-2.744675e+01
2.872295e+02	-2.750031e+01
2.888886e+02	-2.754678e+01
2.905572e+02	-2.759534e+01
2.922354e+02	-2.764670e+01
2.939234e+02	-2.769939e+01
2.956211e+02	-2.774449e+01
2.973286e+02	-2.779445e+01
2.990459e+02	-2.784434e+01
3.007732e+02	-2.789635e+01
3.025104e+02	-2.794764e+01
3.042577e+02	-2.799684e+01
3.060151e+02	-2.804446e+01
3.077826e+02	-2.809374e+01
3.095604e+02	-2.814757e+01
3.113484e+02	-2.819270e+01
3.131467e+02	-2.824528e+01
3.149554e+02	-2.829729e+01
3.167746e+02	-2.834837e+01
3.186043e+02	-2.839042e+01
3.204445e+02	-2.844901e+01
3.222954e+02	-2.849900e+01
3.241570e+02	-2.854571e+01
3.260293e+02	-2.859525e+01
3.279124e+02	-2.864979e+01
3.298064e+02	-2.870355e+01
3.317114e+02	-2.874649e+01
3.336273e+02	-2.880292e+01
3.355544e+02	-2.884721e+01
3.374925e+02	-2.890027e+01
3.394418e+02	-2.894997e+01
3.414024e+02	-2.899573e+01
3.433744e+02	-2.904830e+01
3.453577e+02	-2.910056e+01
3.473525e+02	-2.914753e+01
3.493588e+02	-2.919791e+01
3.513766e+02	-2.924839e+01
3.534062e+02	-2.930135e+01
3.554474e+02	-2.934721e+01
3.575005e+02	-2.940078e+01
3.595654e+02	-2.944899e+01
3.616422e+02	-2.949743e+01
3.637311e+02	-2.954873e+01
3.658320e+02	-2.959538e+01
3.679450e+02	-2.964684e+01
3.700702e+02	-2.969849e+01
3.722077e+02	-2.974987e+01
3.743576e+02	-2.979772e+01
3.765199e+02	-2.984912e+01
3.786946e+02	-2.989729e+01
3.808820e+02	-2.995395e+01
3.830819e+02	-2.999939e+01
3.852946e+02	-3.005237e+01
3.875200e+02	-3.009647e+01
3.897583e+02	-3.015362e+01
3.920096e+02	-3.019932e+01
3.942738e+02	-3.024866e+01
3.965511e+02	-3.030549e+01
3.988416e+02	-3.035616e+01
4.011452e+02	-3.039783e+01
4.034622e+02	-3.045218e+01
4.057926e+02	-3.049727e+01
4.081365e+02	-3.055017e+01
4.104938e+02	-3.060178e+01
4.128648e+02	-3.065209e+01
4.152495e+02	-3.070128e+01
4.176480e+02	-3.074841e+01
4.200603e+02	-3.080577e+01
4.224866e+02	-3.085842e+01
4.249268e+02	-3.090566e+01
4.273812e+02	-3.094941e+01
4.298497e+02	-3.100196e+01
4.323325e+02	-3.105429e+01
4.348297e+02	-3.110015e+01
4.373412e+02	-3.115366e+01
4.398673e+02	-3.119999e+01
4.424079e+02	-3.125597e+01
4.449633e+02	-3.130037e+01
4.475334e+02	-3.135817e+01
4.501183e+02	-3.140838e+01
4.527182e+02	-3.145466e+01
4.553330e+02	-3.151160e+01
4.579630e+02	-3.155487e+01
4.606082e+02	-3.160534e+01
4.632687e+02	-3.165280e+01
4.659445e+02	-3.170155e+01
4.686358e+02	-3.175798e+01
4.713426e+02	-3.180827e+01
4.740650e+02	-3.185305e+01
4.768032e+02	-3.190814e+01
4.795572e+02	-3.194884e+01
4.823271e+02	-3.201261e+01
4.851130e+02	-3.205735e+01
4.879150e+02	-3.210216e+01
4.907332e+02	-3.215511e+01
4.935676e+02	-3.220959e+01
4.964185e+02	-3.225727e+01
4.992858e+02	-3.230063e+01
5.021696e+02	-3.235978e+01
5.050701e+02	-3.240789e+01
5.079874e+02	-3.246023e+01
5.109215e+02	-3.251322e+01
5.138726e+02	-3.255099e+01
5.168407e+02	-3.260558e+01
5.198259e+02	-3.265833e+01
5.228284e+02	-3.270789e+01
5.258482e+02	-3.276220e+01
5.288855e+02	-3.280840e+01
5.319403e+02	-3.285987e+01
5.350128e+02	-3.291384e+01
5.381030e+02	-3.295943e+01
5.412111e+02	-3.300403e+01
5.443371e+02	-3.305433e+01
5.474812e+02	-3.311006e+01
5.506434e+02	-3.316562e+01
5.538239e+02	-3.320527e+01
5.570228e+02	-3.325491e+01
5.602401e+02	-3.331378e+01
5.634760e+02	-3.336485e+01
5.667306e+02	-3.341717e+01
5.700040e+02	-3.346046e+01
5.732964e+02	-3.350924e+01
5.766077e+02	-3.356941e+01
5.799382e+02	-3.361074e+01
5.832879e+02	-3.365748e+01
5.866569e+02	-3.371452e+01
5.900454e+02	-3.377088e+01
5.934535e+02	-3.382152e+01
5.968813e+02	-3.386512e+01
6.003288e+02	-3.391821e+01
6.037963e+02	-3.396817e+01
6.072838e+02	-3.401922e+01
6.107914e+02	-3.407098e+01
6.143194e+02	-3.411717e+01
6.178676e+02	-3.417185e+01
6.214364e+02	-3.421569e+01
6.250258e+02	-3.426821e+01
6.286359e+02	-3.432187e+01
6.322669e+02	-3.436745e+01
6.359189e+02	-3.442093e+01
6.395919e+02	-3.447078e+01
6.432862e+02	-3.452617e+01
6.470017e+02	-3.456562e+01
6.507388e+02	-3.462733e+01
6.544974e+02	-3.467692e+01
6.582778e+02	-3.471973e+01
6.620800e+02	-3.477672e+01
6.659041e+02	-3.481757e+01
6.697504e+02	-3.486550e+01
6.736188e+02	-3.493305e+01
6.775096e+02	-3.497551e+01
6.814229e+02	-3.502467e+01
6.853587e+02	-3.507719e+01
6.893173e+02	-3.512869e+01
6.932988e+02	-3.517268e+01
6.973033e+02	-3.521999e+01
7.013309e+02	-3.527000e+01
