Frequency(Hz)	Magnitude(dB)
1.000000e+01	-2.463257e+00
1.005776e+01	-2.484914e+00
1.011585e+01	-2.506831e+00
1.017428e+01	-2.528713e+00
1.023305e+01	-2.550979e+00
1.029215e+01	-2.572985e+00
1.035160e+01	-2.595726e+00
1.041139e+01	-2.618238e+00
1.047153e+01	-2.641051e+00
1.053201e+01	-2.663812e+00
1.059284e+01	-2.686979e+00
1.065403e+01	-2.709970e+00
1.071556e+01	-2.733342e+00
1.077746e+01	-2.756839e+00
1.083971e+01	-2.780371e+00
1.090232e+01	-2.804211e+00
1.096529e+01	-2.828033e+00
1.102862e+01	-2.851760e+00
1.109232e+01	-2.876043e+00
1.115639e+01	-2.900316e+00
1.122083e+01	-2.924788e+00
1.128564e+01	-2.949425e+00
1.135083e+01	-2.974164e+00
1.141639e+01	-2.999057e+00
1.148233e+01	-3.023988e+00
1.154865e+01	-3.049135e+00
1.161536e+01	-3.074525e+00
1.168245e+01	-3.100106e+00
1.174992e+01	-3.125638e+00
1.181779e+01	-3.151421e+00
1.188605e+01	-3.177076e+00
1.195470e+01	-3.203324e+00
1.202375e+01	-3.229423e+00
1.209320e+01	-3.255782e+00
1.216305e+01	-3.282346e+00
1.223330e+01	-3.308761e+00
1.230396e+01	-3.335491e+00
1.237503e+01	-3.362410e+00
1.244651e+01	-3.389614e+00
1.251840e+01	-3.416656e+00
1.259070e+01	-3.443927e+00
1.266343e+01	-3.471583e+00
1.273657e+01	-3.498991e+00
1.281014e+01	-3.526596e+00
1.288413e+01	-3.554390e+00
1.295855e+01	-3.582834e+00
1.303339e+01	-3.610769e+00
1.310867e+01	-3.639250e+00
1.318439e+01	-3.667433e+00
1.326054e+01	-3.696143e+00
1.333713e+01	-3.724883e+00
1.341417e+01	-3.753680e+00
1.349165e+01	-3.782670e+00
1.356958e+01	-3.812159e+00
1.364795e+01	-3.841131e+00
1.372678e+01	-3.870691e+00
1.380607e+01	-3.900334e+00
1.388581e+01	-3.930121e+00
1.396602e+01	-3.959732e+00
1.404668e+01	-3.989811e+00
1.412782e+01	-4.020045e+00
1.420942e+01	-4.050074e+00
1.429149e+01	-4.080441e+00
1.437404e+01	-4.111380e+00
1.445706e+01	-4.142109e+00
1.454057e+01	-4.172656e+00
1.462455e+01	-4.203637e+00
1.470902e+01	-4.234911e+00
1.479398e+01	-4.266069e+00
1.487943e+01	-4.297577e+00
1.496537e+01	-4.328906e+00
1.505181e+01	-4.360193e+00
1.513875e+01	-4.392134e+00
1.522619e+01	-4.423852e+00
1.531414e+01	-4.456253e+00
1.540259e+01	-4.488157e+00
1.549156e+01	-4.520513e+00
1.558103e+01	-4.553155e+00
1.567103e+01	-4.585612e+00
1.576155e+01	-4.618207e+00
1.585258e+01	-4.650803e+00
1.594415e+01	-4.683876e+00
1.603624e+01	-4.717047e+00
1.612886e+01	-4.750671e+00
1.622202e+01	-4.783486e+00
1.631572e+01	-4.816883e+00
1.640996e+01	-4.850930e+00
1.650474e+01	-4.884523e+00
1.660008e+01	-4.918145e+00
1.669596e+01	-4.952241e+00
1.679239e+01	-4.986273e+00
1.688938e+01	-5.020526e+00
1.698694e+01	-5.054616e+00
1.708505e+01	-5.089432e+00
1.718373e+01	-5.124023e+00
1.728299e+01	-5.158832e+00
1.738281e+01	-5.193683e+00
1.748322e+01	-5.228357e+00
1.758420e+01	-5.263482e+00
1.768576e+01	-5.298871e+00
1.778792e+01	-5.333902e+00
1.789066e+01	-5.369503e+00
1.799399e+01	-5.404810e+00
1.809793e+01	-5.440934e+00
1.820246e+01	-5.476657e+00
1.830760e+01	-5.512249e+00
1.841334e+01	-5.548546e+00
1.851969e+01	-5.584554e+00
1.862666e+01	-5.620694e+00
1.873425e+01	-5.657171e+00
1.884246e+01	-5.693758e+00
1.895129e+01	-5.730226e+00
1.906075e+01	-5.767195e+00
1.917085e+01	-5.803955e+00
1.928158e+01	-5.840494e+00
1.939295e+01	-5.878131e+00
1.950496e+01	-5.915015e+00
1.961762e+01	-5.952165e+00
1.973093e+01	-5.989788e+00
1.984490e+01	-6.027165e+00
1.995952e+01	-6.064308e+00
2.007480e+01	-6.102528e+00
2.019076e+01	-6.140033e+00
2.030738e+01	-6.177818e+00
2.042467e+01	-6.215648e+00
2.054264e+01	-6.254174e+00
2.066130e+01	-6.292542e+00
2.078064e+01	-6.330903e+00
2.090066e+01	-6.369331e+00
2.102139e+01	-6.408019e+00
2.114280e+01	-6.446508e+00
2.126492e+01	-6.484616e+00
2.138775e+01	-6.524031e+00
2.151128e+01	-6.562824e+00
2.163553e+01	-6.602008e+00
2.176050e+01	-6.641371e+00
2.188619e+01	-6.680288e+00
2.201260e+01	-6.719478e+00
2.213974e+01	-6.759251e+00
2.226762e+01	-6.798507e+00
2.239624e+01	-6.838443e+00
2.252560e+01	-6.877876e+00
2.265571e+01	-6.917964e+00
2.278656e+01	-6.957619e+00
2.291818e+01	-6.997333e+00
2.305055e+01	-7.037434e+00
2.318369e+01	-7.078110e+00
2.331760e+01	-7.117917e+00
2.345228e+01	-7.158265e+00
2.358774e+01	-7.199064e+00
2.372398e+01	-7.239539e+00
2.386101e+01	-7.279964e+00
2.399883e+01	-7.320928e+00
2.413745e+01	-7.361365e+00
2.427686e+01	-7.402480e+00
2.441709e+01	-7.443370e+00
2.455812e+01	-7.484454e+00
2.469997e+01	-7.525880e+00
2.484263e+01	-7.566831e+00
2.498612e+01	-7.608291e+00
2.513044e+01	-7.649670e+00
2.527559e+01	-7.691156e+00
2.542158e+01	-7.732517e+00
2.556842e+01	-7.773929e+00
2.571610e+01	-7.815910e+00
2.586463e+01	-7.857343e+00
2.601403e+01	-7.900127e+00
2.616428e+01	-7.941187e+00
2.631541e+01	-7.983810e+00
2.646740e+01	-8.025600e+00
2.662028e+01	-8.068154e+00
2.677404e+01	-8.110355e+00
2.692868e+01	-8.152334e+00
2.708422e+01	-8.194898e+00
2.724066e+01	-8.237404e+00
2.739800e+01	-8.279924e+00
2.755625e+01	-8.322716e+00
2.771541e+01	-8.365223e+00
2.787550e+01	-8.408071e+00
2.803650e+01	-8.450901e+00
2.819844e+01	-8.493975e+00
2.836131e+01	-8.536594e+00
2.852513e+01	-8.579855e+00
2.868989e+01	-8.622719e+00
2.885560e+01	-8.666306e+00
2.902227e+01	-8.709545e+00
2.918990e+01	-8.752998e+00
2.935850e+01	-8.796249e+00
2.952807e+01	-8.839914e+00
2.969863e+01	-8.883438e+00
2.987016e+01	-8.926775e+00
3.004269e+01	-8.970472e+00
3.021622e+01	-9.013865e+00
3.039075e+01	-9.058126e+00
3.056628e+01	-9.101374e+00
3.074283e+01	-9.145831e+00
3.092040e+01	-9.189413e+00
3.109900e+01	-9.233706e+00
3.127862e+01	-9.277801e+00
3.145929e+01	-9.321480e+00
3.164099e+01	-9.366031e+00
3.182375e+01	-9.410414e+00
3.200756e+01	-9.454817e+00
3.219244e+01	-9.498682e+00
3.237838e+01	-9.543389e+00
3.256540e+01	-9.587830e+00
3.275349e+01	-9.632596e+00
3.294268e+01	-9.677204e+00
3.313295e+01	-9.721993e+00
3.332433e+01	-9.766379e+00
3.351681e+01	-9.811703e+00
3.371040e+01	-9.855689e+00
3.390511e+01	-9.900817e+00
3.410094e+01	-9.945936e+00
3.429791e+01	-9.990672e+00
3.449601e+01	-1.003593e+01
3.469526e+01	-1.008064e+01
3.489566e+01	-1.012622e+01
3.509721e+01	-1.017085e+01
3.529993e+01	-1.021663e+01
3.550382e+01	-1.026206e+01
3.570889e+01	-1.030709e+01
3.591515e+01	-1.035277e+01
3.612259e+01	-1.039855e+01
3.633123e+01	-1.044354e+01
3.654108e+01	-1.048871e+01
3.675214e+01	-1.053490e+01
3.696442e+01	-1.058063e+01
3.717792e+01	-1.062599e+01
3.739266e+01	-1.067142e+01
3.760864e+01	-1.071793e+01
3.782587e+01	-1.076329e+01
3.804435e+01	-1.080873e+01
3.826409e+01	-1.085479e+01
3.848510e+01	-1.090164e+01
3.870739e+01	-1.094653e+01
3.893096e+01	-1.099242e+01
3.915583e+01	-1.103908e+01
3.938199e+01	-1.108573e+01
3.960946e+01	-1.113143e+01
3.983824e+01	-1.117686e+01
4.006834e+01	-1.122338e+01
4.029978e+01	-1.127001e+01
4.053255e+01	-1.131654e+01
4.076666e+01	-1.136252e+01
4.100213e+01	-1.140916e+01
4.123896e+01	-1.145521e+01
4.147715e+01	-1.150208e+01
4.171672e+01	-1.154825e+01
4.195767e+01	-1.159496e+01
4.220002e+01	-1.164211e+01
4.244377e+01	-1.168831e+01
4.268892e+01	-1.173477e+01
4.293549e+01	-1.178133e+01
4.318348e+01	-1.182777e+01
4.343291e+01	-1.187501e+01
4.368377e+01	-1.192168e+01
4.393609e+01	-1.196927e+01
4.418986e+01	-1.201549e+01
4.444510e+01	-1.206300e+01
4.470182e+01	-1.210984e+01
4.496001e+01	-1.215622e+01
4.521970e+01	-1.220400e+01
4.548089e+01	-1.224996e+01
4.574358e+01	-1.229799e+01
4.600779e+01	-1.234383e+01
4.627353e+01	-1.239131e+01
4.654081e+01	-1.243868e+01
4.680963e+01	-1.248633e+01
4.708000e+01	-1.253361e+01
4.735193e+01	-1.257998e+01
4.762543e+01	-1.262712e+01
4.790051e+01	-1.267420e+01
4.817719e+01	-1.272210e+01
4.845545e+01	-1.276954e+01
4.873533e+01	-1.281720e+01
4.901682e+01	-1.286433e+01
4.929994e+01	-1.291147e+01
4.958470e+01	-1.295980e+01
4.987110e+01	-1.300637e+01
5.015915e+01	-1.305425e+01
5.044887e+01	-1.310197e+01
5.074026e+01	-1.314982e+01
5.103333e+01	-1.319715e+01
5.132810e+01	-1.324562e+01
5.162457e+01	-1.329256e+01
5.192275e+01	-1.334002e+01
5.222265e+01	-1.338810e+01
5.252429e+01	-1.343605e+01
5.282767e+01	-1.348334e+01
5.313280e+01	-1.353136e+01
5.343969e+01	-1.357933e+01
5.374836e+01	-1.362759e+01
5.405880e+01	-1.367459e+01
5.437105e+01	-1.372262e+01
5.468509e+01	-1.377082e+01
5.500095e+01	-1.381832e+01
5.531863e+01	-1.386658e+01
5.563815e+01	-1.391471e+01
5.595951e+01	-1.396307e+01
5.628273e+01	-1.401091e+01
5.660782e+01	-1.405889e+01
5.693479e+01	-1.410633e+01
5.726364e+01	-1.415458e+01
5.759439e+01	-1.420299e+01
5.792705e+01	-1.425122e+01
5.826164e+01	-1.429874e+01
5.859815e+01	-1.434813e+01
5.893662e+01	-1.439612e+01
5.927703e+01	-1.444406e+01
5.961941e+01	-1.449208e+01
5.996377e+01	-1.454057e+01
6.031012e+01	-1.458856e+01
6.065847e+01	-1.463667e+01
6.100883e+01	-1.468534e+01
6.136121e+01	-1.473439e+01
6.171563e+01	-1.478180e+01
6.207210e+01	-1.483008e+01
6.243063e+01	-1.487876e+01
6.279122e+01	-1.492768e+01
6.315390e+01	-1.497525e+01
6.351868e+01	-1.502386e+01
6.388556e+01	-1.507228e+01
6.425456e+01	-1.512033e+01
6.462569e+01	-1.516899e+01
6.499897e+01	-1.521779e+01
6.537440e+01	-1.526764e+01
6.575200e+01	-1.531475e+01
6.613178e+01	-1.536329e+01
6.651375e+01	-1.541244e+01
6.689793e+01	-1.546127e+01
6.728433e+01	-1.550902e+01
6.767297e+01	-1.555708e+01
6.806384e+01	-1.560727e+01
6.845698e+01	-1.565564e+01
6.885238e+01	-1.570469e+01
6.925007e+01	-1.575262e+01
6.965005e+01	-1.580160e+01
7.005235e+01	-1.585048e+01
7.045697e+01	-1.589848e+01
7.086393e+01	-1.594792e+01
7.127323e+01	-1.599574e+01
7.168490e+01	-1.604442e+01
7.209895e+01	-1.609375e+01
7.251539e+01	-1.614226e+01
7.293424e+01	-1.619071e+01
7.335551e+01	-1.624032e+01
7.377920e+01	-1.629076e+01
7.420535e+01	-1.633880e+01
7.463396e+01	-1.638754e+01
7.506504e+01	-1.643678e+01
7.549861e+01	-1.648488e+01
7.593469e+01	-1.653397e+01
7.637328e+01	-1.658247e+01
7.681441e+01	-1.663066e+01
7.725809e+01	-1.668051e+01
7.770433e+01	-1.672931e+01
7.815315e+01	-1.677796e+01
7.860456e+01	-1.682918e+01
7.905857e+01	-1.687688e+01
7.951521e+01	-1.692466e+01
7.997449e+01	-1.697452e+01
8.043642e+01	-1.702323e+01
8.090102e+01	-1.707297e+01
8.136830e+01	-1.712178e+01
8.183828e+01	-1.717048e+01
8.231097e+01	-1.721911e+01
8.278640e+01	-1.726942e+01
8.326457e+01	-1.731894e+01
8.374550e+01	-1.736623e+01
8.422921e+01	-1.741625e+01
8.471572e+01	-1.746496e+01
8.520503e+01	-1.751381e+01
8.569717e+01	-1.756422e+01
8.619215e+01	-1.761227e+01
8.669000e+01	-1.766082e+01
8.719071e+01	-1.771159e+01
8.769432e+01	-1.775865e+01
8.820084e+01	-1.780974e+01
8.871029e+01	-1.785890e+01
8.922267e+01	-1.790783e+01
8.973802e+01	-1.795745e+01
9.025634e+01	-1.800674e+01
9.077766e+01	-1.805616e+01
9.130199e+01	-1.810549e+01
9.182935e+01	-1.815340e+01
9.235975e+01	-1.820430e+01
9.289321e+01	-1.825205e+01
9.342976e+01	-1.830265e+01
9.396941e+01	-1.835033e+01
9.451217e+01	-1.840193e+01
9.505807e+01	-1.844995e+01
9.560712e+01	-1.849898e+01
9.615934e+01	-1.855038e+01
9.671476e+01	-1.859825e+01
9.727338e+01	-1.864620e+01
9.783522e+01	-1.869643e+01
9.840032e+01	-1.874855e+01
9.896867e+01	-1.879609e+01
9.954031e+01	-1.884398e+01
1.001153e+02	-1.889322e+01
1.006935e+02	-1.894333e+01
1.012751e+02	-1.899305e+01
1.018601e+02	-1.904151e+01
1.024484e+02	-1.909085e+01
1.030402e+02	-1.914178e+01
1.036353e+02	-1.919027e+01
1.042339e+02	-1.924046e+01
1.048360e+02	-1.928885e+01
1.054415e+02	-1.933837e+01
1.060505e+02	-1.938914e+01
1.066631e+02	-1.943695e+01
1.072791e+02	-1.948673e+01
1.078988e+02	-1.953681e+01
1.085220e+02	-1.958574e+01
1.091488e+02	-1.963690e+01
1.097793e+02	-1.968630e+01
1.104133e+02	-1.973526e+01
1.110511e+02	-1.978520e+01
1.116925e+02	-1.983413e+01
1.123376e+02	-1.988302e+01
1.129865e+02	-1.993158e+01
1.136391e+02	-1.998325e+01
1.142955e+02	-2.003295e+01
1.149556e+02	-2.008254e+01
1.156196e+02	-2.013183e+01
1.162874e+02	-2.017972e+01
1.169591e+02	-2.023156e+01
1.176347e+02	-2.027959e+01
1.183141e+02	-2.032785e+01
1.189975e+02	-2.037835e+01
1.196848e+02	-2.042962e+01
1.203761e+02	-2.047837e+01
1.210714e+02	-2.052901e+01
1.217707e+02	-2.057834e+01
1.224740e+02	-2.062622e+01
1.231814e+02	-2.067524e+01
1.238929e+02	-2.072540e+01
1.246085e+02	-2.077688e+01
1.253283e+02	-2.082573e+01
1.260522e+02	-2.087550e+01
1.267802e+02	-2.092369e+01
1.275125e+02	-2.097479e+01
1.282490e+02	-2.102359e+01
1.289898e+02	-2.107424e+01
1.297348e+02	-2.112461e+01
1.304842e+02	-2.117272e+01
1.312378e+02	-2.122352e+01
1.319959e+02	-2.127384e+01
1.327583e+02	-2.132022e+01
1.335251e+02	-2.137129e+01
1.342963e+02	-2.142012e+01
1.350720e+02	-2.147246e+01
1.358522e+02	-2.152028e+01
1.366368e+02	-2.156923e+01
1.374260e+02	-2.161980e+01
1.382198e+02	-2.166920e+01
1.390182e+02	-2.171942e+01
1.398211e+02	-2.176940e+01
1.406287e+02	-2.181792e+01
1.414410e+02	-2.186926e+01
1.422579e+02	-2.191911e+01
1.430796e+02	-2.196701e+01
1.439060e+02	-2.201961e+01
1.447372e+02	-2.206623e+01
1.455732e+02	-2.211696e+01
1.464141e+02	-2.216771e+01
1.472597e+02	-2.221578e+01
1.481103e+02	-2.226639e+01
1.489658e+02	-2.231513e+01
1.498262e+02	-2.236457e+01
1.506916e+02	-2.241632e+01
1.515620e+02	-2.246457e+01
1.524374e+02	-2.251392e+01
1.533179e+02	-2.256512e+01
1.542034e+02	-2.261548e+01
1.550941e+02	-2.266408e+01
1.559899e+02	-2.271399e+01
1.568909e+02	-2.276553e+01
1.577971e+02	-2.281317e+01
1.587085e+02	-2.286437e+01
1.596252e+02	-2.291171e+01
1.605472e+02	-2.296227e+01
1.614745e+02	-2.301306e+01
1.624072e+02	-2.306033e+01
1.633453e+02	-2.311336e+01
1.642887e+02	-2.316165e+01
1.652377e+02	-2.321175e+01
1.661921e+02	-2.326150e+01
1.671520e+02	-2.331341e+01
1.681175e+02	-2.336153e+01
1.690885e+02	-2.341055e+01
1.700651e+02	-2.346087e+01
1.710474e+02	-2.351172e+01
1.720354e+02	-2.356194e+01
1.730291e+02	-2.361133e+01
1.740285e+02	-2.366039e+01
1.750337e+02	-2.370863e+01
1.760446e+02	-2.375938e+01
1.770615e+02	-2.380984e+01
1.780842e+02	-2.386022e+01
1.791128e+02	-2.391076e+01
1.801473e+02	-2.395915e+01
1.811878e+02	-2.400697e+01
1.822344e+02	-2.405955e+01
1.832870e+02	-2.410840e+01
1.843456e+02	-2.415917e+01
1.854104e+02	-2.420912e+01
1.864813e+02	-2.425976e+01
1.875584e+02	-2.430626e+01
1.886418e+02	-2.435795e+01
1.897313e+02	-2.440842e+01
1.908272e+02	-2.445855e+01
1.919294e+02	-2.451004e+01
1.930380e+02	-2.455678e+01
1.941530e+02	-2.461073e+01
1.952744e+02	-2.465796e+01
1.964023e+02	-2.470912e+01
1.975367e+02	-2.475663e+01
1.986777e+02	-2.480909e+01
1.998252e+02	-2.485672e+01
2.009794e+02	-2.490738e+01
2.021403e+02	-2.495810e+01
2.033078e+02	-2.500658e+01
2.044821e+02	-2.505657e+01
2.056632e+02	-2.510549e+01
2.068511e+02	-2.515813e+01
2.080459e+02	-2.520733e+01
2.092475e+02	-2.525510e+01
2.104561e+02	-2.530731e+01
2.116717e+02	-2.535530e+01
2.128943e+02	-2.540702e+01
2.141240e+02	-2.545481e+01
2.153608e+02	-2.550565e+01
2.166047e+02	-2.555669e+01
2.178558e+02	-2.560512e+01
2.191141e+02	-2.565299e+01
2.203797e+02	-2.570454e+01
2.216526e+02	-2.575494e+01
2.229329e+02	-2.580642e+01
2.242205e+02	-2.585381e+01
2.255156e+02	-2.590411e+01
2.268182e+02	-2.595333e+01
2.281283e+02	-2.600560e+01
2.294459e+02	-2.605286e+01
2.307712e+02	-2.610725e+01
2.321041e+02	-2.615550e+01
2.334447e+02	-2.620838e+01
2.347931e+02	-2.625362e+01
2.361493e+02	-2.630268e+01
2.375133e+02	-2.635732e+01
2.388851e+02	-2.640522e+01
2.402649e+02	-2.645434e+01
2.416527e+02	-2.650764e+01
2.430484e+02	-2.655487e+01
2.444523e+02	-2.660556e+01
2.458642e+02	-2.665370e+01
2.472843e+02	-2.670621e+01
2.487126e+02	-2.675514e+01
2.501492e+02	-2.680634e+01
2.515940e+02	-2.685577e+01
2.530472e+02	-2.690252e+01
2.545088e+02	-2.695651e+01
2.559789e+02	-2.700524e+01
2.574574e+02	-2.705558e+01
2.589444e+02	-2.710317e+01
2.604401e+02	-2.715717e+01
2.619444e+02	-2.720465e+01
2.634574e+02	-2.725697e+01
2.649791e+02	-2.730652e+01
2.665096e+02	-2.735736e+01
2.680489e+02	-2.740805e+01
2.695972e+02	-2.745735e+01
2.711544e+02	-2.750294e+01
2.727205e+02	-2.755520e+01
2.742958e+02	-2.760608e+01
2.758801e+02	-2.765637e+01
2.774736e+02	-2.770575e+01
2.790762e+02	-2.775364e+01
2.806882e+02	-2.780612e+01
2.823094e+02	-2.785577e+01
2.839400e+02	-2.790425e+01
2.855800e+02	-2.795629e+01
2.872295e+02	-2.800593e+01
2.888886e+02	-2.805548e+01
2.905572e+02	-2.810434e+01
2.922354e+02	-2.815487e+01
2.939234e+02	-2.820243e+01
2.956211e+02	-2.825236e+01
2.973286e+02	-2.830539e+01
2.990459e+02	-2.835692e+01
3.007732e+02	-2.840625e+01
3.025104e+02	-2.845725e+01
3.042577e+02	-2.850612e+01
3.060151e+02	-2.855894e+01
3.077826e+02	-2.860447e+01
3.095604e+02	-2.865782e+01
3.113484e+02	-2.870243e+01
3.131467e+02	-2.875780e+01
3.149554e+02	-2.881010e+01
3.167746e+02	-2.885581e+01
3.186043e+02	-2.890263e+01
3.204445e+02	-2.895415e+01
3.222954e+02	-2.900780e+01
3.241570e+02	-2.905994e+01
3.260293e+02	-2.911000e+01
3.279124e+02	-2.915714e+01
3.298064e+02	-2.920575e+01
3.317114e+02	-2.925992e+01
3.336273e+02	-2.930235e+01
3.355544e+02	-2.935688e+01
3.374925e+02	-2.940932e+01
3.394418e+02	-2.945992e+01
3.414024e+02	-2.950437e+01
3.433744e+02	-2.955559e+01
3.453577e+02	-2.960845e+01
3.473525e+02	-2.965687e+01
3.493588e+02	-2.970519e+01
3.513766e+02	-2.975736e+01
3.534062e+02	-2.980579e+01
3.554474e+02	-2.986165e+01
3.575005e+02	-2.990650e+01
3.595654e+02	-2.995564e+01
3.616422e+02	-3.001279e+01
3.637311e+02	-3.005474e+01
3.658320e+02	-3.011016e+01
3.679450e+02	-3.015720e+01
3.700702e+02	-3.020644e+01
3.722077e+02	-3.025840e+01
3.743576e+02	-3.030923e+01
3.765199e+02	-3.035620e+01
3.786946e+02	-3.041021e+01
3.808820e+02	-3.045841e+01
3.830819e+02	-3.050123e+01
3.852946e+02	-3.056135e+01
3.875200e+02	-3.060680e+01
3.897583e+02	-3.066128e+01
3.920096e+02	-3.070767e+01
3.942738e+02	-3.076053e+01
3.965511e+02	-3.081113e+01
3.988416e+02	-3.086464e+01
4.011452e+02	-3.090877e+01
4.034622e+02	-3.096140e+01
4.057926e+02	-3.100938e+01
4.081365e+02	-3.106224e+01
4.104938e+02	-3.111179e+01
4.128648e+02	-3.116752e+01
4.152495e+02	-3.121042e+01
4.176480e+02	-3.126413e+01
4.200603e+02	-3.130833e+01
4.224866e+02	-3.135569e+01
4.249268e+02	-3.141069e+01
4.273812e+02	-3.145160e+01
4.298497e+02	-3.151174e+01
4.323325e+02	-3.155534e+01
4.348297e+02	-3.161264e+01
4.373412e+02	-3.166066e+01
4.398673e+02	-3.170863e+01
4.424079e+02	-3.175991e+01
4.449633e+02	-3.181280e+01
4.475334e+02	-3.185902e+01
4.501183e+02	-3.191447e+01
4.527182e+02	-3.196009e+01
4.553330e+02	-3.201648e+01
4.579630e+02	-3.205901e+01
4.606082e+02	-3.211031e+01
4.632687e+02	-3.216588e+01
4.659445e+02	-3.221802e+01
4.686358e+02	-3.226336e+01
4.713426e+02	-3.231749e+01
4.740650e+02	-3.237031e+01
4.768032e+02	-3.241220e+01
4.795572e+02	-3.247249e+01
4.823271e+02	-3.252002e+01
4.851130e+02	-3.256181e+01
4.879150e+02	-3.262073e+01
4.907332e+02	-3.267005e+01
4.935676e+02	-3.271913e+01
4.964185e+02	-3.276923e+01
4.992858e+02	-3.281550e+01
5.021696e+02	-3.286377e+01
5.050701e+02	-3.291726e+01
5.079874e+02	-3.296535e+01
5.109215e+02	-3.302527e+01
5.138726e+02	-3.306835e+01
5.168407e+02	-3.310514e+01
5.198259e+02	-3.316775e+01
5.228284e+02	-3.321521e+01
5.258482e+02	-3.327076e+01
5.288855e+02	-3.331409e+01
5.319403e+02	-3.337219e+01
5.350128e+02	-3.341342e+01
5.381030e+02	-3.346641e+01
5.412111e+02	-3.351613e+01
5.443371e+02	-3.356661e+01
5.474812e+02	-3.362702e+01
5.506434e+02	-3.367649e+01
5.538239e+02	-3.371374e+01
5.570228e+02	-3.376101e+01
5.602401e+02	-3.382589e+01
5.634760e+02	-3.386773e+01
5.667306e+02	-3.392425e+01
5.700040e+02	-3.397285e+01
5.732964e+02	-3.402311e+01
5.766077e+02	-3.407595e+01
5.799382e+02	-3.412385e+01
5.832879e+02	-3.417331e+01
5.866569e+02	-3.422711e+01
5.900454e+02	-3.426978e+01
5.934535e+02	-3.432556e+01
5.968813e+02	-3.437536e+01
6.003288e+02	-3.443125e+01
6.037963e+02	-3.447799e+01
6.072838e+02	-3.452478e+01
6.107914e+02	-3.458091e+01
6.143194e+02	-3.463093e+01
6.178676e+02	-3.467758e+01
6.214364e+02	-3.472655e+01
6.250258e+02	-3.477909e+01
6.286359e+02	-3.483218e+01
6.322669e+02	-3.488260e+01
6.359189e+02	-3.493065e+01
6.395919e+02	-3.498206e+01
6.432862e+02	-3.502876e+01
6.470017e+02	-3.508044e+01
6.507388e+02	-3.513391e+01
6.544974e+02	-3.517563e+01
6.582778e+02	-3.523447e+01
6.620800e+02	-3.528168e+01
6.659041e+02	-3.533737e+01
6.697504e+02	-3.539219e+01
6.736188e+02	-3.542376e+01
6.775096e+02	-3.547873e+01
6.814229e+02	-3.554194e+01
6.853587e+02	-3.559194e+01
6.893173e+02	-3.563441e+01
6.932988e+02	-3.567847e+01
6.973033e+02	-3.572763e+01
7.013309e+02	-3.578661e+01
