Frequency(Hz)	Magnitude(dB)
1.000000e+01	-2.218240e+00
1.005776e+01	-2.238469e+00
1.011585e+01	-2.258697e+00
1.017428e+01	-2.279170e+00
1.023305e+01	-2.299360e+00
1.029215e+01	-2.320044e+00
1.035160e+01	-2.340755e+00
1.041139e+01	-2.361558e+00
1.047153e+01	-2.382919e+00
1.053201e+01	-2.404032e+00
1.059284e+01	-2.425154e+00
1.065403e+01	-2.446508e+00
1.071556e+01	-2.468256e+00
1.077746e+01	-2.490047e+00
1.083971e+01	-2.512051e+00
1.090232e+01	-2.534139e+00
1.096529e+01	-2.556259e+00
1.102862e+01	-2.578468e+00
1.109232e+01	-2.601077e+00
1.115639e+01	-2.623783e+00
1.122083e+01	-2.646570e+00
1.128564e+01	-2.669127e+00
1.135083e+01	-2.692655e+00
1.141639e+01	-2.715625e+00
1.148233e+01	-2.738930e+00
1.154865e+01	-2.762434e+00
1.161536e+01	-2.785978e+00
1.168245e+01	-2.809784e+00
1.174992e+01	-2.833735e+00
1.181779e+01	-2.857716e+00
1.188605e+01	-2.881927e+00
1.195470e+01	-2.906211e+00
1.202375e+01	-2.930849e+00
1.209320e+01	-2.955261e+00
1.216305e+01	-2.980223e+00
1.223330e+01	-3.004853e+00
1.230396e+01	-3.030001e+00
1.237503e+01	-3.055204e+00
1.244651e+01	-3.080648e+00
1.251840e+01	-3.106163e+00
1.259070e+01	-3.131811e+00
1.266343e+01	-3.157631e+00
1.273657e+01	-3.183412e+00
1.281014e+01	-3.209505e+00
1.288413e+01	-3.235719e+00
1.295855e+01	-3.261902e+00
1.303339e+01	-3.288658e+00
1.310867e+01	-3.315317e+00
1.318439e+01	-3.341961e+00
1.326054e+01	-3.368826e+00
1.333713e+01	-3.395633e+00
1.341417e+01	-3.422966e+00
1.349165e+01	-3.450704e+00
1.356958e+01	-3.477627e+00
1.364795e+01	-3.505745e+00
1.372678e+01	-3.533556e+00
1.380607e+01	-3.561590e+00
1.388581e+01	-3.589290e+00
1.396602e+01	-3.617616e+00
1.404668e+01	-3.645815e+00
1.412782e+01	-3.674427e+00
1.420942e+01	-3.703064e+00
1.429149e+01	-3.732042e+00
1.437404e+01	-3.760955e+00
1.445706e+01	-3.789778e+00
1.454057e+01	-3.818899e+00
1.462455e+01	-3.848238e+00
1.470902e+01	-3.877823e+00
1.479398e+01	-3.907315e+00
1.487943e+01	-3.936989e+00
1.496537e+01	-3.967131e+00
1.505181e+01	-3.996763e+00
1.513875e+01	-4.026975e+00
1.522619e+01	-4.057319e+00
1.531414e+01	-4.087892e+00
1.540259e+01	-4.118522e+00
1.549156e+01	-4.149139e+00
1.558103e+01	-4.180081e+00
1.567103e+01	-4.210893e+00
1.576155e+01	-4.242306e+00
1.585258e+01	-4.273488e+00
1.594415e+01	-4.304862e+00
1.603624e+01	-4.336775e+00
1.612886e+01	-4.368002e+00
1.622202e+01	-4.399818e+00
1.631572e+01	-4.432061e+00
1.640996e+01	-4.463957e+00
1.650474e+01	-4.496194e+00
1.660008e+01	-4.528426e+00
1.669596e+01	-4.560872e+00
1.679239e+01	-4.593627e+00
1.688938e+01	-4.626324e+00
1.698694e+01	-4.658879e+00
1.708505e+01	-4.691714e+00
1.718373e+01	-4.725191e+00
1.728299e+01	-4.758122e+00
1.738281e+01	-4.791693e+00
1.748322e+01	-4.825349e+00
1.758420e+01	-4.858728e+00
1.768576e+01	-4.892411e+00
1.778792e+01	-4.926455e+00
1.789066e+01	-4.960468e+00
1.799399e+01	-4.994198e+00
1.809793e+01	-5.028767e+00
1.820246e+01	-5.063379e+00
1.830760e+01	-5.097734e+00
1.841334e+01	-5.132265e+00
1.851969e+01	-5.166788e+00
1.862666e+01	-5.201866e+00
1.873425e+01	-5.236677e+00
1.884246e+01	-5.271571e+00
1.895129e+01	-5.306966e+00
1.906075e+01	-5.342603e+00
1.917085e+01	-5.377919e+00
1.928158e+01	-5.413793e+00
1.939295e+01	-5.449302e+00
1.950496e+01	-5.485079e+00
1.961762e+01	-5.520913e+00
1.973093e+01	-5.557179e+00
1.984490e+01	-5.593152e+00
1.995952e+01	-5.629581e+00
2.007480e+01	-5.665871e+00
2.019076e+01	-5.702656e+00
2.030738e+01	-5.738994e+00
2.042467e+01	-5.775864e+00
2.054264e+01	-5.812998e+00
2.066130e+01	-5.849435e+00
2.078064e+01	-5.886594e+00
2.090066e+01	-5.923969e+00
2.102139e+01	-5.961211e+00
2.114280e+01	-5.998431e+00
2.126492e+01	-6.035887e+00
2.138775e+01	-6.073852e+00
2.151128e+01	-6.111551e+00
2.163553e+01	-6.149315e+00
2.176050e+01	-6.187367e+00
2.188619e+01	-6.225126e+00
2.201260e+01	-6.263239e+00
2.213974e+01	-6.301568e+00
2.226762e+01	-6.340230e+00
2.239624e+01	-6.378302e+00
2.252560e+01	-6.416894e+00
2.265571e+01	-6.455536e+00
2.278656e+01	-6.494348e+00
2.291818e+01	-6.533309e+00
2.305055e+01	-6.572570e+00
2.318369e+01	-6.611139e+00
2.331760e+01	-6.650359e+00
2.345228e+01	-6.689270e+00
2.358774e+01	-6.728996e+00
2.372398e+01	-6.768229e+00
2.386101e+01	-6.807863e+00
2.399883e+01	-6.847712e+00
2.413745e+01	-6.887454e+00
2.427686e+01	-6.927288e+00
2.441709e+01	-6.967024e+00
2.455812e+01	-7.007135e+00
2.469997e+01	-7.047588e+00
2.484263e+01	-7.087469e+00
2.498612e+01	-7.127841e+00
2.513044e+01	-7.168425e+00
2.527559e+01	-7.208819e+00
2.542158e+01	-7.248832e+00
2.556842e+01	-7.289999e+00
2.571610e+01	-7.330761e+00
2.586463e+01	-7.371571e+00
2.601403e+01	-7.412581e+00
2.616428e+01	-7.453236e+00
2.631541e+01	-7.494113e+00
2.646740e+01	-7.535580e+00
2.662028e+01	-7.577036e+00
2.677404e+01	-7.618099e+00
2.692868e+01	-7.659512e+00
2.708422e+01	-7.701312e+00
2.724066e+01	-7.742846e+00
2.739800e+01	-7.784160e+00
2.755625e+01	-7.826102e+00
2.771541e+01	-7.868026e+00
2.787550e+01	-7.910285e+00
2.803650e+01	-7.951533e+00
2.819844e+01	-7.993429e+00
2.836131e+01	-8.035872e+00
2.852513e+01	-8.078076e+00
2.868989e+01	-8.120135e+00
2.885560e+01	-8.162759e+00
2.902227e+01	-8.204836e+00
2.918990e+01	-8.247728e+00
2.935850e+01	-8.289814e+00
2.952807e+01	-8.332524e+00
2.969863e+01	-8.375739e+00
2.987016e+01	-8.418279e+00
3.004269e+01	-8.461149e+00
3.021622e+01	-8.503857e+00
3.039075e+01	-8.547055e+00
3.056628e+01	-8.590321e+00
3.074283e+01	-8.633440e+00
3.092040e+01	-8.676660e+00
3.109900e+01	-8.719403e+00
3.127862e+01	-8.763184e+00
3.145929e+01	-8.806248e+00
3.164099e+01	-8.849894e+00
3.182375e+01	-8.893631e+00
3.200756e+01	-8.936975e+00
3.219244e+01	-8.980577e+00
3.237838e+01	-9.024958e+00
3.256540e+01	-9.067866e+00
3.275349e+01	-9.112334e+00
3.294268e+01	-9.155889e+00
3.313295e+01	-9.200390e+00
3.332433e+01	-9.243957e+00
3.351681e+01	-9.287921e+00
3.371040e+01	-9.332393e+00
3.390511e+01	-9.376809e+00
3.410094e+01	-9.420992e+00
3.429791e+01	-9.464771e+00
3.449601e+01	-9.509539e+00
3.469526e+01	-9.554265e+00
3.489566e+01	-9.598344e+00
3.509721e+01	-9.643450e+00
3.529993e+01	-9.687554e+00
3.550382e+01	-9.732687e+00
3.570889e+01	-9.777183e+00
3.591515e+01	-9.821875e+00
3.612259e+01	-9.867375e+00
3.633123e+01	-9.911354e+00
3.654108e+01	-9.956382e+00
3.675214e+01	-1.000118e+01
3.696442e+01	-1.004702e+01
3.717792e+01	-1.009208e+01
3.739266e+01	-1.013674e+01
3.760864e+01	-1.018198e+01
3.782587e+01	-1.022755e+01
3.804435e+01	-1.027298e+01
3.826409e+01	-1.031864e+01
3.848510e+01	-1.036351e+01
3.870739e+01	-1.040912e+01
3.893096e+01	-1.045465e+01
3.915583e+01	-1.049957e+01
3.938199e+01	-1.054526e+01
3.960946e+01	-1.059103e+01
3.983824e+01	-1.063670e+01
4.006834e+01	-1.068275e+01
4.029978e+01	-1.072834e+01
4.053255e+01	-1.077442e+01
4.076666e+01	-1.081967e+01
4.100213e+01	-1.086621e+01
4.123896e+01	-1.091169e+01
4.147715e+01	-1.095801e+01
4.171672e+01	-1.100370e+01
4.195767e+01	-1.105043e+01
4.220002e+01	-1.109605e+01
4.244377e+01	-1.114248e+01
4.268892e+01	-1.118851e+01
4.293549e+01	-1.123470e+01
4.318348e+01	-1.128106e+01
4.343291e+01	-1.132759e+01
4.368377e+01	-1.137400e+01
4.393609e+01	-1.142037e+01
4.418986e+01	-1.146640e+01
4.444510e+01	-1.151253e+01
4.470182e+01	-1.155989e+01
4.496001e+01	-1.160607e+01
4.521970e+01	-1.165268e+01
4.548089e+01	-1.169914e+01
4.574358e+01	-1.174584e+01
4.600779e+01	-1.179247e+01
4.627353e+01	-1.183944e+01
4.654081e+01	-1.188636e+01
4.680963e+01	-1.193293e+01
4.708000e+01	-1.197992e+01
4.735193e+01	-1.202674e+01
4.762543e+01	-1.207389e+01
4.790051e+01	-1.212062e+01
4.817719e+01	-1.216766e+01
4.845545e+01	-1.221470e+01
4.873533e+01	-1.226181e+01
4.901682e+01	-1.230853e+01
4.929994e+01	-1.235547e+01
4.958470e+01	-1.240266e+01
4.987110e+01	-1.245045e+01
5.015915e+01	-1.249723e+01
5.044887e+01	-1.254410e+01
5.074026e+01	-1.259205e+01
5.103333e+01	-1.263940e+01
5.132810e+01	-1.268636e+01
5.162457e+01	-1.273417e+01
5.192275e+01	-1.278135e+01
5.222265e+01	-1.282880e+01
5.252429e+01	-1.287615e+01
5.282767e+01	-1.292348e+01
5.313280e+01	-1.297088e+01
5.343969e+01	-1.301837e+01
5.374836e+01	-1.306657e+01
5.405880e+01	-1.311312e+01
5.437105e+01	-1.316081e+01
5.468509e+01	-1.320837e+01
5.500095e+01	-1.325651e+01
5.531863e+01	-1.330436e+01
5.563815e+01	-1.335126e+01
5.595951e+01	-1.339992e+01
5.628273e+01	-1.344726e+01
5.660782e+01	-1.349429e+01
5.693479e+01	-1.354297e+01
5.726364e+01	-1.359071e+01
5.759439e+01	-1.363775e+01
5.792705e+01	-1.368593e+01
5.826164e+01	-1.373479e+01
5.859815e+01	-1.378234e+01
5.893662e+01	-1.383082e+01
5.927703e+01	-1.387640e+01
5.961941e+01	-1.392587e+01
5.996377e+01	-1.397414e+01
6.031012e+01	-1.402242e+01
6.065847e+01	-1.406957e+01
6.100883e+01	-1.411886e+01
6.136121e+01	-1.416613e+01
6.171563e+01	-1.421490e+01
6.207210e+01	-1.426297e+01
6.243063e+01	-1.431034e+01
6.279122e+01	-1.435849e+01
6.315390e+01	-1.440778e+01
6.351868e+01	-1.445549e+01
6.388556e+01	-1.450367e+01
6.425456e+01	-1.455230e+01
6.462569e+01	-1.459979e+01
6.499897e+01	-1.464796e+01
6.537440e+01	-1.469647e+01
6.575200e+01	-1.474515e+01
6.613178e+01	-1.479346e+01
6.651375e+01	-1.484187e+01
6.689793e+01	-1.489014e+01
6.728433e+01	-1.493903e+01
6.767297e+01	-1.498628e+01
6.806384e+01	-1.503554e+01
6.845698e+01	-1.508363e+01
6.885238e+01	-1.513246e+01
6.925007e+01	-1.518113e+01
6.965005e+01	-1.523039e+01
7.005235e+01	-1.527788e+01
7.045697e+01	-1.532715e+01
7.086393e+01	-1.537536e+01
7.127323e+01	-1.542318e+01
7.168490e+01	-1.547310e+01
7.209895e+01	-1.552029e+01
7.251539e+01	-1.556944e+01
7.293424e+01	-1.561891e+01
7.335551e+01	-1.566685e+01
7.377920e+01	-1.571596e+01
7.420535e+01	-1.576367e+01
7.463396e+01	-1.581300e+01
7.506504e+01	-1.586146e+01
7.549861e+01	-1.591006e+01
7.593469e+01	-1.595886e+01
7.637328e+01	-1.600874e+01
7.681441e+01	-1.605677e+01
7.725809e+01	-1.610467e+01
7.770433e+01	-1.615441e+01
7.815315e+01	-1.620339e+01
7.860456e+01	-1.625214e+01
7.905857e+01	-1.630197e+01
7.951521e+01	-1.634946e+01
7.997449e+01	-1.639859e+01
8.043642e+01	-1.644745e+01
8.090102e+01	-1.649619e+01
8.136830e+01	-1.654488e+01
8.183828e+01	-1.659350e+01
8.231097e+01	-1.664223e+01
8.278640e+01	-1.669162e+01
8.326457e+01	-1.674049e+01
8.374550e+01	-1.678983e+01
8.422921e+01	-1.683842e+01
8.471572e+01	-1.688804e+01
8.520503e+01	-1.693798e+01
8.569717e+01	-1.698569e+01
8.619215e+01	-1.703567e+01
8.669000e+01	-1.708485e+01
8.719071e+01	-1.713399e+01
8.769432e+01	-1.718253e+01
8.820084e+01	-1.723099e+01
8.871029e+01	-1.728007e+01
8.922267e+01	-1.732960e+01
8.973802e+01	-1.737896e+01
9.025634e+01	-1.742850e+01
9.077766e+01	-1.747788e+01
9.130199e+01	-1.752620e+01
9.182935e+01	-1.757573e+01
9.235975e+01	-1.762394e+01
9.289321e+01	-1.767291e+01
9.342976e+01	-1.772337e+01
9.396941e+01	-1.777168e+01
9.451217e+01	-1.782086e+01
9.505807e+01	-1.787131e+01
9.560712e+01	-1.791874e+01
9.615934e+01	-1.796924e+01
9.671476e+01	-1.801870e+01
9.727338e+01	-1.806818e+01
9.783522e+01	-1.811619e+01
9.840032e+01	-1.816511e+01
9.896867e+01	-1.821412e+01
9.954031e+01	-1.826502e+01
1.001153e+02	-1.831453e+01
1.006935e+02	-1.836285e+01
1.012751e+02	-1.841196e+01
1.018601e+02	-1.846210e+01
1.024484e+02	-1.850965e+01
1.030402e+02	-1.855980e+01
1.036353e+02	-1.861037e+01
1.042339e+02	-1.865940e+01
1.048360e+02	-1.870882e+01
1.054415e+02	-1.875647e+01
1.060505e+02	-1.880678e+01
1.066631e+02	-1.885649e+01
1.072791e+02	-1.890636e+01
1.078988e+02	-1.895473e+01
1.085220e+02	-1.900433e+01
1.091488e+02	-1.905288e+01
1.097793e+02	-1.910379e+01
1.104133e+02	-1.915298e+01
1.110511e+02	-1.920411e+01
1.116925e+02	-1.925121e+01
1.123376e+02	-1.929833e+01
1.129865e+02	-1.935109e+01
1.136391e+02	-1.940007e+01
1.142955e+02	-1.945023e+01
1.149556e+02	-1.949944e+01
1.156196e+02	-1.954908e+01
1.162874e+02	-1.959744e+01
1.169591e+02	-1.964760e+01
1.176347e+02	-1.969711e+01
1.183141e+02	-1.974657e+01
1.189975e+02	-1.979734e+01
1.196848e+02	-1.984520e+01
1.203761e+02	-1.989745e+01
1.210714e+02	-1.994371e+01
1.217707e+02	-1.999298e+01
1.224740e+02	-2.004278e+01
1.231814e+02	-2.009239e+01
1.238929e+02	-2.014291e+01
1.246085e+02	-2.019298e+01
1.253283e+02	-2.024321e+01
1.260522e+02	-2.029147e+01
1.267802e+02	-2.034162e+01
1.275125e+02	-2.038975e+01
1.282490e+02	-2.044050e+01
1.289898e+02	-2.048987e+01
1.297348e+02	-2.053861e+01
1.304842e+02	-2.058956e+01
1.312378e+02	-2.063755e+01
1.319959e+02	-2.068737e+01
1.327583e+02	-2.073668e+01
1.335251e+02	-2.078830e+01
1.342963e+02	-2.083768e+01
1.350720e+02	-2.088719e+01
1.358522e+02	-2.093688e+01
1.366368e+02	-2.098746e+01
1.374260e+02	-2.103478e+01
1.382198e+02	-2.108474e+01
1.390182e+02	-2.113378e+01
1.398211e+02	-2.118413e+01
1.406287e+02	-2.123570e+01
1.414410e+02	-2.128520e+01
1.422579e+02	-2.133399e+01
1.430796e+02	-2.138355e+01
1.439060e+02	-2.143234e+01
1.447372e+02	-2.148242e+01
1.455732e+02	-2.153232e+01
1.464141e+02	-2.158018e+01
1.472597e+02	-2.163268e+01
1.481103e+02	-2.168053e+01
1.489658e+02	-2.173062e+01
1.498262e+02	-2.178118e+01
1.506916e+02	-2.183071e+01
1.515620e+02	-2.187904e+01
1.524374e+02	-2.193101e+01
1.533179e+02	-2.198056e+01
1.542034e+02	-2.203061e+01
1.550941e+02	-2.208020e+01
1.559899e+02	-2.212918e+01
1.568909e+02	-2.217936e+01
1.577971e+02	-2.223187e+01
1.587085e+02	-2.227764e+01
1.596252e+02	-2.232868e+01
1.605472e+02	-2.237776e+01
1.614745e+02	-2.242942e+01
1.624072e+02	-2.247605e+01
1.633453e+02	-2.252568e+01
1.642887e+02	-2.257576e+01
1.652377e+02	-2.262682e+01
1.661921e+02	-2.268031e+01
1.671520e+02	-2.272730e+01
1.681175e+02	-2.277414e+01
1.690885e+02	-2.282625e+01
1.700651e+02	-2.287449e+01
1.710474e+02	-2.292670e+01
1.720354e+02	-2.297418e+01
1.730291e+02	-2.302526e+01
1.740285e+02	-2.307383e+01
1.750337e+02	-2.312300e+01
1.760446e+02	-2.317604e+01
1.770615e+02	-2.322507e+01
1.780842e+02	-2.327217e+01
1.791128e+02	-2.332571e+01
1.801473e+02	-2.337628e+01
1.811878e+02	-2.342226e+01
1.822344e+02	-2.347266e+01
1.832870e+02	-2.352266e+01
1.843456e+02	-2.357344e+01
1.854104e+02	-2.361984e+01
1.864813e+02	-2.367188e+01
1.875584e+02	-2.372260e+01
1.886418e+02	-2.377251e+01
1.897313e+02	-2.382015e+01
1.908272e+02	-2.387289e+01
1.919294e+02	-2.391940e+01
1.930380e+02	-2.397169e+01
1.941530e+02	-2.402015e+01
1.952744e+02	-2.407101e+01
1.964023e+02	-2.412335e+01
1.975367e+02	-2.417136e+01
1.986777e+02	-2.421983e+01
1.998252e+02	-2.426997e+01
2.009794e+02	-2.431822e+01
2.021403e+02	-2.437291e+01
2.033078e+02	-2.441891e+01
2.044821e+02	-2.447226e+01
2.056632e+02	-2.452193e+01
2.068511e+02	-2.456753e+01
2.080459e+02	-2.462114e+01
2.092475e+02	-2.467046e+01
2.104561e+02	-2.472135e+01
2.116717e+02	-2.476978e+01
2.128943e+02	-2.481646e+01
2.141240e+02	-2.486784e+01
2.153608e+02	-2.492100e+01
2.166047e+02	-2.496902e+01
2.178558e+02	-2.501934e+01
2.191141e+02	-2.506710e+01
2.203797e+02	-2.511748e+01
2.216526e+02	-2.516850e+01
2.229329e+02	-2.521759e+01
2.242205e+02	-2.526929e+01
2.255156e+02	-2.531951e+01
2.268182e+02	-2.536801e+01
2.281283e+02	-2.542057e+01
2.294459e+02	-2.546830e+01
2.307712e+02	-2.551874e+01
2.321041e+02	-2.556837e+01
2.334447e+02	-2.561969e+01
2.347931e+02	-2.566466e+01
2.361493e+02	-2.571764e+01
2.375133e+02	-2.576950e+01
2.388851e+02	-2.581682e+01
2.402649e+02	-2.586721e+01
2.416527e+02	-2.591411e+01
2.430484e+02	-2.596906e+01
2.444523e+02	-2.601727e+01
2.458642e+02	-2.606832e+01
2.472843e+02	-2.611796e+01
2.487126e+02	-2.616451e+01
2.501492e+02	-2.621706e+01
2.515940e+02	-2.626558e+01
2.530472e+02	-2.631946e+01
2.545088e+02	-2.636544e+01
2.559789e+02	-2.641813e+01
2.574574e+02	-2.646847e+01
2.589444e+02	-2.651770e+01
2.604401e+02	-2.656735e+01
2.619444e+02	-2.661844e+01
2.634574e+02	-2.666453e+01
2.649791e+02	-2.671369e+01
2.665096e+02	-2.676557e+01
2.680489e+02	-2.681598e+01
2.695972e+02	-2.686857e+01
2.711544e+02	-2.691978e+01
2.727205e+02	-2.696715e+01
2.742958e+02	-2.701816e+01
2.758801e+02	-2.707098e+01
2.774736e+02	-2.711336e+01
2.790762e+02	-2.716855e+01
2.806882e+02	-2.722058e+01
2.823094e+02	-2.726380e+01
2.839400e+02	-2.731974e+01
2.855800e+02	-2.736445e+01
2.872295e+02	-2.742011e+01
2.888886e+02	-2.746815e+01
2.905572e+02	-2.751779e+01
2.922354e+02	-2.756531e+01
2.939234e+02	-2.761591e+01
2.956211e+02	-2.766526e+01
2.973286e+02	-2.771690e+01
2.990459e+02	-2.776519e+01
3.007732e+02	-2.781783e+01
3.025104e+02	-2.786545e+01
3.042577e+02	-2.791520e+01
3.060151e+02	-2.796368e+01
3.077826e+02	-2.801827e+01
3.095604e+02	-2.806737e+01
3.113484e+02	-2.811928e+01
3.131467e+02	-2.816415e+01
3.149554e+02	-2.821911e+01
3.167746e+02	-2.826590e+01
3.186043e+02	-2.831993e+01
3.204445e+02	-2.836674e+01
3.222954e+02	-2.841666e+01
3.241570e+02	-2.846648e+01
3.260293e+02	-2.851414e+01
3.279124e+02	-2.856732e+01
3.298064e+02	-2.861483e+01
3.317114e+02	-2.866819e+01
3.336273e+02	-2.872113e+01
3.355544e+02	-2.876715e+01
3.374925e+02	-2.881945e+01
3.394418e+02	-2.886913e+01
3.414024e+02	-2.891510e+01
3.433744e+02	-2.896807e+01
3.453577e+02	-2.902008e+01
3.473525e+02	-2.906837e+01
3.493588e+02	-2.911573e+01
3.513766e+02	-2.916739e+01
3.534062e+02	-2.921732e+01
3.554474e+02	-2.926282e+01
3.575005e+02	-2.931549e+01
3.595654e+02	-2.936755e+01
3.616422e+02	-2.941179e+01
3.637311e+02	-2.946652e+01
3.658320e+02	-2.952224e+01
3.679450e+02	-2.956863e+01
3.700702e+02	-2.962439e+01
3.722077e+02	-2.967118e+01
3.743576e+02	-2.972001e+01
3.765199e+02	-2.976858e+01
3.786946e+02	-2.981738e+01
3.808820e+02	-2.987441e+01
3.830819e+02	-2.991723e+01
3.852946e+02	-2.996419e+01
3.875200e+02	-3.002081e+01
3.897583e+02	-3.006585e+01
3.920096e+02	-3.011640e+01
3.942738e+02	-3.017201e+01
3.965511e+02	-3.022255e+01
3.988416e+02	-3.027474e+01
4.011452e+02	-3.032070e+01
4.034622e+02	-3.037058e+01
4.057926e+02	-3.042295e+01
4.081365e+02	-3.047205e+01
4.104938e+02	-3.052146e+01
4.128648e+02	-3.057121e+01
4.152495e+02	-3.062024e+01
4.176480e+02	-3.067242e+01
4.200603e+02	-3.072246e+01
4.224866e+02	-3.077046e+01
4.249268e+02	-3.081823e+01
4.273812e+02	-3.086855e+01
4.298497e+02	-3.092183e+01
4.323325e+02	-3.097027e+01
4.348297e+02	-3.102419e+01
4.373412e+02	-3.107045e+01
4.398673e+02	-3.112095e+01
4.424079e+02	-3.116928e+01
4.449633e+02	-3.122401e+01
4.475334e+02	-3.127211e+01
4.501183e+02	-3.132391e+01
4.527182e+02	-3.137411e+01
4.553330e+02	-3.142711e+01
4.579630e+02	-3.147654e+01
4.606082e+02	-3.152292e+01
4.632687e+02	-3.157245e+01
4.659445e+02	-3.162056e+01
4.686358e+02	-3.167582e+01
4.713426e+02	-3.172980e+01
4.740650e+02	-3.177481e+01
4.768032e+02	-3.182641e+01
4.795572e+02	-3.187565e+01
4.823271e+02	-3.192391e+01
4.851130e+02	-3.197582e+01
4.879150e+02	-3.202258e+01
4.907332e+02	-3.207668e+01
4.935676e+02	-3.212340e+01
4.964185e+02	-3.217499e+01
4.992858e+02	-3.222625e+01
5.021696e+02	-3.227309e+01
5.050701e+02	-3.233336e+01
5.079874e+02	-3.237343e+01
5.109215e+02	-3.242956e+01
5.138726e+02	-3.247449e+01
5.168407e+02	-3.252815e+01
5.198259e+02	-3.257546e+01
5.228284e+02	-3.262571e+01
5.258482e+02	-3.267728e+01
5.288855e+02	-3.272863e+01
5.319403e+02	-3.278158e+01
5.350128e+02	-3.282377e+01
5.381030e+02	-3.287510e+01
5.412111e+02	-3.292656e+01
5.443371e+02	-3.297836e+01
5.474812e+02	-3.302972e+01
5.506434e+02	-3.307592e+01
5.538239e+02	-3.313732e+01
5.570228e+02	-3.317811e+01
5.602401e+02	-3.322983e+01
5.634760e+02	-3.327348e+01
5.667306e+02	-3.333845e+01
5.700040e+02	-3.338345e+01
5.732964e+02	-3.342641e+01
5.766077e+02	-3.348227e+01
5.799382e+02	-3.353974e+01
5.832879e+02	-3.358578e+01
5.866569e+02	-3.363458e+01
5.900454e+02	-3.368490e+01
5.934535e+02	-3.373315e+01
5.968813e+02	-3.378455e+01
6.003288e+02	-3.383501e+01
6.037963e+02	-3.388039e+01
6.072838e+02	-3.393527e+01
6.107914e+02	-3.399070e+01
6.143194e+02	-3.402599e+01
6.178676e+02	-3.408394e+01
6.214364e+02	-3.413362e+01
6.250258e+02	-3.418596e+01
6.286359e+02	-3.424320e+01
6.322669e+02	-3.429039e+01
6.359189e+02	-3.433115e+01
6.395919e+02	-3.439068e+01
6.432862e+02	-3.442930e+01
6.470017e+02	-3.449001e+01
6.507388e+02	-3.454294e+01
6.544974e+02	-3.459058e+01
6.582778e+02	-3.463836e+01
6.620800e+02	-3.468714e+01
6.659041e+02	-3.474263e+01
6.697504e+02	-3.478962e+01
6.736188e+02	-3.483982e+01
6.775096e+02	-3.488592e+01
6.814229e+02	-3.494851e+01
6.853587e+02	-3.499162e+01
6.893173e+02	-3.504792e+01
6.932988e+02	-3.509288e+01
6.973033e+02	-3.513477e+01
7.013309e+02	-3.519473e+01
