Frequency(Hz)	Magnitude(dB)
1.000000e+01	-2.234375e+00
1.005776e+01	-2.254791e+00
1.011585e+01	-2.275010e+00
1.017428e+01	-2.295463e+00
1.023305e+01	-2.316131e+00
1.029215e+01	-2.337079e+00
1.035160e+01	-2.357947e+00
1.041139e+01	-2.378733e+00
1.047153e+01	-2.399854e+00
1.053201e+01	-2.421275e+00
1.059284e+01	-2.442495e+00
1.065403e+01	-2.464204e+00
1.071556e+01	-2.486126e+00
1.077746e+01	-2.507812e+00
1.083971e+01	-2.529998e+00
1.090232e+01	-2.552075e+00
1.096529e+01	-2.574422e+00
1.102862e+01	-2.596948e+00
1.109232e+01	-2.619585e+00
1.115639e+01	-2.642263e+00
1.122083e+01	-2.665047e+00
1.128564e+01	-2.687868e+00
1.135083e+01	-2.711068e+00
1.141639e+01	-2.734285e+00
1.148233e+01	-2.757604e+00
1.154865e+01	-2.781506e+00
1.161536e+01	-2.805133e+00
1.168245e+01	-2.829134e+00
1.174992e+01	-2.853087e+00
1.181779e+01	-2.877297e+00
1.188605e+01	-2.901621e+00
1.195470e+01	-2.925977e+00
1.202375e+01	-2.950613e+00
1.209320e+01	-2.975612e+00
1.216305e+01	-3.000560e+00
1.223330e+01	-3.025101e+00
1.230396e+01	-3.050415e+00
1.237503e+01	-3.075673e+00
1.244651e+01	-3.101367e+00
1.251840e+01	-3.127046e+00
1.259070e+01	-3.152406e+00
1.266343e+01	-3.178523e+00
1.273657e+01	-3.204695e+00
1.281014e+01	-3.230868e+00
1.288413e+01	-3.257126e+00
1.295855e+01	-3.283442e+00
1.303339e+01	-3.310210e+00
1.310867e+01	-3.336692e+00
1.318439e+01	-3.364088e+00
1.326054e+01	-3.390915e+00
1.333713e+01	-3.418047e+00
1.341417e+01	-3.445301e+00
1.349165e+01	-3.472911e+00
1.356958e+01	-3.500188e+00
1.364795e+01	-3.528093e+00
1.372678e+01	-3.556054e+00
1.380607e+01	-3.584036e+00
1.388581e+01	-3.612293e+00
1.396602e+01	-3.640429e+00
1.404668e+01	-3.668839e+00
1.412782e+01	-3.697645e+00
1.420942e+01	-3.726134e+00
1.429149e+01	-3.755181e+00
1.437404e+01	-3.784373e+00
1.445706e+01	-3.813354e+00
1.454057e+01	-3.842671e+00
1.462455e+01	-3.872330e+00
1.470902e+01	-3.901737e+00
1.479398e+01	-3.931388e+00
1.487943e+01	-3.961295e+00
1.496537e+01	-3.991412e+00
1.505181e+01	-4.021542e+00
1.513875e+01	-4.051821e+00
1.522619e+01	-4.081959e+00
1.531414e+01	-4.112722e+00
1.540259e+01	-4.143479e+00
1.549156e+01	-4.173959e+00
1.558103e+01	-4.205399e+00
1.567103e+01	-4.236537e+00
1.576155e+01	-4.267758e+00
1.585258e+01	-4.298957e+00
1.594415e+01	-4.330642e+00
1.603624e+01	-4.362377e+00
1.612886e+01	-4.393562e+00
1.622202e+01	-4.425775e+00
1.631572e+01	-4.457585e+00
1.640996e+01	-4.489727e+00
1.650474e+01	-4.522032e+00
1.660008e+01	-4.554426e+00
1.669596e+01	-4.587517e+00
1.679239e+01	-4.620054e+00
1.688938e+01	-4.653024e+00
1.698694e+01	-4.685998e+00
1.708505e+01	-4.718842e+00
1.718373e+01	-4.751851e+00
1.728299e+01	-4.785257e+00
1.738281e+01	-4.818799e+00
1.748322e+01	-4.852364e+00
1.758420e+01	-4.886028e+00
1.768576e+01	-4.919964e+00
1.778792e+01	-4.954107e+00
1.789066e+01	-4.987958e+00
1.799399e+01	-5.022057e+00
1.809793e+01	-5.056688e+00
1.820246e+01	-5.091095e+00
1.830760e+01	-5.125471e+00
1.841334e+01	-5.160414e+00
1.851969e+01	-5.195197e+00
1.862666e+01	-5.230033e+00
1.873425e+01	-5.265063e+00
1.884246e+01	-5.300595e+00
1.895129e+01	-5.335883e+00
1.906075e+01	-5.371384e+00
1.917085e+01	-5.407116e+00
1.928158e+01	-5.442401e+00
1.939295e+01	-5.478350e+00
1.950496e+01	-5.513760e+00
1.961762e+01	-5.550047e+00
1.973093e+01	-5.586445e+00
1.984490e+01	-5.622820e+00
1.995952e+01	-5.659044e+00
2.007480e+01	-5.695450e+00
2.019076e+01	-5.732122e+00
2.030738e+01	-5.768721e+00
2.042467e+01	-5.805544e+00
2.054264e+01	-5.842674e+00
2.066130e+01	-5.879643e+00
2.078064e+01	-5.916735e+00
2.090066e+01	-5.954192e+00
2.102139e+01	-5.991582e+00
2.114280e+01	-6.028563e+00
2.126492e+01	-6.066535e+00
2.138775e+01	-6.104272e+00
2.151128e+01	-6.142043e+00
2.163553e+01	-6.180075e+00
2.176050e+01	-6.217867e+00
2.188619e+01	-6.256335e+00
2.201260e+01	-6.294124e+00
2.213974e+01	-6.332343e+00
2.226762e+01	-6.371088e+00
2.239624e+01	-6.409660e+00
2.252560e+01	-6.448194e+00
2.265571e+01	-6.486741e+00
2.278656e+01	-6.525730e+00
2.291818e+01	-6.565044e+00
2.305055e+01	-6.603679e+00
2.318369e+01	-6.642991e+00
2.331760e+01	-6.682131e+00
2.345228e+01	-6.721631e+00
2.358774e+01	-6.761296e+00
2.372398e+01	-6.800547e+00
2.386101e+01	-6.840467e+00
2.399883e+01	-6.879846e+00
2.413745e+01	-6.919851e+00
2.427686e+01	-6.959803e+00
2.441709e+01	-6.999991e+00
2.455812e+01	-7.039695e+00
2.469997e+01	-7.080148e+00
2.484263e+01	-7.120008e+00
2.498612e+01	-7.160336e+00
2.513044e+01	-7.201052e+00
2.527559e+01	-7.241245e+00
2.542158e+01	-7.282274e+00
2.556842e+01	-7.322964e+00
2.571610e+01	-7.363521e+00
2.586463e+01	-7.404278e+00
2.601403e+01	-7.445261e+00
2.616428e+01	-7.486114e+00
2.631541e+01	-7.527589e+00
2.646740e+01	-7.568934e+00
2.662028e+01	-7.609904e+00
2.677404e+01	-7.651474e+00
2.692868e+01	-7.693424e+00
2.708422e+01	-7.734415e+00
2.724066e+01	-7.776528e+00
2.739800e+01	-7.817624e+00
2.755625e+01	-7.860377e+00
2.771541e+01	-7.902085e+00
2.787550e+01	-7.943453e+00
2.803650e+01	-7.985706e+00
2.819844e+01	-8.027756e+00
2.836131e+01	-8.070304e+00
2.852513e+01	-8.111953e+00
2.868989e+01	-8.154416e+00
2.885560e+01	-8.197017e+00
2.902227e+01	-8.239729e+00
2.918990e+01	-8.282092e+00
2.935850e+01	-8.325039e+00
2.952807e+01	-8.367368e+00
2.969863e+01	-8.409876e+00
2.987016e+01	-8.453042e+00
3.004269e+01	-8.495514e+00
3.021622e+01	-8.538776e+00
3.039075e+01	-8.581838e+00
3.056628e+01	-8.624870e+00
3.074283e+01	-8.668366e+00
3.092040e+01	-8.711268e+00
3.109900e+01	-8.755087e+00
3.127862e+01	-8.798527e+00
3.145929e+01	-8.841449e+00
3.164099e+01	-8.885575e+00
3.182375e+01	-8.928760e+00
3.200756e+01	-8.972350e+00
3.219244e+01	-9.015856e+00
3.237838e+01	-9.060072e+00
3.256540e+01	-9.104082e+00
3.275349e+01	-9.147851e+00
3.294268e+01	-9.191446e+00
3.313295e+01	-9.235593e+00
3.332433e+01	-9.279342e+00
3.351681e+01	-9.324595e+00
3.371040e+01	-9.368051e+00
3.390511e+01	-9.412611e+00
3.410094e+01	-9.457109e+00
3.429791e+01	-9.501058e+00
3.449601e+01	-9.546138e+00
3.469526e+01	-9.590525e+00
3.489566e+01	-9.634817e+00
3.509721e+01	-9.679338e+00
3.529993e+01	-9.723935e+00
3.550382e+01	-9.768778e+00
3.570889e+01	-9.813534e+00
3.591515e+01	-9.858091e+00
3.612259e+01	-9.903063e+00
3.633123e+01	-9.947976e+00
3.654108e+01	-9.993075e+00
3.675214e+01	-1.003780e+01
3.696442e+01	-1.008356e+01
3.717792e+01	-1.012808e+01
3.739266e+01	-1.017356e+01
3.760864e+01	-1.021871e+01
3.782587e+01	-1.026395e+01
3.804435e+01	-1.030953e+01
3.826409e+01	-1.035469e+01
3.848510e+01	-1.040028e+01
3.870739e+01	-1.044580e+01
3.893096e+01	-1.049094e+01
3.915583e+01	-1.053693e+01
3.938199e+01	-1.058258e+01
3.960946e+01	-1.062803e+01
3.983824e+01	-1.067334e+01
4.006834e+01	-1.071991e+01
4.029978e+01	-1.076533e+01
4.053255e+01	-1.081131e+01
4.076666e+01	-1.085746e+01
4.100213e+01	-1.090360e+01
4.123896e+01	-1.094944e+01
4.147715e+01	-1.099506e+01
4.171672e+01	-1.104083e+01
4.195767e+01	-1.108746e+01
4.220002e+01	-1.113378e+01
4.244377e+01	-1.117960e+01
4.268892e+01	-1.122588e+01
4.293549e+01	-1.127265e+01
4.318348e+01	-1.131859e+01
4.343291e+01	-1.136488e+01
4.368377e+01	-1.141128e+01
4.393609e+01	-1.145742e+01
4.418986e+01	-1.150436e+01
4.444510e+01	-1.155073e+01
4.470182e+01	-1.159738e+01
4.496001e+01	-1.164425e+01
4.521970e+01	-1.168988e+01
4.548089e+01	-1.173711e+01
4.574358e+01	-1.178396e+01
4.600779e+01	-1.183093e+01
4.627353e+01	-1.187747e+01
4.654081e+01	-1.192420e+01
4.680963e+01	-1.197079e+01
4.708000e+01	-1.201797e+01
4.735193e+01	-1.206444e+01
4.762543e+01	-1.211184e+01
4.790051e+01	-1.215819e+01
4.817719e+01	-1.220533e+01
4.845545e+01	-1.225269e+01
4.873533e+01	-1.229985e+01
4.901682e+01	-1.234638e+01
4.929994e+01	-1.239415e+01
4.958470e+01	-1.244123e+01
4.987110e+01	-1.248843e+01
5.015915e+01	-1.253543e+01
5.044887e+01	-1.258274e+01
5.074026e+01	-1.263021e+01
5.103333e+01	-1.267659e+01
5.132810e+01	-1.272496e+01
5.162457e+01	-1.277203e+01
5.192275e+01	-1.281890e+01
5.222265e+01	-1.286669e+01
5.252429e+01	-1.291444e+01
5.282767e+01	-1.296246e+01
5.313280e+01	-1.300911e+01
5.343969e+01	-1.305722e+01
5.374836e+01	-1.310460e+01
5.405880e+01	-1.315198e+01
5.437105e+01	-1.320013e+01
5.468509e+01	-1.324672e+01
5.500095e+01	-1.329496e+01
5.531863e+01	-1.334273e+01
5.563815e+01	-1.339000e+01
5.595951e+01	-1.343794e+01
5.628273e+01	-1.348650e+01
5.660782e+01	-1.353291e+01
5.693479e+01	-1.358179e+01
5.726364e+01	-1.362935e+01
5.759439e+01	-1.367725e+01
5.792705e+01	-1.372524e+01
5.826164e+01	-1.377331e+01
5.859815e+01	-1.382021e+01
5.893662e+01	-1.386813e+01
5.927703e+01	-1.391631e+01
5.961941e+01	-1.396451e+01
5.996377e+01	-1.401280e+01
6.031012e+01	-1.406069e+01
6.065847e+01	-1.410978e+01
6.100883e+01	-1.415679e+01
6.136121e+01	-1.420522e+01
6.171563e+01	-1.425299e+01
6.207210e+01	-1.430203e+01
6.243063e+01	-1.434983e+01
6.279122e+01	-1.439809e+01
6.315390e+01	-1.444655e+01
6.351868e+01	-1.449385e+01
6.388556e+01	-1.454221e+01
6.425456e+01	-1.459103e+01
6.462569e+01	-1.463868e+01
6.499897e+01	-1.468763e+01
6.537440e+01	-1.473557e+01
6.575200e+01	-1.478517e+01
6.613178e+01	-1.483299e+01
6.651375e+01	-1.488104e+01
6.689793e+01	-1.492869e+01
6.728433e+01	-1.497803e+01
6.767297e+01	-1.502710e+01
6.806384e+01	-1.507535e+01
6.845698e+01	-1.512391e+01
6.885238e+01	-1.517212e+01
6.925007e+01	-1.522022e+01
6.965005e+01	-1.526916e+01
7.005235e+01	-1.531707e+01
7.045697e+01	-1.536584e+01
7.086393e+01	-1.541476e+01
7.127323e+01	-1.546283e+01
7.168490e+01	-1.551189e+01
7.209895e+01	-1.555988e+01
7.251539e+01	-1.560855e+01
7.293424e+01	-1.565823e+01
7.335551e+01	-1.570642e+01
7.377920e+01	-1.575500e+01
7.420535e+01	-1.580407e+01
7.463396e+01	-1.585219e+01
7.506504e+01	-1.590203e+01
7.549861e+01	-1.594848e+01
7.593469e+01	-1.599962e+01
7.637328e+01	-1.604678e+01
7.681441e+01	-1.609696e+01
7.725809e+01	-1.614645e+01
7.770433e+01	-1.619375e+01
7.815315e+01	-1.624334e+01
7.860456e+01	-1.629228e+01
7.905857e+01	-1.634018e+01
7.951521e+01	-1.638916e+01
7.997449e+01	-1.643808e+01
8.043642e+01	-1.648735e+01
8.090102e+01	-1.653661e+01
8.136830e+01	-1.658572e+01
8.183828e+01	-1.663380e+01
8.231097e+01	-1.668295e+01
8.278640e+01	-1.673202e+01
8.326457e+01	-1.678057e+01
8.374550e+01	-1.682988e+01
8.422921e+01	-1.687872e+01
8.471572e+01	-1.692767e+01
8.520503e+01	-1.697686e+01
8.569717e+01	-1.702648e+01
8.619215e+01	-1.707524e+01
8.669000e+01	-1.712451e+01
8.719071e+01	-1.717265e+01
8.769432e+01	-1.722118e+01
8.820084e+01	-1.727047e+01
8.871029e+01	-1.732052e+01
8.922267e+01	-1.737001e+01
8.973802e+01	-1.741770e+01
9.025634e+01	-1.746783e+01
9.077766e+01	-1.751715e+01
9.130199e+01	-1.756533e+01
9.182935e+01	-1.761555e+01
9.235975e+01	-1.766427e+01
9.289321e+01	-1.771406e+01
9.342976e+01	-1.776259e+01
9.396941e+01	-1.781093e+01
9.451217e+01	-1.786041e+01
9.505807e+01	-1.790944e+01
9.560712e+01	-1.795996e+01
9.615934e+01	-1.800817e+01
9.671476e+01	-1.805837e+01
9.727338e+01	-1.810817e+01
9.783522e+01	-1.815628e+01
9.840032e+01	-1.820544e+01
9.896867e+01	-1.825578e+01
9.954031e+01	-1.830425e+01
1.001153e+02	-1.835340e+01
1.006935e+02	-1.840370e+01
1.012751e+02	-1.845092e+01
1.018601e+02	-1.850164e+01
1.024484e+02	-1.855043e+01
1.030402e+02	-1.859979e+01
1.036353e+02	-1.865002e+01
1.042339e+02	-1.869893e+01
1.048360e+02	-1.874786e+01
1.054415e+02	-1.879715e+01
1.060505e+02	-1.884657e+01
1.066631e+02	-1.889748e+01
1.072791e+02	-1.894602e+01
1.078988e+02	-1.899598e+01
1.085220e+02	-1.904392e+01
1.091488e+02	-1.909537e+01
1.097793e+02	-1.914408e+01
1.104133e+02	-1.919262e+01
1.110511e+02	-1.924194e+01
1.116925e+02	-1.929182e+01
1.123376e+02	-1.933994e+01
1.129865e+02	-1.939074e+01
1.136391e+02	-1.944050e+01
1.142955e+02	-1.948986e+01
1.149556e+02	-1.953904e+01
1.156196e+02	-1.958894e+01
1.162874e+02	-1.963766e+01
1.169591e+02	-1.968742e+01
1.176347e+02	-1.973580e+01
1.183141e+02	-1.978778e+01
1.189975e+02	-1.983371e+01
1.196848e+02	-1.988624e+01
1.203761e+02	-1.993530e+01
1.210714e+02	-1.998282e+01
1.217707e+02	-2.003401e+01
1.224740e+02	-2.008363e+01
1.231814e+02	-2.013562e+01
1.238929e+02	-2.018246e+01
1.246085e+02	-2.023268e+01
1.253283e+02	-2.028235e+01
1.260522e+02	-2.033119e+01
1.267802e+02	-2.038119e+01
1.275125e+02	-2.043181e+01
1.282490e+02	-2.047927e+01
1.289898e+02	-2.052968e+01
1.297348e+02	-2.057952e+01
1.304842e+02	-2.063058e+01
1.312378e+02	-2.067950e+01
1.319959e+02	-2.072771e+01
1.327583e+02	-2.077860e+01
1.335251e+02	-2.082625e+01
1.342963e+02	-2.087661e+01
1.350720e+02	-2.092608e+01
1.358522e+02	-2.097783e+01
1.366368e+02	-2.102615e+01
1.374260e+02	-2.107428e+01
1.382198e+02	-2.112551e+01
1.390182e+02	-2.117591e+01
1.398211e+02	-2.122391e+01
1.406287e+02	-2.127468e+01
1.414410e+02	-2.132472e+01
1.422579e+02	-2.137464e+01
1.430796e+02	-2.142431e+01
1.439060e+02	-2.147283e+01
1.447372e+02	-2.152205e+01
1.455732e+02	-2.157246e+01
1.464141e+02	-2.162253e+01
1.472597e+02	-2.167364e+01
1.481103e+02	-2.172272e+01
1.489658e+02	-2.176950e+01
1.498262e+02	-2.182074e+01
1.506916e+02	-2.187016e+01
1.515620e+02	-2.191950e+01
1.524374e+02	-2.197130e+01
1.533179e+02	-2.201979e+01
1.542034e+02	-2.206767e+01
1.550941e+02	-2.211867e+01
1.559899e+02	-2.216851e+01
1.568909e+02	-2.222015e+01
1.577971e+02	-2.226840e+01
1.587085e+02	-2.231793e+01
1.596252e+02	-2.236860e+01
1.605472e+02	-2.241907e+01
1.614745e+02	-2.246816e+01
1.624072e+02	-2.251609e+01
1.633453e+02	-2.256691e+01
1.642887e+02	-2.261623e+01
1.652377e+02	-2.266429e+01
1.661921e+02	-2.271738e+01
1.671520e+02	-2.276490e+01
1.681175e+02	-2.281665e+01
1.690885e+02	-2.286650e+01
1.700651e+02	-2.291556e+01
1.710474e+02	-2.296583e+01
1.720354e+02	-2.301502e+01
1.730291e+02	-2.306457e+01
1.740285e+02	-2.311426e+01
1.750337e+02	-2.316335e+01
1.760446e+02	-2.321270e+01
1.770615e+02	-2.326410e+01
1.780842e+02	-2.331292e+01
1.791128e+02	-2.336330e+01
1.801473e+02	-2.341420e+01
1.811878e+02	-2.346396e+01
1.822344e+02	-2.351211e+01
1.832870e+02	-2.356505e+01
1.843456e+02	-2.361313e+01
1.854104e+02	-2.366327e+01
1.864813e+02	-2.371224e+01
1.875584e+02	-2.376349e+01
1.886418e+02	-2.381107e+01
1.897313e+02	-2.386160e+01
1.908272e+02	-2.391300e+01
1.919294e+02	-2.395961e+01
1.930380e+02	-2.401333e+01
1.941530e+02	-2.406211e+01
1.952744e+02	-2.411195e+01
1.964023e+02	-2.415975e+01
1.975367e+02	-2.421308e+01
1.986777e+02	-2.426014e+01
1.998252e+02	-2.431233e+01
2.009794e+02	-2.436185e+01
2.021403e+02	-2.440894e+01
2.033078e+02	-2.446284e+01
2.044821e+02	-2.450956e+01
2.056632e+02	-2.456109e+01
2.068511e+02	-2.461223e+01
2.080459e+02	-2.466170e+01
2.092475e+02	-2.471014e+01
2.104561e+02	-2.476163e+01
2.116717e+02	-2.480870e+01
2.128943e+02	-2.485774e+01
2.141240e+02	-2.490694e+01
2.153608e+02	-2.495726e+01
2.166047e+02	-2.500819e+01
2.178558e+02	-2.506020e+01
2.191141e+02	-2.511134e+01
2.203797e+02	-2.516278e+01
2.216526e+02	-2.520998e+01
2.229329e+02	-2.525596e+01
2.242205e+02	-2.531022e+01
2.255156e+02	-2.535994e+01
2.268182e+02	-2.540927e+01
2.281283e+02	-2.545903e+01
2.294459e+02	-2.550448e+01
2.307712e+02	-2.555808e+01
2.321041e+02	-2.560853e+01
2.334447e+02	-2.565753e+01
2.347931e+02	-2.570564e+01
2.361493e+02	-2.575625e+01
2.375133e+02	-2.580897e+01
2.388851e+02	-2.585823e+01
2.402649e+02	-2.590515e+01
2.416527e+02	-2.595640e+01
2.430484e+02	-2.600573e+01
2.444523e+02	-2.605823e+01
2.458642e+02	-2.610879e+01
2.472843e+02	-2.615699e+01
2.487126e+02	-2.620921e+01
2.501492e+02	-2.625757e+01
2.515940e+02	-2.630873e+01
2.530472e+02	-2.635542e+01
2.545088e+02	-2.640741e+01
2.559789e+02	-2.645804e+01
2.574574e+02	-2.650689e+01
2.589444e+02	-2.655863e+01
2.604401e+02	-2.660537e+01
2.619444e+02	-2.665640e+01
2.634574e+02	-2.670371e+01
2.649791e+02	-2.676185e+01
2.665096e+02	-2.680567e+01
2.680489e+02	-2.685652e+01
2.695972e+02	-2.690871e+01
2.711544e+02	-2.695685e+01
2.727205e+02	-2.700741e+01
2.742958e+02	-2.705709e+01
2.758801e+02	-2.710870e+01
2.774736e+02	-2.715503e+01
2.790762e+02	-2.720696e+01
2.806882e+02	-2.725674e+01
2.823094e+02	-2.730545e+01
2.839400e+02	-2.735979e+01
2.855800e+02	-2.740791e+01
2.872295e+02	-2.745689e+01
2.888886e+02	-2.750381e+01
2.905572e+02	-2.755551e+01
2.922354e+02	-2.760742e+01
2.939234e+02	-2.765687e+01
2.956211e+02	-2.770658e+01
2.973286e+02	-2.775563e+01
2.990459e+02	-2.780546e+01
3.007732e+02	-2.785833e+01
3.025104e+02	-2.790904e+01
3.042577e+02	-2.795684e+01
3.060151e+02	-2.801080e+01
3.077826e+02	-2.805905e+01
3.095604e+02	-2.810742e+01
3.113484e+02	-2.815863e+01
3.131467e+02	-2.820621e+01
3.149554e+02	-2.825733e+01
3.167746e+02	-2.830916e+01
3.186043e+02	-2.835732e+01
3.204445e+02	-2.840958e+01
3.222954e+02	-2.845493e+01
3.241570e+02	-2.850519e+01
3.260293e+02	-2.855910e+01
3.279124e+02	-2.860579e+01
3.298064e+02	-2.865682e+01
3.317114e+02	-2.870355e+01
3.336273e+02	-2.875909e+01
3.355544e+02	-2.880448e+01
3.374925e+02	-2.885428e+01
3.394418e+02	-2.890739e+01
3.414024e+02	-2.895833e+01
3.433744e+02	-2.901005e+01
3.453577e+02	-2.905927e+01
3.473525e+02	-2.911103e+01
3.493588e+02	-2.915796e+01
3.513766e+02	-2.921263e+01
3.534062e+02	-2.925886e+01
3.554474e+02	-2.930808e+01
3.575005e+02	-2.936001e+01
3.595654e+02	-2.940651e+01
3.616422e+02	-2.946127e+01
3.637311e+02	-2.950695e+01
3.658320e+02	-2.955464e+01
3.679450e+02	-2.960630e+01
3.700702e+02	-2.965495e+01
3.722077e+02	-2.970579e+01
3.743576e+02	-2.975543e+01
3.765199e+02	-2.981044e+01
3.786946e+02	-2.985525e+01
3.808820e+02	-2.991046e+01
3.830819e+02	-2.996241e+01
3.852946e+02	-3.000934e+01
3.875200e+02	-3.005497e+01
3.897583e+02	-3.010667e+01
3.920096e+02	-3.015544e+01
3.942738e+02	-3.021828e+01
3.965511e+02	-3.025457e+01
3.988416e+02	-3.031129e+01
4.011452e+02	-3.035948e+01
4.034622e+02	-3.040690e+01
4.057926e+02	-3.046327e+01
4.081365e+02	-3.050859e+01
4.104938e+02	-3.056510e+01
4.128648e+02	-3.061481e+01
4.152495e+02	-3.066037e+01
4.176480e+02	-3.070990e+01
4.200603e+02	-3.076069e+01
4.224866e+02	-3.081617e+01
4.249268e+02	-3.085935e+01
4.273812e+02	-3.091267e+01
4.298497e+02	-3.095745e+01
4.323325e+02	-3.100993e+01
4.348297e+02	-3.106622e+01
4.373412e+02	-3.111022e+01
4.398673e+02	-3.115862e+01
4.424079e+02	-3.121120e+01
4.449633e+02	-3.126713e+01
4.475334e+02	-3.130811e+01
4.501183e+02	-3.136035e+01
4.527182e+02	-3.141723e+01
4.553330e+02	-3.146412e+01
4.579630e+02	-3.151315e+01
4.606082e+02	-3.156669e+01
4.632687e+02	-3.161772e+01
4.659445e+02	-3.166184e+01
4.686358e+02	-3.171384e+01
4.713426e+02	-3.175978e+01
4.740650e+02	-3.180599e+01
4.768032e+02	-3.186896e+01
4.795572e+02	-3.191719e+01
4.823271e+02	-3.196361e+01
4.851130e+02	-3.201415e+01
4.879150e+02	-3.206187e+01
4.907332e+02	-3.211243e+01
4.935676e+02	-3.216860e+01
4.964185e+02	-3.221546e+01
4.992858e+02	-3.226658e+01
5.021696e+02	-3.231468e+01
5.050701e+02	-3.236983e+01
5.079874e+02	-3.240967e+01
5.109215e+02	-3.246203e+01
5.138726e+02	-3.251255e+01
5.168407e+02	-3.257124e+01
5.198259e+02	-3.261590e+01
5.228284e+02	-3.266419e+01
5.258482e+02	-3.271484e+01
5.288855e+02	-3.276343e+01
5.319403e+02	-3.281790e+01
5.350128e+02	-3.287318e+01
5.381030e+02	-3.292229e+01
5.412111e+02	-3.297051e+01
5.443371e+02	-3.301657e+01
5.474812e+02	-3.307060e+01
5.506434e+02	-3.311761e+01
5.538239e+02	-3.316745e+01
5.570228e+02	-3.322656e+01
5.602401e+02	-3.327429e+01
5.634760e+02	-3.331446e+01
5.667306e+02	-3.337427e+01
5.700040e+02	-3.341492e+01
5.732964e+02	-3.347500e+01
5.766077e+02	-3.351608e+01
5.799382e+02	-3.357240e+01
5.832879e+02	-3.362384e+01
5.866569e+02	-3.366649e+01
5.900454e+02	-3.372138e+01
5.934535e+02	-3.377546e+01
5.968813e+02	-3.381641e+01
6.003288e+02	-3.387774e+01
6.037963e+02	-3.392556e+01
6.072838e+02	-3.397452e+01
6.107914e+02	-3.403203e+01
6.143194e+02	-3.408308e+01
6.178676e+02	-3.411986e+01
6.214364e+02	-3.417248e+01
6.250258e+02	-3.421892e+01
6.286359e+02	-3.427950e+01
6.322669e+02	-3.432037e+01
6.359189e+02	-3.436714e+01
6.395919e+02	-3.442368e+01
6.432862e+02	-3.447620e+01
6.470017e+02	-3.452472e+01
6.507388e+02	-3.457391e+01
6.544974e+02	-3.462903e+01
6.582778e+02	-3.467791e+01
6.620800e+02	-3.471987e+01
6.659041e+02	-3.477719e+01
6.697504e+02	-3.483224e+01
6.736188e+02	-3.488432e+01
6.775096e+02	-3.492877e+01
6.814229e+02	-3.497736e+01
6.853587e+02	-3.503485e+01
6.893173e+02	-3.508082e+01
6.932988e+02	-3.512566e+01
6.973033e+02	-3.517704e+01
7.013309e+02	-3.522527e+01
