Frequency(Hz)	Magnitude(dB)
1.000000e+01	-2.149361e+00
1.005776e+01	-2.169028e+00
1.011585e+01	-2.188347e+00
1.017428e+01	-2.208494e+00
1.023305e+01	-2.228722e+00
1.029215e+01	-2.248744e+00
1.035160e+01	-2.268994e+00
1.041139e+01	-2.289383e+00
1.047153e+01	-2.310135e+00
1.053201e+01	-2.330438e+00
1.059284e+01	-2.351213e+00
1.065403e+01	-2.372411e+00
1.071556e+01	-2.393441e+00
1.077746e+01	-2.414852e+00
1.083971e+01	-2.436139e+00
1.090232e+01	-2.457823e+00
1.096529e+01	-2.479599e+00
1.102862e+01	-2.501455e+00
1.109232e+01	-2.523219e+00
1.115639e+01	-2.545243e+00
1.122083e+01	-2.567755e+00
1.128564e+01	-2.590266e+00
1.135083e+01	-2.612731e+00
1.141639e+01	-2.635386e+00
1.148233e+01	-2.658248e+00
1.154865e+01	-2.681036e+00
1.161536e+01	-2.704005e+00
1.168245e+01	-2.727276e+00
1.174992e+01	-2.751093e+00
1.181779e+01	-2.774480e+00
1.188605e+01	-2.798212e+00
1.195470e+01	-2.821936e+00
1.202375e+01	-2.845862e+00
1.209320e+01	-2.870058e+00
1.216305e+01	-2.894437e+00
1.223330e+01	-2.918703e+00
1.230396e+01	-2.943298e+00
1.237503e+01	-2.967945e+00
1.244651e+01	-2.992739e+00
1.251840e+01	-3.017681e+00
1.259070e+01	-3.042877e+00
1.266343e+01	-3.068293e+00
1.273657e+01	-3.093459e+00
1.281014e+01	-3.119092e+00
1.288413e+01	-3.144935e+00
1.295855e+01	-3.170753e+00
1.303339e+01	-3.196820e+00
1.310867e+01	-3.222798e+00
1.318439e+01	-3.249053e+00
1.326054e+01	-3.275351e+00
1.333713e+01	-3.302123e+00
1.341417e+01	-3.328805e+00
1.349165e+01	-3.355584e+00
1.356958e+01	-3.382721e+00
1.364795e+01	-3.409981e+00
1.372678e+01	-3.437235e+00
1.380607e+01	-3.464610e+00
1.388581e+01	-3.491964e+00
1.396602e+01	-3.519724e+00
1.404668e+01	-3.547712e+00
1.412782e+01	-3.575821e+00
1.420942e+01	-3.603701e+00
1.429149e+01	-3.632213e+00
1.437404e+01	-3.660096e+00
1.445706e+01	-3.689240e+00
1.454057e+01	-3.717472e+00
1.462455e+01	-3.746681e+00
1.470902e+01	-3.775768e+00
1.479398e+01	-3.804720e+00
1.487943e+01	-3.833676e+00
1.496537e+01	-3.863497e+00
1.505181e+01	-3.893071e+00
1.513875e+01	-3.922784e+00
1.522619e+01	-3.952296e+00
1.531414e+01	-3.982281e+00
1.540259e+01	-4.012422e+00
1.549156e+01	-4.042513e+00
1.558103e+01	-4.073053e+00
1.567103e+01	-4.103438e+00
1.576155e+01	-4.134284e+00
1.585258e+01	-4.164723e+00
1.594415e+01	-4.195610e+00
1.603624e+01	-4.227097e+00
1.612886e+01	-4.258351e+00
1.622202e+01	-4.289470e+00
1.631572e+01	-4.321088e+00
1.640996e+01	-4.352153e+00
1.650474e+01	-4.384169e+00
1.660008e+01	-4.416083e+00
1.669596e+01	-4.448331e+00
1.679239e+01	-4.480236e+00
1.688938e+01	-4.512566e+00
1.698694e+01	-4.544873e+00
1.708505e+01	-4.577755e+00
1.718373e+01	-4.610056e+00
1.728299e+01	-4.642902e+00
1.738281e+01	-4.675703e+00
1.748322e+01	-4.708620e+00
1.758420e+01	-4.741802e+00
1.768576e+01	-4.775436e+00
1.778792e+01	-4.808823e+00
1.789066e+01	-4.842241e+00
1.799399e+01	-4.876298e+00
1.809793e+01	-4.909917e+00
1.820246e+01	-4.943884e+00
1.830760e+01	-4.977810e+00
1.841334e+01	-5.011878e+00
1.851969e+01	-5.046242e+00
1.862666e+01	-5.080910e+00
1.873425e+01	-5.115472e+00
1.884246e+01	-5.149773e+00
1.895129e+01	-5.184817e+00
1.906075e+01	-5.219691e+00
1.917085e+01	-5.254972e+00
1.928158e+01	-5.289941e+00
1.939295e+01	-5.325200e+00
1.950496e+01	-5.360589e+00
1.961762e+01	-5.396249e+00
1.973093e+01	-5.431885e+00
1.984490e+01	-5.467911e+00
1.995952e+01	-5.503171e+00
2.007480e+01	-5.539543e+00
2.019076e+01	-5.575203e+00
2.030738e+01	-5.612076e+00
2.042467e+01	-5.648063e+00
2.054264e+01	-5.684978e+00
2.066130e+01	-5.720972e+00
2.078064e+01	-5.757842e+00
2.090066e+01	-5.794587e+00
2.102139e+01	-5.831422e+00
2.114280e+01	-5.868809e+00
2.126492e+01	-5.905743e+00
2.138775e+01	-5.942825e+00
2.151128e+01	-5.980279e+00
2.163553e+01	-6.017679e+00
2.176050e+01	-6.054998e+00
2.188619e+01	-6.093053e+00
2.201260e+01	-6.130732e+00
2.213974e+01	-6.168546e+00
2.226762e+01	-6.206331e+00
2.239624e+01	-6.244767e+00
2.252560e+01	-6.283438e+00
2.265571e+01	-6.321148e+00
2.278656e+01	-6.359422e+00
2.291818e+01	-6.397839e+00
2.305055e+01	-6.436359e+00
2.318369e+01	-6.475486e+00
2.331760e+01	-6.514776e+00
2.345228e+01	-6.553141e+00
2.358774e+01	-6.592292e+00
2.372398e+01	-6.631092e+00
2.386101e+01	-6.670456e+00
2.399883e+01	-6.709836e+00
2.413745e+01	-6.749179e+00
2.427686e+01	-6.788845e+00
2.441709e+01	-6.828500e+00
2.455812e+01	-6.868460e+00
2.469997e+01	-6.908028e+00
2.484263e+01	-6.947861e+00
2.498612e+01	-6.987616e+00
2.513044e+01	-7.027792e+00
2.527559e+01	-7.067668e+00
2.542158e+01	-7.108140e+00
2.556842e+01	-7.148468e+00
2.571610e+01	-7.189128e+00
2.586463e+01	-7.229530e+00
2.601403e+01	-7.270236e+00
2.616428e+01	-7.310702e+00
2.631541e+01	-7.351600e+00
2.646740e+01	-7.392098e+00
2.662028e+01	-7.433238e+00
2.677404e+01	-7.474385e+00
2.692868e+01	-7.515628e+00
2.708422e+01	-7.556357e+00
2.724066e+01	-7.597919e+00
2.739800e+01	-7.639362e+00
2.755625e+01	-7.680733e+00
2.771541e+01	-7.722458e+00
2.787550e+01	-7.764192e+00
2.803650e+01	-7.805665e+00
2.819844e+01	-7.847865e+00
2.836131e+01	-7.889547e+00
2.852513e+01	-7.931209e+00
2.868989e+01	-7.973200e+00
2.885560e+01	-8.015156e+00
2.902227e+01	-8.057429e+00
2.918990e+01	-8.099441e+00
2.935850e+01	-8.141989e+00
2.952807e+01	-8.184356e+00
2.969863e+01	-8.226994e+00
2.987016e+01	-8.269006e+00
3.004269e+01	-8.312078e+00
3.021622e+01	-8.354492e+00
3.039075e+01	-8.397301e+00
3.056628e+01	-8.440025e+00
3.074283e+01	-8.483124e+00
3.092040e+01	-8.526010e+00
3.109900e+01	-8.568694e+00
3.127862e+01	-8.612640e+00
3.145929e+01	-8.655329e+00
3.164099e+01	-8.698098e+00
3.182375e+01	-8.742307e+00
3.200756e+01	-8.785035e+00
3.219244e+01	-8.828541e+00
3.237838e+01	-8.872171e+00
3.256540e+01	-8.916099e+00
3.275349e+01	-8.959477e+00
3.294268e+01	-9.003617e+00
3.313295e+01	-9.046559e+00
3.332433e+01	-9.090969e+00
3.351681e+01	-9.134474e+00
3.371040e+01	-9.178488e+00
3.390511e+01	-9.222895e+00
3.410094e+01	-9.267213e+00
3.429791e+01	-9.310418e+00
3.449601e+01	-9.355179e+00
3.469526e+01	-9.399207e+00
3.489566e+01	-9.443715e+00
3.509721e+01	-9.488370e+00
3.529993e+01	-9.532443e+00
3.550382e+01	-9.576919e+00
3.570889e+01	-9.621457e+00
3.591515e+01	-9.666164e+00
3.612259e+01	-9.710090e+00
3.633123e+01	-9.755272e+00
3.654108e+01	-9.800235e+00
3.675214e+01	-9.845153e+00
3.696442e+01	-9.890341e+00
3.717792e+01	-9.935027e+00
3.739266e+01	-9.979721e+00
3.760864e+01	-1.002480e+01
3.782587e+01	-1.006973e+01
3.804435e+01	-1.011483e+01
3.826409e+01	-1.015999e+01
3.848510e+01	-1.020563e+01
3.870739e+01	-1.025087e+01
3.893096e+01	-1.029600e+01
3.915583e+01	-1.034134e+01
3.938199e+01	-1.038659e+01
3.960946e+01	-1.043240e+01
3.983824e+01	-1.047762e+01
4.006834e+01	-1.052375e+01
4.029978e+01	-1.056913e+01
4.053255e+01	-1.061478e+01
4.076666e+01	-1.066080e+01
4.100213e+01	-1.070574e+01
4.123896e+01	-1.075216e+01
4.147715e+01	-1.079741e+01
4.171672e+01	-1.084345e+01
4.195767e+01	-1.088883e+01
4.220002e+01	-1.093531e+01
4.244377e+01	-1.098133e+01
4.268892e+01	-1.102741e+01
4.293549e+01	-1.107366e+01
4.318348e+01	-1.111999e+01
4.343291e+01	-1.116613e+01
4.368377e+01	-1.121230e+01
4.393609e+01	-1.125834e+01
4.418986e+01	-1.130534e+01
4.444510e+01	-1.135161e+01
4.470182e+01	-1.139723e+01
4.496001e+01	-1.144398e+01
4.521970e+01	-1.149028e+01
4.548089e+01	-1.153646e+01
4.574358e+01	-1.158326e+01
4.600779e+01	-1.162982e+01
4.627353e+01	-1.167648e+01
4.654081e+01	-1.172295e+01
4.680963e+01	-1.176942e+01
4.708000e+01	-1.181634e+01
4.735193e+01	-1.186341e+01
4.762543e+01	-1.191041e+01
4.790051e+01	-1.195708e+01
4.817719e+01	-1.200361e+01
4.845545e+01	-1.205043e+01
4.873533e+01	-1.209837e+01
4.901682e+01	-1.214439e+01
4.929994e+01	-1.219235e+01
4.958470e+01	-1.223934e+01
4.987110e+01	-1.228596e+01
5.015915e+01	-1.233224e+01
5.044887e+01	-1.237957e+01
5.074026e+01	-1.242694e+01
5.103333e+01	-1.247435e+01
5.132810e+01	-1.252205e+01
5.162457e+01	-1.256866e+01
5.192275e+01	-1.261612e+01
5.222265e+01	-1.266337e+01
5.252429e+01	-1.271039e+01
5.282767e+01	-1.275768e+01
5.313280e+01	-1.280530e+01
5.343969e+01	-1.285192e+01
5.374836e+01	-1.289980e+01
5.405880e+01	-1.294725e+01
5.437105e+01	-1.299550e+01
5.468509e+01	-1.304289e+01
5.500095e+01	-1.309069e+01
5.531863e+01	-1.313786e+01
5.563815e+01	-1.318540e+01
5.595951e+01	-1.323325e+01
5.628273e+01	-1.328133e+01
5.660782e+01	-1.332874e+01
5.693479e+01	-1.337588e+01
5.726364e+01	-1.342400e+01
5.759439e+01	-1.347120e+01
5.792705e+01	-1.351925e+01
5.826164e+01	-1.356671e+01
5.859815e+01	-1.361534e+01
5.893662e+01	-1.366298e+01
5.927703e+01	-1.371053e+01
5.961941e+01	-1.375871e+01
5.996377e+01	-1.380640e+01
6.031012e+01	-1.385506e+01
6.065847e+01	-1.390221e+01
6.100883e+01	-1.395033e+01
6.136121e+01	-1.399769e+01
6.171563e+01	-1.404717e+01
6.207210e+01	-1.409505e+01
6.243063e+01	-1.414259e+01
6.279122e+01	-1.419080e+01
6.315390e+01	-1.423869e+01
6.351868e+01	-1.428715e+01
6.388556e+01	-1.433493e+01
6.425456e+01	-1.438314e+01
6.462569e+01	-1.443119e+01
6.499897e+01	-1.448051e+01
6.537440e+01	-1.452816e+01
6.575200e+01	-1.457556e+01
6.613178e+01	-1.462461e+01
6.651375e+01	-1.467284e+01
6.689793e+01	-1.472165e+01
6.728433e+01	-1.476967e+01
6.767297e+01	-1.481889e+01
6.806384e+01	-1.486703e+01
6.845698e+01	-1.491521e+01
6.885238e+01	-1.496411e+01
6.925007e+01	-1.501199e+01
6.965005e+01	-1.505994e+01
7.005235e+01	-1.510939e+01
7.045697e+01	-1.515581e+01
7.086393e+01	-1.520632e+01
7.127323e+01	-1.525438e+01
7.168490e+01	-1.530410e+01
7.209895e+01	-1.535114e+01
7.251539e+01	-1.539941e+01
7.293424e+01	-1.544852e+01
7.335551e+01	-1.549757e+01
7.377920e+01	-1.554585e+01
7.420535e+01	-1.559465e+01
7.463396e+01	-1.564337e+01
7.506504e+01	-1.569141e+01
7.549861e+01	-1.574078e+01
7.593469e+01	-1.578916e+01
7.637328e+01	-1.583841e+01
7.681441e+01	-1.588654e+01
7.725809e+01	-1.593561e+01
7.770433e+01	-1.598386e+01
7.815315e+01	-1.603376e+01
7.860456e+01	-1.608224e+01
7.905857e+01	-1.613197e+01
7.951521e+01	-1.617881e+01
7.997449e+01	-1.622755e+01
8.043642e+01	-1.627731e+01
8.090102e+01	-1.632598e+01
8.136830e+01	-1.637473e+01
8.183828e+01	-1.642415e+01
8.231097e+01	-1.647302e+01
8.278640e+01	-1.652165e+01
8.326457e+01	-1.657064e+01
8.374550e+01	-1.661890e+01
8.422921e+01	-1.666805e+01
8.471572e+01	-1.671732e+01
8.520503e+01	-1.676619e+01
8.569717e+01	-1.681457e+01
8.619215e+01	-1.686417e+01
8.669000e+01	-1.691301e+01
8.719071e+01	-1.696166e+01
8.769432e+01	-1.701063e+01
8.820084e+01	-1.705982e+01
8.871029e+01	-1.710933e+01
8.922267e+01	-1.715888e+01
8.973802e+01	-1.720723e+01
9.025634e+01	-1.725607e+01
9.077766e+01	-1.730588e+01
9.130199e+01	-1.735456e+01
9.182935e+01	-1.740414e+01
9.235975e+01	-1.745405e+01
9.289321e+01	-1.750266e+01
9.342976e+01	-1.755064e+01
9.396941e+01	-1.759995e+01
9.451217e+01	-1.765015e+01
9.505807e+01	-1.770017e+01
9.560712e+01	-1.774792e+01
9.615934e+01	-1.779761e+01
9.671476e+01	-1.784686e+01
9.727338e+01	-1.789743e+01
9.783522e+01	-1.794362e+01
9.840032e+01	-1.799464e+01
9.896867e+01	-1.804364e+01
9.954031e+01	-1.809232e+01
1.001153e+02	-1.814173e+01
1.006935e+02	-1.819128e+01
1.012751e+02	-1.824029e+01
1.018601e+02	-1.828848e+01
1.024484e+02	-1.833888e+01
1.030402e+02	-1.838892e+01
1.036353e+02	-1.843799e+01
1.042339e+02	-1.848593e+01
1.048360e+02	-1.853677e+01
1.054415e+02	-1.858513e+01
1.060505e+02	-1.863499e+01
1.066631e+02	-1.868529e+01
1.072791e+02	-1.873481e+01
1.078988e+02	-1.878218e+01
1.085220e+02	-1.883152e+01
1.091488e+02	-1.888119e+01
1.097793e+02	-1.893213e+01
1.104133e+02	-1.898120e+01
1.110511e+02	-1.903077e+01
1.116925e+02	-1.907840e+01
1.123376e+02	-1.912854e+01
1.129865e+02	-1.917690e+01
1.136391e+02	-1.922756e+01
1.142955e+02	-1.927733e+01
1.149556e+02	-1.932663e+01
1.156196e+02	-1.937475e+01
1.162874e+02	-1.942642e+01
1.169591e+02	-1.947525e+01
1.176347e+02	-1.952419e+01
1.183141e+02	-1.957517e+01
1.189975e+02	-1.962126e+01
1.196848e+02	-1.967219e+01
1.203761e+02	-1.972274e+01
1.210714e+02	-1.977180e+01
1.217707e+02	-1.982170e+01
1.224740e+02	-1.986974e+01
1.231814e+02	-1.992237e+01
1.238929e+02	-1.996880e+01
1.246085e+02	-2.001863e+01
1.253283e+02	-2.006923e+01
1.260522e+02	-2.011839e+01
1.267802e+02	-2.016750e+01
1.275125e+02	-2.021789e+01
1.282490e+02	-2.026567e+01
1.289898e+02	-2.031572e+01
1.297348e+02	-2.036566e+01
1.304842e+02	-2.041523e+01
1.312378e+02	-2.046644e+01
1.319959e+02	-2.051444e+01
1.327583e+02	-2.056734e+01
1.335251e+02	-2.061485e+01
1.342963e+02	-2.066450e+01
1.350720e+02	-2.071348e+01
1.358522e+02	-2.076382e+01
1.366368e+02	-2.081265e+01
1.374260e+02	-2.086248e+01
1.382198e+02	-2.091354e+01
1.390182e+02	-2.096028e+01
1.398211e+02	-2.101047e+01
1.406287e+02	-2.106011e+01
1.414410e+02	-2.111220e+01
1.422579e+02	-2.115997e+01
1.430796e+02	-2.120896e+01
1.439060e+02	-2.125994e+01
1.447372e+02	-2.130924e+01
1.455732e+02	-2.135798e+01
1.464141e+02	-2.140888e+01
1.472597e+02	-2.145957e+01
1.481103e+02	-2.150810e+01
1.489658e+02	-2.155757e+01
1.498262e+02	-2.160894e+01
1.506916e+02	-2.165680e+01
1.515620e+02	-2.170588e+01
1.524374e+02	-2.175612e+01
1.533179e+02	-2.180728e+01
1.542034e+02	-2.185548e+01
1.550941e+02	-2.190789e+01
1.559899e+02	-2.195530e+01
1.568909e+02	-2.200625e+01
1.577971e+02	-2.205756e+01
1.587085e+02	-2.210502e+01
1.596252e+02	-2.215194e+01
1.605472e+02	-2.220488e+01
1.614745e+02	-2.225225e+01
1.624072e+02	-2.230481e+01
1.633453e+02	-2.235247e+01
1.642887e+02	-2.240376e+01
1.652377e+02	-2.245154e+01
1.661921e+02	-2.250356e+01
1.671520e+02	-2.255149e+01
1.681175e+02	-2.260250e+01
1.690885e+02	-2.264976e+01
1.700651e+02	-2.270324e+01
1.710474e+02	-2.275225e+01
1.720354e+02	-2.280303e+01
1.730291e+02	-2.285058e+01
1.740285e+02	-2.290124e+01
1.750337e+02	-2.294934e+01
1.760446e+02	-2.300155e+01
1.770615e+02	-2.305041e+01
1.780842e+02	-2.310129e+01
1.791128e+02	-2.315076e+01
1.801473e+02	-2.320131e+01
1.811878e+02	-2.324961e+01
1.822344e+02	-2.329746e+01
1.832870e+02	-2.334778e+01
1.843456e+02	-2.339911e+01
1.854104e+02	-2.344810e+01
1.864813e+02	-2.349633e+01
1.875584e+02	-2.354808e+01
1.886418e+02	-2.359978e+01
1.897313e+02	-2.364784e+01
1.908272e+02	-2.369965e+01
1.919294e+02	-2.374695e+01
1.930380e+02	-2.379834e+01
1.941530e+02	-2.384704e+01
1.952744e+02	-2.389677e+01
1.964023e+02	-2.394650e+01
1.975367e+02	-2.399668e+01
1.986777e+02	-2.404770e+01
1.998252e+02	-2.409742e+01
2.009794e+02	-2.414429e+01
2.021403e+02	-2.419515e+01
2.033078e+02	-2.424683e+01
2.044821e+02	-2.429718e+01
2.056632e+02	-2.434396e+01
2.068511e+02	-2.439740e+01
2.080459e+02	-2.444525e+01
2.092475e+02	-2.449422e+01
2.104561e+02	-2.454240e+01
2.116717e+02	-2.459459e+01
2.128943e+02	-2.464529e+01
2.141240e+02	-2.469714e+01
2.153608e+02	-2.474400e+01
2.166047e+02	-2.479358e+01
2.178558e+02	-2.484615e+01
2.191141e+02	-2.489609e+01
2.203797e+02	-2.494136e+01
2.216526e+02	-2.499401e+01
2.229329e+02	-2.504447e+01
2.242205e+02	-2.509436e+01
2.255156e+02	-2.514443e+01
2.268182e+02	-2.519691e+01
2.281283e+02	-2.524228e+01
2.294459e+02	-2.529281e+01
2.307712e+02	-2.534428e+01
2.321041e+02	-2.539348e+01
2.334447e+02	-2.544551e+01
2.347931e+02	-2.549469e+01
2.361493e+02	-2.554472e+01
2.375133e+02	-2.559235e+01
2.388851e+02	-2.564448e+01
2.402649e+02	-2.569381e+01
2.416527e+02	-2.574446e+01
2.430484e+02	-2.579231e+01
2.444523e+02	-2.584381e+01
2.458642e+02	-2.589232e+01
2.472843e+02	-2.594376e+01
2.487126e+02	-2.599233e+01
2.501492e+02	-2.604023e+01
2.515940e+02	-2.609673e+01
2.530472e+02	-2.614253e+01
2.545088e+02	-2.619549e+01
2.559789e+02	-2.624252e+01
2.574574e+02	-2.629176e+01
2.589444e+02	-2.634029e+01
2.604401e+02	-2.639207e+01
2.619444e+02	-2.643884e+01
2.634574e+02	-2.649039e+01
2.649791e+02	-2.654265e+01
2.665096e+02	-2.659175e+01
2.680489e+02	-2.663843e+01
2.695972e+02	-2.669487e+01
2.711544e+02	-2.674255e+01
2.727205e+02	-2.679381e+01
2.742958e+02	-2.684085e+01
2.758801e+02	-2.689259e+01
2.774736e+02	-2.694276e+01
2.790762e+02	-2.699331e+01
2.806882e+02	-2.704375e+01
2.823094e+02	-2.709029e+01
2.839400e+02	-2.714054e+01
2.855800e+02	-2.719241e+01
2.872295e+02	-2.724379e+01
2.888886e+02	-2.729024e+01
2.905572e+02	-2.734229e+01
2.922354e+02	-2.738858e+01
2.939234e+02	-2.743971e+01
2.956211e+02	-2.749373e+01
2.973286e+02	-2.754193e+01
2.990459e+02	-2.758894e+01
3.007732e+02	-2.764257e+01
3.025104e+02	-2.769169e+01
3.042577e+02	-2.774123e+01
3.060151e+02	-2.779174e+01
3.077826e+02	-2.784306e+01
3.095604e+02	-2.789290e+01
3.113484e+02	-2.794017e+01
3.131467e+02	-2.799513e+01
3.149554e+02	-2.804273e+01
3.167746e+02	-2.809006e+01
3.186043e+02	-2.814378e+01
3.204445e+02	-2.819582e+01
3.222954e+02	-2.824155e+01
3.241570e+02	-2.829321e+01
3.260293e+02	-2.834562e+01
3.279124e+02	-2.839700e+01
3.298064e+02	-2.844237e+01
3.317114e+02	-2.849136e+01
3.336273e+02	-2.854315e+01
3.355544e+02	-2.859326e+01
3.374925e+02	-2.864104e+01
3.394418e+02	-2.869192e+01
3.414024e+02	-2.874199e+01
3.433744e+02	-2.879346e+01
3.453577e+02	-2.884587e+01
3.473525e+02	-2.889411e+01
3.493588e+02	-2.894046e+01
3.513766e+02	-2.899437e+01
3.534062e+02	-2.904583e+01
3.554474e+02	-2.909355e+01
3.575005e+02	-2.914403e+01
3.595654e+02	-2.919657e+01
3.616422e+02	-2.924207e+01
3.637311e+02	-2.929286e+01
3.658320e+02	-2.934614e+01
3.679450e+02	-2.939633e+01
3.700702e+02	-2.944168e+01
3.722077e+02	-2.948872e+01
3.743576e+02	-2.954854e+01
3.765199e+02	-2.959311e+01
3.786946e+02	-2.963929e+01
3.808820e+02	-2.969813e+01
3.830819e+02	-2.974340e+01
3.852946e+02	-2.979348e+01
3.875200e+02	-2.984560e+01
3.897583e+02	-2.989637e+01
3.920096e+02	-2.994849e+01
3.942738e+02	-2.999066e+01
3.965511e+02	-3.004590e+01
3.988416e+02	-3.009816e+01
4.011452e+02	-3.014327e+01
4.034622e+02	-3.019268e+01
4.057926e+02	-3.024541e+01
4.081365e+02	-3.030198e+01
4.104938e+02	-3.034740e+01
4.128648e+02	-3.039424e+01
4.152495e+02	-3.044684e+01
4.176480e+02	-3.050104e+01
4.200603e+02	-3.054701e+01
4.224866e+02	-3.059146e+01
4.249268e+02	-3.064123e+01
4.273812e+02	-3.069541e+01
4.298497e+02	-3.074454e+01
4.323325e+02	-3.079403e+01
4.348297e+02	-3.084475e+01
4.373412e+02	-3.090419e+01
4.398673e+02	-3.094651e+01
4.424079e+02	-3.100147e+01
4.449633e+02	-3.105141e+01
4.475334e+02	-3.110082e+01
4.501183e+02	-3.114082e+01
4.527182e+02	-3.119208e+01
4.553330e+02	-3.124947e+01
4.579630e+02	-3.130107e+01
4.606082e+02	-3.135109e+01
4.632687e+02	-3.139426e+01
4.659445e+02	-3.145622e+01
4.686358e+02	-3.149989e+01
4.713426e+02	-3.155046e+01
4.740650e+02	-3.160291e+01
4.768032e+02	-3.165554e+01
4.795572e+02	-3.170158e+01
4.823271e+02	-3.174824e+01
4.851130e+02	-3.180181e+01
4.879150e+02	-3.184784e+01
4.907332e+02	-3.189610e+01
4.935676e+02	-3.194801e+01
4.964185e+02	-3.199811e+01
4.992858e+02	-3.205146e+01
5.021696e+02	-3.210844e+01
5.050701e+02	-3.215111e+01
5.079874e+02	-3.220118e+01
5.109215e+02	-3.225164e+01
5.138726e+02	-3.230310e+01
5.168407e+02	-3.235460e+01
5.198259e+02	-3.239876e+01
5.228284e+02	-3.244828e+01
5.258482e+02	-3.249961e+01
5.288855e+02	-3.255001e+01
5.319403e+02	-3.261177e+01
5.350128e+02	-3.265504e+01
5.381030e+02	-3.270166e+01
5.412111e+02	-3.276041e+01
5.443371e+02	-3.280278e+01
5.474812e+02	-3.285062e+01
5.506434e+02	-3.290524e+01
5.538239e+02	-3.295727e+01
5.570228e+02	-3.300132e+01
5.602401e+02	-3.305575e+01
5.634760e+02	-3.310496e+01
5.667306e+02	-3.316166e+01
5.700040e+02	-3.320548e+01
5.732964e+02	-3.326122e+01
5.766077e+02	-3.331022e+01
5.799382e+02	-3.335047e+01
5.832879e+02	-3.340885e+01
5.866569e+02	-3.345436e+01
5.900454e+02	-3.350833e+01
5.934535e+02	-3.356311e+01
5.968813e+02	-3.360502e+01
6.003288e+02	-3.366008e+01
6.037963e+02	-3.371591e+01
6.072838e+02	-3.375109e+01
6.107914e+02	-3.380545e+01
6.143194e+02	-3.385427e+01
6.178676e+02	-3.390793e+01
6.214364e+02	-3.395549e+01
6.250258e+02	-3.400883e+01
6.286359e+02	-3.406059e+01
6.322669e+02	-3.410807e+01
6.359189e+02	-3.415881e+01
6.395919e+02	-3.420910e+01
6.432862e+02	-3.425929e+01
6.470017e+02	-3.430970e+01
6.507388e+02	-3.435478e+01
6.544974e+02	-3.440911e+01
6.582778e+02	-3.446080e+01
6.620800e+02	-3.451482e+01
6.659041e+02	-3.456030e+01
6.697504e+02	-3.461407e+01
6.736188e+02	-3.465314e+01
6.775096e+02	-3.470867e+01
6.814229e+02	-3.476711e+01
6.853587e+02	-3.481540e+01
6.893173e+02	-3.486774e+01
6.932988e+02	-3.491418e+01
6.973033e+02	-3.496025e+01
7.013309e+02	-3.500969e+01
