Frequency(Hz)	Magnitude(dB)
1.000000e+01	-1.975609e+00
1.005776e+01	-1.993901e+00
1.011585e+01	-2.012227e+00
1.017428e+01	-2.031014e+00
1.023305e+01	-2.049705e+00
1.029215e+01	-2.068776e+00
1.035160e+01	-2.087731e+00
1.041139e+01	-2.106609e+00
1.047153e+01	-2.126239e+00
1.053201e+01	-2.145638e+00
1.059284e+01	-2.165116e+00
1.065403e+01	-2.184944e+00
1.071556e+01	-2.204583e+00
1.077746e+01	-2.224592e+00
1.083971e+01	-2.244860e+00
1.090232e+01	-2.265155e+00
1.096529e+01	-2.285519e+00
1.102862e+01	-2.305869e+00
1.109232e+01	-2.326783e+00
1.115639e+01	-2.347579e+00
1.122083e+01	-2.368715e+00
1.128564e+01	-2.389507e+00
1.135083e+01	-2.411051e+00
1.141639e+01	-2.432057e+00
1.148233e+01	-2.453780e+00
1.154865e+01	-2.475298e+00
1.161536e+01	-2.497081e+00
1.168245e+01	-2.519159e+00
1.174992e+01	-2.541122e+00
1.181779e+01	-2.563450e+00
1.188605e+01	-2.585814e+00
1.195470e+01	-2.608289e+00
1.202375e+01	-2.631092e+00
1.209320e+01	-2.653965e+00
1.216305e+01	-2.676911e+00
1.223330e+01	-2.699784e+00
1.230396e+01	-2.723158e+00
1.237503e+01	-2.746464e+00
1.244651e+01	-2.770069e+00
1.251840e+01	-2.793593e+00
1.259070e+01	-2.817331e+00
1.266343e+01	-2.841391e+00
1.273657e+01	-2.865426e+00
1.281014e+01	-2.889460e+00
1.288413e+01	-2.914058e+00
1.295855e+01	-2.938493e+00
1.303339e+01	-2.963210e+00
1.310867e+01	-2.988026e+00
1.318439e+01	-3.013042e+00
1.326054e+01	-3.038198e+00
1.333713e+01	-3.063290e+00
1.341417e+01	-3.088668e+00
1.349165e+01	-3.114141e+00
1.356958e+01	-3.140153e+00
1.364795e+01	-3.165862e+00
1.372678e+01	-3.191837e+00
1.380607e+01	-3.217936e+00
1.388581e+01	-3.244040e+00
1.396602e+01	-3.270681e+00
1.404668e+01	-3.296999e+00
1.412782e+01	-3.323609e+00
1.420942e+01	-3.350555e+00
1.429149e+01	-3.377297e+00
1.437404e+01	-3.404765e+00
1.445706e+01	-3.431967e+00
1.454057e+01	-3.459373e+00
1.462455e+01	-3.486691e+00
1.470902e+01	-3.514593e+00
1.479398e+01	-3.542208e+00
1.487943e+01	-3.570377e+00
1.496537e+01	-3.598546e+00
1.505181e+01	-3.626726e+00
1.513875e+01	-3.655069e+00
1.522619e+01	-3.683635e+00
1.531414e+01	-3.712126e+00
1.540259e+01	-3.741357e+00
1.549156e+01	-3.769915e+00
1.558103e+01	-3.799190e+00
1.567103e+01	-3.828226e+00
1.576155e+01	-3.857725e+00
1.585258e+01	-3.887248e+00
1.594415e+01	-3.916839e+00
1.603624e+01	-3.946662e+00
1.612886e+01	-3.976879e+00
1.622202e+01	-4.006374e+00
1.631572e+01	-4.036885e+00
1.640996e+01	-4.067372e+00
1.650474e+01	-4.097519e+00
1.660008e+01	-4.128489e+00
1.669596e+01	-4.159086e+00
1.679239e+01	-4.190085e+00
1.688938e+01	-4.220994e+00
1.698694e+01	-4.252561e+00
1.708505e+01	-4.283526e+00
1.718373e+01	-4.315119e+00
1.728299e+01	-4.346683e+00
1.738281e+01	-4.378114e+00
1.748322e+01	-4.410300e+00
1.758420e+01	-4.441896e+00
1.768576e+01	-4.474235e+00
1.778792e+01	-4.506727e+00
1.789066e+01	-4.538706e+00
1.799399e+01	-4.571292e+00
1.809793e+01	-4.603734e+00
1.820246e+01	-4.636733e+00
1.830760e+01	-4.669615e+00
1.841334e+01	-4.702443e+00
1.851969e+01	-4.735685e+00
1.862666e+01	-4.769272e+00
1.873425e+01	-4.802150e+00
1.884246e+01	-4.835794e+00
1.895129e+01	-4.869422e+00
1.906075e+01	-4.903628e+00
1.917085e+01	-4.937121e+00
1.928158e+01	-4.971309e+00
1.939295e+01	-5.005238e+00
1.950496e+01	-5.039660e+00
1.961762e+01	-5.074081e+00
1.973093e+01	-5.108771e+00
1.984490e+01	-5.143351e+00
1.995952e+01	-5.178185e+00
2.007480e+01	-5.213414e+00
2.019076e+01	-5.248370e+00
2.030738e+01	-5.283299e+00
2.042467e+01	-5.318563e+00
2.054264e+01	-5.354080e+00
2.066130e+01	-5.389606e+00
2.078064e+01	-5.424847e+00
2.090066e+01	-5.460843e+00
2.102139e+01	-5.496700e+00
2.114280e+01	-5.532859e+00
2.126492e+01	-5.568730e+00
2.138775e+01	-5.604576e+00
2.151128e+01	-5.641178e+00
2.163553e+01	-5.677453e+00
2.176050e+01	-5.714355e+00
2.188619e+01	-5.751284e+00
2.201260e+01	-5.787592e+00
2.213974e+01	-5.824831e+00
2.226762e+01	-5.861332e+00
2.239624e+01	-5.898703e+00
2.252560e+01	-5.935743e+00
2.265571e+01	-5.973008e+00
2.278656e+01	-6.010278e+00
2.291818e+01	-6.048080e+00
2.305055e+01	-6.085858e+00
2.318369e+01	-6.123637e+00
2.331760e+01	-6.161300e+00
2.345228e+01	-6.199398e+00
2.358774e+01	-6.237578e+00
2.372398e+01	-6.275755e+00
2.386101e+01	-6.313838e+00
2.399883e+01	-6.352450e+00
2.413745e+01	-6.391101e+00
2.427686e+01	-6.429427e+00
2.441709e+01	-6.468104e+00
2.455812e+01	-6.507178e+00
2.469997e+01	-6.545913e+00
2.484263e+01	-6.584452e+00
2.498612e+01	-6.623752e+00
2.513044e+01	-6.663147e+00
2.527559e+01	-6.702088e+00
2.542158e+01	-6.742057e+00
2.556842e+01	-6.781353e+00
2.571610e+01	-6.820685e+00
2.586463e+01	-6.860421e+00
2.601403e+01	-6.900047e+00
2.616428e+01	-6.940338e+00
2.631541e+01	-6.980163e+00
2.646740e+01	-7.020009e+00
2.662028e+01	-7.060440e+00
2.677404e+01	-7.100550e+00
2.692868e+01	-7.140542e+00
2.708422e+01	-7.181414e+00
2.724066e+01	-7.221535e+00
2.739800e+01	-7.261882e+00
2.755625e+01	-7.303047e+00
2.771541e+01	-7.343360e+00
2.787550e+01	-7.384683e+00
2.803650e+01	-7.424970e+00
2.819844e+01	-7.466309e+00
2.836131e+01	-7.507403e+00
2.852513e+01	-7.548492e+00
2.868989e+01	-7.590094e+00
2.885560e+01	-7.631378e+00
2.902227e+01	-7.672570e+00
2.918990e+01	-7.714197e+00
2.935850e+01	-7.755714e+00
2.952807e+01	-7.797582e+00
2.969863e+01	-7.839363e+00
2.987016e+01	-7.880864e+00
3.004269e+01	-7.923360e+00
3.021622e+01	-7.965313e+00
3.039075e+01	-8.007283e+00
3.056628e+01	-8.049559e+00
3.074283e+01	-8.091530e+00
3.092040e+01	-8.134005e+00
3.109900e+01	-8.176317e+00
3.127862e+01	-8.218661e+00
3.145929e+01	-8.261325e+00
3.164099e+01	-8.304204e+00
3.182375e+01	-8.346481e+00
3.200756e+01	-8.389542e+00
3.219244e+01	-8.431578e+00
3.237838e+01	-8.474775e+00
3.256540e+01	-8.517910e+00
3.275349e+01	-8.560613e+00
3.294268e+01	-8.604126e+00
3.313295e+01	-8.647428e+00
3.332433e+01	-8.690502e+00
3.351681e+01	-8.733721e+00
3.371040e+01	-8.776715e+00
3.390511e+01	-8.820570e+00
3.410094e+01	-8.864326e+00
3.429791e+01	-8.907232e+00
3.449601e+01	-8.951397e+00
3.469526e+01	-8.994580e+00
3.489566e+01	-9.038586e+00
3.509721e+01	-9.082262e+00
3.529993e+01	-9.126070e+00
3.550382e+01	-9.169837e+00
3.570889e+01	-9.214333e+00
3.591515e+01	-9.257915e+00
3.612259e+01	-9.302685e+00
3.633123e+01	-9.346676e+00
3.654108e+01	-9.390288e+00
3.675214e+01	-9.435146e+00
3.696442e+01	-9.479248e+00
3.717792e+01	-9.524294e+00
3.739266e+01	-9.568219e+00
3.760864e+01	-9.612985e+00
3.782587e+01	-9.657184e+00
3.804435e+01	-9.702558e+00
3.826409e+01	-9.746933e+00
3.848510e+01	-9.791454e+00
3.870739e+01	-9.836226e+00
3.893096e+01	-9.881034e+00
3.915583e+01	-9.926339e+00
3.938199e+01	-9.971370e+00
3.960946e+01	-1.001585e+01
3.983824e+01	-1.006110e+01
4.006834e+01	-1.010685e+01
4.029978e+01	-1.015142e+01
4.053255e+01	-1.019672e+01
4.076666e+01	-1.024183e+01
4.100213e+01	-1.028718e+01
4.123896e+01	-1.033254e+01
4.147715e+01	-1.037782e+01
4.171672e+01	-1.042376e+01
4.195767e+01	-1.046914e+01
4.220002e+01	-1.051392e+01
4.244377e+01	-1.056004e+01
4.268892e+01	-1.060580e+01
4.293549e+01	-1.065142e+01
4.318348e+01	-1.069723e+01
4.343291e+01	-1.074289e+01
4.368377e+01	-1.078914e+01
4.393609e+01	-1.083479e+01
4.418986e+01	-1.088090e+01
4.444510e+01	-1.092679e+01
4.470182e+01	-1.097244e+01
4.496001e+01	-1.101842e+01
4.521970e+01	-1.106487e+01
4.548089e+01	-1.111043e+01
4.574358e+01	-1.115757e+01
4.600779e+01	-1.120339e+01
4.627353e+01	-1.124934e+01
4.654081e+01	-1.129575e+01
4.680963e+01	-1.134211e+01
4.708000e+01	-1.138833e+01
4.735193e+01	-1.143502e+01
4.762543e+01	-1.148105e+01
4.790051e+01	-1.152826e+01
4.817719e+01	-1.157415e+01
4.845545e+01	-1.162125e+01
4.873533e+01	-1.166751e+01
4.901682e+01	-1.171445e+01
4.929994e+01	-1.176069e+01
4.958470e+01	-1.180746e+01
4.987110e+01	-1.185451e+01
5.015915e+01	-1.190118e+01
5.044887e+01	-1.194767e+01
5.074026e+01	-1.199584e+01
5.103333e+01	-1.204157e+01
5.132810e+01	-1.208869e+01
5.162457e+01	-1.213563e+01
5.192275e+01	-1.218289e+01
5.222265e+01	-1.222992e+01
5.252429e+01	-1.227667e+01
5.282767e+01	-1.232383e+01
5.313280e+01	-1.237119e+01
5.343969e+01	-1.241815e+01
5.374836e+01	-1.246574e+01
5.405880e+01	-1.251188e+01
5.437105e+01	-1.255979e+01
5.468509e+01	-1.260749e+01
5.500095e+01	-1.265405e+01
5.531863e+01	-1.270135e+01
5.563815e+01	-1.274910e+01
5.595951e+01	-1.279609e+01
5.628273e+01	-1.284398e+01
5.660782e+01	-1.289083e+01
5.693479e+01	-1.293851e+01
5.726364e+01	-1.298602e+01
5.759439e+01	-1.303310e+01
5.792705e+01	-1.308086e+01
5.826164e+01	-1.312899e+01
5.859815e+01	-1.317673e+01
5.893662e+01	-1.322423e+01
5.927703e+01	-1.327220e+01
5.961941e+01	-1.331931e+01
5.996377e+01	-1.336640e+01
6.031012e+01	-1.341412e+01
6.065847e+01	-1.346235e+01
6.100883e+01	-1.351047e+01
6.136121e+01	-1.355809e+01
6.171563e+01	-1.360574e+01
6.207210e+01	-1.365352e+01
6.243063e+01	-1.370162e+01
6.279122e+01	-1.374963e+01
6.315390e+01	-1.379757e+01
6.351868e+01	-1.384605e+01
6.388556e+01	-1.389374e+01
6.425456e+01	-1.394055e+01
6.462569e+01	-1.399031e+01
6.499897e+01	-1.403743e+01
6.537440e+01	-1.408623e+01
6.575200e+01	-1.413355e+01
6.613178e+01	-1.418215e+01
6.651375e+01	-1.422957e+01
6.689793e+01	-1.427847e+01
6.728433e+01	-1.432661e+01
6.767297e+01	-1.437560e+01
6.806384e+01	-1.442312e+01
6.845698e+01	-1.447135e+01
6.885238e+01	-1.451906e+01
6.925007e+01	-1.456771e+01
6.965005e+01	-1.461562e+01
7.005235e+01	-1.466427e+01
7.045697e+01	-1.471193e+01
7.086393e+01	-1.476037e+01
7.127323e+01	-1.480991e+01
7.168490e+01	-1.485657e+01
7.209895e+01	-1.490691e+01
7.251539e+01	-1.495393e+01
7.293424e+01	-1.500359e+01
7.335551e+01	-1.505115e+01
7.377920e+01	-1.509899e+01
7.420535e+01	-1.514821e+01
7.463396e+01	-1.519674e+01
7.506504e+01	-1.524572e+01
7.549861e+01	-1.529463e+01
7.593469e+01	-1.534262e+01
7.637328e+01	-1.539068e+01
7.681441e+01	-1.543927e+01
7.725809e+01	-1.548905e+01
7.770433e+01	-1.553669e+01
7.815315e+01	-1.558456e+01
7.860456e+01	-1.563354e+01
7.905857e+01	-1.568246e+01
7.951521e+01	-1.573104e+01
7.997449e+01	-1.577969e+01
8.043642e+01	-1.582938e+01
8.090102e+01	-1.587664e+01
8.136830e+01	-1.592583e+01
8.183828e+01	-1.597421e+01
8.231097e+01	-1.602288e+01
8.278640e+01	-1.607291e+01
8.326457e+01	-1.612099e+01
8.374550e+01	-1.616996e+01
8.422921e+01	-1.621873e+01
8.471572e+01	-1.626725e+01
8.520503e+01	-1.631736e+01
8.569717e+01	-1.636548e+01
8.619215e+01	-1.641411e+01
8.669000e+01	-1.646184e+01
8.719071e+01	-1.651141e+01
8.769432e+01	-1.656035e+01
8.820084e+01	-1.660986e+01
8.871029e+01	-1.665889e+01
8.922267e+01	-1.670808e+01
8.973802e+01	-1.675610e+01
9.025634e+01	-1.680679e+01
9.077766e+01	-1.685427e+01
9.130199e+01	-1.690397e+01
9.182935e+01	-1.695306e+01
9.235975e+01	-1.700171e+01
9.289321e+01	-1.705210e+01
9.342976e+01	-1.710030e+01
9.396941e+01	-1.715013e+01
9.451217e+01	-1.719832e+01
9.505807e+01	-1.724690e+01
9.560712e+01	-1.729604e+01
9.615934e+01	-1.734569e+01
9.671476e+01	-1.739380e+01
9.727338e+01	-1.744299e+01
9.783522e+01	-1.749282e+01
9.840032e+01	-1.754210e+01
9.896867e+01	-1.759188e+01
9.954031e+01	-1.763912e+01
1.001153e+02	-1.769036e+01
1.006935e+02	-1.773971e+01
1.012751e+02	-1.778889e+01
1.018601e+02	-1.783638e+01
1.024484e+02	-1.788628e+01
1.030402e+02	-1.793612e+01
1.036353e+02	-1.798476e+01
1.042339e+02	-1.803460e+01
1.048360e+02	-1.808429e+01
1.054415e+02	-1.813447e+01
1.060505e+02	-1.818277e+01
1.066631e+02	-1.823085e+01
1.072791e+02	-1.827992e+01
1.078988e+02	-1.832964e+01
1.085220e+02	-1.837803e+01
1.091488e+02	-1.842904e+01
1.097793e+02	-1.847710e+01
1.104133e+02	-1.852921e+01
1.110511e+02	-1.857659e+01
1.116925e+02	-1.862600e+01
1.123376e+02	-1.867560e+01
1.129865e+02	-1.872447e+01
1.136391e+02	-1.877329e+01
1.142955e+02	-1.882321e+01
1.149556e+02	-1.887251e+01
1.156196e+02	-1.892260e+01
1.162874e+02	-1.897249e+01
1.169591e+02	-1.901994e+01
1.176347e+02	-1.906995e+01
1.183141e+02	-1.911909e+01
1.189975e+02	-1.916884e+01
1.196848e+02	-1.921832e+01
1.203761e+02	-1.926810e+01
1.210714e+02	-1.931784e+01
1.217707e+02	-1.936483e+01
1.224740e+02	-1.941600e+01
1.231814e+02	-1.946471e+01
1.238929e+02	-1.951436e+01
1.246085e+02	-1.956526e+01
1.253283e+02	-1.961386e+01
1.260522e+02	-1.966427e+01
1.267802e+02	-1.971258e+01
1.275125e+02	-1.976228e+01
1.282490e+02	-1.981240e+01
1.289898e+02	-1.986113e+01
1.297348e+02	-1.991218e+01
1.304842e+02	-1.996235e+01
1.312378e+02	-2.001040e+01
1.319959e+02	-2.006047e+01
1.327583e+02	-2.010977e+01
1.335251e+02	-2.015798e+01
1.342963e+02	-2.020892e+01
1.350720e+02	-2.025837e+01
1.358522e+02	-2.030885e+01
1.366368e+02	-2.035511e+01
1.374260e+02	-2.040642e+01
1.382198e+02	-2.045678e+01
1.390182e+02	-2.050659e+01
1.398211e+02	-2.055524e+01
1.406287e+02	-2.060498e+01
1.414410e+02	-2.065459e+01
1.422579e+02	-2.070282e+01
1.430796e+02	-2.075275e+01
1.439060e+02	-2.080170e+01
1.447372e+02	-2.085299e+01
1.455732e+02	-2.090209e+01
1.464141e+02	-2.095274e+01
1.472597e+02	-2.100201e+01
1.481103e+02	-2.105132e+01
1.489658e+02	-2.110153e+01
1.498262e+02	-2.114999e+01
1.506916e+02	-2.119932e+01
1.515620e+02	-2.125042e+01
1.524374e+02	-2.129869e+01
1.533179e+02	-2.135067e+01
1.542034e+02	-2.139975e+01
1.550941e+02	-2.144871e+01
1.559899e+02	-2.149807e+01
1.568909e+02	-2.154911e+01
1.577971e+02	-2.159586e+01
1.587085e+02	-2.164850e+01
1.596252e+02	-2.169888e+01
1.605472e+02	-2.174794e+01
1.614745e+02	-2.179592e+01
1.624072e+02	-2.184813e+01
1.633453e+02	-2.189590e+01
1.642887e+02	-2.194566e+01
1.652377e+02	-2.199524e+01
1.661921e+02	-2.204622e+01
1.671520e+02	-2.209482e+01
1.681175e+02	-2.214737e+01
1.690885e+02	-2.219386e+01
1.700651e+02	-2.224448e+01
1.710474e+02	-2.229294e+01
1.720354e+02	-2.234295e+01
1.730291e+02	-2.239557e+01
1.740285e+02	-2.244394e+01
1.750337e+02	-2.249409e+01
1.760446e+02	-2.254326e+01
1.770615e+02	-2.259154e+01
1.780842e+02	-2.264355e+01
1.791128e+02	-2.268931e+01
1.801473e+02	-2.274097e+01
1.811878e+02	-2.279336e+01
1.822344e+02	-2.284285e+01
1.832870e+02	-2.289137e+01
1.843456e+02	-2.294234e+01
1.854104e+02	-2.299043e+01
1.864813e+02	-2.303875e+01
1.875584e+02	-2.309131e+01
1.886418e+02	-2.314207e+01
1.897313e+02	-2.319081e+01
1.908272e+02	-2.324164e+01
1.919294e+02	-2.328941e+01
1.930380e+02	-2.334108e+01
1.941530e+02	-2.338713e+01
1.952744e+02	-2.343969e+01
1.964023e+02	-2.348810e+01
1.975367e+02	-2.353911e+01
1.986777e+02	-2.358805e+01
1.998252e+02	-2.363969e+01
2.009794e+02	-2.368888e+01
2.021403e+02	-2.373876e+01
2.033078e+02	-2.378901e+01
2.044821e+02	-2.383809e+01
2.056632e+02	-2.388708e+01
2.068511e+02	-2.393761e+01
2.080459e+02	-2.398784e+01
2.092475e+02	-2.403502e+01
2.104561e+02	-2.408624e+01
2.116717e+02	-2.413589e+01
2.128943e+02	-2.418599e+01
2.141240e+02	-2.423478e+01
2.153608e+02	-2.428732e+01
2.166047e+02	-2.433801e+01
2.178558e+02	-2.438589e+01
2.191141e+02	-2.443695e+01
2.203797e+02	-2.448641e+01
2.216526e+02	-2.453798e+01
2.229329e+02	-2.458570e+01
2.242205e+02	-2.463308e+01
2.255156e+02	-2.468664e+01
2.268182e+02	-2.473587e+01
2.281283e+02	-2.478287e+01
2.294459e+02	-2.483781e+01
2.307712e+02	-2.488337e+01
2.321041e+02	-2.493578e+01
2.334447e+02	-2.498451e+01
2.347931e+02	-2.503694e+01
2.361493e+02	-2.508486e+01
2.375133e+02	-2.513554e+01
2.388851e+02	-2.518634e+01
2.402649e+02	-2.523436e+01
2.416527e+02	-2.528497e+01
2.430484e+02	-2.533540e+01
2.444523e+02	-2.538386e+01
2.458642e+02	-2.543510e+01
2.472843e+02	-2.548594e+01
2.487126e+02	-2.553584e+01
2.501492e+02	-2.558210e+01
2.515940e+02	-2.563418e+01
2.530472e+02	-2.568561e+01
2.545088e+02	-2.573153e+01
2.559789e+02	-2.578524e+01
2.574574e+02	-2.583599e+01
2.589444e+02	-2.588349e+01
2.604401e+02	-2.593157e+01
2.619444e+02	-2.598420e+01
2.634574e+02	-2.603493e+01
2.649791e+02	-2.608185e+01
2.665096e+02	-2.613387e+01
2.680489e+02	-2.618236e+01
2.695972e+02	-2.623185e+01
2.711544e+02	-2.628434e+01
2.727205e+02	-2.633375e+01
2.742958e+02	-2.638291e+01
2.758801e+02	-2.643700e+01
2.774736e+02	-2.648491e+01
2.790762e+02	-2.653452e+01
2.806882e+02	-2.658235e+01
2.823094e+02	-2.663300e+01
2.839400e+02	-2.668449e+01
2.855800e+02	-2.673099e+01
2.872295e+02	-2.678175e+01
2.888886e+02	-2.683492e+01
2.905572e+02	-2.688172e+01
2.922354e+02	-2.693261e+01
2.939234e+02	-2.698206e+01
2.956211e+02	-2.703502e+01
2.973286e+02	-2.708191e+01
2.990459e+02	-2.712937e+01
3.007732e+02	-2.718249e+01
3.025104e+02	-2.723363e+01
3.042577e+02	-2.728193e+01
3.060151e+02	-2.733205e+01
3.077826e+02	-2.737916e+01
3.095604e+02	-2.743269e+01
3.113484e+02	-2.748097e+01
3.131467e+02	-2.753094e+01
3.149554e+02	-2.758550e+01
3.167746e+02	-2.763057e+01
3.186043e+02	-2.768544e+01
3.204445e+02	-2.773345e+01
3.222954e+02	-2.778066e+01
3.241570e+02	-2.783457e+01
3.260293e+02	-2.788363e+01
3.279124e+02	-2.793353e+01
3.298064e+02	-2.798340e+01
3.317114e+02	-2.803291e+01
3.336273e+02	-2.808726e+01
3.355544e+02	-2.813214e+01
3.374925e+02	-2.818140e+01
3.394418e+02	-2.823198e+01
3.414024e+02	-2.828384e+01
3.433744e+02	-2.833652e+01
3.453577e+02	-2.838566e+01
3.473525e+02	-2.843137e+01
3.493588e+02	-2.848893e+01
3.513766e+02	-2.853253e+01
3.534062e+02	-2.858143e+01
3.554474e+02	-2.863375e+01
3.575005e+02	-2.868417e+01
3.595654e+02	-2.873543e+01
3.616422e+02	-2.878272e+01
3.637311e+02	-2.883602e+01
3.658320e+02	-2.888335e+01
3.679450e+02	-2.893842e+01
3.700702e+02	-2.898212e+01
3.722077e+02	-2.903594e+01
3.743576e+02	-2.908454e+01
3.765199e+02	-2.913431e+01
3.786946e+02	-2.918291e+01
3.808820e+02	-2.922663e+01
3.830819e+02	-2.928504e+01
3.852946e+02	-2.933726e+01
3.875200e+02	-2.938630e+01
3.897583e+02	-2.943435e+01
3.920096e+02	-2.948708e+01
3.942738e+02	-2.953602e+01
3.965511e+02	-2.959012e+01
3.988416e+02	-2.962893e+01
4.011452e+02	-2.969033e+01
4.034622e+02	-2.973334e+01
4.057926e+02	-2.978471e+01
4.081365e+02	-2.984090e+01
4.104938e+02	-2.988696e+01
4.128648e+02	-2.993799e+01
4.152495e+02	-2.998497e+01
4.176480e+02	-3.003439e+01
4.200603e+02	-3.008600e+01
4.224866e+02	-3.013353e+01
4.249268e+02	-3.018512e+01
4.273812e+02	-3.024166e+01
4.298497e+02	-3.028767e+01
4.323325e+02	-3.033999e+01
4.348297e+02	-3.038243e+01
4.373412e+02	-3.042988e+01
4.398673e+02	-3.048938e+01
4.424079e+02	-3.053706e+01
4.449633e+02	-3.058057e+01
4.475334e+02	-3.063364e+01
4.501183e+02	-3.068591e+01
4.527182e+02	-3.074008e+01
4.553330e+02	-3.078592e+01
4.579630e+02	-3.083418e+01
4.606082e+02	-3.088579e+01
4.632687e+02	-3.093566e+01
4.659445e+02	-3.098954e+01
4.686358e+02	-3.103891e+01
4.713426e+02	-3.108746e+01
4.740650e+02	-3.114061e+01
4.768032e+02	-3.118321e+01
4.795572e+02	-3.123845e+01
4.823271e+02	-3.128802e+01
4.851130e+02	-3.133798e+01
4.879150e+02	-3.139636e+01
4.907332e+02	-3.143957e+01
4.935676e+02	-3.148823e+01
4.964185e+02	-3.153380e+01
4.992858e+02	-3.159035e+01
5.021696e+02	-3.164566e+01
5.050701e+02	-3.168792e+01
5.079874e+02	-3.174158e+01
5.109215e+02	-3.179110e+01
5.138726e+02	-3.184209e+01
5.168407e+02	-3.188376e+01
5.198259e+02	-3.193880e+01
5.228284e+02	-3.199121e+01
5.258482e+02	-3.204059e+01
5.288855e+02	-3.208921e+01
5.319403e+02	-3.214094e+01
5.350128e+02	-3.219122e+01
5.381030e+02	-3.223812e+01
5.412111e+02	-3.228830e+01
5.443371e+02	-3.234596e+01
5.474812e+02	-3.239579e+01
5.506434e+02	-3.243547e+01
5.538239e+02	-3.249261e+01
5.570228e+02	-3.254215e+01
5.602401e+02	-3.259066e+01
5.634760e+02	-3.264168e+01
5.667306e+02	-3.269984e+01
5.700040e+02	-3.273994e+01
5.732964e+02	-3.279883e+01
5.766077e+02	-3.284374e+01
5.799382e+02	-3.289855e+01
5.832879e+02	-3.294909e+01
5.866569e+02	-3.299197e+01
5.900454e+02	-3.304811e+01
5.934535e+02	-3.310515e+01
5.968813e+02	-3.314815e+01
6.003288e+02	-3.319885e+01
6.037963e+02	-3.324763e+01
6.072838e+02	-3.329120e+01
6.107914e+02	-3.335188e+01
6.143194e+02	-3.339360e+01
6.178676e+02	-3.344853e+01
6.214364e+02	-3.349914e+01
6.250258e+02	-3.355281e+01
6.286359e+02	-3.360295e+01
6.322669e+02	-3.365323e+01
6.359189e+02	-3.369785e+01
6.395919e+02	-3.374477e+01
6.432862e+02	-3.379529e+01
6.470017e+02	-3.384146e+01
6.507388e+02	-3.389850e+01
6.544974e+02	-3.395168e+01
6.582778e+02	-3.400574e+01
6.620800e+02	-3.404776e+01
6.659041e+02	-3.410378e+01
6.697504e+02	-3.414478e+01
6.736188e+02	-3.420222e+01
6.775096e+02	-3.425708e+01
6.814229e+02	-3.430029e+01
6.853587e+02	-3.435223e+01
6.893173e+02	-3.440472e+01
6.932988e+02	-3.445417e+01
6.973033e+02	-3.450880e+01
7.013309e+02	-3.456112e+01
