Frequency(Hz)	Magnitude(dB)
1.000000e+01	-2.022537e+00
1.005776e+01	-2.041241e+00
1.011585e+01	-2.059999e+00
1.017428e+01	-2.078960e+00
1.023305e+01	-2.098049e+00
1.029215e+01	-2.117386e+00
1.035160e+01	-2.136863e+00
1.041139e+01	-2.156199e+00
1.047153e+01	-2.175889e+00
1.053201e+01	-2.195621e+00
1.059284e+01	-2.215667e+00
1.065403e+01	-2.235607e+00
1.071556e+01	-2.255660e+00
1.077746e+01	-2.276076e+00
1.083971e+01	-2.296812e+00
1.090232e+01	-2.317337e+00
1.096529e+01	-2.338094e+00
1.102862e+01	-2.359055e+00
1.109232e+01	-2.380188e+00
1.115639e+01	-2.401118e+00
1.122083e+01	-2.422575e+00
1.128564e+01	-2.443968e+00
1.135083e+01	-2.465355e+00
1.141639e+01	-2.487363e+00
1.148233e+01	-2.508994e+00
1.154865e+01	-2.531286e+00
1.161536e+01	-2.553256e+00
1.168245e+01	-2.575450e+00
1.174992e+01	-2.598064e+00
1.181779e+01	-2.620557e+00
1.188605e+01	-2.643495e+00
1.195470e+01	-2.666217e+00
1.202375e+01	-2.689288e+00
1.209320e+01	-2.712266e+00
1.216305e+01	-2.735772e+00
1.223330e+01	-2.759051e+00
1.230396e+01	-2.782782e+00
1.237503e+01	-2.806599e+00
1.244651e+01	-2.830549e+00
1.251840e+01	-2.854396e+00
1.259070e+01	-2.878674e+00
1.266343e+01	-2.903216e+00
1.273657e+01	-2.927337e+00
1.281014e+01	-2.952145e+00
1.288413e+01	-2.976806e+00
1.295855e+01	-3.001683e+00
1.303339e+01	-3.026855e+00
1.310867e+01	-3.051762e+00
1.318439e+01	-3.077117e+00
1.326054e+01	-3.102751e+00
1.333713e+01	-3.128211e+00
1.341417e+01	-3.153817e+00
1.349165e+01	-3.179996e+00
1.356958e+01	-3.205999e+00
1.364795e+01	-3.232234e+00
1.372678e+01	-3.258332e+00
1.380607e+01	-3.284834e+00
1.388581e+01	-3.311565e+00
1.396602e+01	-3.338488e+00
1.404668e+01	-3.365219e+00
1.412782e+01	-3.392171e+00
1.420942e+01	-3.419294e+00
1.429149e+01	-3.446766e+00
1.437404e+01	-3.474396e+00
1.445706e+01	-3.502033e+00
1.454057e+01	-3.529806e+00
1.462455e+01	-3.557645e+00
1.470902e+01	-3.585514e+00
1.479398e+01	-3.613786e+00
1.487943e+01	-3.641996e+00
1.496537e+01	-3.670459e+00
1.505181e+01	-3.698944e+00
1.513875e+01	-3.727872e+00
1.522619e+01	-3.756984e+00
1.531414e+01	-3.785788e+00
1.540259e+01	-3.814838e+00
1.549156e+01	-3.844313e+00
1.558103e+01	-3.873900e+00
1.567103e+01	-3.903198e+00
1.576155e+01	-3.933300e+00
1.585258e+01	-3.962733e+00
1.594415e+01	-3.992952e+00
1.603624e+01	-4.023251e+00
1.612886e+01	-4.053551e+00
1.622202e+01	-4.083911e+00
1.631572e+01	-4.114399e+00
1.640996e+01	-4.145188e+00
1.650474e+01	-4.175972e+00
1.660008e+01	-4.206915e+00
1.669596e+01	-4.238050e+00
1.679239e+01	-4.269382e+00
1.688938e+01	-4.300557e+00
1.698694e+01	-4.332202e+00
1.708505e+01	-4.363916e+00
1.718373e+01	-4.395762e+00
1.728299e+01	-4.427459e+00
1.738281e+01	-4.459399e+00
1.748322e+01	-4.491642e+00
1.758420e+01	-4.524083e+00
1.768576e+01	-4.556388e+00
1.778792e+01	-4.589056e+00
1.789066e+01	-4.621746e+00
1.799399e+01	-4.654465e+00
1.809793e+01	-4.687574e+00
1.820246e+01	-4.720800e+00
1.830760e+01	-4.753916e+00
1.841334e+01	-4.787211e+00
1.851969e+01	-4.820591e+00
1.862666e+01	-4.854046e+00
1.873425e+01	-4.887892e+00
1.884246e+01	-4.921860e+00
1.895129e+01	-4.955955e+00
1.906075e+01	-4.989955e+00
1.917085e+01	-5.024094e+00
1.928158e+01	-5.058348e+00
1.939295e+01	-5.092921e+00
1.950496e+01	-5.127504e+00
1.961762e+01	-5.162253e+00
1.973093e+01	-5.196946e+00
1.984490e+01	-5.232441e+00
1.995952e+01	-5.267357e+00
2.007480e+01	-5.302479e+00
2.019076e+01	-5.337742e+00
2.030738e+01	-5.372861e+00
2.042467e+01	-5.408607e+00
2.054264e+01	-5.444692e+00
2.066130e+01	-5.480283e+00
2.078064e+01	-5.516248e+00
2.090066e+01	-5.552070e+00
2.102139e+01	-5.588437e+00
2.114280e+01	-5.624844e+00
2.126492e+01	-5.660733e+00
2.138775e+01	-5.697537e+00
2.151128e+01	-5.734058e+00
2.163553e+01	-5.771036e+00
2.176050e+01	-5.807458e+00
2.188619e+01	-5.844422e+00
2.201260e+01	-5.881655e+00
2.213974e+01	-5.919046e+00
2.226762e+01	-5.956100e+00
2.239624e+01	-5.993407e+00
2.252560e+01	-6.031140e+00
2.265571e+01	-6.068608e+00
2.278656e+01	-6.106476e+00
2.291818e+01	-6.144035e+00
2.305055e+01	-6.181714e+00
2.318369e+01	-6.220052e+00
2.331760e+01	-6.258239e+00
2.345228e+01	-6.296406e+00
2.358774e+01	-6.335045e+00
2.372398e+01	-6.373311e+00
2.386101e+01	-6.411596e+00
2.399883e+01	-6.450455e+00
2.413745e+01	-6.489249e+00
2.427686e+01	-6.527924e+00
2.441709e+01	-6.567065e+00
2.455812e+01	-6.605931e+00
2.469997e+01	-6.645441e+00
2.484263e+01	-6.684418e+00
2.498612e+01	-6.723759e+00
2.513044e+01	-6.763268e+00
2.527559e+01	-6.802997e+00
2.542158e+01	-6.842388e+00
2.556842e+01	-6.881760e+00
2.571610e+01	-6.922179e+00
2.586463e+01	-6.961985e+00
2.601403e+01	-7.001625e+00
2.616428e+01	-7.042001e+00
2.631541e+01	-7.082124e+00
2.646740e+01	-7.122620e+00
2.662028e+01	-7.162670e+00
2.677404e+01	-7.203084e+00
2.692868e+01	-7.243713e+00
2.708422e+01	-7.284148e+00
2.724066e+01	-7.325172e+00
2.739800e+01	-7.366081e+00
2.755625e+01	-7.406518e+00
2.771541e+01	-7.447625e+00
2.787550e+01	-7.488819e+00
2.803650e+01	-7.529773e+00
2.819844e+01	-7.571370e+00
2.836131e+01	-7.612694e+00
2.852513e+01	-7.653911e+00
2.868989e+01	-7.695306e+00
2.885560e+01	-7.737108e+00
2.902227e+01	-7.778726e+00
2.918990e+01	-7.820143e+00
2.935850e+01	-7.862725e+00
2.952807e+01	-7.904374e+00
2.969863e+01	-7.945888e+00
2.987016e+01	-7.987885e+00
3.004269e+01	-8.030318e+00
3.021622e+01	-8.072351e+00
3.039075e+01	-8.114779e+00
3.056628e+01	-8.156853e+00
3.074283e+01	-8.199511e+00
3.092040e+01	-8.241806e+00
3.109900e+01	-8.284450e+00
3.127862e+01	-8.326829e+00
3.145929e+01	-8.369592e+00
3.164099e+01	-8.412792e+00
3.182375e+01	-8.455632e+00
3.200756e+01	-8.498060e+00
3.219244e+01	-8.541673e+00
3.237838e+01	-8.583635e+00
3.256540e+01	-8.627523e+00
3.275349e+01	-8.670472e+00
3.294268e+01	-8.713792e+00
3.313295e+01	-8.757257e+00
3.332433e+01	-8.800682e+00
3.351681e+01	-8.844242e+00
3.371040e+01	-8.887740e+00
3.390511e+01	-8.931256e+00
3.410094e+01	-8.974783e+00
3.429791e+01	-9.018801e+00
3.449601e+01	-9.062399e+00
3.469526e+01	-9.107065e+00
3.489566e+01	-9.150015e+00
3.509721e+01	-9.194126e+00
3.529993e+01	-9.238473e+00
3.550382e+01	-9.282307e+00
3.570889e+01	-9.326586e+00
3.591515e+01	-9.371250e+00
3.612259e+01	-9.414869e+00
3.633123e+01	-9.459254e+00
3.654108e+01	-9.503501e+00
3.675214e+01	-9.548555e+00
3.696442e+01	-9.592977e+00
3.717792e+01	-9.637380e+00
3.739266e+01	-9.681974e+00
3.760864e+01	-9.726531e+00
3.782587e+01	-9.771397e+00
3.804435e+01	-9.815982e+00
3.826409e+01	-9.860536e+00
3.848510e+01	-9.905812e+00
3.870739e+01	-9.950597e+00
3.893096e+01	-9.995876e+00
3.915583e+01	-1.004030e+01
3.938199e+01	-1.008594e+01
3.960946e+01	-1.013137e+01
3.983824e+01	-1.017609e+01
4.006834e+01	-1.022092e+01
4.029978e+01	-1.026679e+01
4.053255e+01	-1.031175e+01
4.076666e+01	-1.035745e+01
4.100213e+01	-1.040310e+01
4.123896e+01	-1.044870e+01
4.147715e+01	-1.049345e+01
4.171672e+01	-1.053890e+01
4.195767e+01	-1.058518e+01
4.220002e+01	-1.063041e+01
4.244377e+01	-1.067672e+01
4.268892e+01	-1.072204e+01
4.293549e+01	-1.076864e+01
4.318348e+01	-1.081441e+01
4.343291e+01	-1.085965e+01
4.368377e+01	-1.090557e+01
4.393609e+01	-1.095162e+01
4.418986e+01	-1.099787e+01
4.444510e+01	-1.104343e+01
4.470182e+01	-1.109045e+01
4.496001e+01	-1.113637e+01
4.521970e+01	-1.118271e+01
4.548089e+01	-1.122881e+01
4.574358e+01	-1.127544e+01
4.600779e+01	-1.132117e+01
4.627353e+01	-1.136736e+01
4.654081e+01	-1.141402e+01
4.680963e+01	-1.146037e+01
4.708000e+01	-1.150715e+01
4.735193e+01	-1.155294e+01
4.762543e+01	-1.160000e+01
4.790051e+01	-1.164658e+01
4.817719e+01	-1.169300e+01
4.845545e+01	-1.174017e+01
4.873533e+01	-1.178659e+01
4.901682e+01	-1.183337e+01
4.929994e+01	-1.187988e+01
4.958470e+01	-1.192724e+01
4.987110e+01	-1.197285e+01
5.015915e+01	-1.202035e+01
5.044887e+01	-1.206671e+01
5.074026e+01	-1.211440e+01
5.103333e+01	-1.216117e+01
5.132810e+01	-1.220899e+01
5.162457e+01	-1.225557e+01
5.192275e+01	-1.230230e+01
5.222265e+01	-1.234924e+01
5.252429e+01	-1.239688e+01
5.282767e+01	-1.244320e+01
5.313280e+01	-1.249051e+01
5.343969e+01	-1.253815e+01
5.374836e+01	-1.258575e+01
5.405880e+01	-1.263267e+01
5.437105e+01	-1.267955e+01
5.468509e+01	-1.272778e+01
5.500095e+01	-1.277478e+01
5.531863e+01	-1.282234e+01
5.563815e+01	-1.286898e+01
5.595951e+01	-1.291634e+01
5.628273e+01	-1.296392e+01
5.660782e+01	-1.301168e+01
5.693479e+01	-1.306008e+01
5.726364e+01	-1.310702e+01
5.759439e+01	-1.315541e+01
5.792705e+01	-1.320292e+01
5.826164e+01	-1.324990e+01
5.859815e+01	-1.329831e+01
5.893662e+01	-1.334551e+01
5.927703e+01	-1.339270e+01
5.961941e+01	-1.344065e+01
5.996377e+01	-1.348874e+01
6.031012e+01	-1.353682e+01
6.065847e+01	-1.358393e+01
6.100883e+01	-1.363182e+01
6.136121e+01	-1.367907e+01
6.171563e+01	-1.372771e+01
6.207210e+01	-1.377519e+01
6.243063e+01	-1.382322e+01
6.279122e+01	-1.387236e+01
6.315390e+01	-1.391966e+01
6.351868e+01	-1.396814e+01
6.388556e+01	-1.401619e+01
6.425456e+01	-1.406372e+01
6.462569e+01	-1.411209e+01
6.499897e+01	-1.415840e+01
6.537440e+01	-1.420759e+01
6.575200e+01	-1.425623e+01
6.613178e+01	-1.430413e+01
6.651375e+01	-1.435175e+01
6.689793e+01	-1.440146e+01
6.728433e+01	-1.444936e+01
6.767297e+01	-1.449782e+01
6.806384e+01	-1.454536e+01
6.845698e+01	-1.459318e+01
6.885238e+01	-1.464193e+01
6.925007e+01	-1.469041e+01
6.965005e+01	-1.473958e+01
7.005235e+01	-1.478639e+01
7.045697e+01	-1.483470e+01
7.086393e+01	-1.488248e+01
7.127323e+01	-1.493263e+01
7.168490e+01	-1.498008e+01
7.209895e+01	-1.502918e+01
7.251539e+01	-1.507773e+01
7.293424e+01	-1.512652e+01
7.335551e+01	-1.517463e+01
7.377920e+01	-1.522301e+01
7.420535e+01	-1.527108e+01
7.463396e+01	-1.532050e+01
7.506504e+01	-1.536810e+01
7.549861e+01	-1.541791e+01
7.593469e+01	-1.546567e+01
7.637328e+01	-1.551478e+01
7.681441e+01	-1.556302e+01
7.725809e+01	-1.561203e+01
7.770433e+01	-1.565970e+01
7.815315e+01	-1.570920e+01
7.860456e+01	-1.575721e+01
7.905857e+01	-1.580732e+01
7.951521e+01	-1.585464e+01
7.997449e+01	-1.590391e+01
8.043642e+01	-1.595275e+01
8.090102e+01	-1.600105e+01
8.136830e+01	-1.605119e+01
8.183828e+01	-1.609910e+01
8.231097e+01	-1.614802e+01
8.278640e+01	-1.619652e+01
8.326457e+01	-1.624590e+01
8.374550e+01	-1.629420e+01
8.422921e+01	-1.634257e+01
8.471572e+01	-1.639169e+01
8.520503e+01	-1.644084e+01
8.569717e+01	-1.649020e+01
8.619215e+01	-1.653960e+01
8.669000e+01	-1.658833e+01
8.719071e+01	-1.663596e+01
8.769432e+01	-1.668670e+01
8.820084e+01	-1.673460e+01
8.871029e+01	-1.678359e+01
8.922267e+01	-1.683347e+01
8.973802e+01	-1.688197e+01
9.025634e+01	-1.693109e+01
9.077766e+01	-1.697911e+01
9.130199e+01	-1.702873e+01
9.182935e+01	-1.707827e+01
9.235975e+01	-1.712734e+01
9.289321e+01	-1.717545e+01
9.342976e+01	-1.722507e+01
9.396941e+01	-1.727404e+01
9.451217e+01	-1.732255e+01
9.505807e+01	-1.737196e+01
9.560712e+01	-1.742133e+01
9.615934e+01	-1.746996e+01
9.671476e+01	-1.751994e+01
9.727338e+01	-1.756900e+01
9.783522e+01	-1.761881e+01
9.840032e+01	-1.766742e+01
9.896867e+01	-1.771577e+01
9.954031e+01	-1.776558e+01
1.001153e+02	-1.781514e+01
1.006935e+02	-1.786380e+01
1.012751e+02	-1.791225e+01
1.018601e+02	-1.796251e+01
1.024484e+02	-1.801262e+01
1.030402e+02	-1.806104e+01
1.036353e+02	-1.811061e+01
1.042339e+02	-1.816096e+01
1.048360e+02	-1.820811e+01
1.054415e+02	-1.825727e+01
1.060505e+02	-1.830520e+01
1.066631e+02	-1.835617e+01
1.072791e+02	-1.840678e+01
1.078988e+02	-1.845517e+01
1.085220e+02	-1.850652e+01
1.091488e+02	-1.855443e+01
1.097793e+02	-1.860277e+01
1.104133e+02	-1.865272e+01
1.110511e+02	-1.870208e+01
1.116925e+02	-1.875068e+01
1.123376e+02	-1.880152e+01
1.129865e+02	-1.885049e+01
1.136391e+02	-1.889960e+01
1.142955e+02	-1.894786e+01
1.149556e+02	-1.899795e+01
1.156196e+02	-1.904705e+01
1.162874e+02	-1.909695e+01
1.169591e+02	-1.914621e+01
1.176347e+02	-1.919467e+01
1.183141e+02	-1.924522e+01
1.189975e+02	-1.929621e+01
1.196848e+02	-1.934493e+01
1.203761e+02	-1.939503e+01
1.210714e+02	-1.944143e+01
1.217707e+02	-1.949214e+01
1.224740e+02	-1.954292e+01
1.231814e+02	-1.959160e+01
1.238929e+02	-1.963981e+01
1.246085e+02	-1.969100e+01
1.253283e+02	-1.973864e+01
1.260522e+02	-1.979044e+01
1.267802e+02	-1.984037e+01
1.275125e+02	-1.988943e+01
1.282490e+02	-1.993856e+01
1.289898e+02	-1.998729e+01
1.297348e+02	-2.003813e+01
1.304842e+02	-2.008670e+01
1.312378e+02	-2.013549e+01
1.319959e+02	-2.018722e+01
1.327583e+02	-2.023673e+01
1.335251e+02	-2.028434e+01
1.342963e+02	-2.033333e+01
1.350720e+02	-2.038510e+01
1.358522e+02	-2.043288e+01
1.366368e+02	-2.048294e+01
1.374260e+02	-2.053215e+01
1.382198e+02	-2.058158e+01
1.390182e+02	-2.063194e+01
1.398211e+02	-2.068216e+01
1.406287e+02	-2.073103e+01
1.414410e+02	-2.078191e+01
1.422579e+02	-2.083086e+01
1.430796e+02	-2.087881e+01
1.439060e+02	-2.093030e+01
1.447372e+02	-2.098065e+01
1.455732e+02	-2.102817e+01
1.464141e+02	-2.107746e+01
1.472597e+02	-2.112708e+01
1.481103e+02	-2.117947e+01
1.489658e+02	-2.122801e+01
1.498262e+02	-2.127761e+01
1.506916e+02	-2.132809e+01
1.515620e+02	-2.137739e+01
1.524374e+02	-2.142612e+01
1.533179e+02	-2.147592e+01
1.542034e+02	-2.152528e+01
1.550941e+02	-2.157520e+01
1.559899e+02	-2.162687e+01
1.568909e+02	-2.167520e+01
1.577971e+02	-2.172521e+01
1.587085e+02	-2.177396e+01
1.596252e+02	-2.182415e+01
1.605472e+02	-2.187529e+01
1.614745e+02	-2.192306e+01
1.624072e+02	-2.197295e+01
1.633453e+02	-2.202279e+01
1.642887e+02	-2.207155e+01
1.652377e+02	-2.212322e+01
1.661921e+02	-2.217083e+01
1.671520e+02	-2.222262e+01
1.681175e+02	-2.227070e+01
1.690885e+02	-2.232277e+01
1.700651e+02	-2.237158e+01
1.710474e+02	-2.242215e+01
1.720354e+02	-2.247141e+01
1.730291e+02	-2.252127e+01
1.740285e+02	-2.257333e+01
1.750337e+02	-2.261865e+01
1.760446e+02	-2.267079e+01
1.770615e+02	-2.272120e+01
1.780842e+02	-2.277086e+01
1.791128e+02	-2.281893e+01
1.801473e+02	-2.287006e+01
1.811878e+02	-2.291757e+01
1.822344e+02	-2.296963e+01
1.832870e+02	-2.301855e+01
1.843456e+02	-2.306904e+01
1.854104e+02	-2.311884e+01
1.864813e+02	-2.316771e+01
1.875584e+02	-2.321758e+01
1.886418e+02	-2.326669e+01
1.897313e+02	-2.331652e+01
1.908272e+02	-2.336672e+01
1.919294e+02	-2.341609e+01
1.930380e+02	-2.346622e+01
1.941530e+02	-2.351761e+01
1.952744e+02	-2.356520e+01
1.964023e+02	-2.362015e+01
1.975367e+02	-2.366681e+01
1.986777e+02	-2.371506e+01
1.998252e+02	-2.376376e+01
2.009794e+02	-2.381550e+01
2.021403e+02	-2.386566e+01
2.033078e+02	-2.391540e+01
2.044821e+02	-2.396384e+01
2.056632e+02	-2.401504e+01
2.068511e+02	-2.406640e+01
2.080459e+02	-2.411417e+01
2.092475e+02	-2.416490e+01
2.104561e+02	-2.421397e+01
2.116717e+02	-2.426346e+01
2.128943e+02	-2.431420e+01
2.141240e+02	-2.436403e+01
2.153608e+02	-2.441437e+01
2.166047e+02	-2.446576e+01
2.178558e+02	-2.451332e+01
2.191141e+02	-2.456444e+01
2.203797e+02	-2.461313e+01
2.216526e+02	-2.466347e+01
2.229329e+02	-2.471122e+01
2.242205e+02	-2.476441e+01
2.255156e+02	-2.481174e+01
2.268182e+02	-2.486407e+01
2.281283e+02	-2.491254e+01
2.294459e+02	-2.496070e+01
2.307712e+02	-2.501284e+01
2.321041e+02	-2.506341e+01
2.334447e+02	-2.511287e+01
2.347931e+02	-2.516337e+01
2.361493e+02	-2.521283e+01
2.375133e+02	-2.526258e+01
2.388851e+02	-2.531325e+01
2.402649e+02	-2.536503e+01
2.416527e+02	-2.541267e+01
2.430484e+02	-2.546275e+01
2.444523e+02	-2.551407e+01
2.458642e+02	-2.556217e+01
2.472843e+02	-2.561288e+01
2.487126e+02	-2.565892e+01
2.501492e+02	-2.571174e+01
2.515940e+02	-2.576525e+01
2.530472e+02	-2.581319e+01
2.545088e+02	-2.586143e+01
2.559789e+02	-2.591538e+01
2.574574e+02	-2.596130e+01
2.589444e+02	-2.601125e+01
2.604401e+02	-2.606286e+01
2.619444e+02	-2.611166e+01
2.634574e+02	-2.616036e+01
2.649791e+02	-2.621185e+01
2.665096e+02	-2.626393e+01
2.680489e+02	-2.631251e+01
2.695972e+02	-2.636397e+01
2.711544e+02	-2.641003e+01
2.727205e+02	-2.646098e+01
2.742958e+02	-2.650884e+01
2.758801e+02	-2.655989e+01
2.774736e+02	-2.661335e+01
2.790762e+02	-2.666177e+01
2.806882e+02	-2.671169e+01
2.823094e+02	-2.676215e+01
2.839400e+02	-2.681144e+01
2.855800e+02	-2.686086e+01
2.872295e+02	-2.690876e+01
2.888886e+02	-2.696371e+01
2.905572e+02	-2.701209e+01
2.922354e+02	-2.706241e+01
2.939234e+02	-2.711095e+01
2.956211e+02	-2.716242e+01
2.973286e+02	-2.721213e+01
2.990459e+02	-2.725900e+01
3.007732e+02	-2.731281e+01
3.025104e+02	-2.736207e+01
3.042577e+02	-2.741235e+01
3.060151e+02	-2.745966e+01
3.077826e+02	-2.750923e+01
3.095604e+02	-2.756037e+01
3.113484e+02	-2.760797e+01
3.131467e+02	-2.766044e+01
3.149554e+02	-2.771044e+01
3.167746e+02	-2.776170e+01
3.186043e+02	-2.781142e+01
3.204445e+02	-2.786081e+01
3.222954e+02	-2.790960e+01
3.241570e+02	-2.796108e+01
3.260293e+02	-2.801332e+01
3.279124e+02	-2.805985e+01
3.298064e+02	-2.811307e+01
3.317114e+02	-2.815874e+01
3.336273e+02	-2.821449e+01
3.355544e+02	-2.826408e+01
3.374925e+02	-2.830726e+01
3.394418e+02	-2.836215e+01
3.414024e+02	-2.841398e+01
3.433744e+02	-2.846125e+01
3.453577e+02	-2.851397e+01
3.473525e+02	-2.855856e+01
3.493588e+02	-2.860897e+01
3.513766e+02	-2.866554e+01
3.534062e+02	-2.871446e+01
3.554474e+02	-2.876377e+01
3.575005e+02	-2.881296e+01
3.595654e+02	-2.886200e+01
3.616422e+02	-2.891225e+01
3.637311e+02	-2.895930e+01
3.658320e+02	-2.900933e+01
3.679450e+02	-2.906387e+01
3.700702e+02	-2.911363e+01
3.722077e+02	-2.916324e+01
3.743576e+02	-2.921243e+01
3.765199e+02	-2.926015e+01
3.786946e+02	-2.931311e+01
3.808820e+02	-2.936633e+01
3.830819e+02	-2.941155e+01
3.852946e+02	-2.946223e+01
3.875200e+02	-2.951327e+01
3.897583e+02	-2.956123e+01
3.920096e+02	-2.961269e+01
3.942738e+02	-2.966453e+01
3.965511e+02	-2.971266e+01
3.988416e+02	-2.976177e+01
4.011452e+02	-2.981030e+01
4.034622e+02	-2.986312e+01
4.057926e+02	-2.991216e+01
4.081365e+02	-2.996466e+01
4.104938e+02	-3.001152e+01
4.128648e+02	-3.006473e+01
4.152495e+02	-3.011640e+01
4.176480e+02	-3.016249e+01
4.200603e+02	-3.021168e+01
4.224866e+02	-3.026401e+01
4.249268e+02	-3.031782e+01
4.273812e+02	-3.036844e+01
4.298497e+02	-3.041745e+01
4.323325e+02	-3.046437e+01
4.348297e+02	-3.051169e+01
4.373412e+02	-3.056744e+01
4.398673e+02	-3.061776e+01
4.424079e+02	-3.066717e+01
4.449633e+02	-3.071550e+01
4.475334e+02	-3.077443e+01
4.501183e+02	-3.081742e+01
4.527182e+02	-3.086607e+01
4.553330e+02	-3.092134e+01
4.579630e+02	-3.097040e+01
4.606082e+02	-3.101522e+01
4.632687e+02	-3.106864e+01
4.659445e+02	-3.111415e+01
4.686358e+02	-3.116435e+01
4.713426e+02	-3.121657e+01
4.740650e+02	-3.126316e+01
4.768032e+02	-3.131802e+01
4.795572e+02	-3.136174e+01
4.823271e+02	-3.141519e+01
4.851130e+02	-3.146457e+01
4.879150e+02	-3.152142e+01
4.907332e+02	-3.156190e+01
4.935676e+02	-3.162479e+01
4.964185e+02	-3.166369e+01
4.992858e+02	-3.171754e+01
5.021696e+02	-3.176703e+01
5.050701e+02	-3.182313e+01
5.079874e+02	-3.187504e+01
5.109215e+02	-3.191950e+01
5.138726e+02	-3.197410e+01
5.168407e+02	-3.201915e+01
5.198259e+02	-3.207223e+01
5.228284e+02	-3.211413e+01
5.258482e+02	-3.217156e+01
5.288855e+02	-3.221687e+01
5.319403e+02	-3.227141e+01
5.350128e+02	-3.233034e+01
5.381030e+02	-3.237279e+01
5.412111e+02	-3.242659e+01
5.443371e+02	-3.247003e+01
5.474812e+02	-3.252330e+01
5.506434e+02	-3.256904e+01
5.538239e+02	-3.261992e+01
5.570228e+02	-3.267042e+01
5.602401e+02	-3.272062e+01
5.634760e+02	-3.277649e+01
5.667306e+02	-3.282168e+01
5.700040e+02	-3.287601e+01
5.732964e+02	-3.292681e+01
5.766077e+02	-3.297127e+01
5.799382e+02	-3.302112e+01
5.832879e+02	-3.307889e+01
5.866569e+02	-3.312305e+01
5.900454e+02	-3.317590e+01
5.934535e+02	-3.322639e+01
5.968813e+02	-3.327465e+01
6.003288e+02	-3.332860e+01
6.037963e+02	-3.337819e+01
6.072838e+02	-3.342323e+01
6.107914e+02	-3.348260e+01
6.143194e+02	-3.353316e+01
6.178676e+02	-3.357898e+01
6.214364e+02	-3.362764e+01
6.250258e+02	-3.367604e+01
6.286359e+02	-3.372875e+01
6.322669e+02	-3.378144e+01
6.359189e+02	-3.382608e+01
6.395919e+02	-3.387844e+01
6.432862e+02	-3.392811e+01
6.470017e+02	-3.397807e+01
6.507388e+02	-3.403168e+01
6.544974e+02	-3.408156e+01
6.582778e+02	-3.413071e+01
6.620800e+02	-3.418028e+01
6.659041e+02	-3.423635e+01
6.697504e+02	-3.428016e+01
6.736188e+02	-3.433918e+01
6.775096e+02	-3.439199e+01
6.814229e+02	-3.443087e+01
6.853587e+02	-3.448896e+01
6.893173e+02	-3.452866e+01
6.932988e+02	-3.459221e+01
6.973033e+02	-3.463322e+01
7.013309e+02	-3.468263e+01
