Frequency(Hz)	Magnitude(dB)
1.000000e+01	-1.564250e-05
1.005776e+01	-1.582372e-05
1.011585e+01	-1.600705e-05
1.017428e+01	-1.619249e-05
1.023305e+01	-1.638009e-05
1.029215e+01	-1.656985e-05
1.035160e+01	-1.676182e-05
1.041139e+01	-1.695601e-05
1.047153e+01	-1.715245e-05
1.053201e+01	-1.735117e-05
1.059284e+01	-1.755218e-05
1.065403e+01	-1.775553e-05
1.071556e+01	-1.796123e-05
1.077746e+01	-1.816932e-05
1.083971e+01	-1.837981e-05
1.090232e+01	-1.859275e-05
1.096529e+01	-1.880815e-05
1.102862e+01	-1.902605e-05
1.109232e+01	-1.924647e-05
1.115639e+01	-1.946944e-05
1.122083e+01	-1.969500e-05
1.128564e+01	-1.992317e-05
1.135083e+01	-2.015399e-05
1.141639e+01	-2.038748e-05
1.148233e+01	-2.062367e-05
1.154865e+01	-2.086260e-05
1.161536e+01	-2.110430e-05
1.168245e+01	-2.134880e-05
1.174992e+01	-2.159613e-05
1.181779e+01	-2.184633e-05
1.188605e+01	-2.209942e-05
1.195470e+01	-2.235545e-05
1.202375e+01	-2.261444e-05
1.209320e+01	-2.287644e-05
1.216305e+01	-2.314147e-05
1.223330e+01	-2.340957e-05
1.230396e+01	-2.368077e-05
1.237503e+01	-2.395512e-05
1.244651e+01	-2.423265e-05
1.251840e+01	-2.451339e-05
1.259070e+01	-2.479738e-05
1.266343e+01	-2.508466e-05
1.273657e+01	-2.537528e-05
1.281014e+01	-2.566925e-05
1.288413e+01	-2.596664e-05
1.295855e+01	-2.626747e-05
1.303339e+01	-2.657178e-05
1.310867e+01	-2.687963e-05
1.318439e+01	-2.719103e-05
1.326054e+01	-2.750605e-05
1.333713e+01	-2.782471e-05
1.341417e+01	-2.814707e-05
1.349165e+01	-2.847316e-05
1.356958e+01	-2.880303e-05
1.364795e+01	-2.913672e-05
1.372678e+01	-2.947427e-05
1.380607e+01	-2.981574e-05
1.388581e+01	-3.016116e-05
1.396602e+01	-3.051059e-05
1.404668e+01	-3.086406e-05
1.412782e+01	-3.122163e-05
1.420942e+01	-3.158334e-05
1.429149e+01	-3.194924e-05
1.437404e+01	-3.231938e-05
1.445706e+01	-3.269380e-05
1.454057e+01	-3.307257e-05
1.462455e+01	-3.345572e-05
1.470902e+01	-3.384331e-05
1.479398e+01	-3.423540e-05
1.487943e+01	-3.463202e-05
1.496537e+01	-3.503324e-05
1.505181e+01	-3.543911e-05
1.513875e+01	-3.584968e-05
1.522619e+01	-3.626501e-05
1.531414e+01	-3.668515e-05
1.540259e+01	-3.711015e-05
1.549156e+01	-3.754008e-05
1.558103e+01	-3.797499e-05
1.567103e+01	-3.841494e-05
1.576155e+01	-3.885999e-05
1.585258e+01	-3.931019e-05
1.594415e+01	-3.976561e-05
1.603624e+01	-4.022630e-05
1.612886e+01	-4.069233e-05
1.622202e+01	-4.116376e-05
1.631572e+01	-4.164065e-05
1.640996e+01	-4.212307e-05
1.650474e+01	-4.261107e-05
1.660008e+01	-4.310473e-05
1.669596e+01	-4.360411e-05
1.679239e+01	-4.410927e-05
1.688938e+01	-4.462029e-05
1.698694e+01	-4.513722e-05
1.708505e+01	-4.566015e-05
1.718373e+01	-4.618913e-05
1.728299e+01	-4.672424e-05
1.738281e+01	-4.726555e-05
1.748322e+01	-4.781313e-05
1.758420e+01	-4.836706e-05
1.768576e+01	-4.892740e-05
1.778792e+01	-4.949424e-05
1.789066e+01	-5.006764e-05
1.799399e+01	-5.064768e-05
1.809793e+01	-5.123445e-05
1.820246e+01	-5.182801e-05
1.830760e+01	-5.242845e-05
1.841334e+01	-5.303584e-05
1.851969e+01	-5.365027e-05
1.862666e+01	-5.427182e-05
1.873425e+01	-5.490057e-05
1.884246e+01	-5.553661e-05
1.895129e+01	-5.618001e-05
1.906075e+01	-5.683087e-05
1.917085e+01	-5.748926e-05
1.928158e+01	-5.815529e-05
1.939295e+01	-5.882903e-05
1.950496e+01	-5.951058e-05
1.961762e+01	-6.020002e-05
1.973093e+01	-6.089745e-05
1.984490e+01	-6.160296e-05
1.995952e+01	-6.231664e-05
2.007480e+01	-6.303859e-05
2.019076e+01	-6.376890e-05
2.030738e+01	-6.450768e-05
2.042467e+01	-6.525501e-05
2.054264e+01	-6.601100e-05
2.066130e+01	-6.677575e-05
2.078064e+01	-6.754936e-05
2.090066e+01	-6.833194e-05
2.102139e+01	-6.912357e-05
2.114280e+01	-6.992438e-05
2.126492e+01	-7.073447e-05
2.138775e+01	-7.155394e-05
2.151128e+01	-7.238291e-05
2.163553e+01	-7.322148e-05
2.176050e+01	-7.406976e-05
2.188619e+01	-7.492787e-05
2.201260e+01	-7.579593e-05
2.213974e+01	-7.667404e-05
2.226762e+01	-7.756232e-05
2.239624e+01	-7.846089e-05
2.252560e+01	-7.936987e-05
2.265571e+01	-8.028939e-05
2.278656e+01	-8.121955e-05
2.291818e+01	-8.216050e-05
2.305055e+01	-8.311234e-05
2.318369e+01	-8.407521e-05
2.331760e+01	-8.504923e-05
2.345228e+01	-8.603454e-05
2.358774e+01	-8.703127e-05
2.372398e+01	-8.803954e-05
2.386101e+01	-8.905949e-05
2.399883e+01	-9.009126e-05
2.413745e+01	-9.113498e-05
2.427686e+01	-9.219079e-05
2.441709e+01	-9.325884e-05
2.455812e+01	-9.433926e-05
2.469997e+01	-9.543219e-05
2.484263e+01	-9.653779e-05
2.498612e+01	-9.765619e-05
2.513044e+01	-9.878755e-05
2.527559e+01	-9.993202e-05
2.542158e+01	-1.010897e-04
2.556842e+01	-1.022609e-04
2.571610e+01	-1.034456e-04
2.586463e+01	-1.046440e-04
2.601403e+01	-1.058563e-04
2.616428e+01	-1.070827e-04
2.631541e+01	-1.083233e-04
2.646740e+01	-1.095782e-04
2.662028e+01	-1.108477e-04
2.677404e+01	-1.121319e-04
2.692868e+01	-1.134309e-04
2.708422e+01	-1.147450e-04
2.724066e+01	-1.160744e-04
2.739800e+01	-1.174191e-04
2.755625e+01	-1.187794e-04
2.771541e+01	-1.201555e-04
2.787550e+01	-1.215475e-04
2.803650e+01	-1.229557e-04
2.819844e+01	-1.243801e-04
2.836131e+01	-1.258211e-04
2.852513e+01	-1.272787e-04
2.868989e+01	-1.287533e-04
2.885560e+01	-1.302449e-04
2.902227e+01	-1.317538e-04
2.918990e+01	-1.332802e-04
2.935850e+01	-1.348242e-04
2.952807e+01	-1.363862e-04
2.969863e+01	-1.379662e-04
2.987016e+01	-1.395646e-04
3.004269e+01	-1.411814e-04
3.021622e+01	-1.428170e-04
3.039075e+01	-1.444716e-04
3.056628e+01	-1.461453e-04
3.074283e+01	-1.478384e-04
3.092040e+01	-1.495511e-04
3.109900e+01	-1.512837e-04
3.127862e+01	-1.530363e-04
3.145929e+01	-1.548093e-04
3.164099e+01	-1.566027e-04
3.182375e+01	-1.584170e-04
3.200756e+01	-1.602523e-04
3.219244e+01	-1.621088e-04
3.237838e+01	-1.639868e-04
3.256540e+01	-1.658866e-04
3.275349e+01	-1.678084e-04
3.294268e+01	-1.697525e-04
3.313295e+01	-1.717191e-04
3.332433e+01	-1.737085e-04
3.351681e+01	-1.757209e-04
3.371040e+01	-1.777566e-04
3.390511e+01	-1.798160e-04
3.410094e+01	-1.818991e-04
3.429791e+01	-1.840064e-04
3.449601e+01	-1.861382e-04
3.469526e+01	-1.882946e-04
3.489566e+01	-1.904760e-04
3.509721e+01	-1.926826e-04
3.529993e+01	-1.949149e-04
3.550382e+01	-1.971730e-04
3.570889e+01	-1.994572e-04
3.591515e+01	-2.017679e-04
3.612259e+01	-2.041054e-04
3.633123e+01	-2.064700e-04
3.654108e+01	-2.088619e-04
3.675214e+01	-2.112816e-04
3.696442e+01	-2.137293e-04
3.717792e+01	-2.162053e-04
3.739266e+01	-2.187101e-04
3.760864e+01	-2.212438e-04
3.782587e+01	-2.238069e-04
3.804435e+01	-2.263997e-04
3.826409e+01	-2.290226e-04
3.848510e+01	-2.316758e-04
3.870739e+01	-2.343597e-04
3.893096e+01	-2.370748e-04
3.915583e+01	-2.398213e-04
3.938199e+01	-2.425996e-04
3.960946e+01	-2.454101e-04
3.983824e+01	-2.482532e-04
4.006834e+01	-2.511292e-04
4.029978e+01	-2.540385e-04
4.053255e+01	-2.569815e-04
4.076666e+01	-2.599586e-04
4.100213e+01	-2.629702e-04
4.123896e+01	-2.660167e-04
4.147715e+01	-2.690985e-04
4.171672e+01	-2.722160e-04
4.195767e+01	-2.753696e-04
4.220002e+01	-2.785597e-04
4.244377e+01	-2.817868e-04
4.268892e+01	-2.850513e-04
4.293549e+01	-2.883536e-04
4.318348e+01	-2.916941e-04
4.343291e+01	-2.950733e-04
4.368377e+01	-2.984917e-04
4.393609e+01	-3.019497e-04
4.418986e+01	-3.054478e-04
4.444510e+01	-3.089863e-04
4.470182e+01	-3.125659e-04
4.496001e+01	-3.161869e-04
4.521970e+01	-3.198499e-04
4.548089e+01	-3.235553e-04
4.574358e+01	-3.273037e-04
4.600779e+01	-3.310954e-04
4.627353e+01	-3.349311e-04
4.654081e+01	-3.388112e-04
4.680963e+01	-3.427363e-04
4.708000e+01	-3.467068e-04
4.735193e+01	-3.507234e-04
4.762543e+01	-3.547864e-04
4.790051e+01	-3.588965e-04
4.817719e+01	-3.630543e-04
4.845545e+01	-3.672602e-04
4.873533e+01	-3.715148e-04
4.901682e+01	-3.758187e-04
4.929994e+01	-3.801725e-04
4.958470e+01	-3.845767e-04
4.987110e+01	-3.890320e-04
5.015915e+01	-3.935388e-04
5.044887e+01	-3.980978e-04
5.074026e+01	-4.027097e-04
5.103333e+01	-4.073750e-04
5.132810e+01	-4.120943e-04
5.162457e+01	-4.168683e-04
5.192275e+01	-4.216976e-04
5.222265e+01	-4.265829e-04
5.252429e+01	-4.315247e-04
5.282767e+01	-4.365238e-04
5.313280e+01	-4.415808e-04
5.343969e+01	-4.466963e-04
5.374836e+01	-4.518712e-04
5.405880e+01	-4.571059e-04
5.437105e+01	-4.624014e-04
5.468509e+01	-4.677581e-04
5.500095e+01	-4.731769e-04
5.531863e+01	-4.786585e-04
5.563815e+01	-4.842036e-04
5.595951e+01	-4.898129e-04
5.628273e+01	-4.954872e-04
5.660782e+01	-5.012272e-04
5.693479e+01	-5.070337e-04
5.726364e+01	-5.129075e-04
5.759439e+01	-5.188493e-04
5.792705e+01	-5.248600e-04
5.826164e+01	-5.309403e-04
5.859815e+01	-5.370910e-04
5.893662e+01	-5.433129e-04
5.927703e+01	-5.496070e-04
5.961941e+01	-5.559739e-04
5.996377e+01	-5.624146e-04
6.031012e+01	-5.689299e-04
6.065847e+01	-5.755207e-04
6.100883e+01	-5.821878e-04
6.136121e+01	-5.889321e-04
6.171563e+01	-5.957546e-04
6.207210e+01	-6.026561e-04
6.243063e+01	-6.096376e-04
6.279122e+01	-6.166999e-04
6.315390e+01	-6.238440e-04
6.351868e+01	-6.310709e-04
6.388556e+01	-6.383815e-04
6.425456e+01	-6.457768e-04
6.462569e+01	-6.532577e-04
6.499897e+01	-6.608253e-04
6.537440e+01	-6.684805e-04
6.575200e+01	-6.762245e-04
6.613178e+01	-6.840581e-04
6.651375e+01	-6.919825e-04
6.689793e+01	-6.999986e-04
6.728433e+01	-7.081076e-04
6.767297e+01	-7.163106e-04
6.806384e+01	-7.246085e-04
6.845698e+01	-7.330026e-04
6.885238e+01	-7.414939e-04
6.925007e+01	-7.500836e-04
6.965005e+01	-7.587728e-04
7.005235e+01	-7.675626e-04
7.045697e+01	-7.764542e-04
7.086393e+01	-7.854488e-04
7.127323e+01	-7.945476e-04
7.168490e+01	-8.037518e-04
7.209895e+01	-8.130627e-04
7.251539e+01	-8.224813e-04
7.293424e+01	-8.320091e-04
7.335551e+01	-8.416472e-04
7.377920e+01	-8.513969e-04
7.420535e+01	-8.612596e-04
7.463396e+01	-8.712366e-04
7.506504e+01	-8.813291e-04
7.549861e+01	-8.915384e-04
7.593469e+01	-9.018661e-04
7.637328e+01	-9.123134e-04
7.681441e+01	-9.228816e-04
7.725809e+01	-9.335723e-04
7.770433e+01	-9.443868e-04
7.815315e+01	-9.553266e-04
7.860456e+01	-9.663931e-04
7.905857e+01	-9.775878e-04
7.951521e+01	-9.889121e-04
7.997449e+01	-1.000368e-03
8.043642e+01	-1.011956e-03
8.090102e+01	-1.023678e-03
8.136830e+01	-1.035536e-03
8.183828e+01	-1.047532e-03
8.231097e+01	-1.059666e-03
8.278640e+01	-1.071941e-03
8.326457e+01	-1.084359e-03
8.374550e+01	-1.096920e-03
8.422921e+01	-1.109626e-03
8.471572e+01	-1.122480e-03
8.520503e+01	-1.135482e-03
8.569717e+01	-1.148635e-03
8.619215e+01	-1.161941e-03
8.669000e+01	-1.175400e-03
8.719071e+01	-1.189016e-03
8.769432e+01	-1.202789e-03
8.820084e+01	-1.216722e-03
8.871029e+01	-1.230816e-03
8.922267e+01	-1.245073e-03
8.973802e+01	-1.259495e-03
9.025634e+01	-1.274085e-03
9.077766e+01	-1.288843e-03
9.130199e+01	-1.303773e-03
9.182935e+01	-1.318875e-03
9.235975e+01	-1.334152e-03
9.289321e+01	-1.349606e-03
9.342976e+01	-1.365239e-03
9.396941e+01	-1.381053e-03
9.451217e+01	-1.397051e-03
9.505807e+01	-1.413233e-03
9.560712e+01	-1.429603e-03
9.615934e+01	-1.446163e-03
9.671476e+01	-1.462914e-03
9.727338e+01	-1.479860e-03
9.783522e+01	-1.497001e-03
9.840032e+01	-1.514341e-03
9.896867e+01	-1.531882e-03
9.954031e+01	-1.549626e-03
1.001153e+02	-1.567576e-03
1.006935e+02	-1.585733e-03
1.012751e+02	-1.604101e-03
1.018601e+02	-1.622682e-03
1.024484e+02	-1.641477e-03
1.030402e+02	-1.660491e-03
1.036353e+02	-1.679724e-03
1.042339e+02	-1.699180e-03
1.048360e+02	-1.718862e-03
1.054415e+02	-1.738771e-03
1.060505e+02	-1.758912e-03
1.066631e+02	-1.779285e-03
1.072791e+02	-1.799894e-03
1.078988e+02	-1.820742e-03
1.085220e+02	-1.841831e-03
1.091488e+02	-1.863165e-03
1.097793e+02	-1.884745e-03
1.104133e+02	-1.906576e-03
1.110511e+02	-1.928659e-03
1.116925e+02	-1.950998e-03
1.123376e+02	-1.973596e-03
1.129865e+02	-1.996455e-03
1.136391e+02	-2.019579e-03
1.142955e+02	-2.042971e-03
1.149556e+02	-2.066634e-03
1.156196e+02	-2.090571e-03
1.162874e+02	-2.114784e-03
1.169591e+02	-2.139279e-03
1.176347e+02	-2.164057e-03
1.183141e+02	-2.189121e-03
1.189975e+02	-2.214477e-03
1.196848e+02	-2.240125e-03
1.203761e+02	-2.266071e-03
1.210714e+02	-2.292317e-03
1.217707e+02	-2.318867e-03
1.224740e+02	-2.345724e-03
1.231814e+02	-2.372893e-03
1.238929e+02	-2.400376e-03
1.246085e+02	-2.428177e-03
1.253283e+02	-2.456300e-03
1.260522e+02	-2.484749e-03
1.267802e+02	-2.513527e-03
1.275125e+02	-2.542638e-03
1.282490e+02	-2.572087e-03
1.289898e+02	-2.601876e-03
1.297348e+02	-2.632010e-03
1.304842e+02	-2.662494e-03
1.312378e+02	-2.693330e-03
1.319959e+02	-2.724523e-03
1.327583e+02	-2.756077e-03
1.335251e+02	-2.787997e-03
1.342963e+02	-2.820286e-03
1.350720e+02	-2.852949e-03
1.358522e+02	-2.885990e-03
1.366368e+02	-2.919414e-03
1.374260e+02	-2.953224e-03
1.382198e+02	-2.987426e-03
1.390182e+02	-3.022024e-03
1.398211e+02	-3.057023e-03
1.406287e+02	-3.092427e-03
1.414410e+02	-3.128241e-03
1.422579e+02	-3.164469e-03
1.430796e+02	-3.201116e-03
1.439060e+02	-3.238188e-03
1.447372e+02	-3.275689e-03
1.455732e+02	-3.313625e-03
1.464141e+02	-3.351999e-03
1.472597e+02	-3.390818e-03
1.481103e+02	-3.430086e-03
1.489658e+02	-3.469808e-03
1.498262e+02	-3.509990e-03
1.506916e+02	-3.550638e-03
1.515620e+02	-3.591756e-03
1.524374e+02	-3.633350e-03
1.533179e+02	-3.675425e-03
1.542034e+02	-3.717988e-03
1.550941e+02	-3.761043e-03
1.559899e+02	-3.804597e-03
1.568909e+02	-3.848654e-03
1.577971e+02	-3.893222e-03
1.587085e+02	-3.938305e-03
1.596252e+02	-3.983911e-03
1.605472e+02	-4.030044e-03
1.614745e+02	-4.076711e-03
1.624072e+02	-4.123918e-03
1.633453e+02	-4.171672e-03
1.642887e+02	-4.219978e-03
1.652377e+02	-4.268844e-03
1.661921e+02	-4.318275e-03
1.671520e+02	-4.368278e-03
1.681175e+02	-4.418860e-03
1.690885e+02	-4.470027e-03
1.700651e+02	-4.521786e-03
1.710474e+02	-4.574145e-03
1.720354e+02	-4.627109e-03
1.730291e+02	-4.680686e-03
1.740285e+02	-4.734884e-03
1.750337e+02	-4.789708e-03
1.760446e+02	-4.845167e-03
1.770615e+02	-4.901268e-03
1.780842e+02	-4.958018e-03
1.791128e+02	-5.015425e-03
1.801473e+02	-5.073495e-03
1.811878e+02	-5.132238e-03
1.822344e+02	-5.191661e-03
1.832870e+02	-5.251771e-03
1.843456e+02	-5.312577e-03
1.854104e+02	-5.374086e-03
1.864813e+02	-5.436308e-03
1.875584e+02	-5.499249e-03
1.886418e+02	-5.562918e-03
1.897313e+02	-5.627324e-03
1.908272e+02	-5.692475e-03
1.919294e+02	-5.758380e-03
1.930380e+02	-5.825047e-03
1.941530e+02	-5.892486e-03
1.952744e+02	-5.960705e-03
1.964023e+02	-6.029713e-03
1.975367e+02	-6.099520e-03
1.986777e+02	-6.170134e-03
1.998252e+02	-6.241565e-03
2.009794e+02	-6.313822e-03
2.021403e+02	-6.386916e-03
2.033078e+02	-6.460855e-03
2.044821e+02	-6.535649e-03
2.056632e+02	-6.611308e-03
2.068511e+02	-6.687843e-03
2.080459e+02	-6.765262e-03
2.092475e+02	-6.843578e-03
2.104561e+02	-6.922799e-03
2.116717e+02	-7.002936e-03
2.128943e+02	-7.084001e-03
2.141240e+02	-7.166003e-03
2.153608e+02	-7.248953e-03
2.166047e+02	-7.332863e-03
2.178558e+02	-7.417743e-03
2.191141e+02	-7.503605e-03
2.203797e+02	-7.590460e-03
2.216526e+02	-7.678320e-03
2.229329e+02	-7.767195e-03
2.242205e+02	-7.857099e-03
2.255156e+02	-7.948041e-03
2.268182e+02	-8.040036e-03
2.281283e+02	-8.133094e-03
2.294459e+02	-8.227229e-03
2.307712e+02	-8.322452e-03
2.321041e+02	-8.418776e-03
2.334447e+02	-8.516213e-03
2.347931e+02	-8.614777e-03
2.361493e+02	-8.714481e-03
2.375133e+02	-8.815338e-03
2.388851e+02	-8.917361e-03
2.402649e+02	-9.020563e-03
2.416527e+02	-9.124958e-03
2.430484e+02	-9.230560e-03
2.444523e+02	-9.337383e-03
2.458642e+02	-9.445441e-03
2.472843e+02	-9.554748e-03
2.487126e+02	-9.665319e-03
2.501492e+02	-9.777168e-03
2.515940e+02	-9.890309e-03
2.530472e+02	-1.000476e-02
2.545088e+02	-1.012053e-02
2.559789e+02	-1.023764e-02
2.574574e+02	-1.035610e-02
2.589444e+02	-1.047594e-02
2.604401e+02	-1.059715e-02
2.619444e+02	-1.071977e-02
2.634574e+02	-1.084381e-02
2.649791e+02	-1.096928e-02
2.665096e+02	-1.109620e-02
2.680489e+02	-1.122458e-02
2.695972e+02	-1.135445e-02
2.711544e+02	-1.148582e-02
2.727205e+02	-1.161871e-02
2.742958e+02	-1.175313e-02
2.758801e+02	-1.188911e-02
2.774736e+02	-1.202665e-02
2.790762e+02	-1.216579e-02
2.806882e+02	-1.230653e-02
2.823094e+02	-1.244890e-02
2.839400e+02	-1.259292e-02
2.855800e+02	-1.273859e-02
2.872295e+02	-1.288595e-02
2.888886e+02	-1.303502e-02
2.905572e+02	-1.318580e-02
2.922354e+02	-1.333832e-02
2.939234e+02	-1.349261e-02
2.956211e+02	-1.364868e-02
2.973286e+02	-1.380655e-02
2.990459e+02	-1.396625e-02
3.007732e+02	-1.412778e-02
3.025104e+02	-1.429119e-02
3.042577e+02	-1.445648e-02
3.060151e+02	-1.462368e-02
3.077826e+02	-1.479281e-02
3.095604e+02	-1.496389e-02
3.113484e+02	-1.513695e-02
3.131467e+02	-1.531200e-02
3.149554e+02	-1.548908e-02
3.167746e+02	-1.566820e-02
3.186043e+02	-1.584938e-02
3.204445e+02	-1.603266e-02
3.222954e+02	-1.621806e-02
3.241570e+02	-1.640559e-02
3.260293e+02	-1.659529e-02
3.279124e+02	-1.678718e-02
3.298064e+02	-1.698128e-02
3.317114e+02	-1.717762e-02
3.336273e+02	-1.737623e-02
3.355544e+02	-1.757713e-02
3.374925e+02	-1.778034e-02
3.394418e+02	-1.798590e-02
3.414024e+02	-1.819384e-02
3.433744e+02	-1.840417e-02
3.453577e+02	-1.861693e-02
3.473525e+02	-1.883214e-02
3.493588e+02	-1.904983e-02
3.513766e+02	-1.927004e-02
3.534062e+02	-1.949279e-02
3.554474e+02	-1.971810e-02
3.575005e+02	-1.994601e-02
3.595654e+02	-2.017655e-02
3.616422e+02	-2.040975e-02
3.637311e+02	-2.064564e-02
3.658320e+02	-2.088425e-02
3.679450e+02	-2.112561e-02
3.700702e+02	-2.136975e-02
3.722077e+02	-2.161670e-02
3.743576e+02	-2.186650e-02
3.765199e+02	-2.211919e-02
3.786946e+02	-2.237478e-02
3.808820e+02	-2.263332e-02
3.830819e+02	-2.289484e-02
3.852946e+02	-2.315937e-02
3.875200e+02	-2.342695e-02
3.897583e+02	-2.369761e-02
3.920096e+02	-2.397140e-02
3.942738e+02	-2.424833e-02
3.965511e+02	-2.452846e-02
3.988416e+02	-2.481181e-02
4.011452e+02	-2.509843e-02
4.034622e+02	-2.538835e-02
4.057926e+02	-2.568161e-02
4.081365e+02	-2.597824e-02
4.104938e+02	-2.627829e-02
4.128648e+02	-2.658180e-02
4.152495e+02	-2.688880e-02
4.176480e+02	-2.719933e-02
4.200603e+02	-2.751344e-02
4.224866e+02	-2.783117e-02
4.249268e+02	-2.815255e-02
4.273812e+02	-2.847763e-02
4.298497e+02	-2.880645e-02
4.323325e+02	-2.913906e-02
4.348297e+02	-2.947549e-02
4.373412e+02	-2.981580e-02
4.398673e+02	-3.016002e-02
4.424079e+02	-3.050820e-02
4.449633e+02	-3.086038e-02
4.475334e+02	-3.121662e-02
4.501183e+02	-3.157695e-02
4.527182e+02	-3.194143e-02
4.553330e+02	-3.231010e-02
4.579630e+02	-3.268300e-02
4.606082e+02	-3.306020e-02
4.632687e+02	-3.344173e-02
4.659445e+02	-3.382765e-02
4.686358e+02	-3.421800e-02
4.713426e+02	-3.461284e-02
4.740650e+02	-3.501221e-02
4.768032e+02	-3.541618e-02
4.795572e+02	-3.582479e-02
4.823271e+02	-3.623809e-02
4.851130e+02	-3.665614e-02
4.879150e+02	-3.707899e-02
4.907332e+02	-3.750670e-02
4.935676e+02	-3.793932e-02
4.964185e+02	-3.837691e-02
4.992858e+02	-3.881952e-02
5.021696e+02	-3.926722e-02
5.050701e+02	-3.972005e-02
5.079874e+02	-4.017808e-02
5.109215e+02	-4.064137e-02
5.138726e+02	-4.110998e-02
5.168407e+02	-4.158396e-02
5.198259e+02	-4.206338e-02
5.228284e+02	-4.254830e-02
5.258482e+02	-4.303879e-02
5.288855e+02	-4.353490e-02
5.319403e+02	-4.403670e-02
5.350128e+02	-4.454425e-02
5.381030e+02	-4.505762e-02
5.412111e+02	-4.557688e-02
5.443371e+02	-4.610209e-02
5.474812e+02	-4.663332e-02
5.506434e+02	-4.717064e-02
5.538239e+02	-4.771411e-02
5.570228e+02	-4.826381e-02
5.602401e+02	-4.881981e-02
5.634760e+02	-4.938218e-02
5.667306e+02	-4.995098e-02
5.700040e+02	-5.052630e-02
5.732964e+02	-5.110821e-02
5.766077e+02	-5.169678e-02
5.799382e+02	-5.229209e-02
5.832879e+02	-5.289421e-02
5.866569e+02	-5.350322e-02
5.900454e+02	-5.411920e-02
5.934535e+02	-5.474222e-02
5.968813e+02	-5.537237e-02
6.003288e+02	-5.600973e-02
6.037963e+02	-5.665438e-02
6.072838e+02	-5.730640e-02
6.107914e+02	-5.796587e-02
6.143194e+02	-5.863287e-02
6.178676e+02	-5.930751e-02
6.214364e+02	-5.998984e-02
6.250258e+02	-6.067998e-02
6.286359e+02	-6.137800e-02
6.322669e+02	-6.208399e-02
6.359189e+02	-6.279804e-02
6.395919e+02	-6.352024e-02
6.432862e+02	-6.425069e-02
6.470017e+02	-6.498947e-02
6.507388e+02	-6.573669e-02
6.544974e+02	-6.649243e-02
6.582778e+02	-6.725679e-02
6.620800e+02	-6.802986e-02
6.659041e+02	-6.881176e-02
6.697504e+02	-6.960256e-02
6.736188e+02	-7.040239e-02
6.775096e+02	-7.121132e-02
6.814229e+02	-7.202948e-02
6.853587e+02	-7.285695e-02
6.893173e+02	-7.369385e-02
6.932988e+02	-7.454028e-02
6.973033e+02	-7.539635e-02
7.013309e+02	-7.626216e-02
