Frequency(Hz)	Magnitude(dB)
1.000000e+01	-2.103242e+00
1.005776e+01	-2.122417e+00
1.011585e+01	-2.141989e+00
1.017428e+01	-2.161480e+00
1.023305e+01	-2.181067e+00
1.029215e+01	-2.200824e+00
1.035160e+01	-2.220785e+00
1.041139e+01	-2.240974e+00
1.047153e+01	-2.261125e+00
1.053201e+01	-2.281623e+00
1.059284e+01	-2.302082e+00
1.065403e+01	-2.322823e+00
1.071556e+01	-2.343429e+00
1.077746e+01	-2.364291e+00
1.083971e+01	-2.385624e+00
1.090232e+01	-2.406796e+00
1.096529e+01	-2.428127e+00
1.102862e+01	-2.449514e+00
1.109232e+01	-2.471081e+00
1.115639e+01	-2.493115e+00
1.122083e+01	-2.514866e+00
1.128564e+01	-2.537024e+00
1.135083e+01	-2.559186e+00
1.141639e+01	-2.581553e+00
1.148233e+01	-2.604063e+00
1.154865e+01	-2.626473e+00
1.161536e+01	-2.649423e+00
1.168245e+01	-2.672520e+00
1.174992e+01	-2.695481e+00
1.181779e+01	-2.718528e+00
1.188605e+01	-2.741963e+00
1.195470e+01	-2.765434e+00
1.202375e+01	-2.788858e+00
1.209320e+01	-2.812807e+00
1.216305e+01	-2.836863e+00
1.223330e+01	-2.861008e+00
1.230396e+01	-2.885256e+00
1.237503e+01	-2.909486e+00
1.244651e+01	-2.933817e+00
1.251840e+01	-2.958516e+00
1.259070e+01	-2.983186e+00
1.266343e+01	-3.008234e+00
1.273657e+01	-3.033472e+00
1.281014e+01	-3.058352e+00
1.288413e+01	-3.083770e+00
1.295855e+01	-3.109186e+00
1.303339e+01	-3.135139e+00
1.310867e+01	-3.160892e+00
1.318439e+01	-3.186946e+00
1.326054e+01	-3.212804e+00
1.333713e+01	-3.239272e+00
1.341417e+01	-3.265546e+00
1.349165e+01	-3.292074e+00
1.356958e+01	-3.318598e+00
1.364795e+01	-3.345308e+00
1.372678e+01	-3.372214e+00
1.380607e+01	-3.399452e+00
1.388581e+01	-3.426580e+00
1.396602e+01	-3.454052e+00
1.404668e+01	-3.481413e+00
1.412782e+01	-3.509286e+00
1.420942e+01	-3.537065e+00
1.429149e+01	-3.564965e+00
1.437404e+01	-3.593226e+00
1.445706e+01	-3.621254e+00
1.454057e+01	-3.649438e+00
1.462455e+01	-3.677890e+00
1.470902e+01	-3.706930e+00
1.479398e+01	-3.735477e+00
1.487943e+01	-3.764358e+00
1.496537e+01	-3.793588e+00
1.505181e+01	-3.822835e+00
1.513875e+01	-3.852050e+00
1.522619e+01	-3.881789e+00
1.531414e+01	-3.911343e+00
1.540259e+01	-3.941037e+00
1.549156e+01	-3.970894e+00
1.558103e+01	-4.001130e+00
1.567103e+01	-4.030955e+00
1.576155e+01	-4.061400e+00
1.585258e+01	-4.091851e+00
1.594415e+01	-4.122505e+00
1.603624e+01	-4.153139e+00
1.612886e+01	-4.183829e+00
1.622202e+01	-4.215024e+00
1.631572e+01	-4.246159e+00
1.640996e+01	-4.277545e+00
1.650474e+01	-4.309012e+00
1.660008e+01	-4.340606e+00
1.669596e+01	-4.372412e+00
1.679239e+01	-4.403771e+00
1.688938e+01	-4.435833e+00
1.698694e+01	-4.468015e+00
1.708505e+01	-4.500451e+00
1.718373e+01	-4.532759e+00
1.728299e+01	-4.565063e+00
1.738281e+01	-4.597329e+00
1.748322e+01	-4.630855e+00
1.758420e+01	-4.663294e+00
1.768576e+01	-4.696412e+00
1.778792e+01	-4.729374e+00
1.789066e+01	-4.762680e+00
1.799399e+01	-4.795714e+00
1.809793e+01	-4.829468e+00
1.820246e+01	-4.863183e+00
1.830760e+01	-4.896795e+00
1.841334e+01	-4.930579e+00
1.851969e+01	-4.965051e+00
1.862666e+01	-4.999052e+00
1.873425e+01	-5.033000e+00
1.884246e+01	-5.067888e+00
1.895129e+01	-5.102169e+00
1.906075e+01	-5.136647e+00
1.917085e+01	-5.171530e+00
1.928158e+01	-5.206237e+00
1.939295e+01	-5.241085e+00
1.950496e+01	-5.276627e+00
1.961762e+01	-5.311956e+00
1.973093e+01	-5.347212e+00
1.984490e+01	-5.382288e+00
1.995952e+01	-5.418263e+00
2.007480e+01	-5.453580e+00
2.019076e+01	-5.489628e+00
2.030738e+01	-5.525823e+00
2.042467e+01	-5.561427e+00
2.054264e+01	-5.597810e+00
2.066130e+01	-5.634381e+00
2.078064e+01	-5.670914e+00
2.090066e+01	-5.706997e+00
2.102139e+01	-5.743652e+00
2.114280e+01	-5.780377e+00
2.126492e+01	-5.817310e+00
2.138775e+01	-5.854213e+00
2.151128e+01	-5.891333e+00
2.163553e+01	-5.928518e+00
2.176050e+01	-5.966112e+00
2.188619e+01	-6.003292e+00
2.201260e+01	-6.040886e+00
2.213974e+01	-6.078569e+00
2.226762e+01	-6.116225e+00
2.239624e+01	-6.153987e+00
2.252560e+01	-6.192108e+00
2.265571e+01	-6.229998e+00
2.278656e+01	-6.268557e+00
2.291818e+01	-6.306315e+00
2.305055e+01	-6.344934e+00
2.318369e+01	-6.383624e+00
2.331760e+01	-6.422037e+00
2.345228e+01	-6.460831e+00
2.358774e+01	-6.499473e+00
2.372398e+01	-6.538600e+00
2.386101e+01	-6.577253e+00
2.399883e+01	-6.616459e+00
2.413745e+01	-6.655613e+00
2.427686e+01	-6.694798e+00
2.441709e+01	-6.733808e+00
2.455812e+01	-6.773763e+00
2.469997e+01	-6.813029e+00
2.484263e+01	-6.852954e+00
2.498612e+01	-6.892748e+00
2.513044e+01	-6.932743e+00
2.527559e+01	-6.972500e+00
2.542158e+01	-7.012477e+00
2.556842e+01	-7.052765e+00
2.571610e+01	-7.092477e+00
2.586463e+01	-7.133369e+00
2.601403e+01	-7.173299e+00
2.616428e+01	-7.213986e+00
2.631541e+01	-7.254132e+00
2.646740e+01	-7.295646e+00
2.662028e+01	-7.335889e+00
2.677404e+01	-7.376673e+00
2.692868e+01	-7.417868e+00
2.708422e+01	-7.458980e+00
2.724066e+01	-7.499792e+00
2.739800e+01	-7.541050e+00
2.755625e+01	-7.582370e+00
2.771541e+01	-7.623664e+00
2.787550e+01	-7.665105e+00
2.803650e+01	-7.706307e+00
2.819844e+01	-7.748208e+00
2.836131e+01	-7.789626e+00
2.852513e+01	-7.831663e+00
2.868989e+01	-7.872571e+00
2.885560e+01	-7.915468e+00
2.902227e+01	-7.957490e+00
2.918990e+01	-7.998981e+00
2.935850e+01	-8.040534e+00
2.952807e+01	-8.083394e+00
2.969863e+01	-8.125708e+00
2.987016e+01	-8.168265e+00
3.004269e+01	-8.210337e+00
3.021622e+01	-8.252926e+00
3.039075e+01	-8.295495e+00
3.056628e+01	-8.338066e+00
3.074283e+01	-8.380831e+00
3.092040e+01	-8.423749e+00
3.109900e+01	-8.466431e+00
3.127862e+01	-8.509715e+00
3.145929e+01	-8.552726e+00
3.164099e+01	-8.595813e+00
3.182375e+01	-8.639030e+00
3.200756e+01	-8.682252e+00
3.219244e+01	-8.725418e+00
3.237838e+01	-8.768923e+00
3.256540e+01	-8.812679e+00
3.275349e+01	-8.855877e+00
3.294268e+01	-8.899328e+00
3.313295e+01	-8.943016e+00
3.332433e+01	-8.986335e+00
3.351681e+01	-9.029851e+00
3.371040e+01	-9.074032e+00
3.390511e+01	-9.118216e+00
3.410094e+01	-9.161682e+00
3.429791e+01	-9.205953e+00
3.449601e+01	-9.249845e+00
3.469526e+01	-9.294026e+00
3.489566e+01	-9.338213e+00
3.509721e+01	-9.382338e+00
3.529993e+01	-9.426241e+00
3.550382e+01	-9.471301e+00
3.570889e+01	-9.514785e+00
3.591515e+01	-9.560253e+00
3.612259e+01	-9.604338e+00
3.633123e+01	-9.649134e+00
3.654108e+01	-9.693323e+00
3.675214e+01	-9.737925e+00
3.696442e+01	-9.783087e+00
3.717792e+01	-9.827731e+00
3.739266e+01	-9.872868e+00
3.760864e+01	-9.917628e+00
3.782587e+01	-9.962195e+00
3.804435e+01	-1.000759e+01
3.826409e+01	-1.005193e+01
3.848510e+01	-1.009722e+01
3.870739e+01	-1.014304e+01
3.893096e+01	-1.018799e+01
3.915583e+01	-1.023336e+01
3.938199e+01	-1.027864e+01
3.960946e+01	-1.032409e+01
3.983824e+01	-1.036968e+01
4.006834e+01	-1.041523e+01
4.029978e+01	-1.046048e+01
4.053255e+01	-1.050585e+01
4.076666e+01	-1.055139e+01
4.100213e+01	-1.059676e+01
4.123896e+01	-1.064285e+01
4.147715e+01	-1.068871e+01
4.171672e+01	-1.073417e+01
4.195767e+01	-1.078025e+01
4.220002e+01	-1.082615e+01
4.244377e+01	-1.087199e+01
4.268892e+01	-1.091743e+01
4.293549e+01	-1.096360e+01
4.318348e+01	-1.100991e+01
4.343291e+01	-1.105636e+01
4.368377e+01	-1.110222e+01
4.393609e+01	-1.114795e+01
4.418986e+01	-1.119440e+01
4.444510e+01	-1.124068e+01
4.470182e+01	-1.128690e+01
4.496001e+01	-1.133285e+01
4.521970e+01	-1.137943e+01
4.548089e+01	-1.142664e+01
4.574358e+01	-1.147227e+01
4.600779e+01	-1.151922e+01
4.627353e+01	-1.156593e+01
4.654081e+01	-1.161291e+01
4.680963e+01	-1.165876e+01
4.708000e+01	-1.170552e+01
4.735193e+01	-1.175241e+01
4.762543e+01	-1.179886e+01
4.790051e+01	-1.184529e+01
4.817719e+01	-1.189222e+01
4.845545e+01	-1.193849e+01
4.873533e+01	-1.198564e+01
4.901682e+01	-1.203284e+01
4.929994e+01	-1.207955e+01
4.958470e+01	-1.212624e+01
4.987110e+01	-1.217383e+01
5.015915e+01	-1.222112e+01
5.044887e+01	-1.226744e+01
5.074026e+01	-1.231432e+01
5.103333e+01	-1.236170e+01
5.132810e+01	-1.240897e+01
5.162457e+01	-1.245648e+01
5.192275e+01	-1.250374e+01
5.222265e+01	-1.255063e+01
5.252429e+01	-1.259697e+01
5.282767e+01	-1.264528e+01
5.313280e+01	-1.269191e+01
5.343969e+01	-1.273984e+01
5.374836e+01	-1.278641e+01
5.405880e+01	-1.283492e+01
5.437105e+01	-1.288210e+01
5.468509e+01	-1.292955e+01
5.500095e+01	-1.297705e+01
5.531863e+01	-1.302474e+01
5.563815e+01	-1.307260e+01
5.595951e+01	-1.311925e+01
5.628273e+01	-1.316731e+01
5.660782e+01	-1.321489e+01
5.693479e+01	-1.326311e+01
5.726364e+01	-1.331005e+01
5.759439e+01	-1.335737e+01
5.792705e+01	-1.340551e+01
5.826164e+01	-1.345319e+01
5.859815e+01	-1.350075e+01
5.893662e+01	-1.354909e+01
5.927703e+01	-1.359677e+01
5.961941e+01	-1.364399e+01
5.996377e+01	-1.369216e+01
6.031012e+01	-1.374034e+01
6.065847e+01	-1.378838e+01
6.100883e+01	-1.383626e+01
6.136121e+01	-1.388386e+01
6.171563e+01	-1.393229e+01
6.207210e+01	-1.397985e+01
6.243063e+01	-1.402883e+01
6.279122e+01	-1.407650e+01
6.315390e+01	-1.412504e+01
6.351868e+01	-1.417163e+01
6.388556e+01	-1.422074e+01
6.425456e+01	-1.426894e+01
6.462569e+01	-1.431680e+01
6.499897e+01	-1.436458e+01
6.537440e+01	-1.441430e+01
6.575200e+01	-1.446168e+01
6.613178e+01	-1.451031e+01
6.651375e+01	-1.455851e+01
6.689793e+01	-1.460614e+01
6.728433e+01	-1.465438e+01
6.767297e+01	-1.470310e+01
6.806384e+01	-1.475140e+01
6.845698e+01	-1.479999e+01
6.885238e+01	-1.484763e+01
6.925007e+01	-1.489575e+01
6.965005e+01	-1.494556e+01
7.005235e+01	-1.499433e+01
7.045697e+01	-1.504162e+01
7.086393e+01	-1.509041e+01
7.127323e+01	-1.513819e+01
7.168490e+01	-1.518696e+01
7.209895e+01	-1.523665e+01
7.251539e+01	-1.528508e+01
7.293424e+01	-1.533311e+01
7.335551e+01	-1.538099e+01
7.377920e+01	-1.542991e+01
7.420535e+01	-1.547868e+01
7.463396e+01	-1.552753e+01
7.506504e+01	-1.557612e+01
7.549861e+01	-1.562477e+01
7.593469e+01	-1.567480e+01
7.637328e+01	-1.572118e+01
7.681441e+01	-1.576946e+01
7.725809e+01	-1.581962e+01
7.770433e+01	-1.586882e+01
7.815315e+01	-1.591666e+01
7.860456e+01	-1.596500e+01
7.905857e+01	-1.601528e+01
7.951521e+01	-1.606358e+01
7.997449e+01	-1.611126e+01
8.043642e+01	-1.616076e+01
8.090102e+01	-1.620968e+01
8.136830e+01	-1.625776e+01
8.183828e+01	-1.630617e+01
8.231097e+01	-1.635699e+01
8.278640e+01	-1.640367e+01
8.326457e+01	-1.645534e+01
8.374550e+01	-1.650282e+01
8.422921e+01	-1.655045e+01
8.471572e+01	-1.660036e+01
8.520503e+01	-1.664935e+01
8.569717e+01	-1.669846e+01
8.619215e+01	-1.674740e+01
8.669000e+01	-1.679743e+01
8.719071e+01	-1.684610e+01
8.769432e+01	-1.689402e+01
8.820084e+01	-1.694400e+01
8.871029e+01	-1.699275e+01
8.922267e+01	-1.704068e+01
8.973802e+01	-1.709014e+01
9.025634e+01	-1.713940e+01
9.077766e+01	-1.718867e+01
9.130199e+01	-1.723750e+01
9.182935e+01	-1.728655e+01
9.235975e+01	-1.733530e+01
9.289321e+01	-1.738495e+01
9.342976e+01	-1.743419e+01
9.396941e+01	-1.748333e+01
9.451217e+01	-1.753283e+01
9.505807e+01	-1.758021e+01
9.560712e+01	-1.763124e+01
9.615934e+01	-1.767997e+01
9.671476e+01	-1.772942e+01
9.727338e+01	-1.777773e+01
9.783522e+01	-1.782719e+01
9.840032e+01	-1.787600e+01
9.896867e+01	-1.792648e+01
9.954031e+01	-1.797549e+01
1.001153e+02	-1.802465e+01
1.006935e+02	-1.807327e+01
1.012751e+02	-1.812209e+01
1.018601e+02	-1.817157e+01
1.024484e+02	-1.822182e+01
1.030402e+02	-1.827064e+01
1.036353e+02	-1.832061e+01
1.042339e+02	-1.836962e+01
1.048360e+02	-1.841880e+01
1.054415e+02	-1.846697e+01
1.060505e+02	-1.851663e+01
1.066631e+02	-1.856653e+01
1.072791e+02	-1.861662e+01
1.078988e+02	-1.866534e+01
1.085220e+02	-1.871456e+01
1.091488e+02	-1.876456e+01
1.097793e+02	-1.881276e+01
1.104133e+02	-1.886253e+01
1.110511e+02	-1.891391e+01
1.116925e+02	-1.896192e+01
1.123376e+02	-1.901095e+01
1.129865e+02	-1.906071e+01
1.136391e+02	-1.911101e+01
1.142955e+02	-1.915852e+01
1.149556e+02	-1.920800e+01
1.156196e+02	-1.925744e+01
1.162874e+02	-1.930738e+01
1.169591e+02	-1.935735e+01
1.176347e+02	-1.940481e+01
1.183141e+02	-1.945428e+01
1.189975e+02	-1.950581e+01
1.196848e+02	-1.955452e+01
1.203761e+02	-1.960484e+01
1.210714e+02	-1.965546e+01
1.217707e+02	-1.970312e+01
1.224740e+02	-1.975312e+01
1.231814e+02	-1.980294e+01
1.238929e+02	-1.985360e+01
1.246085e+02	-1.990149e+01
1.253283e+02	-1.995170e+01
1.260522e+02	-2.000151e+01
1.267802e+02	-2.005036e+01
1.275125e+02	-2.009925e+01
1.282490e+02	-2.014834e+01
1.289898e+02	-2.019845e+01
1.297348e+02	-2.024770e+01
1.304842e+02	-2.029668e+01
1.312378e+02	-2.034752e+01
1.319959e+02	-2.039811e+01
1.327583e+02	-2.044643e+01
1.335251e+02	-2.049755e+01
1.342963e+02	-2.054650e+01
1.350720e+02	-2.059624e+01
1.358522e+02	-2.064621e+01
1.366368e+02	-2.069348e+01
1.374260e+02	-2.074523e+01
1.382198e+02	-2.079331e+01
1.390182e+02	-2.084534e+01
1.398211e+02	-2.089227e+01
1.406287e+02	-2.094030e+01
1.414410e+02	-2.099275e+01
1.422579e+02	-2.104306e+01
1.430796e+02	-2.109230e+01
1.439060e+02	-2.114262e+01
1.447372e+02	-2.119110e+01
1.455732e+02	-2.124054e+01
1.464141e+02	-2.128987e+01
1.472597e+02	-2.133970e+01
1.481103e+02	-2.138902e+01
1.489658e+02	-2.143940e+01
1.498262e+02	-2.148975e+01
1.506916e+02	-2.153837e+01
1.515620e+02	-2.158835e+01
1.524374e+02	-2.163886e+01
1.533179e+02	-2.168765e+01
1.542034e+02	-2.173726e+01
1.550941e+02	-2.178790e+01
1.559899e+02	-2.183617e+01
1.568909e+02	-2.188764e+01
1.577971e+02	-2.193794e+01
1.587085e+02	-2.198861e+01
1.596252e+02	-2.203628e+01
1.605472e+02	-2.208428e+01
1.614745e+02	-2.213703e+01
1.624072e+02	-2.218658e+01
1.633453e+02	-2.223426e+01
1.642887e+02	-2.228382e+01
1.652377e+02	-2.233485e+01
1.661921e+02	-2.238338e+01
1.671520e+02	-2.243221e+01
1.681175e+02	-2.248366e+01
1.690885e+02	-2.253401e+01
1.700651e+02	-2.258136e+01
1.710474e+02	-2.263262e+01
1.720354e+02	-2.268001e+01
1.730291e+02	-2.273106e+01
1.740285e+02	-2.278433e+01
1.750337e+02	-2.283082e+01
1.760446e+02	-2.288243e+01
1.770615e+02	-2.293163e+01
1.780842e+02	-2.297930e+01
1.791128e+02	-2.303140e+01
1.801473e+02	-2.308235e+01
1.811878e+02	-2.312981e+01
1.822344e+02	-2.318080e+01
1.832870e+02	-2.323091e+01
1.843456e+02	-2.327970e+01
1.854104e+02	-2.333315e+01
1.864813e+02	-2.338154e+01
1.875584e+02	-2.342663e+01
1.886418e+02	-2.347798e+01
1.897313e+02	-2.352994e+01
1.908272e+02	-2.358145e+01
1.919294e+02	-2.362852e+01
1.930380e+02	-2.367744e+01
1.941530e+02	-2.372744e+01
1.952744e+02	-2.377765e+01
1.964023e+02	-2.382599e+01
1.975367e+02	-2.387721e+01
1.986777e+02	-2.393093e+01
1.998252e+02	-2.398139e+01
2.009794e+02	-2.402826e+01
2.021403e+02	-2.407707e+01
2.033078e+02	-2.412747e+01
2.044821e+02	-2.417783e+01
2.056632e+02	-2.422900e+01
2.068511e+02	-2.427802e+01
2.080459e+02	-2.432762e+01
2.092475e+02	-2.437919e+01
2.104561e+02	-2.442401e+01
2.116717e+02	-2.447571e+01
2.128943e+02	-2.452610e+01
2.141240e+02	-2.457668e+01
2.153608e+02	-2.462677e+01
2.166047e+02	-2.467678e+01
2.178558e+02	-2.472734e+01
2.191141e+02	-2.477668e+01
2.203797e+02	-2.482436e+01
2.216526e+02	-2.487620e+01
2.229329e+02	-2.492458e+01
2.242205e+02	-2.497683e+01
2.255156e+02	-2.502414e+01
2.268182e+02	-2.507465e+01
2.281283e+02	-2.512625e+01
2.294459e+02	-2.517575e+01
2.307712e+02	-2.522816e+01
2.321041e+02	-2.527431e+01
2.334447e+02	-2.532588e+01
2.347931e+02	-2.537671e+01
2.361493e+02	-2.542551e+01
2.375133e+02	-2.547552e+01
2.388851e+02	-2.552254e+01
2.402649e+02	-2.557859e+01
2.416527e+02	-2.562395e+01
2.430484e+02	-2.567774e+01
2.444523e+02	-2.572510e+01
2.458642e+02	-2.577423e+01
2.472843e+02	-2.582399e+01
2.487126e+02	-2.587468e+01
2.501492e+02	-2.592121e+01
2.515940e+02	-2.597444e+01
2.530472e+02	-2.602331e+01
2.545088e+02	-2.607278e+01
2.559789e+02	-2.612300e+01
2.574574e+02	-2.617593e+01
2.589444e+02	-2.622483e+01
2.604401e+02	-2.627152e+01
2.619444e+02	-2.632331e+01
2.634574e+02	-2.637339e+01
2.649791e+02	-2.642520e+01
2.665096e+02	-2.647240e+01
2.680489e+02	-2.652212e+01
2.695972e+02	-2.657439e+01
2.711544e+02	-2.662584e+01
2.727205e+02	-2.667620e+01
2.742958e+02	-2.672109e+01
2.758801e+02	-2.677520e+01
2.774736e+02	-2.682314e+01
2.790762e+02	-2.687421e+01
2.806882e+02	-2.691987e+01
2.823094e+02	-2.697523e+01
2.839400e+02	-2.702223e+01
2.855800e+02	-2.707365e+01
2.872295e+02	-2.712407e+01
2.888886e+02	-2.717223e+01
2.905572e+02	-2.722202e+01
2.922354e+02	-2.727475e+01
2.939234e+02	-2.732446e+01
2.956211e+02	-2.737235e+01
2.973286e+02	-2.742389e+01
2.990459e+02	-2.747445e+01
3.007732e+02	-2.752612e+01
3.025104e+02	-2.757682e+01
3.042577e+02	-2.762191e+01
3.060151e+02	-2.767258e+01
3.077826e+02	-2.772356e+01
3.095604e+02	-2.777327e+01
3.113484e+02	-2.782524e+01
3.131467e+02	-2.787145e+01
3.149554e+02	-2.792199e+01
3.167746e+02	-2.797370e+01
3.186043e+02	-2.802319e+01
3.204445e+02	-2.807263e+01
3.222954e+02	-2.812508e+01
3.241570e+02	-2.816960e+01
3.260293e+02	-2.822674e+01
3.279124e+02	-2.827402e+01
3.298064e+02	-2.832307e+01
3.317114e+02	-2.837101e+01
3.336273e+02	-2.842221e+01
3.355544e+02	-2.847457e+01
3.374925e+02	-2.852165e+01
3.394418e+02	-2.857668e+01
3.414024e+02	-2.862383e+01
3.433744e+02	-2.867099e+01
3.453577e+02	-2.872646e+01
3.473525e+02	-2.877548e+01
3.493588e+02	-2.882499e+01
3.513766e+02	-2.887656e+01
3.534062e+02	-2.892565e+01
3.554474e+02	-2.897237e+01
3.575005e+02	-2.902673e+01
3.595654e+02	-2.907503e+01
3.616422e+02	-2.912544e+01
3.637311e+02	-2.917166e+01
3.658320e+02	-2.922406e+01
3.679450e+02	-2.927502e+01
3.700702e+02	-2.932727e+01
3.722077e+02	-2.937292e+01
3.743576e+02	-2.942330e+01
3.765199e+02	-2.947316e+01
3.786946e+02	-2.952434e+01
3.808820e+02	-2.957239e+01
3.830819e+02	-2.962253e+01
3.852946e+02	-2.967608e+01
3.875200e+02	-2.972175e+01
3.897583e+02	-2.977911e+01
3.920096e+02	-2.982564e+01
3.942738e+02	-2.987218e+01
3.965511e+02	-2.992514e+01
3.988416e+02	-2.997032e+01
4.011452e+02	-3.002768e+01
4.034622e+02	-3.007400e+01
4.057926e+02	-3.012832e+01
4.081365e+02	-3.017867e+01
4.104938e+02	-3.023068e+01
4.128648e+02	-3.027713e+01
4.152495e+02	-3.032833e+01
4.176480e+02	-3.037420e+01
4.200603e+02	-3.043275e+01
4.224866e+02	-3.048059e+01
4.249268e+02	-3.052612e+01
4.273812e+02	-3.057927e+01
4.298497e+02	-3.062570e+01
4.323325e+02	-3.067548e+01
4.348297e+02	-3.073094e+01
4.373412e+02	-3.077093e+01
4.398673e+02	-3.083323e+01
4.424079e+02	-3.088051e+01
4.449633e+02	-3.092858e+01
4.475334e+02	-3.097599e+01
4.501183e+02	-3.103334e+01
4.527182e+02	-3.107547e+01
4.553330e+02	-3.112747e+01
4.579630e+02	-3.118330e+01
4.606082e+02	-3.122966e+01
4.632687e+02	-3.127626e+01
4.659445e+02	-3.133193e+01
4.686358e+02	-3.138070e+01
4.713426e+02	-3.142431e+01
4.740650e+02	-3.147978e+01
4.768032e+02	-3.153131e+01
4.795572e+02	-3.158255e+01
4.823271e+02	-3.162907e+01
4.851130e+02	-3.168491e+01
4.879150e+02	-3.172840e+01
4.907332e+02	-3.178950e+01
4.935676e+02	-3.183259e+01
4.964185e+02	-3.188585e+01
4.992858e+02	-3.192888e+01
5.021696e+02	-3.197900e+01
5.050701e+02	-3.203064e+01
5.079874e+02	-3.208044e+01
5.109215e+02	-3.212714e+01
5.138726e+02	-3.218607e+01
5.168407e+02	-3.224347e+01
5.198259e+02	-3.228470e+01
5.228284e+02	-3.233190e+01
5.258482e+02	-3.238134e+01
5.288855e+02	-3.243666e+01
5.319403e+02	-3.248917e+01
5.350128e+02	-3.253539e+01
5.381030e+02	-3.258176e+01
5.412111e+02	-3.263847e+01
5.443371e+02	-3.268910e+01
5.474812e+02	-3.272946e+01
5.506434e+02	-3.279179e+01
5.538239e+02	-3.283531e+01
5.570228e+02	-3.288592e+01
5.602401e+02	-3.293273e+01
5.634760e+02	-3.297757e+01
5.667306e+02	-3.303657e+01
5.700040e+02	-3.308346e+01
5.732964e+02	-3.313541e+01
5.766077e+02	-3.319237e+01
5.799382e+02	-3.323961e+01
5.832879e+02	-3.329605e+01
5.866569e+02	-3.334373e+01
5.900454e+02	-3.337894e+01
5.934535e+02	-3.343544e+01
5.968813e+02	-3.349218e+01
6.003288e+02	-3.353597e+01
6.037963e+02	-3.359229e+01
6.072838e+02	-3.363429e+01
6.107914e+02	-3.368429e+01
6.143194e+02	-3.375094e+01
6.178676e+02	-3.380397e+01
6.214364e+02	-3.384292e+01
6.250258e+02	-3.389562e+01
6.286359e+02	-3.394141e+01
6.322669e+02	-3.399808e+01
6.359189e+02	-3.403187e+01
6.395919e+02	-3.409320e+01
6.432862e+02	-3.413784e+01
6.470017e+02	-3.419155e+01
6.507388e+02	-3.424353e+01
6.544974e+02	-3.429344e+01
6.582778e+02	-3.434809e+01
6.620800e+02	-3.439503e+01
6.659041e+02	-3.444388e+01
6.697504e+02	-3.449461e+01
6.736188e+02	-3.453704e+01
6.775096e+02	-3.460186e+01
6.814229e+02	-3.463965e+01
6.853587e+02	-3.469032e+01
6.893173e+02	-3.474713e+01
6.932988e+02	-3.478997e+01
6.973033e+02	-3.484776e+01
7.013309e+02	-3.490298e+01
