Frequency(Hz)	Magnitude(dB)
1.000000e+01	-2.093898e+00
1.005776e+01	-2.112723e+00
1.011585e+01	-2.132114e+00
1.017428e+01	-2.151428e+00
1.023305e+01	-2.171183e+00
1.029215e+01	-2.190945e+00
1.035160e+01	-2.210936e+00
1.041139e+01	-2.230855e+00
1.047153e+01	-2.251010e+00
1.053201e+01	-2.271570e+00
1.059284e+01	-2.291711e+00
1.065403e+01	-2.312538e+00
1.071556e+01	-2.333062e+00
1.077746e+01	-2.354087e+00
1.083971e+01	-2.374958e+00
1.090232e+01	-2.396310e+00
1.096529e+01	-2.417183e+00
1.102862e+01	-2.438670e+00
1.109232e+01	-2.460421e+00
1.115639e+01	-2.482249e+00
1.122083e+01	-2.503867e+00
1.128564e+01	-2.525861e+00
1.135083e+01	-2.547942e+00
1.141639e+01	-2.570556e+00
1.148233e+01	-2.592957e+00
1.154865e+01	-2.615428e+00
1.161536e+01	-2.638057e+00
1.168245e+01	-2.660815e+00
1.174992e+01	-2.683777e+00
1.181779e+01	-2.706886e+00
1.188605e+01	-2.730311e+00
1.195470e+01	-2.753681e+00
1.202375e+01	-2.777230e+00
1.209320e+01	-2.800986e+00
1.216305e+01	-2.824544e+00
1.223330e+01	-2.848896e+00
1.230396e+01	-2.872820e+00
1.237503e+01	-2.897270e+00
1.244651e+01	-2.921722e+00
1.251840e+01	-2.946176e+00
1.259070e+01	-2.971031e+00
1.266343e+01	-2.995885e+00
1.273657e+01	-3.020837e+00
1.281014e+01	-3.046018e+00
1.288413e+01	-3.071150e+00
1.295855e+01	-3.096763e+00
1.303339e+01	-3.122137e+00
1.310867e+01	-3.147987e+00
1.318439e+01	-3.174102e+00
1.326054e+01	-3.200063e+00
1.333713e+01	-3.226034e+00
1.341417e+01	-3.252234e+00
1.349165e+01	-3.278568e+00
1.356958e+01	-3.305295e+00
1.364795e+01	-3.331975e+00
1.372678e+01	-3.359046e+00
1.380607e+01	-3.385903e+00
1.388581e+01	-3.413099e+00
1.396602e+01	-3.440416e+00
1.404668e+01	-3.467706e+00
1.412782e+01	-3.495463e+00
1.420942e+01	-3.523129e+00
1.429149e+01	-3.551090e+00
1.437404e+01	-3.578969e+00
1.445706e+01	-3.607109e+00
1.454057e+01	-3.635371e+00
1.462455e+01	-3.663815e+00
1.470902e+01	-3.692615e+00
1.479398e+01	-3.721360e+00
1.487943e+01	-3.749973e+00
1.496537e+01	-3.779357e+00
1.505181e+01	-3.808067e+00
1.513875e+01	-3.837611e+00
1.522619e+01	-3.866878e+00
1.531414e+01	-3.896522e+00
1.540259e+01	-3.926179e+00
1.549156e+01	-3.956029e+00
1.558103e+01	-3.986167e+00
1.567103e+01	-4.016257e+00
1.576155e+01	-4.046349e+00
1.585258e+01	-4.077066e+00
1.594415e+01	-4.107202e+00
1.603624e+01	-4.137707e+00
1.612886e+01	-4.168517e+00
1.622202e+01	-4.199658e+00
1.631572e+01	-4.230746e+00
1.640996e+01	-4.262019e+00
1.650474e+01	-4.293161e+00
1.660008e+01	-4.324917e+00
1.669596e+01	-4.356380e+00
1.679239e+01	-4.388124e+00
1.688938e+01	-4.419727e+00
1.698694e+01	-4.451935e+00
1.708505e+01	-4.483998e+00
1.718373e+01	-4.516617e+00
1.728299e+01	-4.549115e+00
1.738281e+01	-4.581312e+00
1.748322e+01	-4.614155e+00
1.758420e+01	-4.646937e+00
1.768576e+01	-4.679762e+00
1.778792e+01	-4.712783e+00
1.789066e+01	-4.746028e+00
1.799399e+01	-4.779652e+00
1.809793e+01	-4.812713e+00
1.820246e+01	-4.846431e+00
1.830760e+01	-4.879909e+00
1.841334e+01	-4.913958e+00
1.851969e+01	-4.947969e+00
1.862666e+01	-4.982069e+00
1.873425e+01	-5.016247e+00
1.884246e+01	-5.050548e+00
1.895129e+01	-5.084919e+00
1.906075e+01	-5.119295e+00
1.917085e+01	-5.154291e+00
1.928158e+01	-5.189144e+00
1.939295e+01	-5.224231e+00
1.950496e+01	-5.259193e+00
1.961762e+01	-5.294249e+00
1.973093e+01	-5.329712e+00
1.984490e+01	-5.364953e+00
1.995952e+01	-5.400181e+00
2.007480e+01	-5.435872e+00
2.019076e+01	-5.471961e+00
2.030738e+01	-5.507832e+00
2.042467e+01	-5.543672e+00
2.054264e+01	-5.579637e+00
2.066130e+01	-5.616048e+00
2.078064e+01	-5.652411e+00
2.090066e+01	-5.689293e+00
2.102139e+01	-5.725547e+00
2.114280e+01	-5.762288e+00
2.126492e+01	-5.799000e+00
2.138775e+01	-5.836005e+00
2.151128e+01	-5.872893e+00
2.163553e+01	-5.910043e+00
2.176050e+01	-5.947308e+00
2.188619e+01	-5.984594e+00
2.201260e+01	-6.021998e+00
2.213974e+01	-6.059845e+00
2.226762e+01	-6.097712e+00
2.239624e+01	-6.135003e+00
2.252560e+01	-6.173228e+00
2.265571e+01	-6.211224e+00
2.278656e+01	-6.248923e+00
2.291818e+01	-6.287320e+00
2.305055e+01	-6.325874e+00
2.318369e+01	-6.364045e+00
2.331760e+01	-6.402976e+00
2.345228e+01	-6.441345e+00
2.358774e+01	-6.480025e+00
2.372398e+01	-6.518928e+00
2.386101e+01	-6.557733e+00
2.399883e+01	-6.596821e+00
2.413745e+01	-6.635916e+00
2.427686e+01	-6.675507e+00
2.441709e+01	-6.714526e+00
2.455812e+01	-6.753885e+00
2.469997e+01	-6.793324e+00
2.484263e+01	-6.833121e+00
2.498612e+01	-6.872836e+00
2.513044e+01	-6.912532e+00
2.527559e+01	-6.952552e+00
2.542158e+01	-6.992307e+00
2.556842e+01	-7.032609e+00
2.571610e+01	-7.072610e+00
2.586463e+01	-7.112995e+00
2.601403e+01	-7.153696e+00
2.616428e+01	-7.193934e+00
2.631541e+01	-7.234344e+00
2.646740e+01	-7.274815e+00
2.662028e+01	-7.315825e+00
2.677404e+01	-7.356299e+00
2.692868e+01	-7.397207e+00
2.708422e+01	-7.438108e+00
2.724066e+01	-7.479015e+00
2.739800e+01	-7.520267e+00
2.755625e+01	-7.561400e+00
2.771541e+01	-7.602745e+00
2.787550e+01	-7.644193e+00
2.803650e+01	-7.685776e+00
2.819844e+01	-7.727466e+00
2.836131e+01	-7.768766e+00
2.852513e+01	-7.810806e+00
2.868989e+01	-7.852488e+00
2.885560e+01	-7.894289e+00
2.902227e+01	-7.936198e+00
2.918990e+01	-7.978038e+00
2.935850e+01	-8.020215e+00
2.952807e+01	-8.062351e+00
2.969863e+01	-8.104715e+00
2.987016e+01	-8.146616e+00
3.004269e+01	-8.189393e+00
3.021622e+01	-8.231837e+00
3.039075e+01	-8.274432e+00
3.056628e+01	-8.316776e+00
3.074283e+01	-8.359750e+00
3.092040e+01	-8.402891e+00
3.109900e+01	-8.445466e+00
3.127862e+01	-8.488437e+00
3.145929e+01	-8.530946e+00
3.164099e+01	-8.574295e+00
3.182375e+01	-8.617799e+00
3.200756e+01	-8.660154e+00
3.219244e+01	-8.703919e+00
3.237838e+01	-8.747279e+00
3.256540e+01	-8.790495e+00
3.275349e+01	-8.834411e+00
3.294268e+01	-8.876973e+00
3.313295e+01	-8.920616e+00
3.332433e+01	-8.965031e+00
3.351681e+01	-9.008445e+00
3.371040e+01	-9.052090e+00
3.390511e+01	-9.096076e+00
3.410094e+01	-9.139693e+00
3.429791e+01	-9.183861e+00
3.449601e+01	-9.227967e+00
3.469526e+01	-9.271920e+00
3.489566e+01	-9.316445e+00
3.509721e+01	-9.360215e+00
3.529993e+01	-9.404491e+00
3.550382e+01	-9.448685e+00
3.570889e+01	-9.493053e+00
3.591515e+01	-9.537579e+00
3.612259e+01	-9.582582e+00
3.633123e+01	-9.626886e+00
3.654108e+01	-9.671546e+00
3.675214e+01	-9.715580e+00
3.696442e+01	-9.760447e+00
3.717792e+01	-9.805168e+00
3.739266e+01	-9.850471e+00
3.760864e+01	-9.895232e+00
3.782587e+01	-9.940195e+00
3.804435e+01	-9.985497e+00
3.826409e+01	-1.002980e+01
3.848510e+01	-1.007543e+01
3.870739e+01	-1.012030e+01
3.893096e+01	-1.016537e+01
3.915583e+01	-1.021074e+01
3.938199e+01	-1.025561e+01
3.960946e+01	-1.030137e+01
3.983824e+01	-1.034697e+01
4.006834e+01	-1.039234e+01
4.029978e+01	-1.043741e+01
4.053255e+01	-1.048273e+01
4.076666e+01	-1.052907e+01
4.100213e+01	-1.057415e+01
4.123896e+01	-1.061997e+01
4.147715e+01	-1.066558e+01
4.171672e+01	-1.071126e+01
4.195767e+01	-1.075690e+01
4.220002e+01	-1.080333e+01
4.244377e+01	-1.084921e+01
4.268892e+01	-1.089478e+01
4.293549e+01	-1.094095e+01
4.318348e+01	-1.098724e+01
4.343291e+01	-1.103280e+01
4.368377e+01	-1.107976e+01
4.393609e+01	-1.112497e+01
4.418986e+01	-1.117148e+01
4.444510e+01	-1.121796e+01
4.470182e+01	-1.126333e+01
4.496001e+01	-1.131030e+01
4.521970e+01	-1.135615e+01
4.548089e+01	-1.140278e+01
4.574358e+01	-1.144952e+01
4.600779e+01	-1.149572e+01
4.627353e+01	-1.154264e+01
4.654081e+01	-1.158978e+01
4.680963e+01	-1.163551e+01
4.708000e+01	-1.168211e+01
4.735193e+01	-1.172862e+01
4.762543e+01	-1.177551e+01
4.790051e+01	-1.182143e+01
4.817719e+01	-1.186888e+01
4.845545e+01	-1.191564e+01
4.873533e+01	-1.196208e+01
4.901682e+01	-1.200950e+01
4.929994e+01	-1.205631e+01
4.958470e+01	-1.210322e+01
4.987110e+01	-1.215019e+01
5.015915e+01	-1.219773e+01
5.044887e+01	-1.224379e+01
5.074026e+01	-1.229113e+01
5.103333e+01	-1.233946e+01
5.132810e+01	-1.238527e+01
5.162457e+01	-1.243289e+01
5.192275e+01	-1.248023e+01
5.222265e+01	-1.252727e+01
5.252429e+01	-1.257448e+01
5.282767e+01	-1.262198e+01
5.313280e+01	-1.266901e+01
5.343969e+01	-1.271520e+01
5.374836e+01	-1.276351e+01
5.405880e+01	-1.281108e+01
5.437105e+01	-1.285785e+01
5.468509e+01	-1.290517e+01
5.500095e+01	-1.295335e+01
5.531863e+01	-1.300105e+01
5.563815e+01	-1.304806e+01
5.595951e+01	-1.309583e+01
5.628273e+01	-1.314337e+01
5.660782e+01	-1.319093e+01
5.693479e+01	-1.323811e+01
5.726364e+01	-1.328617e+01
5.759439e+01	-1.333394e+01
5.792705e+01	-1.338152e+01
5.826164e+01	-1.342969e+01
5.859815e+01	-1.347721e+01
5.893662e+01	-1.352466e+01
5.927703e+01	-1.357292e+01
5.961941e+01	-1.362115e+01
5.996377e+01	-1.366814e+01
6.031012e+01	-1.371636e+01
6.065847e+01	-1.376542e+01
6.100883e+01	-1.381235e+01
6.136121e+01	-1.386014e+01
6.171563e+01	-1.390865e+01
6.207210e+01	-1.395661e+01
6.243063e+01	-1.400426e+01
6.279122e+01	-1.405241e+01
6.315390e+01	-1.410035e+01
6.351868e+01	-1.414799e+01
6.388556e+01	-1.419613e+01
6.425456e+01	-1.424426e+01
6.462569e+01	-1.429218e+01
6.499897e+01	-1.434108e+01
6.537440e+01	-1.438994e+01
6.575200e+01	-1.443807e+01
6.613178e+01	-1.448527e+01
6.651375e+01	-1.453448e+01
6.689793e+01	-1.458196e+01
6.728433e+01	-1.463085e+01
6.767297e+01	-1.467941e+01
6.806384e+01	-1.472725e+01
6.845698e+01	-1.477567e+01
6.885238e+01	-1.482462e+01
6.925007e+01	-1.487256e+01
6.965005e+01	-1.492071e+01
7.005235e+01	-1.496905e+01
7.045697e+01	-1.501840e+01
7.086393e+01	-1.506696e+01
7.127323e+01	-1.511453e+01
7.168490e+01	-1.516350e+01
7.209895e+01	-1.521219e+01
7.251539e+01	-1.526029e+01
7.293424e+01	-1.530831e+01
7.335551e+01	-1.535635e+01
7.377920e+01	-1.540560e+01
7.420535e+01	-1.545486e+01
7.463396e+01	-1.550227e+01
7.506504e+01	-1.555111e+01
7.549861e+01	-1.559934e+01
7.593469e+01	-1.564891e+01
7.637328e+01	-1.569899e+01
7.681441e+01	-1.574632e+01
7.725809e+01	-1.579412e+01
7.770433e+01	-1.584300e+01
7.815315e+01	-1.589359e+01
7.860456e+01	-1.594083e+01
7.905857e+01	-1.598996e+01
7.951521e+01	-1.603936e+01
7.997449e+01	-1.608788e+01
8.043642e+01	-1.613610e+01
8.090102e+01	-1.618518e+01
8.136830e+01	-1.623417e+01
8.183828e+01	-1.628327e+01
8.231097e+01	-1.633216e+01
8.278640e+01	-1.637983e+01
8.326457e+01	-1.642944e+01
8.374550e+01	-1.647808e+01
8.422921e+01	-1.652712e+01
8.471572e+01	-1.657604e+01
8.520503e+01	-1.662610e+01
8.569717e+01	-1.667371e+01
8.619215e+01	-1.672357e+01
8.669000e+01	-1.677285e+01
8.719071e+01	-1.682109e+01
8.769432e+01	-1.687055e+01
8.820084e+01	-1.691918e+01
8.871029e+01	-1.696823e+01
8.922267e+01	-1.701715e+01
8.973802e+01	-1.706634e+01
9.025634e+01	-1.711590e+01
9.077766e+01	-1.716405e+01
9.130199e+01	-1.721339e+01
9.182935e+01	-1.726197e+01
9.235975e+01	-1.731089e+01
9.289321e+01	-1.736076e+01
9.342976e+01	-1.741046e+01
9.396941e+01	-1.745888e+01
9.451217e+01	-1.750793e+01
9.505807e+01	-1.755708e+01
9.560712e+01	-1.760690e+01
9.615934e+01	-1.765506e+01
9.671476e+01	-1.770430e+01
9.727338e+01	-1.775384e+01
9.783522e+01	-1.780323e+01
9.840032e+01	-1.785230e+01
9.896867e+01	-1.790306e+01
9.954031e+01	-1.794937e+01
1.001153e+02	-1.800000e+01
1.006935e+02	-1.804789e+01
1.012751e+02	-1.809835e+01
1.018601e+02	-1.814652e+01
1.024484e+02	-1.819739e+01
1.030402e+02	-1.824603e+01
1.036353e+02	-1.829576e+01
1.042339e+02	-1.834428e+01
1.048360e+02	-1.839350e+01
1.054415e+02	-1.844271e+01
1.060505e+02	-1.849284e+01
1.066631e+02	-1.854144e+01
1.072791e+02	-1.859153e+01
1.078988e+02	-1.864007e+01
1.085220e+02	-1.869159e+01
1.091488e+02	-1.873974e+01
1.097793e+02	-1.878928e+01
1.104133e+02	-1.883718e+01
1.110511e+02	-1.888698e+01
1.116925e+02	-1.893645e+01
1.123376e+02	-1.898598e+01
1.129865e+02	-1.903718e+01
1.136391e+02	-1.908442e+01
1.142955e+02	-1.913443e+01
1.149556e+02	-1.918462e+01
1.156196e+02	-1.923270e+01
1.162874e+02	-1.928210e+01
1.169591e+02	-1.933278e+01
1.176347e+02	-1.938132e+01
1.183141e+02	-1.943135e+01
1.189975e+02	-1.948033e+01
1.196848e+02	-1.953133e+01
1.203761e+02	-1.958031e+01
1.210714e+02	-1.963029e+01
1.217707e+02	-1.967845e+01
1.224740e+02	-1.972904e+01
1.231814e+02	-1.977703e+01
1.238929e+02	-1.982705e+01
1.246085e+02	-1.987744e+01
1.253283e+02	-1.992492e+01
1.260522e+02	-1.997530e+01
1.267802e+02	-2.002560e+01
1.275125e+02	-2.007518e+01
1.282490e+02	-2.012435e+01
1.289898e+02	-2.017411e+01
1.297348e+02	-2.022385e+01
1.304842e+02	-2.027423e+01
1.312378e+02	-2.032218e+01
1.319959e+02	-2.037235e+01
1.327583e+02	-2.041976e+01
1.335251e+02	-2.047024e+01
1.342963e+02	-2.052028e+01
1.350720e+02	-2.057209e+01
1.358522e+02	-2.062128e+01
1.366368e+02	-2.066951e+01
1.374260e+02	-2.071973e+01
1.382198e+02	-2.076846e+01
1.390182e+02	-2.081985e+01
1.398211e+02	-2.086744e+01
1.406287e+02	-2.092015e+01
1.414410e+02	-2.096772e+01
1.422579e+02	-2.101589e+01
1.430796e+02	-2.106749e+01
1.439060e+02	-2.111652e+01
1.447372e+02	-2.116661e+01
1.455732e+02	-2.121595e+01
1.464141e+02	-2.126579e+01
1.472597e+02	-2.131554e+01
1.481103e+02	-2.136432e+01
1.489658e+02	-2.141519e+01
1.498262e+02	-2.146394e+01
1.506916e+02	-2.151357e+01
1.515620e+02	-2.156373e+01
1.524374e+02	-2.161351e+01
1.533179e+02	-2.166306e+01
1.542034e+02	-2.171175e+01
1.550941e+02	-2.176036e+01
1.559899e+02	-2.181519e+01
1.568909e+02	-2.186137e+01
1.577971e+02	-2.190961e+01
1.587085e+02	-2.196076e+01
1.596252e+02	-2.201018e+01
1.605472e+02	-2.206008e+01
1.614745e+02	-2.210984e+01
1.624072e+02	-2.216076e+01
1.633453e+02	-2.220981e+01
1.642887e+02	-2.225846e+01
1.652377e+02	-2.230841e+01
1.661921e+02	-2.235985e+01
1.671520e+02	-2.240964e+01
1.681175e+02	-2.245758e+01
1.690885e+02	-2.250805e+01
1.700651e+02	-2.255862e+01
1.710474e+02	-2.260738e+01
1.720354e+02	-2.265765e+01
1.730291e+02	-2.270850e+01
1.740285e+02	-2.275720e+01
1.750337e+02	-2.280676e+01
1.760446e+02	-2.285720e+01
1.770615e+02	-2.290648e+01
1.780842e+02	-2.295618e+01
1.791128e+02	-2.300421e+01
1.801473e+02	-2.305723e+01
1.811878e+02	-2.310578e+01
1.822344e+02	-2.315377e+01
1.832870e+02	-2.320245e+01
1.843456e+02	-2.325484e+01
1.854104e+02	-2.330671e+01
1.864813e+02	-2.335450e+01
1.875584e+02	-2.340420e+01
1.886418e+02	-2.345570e+01
1.897313e+02	-2.350707e+01
1.908272e+02	-2.355445e+01
1.919294e+02	-2.360543e+01
1.930380e+02	-2.365310e+01
1.941530e+02	-2.370320e+01
1.952744e+02	-2.375095e+01
1.964023e+02	-2.380550e+01
1.975367e+02	-2.385367e+01
1.986777e+02	-2.390428e+01
1.998252e+02	-2.395327e+01
2.009794e+02	-2.400172e+01
2.021403e+02	-2.405406e+01
2.033078e+02	-2.410063e+01
2.044821e+02	-2.415199e+01
2.056632e+02	-2.420217e+01
2.068511e+02	-2.425058e+01
2.080459e+02	-2.430395e+01
2.092475e+02	-2.435058e+01
2.104561e+02	-2.439988e+01
2.116717e+02	-2.445150e+01
2.128943e+02	-2.449847e+01
2.141240e+02	-2.455113e+01
2.153608e+02	-2.460323e+01
2.166047e+02	-2.465244e+01
2.178558e+02	-2.470103e+01
2.191141e+02	-2.475248e+01
2.203797e+02	-2.480168e+01
2.216526e+02	-2.484875e+01
2.229329e+02	-2.489852e+01
2.242205e+02	-2.495020e+01
2.255156e+02	-2.500002e+01
2.268182e+02	-2.505051e+01
2.281283e+02	-2.510147e+01
2.294459e+02	-2.515083e+01
2.307712e+02	-2.519914e+01
2.321041e+02	-2.525059e+01
2.334447e+02	-2.530019e+01
2.347931e+02	-2.535087e+01
2.361493e+02	-2.540250e+01
2.375133e+02	-2.545185e+01
2.388851e+02	-2.549883e+01
2.402649e+02	-2.554996e+01
2.416527e+02	-2.559892e+01
2.430484e+02	-2.564816e+01
2.444523e+02	-2.570088e+01
2.458642e+02	-2.574739e+01
2.472843e+02	-2.579878e+01
2.487126e+02	-2.584792e+01
2.501492e+02	-2.589753e+01
2.515940e+02	-2.594940e+01
2.530472e+02	-2.599735e+01
2.545088e+02	-2.605428e+01
2.559789e+02	-2.609724e+01
2.574574e+02	-2.614940e+01
2.589444e+02	-2.619859e+01
2.604401e+02	-2.624751e+01
2.619444e+02	-2.629873e+01
2.634574e+02	-2.634918e+01
2.649791e+02	-2.639641e+01
2.665096e+02	-2.644841e+01
2.680489e+02	-2.649476e+01
2.695972e+02	-2.654601e+01
2.711544e+02	-2.659890e+01
2.727205e+02	-2.664582e+01
2.742958e+02	-2.670236e+01
2.758801e+02	-2.674987e+01
2.774736e+02	-2.679843e+01
2.790762e+02	-2.685156e+01
2.806882e+02	-2.690078e+01
2.823094e+02	-2.695053e+01
2.839400e+02	-2.699630e+01
2.855800e+02	-2.704716e+01
2.872295e+02	-2.709931e+01
2.888886e+02	-2.714806e+01
2.905572e+02	-2.719883e+01
2.922354e+02	-2.724595e+01
2.939234e+02	-2.729787e+01
2.956211e+02	-2.734907e+01
2.973286e+02	-2.740043e+01
2.990459e+02	-2.744361e+01
3.007732e+02	-2.749922e+01
3.025104e+02	-2.754780e+01
3.042577e+02	-2.759723e+01
3.060151e+02	-2.764806e+01
3.077826e+02	-2.769816e+01
3.095604e+02	-2.774850e+01
3.113484e+02	-2.779710e+01
3.131467e+02	-2.785113e+01
3.149554e+02	-2.789567e+01
3.167746e+02	-2.794827e+01
3.186043e+02	-2.799864e+01
3.204445e+02	-2.804558e+01
3.222954e+02	-2.810140e+01
3.241570e+02	-2.814918e+01
3.260293e+02	-2.819934e+01
3.279124e+02	-2.825267e+01
3.298064e+02	-2.829958e+01
3.317114e+02	-2.835271e+01
3.336273e+02	-2.840226e+01
3.355544e+02	-2.845114e+01
3.374925e+02	-2.849916e+01
3.394418e+02	-2.855192e+01
3.414024e+02	-2.859669e+01
3.433744e+02	-2.865272e+01
3.453577e+02	-2.869747e+01
3.473525e+02	-2.874911e+01
3.493588e+02	-2.879950e+01
3.513766e+02	-2.884858e+01
3.534062e+02	-2.889624e+01
3.554474e+02	-2.895069e+01
3.575005e+02	-2.899668e+01
3.595654e+02	-2.904918e+01
3.616422e+02	-2.909570e+01
3.637311e+02	-2.915099e+01
3.658320e+02	-2.920034e+01
3.679450e+02	-2.924579e+01
3.700702e+02	-2.929705e+01
3.722077e+02	-2.934956e+01
3.743576e+02	-2.939840e+01
3.765199e+02	-2.945397e+01
3.786946e+02	-2.950155e+01
3.808820e+02	-2.954571e+01
3.830819e+02	-2.959875e+01
3.852946e+02	-2.965002e+01
3.875200e+02	-2.970277e+01
3.897583e+02	-2.975127e+01
3.920096e+02	-2.979880e+01
3.942738e+02	-2.984883e+01
3.965511e+02	-2.989893e+01
3.988416e+02	-2.994956e+01
4.011452e+02	-3.000469e+01
4.034622e+02	-3.005139e+01
4.057926e+02	-3.010144e+01
4.081365e+02	-3.015563e+01
4.104938e+02	-3.019797e+01
4.128648e+02	-3.025427e+01
4.152495e+02	-3.030303e+01
4.176480e+02	-3.035047e+01
4.200603e+02	-3.039825e+01
4.224866e+02	-3.045082e+01
4.249268e+02	-3.050084e+01
4.273812e+02	-3.055327e+01
4.298497e+02	-3.060291e+01
4.323325e+02	-3.065005e+01
4.348297e+02	-3.070455e+01
4.373412e+02	-3.074737e+01
4.398673e+02	-3.080454e+01
4.424079e+02	-3.085079e+01
4.449633e+02	-3.090577e+01
4.475334e+02	-3.095899e+01
4.501183e+02	-3.100147e+01
4.527182e+02	-3.105787e+01
4.553330e+02	-3.110292e+01
4.579630e+02	-3.115124e+01
4.606082e+02	-3.119785e+01
4.632687e+02	-3.125274e+01
4.659445e+02	-3.130534e+01
4.686358e+02	-3.135472e+01
4.713426e+02	-3.139767e+01
4.740650e+02	-3.145549e+01
4.768032e+02	-3.150134e+01
4.795572e+02	-3.155965e+01
4.823271e+02	-3.160591e+01
4.851130e+02	-3.165571e+01
4.879150e+02	-3.170217e+01
4.907332e+02	-3.175429e+01
4.935676e+02	-3.180673e+01
4.964185e+02	-3.185019e+01
4.992858e+02	-3.191529e+01
5.021696e+02	-3.195408e+01
5.050701e+02	-3.200447e+01
5.079874e+02	-3.205568e+01
5.109215e+02	-3.211271e+01
5.138726e+02	-3.215627e+01
5.168407e+02	-3.220766e+01
5.198259e+02	-3.225213e+01
5.228284e+02	-3.230517e+01
5.258482e+02	-3.235806e+01
5.288855e+02	-3.240458e+01
5.319403e+02	-3.245284e+01
5.350128e+02	-3.251297e+01
5.381030e+02	-3.255144e+01
5.412111e+02	-3.260614e+01
5.443371e+02	-3.265780e+01
5.474812e+02	-3.271075e+01
5.506434e+02	-3.276227e+01
5.538239e+02	-3.281026e+01
5.570228e+02	-3.285936e+01
5.602401e+02	-3.290153e+01
5.634760e+02	-3.295874e+01
5.667306e+02	-3.301457e+01
5.700040e+02	-3.306190e+01
5.732964e+02	-3.310621e+01
5.766077e+02	-3.316206e+01
5.799382e+02	-3.321268e+01
5.832879e+02	-3.326632e+01
5.866569e+02	-3.331330e+01
5.900454e+02	-3.335720e+01
5.934535e+02	-3.340967e+01
5.968813e+02	-3.345836e+01
6.003288e+02	-3.351369e+01
6.037963e+02	-3.355932e+01
6.072838e+02	-3.360794e+01
6.107914e+02	-3.365954e+01
6.143194e+02	-3.371574e+01
6.178676e+02	-3.376561e+01
6.214364e+02	-3.381488e+01
6.250258e+02	-3.386594e+01
6.286359e+02	-3.391913e+01
6.322669e+02	-3.395240e+01
6.359189e+02	-3.401448e+01
6.395919e+02	-3.406671e+01
6.432862e+02	-3.411367e+01
6.470017e+02	-3.416728e+01
6.507388e+02	-3.421218e+01
6.544974e+02	-3.426233e+01
6.582778e+02	-3.431665e+01
6.620800e+02	-3.436811e+01
6.659041e+02	-3.441345e+01
6.697504e+02	-3.446851e+01
6.736188e+02	-3.451468e+01
6.775096e+02	-3.457274e+01
6.814229e+02	-3.462374e+01
6.853587e+02	-3.467312e+01
6.893173e+02	-3.472005e+01
6.932988e+02	-3.477340e+01
6.973033e+02	-3.482043e+01
7.013309e+02	-3.486531e+01
