Frequency(Hz)	Magnitude(dB)
1.000000e+01	-2.186973e+00
1.005776e+01	-2.206755e+00
1.011585e+01	-2.226969e+00
1.017428e+01	-2.246963e+00
1.023305e+01	-2.267183e+00
1.029215e+01	-2.287453e+00
1.035160e+01	-2.308222e+00
1.041139e+01	-2.328962e+00
1.047153e+01	-2.349712e+00
1.053201e+01	-2.370678e+00
1.059284e+01	-2.391766e+00
1.065403e+01	-2.413116e+00
1.071556e+01	-2.434605e+00
1.077746e+01	-2.455938e+00
1.083971e+01	-2.477618e+00
1.090232e+01	-2.499411e+00
1.096529e+01	-2.521393e+00
1.102862e+01	-2.543492e+00
1.109232e+01	-2.565908e+00
1.115639e+01	-2.588494e+00
1.122083e+01	-2.610768e+00
1.128564e+01	-2.633634e+00
1.135083e+01	-2.656052e+00
1.141639e+01	-2.679177e+00
1.148233e+01	-2.702234e+00
1.154865e+01	-2.725453e+00
1.161536e+01	-2.748945e+00
1.168245e+01	-2.772580e+00
1.174992e+01	-2.796073e+00
1.181779e+01	-2.820248e+00
1.188605e+01	-2.843864e+00
1.195470e+01	-2.867975e+00
1.202375e+01	-2.892356e+00
1.209320e+01	-2.916759e+00
1.216305e+01	-2.941148e+00
1.223330e+01	-2.965999e+00
1.230396e+01	-2.990680e+00
1.237503e+01	-3.015779e+00
1.244651e+01	-3.040869e+00
1.251840e+01	-3.066066e+00
1.259070e+01	-3.091483e+00
1.266343e+01	-3.117096e+00
1.273657e+01	-3.142941e+00
1.281014e+01	-3.168751e+00
1.288413e+01	-3.194525e+00
1.295855e+01	-3.220907e+00
1.303339e+01	-3.247216e+00
1.310867e+01	-3.273466e+00
1.318439e+01	-3.299797e+00
1.326054e+01	-3.326657e+00
1.333713e+01	-3.353351e+00
1.341417e+01	-3.380341e+00
1.349165e+01	-3.407487e+00
1.356958e+01	-3.434833e+00
1.364795e+01	-3.462354e+00
1.372678e+01	-3.489873e+00
1.380607e+01	-3.517496e+00
1.388581e+01	-3.545429e+00
1.396602e+01	-3.573375e+00
1.404668e+01	-3.601578e+00
1.412782e+01	-3.629744e+00
1.420942e+01	-3.658053e+00
1.429149e+01	-3.686449e+00
1.437404e+01	-3.715326e+00
1.445706e+01	-3.744379e+00
1.454057e+01	-3.773015e+00
1.462455e+01	-3.802379e+00
1.470902e+01	-3.831425e+00
1.479398e+01	-3.861216e+00
1.487943e+01	-3.890539e+00
1.496537e+01	-3.920235e+00
1.505181e+01	-3.949912e+00
1.513875e+01	-3.980015e+00
1.522619e+01	-4.009903e+00
1.531414e+01	-4.040232e+00
1.540259e+01	-4.070721e+00
1.549156e+01	-4.101124e+00
1.558103e+01	-4.131737e+00
1.567103e+01	-4.162217e+00
1.576155e+01	-4.193461e+00
1.585258e+01	-4.224432e+00
1.594415e+01	-4.255608e+00
1.603624e+01	-4.286940e+00
1.612886e+01	-4.318680e+00
1.622202e+01	-4.350076e+00
1.631572e+01	-4.381858e+00
1.640996e+01	-4.413597e+00
1.650474e+01	-4.445624e+00
1.660008e+01	-4.477590e+00
1.669596e+01	-4.509857e+00
1.679239e+01	-4.542369e+00
1.688938e+01	-4.574539e+00
1.698694e+01	-4.607482e+00
1.708505e+01	-4.640216e+00
1.718373e+01	-4.673186e+00
1.728299e+01	-4.705993e+00
1.738281e+01	-4.739257e+00
1.748322e+01	-4.772612e+00
1.758420e+01	-4.806226e+00
1.768576e+01	-4.839833e+00
1.778792e+01	-4.873159e+00
1.789066e+01	-4.907127e+00
1.799399e+01	-4.941061e+00
1.809793e+01	-4.975002e+00
1.820246e+01	-5.009176e+00
1.830760e+01	-5.043427e+00
1.841334e+01	-5.078011e+00
1.851969e+01	-5.112458e+00
1.862666e+01	-5.147259e+00
1.873425e+01	-5.182076e+00
1.884246e+01	-5.217152e+00
1.895129e+01	-5.251831e+00
1.906075e+01	-5.286846e+00
1.917085e+01	-5.322366e+00
1.928158e+01	-5.357543e+00
1.939295e+01	-5.393106e+00
1.950496e+01	-5.428986e+00
1.961762e+01	-5.464513e+00
1.973093e+01	-5.500742e+00
1.984490e+01	-5.537002e+00
1.995952e+01	-5.572553e+00
2.007480e+01	-5.608937e+00
2.019076e+01	-5.645078e+00
2.030738e+01	-5.681400e+00
2.042467e+01	-5.718498e+00
2.054264e+01	-5.754787e+00
2.066130e+01	-5.791784e+00
2.078064e+01	-5.828803e+00
2.090066e+01	-5.865304e+00
2.102139e+01	-5.902752e+00
2.114280e+01	-5.940171e+00
2.126492e+01	-5.977065e+00
2.138775e+01	-6.014649e+00
2.151128e+01	-6.051972e+00
2.163553e+01	-6.090075e+00
2.176050e+01	-6.127747e+00
2.188619e+01	-6.165363e+00
2.201260e+01	-6.203424e+00
2.213974e+01	-6.241504e+00
2.226762e+01	-6.279427e+00
2.239624e+01	-6.317878e+00
2.252560e+01	-6.356484e+00
2.265571e+01	-6.394978e+00
2.278656e+01	-6.433483e+00
2.291818e+01	-6.472208e+00
2.305055e+01	-6.511037e+00
2.318369e+01	-6.550398e+00
2.331760e+01	-6.588860e+00
2.345228e+01	-6.627890e+00
2.358774e+01	-6.667294e+00
2.372398e+01	-6.706638e+00
2.386101e+01	-6.745961e+00
2.399883e+01	-6.785648e+00
2.413745e+01	-6.825115e+00
2.427686e+01	-6.864555e+00
2.441709e+01	-6.904270e+00
2.455812e+01	-6.944574e+00
2.469997e+01	-6.984193e+00
2.484263e+01	-7.024624e+00
2.498612e+01	-7.064345e+00
2.513044e+01	-7.104660e+00
2.527559e+01	-7.144925e+00
2.542158e+01	-7.185457e+00
2.556842e+01	-7.226347e+00
2.571610e+01	-7.266733e+00
2.586463e+01	-7.307304e+00
2.601403e+01	-7.347886e+00
2.616428e+01	-7.389240e+00
2.631541e+01	-7.429748e+00
2.646740e+01	-7.471146e+00
2.662028e+01	-7.512391e+00
2.677404e+01	-7.553374e+00
2.692868e+01	-7.594162e+00
2.708422e+01	-7.635734e+00
2.724066e+01	-7.677204e+00
2.739800e+01	-7.718919e+00
2.755625e+01	-7.760678e+00
2.771541e+01	-7.801979e+00
2.787550e+01	-7.843799e+00
2.803650e+01	-7.885581e+00
2.819844e+01	-7.927430e+00
2.836131e+01	-7.970048e+00
2.852513e+01	-8.011801e+00
2.868989e+01	-8.053761e+00
2.885560e+01	-8.096341e+00
2.902227e+01	-8.138208e+00
2.918990e+01	-8.180971e+00
2.935850e+01	-8.223491e+00
2.952807e+01	-8.265503e+00
2.969863e+01	-8.308508e+00
2.987016e+01	-8.350958e+00
3.004269e+01	-8.393613e+00
3.021622e+01	-8.436717e+00
3.039075e+01	-8.479560e+00
3.056628e+01	-8.522164e+00
3.074283e+01	-8.565540e+00
3.092040e+01	-8.608651e+00
3.109900e+01	-8.651957e+00
3.127862e+01	-8.695027e+00
3.145929e+01	-8.737766e+00
3.164099e+01	-8.781807e+00
3.182375e+01	-8.824803e+00
3.200756e+01	-8.868336e+00
3.219244e+01	-8.912204e+00
3.237838e+01	-8.955577e+00
3.256540e+01	-8.999701e+00
3.275349e+01	-9.043480e+00
3.294268e+01	-9.086966e+00
3.313295e+01	-9.130963e+00
3.332433e+01	-9.174576e+00
3.351681e+01	-9.218938e+00
3.371040e+01	-9.262945e+00
3.390511e+01	-9.307609e+00
3.410094e+01	-9.351101e+00
3.429791e+01	-9.395743e+00
3.449601e+01	-9.439787e+00
3.469526e+01	-9.484227e+00
3.489566e+01	-9.528973e+00
3.509721e+01	-9.573069e+00
3.529993e+01	-9.618041e+00
3.550382e+01	-9.662348e+00
3.570889e+01	-9.706655e+00
3.591515e+01	-9.751057e+00
3.612259e+01	-9.796332e+00
3.633123e+01	-9.841187e+00
3.654108e+01	-9.885750e+00
3.675214e+01	-9.931321e+00
3.696442e+01	-9.975569e+00
3.717792e+01	-1.002070e+01
3.739266e+01	-1.006572e+01
3.760864e+01	-1.011158e+01
3.782587e+01	-1.015683e+01
3.804435e+01	-1.020184e+01
3.826409e+01	-1.024738e+01
3.848510e+01	-1.029225e+01
3.870739e+01	-1.033721e+01
3.893096e+01	-1.038358e+01
3.915583e+01	-1.042819e+01
3.938199e+01	-1.047344e+01
3.960946e+01	-1.051988e+01
3.983824e+01	-1.056512e+01
4.006834e+01	-1.061046e+01
4.029978e+01	-1.065660e+01
4.053255e+01	-1.070202e+01
4.076666e+01	-1.074814e+01
4.100213e+01	-1.079413e+01
4.123896e+01	-1.083945e+01
4.147715e+01	-1.088580e+01
4.171672e+01	-1.093145e+01
4.195767e+01	-1.097799e+01
4.220002e+01	-1.102450e+01
4.244377e+01	-1.106934e+01
4.268892e+01	-1.111586e+01
4.293549e+01	-1.116247e+01
4.318348e+01	-1.120882e+01
4.343291e+01	-1.125500e+01
4.368377e+01	-1.130090e+01
4.393609e+01	-1.134746e+01
4.418986e+01	-1.139345e+01
4.444510e+01	-1.144025e+01
4.470182e+01	-1.148664e+01
4.496001e+01	-1.153268e+01
4.521970e+01	-1.157942e+01
4.548089e+01	-1.162545e+01
4.574358e+01	-1.167257e+01
4.600779e+01	-1.171902e+01
4.627353e+01	-1.176592e+01
4.654081e+01	-1.181312e+01
4.680963e+01	-1.185911e+01
4.708000e+01	-1.190634e+01
4.735193e+01	-1.195283e+01
4.762543e+01	-1.199959e+01
4.790051e+01	-1.204723e+01
4.817719e+01	-1.209338e+01
4.845545e+01	-1.214065e+01
4.873533e+01	-1.218720e+01
4.901682e+01	-1.223469e+01
4.929994e+01	-1.228199e+01
4.958470e+01	-1.232848e+01
4.987110e+01	-1.237677e+01
5.015915e+01	-1.242336e+01
5.044887e+01	-1.247003e+01
5.074026e+01	-1.251796e+01
5.103333e+01	-1.256425e+01
5.132810e+01	-1.261255e+01
5.162457e+01	-1.265928e+01
5.192275e+01	-1.270656e+01
5.222265e+01	-1.275331e+01
5.252429e+01	-1.280099e+01
5.282767e+01	-1.284835e+01
5.313280e+01	-1.289666e+01
5.343969e+01	-1.294349e+01
5.374836e+01	-1.299107e+01
5.405880e+01	-1.303817e+01
5.437105e+01	-1.308606e+01
5.468509e+01	-1.313417e+01
5.500095e+01	-1.318128e+01
5.531863e+01	-1.322931e+01
5.563815e+01	-1.327696e+01
5.595951e+01	-1.332462e+01
5.628273e+01	-1.337246e+01
5.660782e+01	-1.341960e+01
5.693479e+01	-1.346707e+01
5.726364e+01	-1.351636e+01
5.759439e+01	-1.356378e+01
5.792705e+01	-1.361090e+01
5.826164e+01	-1.365951e+01
5.859815e+01	-1.370682e+01
5.893662e+01	-1.375486e+01
5.927703e+01	-1.380225e+01
5.961941e+01	-1.385076e+01
5.996377e+01	-1.389852e+01
6.031012e+01	-1.394623e+01
6.065847e+01	-1.399459e+01
6.100883e+01	-1.404311e+01
6.136121e+01	-1.409087e+01
6.171563e+01	-1.413891e+01
6.207210e+01	-1.418729e+01
6.243063e+01	-1.423458e+01
6.279122e+01	-1.428291e+01
6.315390e+01	-1.433021e+01
6.351868e+01	-1.437924e+01
6.388556e+01	-1.442744e+01
6.425456e+01	-1.447600e+01
6.462569e+01	-1.452419e+01
6.499897e+01	-1.457278e+01
6.537440e+01	-1.462084e+01
6.575200e+01	-1.466986e+01
6.613178e+01	-1.471748e+01
6.651375e+01	-1.476571e+01
6.689793e+01	-1.481378e+01
6.728433e+01	-1.486285e+01
6.767297e+01	-1.491127e+01
6.806384e+01	-1.495994e+01
6.845698e+01	-1.500833e+01
6.885238e+01	-1.505659e+01
6.925007e+01	-1.510471e+01
6.965005e+01	-1.515338e+01
7.005235e+01	-1.520189e+01
7.045697e+01	-1.525060e+01
7.086393e+01	-1.529870e+01
7.127323e+01	-1.534773e+01
7.168490e+01	-1.539608e+01
7.209895e+01	-1.544505e+01
7.251539e+01	-1.549271e+01
7.293424e+01	-1.554168e+01
7.335551e+01	-1.559014e+01
7.377920e+01	-1.563849e+01
7.420535e+01	-1.568701e+01
7.463396e+01	-1.573631e+01
7.506504e+01	-1.578568e+01
7.549861e+01	-1.583385e+01
7.593469e+01	-1.588259e+01
7.637328e+01	-1.593104e+01
7.681441e+01	-1.598022e+01
7.725809e+01	-1.602875e+01
7.770433e+01	-1.607689e+01
7.815315e+01	-1.612623e+01
7.860456e+01	-1.617481e+01
7.905857e+01	-1.622425e+01
7.951521e+01	-1.627280e+01
7.997449e+01	-1.632221e+01
8.043642e+01	-1.637003e+01
8.090102e+01	-1.641965e+01
8.136830e+01	-1.646897e+01
8.183828e+01	-1.651751e+01
8.231097e+01	-1.656604e+01
8.278640e+01	-1.661542e+01
8.326457e+01	-1.666380e+01
8.374550e+01	-1.671341e+01
8.422921e+01	-1.676262e+01
8.471572e+01	-1.681147e+01
8.520503e+01	-1.686076e+01
8.569717e+01	-1.690946e+01
8.619215e+01	-1.695944e+01
8.669000e+01	-1.700739e+01
8.719071e+01	-1.705519e+01
8.769432e+01	-1.710495e+01
8.820084e+01	-1.715460e+01
8.871029e+01	-1.720279e+01
8.922267e+01	-1.725216e+01
8.973802e+01	-1.730095e+01
9.025634e+01	-1.735028e+01
9.077766e+01	-1.739937e+01
9.130199e+01	-1.744792e+01
9.182935e+01	-1.749857e+01
9.235975e+01	-1.754783e+01
9.289321e+01	-1.759807e+01
9.342976e+01	-1.764514e+01
9.396941e+01	-1.769447e+01
9.451217e+01	-1.774375e+01
9.505807e+01	-1.779380e+01
9.560712e+01	-1.784229e+01
9.615934e+01	-1.789241e+01
9.671476e+01	-1.794113e+01
9.727338e+01	-1.798900e+01
9.783522e+01	-1.803947e+01
9.840032e+01	-1.808862e+01
9.896867e+01	-1.813872e+01
9.954031e+01	-1.818717e+01
1.001153e+02	-1.823683e+01
1.006935e+02	-1.828524e+01
1.012751e+02	-1.833558e+01
1.018601e+02	-1.838317e+01
1.024484e+02	-1.843441e+01
1.030402e+02	-1.848176e+01
1.036353e+02	-1.853061e+01
1.042339e+02	-1.858157e+01
1.048360e+02	-1.863089e+01
1.054415e+02	-1.868031e+01
1.060505e+02	-1.872930e+01
1.066631e+02	-1.877849e+01
1.072791e+02	-1.882819e+01
1.078988e+02	-1.887913e+01
1.085220e+02	-1.892804e+01
1.091488e+02	-1.897633e+01
1.097793e+02	-1.902578e+01
1.104133e+02	-1.907480e+01
1.110511e+02	-1.912527e+01
1.116925e+02	-1.917483e+01
1.123376e+02	-1.922273e+01
1.129865e+02	-1.927263e+01
1.136391e+02	-1.932332e+01
1.142955e+02	-1.937084e+01
1.149556e+02	-1.942156e+01
1.156196e+02	-1.947111e+01
1.162874e+02	-1.952001e+01
1.169591e+02	-1.956878e+01
1.176347e+02	-1.961926e+01
1.183141e+02	-1.966891e+01
1.189975e+02	-1.971781e+01
1.196848e+02	-1.976952e+01
1.203761e+02	-1.981698e+01
1.210714e+02	-1.986553e+01
1.217707e+02	-1.991684e+01
1.224740e+02	-1.996629e+01
1.231814e+02	-2.001626e+01
1.238929e+02	-2.006525e+01
1.246085e+02	-2.011503e+01
1.253283e+02	-2.016291e+01
1.260522e+02	-2.021339e+01
1.267802e+02	-2.026390e+01
1.275125e+02	-2.031264e+01
1.282490e+02	-2.036178e+01
1.289898e+02	-2.041249e+01
1.297348e+02	-2.046156e+01
1.304842e+02	-2.051055e+01
1.312378e+02	-2.056093e+01
1.319959e+02	-2.061005e+01
1.327583e+02	-2.066144e+01
1.335251e+02	-2.070996e+01
1.342963e+02	-2.075848e+01
1.350720e+02	-2.080967e+01
1.358522e+02	-2.086020e+01
1.366368e+02	-2.090855e+01
1.374260e+02	-2.095733e+01
1.382198e+02	-2.100581e+01
1.390182e+02	-2.105724e+01
1.398211e+02	-2.110715e+01
1.406287e+02	-2.115535e+01
1.414410e+02	-2.120649e+01
1.422579e+02	-2.125447e+01
1.430796e+02	-2.130513e+01
1.439060e+02	-2.135506e+01
1.447372e+02	-2.140521e+01
1.455732e+02	-2.145444e+01
1.464141e+02	-2.150447e+01
1.472597e+02	-2.155372e+01
1.481103e+02	-2.160321e+01
1.489658e+02	-2.165278e+01
1.498262e+02	-2.170242e+01
1.506916e+02	-2.175387e+01
1.515620e+02	-2.180397e+01
1.524374e+02	-2.185186e+01
1.533179e+02	-2.190187e+01
1.542034e+02	-2.195216e+01
1.550941e+02	-2.200275e+01
1.559899e+02	-2.205117e+01
1.568909e+02	-2.210085e+01
1.577971e+02	-2.214870e+01
1.587085e+02	-2.219890e+01
1.596252e+02	-2.225119e+01
1.605472e+02	-2.229875e+01
1.614745e+02	-2.234767e+01
1.624072e+02	-2.239782e+01
1.633453e+02	-2.244868e+01
1.642887e+02	-2.249954e+01
1.652377e+02	-2.254847e+01
1.661921e+02	-2.259722e+01
1.671520e+02	-2.264681e+01
1.681175e+02	-2.269632e+01
1.690885e+02	-2.274557e+01
1.700651e+02	-2.279835e+01
1.710474e+02	-2.284800e+01
1.720354e+02	-2.289613e+01
1.730291e+02	-2.294756e+01
1.740285e+02	-2.299717e+01
1.750337e+02	-2.304394e+01
1.760446e+02	-2.309734e+01
1.770615e+02	-2.314754e+01
1.780842e+02	-2.319449e+01
1.791128e+02	-2.324658e+01
1.801473e+02	-2.329348e+01
1.811878e+02	-2.334604e+01
1.822344e+02	-2.339547e+01
1.832870e+02	-2.344517e+01
1.843456e+02	-2.349510e+01
1.854104e+02	-2.354607e+01
1.864813e+02	-2.359389e+01
1.875584e+02	-2.364394e+01
1.886418e+02	-2.369817e+01
1.897313e+02	-2.374309e+01
1.908272e+02	-2.379512e+01
1.919294e+02	-2.384459e+01
1.930380e+02	-2.389400e+01
1.941530e+02	-2.394522e+01
1.952744e+02	-2.399145e+01
1.964023e+02	-2.404121e+01
1.975367e+02	-2.409165e+01
1.986777e+02	-2.414254e+01
1.998252e+02	-2.419305e+01
2.009794e+02	-2.424370e+01
2.021403e+02	-2.429214e+01
2.033078e+02	-2.434269e+01
2.044821e+02	-2.439265e+01
2.056632e+02	-2.443964e+01
2.068511e+02	-2.449427e+01
2.080459e+02	-2.453996e+01
2.092475e+02	-2.459110e+01
2.104561e+02	-2.464153e+01
2.116717e+02	-2.469292e+01
2.128943e+02	-2.474122e+01
2.141240e+02	-2.479307e+01
2.153608e+02	-2.483818e+01
2.166047e+02	-2.489201e+01
2.178558e+02	-2.494470e+01
2.191141e+02	-2.499252e+01
2.203797e+02	-2.504189e+01
2.216526e+02	-2.509185e+01
2.229329e+02	-2.514074e+01
2.242205e+02	-2.519272e+01
2.255156e+02	-2.523958e+01
2.268182e+02	-2.528992e+01
2.281283e+02	-2.533799e+01
2.294459e+02	-2.539403e+01
2.307712e+02	-2.544167e+01
2.321041e+02	-2.548999e+01
2.334447e+02	-2.553792e+01
2.347931e+02	-2.558749e+01
2.361493e+02	-2.564320e+01
2.375133e+02	-2.568967e+01
2.388851e+02	-2.574084e+01
2.402649e+02	-2.578754e+01
2.416527e+02	-2.583975e+01
2.430484e+02	-2.589089e+01
2.444523e+02	-2.593929e+01
2.458642e+02	-2.598702e+01
2.472843e+02	-2.604234e+01
2.487126e+02	-2.608647e+01
2.501492e+02	-2.613929e+01
2.515940e+02	-2.618903e+01
2.530472e+02	-2.623928e+01
2.545088e+02	-2.628758e+01
2.559789e+02	-2.634035e+01
2.574574e+02	-2.638885e+01
2.589444e+02	-2.643757e+01
2.604401e+02	-2.648999e+01
2.619444e+02	-2.654141e+01
2.634574e+02	-2.658898e+01
2.649791e+02	-2.663780e+01
2.665096e+02	-2.668712e+01
2.680489e+02	-2.673749e+01
2.695972e+02	-2.678724e+01
2.711544e+02	-2.684061e+01
2.727205e+02	-2.688734e+01
2.742958e+02	-2.693738e+01
2.758801e+02	-2.698815e+01
2.774736e+02	-2.703565e+01
2.790762e+02	-2.708599e+01
2.806882e+02	-2.713629e+01
2.823094e+02	-2.718846e+01
2.839400e+02	-2.723885e+01
2.855800e+02	-2.729018e+01
2.872295e+02	-2.733597e+01
2.888886e+02	-2.738527e+01
2.905572e+02	-2.743937e+01
2.922354e+02	-2.748797e+01
2.939234e+02	-2.753828e+01
2.956211e+02	-2.758867e+01
2.973286e+02	-2.763751e+01
2.990459e+02	-2.768514e+01
3.007732e+02	-2.773828e+01
3.025104e+02	-2.778646e+01
3.042577e+02	-2.783918e+01
3.060151e+02	-2.788794e+01
3.077826e+02	-2.793656e+01
3.095604e+02	-2.798481e+01
3.113484e+02	-2.803790e+01
3.131467e+02	-2.809153e+01
3.149554e+02	-2.813957e+01
3.167746e+02	-2.818765e+01
3.186043e+02	-2.823970e+01
3.204445e+02	-2.828681e+01
3.222954e+02	-2.833557e+01
3.241570e+02	-2.838579e+01
3.260293e+02	-2.843999e+01
3.279124e+02	-2.849150e+01
3.298064e+02	-2.853704e+01
3.317114e+02	-2.858879e+01
3.336273e+02	-2.863928e+01
3.355544e+02	-2.869200e+01
3.374925e+02	-2.874378e+01
3.394418e+02	-2.878971e+01
3.414024e+02	-2.884144e+01
3.433744e+02	-2.889116e+01
3.453577e+02	-2.894245e+01
3.473525e+02	-2.899054e+01
3.493588e+02	-2.903595e+01
3.513766e+02	-2.909191e+01
3.534062e+02	-2.913748e+01
3.554474e+02	-2.919550e+01
3.575005e+02	-2.924360e+01
3.595654e+02	-2.929193e+01
3.616422e+02	-2.934109e+01
3.637311e+02	-2.939152e+01
3.658320e+02	-2.943838e+01
3.679450e+02	-2.948715e+01
3.700702e+02	-2.954038e+01
3.722077e+02	-2.958800e+01
3.743576e+02	-2.964736e+01
3.765199e+02	-2.969429e+01
3.786946e+02	-2.974114e+01
3.808820e+02	-2.979200e+01
3.830819e+02	-2.984398e+01
3.852946e+02	-2.989576e+01
3.875200e+02	-2.994855e+01
3.897583e+02	-2.999306e+01
3.920096e+02	-3.004766e+01
3.942738e+02	-3.009550e+01
3.965511e+02	-3.014301e+01
3.988416e+02	-3.019014e+01
4.011452e+02	-3.024207e+01
4.034622e+02	-3.029665e+01
4.057926e+02	-3.034100e+01
4.081365e+02	-3.039458e+01
4.104938e+02	-3.044082e+01
4.128648e+02	-3.049324e+01
4.152495e+02	-3.054533e+01
4.176480e+02	-3.059369e+01
4.200603e+02	-3.064517e+01
4.224866e+02	-3.069812e+01
4.249268e+02	-3.074517e+01
4.273812e+02	-3.079220e+01
4.298497e+02	-3.084605e+01
4.323325e+02	-3.089129e+01
4.348297e+02	-3.094897e+01
4.373412e+02	-3.099102e+01
4.398673e+02	-3.104357e+01
4.424079e+02	-3.109218e+01
4.449633e+02	-3.114886e+01
4.475334e+02	-3.119291e+01
4.501183e+02	-3.124325e+01
4.527182e+02	-3.129363e+01
4.553330e+02	-3.134851e+01
4.579630e+02	-3.139464e+01
4.606082e+02	-3.144547e+01
4.632687e+02	-3.149526e+01
4.659445e+02	-3.154789e+01
4.686358e+02	-3.159217e+01
4.713426e+02	-3.164719e+01
4.740650e+02	-3.170302e+01
4.768032e+02	-3.175304e+01
4.795572e+02	-3.179861e+01
4.823271e+02	-3.184671e+01
4.851130e+02	-3.189533e+01
4.879150e+02	-3.193935e+01
4.907332e+02	-3.199842e+01
4.935676e+02	-3.205546e+01
4.964185e+02	-3.209490e+01
4.992858e+02	-3.214594e+01
5.021696e+02	-3.219751e+01
5.050701e+02	-3.224731e+01
5.079874e+02	-3.230188e+01
5.109215e+02	-3.235404e+01
5.138726e+02	-3.239674e+01
5.168407e+02	-3.245042e+01
5.198259e+02	-3.249725e+01
5.228284e+02	-3.255693e+01
5.258482e+02	-3.260120e+01
5.288855e+02	-3.265149e+01
5.319403e+02	-3.270270e+01
5.350128e+02	-3.275521e+01
5.381030e+02	-3.280327e+01
5.412111e+02	-3.285582e+01
5.443371e+02	-3.290547e+01
5.474812e+02	-3.295603e+01
5.506434e+02	-3.300005e+01
5.538239e+02	-3.306060e+01
5.570228e+02	-3.310314e+01
5.602401e+02	-3.315393e+01
5.634760e+02	-3.320394e+01
5.667306e+02	-3.324526e+01
5.700040e+02	-3.330531e+01
5.732964e+02	-3.335764e+01
5.766077e+02	-3.339772e+01
5.799382e+02	-3.345950e+01
5.832879e+02	-3.351009e+01
5.866569e+02	-3.355917e+01
5.900454e+02	-3.360646e+01
5.934535e+02	-3.365992e+01
5.968813e+02	-3.371148e+01
6.003288e+02	-3.375354e+01
6.037963e+02	-3.380572e+01
6.072838e+02	-3.385331e+01
6.107914e+02	-3.391350e+01
6.143194e+02	-3.396348e+01
6.178676e+02	-3.400736e+01
6.214364e+02	-3.406142e+01
6.250258e+02	-3.410885e+01
6.286359e+02	-3.416653e+01
6.322669e+02	-3.421261e+01
6.359189e+02	-3.426220e+01
6.395919e+02	-3.430898e+01
6.432862e+02	-3.436354e+01
6.470017e+02	-3.441309e+01
6.507388e+02	-3.445561e+01
6.544974e+02	-3.451018e+01
6.582778e+02	-3.456063e+01
6.620800e+02	-3.461461e+01
6.659041e+02	-3.466275e+01
6.697504e+02	-3.472148e+01
6.736188e+02	-3.476283e+01
6.775096e+02	-3.480917e+01
6.814229e+02	-3.487468e+01
6.853587e+02	-3.491768e+01
6.893173e+02	-3.496408e+01
6.932988e+02	-3.501977e+01
6.973033e+02	-3.506970e+01
7.013309e+02	-3.510976e+01
