Frequency(Hz)	Magnitude(dB)
1.000000e+01	-1.597569e-05
1.005776e+01	-1.616077e-05
1.011585e+01	-1.634800e-05
1.017428e+01	-1.653739e-05
1.023305e+01	-1.672898e-05
1.029215e+01	-1.692279e-05
1.035160e+01	-1.711885e-05
1.041139e+01	-1.731717e-05
1.047153e+01	-1.751780e-05
1.053201e+01	-1.772074e-05
1.059284e+01	-1.792604e-05
1.065403e+01	-1.813372e-05
1.071556e+01	-1.834380e-05
1.077746e+01	-1.855632e-05
1.083971e+01	-1.877130e-05
1.090232e+01	-1.898877e-05
1.096529e+01	-1.920876e-05
1.102862e+01	-1.943130e-05
1.109232e+01	-1.965642e-05
1.115639e+01	-1.988414e-05
1.122083e+01	-2.011450e-05
1.128564e+01	-2.034754e-05
1.135083e+01	-2.058327e-05
1.141639e+01	-2.082173e-05
1.148233e+01	-2.106295e-05
1.154865e+01	-2.130697e-05
1.161536e+01	-2.155382e-05
1.168245e+01	-2.180353e-05
1.174992e+01	-2.205613e-05
1.181779e+01	-2.231165e-05
1.188605e+01	-2.257014e-05
1.195470e+01	-2.283162e-05
1.202375e+01	-2.309613e-05
1.209320e+01	-2.336370e-05
1.216305e+01	-2.363438e-05
1.223330e+01	-2.390819e-05
1.230396e+01	-2.418517e-05
1.237503e+01	-2.446536e-05
1.244651e+01	-2.474880e-05
1.251840e+01	-2.503552e-05
1.259070e+01	-2.532556e-05
1.266343e+01	-2.561897e-05
1.273657e+01	-2.591577e-05
1.281014e+01	-2.621601e-05
1.288413e+01	-2.651973e-05
1.295855e+01	-2.682696e-05
1.303339e+01	-2.713776e-05
1.310867e+01	-2.745216e-05
1.318439e+01	-2.777020e-05
1.326054e+01	-2.809192e-05
1.333713e+01	-2.841737e-05
1.341417e+01	-2.874660e-05
1.349165e+01	-2.907963e-05
1.356958e+01	-2.941653e-05
1.364795e+01	-2.975732e-05
1.372678e+01	-3.010207e-05
1.380607e+01	-3.045081e-05
1.388581e+01	-3.080359e-05
1.396602e+01	-3.116046e-05
1.404668e+01	-3.152146e-05
1.412782e+01	-3.188664e-05
1.420942e+01	-3.225606e-05
1.429149e+01	-3.262975e-05
1.437404e+01	-3.300777e-05
1.445706e+01	-3.339018e-05
1.454057e+01	-3.377701e-05
1.462455e+01	-3.416832e-05
1.470902e+01	-3.456417e-05
1.479398e+01	-3.496461e-05
1.487943e+01	-3.536968e-05
1.496537e+01	-3.577945e-05
1.505181e+01	-3.619396e-05
1.513875e+01	-3.661327e-05
1.522619e+01	-3.703745e-05
1.531414e+01	-3.746653e-05
1.540259e+01	-3.790059e-05
1.549156e+01	-3.833968e-05
1.558103e+01	-3.878385e-05
1.567103e+01	-3.923317e-05
1.576155e+01	-3.968770e-05
1.585258e+01	-4.014749e-05
1.594415e+01	-4.061261e-05
1.603624e+01	-4.108311e-05
1.612886e+01	-4.155907e-05
1.622202e+01	-4.204054e-05
1.631572e+01	-4.252759e-05
1.640996e+01	-4.302028e-05
1.650474e+01	-4.351868e-05
1.660008e+01	-4.402286e-05
1.669596e+01	-4.453287e-05
1.679239e+01	-4.504879e-05
1.688938e+01	-4.557069e-05
1.698694e+01	-4.609864e-05
1.708505e+01	-4.663270e-05
1.718373e+01	-4.717295e-05
1.728299e+01	-4.771946e-05
1.738281e+01	-4.827230e-05
1.748322e+01	-4.883155e-05
1.758420e+01	-4.939727e-05
1.768576e+01	-4.996955e-05
1.778792e+01	-5.054846e-05
1.789066e+01	-5.113407e-05
1.799399e+01	-5.172647e-05
1.809793e+01	-5.232573e-05
1.820246e+01	-5.293194e-05
1.830760e+01	-5.354516e-05
1.841334e+01	-5.416550e-05
1.851969e+01	-5.479301e-05
1.862666e+01	-5.542780e-05
1.873425e+01	-5.606995e-05
1.884246e+01	-5.671953e-05
1.895129e+01	-5.737663e-05
1.906075e+01	-5.804135e-05
1.917085e+01	-5.871378e-05
1.928158e+01	-5.939399e-05
1.939295e+01	-6.008208e-05
1.950496e+01	-6.077814e-05
1.961762e+01	-6.148227e-05
1.973093e+01	-6.219455e-05
1.984490e+01	-6.291509e-05
1.995952e+01	-6.364397e-05
2.007480e+01	-6.438130e-05
2.019076e+01	-6.512717e-05
2.030738e+01	-6.588168e-05
2.042467e+01	-6.664493e-05
2.054264e+01	-6.741702e-05
2.066130e+01	-6.819806e-05
2.078064e+01	-6.898815e-05
2.090066e+01	-6.978739e-05
2.102139e+01	-7.059589e-05
2.114280e+01	-7.141376e-05
2.126492e+01	-7.224110e-05
2.138775e+01	-7.307803e-05
2.151128e+01	-7.392465e-05
2.163553e+01	-7.478108e-05
2.176050e+01	-7.564743e-05
2.188619e+01	-7.652382e-05
2.201260e+01	-7.741036e-05
2.213974e+01	-7.830717e-05
2.226762e+01	-7.921438e-05
2.239624e+01	-8.013209e-05
2.252560e+01	-8.106043e-05
2.265571e+01	-8.199953e-05
2.278656e+01	-8.294951e-05
2.291818e+01	-8.391049e-05
2.305055e+01	-8.488261e-05
2.318369e+01	-8.586599e-05
2.331760e+01	-8.686076e-05
2.345228e+01	-8.786706e-05
2.358774e+01	-8.888501e-05
2.372398e+01	-8.991476e-05
2.386101e+01	-9.095644e-05
2.399883e+01	-9.201018e-05
2.413745e+01	-9.307613e-05
2.427686e+01	-9.415443e-05
2.441709e+01	-9.524523e-05
2.455812e+01	-9.634866e-05
2.469997e+01	-9.746487e-05
2.484263e+01	-9.859402e-05
2.498612e+01	-9.973624e-05
2.513044e+01	-1.008917e-04
2.527559e+01	-1.020605e-04
2.542158e+01	-1.032429e-04
2.556842e+01	-1.044390e-04
2.571610e+01	-1.056490e-04
2.586463e+01	-1.068729e-04
2.601403e+01	-1.081111e-04
2.616428e+01	-1.093635e-04
2.631541e+01	-1.106305e-04
2.646740e+01	-1.119122e-04
2.662028e+01	-1.132087e-04
2.677404e+01	-1.145202e-04
2.692868e+01	-1.158470e-04
2.708422e+01	-1.171891e-04
2.724066e+01	-1.185467e-04
2.739800e+01	-1.199201e-04
2.755625e+01	-1.213094e-04
2.771541e+01	-1.227148e-04
2.787550e+01	-1.241364e-04
2.803650e+01	-1.255746e-04
2.819844e+01	-1.270294e-04
2.836131e+01	-1.285010e-04
2.852513e+01	-1.299897e-04
2.868989e+01	-1.314957e-04
2.885560e+01	-1.330191e-04
2.902227e+01	-1.345601e-04
2.918990e+01	-1.361190e-04
2.935850e+01	-1.376959e-04
2.952807e+01	-1.392912e-04
2.969863e+01	-1.409049e-04
2.987016e+01	-1.425373e-04
3.004269e+01	-1.441886e-04
3.021622e+01	-1.458590e-04
3.039075e+01	-1.475488e-04
3.056628e+01	-1.492581e-04
3.074283e+01	-1.509873e-04
3.092040e+01	-1.527365e-04
3.109900e+01	-1.545060e-04
3.127862e+01	-1.562959e-04
3.145929e+01	-1.581066e-04
3.164099e+01	-1.599383e-04
3.182375e+01	-1.617912e-04
3.200756e+01	-1.636656e-04
3.219244e+01	-1.655616e-04
3.237838e+01	-1.674797e-04
3.256540e+01	-1.694200e-04
3.275349e+01	-1.713827e-04
3.294268e+01	-1.733682e-04
3.313295e+01	-1.753766e-04
3.332433e+01	-1.774084e-04
3.351681e+01	-1.794637e-04
3.371040e+01	-1.815428e-04
3.390511e+01	-1.836459e-04
3.410094e+01	-1.857735e-04
3.429791e+01	-1.879257e-04
3.449601e+01	-1.901028e-04
3.469526e+01	-1.923052e-04
3.489566e+01	-1.945330e-04
3.509721e+01	-1.967867e-04
3.529993e+01	-1.990665e-04
3.550382e+01	-2.013726e-04
3.570889e+01	-2.037055e-04
3.591515e+01	-2.060655e-04
3.612259e+01	-2.084527e-04
3.633123e+01	-2.108677e-04
3.654108e+01	-2.133106e-04
3.675214e+01	-2.157818e-04
3.696442e+01	-2.182816e-04
3.717792e+01	-2.208104e-04
3.739266e+01	-2.233685e-04
3.760864e+01	-2.259562e-04
3.782587e+01	-2.285739e-04
3.804435e+01	-2.312219e-04
3.826409e+01	-2.339006e-04
3.848510e+01	-2.366103e-04
3.870739e+01	-2.393515e-04
3.893096e+01	-2.421243e-04
3.915583e+01	-2.449293e-04
3.938199e+01	-2.477668e-04
3.960946e+01	-2.506372e-04
3.983824e+01	-2.535408e-04
4.006834e+01	-2.564781e-04
4.029978e+01	-2.594493e-04
4.053255e+01	-2.624550e-04
4.076666e+01	-2.654956e-04
4.100213e+01	-2.685713e-04
4.123896e+01	-2.716827e-04
4.147715e+01	-2.748301e-04
4.171672e+01	-2.780140e-04
4.195767e+01	-2.812348e-04
4.220002e+01	-2.844928e-04
4.244377e+01	-2.877886e-04
4.268892e+01	-2.911226e-04
4.293549e+01	-2.944953e-04
4.318348e+01	-2.979070e-04
4.343291e+01	-3.013582e-04
4.368377e+01	-3.048494e-04
4.393609e+01	-3.083810e-04
4.418986e+01	-3.119536e-04
4.444510e+01	-3.155675e-04
4.470182e+01	-3.192233e-04
4.496001e+01	-3.229215e-04
4.521970e+01	-3.266625e-04
4.548089e+01	-3.304468e-04
4.574358e+01	-3.342750e-04
4.600779e+01	-3.381475e-04
4.627353e+01	-3.420648e-04
4.654081e+01	-3.460276e-04
4.680963e+01	-3.500363e-04
4.708000e+01	-3.540914e-04
4.735193e+01	-3.581935e-04
4.762543e+01	-3.623430e-04
4.790051e+01	-3.665407e-04
4.817719e+01	-3.707870e-04
4.845545e+01	-3.750825e-04
4.873533e+01	-3.794277e-04
4.901682e+01	-3.838233e-04
4.929994e+01	-3.882698e-04
4.958470e+01	-3.927678e-04
4.987110e+01	-3.973180e-04
5.015915e+01	-4.019208e-04
5.044887e+01	-4.065769e-04
5.074026e+01	-4.112870e-04
5.103333e+01	-4.160517e-04
5.132810e+01	-4.208715e-04
5.162457e+01	-4.257472e-04
5.192275e+01	-4.306793e-04
5.222265e+01	-4.356686e-04
5.252429e+01	-4.407157e-04
5.282767e+01	-4.458212e-04
5.313280e+01	-4.509859e-04
5.343969e+01	-4.562105e-04
5.374836e+01	-4.614955e-04
5.405880e+01	-4.668418e-04
5.437105e+01	-4.722500e-04
5.468509e+01	-4.777208e-04
5.500095e+01	-4.832550e-04
5.531863e+01	-4.888534e-04
5.563815e+01	-4.945165e-04
5.595951e+01	-5.002453e-04
5.628273e+01	-5.060405e-04
5.660782e+01	-5.119027e-04
5.693479e+01	-5.178329e-04
5.726364e+01	-5.238318e-04
5.759439e+01	-5.299002e-04
5.792705e+01	-5.360388e-04
5.826164e+01	-5.422486e-04
5.859815e+01	-5.485303e-04
5.893662e+01	-5.548848e-04
5.927703e+01	-5.613128e-04
5.961941e+01	-5.678154e-04
5.996377e+01	-5.743932e-04
6.031012e+01	-5.810473e-04
6.065847e+01	-5.877784e-04
6.100883e+01	-5.945875e-04
6.136121e+01	-6.014755e-04
6.171563e+01	-6.084433e-04
6.207210e+01	-6.154918e-04
6.243063e+01	-6.226219e-04
6.279122e+01	-6.298346e-04
6.315390e+01	-6.371309e-04
6.351868e+01	-6.445117e-04
6.388556e+01	-6.519780e-04
6.425456e+01	-6.595308e-04
6.462569e+01	-6.671710e-04
6.499897e+01	-6.748998e-04
6.537440e+01	-6.827181e-04
6.575200e+01	-6.906269e-04
6.613178e+01	-6.986274e-04
6.651375e+01	-7.067205e-04
6.689793e+01	-7.149074e-04
6.728433e+01	-7.231891e-04
6.767297e+01	-7.315667e-04
6.806384e+01	-7.400414e-04
6.845698e+01	-7.486142e-04
6.885238e+01	-7.572864e-04
6.925007e+01	-7.660590e-04
6.965005e+01	-7.749332e-04
7.005235e+01	-7.839102e-04
7.045697e+01	-7.929912e-04
7.086393e+01	-8.021774e-04
7.127323e+01	-8.114699e-04
7.168490e+01	-8.208702e-04
7.209895e+01	-8.303792e-04
7.251539e+01	-8.399985e-04
7.293424e+01	-8.497292e-04
7.335551e+01	-8.595725e-04
7.377920e+01	-8.695299e-04
7.420535e+01	-8.796026e-04
7.463396e+01	-8.897920e-04
7.506504e+01	-9.000994e-04
7.549861e+01	-9.105262e-04
7.593469e+01	-9.210738e-04
7.637328e+01	-9.317436e-04
7.681441e+01	-9.425369e-04
7.725809e+01	-9.534552e-04
7.770433e+01	-9.645001e-04
7.815315e+01	-9.756728e-04
7.860456e+01	-9.869750e-04
7.905857e+01	-9.984080e-04
7.951521e+01	-1.009973e-03
7.997449e+01	-1.021673e-03
8.043642e+01	-1.033508e-03
8.090102e+01	-1.045480e-03
8.136830e+01	-1.057591e-03
8.183828e+01	-1.069842e-03
8.231097e+01	-1.082234e-03
8.278640e+01	-1.094771e-03
8.326457e+01	-1.107452e-03
8.374550e+01	-1.120281e-03
8.422921e+01	-1.133258e-03
8.471572e+01	-1.146385e-03
8.520503e+01	-1.159665e-03
8.569717e+01	-1.173098e-03
8.619215e+01	-1.186687e-03
8.669000e+01	-1.200433e-03
8.719071e+01	-1.214338e-03
8.769432e+01	-1.228405e-03
8.820084e+01	-1.242634e-03
8.871029e+01	-1.257028e-03
8.922267e+01	-1.271589e-03
8.973802e+01	-1.286319e-03
9.025634e+01	-1.301219e-03
9.077766e+01	-1.316292e-03
9.130199e+01	-1.331539e-03
9.182935e+01	-1.346963e-03
9.235975e+01	-1.362565e-03
9.289321e+01	-1.378348e-03
9.342976e+01	-1.394314e-03
9.396941e+01	-1.410465e-03
9.451217e+01	-1.426803e-03
9.505807e+01	-1.443330e-03
9.560712e+01	-1.460049e-03
9.615934e+01	-1.476961e-03
9.671476e+01	-1.494069e-03
9.727338e+01	-1.511375e-03
9.783522e+01	-1.528882e-03
9.840032e+01	-1.546591e-03
9.896867e+01	-1.564506e-03
9.954031e+01	-1.582628e-03
1.001153e+02	-1.600959e-03
1.006935e+02	-1.619503e-03
1.012751e+02	-1.638262e-03
1.018601e+02	-1.657238e-03
1.024484e+02	-1.676434e-03
1.030402e+02	-1.695852e-03
1.036353e+02	-1.715495e-03
1.042339e+02	-1.735366e-03
1.048360e+02	-1.755467e-03
1.054415e+02	-1.775800e-03
1.060505e+02	-1.796369e-03
1.066631e+02	-1.817176e-03
1.072791e+02	-1.838224e-03
1.078988e+02	-1.859516e-03
1.085220e+02	-1.881054e-03
1.091488e+02	-1.902842e-03
1.097793e+02	-1.924882e-03
1.104133e+02	-1.947177e-03
1.110511e+02	-1.969730e-03
1.116925e+02	-1.992545e-03
1.123376e+02	-2.015624e-03
1.129865e+02	-2.038970e-03
1.136391e+02	-2.062586e-03
1.142955e+02	-2.086476e-03
1.149556e+02	-2.110643e-03
1.156196e+02	-2.135089e-03
1.162874e+02	-2.159818e-03
1.169591e+02	-2.184834e-03
1.176347e+02	-2.210140e-03
1.183141e+02	-2.235738e-03
1.189975e+02	-2.261633e-03
1.196848e+02	-2.287828e-03
1.203761e+02	-2.314326e-03
1.210714e+02	-2.341131e-03
1.217707e+02	-2.368246e-03
1.224740e+02	-2.395675e-03
1.231814e+02	-2.423422e-03
1.238929e+02	-2.451490e-03
1.246085e+02	-2.479883e-03
1.253283e+02	-2.508605e-03
1.260522e+02	-2.537659e-03
1.267802e+02	-2.567050e-03
1.275125e+02	-2.596781e-03
1.282490e+02	-2.626856e-03
1.289898e+02	-2.657280e-03
1.297348e+02	-2.688055e-03
1.304842e+02	-2.719187e-03
1.312378e+02	-2.750680e-03
1.319959e+02	-2.782537e-03
1.327583e+02	-2.814763e-03
1.335251e+02	-2.847362e-03
1.342963e+02	-2.880338e-03
1.350720e+02	-2.913697e-03
1.358522e+02	-2.947441e-03
1.366368e+02	-2.981576e-03
1.374260e+02	-3.016107e-03
1.382198e+02	-3.051037e-03
1.390182e+02	-3.086371e-03
1.398211e+02	-3.122115e-03
1.406287e+02	-3.158272e-03
1.414410e+02	-3.194848e-03
1.422579e+02	-3.231848e-03
1.430796e+02	-3.269275e-03
1.439060e+02	-3.307136e-03
1.447372e+02	-3.345435e-03
1.455732e+02	-3.384178e-03
1.464141e+02	-3.423369e-03
1.472597e+02	-3.463014e-03
1.481103e+02	-3.503118e-03
1.489658e+02	-3.543686e-03
1.498262e+02	-3.584723e-03
1.506916e+02	-3.626236e-03
1.515620e+02	-3.668229e-03
1.524374e+02	-3.710708e-03
1.533179e+02	-3.753679e-03
1.542034e+02	-3.797147e-03
1.550941e+02	-3.841119e-03
1.559899e+02	-3.885599e-03
1.568909e+02	-3.930594e-03
1.577971e+02	-3.976111e-03
1.587085e+02	-4.022153e-03
1.596252e+02	-4.068729e-03
1.605472e+02	-4.115844e-03
1.614745e+02	-4.163504e-03
1.624072e+02	-4.211716e-03
1.633453e+02	-4.260486e-03
1.642887e+02	-4.309820e-03
1.652377e+02	-4.359726e-03
1.661921e+02	-4.410209e-03
1.671520e+02	-4.461276e-03
1.681175e+02	-4.512934e-03
1.690885e+02	-4.565190e-03
1.700651e+02	-4.618051e-03
1.710474e+02	-4.671523e-03
1.720354e+02	-4.725614e-03
1.730291e+02	-4.780332e-03
1.740285e+02	-4.835682e-03
1.750337e+02	-4.891673e-03
1.760446e+02	-4.948312e-03
1.770615e+02	-5.005606e-03
1.780842e+02	-5.063564e-03
1.791128e+02	-5.122192e-03
1.801473e+02	-5.181498e-03
1.811878e+02	-5.241491e-03
1.822344e+02	-5.302178e-03
1.832870e+02	-5.363567e-03
1.843456e+02	-5.425666e-03
1.854104e+02	-5.488484e-03
1.864813e+02	-5.552029e-03
1.875584e+02	-5.616309e-03
1.886418e+02	-5.681333e-03
1.897313e+02	-5.747109e-03
1.908272e+02	-5.813646e-03
1.919294e+02	-5.880953e-03
1.930380e+02	-5.949038e-03
1.941530e+02	-6.017912e-03
1.952744e+02	-6.087582e-03
1.964023e+02	-6.158058e-03
1.975367e+02	-6.229349e-03
1.986777e+02	-6.301465e-03
1.998252e+02	-6.374416e-03
2.009794e+02	-6.448210e-03
2.021403e+02	-6.522858e-03
2.033078e+02	-6.598369e-03
2.044821e+02	-6.674754e-03
2.056632e+02	-6.752023e-03
2.068511e+02	-6.830185e-03
2.080459e+02	-6.909251e-03
2.092475e+02	-6.989232e-03
2.104561e+02	-7.070138e-03
2.116717e+02	-7.151980e-03
2.128943e+02	-7.234768e-03
2.141240e+02	-7.318514e-03
2.153608e+02	-7.403228e-03
2.166047e+02	-7.488922e-03
2.178558e+02	-7.575608e-03
2.191141e+02	-7.663295e-03
2.203797e+02	-7.751997e-03
2.216526e+02	-7.841725e-03
2.229329e+02	-7.932490e-03
2.242205e+02	-8.024305e-03
2.255156e+02	-8.117181e-03
2.268182e+02	-8.211132e-03
2.281283e+02	-8.306168e-03
2.294459e+02	-8.402304e-03
2.307712e+02	-8.499551e-03
2.321041e+02	-8.597923e-03
2.334447e+02	-8.697432e-03
2.347931e+02	-8.798092e-03
2.361493e+02	-8.899915e-03
2.375133e+02	-9.002916e-03
2.388851e+02	-9.107107e-03
2.402649e+02	-9.212503e-03
2.416527e+02	-9.319118e-03
2.430484e+02	-9.426964e-03
2.444523e+02	-9.536058e-03
2.458642e+02	-9.646413e-03
2.472843e+02	-9.758043e-03
2.487126e+02	-9.870963e-03
2.501492e+02	-9.985189e-03
2.515940e+02	-1.010074e-02
2.530472e+02	-1.021762e-02
2.545088e+02	-1.033585e-02
2.559789e+02	-1.045545e-02
2.574574e+02	-1.057643e-02
2.589444e+02	-1.069881e-02
2.604401e+02	-1.082260e-02
2.619444e+02	-1.094783e-02
2.634574e+02	-1.107450e-02
2.649791e+02	-1.120263e-02
2.665096e+02	-1.133225e-02
2.680489e+02	-1.146336e-02
2.695972e+02	-1.159599e-02
2.711544e+02	-1.173015e-02
2.727205e+02	-1.186586e-02
2.742958e+02	-1.200314e-02
2.758801e+02	-1.214200e-02
2.774736e+02	-1.228247e-02
2.790762e+02	-1.242456e-02
2.806882e+02	-1.256829e-02
2.823094e+02	-1.271369e-02
2.839400e+02	-1.286076e-02
2.855800e+02	-1.300953e-02
2.872295e+02	-1.316002e-02
2.888886e+02	-1.331225e-02
2.905572e+02	-1.346624e-02
2.922354e+02	-1.362200e-02
2.939234e+02	-1.377956e-02
2.956211e+02	-1.393895e-02
2.973286e+02	-1.410017e-02
2.990459e+02	-1.426325e-02
3.007732e+02	-1.442822e-02
3.025104e+02	-1.459509e-02
3.042577e+02	-1.476389e-02
3.060151e+02	-1.493464e-02
3.077826e+02	-1.510736e-02
3.095604e+02	-1.528208e-02
3.113484e+02	-1.545881e-02
3.131467e+02	-1.563758e-02
3.149554e+02	-1.581841e-02
3.167746e+02	-1.600133e-02
3.186043e+02	-1.618637e-02
3.204445e+02	-1.637353e-02
3.222954e+02	-1.656286e-02
3.241570e+02	-1.675438e-02
3.260293e+02	-1.694810e-02
3.279124e+02	-1.714406e-02
3.298064e+02	-1.734228e-02
3.317114e+02	-1.754279e-02
3.336273e+02	-1.774561e-02
3.355544e+02	-1.795077e-02
3.374925e+02	-1.815830e-02
3.394418e+02	-1.836822e-02
3.414024e+02	-1.858056e-02
3.433744e+02	-1.879536e-02
3.453577e+02	-1.901263e-02
3.473525e+02	-1.923240e-02
3.493588e+02	-1.945472e-02
3.513766e+02	-1.967959e-02
3.534062e+02	-1.990706e-02
3.554474e+02	-2.013715e-02
3.575005e+02	-2.036990e-02
3.595654e+02	-2.060533e-02
3.616422e+02	-2.084347e-02
3.637311e+02	-2.108436e-02
3.658320e+02	-2.132802e-02
3.679450e+02	-2.157450e-02
3.700702e+02	-2.182382e-02
3.722077e+02	-2.207600e-02
3.743576e+02	-2.233110e-02
3.765199e+02	-2.258914e-02
3.786946e+02	-2.285015e-02
3.808820e+02	-2.311417e-02
3.830819e+02	-2.338123e-02
3.852946e+02	-2.365136e-02
3.875200e+02	-2.392461e-02
3.897583e+02	-2.420101e-02
3.920096e+02	-2.448059e-02
3.942738e+02	-2.476340e-02
3.965511e+02	-2.504946e-02
3.988416e+02	-2.533881e-02
4.011452e+02	-2.563150e-02
4.034622e+02	-2.592756e-02
4.057926e+02	-2.622703e-02
4.081365e+02	-2.652994e-02
4.104938e+02	-2.683635e-02
4.128648e+02	-2.714628e-02
4.152495e+02	-2.745978e-02
4.176480e+02	-2.777689e-02
4.200603e+02	-2.809764e-02
4.224866e+02	-2.842209e-02
4.249268e+02	-2.875028e-02
4.273812e+02	-2.908224e-02
4.298497e+02	-2.941802e-02
4.323325e+02	-2.975766e-02
4.348297e+02	-3.010122e-02
4.373412e+02	-3.044872e-02
4.398673e+02	-3.080022e-02
4.424079e+02	-3.115577e-02
4.449633e+02	-3.151540e-02
4.475334e+02	-3.187917e-02
4.501183e+02	-3.224712e-02
4.527182e+02	-3.261931e-02
4.553330e+02	-3.299577e-02
4.579630e+02	-3.337656e-02
4.606082e+02	-3.376173e-02
4.632687e+02	-3.415133e-02
4.659445e+02	-3.454540e-02
4.686358e+02	-3.494401e-02
4.713426e+02	-3.534719e-02
4.740650e+02	-3.575501e-02
4.768032e+02	-3.616751e-02
4.795572e+02	-3.658475e-02
4.823271e+02	-3.700678e-02
4.851130e+02	-3.743366e-02
4.879150e+02	-3.786545e-02
4.907332e+02	-3.830219e-02
4.935676e+02	-3.874395e-02
4.964185e+02	-3.919077e-02
4.992858e+02	-3.964273e-02
5.021696e+02	-4.009988e-02
5.050701e+02	-4.056227e-02
5.079874e+02	-4.102997e-02
5.109215e+02	-4.150304e-02
5.138726e+02	-4.198153e-02
5.168407e+02	-4.246552e-02
5.198259e+02	-4.295505e-02
5.228284e+02	-4.345020e-02
5.258482e+02	-4.395103e-02
5.288855e+02	-4.445761e-02
5.319403e+02	-4.496999e-02
5.350128e+02	-4.548824e-02
5.381030e+02	-4.601244e-02
5.412111e+02	-4.654264e-02
5.443371e+02	-4.707892e-02
5.474812e+02	-4.762135e-02
5.506434e+02	-4.816999e-02
5.538239e+02	-4.872492e-02
5.570228e+02	-4.928620e-02
5.602401e+02	-4.985391e-02
5.634760e+02	-5.042812e-02
5.667306e+02	-5.100891e-02
5.700040e+02	-5.159634e-02
5.732964e+02	-5.219050e-02
5.766077e+02	-5.279146e-02
5.799382e+02	-5.339930e-02
5.832879e+02	-5.401409e-02
5.866569e+02	-5.463592e-02
5.900454e+02	-5.526486e-02
5.934535e+02	-5.590099e-02
5.968813e+02	-5.654440e-02
6.003288e+02	-5.719516e-02
6.037963e+02	-5.785336e-02
6.072838e+02	-5.851909e-02
6.107914e+02	-5.919242e-02
6.143194e+02	-5.987345e-02
6.178676e+02	-6.056226e-02
6.214364e+02	-6.125894e-02
6.250258e+02	-6.196357e-02
6.286359e+02	-6.267625e-02
6.322669e+02	-6.339707e-02
6.359189e+02	-6.412611e-02
6.395919e+02	-6.486348e-02
6.432862e+02	-6.560926e-02
6.470017e+02	-6.636355e-02
6.507388e+02	-6.712645e-02
6.544974e+02	-6.789804e-02
6.582778e+02	-6.867844e-02
6.620800e+02	-6.946773e-02
6.659041e+02	-7.026602e-02
6.697504e+02	-7.107341e-02
6.736188e+02	-7.189000e-02
6.775096e+02	-7.271589e-02
6.814229e+02	-7.355119e-02
6.853587e+02	-7.439600e-02
6.893173e+02	-7.525043e-02
6.932988e+02	-7.611459e-02
6.973033e+02	-7.698858e-02
7.013309e+02	-7.787252e-02
