Frequency(Hz)	Magnitude(dB)
1.000000e+01	-1.587969e-05
1.005776e+01	-1.606366e-05
1.011585e+01	-1.624976e-05
1.017428e+01	-1.643802e-05
1.023305e+01	-1.662846e-05
1.029215e+01	-1.682110e-05
1.035160e+01	-1.701598e-05
1.041139e+01	-1.721311e-05
1.047153e+01	-1.741253e-05
1.053201e+01	-1.761426e-05
1.059284e+01	-1.781832e-05
1.065403e+01	-1.802475e-05
1.071556e+01	-1.823358e-05
1.077746e+01	-1.844482e-05
1.083971e+01	-1.865850e-05
1.090232e+01	-1.887467e-05
1.096529e+01	-1.909334e-05
1.102862e+01	-1.931454e-05
1.109232e+01	-1.953830e-05
1.115639e+01	-1.976466e-05
1.122083e+01	-1.999364e-05
1.128564e+01	-2.022527e-05
1.135083e+01	-2.045958e-05
1.141639e+01	-2.069661e-05
1.148233e+01	-2.093639e-05
1.154865e+01	-2.117894e-05
1.161536e+01	-2.142430e-05
1.168245e+01	-2.167251e-05
1.174992e+01	-2.192359e-05
1.181779e+01	-2.217758e-05
1.188605e+01	-2.243451e-05
1.195470e+01	-2.269442e-05
1.202375e+01	-2.295734e-05
1.209320e+01	-2.322331e-05
1.216305e+01	-2.349236e-05
1.223330e+01	-2.376452e-05
1.230396e+01	-2.403984e-05
1.237503e+01	-2.431835e-05
1.244651e+01	-2.460008e-05
1.251840e+01	-2.488508e-05
1.259070e+01	-2.517338e-05
1.266343e+01	-2.546502e-05
1.273657e+01	-2.576004e-05
1.281014e+01	-2.605847e-05
1.288413e+01	-2.636037e-05
1.295855e+01	-2.666576e-05
1.303339e+01	-2.697469e-05
1.310867e+01	-2.728720e-05
1.318439e+01	-2.760333e-05
1.326054e+01	-2.792312e-05
1.333713e+01	-2.824661e-05
1.341417e+01	-2.857386e-05
1.349165e+01	-2.890489e-05
1.356958e+01	-2.923976e-05
1.364795e+01	-2.957851e-05
1.372678e+01	-2.992119e-05
1.380607e+01	-3.026783e-05
1.388581e+01	-3.061849e-05
1.396602e+01	-3.097321e-05
1.404668e+01	-3.133205e-05
1.412782e+01	-3.169503e-05
1.420942e+01	-3.206223e-05
1.429149e+01	-3.243368e-05
1.437404e+01	-3.280943e-05
1.445706e+01	-3.318953e-05
1.454057e+01	-3.357404e-05
1.462455e+01	-3.396301e-05
1.470902e+01	-3.435648e-05
1.479398e+01	-3.475450e-05
1.487943e+01	-3.515714e-05
1.496537e+01	-3.556445e-05
1.505181e+01	-3.597647e-05
1.513875e+01	-3.639326e-05
1.522619e+01	-3.681489e-05
1.531414e+01	-3.724140e-05
1.540259e+01	-3.767285e-05
1.549156e+01	-3.810930e-05
1.558103e+01	-3.855080e-05
1.567103e+01	-3.899742e-05
1.576155e+01	-3.944922e-05
1.585258e+01	-3.990624e-05
1.594415e+01	-4.036857e-05
1.603624e+01	-4.083624e-05
1.612886e+01	-4.130934e-05
1.622202e+01	-4.178792e-05
1.631572e+01	-4.227204e-05
1.640996e+01	-4.276177e-05
1.650474e+01	-4.325718e-05
1.660008e+01	-4.375832e-05
1.669596e+01	-4.426527e-05
1.679239e+01	-4.477809e-05
1.688938e+01	-4.529686e-05
1.698694e+01	-4.582163e-05
1.708505e+01	-4.635249e-05
1.718373e+01	-4.688949e-05
1.728299e+01	-4.743272e-05
1.738281e+01	-4.798223e-05
1.748322e+01	-4.853812e-05
1.758420e+01	-4.910044e-05
1.768576e+01	-4.966928e-05
1.778792e+01	-5.024471e-05
1.789066e+01	-5.082681e-05
1.799399e+01	-5.141565e-05
1.809793e+01	-5.201131e-05
1.820246e+01	-5.261387e-05
1.830760e+01	-5.322341e-05
1.841334e+01	-5.384002e-05
1.851969e+01	-5.446376e-05
1.862666e+01	-5.509474e-05
1.873425e+01	-5.573302e-05
1.884246e+01	-5.637870e-05
1.895129e+01	-5.703186e-05
1.906075e+01	-5.769258e-05
1.917085e+01	-5.836096e-05
1.928158e+01	-5.903709e-05
1.939295e+01	-5.972104e-05
1.950496e+01	-6.041292e-05
1.961762e+01	-6.111282e-05
1.973093e+01	-6.182082e-05
1.984490e+01	-6.253703e-05
1.995952e+01	-6.326153e-05
2.007480e+01	-6.399443e-05
2.019076e+01	-6.473582e-05
2.030738e+01	-6.548580e-05
2.042467e+01	-6.624446e-05
2.054264e+01	-6.701192e-05
2.066130e+01	-6.778826e-05
2.078064e+01	-6.857360e-05
2.090066e+01	-6.936804e-05
2.102139e+01	-7.017168e-05
2.114280e+01	-7.098463e-05
2.126492e+01	-7.180700e-05
2.138775e+01	-7.263890e-05
2.151128e+01	-7.348044e-05
2.163553e+01	-7.433172e-05
2.176050e+01	-7.519287e-05
2.188619e+01	-7.606399e-05
2.201260e+01	-7.694520e-05
2.213974e+01	-7.783663e-05
2.226762e+01	-7.873838e-05
2.239624e+01	-7.965058e-05
2.252560e+01	-8.057334e-05
2.265571e+01	-8.150680e-05
2.278656e+01	-8.245107e-05
2.291818e+01	-8.340628e-05
2.305055e+01	-8.437255e-05
2.318369e+01	-8.535002e-05
2.331760e+01	-8.633882e-05
2.345228e+01	-8.733907e-05
2.358774e+01	-8.835090e-05
2.372398e+01	-8.937446e-05
2.386101e+01	-9.040988e-05
2.399883e+01	-9.145729e-05
2.413745e+01	-9.251684e-05
2.427686e+01	-9.358866e-05
2.441709e+01	-9.467290e-05
2.455812e+01	-9.576970e-05
2.469997e+01	-9.687921e-05
2.484263e+01	-9.800157e-05
2.498612e+01	-9.913693e-05
2.513044e+01	-1.002854e-04
2.527559e+01	-1.014473e-04
2.542158e+01	-1.026225e-04
2.556842e+01	-1.038114e-04
2.571610e+01	-1.050141e-04
2.586463e+01	-1.062307e-04
2.601403e+01	-1.074614e-04
2.616428e+01	-1.087064e-04
2.631541e+01	-1.099657e-04
2.646740e+01	-1.112397e-04
2.662028e+01	-1.125284e-04
2.677404e+01	-1.138321e-04
2.692868e+01	-1.151509e-04
2.708422e+01	-1.164849e-04
2.724066e+01	-1.178344e-04
2.739800e+01	-1.191995e-04
2.755625e+01	-1.205805e-04
2.771541e+01	-1.219774e-04
2.787550e+01	-1.233905e-04
2.803650e+01	-1.248200e-04
2.819844e+01	-1.262661e-04
2.836131e+01	-1.277289e-04
2.852513e+01	-1.292086e-04
2.868989e+01	-1.307055e-04
2.885560e+01	-1.322197e-04
2.902227e+01	-1.337515e-04
2.918990e+01	-1.353011e-04
2.935850e+01	-1.368685e-04
2.952807e+01	-1.384542e-04
2.969863e+01	-1.400582e-04
2.987016e+01	-1.416808e-04
3.004269e+01	-1.433221e-04
3.021622e+01	-1.449825e-04
3.039075e+01	-1.466622e-04
3.056628e+01	-1.483613e-04
3.074283e+01	-1.500800e-04
3.092040e+01	-1.518187e-04
3.109900e+01	-1.535776e-04
3.127862e+01	-1.553568e-04
3.145929e+01	-1.571566e-04
3.164099e+01	-1.589773e-04
3.182375e+01	-1.608190e-04
3.200756e+01	-1.626821e-04
3.219244e+01	-1.645668e-04
3.237838e+01	-1.664733e-04
3.256540e+01	-1.684019e-04
3.275349e+01	-1.703529e-04
3.294268e+01	-1.723264e-04
3.313295e+01	-1.743228e-04
3.332433e+01	-1.763424e-04
3.351681e+01	-1.783853e-04
3.371040e+01	-1.804519e-04
3.390511e+01	-1.825424e-04
3.410094e+01	-1.846572e-04
3.429791e+01	-1.867965e-04
3.449601e+01	-1.889605e-04
3.469526e+01	-1.911496e-04
3.489566e+01	-1.933641e-04
3.509721e+01	-1.956042e-04
3.529993e+01	-1.978703e-04
3.550382e+01	-2.001626e-04
3.570889e+01	-2.024815e-04
3.591515e+01	-2.048272e-04
3.612259e+01	-2.072002e-04
3.633123e+01	-2.096006e-04
3.654108e+01	-2.120288e-04
3.675214e+01	-2.144852e-04
3.696442e+01	-2.169700e-04
3.717792e+01	-2.194836e-04
3.739266e+01	-2.220263e-04
3.760864e+01	-2.245984e-04
3.782587e+01	-2.272004e-04
3.804435e+01	-2.298325e-04
3.826409e+01	-2.324951e-04
3.848510e+01	-2.351886e-04
3.870739e+01	-2.379132e-04
3.893096e+01	-2.406694e-04
3.915583e+01	-2.434576e-04
3.938199e+01	-2.462780e-04
3.960946e+01	-2.491311e-04
3.983824e+01	-2.520173e-04
4.006834e+01	-2.549369e-04
4.029978e+01	-2.578903e-04
4.053255e+01	-2.608780e-04
4.076666e+01	-2.639002e-04
4.100213e+01	-2.669575e-04
4.123896e+01	-2.700502e-04
4.147715e+01	-2.731787e-04
4.171672e+01	-2.763434e-04
4.195767e+01	-2.795449e-04
4.220002e+01	-2.827834e-04
4.244377e+01	-2.860594e-04
4.268892e+01	-2.893733e-04
4.293549e+01	-2.927257e-04
4.318348e+01	-2.961169e-04
4.343291e+01	-2.995474e-04
4.368377e+01	-3.030176e-04
4.393609e+01	-3.065280e-04
4.418986e+01	-3.100791e-04
4.444510e+01	-3.136713e-04
4.470182e+01	-3.173051e-04
4.496001e+01	-3.209811e-04
4.521970e+01	-3.246996e-04
4.548089e+01	-3.284612e-04
4.574358e+01	-3.322664e-04
4.600779e+01	-3.361156e-04
4.627353e+01	-3.400094e-04
4.654081e+01	-3.439484e-04
4.680963e+01	-3.479330e-04
4.708000e+01	-3.519637e-04
4.735193e+01	-3.560411e-04
4.762543e+01	-3.601658e-04
4.790051e+01	-3.643382e-04
4.817719e+01	-3.685590e-04
4.845545e+01	-3.728287e-04
4.873533e+01	-3.771478e-04
4.901682e+01	-3.815170e-04
4.929994e+01	-3.859368e-04
4.958470e+01	-3.904078e-04
4.987110e+01	-3.949306e-04
5.015915e+01	-3.995057e-04
5.044887e+01	-4.041339e-04
5.074026e+01	-4.088157e-04
5.103333e+01	-4.135517e-04
5.132810e+01	-4.183426e-04
5.162457e+01	-4.231889e-04
5.192275e+01	-4.280915e-04
5.222265e+01	-4.330508e-04
5.252429e+01	-4.380675e-04
5.282767e+01	-4.431424e-04
5.313280e+01	-4.482761e-04
5.343969e+01	-4.534692e-04
5.374836e+01	-4.587225e-04
5.405880e+01	-4.640366e-04
5.437105e+01	-4.694123e-04
5.468509e+01	-4.748503e-04
5.500095e+01	-4.803513e-04
5.531863e+01	-4.859160e-04
5.563815e+01	-4.915451e-04
5.595951e+01	-4.972395e-04
5.628273e+01	-5.029998e-04
5.660782e+01	-5.088269e-04
5.693479e+01	-5.147214e-04
5.726364e+01	-5.206842e-04
5.759439e+01	-5.267161e-04
5.792705e+01	-5.328179e-04
5.826164e+01	-5.389904e-04
5.859815e+01	-5.452343e-04
5.893662e+01	-5.515506e-04
5.927703e+01	-5.579401e-04
5.961941e+01	-5.644036e-04
5.996377e+01	-5.709419e-04
6.031012e+01	-5.775560e-04
6.065847e+01	-5.842467e-04
6.100883e+01	-5.910149e-04
6.136121e+01	-5.978615e-04
6.171563e+01	-6.047874e-04
6.207210e+01	-6.117935e-04
6.243063e+01	-6.188808e-04
6.279122e+01	-6.260502e-04
6.315390e+01	-6.333026e-04
6.351868e+01	-6.406391e-04
6.388556e+01	-6.480605e-04
6.425456e+01	-6.555679e-04
6.462569e+01	-6.631622e-04
6.499897e+01	-6.708446e-04
6.537440e+01	-6.786159e-04
6.575200e+01	-6.864772e-04
6.613178e+01	-6.944296e-04
6.651375e+01	-7.024741e-04
6.689793e+01	-7.106118e-04
6.728433e+01	-7.188437e-04
6.767297e+01	-7.271711e-04
6.806384e+01	-7.355948e-04
6.845698e+01	-7.441162e-04
6.885238e+01	-7.527362e-04
6.925007e+01	-7.614561e-04
6.965005e+01	-7.702770e-04
7.005235e+01	-7.792000e-04
7.045697e+01	-7.882265e-04
7.086393e+01	-7.973575e-04
7.127323e+01	-8.065942e-04
7.168490e+01	-8.159379e-04
7.209895e+01	-8.253899e-04
7.251539e+01	-8.349514e-04
7.293424e+01	-8.446236e-04
7.335551e+01	-8.544078e-04
7.377920e+01	-8.643053e-04
7.420535e+01	-8.743176e-04
7.463396e+01	-8.844457e-04
7.506504e+01	-8.946912e-04
7.549861e+01	-9.050554e-04
7.593469e+01	-9.155396e-04
7.637328e+01	-9.261452e-04
7.681441e+01	-9.368737e-04
7.725809e+01	-9.477265e-04
7.770433e+01	-9.587049e-04
7.815315e+01	-9.698106e-04
7.860456e+01	-9.810448e-04
7.905857e+01	-9.924092e-04
7.951521e+01	-1.003905e-03
7.997449e+01	-1.015534e-03
8.043642e+01	-1.027298e-03
8.090102e+01	-1.039198e-03
8.136830e+01	-1.051236e-03
8.183828e+01	-1.063414e-03
8.231097e+01	-1.075732e-03
8.278640e+01	-1.088193e-03
8.326457e+01	-1.100798e-03
8.374550e+01	-1.113550e-03
8.422921e+01	-1.126449e-03
8.471572e+01	-1.139498e-03
8.520503e+01	-1.152697e-03
8.569717e+01	-1.166050e-03
8.619215e+01	-1.179557e-03
8.669000e+01	-1.193220e-03
8.719071e+01	-1.207042e-03
8.769432e+01	-1.221024e-03
8.820084e+01	-1.235168e-03
8.871029e+01	-1.249476e-03
8.922267e+01	-1.263949e-03
8.973802e+01	-1.278590e-03
9.025634e+01	-1.293401e-03
9.077766e+01	-1.308383e-03
9.130199e+01	-1.323539e-03
9.182935e+01	-1.338870e-03
9.235975e+01	-1.354379e-03
9.289321e+01	-1.370067e-03
9.342976e+01	-1.385937e-03
9.396941e+01	-1.401991e-03
9.451217e+01	-1.418231e-03
9.505807e+01	-1.434659e-03
9.560712e+01	-1.451277e-03
9.615934e+01	-1.468087e-03
9.671476e+01	-1.485093e-03
9.727338e+01	-1.502295e-03
9.783522e+01	-1.519696e-03
9.840032e+01	-1.537299e-03
9.896867e+01	-1.555106e-03
9.954031e+01	-1.573119e-03
1.001153e+02	-1.591341e-03
1.006935e+02	-1.609773e-03
1.012751e+02	-1.628420e-03
1.018601e+02	-1.647282e-03
1.024484e+02	-1.666362e-03
1.030402e+02	-1.685664e-03
1.036353e+02	-1.705189e-03
1.042339e+02	-1.724940e-03
1.048360e+02	-1.744920e-03
1.054415e+02	-1.765131e-03
1.060505e+02	-1.785576e-03
1.066631e+02	-1.806258e-03
1.072791e+02	-1.827180e-03
1.078988e+02	-1.848344e-03
1.085220e+02	-1.869753e-03
1.091488e+02	-1.891410e-03
1.097793e+02	-1.913317e-03
1.104133e+02	-1.935479e-03
1.110511e+02	-1.957897e-03
1.116925e+02	-1.980574e-03
1.123376e+02	-2.003514e-03
1.129865e+02	-2.026720e-03
1.136391e+02	-2.050195e-03
1.142955e+02	-2.073941e-03
1.149556e+02	-2.097963e-03
1.156196e+02	-2.122262e-03
1.162874e+02	-2.146843e-03
1.169591e+02	-2.171708e-03
1.176347e+02	-2.196862e-03
1.183141e+02	-2.222307e-03
1.189975e+02	-2.248046e-03
1.196848e+02	-2.274083e-03
1.203761e+02	-2.300422e-03
1.210714e+02	-2.327066e-03
1.217707e+02	-2.354018e-03
1.224740e+02	-2.381283e-03
1.231814e+02	-2.408863e-03
1.238929e+02	-2.436762e-03
1.246085e+02	-2.464985e-03
1.253283e+02	-2.493534e-03
1.260522e+02	-2.522414e-03
1.267802e+02	-2.551628e-03
1.275125e+02	-2.581181e-03
1.282490e+02	-2.611076e-03
1.289898e+02	-2.641316e-03
1.297348e+02	-2.671907e-03
1.304842e+02	-2.702852e-03
1.312378e+02	-2.734156e-03
1.319959e+02	-2.765822e-03
1.327583e+02	-2.797854e-03
1.335251e+02	-2.830257e-03
1.342963e+02	-2.863036e-03
1.350720e+02	-2.896194e-03
1.358522e+02	-2.929736e-03
1.366368e+02	-2.963666e-03
1.374260e+02	-2.997989e-03
1.382198e+02	-3.032709e-03
1.390182e+02	-3.067831e-03
1.398211e+02	-3.103360e-03
1.406287e+02	-3.139300e-03
1.414410e+02	-3.175657e-03
1.422579e+02	-3.212434e-03
1.430796e+02	-3.249637e-03
1.439060e+02	-3.287270e-03
1.447372e+02	-3.325340e-03
1.455732e+02	-3.363850e-03
1.464141e+02	-3.402806e-03
1.472597e+02	-3.442212e-03
1.481103e+02	-3.482075e-03
1.489658e+02	-3.522400e-03
1.498262e+02	-3.563191e-03
1.506916e+02	-3.604454e-03
1.515620e+02	-3.646195e-03
1.524374e+02	-3.688419e-03
1.533179e+02	-3.731132e-03
1.542034e+02	-3.774339e-03
1.550941e+02	-3.818047e-03
1.559899e+02	-3.862260e-03
1.568909e+02	-3.906985e-03
1.577971e+02	-3.952228e-03
1.587085e+02	-3.997995e-03
1.596252e+02	-4.044291e-03
1.605472e+02	-4.091123e-03
1.614745e+02	-4.138497e-03
1.624072e+02	-4.186419e-03
1.633453e+02	-4.234896e-03
1.642887e+02	-4.283934e-03
1.652377e+02	-4.333540e-03
1.661921e+02	-4.383720e-03
1.671520e+02	-4.434480e-03
1.681175e+02	-4.485828e-03
1.690885e+02	-4.537771e-03
1.700651e+02	-4.590314e-03
1.710474e+02	-4.643466e-03
1.720354e+02	-4.697232e-03
1.730291e+02	-4.751621e-03
1.740285e+02	-4.806639e-03
1.750337e+02	-4.862294e-03
1.760446e+02	-4.918593e-03
1.770615e+02	-4.975544e-03
1.780842e+02	-5.033153e-03
1.791128e+02	-5.091429e-03
1.801473e+02	-5.150380e-03
1.811878e+02	-5.210012e-03
1.822344e+02	-5.270335e-03
1.832870e+02	-5.331355e-03
1.843456e+02	-5.393082e-03
1.854104e+02	-5.455523e-03
1.864813e+02	-5.518686e-03
1.875584e+02	-5.582581e-03
1.886418e+02	-5.647214e-03
1.897313e+02	-5.712595e-03
1.908272e+02	-5.778733e-03
1.919294e+02	-5.845636e-03
1.930380e+02	-5.913313e-03
1.941530e+02	-5.981773e-03
1.952744e+02	-6.051025e-03
1.964023e+02	-6.121078e-03
1.975367e+02	-6.191942e-03
1.986777e+02	-6.263625e-03
1.998252e+02	-6.336137e-03
2.009794e+02	-6.409489e-03
2.021403e+02	-6.483689e-03
2.033078e+02	-6.558747e-03
2.044821e+02	-6.634674e-03
2.056632e+02	-6.711479e-03
2.068511e+02	-6.789172e-03
2.080459e+02	-6.867764e-03
2.092475e+02	-6.947265e-03
2.104561e+02	-7.027685e-03
2.116717e+02	-7.109036e-03
2.128943e+02	-7.191328e-03
2.141240e+02	-7.274571e-03
2.153608e+02	-7.358777e-03
2.166047e+02	-7.443957e-03
2.178558e+02	-7.530122e-03
2.191141e+02	-7.617284e-03
2.203797e+02	-7.705453e-03
2.216526e+02	-7.794643e-03
2.229329e+02	-7.884863e-03
2.242205e+02	-7.976127e-03
2.255156e+02	-8.068447e-03
2.268182e+02	-8.161834e-03
2.281283e+02	-8.256300e-03
2.294459e+02	-8.351860e-03
2.307712e+02	-8.448524e-03
2.321041e+02	-8.546305e-03
2.334447e+02	-8.645217e-03
2.347931e+02	-8.745273e-03
2.361493e+02	-8.846486e-03
2.375133e+02	-8.948869e-03
2.388851e+02	-9.052435e-03
2.402649e+02	-9.157199e-03
2.416527e+02	-9.263174e-03
2.430484e+02	-9.370374e-03
2.444523e+02	-9.478814e-03
2.458642e+02	-9.588506e-03
2.472843e+02	-9.699467e-03
2.487126e+02	-9.811711e-03
2.501492e+02	-9.925251e-03
2.515940e+02	-1.004010e-02
2.530472e+02	-1.015629e-02
2.545088e+02	-1.027381e-02
2.559789e+02	-1.039269e-02
2.574574e+02	-1.051295e-02
2.589444e+02	-1.063459e-02
2.604401e+02	-1.075764e-02
2.619444e+02	-1.088212e-02
2.634574e+02	-1.100803e-02
2.649791e+02	-1.113539e-02
2.665096e+02	-1.126423e-02
2.680489e+02	-1.139456e-02
2.695972e+02	-1.152639e-02
2.711544e+02	-1.165975e-02
2.727205e+02	-1.179465e-02
2.742958e+02	-1.193110e-02
2.758801e+02	-1.206913e-02
2.774736e+02	-1.220876e-02
2.790762e+02	-1.235000e-02
2.806882e+02	-1.249287e-02
2.823094e+02	-1.263739e-02
2.839400e+02	-1.278359e-02
2.855800e+02	-1.293147e-02
2.872295e+02	-1.308105e-02
2.888886e+02	-1.323237e-02
2.905572e+02	-1.338543e-02
2.922354e+02	-1.354026e-02
2.939234e+02	-1.369688e-02
2.956211e+02	-1.385531e-02
2.973286e+02	-1.401557e-02
2.990459e+02	-1.417767e-02
3.007732e+02	-1.434165e-02
3.025104e+02	-1.450753e-02
3.042577e+02	-1.467532e-02
3.060151e+02	-1.484504e-02
3.077826e+02	-1.501673e-02
3.095604e+02	-1.519039e-02
3.113484e+02	-1.536607e-02
3.131467e+02	-1.554377e-02
3.149554e+02	-1.572352e-02
3.167746e+02	-1.590534e-02
3.186043e+02	-1.608927e-02
3.204445e+02	-1.627532e-02
3.222954e+02	-1.646351e-02
3.241570e+02	-1.665388e-02
3.260293e+02	-1.684644e-02
3.279124e+02	-1.704123e-02
3.298064e+02	-1.723826e-02
3.317114e+02	-1.743757e-02
3.336273e+02	-1.763918e-02
3.355544e+02	-1.784311e-02
3.374925e+02	-1.804939e-02
3.394418e+02	-1.825806e-02
3.414024e+02	-1.846913e-02
3.433744e+02	-1.868264e-02
3.453577e+02	-1.889861e-02
3.473525e+02	-1.911707e-02
3.493588e+02	-1.933805e-02
3.513766e+02	-1.956158e-02
3.534062e+02	-1.978769e-02
3.554474e+02	-2.001641e-02
3.575005e+02	-2.024776e-02
3.595654e+02	-2.048178e-02
3.616422e+02	-2.071850e-02
3.637311e+02	-2.095795e-02
3.658320e+02	-2.120015e-02
3.679450e+02	-2.144515e-02
3.700702e+02	-2.169298e-02
3.722077e+02	-2.194366e-02
3.743576e+02	-2.219723e-02
3.765199e+02	-2.245372e-02
3.786946e+02	-2.271317e-02
3.808820e+02	-2.297561e-02
3.830819e+02	-2.324108e-02
3.852946e+02	-2.350960e-02
3.875200e+02	-2.378122e-02
3.897583e+02	-2.405596e-02
3.920096e+02	-2.433387e-02
3.942738e+02	-2.461498e-02
3.965511e+02	-2.489934e-02
3.988416e+02	-2.518696e-02
4.011452e+02	-2.547790e-02
4.034622e+02	-2.577219e-02
4.057926e+02	-2.606987e-02
4.081365e+02	-2.637097e-02
4.104938e+02	-2.667555e-02
4.128648e+02	-2.698363e-02
4.152495e+02	-2.729525e-02
4.176480e+02	-2.761047e-02
4.200603e+02	-2.792931e-02
4.224866e+02	-2.825182e-02
4.249268e+02	-2.857804e-02
4.273812e+02	-2.890802e-02
4.298497e+02	-2.924180e-02
4.323325e+02	-2.957941e-02
4.348297e+02	-2.992091e-02
4.373412e+02	-3.026634e-02
4.398673e+02	-3.061575e-02
4.424079e+02	-3.096917e-02
4.449633e+02	-3.132666e-02
4.475334e+02	-3.168826e-02
4.501183e+02	-3.205401e-02
4.527182e+02	-3.242398e-02
4.553330e+02	-3.279819e-02
4.579630e+02	-3.317671e-02
4.606082e+02	-3.355959e-02
4.632687e+02	-3.394686e-02
4.659445e+02	-3.433858e-02
4.686358e+02	-3.473481e-02
4.713426e+02	-3.513559e-02
4.740650e+02	-3.554097e-02
4.768032e+02	-3.595101e-02
4.795572e+02	-3.636576e-02
4.823271e+02	-3.678528e-02
4.851130e+02	-3.720962e-02
4.879150e+02	-3.763883e-02
4.907332e+02	-3.807297e-02
4.935676e+02	-3.851209e-02
4.964185e+02	-3.895626e-02
4.992858e+02	-3.940552e-02
5.021696e+02	-3.985994e-02
5.050701e+02	-4.031958e-02
5.079874e+02	-4.078450e-02
5.109215e+02	-4.125474e-02
5.138726e+02	-4.173039e-02
5.168407e+02	-4.221149e-02
5.198259e+02	-4.269811e-02
5.228284e+02	-4.319031e-02
5.258482e+02	-4.368816e-02
5.288855e+02	-4.419172e-02
5.319403e+02	-4.470105e-02
5.350128e+02	-4.521622e-02
5.381030e+02	-4.573730e-02
5.412111e+02	-4.626435e-02
5.443371e+02	-4.679744e-02
5.474812e+02	-4.733664e-02
5.506434e+02	-4.788201e-02
5.538239e+02	-4.843364e-02
5.570228e+02	-4.899158e-02
5.602401e+02	-4.955592e-02
5.634760e+02	-5.012672e-02
5.667306e+02	-5.070405e-02
5.700040e+02	-5.128800e-02
5.732964e+02	-5.187862e-02
5.766077e+02	-5.247601e-02
5.799382e+02	-5.308024e-02
5.832879e+02	-5.369138e-02
5.866569e+02	-5.430951e-02
5.900454e+02	-5.493472e-02
5.934535e+02	-5.556707e-02
5.968813e+02	-5.620666e-02
6.003288e+02	-5.685356e-02
6.037963e+02	-5.750785e-02
6.072838e+02	-5.816963e-02
6.107914e+02	-5.883896e-02
6.143194e+02	-5.951595e-02
6.178676e+02	-6.020067e-02
6.214364e+02	-6.089322e-02
6.250258e+02	-6.159367e-02
6.286359e+02	-6.230213e-02
6.322669e+02	-6.301867e-02
6.359189e+02	-6.374340e-02
6.395919e+02	-6.447639e-02
6.432862e+02	-6.521775e-02
6.470017e+02	-6.596757e-02
6.507388e+02	-6.672595e-02
6.544974e+02	-6.749297e-02
6.582778e+02	-6.826875e-02
6.620800e+02	-6.905337e-02
6.659041e+02	-6.984693e-02
6.697504e+02	-7.064954e-02
6.736188e+02	-7.146129e-02
6.775096e+02	-7.228230e-02
6.814229e+02	-7.311266e-02
6.853587e+02	-7.395247e-02
6.893173e+02	-7.480185e-02
6.932988e+02	-7.566090e-02
6.973033e+02	-7.652972e-02
7.013309e+02	-7.740844e-02
