Frequency(Hz)	Magnitude(dB)
1.000000e+01	-2.285481e+00
1.005776e+01	-2.306041e+00
1.011585e+01	-2.326763e+00
1.017428e+01	-2.347601e+00
1.023305e+01	-2.368569e+00
1.029215e+01	-2.389603e+00
1.035160e+01	-2.411117e+00
1.041139e+01	-2.432372e+00
1.047153e+01	-2.453815e+00
1.053201e+01	-2.475520e+00
1.059284e+01	-2.497298e+00
1.065403e+01	-2.519149e+00
1.071556e+01	-2.541220e+00
1.077746e+01	-2.563297e+00
1.083971e+01	-2.585983e+00
1.090232e+01	-2.608355e+00
1.096529e+01	-2.631130e+00
1.102862e+01	-2.653868e+00
1.109232e+01	-2.676710e+00
1.115639e+01	-2.700254e+00
1.122083e+01	-2.723006e+00
1.128564e+01	-2.746498e+00
1.135083e+01	-2.769996e+00
1.141639e+01	-2.793598e+00
1.148233e+01	-2.817624e+00
1.154865e+01	-2.841672e+00
1.161536e+01	-2.865614e+00
1.168245e+01	-2.889680e+00
1.174992e+01	-2.914447e+00
1.181779e+01	-2.938677e+00
1.188605e+01	-2.963587e+00
1.195470e+01	-2.988162e+00
1.202375e+01	-3.012850e+00
1.209320e+01	-3.038243e+00
1.216305e+01	-3.063499e+00
1.223330e+01	-3.089089e+00
1.230396e+01	-3.114497e+00
1.237503e+01	-3.140275e+00
1.244651e+01	-3.165681e+00
1.251840e+01	-3.191886e+00
1.259070e+01	-3.217979e+00
1.266343e+01	-3.244231e+00
1.273657e+01	-3.270667e+00
1.281014e+01	-3.297157e+00
1.288413e+01	-3.323868e+00
1.295855e+01	-3.350583e+00
1.303339e+01	-3.377699e+00
1.310867e+01	-3.404560e+00
1.318439e+01	-3.431854e+00
1.326054e+01	-3.459189e+00
1.333713e+01	-3.486968e+00
1.341417e+01	-3.514865e+00
1.349165e+01	-3.542241e+00
1.356958e+01	-3.570396e+00
1.364795e+01	-3.598543e+00
1.372678e+01	-3.626828e+00
1.380607e+01	-3.655244e+00
1.388581e+01	-3.683579e+00
1.396602e+01	-3.712329e+00
1.404668e+01	-3.740998e+00
1.412782e+01	-3.770203e+00
1.420942e+01	-3.799242e+00
1.429149e+01	-3.828214e+00
1.437404e+01	-3.857808e+00
1.445706e+01	-3.887453e+00
1.454057e+01	-3.917223e+00
1.462455e+01	-3.946768e+00
1.470902e+01	-3.976623e+00
1.479398e+01	-4.006747e+00
1.487943e+01	-4.037056e+00
1.496537e+01	-4.067713e+00
1.505181e+01	-4.098155e+00
1.513875e+01	-4.128466e+00
1.522619e+01	-4.159163e+00
1.531414e+01	-4.190334e+00
1.540259e+01	-4.221321e+00
1.549156e+01	-4.252441e+00
1.558103e+01	-4.283602e+00
1.567103e+01	-4.315115e+00
1.576155e+01	-4.346554e+00
1.585258e+01	-4.378248e+00
1.594415e+01	-4.410152e+00
1.603624e+01	-4.442519e+00
1.612886e+01	-4.474271e+00
1.622202e+01	-4.506720e+00
1.631572e+01	-4.538894e+00
1.640996e+01	-4.571353e+00
1.650474e+01	-4.603865e+00
1.660008e+01	-4.636783e+00
1.669596e+01	-4.669913e+00
1.679239e+01	-4.702851e+00
1.688938e+01	-4.735777e+00
1.698694e+01	-4.769163e+00
1.708505e+01	-4.802632e+00
1.718373e+01	-4.836123e+00
1.728299e+01	-4.869808e+00
1.738281e+01	-4.903399e+00
1.748322e+01	-4.937330e+00
1.758420e+01	-4.971692e+00
1.768576e+01	-5.005692e+00
1.778792e+01	-5.039940e+00
1.789066e+01	-5.074354e+00
1.799399e+01	-5.108825e+00
1.809793e+01	-5.143623e+00
1.820246e+01	-5.178398e+00
1.830760e+01	-5.212920e+00
1.841334e+01	-5.247982e+00
1.851969e+01	-5.283200e+00
1.862666e+01	-5.318970e+00
1.873425e+01	-5.353973e+00
1.884246e+01	-5.389526e+00
1.895129e+01	-5.425050e+00
1.906075e+01	-5.460517e+00
1.917085e+01	-5.496900e+00
1.928158e+01	-5.532751e+00
1.939295e+01	-5.568991e+00
1.950496e+01	-5.604843e+00
1.961762e+01	-5.641260e+00
1.973093e+01	-5.677780e+00
1.984490e+01	-5.714543e+00
1.995952e+01	-5.751211e+00
2.007480e+01	-5.787707e+00
2.019076e+01	-5.824834e+00
2.030738e+01	-5.861340e+00
2.042467e+01	-5.898857e+00
2.054264e+01	-5.936017e+00
2.066130e+01	-5.973552e+00
2.078064e+01	-6.011089e+00
2.090066e+01	-6.048351e+00
2.102139e+01	-6.086030e+00
2.114280e+01	-6.123457e+00
2.126492e+01	-6.161668e+00
2.138775e+01	-6.199420e+00
2.151128e+01	-6.237468e+00
2.163553e+01	-6.275839e+00
2.176050e+01	-6.314309e+00
2.188619e+01	-6.352215e+00
2.201260e+01	-6.390923e+00
2.213974e+01	-6.429520e+00
2.226762e+01	-6.468113e+00
2.239624e+01	-6.507107e+00
2.252560e+01	-6.545774e+00
2.265571e+01	-6.584851e+00
2.278656e+01	-6.624166e+00
2.291818e+01	-6.663295e+00
2.305055e+01	-6.702768e+00
2.318369e+01	-6.742017e+00
2.331760e+01	-6.781610e+00
2.345228e+01	-6.820817e+00
2.358774e+01	-6.860829e+00
2.372398e+01	-6.900536e+00
2.386101e+01	-6.940182e+00
2.399883e+01	-6.979958e+00
2.413745e+01	-7.020275e+00
2.427686e+01	-7.060518e+00
2.441709e+01	-7.100406e+00
2.455812e+01	-7.140995e+00
2.469997e+01	-7.181501e+00
2.484263e+01	-7.221804e+00
2.498612e+01	-7.262576e+00
2.513044e+01	-7.302568e+00
2.527559e+01	-7.343815e+00
2.542158e+01	-7.384620e+00
2.556842e+01	-7.425373e+00
2.571610e+01	-7.466473e+00
2.586463e+01	-7.507629e+00
2.601403e+01	-7.548706e+00
2.616428e+01	-7.590252e+00
2.631541e+01	-7.631723e+00
2.646740e+01	-7.673281e+00
2.662028e+01	-7.714743e+00
2.677404e+01	-7.756146e+00
2.692868e+01	-7.797777e+00
2.708422e+01	-7.839927e+00
2.724066e+01	-7.881404e+00
2.739800e+01	-7.923484e+00
2.755625e+01	-7.965397e+00
2.771541e+01	-8.007821e+00
2.787550e+01	-8.049693e+00
2.803650e+01	-8.091909e+00
2.819844e+01	-8.133915e+00
2.836131e+01	-8.176334e+00
2.852513e+01	-8.219208e+00
2.868989e+01	-8.261672e+00
2.885560e+01	-8.304222e+00
2.902227e+01	-8.346167e+00
2.918990e+01	-8.389105e+00
2.935850e+01	-8.432223e+00
2.952807e+01	-8.475580e+00
2.969863e+01	-8.518114e+00
2.987016e+01	-8.560674e+00
3.004269e+01	-8.603854e+00
3.021622e+01	-8.647158e+00
3.039075e+01	-8.690536e+00
3.056628e+01	-8.734212e+00
3.074283e+01	-8.777037e+00
3.092040e+01	-8.820372e+00
3.109900e+01	-8.863969e+00
3.127862e+01	-8.907583e+00
3.145929e+01	-8.951341e+00
3.164099e+01	-8.994697e+00
3.182375e+01	-9.038669e+00
3.200756e+01	-9.082791e+00
3.219244e+01	-9.126539e+00
3.237838e+01	-9.170582e+00
3.256540e+01	-9.214882e+00
3.275349e+01	-9.258765e+00
3.294268e+01	-9.302349e+00
3.313295e+01	-9.346774e+00
3.332433e+01	-9.391230e+00
3.351681e+01	-9.435314e+00
3.371040e+01	-9.479589e+00
3.390511e+01	-9.524254e+00
3.410094e+01	-9.568430e+00
3.429791e+01	-9.613318e+00
3.449601e+01	-9.657468e+00
3.469526e+01	-9.702451e+00
3.489566e+01	-9.746427e+00
3.509721e+01	-9.791673e+00
3.529993e+01	-9.836174e+00
3.550382e+01	-9.881421e+00
3.570889e+01	-9.926202e+00
3.591515e+01	-9.971871e+00
3.612259e+01	-1.001643e+01
3.633123e+01	-1.006116e+01
3.654108e+01	-1.010660e+01
3.675214e+01	-1.015159e+01
3.696442e+01	-1.019674e+01
3.717792e+01	-1.024230e+01
3.739266e+01	-1.028769e+01
3.760864e+01	-1.033302e+01
3.782587e+01	-1.037833e+01
3.804435e+01	-1.042368e+01
3.826409e+01	-1.046892e+01
3.848510e+01	-1.051435e+01
3.870739e+01	-1.056048e+01
3.893096e+01	-1.060565e+01
3.915583e+01	-1.065163e+01
3.938199e+01	-1.069704e+01
3.960946e+01	-1.074388e+01
3.983824e+01	-1.078976e+01
4.006834e+01	-1.083515e+01
4.029978e+01	-1.088118e+01
4.053255e+01	-1.092654e+01
4.076666e+01	-1.097226e+01
4.100213e+01	-1.101932e+01
4.123896e+01	-1.106529e+01
4.147715e+01	-1.111127e+01
4.171672e+01	-1.115633e+01
4.195767e+01	-1.120349e+01
4.220002e+01	-1.125052e+01
4.244377e+01	-1.129653e+01
4.268892e+01	-1.134153e+01
4.293549e+01	-1.138909e+01
4.318348e+01	-1.143553e+01
4.343291e+01	-1.148165e+01
4.368377e+01	-1.152819e+01
4.393609e+01	-1.157473e+01
4.418986e+01	-1.162184e+01
4.444510e+01	-1.166796e+01
4.470182e+01	-1.171450e+01
4.496001e+01	-1.176156e+01
4.521970e+01	-1.180765e+01
4.548089e+01	-1.185495e+01
4.574358e+01	-1.190186e+01
4.600779e+01	-1.194791e+01
4.627353e+01	-1.199491e+01
4.654081e+01	-1.204247e+01
4.680963e+01	-1.208939e+01
4.708000e+01	-1.213570e+01
4.735193e+01	-1.218307e+01
4.762543e+01	-1.222987e+01
4.790051e+01	-1.227743e+01
4.817719e+01	-1.232357e+01
4.845545e+01	-1.237080e+01
4.873533e+01	-1.241759e+01
4.901682e+01	-1.246595e+01
4.929994e+01	-1.251274e+01
4.958470e+01	-1.255981e+01
4.987110e+01	-1.260651e+01
5.015915e+01	-1.265489e+01
5.044887e+01	-1.270141e+01
5.074026e+01	-1.274951e+01
5.103333e+01	-1.279585e+01
5.132810e+01	-1.284395e+01
5.162457e+01	-1.289084e+01
5.192275e+01	-1.293917e+01
5.222265e+01	-1.298593e+01
5.252429e+01	-1.303347e+01
5.282767e+01	-1.308128e+01
5.313280e+01	-1.312846e+01
5.343969e+01	-1.317670e+01
5.374836e+01	-1.322455e+01
5.405880e+01	-1.327161e+01
5.437105e+01	-1.331955e+01
5.468509e+01	-1.336794e+01
5.500095e+01	-1.341448e+01
5.531863e+01	-1.346202e+01
5.563815e+01	-1.351070e+01
5.595951e+01	-1.355801e+01
5.628273e+01	-1.360690e+01
5.660782e+01	-1.365434e+01
5.693479e+01	-1.370214e+01
5.726364e+01	-1.374963e+01
5.759439e+01	-1.379769e+01
5.792705e+01	-1.384595e+01
5.826164e+01	-1.389237e+01
5.859815e+01	-1.394214e+01
5.893662e+01	-1.398967e+01
5.927703e+01	-1.403728e+01
5.961941e+01	-1.408526e+01
5.996377e+01	-1.413418e+01
6.031012e+01	-1.418136e+01
6.065847e+01	-1.423009e+01
6.100883e+01	-1.427823e+01
6.136121e+01	-1.432670e+01
6.171563e+01	-1.437440e+01
6.207210e+01	-1.442298e+01
6.243063e+01	-1.447073e+01
6.279122e+01	-1.451960e+01
6.315390e+01	-1.456713e+01
6.351868e+01	-1.461550e+01
6.388556e+01	-1.466426e+01
6.425456e+01	-1.471247e+01
6.462569e+01	-1.476053e+01
6.499897e+01	-1.480944e+01
6.537440e+01	-1.485768e+01
6.575200e+01	-1.490629e+01
6.613178e+01	-1.495340e+01
6.651375e+01	-1.500353e+01
6.689793e+01	-1.505194e+01
6.728433e+01	-1.509994e+01
6.767297e+01	-1.514836e+01
6.806384e+01	-1.519732e+01
6.845698e+01	-1.524570e+01
6.885238e+01	-1.529401e+01
6.925007e+01	-1.534243e+01
6.965005e+01	-1.539086e+01
7.005235e+01	-1.543942e+01
7.045697e+01	-1.548819e+01
7.086393e+01	-1.553757e+01
7.127323e+01	-1.558610e+01
7.168490e+01	-1.563352e+01
7.209895e+01	-1.568382e+01
7.251539e+01	-1.573144e+01
7.293424e+01	-1.578025e+01
7.335551e+01	-1.582807e+01
7.377920e+01	-1.587718e+01
7.420535e+01	-1.592691e+01
7.463396e+01	-1.597443e+01
7.506504e+01	-1.602403e+01
7.549861e+01	-1.607221e+01
7.593469e+01	-1.612174e+01
7.637328e+01	-1.617072e+01
7.681441e+01	-1.621868e+01
7.725809e+01	-1.626798e+01
7.770433e+01	-1.631635e+01
7.815315e+01	-1.636539e+01
7.860456e+01	-1.641497e+01
7.905857e+01	-1.646270e+01
7.951521e+01	-1.651252e+01
7.997449e+01	-1.656158e+01
8.043642e+01	-1.661027e+01
8.090102e+01	-1.665892e+01
8.136830e+01	-1.670826e+01
8.183828e+01	-1.675742e+01
8.231097e+01	-1.680590e+01
8.278640e+01	-1.685450e+01
8.326457e+01	-1.690475e+01
8.374550e+01	-1.695248e+01
8.422921e+01	-1.700277e+01
8.471572e+01	-1.705229e+01
8.520503e+01	-1.709927e+01
8.569717e+01	-1.714938e+01
8.619215e+01	-1.719934e+01
8.669000e+01	-1.724857e+01
8.719071e+01	-1.729702e+01
8.769432e+01	-1.734606e+01
8.820084e+01	-1.739405e+01
8.871029e+01	-1.744506e+01
8.922267e+01	-1.749398e+01
8.973802e+01	-1.754204e+01
9.025634e+01	-1.759352e+01
9.077766e+01	-1.764142e+01
9.130199e+01	-1.768942e+01
9.182935e+01	-1.773783e+01
9.235975e+01	-1.778717e+01
9.289321e+01	-1.783697e+01
9.342976e+01	-1.788638e+01
9.396941e+01	-1.793579e+01
9.451217e+01	-1.798433e+01
9.505807e+01	-1.803489e+01
9.560712e+01	-1.808294e+01
9.615934e+01	-1.813337e+01
9.671476e+01	-1.818175e+01
9.727338e+01	-1.823307e+01
9.783522e+01	-1.827940e+01
9.840032e+01	-1.832963e+01
9.896867e+01	-1.838048e+01
9.954031e+01	-1.842799e+01
1.001153e+02	-1.847685e+01
1.006935e+02	-1.852725e+01
1.012751e+02	-1.857628e+01
1.018601e+02	-1.862673e+01
1.024484e+02	-1.867575e+01
1.030402e+02	-1.872485e+01
1.036353e+02	-1.877321e+01
1.042339e+02	-1.882183e+01
1.048360e+02	-1.887155e+01
1.054415e+02	-1.892181e+01
1.060505e+02	-1.897202e+01
1.066631e+02	-1.901982e+01
1.072791e+02	-1.907055e+01
1.078988e+02	-1.911899e+01
1.085220e+02	-1.916873e+01
1.091488e+02	-1.921922e+01
1.097793e+02	-1.926581e+01
1.104133e+02	-1.931692e+01
1.110511e+02	-1.936543e+01
1.116925e+02	-1.941619e+01
1.123376e+02	-1.946566e+01
1.129865e+02	-1.951493e+01
1.136391e+02	-1.956523e+01
1.142955e+02	-1.961446e+01
1.149556e+02	-1.966322e+01
1.156196e+02	-1.971257e+01
1.162874e+02	-1.976316e+01
1.169591e+02	-1.981376e+01
1.176347e+02	-1.986311e+01
1.183141e+02	-1.991158e+01
1.189975e+02	-1.996069e+01
1.196848e+02	-2.001071e+01
1.203761e+02	-2.006101e+01
1.210714e+02	-2.010996e+01
1.217707e+02	-2.015846e+01
1.224740e+02	-2.020977e+01
1.231814e+02	-2.025783e+01
1.238929e+02	-2.030866e+01
1.246085e+02	-2.035618e+01
1.253283e+02	-2.040742e+01
1.260522e+02	-2.045630e+01
1.267802e+02	-2.050805e+01
1.275125e+02	-2.055517e+01
1.282490e+02	-2.060434e+01
1.289898e+02	-2.065412e+01
1.297348e+02	-2.070454e+01
1.304842e+02	-2.075345e+01
1.312378e+02	-2.080273e+01
1.319959e+02	-2.085244e+01
1.327583e+02	-2.090242e+01
1.335251e+02	-2.095256e+01
1.342963e+02	-2.100181e+01
1.350720e+02	-2.105211e+01
1.358522e+02	-2.110105e+01
1.366368e+02	-2.115195e+01
1.374260e+02	-2.119966e+01
1.382198e+02	-2.125171e+01
1.390182e+02	-2.130070e+01
1.398211e+02	-2.134907e+01
1.406287e+02	-2.139919e+01
1.414410e+02	-2.144816e+01
1.422579e+02	-2.149882e+01
1.430796e+02	-2.154835e+01
1.439060e+02	-2.159788e+01
1.447372e+02	-2.164674e+01
1.455732e+02	-2.169821e+01
1.464141e+02	-2.174927e+01
1.472597e+02	-2.179581e+01
1.481103e+02	-2.184639e+01
1.489658e+02	-2.189592e+01
1.498262e+02	-2.194499e+01
1.506916e+02	-2.199454e+01
1.515620e+02	-2.204576e+01
1.524374e+02	-2.209631e+01
1.533179e+02	-2.214440e+01
1.542034e+02	-2.219548e+01
1.550941e+02	-2.224677e+01
1.559899e+02	-2.229626e+01
1.568909e+02	-2.234348e+01
1.577971e+02	-2.239576e+01
1.587085e+02	-2.244198e+01
1.596252e+02	-2.249322e+01
1.605472e+02	-2.254259e+01
1.614745e+02	-2.259198e+01
1.624072e+02	-2.264374e+01
1.633453e+02	-2.269371e+01
1.642887e+02	-2.274279e+01
1.652377e+02	-2.279077e+01
1.661921e+02	-2.284463e+01
1.671520e+02	-2.289372e+01
1.681175e+02	-2.294143e+01
1.690885e+02	-2.299159e+01
1.700651e+02	-2.304241e+01
1.710474e+02	-2.308986e+01
1.720354e+02	-2.314197e+01
1.730291e+02	-2.319050e+01
1.740285e+02	-2.323873e+01
1.750337e+02	-2.328800e+01
1.760446e+02	-2.334020e+01
1.770615e+02	-2.338791e+01
1.780842e+02	-2.344009e+01
1.791128e+02	-2.349075e+01
1.801473e+02	-2.353967e+01
1.811878e+02	-2.358653e+01
1.822344e+02	-2.363984e+01
1.832870e+02	-2.368691e+01
1.843456e+02	-2.373630e+01
1.854104e+02	-2.378666e+01
1.864813e+02	-2.383930e+01
1.875584e+02	-2.388942e+01
1.886418e+02	-2.393916e+01
1.897313e+02	-2.398888e+01
1.908272e+02	-2.403562e+01
1.919294e+02	-2.408800e+01
1.930380e+02	-2.413851e+01
1.941530e+02	-2.418616e+01
1.952744e+02	-2.423691e+01
1.964023e+02	-2.428777e+01
1.975367e+02	-2.434037e+01
1.986777e+02	-2.438789e+01
1.998252e+02	-2.443461e+01
2.009794e+02	-2.448456e+01
2.021403e+02	-2.453519e+01
2.033078e+02	-2.458562e+01
2.044821e+02	-2.463633e+01
2.056632e+02	-2.468273e+01
2.068511e+02	-2.473842e+01
2.080459e+02	-2.478297e+01
2.092475e+02	-2.483695e+01
2.104561e+02	-2.488478e+01
2.116717e+02	-2.493251e+01
2.128943e+02	-2.498308e+01
2.141240e+02	-2.503428e+01
2.153608e+02	-2.508464e+01
2.166047e+02	-2.513632e+01
2.178558e+02	-2.518441e+01
2.191141e+02	-2.523560e+01
2.203797e+02	-2.528013e+01
2.216526e+02	-2.533399e+01
2.229329e+02	-2.538542e+01
2.242205e+02	-2.543328e+01
2.255156e+02	-2.548261e+01
2.268182e+02	-2.553297e+01
2.281283e+02	-2.558245e+01
2.294459e+02	-2.563188e+01
2.307712e+02	-2.568824e+01
2.321041e+02	-2.573314e+01
2.334447e+02	-2.578393e+01
2.347931e+02	-2.583215e+01
2.361493e+02	-2.588868e+01
2.375133e+02	-2.593527e+01
2.388851e+02	-2.598543e+01
2.402649e+02	-2.603314e+01
2.416527e+02	-2.608442e+01
2.430484e+02	-2.613180e+01
2.444523e+02	-2.618200e+01
2.458642e+02	-2.623642e+01
2.472843e+02	-2.628390e+01
2.487126e+02	-2.633491e+01
2.501492e+02	-2.638305e+01
2.515940e+02	-2.643215e+01
2.530472e+02	-2.648194e+01
2.545088e+02	-2.653237e+01
2.559789e+02	-2.658033e+01
2.574574e+02	-2.663454e+01
2.589444e+02	-2.668293e+01
2.604401e+02	-2.673063e+01
2.619444e+02	-2.678137e+01
2.634574e+02	-2.683047e+01
2.649791e+02	-2.688584e+01
2.665096e+02	-2.693474e+01
2.680489e+02	-2.698497e+01
2.695972e+02	-2.703500e+01
2.711544e+02	-2.708371e+01
2.727205e+02	-2.713472e+01
2.742958e+02	-2.718026e+01
2.758801e+02	-2.723303e+01
2.774736e+02	-2.728452e+01
2.790762e+02	-2.733459e+01
2.806882e+02	-2.738254e+01
2.823094e+02	-2.743119e+01
2.839400e+02	-2.748409e+01
2.855800e+02	-2.753342e+01
2.872295e+02	-2.758347e+01
2.888886e+02	-2.763138e+01
2.905572e+02	-2.768329e+01
2.922354e+02	-2.773552e+01
2.939234e+02	-2.778441e+01
2.956211e+02	-2.783589e+01
2.973286e+02	-2.788327e+01
2.990459e+02	-2.793328e+01
3.007732e+02	-2.798097e+01
3.025104e+02	-2.803249e+01
3.042577e+02	-2.808387e+01
3.060151e+02	-2.813009e+01
3.077826e+02	-2.818402e+01
3.095604e+02	-2.823137e+01
3.113484e+02	-2.828531e+01
3.131467e+02	-2.833171e+01
3.149554e+02	-2.838038e+01
3.167746e+02	-2.843464e+01
3.186043e+02	-2.848371e+01
3.204445e+02	-2.853536e+01
3.222954e+02	-2.858081e+01
3.241570e+02	-2.863718e+01
3.260293e+02	-2.868326e+01
3.279124e+02	-2.873038e+01
3.298064e+02	-2.878021e+01
3.317114e+02	-2.883290e+01
3.336273e+02	-2.887996e+01
3.355544e+02	-2.893501e+01
3.374925e+02	-2.898423e+01
3.394418e+02	-2.903392e+01
3.414024e+02	-2.908247e+01
3.433744e+02	-2.913162e+01
3.453577e+02	-2.918164e+01
3.473525e+02	-2.923437e+01
3.493588e+02	-2.928457e+01
3.513766e+02	-2.933325e+01
3.534062e+02	-2.938078e+01
3.554474e+02	-2.943635e+01
3.575005e+02	-2.948310e+01
3.595654e+02	-2.953472e+01
3.616422e+02	-2.958556e+01
3.637311e+02	-2.963492e+01
3.658320e+02	-2.968349e+01
3.679450e+02	-2.973674e+01
3.700702e+02	-2.978668e+01
3.722077e+02	-2.983568e+01
3.743576e+02	-2.988457e+01
3.765199e+02	-2.993716e+01
3.786946e+02	-2.998345e+01
3.808820e+02	-3.003632e+01
3.830819e+02	-3.008655e+01
3.852946e+02	-3.013812e+01
3.875200e+02	-3.018717e+01
3.897583e+02	-3.023492e+01
3.920096e+02	-3.028926e+01
3.942738e+02	-3.033840e+01
3.965511e+02	-3.038248e+01
3.988416e+02	-3.043765e+01
4.011452e+02	-3.048734e+01
4.034622e+02	-3.053987e+01
4.057926e+02	-3.058985e+01
4.081365e+02	-3.063701e+01
4.104938e+02	-3.068464e+01
4.128648e+02	-3.073600e+01
4.152495e+02	-3.078824e+01
4.176480e+02	-3.083757e+01
4.200603e+02	-3.088865e+01
4.224866e+02	-3.094042e+01
4.249268e+02	-3.098812e+01
4.273812e+02	-3.103743e+01
4.298497e+02	-3.108581e+01
4.323325e+02	-3.112981e+01
4.348297e+02	-3.118711e+01
4.373412e+02	-3.123825e+01
4.398673e+02	-3.128548e+01
4.424079e+02	-3.134078e+01
4.449633e+02	-3.138636e+01
4.475334e+02	-3.143870e+01
4.501183e+02	-3.148789e+01
4.527182e+02	-3.154465e+01
4.553330e+02	-3.159447e+01
4.579630e+02	-3.164170e+01
4.606082e+02	-3.168959e+01
4.632687e+02	-3.174122e+01
4.659445e+02	-3.178981e+01
4.686358e+02	-3.184337e+01
4.713426e+02	-3.189283e+01
4.740650e+02	-3.194292e+01
4.768032e+02	-3.199185e+01
4.795572e+02	-3.204251e+01
4.823271e+02	-3.209419e+01
4.851130e+02	-3.214949e+01
4.879150e+02	-3.219518e+01
4.907332e+02	-3.223692e+01
4.935676e+02	-3.229143e+01
4.964185e+02	-3.234011e+01
4.992858e+02	-3.239200e+01
5.021696e+02	-3.244196e+01
5.050701e+02	-3.249205e+01
5.079874e+02	-3.254451e+01
5.109215e+02	-3.259263e+01
5.138726e+02	-3.264636e+01
5.168407e+02	-3.269224e+01
5.198259e+02	-3.274050e+01
5.228284e+02	-3.279370e+01
5.258482e+02	-3.284222e+01
5.288855e+02	-3.289824e+01
5.319403e+02	-3.294747e+01
5.350128e+02	-3.299950e+01
5.381030e+02	-3.304125e+01
5.412111e+02	-3.308890e+01
5.443371e+02	-3.315228e+01
5.474812e+02	-3.319125e+01
5.506434e+02	-3.324932e+01
5.538239e+02	-3.329895e+01
5.570228e+02	-3.334668e+01
5.602401e+02	-3.339579e+01
5.634760e+02	-3.344310e+01
5.667306e+02	-3.350243e+01
5.700040e+02	-3.355071e+01
5.732964e+02	-3.360909e+01
5.766077e+02	-3.364784e+01
5.799382e+02	-3.369820e+01
5.832879e+02	-3.374378e+01
5.866569e+02	-3.380187e+01
5.900454e+02	-3.383989e+01
5.934535e+02	-3.389206e+01
5.968813e+02	-3.395090e+01
6.003288e+02	-3.400213e+01
6.037963e+02	-3.404798e+01
6.072838e+02	-3.409584e+01
6.107914e+02	-3.415111e+01
6.143194e+02	-3.419826e+01
6.178676e+02	-3.424861e+01
6.214364e+02	-3.430438e+01
6.250258e+02	-3.436570e+01
6.286359e+02	-3.439978e+01
6.322669e+02	-3.445315e+01
6.359189e+02	-3.450377e+01
6.395919e+02	-3.454943e+01
6.432862e+02	-3.460310e+01
6.470017e+02	-3.465361e+01
6.507388e+02	-3.470359e+01
6.544974e+02	-3.475244e+01
6.582778e+02	-3.480681e+01
6.620800e+02	-3.485534e+01
6.659041e+02	-3.489536e+01
6.697504e+02	-3.496729e+01
6.736188e+02	-3.500234e+01
6.775096e+02	-3.505171e+01
6.814229e+02	-3.509690e+01
6.853587e+02	-3.516701e+01
6.893173e+02	-3.520358e+01
6.932988e+02	-3.524944e+01
6.973033e+02	-3.530614e+01
7.013309e+02	-3.536281e+01
