Frequency(Hz)	Magnitude(dB)
1.000000e+01	-1.850888e-05
1.005776e+01	-1.872331e-05
1.011585e+01	-1.894023e-05
1.017428e+01	-1.915965e-05
1.023305e+01	-1.938162e-05
1.029215e+01	-1.960616e-05
1.035160e+01	-1.983331e-05
1.041139e+01	-2.006308e-05
1.047153e+01	-2.029551e-05
1.053201e+01	-2.053064e-05
1.059284e+01	-2.076850e-05
1.065403e+01	-2.100910e-05
1.071556e+01	-2.125250e-05
1.077746e+01	-2.149872e-05
1.083971e+01	-2.174778e-05
1.090232e+01	-2.199974e-05
1.096529e+01	-2.225461e-05
1.102862e+01	-2.251244e-05
1.109232e+01	-2.277325e-05
1.115639e+01	-2.303708e-05
1.122083e+01	-2.330397e-05
1.128564e+01	-2.357395e-05
1.135083e+01	-2.384706e-05
1.141639e+01	-2.412334e-05
1.148233e+01	-2.440281e-05
1.154865e+01	-2.468553e-05
1.161536e+01	-2.497151e-05
1.168245e+01	-2.526081e-05
1.174992e+01	-2.555347e-05
1.181779e+01	-2.584951e-05
1.188605e+01	-2.614898e-05
1.195470e+01	-2.645193e-05
1.202375e+01	-2.675838e-05
1.209320e+01	-2.706838e-05
1.216305e+01	-2.738197e-05
1.223330e+01	-2.769920e-05
1.230396e+01	-2.802010e-05
1.237503e+01	-2.834472e-05
1.244651e+01	-2.867310e-05
1.251840e+01	-2.900529e-05
1.259070e+01	-2.934132e-05
1.266343e+01	-2.968125e-05
1.273657e+01	-3.002511e-05
1.281014e+01	-3.037296e-05
1.288413e+01	-3.072484e-05
1.295855e+01	-3.108079e-05
1.303339e+01	-3.144087e-05
1.310867e+01	-3.180512e-05
1.318439e+01	-3.217359e-05
1.326054e+01	-3.254633e-05
1.333713e+01	-3.292339e-05
1.341417e+01	-3.330481e-05
1.349165e+01	-3.369066e-05
1.356958e+01	-3.408097e-05
1.364795e+01	-3.447581e-05
1.372678e+01	-3.487522e-05
1.380607e+01	-3.527925e-05
1.388581e+01	-3.568797e-05
1.396602e+01	-3.610142e-05
1.404668e+01	-3.651967e-05
1.412782e+01	-3.694276e-05
1.420942e+01	-3.737075e-05
1.429149e+01	-3.780370e-05
1.437404e+01	-3.824166e-05
1.445706e+01	-3.868470e-05
1.454057e+01	-3.913287e-05
1.462455e+01	-3.958623e-05
1.470902e+01	-4.004485e-05
1.479398e+01	-4.050878e-05
1.487943e+01	-4.097808e-05
1.496537e+01	-4.145282e-05
1.505181e+01	-4.193306e-05
1.513875e+01	-4.241886e-05
1.522619e+01	-4.291030e-05
1.531414e+01	-4.340742e-05
1.540259e+01	-4.391031e-05
1.549156e+01	-4.441902e-05
1.558103e+01	-4.493362e-05
1.567103e+01	-4.545419e-05
1.576155e+01	-4.598078e-05
1.585258e+01	-4.651348e-05
1.594415e+01	-4.705235e-05
1.603624e+01	-4.759746e-05
1.612886e+01	-4.814889e-05
1.622202e+01	-4.870670e-05
1.631572e+01	-4.927098e-05
1.640996e+01	-4.984180e-05
1.650474e+01	-5.041922e-05
1.660008e+01	-5.100334e-05
1.669596e+01	-5.159423e-05
1.679239e+01	-5.219196e-05
1.688938e+01	-5.279661e-05
1.698694e+01	-5.340827e-05
1.708505e+01	-5.402702e-05
1.718373e+01	-5.465293e-05
1.728299e+01	-5.528610e-05
1.738281e+01	-5.592660e-05
1.748322e+01	-5.657452e-05
1.758420e+01	-5.722995e-05
1.768576e+01	-5.789297e-05
1.778792e+01	-5.856367e-05
1.789066e+01	-5.924214e-05
1.799399e+01	-5.992847e-05
1.809793e+01	-6.062275e-05
1.820246e+01	-6.132508e-05
1.830760e+01	-6.203554e-05
1.841334e+01	-6.275424e-05
1.851969e+01	-6.348126e-05
1.862666e+01	-6.421670e-05
1.873425e+01	-6.496066e-05
1.884246e+01	-6.571325e-05
1.895129e+01	-6.647455e-05
1.906075e+01	-6.724467e-05
1.917085e+01	-6.802371e-05
1.928158e+01	-6.881178e-05
1.939295e+01	-6.960897e-05
1.950496e+01	-7.041541e-05
1.961762e+01	-7.123118e-05
1.973093e+01	-7.205641e-05
1.984490e+01	-7.289119e-05
1.995952e+01	-7.373565e-05
2.007480e+01	-7.458989e-05
2.019076e+01	-7.545403e-05
2.030738e+01	-7.632818e-05
2.042467e+01	-7.721245e-05
2.054264e+01	-7.810697e-05
2.066130e+01	-7.901186e-05
2.078064e+01	-7.992722e-05
2.090066e+01	-8.085319e-05
2.102139e+01	-8.178989e-05
2.114280e+01	-8.273744e-05
2.126492e+01	-8.369597e-05
2.138775e+01	-8.466560e-05
2.151128e+01	-8.564647e-05
2.163553e+01	-8.663869e-05
2.176050e+01	-8.764242e-05
2.188619e+01	-8.865777e-05
2.201260e+01	-8.968488e-05
2.213974e+01	-9.072390e-05
2.226762e+01	-9.177495e-05
2.239624e+01	-9.283817e-05
2.252560e+01	-9.391372e-05
2.265571e+01	-9.500172e-05
2.278656e+01	-9.610233e-05
2.291818e+01	-9.721569e-05
2.305055e+01	-9.834195e-05
2.318369e+01	-9.948126e-05
2.331760e+01	-1.006338e-04
2.345228e+01	-1.017996e-04
2.358774e+01	-1.029790e-04
2.372398e+01	-1.041720e-04
2.386101e+01	-1.053789e-04
2.399883e+01	-1.065997e-04
2.413745e+01	-1.078347e-04
2.427686e+01	-1.090839e-04
2.441709e+01	-1.103477e-04
2.455812e+01	-1.116261e-04
2.469997e+01	-1.129193e-04
2.484263e+01	-1.142275e-04
2.498612e+01	-1.155508e-04
2.513044e+01	-1.168895e-04
2.527559e+01	-1.182437e-04
2.542158e+01	-1.196135e-04
2.556842e+01	-1.209993e-04
2.571610e+01	-1.224010e-04
2.586463e+01	-1.238191e-04
2.601403e+01	-1.252535e-04
2.616428e+01	-1.267046e-04
2.631541e+01	-1.281725e-04
2.646740e+01	-1.296574e-04
2.662028e+01	-1.311595e-04
2.677404e+01	-1.326790e-04
2.692868e+01	-1.342161e-04
2.708422e+01	-1.357710e-04
2.724066e+01	-1.373439e-04
2.739800e+01	-1.389350e-04
2.755625e+01	-1.405446e-04
2.771541e+01	-1.421728e-04
2.787550e+01	-1.438199e-04
2.803650e+01	-1.454861e-04
2.819844e+01	-1.471716e-04
2.836131e+01	-1.488766e-04
2.852513e+01	-1.506013e-04
2.868989e+01	-1.523460e-04
2.885560e+01	-1.541110e-04
2.902227e+01	-1.558964e-04
2.918990e+01	-1.577024e-04
2.935850e+01	-1.595294e-04
2.952807e+01	-1.613776e-04
2.969863e+01	-1.632472e-04
2.987016e+01	-1.651384e-04
3.004269e+01	-1.670515e-04
3.021622e+01	-1.689868e-04
3.039075e+01	-1.709445e-04
3.056628e+01	-1.729249e-04
3.074283e+01	-1.749283e-04
3.092040e+01	-1.769548e-04
3.109900e+01	-1.790049e-04
3.127862e+01	-1.810786e-04
3.145929e+01	-1.831764e-04
3.164099e+01	-1.852985e-04
3.182375e+01	-1.874452e-04
3.200756e+01	-1.896168e-04
3.219244e+01	-1.918135e-04
3.237838e+01	-1.940357e-04
3.256540e+01	-1.962836e-04
3.275349e+01	-1.985575e-04
3.294268e+01	-2.008578e-04
3.313295e+01	-2.031848e-04
3.332433e+01	-2.055387e-04
3.351681e+01	-2.079198e-04
3.371040e+01	-2.103286e-04
3.390511e+01	-2.127652e-04
3.410094e+01	-2.152301e-04
3.429791e+01	-2.177236e-04
3.449601e+01	-2.202459e-04
3.469526e+01	-2.227974e-04
3.489566e+01	-2.253785e-04
3.509721e+01	-2.279895e-04
3.529993e+01	-2.306308e-04
3.550382e+01	-2.333026e-04
3.570889e+01	-2.360054e-04
3.591515e+01	-2.387395e-04
3.612259e+01	-2.415053e-04
3.633123e+01	-2.443032e-04
3.654108e+01	-2.471334e-04
3.675214e+01	-2.499964e-04
3.696442e+01	-2.528926e-04
3.717792e+01	-2.558224e-04
3.739266e+01	-2.587861e-04
3.760864e+01	-2.617841e-04
3.782587e+01	-2.648168e-04
3.804435e+01	-2.678847e-04
3.826409e+01	-2.709881e-04
3.848510e+01	-2.741275e-04
3.870739e+01	-2.773032e-04
3.893096e+01	-2.805158e-04
3.915583e+01	-2.837655e-04
3.938199e+01	-2.870529e-04
3.960946e+01	-2.903784e-04
3.983824e+01	-2.937424e-04
4.006834e+01	-2.971454e-04
4.029978e+01	-3.005878e-04
4.053255e+01	-3.040700e-04
4.076666e+01	-3.075926e-04
4.100213e+01	-3.111561e-04
4.123896e+01	-3.147607e-04
4.147715e+01	-3.184072e-04
4.171672e+01	-3.220959e-04
4.195767e+01	-3.258273e-04
4.220002e+01	-3.296020e-04
4.244377e+01	-3.334204e-04
4.268892e+01	-3.372830e-04
4.293549e+01	-3.411904e-04
4.318348e+01	-3.451430e-04
4.343291e+01	-3.491414e-04
4.368377e+01	-3.531861e-04
4.393609e+01	-3.572777e-04
4.418986e+01	-3.614167e-04
4.444510e+01	-3.656037e-04
4.470182e+01	-3.698391e-04
4.496001e+01	-3.741236e-04
4.521970e+01	-3.784577e-04
4.548089e+01	-3.828421e-04
4.574358e+01	-3.872772e-04
4.600779e+01	-3.917637e-04
4.627353e+01	-3.963022e-04
4.654081e+01	-4.008933e-04
4.680963e+01	-4.055375e-04
4.708000e+01	-4.102356e-04
4.735193e+01	-4.149880e-04
4.762543e+01	-4.197955e-04
4.790051e+01	-4.246588e-04
4.817719e+01	-4.295783e-04
4.845545e+01	-4.345548e-04
4.873533e+01	-4.395890e-04
4.901682e+01	-4.446815e-04
4.929994e+01	-4.498330e-04
4.958470e+01	-4.550442e-04
4.987110e+01	-4.603157e-04
5.015915e+01	-4.656483e-04
5.044887e+01	-4.710427e-04
5.074026e+01	-4.764995e-04
5.103333e+01	-4.820196e-04
5.132810e+01	-4.876036e-04
5.162457e+01	-4.932523e-04
5.192275e+01	-4.989665e-04
5.222265e+01	-5.047468e-04
5.252429e+01	-5.105941e-04
5.282767e+01	-5.165091e-04
5.313280e+01	-5.224927e-04
5.343969e+01	-5.285455e-04
5.374836e+01	-5.346685e-04
5.405880e+01	-5.408624e-04
5.437105e+01	-5.471280e-04
5.468509e+01	-5.534662e-04
5.500095e+01	-5.598779e-04
5.531863e+01	-5.663638e-04
5.563815e+01	-5.729249e-04
5.595951e+01	-5.795619e-04
5.628273e+01	-5.862758e-04
5.660782e+01	-5.930675e-04
5.693479e+01	-5.999379e-04
5.726364e+01	-6.068879e-04
5.759439e+01	-6.139183e-04
5.792705e+01	-6.210302e-04
5.826164e+01	-6.282245e-04
5.859815e+01	-6.355022e-04
5.893662e+01	-6.428641e-04
5.927703e+01	-6.503113e-04
5.961941e+01	-6.578447e-04
5.996377e+01	-6.654655e-04
6.031012e+01	-6.731745e-04
6.065847e+01	-6.809728e-04
6.100883e+01	-6.888614e-04
6.136121e+01	-6.968414e-04
6.171563e+01	-7.049139e-04
6.207210e+01	-7.130798e-04
6.243063e+01	-7.213404e-04
6.279122e+01	-7.296966e-04
6.315390e+01	-7.381496e-04
6.351868e+01	-7.467005e-04
6.388556e+01	-7.553505e-04
6.425456e+01	-7.641007e-04
6.462569e+01	-7.729522e-04
6.499897e+01	-7.819063e-04
6.537440e+01	-7.909640e-04
6.575200e+01	-8.001267e-04
6.613178e+01	-8.093956e-04
6.651375e+01	-8.187717e-04
6.689793e+01	-8.282565e-04
6.728433e+01	-8.378512e-04
6.767297e+01	-8.475570e-04
6.806384e+01	-8.573752e-04
6.845698e+01	-8.673071e-04
6.885238e+01	-8.773541e-04
6.925007e+01	-8.875174e-04
6.965005e+01	-8.977985e-04
7.005235e+01	-9.081987e-04
7.045697e+01	-9.187193e-04
7.086393e+01	-9.293618e-04
7.127323e+01	-9.401275e-04
7.168490e+01	-9.510179e-04
7.209895e+01	-9.620345e-04
7.251539e+01	-9.731787e-04
7.293424e+01	-9.844520e-04
7.335551e+01	-9.958558e-04
7.377920e+01	-1.007392e-03
7.420535e+01	-1.019061e-03
7.463396e+01	-1.030866e-03
7.506504e+01	-1.042807e-03
7.549861e+01	-1.054887e-03
7.593469e+01	-1.067107e-03
7.637328e+01	-1.079468e-03
7.681441e+01	-1.091972e-03
7.725809e+01	-1.104622e-03
7.770433e+01	-1.117417e-03
7.815315e+01	-1.130361e-03
7.860456e+01	-1.143455e-03
7.905857e+01	-1.156700e-03
7.951521e+01	-1.170099e-03
7.997449e+01	-1.183653e-03
8.043642e+01	-1.197364e-03
8.090102e+01	-1.211234e-03
8.136830e+01	-1.225265e-03
8.183828e+01	-1.239458e-03
8.231097e+01	-1.253815e-03
8.278640e+01	-1.268339e-03
8.326457e+01	-1.283031e-03
8.374550e+01	-1.297893e-03
8.422921e+01	-1.312927e-03
8.471572e+01	-1.328135e-03
8.520503e+01	-1.343520e-03
8.569717e+01	-1.359082e-03
8.619215e+01	-1.374825e-03
8.669000e+01	-1.390750e-03
8.719071e+01	-1.406860e-03
8.769432e+01	-1.423156e-03
8.820084e+01	-1.439641e-03
8.871029e+01	-1.456317e-03
8.922267e+01	-1.473186e-03
8.973802e+01	-1.490250e-03
9.025634e+01	-1.507512e-03
9.077766e+01	-1.524974e-03
9.130199e+01	-1.542638e-03
9.182935e+01	-1.560507e-03
9.235975e+01	-1.578582e-03
9.289321e+01	-1.596867e-03
9.342976e+01	-1.615364e-03
9.396941e+01	-1.634075e-03
9.451217e+01	-1.653002e-03
9.505807e+01	-1.672149e-03
9.560712e+01	-1.691518e-03
9.615934e+01	-1.711111e-03
9.671476e+01	-1.730930e-03
9.727338e+01	-1.750980e-03
9.783522e+01	-1.771261e-03
9.840032e+01	-1.791777e-03
9.896867e+01	-1.812531e-03
9.954031e+01	-1.833525e-03
1.001153e+02	-1.854763e-03
1.006935e+02	-1.876246e-03
1.012751e+02	-1.897978e-03
1.018601e+02	-1.919962e-03
1.024484e+02	-1.942200e-03
1.030402e+02	-1.964696e-03
1.036353e+02	-1.987452e-03
1.042339e+02	-2.010472e-03
1.048360e+02	-2.033758e-03
1.054415e+02	-2.057315e-03
1.060505e+02	-2.081143e-03
1.066631e+02	-2.105248e-03
1.072791e+02	-2.129632e-03
1.078988e+02	-2.154298e-03
1.085220e+02	-2.179250e-03
1.091488e+02	-2.204491e-03
1.097793e+02	-2.230024e-03
1.104133e+02	-2.255853e-03
1.110511e+02	-2.281980e-03
1.116925e+02	-2.308411e-03
1.123376e+02	-2.335147e-03
1.129865e+02	-2.362193e-03
1.136391e+02	-2.389552e-03
1.142955e+02	-2.417228e-03
1.149556e+02	-2.445224e-03
1.156196e+02	-2.473545e-03
1.162874e+02	-2.502193e-03
1.169591e+02	-2.531173e-03
1.176347e+02	-2.560489e-03
1.183141e+02	-2.590144e-03
1.189975e+02	-2.620143e-03
1.196848e+02	-2.650488e-03
1.203761e+02	-2.681186e-03
1.210714e+02	-2.712238e-03
1.217707e+02	-2.743650e-03
1.224740e+02	-2.775426e-03
1.231814e+02	-2.807569e-03
1.238929e+02	-2.840085e-03
1.246085e+02	-2.872978e-03
1.253283e+02	-2.906251e-03
1.260522e+02	-2.939909e-03
1.267802e+02	-2.973957e-03
1.275125e+02	-3.008399e-03
1.282490e+02	-3.043240e-03
1.289898e+02	-3.078484e-03
1.297348e+02	-3.114136e-03
1.304842e+02	-3.150201e-03
1.312378e+02	-3.186684e-03
1.319959e+02	-3.223589e-03
1.327583e+02	-3.260921e-03
1.335251e+02	-3.298685e-03
1.342963e+02	-3.336886e-03
1.350720e+02	-3.375530e-03
1.358522e+02	-3.414621e-03
1.366368e+02	-3.454165e-03
1.374260e+02	-3.494166e-03
1.382198e+02	-3.534630e-03
1.390182e+02	-3.575563e-03
1.398211e+02	-3.616970e-03
1.406287e+02	-3.658855e-03
1.414410e+02	-3.701226e-03
1.422579e+02	-3.744087e-03
1.430796e+02	-3.787445e-03
1.439060e+02	-3.831304e-03
1.447372e+02	-3.875671e-03
1.455732e+02	-3.920551e-03
1.464141e+02	-3.965951e-03
1.472597e+02	-4.011876e-03
1.481103e+02	-4.058333e-03
1.489658e+02	-4.105328e-03
1.498262e+02	-4.152866e-03
1.506916e+02	-4.200955e-03
1.515620e+02	-4.249600e-03
1.524374e+02	-4.298809e-03
1.533179e+02	-4.348586e-03
1.542034e+02	-4.398940e-03
1.550941e+02	-4.449877e-03
1.559899e+02	-4.501403e-03
1.568909e+02	-4.553526e-03
1.577971e+02	-4.606252e-03
1.587085e+02	-4.659588e-03
1.596252e+02	-4.713541e-03
1.605472e+02	-4.768118e-03
1.614745e+02	-4.823327e-03
1.624072e+02	-4.879176e-03
1.633453e+02	-4.935670e-03
1.642887e+02	-4.992818e-03
1.652377e+02	-5.050627e-03
1.661921e+02	-5.109106e-03
1.671520e+02	-5.168261e-03
1.681175e+02	-5.228100e-03
1.690885e+02	-5.288632e-03
1.700651e+02	-5.349865e-03
1.710474e+02	-5.411805e-03
1.720354e+02	-5.474463e-03
1.730291e+02	-5.537846e-03
1.740285e+02	-5.601962e-03
1.750337e+02	-5.666819e-03
1.760446e+02	-5.732427e-03
1.770615e+02	-5.798795e-03
1.780842e+02	-5.865930e-03
1.791128e+02	-5.933842e-03
1.801473e+02	-6.002539e-03
1.811878e+02	-6.072031e-03
1.822344e+02	-6.142327e-03
1.832870e+02	-6.213437e-03
1.843456e+02	-6.285369e-03
1.854104e+02	-6.358133e-03
1.864813e+02	-6.431739e-03
1.875584e+02	-6.506197e-03
1.886418e+02	-6.581515e-03
1.897313e+02	-6.657705e-03
1.908272e+02	-6.734777e-03
1.919294e+02	-6.812739e-03
1.930380e+02	-6.891604e-03
1.941530e+02	-6.971381e-03
1.952744e+02	-7.052080e-03
1.964023e+02	-7.133713e-03
1.975367e+02	-7.216290e-03
1.986777e+02	-7.299822e-03
1.998252e+02	-7.384321e-03
2.009794e+02	-7.469796e-03
2.021403e+02	-7.556260e-03
2.033078e+02	-7.643724e-03
2.044821e+02	-7.732200e-03
2.056632e+02	-7.821698e-03
2.068511e+02	-7.912232e-03
2.080459e+02	-8.003813e-03
2.092475e+02	-8.096452e-03
2.104561e+02	-8.190163e-03
2.116717e+02	-8.284957e-03
2.128943e+02	-8.380848e-03
2.141240e+02	-8.477847e-03
2.153608e+02	-8.575968e-03
2.166047e+02	-8.675223e-03
2.178558e+02	-8.775626e-03
2.191141e+02	-8.877190e-03
2.203797e+02	-8.979928e-03
2.216526e+02	-9.083854e-03
2.229329e+02	-9.188981e-03
2.242205e+02	-9.295323e-03
2.255156e+02	-9.402895e-03
2.268182e+02	-9.511710e-03
2.281283e+02	-9.621784e-03
2.294459e+02	-9.733129e-03
2.307712e+02	-9.845762e-03
2.321041e+02	-9.959696e-03
2.334447e+02	-1.007495e-02
2.347931e+02	-1.019153e-02
2.361493e+02	-1.030946e-02
2.375133e+02	-1.042876e-02
2.388851e+02	-1.054943e-02
2.402649e+02	-1.067150e-02
2.416527e+02	-1.079497e-02
2.430484e+02	-1.091988e-02
2.444523e+02	-1.104623e-02
2.458642e+02	-1.117404e-02
2.472843e+02	-1.130332e-02
2.487126e+02	-1.143410e-02
2.501492e+02	-1.156639e-02
2.515940e+02	-1.170021e-02
2.530472e+02	-1.183557e-02
2.545088e+02	-1.197250e-02
2.559789e+02	-1.211101e-02
2.574574e+02	-1.225112e-02
2.589444e+02	-1.239285e-02
2.604401e+02	-1.253622e-02
2.619444e+02	-1.268124e-02
2.634574e+02	-1.282794e-02
2.649791e+02	-1.297633e-02
2.665096e+02	-1.312644e-02
2.680489e+02	-1.327828e-02
2.695972e+02	-1.343187e-02
2.711544e+02	-1.358724e-02
2.727205e+02	-1.374440e-02
2.742958e+02	-1.390338e-02
2.758801e+02	-1.406419e-02
2.774736e+02	-1.422686e-02
2.790762e+02	-1.439141e-02
2.806882e+02	-1.455786e-02
2.823094e+02	-1.472623e-02
2.839400e+02	-1.489654e-02
2.855800e+02	-1.506882e-02
2.872295e+02	-1.524309e-02
2.888886e+02	-1.541937e-02
2.905572e+02	-1.559769e-02
2.922354e+02	-1.577806e-02
2.939234e+02	-1.596052e-02
2.956211e+02	-1.614508e-02
2.973286e+02	-1.633177e-02
2.990459e+02	-1.652062e-02
3.007732e+02	-1.671164e-02
3.025104e+02	-1.690487e-02
3.042577e+02	-1.710033e-02
3.060151e+02	-1.729805e-02
3.077826e+02	-1.749805e-02
3.095604e+02	-1.770035e-02
3.113484e+02	-1.790499e-02
3.131467e+02	-1.811199e-02
3.149554e+02	-1.832138e-02
3.167746e+02	-1.853318e-02
3.186043e+02	-1.874743e-02
3.204445e+02	-1.896415e-02
3.222954e+02	-1.918337e-02
3.241570e+02	-1.940511e-02
3.260293e+02	-1.962942e-02
3.279124e+02	-1.985631e-02
3.298064e+02	-2.008581e-02
3.317114e+02	-2.031797e-02
3.336273e+02	-2.055280e-02
3.355544e+02	-2.079034e-02
3.374925e+02	-2.103061e-02
3.394418e+02	-2.127366e-02
3.414024e+02	-2.151951e-02
3.433744e+02	-2.176819e-02
3.453577e+02	-2.201974e-02
3.473525e+02	-2.227419e-02
3.493588e+02	-2.253157e-02
3.513766e+02	-2.279192e-02
3.534062e+02	-2.305526e-02
3.554474e+02	-2.332165e-02
3.575005e+02	-2.359110e-02
3.595654e+02	-2.386365e-02
3.616422e+02	-2.413935e-02
3.637311e+02	-2.441822e-02
3.658320e+02	-2.470031e-02
3.679450e+02	-2.498564e-02
3.700702e+02	-2.527426e-02
3.722077e+02	-2.556621e-02
3.743576e+02	-2.586151e-02
3.765199e+02	-2.616022e-02
3.786946e+02	-2.646237e-02
3.808820e+02	-2.676799e-02
3.830819e+02	-2.707714e-02
3.852946e+02	-2.738984e-02
3.875200e+02	-2.770615e-02
3.897583e+02	-2.802609e-02
3.920096e+02	-2.834972e-02
3.942738e+02	-2.867707e-02
3.965511e+02	-2.900819e-02
3.988416e+02	-2.934312e-02
4.011452e+02	-2.968190e-02
4.034622e+02	-3.002458e-02
4.057926e+02	-3.037121e-02
4.081365e+02	-3.072182e-02
4.104938e+02	-3.107646e-02
4.128648e+02	-3.143518e-02
4.152495e+02	-3.179803e-02
4.176480e+02	-3.216505e-02
4.200603e+02	-3.253630e-02
4.224866e+02	-3.291181e-02
4.249268e+02	-3.329163e-02
4.273812e+02	-3.367583e-02
4.298497e+02	-3.406444e-02
4.323325e+02	-3.445751e-02
4.348297e+02	-3.485511e-02
4.373412e+02	-3.525727e-02
4.398673e+02	-3.566405e-02
4.424079e+02	-3.607551e-02
4.449633e+02	-3.649170e-02
4.475334e+02	-3.691266e-02
4.501183e+02	-3.733846e-02
4.527182e+02	-3.776915e-02
4.553330e+02	-3.820479e-02
4.579630e+02	-3.864543e-02
4.606082e+02	-3.909113e-02
4.632687e+02	-3.954195e-02
4.659445e+02	-3.999794e-02
4.686358e+02	-4.045916e-02
4.713426e+02	-4.092568e-02
4.740650e+02	-4.139755e-02
4.768032e+02	-4.187483e-02
4.795572e+02	-4.235760e-02
4.823271e+02	-4.284589e-02
4.851130e+02	-4.333979e-02
4.879150e+02	-4.383936e-02
4.907332e+02	-4.434465e-02
4.935676e+02	-4.485574e-02
4.964185e+02	-4.537269e-02
4.992858e+02	-4.589556e-02
5.021696e+02	-4.642443e-02
5.050701e+02	-4.695935e-02
5.079874e+02	-4.750041e-02
5.109215e+02	-4.804767e-02
5.138726e+02	-4.860120e-02
5.168407e+02	-4.916106e-02
5.198259e+02	-4.972734e-02
5.228284e+02	-5.030011e-02
5.258482e+02	-5.087943e-02
5.288855e+02	-5.146538e-02
5.319403e+02	-5.205805e-02
5.350128e+02	-5.265749e-02
5.381030e+02	-5.326380e-02
5.412111e+02	-5.387705e-02
5.443371e+02	-5.449731e-02
5.474812e+02	-5.512466e-02
5.506434e+02	-5.575919e-02
5.538239e+02	-5.640098e-02
5.570228e+02	-5.705011e-02
5.602401e+02	-5.770665e-02
5.634760e+02	-5.837070e-02
5.667306e+02	-5.904234e-02
5.700040e+02	-5.972166e-02
5.732964e+02	-6.040874e-02
5.766077e+02	-6.110366e-02
5.799382e+02	-6.180653e-02
5.832879e+02	-6.251742e-02
5.866569e+02	-6.323642e-02
5.900454e+02	-6.396364e-02
5.934535e+02	-6.469916e-02
5.968813e+02	-6.544306e-02
6.003288e+02	-6.619546e-02
6.037963e+02	-6.695644e-02
6.072838e+02	-6.772610e-02
6.107914e+02	-6.850454e-02
6.143194e+02	-6.929185e-02
6.178676e+02	-7.008814e-02
6.214364e+02	-7.089351e-02
6.250258e+02	-7.170805e-02
6.286359e+02	-7.253187e-02
6.322669e+02	-7.336508e-02
6.359189e+02	-7.420778e-02
6.395919e+02	-7.506007e-02
6.432862e+02	-7.592207e-02
6.470017e+02	-7.679387e-02
6.507388e+02	-7.767560e-02
6.544974e+02	-7.856736e-02
6.582778e+02	-7.946926e-02
6.620800e+02	-8.038143e-02
6.659041e+02	-8.130396e-02
6.697504e+02	-8.223698e-02
6.736188e+02	-8.318060e-02
6.775096e+02	-8.413495e-02
6.814229e+02	-8.510014e-02
6.853587e+02	-8.607629e-02
6.893173e+02	-8.706353e-02
6.932988e+02	-8.806197e-02
6.973033e+02	-8.907175e-02
7.013309e+02	-9.009299e-02
