Frequency(Hz)	Magnitude(dB)
1.000000e+01	-1.908094e+00
1.005776e+01	-1.925865e+00
1.011585e+01	-1.943460e+00
1.017428e+01	-1.962038e+00
1.023305e+01	-1.980209e+00
1.029215e+01	-1.998455e+00
1.035160e+01	-2.016875e+00
1.041139e+01	-2.035621e+00
1.047153e+01	-2.054488e+00
1.053201e+01	-2.073322e+00
1.059284e+01	-2.092427e+00
1.065403e+01	-2.111563e+00
1.071556e+01	-2.130936e+00
1.077746e+01	-2.150352e+00
1.083971e+01	-2.170022e+00
1.090232e+01	-2.189522e+00
1.096529e+01	-2.209514e+00
1.102862e+01	-2.229675e+00
1.109232e+01	-2.249721e+00
1.115639e+01	-2.270088e+00
1.122083e+01	-2.290599e+00
1.128564e+01	-2.311038e+00
1.135083e+01	-2.331770e+00
1.141639e+01	-2.352832e+00
1.148233e+01	-2.373522e+00
1.154865e+01	-2.394609e+00
1.161536e+01	-2.416068e+00
1.168245e+01	-2.437431e+00
1.174992e+01	-2.459021e+00
1.181779e+01	-2.480925e+00
1.188605e+01	-2.502671e+00
1.195470e+01	-2.524619e+00
1.202375e+01	-2.546811e+00
1.209320e+01	-2.568914e+00
1.216305e+01	-2.591321e+00
1.223330e+01	-2.613637e+00
1.230396e+01	-2.636573e+00
1.237503e+01	-2.659419e+00
1.244651e+01	-2.682281e+00
1.251840e+01	-2.705475e+00
1.259070e+01	-2.728797e+00
1.266343e+01	-2.752225e+00
1.273657e+01	-2.775626e+00
1.281014e+01	-2.799483e+00
1.288413e+01	-2.823376e+00
1.295855e+01	-2.847269e+00
1.303339e+01	-2.871218e+00
1.310867e+01	-2.895660e+00
1.318439e+01	-2.919941e+00
1.326054e+01	-2.944897e+00
1.333713e+01	-2.969189e+00
1.341417e+01	-2.994197e+00
1.349165e+01	-3.019203e+00
1.356958e+01	-3.044658e+00
1.364795e+01	-3.069490e+00
1.372678e+01	-3.095083e+00
1.380607e+01	-3.120602e+00
1.388581e+01	-3.146351e+00
1.396602e+01	-3.172327e+00
1.404668e+01	-3.198080e+00
1.412782e+01	-3.224296e+00
1.420942e+01	-3.250571e+00
1.429149e+01	-3.277024e+00
1.437404e+01	-3.303748e+00
1.445706e+01	-3.330531e+00
1.454057e+01	-3.357078e+00
1.462455e+01	-3.384069e+00
1.470902e+01	-3.411533e+00
1.479398e+01	-3.438548e+00
1.487943e+01	-3.466404e+00
1.496537e+01	-3.493611e+00
1.505181e+01	-3.521211e+00
1.513875e+01	-3.549127e+00
1.522619e+01	-3.577336e+00
1.531414e+01	-3.605366e+00
1.540259e+01	-3.633526e+00
1.549156e+01	-3.661946e+00
1.558103e+01	-3.690832e+00
1.567103e+01	-3.719398e+00
1.576155e+01	-3.748266e+00
1.585258e+01	-3.777267e+00
1.594415e+01	-3.806431e+00
1.603624e+01	-3.835641e+00
1.612886e+01	-3.865270e+00
1.622202e+01	-3.894447e+00
1.631572e+01	-3.924281e+00
1.640996e+01	-3.954125e+00
1.650474e+01	-3.984187e+00
1.660008e+01	-4.014190e+00
1.669596e+01	-4.044481e+00
1.679239e+01	-4.074795e+00
1.688938e+01	-4.105117e+00
1.698694e+01	-4.136112e+00
1.708505e+01	-4.166705e+00
1.718373e+01	-4.197762e+00
1.728299e+01	-4.228654e+00
1.738281e+01	-4.260047e+00
1.748322e+01	-4.291230e+00
1.758420e+01	-4.322856e+00
1.768576e+01	-4.354440e+00
1.778792e+01	-4.385950e+00
1.789066e+01	-4.418175e+00
1.799399e+01	-4.449887e+00
1.809793e+01	-4.482147e+00
1.820246e+01	-4.514416e+00
1.830760e+01	-4.546866e+00
1.841334e+01	-4.579221e+00
1.851969e+01	-4.612052e+00
1.862666e+01	-4.644775e+00
1.873425e+01	-4.677778e+00
1.884246e+01	-4.710506e+00
1.895129e+01	-4.743999e+00
1.906075e+01	-4.777296e+00
1.917085e+01	-4.810855e+00
1.928158e+01	-4.844208e+00
1.939295e+01	-4.878059e+00
1.950496e+01	-4.911601e+00
1.961762e+01	-4.945964e+00
1.973093e+01	-4.979509e+00
1.984490e+01	-5.014176e+00
1.995952e+01	-5.048231e+00
2.007480e+01	-5.082619e+00
2.019076e+01	-5.117142e+00
2.030738e+01	-5.151762e+00
2.042467e+01	-5.186726e+00
2.054264e+01	-5.221963e+00
2.066130e+01	-5.256890e+00
2.078064e+01	-5.291852e+00
2.090066e+01	-5.326983e+00
2.102139e+01	-5.362707e+00
2.114280e+01	-5.398189e+00
2.126492e+01	-5.434027e+00
2.138775e+01	-5.469740e+00
2.151128e+01	-5.505374e+00
2.163553e+01	-5.541091e+00
2.176050e+01	-5.577656e+00
2.188619e+01	-5.614177e+00
2.201260e+01	-5.650462e+00
2.213974e+01	-5.686613e+00
2.226762e+01	-5.723384e+00
2.239624e+01	-5.760044e+00
2.252560e+01	-5.796894e+00
2.265571e+01	-5.833629e+00
2.278656e+01	-5.870614e+00
2.291818e+01	-5.907850e+00
2.305055e+01	-5.944954e+00
2.318369e+01	-5.982369e+00
2.331760e+01	-6.019945e+00
2.345228e+01	-6.057370e+00
2.358774e+01	-6.095266e+00
2.372398e+01	-6.133065e+00
2.386101e+01	-6.170893e+00
2.399883e+01	-6.208616e+00
2.413745e+01	-6.246675e+00
2.427686e+01	-6.284971e+00
2.441709e+01	-6.323656e+00
2.455812e+01	-6.361804e+00
2.469997e+01	-6.400307e+00
2.484263e+01	-6.439232e+00
2.498612e+01	-6.477667e+00
2.513044e+01	-6.516611e+00
2.527559e+01	-6.555265e+00
2.542158e+01	-6.594251e+00
2.556842e+01	-6.633802e+00
2.571610e+01	-6.672995e+00
2.586463e+01	-6.712235e+00
2.601403e+01	-6.751452e+00
2.616428e+01	-6.791288e+00
2.631541e+01	-6.830450e+00
2.646740e+01	-6.870410e+00
2.662028e+01	-6.909833e+00
2.677404e+01	-6.949870e+00
2.692868e+01	-6.989838e+00
2.708422e+01	-7.029728e+00
2.724066e+01	-7.070060e+00
2.739800e+01	-7.110103e+00
2.755625e+01	-7.150970e+00
2.771541e+01	-7.190802e+00
2.787550e+01	-7.231221e+00
2.803650e+01	-7.272248e+00
2.819844e+01	-7.313092e+00
2.836131e+01	-7.353934e+00
2.852513e+01	-7.394825e+00
2.868989e+01	-7.435659e+00
2.885560e+01	-7.476864e+00
2.902227e+01	-7.517754e+00
2.918990e+01	-7.558703e+00
2.935850e+01	-7.599816e+00
2.952807e+01	-7.641855e+00
2.969863e+01	-7.682956e+00
2.987016e+01	-7.724989e+00
3.004269e+01	-7.766427e+00
3.021622e+01	-7.807858e+00
3.039075e+01	-7.849841e+00
3.056628e+01	-7.891753e+00
3.074283e+01	-7.933559e+00
3.092040e+01	-7.975555e+00
3.109900e+01	-8.017672e+00
3.127862e+01	-8.059559e+00
3.145929e+01	-8.101794e+00
3.164099e+01	-8.144589e+00
3.182375e+01	-8.186525e+00
3.200756e+01	-8.229802e+00
3.219244e+01	-8.271707e+00
3.237838e+01	-8.314223e+00
3.256540e+01	-8.357514e+00
3.275349e+01	-8.399829e+00
3.294268e+01	-8.442502e+00
3.313295e+01	-8.485475e+00
3.332433e+01	-8.528388e+00
3.351681e+01	-8.571467e+00
3.371040e+01	-8.614761e+00
3.390511e+01	-8.657801e+00
3.410094e+01	-8.701049e+00
3.429791e+01	-8.744321e+00
3.449601e+01	-8.787905e+00
3.469526e+01	-8.831403e+00
3.489566e+01	-8.874524e+00
3.509721e+01	-8.918054e+00
3.529993e+01	-8.962250e+00
3.550382e+01	-9.005304e+00
3.570889e+01	-9.049465e+00
3.591515e+01	-9.093002e+00
3.612259e+01	-9.137011e+00
3.633123e+01	-9.181044e+00
3.654108e+01	-9.224767e+00
3.675214e+01	-9.269358e+00
3.696442e+01	-9.312797e+00
3.717792e+01	-9.357659e+00
3.739266e+01	-9.401671e+00
3.760864e+01	-9.445716e+00
3.782587e+01	-9.491117e+00
3.804435e+01	-9.535188e+00
3.826409e+01	-9.579525e+00
3.848510e+01	-9.624188e+00
3.870739e+01	-9.668697e+00
3.893096e+01	-9.713120e+00
3.915583e+01	-9.757611e+00
3.938199e+01	-9.802722e+00
3.960946e+01	-9.847818e+00
3.983824e+01	-9.892723e+00
4.006834e+01	-9.937206e+00
4.029978e+01	-9.982159e+00
4.053255e+01	-1.002718e+01
4.076666e+01	-1.007273e+01
4.100213e+01	-1.011747e+01
4.123896e+01	-1.016272e+01
4.147715e+01	-1.020801e+01
4.171672e+01	-1.025330e+01
4.195767e+01	-1.029838e+01
4.220002e+01	-1.034372e+01
4.244377e+01	-1.038911e+01
4.268892e+01	-1.043478e+01
4.293549e+01	-1.048029e+01
4.318348e+01	-1.052599e+01
4.343291e+01	-1.057141e+01
4.368377e+01	-1.061704e+01
4.393609e+01	-1.066197e+01
4.418986e+01	-1.070921e+01
4.444510e+01	-1.075428e+01
4.470182e+01	-1.080001e+01
4.496001e+01	-1.084571e+01
4.521970e+01	-1.089200e+01
4.548089e+01	-1.093754e+01
4.574358e+01	-1.098422e+01
4.600779e+01	-1.103026e+01
4.627353e+01	-1.107586e+01
4.654081e+01	-1.112264e+01
4.680963e+01	-1.116868e+01
4.708000e+01	-1.121488e+01
4.735193e+01	-1.126117e+01
4.762543e+01	-1.130654e+01
4.790051e+01	-1.135340e+01
4.817719e+01	-1.140039e+01
4.845545e+01	-1.144653e+01
4.873533e+01	-1.149318e+01
4.901682e+01	-1.153934e+01
4.929994e+01	-1.158605e+01
4.958470e+01	-1.163252e+01
4.987110e+01	-1.167914e+01
5.015915e+01	-1.172612e+01
5.044887e+01	-1.177241e+01
5.074026e+01	-1.181947e+01
5.103333e+01	-1.186575e+01
5.132810e+01	-1.191291e+01
5.162457e+01	-1.195949e+01
5.192275e+01	-1.200613e+01
5.222265e+01	-1.205321e+01
5.252429e+01	-1.210071e+01
5.282767e+01	-1.214779e+01
5.313280e+01	-1.219439e+01
5.343969e+01	-1.224082e+01
5.374836e+01	-1.228859e+01
5.405880e+01	-1.233469e+01
5.437105e+01	-1.238243e+01
5.468509e+01	-1.242907e+01
5.500095e+01	-1.247655e+01
5.531863e+01	-1.252376e+01
5.563815e+01	-1.257136e+01
5.595951e+01	-1.261781e+01
5.628273e+01	-1.266561e+01
5.660782e+01	-1.271334e+01
5.693479e+01	-1.276029e+01
5.726364e+01	-1.280841e+01
5.759439e+01	-1.285595e+01
5.792705e+01	-1.290299e+01
5.826164e+01	-1.295034e+01
5.859815e+01	-1.299762e+01
5.893662e+01	-1.304570e+01
5.927703e+01	-1.309274e+01
5.961941e+01	-1.314068e+01
5.996377e+01	-1.318768e+01
6.031012e+01	-1.323485e+01
6.065847e+01	-1.328331e+01
6.100883e+01	-1.333101e+01
6.136121e+01	-1.337911e+01
6.171563e+01	-1.342612e+01
6.207210e+01	-1.347387e+01
6.243063e+01	-1.352201e+01
6.279122e+01	-1.356973e+01
6.315390e+01	-1.361815e+01
6.351868e+01	-1.366524e+01
6.388556e+01	-1.371401e+01
6.425456e+01	-1.376188e+01
6.462569e+01	-1.380951e+01
6.499897e+01	-1.385732e+01
6.537440e+01	-1.390491e+01
6.575200e+01	-1.395371e+01
6.613178e+01	-1.400133e+01
6.651375e+01	-1.404938e+01
6.689793e+01	-1.409708e+01
6.728433e+01	-1.414579e+01
6.767297e+01	-1.419428e+01
6.806384e+01	-1.424224e+01
6.845698e+01	-1.428959e+01
6.885238e+01	-1.433871e+01
6.925007e+01	-1.438571e+01
6.965005e+01	-1.443416e+01
7.005235e+01	-1.448263e+01
7.045697e+01	-1.453094e+01
7.086393e+01	-1.457952e+01
7.127323e+01	-1.462731e+01
7.168490e+01	-1.467632e+01
7.209895e+01	-1.472527e+01
7.251539e+01	-1.477283e+01
7.293424e+01	-1.482079e+01
7.335551e+01	-1.486887e+01
7.377920e+01	-1.491835e+01
7.420535e+01	-1.496661e+01
7.463396e+01	-1.501475e+01
7.506504e+01	-1.506313e+01
7.549861e+01	-1.511209e+01
7.593469e+01	-1.516154e+01
7.637328e+01	-1.520916e+01
7.681441e+01	-1.525683e+01
7.725809e+01	-1.530553e+01
7.770433e+01	-1.535442e+01
7.815315e+01	-1.540300e+01
7.860456e+01	-1.545233e+01
7.905857e+01	-1.550029e+01
7.951521e+01	-1.554926e+01
7.997449e+01	-1.559712e+01
8.043642e+01	-1.564594e+01
8.090102e+01	-1.569375e+01
8.136830e+01	-1.574271e+01
8.183828e+01	-1.579189e+01
8.231097e+01	-1.584033e+01
8.278640e+01	-1.588915e+01
8.326457e+01	-1.593837e+01
8.374550e+01	-1.598595e+01
8.422921e+01	-1.603623e+01
8.471572e+01	-1.608412e+01
8.520503e+01	-1.613411e+01
8.569717e+01	-1.618264e+01
8.619215e+01	-1.623183e+01
8.669000e+01	-1.627889e+01
8.719071e+01	-1.632865e+01
8.769432e+01	-1.637722e+01
8.820084e+01	-1.642527e+01
8.871029e+01	-1.647548e+01
8.922267e+01	-1.652366e+01
8.973802e+01	-1.657376e+01
9.025634e+01	-1.662301e+01
9.077766e+01	-1.667122e+01
9.130199e+01	-1.671993e+01
9.182935e+01	-1.676875e+01
9.235975e+01	-1.681738e+01
9.289321e+01	-1.686709e+01
9.342976e+01	-1.691531e+01
9.396941e+01	-1.696608e+01
9.451217e+01	-1.701378e+01
9.505807e+01	-1.706276e+01
9.560712e+01	-1.711206e+01
9.615934e+01	-1.716281e+01
9.671476e+01	-1.721049e+01
9.727338e+01	-1.725942e+01
9.783522e+01	-1.730911e+01
9.840032e+01	-1.735752e+01
9.896867e+01	-1.740546e+01
9.954031e+01	-1.745599e+01
1.001153e+02	-1.750470e+01
1.006935e+02	-1.755437e+01
1.012751e+02	-1.760305e+01
1.018601e+02	-1.765261e+01
1.024484e+02	-1.770096e+01
1.030402e+02	-1.775205e+01
1.036353e+02	-1.779861e+01
1.042339e+02	-1.785012e+01
1.048360e+02	-1.789904e+01
1.054415e+02	-1.794712e+01
1.060505e+02	-1.799631e+01
1.066631e+02	-1.804677e+01
1.072791e+02	-1.809390e+01
1.078988e+02	-1.814441e+01
1.085220e+02	-1.819386e+01
1.091488e+02	-1.824345e+01
1.097793e+02	-1.829162e+01
1.104133e+02	-1.834166e+01
1.110511e+02	-1.839118e+01
1.116925e+02	-1.844150e+01
1.123376e+02	-1.848874e+01
1.129865e+02	-1.853850e+01
1.136391e+02	-1.858990e+01
1.142955e+02	-1.863716e+01
1.149556e+02	-1.868737e+01
1.156196e+02	-1.873655e+01
1.162874e+02	-1.878669e+01
1.169591e+02	-1.883465e+01
1.176347e+02	-1.888520e+01
1.183141e+02	-1.893355e+01
1.189975e+02	-1.898381e+01
1.196848e+02	-1.903317e+01
1.203761e+02	-1.908158e+01
1.210714e+02	-1.913044e+01
1.217707e+02	-1.917975e+01
1.224740e+02	-1.923005e+01
1.231814e+02	-1.928212e+01
1.238929e+02	-1.933045e+01
1.246085e+02	-1.937855e+01
1.253283e+02	-1.942799e+01
1.260522e+02	-1.947837e+01
1.267802e+02	-1.952623e+01
1.275125e+02	-1.957568e+01
1.282490e+02	-1.962660e+01
1.289898e+02	-1.967775e+01
1.297348e+02	-1.972574e+01
1.304842e+02	-1.977401e+01
1.312378e+02	-1.982408e+01
1.319959e+02	-1.987367e+01
1.327583e+02	-1.992315e+01
1.335251e+02	-1.997307e+01
1.342963e+02	-2.002303e+01
1.350720e+02	-2.007220e+01
1.358522e+02	-2.011923e+01
1.366368e+02	-2.016996e+01
1.374260e+02	-2.021959e+01
1.382198e+02	-2.026935e+01
1.390182e+02	-2.031930e+01
1.398211e+02	-2.036860e+01
1.406287e+02	-2.041818e+01
1.414410e+02	-2.046797e+01
1.422579e+02	-2.051925e+01
1.430796e+02	-2.056984e+01
1.439060e+02	-2.061612e+01
1.447372e+02	-2.066750e+01
1.455732e+02	-2.071506e+01
1.464141e+02	-2.076897e+01
1.472597e+02	-2.081450e+01
1.481103e+02	-2.086311e+01
1.489658e+02	-2.091525e+01
1.498262e+02	-2.096494e+01
1.506916e+02	-2.101483e+01
1.515620e+02	-2.106559e+01
1.524374e+02	-2.111367e+01
1.533179e+02	-2.116347e+01
1.542034e+02	-2.121231e+01
1.550941e+02	-2.126264e+01
1.559899e+02	-2.131114e+01
1.568909e+02	-2.136303e+01
1.577971e+02	-2.141318e+01
1.587085e+02	-2.146333e+01
1.596252e+02	-2.151163e+01
1.605472e+02	-2.156056e+01
1.614745e+02	-2.161161e+01
1.624072e+02	-2.166008e+01
1.633453e+02	-2.170871e+01
1.642887e+02	-2.175987e+01
1.652377e+02	-2.180961e+01
1.661921e+02	-2.185769e+01
1.671520e+02	-2.190996e+01
1.681175e+02	-2.195946e+01
1.690885e+02	-2.200880e+01
1.700651e+02	-2.205808e+01
1.710474e+02	-2.210684e+01
1.720354e+02	-2.215718e+01
1.730291e+02	-2.220712e+01
1.740285e+02	-2.225763e+01
1.750337e+02	-2.230777e+01
1.760446e+02	-2.235750e+01
1.770615e+02	-2.240595e+01
1.780842e+02	-2.245598e+01
1.791128e+02	-2.250576e+01
1.801473e+02	-2.255384e+01
1.811878e+02	-2.260400e+01
1.822344e+02	-2.265649e+01
1.832870e+02	-2.270517e+01
1.843456e+02	-2.275470e+01
1.854104e+02	-2.280497e+01
1.864813e+02	-2.285482e+01
1.875584e+02	-2.290370e+01
1.886418e+02	-2.295394e+01
1.897313e+02	-2.300225e+01
1.908272e+02	-2.305224e+01
1.919294e+02	-2.310242e+01
1.930380e+02	-2.315296e+01
1.941530e+02	-2.320131e+01
1.952744e+02	-2.325289e+01
1.964023e+02	-2.330149e+01
1.975367e+02	-2.335211e+01
1.986777e+02	-2.340132e+01
1.998252e+02	-2.345128e+01
2.009794e+02	-2.350009e+01
2.021403e+02	-2.354978e+01
2.033078e+02	-2.360229e+01
2.044821e+02	-2.365023e+01
2.056632e+02	-2.370308e+01
2.068511e+02	-2.375229e+01
2.080459e+02	-2.380204e+01
2.092475e+02	-2.385186e+01
2.104561e+02	-2.389895e+01
2.116717e+02	-2.394882e+01
2.128943e+02	-2.400090e+01
2.141240e+02	-2.404954e+01
2.153608e+02	-2.410185e+01
2.166047e+02	-2.415057e+01
2.178558e+02	-2.420063e+01
2.191141e+02	-2.424775e+01
2.203797e+02	-2.429917e+01
2.216526e+02	-2.434992e+01
2.229329e+02	-2.439841e+01
2.242205e+02	-2.444854e+01
2.255156e+02	-2.449856e+01
2.268182e+02	-2.454855e+01
2.281283e+02	-2.459822e+01
2.294459e+02	-2.464900e+01
2.307712e+02	-2.470005e+01
2.321041e+02	-2.474805e+01
2.334447e+02	-2.479801e+01
2.347931e+02	-2.484773e+01
2.361493e+02	-2.489604e+01
2.375133e+02	-2.494886e+01
2.388851e+02	-2.499513e+01
2.402649e+02	-2.504643e+01
2.416527e+02	-2.509810e+01
2.430484e+02	-2.514621e+01
2.444523e+02	-2.519946e+01
2.458642e+02	-2.524881e+01
2.472843e+02	-2.529580e+01
2.487126e+02	-2.534534e+01
2.501492e+02	-2.539786e+01
2.515940e+02	-2.544739e+01
2.530472e+02	-2.549571e+01
2.545088e+02	-2.555002e+01
2.559789e+02	-2.559568e+01
2.574574e+02	-2.565070e+01
2.589444e+02	-2.569586e+01
2.604401e+02	-2.574498e+01
2.619444e+02	-2.579871e+01
2.634574e+02	-2.584707e+01
2.649791e+02	-2.589674e+01
2.665096e+02	-2.594629e+01
2.680489e+02	-2.599717e+01
2.695972e+02	-2.604881e+01
2.711544e+02	-2.609331e+01
2.727205e+02	-2.614834e+01
2.742958e+02	-2.619760e+01
2.758801e+02	-2.624605e+01
2.774736e+02	-2.629940e+01
2.790762e+02	-2.634922e+01
2.806882e+02	-2.639882e+01
2.823094e+02	-2.644590e+01
2.839400e+02	-2.649420e+01
2.855800e+02	-2.654940e+01
2.872295e+02	-2.659533e+01
2.888886e+02	-2.664904e+01
2.905572e+02	-2.669291e+01
2.922354e+02	-2.674803e+01
2.939234e+02	-2.679911e+01
2.956211e+02	-2.684509e+01
2.973286e+02	-2.689372e+01
2.990459e+02	-2.694497e+01
3.007732e+02	-2.699452e+01
3.025104e+02	-2.704532e+01
3.042577e+02	-2.709607e+01
3.060151e+02	-2.714826e+01
3.077826e+02	-2.719516e+01
3.095604e+02	-2.724435e+01
3.113484e+02	-2.729570e+01
3.131467e+02	-2.734735e+01
3.149554e+02	-2.739425e+01
3.167746e+02	-2.744677e+01
3.186043e+02	-2.749512e+01
3.204445e+02	-2.754300e+01
3.222954e+02	-2.759685e+01
3.241570e+02	-2.764357e+01
3.260293e+02	-2.769470e+01
3.279124e+02	-2.774738e+01
3.298064e+02	-2.779532e+01
3.317114e+02	-2.784816e+01
3.336273e+02	-2.789740e+01
3.355544e+02	-2.794785e+01
3.374925e+02	-2.799597e+01
3.394418e+02	-2.804372e+01
3.414024e+02	-2.809628e+01
3.433744e+02	-2.814608e+01
3.453577e+02	-2.819599e+01
3.473525e+02	-2.824816e+01
3.493588e+02	-2.829908e+01
3.513766e+02	-2.834808e+01
3.534062e+02	-2.839589e+01
3.554474e+02	-2.844672e+01
3.575005e+02	-2.849508e+01
3.595654e+02	-2.854717e+01
3.616422e+02	-2.859869e+01
3.637311e+02	-2.865097e+01
3.658320e+02	-2.869485e+01
3.679450e+02	-2.874799e+01
3.700702e+02	-2.879558e+01
3.722077e+02	-2.884318e+01
3.743576e+02	-2.889727e+01
3.765199e+02	-2.894684e+01
3.786946e+02	-2.899390e+01
3.808820e+02	-2.904731e+01
3.830819e+02	-2.909915e+01
3.852946e+02	-2.915157e+01
3.875200e+02	-2.919569e+01
3.897583e+02	-2.924805e+01
3.920096e+02	-2.929844e+01
3.942738e+02	-2.934603e+01
3.965511e+02	-2.940187e+01
3.988416e+02	-2.944714e+01
4.011452e+02	-2.949617e+01
4.034622e+02	-2.955033e+01
4.057926e+02	-2.960117e+01
4.081365e+02	-2.964683e+01
4.104938e+02	-2.970159e+01
4.128648e+02	-2.975067e+01
4.152495e+02	-2.980057e+01
4.176480e+02	-2.984717e+01
4.200603e+02	-2.990521e+01
4.224866e+02	-2.995014e+01
4.249268e+02	-2.999552e+01
4.273812e+02	-3.004449e+01
4.298497e+02	-3.009791e+01
4.323325e+02	-3.015073e+01
4.348297e+02	-3.020299e+01
4.373412e+02	-3.025390e+01
4.398673e+02	-3.030083e+01
4.424079e+02	-3.035592e+01
4.449633e+02	-3.040438e+01
4.475334e+02	-3.045236e+01
4.501183e+02	-3.050168e+01
4.527182e+02	-3.054762e+01
4.553330e+02	-3.060019e+01
4.579630e+02	-3.065221e+01
4.606082e+02	-3.069829e+01
4.632687e+02	-3.074794e+01
4.659445e+02	-3.080316e+01
4.686358e+02	-3.085286e+01
4.713426e+02	-3.089880e+01
4.740650e+02	-3.095069e+01
4.768032e+02	-3.100366e+01
4.795572e+02	-3.104868e+01
4.823271e+02	-3.110066e+01
4.851130e+02	-3.115867e+01
4.879150e+02	-3.120395e+01
4.907332e+02	-3.125731e+01
4.935676e+02	-3.130109e+01
4.964185e+02	-3.134774e+01
4.992858e+02	-3.140078e+01
5.021696e+02	-3.145334e+01
5.050701e+02	-3.149842e+01
5.079874e+02	-3.155431e+01
5.109215e+02	-3.160377e+01
5.138726e+02	-3.165094e+01
5.168407e+02	-3.170419e+01
5.198259e+02	-3.175460e+01
5.228284e+02	-3.180447e+01
5.258482e+02	-3.185023e+01
5.288855e+02	-3.190374e+01
5.319403e+02	-3.195927e+01
5.350128e+02	-3.200347e+01
5.381030e+02	-3.206094e+01
5.412111e+02	-3.210377e+01
5.443371e+02	-3.215636e+01
5.474812e+02	-3.220638e+01
5.506434e+02	-3.225510e+01
5.538239e+02	-3.230575e+01
5.570228e+02	-3.235677e+01
5.602401e+02	-3.240998e+01
5.634760e+02	-3.245688e+01
5.667306e+02	-3.250822e+01
5.700040e+02	-3.256431e+01
5.732964e+02	-3.261311e+01
5.766077e+02	-3.265612e+01
5.799382e+02	-3.271296e+01
5.832879e+02	-3.275971e+01
5.866569e+02	-3.281640e+01
5.900454e+02	-3.285764e+01
5.934535e+02	-3.290525e+01
5.968813e+02	-3.296315e+01
6.003288e+02	-3.301243e+01
6.037963e+02	-3.305388e+01
6.072838e+02	-3.310731e+01
6.107914e+02	-3.316201e+01
6.143194e+02	-3.320789e+01
6.178676e+02	-3.325853e+01
6.214364e+02	-3.331173e+01
6.250258e+02	-3.336713e+01
6.286359e+02	-3.340947e+01
6.322669e+02	-3.345940e+01
6.359189e+02	-3.351595e+01
6.395919e+02	-3.355785e+01
6.432862e+02	-3.361389e+01
6.470017e+02	-3.366207e+01
6.507388e+02	-3.371760e+01
6.544974e+02	-3.376719e+01
6.582778e+02	-3.381678e+01
6.620800e+02	-3.386391e+01
6.659041e+02	-3.392129e+01
6.697504e+02	-3.396960e+01
6.736188e+02	-3.401432e+01
6.775096e+02	-3.407282e+01
6.814229e+02	-3.411991e+01
6.853587e+02	-3.416588e+01
6.893173e+02	-3.421639e+01
6.932988e+02	-3.426364e+01
6.973033e+02	-3.431748e+01
7.013309e+02	-3.437658e+01
