Frequency(Hz)	Magnitude(dB)
1.000000e+01	-1.904857e+00
1.005776e+01	-1.922497e+00
1.011585e+01	-1.940590e+00
1.017428e+01	-1.958527e+00
1.023305e+01	-1.976682e+00
1.029215e+01	-1.995151e+00
1.035160e+01	-2.013783e+00
1.041139e+01	-2.032481e+00
1.047153e+01	-2.051033e+00
1.053201e+01	-2.069694e+00
1.059284e+01	-2.088917e+00
1.065403e+01	-2.108145e+00
1.071556e+01	-2.127650e+00
1.077746e+01	-2.146883e+00
1.083971e+01	-2.166522e+00
1.090232e+01	-2.186233e+00
1.096529e+01	-2.206115e+00
1.102862e+01	-2.225971e+00
1.109232e+01	-2.246246e+00
1.115639e+01	-2.266691e+00
1.122083e+01	-2.286886e+00
1.128564e+01	-2.307283e+00
1.135083e+01	-2.328143e+00
1.141639e+01	-2.348853e+00
1.148233e+01	-2.370017e+00
1.154865e+01	-2.391037e+00
1.161536e+01	-2.412185e+00
1.168245e+01	-2.433609e+00
1.174992e+01	-2.455254e+00
1.181779e+01	-2.476737e+00
1.188605e+01	-2.498473e+00
1.195470e+01	-2.520799e+00
1.202375e+01	-2.542784e+00
1.209320e+01	-2.565016e+00
1.216305e+01	-2.587601e+00
1.223330e+01	-2.609825e+00
1.230396e+01	-2.632643e+00
1.237503e+01	-2.655517e+00
1.244651e+01	-2.678277e+00
1.251840e+01	-2.701507e+00
1.259070e+01	-2.724604e+00
1.266343e+01	-2.748064e+00
1.273657e+01	-2.771560e+00
1.281014e+01	-2.795196e+00
1.288413e+01	-2.818993e+00
1.295855e+01	-2.842861e+00
1.303339e+01	-2.867283e+00
1.310867e+01	-2.891505e+00
1.318439e+01	-2.915820e+00
1.326054e+01	-2.940322e+00
1.333713e+01	-2.964964e+00
1.341417e+01	-2.989746e+00
1.349165e+01	-3.014653e+00
1.356958e+01	-3.039857e+00
1.364795e+01	-3.065399e+00
1.372678e+01	-3.090660e+00
1.380607e+01	-3.116160e+00
1.388581e+01	-3.141783e+00
1.396602e+01	-3.167733e+00
1.404668e+01	-3.193547e+00
1.412782e+01	-3.219782e+00
1.420942e+01	-3.246171e+00
1.429149e+01	-3.272226e+00
1.437404e+01	-3.298751e+00
1.445706e+01	-3.325477e+00
1.454057e+01	-3.352321e+00
1.462455e+01	-3.379085e+00
1.470902e+01	-3.406696e+00
1.479398e+01	-3.433707e+00
1.487943e+01	-3.461001e+00
1.496537e+01	-3.488793e+00
1.505181e+01	-3.516406e+00
1.513875e+01	-3.544197e+00
1.522619e+01	-3.572280e+00
1.531414e+01	-3.600547e+00
1.540259e+01	-3.628457e+00
1.549156e+01	-3.657019e+00
1.558103e+01	-3.685822e+00
1.567103e+01	-3.714200e+00
1.576155e+01	-3.743041e+00
1.585258e+01	-3.772196e+00
1.594415e+01	-3.801077e+00
1.603624e+01	-3.830484e+00
1.612886e+01	-3.859854e+00
1.622202e+01	-3.889557e+00
1.631572e+01	-3.918909e+00
1.640996e+01	-3.948809e+00
1.650474e+01	-3.978831e+00
1.660008e+01	-4.008758e+00
1.669596e+01	-4.038953e+00
1.679239e+01	-4.069108e+00
1.688938e+01	-4.099681e+00
1.698694e+01	-4.130576e+00
1.708505e+01	-4.161361e+00
1.718373e+01	-4.192117e+00
1.728299e+01	-4.223088e+00
1.738281e+01	-4.254732e+00
1.748322e+01	-4.285816e+00
1.758420e+01	-4.317046e+00
1.768576e+01	-4.348768e+00
1.778792e+01	-4.380538e+00
1.789066e+01	-4.412509e+00
1.799399e+01	-4.444194e+00
1.809793e+01	-4.476259e+00
1.820246e+01	-4.508604e+00
1.830760e+01	-4.540874e+00
1.841334e+01	-4.573325e+00
1.851969e+01	-4.606283e+00
1.862666e+01	-4.639070e+00
1.873425e+01	-4.671997e+00
1.884246e+01	-4.705046e+00
1.895129e+01	-4.737983e+00
1.906075e+01	-4.771320e+00
1.917085e+01	-4.804562e+00
1.928158e+01	-4.838072e+00
1.939295e+01	-4.871785e+00
1.950496e+01	-4.905595e+00
1.961762e+01	-4.939904e+00
1.973093e+01	-4.973851e+00
1.984490e+01	-5.008087e+00
1.995952e+01	-5.042267e+00
2.007480e+01	-5.076345e+00
2.019076e+01	-5.111028e+00
2.030738e+01	-5.146031e+00
2.042467e+01	-5.180543e+00
2.054264e+01	-5.215388e+00
2.066130e+01	-5.250376e+00
2.078064e+01	-5.285730e+00
2.090066e+01	-5.321036e+00
2.102139e+01	-5.356399e+00
2.114280e+01	-5.391748e+00
2.126492e+01	-5.427394e+00
2.138775e+01	-5.463292e+00
2.151128e+01	-5.498871e+00
2.163553e+01	-5.535145e+00
2.176050e+01	-5.571329e+00
2.188619e+01	-5.607614e+00
2.201260e+01	-5.643226e+00
2.213974e+01	-5.680417e+00
2.226762e+01	-5.716780e+00
2.239624e+01	-5.753395e+00
2.252560e+01	-5.789965e+00
2.265571e+01	-5.827063e+00
2.278656e+01	-5.864157e+00
2.291818e+01	-5.901293e+00
2.305055e+01	-5.938592e+00
2.318369e+01	-5.975614e+00
2.331760e+01	-6.013090e+00
2.345228e+01	-6.050435e+00
2.358774e+01	-6.088303e+00
2.372398e+01	-6.125962e+00
2.386101e+01	-6.163984e+00
2.399883e+01	-6.201960e+00
2.413745e+01	-6.240175e+00
2.427686e+01	-6.278093e+00
2.441709e+01	-6.316387e+00
2.455812e+01	-6.354874e+00
2.469997e+01	-6.393731e+00
2.484263e+01	-6.431985e+00
2.498612e+01	-6.470541e+00
2.513044e+01	-6.509717e+00
2.527559e+01	-6.548486e+00
2.542158e+01	-6.587611e+00
2.556842e+01	-6.626315e+00
2.571610e+01	-6.665852e+00
2.586463e+01	-6.705061e+00
2.601403e+01	-6.744721e+00
2.616428e+01	-6.783918e+00
2.631541e+01	-6.823398e+00
2.646740e+01	-6.863622e+00
2.662028e+01	-6.902761e+00
2.677404e+01	-6.943116e+00
2.692868e+01	-6.982887e+00
2.708422e+01	-7.022932e+00
2.724066e+01	-7.062997e+00
2.739800e+01	-7.103435e+00
2.755625e+01	-7.143651e+00
2.771541e+01	-7.183988e+00
2.787550e+01	-7.224480e+00
2.803650e+01	-7.265190e+00
2.819844e+01	-7.306008e+00
2.836131e+01	-7.346432e+00
2.852513e+01	-7.387364e+00
2.868989e+01	-7.428231e+00
2.885560e+01	-7.469186e+00
2.902227e+01	-7.510255e+00
2.918990e+01	-7.551666e+00
2.935850e+01	-7.592783e+00
2.952807e+01	-7.634086e+00
2.969863e+01	-7.675851e+00
2.987016e+01	-7.717061e+00
3.004269e+01	-7.758745e+00
3.021622e+01	-7.800498e+00
3.039075e+01	-7.842061e+00
3.056628e+01	-7.883965e+00
3.074283e+01	-7.925933e+00
3.092040e+01	-7.967723e+00
3.109900e+01	-8.010128e+00
3.127862e+01	-8.052286e+00
3.145929e+01	-8.094203e+00
3.164099e+01	-8.136948e+00
3.182375e+01	-8.179157e+00
3.200756e+01	-8.221595e+00
3.219244e+01	-8.264113e+00
3.237838e+01	-8.306995e+00
3.256540e+01	-8.349838e+00
3.275349e+01	-8.392470e+00
3.294268e+01	-8.434858e+00
3.313295e+01	-8.478014e+00
3.332433e+01	-8.520855e+00
3.351681e+01	-8.563716e+00
3.371040e+01	-8.606784e+00
3.390511e+01	-8.650146e+00
3.410094e+01	-8.693412e+00
3.429791e+01	-8.736439e+00
3.449601e+01	-8.779965e+00
3.469526e+01	-8.823830e+00
3.489566e+01	-8.866654e+00
3.509721e+01	-8.910681e+00
3.529993e+01	-8.954225e+00
3.550382e+01	-8.997925e+00
3.570889e+01	-9.042032e+00
3.591515e+01	-9.085283e+00
3.612259e+01	-9.129165e+00
3.633123e+01	-9.173263e+00
3.654108e+01	-9.217180e+00
3.675214e+01	-9.261658e+00
3.696442e+01	-9.305464e+00
3.717792e+01	-9.349339e+00
3.739266e+01	-9.393648e+00
3.760864e+01	-9.437950e+00
3.782587e+01	-9.482141e+00
3.804435e+01	-9.527058e+00
3.826409e+01	-9.571370e+00
3.848510e+01	-9.615894e+00
3.870739e+01	-9.660201e+00
3.893096e+01	-9.705604e+00
3.915583e+01	-9.750169e+00
3.938199e+01	-9.794216e+00
3.960946e+01	-9.839311e+00
3.983824e+01	-9.885174e+00
4.006834e+01	-9.928720e+00
4.029978e+01	-9.973863e+00
4.053255e+01	-1.001984e+01
4.076666e+01	-1.006453e+01
4.100213e+01	-1.010928e+01
4.123896e+01	-1.015478e+01
4.147715e+01	-1.020003e+01
4.171672e+01	-1.024529e+01
4.195767e+01	-1.029044e+01
4.220002e+01	-1.033562e+01
4.244377e+01	-1.038108e+01
4.268892e+01	-1.042613e+01
4.293549e+01	-1.047185e+01
4.318348e+01	-1.051745e+01
4.343291e+01	-1.056307e+01
4.368377e+01	-1.060883e+01
4.393609e+01	-1.065466e+01
4.418986e+01	-1.070079e+01
4.444510e+01	-1.074558e+01
4.470182e+01	-1.079199e+01
4.496001e+01	-1.083736e+01
4.521970e+01	-1.088383e+01
4.548089e+01	-1.092927e+01
4.574358e+01	-1.097592e+01
4.600779e+01	-1.102134e+01
4.627353e+01	-1.106778e+01
4.654081e+01	-1.111374e+01
4.680963e+01	-1.115995e+01
4.708000e+01	-1.120613e+01
4.735193e+01	-1.125261e+01
4.762543e+01	-1.129896e+01
4.790051e+01	-1.134461e+01
4.817719e+01	-1.139218e+01
4.845545e+01	-1.143778e+01
4.873533e+01	-1.148538e+01
4.901682e+01	-1.153147e+01
4.929994e+01	-1.157746e+01
4.958470e+01	-1.162426e+01
4.987110e+01	-1.167072e+01
5.015915e+01	-1.171732e+01
5.044887e+01	-1.176399e+01
5.074026e+01	-1.181060e+01
5.103333e+01	-1.185789e+01
5.132810e+01	-1.190470e+01
5.162457e+01	-1.195098e+01
5.192275e+01	-1.199861e+01
5.222265e+01	-1.204529e+01
5.252429e+01	-1.209165e+01
5.282767e+01	-1.213868e+01
5.313280e+01	-1.218571e+01
5.343969e+01	-1.223219e+01
5.374836e+01	-1.228025e+01
5.405880e+01	-1.232692e+01
5.437105e+01	-1.237373e+01
5.468509e+01	-1.242066e+01
5.500095e+01	-1.246828e+01
5.531863e+01	-1.251619e+01
5.563815e+01	-1.256319e+01
5.595951e+01	-1.260999e+01
5.628273e+01	-1.265726e+01
5.660782e+01	-1.270469e+01
5.693479e+01	-1.275167e+01
5.726364e+01	-1.280004e+01
5.759439e+01	-1.284685e+01
5.792705e+01	-1.289436e+01
5.826164e+01	-1.294234e+01
5.859815e+01	-1.298935e+01
5.893662e+01	-1.303683e+01
5.927703e+01	-1.308418e+01
5.961941e+01	-1.313223e+01
5.996377e+01	-1.318000e+01
6.031012e+01	-1.322703e+01
6.065847e+01	-1.327497e+01
6.100883e+01	-1.332290e+01
6.136121e+01	-1.337071e+01
6.171563e+01	-1.341727e+01
6.207210e+01	-1.346566e+01
6.243063e+01	-1.351376e+01
6.279122e+01	-1.356200e+01
6.315390e+01	-1.360935e+01
6.351868e+01	-1.365792e+01
6.388556e+01	-1.370526e+01
6.425456e+01	-1.375176e+01
6.462569e+01	-1.380089e+01
6.499897e+01	-1.384875e+01
6.537440e+01	-1.389730e+01
6.575200e+01	-1.394424e+01
6.613178e+01	-1.399287e+01
6.651375e+01	-1.404116e+01
6.689793e+01	-1.408865e+01
6.728433e+01	-1.413723e+01
6.767297e+01	-1.418523e+01
6.806384e+01	-1.423314e+01
6.845698e+01	-1.428131e+01
6.885238e+01	-1.432933e+01
6.925007e+01	-1.437731e+01
6.965005e+01	-1.442708e+01
7.005235e+01	-1.447354e+01
7.045697e+01	-1.452275e+01
7.086393e+01	-1.457060e+01
7.127323e+01	-1.461875e+01
7.168490e+01	-1.466793e+01
7.209895e+01	-1.471671e+01
7.251539e+01	-1.476380e+01
7.293424e+01	-1.481301e+01
7.335551e+01	-1.486080e+01
7.377920e+01	-1.490911e+01
7.420535e+01	-1.495852e+01
7.463396e+01	-1.500606e+01
7.506504e+01	-1.505402e+01
7.549861e+01	-1.510250e+01
7.593469e+01	-1.515189e+01
7.637328e+01	-1.520027e+01
7.681441e+01	-1.524777e+01
7.725809e+01	-1.529763e+01
7.770433e+01	-1.534499e+01
7.815315e+01	-1.539490e+01
7.860456e+01	-1.544347e+01
7.905857e+01	-1.549161e+01
7.951521e+01	-1.553918e+01
7.997449e+01	-1.558820e+01
8.043642e+01	-1.563771e+01
8.090102e+01	-1.568621e+01
8.136830e+01	-1.573424e+01
8.183828e+01	-1.578319e+01
8.231097e+01	-1.583240e+01
8.278640e+01	-1.588141e+01
8.326457e+01	-1.592914e+01
8.374550e+01	-1.597869e+01
8.422921e+01	-1.602754e+01
8.471572e+01	-1.607573e+01
8.520503e+01	-1.612474e+01
8.569717e+01	-1.617377e+01
8.619215e+01	-1.622252e+01
8.669000e+01	-1.627151e+01
8.719071e+01	-1.631979e+01
8.769432e+01	-1.636827e+01
8.820084e+01	-1.641748e+01
8.871029e+01	-1.646677e+01
8.922267e+01	-1.651570e+01
8.973802e+01	-1.656520e+01
9.025634e+01	-1.661326e+01
9.077766e+01	-1.666245e+01
9.130199e+01	-1.671034e+01
9.182935e+01	-1.675938e+01
9.235975e+01	-1.681015e+01
9.289321e+01	-1.685872e+01
9.342976e+01	-1.690770e+01
9.396941e+01	-1.695766e+01
9.451217e+01	-1.700571e+01
9.505807e+01	-1.705413e+01
9.560712e+01	-1.710259e+01
9.615934e+01	-1.715276e+01
9.671476e+01	-1.720046e+01
9.727338e+01	-1.725121e+01
9.783522e+01	-1.730096e+01
9.840032e+01	-1.734781e+01
9.896867e+01	-1.739824e+01
9.954031e+01	-1.744673e+01
1.001153e+02	-1.749589e+01
1.006935e+02	-1.754587e+01
1.012751e+02	-1.759333e+01
1.018601e+02	-1.764347e+01
1.024484e+02	-1.769413e+01
1.030402e+02	-1.774358e+01
1.036353e+02	-1.779108e+01
1.042339e+02	-1.784066e+01
1.048360e+02	-1.788799e+01
1.054415e+02	-1.793889e+01
1.060505e+02	-1.798845e+01
1.066631e+02	-1.803811e+01
1.072791e+02	-1.808651e+01
1.078988e+02	-1.813664e+01
1.085220e+02	-1.818434e+01
1.091488e+02	-1.823365e+01
1.097793e+02	-1.828350e+01
1.104133e+02	-1.833269e+01
1.110511e+02	-1.838147e+01
1.116925e+02	-1.843279e+01
1.123376e+02	-1.848104e+01
1.129865e+02	-1.852983e+01
1.136391e+02	-1.858066e+01
1.142955e+02	-1.862785e+01
1.149556e+02	-1.867945e+01
1.156196e+02	-1.872790e+01
1.162874e+02	-1.877621e+01
1.169591e+02	-1.882632e+01
1.176347e+02	-1.887743e+01
1.183141e+02	-1.892590e+01
1.189975e+02	-1.897449e+01
1.196848e+02	-1.902395e+01
1.203761e+02	-1.907307e+01
1.210714e+02	-1.912189e+01
1.217707e+02	-1.917270e+01
1.224740e+02	-1.922177e+01
1.231814e+02	-1.927079e+01
1.238929e+02	-1.932110e+01
1.246085e+02	-1.936998e+01
1.253283e+02	-1.941992e+01
1.260522e+02	-1.946889e+01
1.267802e+02	-1.951734e+01
1.275125e+02	-1.956769e+01
1.282490e+02	-1.961607e+01
1.289898e+02	-1.966702e+01
1.297348e+02	-1.971664e+01
1.304842e+02	-1.976560e+01
1.312378e+02	-1.981506e+01
1.319959e+02	-1.986404e+01
1.327583e+02	-1.991399e+01
1.335251e+02	-1.996381e+01
1.342963e+02	-2.001320e+01
1.350720e+02	-2.006304e+01
1.358522e+02	-2.011242e+01
1.366368e+02	-2.016246e+01
1.374260e+02	-2.021029e+01
1.382198e+02	-2.026266e+01
1.390182e+02	-2.031132e+01
1.398211e+02	-2.036068e+01
1.406287e+02	-2.040978e+01
1.414410e+02	-2.045965e+01
1.422579e+02	-2.050936e+01
1.430796e+02	-2.055892e+01
1.439060e+02	-2.060842e+01
1.447372e+02	-2.065703e+01
1.455732e+02	-2.070811e+01
1.464141e+02	-2.075669e+01
1.472597e+02	-2.080720e+01
1.481103e+02	-2.085613e+01
1.489658e+02	-2.090625e+01
1.498262e+02	-2.095707e+01
1.506916e+02	-2.100408e+01
1.515620e+02	-2.105564e+01
1.524374e+02	-2.110713e+01
1.533179e+02	-2.115644e+01
1.542034e+02	-2.120275e+01
1.550941e+02	-2.125353e+01
1.559899e+02	-2.130468e+01
1.568909e+02	-2.135270e+01
1.577971e+02	-2.140258e+01
1.587085e+02	-2.145412e+01
1.596252e+02	-2.150155e+01
1.605472e+02	-2.155251e+01
1.614745e+02	-2.160222e+01
1.624072e+02	-2.165163e+01
1.633453e+02	-2.170114e+01
1.642887e+02	-2.175172e+01
1.652377e+02	-2.180159e+01
1.661921e+02	-2.184923e+01
1.671520e+02	-2.190100e+01
1.681175e+02	-2.194888e+01
1.690885e+02	-2.199886e+01
1.700651e+02	-2.204908e+01
1.710474e+02	-2.209955e+01
1.720354e+02	-2.214791e+01
1.730291e+02	-2.219953e+01
1.740285e+02	-2.224823e+01
1.750337e+02	-2.229749e+01
1.760446e+02	-2.234578e+01
1.770615e+02	-2.239747e+01
1.780842e+02	-2.244973e+01
1.791128e+02	-2.249919e+01
1.801473e+02	-2.254647e+01
1.811878e+02	-2.259750e+01
1.822344e+02	-2.264720e+01
1.832870e+02	-2.269379e+01
1.843456e+02	-2.274651e+01
1.854104e+02	-2.279625e+01
1.864813e+02	-2.284425e+01
1.875584e+02	-2.289552e+01
1.886418e+02	-2.294563e+01
1.897313e+02	-2.299621e+01
1.908272e+02	-2.304348e+01
1.919294e+02	-2.309499e+01
1.930380e+02	-2.314157e+01
1.941530e+02	-2.319297e+01
1.952744e+02	-2.324459e+01
1.964023e+02	-2.329232e+01
1.975367e+02	-2.334375e+01
1.986777e+02	-2.339502e+01
1.998252e+02	-2.344299e+01
2.009794e+02	-2.349449e+01
2.021403e+02	-2.354364e+01
2.033078e+02	-2.359099e+01
2.044821e+02	-2.364131e+01
2.056632e+02	-2.369336e+01
2.068511e+02	-2.374421e+01
2.080459e+02	-2.379281e+01
2.092475e+02	-2.384269e+01
2.104561e+02	-2.389302e+01
2.116717e+02	-2.394023e+01
2.128943e+02	-2.398816e+01
2.141240e+02	-2.404150e+01
2.153608e+02	-2.408983e+01
2.166047e+02	-2.414207e+01
2.178558e+02	-2.418950e+01
2.191141e+02	-2.424188e+01
2.203797e+02	-2.429046e+01
2.216526e+02	-2.434046e+01
2.229329e+02	-2.439568e+01
2.242205e+02	-2.443921e+01
2.255156e+02	-2.449115e+01
2.268182e+02	-2.454275e+01
2.281283e+02	-2.458875e+01
2.294459e+02	-2.463996e+01
2.307712e+02	-2.468994e+01
2.321041e+02	-2.474248e+01
2.334447e+02	-2.478869e+01
2.347931e+02	-2.484115e+01
2.361493e+02	-2.489057e+01
2.375133e+02	-2.493840e+01
2.388851e+02	-2.499007e+01
2.402649e+02	-2.503610e+01
2.416527e+02	-2.508861e+01
2.430484e+02	-2.513751e+01
2.444523e+02	-2.518969e+01
2.458642e+02	-2.523672e+01
2.472843e+02	-2.529149e+01
2.487126e+02	-2.534000e+01
2.501492e+02	-2.538709e+01
2.515940e+02	-2.543841e+01
2.530472e+02	-2.548857e+01
2.545088e+02	-2.553870e+01
2.559789e+02	-2.558953e+01
2.574574e+02	-2.563906e+01
2.589444e+02	-2.568826e+01
2.604401e+02	-2.574040e+01
2.619444e+02	-2.578767e+01
2.634574e+02	-2.583624e+01
2.649791e+02	-2.588773e+01
2.665096e+02	-2.593953e+01
2.680489e+02	-2.598876e+01
2.695972e+02	-2.603801e+01
2.711544e+02	-2.608909e+01
2.727205e+02	-2.613604e+01
2.742958e+02	-2.618753e+01
2.758801e+02	-2.623801e+01
2.774736e+02	-2.628952e+01
2.790762e+02	-2.633907e+01
2.806882e+02	-2.638459e+01
2.823094e+02	-2.643528e+01
2.839400e+02	-2.648892e+01
2.855800e+02	-2.653590e+01
2.872295e+02	-2.658603e+01
2.888886e+02	-2.663602e+01
2.905572e+02	-2.668471e+01
2.922354e+02	-2.673807e+01
2.939234e+02	-2.678730e+01
2.956211e+02	-2.683834e+01
2.973286e+02	-2.688802e+01
2.990459e+02	-2.693901e+01
3.007732e+02	-2.698716e+01
3.025104e+02	-2.703349e+01
3.042577e+02	-2.708596e+01
3.060151e+02	-2.713996e+01
3.077826e+02	-2.718855e+01
3.095604e+02	-2.723558e+01
3.113484e+02	-2.728547e+01
3.131467e+02	-2.733395e+01
3.149554e+02	-2.738793e+01
3.167746e+02	-2.743675e+01
3.186043e+02	-2.749043e+01
3.204445e+02	-2.753782e+01
3.222954e+02	-2.758885e+01
3.241570e+02	-2.763682e+01
3.260293e+02	-2.768750e+01
3.279124e+02	-2.773829e+01
3.298064e+02	-2.778377e+01
3.317114e+02	-2.783559e+01
3.336273e+02	-2.788529e+01
3.355544e+02	-2.794253e+01
3.374925e+02	-2.799088e+01
3.394418e+02	-2.803573e+01
3.414024e+02	-2.808682e+01
3.433744e+02	-2.813683e+01
3.453577e+02	-2.818758e+01
3.473525e+02	-2.823490e+01
3.493588e+02	-2.829005e+01
3.513766e+02	-2.834047e+01
3.534062e+02	-2.838589e+01
3.554474e+02	-2.843937e+01
3.575005e+02	-2.848938e+01
3.595654e+02	-2.853614e+01
3.616422e+02	-2.858372e+01
3.637311e+02	-2.863697e+01
3.658320e+02	-2.868638e+01
3.679450e+02	-2.873823e+01
3.700702e+02	-2.879116e+01
3.722077e+02	-2.883953e+01
3.743576e+02	-2.888986e+01
3.765199e+02	-2.893811e+01
3.786946e+02	-2.898937e+01
3.808820e+02	-2.903686e+01
3.830819e+02	-2.909243e+01
3.852946e+02	-2.913721e+01
3.875200e+02	-2.918056e+01
3.897583e+02	-2.923886e+01
3.920096e+02	-2.929068e+01
3.942738e+02	-2.933845e+01
3.965511e+02	-2.939088e+01
3.988416e+02	-2.944086e+01
4.011452e+02	-2.948506e+01
4.034622e+02	-2.954138e+01
4.057926e+02	-2.958536e+01
4.081365e+02	-2.964055e+01
4.104938e+02	-2.969628e+01
4.128648e+02	-2.974173e+01
4.152495e+02	-2.978781e+01
4.176480e+02	-2.984049e+01
4.200603e+02	-2.989038e+01
4.224866e+02	-2.994460e+01
4.249268e+02	-2.999229e+01
4.273812e+02	-3.004090e+01
4.298497e+02	-3.008916e+01
4.323325e+02	-3.014348e+01
4.348297e+02	-3.019113e+01
4.373412e+02	-3.024321e+01
4.398673e+02	-3.029181e+01
4.424079e+02	-3.034444e+01
4.449633e+02	-3.039148e+01
4.475334e+02	-3.044100e+01
4.501183e+02	-3.049352e+01
4.527182e+02	-3.054026e+01
4.553330e+02	-3.059105e+01
4.579630e+02	-3.063992e+01
4.606082e+02	-3.068831e+01
4.632687e+02	-3.073778e+01
4.659445e+02	-3.079511e+01
4.686358e+02	-3.083991e+01
4.713426e+02	-3.089162e+01
4.740650e+02	-3.094433e+01
4.768032e+02	-3.099299e+01
4.795572e+02	-3.104461e+01
4.823271e+02	-3.109108e+01
4.851130e+02	-3.114304e+01
4.879150e+02	-3.118871e+01
4.907332e+02	-3.124882e+01
4.935676e+02	-3.129411e+01
4.964185e+02	-3.134246e+01
4.992858e+02	-3.139601e+01
5.021696e+02	-3.144554e+01
5.050701e+02	-3.149558e+01
5.079874e+02	-3.154437e+01
5.109215e+02	-3.159463e+01
5.138726e+02	-3.164289e+01
5.168407e+02	-3.169715e+01
5.198259e+02	-3.174697e+01
5.228284e+02	-3.179368e+01
5.258482e+02	-3.184276e+01
5.288855e+02	-3.190324e+01
5.319403e+02	-3.195253e+01
5.350128e+02	-3.199901e+01
5.381030e+02	-3.204894e+01
5.412111e+02	-3.209436e+01
5.443371e+02	-3.214770e+01
5.474812e+02	-3.220584e+01
5.506434e+02	-3.224304e+01
5.538239e+02	-3.230477e+01
5.570228e+02	-3.235056e+01
5.602401e+02	-3.240167e+01
5.634760e+02	-3.244639e+01
5.667306e+02	-3.249794e+01
5.700040e+02	-3.254604e+01
5.732964e+02	-3.260942e+01
5.766077e+02	-3.265006e+01
5.799382e+02	-3.270448e+01
5.832879e+02	-3.275226e+01
5.866569e+02	-3.280169e+01
5.900454e+02	-3.284339e+01
5.934535e+02	-3.290346e+01
5.968813e+02	-3.295008e+01
6.003288e+02	-3.299993e+01
6.037963e+02	-3.304867e+01
6.072838e+02	-3.310323e+01
6.107914e+02	-3.315775e+01
6.143194e+02	-3.320460e+01
6.178676e+02	-3.325389e+01
6.214364e+02	-3.331125e+01
6.250258e+02	-3.335366e+01
6.286359e+02	-3.340744e+01
6.322669e+02	-3.345062e+01
6.359189e+02	-3.350450e+01
6.395919e+02	-3.354933e+01
6.432862e+02	-3.361086e+01
6.470017e+02	-3.365826e+01
6.507388e+02	-3.370400e+01
6.544974e+02	-3.375435e+01
6.582778e+02	-3.380923e+01
6.620800e+02	-3.385836e+01
6.659041e+02	-3.390572e+01
6.697504e+02	-3.395279e+01
6.736188e+02	-3.401740e+01
6.775096e+02	-3.405978e+01
6.814229e+02	-3.411039e+01
6.853587e+02	-3.416182e+01
6.893173e+02	-3.420744e+01
6.932988e+02	-3.426043e+01
6.973033e+02	-3.431342e+01
7.013309e+02	-3.436293e+01
