Frequency(Hz)	Magnitude(dB)
1.000000e+01	-1.666270e-05
1.005776e+01	-1.685574e-05
1.011585e+01	-1.705102e-05
1.017428e+01	-1.724856e-05
1.023305e+01	-1.744839e-05
1.029215e+01	-1.765053e-05
1.035160e+01	-1.785502e-05
1.041139e+01	-1.806187e-05
1.047153e+01	-1.827113e-05
1.053201e+01	-1.848280e-05
1.059284e+01	-1.869693e-05
1.065403e+01	-1.891354e-05
1.071556e+01	-1.913266e-05
1.077746e+01	-1.935431e-05
1.083971e+01	-1.957854e-05
1.090232e+01	-1.980536e-05
1.096529e+01	-2.003481e-05
1.102862e+01	-2.026692e-05
1.109232e+01	-2.050172e-05
1.115639e+01	-2.073923e-05
1.122083e+01	-2.097950e-05
1.128564e+01	-2.122255e-05
1.135083e+01	-2.146842e-05
1.141639e+01	-2.171714e-05
1.148233e+01	-2.196874e-05
1.154865e+01	-2.222325e-05
1.161536e+01	-2.248071e-05
1.168245e+01	-2.274116e-05
1.174992e+01	-2.300462e-05
1.181779e+01	-2.327114e-05
1.188605e+01	-2.354074e-05
1.195470e+01	-2.381346e-05
1.202375e+01	-2.408935e-05
1.209320e+01	-2.436843e-05
1.216305e+01	-2.465074e-05
1.223330e+01	-2.493633e-05
1.230396e+01	-2.522522e-05
1.237503e+01	-2.551746e-05
1.244651e+01	-2.581309e-05
1.251840e+01	-2.611214e-05
1.259070e+01	-2.641465e-05
1.266343e+01	-2.672067e-05
1.273657e+01	-2.703024e-05
1.281014e+01	-2.734339e-05
1.288413e+01	-2.766017e-05
1.295855e+01	-2.798062e-05
1.303339e+01	-2.830478e-05
1.310867e+01	-2.863270e-05
1.318439e+01	-2.896442e-05
1.326054e+01	-2.929998e-05
1.333713e+01	-2.963943e-05
1.341417e+01	-2.998281e-05
1.349165e+01	-3.033016e-05
1.356958e+01	-3.068155e-05
1.364795e+01	-3.103700e-05
1.372678e+01	-3.139657e-05
1.380607e+01	-3.176031e-05
1.388581e+01	-3.212826e-05
1.396602e+01	-3.250047e-05
1.404668e+01	-3.287700e-05
1.412782e+01	-3.325788e-05
1.420942e+01	-3.364318e-05
1.429149e+01	-3.403295e-05
1.437404e+01	-3.442723e-05
1.445706e+01	-3.482608e-05
1.454057e+01	-3.522954e-05
1.462455e+01	-3.563769e-05
1.470902e+01	-3.605056e-05
1.479398e+01	-3.646821e-05
1.487943e+01	-3.689070e-05
1.496537e+01	-3.731809e-05
1.505181e+01	-3.775043e-05
1.513875e+01	-3.818778e-05
1.522619e+01	-3.863019e-05
1.531414e+01	-3.907773e-05
1.540259e+01	-3.953046e-05
1.549156e+01	-3.998842e-05
1.558103e+01	-4.045170e-05
1.567103e+01	-4.092034e-05
1.576155e+01	-4.139441e-05
1.585258e+01	-4.187398e-05
1.594415e+01	-4.235910e-05
1.603624e+01	-4.284984e-05
1.612886e+01	-4.334626e-05
1.622202e+01	-4.384844e-05
1.631572e+01	-4.435643e-05
1.640996e+01	-4.487031e-05
1.650474e+01	-4.539014e-05
1.660008e+01	-4.591600e-05
1.669596e+01	-4.644794e-05
1.679239e+01	-4.698605e-05
1.688938e+01	-4.753040e-05
1.698694e+01	-4.808105e-05
1.708505e+01	-4.863808e-05
1.718373e+01	-4.920156e-05
1.728299e+01	-4.977157e-05
1.738281e+01	-5.034818e-05
1.748322e+01	-5.093148e-05
1.758420e+01	-5.152153e-05
1.768576e+01	-5.211842e-05
1.778792e+01	-5.272222e-05
1.789066e+01	-5.333302e-05
1.799399e+01	-5.395089e-05
1.809793e+01	-5.457592e-05
1.820246e+01	-5.520820e-05
1.830760e+01	-5.584780e-05
1.841334e+01	-5.649480e-05
1.851969e+01	-5.714931e-05
1.862666e+01	-5.781139e-05
1.873425e+01	-5.848115e-05
1.884246e+01	-5.915867e-05
1.895129e+01	-5.984403e-05
1.906075e+01	-6.053734e-05
1.917085e+01	-6.123867e-05
1.928158e+01	-6.194814e-05
1.939295e+01	-6.266582e-05
1.950496e+01	-6.339181e-05
1.961762e+01	-6.412622e-05
1.973093e+01	-6.486913e-05
1.984490e+01	-6.562065e-05
1.995952e+01	-6.638088e-05
2.007480e+01	-6.714992e-05
2.019076e+01	-6.792786e-05
2.030738e+01	-6.871482e-05
2.042467e+01	-6.951089e-05
2.054264e+01	-7.031619e-05
2.066130e+01	-7.113082e-05
2.078064e+01	-7.195488e-05
2.090066e+01	-7.278849e-05
2.102139e+01	-7.363176e-05
2.114280e+01	-7.448480e-05
2.126492e+01	-7.534771e-05
2.138775e+01	-7.622063e-05
2.151128e+01	-7.710366e-05
2.163553e+01	-7.799692e-05
2.176050e+01	-7.890053e-05
2.188619e+01	-7.981460e-05
2.201260e+01	-8.073927e-05
2.213974e+01	-8.167465e-05
2.226762e+01	-8.262086e-05
2.239624e+01	-8.357804e-05
2.252560e+01	-8.454631e-05
2.265571e+01	-8.552579e-05
2.278656e+01	-8.651662e-05
2.291818e+01	-8.751893e-05
2.305055e+01	-8.853285e-05
2.318369e+01	-8.955852e-05
2.331760e+01	-9.059607e-05
2.345228e+01	-9.164564e-05
2.358774e+01	-9.270736e-05
2.372398e+01	-9.378139e-05
2.386101e+01	-9.486787e-05
2.399883e+01	-9.596692e-05
2.413745e+01	-9.707872e-05
2.427686e+01	-9.820339e-05
2.441709e+01	-9.934109e-05
2.455812e+01	-1.004920e-04
2.469997e+01	-1.016562e-04
2.484263e+01	-1.028339e-04
2.498612e+01	-1.040252e-04
2.513044e+01	-1.052304e-04
2.527559e+01	-1.064495e-04
2.542158e+01	-1.076827e-04
2.556842e+01	-1.089302e-04
2.571610e+01	-1.101922e-04
2.586463e+01	-1.114688e-04
2.601403e+01	-1.127602e-04
2.616428e+01	-1.140665e-04
2.631541e+01	-1.153880e-04
2.646740e+01	-1.167248e-04
2.662028e+01	-1.180770e-04
2.677404e+01	-1.194450e-04
2.692868e+01	-1.208288e-04
2.708422e+01	-1.222286e-04
2.724066e+01	-1.236446e-04
2.739800e+01	-1.250771e-04
2.755625e+01	-1.265261e-04
2.771541e+01	-1.279919e-04
2.787550e+01	-1.294747e-04
2.803650e+01	-1.309747e-04
2.819844e+01	-1.324920e-04
2.836131e+01	-1.340270e-04
2.852513e+01	-1.355797e-04
2.868989e+01	-1.371504e-04
2.885560e+01	-1.387393e-04
2.902227e+01	-1.403466e-04
2.918990e+01	-1.419725e-04
2.935850e+01	-1.436173e-04
2.952807e+01	-1.452811e-04
2.969863e+01	-1.469642e-04
2.987016e+01	-1.486668e-04
3.004269e+01	-1.503891e-04
3.021622e+01	-1.521314e-04
3.039075e+01	-1.538938e-04
3.056628e+01	-1.556767e-04
3.074283e+01	-1.574802e-04
3.092040e+01	-1.593046e-04
3.109900e+01	-1.611502e-04
3.127862e+01	-1.630171e-04
3.145929e+01	-1.649057e-04
3.164099e+01	-1.668161e-04
3.182375e+01	-1.687487e-04
3.200756e+01	-1.707037e-04
3.219244e+01	-1.726813e-04
3.237838e+01	-1.746818e-04
3.256540e+01	-1.767055e-04
3.275349e+01	-1.787526e-04
3.294268e+01	-1.808235e-04
3.313295e+01	-1.829183e-04
3.332433e+01	-1.850375e-04
3.351681e+01	-1.871811e-04
3.371040e+01	-1.893496e-04
3.390511e+01	-1.915432e-04
3.410094e+01	-1.937623e-04
3.429791e+01	-1.960070e-04
3.449601e+01	-1.982778e-04
3.469526e+01	-2.005748e-04
3.489566e+01	-2.028985e-04
3.509721e+01	-2.052491e-04
3.529993e+01	-2.076269e-04
3.550382e+01	-2.100322e-04
3.570889e+01	-2.124654e-04
3.591515e+01	-2.149269e-04
3.612259e+01	-2.174168e-04
3.633123e+01	-2.199356e-04
3.654108e+01	-2.224835e-04
3.675214e+01	-2.250610e-04
3.696442e+01	-2.276683e-04
3.717792e+01	-2.303058e-04
3.739266e+01	-2.329739e-04
3.760864e+01	-2.356729e-04
3.782587e+01	-2.384032e-04
3.804435e+01	-2.411651e-04
3.826409e+01	-2.439589e-04
3.848510e+01	-2.467852e-04
3.870739e+01	-2.496442e-04
3.893096e+01	-2.525363e-04
3.915583e+01	-2.554619e-04
3.938199e+01	-2.584214e-04
3.960946e+01	-2.614152e-04
3.983824e+01	-2.644437e-04
4.006834e+01	-2.675073e-04
4.029978e+01	-2.706063e-04
4.053255e+01	-2.737413e-04
4.076666e+01	-2.769125e-04
4.100213e+01	-2.801205e-04
4.123896e+01	-2.833657e-04
4.147715e+01	-2.866485e-04
4.171672e+01	-2.899692e-04
4.195767e+01	-2.933285e-04
4.220002e+01	-2.967267e-04
4.244377e+01	-3.001642e-04
4.268892e+01	-3.036416e-04
4.293549e+01	-3.071592e-04
4.318348e+01	-3.107176e-04
4.343291e+01	-3.143173e-04
4.368377e+01	-3.179586e-04
4.393609e+01	-3.216421e-04
4.418986e+01	-3.253683e-04
4.444510e+01	-3.291376e-04
4.470182e+01	-3.329506e-04
4.496001e+01	-3.368078e-04
4.521970e+01	-3.407096e-04
4.548089e+01	-3.446567e-04
4.574358e+01	-3.486495e-04
4.600779e+01	-3.526885e-04
4.627353e+01	-3.567743e-04
4.654081e+01	-3.609075e-04
4.680963e+01	-3.650885e-04
4.708000e+01	-3.693180e-04
4.735193e+01	-3.735965e-04
4.762543e+01	-3.779245e-04
4.790051e+01	-3.823027e-04
4.817719e+01	-3.867316e-04
4.845545e+01	-3.912117e-04
4.873533e+01	-3.957438e-04
4.901682e+01	-4.003284e-04
4.929994e+01	-4.049661e-04
4.958470e+01	-4.096576e-04
4.987110e+01	-4.144033e-04
5.015915e+01	-4.192041e-04
5.044887e+01	-4.240604e-04
5.074026e+01	-4.289730e-04
5.103333e+01	-4.339426e-04
5.132810e+01	-4.389697e-04
5.162457e+01	-4.440550e-04
5.192275e+01	-4.491992e-04
5.222265e+01	-4.544030e-04
5.252429e+01	-4.596671e-04
5.282767e+01	-4.649922e-04
5.313280e+01	-4.703790e-04
5.343969e+01	-4.758282e-04
5.374836e+01	-4.813405e-04
5.405880e+01	-4.869166e-04
5.437105e+01	-4.925574e-04
5.468509e+01	-4.982634e-04
5.500095e+01	-5.040356e-04
5.531863e+01	-5.098747e-04
5.563815e+01	-5.157814e-04
5.595951e+01	-5.217565e-04
5.628273e+01	-5.278008e-04
5.660782e+01	-5.339152e-04
5.693479e+01	-5.401003e-04
5.726364e+01	-5.463571e-04
5.759439e+01	-5.526864e-04
5.792705e+01	-5.590890e-04
5.826164e+01	-5.655658e-04
5.859815e+01	-5.721176e-04
5.893662e+01	-5.787453e-04
5.927703e+01	-5.854498e-04
5.961941e+01	-5.922319e-04
5.996377e+01	-5.990926e-04
6.031012e+01	-6.060328e-04
6.065847e+01	-6.130534e-04
6.100883e+01	-6.201553e-04
6.136121e+01	-6.273394e-04
6.171563e+01	-6.346068e-04
6.207210e+01	-6.419583e-04
6.243063e+01	-6.493950e-04
6.279122e+01	-6.569179e-04
6.315390e+01	-6.645279e-04
6.351868e+01	-6.722260e-04
6.388556e+01	-6.800133e-04
6.425456e+01	-6.878908e-04
6.462569e+01	-6.958596e-04
6.499897e+01	-7.039207e-04
6.537440e+01	-7.120751e-04
6.575200e+01	-7.203240e-04
6.613178e+01	-7.286685e-04
6.651375e+01	-7.371096e-04
6.689793e+01	-7.456485e-04
6.728433e+01	-7.542863e-04
6.767297e+01	-7.630241e-04
6.806384e+01	-7.718632e-04
6.845698e+01	-7.808046e-04
6.885238e+01	-7.898496e-04
6.925007e+01	-7.989994e-04
6.965005e+01	-8.082552e-04
7.005235e+01	-8.176182e-04
7.045697e+01	-8.270896e-04
7.086393e+01	-8.366707e-04
7.127323e+01	-8.463628e-04
7.168490e+01	-8.561672e-04
7.209895e+01	-8.660852e-04
7.251539e+01	-8.761180e-04
7.293424e+01	-8.862670e-04
7.335551e+01	-8.965336e-04
7.377920e+01	-9.069191e-04
7.420535e+01	-9.174249e-04
7.463396e+01	-9.280524e-04
7.506504e+01	-9.388030e-04
7.549861e+01	-9.496781e-04
7.593469e+01	-9.606791e-04
7.637328e+01	-9.718076e-04
7.681441e+01	-9.830650e-04
7.725809e+01	-9.944528e-04
7.770433e+01	-1.005972e-03
7.815315e+01	-1.017626e-03
7.860456e+01	-1.029414e-03
7.905857e+01	-1.041338e-03
7.951521e+01	-1.053401e-03
7.997449e+01	-1.065603e-03
8.043642e+01	-1.077947e-03
8.090102e+01	-1.090434e-03
8.136830e+01	-1.103065e-03
8.183828e+01	-1.115843e-03
8.231097e+01	-1.128769e-03
8.278640e+01	-1.141844e-03
8.326457e+01	-1.155071e-03
8.374550e+01	-1.168451e-03
8.422921e+01	-1.181986e-03
8.471572e+01	-1.195678e-03
8.520503e+01	-1.209528e-03
8.569717e+01	-1.223539e-03
8.619215e+01	-1.237712e-03
8.669000e+01	-1.252049e-03
8.719071e+01	-1.266552e-03
8.769432e+01	-1.281223e-03
8.820084e+01	-1.296064e-03
8.871029e+01	-1.311077e-03
8.922267e+01	-1.326264e-03
8.973802e+01	-1.341627e-03
9.025634e+01	-1.357168e-03
9.077766e+01	-1.372888e-03
9.130199e+01	-1.388791e-03
9.182935e+01	-1.404878e-03
9.235975e+01	-1.421151e-03
9.289321e+01	-1.437613e-03
9.342976e+01	-1.454265e-03
9.396941e+01	-1.471110e-03
9.451217e+01	-1.488151e-03
9.505807e+01	-1.505388e-03
9.560712e+01	-1.522826e-03
9.615934e+01	-1.540465e-03
9.671476e+01	-1.558308e-03
9.727338e+01	-1.576358e-03
9.783522e+01	-1.594618e-03
9.840032e+01	-1.613088e-03
9.896867e+01	-1.631773e-03
9.954031e+01	-1.650674e-03
1.001153e+02	-1.669793e-03
1.006935e+02	-1.689135e-03
1.012751e+02	-1.708700e-03
1.018601e+02	-1.728492e-03
1.024484e+02	-1.748513e-03
1.030402e+02	-1.768766e-03
1.036353e+02	-1.789253e-03
1.042339e+02	-1.809978e-03
1.048360e+02	-1.830942e-03
1.054415e+02	-1.852150e-03
1.060505e+02	-1.873603e-03
1.066631e+02	-1.895304e-03
1.072791e+02	-1.917257e-03
1.078988e+02	-1.939464e-03
1.085220e+02	-1.961928e-03
1.091488e+02	-1.984652e-03
1.097793e+02	-2.007640e-03
1.104133e+02	-2.030893e-03
1.110511e+02	-2.054416e-03
1.116925e+02	-2.078212e-03
1.123376e+02	-2.102282e-03
1.129865e+02	-2.126632e-03
1.136391e+02	-2.151263e-03
1.142955e+02	-2.176180e-03
1.149556e+02	-2.201385e-03
1.156196e+02	-2.226882e-03
1.162874e+02	-2.252675e-03
1.169591e+02	-2.278766e-03
1.176347e+02	-2.305159e-03
1.183141e+02	-2.331858e-03
1.189975e+02	-2.358865e-03
1.196848e+02	-2.386186e-03
1.203761e+02	-2.413823e-03
1.210714e+02	-2.441780e-03
1.217707e+02	-2.470060e-03
1.224740e+02	-2.498668e-03
1.231814e+02	-2.527608e-03
1.238929e+02	-2.556882e-03
1.246085e+02	-2.586495e-03
1.253283e+02	-2.616452e-03
1.260522e+02	-2.646755e-03
1.267802e+02	-2.677409e-03
1.275125e+02	-2.708417e-03
1.282490e+02	-2.739785e-03
1.289898e+02	-2.771516e-03
1.297348e+02	-2.803615e-03
1.304842e+02	-2.836085e-03
1.312378e+02	-2.868931e-03
1.319959e+02	-2.902157e-03
1.327583e+02	-2.935768e-03
1.335251e+02	-2.969768e-03
1.342963e+02	-3.004161e-03
1.350720e+02	-3.038953e-03
1.358522e+02	-3.074148e-03
1.366368e+02	-3.109750e-03
1.374260e+02	-3.145764e-03
1.382198e+02	-3.182195e-03
1.390182e+02	-3.219048e-03
1.398211e+02	-3.256327e-03
1.406287e+02	-3.294039e-03
1.414410e+02	-3.332186e-03
1.422579e+02	-3.370775e-03
1.430796e+02	-3.409811e-03
1.439060e+02	-3.449299e-03
1.447372e+02	-3.489244e-03
1.455732e+02	-3.529652e-03
1.464141e+02	-3.570527e-03
1.472597e+02	-3.611875e-03
1.481103e+02	-3.653702e-03
1.489658e+02	-3.696013e-03
1.498262e+02	-3.738814e-03
1.506916e+02	-3.782110e-03
1.515620e+02	-3.825907e-03
1.524374e+02	-3.870212e-03
1.533179e+02	-3.915029e-03
1.542034e+02	-3.960365e-03
1.550941e+02	-4.006225e-03
1.559899e+02	-4.052617e-03
1.568909e+02	-4.099545e-03
1.577971e+02	-4.147017e-03
1.587085e+02	-4.195038e-03
1.596252e+02	-4.243615e-03
1.605472e+02	-4.292754e-03
1.614745e+02	-4.342462e-03
1.624072e+02	-4.392745e-03
1.633453e+02	-4.443610e-03
1.642887e+02	-4.495063e-03
1.652377e+02	-4.547113e-03
1.661921e+02	-4.599764e-03
1.671520e+02	-4.653025e-03
1.681175e+02	-4.706902e-03
1.690885e+02	-4.761403e-03
1.700651e+02	-4.816534e-03
1.710474e+02	-4.872304e-03
1.720354e+02	-4.928719e-03
1.730291e+02	-4.985786e-03
1.740285e+02	-5.043514e-03
1.750337e+02	-5.101910e-03
1.760446e+02	-5.160982e-03
1.770615e+02	-5.220737e-03
1.780842e+02	-5.281184e-03
1.791128e+02	-5.342330e-03
1.801473e+02	-5.404184e-03
1.811878e+02	-5.466753e-03
1.822344e+02	-5.530047e-03
1.832870e+02	-5.594072e-03
1.843456e+02	-5.658839e-03
1.854104e+02	-5.724355e-03
1.864813e+02	-5.790629e-03
1.875584e+02	-5.857669e-03
1.886418e+02	-5.925485e-03
1.897313e+02	-5.994086e-03
1.908272e+02	-6.063481e-03
1.919294e+02	-6.133678e-03
1.930380e+02	-6.204687e-03
1.941530e+02	-6.276518e-03
1.952744e+02	-6.349180e-03
1.964023e+02	-6.422682e-03
1.975367e+02	-6.497035e-03
1.986777e+02	-6.572248e-03
1.998252e+02	-6.648330e-03
2.009794e+02	-6.725293e-03
2.021403e+02	-6.803146e-03
2.033078e+02	-6.881900e-03
2.044821e+02	-6.961564e-03
2.056632e+02	-7.042150e-03
2.068511e+02	-7.123668e-03
2.080459e+02	-7.206129e-03
2.092475e+02	-7.289544e-03
2.104561e+02	-7.373923e-03
2.116717e+02	-7.459278e-03
2.128943e+02	-7.545621e-03
2.141240e+02	-7.632962e-03
2.153608e+02	-7.721313e-03
2.166047e+02	-7.810686e-03
2.178558e+02	-7.901092e-03
2.191141e+02	-7.992544e-03
2.203797e+02	-8.085053e-03
2.216526e+02	-8.178632e-03
2.229329e+02	-8.273293e-03
2.242205e+02	-8.369048e-03
2.255156e+02	-8.465911e-03
2.268182e+02	-8.563894e-03
2.281283e+02	-8.663010e-03
2.294459e+02	-8.763271e-03
2.307712e+02	-8.864692e-03
2.321041e+02	-8.967286e-03
2.334447e+02	-9.071065e-03
2.347931e+02	-9.176044e-03
2.361493e+02	-9.282237e-03
2.375133e+02	-9.389658e-03
2.388851e+02	-9.498320e-03
2.402649e+02	-9.608239e-03
2.416527e+02	-9.719428e-03
2.430484e+02	-9.831902e-03
2.444523e+02	-9.945676e-03
2.458642e+02	-1.006077e-02
2.472843e+02	-1.017719e-02
2.487126e+02	-1.029495e-02
2.501492e+02	-1.041408e-02
2.515940e+02	-1.053458e-02
2.530472e+02	-1.065648e-02
2.545088e+02	-1.077978e-02
2.559789e+02	-1.090451e-02
2.574574e+02	-1.103068e-02
2.589444e+02	-1.115831e-02
2.604401e+02	-1.128741e-02
2.619444e+02	-1.141801e-02
2.634574e+02	-1.155011e-02
2.649791e+02	-1.168374e-02
2.665096e+02	-1.181892e-02
2.680489e+02	-1.195565e-02
2.695972e+02	-1.209397e-02
2.711544e+02	-1.223388e-02
2.727205e+02	-1.237541e-02
2.742958e+02	-1.251858e-02
2.758801e+02	-1.266339e-02
2.774736e+02	-1.280989e-02
2.790762e+02	-1.295807e-02
2.806882e+02	-1.310797e-02
2.823094e+02	-1.325959e-02
2.839400e+02	-1.341297e-02
2.855800e+02	-1.356812e-02
2.872295e+02	-1.372506e-02
2.888886e+02	-1.388381e-02
2.905572e+02	-1.404440e-02
2.922354e+02	-1.420684e-02
2.939234e+02	-1.437116e-02
2.956211e+02	-1.453737e-02
2.973286e+02	-1.470551e-02
2.990459e+02	-1.487558e-02
3.007732e+02	-1.504762e-02
3.025104e+02	-1.522164e-02
3.042577e+02	-1.539767e-02
3.060151e+02	-1.557574e-02
3.077826e+02	-1.575586e-02
3.095604e+02	-1.593806e-02
3.113484e+02	-1.612236e-02
3.131467e+02	-1.630879e-02
3.149554e+02	-1.649737e-02
3.167746e+02	-1.668813e-02
3.186043e+02	-1.688109e-02
3.204445e+02	-1.707628e-02
3.222954e+02	-1.727372e-02
3.241570e+02	-1.747343e-02
3.260293e+02	-1.767545e-02
3.279124e+02	-1.787981e-02
3.298064e+02	-1.808651e-02
3.317114e+02	-1.829561e-02
3.336273e+02	-1.850712e-02
3.355544e+02	-1.872106e-02
3.374925e+02	-1.893748e-02
3.394418e+02	-1.915639e-02
3.414024e+02	-1.937782e-02
3.433744e+02	-1.960181e-02
3.453577e+02	-1.982838e-02
3.473525e+02	-2.005757e-02
3.493588e+02	-2.028939e-02
3.513766e+02	-2.052389e-02
3.534062e+02	-2.076110e-02
3.554474e+02	-2.100104e-02
3.575005e+02	-2.124374e-02
3.595654e+02	-2.148925e-02
3.616422e+02	-2.173758e-02
3.637311e+02	-2.198878e-02
3.658320e+02	-2.224287e-02
3.679450e+02	-2.249989e-02
3.700702e+02	-2.275987e-02
3.722077e+02	-2.302285e-02
3.743576e+02	-2.328886e-02
3.765199e+02	-2.355793e-02
3.786946e+02	-2.383010e-02
3.808820e+02	-2.410541e-02
3.830819e+02	-2.438389e-02
3.852946e+02	-2.466558e-02
3.875200e+02	-2.495052e-02
3.897583e+02	-2.523873e-02
3.920096e+02	-2.553027e-02
3.942738e+02	-2.582516e-02
3.965511e+02	-2.612345e-02
3.988416e+02	-2.642517e-02
4.011452e+02	-2.673037e-02
4.034622e+02	-2.703908e-02
4.057926e+02	-2.735135e-02
4.081365e+02	-2.766721e-02
4.104938e+02	-2.798671e-02
4.128648e+02	-2.830988e-02
4.152495e+02	-2.863677e-02
4.176480e+02	-2.896743e-02
4.200603e+02	-2.930189e-02
4.224866e+02	-2.964020e-02
4.249268e+02	-2.998240e-02
4.273812e+02	-3.032853e-02
4.298497e+02	-3.067865e-02
4.323325e+02	-3.103280e-02
4.348297e+02	-3.139102e-02
4.373412e+02	-3.175336e-02
4.398673e+02	-3.211987e-02
4.424079e+02	-3.249059e-02
4.449633e+02	-3.286557e-02
4.475334e+02	-3.324487e-02
4.501183e+02	-3.362853e-02
4.527182e+02	-3.401659e-02
4.553330e+02	-3.440912e-02
4.579630e+02	-3.480615e-02
4.606082e+02	-3.520775e-02
4.632687e+02	-3.561397e-02
4.659445e+02	-3.602485e-02
4.686358e+02	-3.644045e-02
4.713426e+02	-3.686083e-02
4.740650e+02	-3.728604e-02
4.768032e+02	-3.771612e-02
4.795572e+02	-3.815115e-02
4.823271e+02	-3.859118e-02
4.851130e+02	-3.903625e-02
4.879150e+02	-3.948644e-02
4.907332e+02	-3.994179e-02
4.935676e+02	-4.040237e-02
4.964185e+02	-4.086823e-02
4.992858e+02	-4.133944e-02
5.021696e+02	-4.181606e-02
5.050701e+02	-4.229815e-02
5.079874e+02	-4.278577e-02
5.109215e+02	-4.327898e-02
5.138726e+02	-4.377784e-02
5.168407e+02	-4.428243e-02
5.198259e+02	-4.479280e-02
5.228284e+02	-4.530903e-02
5.258482e+02	-4.583117e-02
5.288855e+02	-4.635930e-02
5.319403e+02	-4.689348e-02
5.350128e+02	-4.743378e-02
5.381030e+02	-4.798027e-02
5.412111e+02	-4.853303e-02
5.443371e+02	-4.909211e-02
5.474812e+02	-4.965760e-02
5.506434e+02	-5.022956e-02
5.538239e+02	-5.080808e-02
5.570228e+02	-5.139322e-02
5.602401e+02	-5.198505e-02
5.634760e+02	-5.258366e-02
5.667306e+02	-5.318912e-02
5.700040e+02	-5.380151e-02
5.732964e+02	-5.442091e-02
5.766077e+02	-5.504739e-02
5.799382e+02	-5.568103e-02
5.832879e+02	-5.632193e-02
5.866569e+02	-5.697015e-02
5.900454e+02	-5.762578e-02
5.934535e+02	-5.828891e-02
5.968813e+02	-5.895961e-02
6.003288e+02	-5.963798e-02
6.037963e+02	-6.032410e-02
6.072838e+02	-6.101806e-02
6.107914e+02	-6.171994e-02
6.143194e+02	-6.242984e-02
6.178676e+02	-6.314785e-02
6.214364e+02	-6.387405e-02
6.250258e+02	-6.460854e-02
6.286359e+02	-6.535142e-02
6.322669e+02	-6.610277e-02
6.359189e+02	-6.686269e-02
6.395919e+02	-6.763128e-02
6.432862e+02	-6.840863e-02
6.470017e+02	-6.919485e-02
6.507388e+02	-6.999003e-02
6.544974e+02	-7.079428e-02
6.582778e+02	-7.160769e-02
6.620800e+02	-7.243036e-02
6.659041e+02	-7.326241e-02
6.697504e+02	-7.410394e-02
6.736188e+02	-7.495505e-02
6.775096e+02	-7.581584e-02
6.814229e+02	-7.668644e-02
6.853587e+02	-7.756694e-02
6.893173e+02	-7.845747e-02
6.932988e+02	-7.935812e-02
6.973033e+02	-8.026901e-02
7.013309e+02	-8.119027e-02
