Frequency(Hz)	Magnitude(dB)
1.000000e+01	-1.697596e-05
1.005776e+01	-1.717263e-05
1.011585e+01	-1.737158e-05
1.017428e+01	-1.757283e-05
1.023305e+01	-1.777642e-05
1.029215e+01	-1.798236e-05
1.035160e+01	-1.819069e-05
1.041139e+01	-1.840144e-05
1.047153e+01	-1.861462e-05
1.053201e+01	-1.883028e-05
1.059284e+01	-1.904843e-05
1.065403e+01	-1.926911e-05
1.071556e+01	-1.949235e-05
1.077746e+01	-1.971817e-05
1.083971e+01	-1.994661e-05
1.090232e+01	-2.017770e-05
1.096529e+01	-2.041146e-05
1.102862e+01	-2.064793e-05
1.109232e+01	-2.088715e-05
1.115639e+01	-2.112913e-05
1.122083e+01	-2.137391e-05
1.128564e+01	-2.162154e-05
1.135083e+01	-2.187203e-05
1.141639e+01	-2.212542e-05
1.148233e+01	-2.238175e-05
1.154865e+01	-2.264105e-05
1.161536e+01	-2.290335e-05
1.168245e+01	-2.316869e-05
1.174992e+01	-2.343711e-05
1.181779e+01	-2.370863e-05
1.188605e+01	-2.398330e-05
1.195470e+01	-2.426115e-05
1.202375e+01	-2.454222e-05
1.209320e+01	-2.482655e-05
1.216305e+01	-2.511417e-05
1.223330e+01	-2.540513e-05
1.230396e+01	-2.569945e-05
1.237503e+01	-2.599719e-05
1.244651e+01	-2.629837e-05
1.251840e+01	-2.660304e-05
1.259070e+01	-2.691125e-05
1.266343e+01	-2.722302e-05
1.273657e+01	-2.753840e-05
1.281014e+01	-2.785744e-05
1.288413e+01	-2.818018e-05
1.295855e+01	-2.850665e-05
1.303339e+01	-2.883691e-05
1.310867e+01	-2.917099e-05
1.318439e+01	-2.950895e-05
1.326054e+01	-2.985081e-05
1.333713e+01	-3.019664e-05
1.341417e+01	-3.054648e-05
1.349165e+01	-3.090037e-05
1.356958e+01	-3.125835e-05
1.364795e+01	-3.162049e-05
1.372678e+01	-3.198682e-05
1.380607e+01	-3.235740e-05
1.388581e+01	-3.273226e-05
1.396602e+01	-3.311147e-05
1.404668e+01	-3.349508e-05
1.412782e+01	-3.388313e-05
1.420942e+01	-3.427567e-05
1.429149e+01	-3.467276e-05
1.437404e+01	-3.507445e-05
1.445706e+01	-3.548080e-05
1.454057e+01	-3.589185e-05
1.462455e+01	-3.630767e-05
1.470902e+01	-3.672830e-05
1.479398e+01	-3.715381e-05
1.487943e+01	-3.758424e-05
1.496537e+01	-3.801967e-05
1.505181e+01	-3.846013e-05
1.513875e+01	-3.890570e-05
1.522619e+01	-3.935643e-05
1.531414e+01	-3.981239e-05
1.540259e+01	-4.027362e-05
1.549156e+01	-4.074020e-05
1.558103e+01	-4.121218e-05
1.567103e+01	-4.168964e-05
1.576155e+01	-4.217262e-05
1.585258e+01	-4.266120e-05
1.594415e+01	-4.315544e-05
1.603624e+01	-4.365541e-05
1.612886e+01	-4.416116e-05
1.622202e+01	-4.467278e-05
1.631572e+01	-4.519032e-05
1.640996e+01	-4.571386e-05
1.650474e+01	-4.624347e-05
1.660008e+01	-4.677921e-05
1.669596e+01	-4.732116e-05
1.679239e+01	-4.786938e-05
1.688938e+01	-4.842396e-05
1.698694e+01	-4.898496e-05
1.708505e+01	-4.955246e-05
1.718373e+01	-5.012654e-05
1.728299e+01	-5.070726e-05
1.738281e+01	-5.129472e-05
1.748322e+01	-5.188898e-05
1.758420e+01	-5.249012e-05
1.768576e+01	-5.309823e-05
1.778792e+01	-5.371339e-05
1.789066e+01	-5.433567e-05
1.799399e+01	-5.496516e-05
1.809793e+01	-5.560194e-05
1.820246e+01	-5.624610e-05
1.830760e+01	-5.689772e-05
1.841334e+01	-5.755689e-05
1.851969e+01	-5.822370e-05
1.862666e+01	-5.889824e-05
1.873425e+01	-5.958058e-05
1.884246e+01	-6.027084e-05
1.895129e+01	-6.096909e-05
1.906075e+01	-6.167543e-05
1.917085e+01	-6.238995e-05
1.928158e+01	-6.311275e-05
1.939295e+01	-6.384392e-05
1.950496e+01	-6.458356e-05
1.961762e+01	-6.533178e-05
1.973093e+01	-6.608866e-05
1.984490e+01	-6.685431e-05
1.995952e+01	-6.762883e-05
2.007480e+01	-6.841232e-05
2.019076e+01	-6.920489e-05
2.030738e+01	-7.000664e-05
2.042467e+01	-7.081768e-05
2.054264e+01	-7.163812e-05
2.066130e+01	-7.246806e-05
2.078064e+01	-7.330761e-05
2.090066e+01	-7.415690e-05
2.102139e+01	-7.501602e-05
2.114280e+01	-7.588509e-05
2.126492e+01	-7.676423e-05
2.138775e+01	-7.765356e-05
2.151128e+01	-7.855319e-05
2.163553e+01	-7.946324e-05
2.176050e+01	-8.038384e-05
2.188619e+01	-8.131510e-05
2.201260e+01	-8.225715e-05
2.213974e+01	-8.321011e-05
2.226762e+01	-8.417411e-05
2.239624e+01	-8.514929e-05
2.252560e+01	-8.613575e-05
2.265571e+01	-8.713365e-05
2.278656e+01	-8.814311e-05
2.291818e+01	-8.916426e-05
2.305055e+01	-9.019724e-05
2.318369e+01	-9.124219e-05
2.331760e+01	-9.229925e-05
2.345228e+01	-9.336855e-05
2.358774e+01	-9.445024e-05
2.372398e+01	-9.554446e-05
2.386101e+01	-9.665135e-05
2.399883e+01	-9.777107e-05
2.413745e+01	-9.890377e-05
2.427686e+01	-1.000496e-04
2.441709e+01	-1.012087e-04
2.455812e+01	-1.023812e-04
2.469997e+01	-1.035673e-04
2.484263e+01	-1.047671e-04
2.498612e+01	-1.059809e-04
2.513044e+01	-1.072087e-04
2.527559e+01	-1.084507e-04
2.542158e+01	-1.097071e-04
2.556842e+01	-1.109781e-04
2.571610e+01	-1.122638e-04
2.586463e+01	-1.135644e-04
2.601403e+01	-1.148800e-04
2.616428e+01	-1.162109e-04
2.631541e+01	-1.175572e-04
2.646740e+01	-1.189192e-04
2.662028e+01	-1.202969e-04
2.677404e+01	-1.216905e-04
2.692868e+01	-1.231003e-04
2.708422e+01	-1.245264e-04
2.724066e+01	-1.259691e-04
2.739800e+01	-1.274285e-04
2.755625e+01	-1.289047e-04
2.771541e+01	-1.303981e-04
2.787550e+01	-1.319088e-04
2.803650e+01	-1.334370e-04
2.819844e+01	-1.349828e-04
2.836131e+01	-1.365466e-04
2.852513e+01	-1.381285e-04
2.868989e+01	-1.397288e-04
2.885560e+01	-1.413475e-04
2.902227e+01	-1.429851e-04
2.918990e+01	-1.446416e-04
2.935850e+01	-1.463172e-04
2.952807e+01	-1.480123e-04
2.969863e+01	-1.497271e-04
2.987016e+01	-1.514617e-04
3.004269e+01	-1.532164e-04
3.021622e+01	-1.549914e-04
3.039075e+01	-1.567870e-04
3.056628e+01	-1.586034e-04
3.074283e+01	-1.604408e-04
3.092040e+01	-1.622995e-04
3.109900e+01	-1.641798e-04
3.127862e+01	-1.660818e-04
3.145929e+01	-1.680059e-04
3.164099e+01	-1.699522e-04
3.182375e+01	-1.719211e-04
3.200756e+01	-1.739128e-04
3.219244e+01	-1.759276e-04
3.237838e+01	-1.779657e-04
3.256540e+01	-1.800275e-04
3.275349e+01	-1.821131e-04
3.294268e+01	-1.842229e-04
3.313295e+01	-1.863571e-04
3.332433e+01	-1.885161e-04
3.351681e+01	-1.907000e-04
3.371040e+01	-1.929093e-04
3.390511e+01	-1.951442e-04
3.410094e+01	-1.974049e-04
3.429791e+01	-1.996918e-04
3.449601e+01	-2.020053e-04
3.469526e+01	-2.043455e-04
3.489566e+01	-2.067129e-04
3.509721e+01	-2.091076e-04
3.529993e+01	-2.115301e-04
3.550382e+01	-2.139807e-04
3.570889e+01	-2.164597e-04
3.591515e+01	-2.189674e-04
3.612259e+01	-2.215041e-04
3.633123e+01	-2.240702e-04
3.654108e+01	-2.266661e-04
3.675214e+01	-2.292920e-04
3.696442e+01	-2.319483e-04
3.717792e+01	-2.346354e-04
3.739266e+01	-2.373537e-04
3.760864e+01	-2.401034e-04
3.782587e+01	-2.428850e-04
3.804435e+01	-2.456988e-04
3.826409e+01	-2.485452e-04
3.848510e+01	-2.514246e-04
3.870739e+01	-2.543373e-04
3.893096e+01	-2.572838e-04
3.915583e+01	-2.602644e-04
3.938199e+01	-2.632796e-04
3.960946e+01	-2.663297e-04
3.983824e+01	-2.694151e-04
4.006834e+01	-2.725362e-04
4.029978e+01	-2.756935e-04
4.053255e+01	-2.788874e-04
4.076666e+01	-2.821183e-04
4.100213e+01	-2.853866e-04
4.123896e+01	-2.886928e-04
4.147715e+01	-2.920372e-04
4.171672e+01	-2.954205e-04
4.195767e+01	-2.988429e-04
4.220002e+01	-3.023049e-04
4.244377e+01	-3.058071e-04
4.268892e+01	-3.093498e-04
4.293549e+01	-3.129336e-04
4.318348e+01	-3.165589e-04
4.343291e+01	-3.202262e-04
4.368377e+01	-3.239359e-04
4.393609e+01	-3.276887e-04
4.418986e+01	-3.314849e-04
4.444510e+01	-3.353251e-04
4.470182e+01	-3.392098e-04
4.496001e+01	-3.431395e-04
4.521970e+01	-3.471147e-04
4.548089e+01	-3.511359e-04
4.574358e+01	-3.552038e-04
4.600779e+01	-3.593187e-04
4.627353e+01	-3.634814e-04
4.654081e+01	-3.676922e-04
4.680963e+01	-3.719519e-04
4.708000e+01	-3.762608e-04
4.735193e+01	-3.806197e-04
4.762543e+01	-3.850291e-04
4.790051e+01	-3.894896e-04
4.817719e+01	-3.940017e-04
4.845545e+01	-3.985662e-04
4.873533e+01	-4.031834e-04
4.901682e+01	-4.078542e-04
4.929994e+01	-4.125791e-04
4.958470e+01	-4.173587e-04
4.987110e+01	-4.221937e-04
5.015915e+01	-4.270847e-04
5.044887e+01	-4.320323e-04
5.074026e+01	-4.370373e-04
5.103333e+01	-4.421002e-04
5.132810e+01	-4.472218e-04
5.162457e+01	-4.524027e-04
5.192275e+01	-4.576437e-04
5.222265e+01	-4.629453e-04
5.252429e+01	-4.683084e-04
5.282767e+01	-4.737336e-04
5.313280e+01	-4.792216e-04
5.343969e+01	-4.847732e-04
5.374836e+01	-4.903891e-04
5.405880e+01	-4.960701e-04
5.437105e+01	-5.018169e-04
5.468509e+01	-5.076302e-04
5.500095e+01	-5.135109e-04
5.531863e+01	-5.194597e-04
5.563815e+01	-5.254774e-04
5.595951e+01	-5.315648e-04
5.628273e+01	-5.377228e-04
5.660782e+01	-5.439521e-04
5.693479e+01	-5.502535e-04
5.726364e+01	-5.566279e-04
5.759439e+01	-5.630762e-04
5.792705e+01	-5.695992e-04
5.826164e+01	-5.761977e-04
5.859815e+01	-5.828727e-04
5.893662e+01	-5.896249e-04
5.927703e+01	-5.964554e-04
5.961941e+01	-6.033651e-04
5.996377e+01	-6.103547e-04
6.031012e+01	-6.174253e-04
6.065847e+01	-6.245779e-04
6.100883e+01	-6.318133e-04
6.136121e+01	-6.391324e-04
6.171563e+01	-6.465364e-04
6.207210e+01	-6.540262e-04
6.243063e+01	-6.616027e-04
6.279122e+01	-6.692669e-04
6.315390e+01	-6.770199e-04
6.351868e+01	-6.848628e-04
6.388556e+01	-6.927965e-04
6.425456e+01	-7.008221e-04
6.462569e+01	-7.089406e-04
6.499897e+01	-7.171532e-04
6.537440e+01	-7.254609e-04
6.575200e+01	-7.338649e-04
6.613178e+01	-7.423662e-04
6.651375e+01	-7.509660e-04
6.689793e+01	-7.596654e-04
6.728433e+01	-7.684655e-04
6.767297e+01	-7.773676e-04
6.806384e+01	-7.863728e-04
6.845698e+01	-7.954823e-04
6.885238e+01	-8.046973e-04
6.925007e+01	-8.140191e-04
6.965005e+01	-8.234488e-04
7.005235e+01	-8.329878e-04
7.045697e+01	-8.426373e-04
7.086393e+01	-8.523985e-04
7.127323e+01	-8.622728e-04
7.168490e+01	-8.722614e-04
7.209895e+01	-8.823658e-04
7.251539e+01	-8.925872e-04
7.293424e+01	-9.029270e-04
7.335551e+01	-9.133865e-04
7.377920e+01	-9.239673e-04
7.420535e+01	-9.346705e-04
7.463396e+01	-9.454977e-04
7.506504e+01	-9.564504e-04
7.549861e+01	-9.675299e-04
7.593469e+01	-9.787377e-04
7.637328e+01	-9.900754e-04
7.681441e+01	-1.001544e-03
7.725809e+01	-1.013146e-03
7.770433e+01	-1.024882e-03
7.815315e+01	-1.036754e-03
7.860456e+01	-1.048764e-03
7.905857e+01	-1.060913e-03
7.951521e+01	-1.073202e-03
7.997449e+01	-1.085634e-03
8.043642e+01	-1.098210e-03
8.090102e+01	-1.110931e-03
8.136830e+01	-1.123800e-03
8.183828e+01	-1.136818e-03
8.231097e+01	-1.149986e-03
8.278640e+01	-1.163308e-03
8.326457e+01	-1.176783e-03
8.374550e+01	-1.190414e-03
8.422921e+01	-1.204204e-03
8.471572e+01	-1.218153e-03
8.520503e+01	-1.232264e-03
8.569717e+01	-1.246538e-03
8.619215e+01	-1.260977e-03
8.669000e+01	-1.275584e-03
8.719071e+01	-1.290359e-03
8.769432e+01	-1.305306e-03
8.820084e+01	-1.320426e-03
8.871029e+01	-1.335721e-03
8.922267e+01	-1.351194e-03
8.973802e+01	-1.366845e-03
9.025634e+01	-1.382678e-03
9.077766e+01	-1.398694e-03
9.130199e+01	-1.414896e-03
9.182935e+01	-1.431285e-03
9.235975e+01	-1.447864e-03
9.289321e+01	-1.464635e-03
9.342976e+01	-1.481600e-03
9.396941e+01	-1.498762e-03
9.451217e+01	-1.516123e-03
9.505807e+01	-1.533684e-03
9.560712e+01	-1.551449e-03
9.615934e+01	-1.569420e-03
9.671476e+01	-1.587599e-03
9.727338e+01	-1.605988e-03
9.783522e+01	-1.624590e-03
9.840032e+01	-1.643408e-03
9.896867e+01	-1.662444e-03
9.954031e+01	-1.681700e-03
1.001153e+02	-1.701179e-03
1.006935e+02	-1.720884e-03
1.012751e+02	-1.740817e-03
1.018601e+02	-1.760981e-03
1.024484e+02	-1.781378e-03
1.030402e+02	-1.802011e-03
1.036353e+02	-1.822884e-03
1.042339e+02	-1.843998e-03
1.048360e+02	-1.865356e-03
1.054415e+02	-1.886962e-03
1.060505e+02	-1.908818e-03
1.066631e+02	-1.930928e-03
1.072791e+02	-1.953293e-03
1.078988e+02	-1.975917e-03
1.085220e+02	-1.998804e-03
1.091488e+02	-2.021955e-03
1.097793e+02	-2.045374e-03
1.104133e+02	-2.069065e-03
1.110511e+02	-2.093030e-03
1.116925e+02	-2.117272e-03
1.123376e+02	-2.141795e-03
1.129865e+02	-2.166602e-03
1.136391e+02	-2.191696e-03
1.142955e+02	-2.217081e-03
1.149556e+02	-2.242760e-03
1.156196e+02	-2.268736e-03
1.162874e+02	-2.295013e-03
1.169591e+02	-2.321595e-03
1.176347e+02	-2.348484e-03
1.183141e+02	-2.375684e-03
1.189975e+02	-2.403199e-03
1.196848e+02	-2.431033e-03
1.203761e+02	-2.459189e-03
1.210714e+02	-2.487672e-03
1.217707e+02	-2.516484e-03
1.224740e+02	-2.545629e-03
1.231814e+02	-2.575112e-03
1.238929e+02	-2.604937e-03
1.246085e+02	-2.635106e-03
1.253283e+02	-2.665625e-03
1.260522e+02	-2.696498e-03
1.267802e+02	-2.727727e-03
1.275125e+02	-2.759319e-03
1.282490e+02	-2.791276e-03
1.289898e+02	-2.823603e-03
1.297348e+02	-2.856305e-03
1.304842e+02	-2.889385e-03
1.312378e+02	-2.922848e-03
1.319959e+02	-2.956698e-03
1.327583e+02	-2.990940e-03
1.335251e+02	-3.025579e-03
1.342963e+02	-3.060619e-03
1.350720e+02	-3.096064e-03
1.358522e+02	-3.131920e-03
1.366368e+02	-3.168191e-03
1.374260e+02	-3.204882e-03
1.382198e+02	-3.241997e-03
1.390182e+02	-3.279542e-03
1.398211e+02	-3.317522e-03
1.406287e+02	-3.355942e-03
1.414410e+02	-3.394806e-03
1.422579e+02	-3.434120e-03
1.430796e+02	-3.473889e-03
1.439060e+02	-3.514119e-03
1.447372e+02	-3.554814e-03
1.455732e+02	-3.595981e-03
1.464141e+02	-3.637623e-03
1.472597e+02	-3.679748e-03
1.481103e+02	-3.722361e-03
1.489658e+02	-3.765467e-03
1.498262e+02	-3.809071e-03
1.506916e+02	-3.853181e-03
1.515620e+02	-3.897801e-03
1.524374e+02	-3.942937e-03
1.533179e+02	-3.988596e-03
1.542034e+02	-4.034784e-03
1.550941e+02	-4.081506e-03
1.559899e+02	-4.128769e-03
1.568909e+02	-4.176578e-03
1.577971e+02	-4.224942e-03
1.587085e+02	-4.273865e-03
1.596252e+02	-4.323354e-03
1.605472e+02	-4.373416e-03
1.614745e+02	-4.424057e-03
1.624072e+02	-4.475284e-03
1.633453e+02	-4.527104e-03
1.642887e+02	-4.579524e-03
1.652377e+02	-4.632551e-03
1.661921e+02	-4.686191e-03
1.671520e+02	-4.740452e-03
1.681175e+02	-4.795341e-03
1.690885e+02	-4.850866e-03
1.700651e+02	-4.907032e-03
1.710474e+02	-4.963849e-03
1.720354e+02	-5.021323e-03
1.730291e+02	-5.079462e-03
1.740285e+02	-5.138274e-03
1.750337e+02	-5.197767e-03
1.760446e+02	-5.257948e-03
1.770615e+02	-5.318825e-03
1.780842e+02	-5.380407e-03
1.791128e+02	-5.442701e-03
1.801473e+02	-5.505716e-03
1.811878e+02	-5.569460e-03
1.822344e+02	-5.633942e-03
1.832870e+02	-5.699170e-03
1.843456e+02	-5.765152e-03
1.854104e+02	-5.831898e-03
1.864813e+02	-5.899416e-03
1.875584e+02	-5.967715e-03
1.886418e+02	-6.036804e-03
1.897313e+02	-6.106693e-03
1.908272e+02	-6.177390e-03
1.919294e+02	-6.248905e-03
1.930380e+02	-6.321248e-03
1.941530e+02	-6.394427e-03
1.952744e+02	-6.468453e-03
1.964023e+02	-6.543335e-03
1.975367e+02	-6.619083e-03
1.986777e+02	-6.695707e-03
1.998252e+02	-6.773218e-03
2.009794e+02	-6.851626e-03
2.021403e+02	-6.930940e-03
2.033078e+02	-7.011172e-03
2.044821e+02	-7.092331e-03
2.056632e+02	-7.174430e-03
2.068511e+02	-7.257478e-03
2.080459e+02	-7.341486e-03
2.092475e+02	-7.426466e-03
2.104561e+02	-7.512429e-03
2.116717e+02	-7.599386e-03
2.128943e+02	-7.687349e-03
2.141240e+02	-7.776329e-03
2.153608e+02	-7.866338e-03
2.166047e+02	-7.957388e-03
2.178558e+02	-8.049490e-03
2.191141e+02	-8.142658e-03
2.203797e+02	-8.236903e-03
2.216526e+02	-8.332238e-03
2.229329e+02	-8.428675e-03
2.242205e+02	-8.526227e-03
2.255156e+02	-8.624907e-03
2.268182e+02	-8.724729e-03
2.281283e+02	-8.825704e-03
2.294459e+02	-8.927846e-03
2.307712e+02	-9.031170e-03
2.321041e+02	-9.135688e-03
2.334447e+02	-9.241414e-03
2.347931e+02	-9.348363e-03
2.361493e+02	-9.456548e-03
2.375133e+02	-9.565983e-03
2.388851e+02	-9.676684e-03
2.402649e+02	-9.788664e-03
2.416527e+02	-9.901938e-03
2.430484e+02	-1.001652e-02
2.444523e+02	-1.013243e-02
2.458642e+02	-1.024968e-02
2.472843e+02	-1.036828e-02
2.487126e+02	-1.048825e-02
2.501492e+02	-1.060961e-02
2.515940e+02	-1.073238e-02
2.530472e+02	-1.085656e-02
2.545088e+02	-1.098218e-02
2.559789e+02	-1.110924e-02
2.574574e+02	-1.123778e-02
2.589444e+02	-1.136780e-02
2.604401e+02	-1.149933e-02
2.619444e+02	-1.163237e-02
2.634574e+02	-1.176695e-02
2.649791e+02	-1.190309e-02
2.665096e+02	-1.204079e-02
2.680489e+02	-1.218009e-02
2.695972e+02	-1.232100e-02
2.711544e+02	-1.246354e-02
2.727205e+02	-1.260772e-02
2.742958e+02	-1.275357e-02
2.758801e+02	-1.290110e-02
2.774736e+02	-1.305034e-02
2.790762e+02	-1.320130e-02
2.806882e+02	-1.335401e-02
2.823094e+02	-1.350847e-02
2.839400e+02	-1.366473e-02
2.855800e+02	-1.382278e-02
2.872295e+02	-1.398266e-02
2.888886e+02	-1.414439e-02
2.905572e+02	-1.430799e-02
2.922354e+02	-1.447347e-02
2.939234e+02	-1.464087e-02
2.956211e+02	-1.481020e-02
2.973286e+02	-1.498148e-02
2.990459e+02	-1.515474e-02
3.007732e+02	-1.533000e-02
3.025104e+02	-1.550728e-02
3.042577e+02	-1.568661e-02
3.060151e+02	-1.586801e-02
3.077826e+02	-1.605151e-02
3.095604e+02	-1.623712e-02
3.113484e+02	-1.642487e-02
3.131467e+02	-1.661479e-02
3.149554e+02	-1.680691e-02
3.167746e+02	-1.700124e-02
3.186043e+02	-1.719781e-02
3.204445e+02	-1.739665e-02
3.222954e+02	-1.759779e-02
3.241570e+02	-1.780124e-02
3.260293e+02	-1.800704e-02
3.279124e+02	-1.821522e-02
3.298064e+02	-1.842580e-02
3.317114e+02	-1.863881e-02
3.336273e+02	-1.885427e-02
3.355544e+02	-1.907222e-02
3.374925e+02	-1.929269e-02
3.394418e+02	-1.951569e-02
3.414024e+02	-1.974127e-02
3.433744e+02	-1.996945e-02
3.453577e+02	-2.020026e-02
3.473525e+02	-2.043374e-02
3.493588e+02	-2.066990e-02
3.513766e+02	-2.090879e-02
3.534062e+02	-2.115043e-02
3.554474e+02	-2.139486e-02
3.575005e+02	-2.164210e-02
3.595654e+02	-2.189220e-02
3.616422e+02	-2.214518e-02
3.637311e+02	-2.240107e-02
3.658320e+02	-2.265991e-02
3.679450e+02	-2.292174e-02
3.700702e+02	-2.318658e-02
3.722077e+02	-2.345448e-02
3.743576e+02	-2.372546e-02
3.765199e+02	-2.399956e-02
3.786946e+02	-2.427682e-02
3.808820e+02	-2.455728e-02
3.830819e+02	-2.484097e-02
3.852946e+02	-2.512792e-02
3.875200e+02	-2.541818e-02
3.897583e+02	-2.571178e-02
3.920096e+02	-2.600876e-02
3.942738e+02	-2.630916e-02
3.965511e+02	-2.661303e-02
3.988416e+02	-2.692039e-02
4.011452e+02	-2.723129e-02
4.034622e+02	-2.754576e-02
4.057926e+02	-2.786386e-02
4.081365e+02	-2.818562e-02
4.104938e+02	-2.851108e-02
4.128648e+02	-2.884029e-02
4.152495e+02	-2.917329e-02
4.176480e+02	-2.951012e-02
4.200603e+02	-2.985082e-02
4.224866e+02	-3.019544e-02
4.249268e+02	-3.054403e-02
4.273812e+02	-3.089663e-02
4.298497e+02	-3.125328e-02
4.323325e+02	-3.161404e-02
4.348297e+02	-3.197894e-02
4.373412e+02	-3.234804e-02
4.398673e+02	-3.272139e-02
4.424079e+02	-3.309902e-02
4.449633e+02	-3.348100e-02
4.475334e+02	-3.386737e-02
4.501183e+02	-3.425818e-02
4.527182e+02	-3.465349e-02
4.553330e+02	-3.505333e-02
4.579630e+02	-3.545777e-02
4.606082e+02	-3.586686e-02
4.632687e+02	-3.628064e-02
4.659445e+02	-3.669918e-02
4.686358e+02	-3.712253e-02
4.713426e+02	-3.755074e-02
4.740650e+02	-3.798387e-02
4.768032e+02	-3.842197e-02
4.795572e+02	-3.886510e-02
4.823271e+02	-3.931332e-02
4.851130e+02	-3.976669e-02
4.879150e+02	-4.022525e-02
4.907332e+02	-4.068909e-02
4.935676e+02	-4.115824e-02
4.964185e+02	-4.163278e-02
4.992858e+02	-4.211276e-02
5.021696e+02	-4.259825e-02
5.050701e+02	-4.308931e-02
5.079874e+02	-4.358600e-02
5.109215e+02	-4.408839e-02
5.138726e+02	-4.459653e-02
5.168407e+02	-4.511051e-02
5.198259e+02	-4.563037e-02
5.228284e+02	-4.615620e-02
5.258482e+02	-4.668805e-02
5.288855e+02	-4.722600e-02
5.319403e+02	-4.777011e-02
5.350128e+02	-4.832045e-02
5.381030e+02	-4.887710e-02
5.412111e+02	-4.944013e-02
5.443371e+02	-5.000960e-02
5.474812e+02	-5.058559e-02
5.506434e+02	-5.116818e-02
5.538239e+02	-5.175744e-02
5.570228e+02	-5.235344e-02
5.602401e+02	-5.295627e-02
5.634760e+02	-5.356599e-02
5.667306e+02	-5.418269e-02
5.700040e+02	-5.480644e-02
5.732964e+02	-5.543733e-02
5.766077e+02	-5.607544e-02
5.799382e+02	-5.672084e-02
5.832879e+02	-5.737362e-02
5.866569e+02	-5.803386e-02
5.900454e+02	-5.870165e-02
5.934535e+02	-5.937707e-02
5.968813e+02	-6.006021e-02
6.003288e+02	-6.075115e-02
6.037963e+02	-6.144998e-02
6.072838e+02	-6.215680e-02
6.107914e+02	-6.287168e-02
6.143194e+02	-6.359473e-02
6.178676e+02	-6.432603e-02
6.214364e+02	-6.506568e-02
6.250258e+02	-6.581377e-02
6.286359e+02	-6.657039e-02
6.322669e+02	-6.733564e-02
6.359189e+02	-6.810962e-02
6.395919e+02	-6.889243e-02
6.432862e+02	-6.968416e-02
6.470017e+02	-7.048492e-02
6.507388e+02	-7.129480e-02
6.544974e+02	-7.211391e-02
6.582778e+02	-7.294235e-02
6.620800e+02	-7.378023e-02
6.659041e+02	-7.462765e-02
6.697504e+02	-7.548471e-02
6.736188e+02	-7.635154e-02
6.775096e+02	-7.722823e-02
6.814229e+02	-7.811489e-02
6.853587e+02	-7.901164e-02
6.893173e+02	-7.991860e-02
6.932988e+02	-8.083586e-02
6.973033e+02	-8.176355e-02
7.013309e+02	-8.270179e-02
