Frequency(Hz)	Magnitude(dB)
1.000000e+01	-1.707498e-05
1.005776e+01	-1.727279e-05
1.011585e+01	-1.747290e-05
1.017428e+01	-1.767533e-05
1.023305e+01	-1.788011e-05
1.029215e+01	-1.808725e-05
1.035160e+01	-1.829680e-05
1.041139e+01	-1.850877e-05
1.047153e+01	-1.872320e-05
1.053201e+01	-1.894011e-05
1.059284e+01	-1.915954e-05
1.065403e+01	-1.938151e-05
1.071556e+01	-1.960605e-05
1.077746e+01	-1.983319e-05
1.083971e+01	-2.006296e-05
1.090232e+01	-2.029539e-05
1.096529e+01	-2.053052e-05
1.102862e+01	-2.076837e-05
1.109232e+01	-2.100898e-05
1.115639e+01	-2.125237e-05
1.122083e+01	-2.149859e-05
1.128564e+01	-2.174765e-05
1.135083e+01	-2.199961e-05
1.141639e+01	-2.225448e-05
1.148233e+01	-2.251230e-05
1.154865e+01	-2.277311e-05
1.161536e+01	-2.303694e-05
1.168245e+01	-2.330383e-05
1.174992e+01	-2.357381e-05
1.181779e+01	-2.384692e-05
1.188605e+01	-2.412319e-05
1.195470e+01	-2.440267e-05
1.202375e+01	-2.468538e-05
1.209320e+01	-2.497136e-05
1.216305e+01	-2.526066e-05
1.223330e+01	-2.555331e-05
1.230396e+01	-2.584935e-05
1.237503e+01	-2.614883e-05
1.244651e+01	-2.645177e-05
1.251840e+01	-2.675822e-05
1.259070e+01	-2.706822e-05
1.266343e+01	-2.738181e-05
1.273657e+01	-2.769903e-05
1.281014e+01	-2.801993e-05
1.288413e+01	-2.834455e-05
1.295855e+01	-2.867293e-05
1.303339e+01	-2.900511e-05
1.310867e+01	-2.934114e-05
1.318439e+01	-2.968107e-05
1.326054e+01	-3.002493e-05
1.333713e+01	-3.037278e-05
1.341417e+01	-3.072465e-05
1.349165e+01	-3.108061e-05
1.356958e+01	-3.144068e-05
1.364795e+01	-3.180493e-05
1.372678e+01	-3.217340e-05
1.380607e+01	-3.254613e-05
1.388581e+01	-3.292319e-05
1.396602e+01	-3.330461e-05
1.404668e+01	-3.369045e-05
1.412782e+01	-3.408076e-05
1.420942e+01	-3.447560e-05
1.429149e+01	-3.487501e-05
1.437404e+01	-3.527904e-05
1.445706e+01	-3.568776e-05
1.454057e+01	-3.610121e-05
1.462455e+01	-3.651945e-05
1.470902e+01	-3.694253e-05
1.479398e+01	-3.737052e-05
1.487943e+01	-3.780347e-05
1.496537e+01	-3.824143e-05
1.505181e+01	-3.868447e-05
1.513875e+01	-3.913263e-05
1.522619e+01	-3.958600e-05
1.531414e+01	-4.004461e-05
1.540259e+01	-4.050853e-05
1.549156e+01	-4.097783e-05
1.558103e+01	-4.145257e-05
1.567103e+01	-4.193281e-05
1.576155e+01	-4.241861e-05
1.585258e+01	-4.291004e-05
1.594415e+01	-4.340716e-05
1.603624e+01	-4.391004e-05
1.612886e+01	-4.441875e-05
1.622202e+01	-4.493335e-05
1.631572e+01	-4.545391e-05
1.640996e+01	-4.598051e-05
1.650474e+01	-4.651320e-05
1.660008e+01	-4.705207e-05
1.669596e+01	-4.759718e-05
1.679239e+01	-4.814860e-05
1.688938e+01	-4.870641e-05
1.698694e+01	-4.927069e-05
1.708505e+01	-4.984150e-05
1.718373e+01	-5.041892e-05
1.728299e+01	-5.100303e-05
1.738281e+01	-5.159392e-05
1.748322e+01	-5.219164e-05
1.758420e+01	-5.279629e-05
1.768576e+01	-5.340795e-05
1.778792e+01	-5.402669e-05
1.789066e+01	-5.465260e-05
1.799399e+01	-5.528576e-05
1.809793e+01	-5.592626e-05
1.820246e+01	-5.657418e-05
1.830760e+01	-5.722960e-05
1.841334e+01	-5.789262e-05
1.851969e+01	-5.856332e-05
1.862666e+01	-5.924178e-05
1.873425e+01	-5.992811e-05
1.884246e+01	-6.062239e-05
1.895129e+01	-6.132471e-05
1.906075e+01	-6.203517e-05
1.917085e+01	-6.275386e-05
1.928158e+01	-6.348088e-05
1.939295e+01	-6.421631e-05
1.950496e+01	-6.496027e-05
1.961762e+01	-6.571285e-05
1.973093e+01	-6.647415e-05
1.984490e+01	-6.724426e-05
1.995952e+01	-6.802330e-05
2.007480e+01	-6.881136e-05
2.019076e+01	-6.960855e-05
2.030738e+01	-7.041498e-05
2.042467e+01	-7.123075e-05
2.054264e+01	-7.205597e-05
2.066130e+01	-7.289076e-05
2.078064e+01	-7.373521e-05
2.090066e+01	-7.458944e-05
2.102139e+01	-7.545358e-05
2.114280e+01	-7.632772e-05
2.126492e+01	-7.721199e-05
2.138775e+01	-7.810650e-05
2.151128e+01	-7.901138e-05
2.163553e+01	-7.992674e-05
2.176050e+01	-8.085271e-05
2.188619e+01	-8.178940e-05
2.201260e+01	-8.273694e-05
2.213974e+01	-8.369547e-05
2.226762e+01	-8.466509e-05
2.239624e+01	-8.564595e-05
2.252560e+01	-8.663817e-05
2.265571e+01	-8.764189e-05
2.278656e+01	-8.865724e-05
2.291818e+01	-8.968434e-05
2.305055e+01	-9.072335e-05
2.318369e+01	-9.177440e-05
2.331760e+01	-9.283762e-05
2.345228e+01	-9.391315e-05
2.358774e+01	-9.500115e-05
2.372398e+01	-9.610176e-05
2.386101e+01	-9.721511e-05
2.399883e+01	-9.834136e-05
2.413745e+01	-9.948066e-05
2.427686e+01	-1.006332e-04
2.441709e+01	-1.017990e-04
2.455812e+01	-1.029784e-04
2.469997e+01	-1.041714e-04
2.484263e+01	-1.053782e-04
2.498612e+01	-1.065990e-04
2.513044e+01	-1.078340e-04
2.527559e+01	-1.090833e-04
2.542158e+01	-1.103470e-04
2.556842e+01	-1.116254e-04
2.571610e+01	-1.129186e-04
2.586463e+01	-1.142268e-04
2.601403e+01	-1.155501e-04
2.616428e+01	-1.168888e-04
2.631541e+01	-1.182429e-04
2.646740e+01	-1.196128e-04
2.662028e+01	-1.209985e-04
2.677404e+01	-1.224003e-04
2.692868e+01	-1.238183e-04
2.708422e+01	-1.252528e-04
2.724066e+01	-1.267038e-04
2.739800e+01	-1.281717e-04
2.755625e+01	-1.296566e-04
2.771541e+01	-1.311587e-04
2.787550e+01	-1.326782e-04
2.803650e+01	-1.342153e-04
2.819844e+01	-1.357702e-04
2.836131e+01	-1.373431e-04
2.852513e+01	-1.389342e-04
2.868989e+01	-1.405438e-04
2.885560e+01	-1.421720e-04
2.902227e+01	-1.438191e-04
2.918990e+01	-1.454852e-04
2.935850e+01	-1.471707e-04
2.952807e+01	-1.488757e-04
2.969863e+01	-1.506004e-04
2.987016e+01	-1.523451e-04
3.004269e+01	-1.541100e-04
3.021622e+01	-1.558954e-04
3.039075e+01	-1.577015e-04
3.056628e+01	-1.595285e-04
3.074283e+01	-1.613766e-04
3.092040e+01	-1.632462e-04
3.109900e+01	-1.651374e-04
3.127862e+01	-1.670505e-04
3.145929e+01	-1.689858e-04
3.164099e+01	-1.709435e-04
3.182375e+01	-1.729239e-04
3.200756e+01	-1.749272e-04
3.219244e+01	-1.769538e-04
3.237838e+01	-1.790038e-04
3.256540e+01	-1.810776e-04
3.275349e+01	-1.831753e-04
3.294268e+01	-1.852974e-04
3.313295e+01	-1.874441e-04
3.332433e+01	-1.896157e-04
3.351681e+01	-1.918124e-04
3.371040e+01	-1.940345e-04
3.390511e+01	-1.962824e-04
3.410094e+01	-1.985563e-04
3.429791e+01	-2.008566e-04
3.449601e+01	-2.031835e-04
3.469526e+01	-2.055374e-04
3.489566e+01	-2.079186e-04
3.509721e+01	-2.103273e-04
3.529993e+01	-2.127639e-04
3.550382e+01	-2.152288e-04
3.570889e+01	-2.177222e-04
3.591515e+01	-2.202445e-04
3.612259e+01	-2.227961e-04
3.633123e+01	-2.253772e-04
3.654108e+01	-2.279882e-04
3.675214e+01	-2.306294e-04
3.696442e+01	-2.333012e-04
3.717792e+01	-2.360040e-04
3.739266e+01	-2.387381e-04
3.760864e+01	-2.415039e-04
3.782587e+01	-2.443017e-04
3.804435e+01	-2.471319e-04
3.826409e+01	-2.499949e-04
3.848510e+01	-2.528911e-04
3.870739e+01	-2.558208e-04
3.893096e+01	-2.587845e-04
3.915583e+01	-2.617825e-04
3.938199e+01	-2.648152e-04
3.960946e+01	-2.678831e-04
3.983824e+01	-2.709865e-04
4.006834e+01	-2.741258e-04
4.029978e+01	-2.773016e-04
4.053255e+01	-2.805141e-04
4.076666e+01	-2.837638e-04
4.100213e+01	-2.870512e-04
4.123896e+01	-2.903766e-04
4.147715e+01	-2.937406e-04
4.171672e+01	-2.971436e-04
4.195767e+01	-3.005859e-04
4.220002e+01	-3.040682e-04
4.244377e+01	-3.075908e-04
4.268892e+01	-3.111542e-04
4.293549e+01	-3.147589e-04
4.318348e+01	-3.184053e-04
4.343291e+01	-3.220940e-04
4.368377e+01	-3.258254e-04
4.393609e+01	-3.296000e-04
4.418986e+01	-3.334184e-04
4.444510e+01	-3.372810e-04
4.470182e+01	-3.411883e-04
4.496001e+01	-3.451409e-04
4.521970e+01	-3.491393e-04
4.548089e+01	-3.531840e-04
4.574358e+01	-3.572756e-04
4.600779e+01	-3.614145e-04
4.627353e+01	-3.656015e-04
4.654081e+01	-3.698369e-04
4.680963e+01	-3.741213e-04
4.708000e+01	-3.784555e-04
4.735193e+01	-3.828398e-04
4.762543e+01	-3.872749e-04
4.790051e+01	-3.917614e-04
4.817719e+01	-3.962998e-04
4.845545e+01	-4.008909e-04
4.873533e+01	-4.055351e-04
4.901682e+01	-4.102331e-04
4.929994e+01	-4.149855e-04
4.958470e+01	-4.197930e-04
4.987110e+01	-4.246562e-04
5.015915e+01	-4.295757e-04
5.044887e+01	-4.345522e-04
5.074026e+01	-4.395864e-04
5.103333e+01	-4.446788e-04
5.132810e+01	-4.498303e-04
5.162457e+01	-4.550414e-04
5.192275e+01	-4.603129e-04
5.222265e+01	-4.656455e-04
5.252429e+01	-4.710398e-04
5.282767e+01	-4.764967e-04
5.313280e+01	-4.820167e-04
5.343969e+01	-4.876007e-04
5.374836e+01	-4.932494e-04
5.405880e+01	-4.989635e-04
5.437105e+01	-5.047438e-04
5.468509e+01	-5.105910e-04
5.500095e+01	-5.165060e-04
5.531863e+01	-5.224895e-04
5.563815e+01	-5.285423e-04
5.595951e+01	-5.346652e-04
5.628273e+01	-5.408591e-04
5.660782e+01	-5.471247e-04
5.693479e+01	-5.534629e-04
5.726364e+01	-5.598745e-04
5.759439e+01	-5.663604e-04
5.792705e+01	-5.729214e-04
5.826164e+01	-5.795584e-04
5.859815e+01	-5.862723e-04
5.893662e+01	-5.930640e-04
5.927703e+01	-5.999343e-04
5.961941e+01	-6.068842e-04
5.996377e+01	-6.139146e-04
6.031012e+01	-6.210265e-04
6.065847e+01	-6.282207e-04
6.100883e+01	-6.354983e-04
6.136121e+01	-6.428602e-04
6.171563e+01	-6.503073e-04
6.207210e+01	-6.578408e-04
6.243063e+01	-6.654614e-04
6.279122e+01	-6.731704e-04
6.315390e+01	-6.809687e-04
6.351868e+01	-6.888572e-04
6.388556e+01	-6.968372e-04
6.425456e+01	-7.049096e-04
6.462569e+01	-7.130755e-04
6.499897e+01	-7.213360e-04
6.537440e+01	-7.296922e-04
6.575200e+01	-7.381451e-04
6.613178e+01	-7.466960e-04
6.651375e+01	-7.553459e-04
6.689793e+01	-7.640961e-04
6.728433e+01	-7.729475e-04
6.767297e+01	-7.819015e-04
6.806384e+01	-7.909592e-04
6.845698e+01	-8.001219e-04
6.885238e+01	-8.093907e-04
6.925007e+01	-8.187668e-04
6.965005e+01	-8.282515e-04
7.005235e+01	-8.378461e-04
7.045697e+01	-8.475518e-04
7.086393e+01	-8.573700e-04
7.127323e+01	-8.673019e-04
7.168490e+01	-8.773488e-04
7.209895e+01	-8.875121e-04
7.251539e+01	-8.977931e-04
7.293424e+01	-9.081932e-04
7.335551e+01	-9.187137e-04
7.377920e+01	-9.293561e-04
7.420535e+01	-9.401218e-04
7.463396e+01	-9.510122e-04
7.506504e+01	-9.620287e-04
7.549861e+01	-9.731728e-04
7.593469e+01	-9.844460e-04
7.637328e+01	-9.958498e-04
7.681441e+01	-1.007386e-03
7.725809e+01	-1.019055e-03
7.770433e+01	-1.030860e-03
7.815315e+01	-1.042801e-03
7.860456e+01	-1.054881e-03
7.905857e+01	-1.067100e-03
7.951521e+01	-1.079461e-03
7.997449e+01	-1.091966e-03
8.043642e+01	-1.104615e-03
8.090102e+01	-1.117410e-03
8.136830e+01	-1.130354e-03
8.183828e+01	-1.143448e-03
8.231097e+01	-1.156693e-03
8.278640e+01	-1.170092e-03
8.326457e+01	-1.183646e-03
8.374550e+01	-1.197357e-03
8.422921e+01	-1.211227e-03
8.471572e+01	-1.225257e-03
8.520503e+01	-1.239450e-03
8.569717e+01	-1.253808e-03
8.619215e+01	-1.268331e-03
8.669000e+01	-1.283023e-03
8.719071e+01	-1.297885e-03
8.769432e+01	-1.312919e-03
8.820084e+01	-1.328127e-03
8.871029e+01	-1.343511e-03
8.922267e+01	-1.359074e-03
8.973802e+01	-1.374817e-03
9.025634e+01	-1.390742e-03
9.077766e+01	-1.406851e-03
9.130199e+01	-1.423147e-03
9.182935e+01	-1.439632e-03
9.235975e+01	-1.456308e-03
9.289321e+01	-1.473177e-03
9.342976e+01	-1.490241e-03
9.396941e+01	-1.507503e-03
9.451217e+01	-1.524965e-03
9.505807e+01	-1.542629e-03
9.560712e+01	-1.560497e-03
9.615934e+01	-1.578573e-03
9.671476e+01	-1.596857e-03
9.727338e+01	-1.615354e-03
9.783522e+01	-1.634065e-03
9.840032e+01	-1.652992e-03
9.896867e+01	-1.672139e-03
9.954031e+01	-1.691507e-03
1.001153e+02	-1.711100e-03
1.006935e+02	-1.730920e-03
1.012751e+02	-1.750969e-03
1.018601e+02	-1.771250e-03
1.024484e+02	-1.791766e-03
1.030402e+02	-1.812520e-03
1.036353e+02	-1.833514e-03
1.042339e+02	-1.854751e-03
1.048360e+02	-1.876235e-03
1.054415e+02	-1.897966e-03
1.060505e+02	-1.919950e-03
1.066631e+02	-1.942188e-03
1.072791e+02	-1.964684e-03
1.078988e+02	-1.987440e-03
1.085220e+02	-2.010460e-03
1.091488e+02	-2.033746e-03
1.097793e+02	-2.057302e-03
1.104133e+02	-2.081131e-03
1.110511e+02	-2.105235e-03
1.116925e+02	-2.129619e-03
1.123376e+02	-2.154285e-03
1.129865e+02	-2.179237e-03
1.136391e+02	-2.204477e-03
1.142955e+02	-2.230010e-03
1.149556e+02	-2.255839e-03
1.156196e+02	-2.281966e-03
1.162874e+02	-2.308397e-03
1.169591e+02	-2.335133e-03
1.176347e+02	-2.362179e-03
1.183141e+02	-2.389537e-03
1.189975e+02	-2.417213e-03
1.196848e+02	-2.445209e-03
1.203761e+02	-2.473530e-03
1.210714e+02	-2.502178e-03
1.217707e+02	-2.531158e-03
1.224740e+02	-2.560473e-03
1.231814e+02	-2.590128e-03
1.238929e+02	-2.620126e-03
1.246085e+02	-2.650472e-03
1.253283e+02	-2.681169e-03
1.260522e+02	-2.712221e-03
1.267802e+02	-2.743633e-03
1.275125e+02	-2.775409e-03
1.282490e+02	-2.807552e-03
1.289898e+02	-2.840068e-03
1.297348e+02	-2.872960e-03
1.304842e+02	-2.906233e-03
1.312378e+02	-2.939891e-03
1.319959e+02	-2.973938e-03
1.327583e+02	-3.008380e-03
1.335251e+02	-3.043221e-03
1.342963e+02	-3.078465e-03
1.350720e+02	-3.114117e-03
1.358522e+02	-3.150182e-03
1.366368e+02	-3.186664e-03
1.374260e+02	-3.223569e-03
1.382198e+02	-3.260901e-03
1.390182e+02	-3.298665e-03
1.398211e+02	-3.336866e-03
1.406287e+02	-3.375509e-03
1.414410e+02	-3.414600e-03
1.422579e+02	-3.454143e-03
1.430796e+02	-3.494144e-03
1.439060e+02	-3.534608e-03
1.447372e+02	-3.575541e-03
1.455732e+02	-3.616947e-03
1.464141e+02	-3.658833e-03
1.472597e+02	-3.701203e-03
1.481103e+02	-3.744064e-03
1.489658e+02	-3.787421e-03
1.498262e+02	-3.831280e-03
1.506916e+02	-3.875646e-03
1.515620e+02	-3.920527e-03
1.524374e+02	-3.965926e-03
1.533179e+02	-4.011851e-03
1.542034e+02	-4.058308e-03
1.550941e+02	-4.105302e-03
1.559899e+02	-4.152840e-03
1.568909e+02	-4.200929e-03
1.577971e+02	-4.249574e-03
1.587085e+02	-4.298782e-03
1.596252e+02	-4.348559e-03
1.605472e+02	-4.398913e-03
1.614745e+02	-4.449849e-03
1.624072e+02	-4.501375e-03
1.633453e+02	-4.553497e-03
1.642887e+02	-4.606223e-03
1.652377e+02	-4.659558e-03
1.661921e+02	-4.713511e-03
1.671520e+02	-4.768088e-03
1.681175e+02	-4.823297e-03
1.690885e+02	-4.879145e-03
1.700651e+02	-4.935639e-03
1.710474e+02	-4.992787e-03
1.720354e+02	-5.050596e-03
1.730291e+02	-5.109074e-03
1.740285e+02	-5.168228e-03
1.750337e+02	-5.228067e-03
1.760446e+02	-5.288599e-03
1.770615e+02	-5.349831e-03
1.780842e+02	-5.411771e-03
1.791128e+02	-5.474429e-03
1.801473e+02	-5.537811e-03
1.811878e+02	-5.601926e-03
1.822344e+02	-5.666783e-03
1.832870e+02	-5.732391e-03
1.843456e+02	-5.798758e-03
1.854104e+02	-5.865893e-03
1.864813e+02	-5.933804e-03
1.875584e+02	-6.002501e-03
1.886418e+02	-6.071993e-03
1.897313e+02	-6.142288e-03
1.908272e+02	-6.213397e-03
1.919294e+02	-6.285329e-03
1.930380e+02	-6.358093e-03
1.941530e+02	-6.431698e-03
1.952744e+02	-6.506155e-03
1.964023e+02	-6.581473e-03
1.975367e+02	-6.657663e-03
1.986777e+02	-6.734734e-03
1.998252e+02	-6.812696e-03
2.009794e+02	-6.891560e-03
2.021403e+02	-6.971336e-03
2.033078e+02	-7.052035e-03
2.044821e+02	-7.133668e-03
2.056632e+02	-7.216244e-03
2.068511e+02	-7.299776e-03
2.080459e+02	-7.384273e-03
2.092475e+02	-7.469748e-03
2.104561e+02	-7.556212e-03
2.116717e+02	-7.643675e-03
2.128943e+02	-7.732150e-03
2.141240e+02	-7.821648e-03
2.153608e+02	-7.912181e-03
2.166047e+02	-8.003761e-03
2.178558e+02	-8.096400e-03
2.191141e+02	-8.190110e-03
2.203797e+02	-8.284904e-03
2.216526e+02	-8.380794e-03
2.229329e+02	-8.477792e-03
2.242205e+02	-8.575912e-03
2.255156e+02	-8.675167e-03
2.268182e+02	-8.775569e-03
2.281283e+02	-8.877132e-03
2.294459e+02	-8.979870e-03
2.307712e+02	-9.083794e-03
2.321041e+02	-9.188921e-03
2.334447e+02	-9.295263e-03
2.347931e+02	-9.402834e-03
2.361493e+02	-9.511648e-03
2.375133e+02	-9.621721e-03
2.388851e+02	-9.733066e-03
2.402649e+02	-9.845697e-03
2.416527e+02	-9.959631e-03
2.430484e+02	-1.007488e-02
2.444523e+02	-1.019146e-02
2.458642e+02	-1.030939e-02
2.472843e+02	-1.042869e-02
2.487126e+02	-1.054936e-02
2.501492e+02	-1.067143e-02
2.515940e+02	-1.079490e-02
2.530472e+02	-1.091981e-02
2.545088e+02	-1.104615e-02
2.559789e+02	-1.117396e-02
2.574574e+02	-1.130325e-02
2.589444e+02	-1.143402e-02
2.604401e+02	-1.156631e-02
2.619444e+02	-1.170013e-02
2.634574e+02	-1.183549e-02
2.649791e+02	-1.197242e-02
2.665096e+02	-1.211093e-02
2.680489e+02	-1.225104e-02
2.695972e+02	-1.239277e-02
2.711544e+02	-1.253614e-02
2.727205e+02	-1.268116e-02
2.742958e+02	-1.282785e-02
2.758801e+02	-1.297624e-02
2.774736e+02	-1.312635e-02
2.790762e+02	-1.327819e-02
2.806882e+02	-1.343178e-02
2.823094e+02	-1.358715e-02
2.839400e+02	-1.374431e-02
2.855800e+02	-1.390328e-02
2.872295e+02	-1.406410e-02
2.888886e+02	-1.422676e-02
2.905572e+02	-1.439131e-02
2.922354e+02	-1.455776e-02
2.939234e+02	-1.472613e-02
2.956211e+02	-1.489644e-02
2.973286e+02	-1.506872e-02
2.990459e+02	-1.524298e-02
3.007732e+02	-1.541926e-02
3.025104e+02	-1.559758e-02
3.042577e+02	-1.577795e-02
3.060151e+02	-1.596041e-02
3.077826e+02	-1.614497e-02
3.095604e+02	-1.633166e-02
3.113484e+02	-1.652050e-02
3.131467e+02	-1.671153e-02
3.149554e+02	-1.690476e-02
3.167746e+02	-1.710021e-02
3.186043e+02	-1.729793e-02
3.204445e+02	-1.749793e-02
3.222954e+02	-1.770023e-02
3.241570e+02	-1.790487e-02
3.260293e+02	-1.811186e-02
3.279124e+02	-1.832125e-02
3.298064e+02	-1.853305e-02
3.317114e+02	-1.874730e-02
3.336273e+02	-1.896402e-02
3.355544e+02	-1.918323e-02
3.374925e+02	-1.940498e-02
3.394418e+02	-1.962928e-02
3.414024e+02	-1.985617e-02
3.433744e+02	-2.008567e-02
3.453577e+02	-2.031782e-02
3.473525e+02	-2.055265e-02
3.493588e+02	-2.079019e-02
3.513766e+02	-2.103046e-02
3.534062e+02	-2.127351e-02
3.554474e+02	-2.151935e-02
3.575005e+02	-2.176803e-02
3.595654e+02	-2.201958e-02
3.616422e+02	-2.227403e-02
3.637311e+02	-2.253141e-02
3.658320e+02	-2.279175e-02
3.679450e+02	-2.305510e-02
3.700702e+02	-2.332148e-02
3.722077e+02	-2.359092e-02
3.743576e+02	-2.386348e-02
3.765199e+02	-2.413917e-02
3.786946e+02	-2.441804e-02
3.808820e+02	-2.470012e-02
3.830819e+02	-2.498546e-02
3.852946e+02	-2.527407e-02
3.875200e+02	-2.556602e-02
3.897583e+02	-2.586132e-02
3.920096e+02	-2.616003e-02
3.942738e+02	-2.646217e-02
3.965511e+02	-2.676779e-02
3.988416e+02	-2.707694e-02
4.011452e+02	-2.738964e-02
4.034622e+02	-2.770594e-02
4.057926e+02	-2.802588e-02
4.081365e+02	-2.834950e-02
4.104938e+02	-2.867685e-02
4.128648e+02	-2.900797e-02
4.152495e+02	-2.934289e-02
4.176480e+02	-2.968167e-02
4.200603e+02	-3.002435e-02
4.224866e+02	-3.037097e-02
4.249268e+02	-3.072158e-02
4.273812e+02	-3.107622e-02
4.298497e+02	-3.143494e-02
4.323325e+02	-3.179779e-02
4.348297e+02	-3.216480e-02
4.373412e+02	-3.253604e-02
4.398673e+02	-3.291155e-02
4.424079e+02	-3.329137e-02
4.449633e+02	-3.367556e-02
4.475334e+02	-3.406417e-02
4.501183e+02	-3.445724e-02
4.527182e+02	-3.485483e-02
4.553330e+02	-3.525699e-02
4.579630e+02	-3.566377e-02
4.606082e+02	-3.607522e-02
4.632687e+02	-3.649140e-02
4.659445e+02	-3.691236e-02
4.686358e+02	-3.733816e-02
4.713426e+02	-3.776885e-02
4.740650e+02	-3.820448e-02
4.768032e+02	-3.864512e-02
4.795572e+02	-3.909081e-02
4.823271e+02	-3.954162e-02
4.851130e+02	-3.999761e-02
4.879150e+02	-4.045883e-02
4.907332e+02	-4.092534e-02
4.935676e+02	-4.139720e-02
4.964185e+02	-4.187448e-02
4.992858e+02	-4.235724e-02
5.021696e+02	-4.284554e-02
5.050701e+02	-4.333943e-02
5.079874e+02	-4.383899e-02
5.109215e+02	-4.434428e-02
5.138726e+02	-4.485536e-02
5.168407e+02	-4.537230e-02
5.198259e+02	-4.589517e-02
5.228284e+02	-4.642403e-02
5.258482e+02	-4.695895e-02
5.288855e+02	-4.750000e-02
5.319403e+02	-4.804725e-02
5.350128e+02	-4.860077e-02
5.381030e+02	-4.916063e-02
5.412111e+02	-4.972691e-02
5.443371e+02	-5.029966e-02
5.474812e+02	-5.087898e-02
5.506434e+02	-5.146493e-02
5.538239e+02	-5.205758e-02
5.570228e+02	-5.265702e-02
5.602401e+02	-5.326332e-02
5.634760e+02	-5.387656e-02
5.667306e+02	-5.449681e-02
5.700040e+02	-5.512416e-02
5.732964e+02	-5.575868e-02
5.766077e+02	-5.640046e-02
5.799382e+02	-5.704958e-02
5.832879e+02	-5.770612e-02
5.866569e+02	-5.837016e-02
5.900454e+02	-5.904180e-02
5.934535e+02	-5.972110e-02
5.968813e+02	-6.040817e-02
6.003288e+02	-6.110309e-02
6.037963e+02	-6.180594e-02
6.072838e+02	-6.251682e-02
6.107914e+02	-6.323582e-02
6.143194e+02	-6.396303e-02
6.178676e+02	-6.469853e-02
6.214364e+02	-6.544243e-02
6.250258e+02	-6.619482e-02
6.286359e+02	-6.695579e-02
6.322669e+02	-6.772544e-02
6.359189e+02	-6.850387e-02
6.395919e+02	-6.929117e-02
6.432862e+02	-7.008745e-02
6.470017e+02	-7.089280e-02
6.507388e+02	-7.170733e-02
6.544974e+02	-7.253114e-02
6.582778e+02	-7.336434e-02
6.620800e+02	-7.420703e-02
6.659041e+02	-7.505931e-02
6.697504e+02	-7.592129e-02
6.736188e+02	-7.679308e-02
6.775096e+02	-7.767480e-02
6.814229e+02	-7.856654e-02
6.853587e+02	-7.946844e-02
6.893173e+02	-8.038058e-02
6.932988e+02	-8.130310e-02
6.973033e+02	-8.223611e-02
7.013309e+02	-8.317972e-02
