Frequency(Hz)	Magnitude(dB)
1.000000e+01	-2.057754e+00
1.005776e+01	-2.076852e+00
1.011585e+01	-2.095869e+00
1.017428e+01	-2.115108e+00
1.023305e+01	-2.134516e+00
1.029215e+01	-2.154059e+00
1.035160e+01	-2.173804e+00
1.041139e+01	-2.193388e+00
1.047153e+01	-2.213492e+00
1.053201e+01	-2.233462e+00
1.059284e+01	-2.253585e+00
1.065403e+01	-2.273997e+00
1.071556e+01	-2.294179e+00
1.077746e+01	-2.314753e+00
1.083971e+01	-2.335787e+00
1.090232e+01	-2.356694e+00
1.096529e+01	-2.377537e+00
1.102862e+01	-2.398684e+00
1.109232e+01	-2.419989e+00
1.115639e+01	-2.441520e+00
1.122083e+01	-2.463088e+00
1.128564e+01	-2.484801e+00
1.135083e+01	-2.506738e+00
1.141639e+01	-2.528873e+00
1.148233e+01	-2.550801e+00
1.154865e+01	-2.573016e+00
1.161536e+01	-2.595692e+00
1.168245e+01	-2.618120e+00
1.174992e+01	-2.640648e+00
1.181779e+01	-2.663851e+00
1.188605e+01	-2.686850e+00
1.195470e+01	-2.710154e+00
1.202375e+01	-2.733036e+00
1.209320e+01	-2.756460e+00
1.216305e+01	-2.780170e+00
1.223330e+01	-2.804055e+00
1.230396e+01	-2.827731e+00
1.237503e+01	-2.851671e+00
1.244651e+01	-2.876034e+00
1.251840e+01	-2.900325e+00
1.259070e+01	-2.924665e+00
1.266343e+01	-2.949202e+00
1.273657e+01	-2.973987e+00
1.281014e+01	-2.998998e+00
1.288413e+01	-3.023818e+00
1.295855e+01	-3.049030e+00
1.303339e+01	-3.074452e+00
1.310867e+01	-3.099972e+00
1.318439e+01	-3.125473e+00
1.326054e+01	-3.150957e+00
1.333713e+01	-3.177216e+00
1.341417e+01	-3.203244e+00
1.349165e+01	-3.228995e+00
1.356958e+01	-3.255339e+00
1.364795e+01	-3.281950e+00
1.372678e+01	-3.308464e+00
1.380607e+01	-3.335420e+00
1.388581e+01	-3.362203e+00
1.396602e+01	-3.389402e+00
1.404668e+01	-3.416482e+00
1.412782e+01	-3.443694e+00
1.420942e+01	-3.470999e+00
1.429149e+01	-3.498815e+00
1.437404e+01	-3.526518e+00
1.445706e+01	-3.554357e+00
1.454057e+01	-3.582304e+00
1.462455e+01	-3.610489e+00
1.470902e+01	-3.638931e+00
1.479398e+01	-3.667344e+00
1.487943e+01	-3.696015e+00
1.496537e+01	-3.724905e+00
1.505181e+01	-3.753508e+00
1.513875e+01	-3.782698e+00
1.522619e+01	-3.811917e+00
1.531414e+01	-3.840997e+00
1.540259e+01	-3.870392e+00
1.549156e+01	-3.899876e+00
1.558103e+01	-3.929640e+00
1.567103e+01	-3.959581e+00
1.576155e+01	-3.989742e+00
1.585258e+01	-4.019465e+00
1.594415e+01	-4.049964e+00
1.603624e+01	-4.080286e+00
1.612886e+01	-4.111044e+00
1.622202e+01	-4.141883e+00
1.631572e+01	-4.172680e+00
1.640996e+01	-4.203576e+00
1.650474e+01	-4.234755e+00
1.660008e+01	-4.265908e+00
1.669596e+01	-4.296991e+00
1.679239e+01	-4.328486e+00
1.688938e+01	-4.360074e+00
1.698694e+01	-4.391850e+00
1.708505e+01	-4.423787e+00
1.718373e+01	-4.455777e+00
1.728299e+01	-4.488230e+00
1.738281e+01	-4.520341e+00
1.748322e+01	-4.552658e+00
1.758420e+01	-4.585456e+00
1.768576e+01	-4.618079e+00
1.778792e+01	-4.650935e+00
1.789066e+01	-4.683624e+00
1.799399e+01	-4.717073e+00
1.809793e+01	-4.750288e+00
1.820246e+01	-4.783242e+00
1.830760e+01	-4.816877e+00
1.841334e+01	-4.850277e+00
1.851969e+01	-4.884154e+00
1.862666e+01	-4.917809e+00
1.873425e+01	-4.951946e+00
1.884246e+01	-4.986214e+00
1.895129e+01	-5.020271e+00
1.906075e+01	-5.054506e+00
1.917085e+01	-5.089201e+00
1.928158e+01	-5.123793e+00
1.939295e+01	-5.158361e+00
1.950496e+01	-5.193080e+00
1.961762e+01	-5.228167e+00
1.973093e+01	-5.263000e+00
1.984490e+01	-5.298272e+00
1.995952e+01	-5.334030e+00
2.007480e+01	-5.369368e+00
2.019076e+01	-5.404514e+00
2.030738e+01	-5.440497e+00
2.042467e+01	-5.476221e+00
2.054264e+01	-5.512173e+00
2.066130e+01	-5.548372e+00
2.078064e+01	-5.584277e+00
2.090066e+01	-5.620308e+00
2.102139e+01	-5.657116e+00
2.114280e+01	-5.693525e+00
2.126492e+01	-5.729764e+00
2.138775e+01	-5.766496e+00
2.151128e+01	-5.803688e+00
2.163553e+01	-5.840259e+00
2.176050e+01	-5.877736e+00
2.188619e+01	-5.914612e+00
2.201260e+01	-5.952421e+00
2.213974e+01	-5.989043e+00
2.226762e+01	-6.026642e+00
2.239624e+01	-6.064331e+00
2.252560e+01	-6.102346e+00
2.265571e+01	-6.139590e+00
2.278656e+01	-6.178136e+00
2.291818e+01	-6.215959e+00
2.305055e+01	-6.254018e+00
2.318369e+01	-6.292340e+00
2.331760e+01	-6.330781e+00
2.345228e+01	-6.368950e+00
2.358774e+01	-6.407721e+00
2.372398e+01	-6.446076e+00
2.386101e+01	-6.484737e+00
2.399883e+01	-6.523663e+00
2.413745e+01	-6.562742e+00
2.427686e+01	-6.601730e+00
2.441709e+01	-6.640783e+00
2.455812e+01	-6.679783e+00
2.469997e+01	-6.719359e+00
2.484263e+01	-6.758588e+00
2.498612e+01	-6.798142e+00
2.513044e+01	-6.838065e+00
2.527559e+01	-6.877608e+00
2.542158e+01	-6.917538e+00
2.556842e+01	-6.957310e+00
2.571610e+01	-6.997509e+00
2.586463e+01	-7.037417e+00
2.601403e+01	-7.077610e+00
2.616428e+01	-7.117556e+00
2.631541e+01	-7.158680e+00
2.646740e+01	-7.198873e+00
2.662028e+01	-7.239338e+00
2.677404e+01	-7.280123e+00
2.692868e+01	-7.320565e+00
2.708422e+01	-7.361199e+00
2.724066e+01	-7.402071e+00
2.739800e+01	-7.443425e+00
2.755625e+01	-7.484356e+00
2.771541e+01	-7.525507e+00
2.787550e+01	-7.566225e+00
2.803650e+01	-7.607832e+00
2.819844e+01	-7.649536e+00
2.836131e+01	-7.690668e+00
2.852513e+01	-7.732504e+00
2.868989e+01	-7.773983e+00
2.885560e+01	-7.815659e+00
2.902227e+01	-7.857525e+00
2.918990e+01	-7.899181e+00
2.935850e+01	-7.941734e+00
2.952807e+01	-7.983336e+00
2.969863e+01	-8.025377e+00
2.987016e+01	-8.067619e+00
3.004269e+01	-8.110016e+00
3.021622e+01	-8.151917e+00
3.039075e+01	-8.194627e+00
3.056628e+01	-8.236711e+00
3.074283e+01	-8.279046e+00
3.092040e+01	-8.322561e+00
3.109900e+01	-8.364793e+00
3.127862e+01	-8.407837e+00
3.145929e+01	-8.450491e+00
3.164099e+01	-8.493278e+00
3.182375e+01	-8.536433e+00
3.200756e+01	-8.579111e+00
3.219244e+01	-8.622303e+00
3.237838e+01	-8.665601e+00
3.256540e+01	-8.708810e+00
3.275349e+01	-8.752598e+00
3.294268e+01	-8.795759e+00
3.313295e+01	-8.838952e+00
3.332433e+01	-8.883310e+00
3.351681e+01	-8.926379e+00
3.371040e+01	-8.970048e+00
3.390511e+01	-9.013564e+00
3.410094e+01	-9.057299e+00
3.429791e+01	-9.101781e+00
3.449601e+01	-9.145248e+00
3.469526e+01	-9.189300e+00
3.489566e+01	-9.232841e+00
3.509721e+01	-9.277601e+00
3.529993e+01	-9.321579e+00
3.550382e+01	-9.366073e+00
3.570889e+01	-9.409974e+00
3.591515e+01	-9.454182e+00
3.612259e+01	-9.498468e+00
3.633123e+01	-9.543745e+00
3.654108e+01	-9.587066e+00
3.675214e+01	-9.632241e+00
3.696442e+01	-9.676937e+00
3.717792e+01	-9.721766e+00
3.739266e+01	-9.765635e+00
3.760864e+01	-9.810489e+00
3.782587e+01	-9.855828e+00
3.804435e+01	-9.901103e+00
3.826409e+01	-9.945144e+00
3.848510e+01	-9.990566e+00
3.870739e+01	-1.003557e+01
3.893096e+01	-1.008084e+01
3.915583e+01	-1.012577e+01
3.938199e+01	-1.017111e+01
3.960946e+01	-1.021711e+01
3.983824e+01	-1.026124e+01
4.006834e+01	-1.030698e+01
4.029978e+01	-1.035228e+01
4.053255e+01	-1.039782e+01
4.076666e+01	-1.044344e+01
4.100213e+01	-1.048886e+01
4.123896e+01	-1.053410e+01
4.147715e+01	-1.058013e+01
4.171672e+01	-1.062575e+01
4.195767e+01	-1.067148e+01
4.220002e+01	-1.071708e+01
4.244377e+01	-1.076304e+01
4.268892e+01	-1.080853e+01
4.293549e+01	-1.085461e+01
4.318348e+01	-1.090114e+01
4.343291e+01	-1.094618e+01
4.368377e+01	-1.099281e+01
4.393609e+01	-1.103869e+01
4.418986e+01	-1.108470e+01
4.444510e+01	-1.113054e+01
4.470182e+01	-1.117702e+01
4.496001e+01	-1.122384e+01
4.521970e+01	-1.126972e+01
4.548089e+01	-1.131604e+01
4.574358e+01	-1.136239e+01
4.600779e+01	-1.140853e+01
4.627353e+01	-1.145482e+01
4.654081e+01	-1.150097e+01
4.680963e+01	-1.154839e+01
4.708000e+01	-1.159455e+01
4.735193e+01	-1.164085e+01
4.762543e+01	-1.168741e+01
4.790051e+01	-1.173479e+01
4.817719e+01	-1.178143e+01
4.845545e+01	-1.182801e+01
4.873533e+01	-1.187504e+01
4.901682e+01	-1.192099e+01
4.929994e+01	-1.196824e+01
4.958470e+01	-1.201457e+01
4.987110e+01	-1.206109e+01
5.015915e+01	-1.210895e+01
5.044887e+01	-1.215587e+01
5.074026e+01	-1.220355e+01
5.103333e+01	-1.224993e+01
5.132810e+01	-1.229689e+01
5.162457e+01	-1.234410e+01
5.192275e+01	-1.239108e+01
5.222265e+01	-1.243869e+01
5.252429e+01	-1.248553e+01
5.282767e+01	-1.253311e+01
5.313280e+01	-1.257970e+01
5.343969e+01	-1.262644e+01
5.374836e+01	-1.267395e+01
5.405880e+01	-1.272273e+01
5.437105e+01	-1.276925e+01
5.468509e+01	-1.281652e+01
5.500095e+01	-1.286464e+01
5.531863e+01	-1.291135e+01
5.563815e+01	-1.295959e+01
5.595951e+01	-1.300660e+01
5.628273e+01	-1.305407e+01
5.660782e+01	-1.310199e+01
5.693479e+01	-1.314885e+01
5.726364e+01	-1.319717e+01
5.759439e+01	-1.324474e+01
5.792705e+01	-1.329194e+01
5.826164e+01	-1.333989e+01
5.859815e+01	-1.338783e+01
5.893662e+01	-1.343488e+01
5.927703e+01	-1.348309e+01
5.961941e+01	-1.353025e+01
5.996377e+01	-1.357819e+01
6.031012e+01	-1.362761e+01
6.065847e+01	-1.367473e+01
6.100883e+01	-1.372314e+01
6.136121e+01	-1.377048e+01
6.171563e+01	-1.381800e+01
6.207210e+01	-1.386714e+01
6.243063e+01	-1.391352e+01
6.279122e+01	-1.396138e+01
6.315390e+01	-1.401038e+01
6.351868e+01	-1.405767e+01
6.388556e+01	-1.410660e+01
6.425456e+01	-1.415451e+01
6.462569e+01	-1.420301e+01
6.499897e+01	-1.425076e+01
6.537440e+01	-1.429841e+01
6.575200e+01	-1.434670e+01
6.613178e+01	-1.439533e+01
6.651375e+01	-1.444347e+01
6.689793e+01	-1.449169e+01
6.728433e+01	-1.453922e+01
6.767297e+01	-1.458868e+01
6.806384e+01	-1.463650e+01
6.845698e+01	-1.468385e+01
6.885238e+01	-1.473322e+01
6.925007e+01	-1.478158e+01
6.965005e+01	-1.482986e+01
7.005235e+01	-1.487824e+01
7.045697e+01	-1.492684e+01
7.086393e+01	-1.497500e+01
7.127323e+01	-1.502293e+01
7.168490e+01	-1.507213e+01
7.209895e+01	-1.512053e+01
7.251539e+01	-1.516937e+01
7.293424e+01	-1.521808e+01
7.335551e+01	-1.526579e+01
7.377920e+01	-1.531485e+01
7.420535e+01	-1.536336e+01
7.463396e+01	-1.541190e+01
7.506504e+01	-1.546016e+01
7.549861e+01	-1.550854e+01
7.593469e+01	-1.555820e+01
7.637328e+01	-1.560672e+01
7.681441e+01	-1.565492e+01
7.725809e+01	-1.570353e+01
7.770433e+01	-1.575274e+01
7.815315e+01	-1.580116e+01
7.860456e+01	-1.584955e+01
7.905857e+01	-1.589765e+01
7.951521e+01	-1.594733e+01
7.997449e+01	-1.599597e+01
8.043642e+01	-1.604414e+01
8.090102e+01	-1.609331e+01
8.136830e+01	-1.614240e+01
8.183828e+01	-1.619187e+01
8.231097e+01	-1.623925e+01
8.278640e+01	-1.628860e+01
8.326457e+01	-1.633804e+01
8.374550e+01	-1.638676e+01
8.422921e+01	-1.643570e+01
8.471572e+01	-1.648531e+01
8.520503e+01	-1.653227e+01
8.569717e+01	-1.658224e+01
8.619215e+01	-1.663111e+01
8.669000e+01	-1.668064e+01
8.719071e+01	-1.672901e+01
8.769432e+01	-1.677788e+01
8.820084e+01	-1.682697e+01
8.871029e+01	-1.687622e+01
8.922267e+01	-1.692554e+01
8.973802e+01	-1.697416e+01
9.025634e+01	-1.702323e+01
9.077766e+01	-1.707241e+01
9.130199e+01	-1.712171e+01
9.182935e+01	-1.717121e+01
9.235975e+01	-1.722018e+01
9.289321e+01	-1.726815e+01
9.342976e+01	-1.731600e+01
9.396941e+01	-1.736689e+01
9.451217e+01	-1.741532e+01
9.505807e+01	-1.746585e+01
9.560712e+01	-1.751281e+01
9.615934e+01	-1.756423e+01
9.671476e+01	-1.761288e+01
9.727338e+01	-1.766142e+01
9.783522e+01	-1.771093e+01
9.840032e+01	-1.775885e+01
9.896867e+01	-1.780938e+01
9.954031e+01	-1.785739e+01
1.001153e+02	-1.790829e+01
1.006935e+02	-1.795671e+01
1.012751e+02	-1.800652e+01
1.018601e+02	-1.805544e+01
1.024484e+02	-1.810456e+01
1.030402e+02	-1.815420e+01
1.036353e+02	-1.820233e+01
1.042339e+02	-1.825340e+01
1.048360e+02	-1.830133e+01
1.054415e+02	-1.835076e+01
1.060505e+02	-1.839833e+01
1.066631e+02	-1.844995e+01
1.072791e+02	-1.850046e+01
1.078988e+02	-1.854916e+01
1.085220e+02	-1.859754e+01
1.091488e+02	-1.864629e+01
1.097793e+02	-1.869639e+01
1.104133e+02	-1.874547e+01
1.110511e+02	-1.879429e+01
1.116925e+02	-1.884550e+01
1.123376e+02	-1.889484e+01
1.129865e+02	-1.894320e+01
1.136391e+02	-1.899211e+01
1.142955e+02	-1.904176e+01
1.149556e+02	-1.909317e+01
1.156196e+02	-1.914235e+01
1.162874e+02	-1.919001e+01
1.169591e+02	-1.924065e+01
1.176347e+02	-1.928852e+01
1.183141e+02	-1.933825e+01
1.189975e+02	-1.938815e+01
1.196848e+02	-1.943726e+01
1.203761e+02	-1.948679e+01
1.210714e+02	-1.953571e+01
1.217707e+02	-1.958631e+01
1.224740e+02	-1.963473e+01
1.231814e+02	-1.968458e+01
1.238929e+02	-1.973556e+01
1.246085e+02	-1.978356e+01
1.253283e+02	-1.983484e+01
1.260522e+02	-1.988357e+01
1.267802e+02	-1.993204e+01
1.275125e+02	-1.998109e+01
1.282490e+02	-2.002991e+01
1.289898e+02	-2.008025e+01
1.297348e+02	-2.012975e+01
1.304842e+02	-2.017881e+01
1.312378e+02	-2.022896e+01
1.319959e+02	-2.028090e+01
1.327583e+02	-2.032958e+01
1.335251e+02	-2.037848e+01
1.342963e+02	-2.042807e+01
1.350720e+02	-2.047840e+01
1.358522e+02	-2.052667e+01
1.366368e+02	-2.057674e+01
1.374260e+02	-2.062491e+01
1.382198e+02	-2.067552e+01
1.390182e+02	-2.072505e+01
1.398211e+02	-2.077292e+01
1.406287e+02	-2.082450e+01
1.414410e+02	-2.087537e+01
1.422579e+02	-2.092445e+01
1.430796e+02	-2.097224e+01
1.439060e+02	-2.102358e+01
1.447372e+02	-2.107258e+01
1.455732e+02	-2.112253e+01
1.464141e+02	-2.117316e+01
1.472597e+02	-2.122246e+01
1.481103e+02	-2.127192e+01
1.489658e+02	-2.132188e+01
1.498262e+02	-2.137158e+01
1.506916e+02	-2.142041e+01
1.515620e+02	-2.147178e+01
1.524374e+02	-2.151994e+01
1.533179e+02	-2.156875e+01
1.542034e+02	-2.162005e+01
1.550941e+02	-2.166941e+01
1.559899e+02	-2.172009e+01
1.568909e+02	-2.176747e+01
1.577971e+02	-2.181874e+01
1.587085e+02	-2.186755e+01
1.596252e+02	-2.191834e+01
1.605472e+02	-2.197005e+01
1.614745e+02	-2.201612e+01
1.624072e+02	-2.206687e+01
1.633453e+02	-2.211588e+01
1.642887e+02	-2.216717e+01
1.652377e+02	-2.221581e+01
1.661921e+02	-2.226742e+01
1.671520e+02	-2.231522e+01
1.681175e+02	-2.236271e+01
1.690885e+02	-2.241474e+01
1.700651e+02	-2.246582e+01
1.710474e+02	-2.251177e+01
1.720354e+02	-2.256310e+01
1.730291e+02	-2.261123e+01
1.740285e+02	-2.266260e+01
1.750337e+02	-2.271363e+01
1.760446e+02	-2.276413e+01
1.770615e+02	-2.281218e+01
1.780842e+02	-2.286231e+01
1.791128e+02	-2.291189e+01
1.801473e+02	-2.296139e+01
1.811878e+02	-2.301310e+01
1.822344e+02	-2.306035e+01
1.832870e+02	-2.311366e+01
1.843456e+02	-2.315948e+01
1.854104e+02	-2.321218e+01
1.864813e+02	-2.326323e+01
1.875584e+02	-2.331104e+01
1.886418e+02	-2.336164e+01
1.897313e+02	-2.341090e+01
1.908272e+02	-2.345942e+01
1.919294e+02	-2.350876e+01
1.930380e+02	-2.356158e+01
1.941530e+02	-2.361035e+01
1.952744e+02	-2.366004e+01
1.964023e+02	-2.370740e+01
1.975367e+02	-2.376083e+01
1.986777e+02	-2.380884e+01
1.998252e+02	-2.385645e+01
2.009794e+02	-2.390964e+01
2.021403e+02	-2.395921e+01
2.033078e+02	-2.401018e+01
2.044821e+02	-2.406336e+01
2.056632e+02	-2.410846e+01
2.068511e+02	-2.415811e+01
2.080459e+02	-2.420966e+01
2.092475e+02	-2.425710e+01
2.104561e+02	-2.430892e+01
2.116717e+02	-2.435702e+01
2.128943e+02	-2.440563e+01
2.141240e+02	-2.445640e+01
2.153608e+02	-2.450761e+01
2.166047e+02	-2.455967e+01
2.178558e+02	-2.460653e+01
2.191141e+02	-2.465539e+01
2.203797e+02	-2.470824e+01
2.216526e+02	-2.475646e+01
2.229329e+02	-2.480727e+01
2.242205e+02	-2.485766e+01
2.255156e+02	-2.490632e+01
2.268182e+02	-2.495584e+01
2.281283e+02	-2.500424e+01
2.294459e+02	-2.505564e+01
2.307712e+02	-2.510371e+01
2.321041e+02	-2.515482e+01
2.334447e+02	-2.520814e+01
2.347931e+02	-2.525936e+01
2.361493e+02	-2.530422e+01
2.375133e+02	-2.535645e+01
2.388851e+02	-2.540547e+01
2.402649e+02	-2.545309e+01
2.416527e+02	-2.550566e+01
2.430484e+02	-2.555341e+01
2.444523e+02	-2.560453e+01
2.458642e+02	-2.565268e+01
2.472843e+02	-2.570612e+01
2.487126e+02	-2.575894e+01
2.501492e+02	-2.580518e+01
2.515940e+02	-2.585347e+01
2.530472e+02	-2.590631e+01
2.545088e+02	-2.595525e+01
2.559789e+02	-2.600541e+01
2.574574e+02	-2.605306e+01
2.589444e+02	-2.610525e+01
2.604401e+02	-2.615316e+01
2.619444e+02	-2.620607e+01
2.634574e+02	-2.625639e+01
2.649791e+02	-2.630302e+01
2.665096e+02	-2.635496e+01
2.680489e+02	-2.640151e+01
2.695972e+02	-2.645640e+01
2.711544e+02	-2.650393e+01
2.727205e+02	-2.655317e+01
2.742958e+02	-2.660433e+01
2.758801e+02	-2.665846e+01
2.774736e+02	-2.670488e+01
2.790762e+02	-2.675845e+01
2.806882e+02	-2.680544e+01
2.823094e+02	-2.685273e+01
2.839400e+02	-2.690580e+01
2.855800e+02	-2.695327e+01
2.872295e+02	-2.700584e+01
2.888886e+02	-2.705870e+01
2.905572e+02	-2.710334e+01
2.922354e+02	-2.715747e+01
2.939234e+02	-2.720857e+01
2.956211e+02	-2.725491e+01
2.973286e+02	-2.730857e+01
2.990459e+02	-2.735932e+01
3.007732e+02	-2.740635e+01
3.025104e+02	-2.745270e+01
3.042577e+02	-2.749970e+01
3.060151e+02	-2.755885e+01
3.077826e+02	-2.760631e+01
3.095604e+02	-2.765111e+01
3.113484e+02	-2.770308e+01
3.131467e+02	-2.775222e+01
3.149554e+02	-2.780611e+01
3.167746e+02	-2.785141e+01
3.186043e+02	-2.790773e+01
3.204445e+02	-2.795063e+01
3.222954e+02	-2.800634e+01
3.241570e+02	-2.805285e+01
3.260293e+02	-2.810350e+01
3.279124e+02	-2.815213e+01
3.298064e+02	-2.820423e+01
3.317114e+02	-2.825630e+01
3.336273e+02	-2.830472e+01
3.355544e+02	-2.835566e+01
3.374925e+02	-2.840465e+01
3.394418e+02	-2.845429e+01
3.414024e+02	-2.850676e+01
3.433744e+02	-2.855731e+01
3.453577e+02	-2.860229e+01
3.473525e+02	-2.865893e+01
3.493588e+02	-2.870307e+01
3.513766e+02	-2.875691e+01
3.534062e+02	-2.880552e+01
3.554474e+02	-2.885081e+01
3.575005e+02	-2.890355e+01
3.595654e+02	-2.895708e+01
3.616422e+02	-2.900697e+01
3.637311e+02	-2.905871e+01
3.658320e+02	-2.910489e+01
3.679450e+02	-2.915253e+01
3.700702e+02	-2.920839e+01
3.722077e+02	-2.925297e+01
3.743576e+02	-2.930879e+01
3.765199e+02	-2.935728e+01
3.786946e+02	-2.940722e+01
3.808820e+02	-2.945798e+01
3.830819e+02	-2.950649e+01
3.852946e+02	-2.955293e+01
3.875200e+02	-2.960860e+01
3.897583e+02	-2.966214e+01
3.920096e+02	-2.970729e+01
3.942738e+02	-2.975233e+01
3.965511e+02	-2.980063e+01
3.988416e+02	-2.986132e+01
4.011452e+02	-2.990502e+01
4.034622e+02	-2.996020e+01
4.057926e+02	-3.000083e+01
4.081365e+02	-3.006002e+01
4.104938e+02	-3.010710e+01
4.128648e+02	-3.015593e+01
4.152495e+02	-3.020546e+01
4.176480e+02	-3.025979e+01
4.200603e+02	-3.031041e+01
4.224866e+02	-3.036188e+01
4.249268e+02	-3.040849e+01
4.273812e+02	-3.046132e+01
4.298497e+02	-3.051052e+01
4.323325e+02	-3.055467e+01
4.348297e+02	-3.060693e+01
4.373412e+02	-3.065827e+01
4.398673e+02	-3.070713e+01
4.424079e+02	-3.075950e+01
4.449633e+02	-3.080790e+01
4.475334e+02	-3.085549e+01
4.501183e+02	-3.090869e+01
4.527182e+02	-3.095460e+01
4.553330e+02	-3.100903e+01
4.579630e+02	-3.105967e+01
4.606082e+02	-3.110546e+01
4.632687e+02	-3.116239e+01
4.659445e+02	-3.121370e+01
4.686358e+02	-3.126096e+01
4.713426e+02	-3.130701e+01
4.740650e+02	-3.136301e+01
4.768032e+02	-3.141503e+01
4.795572e+02	-3.146255e+01
4.823271e+02	-3.151125e+01
4.851130e+02	-3.156283e+01
4.879150e+02	-3.161153e+01
4.907332e+02	-3.165610e+01
4.935676e+02	-3.170846e+01
4.964185e+02	-3.176526e+01
4.992858e+02	-3.180739e+01
5.021696e+02	-3.185984e+01
5.050701e+02	-3.191437e+01
5.079874e+02	-3.196234e+01
5.109215e+02	-3.201493e+01
5.138726e+02	-3.206126e+01
5.168407e+02	-3.211026e+01
5.198259e+02	-3.216392e+01
5.228284e+02	-3.221304e+01
5.258482e+02	-3.226494e+01
5.288855e+02	-3.232030e+01
5.319403e+02	-3.236046e+01
5.350128e+02	-3.241166e+01
5.381030e+02	-3.246800e+01
5.412111e+02	-3.252042e+01
5.443371e+02	-3.257019e+01
5.474812e+02	-3.261732e+01
5.506434e+02	-3.266901e+01
5.538239e+02	-3.270927e+01
5.570228e+02	-3.276825e+01
5.602401e+02	-3.281137e+01
5.634760e+02	-3.286942e+01
5.667306e+02	-3.291755e+01
5.700040e+02	-3.296783e+01
5.732964e+02	-3.302055e+01
5.766077e+02	-3.306958e+01
5.799382e+02	-3.312324e+01
5.832879e+02	-3.317057e+01
5.866569e+02	-3.322454e+01
5.900454e+02	-3.327243e+01
5.934535e+02	-3.331050e+01
5.968813e+02	-3.336883e+01
6.003288e+02	-3.341435e+01
6.037963e+02	-3.346971e+01
6.072838e+02	-3.352544e+01
6.107914e+02	-3.357678e+01
6.143194e+02	-3.361864e+01
6.178676e+02	-3.366552e+01
6.214364e+02	-3.371455e+01
6.250258e+02	-3.376555e+01
6.286359e+02	-3.382024e+01
6.322669e+02	-3.386906e+01
6.359189e+02	-3.392352e+01
6.395919e+02	-3.397070e+01
6.432862e+02	-3.402612e+01
6.470017e+02	-3.407348e+01
6.507388e+02	-3.412833e+01
6.544974e+02	-3.417214e+01
6.582778e+02	-3.422688e+01
6.620800e+02	-3.427754e+01
6.659041e+02	-3.431809e+01
6.697504e+02	-3.436743e+01
6.736188e+02	-3.442738e+01
6.775096e+02	-3.447303e+01
6.814229e+02	-3.453673e+01
6.853587e+02	-3.457361e+01
6.893173e+02	-3.462262e+01
6.932988e+02	-3.467946e+01
6.973033e+02	-3.472735e+01
7.013309e+02	-3.478214e+01
