Frequency(Hz)	Magnitude(dB)
1.000000e+01	-2.227062e+00
1.005776e+01	-2.246993e+00
1.011585e+01	-2.267405e+00
1.017428e+01	-2.287615e+00
1.023305e+01	-2.308299e+00
1.029215e+01	-2.329031e+00
1.035160e+01	-2.349955e+00
1.041139e+01	-2.370932e+00
1.047153e+01	-2.391906e+00
1.053201e+01	-2.413214e+00
1.059284e+01	-2.434628e+00
1.065403e+01	-2.456237e+00
1.071556e+01	-2.477740e+00
1.077746e+01	-2.499654e+00
1.083971e+01	-2.521631e+00
1.090232e+01	-2.543912e+00
1.096529e+01	-2.566020e+00
1.102862e+01	-2.588503e+00
1.109232e+01	-2.610893e+00
1.115639e+01	-2.633591e+00
1.122083e+01	-2.656500e+00
1.128564e+01	-2.679402e+00
1.135083e+01	-2.702429e+00
1.141639e+01	-2.725796e+00
1.148233e+01	-2.749088e+00
1.154865e+01	-2.772532e+00
1.161536e+01	-2.796077e+00
1.168245e+01	-2.820231e+00
1.174992e+01	-2.843888e+00
1.181779e+01	-2.868443e+00
1.188605e+01	-2.892282e+00
1.195470e+01	-2.916842e+00
1.202375e+01	-2.941324e+00
1.209320e+01	-2.966166e+00
1.216305e+01	-2.991012e+00
1.223330e+01	-3.015581e+00
1.230396e+01	-3.040969e+00
1.237503e+01	-3.066302e+00
1.244651e+01	-3.091585e+00
1.251840e+01	-3.117352e+00
1.259070e+01	-3.142836e+00
1.266343e+01	-3.168765e+00
1.273657e+01	-3.194559e+00
1.281014e+01	-3.221086e+00
1.288413e+01	-3.246927e+00
1.295855e+01	-3.273501e+00
1.303339e+01	-3.300114e+00
1.310867e+01	-3.326828e+00
1.318439e+01	-3.353609e+00
1.326054e+01	-3.380483e+00
1.333713e+01	-3.407663e+00
1.341417e+01	-3.435022e+00
1.349165e+01	-3.462269e+00
1.356958e+01	-3.489810e+00
1.364795e+01	-3.517877e+00
1.372678e+01	-3.545536e+00
1.380607e+01	-3.573722e+00
1.388581e+01	-3.601632e+00
1.396602e+01	-3.629982e+00
1.404668e+01	-3.658233e+00
1.412782e+01	-3.686886e+00
1.420942e+01	-3.715842e+00
1.429149e+01	-3.744347e+00
1.437404e+01	-3.773130e+00
1.445706e+01	-3.802452e+00
1.454057e+01	-3.831461e+00
1.462455e+01	-3.861105e+00
1.470902e+01	-3.890532e+00
1.479398e+01	-3.920330e+00
1.487943e+01	-3.950094e+00
1.496537e+01	-3.979998e+00
1.505181e+01	-4.010116e+00
1.513875e+01	-4.040464e+00
1.522619e+01	-4.070810e+00
1.531414e+01	-4.101367e+00
1.540259e+01	-4.131976e+00
1.549156e+01	-4.162658e+00
1.558103e+01	-4.193466e+00
1.567103e+01	-4.224905e+00
1.576155e+01	-4.255637e+00
1.585258e+01	-4.286954e+00
1.594415e+01	-4.318979e+00
1.603624e+01	-4.350201e+00
1.612886e+01	-4.381853e+00
1.622202e+01	-4.413715e+00
1.631572e+01	-4.445683e+00
1.640996e+01	-4.477993e+00
1.650474e+01	-4.510035e+00
1.660008e+01	-4.542477e+00
1.669596e+01	-4.574927e+00
1.679239e+01	-4.607525e+00
1.688938e+01	-4.640388e+00
1.698694e+01	-4.673223e+00
1.708505e+01	-4.706514e+00
1.718373e+01	-4.739376e+00
1.728299e+01	-4.772889e+00
1.738281e+01	-4.806087e+00
1.748322e+01	-4.839590e+00
1.758420e+01	-4.873612e+00
1.768576e+01	-4.907444e+00
1.778792e+01	-4.941353e+00
1.789066e+01	-4.975014e+00
1.799399e+01	-5.009506e+00
1.809793e+01	-5.043582e+00
1.820246e+01	-5.078078e+00
1.830760e+01	-5.112834e+00
1.841334e+01	-5.147588e+00
1.851969e+01	-5.182055e+00
1.862666e+01	-5.217158e+00
1.873425e+01	-5.252244e+00
1.884246e+01	-5.286993e+00
1.895129e+01	-5.322442e+00
1.906075e+01	-5.358054e+00
1.917085e+01	-5.393353e+00
1.928158e+01	-5.429141e+00
1.939295e+01	-5.464612e+00
1.950496e+01	-5.500405e+00
1.961762e+01	-5.536823e+00
1.973093e+01	-5.572634e+00
1.984490e+01	-5.608934e+00
1.995952e+01	-5.645140e+00
2.007480e+01	-5.681676e+00
2.019076e+01	-5.718379e+00
2.030738e+01	-5.754899e+00
2.042467e+01	-5.791872e+00
2.054264e+01	-5.828310e+00
2.066130e+01	-5.866145e+00
2.078064e+01	-5.902999e+00
2.090066e+01	-5.939965e+00
2.102139e+01	-5.977407e+00
2.114280e+01	-6.015021e+00
2.126492e+01	-6.052917e+00
2.138775e+01	-6.090112e+00
2.151128e+01	-6.127811e+00
2.163553e+01	-6.165292e+00
2.176050e+01	-6.203890e+00
2.188619e+01	-6.241850e+00
2.201260e+01	-6.280070e+00
2.213974e+01	-6.318536e+00
2.226762e+01	-6.356905e+00
2.239624e+01	-6.395150e+00
2.252560e+01	-6.433840e+00
2.265571e+01	-6.472504e+00
2.278656e+01	-6.511386e+00
2.291818e+01	-6.550594e+00
2.305055e+01	-6.589157e+00
2.318369e+01	-6.628422e+00
2.331760e+01	-6.667155e+00
2.345228e+01	-6.706986e+00
2.358774e+01	-6.746054e+00
2.372398e+01	-6.785718e+00
2.386101e+01	-6.825391e+00
2.399883e+01	-6.864965e+00
2.413745e+01	-6.904562e+00
2.427686e+01	-6.944161e+00
2.441709e+01	-6.984686e+00
2.455812e+01	-7.024430e+00
2.469997e+01	-7.064834e+00
2.484263e+01	-7.105294e+00
2.498612e+01	-7.145462e+00
2.513044e+01	-7.185673e+00
2.527559e+01	-7.226302e+00
2.542158e+01	-7.266801e+00
2.556842e+01	-7.307396e+00
2.571610e+01	-7.348238e+00
2.586463e+01	-7.389457e+00
2.601403e+01	-7.430183e+00
2.616428e+01	-7.471045e+00
2.631541e+01	-7.512521e+00
2.646740e+01	-7.553577e+00
2.662028e+01	-7.594688e+00
2.677404e+01	-7.636182e+00
2.692868e+01	-7.677612e+00
2.708422e+01	-7.719087e+00
2.724066e+01	-7.760862e+00
2.739800e+01	-7.802242e+00
2.755625e+01	-7.843766e+00
2.771541e+01	-7.886171e+00
2.787550e+01	-7.928168e+00
2.803650e+01	-7.969882e+00
2.819844e+01	-8.011505e+00
2.836131e+01	-8.054212e+00
2.852513e+01	-8.096419e+00
2.868989e+01	-8.138472e+00
2.885560e+01	-8.181608e+00
2.902227e+01	-8.223502e+00
2.918990e+01	-8.266350e+00
2.935850e+01	-8.308592e+00
2.952807e+01	-8.351371e+00
2.969863e+01	-8.393994e+00
2.987016e+01	-8.437048e+00
3.004269e+01	-8.479906e+00
3.021622e+01	-8.522517e+00
3.039075e+01	-8.565593e+00
3.056628e+01	-8.608949e+00
3.074283e+01	-8.652117e+00
3.092040e+01	-8.694974e+00
3.109900e+01	-8.738699e+00
3.127862e+01	-8.782001e+00
3.145929e+01	-8.825499e+00
3.164099e+01	-8.868670e+00
3.182375e+01	-8.912416e+00
3.200756e+01	-8.956313e+00
3.219244e+01	-9.000284e+00
3.237838e+01	-9.043844e+00
3.256540e+01	-9.087167e+00
3.275349e+01	-9.131291e+00
3.294268e+01	-9.175335e+00
3.313295e+01	-9.219099e+00
3.332433e+01	-9.262881e+00
3.351681e+01	-9.307121e+00
3.371040e+01	-9.351519e+00
3.390511e+01	-9.395459e+00
3.410094e+01	-9.440452e+00
3.429791e+01	-9.484897e+00
3.449601e+01	-9.528702e+00
3.469526e+01	-9.573341e+00
3.489566e+01	-9.618272e+00
3.509721e+01	-9.662554e+00
3.529993e+01	-9.707314e+00
3.550382e+01	-9.752029e+00
3.570889e+01	-9.796525e+00
3.591515e+01	-9.841247e+00
3.612259e+01	-9.886138e+00
3.633123e+01	-9.931578e+00
3.654108e+01	-9.975984e+00
3.675214e+01	-1.002084e+01
3.696442e+01	-1.006654e+01
3.717792e+01	-1.011166e+01
3.739266e+01	-1.015659e+01
3.760864e+01	-1.020197e+01
3.782587e+01	-1.024694e+01
3.804435e+01	-1.029222e+01
3.826409e+01	-1.033732e+01
3.848510e+01	-1.038305e+01
3.870739e+01	-1.042881e+01
3.893096e+01	-1.047438e+01
3.915583e+01	-1.051972e+01
3.938199e+01	-1.056530e+01
3.960946e+01	-1.061096e+01
3.983824e+01	-1.065667e+01
4.006834e+01	-1.070230e+01
4.029978e+01	-1.074828e+01
4.053255e+01	-1.079448e+01
4.076666e+01	-1.084003e+01
4.100213e+01	-1.088538e+01
4.123896e+01	-1.093149e+01
4.147715e+01	-1.097796e+01
4.171672e+01	-1.102436e+01
4.195767e+01	-1.107066e+01
4.220002e+01	-1.111592e+01
4.244377e+01	-1.116265e+01
4.268892e+01	-1.120843e+01
4.293549e+01	-1.125525e+01
4.318348e+01	-1.130107e+01
4.343291e+01	-1.134734e+01
4.368377e+01	-1.139384e+01
4.393609e+01	-1.143993e+01
4.418986e+01	-1.148658e+01
4.444510e+01	-1.153337e+01
4.470182e+01	-1.158011e+01
4.496001e+01	-1.162570e+01
4.521970e+01	-1.167300e+01
4.548089e+01	-1.171997e+01
4.574358e+01	-1.176621e+01
4.600779e+01	-1.181271e+01
4.627353e+01	-1.185956e+01
4.654081e+01	-1.190615e+01
4.680963e+01	-1.195312e+01
4.708000e+01	-1.200006e+01
4.735193e+01	-1.204706e+01
4.762543e+01	-1.209305e+01
4.790051e+01	-1.214066e+01
4.817719e+01	-1.218811e+01
4.845545e+01	-1.223474e+01
4.873533e+01	-1.228178e+01
4.901682e+01	-1.232946e+01
4.929994e+01	-1.237610e+01
4.958470e+01	-1.242339e+01
4.987110e+01	-1.247062e+01
5.015915e+01	-1.251824e+01
5.044887e+01	-1.256494e+01
5.074026e+01	-1.261224e+01
5.103333e+01	-1.265929e+01
5.132810e+01	-1.270680e+01
5.162457e+01	-1.275431e+01
5.192275e+01	-1.280169e+01
5.222265e+01	-1.284888e+01
5.252429e+01	-1.289612e+01
5.282767e+01	-1.294366e+01
5.313280e+01	-1.299128e+01
5.343969e+01	-1.303933e+01
5.374836e+01	-1.308658e+01
5.405880e+01	-1.313419e+01
5.437105e+01	-1.318165e+01
5.468509e+01	-1.322947e+01
5.500095e+01	-1.327738e+01
5.531863e+01	-1.332520e+01
5.563815e+01	-1.337268e+01
5.595951e+01	-1.342166e+01
5.628273e+01	-1.346758e+01
5.660782e+01	-1.351584e+01
5.693479e+01	-1.356376e+01
5.726364e+01	-1.361132e+01
5.759439e+01	-1.365917e+01
5.792705e+01	-1.370614e+01
5.826164e+01	-1.375504e+01
5.859815e+01	-1.380335e+01
5.893662e+01	-1.385153e+01
5.927703e+01	-1.389848e+01
5.961941e+01	-1.394716e+01
5.996377e+01	-1.399494e+01
6.031012e+01	-1.404365e+01
6.065847e+01	-1.409042e+01
6.100883e+01	-1.413978e+01
6.136121e+01	-1.418702e+01
6.171563e+01	-1.423490e+01
6.207210e+01	-1.428365e+01
6.243063e+01	-1.433121e+01
6.279122e+01	-1.438014e+01
6.315390e+01	-1.442741e+01
6.351868e+01	-1.447637e+01
6.388556e+01	-1.452517e+01
6.425456e+01	-1.457273e+01
6.462569e+01	-1.462160e+01
6.499897e+01	-1.466984e+01
6.537440e+01	-1.471757e+01
6.575200e+01	-1.476688e+01
6.613178e+01	-1.481459e+01
6.651375e+01	-1.486289e+01
6.689793e+01	-1.491129e+01
6.728433e+01	-1.495950e+01
6.767297e+01	-1.500834e+01
6.806384e+01	-1.505752e+01
6.845698e+01	-1.510466e+01
6.885238e+01	-1.515357e+01
6.925007e+01	-1.520167e+01
6.965005e+01	-1.525030e+01
7.005235e+01	-1.530013e+01
7.045697e+01	-1.534730e+01
7.086393e+01	-1.539629e+01
7.127323e+01	-1.544466e+01
7.168490e+01	-1.549367e+01
7.209895e+01	-1.554275e+01
7.251539e+01	-1.559078e+01
7.293424e+01	-1.564056e+01
7.335551e+01	-1.568810e+01
7.377920e+01	-1.573706e+01
7.420535e+01	-1.578665e+01
7.463396e+01	-1.583370e+01
7.506504e+01	-1.588434e+01
7.549861e+01	-1.593157e+01
7.593469e+01	-1.597945e+01
7.637328e+01	-1.602915e+01
7.681441e+01	-1.607849e+01
7.725809e+01	-1.612645e+01
7.770433e+01	-1.617552e+01
7.815315e+01	-1.622386e+01
7.860456e+01	-1.627285e+01
7.905857e+01	-1.632178e+01
7.951521e+01	-1.637094e+01
7.997449e+01	-1.642027e+01
8.043642e+01	-1.646860e+01
8.090102e+01	-1.651727e+01
8.136830e+01	-1.656643e+01
8.183828e+01	-1.661565e+01
8.231097e+01	-1.666458e+01
8.278640e+01	-1.671352e+01
8.326457e+01	-1.676230e+01
8.374550e+01	-1.681153e+01
8.422921e+01	-1.685960e+01
8.471572e+01	-1.690931e+01
8.520503e+01	-1.695882e+01
8.569717e+01	-1.700758e+01
8.619215e+01	-1.705637e+01
8.669000e+01	-1.710578e+01
8.719071e+01	-1.715446e+01
8.769432e+01	-1.720432e+01
8.820084e+01	-1.725233e+01
8.871029e+01	-1.729962e+01
8.922267e+01	-1.735152e+01
8.973802e+01	-1.740003e+01
9.025634e+01	-1.745062e+01
9.077766e+01	-1.749892e+01
9.130199e+01	-1.754746e+01
9.182935e+01	-1.759683e+01
9.235975e+01	-1.764488e+01
9.289321e+01	-1.769400e+01
9.342976e+01	-1.774512e+01
9.396941e+01	-1.779297e+01
9.451217e+01	-1.784189e+01
9.505807e+01	-1.789142e+01
9.560712e+01	-1.794109e+01
9.615934e+01	-1.798943e+01
9.671476e+01	-1.804017e+01
9.727338e+01	-1.808866e+01
9.783522e+01	-1.813863e+01
9.840032e+01	-1.818684e+01
9.896867e+01	-1.823701e+01
9.954031e+01	-1.828718e+01
1.001153e+02	-1.833490e+01
1.006935e+02	-1.838436e+01
1.012751e+02	-1.843423e+01
1.018601e+02	-1.848282e+01
1.024484e+02	-1.853252e+01
1.030402e+02	-1.858158e+01
1.036353e+02	-1.863056e+01
1.042339e+02	-1.867980e+01
1.048360e+02	-1.873051e+01
1.054415e+02	-1.877874e+01
1.060505e+02	-1.882717e+01
1.066631e+02	-1.887858e+01
1.072791e+02	-1.892633e+01
1.078988e+02	-1.897643e+01
1.085220e+02	-1.902582e+01
1.091488e+02	-1.907675e+01
1.097793e+02	-1.912428e+01
1.104133e+02	-1.917409e+01
1.110511e+02	-1.922484e+01
1.116925e+02	-1.927261e+01
1.123376e+02	-1.932311e+01
1.129865e+02	-1.937097e+01
1.136391e+02	-1.942210e+01
1.142955e+02	-1.947017e+01
1.149556e+02	-1.952014e+01
1.156196e+02	-1.956909e+01
1.162874e+02	-1.962044e+01
1.169591e+02	-1.966815e+01
1.176347e+02	-1.971826e+01
1.183141e+02	-1.976767e+01
1.189975e+02	-1.981883e+01
1.196848e+02	-1.986746e+01
1.203761e+02	-1.991699e+01
1.210714e+02	-1.996567e+01
1.217707e+02	-2.001568e+01
1.224740e+02	-2.006699e+01
1.231814e+02	-2.011434e+01
1.238929e+02	-2.016526e+01
1.246085e+02	-2.021229e+01
1.253283e+02	-2.026308e+01
1.260522e+02	-2.031272e+01
1.267802e+02	-2.036318e+01
1.275125e+02	-2.041155e+01
1.282490e+02	-2.046344e+01
1.289898e+02	-2.050978e+01
1.297348e+02	-2.055955e+01
1.304842e+02	-2.061003e+01
1.312378e+02	-2.065944e+01
1.319959e+02	-2.071033e+01
1.327583e+02	-2.075788e+01
1.335251e+02	-2.080975e+01
1.342963e+02	-2.085879e+01
1.350720e+02	-2.090805e+01
1.358522e+02	-2.095746e+01
1.366368e+02	-2.100672e+01
1.374260e+02	-2.105672e+01
1.382198e+02	-2.110605e+01
1.390182e+02	-2.115602e+01
1.398211e+02	-2.120520e+01
1.406287e+02	-2.125564e+01
1.414410e+02	-2.130542e+01
1.422579e+02	-2.135365e+01
1.430796e+02	-2.140585e+01
1.439060e+02	-2.145431e+01
1.447372e+02	-2.150284e+01
1.455732e+02	-2.155397e+01
1.464141e+02	-2.160245e+01
1.472597e+02	-2.165311e+01
1.481103e+02	-2.170208e+01
1.489658e+02	-2.175208e+01
1.498262e+02	-2.180206e+01
1.506916e+02	-2.185273e+01
1.515620e+02	-2.190350e+01
1.524374e+02	-2.195050e+01
1.533179e+02	-2.200285e+01
1.542034e+02	-2.204896e+01
1.550941e+02	-2.210051e+01
1.559899e+02	-2.215015e+01
1.568909e+02	-2.219960e+01
1.577971e+02	-2.225137e+01
1.587085e+02	-2.229923e+01
1.596252e+02	-2.234821e+01
1.605472e+02	-2.239880e+01
1.614745e+02	-2.244889e+01
1.624072e+02	-2.249736e+01
1.633453e+02	-2.254724e+01
1.642887e+02	-2.259790e+01
1.652377e+02	-2.264643e+01
1.661921e+02	-2.269938e+01
1.671520e+02	-2.274893e+01
1.681175e+02	-2.279638e+01
1.690885e+02	-2.284709e+01
1.700651e+02	-2.289584e+01
1.710474e+02	-2.294624e+01
1.720354e+02	-2.299739e+01
1.730291e+02	-2.304829e+01
1.740285e+02	-2.309700e+01
1.750337e+02	-2.314523e+01
1.760446e+02	-2.319458e+01
1.770615e+02	-2.324437e+01
1.780842e+02	-2.329590e+01
1.791128e+02	-2.334712e+01
1.801473e+02	-2.339567e+01
1.811878e+02	-2.344397e+01
1.822344e+02	-2.349396e+01
1.832870e+02	-2.354393e+01
1.843456e+02	-2.359338e+01
1.854104e+02	-2.364515e+01
1.864813e+02	-2.369411e+01
1.875584e+02	-2.374547e+01
1.886418e+02	-2.379514e+01
1.897313e+02	-2.384599e+01
1.908272e+02	-2.389215e+01
1.919294e+02	-2.394257e+01
1.930380e+02	-2.399268e+01
1.941530e+02	-2.404365e+01
1.952744e+02	-2.409211e+01
1.964023e+02	-2.414231e+01
1.975367e+02	-2.419349e+01
1.986777e+02	-2.424110e+01
1.998252e+02	-2.429546e+01
2.009794e+02	-2.433953e+01
2.021403e+02	-2.439266e+01
2.033078e+02	-2.444296e+01
2.044821e+02	-2.449020e+01
2.056632e+02	-2.454020e+01
2.068511e+02	-2.459312e+01
2.080459e+02	-2.464114e+01
2.092475e+02	-2.468952e+01
2.104561e+02	-2.474255e+01
2.116717e+02	-2.479368e+01
2.128943e+02	-2.484044e+01
2.141240e+02	-2.489235e+01
2.153608e+02	-2.494153e+01
2.166047e+02	-2.499383e+01
2.178558e+02	-2.503829e+01
2.191141e+02	-2.508932e+01
2.203797e+02	-2.513881e+01
2.216526e+02	-2.519173e+01
2.229329e+02	-2.524222e+01
2.242205e+02	-2.529131e+01
2.255156e+02	-2.534152e+01
2.268182e+02	-2.539061e+01
2.281283e+02	-2.543928e+01
2.294459e+02	-2.548967e+01
2.307712e+02	-2.553945e+01
2.321041e+02	-2.559058e+01
2.334447e+02	-2.563980e+01
2.347931e+02	-2.568875e+01
2.361493e+02	-2.573726e+01
2.375133e+02	-2.578848e+01
2.388851e+02	-2.583609e+01
2.402649e+02	-2.588996e+01
2.416527e+02	-2.593790e+01
2.430484e+02	-2.598690e+01
2.444523e+02	-2.603865e+01
2.458642e+02	-2.608681e+01
2.472843e+02	-2.613527e+01
2.487126e+02	-2.618765e+01
2.501492e+02	-2.624057e+01
2.515940e+02	-2.629026e+01
2.530472e+02	-2.633852e+01
2.545088e+02	-2.638995e+01
2.559789e+02	-2.643770e+01
2.574574e+02	-2.648783e+01
2.589444e+02	-2.654114e+01
2.604401e+02	-2.658728e+01
2.619444e+02	-2.663535e+01
2.634574e+02	-2.668920e+01
2.649791e+02	-2.673483e+01
2.665096e+02	-2.678699e+01
2.680489e+02	-2.683886e+01
2.695972e+02	-2.688846e+01
2.711544e+02	-2.693858e+01
2.727205e+02	-2.698663e+01
2.742958e+02	-2.703670e+01
2.758801e+02	-2.708857e+01
2.774736e+02	-2.714021e+01
2.790762e+02	-2.718789e+01
2.806882e+02	-2.723729e+01
2.823094e+02	-2.728753e+01
2.839400e+02	-2.733806e+01
2.855800e+02	-2.738928e+01
2.872295e+02	-2.743636e+01
2.888886e+02	-2.748956e+01
2.905572e+02	-2.753688e+01
2.922354e+02	-2.758699e+01
2.939234e+02	-2.764030e+01
2.956211e+02	-2.769025e+01
2.973286e+02	-2.773725e+01
2.990459e+02	-2.778330e+01
3.007732e+02	-2.784042e+01
3.025104e+02	-2.788715e+01
3.042577e+02	-2.793915e+01
3.060151e+02	-2.799143e+01
3.077826e+02	-2.803792e+01
3.095604e+02	-2.808831e+01
3.113484e+02	-2.813874e+01
3.131467e+02	-2.818841e+01
3.149554e+02	-2.823836e+01
3.167746e+02	-2.828769e+01
3.186043e+02	-2.833704e+01
3.204445e+02	-2.838713e+01
3.222954e+02	-2.843676e+01
3.241570e+02	-2.848750e+01
3.260293e+02	-2.854146e+01
3.279124e+02	-2.858971e+01
3.298064e+02	-2.863990e+01
3.317114e+02	-2.869023e+01
3.336273e+02	-2.873622e+01
3.355544e+02	-2.878527e+01
3.374925e+02	-2.883967e+01
3.394418e+02	-2.888760e+01
3.414024e+02	-2.894188e+01
3.433744e+02	-2.898942e+01
3.453577e+02	-2.903622e+01
3.473525e+02	-2.908991e+01
3.493588e+02	-2.913981e+01
3.513766e+02	-2.918772e+01
3.534062e+02	-2.923678e+01
3.554474e+02	-2.928467e+01
3.575005e+02	-2.934344e+01
3.595654e+02	-2.939102e+01
3.616422e+02	-2.943368e+01
3.637311e+02	-2.948883e+01
3.658320e+02	-2.954258e+01
3.679450e+02	-2.958419e+01
3.700702e+02	-2.963962e+01
3.722077e+02	-2.969017e+01
3.743576e+02	-2.973956e+01
3.765199e+02	-2.978818e+01
3.786946e+02	-2.984544e+01
3.808820e+02	-2.989369e+01
3.830819e+02	-2.994607e+01
3.852946e+02	-2.998868e+01
3.875200e+02	-3.003863e+01
3.897583e+02	-3.009562e+01
3.920096e+02	-3.013700e+01
3.942738e+02	-3.018947e+01
3.965511e+02	-3.024130e+01
3.988416e+02	-3.029246e+01
4.011452e+02	-3.034196e+01
4.034622e+02	-3.038708e+01
4.057926e+02	-3.043914e+01
4.081365e+02	-3.049443e+01
4.104938e+02	-3.054206e+01
4.128648e+02	-3.059197e+01
4.152495e+02	-3.063939e+01
4.176480e+02	-3.069263e+01
4.200603e+02	-3.073615e+01
4.224866e+02	-3.079149e+01
4.249268e+02	-3.084499e+01
4.273812e+02	-3.089697e+01
4.298497e+02	-3.094245e+01
4.323325e+02	-3.099866e+01
4.348297e+02	-3.104184e+01
4.373412e+02	-3.109539e+01
4.398673e+02	-3.114742e+01
4.424079e+02	-3.119543e+01
4.449633e+02	-3.124382e+01
4.475334e+02	-3.129109e+01
4.501183e+02	-3.134731e+01
4.527182e+02	-3.139085e+01
4.553330e+02	-3.144375e+01
4.579630e+02	-3.149462e+01
4.606082e+02	-3.154414e+01
4.632687e+02	-3.159760e+01
4.659445e+02	-3.164152e+01
4.686358e+02	-3.169114e+01
4.713426e+02	-3.174788e+01
4.740650e+02	-3.179813e+01
4.768032e+02	-3.184234e+01
4.795572e+02	-3.189742e+01
4.823271e+02	-3.194595e+01
4.851130e+02	-3.200076e+01
4.879150e+02	-3.205311e+01
4.907332e+02	-3.209912e+01
4.935676e+02	-3.215179e+01
4.964185e+02	-3.219141e+01
4.992858e+02	-3.224901e+01
5.021696e+02	-3.230011e+01
5.050701e+02	-3.234371e+01
5.079874e+02	-3.239794e+01
5.109215e+02	-3.244625e+01
5.138726e+02	-3.249952e+01
5.168407e+02	-3.254728e+01
5.198259e+02	-3.259704e+01
5.228284e+02	-3.264486e+01
5.258482e+02	-3.270141e+01
5.288855e+02	-3.275165e+01
5.319403e+02	-3.279741e+01
5.350128e+02	-3.284617e+01
5.381030e+02	-3.289858e+01
5.412111e+02	-3.294681e+01
5.443371e+02	-3.300044e+01
5.474812e+02	-3.304552e+01
5.506434e+02	-3.310371e+01
5.538239e+02	-3.315106e+01
5.570228e+02	-3.320474e+01
5.602401e+02	-3.325572e+01
5.634760e+02	-3.330385e+01
5.667306e+02	-3.335563e+01
5.700040e+02	-3.339662e+01
5.732964e+02	-3.345818e+01
5.766077e+02	-3.350563e+01
5.799382e+02	-3.355509e+01
5.832879e+02	-3.359920e+01
5.866569e+02	-3.364947e+01
5.900454e+02	-3.371064e+01
5.934535e+02	-3.375314e+01
5.968813e+02	-3.380817e+01
6.003288e+02	-3.385386e+01
6.037963e+02	-3.391206e+01
6.072838e+02	-3.395688e+01
6.107914e+02	-3.401050e+01
6.143194e+02	-3.405519e+01
6.178676e+02	-3.410053e+01
6.214364e+02	-3.415821e+01
6.250258e+02	-3.422025e+01
6.286359e+02	-3.425780e+01
6.322669e+02	-3.430792e+01
6.359189e+02	-3.435666e+01
6.395919e+02	-3.441931e+01
6.432862e+02	-3.446459e+01
6.470017e+02	-3.451241e+01
6.507388e+02	-3.455913e+01
6.544974e+02	-3.460113e+01
6.582778e+02	-3.465666e+01
6.620800e+02	-3.471426e+01
6.659041e+02	-3.475592e+01
6.697504e+02	-3.481506e+01
6.736188e+02	-3.486300e+01
6.775096e+02	-3.491461e+01
6.814229e+02	-3.496087e+01
6.853587e+02	-3.501490e+01
6.893173e+02	-3.505537e+01
6.932988e+02	-3.511192e+01
6.973033e+02	-3.516973e+01
7.013309e+02	-3.522518e+01
