Frequency(Hz)	Magnitude(dB)
1.000000e+01	-2.161179e+00
1.005776e+01	-2.180932e+00
1.011585e+01	-2.200540e+00
1.017428e+01	-2.220492e+00
1.023305e+01	-2.240794e+00
1.029215e+01	-2.260931e+00
1.035160e+01	-2.281221e+00
1.041139e+01	-2.301822e+00
1.047153e+01	-2.322498e+00
1.053201e+01	-2.343231e+00
1.059284e+01	-2.364080e+00
1.065403e+01	-2.385230e+00
1.071556e+01	-2.406514e+00
1.077746e+01	-2.427798e+00
1.083971e+01	-2.449339e+00
1.090232e+01	-2.470854e+00
1.096529e+01	-2.492809e+00
1.102862e+01	-2.514645e+00
1.109232e+01	-2.536585e+00
1.115639e+01	-2.558961e+00
1.122083e+01	-2.581245e+00
1.128564e+01	-2.603554e+00
1.135083e+01	-2.626163e+00
1.141639e+01	-2.649129e+00
1.148233e+01	-2.671919e+00
1.154865e+01	-2.695061e+00
1.161536e+01	-2.718424e+00
1.168245e+01	-2.741630e+00
1.174992e+01	-2.764847e+00
1.181779e+01	-2.788782e+00
1.188605e+01	-2.812556e+00
1.195470e+01	-2.836334e+00
1.202375e+01	-2.860637e+00
1.209320e+01	-2.884593e+00
1.216305e+01	-2.909223e+00
1.223330e+01	-2.933514e+00
1.230396e+01	-2.958112e+00
1.237503e+01	-2.983046e+00
1.244651e+01	-3.008027e+00
1.251840e+01	-3.032844e+00
1.259070e+01	-3.058171e+00
1.266343e+01	-3.083634e+00
1.273657e+01	-3.108996e+00
1.281014e+01	-3.134532e+00
1.288413e+01	-3.160658e+00
1.295855e+01	-3.186249e+00
1.303339e+01	-3.212351e+00
1.310867e+01	-3.238779e+00
1.318439e+01	-3.265060e+00
1.326054e+01	-3.291497e+00
1.333713e+01	-3.318124e+00
1.341417e+01	-3.345059e+00
1.349165e+01	-3.372024e+00
1.356958e+01	-3.399017e+00
1.364795e+01	-3.426269e+00
1.372678e+01	-3.453635e+00
1.380607e+01	-3.480916e+00
1.388581e+01	-3.508763e+00
1.396602e+01	-3.536542e+00
1.404668e+01	-3.564502e+00
1.412782e+01	-3.592606e+00
1.420942e+01	-3.620723e+00
1.429149e+01	-3.649313e+00
1.437404e+01	-3.677732e+00
1.445706e+01	-3.706454e+00
1.454057e+01	-3.735200e+00
1.462455e+01	-3.764076e+00
1.470902e+01	-3.793326e+00
1.479398e+01	-3.822282e+00
1.487943e+01	-3.851756e+00
1.496537e+01	-3.880986e+00
1.505181e+01	-3.910678e+00
1.513875e+01	-3.940475e+00
1.522619e+01	-3.970575e+00
1.531414e+01	-4.000813e+00
1.540259e+01	-4.030588e+00
1.549156e+01	-4.060912e+00
1.558103e+01	-4.091468e+00
1.567103e+01	-4.122328e+00
1.576155e+01	-4.152979e+00
1.585258e+01	-4.183691e+00
1.594415e+01	-4.214381e+00
1.603624e+01	-4.245909e+00
1.612886e+01	-4.277005e+00
1.622202e+01	-4.308486e+00
1.631572e+01	-4.339946e+00
1.640996e+01	-4.371658e+00
1.650474e+01	-4.403324e+00
1.660008e+01	-4.435346e+00
1.669596e+01	-4.467774e+00
1.679239e+01	-4.499701e+00
1.688938e+01	-4.532144e+00
1.698694e+01	-4.564824e+00
1.708505e+01	-4.597130e+00
1.718373e+01	-4.629869e+00
1.728299e+01	-4.662808e+00
1.738281e+01	-4.695566e+00
1.748322e+01	-4.728582e+00
1.758420e+01	-4.762233e+00
1.768576e+01	-4.795406e+00
1.778792e+01	-4.828820e+00
1.789066e+01	-4.862629e+00
1.799399e+01	-4.896598e+00
1.809793e+01	-4.930515e+00
1.820246e+01	-4.964147e+00
1.830760e+01	-4.998691e+00
1.841334e+01	-5.032516e+00
1.851969e+01	-5.067164e+00
1.862666e+01	-5.101718e+00
1.873425e+01	-5.136245e+00
1.884246e+01	-5.170697e+00
1.895129e+01	-5.206284e+00
1.906075e+01	-5.240826e+00
1.917085e+01	-5.275919e+00
1.928158e+01	-5.311206e+00
1.939295e+01	-5.346538e+00
1.950496e+01	-5.382145e+00
1.961762e+01	-5.417478e+00
1.973093e+01	-5.453508e+00
1.984490e+01	-5.489325e+00
1.995952e+01	-5.524946e+00
2.007480e+01	-5.561261e+00
2.019076e+01	-5.597352e+00
2.030738e+01	-5.633958e+00
2.042467e+01	-5.670134e+00
2.054264e+01	-5.706510e+00
2.066130e+01	-5.743175e+00
2.078064e+01	-5.779842e+00
2.090066e+01	-5.817089e+00
2.102139e+01	-5.853763e+00
2.114280e+01	-5.891036e+00
2.126492e+01	-5.928186e+00
2.138775e+01	-5.965591e+00
2.151128e+01	-6.003085e+00
2.163553e+01	-6.040466e+00
2.176050e+01	-6.078131e+00
2.188619e+01	-6.115799e+00
2.201260e+01	-6.153409e+00
2.213974e+01	-6.191231e+00
2.226762e+01	-6.229295e+00
2.239624e+01	-6.267936e+00
2.252560e+01	-6.306024e+00
2.265571e+01	-6.344560e+00
2.278656e+01	-6.383098e+00
2.291818e+01	-6.421504e+00
2.305055e+01	-6.459813e+00
2.318369e+01	-6.498782e+00
2.331760e+01	-6.537902e+00
2.345228e+01	-6.576758e+00
2.358774e+01	-6.615836e+00
2.372398e+01	-6.654549e+00
2.386101e+01	-6.694092e+00
2.399883e+01	-6.734072e+00
2.413745e+01	-6.773153e+00
2.427686e+01	-6.812635e+00
2.441709e+01	-6.852314e+00
2.455812e+01	-6.892295e+00
2.469997e+01	-6.931882e+00
2.484263e+01	-6.971931e+00
2.498612e+01	-7.011972e+00
2.513044e+01	-7.052056e+00
2.527559e+01	-7.092197e+00
2.542158e+01	-7.132328e+00
2.556842e+01	-7.172859e+00
2.571610e+01	-7.213065e+00
2.586463e+01	-7.253955e+00
2.601403e+01	-7.294480e+00
2.616428e+01	-7.335178e+00
2.631541e+01	-7.376019e+00
2.646740e+01	-7.416952e+00
2.662028e+01	-7.458548e+00
2.677404e+01	-7.499037e+00
2.692868e+01	-7.540030e+00
2.708422e+01	-7.581595e+00
2.724066e+01	-7.623089e+00
2.739800e+01	-7.664278e+00
2.755625e+01	-7.706046e+00
2.771541e+01	-7.747511e+00
2.787550e+01	-7.789258e+00
2.803650e+01	-7.830704e+00
2.819844e+01	-7.872333e+00
2.836131e+01	-7.914845e+00
2.852513e+01	-7.956244e+00
2.868989e+01	-7.998558e+00
2.885560e+01	-8.040805e+00
2.902227e+01	-8.082644e+00
2.918990e+01	-8.125012e+00
2.935850e+01	-8.167530e+00
2.952807e+01	-8.209709e+00
2.969863e+01	-8.251992e+00
2.987016e+01	-8.295189e+00
3.004269e+01	-8.337840e+00
3.021622e+01	-8.380255e+00
3.039075e+01	-8.423534e+00
3.056628e+01	-8.465837e+00
3.074283e+01	-8.508736e+00
3.092040e+01	-8.552121e+00
3.109900e+01	-8.595175e+00
3.127862e+01	-8.638435e+00
3.145929e+01	-8.682036e+00
3.164099e+01	-8.724873e+00
3.182375e+01	-8.768323e+00
3.200756e+01	-8.811402e+00
3.219244e+01	-8.854957e+00
3.237838e+01	-8.898711e+00
3.256540e+01	-8.942124e+00
3.275349e+01	-8.985950e+00
3.294268e+01	-9.029880e+00
3.313295e+01	-9.073375e+00
3.332433e+01	-9.117302e+00
3.351681e+01	-9.161103e+00
3.371040e+01	-9.205042e+00
3.390511e+01	-9.249470e+00
3.410094e+01	-9.293031e+00
3.429791e+01	-9.337137e+00
3.449601e+01	-9.381993e+00
3.469526e+01	-9.426007e+00
3.489566e+01	-9.470514e+00
3.509721e+01	-9.514922e+00
3.529993e+01	-9.559102e+00
3.550382e+01	-9.603754e+00
3.570889e+01	-9.648091e+00
3.591515e+01	-9.692902e+00
3.612259e+01	-9.737853e+00
3.633123e+01	-9.782179e+00
3.654108e+01	-9.827406e+00
3.675214e+01	-9.871959e+00
3.696442e+01	-9.916950e+00
3.717792e+01	-9.961680e+00
3.739266e+01	-1.000667e+01
3.760864e+01	-1.005186e+01
3.782587e+01	-1.009712e+01
3.804435e+01	-1.014191e+01
3.826409e+01	-1.018787e+01
3.848510e+01	-1.023254e+01
3.870739e+01	-1.027760e+01
3.893096e+01	-1.032318e+01
3.915583e+01	-1.036850e+01
3.938199e+01	-1.041491e+01
3.960946e+01	-1.046016e+01
3.983824e+01	-1.050556e+01
4.006834e+01	-1.055113e+01
4.029978e+01	-1.059608e+01
4.053255e+01	-1.064208e+01
4.076666e+01	-1.068771e+01
4.100213e+01	-1.073359e+01
4.123896e+01	-1.077975e+01
4.147715e+01	-1.082456e+01
4.171672e+01	-1.087118e+01
4.195767e+01	-1.091683e+01
4.220002e+01	-1.096340e+01
4.244377e+01	-1.100921e+01
4.268892e+01	-1.105513e+01
4.293549e+01	-1.110163e+01
4.318348e+01	-1.114795e+01
4.343291e+01	-1.119348e+01
4.368377e+01	-1.124003e+01
4.393609e+01	-1.128593e+01
4.418986e+01	-1.133264e+01
4.444510e+01	-1.137889e+01
4.470182e+01	-1.142540e+01
4.496001e+01	-1.147231e+01
4.521970e+01	-1.151818e+01
4.548089e+01	-1.156525e+01
4.574358e+01	-1.161136e+01
4.600779e+01	-1.165844e+01
4.627353e+01	-1.170484e+01
4.654081e+01	-1.175139e+01
4.680963e+01	-1.179810e+01
4.708000e+01	-1.184405e+01
4.735193e+01	-1.189035e+01
4.762543e+01	-1.193875e+01
4.790051e+01	-1.198525e+01
4.817719e+01	-1.203228e+01
4.845545e+01	-1.207955e+01
4.873533e+01	-1.212593e+01
4.901682e+01	-1.217305e+01
4.929994e+01	-1.222019e+01
4.958470e+01	-1.226648e+01
4.987110e+01	-1.231453e+01
5.015915e+01	-1.236117e+01
5.044887e+01	-1.240880e+01
5.074026e+01	-1.245547e+01
5.103333e+01	-1.250201e+01
5.132810e+01	-1.254957e+01
5.162457e+01	-1.259675e+01
5.192275e+01	-1.264443e+01
5.222265e+01	-1.269134e+01
5.252429e+01	-1.273918e+01
5.282767e+01	-1.278682e+01
5.313280e+01	-1.283379e+01
5.343969e+01	-1.288132e+01
5.374836e+01	-1.292873e+01
5.405880e+01	-1.297569e+01
5.437105e+01	-1.302359e+01
5.468509e+01	-1.307156e+01
5.500095e+01	-1.311836e+01
5.531863e+01	-1.316645e+01
5.563815e+01	-1.321377e+01
5.595951e+01	-1.326135e+01
5.628273e+01	-1.330956e+01
5.660782e+01	-1.335772e+01
5.693479e+01	-1.340532e+01
5.726364e+01	-1.345255e+01
5.759439e+01	-1.350087e+01
5.792705e+01	-1.354897e+01
5.826164e+01	-1.359639e+01
5.859815e+01	-1.364465e+01
5.893662e+01	-1.369225e+01
5.927703e+01	-1.373990e+01
5.961941e+01	-1.378770e+01
5.996377e+01	-1.383611e+01
6.031012e+01	-1.388385e+01
6.065847e+01	-1.393102e+01
6.100883e+01	-1.398007e+01
6.136121e+01	-1.402794e+01
6.171563e+01	-1.407569e+01
6.207210e+01	-1.412408e+01
6.243063e+01	-1.417126e+01
6.279122e+01	-1.422070e+01
6.315390e+01	-1.426794e+01
6.351868e+01	-1.431632e+01
6.388556e+01	-1.436467e+01
6.425456e+01	-1.441207e+01
6.462569e+01	-1.446042e+01
6.499897e+01	-1.450888e+01
6.537440e+01	-1.455788e+01
6.575200e+01	-1.460568e+01
6.613178e+01	-1.465324e+01
6.651375e+01	-1.470171e+01
6.689793e+01	-1.475046e+01
6.728433e+01	-1.479927e+01
6.767297e+01	-1.484760e+01
6.806384e+01	-1.489568e+01
6.845698e+01	-1.494393e+01
6.885238e+01	-1.499215e+01
6.925007e+01	-1.504096e+01
6.965005e+01	-1.509011e+01
7.005235e+01	-1.513772e+01
7.045697e+01	-1.518686e+01
7.086393e+01	-1.523544e+01
7.127323e+01	-1.528437e+01
7.168490e+01	-1.533245e+01
7.209895e+01	-1.537992e+01
7.251539e+01	-1.542885e+01
7.293424e+01	-1.547766e+01
7.335551e+01	-1.552619e+01
7.377920e+01	-1.557527e+01
7.420535e+01	-1.562401e+01
7.463396e+01	-1.567317e+01
7.506504e+01	-1.572126e+01
7.549861e+01	-1.576953e+01
7.593469e+01	-1.581844e+01
7.637328e+01	-1.586730e+01
7.681441e+01	-1.591649e+01
7.725809e+01	-1.596476e+01
7.770433e+01	-1.601487e+01
7.815315e+01	-1.606296e+01
7.860456e+01	-1.611093e+01
7.905857e+01	-1.616030e+01
7.951521e+01	-1.620885e+01
7.997449e+01	-1.625662e+01
8.043642e+01	-1.630700e+01
8.090102e+01	-1.635561e+01
8.136830e+01	-1.640499e+01
8.183828e+01	-1.645346e+01
8.231097e+01	-1.650235e+01
8.278640e+01	-1.655052e+01
8.326457e+01	-1.660025e+01
8.374550e+01	-1.664880e+01
8.422921e+01	-1.669690e+01
8.471572e+01	-1.674736e+01
8.520503e+01	-1.679602e+01
8.569717e+01	-1.684337e+01
8.619215e+01	-1.689362e+01
8.669000e+01	-1.694195e+01
8.719071e+01	-1.699093e+01
8.769432e+01	-1.704091e+01
8.820084e+01	-1.709041e+01
8.871029e+01	-1.713955e+01
8.922267e+01	-1.718780e+01
8.973802e+01	-1.723704e+01
9.025634e+01	-1.728672e+01
9.077766e+01	-1.733517e+01
9.130199e+01	-1.738408e+01
9.182935e+01	-1.743355e+01
9.235975e+01	-1.748230e+01
9.289321e+01	-1.753230e+01
9.342976e+01	-1.758156e+01
9.396941e+01	-1.763029e+01
9.451217e+01	-1.767948e+01
9.505807e+01	-1.772797e+01
9.560712e+01	-1.777957e+01
9.615934e+01	-1.782791e+01
9.671476e+01	-1.787532e+01
9.727338e+01	-1.792445e+01
9.783522e+01	-1.797492e+01
9.840032e+01	-1.802412e+01
9.896867e+01	-1.807286e+01
9.954031e+01	-1.812293e+01
1.001153e+02	-1.817152e+01
1.006935e+02	-1.822115e+01
1.012751e+02	-1.827085e+01
1.018601e+02	-1.831931e+01
1.024484e+02	-1.836834e+01
1.030402e+02	-1.841800e+01
1.036353e+02	-1.846729e+01
1.042339e+02	-1.851585e+01
1.048360e+02	-1.856648e+01
1.054415e+02	-1.861471e+01
1.060505e+02	-1.866582e+01
1.066631e+02	-1.871433e+01
1.072791e+02	-1.876451e+01
1.078988e+02	-1.881259e+01
1.085220e+02	-1.886284e+01
1.091488e+02	-1.891219e+01
1.097793e+02	-1.896113e+01
1.104133e+02	-1.901073e+01
1.110511e+02	-1.905929e+01
1.116925e+02	-1.910974e+01
1.123376e+02	-1.915860e+01
1.129865e+02	-1.920934e+01
1.136391e+02	-1.925763e+01
1.142955e+02	-1.930827e+01
1.149556e+02	-1.935620e+01
1.156196e+02	-1.940660e+01
1.162874e+02	-1.945650e+01
1.169591e+02	-1.950395e+01
1.176347e+02	-1.955505e+01
1.183141e+02	-1.960492e+01
1.189975e+02	-1.965488e+01
1.196848e+02	-1.970216e+01
1.203761e+02	-1.975244e+01
1.210714e+02	-1.980078e+01
1.217707e+02	-1.985177e+01
1.224740e+02	-1.990090e+01
1.231814e+02	-1.995056e+01
1.238929e+02	-2.000057e+01
1.246085e+02	-2.005066e+01
1.253283e+02	-2.009995e+01
1.260522e+02	-2.014793e+01
1.267802e+02	-2.019714e+01
1.275125e+02	-2.024800e+01
1.282490e+02	-2.029689e+01
1.289898e+02	-2.034776e+01
1.297348e+02	-2.039613e+01
1.304842e+02	-2.044612e+01
1.312378e+02	-2.049581e+01
1.319959e+02	-2.054463e+01
1.327583e+02	-2.059449e+01
1.335251e+02	-2.064608e+01
1.342963e+02	-2.069410e+01
1.350720e+02	-2.074489e+01
1.358522e+02	-2.079350e+01
1.366368e+02	-2.084334e+01
1.374260e+02	-2.089317e+01
1.382198e+02	-2.094023e+01
1.390182e+02	-2.099215e+01
1.398211e+02	-2.104176e+01
1.406287e+02	-2.109049e+01
1.414410e+02	-2.113932e+01
1.422579e+02	-2.118860e+01
1.430796e+02	-2.123935e+01
1.439060e+02	-2.129044e+01
1.447372e+02	-2.133928e+01
1.455732e+02	-2.138954e+01
1.464141e+02	-2.143845e+01
1.472597e+02	-2.148902e+01
1.481103e+02	-2.153783e+01
1.489658e+02	-2.158696e+01
1.498262e+02	-2.163587e+01
1.506916e+02	-2.168791e+01
1.515620e+02	-2.173525e+01
1.524374e+02	-2.178689e+01
1.533179e+02	-2.183727e+01
1.542034e+02	-2.188555e+01
1.550941e+02	-2.193529e+01
1.559899e+02	-2.198640e+01
1.568909e+02	-2.203551e+01
1.577971e+02	-2.208488e+01
1.587085e+02	-2.213321e+01
1.596252e+02	-2.218312e+01
1.605472e+02	-2.223243e+01
1.614745e+02	-2.228425e+01
1.624072e+02	-2.233560e+01
1.633453e+02	-2.238567e+01
1.642887e+02	-2.243513e+01
1.652377e+02	-2.248083e+01
1.661921e+02	-2.253209e+01
1.671520e+02	-2.258105e+01
1.681175e+02	-2.263254e+01
1.690885e+02	-2.268232e+01
1.700651e+02	-2.273052e+01
1.710474e+02	-2.278141e+01
1.720354e+02	-2.283311e+01
1.730291e+02	-2.288206e+01
1.740285e+02	-2.293075e+01
1.750337e+02	-2.297919e+01
1.760446e+02	-2.303295e+01
1.770615e+02	-2.307966e+01
1.780842e+02	-2.313050e+01
1.791128e+02	-2.317979e+01
1.801473e+02	-2.322854e+01
1.811878e+02	-2.327926e+01
1.822344e+02	-2.332975e+01
1.832870e+02	-2.337721e+01
1.843456e+02	-2.342962e+01
1.854104e+02	-2.347910e+01
1.864813e+02	-2.353054e+01
1.875584e+02	-2.357771e+01
1.886418e+02	-2.362965e+01
1.897313e+02	-2.367820e+01
1.908272e+02	-2.373076e+01
1.919294e+02	-2.378016e+01
1.930380e+02	-2.382806e+01
1.941530e+02	-2.387508e+01
1.952744e+02	-2.392814e+01
1.964023e+02	-2.397721e+01
1.975367e+02	-2.402689e+01
1.986777e+02	-2.407630e+01
1.998252e+02	-2.412859e+01
2.009794e+02	-2.418016e+01
2.021403e+02	-2.422949e+01
2.033078e+02	-2.427530e+01
2.044821e+02	-2.432404e+01
2.056632e+02	-2.437615e+01
2.068511e+02	-2.442583e+01
2.080459e+02	-2.447673e+01
2.092475e+02	-2.452770e+01
2.104561e+02	-2.457677e+01
2.116717e+02	-2.462370e+01
2.128943e+02	-2.467528e+01
2.141240e+02	-2.472768e+01
2.153608e+02	-2.477376e+01
2.166047e+02	-2.482804e+01
2.178558e+02	-2.487398e+01
2.191141e+02	-2.492051e+01
2.203797e+02	-2.497482e+01
2.216526e+02	-2.502707e+01
2.229329e+02	-2.507500e+01
2.242205e+02	-2.512568e+01
2.255156e+02	-2.517569e+01
2.268182e+02	-2.522490e+01
2.281283e+02	-2.527689e+01
2.294459e+02	-2.532246e+01
2.307712e+02	-2.537451e+01
2.321041e+02	-2.542512e+01
2.334447e+02	-2.547450e+01
2.347931e+02	-2.552585e+01
2.361493e+02	-2.557595e+01
2.375133e+02	-2.562986e+01
2.388851e+02	-2.566992e+01
2.402649e+02	-2.572384e+01
2.416527e+02	-2.577582e+01
2.430484e+02	-2.582520e+01
2.444523e+02	-2.587502e+01
2.458642e+02	-2.592634e+01
2.472843e+02	-2.597342e+01
2.487126e+02	-2.602162e+01
2.501492e+02	-2.607524e+01
2.515940e+02	-2.612232e+01
2.530472e+02	-2.617348e+01
2.545088e+02	-2.622303e+01
2.559789e+02	-2.627446e+01
2.574574e+02	-2.631998e+01
2.589444e+02	-2.637562e+01
2.604401e+02	-2.642415e+01
2.619444e+02	-2.647403e+01
2.634574e+02	-2.652155e+01
2.649791e+02	-2.657495e+01
2.665096e+02	-2.662445e+01
2.680489e+02	-2.667763e+01
2.695972e+02	-2.672273e+01
2.711544e+02	-2.677318e+01
2.727205e+02	-2.682356e+01
2.742958e+02	-2.687243e+01
2.758801e+02	-2.692416e+01
2.774736e+02	-2.697091e+01
2.790762e+02	-2.702591e+01
2.806882e+02	-2.707257e+01
2.823094e+02	-2.712426e+01
2.839400e+02	-2.717282e+01
2.855800e+02	-2.721891e+01
2.872295e+02	-2.727625e+01
2.888886e+02	-2.732371e+01
2.905572e+02	-2.737167e+01
2.922354e+02	-2.742335e+01
2.939234e+02	-2.747275e+01
2.956211e+02	-2.751989e+01
2.973286e+02	-2.757115e+01
2.990459e+02	-2.762096e+01
3.007732e+02	-2.767458e+01
3.025104e+02	-2.772427e+01
3.042577e+02	-2.777297e+01
3.060151e+02	-2.782763e+01
3.077826e+02	-2.787466e+01
3.095604e+02	-2.792199e+01
3.113484e+02	-2.797242e+01
3.131467e+02	-2.802342e+01
3.149554e+02	-2.807281e+01
3.167746e+02	-2.812311e+01
3.186043e+02	-2.817660e+01
3.204445e+02	-2.822031e+01
3.222954e+02	-2.827561e+01
3.241570e+02	-2.832200e+01
3.260293e+02	-2.837514e+01
3.279124e+02	-2.841907e+01
3.298064e+02	-2.847061e+01
3.317114e+02	-2.852129e+01
3.336273e+02	-2.857516e+01
3.355544e+02	-2.862384e+01
3.374925e+02	-2.867670e+01
3.394418e+02	-2.872094e+01
3.414024e+02	-2.876893e+01
3.433744e+02	-2.882607e+01
3.453577e+02	-2.887186e+01
3.473525e+02	-2.892223e+01
3.493588e+02	-2.897436e+01
3.513766e+02	-2.902448e+01
3.534062e+02	-2.907133e+01
3.554474e+02	-2.912427e+01
3.575005e+02	-2.917384e+01
3.595654e+02	-2.922521e+01
3.616422e+02	-2.927625e+01
3.637311e+02	-2.932647e+01
3.658320e+02	-2.937414e+01
3.679450e+02	-2.942616e+01
3.700702e+02	-2.947983e+01
3.722077e+02	-2.952628e+01
3.743576e+02	-2.957416e+01
3.765199e+02	-2.962251e+01
3.786946e+02	-2.966941e+01
3.808820e+02	-2.972537e+01
3.830819e+02	-2.977887e+01
3.852946e+02	-2.982297e+01
3.875200e+02	-2.987775e+01
3.897583e+02	-2.992529e+01
3.920096e+02	-2.997243e+01
3.942738e+02	-3.002377e+01
3.965511e+02	-3.007785e+01
3.988416e+02	-3.012481e+01
4.011452e+02	-3.017803e+01
4.034622e+02	-3.022307e+01
4.057926e+02	-3.027705e+01
4.081365e+02	-3.032922e+01
4.104938e+02	-3.037883e+01
4.128648e+02	-3.042824e+01
4.152495e+02	-3.047292e+01
4.176480e+02	-3.052615e+01
4.200603e+02	-3.057536e+01
4.224866e+02	-3.062380e+01
4.249268e+02	-3.068344e+01
4.273812e+02	-3.072517e+01
4.298497e+02	-3.078236e+01
4.323325e+02	-3.082605e+01
4.348297e+02	-3.087706e+01
4.373412e+02	-3.092791e+01
4.398673e+02	-3.097695e+01
4.424079e+02	-3.102484e+01
4.449633e+02	-3.107845e+01
4.475334e+02	-3.112312e+01
4.501183e+02	-3.117691e+01
4.527182e+02	-3.123103e+01
4.553330e+02	-3.127361e+01
4.579630e+02	-3.133074e+01
4.606082e+02	-3.137910e+01
4.632687e+02	-3.143265e+01
4.659445e+02	-3.148246e+01
4.686358e+02	-3.153340e+01
4.713426e+02	-3.158659e+01
4.740650e+02	-3.163481e+01
4.768032e+02	-3.168155e+01
4.795572e+02	-3.172901e+01
4.823271e+02	-3.178298e+01
4.851130e+02	-3.183581e+01
4.879150e+02	-3.188034e+01
4.907332e+02	-3.194052e+01
4.935676e+02	-3.198111e+01
4.964185e+02	-3.202432e+01
4.992858e+02	-3.208072e+01
5.021696e+02	-3.213505e+01
5.050701e+02	-3.218439e+01
5.079874e+02	-3.223528e+01
5.109215e+02	-3.228244e+01
5.138726e+02	-3.233030e+01
5.168407e+02	-3.238472e+01
5.198259e+02	-3.243637e+01
5.228284e+02	-3.248283e+01
5.258482e+02	-3.253148e+01
5.288855e+02	-3.259029e+01
5.319403e+02	-3.263325e+01
5.350128e+02	-3.268869e+01
5.381030e+02	-3.273626e+01
5.412111e+02	-3.278684e+01
5.443371e+02	-3.283872e+01
5.474812e+02	-3.288677e+01
5.506434e+02	-3.293630e+01
5.538239e+02	-3.299191e+01
5.570228e+02	-3.302955e+01
5.602401e+02	-3.308085e+01
5.634760e+02	-3.314512e+01
5.667306e+02	-3.318730e+01
5.700040e+02	-3.323830e+01
5.732964e+02	-3.329683e+01
5.766077e+02	-3.333685e+01
5.799382e+02	-3.338522e+01
5.832879e+02	-3.343283e+01
5.866569e+02	-3.349212e+01
5.900454e+02	-3.353806e+01
5.934535e+02	-3.359193e+01
5.968813e+02	-3.363841e+01
6.003288e+02	-3.368833e+01
6.037963e+02	-3.373935e+01
6.072838e+02	-3.379085e+01
6.107914e+02	-3.384069e+01
6.143194e+02	-3.388466e+01
6.178676e+02	-3.394099e+01
6.214364e+02	-3.399252e+01
6.250258e+02	-3.404828e+01
6.286359e+02	-3.409964e+01
6.322669e+02	-3.414425e+01
6.359189e+02	-3.419185e+01
6.395919e+02	-3.424010e+01
6.432862e+02	-3.430198e+01
6.470017e+02	-3.434291e+01
6.507388e+02	-3.439414e+01
6.544974e+02	-3.445043e+01
6.582778e+02	-3.450039e+01
6.620800e+02	-3.454463e+01
6.659041e+02	-3.459636e+01
6.697504e+02	-3.464797e+01
6.736188e+02	-3.468950e+01
6.775096e+02	-3.475230e+01
6.814229e+02	-3.479501e+01
6.853587e+02	-3.485509e+01
6.893173e+02	-3.489477e+01
6.932988e+02	-3.494605e+01
6.973033e+02	-3.499608e+01
7.013309e+02	-3.504705e+01
