Frequency(Hz)	Magnitude(dB)
1.000000e+01	-2.006722e+00
1.005776e+01	-2.025431e+00
1.011585e+01	-2.043956e+00
1.017428e+01	-2.062907e+00
1.023305e+01	-2.081975e+00
1.029215e+01	-2.101118e+00
1.035160e+01	-2.120232e+00
1.041139e+01	-2.139600e+00
1.047153e+01	-2.159402e+00
1.053201e+01	-2.178988e+00
1.059284e+01	-2.198351e+00
1.065403e+01	-2.218553e+00
1.071556e+01	-2.238703e+00
1.077746e+01	-2.259049e+00
1.083971e+01	-2.279216e+00
1.090232e+01	-2.300072e+00
1.096529e+01	-2.320346e+00
1.102862e+01	-2.341276e+00
1.109232e+01	-2.362338e+00
1.115639e+01	-2.383224e+00
1.122083e+01	-2.404258e+00
1.128564e+01	-2.425574e+00
1.135083e+01	-2.447236e+00
1.141639e+01	-2.468584e+00
1.148233e+01	-2.490561e+00
1.154865e+01	-2.512492e+00
1.161536e+01	-2.534331e+00
1.168245e+01	-2.556713e+00
1.174992e+01	-2.579013e+00
1.181779e+01	-2.601486e+00
1.188605e+01	-2.623985e+00
1.195470e+01	-2.646780e+00
1.202375e+01	-2.669537e+00
1.209320e+01	-2.692911e+00
1.216305e+01	-2.715962e+00
1.223330e+01	-2.739371e+00
1.230396e+01	-2.762718e+00
1.237503e+01	-2.786568e+00
1.244651e+01	-2.810177e+00
1.251840e+01	-2.833943e+00
1.259070e+01	-2.858252e+00
1.266343e+01	-2.882327e+00
1.273657e+01	-2.906597e+00
1.281014e+01	-2.931141e+00
1.288413e+01	-2.955527e+00
1.295855e+01	-2.980181e+00
1.303339e+01	-3.005401e+00
1.310867e+01	-3.030566e+00
1.318439e+01	-3.055888e+00
1.326054e+01	-3.081145e+00
1.333713e+01	-3.106493e+00
1.341417e+01	-3.132079e+00
1.349165e+01	-3.158056e+00
1.356958e+01	-3.184143e+00
1.364795e+01	-3.209637e+00
1.372678e+01	-3.235849e+00
1.380607e+01	-3.262503e+00
1.388581e+01	-3.288947e+00
1.396602e+01	-3.315656e+00
1.404668e+01	-3.342196e+00
1.412782e+01	-3.369374e+00
1.420942e+01	-3.396233e+00
1.429149e+01	-3.423871e+00
1.437404e+01	-3.450826e+00
1.445706e+01	-3.478485e+00
1.454057e+01	-3.506196e+00
1.462455e+01	-3.534189e+00
1.470902e+01	-3.561787e+00
1.479398e+01	-3.589760e+00
1.487943e+01	-3.618150e+00
1.496537e+01	-3.646430e+00
1.505181e+01	-3.674901e+00
1.513875e+01	-3.703799e+00
1.522619e+01	-3.732293e+00
1.531414e+01	-3.761472e+00
1.540259e+01	-3.790347e+00
1.549156e+01	-3.819635e+00
1.558103e+01	-3.848867e+00
1.567103e+01	-3.878237e+00
1.576155e+01	-3.907949e+00
1.585258e+01	-3.937763e+00
1.594415e+01	-3.967455e+00
1.603624e+01	-3.997566e+00
1.612886e+01	-4.027653e+00
1.622202e+01	-4.058182e+00
1.631572e+01	-4.088358e+00
1.640996e+01	-4.119179e+00
1.650474e+01	-4.149970e+00
1.660008e+01	-4.180540e+00
1.669596e+01	-4.211648e+00
1.679239e+01	-4.242909e+00
1.688938e+01	-4.274028e+00
1.698694e+01	-4.305481e+00
1.708505e+01	-4.336746e+00
1.718373e+01	-4.368707e+00
1.728299e+01	-4.399953e+00
1.738281e+01	-4.432585e+00
1.748322e+01	-4.464553e+00
1.758420e+01	-4.496502e+00
1.768576e+01	-4.528845e+00
1.778792e+01	-4.561347e+00
1.789066e+01	-4.594277e+00
1.799399e+01	-4.626941e+00
1.809793e+01	-4.659677e+00
1.820246e+01	-4.692439e+00
1.830760e+01	-4.725467e+00
1.841334e+01	-4.758934e+00
1.851969e+01	-4.791949e+00
1.862666e+01	-4.825997e+00
1.873425e+01	-4.859240e+00
1.884246e+01	-4.892814e+00
1.895129e+01	-4.926924e+00
1.906075e+01	-4.961061e+00
1.917085e+01	-4.995275e+00
1.928158e+01	-5.029390e+00
1.939295e+01	-5.063897e+00
1.950496e+01	-5.098265e+00
1.961762e+01	-5.133024e+00
1.973093e+01	-5.167814e+00
1.984490e+01	-5.202598e+00
1.995952e+01	-5.237095e+00
2.007480e+01	-5.272341e+00
2.019076e+01	-5.307996e+00
2.030738e+01	-5.343112e+00
2.042467e+01	-5.378812e+00
2.054264e+01	-5.414349e+00
2.066130e+01	-5.449851e+00
2.078064e+01	-5.485877e+00
2.090066e+01	-5.521558e+00
2.102139e+01	-5.557504e+00
2.114280e+01	-5.594140e+00
2.126492e+01	-5.630189e+00
2.138775e+01	-5.666668e+00
2.151128e+01	-5.702808e+00
2.163553e+01	-5.739632e+00
2.176050e+01	-5.776553e+00
2.188619e+01	-5.813213e+00
2.201260e+01	-5.850140e+00
2.213974e+01	-5.887314e+00
2.226762e+01	-5.924754e+00
2.239624e+01	-5.961622e+00
2.252560e+01	-5.999420e+00
2.265571e+01	-6.036853e+00
2.278656e+01	-6.074379e+00
2.291818e+01	-6.111940e+00
2.305055e+01	-6.149990e+00
2.318369e+01	-6.187654e+00
2.331760e+01	-6.226016e+00
2.345228e+01	-6.264029e+00
2.358774e+01	-6.302491e+00
2.372398e+01	-6.340843e+00
2.386101e+01	-6.379128e+00
2.399883e+01	-6.417624e+00
2.413745e+01	-6.456262e+00
2.427686e+01	-6.495021e+00
2.441709e+01	-6.534077e+00
2.455812e+01	-6.573156e+00
2.469997e+01	-6.611837e+00
2.484263e+01	-6.651500e+00
2.498612e+01	-6.690286e+00
2.513044e+01	-6.730024e+00
2.527559e+01	-6.769260e+00
2.542158e+01	-6.809073e+00
2.556842e+01	-6.848280e+00
2.571610e+01	-6.888017e+00
2.586463e+01	-6.927917e+00
2.601403e+01	-6.968009e+00
2.616428e+01	-7.008112e+00
2.631541e+01	-7.048028e+00
2.646740e+01	-7.087856e+00
2.662028e+01	-7.128432e+00
2.677404e+01	-7.168937e+00
2.692868e+01	-7.209325e+00
2.708422e+01	-7.250021e+00
2.724066e+01	-7.290352e+00
2.739800e+01	-7.331066e+00
2.755625e+01	-7.372260e+00
2.771541e+01	-7.413096e+00
2.787550e+01	-7.453752e+00
2.803650e+01	-7.495080e+00
2.819844e+01	-7.536282e+00
2.836131e+01	-7.577508e+00
2.852513e+01	-7.619015e+00
2.868989e+01	-7.660576e+00
2.885560e+01	-7.701756e+00
2.902227e+01	-7.743243e+00
2.918990e+01	-7.784762e+00
2.935850e+01	-7.826586e+00
2.952807e+01	-7.868415e+00
2.969863e+01	-7.910679e+00
2.987016e+01	-7.952192e+00
3.004269e+01	-7.994705e+00
3.021622e+01	-8.036481e+00
3.039075e+01	-8.079041e+00
3.056628e+01	-8.121032e+00
3.074283e+01	-8.163819e+00
3.092040e+01	-8.205591e+00
3.109900e+01	-8.248610e+00
3.127862e+01	-8.290648e+00
3.145929e+01	-8.333418e+00
3.164099e+01	-8.376166e+00
3.182375e+01	-8.418903e+00
3.200756e+01	-8.462217e+00
3.219244e+01	-8.504830e+00
3.237838e+01	-8.547933e+00
3.256540e+01	-8.590923e+00
3.275349e+01	-8.634078e+00
3.294268e+01	-8.677089e+00
3.313295e+01	-8.720556e+00
3.332433e+01	-8.763769e+00
3.351681e+01	-8.807479e+00
3.371040e+01	-8.850017e+00
3.390511e+01	-8.894621e+00
3.410094e+01	-8.937593e+00
3.429791e+01	-8.981794e+00
3.449601e+01	-9.025448e+00
3.469526e+01	-9.069158e+00
3.489566e+01	-9.113121e+00
3.509721e+01	-9.156752e+00
3.529993e+01	-9.200628e+00
3.550382e+01	-9.244718e+00
3.570889e+01	-9.289321e+00
3.591515e+01	-9.333082e+00
3.612259e+01	-9.377659e+00
3.633123e+01	-9.421928e+00
3.654108e+01	-9.465149e+00
3.675214e+01	-9.510434e+00
3.696442e+01	-9.554653e+00
3.717792e+01	-9.599298e+00
3.739266e+01	-9.643406e+00
3.760864e+01	-9.688394e+00
3.782587e+01	-9.733239e+00
3.804435e+01	-9.777538e+00
3.826409e+01	-9.822906e+00
3.848510e+01	-9.867551e+00
3.870739e+01	-9.912574e+00
3.893096e+01	-9.957331e+00
3.915583e+01	-1.000282e+01
3.938199e+01	-1.004815e+01
3.960946e+01	-1.009295e+01
3.983824e+01	-1.013764e+01
4.006834e+01	-1.018298e+01
4.029978e+01	-1.022861e+01
4.053255e+01	-1.027308e+01
4.076666e+01	-1.031905e+01
4.100213e+01	-1.036439e+01
4.123896e+01	-1.040976e+01
4.147715e+01	-1.045567e+01
4.171672e+01	-1.050060e+01
4.195767e+01	-1.054683e+01
4.220002e+01	-1.059192e+01
4.244377e+01	-1.063799e+01
4.268892e+01	-1.068325e+01
4.293549e+01	-1.072895e+01
4.318348e+01	-1.077532e+01
4.343291e+01	-1.082081e+01
4.368377e+01	-1.086713e+01
4.393609e+01	-1.091268e+01
4.418986e+01	-1.095889e+01
4.444510e+01	-1.100467e+01
4.470182e+01	-1.105103e+01
4.496001e+01	-1.109762e+01
4.521970e+01	-1.114299e+01
4.548089e+01	-1.118956e+01
4.574358e+01	-1.123591e+01
4.600779e+01	-1.128187e+01
4.627353e+01	-1.132819e+01
4.654081e+01	-1.137383e+01
4.680963e+01	-1.142085e+01
4.708000e+01	-1.146731e+01
4.735193e+01	-1.151425e+01
4.762543e+01	-1.156027e+01
4.790051e+01	-1.160635e+01
4.817719e+01	-1.165404e+01
4.845545e+01	-1.170039e+01
4.873533e+01	-1.174643e+01
4.901682e+01	-1.179334e+01
4.929994e+01	-1.183977e+01
4.958470e+01	-1.188683e+01
4.987110e+01	-1.193410e+01
5.015915e+01	-1.198090e+01
5.044887e+01	-1.202766e+01
5.074026e+01	-1.207445e+01
5.103333e+01	-1.212116e+01
5.132810e+01	-1.216854e+01
5.162457e+01	-1.221513e+01
5.192275e+01	-1.226143e+01
5.222265e+01	-1.230933e+01
5.252429e+01	-1.235642e+01
5.282767e+01	-1.240337e+01
5.313280e+01	-1.245065e+01
5.343969e+01	-1.249803e+01
5.374836e+01	-1.254456e+01
5.405880e+01	-1.259273e+01
5.437105e+01	-1.264027e+01
5.468509e+01	-1.268687e+01
5.500095e+01	-1.273452e+01
5.531863e+01	-1.278172e+01
5.563815e+01	-1.282891e+01
5.595951e+01	-1.287608e+01
5.628273e+01	-1.292455e+01
5.660782e+01	-1.297163e+01
5.693479e+01	-1.301937e+01
5.726364e+01	-1.306607e+01
5.759439e+01	-1.311440e+01
5.792705e+01	-1.316195e+01
5.826164e+01	-1.320982e+01
5.859815e+01	-1.325709e+01
5.893662e+01	-1.330520e+01
5.927703e+01	-1.335283e+01
5.961941e+01	-1.340017e+01
5.996377e+01	-1.344777e+01
6.031012e+01	-1.349601e+01
6.065847e+01	-1.354378e+01
6.100883e+01	-1.359167e+01
6.136121e+01	-1.363942e+01
6.171563e+01	-1.368698e+01
6.207210e+01	-1.373470e+01
6.243063e+01	-1.378303e+01
6.279122e+01	-1.383157e+01
6.315390e+01	-1.387969e+01
6.351868e+01	-1.392710e+01
6.388556e+01	-1.397516e+01
6.425456e+01	-1.402302e+01
6.462569e+01	-1.407096e+01
6.499897e+01	-1.411888e+01
6.537440e+01	-1.416689e+01
6.575200e+01	-1.421569e+01
6.613178e+01	-1.426400e+01
6.651375e+01	-1.431160e+01
6.689793e+01	-1.435978e+01
6.728433e+01	-1.440831e+01
6.767297e+01	-1.445747e+01
6.806384e+01	-1.450406e+01
6.845698e+01	-1.455204e+01
6.885238e+01	-1.460121e+01
6.925007e+01	-1.464922e+01
6.965005e+01	-1.469841e+01
7.005235e+01	-1.474569e+01
7.045697e+01	-1.479487e+01
7.086393e+01	-1.484405e+01
7.127323e+01	-1.489179e+01
7.168490e+01	-1.493982e+01
7.209895e+01	-1.498806e+01
7.251539e+01	-1.503663e+01
7.293424e+01	-1.508492e+01
7.335551e+01	-1.513348e+01
7.377920e+01	-1.518280e+01
7.420535e+01	-1.523001e+01
7.463396e+01	-1.527913e+01
7.506504e+01	-1.532732e+01
7.549861e+01	-1.537558e+01
7.593469e+01	-1.542501e+01
7.637328e+01	-1.547236e+01
7.681441e+01	-1.552263e+01
7.725809e+01	-1.557038e+01
7.770433e+01	-1.561983e+01
7.815315e+01	-1.566718e+01
7.860456e+01	-1.571497e+01
7.905857e+01	-1.576551e+01
7.951521e+01	-1.581407e+01
7.997449e+01	-1.586248e+01
8.043642e+01	-1.591112e+01
8.090102e+01	-1.595961e+01
8.136830e+01	-1.600875e+01
8.183828e+01	-1.605839e+01
8.231097e+01	-1.610693e+01
8.278640e+01	-1.615503e+01
8.326457e+01	-1.620351e+01
8.374550e+01	-1.625254e+01
8.422921e+01	-1.630083e+01
8.471572e+01	-1.635055e+01
8.520503e+01	-1.639942e+01
8.569717e+01	-1.644840e+01
8.619215e+01	-1.649789e+01
8.669000e+01	-1.654623e+01
8.719071e+01	-1.659722e+01
8.769432e+01	-1.664433e+01
8.820084e+01	-1.669329e+01
8.871029e+01	-1.674212e+01
8.922267e+01	-1.679007e+01
8.973802e+01	-1.683995e+01
9.025634e+01	-1.688985e+01
9.077766e+01	-1.693807e+01
9.130199e+01	-1.698716e+01
9.182935e+01	-1.703604e+01
9.235975e+01	-1.708642e+01
9.289321e+01	-1.713402e+01
9.342976e+01	-1.718255e+01
9.396941e+01	-1.723252e+01
9.451217e+01	-1.728197e+01
9.505807e+01	-1.732980e+01
9.560712e+01	-1.737960e+01
9.615934e+01	-1.742841e+01
9.671476e+01	-1.747748e+01
9.727338e+01	-1.752660e+01
9.783522e+01	-1.757543e+01
9.840032e+01	-1.762522e+01
9.896867e+01	-1.767442e+01
9.954031e+01	-1.772260e+01
1.001153e+02	-1.777394e+01
1.006935e+02	-1.782237e+01
1.012751e+02	-1.787175e+01
1.018601e+02	-1.791984e+01
1.024484e+02	-1.796905e+01
1.030402e+02	-1.802018e+01
1.036353e+02	-1.806857e+01
1.042339e+02	-1.811610e+01
1.048360e+02	-1.816718e+01
1.054415e+02	-1.821600e+01
1.060505e+02	-1.826418e+01
1.066631e+02	-1.831348e+01
1.072791e+02	-1.836351e+01
1.078988e+02	-1.841285e+01
1.085220e+02	-1.846298e+01
1.091488e+02	-1.851138e+01
1.097793e+02	-1.856112e+01
1.104133e+02	-1.861167e+01
1.110511e+02	-1.866015e+01
1.116925e+02	-1.870905e+01
1.123376e+02	-1.875774e+01
1.129865e+02	-1.880869e+01
1.136391e+02	-1.885799e+01
1.142955e+02	-1.890743e+01
1.149556e+02	-1.895543e+01
1.156196e+02	-1.900568e+01
1.162874e+02	-1.905503e+01
1.169591e+02	-1.910520e+01
1.176347e+02	-1.915428e+01
1.183141e+02	-1.920353e+01
1.189975e+02	-1.925350e+01
1.196848e+02	-1.930201e+01
1.203761e+02	-1.935130e+01
1.210714e+02	-1.940185e+01
1.217707e+02	-1.945187e+01
1.224740e+02	-1.949992e+01
1.231814e+02	-1.954914e+01
1.238929e+02	-1.959908e+01
1.246085e+02	-1.964854e+01
1.253283e+02	-1.969767e+01
1.260522e+02	-1.974716e+01
1.267802e+02	-1.979750e+01
1.275125e+02	-1.984628e+01
1.282490e+02	-1.989554e+01
1.289898e+02	-1.994496e+01
1.297348e+02	-1.999297e+01
1.304842e+02	-2.004394e+01
1.312378e+02	-2.009503e+01
1.319959e+02	-2.014393e+01
1.327583e+02	-2.019399e+01
1.335251e+02	-2.024335e+01
1.342963e+02	-2.029367e+01
1.350720e+02	-2.034297e+01
1.358522e+02	-2.039112e+01
1.366368e+02	-2.044102e+01
1.374260e+02	-2.049026e+01
1.382198e+02	-2.054064e+01
1.390182e+02	-2.059022e+01
1.398211e+02	-2.063848e+01
1.406287e+02	-2.068999e+01
1.414410e+02	-2.073983e+01
1.422579e+02	-2.078853e+01
1.430796e+02	-2.083941e+01
1.439060e+02	-2.088871e+01
1.447372e+02	-2.093729e+01
1.455732e+02	-2.098587e+01
1.464141e+02	-2.103637e+01
1.472597e+02	-2.108617e+01
1.481103e+02	-2.113574e+01
1.489658e+02	-2.118485e+01
1.498262e+02	-2.123599e+01
1.506916e+02	-2.128523e+01
1.515620e+02	-2.133382e+01
1.524374e+02	-2.138547e+01
1.533179e+02	-2.143342e+01
1.542034e+02	-2.148365e+01
1.550941e+02	-2.153376e+01
1.559899e+02	-2.158480e+01
1.568909e+02	-2.163443e+01
1.577971e+02	-2.168116e+01
1.587085e+02	-2.173134e+01
1.596252e+02	-2.178071e+01
1.605472e+02	-2.182968e+01
1.614745e+02	-2.188056e+01
1.624072e+02	-2.193069e+01
1.633453e+02	-2.198150e+01
1.642887e+02	-2.203023e+01
1.652377e+02	-2.207996e+01
1.661921e+02	-2.212911e+01
1.671520e+02	-2.217904e+01
1.681175e+02	-2.223012e+01
1.690885e+02	-2.227758e+01
1.700651e+02	-2.232835e+01
1.710474e+02	-2.237757e+01
1.720354e+02	-2.242827e+01
1.730291e+02	-2.247833e+01
1.740285e+02	-2.252798e+01
1.750337e+02	-2.257669e+01
1.760446e+02	-2.262925e+01
1.770615e+02	-2.267534e+01
1.780842e+02	-2.272815e+01
1.791128e+02	-2.277651e+01
1.801473e+02	-2.282706e+01
1.811878e+02	-2.287613e+01
1.822344e+02	-2.292499e+01
1.832870e+02	-2.297708e+01
1.843456e+02	-2.302388e+01
1.854104e+02	-2.307407e+01
1.864813e+02	-2.312426e+01
1.875584e+02	-2.317613e+01
1.886418e+02	-2.322385e+01
1.897313e+02	-2.327725e+01
1.908272e+02	-2.332380e+01
1.919294e+02	-2.337556e+01
1.930380e+02	-2.342131e+01
1.941530e+02	-2.347382e+01
1.952744e+02	-2.352507e+01
1.964023e+02	-2.357416e+01
1.975367e+02	-2.362534e+01
1.986777e+02	-2.367404e+01
1.998252e+02	-2.372257e+01
2.009794e+02	-2.377531e+01
2.021403e+02	-2.382148e+01
2.033078e+02	-2.387373e+01
2.044821e+02	-2.392428e+01
2.056632e+02	-2.396946e+01
2.068511e+02	-2.402347e+01
2.080459e+02	-2.407291e+01
2.092475e+02	-2.412377e+01
2.104561e+02	-2.417053e+01
2.116717e+02	-2.422187e+01
2.128943e+02	-2.427307e+01
2.141240e+02	-2.431773e+01
2.153608e+02	-2.437345e+01
2.166047e+02	-2.442008e+01
2.178558e+02	-2.447190e+01
2.191141e+02	-2.452405e+01
2.203797e+02	-2.457094e+01
2.216526e+02	-2.462086e+01
2.229329e+02	-2.467073e+01
2.242205e+02	-2.472220e+01
2.255156e+02	-2.476785e+01
2.268182e+02	-2.482346e+01
2.281283e+02	-2.487153e+01
2.294459e+02	-2.492167e+01
2.307712e+02	-2.496997e+01
2.321041e+02	-2.501809e+01
2.334447e+02	-2.507106e+01
2.347931e+02	-2.511814e+01
2.361493e+02	-2.516991e+01
2.375133e+02	-2.522131e+01
2.388851e+02	-2.526947e+01
2.402649e+02	-2.531741e+01
2.416527e+02	-2.536703e+01
2.430484e+02	-2.541878e+01
2.444523e+02	-2.547032e+01
2.458642e+02	-2.551765e+01
2.472843e+02	-2.557374e+01
2.487126e+02	-2.561581e+01
2.501492e+02	-2.566642e+01
2.515940e+02	-2.572093e+01
2.530472e+02	-2.576833e+01
2.545088e+02	-2.581832e+01
2.559789e+02	-2.586941e+01
2.574574e+02	-2.591913e+01
2.589444e+02	-2.596723e+01
2.604401e+02	-2.601973e+01
2.619444e+02	-2.606771e+01
2.634574e+02	-2.612099e+01
2.649791e+02	-2.616425e+01
2.665096e+02	-2.621782e+01
2.680489e+02	-2.626739e+01
2.695972e+02	-2.631399e+01
2.711544e+02	-2.636341e+01
2.727205e+02	-2.642021e+01
2.742958e+02	-2.646935e+01
2.758801e+02	-2.651766e+01
2.774736e+02	-2.657191e+01
2.790762e+02	-2.661757e+01
2.806882e+02	-2.666940e+01
2.823094e+02	-2.671788e+01
2.839400e+02	-2.676336e+01
2.855800e+02	-2.681657e+01
2.872295e+02	-2.686912e+01
2.888886e+02	-2.691904e+01
2.905572e+02	-2.696912e+01
2.922354e+02	-2.702017e+01
2.939234e+02	-2.706522e+01
2.956211e+02	-2.711835e+01
2.973286e+02	-2.716795e+01
2.990459e+02	-2.721723e+01
3.007732e+02	-2.726667e+01
3.025104e+02	-2.732285e+01
3.042577e+02	-2.736608e+01
3.060151e+02	-2.741677e+01
3.077826e+02	-2.746654e+01
3.095604e+02	-2.751763e+01
3.113484e+02	-2.756758e+01
3.131467e+02	-2.762161e+01
3.149554e+02	-2.766788e+01
3.167746e+02	-2.771927e+01
3.186043e+02	-2.776645e+01
3.204445e+02	-2.781804e+01
3.222954e+02	-2.786866e+01
3.241570e+02	-2.791708e+01
3.260293e+02	-2.797135e+01
3.279124e+02	-2.801856e+01
3.298064e+02	-2.806411e+01
3.317114e+02	-2.811764e+01
3.336273e+02	-2.816669e+01
3.355544e+02	-2.821751e+01
3.374925e+02	-2.827143e+01
3.394418e+02	-2.832462e+01
3.414024e+02	-2.836858e+01
3.433744e+02	-2.841864e+01
3.453577e+02	-2.847166e+01
3.473525e+02	-2.852278e+01
3.493588e+02	-2.856789e+01
3.513766e+02	-2.861750e+01
3.534062e+02	-2.866823e+01
3.554474e+02	-2.871743e+01
3.575005e+02	-2.877231e+01
3.595654e+02	-2.882006e+01
3.616422e+02	-2.886578e+01
3.637311e+02	-2.892269e+01
3.658320e+02	-2.896935e+01
3.679450e+02	-2.901580e+01
3.700702e+02	-2.906921e+01
3.722077e+02	-2.912140e+01
3.743576e+02	-2.916938e+01
3.765199e+02	-2.922019e+01
3.786946e+02	-2.926884e+01
3.808820e+02	-2.931863e+01
3.830819e+02	-2.936678e+01
3.852946e+02	-2.941914e+01
3.875200e+02	-2.946980e+01
3.897583e+02	-2.952219e+01
3.920096e+02	-2.956872e+01
3.942738e+02	-2.961567e+01
3.965511e+02	-2.966976e+01
3.988416e+02	-2.971896e+01
4.011452e+02	-2.976378e+01
4.034622e+02	-2.981802e+01
4.057926e+02	-2.986674e+01
4.081365e+02	-2.991770e+01
4.104938e+02	-2.997431e+01
4.128648e+02	-3.002390e+01
4.152495e+02	-3.007381e+01
4.176480e+02	-3.011742e+01
4.200603e+02	-3.017012e+01
4.224866e+02	-3.021647e+01
4.249268e+02	-3.027663e+01
4.273812e+02	-3.032209e+01
4.298497e+02	-3.036663e+01
4.323325e+02	-3.041927e+01
4.348297e+02	-3.047391e+01
4.373412e+02	-3.052773e+01
4.398673e+02	-3.057026e+01
4.424079e+02	-3.062046e+01
4.449633e+02	-3.066943e+01
4.475334e+02	-3.072067e+01
4.501183e+02	-3.077444e+01
4.527182e+02	-3.082573e+01
4.553330e+02	-3.087161e+01
4.579630e+02	-3.092698e+01
4.606082e+02	-3.097532e+01
4.632687e+02	-3.101798e+01
4.659445e+02	-3.107887e+01
4.686358e+02	-3.111550e+01
4.713426e+02	-3.117343e+01
4.740650e+02	-3.122353e+01
4.768032e+02	-3.127289e+01
4.795572e+02	-3.132409e+01
4.823271e+02	-3.137689e+01
4.851130e+02	-3.142343e+01
4.879150e+02	-3.147221e+01
4.907332e+02	-3.152504e+01
4.935676e+02	-3.157150e+01
4.964185e+02	-3.162296e+01
4.992858e+02	-3.167936e+01
5.021696e+02	-3.171694e+01
5.050701e+02	-3.177834e+01
5.079874e+02	-3.182443e+01
5.109215e+02	-3.187216e+01
5.138726e+02	-3.192773e+01
5.168407e+02	-3.197712e+01
5.198259e+02	-3.202569e+01
5.228284e+02	-3.207796e+01
5.258482e+02	-3.212767e+01
5.288855e+02	-3.217334e+01
5.319403e+02	-3.223050e+01
5.350128e+02	-3.227469e+01
5.381030e+02	-3.232866e+01
5.412111e+02	-3.237513e+01
5.443371e+02	-3.242192e+01
5.474812e+02	-3.247076e+01
5.506434e+02	-3.252420e+01
5.538239e+02	-3.257915e+01
5.570228e+02	-3.262786e+01
5.602401e+02	-3.267515e+01
5.634760e+02	-3.272976e+01
5.667306e+02	-3.278638e+01
5.700040e+02	-3.283772e+01
5.732964e+02	-3.287902e+01
5.766077e+02	-3.293587e+01
5.799382e+02	-3.297503e+01
5.832879e+02	-3.302612e+01
5.866569e+02	-3.308607e+01
5.900454e+02	-3.313530e+01
5.934535e+02	-3.318436e+01
5.968813e+02	-3.322901e+01
6.003288e+02	-3.328626e+01
6.037963e+02	-3.333053e+01
6.072838e+02	-3.338854e+01
6.107914e+02	-3.343337e+01
6.143194e+02	-3.348190e+01
6.178676e+02	-3.353217e+01
6.214364e+02	-3.357621e+01
6.250258e+02	-3.363325e+01
6.286359e+02	-3.368232e+01
6.322669e+02	-3.374185e+01
6.359189e+02	-3.378195e+01
6.395919e+02	-3.383652e+01
6.432862e+02	-3.388651e+01
6.470017e+02	-3.393480e+01
6.507388e+02	-3.398420e+01
6.544974e+02	-3.402855e+01
6.582778e+02	-3.409277e+01
6.620800e+02	-3.414334e+01
6.659041e+02	-3.418415e+01
6.697504e+02	-3.423287e+01
6.736188e+02	-3.428867e+01
6.775096e+02	-3.434011e+01
6.814229e+02	-3.438661e+01
6.853587e+02	-3.443635e+01
6.893173e+02	-3.449091e+01
6.932988e+02	-3.453854e+01
6.973033e+02	-3.458812e+01
7.013309e+02	-3.464003e+01
