Frequency(Hz)	Magnitude(dB)
1.000000e+01	-2.325610e+00
1.005776e+01	-2.346479e+00
1.011585e+01	-2.367196e+00
1.017428e+01	-2.388418e+00
1.023305e+01	-2.409740e+00
1.029215e+01	-2.431266e+00
1.035160e+01	-2.452522e+00
1.041139e+01	-2.474237e+00
1.047153e+01	-2.496246e+00
1.053201e+01	-2.518175e+00
1.059284e+01	-2.540093e+00
1.065403e+01	-2.562329e+00
1.071556e+01	-2.584645e+00
1.077746e+01	-2.606999e+00
1.083971e+01	-2.629757e+00
1.090232e+01	-2.652531e+00
1.096529e+01	-2.675625e+00
1.102862e+01	-2.698547e+00
1.109232e+01	-2.721932e+00
1.115639e+01	-2.745133e+00
1.122083e+01	-2.768537e+00
1.128564e+01	-2.792411e+00
1.135083e+01	-2.816195e+00
1.141639e+01	-2.840114e+00
1.148233e+01	-2.864430e+00
1.154865e+01	-2.888437e+00
1.161536e+01	-2.912852e+00
1.168245e+01	-2.937513e+00
1.174992e+01	-2.962086e+00
1.181779e+01	-2.986788e+00
1.188605e+01	-3.011502e+00
1.195470e+01	-3.037084e+00
1.202375e+01	-3.061978e+00
1.209320e+01	-3.087504e+00
1.216305e+01	-3.113211e+00
1.223330e+01	-3.138640e+00
1.230396e+01	-3.164490e+00
1.237503e+01	-3.190534e+00
1.244651e+01	-3.216588e+00
1.251840e+01	-3.242847e+00
1.259070e+01	-3.269087e+00
1.266343e+01	-3.295605e+00
1.273657e+01	-3.322345e+00
1.281014e+01	-3.349155e+00
1.288413e+01	-3.376014e+00
1.295855e+01	-3.403401e+00
1.303339e+01	-3.430593e+00
1.310867e+01	-3.457704e+00
1.318439e+01	-3.485483e+00
1.326054e+01	-3.512888e+00
1.333713e+01	-3.540725e+00
1.341417e+01	-3.568924e+00
1.349165e+01	-3.596687e+00
1.356958e+01	-3.625258e+00
1.364795e+01	-3.653665e+00
1.372678e+01	-3.682219e+00
1.380607e+01	-3.710939e+00
1.388581e+01	-3.739561e+00
1.396602e+01	-3.768494e+00
1.404668e+01	-3.798042e+00
1.412782e+01	-3.826754e+00
1.420942e+01	-3.856465e+00
1.429149e+01	-3.885965e+00
1.437404e+01	-3.915299e+00
1.445706e+01	-3.945253e+00
1.454057e+01	-3.975184e+00
1.462455e+01	-4.005256e+00
1.470902e+01	-4.035544e+00
1.479398e+01	-4.065493e+00
1.487943e+01	-4.095996e+00
1.496537e+01	-4.126679e+00
1.505181e+01	-4.157508e+00
1.513875e+01	-4.188356e+00
1.522619e+01	-4.219581e+00
1.531414e+01	-4.250799e+00
1.540259e+01	-4.282149e+00
1.549156e+01	-4.313116e+00
1.558103e+01	-4.344861e+00
1.567103e+01	-4.376543e+00
1.576155e+01	-4.408465e+00
1.585258e+01	-4.440217e+00
1.594415e+01	-4.472567e+00
1.603624e+01	-4.504708e+00
1.612886e+01	-4.537076e+00
1.622202e+01	-4.569695e+00
1.631572e+01	-4.602389e+00
1.640996e+01	-4.634946e+00
1.650474e+01	-4.667916e+00
1.660008e+01	-4.700611e+00
1.669596e+01	-4.734081e+00
1.679239e+01	-4.767624e+00
1.688938e+01	-4.800648e+00
1.698694e+01	-4.834516e+00
1.708505e+01	-4.867892e+00
1.718373e+01	-4.901399e+00
1.728299e+01	-4.935380e+00
1.738281e+01	-4.969981e+00
1.748322e+01	-5.003888e+00
1.758420e+01	-5.038170e+00
1.768576e+01	-5.072266e+00
1.778792e+01	-5.107077e+00
1.789066e+01	-5.141603e+00
1.799399e+01	-5.176317e+00
1.809793e+01	-5.211298e+00
1.820246e+01	-5.246187e+00
1.830760e+01	-5.281626e+00
1.841334e+01	-5.316549e+00
1.851969e+01	-5.352137e+00
1.862666e+01	-5.388029e+00
1.873425e+01	-5.423033e+00
1.884246e+01	-5.459076e+00
1.895129e+01	-5.494988e+00
1.906075e+01	-5.530530e+00
1.917085e+01	-5.567002e+00
1.928158e+01	-5.603022e+00
1.939295e+01	-5.639237e+00
1.950496e+01	-5.675842e+00
1.961762e+01	-5.712376e+00
1.973093e+01	-5.748937e+00
1.984490e+01	-5.785430e+00
1.995952e+01	-5.822686e+00
2.007480e+01	-5.859533e+00
2.019076e+01	-5.896449e+00
2.030738e+01	-5.934054e+00
2.042467e+01	-5.971323e+00
2.054264e+01	-6.008691e+00
2.066130e+01	-6.046122e+00
2.078064e+01	-6.083956e+00
2.090066e+01	-6.121399e+00
2.102139e+01	-6.159338e+00
2.114280e+01	-6.197413e+00
2.126492e+01	-6.235496e+00
2.138775e+01	-6.273464e+00
2.151128e+01	-6.311828e+00
2.163553e+01	-6.350189e+00
2.176050e+01	-6.388895e+00
2.188619e+01	-6.427252e+00
2.201260e+01	-6.466147e+00
2.213974e+01	-6.505027e+00
2.226762e+01	-6.543967e+00
2.239624e+01	-6.582777e+00
2.252560e+01	-6.621974e+00
2.265571e+01	-6.660939e+00
2.278656e+01	-6.700294e+00
2.291818e+01	-6.739192e+00
2.305055e+01	-6.779466e+00
2.318369e+01	-6.818771e+00
2.331760e+01	-6.858490e+00
2.345228e+01	-6.897786e+00
2.358774e+01	-6.937864e+00
2.372398e+01	-6.977824e+00
2.386101e+01	-7.017581e+00
2.399883e+01	-7.058230e+00
2.413745e+01	-7.098385e+00
2.427686e+01	-7.138690e+00
2.441709e+01	-7.178994e+00
2.455812e+01	-7.219586e+00
2.469997e+01	-7.260416e+00
2.484263e+01	-7.300925e+00
2.498612e+01	-7.341551e+00
2.513044e+01	-7.382113e+00
2.527559e+01	-7.423223e+00
2.542158e+01	-7.464552e+00
2.556842e+01	-7.505587e+00
2.571610e+01	-7.546513e+00
2.586463e+01	-7.587701e+00
2.601403e+01	-7.629083e+00
2.616428e+01	-7.670763e+00
2.631541e+01	-7.712059e+00
2.646740e+01	-7.753988e+00
2.662028e+01	-7.795642e+00
2.677404e+01	-7.837153e+00
2.692868e+01	-7.879177e+00
2.708422e+01	-7.921047e+00
2.724066e+01	-7.962545e+00
2.739800e+01	-8.005039e+00
2.755625e+01	-8.047581e+00
2.771541e+01	-8.089297e+00
2.787550e+01	-8.131530e+00
2.803650e+01	-8.174007e+00
2.819844e+01	-8.216119e+00
2.836131e+01	-8.259123e+00
2.852513e+01	-8.301425e+00
2.868989e+01	-8.343911e+00
2.885560e+01	-8.387118e+00
2.902227e+01	-8.429376e+00
2.918990e+01	-8.472785e+00
2.935850e+01	-8.515726e+00
2.952807e+01	-8.558813e+00
2.969863e+01	-8.601880e+00
2.987016e+01	-8.644624e+00
3.004269e+01	-8.688114e+00
3.021622e+01	-8.731391e+00
3.039075e+01	-8.775106e+00
3.056628e+01	-8.818703e+00
3.074283e+01	-8.861770e+00
3.092040e+01	-8.905280e+00
3.109900e+01	-8.948990e+00
3.127862e+01	-8.992480e+00
3.145929e+01	-9.035818e+00
3.164099e+01	-9.080488e+00
3.182375e+01	-9.123937e+00
3.200756e+01	-9.167810e+00
3.219244e+01	-9.212443e+00
3.237838e+01	-9.256410e+00
3.256540e+01	-9.299884e+00
3.275349e+01	-9.344607e+00
3.294268e+01	-9.388337e+00
3.313295e+01	-9.432900e+00
3.332433e+01	-9.477210e+00
3.351681e+01	-9.521623e+00
3.371040e+01	-9.565940e+00
3.390511e+01	-9.610224e+00
3.410094e+01	-9.655300e+00
3.429791e+01	-9.699771e+00
3.449601e+01	-9.744272e+00
3.469526e+01	-9.789105e+00
3.489566e+01	-9.834342e+00
3.509721e+01	-9.879017e+00
3.529993e+01	-9.924101e+00
3.550382e+01	-9.969687e+00
3.570889e+01	-1.001339e+01
3.591515e+01	-1.005871e+01
3.612259e+01	-1.010402e+01
3.633123e+01	-1.014939e+01
3.654108e+01	-1.019375e+01
3.675214e+01	-1.023946e+01
3.696442e+01	-1.028438e+01
3.717792e+01	-1.033000e+01
3.739266e+01	-1.037601e+01
3.760864e+01	-1.042137e+01
3.782587e+01	-1.046635e+01
3.804435e+01	-1.051251e+01
3.826409e+01	-1.055766e+01
3.848510e+01	-1.060377e+01
3.870739e+01	-1.064909e+01
3.893096e+01	-1.069509e+01
3.915583e+01	-1.074079e+01
3.938199e+01	-1.078619e+01
3.960946e+01	-1.083205e+01
3.983824e+01	-1.087832e+01
4.006834e+01	-1.092483e+01
4.029978e+01	-1.097104e+01
4.053255e+01	-1.101640e+01
4.076666e+01	-1.106243e+01
4.100213e+01	-1.110801e+01
4.123896e+01	-1.115434e+01
4.147715e+01	-1.120057e+01
4.171672e+01	-1.124704e+01
4.195767e+01	-1.129316e+01
4.220002e+01	-1.133929e+01
4.244377e+01	-1.138624e+01
4.268892e+01	-1.143280e+01
4.293549e+01	-1.147914e+01
4.318348e+01	-1.152554e+01
4.343291e+01	-1.157181e+01
4.368377e+01	-1.161839e+01
4.393609e+01	-1.166494e+01
4.418986e+01	-1.171216e+01
4.444510e+01	-1.175843e+01
4.470182e+01	-1.180555e+01
4.496001e+01	-1.185227e+01
4.521970e+01	-1.189886e+01
4.548089e+01	-1.194438e+01
4.574358e+01	-1.199267e+01
4.600779e+01	-1.203912e+01
4.627353e+01	-1.208628e+01
4.654081e+01	-1.213303e+01
4.680963e+01	-1.218010e+01
4.708000e+01	-1.222658e+01
4.735193e+01	-1.227470e+01
4.762543e+01	-1.232098e+01
4.790051e+01	-1.236851e+01
4.817719e+01	-1.241570e+01
4.845545e+01	-1.246262e+01
4.873533e+01	-1.251051e+01
4.901682e+01	-1.255650e+01
4.929994e+01	-1.260459e+01
4.958470e+01	-1.265211e+01
4.987110e+01	-1.269825e+01
5.015915e+01	-1.274570e+01
5.044887e+01	-1.279359e+01
5.074026e+01	-1.284118e+01
5.103333e+01	-1.288867e+01
5.132810e+01	-1.293620e+01
5.162457e+01	-1.298445e+01
5.192275e+01	-1.303102e+01
5.222265e+01	-1.307880e+01
5.252429e+01	-1.312622e+01
5.282767e+01	-1.317397e+01
5.313280e+01	-1.322092e+01
5.343969e+01	-1.326954e+01
5.374836e+01	-1.331641e+01
5.405880e+01	-1.336432e+01
5.437105e+01	-1.341182e+01
5.468509e+01	-1.346007e+01
5.500095e+01	-1.350689e+01
5.531863e+01	-1.355547e+01
5.563815e+01	-1.360300e+01
5.595951e+01	-1.365136e+01
5.628273e+01	-1.369901e+01
5.660782e+01	-1.374677e+01
5.693479e+01	-1.379522e+01
5.726364e+01	-1.384308e+01
5.759439e+01	-1.389075e+01
5.792705e+01	-1.393924e+01
5.826164e+01	-1.398684e+01
5.859815e+01	-1.403540e+01
5.893662e+01	-1.408313e+01
5.927703e+01	-1.413092e+01
5.961941e+01	-1.417991e+01
5.996377e+01	-1.422804e+01
6.031012e+01	-1.427608e+01
6.065847e+01	-1.432421e+01
6.100883e+01	-1.437213e+01
6.136121e+01	-1.442025e+01
6.171563e+01	-1.446828e+01
6.207210e+01	-1.451697e+01
6.243063e+01	-1.456493e+01
6.279122e+01	-1.461349e+01
6.315390e+01	-1.466181e+01
6.351868e+01	-1.470992e+01
6.388556e+01	-1.475827e+01
6.425456e+01	-1.480668e+01
6.462569e+01	-1.485619e+01
6.499897e+01	-1.490385e+01
6.537440e+01	-1.495176e+01
6.575200e+01	-1.500026e+01
6.613178e+01	-1.504961e+01
6.651375e+01	-1.509664e+01
6.689793e+01	-1.514547e+01
6.728433e+01	-1.519527e+01
6.767297e+01	-1.524253e+01
6.806384e+01	-1.529204e+01
6.845698e+01	-1.533960e+01
6.885238e+01	-1.538865e+01
6.925007e+01	-1.543656e+01
6.965005e+01	-1.548589e+01
7.005235e+01	-1.553405e+01
7.045697e+01	-1.558321e+01
7.086393e+01	-1.563088e+01
7.127323e+01	-1.567944e+01
7.168490e+01	-1.572923e+01
7.209895e+01	-1.577790e+01
7.251539e+01	-1.582605e+01
7.293424e+01	-1.587465e+01
7.335551e+01	-1.592318e+01
7.377920e+01	-1.597211e+01
7.420535e+01	-1.602227e+01
7.463396e+01	-1.606980e+01
7.506504e+01	-1.611913e+01
7.549861e+01	-1.616826e+01
7.593469e+01	-1.621655e+01
7.637328e+01	-1.626471e+01
7.681441e+01	-1.631384e+01
7.725809e+01	-1.636312e+01
7.770433e+01	-1.641194e+01
7.815315e+01	-1.646060e+01
7.860456e+01	-1.650811e+01
7.905857e+01	-1.655898e+01
7.951521e+01	-1.660831e+01
7.997449e+01	-1.665544e+01
8.043642e+01	-1.670397e+01
8.090102e+01	-1.675377e+01
8.136830e+01	-1.680398e+01
8.183828e+01	-1.685261e+01
8.231097e+01	-1.690207e+01
8.278640e+01	-1.694979e+01
8.326457e+01	-1.699996e+01
8.374550e+01	-1.704879e+01
8.422921e+01	-1.709783e+01
8.471572e+01	-1.714614e+01
8.520503e+01	-1.719572e+01
8.569717e+01	-1.724363e+01
8.619215e+01	-1.729431e+01
8.669000e+01	-1.734357e+01
8.719071e+01	-1.739164e+01
8.769432e+01	-1.744093e+01
8.820084e+01	-1.748978e+01
8.871029e+01	-1.753976e+01
8.922267e+01	-1.758839e+01
8.973802e+01	-1.763634e+01
9.025634e+01	-1.768689e+01
9.077766e+01	-1.773570e+01
9.130199e+01	-1.778500e+01
9.182935e+01	-1.783538e+01
9.235975e+01	-1.788402e+01
9.289321e+01	-1.793268e+01
9.342976e+01	-1.798139e+01
9.396941e+01	-1.803150e+01
9.451217e+01	-1.808101e+01
9.505807e+01	-1.812998e+01
9.560712e+01	-1.817973e+01
9.615934e+01	-1.822879e+01
9.671476e+01	-1.827792e+01
9.727338e+01	-1.832748e+01
9.783522e+01	-1.837628e+01
9.840032e+01	-1.842574e+01
9.896867e+01	-1.847618e+01
9.954031e+01	-1.852493e+01
1.001153e+02	-1.857260e+01
1.006935e+02	-1.862244e+01
1.012751e+02	-1.867186e+01
1.018601e+02	-1.872150e+01
1.024484e+02	-1.877120e+01
1.030402e+02	-1.882019e+01
1.036353e+02	-1.886914e+01
1.042339e+02	-1.891908e+01
1.048360e+02	-1.896866e+01
1.054415e+02	-1.901810e+01
1.060505e+02	-1.906670e+01
1.066631e+02	-1.911783e+01
1.072791e+02	-1.916427e+01
1.078988e+02	-1.921533e+01
1.085220e+02	-1.926499e+01
1.091488e+02	-1.931415e+01
1.097793e+02	-1.936500e+01
1.104133e+02	-1.941564e+01
1.110511e+02	-1.946202e+01
1.116925e+02	-1.951239e+01
1.123376e+02	-1.956082e+01
1.129865e+02	-1.961037e+01
1.136391e+02	-1.966155e+01
1.142955e+02	-1.970958e+01
1.149556e+02	-1.976111e+01
1.156196e+02	-1.980872e+01
1.162874e+02	-1.986034e+01
1.169591e+02	-1.990838e+01
1.176347e+02	-1.995775e+01
1.183141e+02	-2.000777e+01
1.189975e+02	-2.005596e+01
1.196848e+02	-2.010725e+01
1.203761e+02	-2.015493e+01
1.210714e+02	-2.020572e+01
1.217707e+02	-2.025412e+01
1.224740e+02	-2.030477e+01
1.231814e+02	-2.035467e+01
1.238929e+02	-2.040424e+01
1.246085e+02	-2.045226e+01
1.253283e+02	-2.050344e+01
1.260522e+02	-2.055210e+01
1.267802e+02	-2.060296e+01
1.275125e+02	-2.065167e+01
1.282490e+02	-2.070375e+01
1.289898e+02	-2.075016e+01
1.297348e+02	-2.080023e+01
1.304842e+02	-2.085049e+01
1.312378e+02	-2.089996e+01
1.319959e+02	-2.094933e+01
1.327583e+02	-2.099996e+01
1.335251e+02	-2.104756e+01
1.342963e+02	-2.109803e+01
1.350720e+02	-2.114752e+01
1.358522e+02	-2.119850e+01
1.366368e+02	-2.124844e+01
1.374260e+02	-2.129754e+01
1.382198e+02	-2.134529e+01
1.390182e+02	-2.139622e+01
1.398211e+02	-2.144663e+01
1.406287e+02	-2.149476e+01
1.414410e+02	-2.154644e+01
1.422579e+02	-2.159585e+01
1.430796e+02	-2.164552e+01
1.439060e+02	-2.169513e+01
1.447372e+02	-2.174397e+01
1.455732e+02	-2.179379e+01
1.464141e+02	-2.184390e+01
1.472597e+02	-2.189394e+01
1.481103e+02	-2.194230e+01
1.489658e+02	-2.199156e+01
1.498262e+02	-2.204526e+01
1.506916e+02	-2.209282e+01
1.515620e+02	-2.214344e+01
1.524374e+02	-2.219178e+01
1.533179e+02	-2.224009e+01
1.542034e+02	-2.229220e+01
1.550941e+02	-2.234228e+01
1.559899e+02	-2.239347e+01
1.568909e+02	-2.243892e+01
1.577971e+02	-2.249001e+01
1.587085e+02	-2.254029e+01
1.596252e+02	-2.258997e+01
1.605472e+02	-2.264092e+01
1.614745e+02	-2.268982e+01
1.624072e+02	-2.273843e+01
1.633453e+02	-2.278750e+01
1.642887e+02	-2.283975e+01
1.652377e+02	-2.288930e+01
1.661921e+02	-2.293652e+01
1.671520e+02	-2.298902e+01
1.681175e+02	-2.303836e+01
1.690885e+02	-2.308693e+01
1.700651e+02	-2.313771e+01
1.710474e+02	-2.318776e+01
1.720354e+02	-2.323767e+01
1.730291e+02	-2.328862e+01
1.740285e+02	-2.333646e+01
1.750337e+02	-2.338768e+01
1.760446e+02	-2.343477e+01
1.770615e+02	-2.348615e+01
1.780842e+02	-2.353611e+01
1.791128e+02	-2.358650e+01
1.801473e+02	-2.363313e+01
1.811878e+02	-2.368582e+01
1.822344e+02	-2.373373e+01
1.832870e+02	-2.378560e+01
1.843456e+02	-2.383497e+01
1.854104e+02	-2.388211e+01
1.864813e+02	-2.393381e+01
1.875584e+02	-2.398132e+01
1.886418e+02	-2.403461e+01
1.897313e+02	-2.408740e+01
1.908272e+02	-2.413368e+01
1.919294e+02	-2.418324e+01
1.930380e+02	-2.423173e+01
1.941530e+02	-2.428309e+01
1.952744e+02	-2.433751e+01
1.964023e+02	-2.438342e+01
1.975367e+02	-2.443081e+01
1.986777e+02	-2.448162e+01
1.998252e+02	-2.453435e+01
2.009794e+02	-2.458343e+01
2.021403e+02	-2.463294e+01
2.033078e+02	-2.468307e+01
2.044821e+02	-2.473315e+01
2.056632e+02	-2.478220e+01
2.068511e+02	-2.483002e+01
2.080459e+02	-2.488609e+01
2.092475e+02	-2.493150e+01
2.104561e+02	-2.498180e+01
2.116717e+02	-2.503033e+01
2.128943e+02	-2.508329e+01
2.141240e+02	-2.512956e+01
2.153608e+02	-2.518164e+01
2.166047e+02	-2.523096e+01
2.178558e+02	-2.528093e+01
2.191141e+02	-2.533255e+01
2.203797e+02	-2.538116e+01
2.216526e+02	-2.543176e+01
2.229329e+02	-2.547946e+01
2.242205e+02	-2.553193e+01
2.255156e+02	-2.557978e+01
2.268182e+02	-2.562892e+01
2.281283e+02	-2.568114e+01
2.294459e+02	-2.573149e+01
2.307712e+02	-2.578057e+01
2.321041e+02	-2.583106e+01
2.334447e+02	-2.588248e+01
2.347931e+02	-2.592803e+01
2.361493e+02	-2.598085e+01
2.375133e+02	-2.602910e+01
2.388851e+02	-2.607781e+01
2.402649e+02	-2.613174e+01
2.416527e+02	-2.618245e+01
2.430484e+02	-2.623265e+01
2.444523e+02	-2.627787e+01
2.458642e+02	-2.633449e+01
2.472843e+02	-2.637956e+01
2.487126e+02	-2.642959e+01
2.501492e+02	-2.647916e+01
2.515940e+02	-2.653102e+01
2.530472e+02	-2.658076e+01
2.545088e+02	-2.662902e+01
2.559789e+02	-2.667974e+01
2.574574e+02	-2.673251e+01
2.589444e+02	-2.678122e+01
2.604401e+02	-2.683185e+01
2.619444e+02	-2.688113e+01
2.634574e+02	-2.692646e+01
2.649791e+02	-2.698167e+01
2.665096e+02	-2.702801e+01
2.680489e+02	-2.707789e+01
2.695972e+02	-2.712788e+01
2.711544e+02	-2.718137e+01
2.727205e+02	-2.722765e+01
2.742958e+02	-2.727673e+01
2.758801e+02	-2.732953e+01
2.774736e+02	-2.737749e+01
2.790762e+02	-2.742992e+01
2.806882e+02	-2.748073e+01
2.823094e+02	-2.752711e+01
2.839400e+02	-2.758108e+01
2.855800e+02	-2.763061e+01
2.872295e+02	-2.767958e+01
2.888886e+02	-2.773002e+01
2.905572e+02	-2.777738e+01
2.922354e+02	-2.782982e+01
2.939234e+02	-2.788082e+01
2.956211e+02	-2.792934e+01
2.973286e+02	-2.797943e+01
2.990459e+02	-2.803350e+01
3.007732e+02	-2.808095e+01
3.025104e+02	-2.812832e+01
3.042577e+02	-2.817934e+01
3.060151e+02	-2.822962e+01
3.077826e+02	-2.827513e+01
3.095604e+02	-2.833079e+01
3.113484e+02	-2.837857e+01
3.131467e+02	-2.842806e+01
3.149554e+02	-2.847772e+01
3.167746e+02	-2.853176e+01
3.186043e+02	-2.858223e+01
3.204445e+02	-2.862845e+01
3.222954e+02	-2.867812e+01
3.241570e+02	-2.872940e+01
3.260293e+02	-2.878050e+01
3.279124e+02	-2.883025e+01
3.298064e+02	-2.887908e+01
3.317114e+02	-2.892835e+01
3.336273e+02	-2.897743e+01
3.355544e+02	-2.903196e+01
3.374925e+02	-2.907922e+01
3.394418e+02	-2.913370e+01
3.414024e+02	-2.918225e+01
3.433744e+02	-2.922978e+01
3.453577e+02	-2.928150e+01
3.473525e+02	-2.932941e+01
3.493588e+02	-2.937711e+01
3.513766e+02	-2.943045e+01
3.534062e+02	-2.947986e+01
3.554474e+02	-2.953500e+01
3.575005e+02	-2.957976e+01
3.595654e+02	-2.963430e+01
3.616422e+02	-2.968136e+01
3.637311e+02	-2.973144e+01
3.658320e+02	-2.978010e+01
3.679450e+02	-2.983103e+01
3.700702e+02	-2.988228e+01
3.722077e+02	-2.993507e+01
3.743576e+02	-2.998410e+01
3.765199e+02	-3.003128e+01
3.786946e+02	-3.008456e+01
3.808820e+02	-3.012685e+01
3.830819e+02	-3.018048e+01
3.852946e+02	-3.023269e+01
3.875200e+02	-3.028533e+01
3.897583e+02	-3.033619e+01
3.920096e+02	-3.037898e+01
3.942738e+02	-3.043229e+01
3.965511e+02	-3.048528e+01
3.988416e+02	-3.053165e+01
4.011452e+02	-3.058367e+01
4.034622e+02	-3.063570e+01
4.057926e+02	-3.068603e+01
4.081365e+02	-3.073460e+01
4.104938e+02	-3.077579e+01
4.128648e+02	-3.083329e+01
4.152495e+02	-3.088048e+01
4.176480e+02	-3.093032e+01
4.200603e+02	-3.098088e+01
4.224866e+02	-3.103079e+01
4.249268e+02	-3.108288e+01
4.273812e+02	-3.113600e+01
4.298497e+02	-3.118480e+01
4.323325e+02	-3.123432e+01
4.348297e+02	-3.128628e+01
4.373412e+02	-3.133503e+01
4.398673e+02	-3.138353e+01
4.424079e+02	-3.143427e+01
4.449633e+02	-3.148574e+01
4.475334e+02	-3.153600e+01
4.501183e+02	-3.158480e+01
4.527182e+02	-3.163915e+01
4.553330e+02	-3.169026e+01
4.579630e+02	-3.174516e+01
4.606082e+02	-3.178277e+01
4.632687e+02	-3.183399e+01
4.659445e+02	-3.189366e+01
4.686358e+02	-3.193621e+01
4.713426e+02	-3.198901e+01
4.740650e+02	-3.204047e+01
4.768032e+02	-3.208829e+01
4.795572e+02	-3.214049e+01
4.823271e+02	-3.219265e+01
4.851130e+02	-3.224355e+01
4.879150e+02	-3.229000e+01
4.907332e+02	-3.234190e+01
4.935676e+02	-3.238764e+01
4.964185e+02	-3.244056e+01
4.992858e+02	-3.248420e+01
5.021696e+02	-3.253798e+01
5.050701e+02	-3.259049e+01
5.079874e+02	-3.263728e+01
5.109215e+02	-3.269306e+01
5.138726e+02	-3.273497e+01
5.168407e+02	-3.278722e+01
5.198259e+02	-3.283392e+01
5.228284e+02	-3.288865e+01
5.258482e+02	-3.294628e+01
5.288855e+02	-3.298698e+01
5.319403e+02	-3.304392e+01
5.350128e+02	-3.309488e+01
5.381030e+02	-3.314741e+01
5.412111e+02	-3.319014e+01
5.443371e+02	-3.324378e+01
5.474812e+02	-3.328932e+01
5.506434e+02	-3.334034e+01
5.538239e+02	-3.339374e+01
5.570228e+02	-3.344093e+01
5.602401e+02	-3.349497e+01
5.634760e+02	-3.353277e+01
5.667306e+02	-3.359240e+01
5.700040e+02	-3.365147e+01
5.732964e+02	-3.369491e+01
5.766077e+02	-3.374784e+01
5.799382e+02	-3.380080e+01
5.832879e+02	-3.383760e+01
5.866569e+02	-3.389283e+01
5.900454e+02	-3.394183e+01
5.934535e+02	-3.399804e+01
5.968813e+02	-3.403935e+01
6.003288e+02	-3.409394e+01
6.037963e+02	-3.414907e+01
6.072838e+02	-3.419963e+01
6.107914e+02	-3.423942e+01
6.143194e+02	-3.430013e+01
6.178676e+02	-3.434879e+01
6.214364e+02	-3.440315e+01
6.250258e+02	-3.445243e+01
6.286359e+02	-3.450003e+01
6.322669e+02	-3.455299e+01
6.359189e+02	-3.461061e+01
6.395919e+02	-3.464741e+01
6.432862e+02	-3.469705e+01
6.470017e+02	-3.475580e+01
6.507388e+02	-3.480099e+01
6.544974e+02	-3.485532e+01
6.582778e+02	-3.489495e+01
6.620800e+02	-3.495184e+01
6.659041e+02	-3.499835e+01
6.697504e+02	-3.504425e+01
6.736188e+02	-3.510597e+01
6.775096e+02	-3.516090e+01
6.814229e+02	-3.520488e+01
6.853587e+02	-3.526070e+01
6.893173e+02	-3.530486e+01
6.932988e+02	-3.535470e+01
6.973033e+02	-3.540729e+01
7.013309e+02	-3.545852e+01
