Frequency(Hz)	Magnitude(dB)
1.000000e+01	-2.141622e+00
1.005776e+01	-2.161404e+00
1.011585e+01	-2.181138e+00
1.017428e+01	-2.201071e+00
1.023305e+01	-2.220840e+00
1.029215e+01	-2.240953e+00
1.035160e+01	-2.261284e+00
1.041139e+01	-2.281667e+00
1.047153e+01	-2.302220e+00
1.053201e+01	-2.322692e+00
1.059284e+01	-2.343646e+00
1.065403e+01	-2.364595e+00
1.071556e+01	-2.385532e+00
1.077746e+01	-2.406924e+00
1.083971e+01	-2.428110e+00
1.090232e+01	-2.449492e+00
1.096529e+01	-2.471212e+00
1.102862e+01	-2.492827e+00
1.109232e+01	-2.515050e+00
1.115639e+01	-2.536926e+00
1.122083e+01	-2.559214e+00
1.128564e+01	-2.581537e+00
1.135083e+01	-2.603945e+00
1.141639e+01	-2.626788e+00
1.148233e+01	-2.649480e+00
1.154865e+01	-2.672477e+00
1.161536e+01	-2.695276e+00
1.168245e+01	-2.718661e+00
1.174992e+01	-2.742036e+00
1.181779e+01	-2.765592e+00
1.188605e+01	-2.789148e+00
1.195470e+01	-2.813012e+00
1.202375e+01	-2.836610e+00
1.209320e+01	-2.860934e+00
1.216305e+01	-2.885116e+00
1.223330e+01	-2.909692e+00
1.230396e+01	-2.934013e+00
1.237503e+01	-2.958502e+00
1.244651e+01	-2.983443e+00
1.251840e+01	-3.008447e+00
1.259070e+01	-3.033350e+00
1.266343e+01	-3.058757e+00
1.273657e+01	-3.083804e+00
1.281014e+01	-3.109450e+00
1.288413e+01	-3.135204e+00
1.295855e+01	-3.160935e+00
1.303339e+01	-3.186855e+00
1.310867e+01	-3.212851e+00
1.318439e+01	-3.239111e+00
1.326054e+01	-3.265210e+00
1.333713e+01	-3.292136e+00
1.341417e+01	-3.318480e+00
1.349165e+01	-3.345616e+00
1.356958e+01	-3.372403e+00
1.364795e+01	-3.399399e+00
1.372678e+01	-3.426623e+00
1.380607e+01	-3.454121e+00
1.388581e+01	-3.481625e+00
1.396602e+01	-3.508937e+00
1.404668e+01	-3.536973e+00
1.412782e+01	-3.564971e+00
1.420942e+01	-3.593246e+00
1.429149e+01	-3.621390e+00
1.437404e+01	-3.649467e+00
1.445706e+01	-3.678087e+00
1.454057e+01	-3.706701e+00
1.462455e+01	-3.735520e+00
1.470902e+01	-3.764556e+00
1.479398e+01	-3.793598e+00
1.487943e+01	-3.822925e+00
1.496537e+01	-3.852090e+00
1.505181e+01	-3.881677e+00
1.513875e+01	-3.911359e+00
1.522619e+01	-3.941139e+00
1.531414e+01	-3.970847e+00
1.540259e+01	-4.001038e+00
1.549156e+01	-4.031220e+00
1.558103e+01	-4.061612e+00
1.567103e+01	-4.091924e+00
1.576155e+01	-4.122589e+00
1.585258e+01	-4.153323e+00
1.594415e+01	-4.184186e+00
1.603624e+01	-4.215029e+00
1.612886e+01	-4.246275e+00
1.622202e+01	-4.277691e+00
1.631572e+01	-4.309039e+00
1.640996e+01	-4.340407e+00
1.650474e+01	-4.372601e+00
1.660008e+01	-4.404158e+00
1.669596e+01	-4.436155e+00
1.679239e+01	-4.468128e+00
1.688938e+01	-4.500460e+00
1.698694e+01	-4.532697e+00
1.708505e+01	-4.565135e+00
1.718373e+01	-4.597673e+00
1.728299e+01	-4.630368e+00
1.738281e+01	-4.663419e+00
1.748322e+01	-4.696409e+00
1.758420e+01	-4.729424e+00
1.768576e+01	-4.762583e+00
1.778792e+01	-4.796317e+00
1.789066e+01	-4.829457e+00
1.799399e+01	-4.863389e+00
1.809793e+01	-4.896850e+00
1.820246e+01	-4.930677e+00
1.830760e+01	-4.964873e+00
1.841334e+01	-4.998934e+00
1.851969e+01	-5.033282e+00
1.862666e+01	-5.067515e+00
1.873425e+01	-5.102236e+00
1.884246e+01	-5.137038e+00
1.895129e+01	-5.171495e+00
1.906075e+01	-5.206620e+00
1.917085e+01	-5.241659e+00
1.928158e+01	-5.276374e+00
1.939295e+01	-5.311760e+00
1.950496e+01	-5.347158e+00
1.961762e+01	-5.382757e+00
1.973093e+01	-5.418284e+00
1.984490e+01	-5.453855e+00
1.995952e+01	-5.489918e+00
2.007480e+01	-5.525750e+00
2.019076e+01	-5.561777e+00
2.030738e+01	-5.598058e+00
2.042467e+01	-5.634330e+00
2.054264e+01	-5.670698e+00
2.066130e+01	-5.707094e+00
2.078064e+01	-5.743814e+00
2.090066e+01	-5.780479e+00
2.102139e+01	-5.817625e+00
2.114280e+01	-5.854167e+00
2.126492e+01	-5.891700e+00
2.138775e+01	-5.928668e+00
2.151128e+01	-5.965974e+00
2.163553e+01	-6.003317e+00
2.176050e+01	-6.041130e+00
2.188619e+01	-6.078461e+00
2.201260e+01	-6.116202e+00
2.213974e+01	-6.154525e+00
2.226762e+01	-6.192475e+00
2.239624e+01	-6.230236e+00
2.252560e+01	-6.268572e+00
2.265571e+01	-6.306705e+00
2.278656e+01	-6.345186e+00
2.291818e+01	-6.383117e+00
2.305055e+01	-6.422148e+00
2.318369e+01	-6.460769e+00
2.331760e+01	-6.499693e+00
2.345228e+01	-6.538382e+00
2.358774e+01	-6.578000e+00
2.372398e+01	-6.616450e+00
2.386101e+01	-6.655749e+00
2.399883e+01	-6.695071e+00
2.413745e+01	-6.734157e+00
2.427686e+01	-6.773781e+00
2.441709e+01	-6.813420e+00
2.455812e+01	-6.853198e+00
2.469997e+01	-6.893101e+00
2.484263e+01	-6.932874e+00
2.498612e+01	-6.972437e+00
2.513044e+01	-7.012362e+00
2.527559e+01	-7.052477e+00
2.542158e+01	-7.092840e+00
2.556842e+01	-7.133097e+00
2.571610e+01	-7.173296e+00
2.586463e+01	-7.214170e+00
2.601403e+01	-7.254392e+00
2.616428e+01	-7.294971e+00
2.631541e+01	-7.335733e+00
2.646740e+01	-7.376498e+00
2.662028e+01	-7.417449e+00
2.677404e+01	-7.458584e+00
2.692868e+01	-7.499989e+00
2.708422e+01	-7.541144e+00
2.724066e+01	-7.582048e+00
2.739800e+01	-7.623519e+00
2.755625e+01	-7.664988e+00
2.771541e+01	-7.705929e+00
2.787550e+01	-7.747872e+00
2.803650e+01	-7.789825e+00
2.819844e+01	-7.831238e+00
2.836131e+01	-7.873281e+00
2.852513e+01	-7.914717e+00
2.868989e+01	-7.957011e+00
2.885560e+01	-7.999347e+00
2.902227e+01	-8.041547e+00
2.918990e+01	-8.083335e+00
2.935850e+01	-8.125885e+00
2.952807e+01	-8.168109e+00
2.969863e+01	-8.210736e+00
2.987016e+01	-8.252926e+00
3.004269e+01	-8.295882e+00
3.021622e+01	-8.338504e+00
3.039075e+01	-8.380953e+00
3.056628e+01	-8.424248e+00
3.074283e+01	-8.466660e+00
3.092040e+01	-8.509961e+00
3.109900e+01	-8.552310e+00
3.127862e+01	-8.596033e+00
3.145929e+01	-8.638888e+00
3.164099e+01	-8.682537e+00
3.182375e+01	-8.725416e+00
3.200756e+01	-8.769057e+00
3.219244e+01	-8.812413e+00
3.237838e+01	-8.855757e+00
3.256540e+01	-8.899307e+00
3.275349e+01	-8.942876e+00
3.294268e+01	-8.986921e+00
3.313295e+01	-9.030560e+00
3.332433e+01	-9.074417e+00
3.351681e+01	-9.117941e+00
3.371040e+01	-9.162198e+00
3.390511e+01	-9.205580e+00
3.410094e+01	-9.249608e+00
3.429791e+01	-9.294014e+00
3.449601e+01	-9.338549e+00
3.469526e+01	-9.382456e+00
3.489566e+01	-9.426441e+00
3.509721e+01	-9.470829e+00
3.529993e+01	-9.515670e+00
3.550382e+01	-9.560255e+00
3.570889e+01	-9.604639e+00
3.591515e+01	-9.648996e+00
3.612259e+01	-9.693318e+00
3.633123e+01	-9.738343e+00
3.654108e+01	-9.783324e+00
3.675214e+01	-9.828197e+00
3.696442e+01	-9.872799e+00
3.717792e+01	-9.917854e+00
3.739266e+01	-9.962648e+00
3.760864e+01	-1.000780e+01
3.782587e+01	-1.005283e+01
3.804435e+01	-1.009785e+01
3.826409e+01	-1.014291e+01
3.848510e+01	-1.018793e+01
3.870739e+01	-1.023355e+01
3.893096e+01	-1.027888e+01
3.915583e+01	-1.032442e+01
3.938199e+01	-1.036955e+01
3.960946e+01	-1.041524e+01
3.983824e+01	-1.046055e+01
4.006834e+01	-1.050620e+01
4.029978e+01	-1.055149e+01
4.053255e+01	-1.059735e+01
4.076666e+01	-1.064249e+01
4.100213e+01	-1.068914e+01
4.123896e+01	-1.073465e+01
4.147715e+01	-1.078054e+01
4.171672e+01	-1.082645e+01
4.195767e+01	-1.087234e+01
4.220002e+01	-1.091760e+01
4.244377e+01	-1.096392e+01
4.268892e+01	-1.100978e+01
4.293549e+01	-1.105598e+01
4.318348e+01	-1.110222e+01
4.343291e+01	-1.114847e+01
4.368377e+01	-1.119467e+01
4.393609e+01	-1.124082e+01
4.418986e+01	-1.128666e+01
4.444510e+01	-1.133341e+01
4.470182e+01	-1.137984e+01
4.496001e+01	-1.142693e+01
4.521970e+01	-1.147243e+01
4.548089e+01	-1.151896e+01
4.574358e+01	-1.156576e+01
4.600779e+01	-1.161215e+01
4.627353e+01	-1.165906e+01
4.654081e+01	-1.170585e+01
4.680963e+01	-1.175225e+01
4.708000e+01	-1.179937e+01
4.735193e+01	-1.184502e+01
4.762543e+01	-1.189224e+01
4.790051e+01	-1.193944e+01
4.817719e+01	-1.198633e+01
4.845545e+01	-1.203239e+01
4.873533e+01	-1.207970e+01
4.901682e+01	-1.212646e+01
4.929994e+01	-1.217372e+01
4.958470e+01	-1.222152e+01
4.987110e+01	-1.226808e+01
5.015915e+01	-1.231426e+01
5.044887e+01	-1.236244e+01
5.074026e+01	-1.240932e+01
5.103333e+01	-1.245615e+01
5.132810e+01	-1.250334e+01
5.162457e+01	-1.255023e+01
5.192275e+01	-1.259777e+01
5.222265e+01	-1.264473e+01
5.252429e+01	-1.269233e+01
5.282767e+01	-1.273936e+01
5.313280e+01	-1.278707e+01
5.343969e+01	-1.283451e+01
5.374836e+01	-1.288160e+01
5.405880e+01	-1.292987e+01
5.437105e+01	-1.297709e+01
5.468509e+01	-1.302430e+01
5.500095e+01	-1.307187e+01
5.531863e+01	-1.312006e+01
5.563815e+01	-1.316770e+01
5.595951e+01	-1.321539e+01
5.628273e+01	-1.326218e+01
5.660782e+01	-1.330984e+01
5.693479e+01	-1.335790e+01
5.726364e+01	-1.340637e+01
5.759439e+01	-1.345288e+01
5.792705e+01	-1.350117e+01
5.826164e+01	-1.354837e+01
5.859815e+01	-1.359729e+01
5.893662e+01	-1.364499e+01
5.927703e+01	-1.369290e+01
5.961941e+01	-1.374020e+01
5.996377e+01	-1.378817e+01
6.031012e+01	-1.383591e+01
6.065847e+01	-1.388457e+01
6.100883e+01	-1.393222e+01
6.136121e+01	-1.397995e+01
6.171563e+01	-1.402944e+01
6.207210e+01	-1.407625e+01
6.243063e+01	-1.412383e+01
6.279122e+01	-1.417272e+01
6.315390e+01	-1.422097e+01
6.351868e+01	-1.426937e+01
6.388556e+01	-1.431696e+01
6.425456e+01	-1.436556e+01
6.462569e+01	-1.441297e+01
6.499897e+01	-1.446123e+01
6.537440e+01	-1.450964e+01
6.575200e+01	-1.455880e+01
6.613178e+01	-1.460706e+01
6.651375e+01	-1.465480e+01
6.689793e+01	-1.470374e+01
6.728433e+01	-1.475157e+01
6.767297e+01	-1.479967e+01
6.806384e+01	-1.484846e+01
6.845698e+01	-1.489701e+01
6.885238e+01	-1.494463e+01
6.925007e+01	-1.499325e+01
6.965005e+01	-1.504184e+01
7.005235e+01	-1.509067e+01
7.045697e+01	-1.513905e+01
7.086393e+01	-1.518748e+01
7.127323e+01	-1.523685e+01
7.168490e+01	-1.528451e+01
7.209895e+01	-1.533248e+01
7.251539e+01	-1.538117e+01
7.293424e+01	-1.543046e+01
7.335551e+01	-1.547937e+01
7.377920e+01	-1.552780e+01
7.420535e+01	-1.557600e+01
7.463396e+01	-1.562467e+01
7.506504e+01	-1.567269e+01
7.549861e+01	-1.572204e+01
7.593469e+01	-1.577102e+01
7.637328e+01	-1.581945e+01
7.681441e+01	-1.586756e+01
7.725809e+01	-1.591722e+01
7.770433e+01	-1.596548e+01
7.815315e+01	-1.601442e+01
7.860456e+01	-1.606289e+01
7.905857e+01	-1.611296e+01
7.951521e+01	-1.616163e+01
7.997449e+01	-1.621085e+01
8.043642e+01	-1.625958e+01
8.090102e+01	-1.630655e+01
8.136830e+01	-1.635609e+01
8.183828e+01	-1.640592e+01
8.231097e+01	-1.645454e+01
8.278640e+01	-1.650358e+01
8.326457e+01	-1.655278e+01
8.374550e+01	-1.660019e+01
8.422921e+01	-1.664985e+01
8.471572e+01	-1.669952e+01
8.520503e+01	-1.674735e+01
8.569717e+01	-1.679703e+01
8.619215e+01	-1.684440e+01
8.669000e+01	-1.689459e+01
8.719071e+01	-1.694476e+01
8.769432e+01	-1.699300e+01
8.820084e+01	-1.704195e+01
8.871029e+01	-1.709090e+01
8.922267e+01	-1.714043e+01
8.973802e+01	-1.718902e+01
9.025634e+01	-1.723740e+01
9.077766e+01	-1.728689e+01
9.130199e+01	-1.733734e+01
9.182935e+01	-1.738495e+01
9.235975e+01	-1.743347e+01
9.289321e+01	-1.748383e+01
9.342976e+01	-1.753250e+01
9.396941e+01	-1.758244e+01
9.451217e+01	-1.763181e+01
9.505807e+01	-1.768114e+01
9.560712e+01	-1.772885e+01
9.615934e+01	-1.777859e+01
9.671476e+01	-1.782852e+01
9.727338e+01	-1.787800e+01
9.783522e+01	-1.792579e+01
9.840032e+01	-1.797541e+01
9.896867e+01	-1.802431e+01
9.954031e+01	-1.807366e+01
1.001153e+02	-1.812365e+01
1.006935e+02	-1.817282e+01
1.012751e+02	-1.822236e+01
1.018601e+02	-1.827113e+01
1.024484e+02	-1.832109e+01
1.030402e+02	-1.836895e+01
1.036353e+02	-1.841975e+01
1.042339e+02	-1.846883e+01
1.048360e+02	-1.851737e+01
1.054415e+02	-1.856569e+01
1.060505e+02	-1.861581e+01
1.066631e+02	-1.866460e+01
1.072791e+02	-1.871484e+01
1.078988e+02	-1.876274e+01
1.085220e+02	-1.881346e+01
1.091488e+02	-1.886317e+01
1.097793e+02	-1.891345e+01
1.104133e+02	-1.896291e+01
1.110511e+02	-1.900982e+01
1.116925e+02	-1.906077e+01
1.123376e+02	-1.910970e+01
1.129865e+02	-1.916025e+01
1.136391e+02	-1.920909e+01
1.142955e+02	-1.925738e+01
1.149556e+02	-1.930838e+01
1.156196e+02	-1.935731e+01
1.162874e+02	-1.940741e+01
1.169591e+02	-1.945700e+01
1.176347e+02	-1.950690e+01
1.183141e+02	-1.955565e+01
1.189975e+02	-1.960458e+01
1.196848e+02	-1.965366e+01
1.203761e+02	-1.970382e+01
1.210714e+02	-1.975377e+01
1.217707e+02	-1.980317e+01
1.224740e+02	-1.985200e+01
1.231814e+02	-1.989953e+01
1.238929e+02	-1.995161e+01
1.246085e+02	-2.000051e+01
1.253283e+02	-2.004974e+01
1.260522e+02	-2.010028e+01
1.267802e+02	-2.014843e+01
1.275125e+02	-2.019907e+01
1.282490e+02	-2.024943e+01
1.289898e+02	-2.029740e+01
1.297348e+02	-2.034637e+01
1.304842e+02	-2.039774e+01
1.312378e+02	-2.044434e+01
1.319959e+02	-2.049507e+01
1.327583e+02	-2.054637e+01
1.335251e+02	-2.059506e+01
1.342963e+02	-2.064471e+01
1.350720e+02	-2.069455e+01
1.358522e+02	-2.074376e+01
1.366368e+02	-2.079435e+01
1.374260e+02	-2.084397e+01
1.382198e+02	-2.089256e+01
1.390182e+02	-2.094164e+01
1.398211e+02	-2.099258e+01
1.406287e+02	-2.104307e+01
1.414410e+02	-2.109218e+01
1.422579e+02	-2.114210e+01
1.430796e+02	-2.118980e+01
1.439060e+02	-2.123978e+01
1.447372e+02	-2.128845e+01
1.455732e+02	-2.133971e+01
1.464141e+02	-2.139054e+01
1.472597e+02	-2.143808e+01
1.481103e+02	-2.148885e+01
1.489658e+02	-2.154066e+01
1.498262e+02	-2.158739e+01
1.506916e+02	-2.163871e+01
1.515620e+02	-2.168921e+01
1.524374e+02	-2.173828e+01
1.533179e+02	-2.178900e+01
1.542034e+02	-2.183881e+01
1.550941e+02	-2.188814e+01
1.559899e+02	-2.193567e+01
1.568909e+02	-2.198585e+01
1.577971e+02	-2.203587e+01
1.587085e+02	-2.208710e+01
1.596252e+02	-2.213181e+01
1.605472e+02	-2.218413e+01
1.614745e+02	-2.223587e+01
1.624072e+02	-2.228437e+01
1.633453e+02	-2.233464e+01
1.642887e+02	-2.238499e+01
1.652377e+02	-2.243422e+01
1.661921e+02	-2.248452e+01
1.671520e+02	-2.253412e+01
1.681175e+02	-2.258217e+01
1.690885e+02	-2.263205e+01
1.700651e+02	-2.268287e+01
1.710474e+02	-2.273347e+01
1.720354e+02	-2.278130e+01
1.730291e+02	-2.283104e+01
1.740285e+02	-2.287966e+01
1.750337e+02	-2.293165e+01
1.760446e+02	-2.298359e+01
1.770615e+02	-2.302919e+01
1.780842e+02	-2.308011e+01
1.791128e+02	-2.313193e+01
1.801473e+02	-2.318247e+01
1.811878e+02	-2.323119e+01
1.822344e+02	-2.328226e+01
1.832870e+02	-2.333104e+01
1.843456e+02	-2.338067e+01
1.854104e+02	-2.343003e+01
1.864813e+02	-2.348030e+01
1.875584e+02	-2.352728e+01
1.886418e+02	-2.358004e+01
1.897313e+02	-2.362958e+01
1.908272e+02	-2.367830e+01
1.919294e+02	-2.372808e+01
1.930380e+02	-2.377766e+01
1.941530e+02	-2.382810e+01
1.952744e+02	-2.387669e+01
1.964023e+02	-2.392799e+01
1.975367e+02	-2.397768e+01
1.986777e+02	-2.402864e+01
1.998252e+02	-2.407688e+01
2.009794e+02	-2.412809e+01
2.021403e+02	-2.417835e+01
2.033078e+02	-2.422761e+01
2.044821e+02	-2.427842e+01
2.056632e+02	-2.432546e+01
2.068511e+02	-2.437741e+01
2.080459e+02	-2.442909e+01
2.092475e+02	-2.447787e+01
2.104561e+02	-2.452723e+01
2.116717e+02	-2.457441e+01
2.128943e+02	-2.462727e+01
2.141240e+02	-2.467806e+01
2.153608e+02	-2.472642e+01
2.166047e+02	-2.477653e+01
2.178558e+02	-2.482628e+01
2.191141e+02	-2.487543e+01
2.203797e+02	-2.492646e+01
2.216526e+02	-2.497539e+01
2.229329e+02	-2.502596e+01
2.242205e+02	-2.507390e+01
2.255156e+02	-2.512355e+01
2.268182e+02	-2.517636e+01
2.281283e+02	-2.522496e+01
2.294459e+02	-2.527471e+01
2.307712e+02	-2.532363e+01
2.321041e+02	-2.537513e+01
2.334447e+02	-2.542752e+01
2.347931e+02	-2.547353e+01
2.361493e+02	-2.552529e+01
2.375133e+02	-2.557760e+01
2.388851e+02	-2.562802e+01
2.402649e+02	-2.567272e+01
2.416527e+02	-2.572408e+01
2.430484e+02	-2.577419e+01
2.444523e+02	-2.582572e+01
2.458642e+02	-2.587559e+01
2.472843e+02	-2.592610e+01
2.487126e+02	-2.597364e+01
2.501492e+02	-2.602400e+01
2.515940e+02	-2.607625e+01
2.530472e+02	-2.612278e+01
2.545088e+02	-2.617695e+01
2.559789e+02	-2.622590e+01
2.574574e+02	-2.627636e+01
2.589444e+02	-2.632373e+01
2.604401e+02	-2.637295e+01
2.619444e+02	-2.642236e+01
2.634574e+02	-2.647534e+01
2.649791e+02	-2.652391e+01
2.665096e+02	-2.657375e+01
2.680489e+02	-2.662438e+01
2.695972e+02	-2.667241e+01
2.711544e+02	-2.672076e+01
2.727205e+02	-2.677227e+01
2.742958e+02	-2.682463e+01
2.758801e+02	-2.687426e+01
2.774736e+02	-2.692493e+01
2.790762e+02	-2.697491e+01
2.806882e+02	-2.702264e+01
2.823094e+02	-2.707313e+01
2.839400e+02	-2.712432e+01
2.855800e+02	-2.717436e+01
2.872295e+02	-2.722614e+01
2.888886e+02	-2.727383e+01
2.905572e+02	-2.732318e+01
2.922354e+02	-2.737875e+01
2.939234e+02	-2.742528e+01
2.956211e+02	-2.747682e+01
2.973286e+02	-2.752242e+01
2.990459e+02	-2.757184e+01
3.007732e+02	-2.762520e+01
3.025104e+02	-2.767765e+01
3.042577e+02	-2.772600e+01
3.060151e+02	-2.777505e+01
3.077826e+02	-2.782266e+01
3.095604e+02	-2.787118e+01
3.113484e+02	-2.792400e+01
3.131467e+02	-2.797966e+01
3.149554e+02	-2.802018e+01
3.167746e+02	-2.807363e+01
3.186043e+02	-2.812398e+01
3.204445e+02	-2.816927e+01
3.222954e+02	-2.822726e+01
3.241570e+02	-2.827534e+01
3.260293e+02	-2.832515e+01
3.279124e+02	-2.837083e+01
3.298064e+02	-2.842101e+01
3.317114e+02	-2.847633e+01
3.336273e+02	-2.852130e+01
3.355544e+02	-2.857489e+01
3.374925e+02	-2.862353e+01
3.394418e+02	-2.867469e+01
3.414024e+02	-2.872267e+01
3.433744e+02	-2.877136e+01
3.453577e+02	-2.882505e+01
3.473525e+02	-2.887542e+01
3.493588e+02	-2.892406e+01
3.513766e+02	-2.897406e+01
3.534062e+02	-2.902156e+01
3.554474e+02	-2.907430e+01
3.575005e+02	-2.912336e+01
3.595654e+02	-2.917351e+01
3.616422e+02	-2.922239e+01
3.637311e+02	-2.927558e+01
3.658320e+02	-2.932161e+01
3.679450e+02	-2.937841e+01
3.700702e+02	-2.942495e+01
3.722077e+02	-2.947333e+01
3.743576e+02	-2.952474e+01
3.765199e+02	-2.957808e+01
3.786946e+02	-2.962702e+01
3.808820e+02	-2.967587e+01
3.830819e+02	-2.972786e+01
3.852946e+02	-2.977206e+01
3.875200e+02	-2.982647e+01
3.897583e+02	-2.988170e+01
3.920096e+02	-2.992568e+01
3.942738e+02	-2.998134e+01
3.965511e+02	-3.002414e+01
3.988416e+02	-3.007620e+01
4.011452e+02	-3.012779e+01
4.034622e+02	-3.017463e+01
4.057926e+02	-3.022375e+01
4.081365e+02	-3.028136e+01
4.104938e+02	-3.032773e+01
4.128648e+02	-3.038122e+01
4.152495e+02	-3.042500e+01
4.176480e+02	-3.047368e+01
4.200603e+02	-3.052618e+01
4.224866e+02	-3.057797e+01
4.249268e+02	-3.062533e+01
4.273812e+02	-3.067396e+01
4.298497e+02	-3.073424e+01
4.323325e+02	-3.077450e+01
4.348297e+02	-3.082476e+01
4.373412e+02	-3.087582e+01
4.398673e+02	-3.093080e+01
4.424079e+02	-3.097834e+01
4.449633e+02	-3.103007e+01
4.475334e+02	-3.107541e+01
4.501183e+02	-3.112537e+01
4.527182e+02	-3.118169e+01
4.553330e+02	-3.122810e+01
4.579630e+02	-3.128192e+01
4.606082e+02	-3.132934e+01
4.632687e+02	-3.138114e+01
4.659445e+02	-3.143087e+01
4.686358e+02	-3.148068e+01
4.713426e+02	-3.153342e+01
4.740650e+02	-3.157934e+01
4.768032e+02	-3.163340e+01
4.795572e+02	-3.168396e+01
4.823271e+02	-3.173260e+01
4.851130e+02	-3.178024e+01
4.879150e+02	-3.182902e+01
4.907332e+02	-3.187838e+01
4.935676e+02	-3.192431e+01
4.964185e+02	-3.198489e+01
4.992858e+02	-3.202985e+01
5.021696e+02	-3.208368e+01
5.050701e+02	-3.213449e+01
5.079874e+02	-3.218249e+01
5.109215e+02	-3.223983e+01
5.138726e+02	-3.227894e+01
5.168407e+02	-3.233230e+01
5.198259e+02	-3.238279e+01
5.228284e+02	-3.243709e+01
5.258482e+02	-3.248359e+01
5.288855e+02	-3.253826e+01
5.319403e+02	-3.258513e+01
5.350128e+02	-3.263549e+01
5.381030e+02	-3.268776e+01
5.412111e+02	-3.273580e+01
5.443371e+02	-3.278805e+01
5.474812e+02	-3.283558e+01
5.506434e+02	-3.288639e+01
5.538239e+02	-3.293355e+01
5.570228e+02	-3.298354e+01
5.602401e+02	-3.303806e+01
5.634760e+02	-3.308360e+01
5.667306e+02	-3.313841e+01
5.700040e+02	-3.319114e+01
5.732964e+02	-3.323161e+01
5.766077e+02	-3.328860e+01
5.799382e+02	-3.333610e+01
5.832879e+02	-3.338606e+01
5.866569e+02	-3.343191e+01
5.900454e+02	-3.349326e+01
5.934535e+02	-3.354108e+01
5.968813e+02	-3.359415e+01
6.003288e+02	-3.364332e+01
6.037963e+02	-3.369236e+01
6.072838e+02	-3.374288e+01
6.107914e+02	-3.379178e+01
6.143194e+02	-3.384082e+01
6.178676e+02	-3.389506e+01
6.214364e+02	-3.393875e+01
6.250258e+02	-3.399197e+01
6.286359e+02	-3.403974e+01
6.322669e+02	-3.409257e+01
6.359189e+02	-3.414178e+01
6.395919e+02	-3.419183e+01
6.432862e+02	-3.423700e+01
6.470017e+02	-3.429304e+01
6.507388e+02	-3.434745e+01
6.544974e+02	-3.439823e+01
6.582778e+02	-3.444891e+01
6.620800e+02	-3.450094e+01
6.659041e+02	-3.454169e+01
6.697504e+02	-3.459497e+01
6.736188e+02	-3.464765e+01
6.775096e+02	-3.469879e+01
6.814229e+02	-3.474455e+01
6.853587e+02	-3.480279e+01
6.893173e+02	-3.485024e+01
6.932988e+02	-3.489884e+01
6.973033e+02	-3.495418e+01
7.013309e+02	-3.499662e+01
