Frequency(Hz)	Magnitude(dB)
1.000000e+01	-2.143114e+00
1.005776e+01	-2.162810e+00
1.011585e+01	-2.182583e+00
1.017428e+01	-2.202185e+00
1.023305e+01	-2.222063e+00
1.029215e+01	-2.242460e+00
1.035160e+01	-2.262409e+00
1.041139e+01	-2.282910e+00
1.047153e+01	-2.303687e+00
1.053201e+01	-2.324137e+00
1.059284e+01	-2.344800e+00
1.065403e+01	-2.366214e+00
1.071556e+01	-2.387014e+00
1.077746e+01	-2.408071e+00
1.083971e+01	-2.429330e+00
1.090232e+01	-2.451042e+00
1.096529e+01	-2.472555e+00
1.102862e+01	-2.494636e+00
1.109232e+01	-2.516537e+00
1.115639e+01	-2.538544e+00
1.122083e+01	-2.560776e+00
1.128564e+01	-2.583169e+00
1.135083e+01	-2.605467e+00
1.141639e+01	-2.628262e+00
1.148233e+01	-2.651027e+00
1.154865e+01	-2.673896e+00
1.161536e+01	-2.696709e+00
1.168245e+01	-2.720224e+00
1.174992e+01	-2.743501e+00
1.181779e+01	-2.767211e+00
1.188605e+01	-2.790729e+00
1.195470e+01	-2.814816e+00
1.202375e+01	-2.838447e+00
1.209320e+01	-2.862461e+00
1.216305e+01	-2.886784e+00
1.223330e+01	-2.911033e+00
1.230396e+01	-2.935552e+00
1.237503e+01	-2.960409e+00
1.244651e+01	-2.985109e+00
1.251840e+01	-3.010101e+00
1.259070e+01	-3.035178e+00
1.266343e+01	-3.060389e+00
1.273657e+01	-3.085878e+00
1.281014e+01	-3.111152e+00
1.288413e+01	-3.136816e+00
1.295855e+01	-3.162537e+00
1.303339e+01	-3.188844e+00
1.310867e+01	-3.214729e+00
1.318439e+01	-3.240837e+00
1.326054e+01	-3.267402e+00
1.333713e+01	-3.293715e+00
1.341417e+01	-3.320502e+00
1.349165e+01	-3.347493e+00
1.356958e+01	-3.374122e+00
1.364795e+01	-3.401072e+00
1.372678e+01	-3.428437e+00
1.380607e+01	-3.455881e+00
1.388581e+01	-3.483458e+00
1.396602e+01	-3.511165e+00
1.404668e+01	-3.539009e+00
1.412782e+01	-3.566946e+00
1.420942e+01	-3.594863e+00
1.429149e+01	-3.623126e+00
1.437404e+01	-3.651593e+00
1.445706e+01	-3.680217e+00
1.454057e+01	-3.708766e+00
1.462455e+01	-3.737732e+00
1.470902e+01	-3.766493e+00
1.479398e+01	-3.795583e+00
1.487943e+01	-3.824886e+00
1.496537e+01	-3.854027e+00
1.505181e+01	-3.883429e+00
1.513875e+01	-3.913317e+00
1.522619e+01	-3.943114e+00
1.531414e+01	-3.973061e+00
1.540259e+01	-4.003122e+00
1.549156e+01	-4.033106e+00
1.558103e+01	-4.063578e+00
1.567103e+01	-4.094026e+00
1.576155e+01	-4.124472e+00
1.585258e+01	-4.155241e+00
1.594415e+01	-4.186017e+00
1.603624e+01	-4.217288e+00
1.612886e+01	-4.248377e+00
1.622202e+01	-4.279949e+00
1.631572e+01	-4.310868e+00
1.640996e+01	-4.342689e+00
1.650474e+01	-4.374458e+00
1.660008e+01	-4.406009e+00
1.669596e+01	-4.438134e+00
1.679239e+01	-4.469970e+00
1.688938e+01	-4.502383e+00
1.698694e+01	-4.534742e+00
1.708505e+01	-4.567393e+00
1.718373e+01	-4.599950e+00
1.728299e+01	-4.632852e+00
1.738281e+01	-4.665396e+00
1.748322e+01	-4.698727e+00
1.758420e+01	-4.731513e+00
1.768576e+01	-4.764951e+00
1.778792e+01	-4.798330e+00
1.789066e+01	-4.831846e+00
1.799399e+01	-4.865643e+00
1.809793e+01	-4.899289e+00
1.820246e+01	-4.933343e+00
1.830760e+01	-4.966830e+00
1.841334e+01	-5.001223e+00
1.851969e+01	-5.035856e+00
1.862666e+01	-5.069893e+00
1.873425e+01	-5.104604e+00
1.884246e+01	-5.139160e+00
1.895129e+01	-5.173947e+00
1.906075e+01	-5.208692e+00
1.917085e+01	-5.243976e+00
1.928158e+01	-5.278841e+00
1.939295e+01	-5.314154e+00
1.950496e+01	-5.349294e+00
1.961762e+01	-5.385230e+00
1.973093e+01	-5.420613e+00
1.984490e+01	-5.456461e+00
1.995952e+01	-5.492398e+00
2.007480e+01	-5.528079e+00
2.019076e+01	-5.564095e+00
2.030738e+01	-5.600519e+00
2.042467e+01	-5.636910e+00
2.054264e+01	-5.672759e+00
2.066130e+01	-5.709792e+00
2.078064e+01	-5.746317e+00
2.090066e+01	-5.783266e+00
2.102139e+01	-5.820025e+00
2.114280e+01	-5.857000e+00
2.126492e+01	-5.894180e+00
2.138775e+01	-5.931210e+00
2.151128e+01	-5.968490e+00
2.163553e+01	-6.005959e+00
2.176050e+01	-6.043625e+00
2.188619e+01	-6.081312e+00
2.201260e+01	-6.119186e+00
2.213974e+01	-6.156982e+00
2.226762e+01	-6.194523e+00
2.239624e+01	-6.232868e+00
2.252560e+01	-6.271226e+00
2.265571e+01	-6.309516e+00
2.278656e+01	-6.347599e+00
2.291818e+01	-6.386160e+00
2.305055e+01	-6.424769e+00
2.318369e+01	-6.463711e+00
2.331760e+01	-6.502135e+00
2.345228e+01	-6.541294e+00
2.358774e+01	-6.580138e+00
2.372398e+01	-6.619392e+00
2.386101e+01	-6.658407e+00
2.399883e+01	-6.697839e+00
2.413745e+01	-6.737159e+00
2.427686e+01	-6.776353e+00
2.441709e+01	-6.815711e+00
2.455812e+01	-6.855599e+00
2.469997e+01	-6.895489e+00
2.484263e+01	-6.935169e+00
2.498612e+01	-6.974584e+00
2.513044e+01	-7.015144e+00
2.527559e+01	-7.055561e+00
2.542158e+01	-7.095483e+00
2.556842e+01	-7.135719e+00
2.571610e+01	-7.176276e+00
2.586463e+01	-7.216431e+00
2.601403e+01	-7.257211e+00
2.616428e+01	-7.298170e+00
2.631541e+01	-7.338524e+00
2.646740e+01	-7.379960e+00
2.662028e+01	-7.420585e+00
2.677404e+01	-7.461327e+00
2.692868e+01	-7.502639e+00
2.708422e+01	-7.543878e+00
2.724066e+01	-7.585191e+00
2.739800e+01	-7.626117e+00
2.755625e+01	-7.667764e+00
2.771541e+01	-7.709487e+00
2.787550e+01	-7.750757e+00
2.803650e+01	-7.792569e+00
2.819844e+01	-7.834159e+00
2.836131e+01	-7.876405e+00
2.852513e+01	-7.917809e+00
2.868989e+01	-7.960129e+00
2.885560e+01	-8.001839e+00
2.902227e+01	-8.044154e+00
2.918990e+01	-8.086522e+00
2.935850e+01	-8.128522e+00
2.952807e+01	-8.171047e+00
2.969863e+01	-8.213465e+00
2.987016e+01	-8.255993e+00
3.004269e+01	-8.298686e+00
3.021622e+01	-8.341008e+00
3.039075e+01	-8.384038e+00
3.056628e+01	-8.426702e+00
3.074283e+01	-8.469273e+00
3.092040e+01	-8.512913e+00
3.109900e+01	-8.555439e+00
3.127862e+01	-8.598171e+00
3.145929e+01	-8.641708e+00
3.164099e+01	-8.685211e+00
3.182375e+01	-8.728173e+00
3.200756e+01	-8.771687e+00
3.219244e+01	-8.815271e+00
3.237838e+01	-8.858798e+00
3.256540e+01	-8.902294e+00
3.275349e+01	-8.945837e+00
3.294268e+01	-8.989336e+00
3.313295e+01	-9.033748e+00
3.332433e+01	-9.076610e+00
3.351681e+01	-9.120409e+00
3.371040e+01	-9.164888e+00
3.390511e+01	-9.208746e+00
3.410094e+01	-9.252922e+00
3.429791e+01	-9.297118e+00
3.449601e+01	-9.341268e+00
3.469526e+01	-9.385570e+00
3.489566e+01	-9.429659e+00
3.509721e+01	-9.474256e+00
3.529993e+01	-9.518408e+00
3.550382e+01	-9.563063e+00
3.570889e+01	-9.607493e+00
3.591515e+01	-9.651610e+00
3.612259e+01	-9.697056e+00
3.633123e+01	-9.740909e+00
3.654108e+01	-9.786181e+00
3.675214e+01	-9.830630e+00
3.696442e+01	-9.875801e+00
3.717792e+01	-9.921192e+00
3.739266e+01	-9.965916e+00
3.760864e+01	-1.001085e+01
3.782587e+01	-1.005558e+01
3.804435e+01	-1.010088e+01
3.826409e+01	-1.014559e+01
3.848510e+01	-1.019130e+01
3.870739e+01	-1.023664e+01
3.893096e+01	-1.028127e+01
3.915583e+01	-1.032741e+01
3.938199e+01	-1.037250e+01
3.960946e+01	-1.041787e+01
3.983824e+01	-1.046353e+01
4.006834e+01	-1.050861e+01
4.029978e+01	-1.055427e+01
4.053255e+01	-1.060026e+01
4.076666e+01	-1.064570e+01
4.100213e+01	-1.069195e+01
4.123896e+01	-1.073730e+01
4.147715e+01	-1.078334e+01
4.171672e+01	-1.082929e+01
4.195767e+01	-1.087477e+01
4.220002e+01	-1.092119e+01
4.244377e+01	-1.096704e+01
4.268892e+01	-1.101313e+01
4.293549e+01	-1.105957e+01
4.318348e+01	-1.110486e+01
4.343291e+01	-1.115153e+01
4.368377e+01	-1.119764e+01
4.393609e+01	-1.124370e+01
4.418986e+01	-1.128992e+01
4.444510e+01	-1.133710e+01
4.470182e+01	-1.138293e+01
4.496001e+01	-1.142920e+01
4.521970e+01	-1.147549e+01
4.548089e+01	-1.152227e+01
4.574358e+01	-1.156883e+01
4.600779e+01	-1.161539e+01
4.627353e+01	-1.166207e+01
4.654081e+01	-1.170884e+01
4.680963e+01	-1.175537e+01
4.708000e+01	-1.180167e+01
4.735193e+01	-1.184900e+01
4.762543e+01	-1.189535e+01
4.790051e+01	-1.194245e+01
4.817719e+01	-1.198910e+01
4.845545e+01	-1.203559e+01
4.873533e+01	-1.208286e+01
4.901682e+01	-1.213022e+01
4.929994e+01	-1.217718e+01
4.958470e+01	-1.222389e+01
4.987110e+01	-1.227148e+01
5.015915e+01	-1.231793e+01
5.044887e+01	-1.236526e+01
5.074026e+01	-1.241231e+01
5.103333e+01	-1.245902e+01
5.132810e+01	-1.250650e+01
5.162457e+01	-1.255319e+01
5.192275e+01	-1.260133e+01
5.222265e+01	-1.264856e+01
5.252429e+01	-1.269543e+01
5.282767e+01	-1.274240e+01
5.313280e+01	-1.279030e+01
5.343969e+01	-1.283767e+01
5.374836e+01	-1.288555e+01
5.405880e+01	-1.293290e+01
5.437105e+01	-1.298085e+01
5.468509e+01	-1.302683e+01
5.500095e+01	-1.307512e+01
5.531863e+01	-1.312269e+01
5.563815e+01	-1.316990e+01
5.595951e+01	-1.321886e+01
5.628273e+01	-1.326627e+01
5.660782e+01	-1.331344e+01
5.693479e+01	-1.336093e+01
5.726364e+01	-1.340947e+01
5.759439e+01	-1.345652e+01
5.792705e+01	-1.350473e+01
5.826164e+01	-1.355226e+01
5.859815e+01	-1.360058e+01
5.893662e+01	-1.364827e+01
5.927703e+01	-1.369603e+01
5.961941e+01	-1.374390e+01
5.996377e+01	-1.379226e+01
6.031012e+01	-1.383919e+01
6.065847e+01	-1.388739e+01
6.100883e+01	-1.393521e+01
6.136121e+01	-1.398332e+01
6.171563e+01	-1.403268e+01
6.207210e+01	-1.407974e+01
6.243063e+01	-1.412868e+01
6.279122e+01	-1.417651e+01
6.315390e+01	-1.422417e+01
6.351868e+01	-1.427203e+01
6.388556e+01	-1.432103e+01
6.425456e+01	-1.436903e+01
6.462569e+01	-1.441703e+01
6.499897e+01	-1.446478e+01
6.537440e+01	-1.451298e+01
6.575200e+01	-1.456079e+01
6.613178e+01	-1.460900e+01
6.651375e+01	-1.465762e+01
6.689793e+01	-1.470660e+01
6.728433e+01	-1.475500e+01
6.767297e+01	-1.480352e+01
6.806384e+01	-1.485169e+01
6.845698e+01	-1.489979e+01
6.885238e+01	-1.494769e+01
6.925007e+01	-1.499668e+01
6.965005e+01	-1.504416e+01
7.005235e+01	-1.509422e+01
7.045697e+01	-1.514127e+01
7.086393e+01	-1.519103e+01
7.127323e+01	-1.523948e+01
7.168490e+01	-1.528831e+01
7.209895e+01	-1.533529e+01
7.251539e+01	-1.538486e+01
7.293424e+01	-1.543375e+01
7.335551e+01	-1.548130e+01
7.377920e+01	-1.553140e+01
7.420535e+01	-1.557940e+01
7.463396e+01	-1.562784e+01
7.506504e+01	-1.567638e+01
7.549861e+01	-1.572483e+01
7.593469e+01	-1.577394e+01
7.637328e+01	-1.582374e+01
7.681441e+01	-1.587145e+01
7.725809e+01	-1.592013e+01
7.770433e+01	-1.596867e+01
7.815315e+01	-1.601748e+01
7.860456e+01	-1.606646e+01
7.905857e+01	-1.611505e+01
7.951521e+01	-1.616341e+01
7.997449e+01	-1.621331e+01
8.043642e+01	-1.626198e+01
8.090102e+01	-1.631013e+01
8.136830e+01	-1.635902e+01
8.183828e+01	-1.640812e+01
8.231097e+01	-1.645766e+01
8.278640e+01	-1.650595e+01
8.326457e+01	-1.655506e+01
8.374550e+01	-1.660356e+01
8.422921e+01	-1.665250e+01
8.471572e+01	-1.670236e+01
8.520503e+01	-1.675091e+01
8.569717e+01	-1.679949e+01
8.619215e+01	-1.684848e+01
8.669000e+01	-1.689740e+01
8.719071e+01	-1.694674e+01
8.769432e+01	-1.699613e+01
8.820084e+01	-1.704615e+01
8.871029e+01	-1.709400e+01
8.922267e+01	-1.714293e+01
8.973802e+01	-1.719206e+01
9.025634e+01	-1.724219e+01
9.077766e+01	-1.729030e+01
9.130199e+01	-1.734072e+01
9.182935e+01	-1.738840e+01
9.235975e+01	-1.743856e+01
9.289321e+01	-1.748742e+01
9.342976e+01	-1.753569e+01
9.396941e+01	-1.758478e+01
9.451217e+01	-1.763414e+01
9.505807e+01	-1.768301e+01
9.560712e+01	-1.773172e+01
9.615934e+01	-1.778218e+01
9.671476e+01	-1.783078e+01
9.727338e+01	-1.788002e+01
9.783522e+01	-1.792886e+01
9.840032e+01	-1.797807e+01
9.896867e+01	-1.802862e+01
9.954031e+01	-1.807752e+01
1.001153e+02	-1.812585e+01
1.006935e+02	-1.817674e+01
1.012751e+02	-1.822559e+01
1.018601e+02	-1.827388e+01
1.024484e+02	-1.832342e+01
1.030402e+02	-1.837239e+01
1.036353e+02	-1.842254e+01
1.042339e+02	-1.846997e+01
1.048360e+02	-1.852079e+01
1.054415e+02	-1.856861e+01
1.060505e+02	-1.861931e+01
1.066631e+02	-1.866758e+01
1.072791e+02	-1.871873e+01
1.078988e+02	-1.876784e+01
1.085220e+02	-1.881660e+01
1.091488e+02	-1.886809e+01
1.097793e+02	-1.891575e+01
1.104133e+02	-1.896457e+01
1.110511e+02	-1.901418e+01
1.116925e+02	-1.906367e+01
1.123376e+02	-1.911357e+01
1.129865e+02	-1.916324e+01
1.136391e+02	-1.921280e+01
1.142955e+02	-1.926272e+01
1.149556e+02	-1.931118e+01
1.156196e+02	-1.936089e+01
1.162874e+02	-1.940976e+01
1.169591e+02	-1.945852e+01
1.176347e+02	-1.950839e+01
1.183141e+02	-1.955718e+01
1.189975e+02	-1.960816e+01
1.196848e+02	-1.965834e+01
1.203761e+02	-1.970761e+01
1.210714e+02	-1.975626e+01
1.217707e+02	-1.980670e+01
1.224740e+02	-1.985473e+01
1.231814e+02	-1.990567e+01
1.238929e+02	-1.995516e+01
1.246085e+02	-2.000450e+01
1.253283e+02	-2.005195e+01
1.260522e+02	-2.010320e+01
1.267802e+02	-2.015180e+01
1.275125e+02	-2.020230e+01
1.282490e+02	-2.025217e+01
1.289898e+02	-2.030144e+01
1.297348e+02	-2.035069e+01
1.304842e+02	-2.040098e+01
1.312378e+02	-2.045072e+01
1.319959e+02	-2.050063e+01
1.327583e+02	-2.054906e+01
1.335251e+02	-2.059891e+01
1.342963e+02	-2.064854e+01
1.350720e+02	-2.069892e+01
1.358522e+02	-2.074927e+01
1.366368e+02	-2.079886e+01
1.374260e+02	-2.084866e+01
1.382198e+02	-2.089784e+01
1.390182e+02	-2.094667e+01
1.398211e+02	-2.099469e+01
1.406287e+02	-2.104649e+01
1.414410e+02	-2.109701e+01
1.422579e+02	-2.114302e+01
1.430796e+02	-2.119504e+01
1.439060e+02	-2.124343e+01
1.447372e+02	-2.129388e+01
1.455732e+02	-2.134415e+01
1.464141e+02	-2.139161e+01
1.472597e+02	-2.144529e+01
1.481103e+02	-2.149316e+01
1.489658e+02	-2.154148e+01
1.498262e+02	-2.159166e+01
1.506916e+02	-2.164201e+01
1.515620e+02	-2.169160e+01
1.524374e+02	-2.174209e+01
1.533179e+02	-2.178900e+01
1.542034e+02	-2.183994e+01
1.550941e+02	-2.189062e+01
1.559899e+02	-2.194000e+01
1.568909e+02	-2.199003e+01
1.577971e+02	-2.203866e+01
1.587085e+02	-2.208983e+01
1.596252e+02	-2.213861e+01
1.605472e+02	-2.219050e+01
1.614745e+02	-2.224019e+01
1.624072e+02	-2.228699e+01
1.633453e+02	-2.233866e+01
1.642887e+02	-2.238913e+01
1.652377e+02	-2.243589e+01
1.661921e+02	-2.248776e+01
1.671520e+02	-2.253667e+01
1.681175e+02	-2.258631e+01
1.690885e+02	-2.263794e+01
1.700651e+02	-2.268897e+01
1.710474e+02	-2.273674e+01
1.720354e+02	-2.278845e+01
1.730291e+02	-2.283724e+01
1.740285e+02	-2.288444e+01
1.750337e+02	-2.293393e+01
1.760446e+02	-2.298463e+01
1.770615e+02	-2.303729e+01
1.780842e+02	-2.308454e+01
1.791128e+02	-2.313313e+01
1.801473e+02	-2.318434e+01
1.811878e+02	-2.323567e+01
1.822344e+02	-2.328274e+01
1.832870e+02	-2.333337e+01
1.843456e+02	-2.338366e+01
1.854104e+02	-2.343370e+01
1.864813e+02	-2.348147e+01
1.875584e+02	-2.353311e+01
1.886418e+02	-2.358317e+01
1.897313e+02	-2.363198e+01
1.908272e+02	-2.368348e+01
1.919294e+02	-2.373261e+01
1.930380e+02	-2.378107e+01
1.941530e+02	-2.383072e+01
1.952744e+02	-2.388394e+01
1.964023e+02	-2.393276e+01
1.975367e+02	-2.398452e+01
1.986777e+02	-2.403052e+01
1.998252e+02	-2.408236e+01
2.009794e+02	-2.413029e+01
2.021403e+02	-2.417951e+01
2.033078e+02	-2.423121e+01
2.044821e+02	-2.428040e+01
2.056632e+02	-2.433211e+01
2.068511e+02	-2.438122e+01
2.080459e+02	-2.443065e+01
2.092475e+02	-2.447944e+01
2.104561e+02	-2.452871e+01
2.116717e+02	-2.457951e+01
2.128943e+02	-2.463571e+01
2.141240e+02	-2.468142e+01
2.153608e+02	-2.473027e+01
2.166047e+02	-2.478117e+01
2.178558e+02	-2.482828e+01
2.191141e+02	-2.487822e+01
2.203797e+02	-2.493013e+01
2.216526e+02	-2.498072e+01
2.229329e+02	-2.502985e+01
2.242205e+02	-2.507878e+01
2.255156e+02	-2.512981e+01
2.268182e+02	-2.517728e+01
2.281283e+02	-2.522701e+01
2.294459e+02	-2.527885e+01
2.307712e+02	-2.532721e+01
2.321041e+02	-2.537798e+01
2.334447e+02	-2.543130e+01
2.347931e+02	-2.548014e+01
2.361493e+02	-2.552868e+01
2.375133e+02	-2.557619e+01
2.388851e+02	-2.562824e+01
2.402649e+02	-2.567947e+01
2.416527e+02	-2.572753e+01
2.430484e+02	-2.577744e+01
2.444523e+02	-2.582810e+01
2.458642e+02	-2.588005e+01
2.472843e+02	-2.592868e+01
2.487126e+02	-2.597904e+01
2.501492e+02	-2.602996e+01
2.515940e+02	-2.607528e+01
2.530472e+02	-2.612416e+01
2.545088e+02	-2.618096e+01
2.559789e+02	-2.623030e+01
2.574574e+02	-2.627848e+01
2.589444e+02	-2.632637e+01
2.604401e+02	-2.638173e+01
2.619444e+02	-2.642503e+01
2.634574e+02	-2.647865e+01
2.649791e+02	-2.652761e+01
2.665096e+02	-2.657697e+01
2.680489e+02	-2.662785e+01
2.695972e+02	-2.668026e+01
2.711544e+02	-2.672938e+01
2.727205e+02	-2.677536e+01
2.742958e+02	-2.682811e+01
2.758801e+02	-2.687551e+01
2.774736e+02	-2.692888e+01
2.790762e+02	-2.697704e+01
2.806882e+02	-2.703016e+01
2.823094e+02	-2.707758e+01
2.839400e+02	-2.712527e+01
2.855800e+02	-2.717762e+01
2.872295e+02	-2.722733e+01
2.888886e+02	-2.727389e+01
2.905572e+02	-2.732869e+01
2.922354e+02	-2.737566e+01
2.939234e+02	-2.742541e+01
2.956211e+02	-2.747723e+01
2.973286e+02	-2.752864e+01
2.990459e+02	-2.758038e+01
3.007732e+02	-2.763055e+01
3.025104e+02	-2.768103e+01
3.042577e+02	-2.772420e+01
3.060151e+02	-2.777547e+01
3.077826e+02	-2.783020e+01
3.095604e+02	-2.787597e+01
3.113484e+02	-2.792448e+01
3.131467e+02	-2.798118e+01
3.149554e+02	-2.802949e+01
3.167746e+02	-2.807346e+01
3.186043e+02	-2.812688e+01
3.204445e+02	-2.817663e+01
3.222954e+02	-2.823022e+01
3.241570e+02	-2.827832e+01
3.260293e+02	-2.832594e+01
3.279124e+02	-2.837123e+01
3.298064e+02	-2.842712e+01
3.317114e+02	-2.847906e+01
3.336273e+02	-2.852671e+01
3.355544e+02	-2.857370e+01
3.374925e+02	-2.862847e+01
3.394418e+02	-2.867646e+01
3.414024e+02	-2.872717e+01
3.433744e+02	-2.877644e+01
3.453577e+02	-2.882623e+01
3.473525e+02	-2.887501e+01
3.493588e+02	-2.892935e+01
3.513766e+02	-2.897603e+01
3.534062e+02	-2.902710e+01
3.554474e+02	-2.908168e+01
3.575005e+02	-2.913351e+01
3.595654e+02	-2.918157e+01
3.616422e+02	-2.922660e+01
3.637311e+02	-2.927464e+01
3.658320e+02	-2.932376e+01
3.679450e+02	-2.937765e+01
3.700702e+02	-2.942987e+01
3.722077e+02	-2.947807e+01
3.743576e+02	-2.952523e+01
3.765199e+02	-2.957899e+01
3.786946e+02	-2.963403e+01
3.808820e+02	-2.968175e+01
3.830819e+02	-2.972841e+01
3.852946e+02	-2.978112e+01
3.875200e+02	-2.982825e+01
3.897583e+02	-2.988188e+01
3.920096e+02	-2.993172e+01
3.942738e+02	-2.997895e+01
3.965511e+02	-3.003277e+01
3.988416e+02	-3.008419e+01
4.011452e+02	-3.013009e+01
4.034622e+02	-3.017822e+01
4.057926e+02	-3.023038e+01
4.081365e+02	-3.028126e+01
4.104938e+02	-3.032893e+01
4.128648e+02	-3.038479e+01
4.152495e+02	-3.042931e+01
4.176480e+02	-3.048222e+01
4.200603e+02	-3.052923e+01
4.224866e+02	-3.057570e+01
4.249268e+02	-3.063733e+01
4.273812e+02	-3.068334e+01
4.298497e+02	-3.073269e+01
4.323325e+02	-3.078703e+01
4.348297e+02	-3.084042e+01
4.373412e+02	-3.088761e+01
4.398673e+02	-3.093400e+01
4.424079e+02	-3.098388e+01
4.449633e+02	-3.103309e+01
4.475334e+02	-3.108349e+01
4.501183e+02	-3.113659e+01
4.527182e+02	-3.118685e+01
4.553330e+02	-3.123093e+01
4.579630e+02	-3.128001e+01
4.606082e+02	-3.132892e+01
4.632687e+02	-3.138346e+01
4.659445e+02	-3.143556e+01
4.686358e+02	-3.148514e+01
4.713426e+02	-3.153273e+01
4.740650e+02	-3.158847e+01
4.768032e+02	-3.163710e+01
4.795572e+02	-3.168257e+01
4.823271e+02	-3.174107e+01
4.851130e+02	-3.177954e+01
4.879150e+02	-3.183220e+01
4.907332e+02	-3.188823e+01
4.935676e+02	-3.193567e+01
4.964185e+02	-3.198798e+01
4.992858e+02	-3.203424e+01
5.021696e+02	-3.208576e+01
5.050701e+02	-3.213093e+01
5.079874e+02	-3.218675e+01
5.109215e+02	-3.224172e+01
5.138726e+02	-3.229233e+01
5.168407e+02	-3.233360e+01
5.198259e+02	-3.238946e+01
5.228284e+02	-3.244380e+01
5.258482e+02	-3.248728e+01
5.288855e+02	-3.253798e+01
5.319403e+02	-3.258247e+01
5.350128e+02	-3.264393e+01
5.381030e+02	-3.269020e+01
5.412111e+02	-3.273978e+01
5.443371e+02	-3.278345e+01
5.474812e+02	-3.284001e+01
5.506434e+02	-3.288972e+01
5.538239e+02	-3.294248e+01
5.570228e+02	-3.299109e+01
5.602401e+02	-3.303843e+01
5.634760e+02	-3.309468e+01
5.667306e+02	-3.313493e+01
5.700040e+02	-3.319299e+01
5.732964e+02	-3.323675e+01
5.766077e+02	-3.328683e+01
5.799382e+02	-3.333611e+01
5.832879e+02	-3.338780e+01
5.866569e+02	-3.344014e+01
5.900454e+02	-3.348903e+01
5.934535e+02	-3.354669e+01
5.968813e+02	-3.359273e+01
6.003288e+02	-3.364068e+01
6.037963e+02	-3.369688e+01
6.072838e+02	-3.374469e+01
6.107914e+02	-3.379790e+01
6.143194e+02	-3.384069e+01
6.178676e+02	-3.389264e+01
6.214364e+02	-3.394128e+01
6.250258e+02	-3.399598e+01
6.286359e+02	-3.404498e+01
6.322669e+02	-3.409753e+01
6.359189e+02	-3.414621e+01
6.395919e+02	-3.419432e+01
6.432862e+02	-3.424935e+01
6.470017e+02	-3.429857e+01
6.507388e+02	-3.435389e+01
6.544974e+02	-3.440376e+01
6.582778e+02	-3.444906e+01
6.620800e+02	-3.449078e+01
6.659041e+02	-3.454496e+01
6.697504e+02	-3.459733e+01
6.736188e+02	-3.465760e+01
6.775096e+02	-3.470411e+01
6.814229e+02	-3.474553e+01
6.853587e+02	-3.480457e+01
6.893173e+02	-3.485101e+01
6.932988e+02	-3.490717e+01
6.973033e+02	-3.495266e+01
7.013309e+02	-3.500366e+01
