Frequency(Hz)	Magnitude(dB)
1.000000e+01	-2.267331e+00
1.005776e+01	-2.287755e+00
1.011585e+01	-2.308279e+00
1.017428e+01	-2.329043e+00
1.023305e+01	-2.350042e+00
1.029215e+01	-2.370950e+00
1.035160e+01	-2.392128e+00
1.041139e+01	-2.413281e+00
1.047153e+01	-2.434525e+00
1.053201e+01	-2.456372e+00
1.059284e+01	-2.477895e+00
1.065403e+01	-2.499746e+00
1.071556e+01	-2.521632e+00
1.077746e+01	-2.543923e+00
1.083971e+01	-2.566049e+00
1.090232e+01	-2.588261e+00
1.096529e+01	-2.611166e+00
1.102862e+01	-2.633701e+00
1.109232e+01	-2.656266e+00
1.115639e+01	-2.679316e+00
1.122083e+01	-2.702679e+00
1.128564e+01	-2.725953e+00
1.135083e+01	-2.749146e+00
1.141639e+01	-2.772782e+00
1.148233e+01	-2.796529e+00
1.154865e+01	-2.820211e+00
1.161536e+01	-2.844334e+00
1.168245e+01	-2.868427e+00
1.174992e+01	-2.892684e+00
1.181779e+01	-2.917091e+00
1.188605e+01	-2.941567e+00
1.195470e+01	-2.966333e+00
1.202375e+01	-2.991067e+00
1.209320e+01	-3.016121e+00
1.216305e+01	-3.040969e+00
1.223330e+01	-3.066207e+00
1.230396e+01	-3.091870e+00
1.237503e+01	-3.117181e+00
1.244651e+01	-3.143090e+00
1.251840e+01	-3.168899e+00
1.259070e+01	-3.194986e+00
1.266343e+01	-3.220870e+00
1.273657e+01	-3.247367e+00
1.281014e+01	-3.273480e+00
1.288413e+01	-3.300250e+00
1.295855e+01	-3.326854e+00
1.303339e+01	-3.353886e+00
1.310867e+01	-3.380614e+00
1.318439e+01	-3.408070e+00
1.326054e+01	-3.435024e+00
1.333713e+01	-3.462403e+00
1.341417e+01	-3.490094e+00
1.349165e+01	-3.518052e+00
1.356958e+01	-3.545644e+00
1.364795e+01	-3.573707e+00
1.372678e+01	-3.601710e+00
1.380607e+01	-3.630228e+00
1.388581e+01	-3.658705e+00
1.396602e+01	-3.687028e+00
1.404668e+01	-3.715677e+00
1.412782e+01	-3.744619e+00
1.420942e+01	-3.773333e+00
1.429149e+01	-3.802467e+00
1.437404e+01	-3.831708e+00
1.445706e+01	-3.861552e+00
1.454057e+01	-3.890964e+00
1.462455e+01	-3.920223e+00
1.470902e+01	-3.950288e+00
1.479398e+01	-3.980205e+00
1.487943e+01	-4.010334e+00
1.496537e+01	-4.040523e+00
1.505181e+01	-4.070999e+00
1.513875e+01	-4.101305e+00
1.522619e+01	-4.131940e+00
1.531414e+01	-4.162785e+00
1.540259e+01	-4.193897e+00
1.549156e+01	-4.224814e+00
1.558103e+01	-4.256217e+00
1.567103e+01	-4.287242e+00
1.576155e+01	-4.318669e+00
1.585258e+01	-4.350045e+00
1.594415e+01	-4.381893e+00
1.603624e+01	-4.413722e+00
1.612886e+01	-4.445931e+00
1.622202e+01	-4.477893e+00
1.631572e+01	-4.510256e+00
1.640996e+01	-4.542492e+00
1.650474e+01	-4.574918e+00
1.660008e+01	-4.607431e+00
1.669596e+01	-4.640403e+00
1.679239e+01	-4.673562e+00
1.688938e+01	-4.706516e+00
1.698694e+01	-4.739635e+00
1.708505e+01	-4.772854e+00
1.718373e+01	-4.806369e+00
1.728299e+01	-4.839892e+00
1.738281e+01	-4.873552e+00
1.748322e+01	-4.907361e+00
1.758420e+01	-4.941411e+00
1.768576e+01	-4.975550e+00
1.778792e+01	-5.009627e+00
1.789066e+01	-5.043808e+00
1.799399e+01	-5.078168e+00
1.809793e+01	-5.112760e+00
1.820246e+01	-5.147738e+00
1.830760e+01	-5.182484e+00
1.841334e+01	-5.217294e+00
1.851969e+01	-5.252414e+00
1.862666e+01	-5.287552e+00
1.873425e+01	-5.322655e+00
1.884246e+01	-5.358065e+00
1.895129e+01	-5.393366e+00
1.906075e+01	-5.428968e+00
1.917085e+01	-5.465057e+00
1.928158e+01	-5.500848e+00
1.939295e+01	-5.536855e+00
1.950496e+01	-5.572924e+00
1.961762e+01	-5.609279e+00
1.973093e+01	-5.645713e+00
1.984490e+01	-5.682278e+00
1.995952e+01	-5.719031e+00
2.007480e+01	-5.755397e+00
2.019076e+01	-5.791926e+00
2.030738e+01	-5.828953e+00
2.042467e+01	-5.865961e+00
2.054264e+01	-5.902889e+00
2.066130e+01	-5.940141e+00
2.078064e+01	-5.977235e+00
2.090066e+01	-6.014962e+00
2.102139e+01	-6.052407e+00
2.114280e+01	-6.090220e+00
2.126492e+01	-6.128167e+00
2.138775e+01	-6.165960e+00
2.151128e+01	-6.203833e+00
2.163553e+01	-6.241795e+00
2.176050e+01	-6.280402e+00
2.188619e+01	-6.318366e+00
2.201260e+01	-6.356918e+00
2.213974e+01	-6.395251e+00
2.226762e+01	-6.433675e+00
2.239624e+01	-6.472784e+00
2.252560e+01	-6.511773e+00
2.265571e+01	-6.550523e+00
2.278656e+01	-6.589503e+00
2.291818e+01	-6.628512e+00
2.305055e+01	-6.667992e+00
2.318369e+01	-6.706658e+00
2.331760e+01	-6.746327e+00
2.345228e+01	-6.785605e+00
2.358774e+01	-6.825608e+00
2.372398e+01	-6.865171e+00
2.386101e+01	-6.904903e+00
2.399883e+01	-6.944909e+00
2.413745e+01	-6.985061e+00
2.427686e+01	-7.025000e+00
2.441709e+01	-7.065047e+00
2.455812e+01	-7.105277e+00
2.469997e+01	-7.145366e+00
2.484263e+01	-7.185492e+00
2.498612e+01	-7.226320e+00
2.513044e+01	-7.266979e+00
2.527559e+01	-7.307842e+00
2.542158e+01	-7.348388e+00
2.556842e+01	-7.389171e+00
2.571610e+01	-7.430269e+00
2.586463e+01	-7.471016e+00
2.601403e+01	-7.512417e+00
2.616428e+01	-7.553450e+00
2.631541e+01	-7.594959e+00
2.646740e+01	-7.636549e+00
2.662028e+01	-7.677874e+00
2.677404e+01	-7.719014e+00
2.692868e+01	-7.761038e+00
2.708422e+01	-7.802852e+00
2.724066e+01	-7.844988e+00
2.739800e+01	-7.886028e+00
2.755625e+01	-7.928342e+00
2.771541e+01	-7.969882e+00
2.787550e+01	-8.012198e+00
2.803650e+01	-8.054644e+00
2.819844e+01	-8.096465e+00
2.836131e+01	-8.138832e+00
2.852513e+01	-8.180914e+00
2.868989e+01	-8.223624e+00
2.885560e+01	-8.266158e+00
2.902227e+01	-8.308753e+00
2.918990e+01	-8.351394e+00
2.935850e+01	-8.394353e+00
2.952807e+01	-8.437272e+00
2.969863e+01	-8.480105e+00
2.987016e+01	-8.523092e+00
3.004269e+01	-8.566143e+00
3.021622e+01	-8.609526e+00
3.039075e+01	-8.652522e+00
3.056628e+01	-8.695069e+00
3.074283e+01	-8.738800e+00
3.092040e+01	-8.781978e+00
3.109900e+01	-8.825651e+00
3.127862e+01	-8.869171e+00
3.145929e+01	-8.912987e+00
3.164099e+01	-8.956701e+00
3.182375e+01	-9.000081e+00
3.200756e+01	-9.044159e+00
3.219244e+01	-9.087634e+00
3.237838e+01	-9.131545e+00
3.256540e+01	-9.176021e+00
3.275349e+01	-9.219387e+00
3.294268e+01	-9.263623e+00
3.313295e+01	-9.307295e+00
3.332433e+01	-9.351985e+00
3.351681e+01	-9.396503e+00
3.371040e+01	-9.440645e+00
3.390511e+01	-9.484667e+00
3.410094e+01	-9.529170e+00
3.429791e+01	-9.573653e+00
3.449601e+01	-9.618165e+00
3.469526e+01	-9.662716e+00
3.489566e+01	-9.707168e+00
3.509721e+01	-9.752279e+00
3.529993e+01	-9.797320e+00
3.550382e+01	-9.842291e+00
3.570889e+01	-9.886436e+00
3.591515e+01	-9.931547e+00
3.612259e+01	-9.976415e+00
3.633123e+01	-1.002120e+01
3.654108e+01	-1.006622e+01
3.675214e+01	-1.011174e+01
3.696442e+01	-1.015681e+01
3.717792e+01	-1.020220e+01
3.739266e+01	-1.024753e+01
3.760864e+01	-1.029267e+01
3.782587e+01	-1.033780e+01
3.804435e+01	-1.038376e+01
3.826409e+01	-1.042901e+01
3.848510e+01	-1.047455e+01
3.870739e+01	-1.052055e+01
3.893096e+01	-1.056566e+01
3.915583e+01	-1.061136e+01
3.938199e+01	-1.065722e+01
3.960946e+01	-1.070339e+01
3.983824e+01	-1.074864e+01
4.006834e+01	-1.079381e+01
4.029978e+01	-1.084049e+01
4.053255e+01	-1.088628e+01
4.076666e+01	-1.093234e+01
4.100213e+01	-1.097857e+01
4.123896e+01	-1.102411e+01
4.147715e+01	-1.106985e+01
4.171672e+01	-1.111649e+01
4.195767e+01	-1.116294e+01
4.220002e+01	-1.120811e+01
4.244377e+01	-1.125568e+01
4.268892e+01	-1.130122e+01
4.293549e+01	-1.134767e+01
4.318348e+01	-1.139466e+01
4.343291e+01	-1.144029e+01
4.368377e+01	-1.148661e+01
4.393609e+01	-1.153385e+01
4.418986e+01	-1.158035e+01
4.444510e+01	-1.162680e+01
4.470182e+01	-1.167333e+01
4.496001e+01	-1.171960e+01
4.521970e+01	-1.176677e+01
4.548089e+01	-1.181330e+01
4.574358e+01	-1.186001e+01
4.600779e+01	-1.190663e+01
4.627353e+01	-1.195428e+01
4.654081e+01	-1.200033e+01
4.680963e+01	-1.204727e+01
4.708000e+01	-1.209396e+01
4.735193e+01	-1.214093e+01
4.762543e+01	-1.218799e+01
4.790051e+01	-1.223459e+01
4.817719e+01	-1.228197e+01
4.845545e+01	-1.232865e+01
4.873533e+01	-1.237689e+01
4.901682e+01	-1.242390e+01
4.929994e+01	-1.247040e+01
4.958470e+01	-1.251720e+01
4.987110e+01	-1.256487e+01
5.015915e+01	-1.261158e+01
5.044887e+01	-1.265999e+01
5.074026e+01	-1.270755e+01
5.103333e+01	-1.275458e+01
5.132810e+01	-1.280134e+01
5.162457e+01	-1.284893e+01
5.192275e+01	-1.289668e+01
5.222265e+01	-1.294460e+01
5.252429e+01	-1.299160e+01
5.282767e+01	-1.303868e+01
5.313280e+01	-1.308621e+01
5.343969e+01	-1.313527e+01
5.374836e+01	-1.318153e+01
5.405880e+01	-1.322921e+01
5.437105e+01	-1.327787e+01
5.468509e+01	-1.332444e+01
5.500095e+01	-1.337274e+01
5.531863e+01	-1.342091e+01
5.563815e+01	-1.346824e+01
5.595951e+01	-1.351552e+01
5.628273e+01	-1.356354e+01
5.660782e+01	-1.361106e+01
5.693479e+01	-1.365891e+01
5.726364e+01	-1.370744e+01
5.759439e+01	-1.375592e+01
5.792705e+01	-1.380351e+01
5.826164e+01	-1.385086e+01
5.859815e+01	-1.389950e+01
5.893662e+01	-1.394698e+01
5.927703e+01	-1.399563e+01
5.961941e+01	-1.404320e+01
5.996377e+01	-1.409101e+01
6.031012e+01	-1.414001e+01
6.065847e+01	-1.418679e+01
6.100883e+01	-1.423606e+01
6.136121e+01	-1.428451e+01
6.171563e+01	-1.433163e+01
6.207210e+01	-1.437957e+01
6.243063e+01	-1.442902e+01
6.279122e+01	-1.447636e+01
6.315390e+01	-1.452464e+01
6.351868e+01	-1.457386e+01
6.388556e+01	-1.462132e+01
6.425456e+01	-1.467070e+01
6.462569e+01	-1.471818e+01
6.499897e+01	-1.476586e+01
6.537440e+01	-1.481534e+01
6.575200e+01	-1.486366e+01
6.613178e+01	-1.491140e+01
6.651375e+01	-1.495995e+01
6.689793e+01	-1.500844e+01
6.728433e+01	-1.505578e+01
6.767297e+01	-1.510525e+01
6.806384e+01	-1.515443e+01
6.845698e+01	-1.520220e+01
6.885238e+01	-1.525148e+01
6.925007e+01	-1.530023e+01
6.965005e+01	-1.534826e+01
7.005235e+01	-1.539617e+01
7.045697e+01	-1.544545e+01
7.086393e+01	-1.549413e+01
7.127323e+01	-1.554203e+01
7.168490e+01	-1.559203e+01
7.209895e+01	-1.563967e+01
7.251539e+01	-1.568849e+01
7.293424e+01	-1.573610e+01
7.335551e+01	-1.578635e+01
7.377920e+01	-1.583412e+01
7.420535e+01	-1.588296e+01
7.463396e+01	-1.593143e+01
7.506504e+01	-1.598023e+01
7.549861e+01	-1.602982e+01
7.593469e+01	-1.607826e+01
7.637328e+01	-1.612723e+01
7.681441e+01	-1.617531e+01
7.725809e+01	-1.622555e+01
7.770433e+01	-1.627269e+01
7.815315e+01	-1.632249e+01
7.860456e+01	-1.637009e+01
7.905857e+01	-1.642001e+01
7.951521e+01	-1.646953e+01
7.997449e+01	-1.651840e+01
8.043642e+01	-1.656664e+01
8.090102e+01	-1.661638e+01
8.136830e+01	-1.666504e+01
8.183828e+01	-1.671392e+01
8.231097e+01	-1.676344e+01
8.278640e+01	-1.681188e+01
8.326457e+01	-1.686017e+01
8.374550e+01	-1.691023e+01
8.422921e+01	-1.695920e+01
8.471572e+01	-1.700730e+01
8.520503e+01	-1.705723e+01
8.569717e+01	-1.710651e+01
8.619215e+01	-1.715450e+01
8.669000e+01	-1.720450e+01
8.719071e+01	-1.725288e+01
8.769432e+01	-1.730196e+01
8.820084e+01	-1.735061e+01
8.871029e+01	-1.740044e+01
8.922267e+01	-1.744909e+01
8.973802e+01	-1.749934e+01
9.025634e+01	-1.754703e+01
9.077766e+01	-1.759567e+01
9.130199e+01	-1.764596e+01
9.182935e+01	-1.769414e+01
9.235975e+01	-1.774466e+01
9.289321e+01	-1.779274e+01
9.342976e+01	-1.784245e+01
9.396941e+01	-1.789123e+01
9.451217e+01	-1.794123e+01
9.505807e+01	-1.799033e+01
9.560712e+01	-1.803944e+01
9.615934e+01	-1.808904e+01
9.671476e+01	-1.813817e+01
9.727338e+01	-1.818654e+01
9.783522e+01	-1.823722e+01
9.840032e+01	-1.828589e+01
9.896867e+01	-1.833449e+01
9.954031e+01	-1.838485e+01
1.001153e+02	-1.843335e+01
1.006935e+02	-1.848323e+01
1.012751e+02	-1.853228e+01
1.018601e+02	-1.858195e+01
1.024484e+02	-1.863195e+01
1.030402e+02	-1.868101e+01
1.036353e+02	-1.872942e+01
1.042339e+02	-1.877987e+01
1.048360e+02	-1.882948e+01
1.054415e+02	-1.887792e+01
1.060505e+02	-1.892670e+01
1.066631e+02	-1.897598e+01
1.072791e+02	-1.902678e+01
1.078988e+02	-1.907372e+01
1.085220e+02	-1.912604e+01
1.091488e+02	-1.917533e+01
1.097793e+02	-1.922462e+01
1.104133e+02	-1.927351e+01
1.110511e+02	-1.932283e+01
1.116925e+02	-1.937204e+01
1.123376e+02	-1.942076e+01
1.129865e+02	-1.947012e+01
1.136391e+02	-1.952107e+01
1.142955e+02	-1.957050e+01
1.149556e+02	-1.962074e+01
1.156196e+02	-1.966921e+01
1.162874e+02	-1.971868e+01
1.169591e+02	-1.976754e+01
1.176347e+02	-1.981807e+01
1.183141e+02	-1.986676e+01
1.189975e+02	-1.991566e+01
1.196848e+02	-1.996797e+01
1.203761e+02	-2.001538e+01
1.210714e+02	-2.006624e+01
1.217707e+02	-2.011438e+01
1.224740e+02	-2.016517e+01
1.231814e+02	-2.021434e+01
1.238929e+02	-2.026409e+01
1.246085e+02	-2.031377e+01
1.253283e+02	-2.036297e+01
1.260522e+02	-2.041211e+01
1.267802e+02	-2.046146e+01
1.275125e+02	-2.051248e+01
1.282490e+02	-2.056124e+01
1.289898e+02	-2.060923e+01
1.297348e+02	-2.065932e+01
1.304842e+02	-2.071063e+01
1.312378e+02	-2.075930e+01
1.319959e+02	-2.080993e+01
1.327583e+02	-2.085747e+01
1.335251e+02	-2.090797e+01
1.342963e+02	-2.095901e+01
1.350720e+02	-2.100813e+01
1.358522e+02	-2.105663e+01
1.366368e+02	-2.110806e+01
1.374260e+02	-2.115614e+01
1.382198e+02	-2.120688e+01
1.390182e+02	-2.125480e+01
1.398211e+02	-2.130413e+01
1.406287e+02	-2.135586e+01
1.414410e+02	-2.140433e+01
1.422579e+02	-2.145531e+01
1.430796e+02	-2.150456e+01
1.439060e+02	-2.155323e+01
1.447372e+02	-2.160440e+01
1.455732e+02	-2.165305e+01
1.464141e+02	-2.170271e+01
1.472597e+02	-2.175261e+01
1.481103e+02	-2.180180e+01
1.489658e+02	-2.185440e+01
1.498262e+02	-2.190120e+01
1.506916e+02	-2.195146e+01
1.515620e+02	-2.200157e+01
1.524374e+02	-2.204954e+01
1.533179e+02	-2.210057e+01
1.542034e+02	-2.215181e+01
1.550941e+02	-2.220058e+01
1.559899e+02	-2.224945e+01
1.568909e+02	-2.230251e+01
1.577971e+02	-2.234735e+01
1.587085e+02	-2.239806e+01
1.596252e+02	-2.245041e+01
1.605472e+02	-2.249847e+01
1.614745e+02	-2.255015e+01
1.624072e+02	-2.259782e+01
1.633453e+02	-2.264811e+01
1.642887e+02	-2.269789e+01
1.652377e+02	-2.274625e+01
1.661921e+02	-2.279509e+01
1.671520e+02	-2.284941e+01
1.681175e+02	-2.289848e+01
1.690885e+02	-2.294622e+01
1.700651e+02	-2.299797e+01
1.710474e+02	-2.304575e+01
1.720354e+02	-2.309781e+01
1.730291e+02	-2.314533e+01
1.740285e+02	-2.319676e+01
1.750337e+02	-2.324625e+01
1.760446e+02	-2.329423e+01
1.770615e+02	-2.334865e+01
1.780842e+02	-2.339523e+01
1.791128e+02	-2.344433e+01
1.801473e+02	-2.349654e+01
1.811878e+02	-2.354305e+01
1.822344e+02	-2.359347e+01
1.832870e+02	-2.364232e+01
1.843456e+02	-2.369300e+01
1.854104e+02	-2.374435e+01
1.864813e+02	-2.379201e+01
1.875584e+02	-2.384675e+01
1.886418e+02	-2.389068e+01
1.897313e+02	-2.394242e+01
1.908272e+02	-2.399572e+01
1.919294e+02	-2.404320e+01
1.930380e+02	-2.409300e+01
1.941530e+02	-2.414298e+01
1.952744e+02	-2.419258e+01
1.964023e+02	-2.424430e+01
1.975367e+02	-2.429254e+01
1.986777e+02	-2.434160e+01
1.998252e+02	-2.439229e+01
2.009794e+02	-2.444287e+01
2.021403e+02	-2.449218e+01
2.033078e+02	-2.454337e+01
2.044821e+02	-2.459236e+01
2.056632e+02	-2.464130e+01
2.068511e+02	-2.469290e+01
2.080459e+02	-2.473956e+01
2.092475e+02	-2.479002e+01
2.104561e+02	-2.484323e+01
2.116717e+02	-2.489279e+01
2.128943e+02	-2.494047e+01
2.141240e+02	-2.498894e+01
2.153608e+02	-2.504231e+01
2.166047e+02	-2.508929e+01
2.178558e+02	-2.513973e+01
2.191141e+02	-2.518731e+01
2.203797e+02	-2.524042e+01
2.216526e+02	-2.528821e+01
2.229329e+02	-2.533955e+01
2.242205e+02	-2.538633e+01
2.255156e+02	-2.543895e+01
2.268182e+02	-2.548943e+01
2.281283e+02	-2.553781e+01
2.294459e+02	-2.558949e+01
2.307712e+02	-2.563959e+01
2.321041e+02	-2.568742e+01
2.334447e+02	-2.573996e+01
2.347931e+02	-2.578693e+01
2.361493e+02	-2.583863e+01
2.375133e+02	-2.588821e+01
2.388851e+02	-2.593835e+01
2.402649e+02	-2.598891e+01
2.416527e+02	-2.603823e+01
2.430484e+02	-2.608857e+01
2.444523e+02	-2.614279e+01
2.458642e+02	-2.618906e+01
2.472843e+02	-2.623536e+01
2.487126e+02	-2.629088e+01
2.501492e+02	-2.633728e+01
2.515940e+02	-2.638875e+01
2.530472e+02	-2.643954e+01
2.545088e+02	-2.649051e+01
2.559789e+02	-2.653760e+01
2.574574e+02	-2.659151e+01
2.589444e+02	-2.663771e+01
2.604401e+02	-2.669069e+01
2.619444e+02	-2.673880e+01
2.634574e+02	-2.678962e+01
2.649791e+02	-2.683791e+01
2.665096e+02	-2.688722e+01
2.680489e+02	-2.693962e+01
2.695972e+02	-2.698476e+01
2.711544e+02	-2.703646e+01
2.727205e+02	-2.708889e+01
2.742958e+02	-2.714049e+01
2.758801e+02	-2.718698e+01
2.774736e+02	-2.723955e+01
2.790762e+02	-2.728694e+01
2.806882e+02	-2.733448e+01
2.823094e+02	-2.738984e+01
2.839400e+02	-2.743761e+01
2.855800e+02	-2.748979e+01
2.872295e+02	-2.753659e+01
2.888886e+02	-2.758520e+01
2.905572e+02	-2.764157e+01
2.922354e+02	-2.768726e+01
2.939234e+02	-2.773762e+01
2.956211e+02	-2.778773e+01
2.973286e+02	-2.784092e+01
2.990459e+02	-2.788987e+01
3.007732e+02	-2.793840e+01
3.025104e+02	-2.798382e+01
3.042577e+02	-2.803818e+01
3.060151e+02	-2.809168e+01
3.077826e+02	-2.813973e+01
3.095604e+02	-2.818688e+01
3.113484e+02	-2.823546e+01
3.131467e+02	-2.829006e+01
3.149554e+02	-2.834185e+01
3.167746e+02	-2.838906e+01
3.186043e+02	-2.843943e+01
3.204445e+02	-2.848899e+01
3.222954e+02	-2.854325e+01
3.241570e+02	-2.859216e+01
3.260293e+02	-2.863896e+01
3.279124e+02	-2.868793e+01
3.298064e+02	-2.873876e+01
3.317114e+02	-2.878729e+01
3.336273e+02	-2.883762e+01
3.355544e+02	-2.888991e+01
3.374925e+02	-2.894038e+01
3.394418e+02	-2.898986e+01
3.414024e+02	-2.903433e+01
3.433744e+02	-2.908644e+01
3.453577e+02	-2.913490e+01
3.473525e+02	-2.918322e+01
3.493588e+02	-2.924306e+01
3.513766e+02	-2.929357e+01
3.534062e+02	-2.933974e+01
3.554474e+02	-2.938804e+01
3.575005e+02	-2.944190e+01
3.595654e+02	-2.949171e+01
3.616422e+02	-2.953739e+01
3.637311e+02	-2.958634e+01
3.658320e+02	-2.964023e+01
3.679450e+02	-2.969464e+01
3.700702e+02	-2.974253e+01
3.722077e+02	-2.979076e+01
3.743576e+02	-2.983831e+01
3.765199e+02	-2.989277e+01
3.786946e+02	-2.994114e+01
3.808820e+02	-2.998999e+01
3.830819e+02	-3.003837e+01
3.852946e+02	-3.009058e+01
3.875200e+02	-3.014370e+01
3.897583e+02	-3.019090e+01
3.920096e+02	-3.024098e+01
3.942738e+02	-3.028880e+01
3.965511e+02	-3.034357e+01
3.988416e+02	-3.039411e+01
4.011452e+02	-3.043999e+01
4.034622e+02	-3.049109e+01
4.057926e+02	-3.054356e+01
4.081365e+02	-3.058865e+01
4.104938e+02	-3.064044e+01
4.128648e+02	-3.069581e+01
4.152495e+02	-3.073545e+01
4.176480e+02	-3.079667e+01
4.200603e+02	-3.084634e+01
4.224866e+02	-3.089361e+01
4.249268e+02	-3.094091e+01
4.273812e+02	-3.099352e+01
4.298497e+02	-3.104117e+01
4.323325e+02	-3.109703e+01
4.348297e+02	-3.114554e+01
4.373412e+02	-3.118850e+01
4.398673e+02	-3.124269e+01
4.424079e+02	-3.129056e+01
4.449633e+02	-3.134275e+01
4.475334e+02	-3.139053e+01
4.501183e+02	-3.144364e+01
4.527182e+02	-3.149377e+01
4.553330e+02	-3.153868e+01
4.579630e+02	-3.159897e+01
4.606082e+02	-3.164816e+01
4.632687e+02	-3.169378e+01
4.659445e+02	-3.174806e+01
4.686358e+02	-3.178572e+01
4.713426e+02	-3.184768e+01
4.740650e+02	-3.189759e+01
4.768032e+02	-3.194698e+01
4.795572e+02	-3.199417e+01
4.823271e+02	-3.204799e+01
4.851130e+02	-3.208930e+01
4.879150e+02	-3.214319e+01
4.907332e+02	-3.219528e+01
4.935676e+02	-3.225039e+01
4.964185e+02	-3.229244e+01
4.992858e+02	-3.234990e+01
5.021696e+02	-3.239717e+01
5.050701e+02	-3.244685e+01
5.079874e+02	-3.249176e+01
5.109215e+02	-3.254605e+01
5.138726e+02	-3.259003e+01
5.168407e+02	-3.265209e+01
5.198259e+02	-3.269704e+01
5.228284e+02	-3.274959e+01
5.258482e+02	-3.280427e+01
5.288855e+02	-3.284994e+01
5.319403e+02	-3.289381e+01
5.350128e+02	-3.294911e+01
5.381030e+02	-3.299674e+01
5.412111e+02	-3.304996e+01
5.443371e+02	-3.309907e+01
5.474812e+02	-3.315082e+01
5.506434e+02	-3.319612e+01
5.538239e+02	-3.324974e+01
5.570228e+02	-3.330298e+01
5.602401e+02	-3.334355e+01
5.634760e+02	-3.339553e+01
5.667306e+02	-3.344926e+01
5.700040e+02	-3.349680e+01
5.732964e+02	-3.355225e+01
5.766077e+02	-3.359959e+01
5.799382e+02	-3.365407e+01
5.832879e+02	-3.370316e+01
5.866569e+02	-3.374829e+01
5.900454e+02	-3.380353e+01
5.934535e+02	-3.384907e+01
5.968813e+02	-3.390919e+01
6.003288e+02	-3.395929e+01
6.037963e+02	-3.400012e+01
6.072838e+02	-3.405622e+01
6.107914e+02	-3.411057e+01
6.143194e+02	-3.415310e+01
6.178676e+02	-3.420877e+01
6.214364e+02	-3.425725e+01
6.250258e+02	-3.430547e+01
6.286359e+02	-3.435025e+01
6.322669e+02	-3.441049e+01
6.359189e+02	-3.445572e+01
6.395919e+02	-3.450034e+01
6.432862e+02	-3.456021e+01
6.470017e+02	-3.459970e+01
6.507388e+02	-3.465799e+01
6.544974e+02	-3.470200e+01
6.582778e+02	-3.476210e+01
6.620800e+02	-3.480830e+01
6.659041e+02	-3.485920e+01
6.697504e+02	-3.490740e+01
6.736188e+02	-3.496851e+01
6.775096e+02	-3.501463e+01
6.814229e+02	-3.506203e+01
6.853587e+02	-3.512290e+01
6.893173e+02	-3.516096e+01
6.932988e+02	-3.522183e+01
6.973033e+02	-3.526328e+01
7.013309e+02	-3.532189e+01
