Frequency(Hz)	Magnitude(dB)
1.000000e+01	-2.113773e+00
1.005776e+01	-2.133111e+00
1.011585e+01	-2.152508e+00
1.017428e+01	-2.172208e+00
1.023305e+01	-2.191933e+00
1.029215e+01	-2.211608e+00
1.035160e+01	-2.231882e+00
1.041139e+01	-2.252099e+00
1.047153e+01	-2.272159e+00
1.053201e+01	-2.292841e+00
1.059284e+01	-2.313307e+00
1.065403e+01	-2.334158e+00
1.071556e+01	-2.354949e+00
1.077746e+01	-2.375803e+00
1.083971e+01	-2.397367e+00
1.090232e+01	-2.418424e+00
1.096529e+01	-2.439843e+00
1.102862e+01	-2.461445e+00
1.109232e+01	-2.483029e+00
1.115639e+01	-2.505055e+00
1.122083e+01	-2.526983e+00
1.128564e+01	-2.549051e+00
1.135083e+01	-2.571386e+00
1.141639e+01	-2.593778e+00
1.148233e+01	-2.616298e+00
1.154865e+01	-2.639292e+00
1.161536e+01	-2.661816e+00
1.168245e+01	-2.685048e+00
1.174992e+01	-2.708130e+00
1.181779e+01	-2.731396e+00
1.188605e+01	-2.754739e+00
1.195470e+01	-2.778208e+00
1.202375e+01	-2.802153e+00
1.209320e+01	-2.825935e+00
1.216305e+01	-2.849903e+00
1.223330e+01	-2.874217e+00
1.230396e+01	-2.898521e+00
1.237503e+01	-2.922592e+00
1.244651e+01	-2.947306e+00
1.251840e+01	-2.971963e+00
1.259070e+01	-2.996786e+00
1.266343e+01	-3.022156e+00
1.273657e+01	-3.046945e+00
1.281014e+01	-3.072271e+00
1.288413e+01	-3.097811e+00
1.295855e+01	-3.123202e+00
1.303339e+01	-3.149209e+00
1.310867e+01	-3.175150e+00
1.318439e+01	-3.200898e+00
1.326054e+01	-3.227269e+00
1.333713e+01	-3.253641e+00
1.341417e+01	-3.279718e+00
1.349165e+01	-3.306544e+00
1.356958e+01	-3.333321e+00
1.364795e+01	-3.360040e+00
1.372678e+01	-3.387081e+00
1.380607e+01	-3.414209e+00
1.388581e+01	-3.441753e+00
1.396602e+01	-3.469091e+00
1.404668e+01	-3.496637e+00
1.412782e+01	-3.524429e+00
1.420942e+01	-3.552119e+00
1.429149e+01	-3.580341e+00
1.437404e+01	-3.608696e+00
1.445706e+01	-3.636659e+00
1.454057e+01	-3.665336e+00
1.462455e+01	-3.693674e+00
1.470902e+01	-3.722343e+00
1.479398e+01	-3.751170e+00
1.487943e+01	-3.780441e+00
1.496537e+01	-3.809647e+00
1.505181e+01	-3.838769e+00
1.513875e+01	-3.868221e+00
1.522619e+01	-3.897811e+00
1.531414e+01	-3.927351e+00
1.540259e+01	-3.957200e+00
1.549156e+01	-3.987255e+00
1.558103e+01	-4.017619e+00
1.567103e+01	-4.047646e+00
1.576155e+01	-4.077970e+00
1.585258e+01	-4.108628e+00
1.594415e+01	-4.139480e+00
1.603624e+01	-4.169974e+00
1.612886e+01	-4.200717e+00
1.622202e+01	-4.231904e+00
1.631572e+01	-4.263400e+00
1.640996e+01	-4.294990e+00
1.650474e+01	-4.326207e+00
1.660008e+01	-4.357837e+00
1.669596e+01	-4.389572e+00
1.679239e+01	-4.421260e+00
1.688938e+01	-4.453500e+00
1.698694e+01	-4.485669e+00
1.708505e+01	-4.517824e+00
1.718373e+01	-4.550266e+00
1.728299e+01	-4.583047e+00
1.738281e+01	-4.615661e+00
1.748322e+01	-4.648478e+00
1.758420e+01	-4.681314e+00
1.768576e+01	-4.714260e+00
1.778792e+01	-4.747601e+00
1.789066e+01	-4.780850e+00
1.799399e+01	-4.814249e+00
1.809793e+01	-4.848121e+00
1.820246e+01	-4.881730e+00
1.830760e+01	-4.915061e+00
1.841334e+01	-4.949114e+00
1.851969e+01	-4.983649e+00
1.862666e+01	-5.017641e+00
1.873425e+01	-5.051892e+00
1.884246e+01	-5.086635e+00
1.895129e+01	-5.121234e+00
1.906075e+01	-5.155977e+00
1.917085e+01	-5.190688e+00
1.928158e+01	-5.225753e+00
1.939295e+01	-5.260660e+00
1.950496e+01	-5.295570e+00
1.961762e+01	-5.330882e+00
1.973093e+01	-5.366503e+00
1.984490e+01	-5.401981e+00
1.995952e+01	-5.437762e+00
2.007480e+01	-5.473748e+00
2.019076e+01	-5.509386e+00
2.030738e+01	-5.545233e+00
2.042467e+01	-5.581852e+00
2.054264e+01	-5.618159e+00
2.066130e+01	-5.653852e+00
2.078064e+01	-5.690621e+00
2.090066e+01	-5.727110e+00
2.102139e+01	-5.763731e+00
2.114280e+01	-5.800720e+00
2.126492e+01	-5.837569e+00
2.138775e+01	-5.874688e+00
2.151128e+01	-5.912028e+00
2.163553e+01	-5.949093e+00
2.176050e+01	-5.986387e+00
2.188619e+01	-6.023967e+00
2.201260e+01	-6.061685e+00
2.213974e+01	-6.099495e+00
2.226762e+01	-6.137191e+00
2.239624e+01	-6.174614e+00
2.252560e+01	-6.213182e+00
2.265571e+01	-6.251084e+00
2.278656e+01	-6.289089e+00
2.291818e+01	-6.327585e+00
2.305055e+01	-6.365993e+00
2.318369e+01	-6.404879e+00
2.331760e+01	-6.442998e+00
2.345228e+01	-6.481849e+00
2.358774e+01	-6.520516e+00
2.372398e+01	-6.559437e+00
2.386101e+01	-6.598473e+00
2.399883e+01	-6.637808e+00
2.413745e+01	-6.677032e+00
2.427686e+01	-6.716200e+00
2.441709e+01	-6.755961e+00
2.455812e+01	-6.795609e+00
2.469997e+01	-6.834967e+00
2.484263e+01	-6.874244e+00
2.498612e+01	-6.914219e+00
2.513044e+01	-6.954058e+00
2.527559e+01	-6.993911e+00
2.542158e+01	-7.034571e+00
2.556842e+01	-7.074462e+00
2.571610e+01	-7.114445e+00
2.586463e+01	-7.155368e+00
2.601403e+01	-7.195592e+00
2.616428e+01	-7.235917e+00
2.631541e+01	-7.276215e+00
2.646740e+01	-7.317442e+00
2.662028e+01	-7.358397e+00
2.677404e+01	-7.399052e+00
2.692868e+01	-7.440149e+00
2.708422e+01	-7.481357e+00
2.724066e+01	-7.522079e+00
2.739800e+01	-7.563312e+00
2.755625e+01	-7.604494e+00
2.771541e+01	-7.646134e+00
2.787550e+01	-7.687361e+00
2.803650e+01	-7.728736e+00
2.819844e+01	-7.770417e+00
2.836131e+01	-7.812388e+00
2.852513e+01	-7.854278e+00
2.868989e+01	-7.896057e+00
2.885560e+01	-7.938202e+00
2.902227e+01	-7.979886e+00
2.918990e+01	-8.022023e+00
2.935850e+01	-8.064073e+00
2.952807e+01	-8.106612e+00
2.969863e+01	-8.149234e+00
2.987016e+01	-8.191502e+00
3.004269e+01	-8.233796e+00
3.021622e+01	-8.276582e+00
3.039075e+01	-8.319276e+00
3.056628e+01	-8.361930e+00
3.074283e+01	-8.404564e+00
3.092040e+01	-8.447391e+00
3.109900e+01	-8.489882e+00
3.127862e+01	-8.533070e+00
3.145929e+01	-8.576097e+00
3.164099e+01	-8.619302e+00
3.182375e+01	-8.662623e+00
3.200756e+01	-8.705433e+00
3.219244e+01	-8.749000e+00
3.237838e+01	-8.792608e+00
3.256540e+01	-8.835628e+00
3.275349e+01	-8.879058e+00
3.294268e+01	-8.922893e+00
3.313295e+01	-8.966435e+00
3.332433e+01	-9.010572e+00
3.351681e+01	-9.053823e+00
3.371040e+01	-9.098139e+00
3.390511e+01	-9.142196e+00
3.410094e+01	-9.185586e+00
3.429791e+01	-9.229617e+00
3.449601e+01	-9.273739e+00
3.469526e+01	-9.318270e+00
3.489566e+01	-9.361771e+00
3.509721e+01	-9.406731e+00
3.529993e+01	-9.450676e+00
3.550382e+01	-9.494949e+00
3.570889e+01	-9.539543e+00
3.591515e+01	-9.583973e+00
3.612259e+01	-9.628961e+00
3.633123e+01	-9.673459e+00
3.654108e+01	-9.717894e+00
3.675214e+01	-9.762786e+00
3.696442e+01	-9.807870e+00
3.717792e+01	-9.852388e+00
3.739266e+01	-9.896928e+00
3.760864e+01	-9.942359e+00
3.782587e+01	-9.987173e+00
3.804435e+01	-1.003203e+01
3.826409e+01	-1.007644e+01
3.848510e+01	-1.012235e+01
3.870739e+01	-1.016746e+01
3.893096e+01	-1.021238e+01
3.915583e+01	-1.025802e+01
3.938199e+01	-1.030340e+01
3.960946e+01	-1.034878e+01
3.983824e+01	-1.039436e+01
4.006834e+01	-1.043941e+01
4.029978e+01	-1.048510e+01
4.053255e+01	-1.053039e+01
4.076666e+01	-1.057638e+01
4.100213e+01	-1.062175e+01
4.123896e+01	-1.066750e+01
4.147715e+01	-1.071310e+01
4.171672e+01	-1.075946e+01
4.195767e+01	-1.080513e+01
4.220002e+01	-1.085133e+01
4.244377e+01	-1.089658e+01
4.268892e+01	-1.094291e+01
4.293549e+01	-1.098901e+01
4.318348e+01	-1.103484e+01
4.343291e+01	-1.108085e+01
4.368377e+01	-1.112727e+01
4.393609e+01	-1.117348e+01
4.418986e+01	-1.122003e+01
4.444510e+01	-1.126575e+01
4.470182e+01	-1.131253e+01
4.496001e+01	-1.135845e+01
4.521970e+01	-1.140496e+01
4.548089e+01	-1.145127e+01
4.574358e+01	-1.149867e+01
4.600779e+01	-1.154517e+01
4.627353e+01	-1.159123e+01
4.654081e+01	-1.163765e+01
4.680963e+01	-1.168406e+01
4.708000e+01	-1.173154e+01
4.735193e+01	-1.177810e+01
4.762543e+01	-1.182467e+01
4.790051e+01	-1.187110e+01
4.817719e+01	-1.191829e+01
4.845545e+01	-1.196406e+01
4.873533e+01	-1.201214e+01
4.901682e+01	-1.205878e+01
4.929994e+01	-1.210582e+01
4.958470e+01	-1.215316e+01
4.987110e+01	-1.219921e+01
5.015915e+01	-1.224698e+01
5.044887e+01	-1.229300e+01
5.074026e+01	-1.234046e+01
5.103333e+01	-1.238819e+01
5.132810e+01	-1.243437e+01
5.162457e+01	-1.248190e+01
5.192275e+01	-1.252940e+01
5.222265e+01	-1.257680e+01
5.252429e+01	-1.262336e+01
5.282767e+01	-1.267135e+01
5.313280e+01	-1.271821e+01
5.343969e+01	-1.276615e+01
5.374836e+01	-1.281308e+01
5.405880e+01	-1.286038e+01
5.437105e+01	-1.290829e+01
5.468509e+01	-1.295540e+01
5.500095e+01	-1.300325e+01
5.531863e+01	-1.305008e+01
5.563815e+01	-1.309854e+01
5.595951e+01	-1.314534e+01
5.628273e+01	-1.319359e+01
5.660782e+01	-1.324158e+01
5.693479e+01	-1.328918e+01
5.726364e+01	-1.333603e+01
5.759439e+01	-1.338435e+01
5.792705e+01	-1.343202e+01
5.826164e+01	-1.347932e+01
5.859815e+01	-1.352725e+01
5.893662e+01	-1.357494e+01
5.927703e+01	-1.362294e+01
5.961941e+01	-1.367030e+01
5.996377e+01	-1.371853e+01
6.031012e+01	-1.376670e+01
6.065847e+01	-1.381437e+01
6.100883e+01	-1.386264e+01
6.136121e+01	-1.391073e+01
6.171563e+01	-1.395948e+01
6.207210e+01	-1.400582e+01
6.243063e+01	-1.405442e+01
6.279122e+01	-1.410290e+01
6.315390e+01	-1.415055e+01
6.351868e+01	-1.419844e+01
6.388556e+01	-1.424673e+01
6.425456e+01	-1.429667e+01
6.462569e+01	-1.434322e+01
6.499897e+01	-1.439221e+01
6.537440e+01	-1.443939e+01
6.575200e+01	-1.448812e+01
6.613178e+01	-1.453641e+01
6.651375e+01	-1.458506e+01
6.689793e+01	-1.463312e+01
6.728433e+01	-1.468134e+01
6.767297e+01	-1.472944e+01
6.806384e+01	-1.477817e+01
6.845698e+01	-1.482602e+01
6.885238e+01	-1.487540e+01
6.925007e+01	-1.492414e+01
6.965005e+01	-1.497187e+01
7.005235e+01	-1.502022e+01
7.045697e+01	-1.506803e+01
7.086393e+01	-1.511650e+01
7.127323e+01	-1.516497e+01
7.168490e+01	-1.521381e+01
7.209895e+01	-1.526120e+01
7.251539e+01	-1.531062e+01
7.293424e+01	-1.535913e+01
7.335551e+01	-1.540803e+01
7.377920e+01	-1.545666e+01
7.420535e+01	-1.550477e+01
7.463396e+01	-1.555313e+01
7.506504e+01	-1.560301e+01
7.549861e+01	-1.565102e+01
7.593469e+01	-1.569923e+01
7.637328e+01	-1.574910e+01
7.681441e+01	-1.579662e+01
7.725809e+01	-1.584578e+01
7.770433e+01	-1.589455e+01
7.815315e+01	-1.594351e+01
7.860456e+01	-1.599266e+01
7.905857e+01	-1.604080e+01
7.951521e+01	-1.609006e+01
7.997449e+01	-1.613924e+01
8.043642e+01	-1.618608e+01
8.090102e+01	-1.623749e+01
8.136830e+01	-1.628645e+01
8.183828e+01	-1.633391e+01
8.231097e+01	-1.638262e+01
8.278640e+01	-1.643186e+01
8.326457e+01	-1.648079e+01
8.374550e+01	-1.652903e+01
8.422921e+01	-1.657809e+01
8.471572e+01	-1.662776e+01
8.520503e+01	-1.667656e+01
8.569717e+01	-1.672589e+01
8.619215e+01	-1.677400e+01
8.669000e+01	-1.682294e+01
8.719071e+01	-1.687287e+01
8.769432e+01	-1.692141e+01
8.820084e+01	-1.697184e+01
8.871029e+01	-1.701931e+01
8.922267e+01	-1.706828e+01
8.973802e+01	-1.711789e+01
9.025634e+01	-1.716674e+01
9.077766e+01	-1.721476e+01
9.130199e+01	-1.726399e+01
9.182935e+01	-1.731397e+01
9.235975e+01	-1.736321e+01
9.289321e+01	-1.741136e+01
9.342976e+01	-1.746034e+01
9.396941e+01	-1.750936e+01
9.451217e+01	-1.755798e+01
9.505807e+01	-1.760812e+01
9.560712e+01	-1.765821e+01
9.615934e+01	-1.770772e+01
9.671476e+01	-1.775520e+01
9.727338e+01	-1.780473e+01
9.783522e+01	-1.785386e+01
9.840032e+01	-1.790400e+01
9.896867e+01	-1.795282e+01
9.954031e+01	-1.800241e+01
1.001153e+02	-1.805088e+01
1.006935e+02	-1.810066e+01
1.012751e+02	-1.815082e+01
1.018601e+02	-1.819880e+01
1.024484e+02	-1.824820e+01
1.030402e+02	-1.829691e+01
1.036353e+02	-1.834688e+01
1.042339e+02	-1.839506e+01
1.048360e+02	-1.844485e+01
1.054415e+02	-1.849365e+01
1.060505e+02	-1.854323e+01
1.066631e+02	-1.859277e+01
1.072791e+02	-1.864148e+01
1.078988e+02	-1.869300e+01
1.085220e+02	-1.874262e+01
1.091488e+02	-1.879297e+01
1.097793e+02	-1.883947e+01
1.104133e+02	-1.889000e+01
1.110511e+02	-1.893875e+01
1.116925e+02	-1.898789e+01
1.123376e+02	-1.903793e+01
1.129865e+02	-1.908710e+01
1.136391e+02	-1.913736e+01
1.142955e+02	-1.918855e+01
1.149556e+02	-1.923477e+01
1.156196e+02	-1.928574e+01
1.162874e+02	-1.933524e+01
1.169591e+02	-1.938362e+01
1.176347e+02	-1.943356e+01
1.183141e+02	-1.948410e+01
1.189975e+02	-1.953335e+01
1.196848e+02	-1.958250e+01
1.203761e+02	-1.963147e+01
1.210714e+02	-1.968118e+01
1.217707e+02	-1.973002e+01
1.224740e+02	-1.977965e+01
1.231814e+02	-1.982915e+01
1.238929e+02	-1.987752e+01
1.246085e+02	-1.992860e+01
1.253283e+02	-1.997840e+01
1.260522e+02	-2.002675e+01
1.267802e+02	-2.007564e+01
1.275125e+02	-2.012574e+01
1.282490e+02	-2.017620e+01
1.289898e+02	-2.022465e+01
1.297348e+02	-2.027444e+01
1.304842e+02	-2.032427e+01
1.312378e+02	-2.037467e+01
1.319959e+02	-2.042500e+01
1.327583e+02	-2.047355e+01
1.335251e+02	-2.052363e+01
1.342963e+02	-2.057285e+01
1.350720e+02	-2.062359e+01
1.358522e+02	-2.067111e+01
1.366368e+02	-2.072250e+01
1.374260e+02	-2.077097e+01
1.382198e+02	-2.082015e+01
1.390182e+02	-2.086845e+01
1.398211e+02	-2.092208e+01
1.406287e+02	-2.096935e+01
1.414410e+02	-2.101846e+01
1.422579e+02	-2.106926e+01
1.430796e+02	-2.111805e+01
1.439060e+02	-2.116669e+01
1.447372e+02	-2.121765e+01
1.455732e+02	-2.126861e+01
1.464141e+02	-2.131704e+01
1.472597e+02	-2.136834e+01
1.481103e+02	-2.141634e+01
1.489658e+02	-2.146622e+01
1.498262e+02	-2.151700e+01
1.506916e+02	-2.156567e+01
1.515620e+02	-2.161467e+01
1.524374e+02	-2.166541e+01
1.533179e+02	-2.171460e+01
1.542034e+02	-2.176535e+01
1.550941e+02	-2.181415e+01
1.559899e+02	-2.186438e+01
1.568909e+02	-2.191390e+01
1.577971e+02	-2.196347e+01
1.587085e+02	-2.201420e+01
1.596252e+02	-2.206252e+01
1.605472e+02	-2.211180e+01
1.614745e+02	-2.216230e+01
1.624072e+02	-2.221249e+01
1.633453e+02	-2.226383e+01
1.642887e+02	-2.231115e+01
1.652377e+02	-2.236170e+01
1.661921e+02	-2.241031e+01
1.671520e+02	-2.246125e+01
1.681175e+02	-2.251231e+01
1.690885e+02	-2.256298e+01
1.700651e+02	-2.260941e+01
1.710474e+02	-2.266109e+01
1.720354e+02	-2.270964e+01
1.730291e+02	-2.275876e+01
1.740285e+02	-2.281165e+01
1.750337e+02	-2.285821e+01
1.760446e+02	-2.290892e+01
1.770615e+02	-2.295776e+01
1.780842e+02	-2.300989e+01
1.791128e+02	-2.305718e+01
1.801473e+02	-2.310833e+01
1.811878e+02	-2.315800e+01
1.822344e+02	-2.320910e+01
1.832870e+02	-2.325776e+01
1.843456e+02	-2.330905e+01
1.854104e+02	-2.335913e+01
1.864813e+02	-2.340596e+01
1.875584e+02	-2.345513e+01
1.886418e+02	-2.350669e+01
1.897313e+02	-2.355782e+01
1.908272e+02	-2.360847e+01
1.919294e+02	-2.365712e+01
1.930380e+02	-2.370664e+01
1.941530e+02	-2.375681e+01
1.952744e+02	-2.380427e+01
1.964023e+02	-2.385767e+01
1.975367e+02	-2.390521e+01
1.986777e+02	-2.395246e+01
1.998252e+02	-2.400590e+01
2.009794e+02	-2.405449e+01
2.021403e+02	-2.410359e+01
2.033078e+02	-2.415535e+01
2.044821e+02	-2.420419e+01
2.056632e+02	-2.425286e+01
2.068511e+02	-2.430373e+01
2.080459e+02	-2.435540e+01
2.092475e+02	-2.440585e+01
2.104561e+02	-2.445421e+01
2.116717e+02	-2.450131e+01
2.128943e+02	-2.455266e+01
2.141240e+02	-2.460347e+01
2.153608e+02	-2.465488e+01
2.166047e+02	-2.470489e+01
2.178558e+02	-2.475273e+01
2.191141e+02	-2.480606e+01
2.203797e+02	-2.485088e+01
2.216526e+02	-2.490336e+01
2.229329e+02	-2.495260e+01
2.242205e+02	-2.500084e+01
2.255156e+02	-2.505360e+01
2.268182e+02	-2.510403e+01
2.281283e+02	-2.514918e+01
2.294459e+02	-2.520525e+01
2.307712e+02	-2.525353e+01
2.321041e+02	-2.530147e+01
2.334447e+02	-2.535270e+01
2.347931e+02	-2.540353e+01
2.361493e+02	-2.545216e+01
2.375133e+02	-2.550062e+01
2.388851e+02	-2.555030e+01
2.402649e+02	-2.560198e+01
2.416527e+02	-2.565122e+01
2.430484e+02	-2.570149e+01
2.444523e+02	-2.575252e+01
2.458642e+02	-2.580293e+01
2.472843e+02	-2.584961e+01
2.487126e+02	-2.590487e+01
2.501492e+02	-2.594979e+01
2.515940e+02	-2.600283e+01
2.530472e+02	-2.605248e+01
2.545088e+02	-2.610145e+01
2.559789e+02	-2.615208e+01
2.574574e+02	-2.620367e+01
2.589444e+02	-2.625059e+01
2.604401e+02	-2.630193e+01
2.619444e+02	-2.635235e+01
2.634574e+02	-2.640183e+01
2.649791e+02	-2.645237e+01
2.665096e+02	-2.650465e+01
2.680489e+02	-2.655072e+01
2.695972e+02	-2.659883e+01
2.711544e+02	-2.665224e+01
2.727205e+02	-2.670037e+01
2.742958e+02	-2.675319e+01
2.758801e+02	-2.680173e+01
2.774736e+02	-2.685196e+01
2.790762e+02	-2.690337e+01
2.806882e+02	-2.694978e+01
2.823094e+02	-2.700245e+01
2.839400e+02	-2.705190e+01
2.855800e+02	-2.710157e+01
2.872295e+02	-2.715102e+01
2.888886e+02	-2.720353e+01
2.905572e+02	-2.725062e+01
2.922354e+02	-2.730039e+01
2.939234e+02	-2.735307e+01
2.956211e+02	-2.740273e+01
2.973286e+02	-2.745297e+01
2.990459e+02	-2.749876e+01
3.007732e+02	-2.754863e+01
3.025104e+02	-2.760193e+01
3.042577e+02	-2.764945e+01
3.060151e+02	-2.769732e+01
3.077826e+02	-2.775123e+01
3.095604e+02	-2.780261e+01
3.113484e+02	-2.785252e+01
3.131467e+02	-2.789983e+01
3.149554e+02	-2.795008e+01
3.167746e+02	-2.800221e+01
3.186043e+02	-2.805244e+01
3.204445e+02	-2.810638e+01
3.222954e+02	-2.814840e+01
3.241570e+02	-2.820230e+01
3.260293e+02	-2.825100e+01
3.279124e+02	-2.830095e+01
3.298064e+02	-2.835293e+01
3.317114e+02	-2.840167e+01
3.336273e+02	-2.844841e+01
3.355544e+02	-2.850193e+01
3.374925e+02	-2.854940e+01
3.394418e+02	-2.860408e+01
3.414024e+02	-2.865497e+01
3.433744e+02	-2.870069e+01
3.453577e+02	-2.874964e+01
3.473525e+02	-2.879957e+01
3.493588e+02	-2.885323e+01
3.513766e+02	-2.890435e+01
3.534062e+02	-2.895281e+01
3.554474e+02	-2.900266e+01
3.575005e+02	-2.905484e+01
3.595654e+02	-2.910112e+01
3.616422e+02	-2.915470e+01
3.637311e+02	-2.920362e+01
3.658320e+02	-2.925144e+01
3.679450e+02	-2.930687e+01
3.700702e+02	-2.935197e+01
3.722077e+02	-2.939363e+01
3.743576e+02	-2.945458e+01
3.765199e+02	-2.950410e+01
3.786946e+02	-2.955152e+01
3.808820e+02	-2.960208e+01
3.830819e+02	-2.965404e+01
3.852946e+02	-2.970308e+01
3.875200e+02	-2.975171e+01
3.897583e+02	-2.979659e+01
3.920096e+02	-2.985756e+01
3.942738e+02	-2.990253e+01
3.965511e+02	-2.995130e+01
3.988416e+02	-3.000583e+01
4.011452e+02	-3.006334e+01
4.034622e+02	-3.010355e+01
4.057926e+02	-3.014879e+01
4.081365e+02	-3.020532e+01
4.104938e+02	-3.025624e+01
4.128648e+02	-3.030680e+01
4.152495e+02	-3.035705e+01
4.176480e+02	-3.040729e+01
4.200603e+02	-3.045721e+01
4.224866e+02	-3.050315e+01
4.249268e+02	-3.055770e+01
4.273812e+02	-3.060696e+01
4.298497e+02	-3.065759e+01
4.323325e+02	-3.070442e+01
4.348297e+02	-3.075700e+01
4.373412e+02	-3.080700e+01
4.398673e+02	-3.085655e+01
4.424079e+02	-3.090293e+01
4.449633e+02	-3.095474e+01
4.475334e+02	-3.100509e+01
4.501183e+02	-3.105352e+01
4.527182e+02	-3.110375e+01
4.553330e+02	-3.116084e+01
4.579630e+02	-3.120137e+01
4.606082e+02	-3.125680e+01
4.632687e+02	-3.130336e+01
4.659445e+02	-3.135675e+01
4.686358e+02	-3.140496e+01
4.713426e+02	-3.145952e+01
4.740650e+02	-3.150993e+01
4.768032e+02	-3.156103e+01
4.795572e+02	-3.160237e+01
4.823271e+02	-3.164975e+01
4.851130e+02	-3.171274e+01
4.879150e+02	-3.175635e+01
4.907332e+02	-3.180604e+01
4.935676e+02	-3.186081e+01
4.964185e+02	-3.190611e+01
4.992858e+02	-3.196304e+01
5.021696e+02	-3.201224e+01
5.050701e+02	-3.205901e+01
5.079874e+02	-3.210777e+01
5.109215e+02	-3.215568e+01
5.138726e+02	-3.221201e+01
5.168407e+02	-3.225801e+01
5.198259e+02	-3.231061e+01
5.228284e+02	-3.236235e+01
5.258482e+02	-3.241081e+01
5.288855e+02	-3.245126e+01
5.319403e+02	-3.250502e+01
5.350128e+02	-3.256010e+01
5.381030e+02	-3.261050e+01
5.412111e+02	-3.266072e+01
5.443371e+02	-3.270971e+01
5.474812e+02	-3.276618e+01
5.506434e+02	-3.281444e+01
5.538239e+02	-3.286757e+01
5.570228e+02	-3.291933e+01
5.602401e+02	-3.296685e+01
5.634760e+02	-3.301258e+01
5.667306e+02	-3.306460e+01
5.700040e+02	-3.311103e+01
5.732964e+02	-3.316199e+01
5.766077e+02	-3.321376e+01
5.799382e+02	-3.326777e+01
5.832879e+02	-3.331869e+01
5.866569e+02	-3.336416e+01
5.900454e+02	-3.341003e+01
5.934535e+02	-3.347389e+01
5.968813e+02	-3.351481e+01
6.003288e+02	-3.356125e+01
6.037963e+02	-3.362042e+01
6.072838e+02	-3.366504e+01
6.107914e+02	-3.371716e+01
6.143194e+02	-3.376188e+01
6.178676e+02	-3.381820e+01
6.214364e+02	-3.387241e+01
6.250258e+02	-3.392341e+01
6.286359e+02	-3.397255e+01
6.322669e+02	-3.402308e+01
6.359189e+02	-3.406897e+01
6.395919e+02	-3.412536e+01
6.432862e+02	-3.416530e+01
6.470017e+02	-3.421428e+01
6.507388e+02	-3.427872e+01
6.544974e+02	-3.431990e+01
6.582778e+02	-3.437565e+01
6.620800e+02	-3.442960e+01
6.659041e+02	-3.447119e+01
6.697504e+02	-3.452723e+01
6.736188e+02	-3.457366e+01
6.775096e+02	-3.462107e+01
6.814229e+02	-3.467505e+01
6.853587e+02	-3.472141e+01
6.893173e+02	-3.477669e+01
6.932988e+02	-3.482662e+01
6.973033e+02	-3.487307e+01
7.013309e+02	-3.492517e+01
