Frequency(Hz)	Magnitude(dB)
1.000000e+01	-2.167388e+00
1.005776e+01	-2.187236e+00
1.011585e+01	-2.207067e+00
1.017428e+01	-2.227243e+00
1.023305e+01	-2.247078e+00
1.029215e+01	-2.267483e+00
1.035160e+01	-2.288043e+00
1.041139e+01	-2.308428e+00
1.047153e+01	-2.329435e+00
1.053201e+01	-2.350046e+00
1.059284e+01	-2.370985e+00
1.065403e+01	-2.392184e+00
1.071556e+01	-2.413435e+00
1.077746e+01	-2.434787e+00
1.083971e+01	-2.456361e+00
1.090232e+01	-2.478016e+00
1.096529e+01	-2.499904e+00
1.102862e+01	-2.521498e+00
1.109232e+01	-2.544076e+00
1.115639e+01	-2.566212e+00
1.122083e+01	-2.588504e+00
1.128564e+01	-2.611018e+00
1.135083e+01	-2.633489e+00
1.141639e+01	-2.656522e+00
1.148233e+01	-2.679322e+00
1.154865e+01	-2.702616e+00
1.161536e+01	-2.726080e+00
1.168245e+01	-2.749314e+00
1.174992e+01	-2.772860e+00
1.181779e+01	-2.796446e+00
1.188605e+01	-2.820585e+00
1.195470e+01	-2.844263e+00
1.202375e+01	-2.868410e+00
1.209320e+01	-2.892497e+00
1.216305e+01	-2.916849e+00
1.223330e+01	-2.941795e+00
1.230396e+01	-2.966159e+00
1.237503e+01	-2.990956e+00
1.244651e+01	-3.016235e+00
1.251840e+01	-3.041364e+00
1.259070e+01	-3.066493e+00
1.266343e+01	-3.091915e+00
1.273657e+01	-3.117269e+00
1.281014e+01	-3.143024e+00
1.288413e+01	-3.168958e+00
1.295855e+01	-3.194923e+00
1.303339e+01	-3.221439e+00
1.310867e+01	-3.247392e+00
1.318439e+01	-3.273963e+00
1.326054e+01	-3.300370e+00
1.333713e+01	-3.326918e+00
1.341417e+01	-3.353706e+00
1.349165e+01	-3.380831e+00
1.356958e+01	-3.408004e+00
1.364795e+01	-3.435348e+00
1.372678e+01	-3.462766e+00
1.380607e+01	-3.490169e+00
1.388581e+01	-3.517735e+00
1.396602e+01	-3.545772e+00
1.404668e+01	-3.573850e+00
1.412782e+01	-3.601688e+00
1.420942e+01	-3.630034e+00
1.429149e+01	-3.658697e+00
1.437404e+01	-3.687131e+00
1.445706e+01	-3.715817e+00
1.454057e+01	-3.744484e+00
1.462455e+01	-3.773589e+00
1.470902e+01	-3.802601e+00
1.479398e+01	-3.832003e+00
1.487943e+01	-3.861277e+00
1.496537e+01	-3.890957e+00
1.505181e+01	-3.920576e+00
1.513875e+01	-3.950232e+00
1.522619e+01	-3.980095e+00
1.531414e+01	-4.010291e+00
1.540259e+01	-4.040548e+00
1.549156e+01	-4.070970e+00
1.558103e+01	-4.101735e+00
1.567103e+01	-4.132050e+00
1.576155e+01	-4.163030e+00
1.585258e+01	-4.194017e+00
1.594415e+01	-4.224877e+00
1.603624e+01	-4.255861e+00
1.612886e+01	-4.287387e+00
1.622202e+01	-4.318821e+00
1.631572e+01	-4.350300e+00
1.640996e+01	-4.382146e+00
1.650474e+01	-4.414175e+00
1.660008e+01	-4.445916e+00
1.669596e+01	-4.477886e+00
1.679239e+01	-4.510484e+00
1.688938e+01	-4.542988e+00
1.698694e+01	-4.575440e+00
1.708505e+01	-4.607960e+00
1.718373e+01	-4.640563e+00
1.728299e+01	-4.673454e+00
1.738281e+01	-4.706726e+00
1.748322e+01	-4.739857e+00
1.758420e+01	-4.773227e+00
1.768576e+01	-4.806571e+00
1.778792e+01	-4.839880e+00
1.789066e+01	-4.873755e+00
1.799399e+01	-4.907893e+00
1.809793e+01	-4.941183e+00
1.820246e+01	-4.975594e+00
1.830760e+01	-5.009557e+00
1.841334e+01	-5.043760e+00
1.851969e+01	-5.078244e+00
1.862666e+01	-5.112760e+00
1.873425e+01	-5.147505e+00
1.884246e+01	-5.182400e+00
1.895129e+01	-5.217613e+00
1.906075e+01	-5.252171e+00
1.917085e+01	-5.287505e+00
1.928158e+01	-5.322689e+00
1.939295e+01	-5.358232e+00
1.950496e+01	-5.393531e+00
1.961762e+01	-5.429429e+00
1.973093e+01	-5.465156e+00
1.984490e+01	-5.501093e+00
1.995952e+01	-5.536897e+00
2.007480e+01	-5.572866e+00
2.019076e+01	-5.609268e+00
2.030738e+01	-5.645599e+00
2.042467e+01	-5.682218e+00
2.054264e+01	-5.718799e+00
2.066130e+01	-5.755528e+00
2.078064e+01	-5.792304e+00
2.090066e+01	-5.828926e+00
2.102139e+01	-5.865703e+00
2.114280e+01	-5.903327e+00
2.126492e+01	-5.940251e+00
2.138775e+01	-5.978047e+00
2.151128e+01	-6.015042e+00
2.163553e+01	-6.052687e+00
2.176050e+01	-6.090685e+00
2.188619e+01	-6.127989e+00
2.201260e+01	-6.166081e+00
2.213974e+01	-6.203967e+00
2.226762e+01	-6.242231e+00
2.239624e+01	-6.280131e+00
2.252560e+01	-6.318599e+00
2.265571e+01	-6.356688e+00
2.278656e+01	-6.395891e+00
2.291818e+01	-6.433946e+00
2.305055e+01	-6.472784e+00
2.318369e+01	-6.511730e+00
2.331760e+01	-6.550546e+00
2.345228e+01	-6.589490e+00
2.358774e+01	-6.628680e+00
2.372398e+01	-6.667806e+00
2.386101e+01	-6.707168e+00
2.399883e+01	-6.746225e+00
2.413745e+01	-6.786207e+00
2.427686e+01	-6.825693e+00
2.441709e+01	-6.865450e+00
2.455812e+01	-6.904889e+00
2.469997e+01	-6.944556e+00
2.484263e+01	-6.984795e+00
2.498612e+01	-7.024925e+00
2.513044e+01	-7.064900e+00
2.527559e+01	-7.105298e+00
2.542158e+01	-7.145625e+00
2.556842e+01	-7.186183e+00
2.571610e+01	-7.226547e+00
2.586463e+01	-7.267155e+00
2.601403e+01	-7.308011e+00
2.616428e+01	-7.348803e+00
2.631541e+01	-7.389932e+00
2.646740e+01	-7.430583e+00
2.662028e+01	-7.471571e+00
2.677404e+01	-7.512688e+00
2.692868e+01	-7.553752e+00
2.708422e+01	-7.595202e+00
2.724066e+01	-7.636450e+00
2.739800e+01	-7.677828e+00
2.755625e+01	-7.719461e+00
2.771541e+01	-7.761260e+00
2.787550e+01	-7.802274e+00
2.803650e+01	-7.844766e+00
2.819844e+01	-7.886521e+00
2.836131e+01	-7.927876e+00
2.852513e+01	-7.970179e+00
2.868989e+01	-8.012229e+00
2.885560e+01	-8.054411e+00
2.902227e+01	-8.096647e+00
2.918990e+01	-8.138610e+00
2.935850e+01	-8.181298e+00
2.952807e+01	-8.224217e+00
2.969863e+01	-8.266368e+00
2.987016e+01	-8.308896e+00
3.004269e+01	-8.351443e+00
3.021622e+01	-8.394652e+00
3.039075e+01	-8.437147e+00
3.056628e+01	-8.480174e+00
3.074283e+01	-8.523044e+00
3.092040e+01	-8.566133e+00
3.109900e+01	-8.608982e+00
3.127862e+01	-8.652626e+00
3.145929e+01	-8.695764e+00
3.164099e+01	-8.738569e+00
3.182375e+01	-8.782509e+00
3.200756e+01	-8.825420e+00
3.219244e+01	-8.869596e+00
3.237838e+01	-8.913225e+00
3.256540e+01	-8.956545e+00
3.275349e+01	-9.000475e+00
3.294268e+01	-9.043986e+00
3.313295e+01	-9.087501e+00
3.332433e+01	-9.131649e+00
3.351681e+01	-9.175430e+00
3.371040e+01	-9.219731e+00
3.390511e+01	-9.263828e+00
3.410094e+01	-9.307953e+00
3.429791e+01	-9.351988e+00
3.449601e+01	-9.396119e+00
3.469526e+01	-9.440775e+00
3.489566e+01	-9.485271e+00
3.509721e+01	-9.529376e+00
3.529993e+01	-9.573836e+00
3.550382e+01	-9.618159e+00
3.570889e+01	-9.662556e+00
3.591515e+01	-9.707607e+00
3.612259e+01	-9.752121e+00
3.633123e+01	-9.797039e+00
3.654108e+01	-9.841129e+00
3.675214e+01	-9.886787e+00
3.696442e+01	-9.931474e+00
3.717792e+01	-9.976333e+00
3.739266e+01	-1.002122e+01
3.760864e+01	-1.006658e+01
3.782587e+01	-1.011176e+01
3.804435e+01	-1.015739e+01
3.826409e+01	-1.020281e+01
3.848510e+01	-1.024730e+01
3.870739e+01	-1.029250e+01
3.893096e+01	-1.033824e+01
3.915583e+01	-1.038337e+01
3.938199e+01	-1.042950e+01
3.960946e+01	-1.047446e+01
3.983824e+01	-1.052032e+01
4.006834e+01	-1.056631e+01
4.029978e+01	-1.061126e+01
4.053255e+01	-1.065725e+01
4.076666e+01	-1.070309e+01
4.100213e+01	-1.074868e+01
4.123896e+01	-1.079420e+01
4.147715e+01	-1.084090e+01
4.171672e+01	-1.088627e+01
4.195767e+01	-1.093151e+01
4.220002e+01	-1.097828e+01
4.244377e+01	-1.102457e+01
4.268892e+01	-1.107028e+01
4.293549e+01	-1.111700e+01
4.318348e+01	-1.116229e+01
4.343291e+01	-1.120922e+01
4.368377e+01	-1.125462e+01
4.393609e+01	-1.130193e+01
4.418986e+01	-1.134821e+01
4.444510e+01	-1.139419e+01
4.470182e+01	-1.144055e+01
4.496001e+01	-1.148778e+01
4.521970e+01	-1.153381e+01
4.548089e+01	-1.158101e+01
4.574358e+01	-1.162728e+01
4.600779e+01	-1.167301e+01
4.627353e+01	-1.171975e+01
4.654081e+01	-1.176691e+01
4.680963e+01	-1.181335e+01
4.708000e+01	-1.186019e+01
4.735193e+01	-1.190717e+01
4.762543e+01	-1.195303e+01
4.790051e+01	-1.200091e+01
4.817719e+01	-1.204780e+01
4.845545e+01	-1.209457e+01
4.873533e+01	-1.214119e+01
4.901682e+01	-1.218823e+01
4.929994e+01	-1.223575e+01
4.958470e+01	-1.228219e+01
4.987110e+01	-1.232888e+01
5.015915e+01	-1.237657e+01
5.044887e+01	-1.242438e+01
5.074026e+01	-1.247114e+01
5.103333e+01	-1.251799e+01
5.132810e+01	-1.256484e+01
5.162457e+01	-1.261325e+01
5.192275e+01	-1.265947e+01
5.222265e+01	-1.270715e+01
5.252429e+01	-1.275484e+01
5.282767e+01	-1.280199e+01
5.313280e+01	-1.284960e+01
5.343969e+01	-1.289624e+01
5.374836e+01	-1.294433e+01
5.405880e+01	-1.299182e+01
5.437105e+01	-1.303974e+01
5.468509e+01	-1.308671e+01
5.500095e+01	-1.313423e+01
5.531863e+01	-1.318237e+01
5.563815e+01	-1.323014e+01
5.595951e+01	-1.327836e+01
5.628273e+01	-1.332564e+01
5.660782e+01	-1.337310e+01
5.693479e+01	-1.342044e+01
5.726364e+01	-1.346836e+01
5.759439e+01	-1.351623e+01
5.792705e+01	-1.356364e+01
5.826164e+01	-1.361162e+01
5.859815e+01	-1.365948e+01
5.893662e+01	-1.370676e+01
5.927703e+01	-1.375514e+01
5.961941e+01	-1.380295e+01
5.996377e+01	-1.385118e+01
6.031012e+01	-1.389904e+01
6.065847e+01	-1.394798e+01
6.100883e+01	-1.399477e+01
6.136121e+01	-1.404296e+01
6.171563e+01	-1.409190e+01
6.207210e+01	-1.413992e+01
6.243063e+01	-1.418746e+01
6.279122e+01	-1.423469e+01
6.315390e+01	-1.428434e+01
6.351868e+01	-1.433149e+01
6.388556e+01	-1.438036e+01
6.425456e+01	-1.442924e+01
6.462569e+01	-1.447715e+01
6.499897e+01	-1.452548e+01
6.537440e+01	-1.457297e+01
6.575200e+01	-1.462106e+01
6.613178e+01	-1.467049e+01
6.651375e+01	-1.471827e+01
6.689793e+01	-1.476641e+01
6.728433e+01	-1.481440e+01
6.767297e+01	-1.486362e+01
6.806384e+01	-1.491229e+01
6.845698e+01	-1.496042e+01
6.885238e+01	-1.500897e+01
6.925007e+01	-1.505765e+01
6.965005e+01	-1.510572e+01
7.005235e+01	-1.515381e+01
7.045697e+01	-1.520206e+01
7.086393e+01	-1.525209e+01
7.127323e+01	-1.529966e+01
7.168490e+01	-1.534877e+01
7.209895e+01	-1.539644e+01
7.251539e+01	-1.544549e+01
7.293424e+01	-1.549395e+01
7.335551e+01	-1.554263e+01
7.377920e+01	-1.559033e+01
7.420535e+01	-1.563988e+01
7.463396e+01	-1.568845e+01
7.506504e+01	-1.573731e+01
7.549861e+01	-1.578660e+01
7.593469e+01	-1.583383e+01
7.637328e+01	-1.588295e+01
7.681441e+01	-1.593097e+01
7.725809e+01	-1.598171e+01
7.770433e+01	-1.603141e+01
7.815315e+01	-1.608001e+01
7.860456e+01	-1.612721e+01
7.905857e+01	-1.617597e+01
7.951521e+01	-1.622428e+01
7.997449e+01	-1.627234e+01
8.043642e+01	-1.632305e+01
8.090102e+01	-1.637129e+01
8.136830e+01	-1.641983e+01
8.183828e+01	-1.646872e+01
8.231097e+01	-1.651798e+01
8.278640e+01	-1.656610e+01
8.326457e+01	-1.661687e+01
8.374550e+01	-1.666477e+01
8.422921e+01	-1.671353e+01
8.471572e+01	-1.676300e+01
8.520503e+01	-1.681208e+01
8.569717e+01	-1.686064e+01
8.619215e+01	-1.691101e+01
8.669000e+01	-1.695999e+01
8.719071e+01	-1.700732e+01
8.769432e+01	-1.705674e+01
8.820084e+01	-1.710566e+01
8.871029e+01	-1.715540e+01
8.922267e+01	-1.720372e+01
8.973802e+01	-1.725289e+01
9.025634e+01	-1.730287e+01
9.077766e+01	-1.735070e+01
9.130199e+01	-1.740088e+01
9.182935e+01	-1.744906e+01
9.235975e+01	-1.749910e+01
9.289321e+01	-1.754740e+01
9.342976e+01	-1.759768e+01
9.396941e+01	-1.764653e+01
9.451217e+01	-1.769554e+01
9.505807e+01	-1.774510e+01
9.560712e+01	-1.779287e+01
9.615934e+01	-1.784191e+01
9.671476e+01	-1.789259e+01
9.727338e+01	-1.794072e+01
9.783522e+01	-1.799021e+01
9.840032e+01	-1.804106e+01
9.896867e+01	-1.808826e+01
9.954031e+01	-1.813853e+01
1.001153e+02	-1.818784e+01
1.006935e+02	-1.823671e+01
1.012751e+02	-1.828678e+01
1.018601e+02	-1.833507e+01
1.024484e+02	-1.838452e+01
1.030402e+02	-1.843475e+01
1.036353e+02	-1.848400e+01
1.042339e+02	-1.853260e+01
1.048360e+02	-1.858220e+01
1.054415e+02	-1.863302e+01
1.060505e+02	-1.868110e+01
1.066631e+02	-1.872964e+01
1.072791e+02	-1.878012e+01
1.078988e+02	-1.882908e+01
1.085220e+02	-1.887765e+01
1.091488e+02	-1.892751e+01
1.097793e+02	-1.897796e+01
1.104133e+02	-1.902610e+01
1.110511e+02	-1.907396e+01
1.116925e+02	-1.912462e+01
1.123376e+02	-1.917509e+01
1.129865e+02	-1.922200e+01
1.136391e+02	-1.927315e+01
1.142955e+02	-1.932283e+01
1.149556e+02	-1.937271e+01
1.156196e+02	-1.942295e+01
1.162874e+02	-1.947218e+01
1.169591e+02	-1.952236e+01
1.176347e+02	-1.957133e+01
1.183141e+02	-1.962000e+01
1.189975e+02	-1.967010e+01
1.196848e+02	-1.971892e+01
1.203761e+02	-1.976942e+01
1.210714e+02	-1.981775e+01
1.217707e+02	-1.986469e+01
1.224740e+02	-1.991722e+01
1.231814e+02	-1.996754e+01
1.238929e+02	-2.001674e+01
1.246085e+02	-2.006502e+01
1.253283e+02	-2.011601e+01
1.260522e+02	-2.016445e+01
1.267802e+02	-2.021411e+01
1.275125e+02	-2.026315e+01
1.282490e+02	-2.031329e+01
1.289898e+02	-2.036355e+01
1.297348e+02	-2.041235e+01
1.304842e+02	-2.046104e+01
1.312378e+02	-2.051157e+01
1.319959e+02	-2.056120e+01
1.327583e+02	-2.061085e+01
1.335251e+02	-2.066002e+01
1.342963e+02	-2.070952e+01
1.350720e+02	-2.075943e+01
1.358522e+02	-2.081022e+01
1.366368e+02	-2.085980e+01
1.374260e+02	-2.090850e+01
1.382198e+02	-2.095689e+01
1.390182e+02	-2.100810e+01
1.398211e+02	-2.105790e+01
1.406287e+02	-2.110783e+01
1.414410e+02	-2.115694e+01
1.422579e+02	-2.120676e+01
1.430796e+02	-2.125661e+01
1.439060e+02	-2.130698e+01
1.447372e+02	-2.135549e+01
1.455732e+02	-2.140521e+01
1.464141e+02	-2.145370e+01
1.472597e+02	-2.150331e+01
1.481103e+02	-2.155501e+01
1.489658e+02	-2.160333e+01
1.498262e+02	-2.165494e+01
1.506916e+02	-2.170247e+01
1.515620e+02	-2.175220e+01
1.524374e+02	-2.180466e+01
1.533179e+02	-2.185359e+01
1.542034e+02	-2.190314e+01
1.550941e+02	-2.195416e+01
1.559899e+02	-2.200189e+01
1.568909e+02	-2.205142e+01
1.577971e+02	-2.210237e+01
1.587085e+02	-2.215152e+01
1.596252e+02	-2.220065e+01
1.605472e+02	-2.225084e+01
1.614745e+02	-2.230054e+01
1.624072e+02	-2.235299e+01
1.633453e+02	-2.239961e+01
1.642887e+02	-2.244681e+01
1.652377e+02	-2.249969e+01
1.661921e+02	-2.254789e+01
1.671520e+02	-2.259813e+01
1.681175e+02	-2.264666e+01
1.690885e+02	-2.269957e+01
1.700651e+02	-2.274581e+01
1.710474e+02	-2.279794e+01
1.720354e+02	-2.284882e+01
1.730291e+02	-2.289745e+01
1.740285e+02	-2.294550e+01
1.750337e+02	-2.299724e+01
1.760446e+02	-2.304828e+01
1.770615e+02	-2.309484e+01
1.780842e+02	-2.314698e+01
1.791128e+02	-2.319562e+01
1.801473e+02	-2.324728e+01
1.811878e+02	-2.329454e+01
1.822344e+02	-2.334625e+01
1.832870e+02	-2.339856e+01
1.843456e+02	-2.344732e+01
1.854104e+02	-2.349522e+01
1.864813e+02	-2.354557e+01
1.875584e+02	-2.359575e+01
1.886418e+02	-2.364252e+01
1.897313e+02	-2.369446e+01
1.908272e+02	-2.374468e+01
1.919294e+02	-2.379392e+01
1.930380e+02	-2.384414e+01
1.941530e+02	-2.389411e+01
1.952744e+02	-2.394359e+01
1.964023e+02	-2.399023e+01
1.975367e+02	-2.404183e+01
1.986777e+02	-2.409216e+01
1.998252e+02	-2.414440e+01
2.009794e+02	-2.419384e+01
2.021403e+02	-2.424330e+01
2.033078e+02	-2.429433e+01
2.044821e+02	-2.434246e+01
2.056632e+02	-2.439274e+01
2.068511e+02	-2.444148e+01
2.080459e+02	-2.449159e+01
2.092475e+02	-2.454269e+01
2.104561e+02	-2.459159e+01
2.116717e+02	-2.463981e+01
2.128943e+02	-2.468904e+01
2.141240e+02	-2.474178e+01
2.153608e+02	-2.479022e+01
2.166047e+02	-2.484343e+01
2.178558e+02	-2.489239e+01
2.191141e+02	-2.494214e+01
2.203797e+02	-2.498960e+01
2.216526e+02	-2.504159e+01
2.229329e+02	-2.509179e+01
2.242205e+02	-2.514086e+01
2.255156e+02	-2.519045e+01
2.268182e+02	-2.524402e+01
2.281283e+02	-2.529198e+01
2.294459e+02	-2.533893e+01
2.307712e+02	-2.539008e+01
2.321041e+02	-2.544155e+01
2.334447e+02	-2.549251e+01
2.347931e+02	-2.554175e+01
2.361493e+02	-2.558888e+01
2.375133e+02	-2.563908e+01
2.388851e+02	-2.568944e+01
2.402649e+02	-2.573878e+01
2.416527e+02	-2.579149e+01
2.430484e+02	-2.583826e+01
2.444523e+02	-2.588916e+01
2.458642e+02	-2.593830e+01
2.472843e+02	-2.598844e+01
2.487126e+02	-2.604039e+01
2.501492e+02	-2.608816e+01
2.515940e+02	-2.613824e+01
2.530472e+02	-2.619224e+01
2.545088e+02	-2.624391e+01
2.559789e+02	-2.628584e+01
2.574574e+02	-2.633631e+01
2.589444e+02	-2.638735e+01
2.604401e+02	-2.644065e+01
2.619444e+02	-2.648793e+01
2.634574e+02	-2.653695e+01
2.649791e+02	-2.659225e+01
2.665096e+02	-2.664055e+01
2.680489e+02	-2.668910e+01
2.695972e+02	-2.673923e+01
2.711544e+02	-2.678599e+01
2.727205e+02	-2.683593e+01
2.742958e+02	-2.689289e+01
2.758801e+02	-2.693894e+01
2.774736e+02	-2.698777e+01
2.790762e+02	-2.703701e+01
2.806882e+02	-2.708634e+01
2.823094e+02	-2.714044e+01
2.839400e+02	-2.718671e+01
2.855800e+02	-2.723854e+01
2.872295e+02	-2.729086e+01
2.888886e+02	-2.734168e+01
2.905572e+02	-2.739010e+01
2.922354e+02	-2.744013e+01
2.939234e+02	-2.748988e+01
2.956211e+02	-2.753930e+01
2.973286e+02	-2.758583e+01
2.990459e+02	-2.764148e+01
3.007732e+02	-2.768828e+01
3.025104e+02	-2.774176e+01
3.042577e+02	-2.779050e+01
3.060151e+02	-2.783662e+01
3.077826e+02	-2.789135e+01
3.095604e+02	-2.794092e+01
3.113484e+02	-2.798676e+01
3.131467e+02	-2.803775e+01
3.149554e+02	-2.808857e+01
3.167746e+02	-2.814115e+01
3.186043e+02	-2.819059e+01
3.204445e+02	-2.823859e+01
3.222954e+02	-2.829322e+01
3.241570e+02	-2.833704e+01
3.260293e+02	-2.838994e+01
3.279124e+02	-2.844254e+01
3.298064e+02	-2.849222e+01
3.317114e+02	-2.853850e+01
3.336273e+02	-2.859030e+01
3.355544e+02	-2.864062e+01
3.374925e+02	-2.869207e+01
3.394418e+02	-2.874057e+01
3.414024e+02	-2.878750e+01
3.433744e+02	-2.883693e+01
3.453577e+02	-2.888765e+01
3.473525e+02	-2.894409e+01
3.493588e+02	-2.899139e+01
3.513766e+02	-2.904489e+01
3.534062e+02	-2.908970e+01
3.554474e+02	-2.914348e+01
3.575005e+02	-2.919277e+01
3.595654e+02	-2.923524e+01
3.616422e+02	-2.929024e+01
3.637311e+02	-2.934240e+01
3.658320e+02	-2.939361e+01
3.679450e+02	-2.943920e+01
3.700702e+02	-2.949123e+01
3.722077e+02	-2.954014e+01
3.743576e+02	-2.959391e+01
3.765199e+02	-2.964021e+01
3.786946e+02	-2.969189e+01
3.808820e+02	-2.974091e+01
3.830819e+02	-2.979083e+01
3.852946e+02	-2.983842e+01
3.875200e+02	-2.989565e+01
3.897583e+02	-2.994497e+01
3.920096e+02	-2.999063e+01
3.942738e+02	-3.004180e+01
3.965511e+02	-3.009140e+01
3.988416e+02	-3.014149e+01
4.011452e+02	-3.019323e+01
4.034622e+02	-3.024269e+01
4.057926e+02	-3.028686e+01
4.081365e+02	-3.034526e+01
4.104938e+02	-3.039490e+01
4.128648e+02	-3.044177e+01
4.152495e+02	-3.049711e+01
4.176480e+02	-3.054386e+01
4.200603e+02	-3.059100e+01
4.224866e+02	-3.064240e+01
4.249268e+02	-3.069471e+01
4.273812e+02	-3.073958e+01
4.298497e+02	-3.079310e+01
4.323325e+02	-3.084483e+01
4.348297e+02	-3.089488e+01
4.373412e+02	-3.094276e+01
4.398673e+02	-3.099052e+01
4.424079e+02	-3.104738e+01
4.449633e+02	-3.109437e+01
4.475334e+02	-3.114677e+01
4.501183e+02	-3.119905e+01
4.527182e+02	-3.124358e+01
4.553330e+02	-3.129642e+01
4.579630e+02	-3.134429e+01
4.606082e+02	-3.138871e+01
4.632687e+02	-3.144650e+01
4.659445e+02	-3.149282e+01
4.686358e+02	-3.154282e+01
4.713426e+02	-3.160201e+01
4.740650e+02	-3.164731e+01
4.768032e+02	-3.169239e+01
4.795572e+02	-3.174477e+01
4.823271e+02	-3.179576e+01
4.851130e+02	-3.185101e+01
4.879150e+02	-3.189723e+01
4.907332e+02	-3.194152e+01
4.935676e+02	-3.199389e+01
4.964185e+02	-3.205176e+01
4.992858e+02	-3.209889e+01
5.021696e+02	-3.214831e+01
5.050701e+02	-3.219613e+01
5.079874e+02	-3.224755e+01
5.109215e+02	-3.230318e+01
5.138726e+02	-3.234775e+01
5.168407e+02	-3.240513e+01
5.198259e+02	-3.244524e+01
5.228284e+02	-3.250234e+01
5.258482e+02	-3.255246e+01
5.288855e+02	-3.259928e+01
5.319403e+02	-3.265166e+01
5.350128e+02	-3.269824e+01
5.381030e+02	-3.275407e+01
5.412111e+02	-3.279707e+01
5.443371e+02	-3.285173e+01
5.474812e+02	-3.290069e+01
5.506434e+02	-3.295765e+01
5.538239e+02	-3.299890e+01
5.570228e+02	-3.304647e+01
5.602401e+02	-3.310141e+01
5.634760e+02	-3.315226e+01
5.667306e+02	-3.320213e+01
5.700040e+02	-3.325005e+01
5.732964e+02	-3.330081e+01
5.766077e+02	-3.336086e+01
5.799382e+02	-3.340191e+01
5.832879e+02	-3.346206e+01
5.866569e+02	-3.350697e+01
5.900454e+02	-3.355490e+01
5.934535e+02	-3.359564e+01
5.968813e+02	-3.365533e+01
6.003288e+02	-3.371193e+01
6.037963e+02	-3.376268e+01
6.072838e+02	-3.380965e+01
6.107914e+02	-3.385491e+01
6.143194e+02	-3.390619e+01
6.178676e+02	-3.395582e+01
6.214364e+02	-3.400944e+01
6.250258e+02	-3.405012e+01
6.286359e+02	-3.411144e+01
6.322669e+02	-3.415754e+01
6.359189e+02	-3.420584e+01
6.395919e+02	-3.425855e+01
6.432862e+02	-3.430712e+01
6.470017e+02	-3.435119e+01
6.507388e+02	-3.440477e+01
6.544974e+02	-3.446351e+01
6.582778e+02	-3.451389e+01
6.620800e+02	-3.456205e+01
6.659041e+02	-3.460996e+01
6.697504e+02	-3.466327e+01
6.736188e+02	-3.472067e+01
6.775096e+02	-3.475819e+01
6.814229e+02	-3.481399e+01
6.853587e+02	-3.485853e+01
6.893173e+02	-3.491009e+01
6.932988e+02	-3.496560e+01
6.973033e+02	-3.501544e+01
7.013309e+02	-3.506127e+01
