Frequency(Hz)	Magnitude(dB)
1.000000e+01	-2.265167e+00
1.005776e+01	-2.285152e+00
1.011585e+01	-2.306020e+00
1.017428e+01	-2.326502e+00
1.023305e+01	-2.347447e+00
1.029215e+01	-2.368611e+00
1.035160e+01	-2.389485e+00
1.041139e+01	-2.410685e+00
1.047153e+01	-2.431979e+00
1.053201e+01	-2.453354e+00
1.059284e+01	-2.475278e+00
1.065403e+01	-2.497202e+00
1.071556e+01	-2.519310e+00
1.077746e+01	-2.541058e+00
1.083971e+01	-2.563278e+00
1.090232e+01	-2.585883e+00
1.096529e+01	-2.608234e+00
1.102862e+01	-2.630613e+00
1.109232e+01	-2.653715e+00
1.115639e+01	-2.676577e+00
1.122083e+01	-2.699815e+00
1.128564e+01	-2.722975e+00
1.135083e+01	-2.746227e+00
1.141639e+01	-2.769497e+00
1.148233e+01	-2.793380e+00
1.154865e+01	-2.817426e+00
1.161536e+01	-2.841298e+00
1.168245e+01	-2.864982e+00
1.174992e+01	-2.889487e+00
1.181779e+01	-2.914071e+00
1.188605e+01	-2.938403e+00
1.195470e+01	-2.962908e+00
1.202375e+01	-2.987910e+00
1.209320e+01	-3.013041e+00
1.216305e+01	-3.038079e+00
1.223330e+01	-3.063029e+00
1.230396e+01	-3.088598e+00
1.237503e+01	-3.114194e+00
1.244651e+01	-3.140073e+00
1.251840e+01	-3.165767e+00
1.259070e+01	-3.191527e+00
1.266343e+01	-3.217786e+00
1.273657e+01	-3.243955e+00
1.281014e+01	-3.270515e+00
1.288413e+01	-3.297007e+00
1.295855e+01	-3.323707e+00
1.303339e+01	-3.350322e+00
1.310867e+01	-3.377477e+00
1.318439e+01	-3.404388e+00
1.326054e+01	-3.431813e+00
1.333713e+01	-3.459382e+00
1.341417e+01	-3.486922e+00
1.349165e+01	-3.514251e+00
1.356958e+01	-3.542133e+00
1.364795e+01	-3.570135e+00
1.372678e+01	-3.598565e+00
1.380607e+01	-3.626449e+00
1.388581e+01	-3.654907e+00
1.396602e+01	-3.683614e+00
1.404668e+01	-3.711871e+00
1.412782e+01	-3.740997e+00
1.420942e+01	-3.769911e+00
1.429149e+01	-3.799098e+00
1.437404e+01	-3.828022e+00
1.445706e+01	-3.857637e+00
1.454057e+01	-3.887010e+00
1.462455e+01	-3.916975e+00
1.470902e+01	-3.946605e+00
1.479398e+01	-3.976450e+00
1.487943e+01	-4.006432e+00
1.496537e+01	-4.036719e+00
1.505181e+01	-4.067374e+00
1.513875e+01	-4.097563e+00
1.522619e+01	-4.128316e+00
1.531414e+01	-4.158975e+00
1.540259e+01	-4.189797e+00
1.549156e+01	-4.220945e+00
1.558103e+01	-4.251926e+00
1.567103e+01	-4.283481e+00
1.576155e+01	-4.314543e+00
1.585258e+01	-4.346482e+00
1.594415e+01	-4.378059e+00
1.603624e+01	-4.409997e+00
1.612886e+01	-4.441696e+00
1.622202e+01	-4.474017e+00
1.631572e+01	-4.506249e+00
1.640996e+01	-4.538593e+00
1.650474e+01	-4.571452e+00
1.660008e+01	-4.603726e+00
1.669596e+01	-4.636383e+00
1.679239e+01	-4.669575e+00
1.688938e+01	-4.702327e+00
1.698694e+01	-4.735386e+00
1.708505e+01	-4.768832e+00
1.718373e+01	-4.802010e+00
1.728299e+01	-4.835872e+00
1.738281e+01	-4.869439e+00
1.748322e+01	-4.903119e+00
1.758420e+01	-4.937148e+00
1.768576e+01	-4.971072e+00
1.778792e+01	-5.005034e+00
1.789066e+01	-5.039427e+00
1.799399e+01	-5.073942e+00
1.809793e+01	-5.108517e+00
1.820246e+01	-5.143224e+00
1.830760e+01	-5.177894e+00
1.841334e+01	-5.212959e+00
1.851969e+01	-5.247766e+00
1.862666e+01	-5.282623e+00
1.873425e+01	-5.318473e+00
1.884246e+01	-5.353642e+00
1.895129e+01	-5.389204e+00
1.906075e+01	-5.424982e+00
1.917085e+01	-5.460481e+00
1.928158e+01	-5.496549e+00
1.939295e+01	-5.532322e+00
1.950496e+01	-5.568391e+00
1.961762e+01	-5.604942e+00
1.973093e+01	-5.641132e+00
1.984490e+01	-5.677443e+00
1.995952e+01	-5.713804e+00
2.007480e+01	-5.750469e+00
2.019076e+01	-5.787644e+00
2.030738e+01	-5.824287e+00
2.042467e+01	-5.861478e+00
2.054264e+01	-5.898454e+00
2.066130e+01	-5.935572e+00
2.078064e+01	-5.972960e+00
2.090066e+01	-6.010041e+00
2.102139e+01	-6.047937e+00
2.114280e+01	-6.085593e+00
2.126492e+01	-6.123500e+00
2.138775e+01	-6.161241e+00
2.151128e+01	-6.199123e+00
2.163553e+01	-6.237525e+00
2.176050e+01	-6.275583e+00
2.188619e+01	-6.313706e+00
2.201260e+01	-6.352154e+00
2.213974e+01	-6.390476e+00
2.226762e+01	-6.429096e+00
2.239624e+01	-6.467988e+00
2.252560e+01	-6.507012e+00
2.265571e+01	-6.545559e+00
2.278656e+01	-6.584885e+00
2.291818e+01	-6.623238e+00
2.305055e+01	-6.662856e+00
2.318369e+01	-6.702156e+00
2.331760e+01	-6.741604e+00
2.345228e+01	-6.780960e+00
2.358774e+01	-6.820524e+00
2.372398e+01	-6.860190e+00
2.386101e+01	-6.899705e+00
2.399883e+01	-6.939793e+00
2.413745e+01	-6.980033e+00
2.427686e+01	-7.019580e+00
2.441709e+01	-7.059771e+00
2.455812e+01	-7.100173e+00
2.469997e+01	-7.140801e+00
2.484263e+01	-7.180925e+00
2.498612e+01	-7.221455e+00
2.513044e+01	-7.261823e+00
2.527559e+01	-7.302858e+00
2.542158e+01	-7.343119e+00
2.556842e+01	-7.384616e+00
2.571610e+01	-7.425335e+00
2.586463e+01	-7.466301e+00
2.601403e+01	-7.507379e+00
2.616428e+01	-7.548309e+00
2.631541e+01	-7.589863e+00
2.646740e+01	-7.631234e+00
2.662028e+01	-7.672759e+00
2.677404e+01	-7.713966e+00
2.692868e+01	-7.755665e+00
2.708422e+01	-7.797124e+00
2.724066e+01	-7.839033e+00
2.739800e+01	-7.881183e+00
2.755625e+01	-7.922943e+00
2.771541e+01	-7.965001e+00
2.787550e+01	-8.006715e+00
2.803650e+01	-8.049184e+00
2.819844e+01	-8.091242e+00
2.836131e+01	-8.133471e+00
2.852513e+01	-8.176072e+00
2.868989e+01	-8.218494e+00
2.885560e+01	-8.260649e+00
2.902227e+01	-8.303363e+00
2.918990e+01	-8.346072e+00
2.935850e+01	-8.388612e+00
2.952807e+01	-8.431505e+00
2.969863e+01	-8.474543e+00
2.987016e+01	-8.517156e+00
3.004269e+01	-8.560442e+00
3.021622e+01	-8.603857e+00
3.039075e+01	-8.646847e+00
3.056628e+01	-8.690411e+00
3.074283e+01	-8.733358e+00
3.092040e+01	-8.776827e+00
3.109900e+01	-8.820074e+00
3.127862e+01	-8.863880e+00
3.145929e+01	-8.906978e+00
3.164099e+01	-8.950561e+00
3.182375e+01	-8.994684e+00
3.200756e+01	-9.038127e+00
3.219244e+01	-9.081834e+00
3.237838e+01	-9.125556e+00
3.256540e+01	-9.169668e+00
3.275349e+01	-9.214127e+00
3.294268e+01	-9.258098e+00
3.313295e+01	-9.302284e+00
3.332433e+01	-9.346776e+00
3.351681e+01	-9.390356e+00
3.371040e+01	-9.434976e+00
3.390511e+01	-9.479425e+00
3.410094e+01	-9.523548e+00
3.429791e+01	-9.567950e+00
3.449601e+01	-9.612822e+00
3.469526e+01	-9.657502e+00
3.489566e+01	-9.701405e+00
3.509721e+01	-9.746524e+00
3.529993e+01	-9.791349e+00
3.550382e+01	-9.836470e+00
3.570889e+01	-9.881343e+00
3.591515e+01	-9.926344e+00
3.612259e+01	-9.970766e+00
3.633123e+01	-1.001599e+01
3.654108e+01	-1.006084e+01
3.675214e+01	-1.010624e+01
3.696442e+01	-1.015131e+01
3.717792e+01	-1.019677e+01
3.739266e+01	-1.024157e+01
3.760864e+01	-1.028727e+01
3.782587e+01	-1.033213e+01
3.804435e+01	-1.037725e+01
3.826409e+01	-1.042307e+01
3.848510e+01	-1.046905e+01
3.870739e+01	-1.051436e+01
3.893096e+01	-1.055985e+01
3.915583e+01	-1.060536e+01
3.938199e+01	-1.065140e+01
3.960946e+01	-1.069703e+01
3.983824e+01	-1.074287e+01
4.006834e+01	-1.078836e+01
4.029978e+01	-1.083478e+01
4.053255e+01	-1.088040e+01
4.076666e+01	-1.092655e+01
4.100213e+01	-1.097290e+01
4.123896e+01	-1.101863e+01
4.147715e+01	-1.106504e+01
4.171672e+01	-1.111046e+01
4.195767e+01	-1.115633e+01
4.220002e+01	-1.120313e+01
4.244377e+01	-1.124958e+01
4.268892e+01	-1.129556e+01
4.293549e+01	-1.134178e+01
4.318348e+01	-1.138806e+01
4.343291e+01	-1.143457e+01
4.368377e+01	-1.148142e+01
4.393609e+01	-1.152785e+01
4.418986e+01	-1.157342e+01
4.444510e+01	-1.162117e+01
4.470182e+01	-1.166732e+01
4.496001e+01	-1.171410e+01
4.521970e+01	-1.176088e+01
4.548089e+01	-1.180762e+01
4.574358e+01	-1.185510e+01
4.600779e+01	-1.190026e+01
4.627353e+01	-1.194746e+01
4.654081e+01	-1.199465e+01
4.680963e+01	-1.204156e+01
4.708000e+01	-1.208785e+01
4.735193e+01	-1.213538e+01
4.762543e+01	-1.218183e+01
4.790051e+01	-1.222902e+01
4.817719e+01	-1.227634e+01
4.845545e+01	-1.232390e+01
4.873533e+01	-1.237084e+01
4.901682e+01	-1.241719e+01
4.929994e+01	-1.246475e+01
4.958470e+01	-1.251197e+01
4.987110e+01	-1.255974e+01
5.015915e+01	-1.260669e+01
5.044887e+01	-1.265421e+01
5.074026e+01	-1.270172e+01
5.103333e+01	-1.274804e+01
5.132810e+01	-1.279615e+01
5.162457e+01	-1.284396e+01
5.192275e+01	-1.289140e+01
5.222265e+01	-1.293858e+01
5.252429e+01	-1.298680e+01
5.282767e+01	-1.303345e+01
5.313280e+01	-1.308131e+01
5.343969e+01	-1.312918e+01
5.374836e+01	-1.317627e+01
5.405880e+01	-1.322430e+01
5.437105e+01	-1.327098e+01
5.468509e+01	-1.331974e+01
5.500095e+01	-1.336609e+01
5.531863e+01	-1.341454e+01
5.563815e+01	-1.346240e+01
5.595951e+01	-1.350945e+01
5.628273e+01	-1.355861e+01
5.660782e+01	-1.360492e+01
5.693479e+01	-1.365353e+01
5.726364e+01	-1.370195e+01
5.759439e+01	-1.374952e+01
5.792705e+01	-1.379712e+01
5.826164e+01	-1.384501e+01
5.859815e+01	-1.389319e+01
5.893662e+01	-1.394052e+01
5.927703e+01	-1.398958e+01
5.961941e+01	-1.403801e+01
5.996377e+01	-1.408466e+01
6.031012e+01	-1.413376e+01
6.065847e+01	-1.418169e+01
6.100883e+01	-1.422956e+01
6.136121e+01	-1.427807e+01
6.171563e+01	-1.432570e+01
6.207210e+01	-1.437413e+01
6.243063e+01	-1.442291e+01
6.279122e+01	-1.447039e+01
6.315390e+01	-1.451894e+01
6.351868e+01	-1.456717e+01
6.388556e+01	-1.461508e+01
6.425456e+01	-1.466327e+01
6.462569e+01	-1.471211e+01
6.499897e+01	-1.476067e+01
6.537440e+01	-1.480916e+01
6.575200e+01	-1.485781e+01
6.613178e+01	-1.490522e+01
6.651375e+01	-1.495310e+01
6.689793e+01	-1.500274e+01
6.728433e+01	-1.505084e+01
6.767297e+01	-1.509951e+01
6.806384e+01	-1.514791e+01
6.845698e+01	-1.519514e+01
6.885238e+01	-1.524466e+01
6.925007e+01	-1.529293e+01
6.965005e+01	-1.534204e+01
7.005235e+01	-1.539100e+01
7.045697e+01	-1.543857e+01
7.086393e+01	-1.548786e+01
7.127323e+01	-1.553577e+01
7.168490e+01	-1.558541e+01
7.209895e+01	-1.563369e+01
7.251539e+01	-1.568241e+01
7.293424e+01	-1.573050e+01
7.335551e+01	-1.578054e+01
7.377920e+01	-1.582800e+01
7.420535e+01	-1.587655e+01
7.463396e+01	-1.592620e+01
7.506504e+01	-1.597444e+01
7.549861e+01	-1.602230e+01
7.593469e+01	-1.607215e+01
7.637328e+01	-1.612067e+01
7.681441e+01	-1.616940e+01
7.725809e+01	-1.621872e+01
7.770433e+01	-1.626857e+01
7.815315e+01	-1.631589e+01
7.860456e+01	-1.636634e+01
7.905857e+01	-1.641414e+01
7.951521e+01	-1.646220e+01
7.997449e+01	-1.651226e+01
8.043642e+01	-1.656069e+01
8.090102e+01	-1.660974e+01
8.136830e+01	-1.665790e+01
8.183828e+01	-1.670740e+01
8.231097e+01	-1.675707e+01
8.278640e+01	-1.680587e+01
8.326457e+01	-1.685527e+01
8.374550e+01	-1.690332e+01
8.422921e+01	-1.695357e+01
8.471572e+01	-1.700137e+01
8.520503e+01	-1.705078e+01
8.569717e+01	-1.709886e+01
8.619215e+01	-1.714950e+01
8.669000e+01	-1.719760e+01
8.719071e+01	-1.724658e+01
8.769432e+01	-1.729519e+01
8.820084e+01	-1.734532e+01
8.871029e+01	-1.739310e+01
8.922267e+01	-1.744369e+01
8.973802e+01	-1.749334e+01
9.025634e+01	-1.754147e+01
9.077766e+01	-1.759102e+01
9.130199e+01	-1.763900e+01
9.182935e+01	-1.768901e+01
9.235975e+01	-1.773841e+01
9.289321e+01	-1.778748e+01
9.342976e+01	-1.783689e+01
9.396941e+01	-1.788571e+01
9.451217e+01	-1.793544e+01
9.505807e+01	-1.798361e+01
9.560712e+01	-1.803396e+01
9.615934e+01	-1.808297e+01
9.671476e+01	-1.813247e+01
9.727338e+01	-1.818193e+01
9.783522e+01	-1.823060e+01
9.840032e+01	-1.827979e+01
9.896867e+01	-1.833028e+01
9.954031e+01	-1.837840e+01
1.001153e+02	-1.842742e+01
1.006935e+02	-1.847702e+01
1.012751e+02	-1.852648e+01
1.018601e+02	-1.857666e+01
1.024484e+02	-1.862425e+01
1.030402e+02	-1.867435e+01
1.036353e+02	-1.872343e+01
1.042339e+02	-1.877318e+01
1.048360e+02	-1.882203e+01
1.054415e+02	-1.887203e+01
1.060505e+02	-1.892119e+01
1.066631e+02	-1.897125e+01
1.072791e+02	-1.902004e+01
1.078988e+02	-1.907009e+01
1.085220e+02	-1.911872e+01
1.091488e+02	-1.916867e+01
1.097793e+02	-1.921939e+01
1.104133e+02	-1.926722e+01
1.110511e+02	-1.931743e+01
1.116925e+02	-1.936641e+01
1.123376e+02	-1.941602e+01
1.129865e+02	-1.946646e+01
1.136391e+02	-1.951452e+01
1.142955e+02	-1.956399e+01
1.149556e+02	-1.961430e+01
1.156196e+02	-1.966353e+01
1.162874e+02	-1.971217e+01
1.169591e+02	-1.976246e+01
1.176347e+02	-1.981251e+01
1.183141e+02	-1.986054e+01
1.189975e+02	-1.991184e+01
1.196848e+02	-1.996067e+01
1.203761e+02	-2.000987e+01
1.210714e+02	-2.005958e+01
1.217707e+02	-2.010984e+01
1.224740e+02	-2.015967e+01
1.231814e+02	-2.020734e+01
1.238929e+02	-2.025772e+01
1.246085e+02	-2.030606e+01
1.253283e+02	-2.035651e+01
1.260522e+02	-2.040528e+01
1.267802e+02	-2.045543e+01
1.275125e+02	-2.050658e+01
1.282490e+02	-2.055527e+01
1.289898e+02	-2.060661e+01
1.297348e+02	-2.065303e+01
1.304842e+02	-2.070282e+01
1.312378e+02	-2.075369e+01
1.319959e+02	-2.080232e+01
1.327583e+02	-2.085404e+01
1.335251e+02	-2.090242e+01
1.342963e+02	-2.095156e+01
1.350720e+02	-2.100141e+01
1.358522e+02	-2.105152e+01
1.366368e+02	-2.110231e+01
1.374260e+02	-2.115060e+01
1.382198e+02	-2.119950e+01
1.390182e+02	-2.124852e+01
1.398211e+02	-2.130055e+01
1.406287e+02	-2.134833e+01
1.414410e+02	-2.140043e+01
1.422579e+02	-2.144672e+01
1.430796e+02	-2.149957e+01
1.439060e+02	-2.154962e+01
1.447372e+02	-2.159946e+01
1.455732e+02	-2.164876e+01
1.464141e+02	-2.169744e+01
1.472597e+02	-2.174688e+01
1.481103e+02	-2.179920e+01
1.489658e+02	-2.184517e+01
1.498262e+02	-2.189654e+01
1.506916e+02	-2.194481e+01
1.515620e+02	-2.199580e+01
1.524374e+02	-2.204697e+01
1.533179e+02	-2.209626e+01
1.542034e+02	-2.214440e+01
1.550941e+02	-2.219438e+01
1.559899e+02	-2.224230e+01
1.568909e+02	-2.229529e+01
1.577971e+02	-2.234218e+01
1.587085e+02	-2.239391e+01
1.596252e+02	-2.244350e+01
1.605472e+02	-2.249303e+01
1.614745e+02	-2.254392e+01
1.624072e+02	-2.259342e+01
1.633453e+02	-2.264124e+01
1.642887e+02	-2.269279e+01
1.652377e+02	-2.274217e+01
1.661921e+02	-2.279200e+01
1.671520e+02	-2.284143e+01
1.681175e+02	-2.289325e+01
1.690885e+02	-2.294273e+01
1.700651e+02	-2.299044e+01
1.710474e+02	-2.303983e+01
1.720354e+02	-2.309195e+01
1.730291e+02	-2.314018e+01
1.740285e+02	-2.318943e+01
1.750337e+02	-2.324203e+01
1.760446e+02	-2.328936e+01
1.770615e+02	-2.333805e+01
1.780842e+02	-2.338952e+01
1.791128e+02	-2.343912e+01
1.801473e+02	-2.348900e+01
1.811878e+02	-2.353647e+01
1.822344e+02	-2.359037e+01
1.832870e+02	-2.364042e+01
1.843456e+02	-2.368758e+01
1.854104e+02	-2.373862e+01
1.864813e+02	-2.379076e+01
1.875584e+02	-2.384058e+01
1.886418e+02	-2.388691e+01
1.897313e+02	-2.393643e+01
1.908272e+02	-2.398769e+01
1.919294e+02	-2.403978e+01
1.930380e+02	-2.408790e+01
1.941530e+02	-2.413653e+01
1.952744e+02	-2.418641e+01
1.964023e+02	-2.423478e+01
1.975367e+02	-2.428754e+01
1.986777e+02	-2.433817e+01
1.998252e+02	-2.438634e+01
2.009794e+02	-2.443968e+01
2.021403e+02	-2.448598e+01
2.033078e+02	-2.453642e+01
2.044821e+02	-2.458782e+01
2.056632e+02	-2.463551e+01
2.068511e+02	-2.468383e+01
2.080459e+02	-2.473593e+01
2.092475e+02	-2.478718e+01
2.104561e+02	-2.483526e+01
2.116717e+02	-2.488182e+01
2.128943e+02	-2.493372e+01
2.141240e+02	-2.498461e+01
2.153608e+02	-2.503479e+01
2.166047e+02	-2.508332e+01
2.178558e+02	-2.513315e+01
2.191141e+02	-2.518766e+01
2.203797e+02	-2.523652e+01
2.216526e+02	-2.528609e+01
2.229329e+02	-2.533480e+01
2.242205e+02	-2.538561e+01
2.255156e+02	-2.543612e+01
2.268182e+02	-2.548390e+01
2.281283e+02	-2.553345e+01
2.294459e+02	-2.558406e+01
2.307712e+02	-2.563436e+01
2.321041e+02	-2.568365e+01
2.334447e+02	-2.573405e+01
2.347931e+02	-2.578322e+01
2.361493e+02	-2.583392e+01
2.375133e+02	-2.588670e+01
2.388851e+02	-2.593570e+01
2.402649e+02	-2.598237e+01
2.416527e+02	-2.603175e+01
2.430484e+02	-2.608378e+01
2.444523e+02	-2.613242e+01
2.458642e+02	-2.618382e+01
2.472843e+02	-2.623240e+01
2.487126e+02	-2.628372e+01
2.501492e+02	-2.633550e+01
2.515940e+02	-2.638255e+01
2.530472e+02	-2.643525e+01
2.545088e+02	-2.648542e+01
2.559789e+02	-2.653468e+01
2.574574e+02	-2.658215e+01
2.589444e+02	-2.663146e+01
2.604401e+02	-2.668190e+01
2.619444e+02	-2.673404e+01
2.634574e+02	-2.678346e+01
2.649791e+02	-2.683020e+01
2.665096e+02	-2.688542e+01
2.680489e+02	-2.693369e+01
2.695972e+02	-2.698406e+01
2.711544e+02	-2.703206e+01
2.727205e+02	-2.708144e+01
2.742958e+02	-2.713559e+01
2.758801e+02	-2.718086e+01
2.774736e+02	-2.722977e+01
2.790762e+02	-2.728607e+01
2.806882e+02	-2.733165e+01
2.823094e+02	-2.737807e+01
2.839400e+02	-2.743045e+01
2.855800e+02	-2.748566e+01
2.872295e+02	-2.753404e+01
2.888886e+02	-2.757793e+01
2.905572e+02	-2.763416e+01
2.922354e+02	-2.768587e+01
2.939234e+02	-2.773636e+01
2.956211e+02	-2.778261e+01
2.973286e+02	-2.783314e+01
2.990459e+02	-2.788552e+01
3.007732e+02	-2.793193e+01
3.025104e+02	-2.798388e+01
3.042577e+02	-2.803007e+01
3.060151e+02	-2.808265e+01
3.077826e+02	-2.813350e+01
3.095604e+02	-2.818432e+01
3.113484e+02	-2.823431e+01
3.131467e+02	-2.828203e+01
3.149554e+02	-2.833644e+01
3.167746e+02	-2.838564e+01
3.186043e+02	-2.843019e+01
3.204445e+02	-2.847982e+01
3.222954e+02	-2.853690e+01
3.241570e+02	-2.858380e+01
3.260293e+02	-2.863187e+01
3.279124e+02	-2.868744e+01
3.298064e+02	-2.873365e+01
3.317114e+02	-2.878541e+01
3.336273e+02	-2.883733e+01
3.355544e+02	-2.888501e+01
3.374925e+02	-2.893167e+01
3.394418e+02	-2.898109e+01
3.414024e+02	-2.903280e+01
3.433744e+02	-2.908306e+01
3.453577e+02	-2.913424e+01
3.473525e+02	-2.918712e+01
3.493588e+02	-2.923549e+01
3.513766e+02	-2.928984e+01
3.534062e+02	-2.933700e+01
3.554474e+02	-2.938317e+01
3.575005e+02	-2.943420e+01
3.595654e+02	-2.949382e+01
3.616422e+02	-2.953359e+01
3.637311e+02	-2.958248e+01
3.658320e+02	-2.963057e+01
3.679450e+02	-2.968918e+01
3.700702e+02	-2.973696e+01
3.722077e+02	-2.978614e+01
3.743576e+02	-2.983256e+01
3.765199e+02	-2.988613e+01
3.786946e+02	-2.993670e+01
3.808820e+02	-2.997938e+01
3.830819e+02	-3.003617e+01
3.852946e+02	-3.008637e+01
3.875200e+02	-3.013831e+01
3.897583e+02	-3.019334e+01
3.920096e+02	-3.023873e+01
3.942738e+02	-3.028632e+01
3.965511e+02	-3.033792e+01
3.988416e+02	-3.038985e+01
4.011452e+02	-3.044277e+01
4.034622e+02	-3.048494e+01
4.057926e+02	-3.053984e+01
4.081365e+02	-3.058674e+01
4.104938e+02	-3.063477e+01
4.128648e+02	-3.068578e+01
4.152495e+02	-3.073996e+01
4.176480e+02	-3.078868e+01
4.200603e+02	-3.083695e+01
4.224866e+02	-3.089134e+01
4.249268e+02	-3.094026e+01
4.273812e+02	-3.099083e+01
4.298497e+02	-3.104857e+01
4.323325e+02	-3.108798e+01
4.348297e+02	-3.114336e+01
4.373412e+02	-3.119229e+01
4.398673e+02	-3.124556e+01
4.424079e+02	-3.128926e+01
4.449633e+02	-3.134635e+01
4.475334e+02	-3.139034e+01
4.501183e+02	-3.144385e+01
4.527182e+02	-3.148611e+01
4.553330e+02	-3.153638e+01
4.579630e+02	-3.158972e+01
4.606082e+02	-3.163746e+01
4.632687e+02	-3.168587e+01
4.659445e+02	-3.174446e+01
4.686358e+02	-3.178747e+01
4.713426e+02	-3.183720e+01
4.740650e+02	-3.189149e+01
4.768032e+02	-3.193985e+01
4.795572e+02	-3.199256e+01
4.823271e+02	-3.204021e+01
4.851130e+02	-3.208872e+01
4.879150e+02	-3.214063e+01
4.907332e+02	-3.219458e+01
4.935676e+02	-3.223774e+01
4.964185e+02	-3.228486e+01
4.992858e+02	-3.234426e+01
5.021696e+02	-3.238948e+01
5.050701e+02	-3.244933e+01
5.079874e+02	-3.249355e+01
5.109215e+02	-3.253904e+01
5.138726e+02	-3.259440e+01
5.168407e+02	-3.265065e+01
5.198259e+02	-3.269344e+01
5.228284e+02	-3.274166e+01
5.258482e+02	-3.279073e+01
5.288855e+02	-3.284241e+01
5.319403e+02	-3.289929e+01
5.350128e+02	-3.295194e+01
5.381030e+02	-3.300202e+01
5.412111e+02	-3.304126e+01
5.443371e+02	-3.309748e+01
5.474812e+02	-3.314223e+01
5.506434e+02	-3.319939e+01
5.538239e+02	-3.324814e+01
5.570228e+02	-3.330559e+01
5.602401e+02	-3.334805e+01
5.634760e+02	-3.339553e+01
5.667306e+02	-3.345271e+01
5.700040e+02	-3.350087e+01
5.732964e+02	-3.355121e+01
5.766077e+02	-3.359902e+01
5.799382e+02	-3.364850e+01
5.832879e+02	-3.370745e+01
5.866569e+02	-3.375130e+01
5.900454e+02	-3.379680e+01
5.934535e+02	-3.385473e+01
5.968813e+02	-3.390004e+01
6.003288e+02	-3.395515e+01
6.037963e+02	-3.400150e+01
6.072838e+02	-3.405286e+01
6.107914e+02	-3.410115e+01
6.143194e+02	-3.415095e+01
6.178676e+02	-3.420647e+01
6.214364e+02	-3.425394e+01
6.250258e+02	-3.430978e+01
6.286359e+02	-3.435885e+01
6.322669e+02	-3.440482e+01
6.359189e+02	-3.444908e+01
6.395919e+02	-3.450805e+01
6.432862e+02	-3.455421e+01
6.470017e+02	-3.461117e+01
6.507388e+02	-3.465279e+01
6.544974e+02	-3.471023e+01
6.582778e+02	-3.475725e+01
6.620800e+02	-3.480751e+01
6.659041e+02	-3.486144e+01
6.697504e+02	-3.491171e+01
6.736188e+02	-3.495226e+01
6.775096e+02	-3.501153e+01
6.814229e+02	-3.505650e+01
6.853587e+02	-3.510945e+01
6.893173e+02	-3.515143e+01
6.932988e+02	-3.521299e+01
6.973033e+02	-3.526604e+01
7.013309e+02	-3.531101e+01
