Frequency(Hz)	Magnitude(dB)
1.000000e+01	-1.632592e-05
1.005776e+01	-1.651506e-05
1.011585e+01	-1.670639e-05
1.017428e+01	-1.689994e-05
1.023305e+01	-1.709573e-05
1.029215e+01	-1.729379e-05
1.035160e+01	-1.749414e-05
1.041139e+01	-1.769682e-05
1.047153e+01	-1.790184e-05
1.053201e+01	-1.810924e-05
1.059284e+01	-1.831904e-05
1.065403e+01	-1.853127e-05
1.071556e+01	-1.874596e-05
1.077746e+01	-1.896313e-05
1.083971e+01	-1.918283e-05
1.090232e+01	-1.940506e-05
1.096529e+01	-1.962988e-05
1.102862e+01	-1.985729e-05
1.109232e+01	-2.008735e-05
1.115639e+01	-2.032006e-05
1.122083e+01	-2.055548e-05
1.128564e+01	-2.079362e-05
1.135083e+01	-2.103452e-05
1.141639e+01	-2.127821e-05
1.148233e+01	-2.152472e-05
1.154865e+01	-2.177409e-05
1.161536e+01	-2.202635e-05
1.168245e+01	-2.228153e-05
1.174992e+01	-2.253966e-05
1.181779e+01	-2.280079e-05
1.188605e+01	-2.306495e-05
1.195470e+01	-2.333216e-05
1.202375e+01	-2.360247e-05
1.209320e+01	-2.387591e-05
1.216305e+01	-2.415252e-05
1.223330e+01	-2.443233e-05
1.230396e+01	-2.471538e-05
1.237503e+01	-2.500172e-05
1.244651e+01	-2.529137e-05
1.251840e+01	-2.558438e-05
1.259070e+01	-2.588078e-05
1.266343e+01	-2.618061e-05
1.273657e+01	-2.648392e-05
1.281014e+01	-2.679074e-05
1.288413e+01	-2.710112e-05
1.295855e+01	-2.741509e-05
1.303339e+01	-2.773270e-05
1.310867e+01	-2.805399e-05
1.318439e+01	-2.837901e-05
1.326054e+01	-2.870778e-05
1.333713e+01	-2.904037e-05
1.341417e+01	-2.937681e-05
1.349165e+01	-2.971715e-05
1.356958e+01	-3.006143e-05
1.364795e+01	-3.040970e-05
1.372678e+01	-3.076200e-05
1.380607e+01	-3.111839e-05
1.388581e+01	-3.147890e-05
1.396602e+01	-3.184359e-05
1.404668e+01	-3.221251e-05
1.412782e+01	-3.258569e-05
1.420942e+01	-3.296321e-05
1.429149e+01	-3.334509e-05
1.437404e+01	-3.373141e-05
1.445706e+01	-3.412219e-05
1.454057e+01	-3.451751e-05
1.462455e+01	-3.491740e-05
1.470902e+01	-3.532192e-05
1.479398e+01	-3.573114e-05
1.487943e+01	-3.614509e-05
1.496537e+01	-3.656384e-05
1.505181e+01	-3.698744e-05
1.513875e+01	-3.741595e-05
1.522619e+01	-3.784942e-05
1.531414e+01	-3.828792e-05
1.540259e+01	-3.873149e-05
1.549156e+01	-3.918020e-05
1.558103e+01	-3.963411e-05
1.567103e+01	-4.009328e-05
1.576155e+01	-4.055777e-05
1.585258e+01	-4.102764e-05
1.594415e+01	-4.150296e-05
1.603624e+01	-4.198378e-05
1.612886e+01	-4.247017e-05
1.622202e+01	-4.296220e-05
1.631572e+01	-4.345992e-05
1.640996e+01	-4.396342e-05
1.650474e+01	-4.447274e-05
1.660008e+01	-4.498797e-05
1.669596e+01	-4.550917e-05
1.679239e+01	-4.603640e-05
1.688938e+01	-4.656974e-05
1.698694e+01	-4.710926e-05
1.708505e+01	-4.765503e-05
1.718373e+01	-4.820713e-05
1.728299e+01	-4.876562e-05
1.738281e+01	-4.933058e-05
1.748322e+01	-4.990208e-05
1.758420e+01	-5.048021e-05
1.768576e+01	-5.106503e-05
1.778792e+01	-5.165663e-05
1.789066e+01	-5.225508e-05
1.799399e+01	-5.286047e-05
1.809793e+01	-5.347287e-05
1.820246e+01	-5.409236e-05
1.830760e+01	-5.471903e-05
1.841334e+01	-5.535297e-05
1.851969e+01	-5.599424e-05
1.862666e+01	-5.664295e-05
1.873425e+01	-5.729917e-05
1.884246e+01	-5.796299e-05
1.895129e+01	-5.863450e-05
1.906075e+01	-5.931379e-05
1.917085e+01	-6.000096e-05
1.928158e+01	-6.069608e-05
1.939295e+01	-6.139926e-05
1.950496e+01	-6.211058e-05
1.961762e+01	-6.283014e-05
1.973093e+01	-6.355804e-05
1.984490e+01	-6.429437e-05
1.995952e+01	-6.503924e-05
2.007480e+01	-6.579273e-05
2.019076e+01	-6.655495e-05
2.030738e+01	-6.732600e-05
2.042467e+01	-6.810599e-05
2.054264e+01	-6.889501e-05
2.066130e+01	-6.969317e-05
2.078064e+01	-7.050058e-05
2.090066e+01	-7.131734e-05
2.102139e+01	-7.214356e-05
2.114280e+01	-7.297936e-05
2.126492e+01	-7.382484e-05
2.138775e+01	-7.468011e-05
2.151128e+01	-7.554529e-05
2.163553e+01	-7.642050e-05
2.176050e+01	-7.730585e-05
2.188619e+01	-7.820145e-05
2.201260e+01	-7.910742e-05
2.213974e+01	-8.002390e-05
2.226762e+01	-8.095099e-05
2.239624e+01	-8.188882e-05
2.252560e+01	-8.283751e-05
2.265571e+01	-8.379720e-05
2.278656e+01	-8.476801e-05
2.291818e+01	-8.575006e-05
2.305055e+01	-8.674349e-05
2.318369e+01	-8.774842e-05
2.331760e+01	-8.876500e-05
2.345228e+01	-8.979336e-05
2.358774e+01	-9.083363e-05
2.372398e+01	-9.188595e-05
2.386101e+01	-9.295046e-05
2.399883e+01	-9.402731e-05
2.413745e+01	-9.511663e-05
2.427686e+01	-9.621857e-05
2.441709e+01	-9.733328e-05
2.455812e+01	-9.846090e-05
2.469997e+01	-9.960158e-05
2.484263e+01	-1.007555e-04
2.498612e+01	-1.019227e-04
2.513044e+01	-1.031035e-04
2.527559e+01	-1.042980e-04
2.542158e+01	-1.055063e-04
2.556842e+01	-1.067286e-04
2.571610e+01	-1.079651e-04
2.586463e+01	-1.092159e-04
2.601403e+01	-1.104812e-04
2.616428e+01	-1.117611e-04
2.631541e+01	-1.130559e-04
2.646740e+01	-1.143656e-04
2.662028e+01	-1.156906e-04
2.677404e+01	-1.170309e-04
2.692868e+01	-1.183867e-04
2.708422e+01	-1.197582e-04
2.724066e+01	-1.211456e-04
2.739800e+01	-1.225491e-04
2.755625e+01	-1.239688e-04
2.771541e+01	-1.254050e-04
2.787550e+01	-1.268579e-04
2.803650e+01	-1.283275e-04
2.819844e+01	-1.298142e-04
2.836131e+01	-1.313181e-04
2.852513e+01	-1.328395e-04
2.868989e+01	-1.343784e-04
2.885560e+01	-1.359352e-04
2.902227e+01	-1.375100e-04
2.918990e+01	-1.391031e-04
2.935850e+01	-1.407146e-04
2.952807e+01	-1.423448e-04
2.969863e+01	-1.439939e-04
2.987016e+01	-1.456621e-04
3.004269e+01	-1.473496e-04
3.021622e+01	-1.490566e-04
3.039075e+01	-1.507835e-04
3.056628e+01	-1.525303e-04
3.074283e+01	-1.542974e-04
3.092040e+01	-1.560849e-04
3.109900e+01	-1.578932e-04
3.127862e+01	-1.597224e-04
3.145929e+01	-1.615728e-04
3.164099e+01	-1.634446e-04
3.182375e+01	-1.653381e-04
3.200756e+01	-1.672536e-04
3.219244e+01	-1.691912e-04
3.237838e+01	-1.711513e-04
3.256540e+01	-1.731341e-04
3.275349e+01	-1.751399e-04
3.294268e+01	-1.771689e-04
3.313295e+01	-1.792214e-04
3.332433e+01	-1.812977e-04
3.351681e+01	-1.833980e-04
3.371040e+01	-1.855227e-04
3.390511e+01	-1.876720e-04
3.410094e+01	-1.898461e-04
3.429791e+01	-1.920455e-04
3.449601e+01	-1.942704e-04
3.469526e+01	-1.965210e-04
3.489566e+01	-1.987977e-04
3.509721e+01	-2.011008e-04
3.529993e+01	-2.034305e-04
3.550382e+01	-2.057873e-04
3.570889e+01	-2.081713e-04
3.591515e+01	-2.105830e-04
3.612259e+01	-2.130226e-04
3.633123e+01	-2.154904e-04
3.654108e+01	-2.179869e-04
3.675214e+01	-2.205123e-04
3.696442e+01	-2.230669e-04
3.717792e+01	-2.256511e-04
3.739266e+01	-2.282653e-04
3.760864e+01	-2.309097e-04
3.782587e+01	-2.335848e-04
3.804435e+01	-2.362909e-04
3.826409e+01	-2.390283e-04
3.848510e+01	-2.417974e-04
3.870739e+01	-2.445986e-04
3.893096e+01	-2.474323e-04
3.915583e+01	-2.502988e-04
3.938199e+01	-2.531985e-04
3.960946e+01	-2.561318e-04
3.983824e+01	-2.590991e-04
4.006834e+01	-2.621007e-04
4.029978e+01	-2.651371e-04
4.053255e+01	-2.682087e-04
4.076666e+01	-2.713159e-04
4.100213e+01	-2.744590e-04
4.123896e+01	-2.776386e-04
4.147715e+01	-2.808550e-04
4.171672e+01	-2.841087e-04
4.195767e+01	-2.874001e-04
4.220002e+01	-2.907296e-04
4.244377e+01	-2.940977e-04
4.268892e+01	-2.975048e-04
4.293549e+01	-3.009513e-04
4.318348e+01	-3.044378e-04
4.343291e+01	-3.079647e-04
4.368377e+01	-3.115324e-04
4.393609e+01	-3.151414e-04
4.418986e+01	-3.187923e-04
4.444510e+01	-3.224855e-04
4.470182e+01	-3.262214e-04
4.496001e+01	-3.300006e-04
4.521970e+01	-3.338236e-04
4.548089e+01	-3.376909e-04
4.574358e+01	-3.416030e-04
4.600779e+01	-3.455604e-04
4.627353e+01	-3.495637e-04
4.654081e+01	-3.536133e-04
4.680963e+01	-3.577098e-04
4.708000e+01	-3.618538e-04
4.735193e+01	-3.660458e-04
4.762543e+01	-3.702864e-04
4.790051e+01	-3.745761e-04
4.817719e+01	-3.789155e-04
4.845545e+01	-3.833051e-04
4.873533e+01	-3.877456e-04
4.901682e+01	-3.922376e-04
4.929994e+01	-3.967815e-04
4.958470e+01	-4.013781e-04
4.987110e+01	-4.060280e-04
5.015915e+01	-4.107317e-04
5.044887e+01	-4.154899e-04
5.074026e+01	-4.203033e-04
5.103333e+01	-4.251724e-04
5.132810e+01	-4.300979e-04
5.162457e+01	-4.350804e-04
5.192275e+01	-4.401207e-04
5.222265e+01	-4.452193e-04
5.252429e+01	-4.503771e-04
5.282767e+01	-4.555945e-04
5.313280e+01	-4.608724e-04
5.343969e+01	-4.662115e-04
5.374836e+01	-4.716124e-04
5.405880e+01	-4.770758e-04
5.437105e+01	-4.826026e-04
5.468509e+01	-4.881934e-04
5.500095e+01	-4.938489e-04
5.531863e+01	-4.995699e-04
5.563815e+01	-5.053573e-04
5.595951e+01	-5.112116e-04
5.628273e+01	-5.171338e-04
5.660782e+01	-5.231246e-04
5.693479e+01	-5.291847e-04
5.726364e+01	-5.353151e-04
5.759439e+01	-5.415165e-04
5.792705e+01	-5.477897e-04
5.826164e+01	-5.541356e-04
5.859815e+01	-5.605550e-04
5.893662e+01	-5.670488e-04
5.927703e+01	-5.736178e-04
5.961941e+01	-5.802628e-04
5.996377e+01	-5.869849e-04
6.031012e+01	-5.937848e-04
6.065847e+01	-6.006635e-04
6.100883e+01	-6.076219e-04
6.136121e+01	-6.146608e-04
6.171563e+01	-6.217813e-04
6.207210e+01	-6.289843e-04
6.243063e+01	-6.362707e-04
6.279122e+01	-6.436416e-04
6.315390e+01	-6.510978e-04
6.351868e+01	-6.586403e-04
6.388556e+01	-6.662703e-04
6.425456e+01	-6.739886e-04
6.462569e+01	-6.817963e-04
6.499897e+01	-6.896945e-04
6.537440e+01	-6.976842e-04
6.575200e+01	-7.057664e-04
6.613178e+01	-7.139422e-04
6.651375e+01	-7.222127e-04
6.689793e+01	-7.305791e-04
6.728433e+01	-7.390423e-04
6.767297e+01	-7.476036e-04
6.806384e+01	-7.562640e-04
6.845698e+01	-7.650248e-04
6.885238e+01	-7.738870e-04
6.925007e+01	-7.828519e-04
6.965005e+01	-7.919206e-04
7.005235e+01	-8.010944e-04
7.045697e+01	-8.103744e-04
7.086393e+01	-8.197619e-04
7.127323e+01	-8.292582e-04
7.168490e+01	-8.388645e-04
7.209895e+01	-8.485820e-04
7.251539e+01	-8.584121e-04
7.293424e+01	-8.683560e-04
7.335551e+01	-8.784151e-04
7.377920e+01	-8.885908e-04
7.420535e+01	-8.988843e-04
7.463396e+01	-9.092970e-04
7.506504e+01	-9.198303e-04
7.549861e+01	-9.304857e-04
7.593469e+01	-9.412644e-04
7.637328e+01	-9.521681e-04
7.681441e+01	-9.631980e-04
7.725809e+01	-9.743556e-04
7.770433e+01	-9.856425e-04
7.815315e+01	-9.970601e-04
7.860456e+01	-1.008610e-03
7.905857e+01	-1.020294e-03
7.951521e+01	-1.032113e-03
7.997449e+01	-1.044069e-03
8.043642e+01	-1.056163e-03
8.090102e+01	-1.068397e-03
8.136830e+01	-1.080773e-03
8.183828e+01	-1.093293e-03
8.231097e+01	-1.105957e-03
8.278640e+01	-1.118769e-03
8.326457e+01	-1.131728e-03
8.374550e+01	-1.144838e-03
8.422921e+01	-1.158099e-03
8.471572e+01	-1.171514e-03
8.520503e+01	-1.185085e-03
8.569717e+01	-1.198812e-03
8.619215e+01	-1.212699e-03
8.669000e+01	-1.226746e-03
8.719071e+01	-1.240957e-03
8.769432e+01	-1.255331e-03
8.820084e+01	-1.269873e-03
8.871029e+01	-1.284582e-03
8.922267e+01	-1.299462e-03
8.973802e+01	-1.314515e-03
9.025634e+01	-1.329741e-03
9.077766e+01	-1.345144e-03
9.130199e+01	-1.360726e-03
9.182935e+01	-1.376488e-03
9.235975e+01	-1.392432e-03
9.289321e+01	-1.408561e-03
9.342976e+01	-1.424877e-03
9.396941e+01	-1.441382e-03
9.451217e+01	-1.458078e-03
9.505807e+01	-1.474967e-03
9.560712e+01	-1.492052e-03
9.615934e+01	-1.509335e-03
9.671476e+01	-1.526818e-03
9.727338e+01	-1.544503e-03
9.783522e+01	-1.562394e-03
9.840032e+01	-1.580491e-03
9.896867e+01	-1.598798e-03
9.954031e+01	-1.617317e-03
1.001153e+02	-1.636051e-03
1.006935e+02	-1.655001e-03
1.012751e+02	-1.674171e-03
1.018601e+02	-1.693563e-03
1.024484e+02	-1.713180e-03
1.030402e+02	-1.733023e-03
1.036353e+02	-1.753097e-03
1.042339e+02	-1.773403e-03
1.048360e+02	-1.793944e-03
1.054415e+02	-1.814723e-03
1.060505e+02	-1.835742e-03
1.066631e+02	-1.857005e-03
1.072791e+02	-1.878515e-03
1.078988e+02	-1.900273e-03
1.085220e+02	-1.922283e-03
1.091488e+02	-1.944548e-03
1.097793e+02	-1.967071e-03
1.104133e+02	-1.989855e-03
1.110511e+02	-2.012903e-03
1.116925e+02	-2.036218e-03
1.123376e+02	-2.059802e-03
1.129865e+02	-2.083660e-03
1.136391e+02	-2.107794e-03
1.142955e+02	-2.132207e-03
1.149556e+02	-2.156903e-03
1.156196e+02	-2.181885e-03
1.162874e+02	-2.207156e-03
1.169591e+02	-2.232720e-03
1.176347e+02	-2.258580e-03
1.183141e+02	-2.284739e-03
1.189975e+02	-2.311202e-03
1.196848e+02	-2.337970e-03
1.203761e+02	-2.365049e-03
1.210714e+02	-2.392441e-03
1.217707e+02	-2.420151e-03
1.224740e+02	-2.448181e-03
1.231814e+02	-2.476535e-03
1.238929e+02	-2.505218e-03
1.246085e+02	-2.534234e-03
1.253283e+02	-2.563585e-03
1.260522e+02	-2.593276e-03
1.267802e+02	-2.623310e-03
1.275125e+02	-2.653693e-03
1.282490e+02	-2.684427e-03
1.289898e+02	-2.715517e-03
1.297348e+02	-2.746967e-03
1.304842e+02	-2.778781e-03
1.312378e+02	-2.810964e-03
1.319959e+02	-2.843519e-03
1.327583e+02	-2.876451e-03
1.335251e+02	-2.909764e-03
1.342963e+02	-2.943463e-03
1.350720e+02	-2.977552e-03
1.358522e+02	-3.012036e-03
1.366368e+02	-3.046919e-03
1.374260e+02	-3.082206e-03
1.382198e+02	-3.117901e-03
1.390182e+02	-3.154009e-03
1.398211e+02	-3.190536e-03
1.406287e+02	-3.227486e-03
1.414410e+02	-3.264863e-03
1.422579e+02	-3.302673e-03
1.430796e+02	-3.340920e-03
1.439060e+02	-3.379611e-03
1.447372e+02	-3.418749e-03
1.455732e+02	-3.458340e-03
1.464141e+02	-3.498390e-03
1.472597e+02	-3.538903e-03
1.481103e+02	-3.579885e-03
1.489658e+02	-3.621342e-03
1.498262e+02	-3.663278e-03
1.506916e+02	-3.705700e-03
1.515620e+02	-3.748613e-03
1.524374e+02	-3.792023e-03
1.533179e+02	-3.835935e-03
1.542034e+02	-3.880355e-03
1.550941e+02	-3.925290e-03
1.559899e+02	-3.970744e-03
1.568909e+02	-4.016725e-03
1.577971e+02	-4.063238e-03
1.587085e+02	-4.110290e-03
1.596252e+02	-4.157886e-03
1.605472e+02	-4.206032e-03
1.614745e+02	-4.254736e-03
1.624072e+02	-4.304004e-03
1.633453e+02	-4.353842e-03
1.642887e+02	-4.404257e-03
1.652377e+02	-4.455255e-03
1.661921e+02	-4.506844e-03
1.671520e+02	-4.559029e-03
1.681175e+02	-4.611819e-03
1.690885e+02	-4.665219e-03
1.700651e+02	-4.719237e-03
1.710474e+02	-4.773881e-03
1.720354e+02	-4.829157e-03
1.730291e+02	-4.885072e-03
1.740285e+02	-4.941635e-03
1.750337e+02	-4.998852e-03
1.760446e+02	-5.056731e-03
1.770615e+02	-5.115280e-03
1.780842e+02	-5.174506e-03
1.791128e+02	-5.234418e-03
1.801473e+02	-5.295023e-03
1.811878e+02	-5.356329e-03
1.822344e+02	-5.418345e-03
1.832870e+02	-5.481078e-03
1.843456e+02	-5.544537e-03
1.854104e+02	-5.608731e-03
1.864813e+02	-5.673667e-03
1.875584e+02	-5.739354e-03
1.886418e+02	-5.805801e-03
1.897313e+02	-5.873018e-03
1.908272e+02	-5.941011e-03
1.919294e+02	-6.009792e-03
1.930380e+02	-6.079368e-03
1.941530e+02	-6.149749e-03
1.952744e+02	-6.220944e-03
1.964023e+02	-6.292963e-03
1.975367e+02	-6.365815e-03
1.986777e+02	-6.439510e-03
1.998252e+02	-6.514057e-03
2.009794e+02	-6.589467e-03
2.021403e+02	-6.665749e-03
2.033078e+02	-6.742913e-03
2.044821e+02	-6.820970e-03
2.056632e+02	-6.899930e-03
2.068511e+02	-6.979803e-03
2.080459e+02	-7.060600e-03
2.092475e+02	-7.142331e-03
2.104561e+02	-7.225008e-03
2.116717e+02	-7.308641e-03
2.128943e+02	-7.393241e-03
2.141240e+02	-7.478819e-03
2.153608e+02	-7.565388e-03
2.166047e+02	-7.652957e-03
2.178558e+02	-7.741540e-03
2.191141e+02	-7.831146e-03
2.203797e+02	-7.921789e-03
2.216526e+02	-8.013480e-03
2.229329e+02	-8.106231e-03
2.242205e+02	-8.200055e-03
2.255156e+02	-8.294964e-03
2.268182e+02	-8.390970e-03
2.281283e+02	-8.488086e-03
2.294459e+02	-8.586326e-03
2.307712e+02	-8.685701e-03
2.321041e+02	-8.786224e-03
2.334447e+02	-8.887911e-03
2.347931e+02	-8.990772e-03
2.361493e+02	-9.094823e-03
2.375133e+02	-9.200077e-03
2.388851e+02	-9.306548e-03
2.402649e+02	-9.414250e-03
2.416527e+02	-9.523196e-03
2.430484e+02	-9.633402e-03
2.444523e+02	-9.744882e-03
2.458642e+02	-9.857650e-03
2.472843e+02	-9.971722e-03
2.487126e+02	-1.008711e-02
2.501492e+02	-1.020384e-02
2.515940e+02	-1.032191e-02
2.530472e+02	-1.044135e-02
2.545088e+02	-1.056217e-02
2.559789e+02	-1.068438e-02
2.574574e+02	-1.080801e-02
2.589444e+02	-1.093306e-02
2.604401e+02	-1.105956e-02
2.619444e+02	-1.118752e-02
2.634574e+02	-1.131697e-02
2.649791e+02	-1.144790e-02
2.665096e+02	-1.158035e-02
2.680489e+02	-1.171433e-02
2.695972e+02	-1.184986e-02
2.711544e+02	-1.198695e-02
2.727205e+02	-1.212563e-02
2.742958e+02	-1.226591e-02
2.758801e+02	-1.240781e-02
2.774736e+02	-1.255135e-02
2.790762e+02	-1.269655e-02
2.806882e+02	-1.284342e-02
2.823094e+02	-1.299199e-02
2.839400e+02	-1.314228e-02
2.855800e+02	-1.329430e-02
2.872295e+02	-1.344808e-02
2.888886e+02	-1.360363e-02
2.905572e+02	-1.376099e-02
2.922354e+02	-1.392015e-02
2.939234e+02	-1.408116e-02
2.956211e+02	-1.424403e-02
2.973286e+02	-1.440877e-02
2.990459e+02	-1.457542e-02
3.007732e+02	-1.474399e-02
3.025104e+02	-1.491451e-02
3.042577e+02	-1.508700e-02
3.060151e+02	-1.526148e-02
3.077826e+02	-1.543797e-02
3.095604e+02	-1.561650e-02
3.113484e+02	-1.579709e-02
3.131467e+02	-1.597977e-02
3.149554e+02	-1.616455e-02
3.167746e+02	-1.635147e-02
3.186043e+02	-1.654054e-02
3.204445e+02	-1.673180e-02
3.222954e+02	-1.692526e-02
3.241570e+02	-1.712096e-02
3.260293e+02	-1.731891e-02
3.279124e+02	-1.751915e-02
3.298064e+02	-1.772170e-02
3.317114e+02	-1.792658e-02
3.336273e+02	-1.813383e-02
3.355544e+02	-1.834347e-02
3.374925e+02	-1.855553e-02
3.394418e+02	-1.877003e-02
3.414024e+02	-1.898701e-02
3.433744e+02	-1.920649e-02
3.453577e+02	-1.942850e-02
3.473525e+02	-1.965308e-02
3.493588e+02	-1.988024e-02
3.513766e+02	-2.011002e-02
3.534062e+02	-2.034246e-02
3.554474e+02	-2.057757e-02
3.575005e+02	-2.081539e-02
3.595654e+02	-2.105596e-02
3.616422e+02	-2.129930e-02
3.637311e+02	-2.154544e-02
3.658320e+02	-2.179442e-02
3.679450e+02	-2.204627e-02
3.700702e+02	-2.230102e-02
3.722077e+02	-2.255871e-02
3.743576e+02	-2.281937e-02
3.765199e+02	-2.308304e-02
3.786946e+02	-2.334974e-02
3.808820e+02	-2.361951e-02
3.830819e+02	-2.389240e-02
3.852946e+02	-2.416842e-02
3.875200e+02	-2.444763e-02
3.897583e+02	-2.473005e-02
3.920096e+02	-2.501573e-02
3.942738e+02	-2.530470e-02
3.965511e+02	-2.559699e-02
3.988416e+02	-2.589265e-02
4.011452e+02	-2.619172e-02
4.034622e+02	-2.649423e-02
4.057926e+02	-2.680022e-02
4.081365e+02	-2.710973e-02
4.104938e+02	-2.742281e-02
4.128648e+02	-2.773950e-02
4.152495e+02	-2.805982e-02
4.176480e+02	-2.838384e-02
4.200603e+02	-2.871158e-02
4.224866e+02	-2.904310e-02
4.249268e+02	-2.937843e-02
4.273812e+02	-2.971762e-02
4.298497e+02	-3.006071e-02
4.323325e+02	-3.040775e-02
4.348297e+02	-3.075878e-02
4.373412e+02	-3.111384e-02
4.398673e+02	-3.147300e-02
4.424079e+02	-3.183628e-02
4.449633e+02	-3.220374e-02
4.475334e+02	-3.257543e-02
4.501183e+02	-3.295138e-02
4.527182e+02	-3.333167e-02
4.553330e+02	-3.371632e-02
4.579630e+02	-3.410539e-02
4.606082e+02	-3.449894e-02
4.632687e+02	-3.489701e-02
4.659445e+02	-3.529965e-02
4.686358e+02	-3.570692e-02
4.713426e+02	-3.611887e-02
4.740650e+02	-3.653555e-02
4.768032e+02	-3.695702e-02
4.795572e+02	-3.738333e-02
4.823271e+02	-3.781454e-02
4.851130e+02	-3.825069e-02
4.879150e+02	-3.869186e-02
4.907332e+02	-3.913809e-02
4.935676e+02	-3.958944e-02
4.964185e+02	-4.004598e-02
4.992858e+02	-4.050775e-02
5.021696e+02	-4.097482e-02
5.050701e+02	-4.144726e-02
5.079874e+02	-4.192511e-02
5.109215e+02	-4.240845e-02
5.138726e+02	-4.289733e-02
5.168407e+02	-4.339182e-02
5.198259e+02	-4.389198e-02
5.228284e+02	-4.439787e-02
5.258482e+02	-4.490957e-02
5.288855e+02	-4.542713e-02
5.319403e+02	-4.595063e-02
5.350128e+02	-4.648012e-02
5.381030e+02	-4.701569e-02
5.412111e+02	-4.755739e-02
5.443371e+02	-4.810530e-02
5.474812e+02	-4.865948e-02
5.506434e+02	-4.922001e-02
5.538239e+02	-4.978697e-02
5.570228e+02	-5.036041e-02
5.602401e+02	-5.094042e-02
5.634760e+02	-5.152707e-02
5.667306e+02	-5.212044e-02
5.700040e+02	-5.272060e-02
5.732964e+02	-5.332762e-02
5.766077e+02	-5.394160e-02
5.799382e+02	-5.456259e-02
5.832879e+02	-5.519069e-02
5.866569e+02	-5.582598e-02
5.900454e+02	-5.646853e-02
5.934535e+02	-5.711842e-02
5.968813e+02	-5.777575e-02
6.003288e+02	-5.844058e-02
6.037963e+02	-5.911302e-02
6.072838e+02	-5.979314e-02
6.107914e+02	-6.048103e-02
6.143194e+02	-6.117678e-02
6.178676e+02	-6.188048e-02
6.214364e+02	-6.259221e-02
6.250258e+02	-6.331207e-02
6.286359e+02	-6.404014e-02
6.322669e+02	-6.477653e-02
6.359189e+02	-6.552131e-02
6.395919e+02	-6.627460e-02
6.432862e+02	-6.703648e-02
6.470017e+02	-6.780705e-02
6.507388e+02	-6.858641e-02
6.544974e+02	-6.937465e-02
6.582778e+02	-7.017188e-02
6.620800e+02	-7.097819e-02
6.659041e+02	-7.179370e-02
6.697504e+02	-7.261849e-02
6.736188e+02	-7.345268e-02
6.775096e+02	-7.429637e-02
6.814229e+02	-7.514967e-02
6.853587e+02	-7.601268e-02
6.893173e+02	-7.688551e-02
6.932988e+02	-7.776828e-02
6.973033e+02	-7.866108e-02
7.013309e+02	-7.956405e-02
