Frequency(Hz)	Magnitude(dB)
1.000000e+01	-2.152552e+00
1.005776e+01	-2.172187e+00
1.011585e+01	-2.191724e+00
1.017428e+01	-2.211749e+00
1.023305e+01	-2.231955e+00
1.029215e+01	-2.252086e+00
1.035160e+01	-2.272408e+00
1.041139e+01	-2.292828e+00
1.047153e+01	-2.313431e+00
1.053201e+01	-2.334127e+00
1.059284e+01	-2.354856e+00
1.065403e+01	-2.375865e+00
1.071556e+01	-2.397004e+00
1.077746e+01	-2.418545e+00
1.083971e+01	-2.439899e+00
1.090232e+01	-2.461374e+00
1.096529e+01	-2.483212e+00
1.102862e+01	-2.504947e+00
1.109232e+01	-2.526966e+00
1.115639e+01	-2.549242e+00
1.122083e+01	-2.571395e+00
1.128564e+01	-2.593945e+00
1.135083e+01	-2.616318e+00
1.141639e+01	-2.639097e+00
1.148233e+01	-2.661951e+00
1.154865e+01	-2.685054e+00
1.161536e+01	-2.708038e+00
1.168245e+01	-2.731363e+00
1.174992e+01	-2.754874e+00
1.181779e+01	-2.778262e+00
1.188605e+01	-2.802146e+00
1.195470e+01	-2.826017e+00
1.202375e+01	-2.849883e+00
1.209320e+01	-2.873967e+00
1.216305e+01	-2.898438e+00
1.223330e+01	-2.922828e+00
1.230396e+01	-2.947410e+00
1.237503e+01	-2.971940e+00
1.244651e+01	-2.997135e+00
1.251840e+01	-3.021943e+00
1.259070e+01	-3.047196e+00
1.266343e+01	-3.072458e+00
1.273657e+01	-3.097914e+00
1.281014e+01	-3.123364e+00
1.288413e+01	-3.149176e+00
1.295855e+01	-3.174983e+00
1.303339e+01	-3.201113e+00
1.310867e+01	-3.227031e+00
1.318439e+01	-3.253638e+00
1.326054e+01	-3.280066e+00
1.333713e+01	-3.306458e+00
1.341417e+01	-3.333148e+00
1.349165e+01	-3.360056e+00
1.356958e+01	-3.387321e+00
1.364795e+01	-3.414285e+00
1.372678e+01	-3.441796e+00
1.380607e+01	-3.468877e+00
1.388581e+01	-3.496846e+00
1.396602e+01	-3.524301e+00
1.404668e+01	-3.551920e+00
1.412782e+01	-3.580503e+00
1.420942e+01	-3.608517e+00
1.429149e+01	-3.636732e+00
1.437404e+01	-3.665251e+00
1.445706e+01	-3.693902e+00
1.454057e+01	-3.722611e+00
1.462455e+01	-3.751275e+00
1.470902e+01	-3.780633e+00
1.479398e+01	-3.809473e+00
1.487943e+01	-3.838982e+00
1.496537e+01	-3.868458e+00
1.505181e+01	-3.897693e+00
1.513875e+01	-3.927603e+00
1.522619e+01	-3.957611e+00
1.531414e+01	-3.987310e+00
1.540259e+01	-4.017515e+00
1.549156e+01	-4.047896e+00
1.558103e+01	-4.078271e+00
1.567103e+01	-4.108780e+00
1.576155e+01	-4.139425e+00
1.585258e+01	-4.169861e+00
1.594415e+01	-4.201141e+00
1.603624e+01	-4.231968e+00
1.612886e+01	-4.263434e+00
1.622202e+01	-4.294758e+00
1.631572e+01	-4.326458e+00
1.640996e+01	-4.357767e+00
1.650474e+01	-4.389721e+00
1.660008e+01	-4.421681e+00
1.669596e+01	-4.453385e+00
1.679239e+01	-4.485611e+00
1.688938e+01	-4.518119e+00
1.698694e+01	-4.550545e+00
1.708505e+01	-4.582855e+00
1.718373e+01	-4.615545e+00
1.728299e+01	-4.648544e+00
1.738281e+01	-4.681641e+00
1.748322e+01	-4.714324e+00
1.758420e+01	-4.747834e+00
1.768576e+01	-4.780847e+00
1.778792e+01	-4.814346e+00
1.789066e+01	-4.847890e+00
1.799399e+01	-4.881947e+00
1.809793e+01	-4.915505e+00
1.820246e+01	-4.949579e+00
1.830760e+01	-4.983614e+00
1.841334e+01	-5.017692e+00
1.851969e+01	-5.052357e+00
1.862666e+01	-5.086500e+00
1.873425e+01	-5.121182e+00
1.884246e+01	-5.155714e+00
1.895129e+01	-5.190528e+00
1.906075e+01	-5.225502e+00
1.917085e+01	-5.260415e+00
1.928158e+01	-5.295985e+00
1.939295e+01	-5.331171e+00
1.950496e+01	-5.366352e+00
1.961762e+01	-5.402258e+00
1.973093e+01	-5.437844e+00
1.984490e+01	-5.473783e+00
1.995952e+01	-5.509746e+00
2.007480e+01	-5.545548e+00
2.019076e+01	-5.581558e+00
2.030738e+01	-5.617613e+00
2.042467e+01	-5.654208e+00
2.054264e+01	-5.690673e+00
2.066130e+01	-5.727279e+00
2.078064e+01	-5.764102e+00
2.090066e+01	-5.800555e+00
2.102139e+01	-5.837766e+00
2.114280e+01	-5.874491e+00
2.126492e+01	-5.911857e+00
2.138775e+01	-5.948891e+00
2.151128e+01	-5.986331e+00
2.163553e+01	-6.024040e+00
2.176050e+01	-6.061455e+00
2.188619e+01	-6.099305e+00
2.201260e+01	-6.136991e+00
2.213974e+01	-6.174667e+00
2.226762e+01	-6.212655e+00
2.239624e+01	-6.251099e+00
2.252560e+01	-6.289065e+00
2.265571e+01	-6.327597e+00
2.278656e+01	-6.365898e+00
2.291818e+01	-6.404655e+00
2.305055e+01	-6.443180e+00
2.318369e+01	-6.481945e+00
2.331760e+01	-6.520760e+00
2.345228e+01	-6.559695e+00
2.358774e+01	-6.598514e+00
2.372398e+01	-6.638150e+00
2.386101e+01	-6.676868e+00
2.399883e+01	-6.716261e+00
2.413745e+01	-6.755752e+00
2.427686e+01	-6.795296e+00
2.441709e+01	-6.834938e+00
2.455812e+01	-6.874680e+00
2.469997e+01	-6.913981e+00
2.484263e+01	-6.954389e+00
2.498612e+01	-6.994441e+00
2.513044e+01	-7.034497e+00
2.527559e+01	-7.074534e+00
2.542158e+01	-7.114795e+00
2.556842e+01	-7.155401e+00
2.571610e+01	-7.195658e+00
2.586463e+01	-7.235899e+00
2.601403e+01	-7.276558e+00
2.616428e+01	-7.317331e+00
2.631541e+01	-7.358223e+00
2.646740e+01	-7.399265e+00
2.662028e+01	-7.440028e+00
2.677404e+01	-7.480728e+00
2.692868e+01	-7.522332e+00
2.708422e+01	-7.563540e+00
2.724066e+01	-7.604834e+00
2.739800e+01	-7.646111e+00
2.755625e+01	-7.687177e+00
2.771541e+01	-7.729033e+00
2.787550e+01	-7.771091e+00
2.803650e+01	-7.812130e+00
2.819844e+01	-7.854233e+00
2.836131e+01	-7.896157e+00
2.852513e+01	-7.938262e+00
2.868989e+01	-7.979937e+00
2.885560e+01	-8.022185e+00
2.902227e+01	-8.064608e+00
2.918990e+01	-8.106649e+00
2.935850e+01	-8.148770e+00
2.952807e+01	-8.191252e+00
2.969863e+01	-8.233461e+00
2.987016e+01	-8.276426e+00
3.004269e+01	-8.319521e+00
3.021622e+01	-8.361400e+00
3.039075e+01	-8.404334e+00
3.056628e+01	-8.447835e+00
3.074283e+01	-8.490405e+00
3.092040e+01	-8.533376e+00
3.109900e+01	-8.576116e+00
3.127862e+01	-8.619130e+00
3.145929e+01	-8.662526e+00
3.164099e+01	-8.706136e+00
3.182375e+01	-8.749037e+00
3.200756e+01	-8.792581e+00
3.219244e+01	-8.835588e+00
3.237838e+01	-8.879444e+00
3.256540e+01	-8.923315e+00
3.275349e+01	-8.966239e+00
3.294268e+01	-9.010106e+00
3.313295e+01	-9.054240e+00
3.332433e+01	-9.098245e+00
3.351681e+01	-9.141868e+00
3.371040e+01	-9.185687e+00
3.390511e+01	-9.229795e+00
3.410094e+01	-9.274501e+00
3.429791e+01	-9.318231e+00
3.449601e+01	-9.361745e+00
3.469526e+01	-9.406516e+00
3.489566e+01	-9.450628e+00
3.509721e+01	-9.494954e+00
3.529993e+01	-9.540125e+00
3.550382e+01	-9.584257e+00
3.570889e+01	-9.628576e+00
3.591515e+01	-9.673617e+00
3.612259e+01	-9.717849e+00
3.633123e+01	-9.762748e+00
3.654108e+01	-9.807303e+00
3.675214e+01	-9.852469e+00
3.696442e+01	-9.897659e+00
3.717792e+01	-9.942167e+00
3.739266e+01	-9.987291e+00
3.760864e+01	-1.003239e+01
3.782587e+01	-1.007729e+01
3.804435e+01	-1.012267e+01
3.826409e+01	-1.016766e+01
3.848510e+01	-1.021231e+01
3.870739e+01	-1.025844e+01
3.893096e+01	-1.030339e+01
3.915583e+01	-1.034899e+01
3.938199e+01	-1.039426e+01
3.960946e+01	-1.044000e+01
3.983824e+01	-1.048550e+01
4.006834e+01	-1.053114e+01
4.029978e+01	-1.057594e+01
4.053255e+01	-1.062214e+01
4.076666e+01	-1.066806e+01
4.100213e+01	-1.071406e+01
4.123896e+01	-1.075925e+01
4.147715e+01	-1.080546e+01
4.171672e+01	-1.085128e+01
4.195767e+01	-1.089718e+01
4.220002e+01	-1.094257e+01
4.244377e+01	-1.098894e+01
4.268892e+01	-1.103543e+01
4.293549e+01	-1.108171e+01
4.318348e+01	-1.112765e+01
4.343291e+01	-1.117404e+01
4.368377e+01	-1.121996e+01
4.393609e+01	-1.126577e+01
4.418986e+01	-1.131303e+01
4.444510e+01	-1.135867e+01
4.470182e+01	-1.140473e+01
4.496001e+01	-1.145149e+01
4.521970e+01	-1.149839e+01
4.548089e+01	-1.154452e+01
4.574358e+01	-1.159104e+01
4.600779e+01	-1.163764e+01
4.627353e+01	-1.168386e+01
4.654081e+01	-1.173092e+01
4.680963e+01	-1.177772e+01
4.708000e+01	-1.182446e+01
4.735193e+01	-1.187093e+01
4.762543e+01	-1.191775e+01
4.790051e+01	-1.196424e+01
4.817719e+01	-1.201190e+01
4.845545e+01	-1.205874e+01
4.873533e+01	-1.210520e+01
4.901682e+01	-1.215278e+01
4.929994e+01	-1.219918e+01
4.958470e+01	-1.224632e+01
4.987110e+01	-1.229380e+01
5.015915e+01	-1.234041e+01
5.044887e+01	-1.238767e+01
5.074026e+01	-1.243509e+01
5.103333e+01	-1.248204e+01
5.132810e+01	-1.252948e+01
5.162457e+01	-1.257634e+01
5.192275e+01	-1.262389e+01
5.222265e+01	-1.267189e+01
5.252429e+01	-1.271820e+01
5.282767e+01	-1.276606e+01
5.313280e+01	-1.281307e+01
5.343969e+01	-1.286052e+01
5.374836e+01	-1.290819e+01
5.405880e+01	-1.295594e+01
5.437105e+01	-1.300252e+01
5.468509e+01	-1.305099e+01
5.500095e+01	-1.309851e+01
5.531863e+01	-1.314522e+01
5.563815e+01	-1.319311e+01
5.595951e+01	-1.324059e+01
5.628273e+01	-1.328956e+01
5.660782e+01	-1.333629e+01
5.693479e+01	-1.338431e+01
5.726364e+01	-1.343146e+01
5.759439e+01	-1.347924e+01
5.792705e+01	-1.352782e+01
5.826164e+01	-1.357482e+01
5.859815e+01	-1.362419e+01
5.893662e+01	-1.367108e+01
5.927703e+01	-1.371840e+01
5.961941e+01	-1.376658e+01
5.996377e+01	-1.381494e+01
6.031012e+01	-1.386262e+01
6.065847e+01	-1.391084e+01
6.100883e+01	-1.395848e+01
6.136121e+01	-1.400650e+01
6.171563e+01	-1.405457e+01
6.207210e+01	-1.410336e+01
6.243063e+01	-1.415019e+01
6.279122e+01	-1.419950e+01
6.315390e+01	-1.424790e+01
6.351868e+01	-1.429553e+01
6.388556e+01	-1.434397e+01
6.425456e+01	-1.439158e+01
6.462569e+01	-1.443990e+01
6.499897e+01	-1.448785e+01
6.537440e+01	-1.453643e+01
6.575200e+01	-1.458496e+01
6.613178e+01	-1.463304e+01
6.651375e+01	-1.468104e+01
6.689793e+01	-1.472961e+01
6.728433e+01	-1.477723e+01
6.767297e+01	-1.482599e+01
6.806384e+01	-1.487510e+01
6.845698e+01	-1.492248e+01
6.885238e+01	-1.497158e+01
6.925007e+01	-1.502013e+01
6.965005e+01	-1.506835e+01
7.005235e+01	-1.511642e+01
7.045697e+01	-1.516518e+01
7.086393e+01	-1.521371e+01
7.127323e+01	-1.526223e+01
7.168490e+01	-1.531132e+01
7.209895e+01	-1.535962e+01
7.251539e+01	-1.540863e+01
7.293424e+01	-1.545708e+01
7.335551e+01	-1.550514e+01
7.377920e+01	-1.555406e+01
7.420535e+01	-1.560225e+01
7.463396e+01	-1.565097e+01
7.506504e+01	-1.569991e+01
7.549861e+01	-1.574882e+01
7.593469e+01	-1.579758e+01
7.637328e+01	-1.584594e+01
7.681441e+01	-1.589473e+01
7.725809e+01	-1.594330e+01
7.770433e+01	-1.599199e+01
7.815315e+01	-1.604126e+01
7.860456e+01	-1.608940e+01
7.905857e+01	-1.613886e+01
7.951521e+01	-1.618861e+01
7.997449e+01	-1.623660e+01
8.043642e+01	-1.628452e+01
8.090102e+01	-1.633368e+01
8.136830e+01	-1.638212e+01
8.183828e+01	-1.643247e+01
8.231097e+01	-1.648094e+01
8.278640e+01	-1.652943e+01
8.326457e+01	-1.657765e+01
8.374550e+01	-1.662796e+01
8.422921e+01	-1.667717e+01
8.471572e+01	-1.672664e+01
8.520503e+01	-1.677516e+01
8.569717e+01	-1.682315e+01
8.619215e+01	-1.687239e+01
8.669000e+01	-1.692135e+01
8.719071e+01	-1.697103e+01
8.769432e+01	-1.701919e+01
8.820084e+01	-1.706702e+01
8.871029e+01	-1.711816e+01
8.922267e+01	-1.716579e+01
8.973802e+01	-1.721498e+01
9.025634e+01	-1.726565e+01
9.077766e+01	-1.731351e+01
9.130199e+01	-1.736305e+01
9.182935e+01	-1.741154e+01
9.235975e+01	-1.746080e+01
9.289321e+01	-1.750995e+01
9.342976e+01	-1.755858e+01
9.396941e+01	-1.760803e+01
9.451217e+01	-1.765705e+01
9.505807e+01	-1.770730e+01
9.560712e+01	-1.775636e+01
9.615934e+01	-1.780605e+01
9.671476e+01	-1.785474e+01
9.727338e+01	-1.790387e+01
9.783522e+01	-1.795330e+01
9.840032e+01	-1.800225e+01
9.896867e+01	-1.805209e+01
9.954031e+01	-1.810116e+01
1.001153e+02	-1.814868e+01
1.006935e+02	-1.819849e+01
1.012751e+02	-1.824810e+01
1.018601e+02	-1.829762e+01
1.024484e+02	-1.834729e+01
1.030402e+02	-1.839676e+01
1.036353e+02	-1.844675e+01
1.042339e+02	-1.849488e+01
1.048360e+02	-1.854504e+01
1.054415e+02	-1.859377e+01
1.060505e+02	-1.864250e+01
1.066631e+02	-1.869326e+01
1.072791e+02	-1.874191e+01
1.078988e+02	-1.879105e+01
1.085220e+02	-1.884062e+01
1.091488e+02	-1.888946e+01
1.097793e+02	-1.893812e+01
1.104133e+02	-1.898965e+01
1.110511e+02	-1.903776e+01
1.116925e+02	-1.908805e+01
1.123376e+02	-1.913711e+01
1.129865e+02	-1.918755e+01
1.136391e+02	-1.923413e+01
1.142955e+02	-1.928565e+01
1.149556e+02	-1.933617e+01
1.156196e+02	-1.938414e+01
1.162874e+02	-1.943359e+01
1.169591e+02	-1.948301e+01
1.176347e+02	-1.953302e+01
1.183141e+02	-1.958361e+01
1.189975e+02	-1.963211e+01
1.196848e+02	-1.968133e+01
1.203761e+02	-1.972893e+01
1.210714e+02	-1.978073e+01
1.217707e+02	-1.982978e+01
1.224740e+02	-1.988025e+01
1.231814e+02	-1.992867e+01
1.238929e+02	-1.997814e+01
1.246085e+02	-2.002802e+01
1.253283e+02	-2.007726e+01
1.260522e+02	-2.012651e+01
1.267802e+02	-2.017679e+01
1.275125e+02	-2.022662e+01
1.282490e+02	-2.027598e+01
1.289898e+02	-2.032412e+01
1.297348e+02	-2.037538e+01
1.304842e+02	-2.042464e+01
1.312378e+02	-2.047260e+01
1.319959e+02	-2.052366e+01
1.327583e+02	-2.057322e+01
1.335251e+02	-2.062074e+01
1.342963e+02	-2.067207e+01
1.350720e+02	-2.072320e+01
1.358522e+02	-2.077036e+01
1.366368e+02	-2.081973e+01
1.374260e+02	-2.087170e+01
1.382198e+02	-2.091892e+01
1.390182e+02	-2.097017e+01
1.398211e+02	-2.102043e+01
1.406287e+02	-2.106705e+01
1.414410e+02	-2.112014e+01
1.422579e+02	-2.116910e+01
1.430796e+02	-2.121935e+01
1.439060e+02	-2.126766e+01
1.447372e+02	-2.131748e+01
1.455732e+02	-2.136797e+01
1.464141e+02	-2.141705e+01
1.472597e+02	-2.146734e+01
1.481103e+02	-2.151563e+01
1.489658e+02	-2.156594e+01
1.498262e+02	-2.161440e+01
1.506916e+02	-2.166472e+01
1.515620e+02	-2.171686e+01
1.524374e+02	-2.176369e+01
1.533179e+02	-2.181262e+01
1.542034e+02	-2.186541e+01
1.550941e+02	-2.191528e+01
1.559899e+02	-2.196303e+01
1.568909e+02	-2.201272e+01
1.577971e+02	-2.206244e+01
1.587085e+02	-2.211378e+01
1.596252e+02	-2.216088e+01
1.605472e+02	-2.221279e+01
1.614745e+02	-2.226143e+01
1.624072e+02	-2.231191e+01
1.633453e+02	-2.236141e+01
1.642887e+02	-2.241176e+01
1.652377e+02	-2.246260e+01
1.661921e+02	-2.251213e+01
1.671520e+02	-2.255992e+01
1.681175e+02	-2.261041e+01
1.690885e+02	-2.266193e+01
1.700651e+02	-2.270935e+01
1.710474e+02	-2.275958e+01
1.720354e+02	-2.280953e+01
1.730291e+02	-2.285908e+01
1.740285e+02	-2.290739e+01
1.750337e+02	-2.295660e+01
1.760446e+02	-2.300819e+01
1.770615e+02	-2.305719e+01
1.780842e+02	-2.310932e+01
1.791128e+02	-2.315704e+01
1.801473e+02	-2.320933e+01
1.811878e+02	-2.325844e+01
1.822344e+02	-2.330790e+01
1.832870e+02	-2.335512e+01
1.843456e+02	-2.340636e+01
1.854104e+02	-2.346033e+01
1.864813e+02	-2.350451e+01
1.875584e+02	-2.355709e+01
1.886418e+02	-2.360650e+01
1.897313e+02	-2.365673e+01
1.908272e+02	-2.370550e+01
1.919294e+02	-2.375698e+01
1.930380e+02	-2.380684e+01
1.941530e+02	-2.385658e+01
1.952744e+02	-2.390338e+01
1.964023e+02	-2.395534e+01
1.975367e+02	-2.400673e+01
1.986777e+02	-2.405605e+01
1.998252e+02	-2.410529e+01
2.009794e+02	-2.415252e+01
2.021403e+02	-2.420622e+01
2.033078e+02	-2.425500e+01
2.044821e+02	-2.430412e+01
2.056632e+02	-2.435398e+01
2.068511e+02	-2.440313e+01
2.080459e+02	-2.445249e+01
2.092475e+02	-2.450389e+01
2.104561e+02	-2.455386e+01
2.116717e+02	-2.460323e+01
2.128943e+02	-2.465352e+01
2.141240e+02	-2.470366e+01
2.153608e+02	-2.475298e+01
2.166047e+02	-2.480519e+01
2.178558e+02	-2.485267e+01
2.191141e+02	-2.490188e+01
2.203797e+02	-2.495037e+01
2.216526e+02	-2.500086e+01
2.229329e+02	-2.505234e+01
2.242205e+02	-2.510149e+01
2.255156e+02	-2.515348e+01
2.268182e+02	-2.520096e+01
2.281283e+02	-2.525271e+01
2.294459e+02	-2.529978e+01
2.307712e+02	-2.535191e+01
2.321041e+02	-2.540127e+01
2.334447e+02	-2.545368e+01
2.347931e+02	-2.550485e+01
2.361493e+02	-2.555321e+01
2.375133e+02	-2.560462e+01
2.388851e+02	-2.565194e+01
2.402649e+02	-2.569913e+01
2.416527e+02	-2.575161e+01
2.430484e+02	-2.580032e+01
2.444523e+02	-2.585355e+01
2.458642e+02	-2.590107e+01
2.472843e+02	-2.595335e+01
2.487126e+02	-2.600279e+01
2.501492e+02	-2.605174e+01
2.515940e+02	-2.610148e+01
2.530472e+02	-2.614775e+01
2.545088e+02	-2.620281e+01
2.559789e+02	-2.625241e+01
2.574574e+02	-2.630328e+01
2.589444e+02	-2.635316e+01
2.604401e+02	-2.640351e+01
2.619444e+02	-2.644868e+01
2.634574e+02	-2.650317e+01
2.649791e+02	-2.655433e+01
2.665096e+02	-2.660185e+01
2.680489e+02	-2.665355e+01
2.695972e+02	-2.670217e+01
2.711544e+02	-2.675211e+01
2.727205e+02	-2.680164e+01
2.742958e+02	-2.684993e+01
2.758801e+02	-2.690357e+01
2.774736e+02	-2.694984e+01
2.790762e+02	-2.699972e+01
2.806882e+02	-2.704971e+01
2.823094e+02	-2.710030e+01
2.839400e+02	-2.714992e+01
2.855800e+02	-2.720055e+01
2.872295e+02	-2.725643e+01
2.888886e+02	-2.729957e+01
2.905572e+02	-2.735480e+01
2.922354e+02	-2.739911e+01
2.939234e+02	-2.745185e+01
2.956211e+02	-2.750512e+01
2.973286e+02	-2.755277e+01
2.990459e+02	-2.760086e+01
3.007732e+02	-2.764995e+01
3.025104e+02	-2.770034e+01
3.042577e+02	-2.775322e+01
3.060151e+02	-2.780085e+01
3.077826e+02	-2.785388e+01
3.095604e+02	-2.789946e+01
3.113484e+02	-2.795062e+01
3.131467e+02	-2.800009e+01
3.149554e+02	-2.805147e+01
3.167746e+02	-2.810180e+01
3.186043e+02	-2.815117e+01
3.204445e+02	-2.820247e+01
3.222954e+02	-2.825466e+01
3.241570e+02	-2.830317e+01
3.260293e+02	-2.835314e+01
3.279124e+02	-2.840289e+01
3.298064e+02	-2.845036e+01
3.317114e+02	-2.850188e+01
3.336273e+02	-2.855405e+01
3.355544e+02	-2.860217e+01
3.374925e+02	-2.864903e+01
3.394418e+02	-2.870107e+01
3.414024e+02	-2.875376e+01
3.433744e+02	-2.880507e+01
3.453577e+02	-2.884888e+01
3.473525e+02	-2.890395e+01
3.493588e+02	-2.895461e+01
3.513766e+02	-2.899755e+01
3.534062e+02	-2.904890e+01
3.554474e+02	-2.910460e+01
3.575005e+02	-2.915117e+01
3.595654e+02	-2.920320e+01
3.616422e+02	-2.924977e+01
3.637311e+02	-2.930171e+01
3.658320e+02	-2.935391e+01
3.679450e+02	-2.940450e+01
3.700702e+02	-2.945510e+01
3.722077e+02	-2.950970e+01
3.743576e+02	-2.954955e+01
3.765199e+02	-2.960710e+01
3.786946e+02	-2.965564e+01
3.808820e+02	-2.970201e+01
3.830819e+02	-2.974746e+01
3.852946e+02	-2.980529e+01
3.875200e+02	-2.985186e+01
3.897583e+02	-2.990721e+01
3.920096e+02	-2.995193e+01
3.942738e+02	-3.000550e+01
3.965511e+02	-3.005674e+01
3.988416e+02	-3.010696e+01
4.011452e+02	-3.015783e+01
4.034622e+02	-3.020361e+01
4.057926e+02	-3.025869e+01
4.081365e+02	-3.031011e+01
4.104938e+02	-3.035560e+01
4.128648e+02	-3.040365e+01
4.152495e+02	-3.045748e+01
4.176480e+02	-3.050989e+01
4.200603e+02	-3.055918e+01
4.224866e+02	-3.060574e+01
4.249268e+02	-3.065980e+01
4.273812e+02	-3.070711e+01
4.298497e+02	-3.075889e+01
4.323325e+02	-3.080958e+01
4.348297e+02	-3.085915e+01
4.373412e+02	-3.090574e+01
4.398673e+02	-3.095612e+01
4.424079e+02	-3.100790e+01
4.449633e+02	-3.105928e+01
4.475334e+02	-3.110270e+01
4.501183e+02	-3.116032e+01
4.527182e+02	-3.121029e+01
4.553330e+02	-3.125576e+01
4.579630e+02	-3.131023e+01
4.606082e+02	-3.136195e+01
4.632687e+02	-3.140682e+01
4.659445e+02	-3.145854e+01
4.686358e+02	-3.150829e+01
4.713426e+02	-3.155853e+01
4.740650e+02	-3.161539e+01
4.768032e+02	-3.166152e+01
4.795572e+02	-3.171357e+01
4.823271e+02	-3.176170e+01
4.851130e+02	-3.180952e+01
4.879150e+02	-3.186132e+01
4.907332e+02	-3.191716e+01
4.935676e+02	-3.196203e+01
4.964185e+02	-3.200913e+01
4.992858e+02	-3.206612e+01
5.021696e+02	-3.211178e+01
5.050701e+02	-3.215921e+01
5.079874e+02	-3.221245e+01
5.109215e+02	-3.226403e+01
5.138726e+02	-3.231494e+01
5.168407e+02	-3.236784e+01
5.198259e+02	-3.240834e+01
5.228284e+02	-3.246204e+01
5.258482e+02	-3.251460e+01
5.288855e+02	-3.256073e+01
5.319403e+02	-3.261481e+01
5.350128e+02	-3.266155e+01
5.381030e+02	-3.271823e+01
5.412111e+02	-3.276379e+01
5.443371e+02	-3.282002e+01
5.474812e+02	-3.286153e+01
5.506434e+02	-3.291576e+01
5.538239e+02	-3.296461e+01
5.570228e+02	-3.301541e+01
5.602401e+02	-3.306445e+01
5.634760e+02	-3.311469e+01
5.667306e+02	-3.316076e+01
5.700040e+02	-3.321516e+01
5.732964e+02	-3.326887e+01
5.766077e+02	-3.331384e+01
5.799382e+02	-3.336895e+01
5.832879e+02	-3.341819e+01
5.866569e+02	-3.347154e+01
5.900454e+02	-3.351633e+01
5.934535e+02	-3.357290e+01
5.968813e+02	-3.362223e+01
6.003288e+02	-3.367349e+01
6.037963e+02	-3.372063e+01
6.072838e+02	-3.377115e+01
6.107914e+02	-3.382086e+01
6.143194e+02	-3.387676e+01
6.178676e+02	-3.391605e+01
6.214364e+02	-3.397434e+01
6.250258e+02	-3.402575e+01
6.286359e+02	-3.407505e+01
6.322669e+02	-3.411892e+01
6.359189e+02	-3.418017e+01
6.395919e+02	-3.422654e+01
6.432862e+02	-3.427383e+01
6.470017e+02	-3.432560e+01
6.507388e+02	-3.437718e+01
6.544974e+02	-3.442942e+01
6.582778e+02	-3.447436e+01
6.620800e+02	-3.452845e+01
6.659041e+02	-3.457202e+01
6.697504e+02	-3.462595e+01
6.736188e+02	-3.467305e+01
6.775096e+02	-3.472483e+01
6.814229e+02	-3.478010e+01
6.853587e+02	-3.483413e+01
6.893173e+02	-3.487415e+01
6.932988e+02	-3.493030e+01
6.973033e+02	-3.498009e+01
7.013309e+02	-3.502837e+01
