Frequency(Hz)	Magnitude(dB)
1.000000e+01	-1.833199e-05
1.005776e+01	-1.854437e-05
1.011585e+01	-1.875921e-05
1.017428e+01	-1.897654e-05
1.023305e+01	-1.919639e-05
1.029215e+01	-1.941878e-05
1.035160e+01	-1.964375e-05
1.041139e+01	-1.987133e-05
1.047153e+01	-2.010155e-05
1.053201e+01	-2.033443e-05
1.059284e+01	-2.057001e-05
1.065403e+01	-2.080832e-05
1.071556e+01	-2.104939e-05
1.077746e+01	-2.129325e-05
1.083971e+01	-2.153993e-05
1.090232e+01	-2.178948e-05
1.096529e+01	-2.204192e-05
1.102862e+01	-2.229728e-05
1.109232e+01	-2.255560e-05
1.115639e+01	-2.281691e-05
1.122083e+01	-2.308125e-05
1.128564e+01	-2.334865e-05
1.135083e+01	-2.361915e-05
1.141639e+01	-2.389279e-05
1.148233e+01	-2.416959e-05
1.154865e+01	-2.444960e-05
1.161536e+01	-2.473285e-05
1.168245e+01	-2.501939e-05
1.174992e+01	-2.530925e-05
1.181779e+01	-2.560246e-05
1.188605e+01	-2.589907e-05
1.195470e+01	-2.619912e-05
1.202375e+01	-2.650264e-05
1.209320e+01	-2.680968e-05
1.216305e+01	-2.712028e-05
1.223330e+01	-2.743447e-05
1.230396e+01	-2.775231e-05
1.237503e+01	-2.807383e-05
1.244651e+01	-2.839907e-05
1.251840e+01	-2.872808e-05
1.259070e+01	-2.906090e-05
1.266343e+01	-2.939758e-05
1.273657e+01	-2.973815e-05
1.281014e+01	-3.008268e-05
1.288413e+01	-3.043119e-05
1.295855e+01	-3.078375e-05
1.303339e+01	-3.114038e-05
1.310867e+01	-3.150115e-05
1.318439e+01	-3.186610e-05
1.326054e+01	-3.223528e-05
1.333713e+01	-3.260873e-05
1.341417e+01	-3.298651e-05
1.349165e+01	-3.336867e-05
1.356958e+01	-3.375525e-05
1.364795e+01	-3.414631e-05
1.372678e+01	-3.454191e-05
1.380607e+01	-3.494208e-05
1.388581e+01	-3.534689e-05
1.396602e+01	-3.575640e-05
1.404668e+01	-3.617064e-05
1.412782e+01	-3.658969e-05
1.420942e+01	-3.701359e-05
1.429149e+01	-3.744240e-05
1.437404e+01	-3.787618e-05
1.445706e+01	-3.831498e-05
1.454057e+01	-3.875887e-05
1.462455e+01	-3.920790e-05
1.470902e+01	-3.966213e-05
1.479398e+01	-4.012163e-05
1.487943e+01	-4.058644e-05
1.496537e+01	-4.105665e-05
1.505181e+01	-4.153230e-05
1.513875e+01	-4.201346e-05
1.522619e+01	-4.250019e-05
1.531414e+01	-4.299257e-05
1.540259e+01	-4.349065e-05
1.549156e+01	-4.399450e-05
1.558103e+01	-4.450418e-05
1.567103e+01	-4.501977e-05
1.576155e+01	-4.554134e-05
1.585258e+01	-4.606894e-05
1.594415e+01	-4.660266e-05
1.603624e+01	-4.714256e-05
1.612886e+01	-4.768872e-05
1.622202e+01	-4.824120e-05
1.631572e+01	-4.880009e-05
1.640996e+01	-4.936545e-05
1.650474e+01	-4.993736e-05
1.660008e+01	-5.051589e-05
1.669596e+01	-5.110113e-05
1.679239e+01	-5.169315e-05
1.688938e+01	-5.229202e-05
1.698694e+01	-5.289784e-05
1.708505e+01	-5.351067e-05
1.718373e+01	-5.413060e-05
1.728299e+01	-5.475772e-05
1.738281e+01	-5.539210e-05
1.748322e+01	-5.603382e-05
1.758420e+01	-5.668299e-05
1.768576e+01	-5.733967e-05
1.778792e+01	-5.800396e-05
1.789066e+01	-5.867595e-05
1.799399e+01	-5.935572e-05
1.809793e+01	-6.004337e-05
1.820246e+01	-6.073899e-05
1.830760e+01	-6.144266e-05
1.841334e+01	-6.215448e-05
1.851969e+01	-6.287456e-05
1.862666e+01	-6.360297e-05
1.873425e+01	-6.433982e-05
1.884246e+01	-6.508521e-05
1.895129e+01	-6.583924e-05
1.906075e+01	-6.660200e-05
1.917085e+01	-6.737359e-05
1.928158e+01	-6.815413e-05
1.939295e+01	-6.894371e-05
1.950496e+01	-6.974243e-05
1.961762e+01	-7.055041e-05
1.973093e+01	-7.136775e-05
1.984490e+01	-7.219456e-05
1.995952e+01	-7.303095e-05
2.007480e+01	-7.387702e-05
2.019076e+01	-7.473290e-05
2.030738e+01	-7.559870e-05
2.042467e+01	-7.647452e-05
2.054264e+01	-7.736049e-05
2.066130e+01	-7.825673e-05
2.078064e+01	-7.916334e-05
2.090066e+01	-8.008047e-05
2.102139e+01	-8.100821e-05
2.114280e+01	-8.194671e-05
2.126492e+01	-8.289607e-05
2.138775e+01	-8.385644e-05
2.151128e+01	-8.482793e-05
2.163553e+01	-8.581067e-05
2.176050e+01	-8.680480e-05
2.188619e+01	-8.781045e-05
2.201260e+01	-8.882775e-05
2.213974e+01	-8.985683e-05
2.226762e+01	-9.089784e-05
2.239624e+01	-9.195091e-05
2.252560e+01	-9.301617e-05
2.265571e+01	-9.409378e-05
2.278656e+01	-9.518387e-05
2.291818e+01	-9.628659e-05
2.305055e+01	-9.740208e-05
2.318369e+01	-9.853050e-05
2.331760e+01	-9.967199e-05
2.345228e+01	-1.008267e-04
2.358774e+01	-1.019948e-04
2.372398e+01	-1.031764e-04
2.386101e+01	-1.043717e-04
2.399883e+01	-1.055809e-04
2.413745e+01	-1.068041e-04
2.427686e+01	-1.080414e-04
2.441709e+01	-1.092931e-04
2.455812e+01	-1.105593e-04
2.469997e+01	-1.118401e-04
2.484263e+01	-1.131358e-04
2.498612e+01	-1.144465e-04
2.513044e+01	-1.157723e-04
2.527559e+01	-1.171136e-04
2.542158e+01	-1.184704e-04
2.556842e+01	-1.198429e-04
2.571610e+01	-1.212312e-04
2.586463e+01	-1.226357e-04
2.601403e+01	-1.240565e-04
2.616428e+01	-1.254937e-04
2.631541e+01	-1.269475e-04
2.646740e+01	-1.284182e-04
2.662028e+01	-1.299060e-04
2.677404e+01	-1.314110e-04
2.692868e+01	-1.329334e-04
2.708422e+01	-1.344734e-04
2.724066e+01	-1.360313e-04
2.739800e+01	-1.376072e-04
2.755625e+01	-1.392014e-04
2.771541e+01	-1.408141e-04
2.787550e+01	-1.424454e-04
2.803650e+01	-1.440957e-04
2.819844e+01	-1.457650e-04
2.836131e+01	-1.474537e-04
2.852513e+01	-1.491620e-04
2.868989e+01	-1.508900e-04
2.885560e+01	-1.526381e-04
2.902227e+01	-1.544064e-04
2.918990e+01	-1.561953e-04
2.935850e+01	-1.580048e-04
2.952807e+01	-1.598353e-04
2.969863e+01	-1.616870e-04
2.987016e+01	-1.635601e-04
3.004269e+01	-1.654550e-04
3.021622e+01	-1.673718e-04
3.039075e+01	-1.693108e-04
3.056628e+01	-1.712723e-04
3.074283e+01	-1.732565e-04
3.092040e+01	-1.752637e-04
3.109900e+01	-1.772941e-04
3.127862e+01	-1.793481e-04
3.145929e+01	-1.814258e-04
3.164099e+01	-1.835276e-04
3.182375e+01	-1.856538e-04
3.200756e+01	-1.878046e-04
3.219244e+01	-1.899803e-04
3.237838e+01	-1.921813e-04
3.256540e+01	-1.944077e-04
3.275349e+01	-1.966599e-04
3.294268e+01	-1.989382e-04
3.313295e+01	-2.012429e-04
3.332433e+01	-2.035743e-04
3.351681e+01	-2.059327e-04
3.371040e+01	-2.083185e-04
3.390511e+01	-2.107318e-04
3.410094e+01	-2.131732e-04
3.429791e+01	-2.156428e-04
3.449601e+01	-2.181410e-04
3.469526e+01	-2.206681e-04
3.489566e+01	-2.232246e-04
3.509721e+01	-2.258106e-04
3.529993e+01	-2.284266e-04
3.550382e+01	-2.310730e-04
3.570889e+01	-2.337499e-04
3.591515e+01	-2.364579e-04
3.612259e+01	-2.391973e-04
3.633123e+01	-2.419684e-04
3.654108e+01	-2.447715e-04
3.675214e+01	-2.476072e-04
3.696442e+01	-2.504757e-04
3.717792e+01	-2.533775e-04
3.739266e+01	-2.563128e-04
3.760864e+01	-2.592822e-04
3.782587e+01	-2.622860e-04
3.804435e+01	-2.653245e-04
3.826409e+01	-2.683983e-04
3.848510e+01	-2.715077e-04
3.870739e+01	-2.746531e-04
3.893096e+01	-2.778349e-04
3.915583e+01	-2.810536e-04
3.938199e+01	-2.843096e-04
3.960946e+01	-2.876033e-04
3.983824e+01	-2.909351e-04
4.006834e+01	-2.943056e-04
4.029978e+01	-2.977150e-04
4.053255e+01	-3.011640e-04
4.076666e+01	-3.046530e-04
4.100213e+01	-3.081824e-04
4.123896e+01	-3.117526e-04
4.147715e+01	-3.153642e-04
4.171672e+01	-3.190177e-04
4.195767e+01	-3.227134e-04
4.220002e+01	-3.264520e-04
4.244377e+01	-3.302339e-04
4.268892e+01	-3.340596e-04
4.293549e+01	-3.379296e-04
4.318348e+01	-3.418445e-04
4.343291e+01	-3.458047e-04
4.368377e+01	-3.498108e-04
4.393609e+01	-3.538633e-04
4.418986e+01	-3.579627e-04
4.444510e+01	-3.621096e-04
4.470182e+01	-3.663046e-04
4.496001e+01	-3.705482e-04
4.521970e+01	-3.748409e-04
4.548089e+01	-3.791833e-04
4.574358e+01	-3.835761e-04
4.600779e+01	-3.880197e-04
4.627353e+01	-3.925148e-04
4.654081e+01	-3.970620e-04
4.680963e+01	-4.016619e-04
4.708000e+01	-4.063150e-04
4.735193e+01	-4.110221e-04
4.762543e+01	-4.157836e-04
4.790051e+01	-4.206004e-04
4.817719e+01	-4.254729e-04
4.845545e+01	-4.304019e-04
4.873533e+01	-4.353880e-04
4.901682e+01	-4.404318e-04
4.929994e+01	-4.455340e-04
4.958470e+01	-4.506954e-04
4.987110e+01	-4.559166e-04
5.015915e+01	-4.611982e-04
5.044887e+01	-4.665410e-04
5.074026e+01	-4.719457e-04
5.103333e+01	-4.774131e-04
5.132810e+01	-4.829437e-04
5.162457e+01	-4.885384e-04
5.192275e+01	-4.941980e-04
5.222265e+01	-4.999231e-04
5.252429e+01	-5.057145e-04
5.282767e+01	-5.115730e-04
5.313280e+01	-5.174993e-04
5.343969e+01	-5.234943e-04
5.374836e+01	-5.295588e-04
5.405880e+01	-5.356935e-04
5.437105e+01	-5.418993e-04
5.468509e+01	-5.481769e-04
5.500095e+01	-5.545273e-04
5.531863e+01	-5.609512e-04
5.563815e+01	-5.674496e-04
5.595951e+01	-5.740232e-04
5.628273e+01	-5.806730e-04
5.660782e+01	-5.873998e-04
5.693479e+01	-5.942045e-04
5.726364e+01	-6.010881e-04
5.759439e+01	-6.080514e-04
5.792705e+01	-6.150953e-04
5.826164e+01	-6.222208e-04
5.859815e+01	-6.294289e-04
5.893662e+01	-6.367205e-04
5.927703e+01	-6.440965e-04
5.961941e+01	-6.515580e-04
5.996377e+01	-6.591059e-04
6.031012e+01	-6.667412e-04
6.065847e+01	-6.744650e-04
6.100883e+01	-6.822783e-04
6.136121e+01	-6.901820e-04
6.171563e+01	-6.981773e-04
6.207210e+01	-7.062652e-04
6.243063e+01	-7.144469e-04
6.279122e+01	-7.227232e-04
6.315390e+01	-7.310955e-04
6.351868e+01	-7.395647e-04
6.388556e+01	-7.481320e-04
6.425456e+01	-7.567986e-04
6.462569e+01	-7.655655e-04
6.499897e+01	-7.744340e-04
6.537440e+01	-7.834052e-04
6.575200e+01	-7.924804e-04
6.613178e+01	-8.016606e-04
6.651375e+01	-8.109472e-04
6.689793e+01	-8.203414e-04
6.728433e+01	-8.298443e-04
6.767297e+01	-8.394574e-04
6.806384e+01	-8.491818e-04
6.845698e+01	-8.590188e-04
6.885238e+01	-8.689698e-04
6.925007e+01	-8.790360e-04
6.965005e+01	-8.892189e-04
7.005235e+01	-8.995196e-04
7.045697e+01	-9.099397e-04
7.086393e+01	-9.204805e-04
7.127323e+01	-9.311434e-04
7.168490e+01	-9.419298e-04
7.209895e+01	-9.528411e-04
7.251539e+01	-9.638788e-04
7.293424e+01	-9.750443e-04
7.335551e+01	-9.863392e-04
7.377920e+01	-9.977649e-04
7.420535e+01	-1.009323e-03
7.463396e+01	-1.021015e-03
7.506504e+01	-1.032842e-03
7.549861e+01	-1.044806e-03
7.593469e+01	-1.056909e-03
7.637328e+01	-1.069152e-03
7.681441e+01	-1.081537e-03
7.725809e+01	-1.094066e-03
7.770433e+01	-1.106739e-03
7.815315e+01	-1.119559e-03
7.860456e+01	-1.132528e-03
7.905857e+01	-1.145647e-03
7.951521e+01	-1.158918e-03
7.997449e+01	-1.172342e-03
8.043642e+01	-1.185922e-03
8.090102e+01	-1.199660e-03
8.136830e+01	-1.213556e-03
8.183828e+01	-1.227614e-03
8.231097e+01	-1.241834e-03
8.278640e+01	-1.256219e-03
8.326457e+01	-1.270770e-03
8.374550e+01	-1.285490e-03
8.422921e+01	-1.300381e-03
8.471572e+01	-1.315444e-03
8.520503e+01	-1.330681e-03
8.569717e+01	-1.346095e-03
8.619215e+01	-1.361687e-03
8.669000e+01	-1.377461e-03
8.719071e+01	-1.393416e-03
8.769432e+01	-1.409557e-03
8.820084e+01	-1.425884e-03
8.871029e+01	-1.442401e-03
8.922267e+01	-1.459108e-03
8.973802e+01	-1.476010e-03
9.025634e+01	-1.493107e-03
9.077766e+01	-1.510402e-03
9.130199e+01	-1.527897e-03
9.182935e+01	-1.545595e-03
9.235975e+01	-1.563498e-03
9.289321e+01	-1.581608e-03
9.342976e+01	-1.599928e-03
9.396941e+01	-1.618460e-03
9.451217e+01	-1.637207e-03
9.505807e+01	-1.656171e-03
9.560712e+01	-1.675354e-03
9.615934e+01	-1.694760e-03
9.671476e+01	-1.714390e-03
9.727338e+01	-1.734248e-03
9.783522e+01	-1.754336e-03
9.840032e+01	-1.774656e-03
9.896867e+01	-1.795212e-03
9.954031e+01	-1.816005e-03
1.001153e+02	-1.837040e-03
1.006935e+02	-1.858318e-03
1.012751e+02	-1.879842e-03
1.018601e+02	-1.901616e-03
1.024484e+02	-1.923642e-03
1.030402e+02	-1.945923e-03
1.036353e+02	-1.968462e-03
1.042339e+02	-1.991262e-03
1.048360e+02	-2.014326e-03
1.054415e+02	-2.037657e-03
1.060505e+02	-2.061258e-03
1.066631e+02	-2.085132e-03
1.072791e+02	-2.109283e-03
1.078988e+02	-2.133714e-03
1.085220e+02	-2.158427e-03
1.091488e+02	-2.183427e-03
1.097793e+02	-2.208716e-03
1.104133e+02	-2.234298e-03
1.110511e+02	-2.260176e-03
1.116925e+02	-2.286354e-03
1.123376e+02	-2.312835e-03
1.129865e+02	-2.339623e-03
1.136391e+02	-2.366720e-03
1.142955e+02	-2.394132e-03
1.149556e+02	-2.421861e-03
1.156196e+02	-2.449911e-03
1.162874e+02	-2.478286e-03
1.169591e+02	-2.506989e-03
1.176347e+02	-2.536025e-03
1.183141e+02	-2.565396e-03
1.189975e+02	-2.595108e-03
1.196848e+02	-2.625164e-03
1.203761e+02	-2.655568e-03
1.210714e+02	-2.686324e-03
1.217707e+02	-2.717436e-03
1.224740e+02	-2.748908e-03
1.231814e+02	-2.780745e-03
1.238929e+02	-2.812950e-03
1.246085e+02	-2.845528e-03
1.253283e+02	-2.878484e-03
1.260522e+02	-2.911820e-03
1.267802e+02	-2.945543e-03
1.275125e+02	-2.979656e-03
1.282490e+02	-3.014164e-03
1.289898e+02	-3.049072e-03
1.297348e+02	-3.084384e-03
1.304842e+02	-3.120104e-03
1.312378e+02	-3.156238e-03
1.319959e+02	-3.192791e-03
1.327583e+02	-3.229766e-03
1.335251e+02	-3.267170e-03
1.342963e+02	-3.305006e-03
1.350720e+02	-3.343281e-03
1.358522e+02	-3.381999e-03
1.366368e+02	-3.421165e-03
1.374260e+02	-3.460784e-03
1.382198e+02	-3.500862e-03
1.390182e+02	-3.541404e-03
1.398211e+02	-3.582415e-03
1.406287e+02	-3.623901e-03
1.414410e+02	-3.665867e-03
1.422579e+02	-3.708319e-03
1.430796e+02	-3.751262e-03
1.439060e+02	-3.794702e-03
1.447372e+02	-3.838645e-03
1.455732e+02	-3.883097e-03
1.464141e+02	-3.928063e-03
1.472597e+02	-3.973550e-03
1.481103e+02	-4.019563e-03
1.489658e+02	-4.066109e-03
1.498262e+02	-4.113194e-03
1.506916e+02	-4.160823e-03
1.515620e+02	-4.209004e-03
1.524374e+02	-4.257743e-03
1.533179e+02	-4.307045e-03
1.542034e+02	-4.356918e-03
1.550941e+02	-4.407369e-03
1.559899e+02	-4.458403e-03
1.568909e+02	-4.510028e-03
1.577971e+02	-4.562250e-03
1.587085e+02	-4.615077e-03
1.596252e+02	-4.668515e-03
1.605472e+02	-4.722572e-03
1.614745e+02	-4.777254e-03
1.624072e+02	-4.832569e-03
1.633453e+02	-4.888523e-03
1.642887e+02	-4.945126e-03
1.652377e+02	-5.002383e-03
1.661921e+02	-5.060304e-03
1.671520e+02	-5.118894e-03
1.681175e+02	-5.178162e-03
1.690885e+02	-5.238116e-03
1.700651e+02	-5.298764e-03
1.710474e+02	-5.360114e-03
1.720354e+02	-5.422173e-03
1.730291e+02	-5.484951e-03
1.740285e+02	-5.548454e-03
1.750337e+02	-5.612693e-03
1.760446e+02	-5.677675e-03
1.770615e+02	-5.743409e-03
1.780842e+02	-5.809903e-03
1.791128e+02	-5.877167e-03
1.801473e+02	-5.945208e-03
1.811878e+02	-6.014037e-03
1.822344e+02	-6.083663e-03
1.832870e+02	-6.154093e-03
1.843456e+02	-6.225339e-03
1.854104e+02	-6.297409e-03
1.864813e+02	-6.370312e-03
1.875584e+02	-6.444059e-03
1.886418e+02	-6.518659e-03
1.897313e+02	-6.594122e-03
1.908272e+02	-6.670457e-03
1.919294e+02	-6.747676e-03
1.930380e+02	-6.825788e-03
1.941530e+02	-6.904804e-03
1.952744e+02	-6.984733e-03
1.964023e+02	-7.065587e-03
1.975367e+02	-7.147376e-03
1.986777e+02	-7.230111e-03
1.998252e+02	-7.313803e-03
2.009794e+02	-7.398463e-03
2.021403e+02	-7.484102e-03
2.033078e+02	-7.570731e-03
2.044821e+02	-7.658363e-03
2.056632e+02	-7.747007e-03
2.068511e+02	-7.836677e-03
2.080459e+02	-7.927384e-03
2.092475e+02	-8.019140e-03
2.104561e+02	-8.111957e-03
2.116717e+02	-8.205847e-03
2.128943e+02	-8.300822e-03
2.141240e+02	-8.396896e-03
2.153608e+02	-8.494081e-03
2.166047e+02	-8.592390e-03
2.178558e+02	-8.691835e-03
2.191141e+02	-8.792430e-03
2.203797e+02	-8.894187e-03
2.216526e+02	-8.997122e-03
2.229329e+02	-9.101246e-03
2.242205e+02	-9.206574e-03
2.255156e+02	-9.313120e-03
2.268182e+02	-9.420898e-03
2.281283e+02	-9.529921e-03
2.294459e+02	-9.640205e-03
2.307712e+02	-9.751763e-03
2.321041e+02	-9.864611e-03
2.334447e+02	-9.978764e-03
2.347931e+02	-1.009424e-02
2.361493e+02	-1.021104e-02
2.375133e+02	-1.032920e-02
2.388851e+02	-1.044872e-02
2.402649e+02	-1.056962e-02
2.416527e+02	-1.069192e-02
2.430484e+02	-1.081564e-02
2.444523e+02	-1.094078e-02
2.458642e+02	-1.106737e-02
2.472843e+02	-1.119542e-02
2.487126e+02	-1.132496e-02
2.501492e+02	-1.145598e-02
2.515940e+02	-1.158853e-02
2.530472e+02	-1.172260e-02
2.545088e+02	-1.185823e-02
2.559789e+02	-1.199542e-02
2.574574e+02	-1.213419e-02
2.589444e+02	-1.227457e-02
2.604401e+02	-1.241657e-02
2.619444e+02	-1.256021e-02
2.634574e+02	-1.270551e-02
2.649791e+02	-1.285249e-02
2.665096e+02	-1.300116e-02
2.680489e+02	-1.315156e-02
2.695972e+02	-1.330369e-02
2.711544e+02	-1.345757e-02
2.727205e+02	-1.361324e-02
2.742958e+02	-1.377070e-02
2.758801e+02	-1.392998e-02
2.774736e+02	-1.409110e-02
2.790762e+02	-1.425408e-02
2.806882e+02	-1.441894e-02
2.823094e+02	-1.458571e-02
2.839400e+02	-1.475440e-02
2.855800e+02	-1.492504e-02
2.872295e+02	-1.509765e-02
2.888886e+02	-1.527225e-02
2.905572e+02	-1.544886e-02
2.922354e+02	-1.562752e-02
2.939234e+02	-1.580824e-02
2.956211e+02	-1.599104e-02
2.973286e+02	-1.617596e-02
2.990459e+02	-1.636301e-02
3.007732e+02	-1.655221e-02
3.025104e+02	-1.674360e-02
3.042577e+02	-1.693720e-02
3.060151e+02	-1.713304e-02
3.077826e+02	-1.733113e-02
3.095604e+02	-1.753151e-02
3.113484e+02	-1.773420e-02
3.131467e+02	-1.793923e-02
3.149554e+02	-1.814662e-02
3.167746e+02	-1.835641e-02
3.186043e+02	-1.856862e-02
3.204445e+02	-1.878327e-02
3.222954e+02	-1.900041e-02
3.241570e+02	-1.922004e-02
3.260293e+02	-1.944221e-02
3.279124e+02	-1.966694e-02
3.298064e+02	-1.989426e-02
3.317114e+02	-2.012421e-02
3.336273e+02	-2.035680e-02
3.355544e+02	-2.059208e-02
3.374925e+02	-2.083007e-02
3.394418e+02	-2.107081e-02
3.414024e+02	-2.131432e-02
3.433744e+02	-2.156063e-02
3.453577e+02	-2.180979e-02
3.473525e+02	-2.206182e-02
3.493588e+02	-2.231675e-02
3.513766e+02	-2.257462e-02
3.534062e+02	-2.283547e-02
3.554474e+02	-2.309931e-02
3.575005e+02	-2.336620e-02
3.595654e+02	-2.363617e-02
3.616422e+02	-2.390924e-02
3.637311e+02	-2.418546e-02
3.658320e+02	-2.446487e-02
3.679450e+02	-2.474749e-02
3.700702e+02	-2.503337e-02
3.722077e+02	-2.532254e-02
3.743576e+02	-2.561504e-02
3.765199e+02	-2.591090e-02
3.786946e+02	-2.621018e-02
3.808820e+02	-2.651290e-02
3.830819e+02	-2.681911e-02
3.852946e+02	-2.712884e-02
3.875200e+02	-2.744214e-02
3.897583e+02	-2.775905e-02
3.920096e+02	-2.807960e-02
3.942738e+02	-2.840384e-02
3.965511e+02	-2.873182e-02
3.988416e+02	-2.906356e-02
4.011452e+02	-2.939913e-02
4.034622e+02	-2.973856e-02
4.057926e+02	-3.008189e-02
4.081365e+02	-3.042917e-02
4.104938e+02	-3.078045e-02
4.128648e+02	-3.113577e-02
4.152495e+02	-3.149517e-02
4.176480e+02	-3.185871e-02
4.200603e+02	-3.222643e-02
4.224866e+02	-3.259837e-02
4.249268e+02	-3.297459e-02
4.273812e+02	-3.335514e-02
4.298497e+02	-3.374007e-02
4.323325e+02	-3.412941e-02
4.348297e+02	-3.452324e-02
4.373412e+02	-3.492158e-02
4.398673e+02	-3.532451e-02
4.424079e+02	-3.573206e-02
4.449633e+02	-3.614430e-02
4.475334e+02	-3.656128e-02
4.501183e+02	-3.698304e-02
4.527182e+02	-3.740965e-02
4.553330e+02	-3.784116e-02
4.579630e+02	-3.827762e-02
4.606082e+02	-3.871909e-02
4.632687e+02	-3.916564e-02
4.659445e+02	-3.961731e-02
4.686358e+02	-4.007416e-02
4.713426e+02	-4.053626e-02
4.740650e+02	-4.100366e-02
4.768032e+02	-4.147643e-02
4.795572e+02	-4.195461e-02
4.823271e+02	-4.243829e-02
4.851130e+02	-4.292751e-02
4.879150e+02	-4.342235e-02
4.907332e+02	-4.392286e-02
4.935676e+02	-4.442911e-02
4.964185e+02	-4.494116e-02
4.992858e+02	-4.545909e-02
5.021696e+02	-4.598295e-02
5.050701e+02	-4.651281e-02
5.079874e+02	-4.704875e-02
5.109215e+02	-4.759083e-02
5.138726e+02	-4.813912e-02
5.168407e+02	-4.869370e-02
5.198259e+02	-4.925462e-02
5.228284e+02	-4.982197e-02
5.258482e+02	-5.039582e-02
5.288855e+02	-5.097623e-02
5.319403e+02	-5.156329e-02
5.350128e+02	-5.215708e-02
5.381030e+02	-5.275765e-02
5.412111e+02	-5.336510e-02
5.443371e+02	-5.397951e-02
5.474812e+02	-5.460094e-02
5.506434e+02	-5.522947e-02
5.538239e+02	-5.586520e-02
5.570228e+02	-5.650820e-02
5.602401e+02	-5.715855e-02
5.634760e+02	-5.781633e-02
5.667306e+02	-5.848164e-02
5.700040e+02	-5.915454e-02
5.732964e+02	-5.983514e-02
5.766077e+02	-6.052351e-02
5.799382e+02	-6.121974e-02
5.832879e+02	-6.192393e-02
5.866569e+02	-6.263616e-02
5.900454e+02	-6.335651e-02
5.934535e+02	-6.408510e-02
5.968813e+02	-6.482200e-02
6.003288e+02	-6.556730e-02
6.037963e+02	-6.632111e-02
6.072838e+02	-6.708353e-02
6.107914e+02	-6.785463e-02
6.143194e+02	-6.863453e-02
6.178676e+02	-6.942332e-02
6.214364e+02	-7.022111e-02
6.250258e+02	-7.102798e-02
6.286359e+02	-7.184405e-02
6.322669e+02	-7.266942e-02
6.359189e+02	-7.350419e-02
6.395919e+02	-7.434847e-02
6.432862e+02	-7.520236e-02
6.470017e+02	-7.606597e-02
6.507388e+02	-7.693941e-02
6.544974e+02	-7.782279e-02
6.582778e+02	-7.871622e-02
6.620800e+02	-7.961981e-02
6.659041e+02	-8.053368e-02
6.697504e+02	-8.145794e-02
6.736188e+02	-8.239270e-02
6.775096e+02	-8.333809e-02
6.814229e+02	-8.429422e-02
6.853587e+02	-8.526122e-02
6.893173e+02	-8.623919e-02
6.932988e+02	-8.722827e-02
6.973033e+02	-8.822858e-02
7.013309e+02	-8.924024e-02
