Frequency(Hz)	Magnitude(dB)
1.000000e+01	-2.342225e+00
1.005776e+01	-2.363160e+00
1.011585e+01	-2.384186e+00
1.017428e+01	-2.405469e+00
1.023305e+01	-2.426990e+00
1.029215e+01	-2.448291e+00
1.035160e+01	-2.469934e+00
1.041139e+01	-2.491754e+00
1.047153e+01	-2.513574e+00
1.053201e+01	-2.535588e+00
1.059284e+01	-2.557877e+00
1.065403e+01	-2.580372e+00
1.071556e+01	-2.602913e+00
1.077746e+01	-2.625423e+00
1.083971e+01	-2.648005e+00
1.090232e+01	-2.671039e+00
1.096529e+01	-2.693930e+00
1.102862e+01	-2.717230e+00
1.109232e+01	-2.740514e+00
1.115639e+01	-2.764262e+00
1.122083e+01	-2.787440e+00
1.128564e+01	-2.811644e+00
1.135083e+01	-2.835401e+00
1.141639e+01	-2.859506e+00
1.148233e+01	-2.883584e+00
1.154865e+01	-2.907971e+00
1.161536e+01	-2.932550e+00
1.168245e+01	-2.956945e+00
1.174992e+01	-2.981798e+00
1.181779e+01	-3.006702e+00
1.188605e+01	-3.031852e+00
1.195470e+01	-3.056958e+00
1.202375e+01	-3.082415e+00
1.209320e+01	-3.107878e+00
1.216305e+01	-3.133433e+00
1.223330e+01	-3.159306e+00
1.230396e+01	-3.185068e+00
1.237503e+01	-3.211156e+00
1.244651e+01	-3.237423e+00
1.251840e+01	-3.263907e+00
1.259070e+01	-3.290450e+00
1.266343e+01	-3.317214e+00
1.273657e+01	-3.344063e+00
1.281014e+01	-3.370682e+00
1.288413e+01	-3.397939e+00
1.295855e+01	-3.425012e+00
1.303339e+01	-3.452693e+00
1.310867e+01	-3.479813e+00
1.318439e+01	-3.507657e+00
1.326054e+01	-3.535498e+00
1.333713e+01	-3.563378e+00
1.341417e+01	-3.591240e+00
1.349165e+01	-3.619500e+00
1.356958e+01	-3.648006e+00
1.364795e+01	-3.676538e+00
1.372678e+01	-3.705273e+00
1.380607e+01	-3.733794e+00
1.388581e+01	-3.762834e+00
1.396602e+01	-3.792001e+00
1.404668e+01	-3.821249e+00
1.412782e+01	-3.850266e+00
1.420942e+01	-3.879698e+00
1.429149e+01	-3.909456e+00
1.437404e+01	-3.939120e+00
1.445706e+01	-3.969136e+00
1.454057e+01	-3.999302e+00
1.462455e+01	-4.029530e+00
1.470902e+01	-4.059740e+00
1.479398e+01	-4.090070e+00
1.487943e+01	-4.120899e+00
1.496537e+01	-4.151234e+00
1.505181e+01	-4.182600e+00
1.513875e+01	-4.213151e+00
1.522619e+01	-4.244201e+00
1.531414e+01	-4.275703e+00
1.540259e+01	-4.307337e+00
1.549156e+01	-4.338632e+00
1.558103e+01	-4.370402e+00
1.567103e+01	-4.402474e+00
1.576155e+01	-4.434226e+00
1.585258e+01	-4.466118e+00
1.594415e+01	-4.498376e+00
1.603624e+01	-4.530680e+00
1.612886e+01	-4.562853e+00
1.622202e+01	-4.595832e+00
1.631572e+01	-4.628313e+00
1.640996e+01	-4.661520e+00
1.650474e+01	-4.694117e+00
1.660008e+01	-4.727806e+00
1.669596e+01	-4.760578e+00
1.679239e+01	-4.794011e+00
1.688938e+01	-4.827740e+00
1.698694e+01	-4.861312e+00
1.708505e+01	-4.894998e+00
1.718373e+01	-4.928810e+00
1.728299e+01	-4.963059e+00
1.738281e+01	-4.997103e+00
1.748322e+01	-5.031154e+00
1.758420e+01	-5.065928e+00
1.768576e+01	-5.100003e+00
1.778792e+01	-5.134856e+00
1.789066e+01	-5.169489e+00
1.799399e+01	-5.204215e+00
1.809793e+01	-5.239202e+00
1.820246e+01	-5.274250e+00
1.830760e+01	-5.309824e+00
1.841334e+01	-5.345226e+00
1.851969e+01	-5.380391e+00
1.862666e+01	-5.416079e+00
1.873425e+01	-5.452034e+00
1.884246e+01	-5.487580e+00
1.895129e+01	-5.523544e+00
1.906075e+01	-5.559654e+00
1.917085e+01	-5.596318e+00
1.928158e+01	-5.632168e+00
1.939295e+01	-5.668411e+00
1.950496e+01	-5.705161e+00
1.961762e+01	-5.741578e+00
1.973093e+01	-5.778346e+00
1.984490e+01	-5.815359e+00
1.995952e+01	-5.852255e+00
2.007480e+01	-5.889333e+00
2.019076e+01	-5.926196e+00
2.030738e+01	-5.963595e+00
2.042467e+01	-6.001072e+00
2.054264e+01	-6.038605e+00
2.066130e+01	-6.076163e+00
2.078064e+01	-6.114112e+00
2.090066e+01	-6.151996e+00
2.102139e+01	-6.189989e+00
2.114280e+01	-6.228053e+00
2.126492e+01	-6.265723e+00
2.138775e+01	-6.304643e+00
2.151128e+01	-6.342673e+00
2.163553e+01	-6.380997e+00
2.176050e+01	-6.419447e+00
2.188619e+01	-6.458422e+00
2.201260e+01	-6.497423e+00
2.213974e+01	-6.536099e+00
2.226762e+01	-6.575231e+00
2.239624e+01	-6.613764e+00
2.252560e+01	-6.653028e+00
2.265571e+01	-6.692436e+00
2.278656e+01	-6.731806e+00
2.291818e+01	-6.771336e+00
2.305055e+01	-6.810950e+00
2.318369e+01	-6.850592e+00
2.331760e+01	-6.890251e+00
2.345228e+01	-6.930120e+00
2.358774e+01	-6.969764e+00
2.372398e+01	-7.010294e+00
2.386101e+01	-7.050113e+00
2.399883e+01	-7.090501e+00
2.413745e+01	-7.131043e+00
2.427686e+01	-7.171288e+00
2.441709e+01	-7.211133e+00
2.455812e+01	-7.252312e+00
2.469997e+01	-7.292924e+00
2.484263e+01	-7.333405e+00
2.498612e+01	-7.374587e+00
2.513044e+01	-7.415410e+00
2.527559e+01	-7.456116e+00
2.542158e+01	-7.497475e+00
2.556842e+01	-7.538420e+00
2.571610e+01	-7.579895e+00
2.586463e+01	-7.621214e+00
2.601403e+01	-7.662493e+00
2.616428e+01	-7.703798e+00
2.631541e+01	-7.745804e+00
2.646740e+01	-7.787007e+00
2.662028e+01	-7.828643e+00
2.677404e+01	-7.870788e+00
2.692868e+01	-7.912431e+00
2.708422e+01	-7.954563e+00
2.724066e+01	-7.996873e+00
2.739800e+01	-8.038901e+00
2.755625e+01	-8.081069e+00
2.771541e+01	-8.122969e+00
2.787550e+01	-8.165443e+00
2.803650e+01	-8.208295e+00
2.819844e+01	-8.250610e+00
2.836131e+01	-8.293159e+00
2.852513e+01	-8.335791e+00
2.868989e+01	-8.378747e+00
2.885560e+01	-8.421604e+00
2.902227e+01	-8.464416e+00
2.918990e+01	-8.507384e+00
2.935850e+01	-8.550524e+00
2.952807e+01	-8.593167e+00
2.969863e+01	-8.636281e+00
2.987016e+01	-8.679591e+00
3.004269e+01	-8.722557e+00
3.021622e+01	-8.766777e+00
3.039075e+01	-8.809483e+00
3.056628e+01	-8.853147e+00
3.074283e+01	-8.896662e+00
3.092040e+01	-8.940100e+00
3.109900e+01	-8.983784e+00
3.127862e+01	-9.027426e+00
3.145929e+01	-9.071513e+00
3.164099e+01	-9.115296e+00
3.182375e+01	-9.159025e+00
3.200756e+01	-9.203347e+00
3.219244e+01	-9.247251e+00
3.237838e+01	-9.291183e+00
3.256540e+01	-9.335408e+00
3.275349e+01	-9.380004e+00
3.294268e+01	-9.424199e+00
3.313295e+01	-9.468576e+00
3.332433e+01	-9.513143e+00
3.351681e+01	-9.556818e+00
3.371040e+01	-9.601667e+00
3.390511e+01	-9.646093e+00
3.410094e+01	-9.690998e+00
3.429791e+01	-9.735542e+00
3.449601e+01	-9.780638e+00
3.469526e+01	-9.825354e+00
3.489566e+01	-9.869901e+00
3.509721e+01	-9.915264e+00
3.529993e+01	-9.959944e+00
3.550382e+01	-1.000483e+01
3.570889e+01	-1.004949e+01
3.591515e+01	-1.009438e+01
3.612259e+01	-1.013986e+01
3.633123e+01	-1.018532e+01
3.654108e+01	-1.023064e+01
3.675214e+01	-1.027582e+01
3.696442e+01	-1.032113e+01
3.717792e+01	-1.036669e+01
3.739266e+01	-1.041249e+01
3.760864e+01	-1.045758e+01
3.782587e+01	-1.050291e+01
3.804435e+01	-1.054897e+01
3.826409e+01	-1.059414e+01
3.848510e+01	-1.064050e+01
3.870739e+01	-1.068533e+01
3.893096e+01	-1.073144e+01
3.915583e+01	-1.077752e+01
3.938199e+01	-1.082306e+01
3.960946e+01	-1.086935e+01
3.983824e+01	-1.091574e+01
4.006834e+01	-1.096104e+01
4.029978e+01	-1.100732e+01
4.053255e+01	-1.105288e+01
4.076666e+01	-1.109923e+01
4.100213e+01	-1.114529e+01
4.123896e+01	-1.119164e+01
4.147715e+01	-1.123793e+01
4.171672e+01	-1.128467e+01
4.195767e+01	-1.133059e+01
4.220002e+01	-1.137753e+01
4.244377e+01	-1.142330e+01
4.268892e+01	-1.146993e+01
4.293549e+01	-1.151648e+01
4.318348e+01	-1.156326e+01
4.343291e+01	-1.160947e+01
4.368377e+01	-1.165533e+01
4.393609e+01	-1.170236e+01
4.418986e+01	-1.174922e+01
4.444510e+01	-1.179633e+01
4.470182e+01	-1.184251e+01
4.496001e+01	-1.188911e+01
4.521970e+01	-1.193617e+01
4.548089e+01	-1.198362e+01
4.574358e+01	-1.203072e+01
4.600779e+01	-1.207724e+01
4.627353e+01	-1.212291e+01
4.654081e+01	-1.217059e+01
4.680963e+01	-1.221809e+01
4.708000e+01	-1.226456e+01
4.735193e+01	-1.231192e+01
4.762543e+01	-1.235896e+01
4.790051e+01	-1.240637e+01
4.817719e+01	-1.245347e+01
4.845545e+01	-1.250001e+01
4.873533e+01	-1.254750e+01
4.901682e+01	-1.259451e+01
4.929994e+01	-1.264288e+01
4.958470e+01	-1.269032e+01
4.987110e+01	-1.273640e+01
5.015915e+01	-1.278473e+01
5.044887e+01	-1.283145e+01
5.074026e+01	-1.287926e+01
5.103333e+01	-1.292639e+01
5.132810e+01	-1.297523e+01
5.162457e+01	-1.302260e+01
5.192275e+01	-1.306930e+01
5.222265e+01	-1.311619e+01
5.252429e+01	-1.316432e+01
5.282767e+01	-1.321237e+01
5.313280e+01	-1.325910e+01
5.343969e+01	-1.330750e+01
5.374836e+01	-1.335570e+01
5.405880e+01	-1.340281e+01
5.437105e+01	-1.345094e+01
5.468509e+01	-1.349851e+01
5.500095e+01	-1.354636e+01
5.531863e+01	-1.359394e+01
5.563815e+01	-1.364165e+01
5.595951e+01	-1.368955e+01
5.628273e+01	-1.373675e+01
5.660782e+01	-1.378527e+01
5.693479e+01	-1.383412e+01
5.726364e+01	-1.388183e+01
5.759439e+01	-1.393030e+01
5.792705e+01	-1.397734e+01
5.826164e+01	-1.402536e+01
5.859815e+01	-1.407396e+01
5.893662e+01	-1.412182e+01
5.927703e+01	-1.417026e+01
5.961941e+01	-1.421839e+01
5.996377e+01	-1.426585e+01
6.031012e+01	-1.431501e+01
6.065847e+01	-1.436284e+01
6.100883e+01	-1.441064e+01
6.136121e+01	-1.445837e+01
6.171563e+01	-1.450728e+01
6.207210e+01	-1.455591e+01
6.243063e+01	-1.460356e+01
6.279122e+01	-1.465170e+01
6.315390e+01	-1.469954e+01
6.351868e+01	-1.474777e+01
6.388556e+01	-1.479690e+01
6.425456e+01	-1.484576e+01
6.462569e+01	-1.489351e+01
6.499897e+01	-1.494229e+01
6.537440e+01	-1.499058e+01
6.575200e+01	-1.503938e+01
6.613178e+01	-1.508789e+01
6.651375e+01	-1.513639e+01
6.689793e+01	-1.518490e+01
6.728433e+01	-1.523271e+01
6.767297e+01	-1.528102e+01
6.806384e+01	-1.532939e+01
6.845698e+01	-1.537991e+01
6.885238e+01	-1.542700e+01
6.925007e+01	-1.547495e+01
6.965005e+01	-1.552468e+01
7.005235e+01	-1.557329e+01
7.045697e+01	-1.562207e+01
7.086393e+01	-1.566981e+01
7.127323e+01	-1.571951e+01
7.168490e+01	-1.576823e+01
7.209895e+01	-1.581672e+01
7.251539e+01	-1.586519e+01
7.293424e+01	-1.591311e+01
7.335551e+01	-1.596233e+01
7.377920e+01	-1.601006e+01
7.420535e+01	-1.606014e+01
7.463396e+01	-1.610869e+01
7.506504e+01	-1.615740e+01
7.549861e+01	-1.620707e+01
7.593469e+01	-1.625592e+01
7.637328e+01	-1.630479e+01
7.681441e+01	-1.635289e+01
7.725809e+01	-1.640293e+01
7.770433e+01	-1.645109e+01
7.815315e+01	-1.649985e+01
7.860456e+01	-1.654902e+01
7.905857e+01	-1.659842e+01
7.951521e+01	-1.664830e+01
7.997449e+01	-1.669577e+01
8.043642e+01	-1.674519e+01
8.090102e+01	-1.679382e+01
8.136830e+01	-1.684210e+01
8.183828e+01	-1.689164e+01
8.231097e+01	-1.694070e+01
8.278640e+01	-1.698949e+01
8.326457e+01	-1.703868e+01
8.374550e+01	-1.708781e+01
8.422921e+01	-1.713743e+01
8.471572e+01	-1.718567e+01
8.520503e+01	-1.723565e+01
8.569717e+01	-1.728482e+01
8.619215e+01	-1.733296e+01
8.669000e+01	-1.738231e+01
8.719071e+01	-1.743073e+01
8.769432e+01	-1.748097e+01
8.820084e+01	-1.752963e+01
8.871029e+01	-1.757863e+01
8.922267e+01	-1.762833e+01
8.973802e+01	-1.767781e+01
9.025634e+01	-1.772589e+01
9.077766e+01	-1.777517e+01
9.130199e+01	-1.782558e+01
9.182935e+01	-1.787537e+01
9.235975e+01	-1.792283e+01
9.289321e+01	-1.797187e+01
9.342976e+01	-1.802188e+01
9.396941e+01	-1.807064e+01
9.451217e+01	-1.811979e+01
9.505807e+01	-1.816944e+01
9.560712e+01	-1.821729e+01
9.615934e+01	-1.826871e+01
9.671476e+01	-1.831586e+01
9.727338e+01	-1.836708e+01
9.783522e+01	-1.841584e+01
9.840032e+01	-1.846532e+01
9.896867e+01	-1.851491e+01
9.954031e+01	-1.856277e+01
1.001153e+02	-1.861165e+01
1.006935e+02	-1.866328e+01
1.012751e+02	-1.871203e+01
1.018601e+02	-1.875989e+01
1.024484e+02	-1.881093e+01
1.030402e+02	-1.886007e+01
1.036353e+02	-1.891006e+01
1.042339e+02	-1.895957e+01
1.048360e+02	-1.900826e+01
1.054415e+02	-1.905716e+01
1.060505e+02	-1.910740e+01
1.066631e+02	-1.915656e+01
1.072791e+02	-1.920682e+01
1.078988e+02	-1.925514e+01
1.085220e+02	-1.930480e+01
1.091488e+02	-1.935331e+01
1.097793e+02	-1.940263e+01
1.104133e+02	-1.945357e+01
1.110511e+02	-1.950173e+01
1.116925e+02	-1.955155e+01
1.123376e+02	-1.960070e+01
1.129865e+02	-1.965139e+01
1.136391e+02	-1.970111e+01
1.142955e+02	-1.975014e+01
1.149556e+02	-1.980068e+01
1.156196e+02	-1.984879e+01
1.162874e+02	-1.989706e+01
1.169591e+02	-1.994910e+01
1.176347e+02	-1.999711e+01
1.183141e+02	-2.004717e+01
1.189975e+02	-2.009693e+01
1.196848e+02	-2.014801e+01
1.203761e+02	-2.019517e+01
1.210714e+02	-2.024555e+01
1.217707e+02	-2.029512e+01
1.224740e+02	-2.034491e+01
1.231814e+02	-2.039304e+01
1.238929e+02	-2.044423e+01
1.246085e+02	-2.049237e+01
1.253283e+02	-2.054247e+01
1.260522e+02	-2.059305e+01
1.267802e+02	-2.064085e+01
1.275125e+02	-2.069056e+01
1.282490e+02	-2.074224e+01
1.289898e+02	-2.078899e+01
1.297348e+02	-2.084000e+01
1.304842e+02	-2.088933e+01
1.312378e+02	-2.094139e+01
1.319959e+02	-2.099134e+01
1.327583e+02	-2.104029e+01
1.335251e+02	-2.109056e+01
1.342963e+02	-2.113761e+01
1.350720e+02	-2.118787e+01
1.358522e+02	-2.123639e+01
1.366368e+02	-2.128822e+01
1.374260e+02	-2.133713e+01
1.382198e+02	-2.138668e+01
1.390182e+02	-2.143801e+01
1.398211e+02	-2.148682e+01
1.406287e+02	-2.153790e+01
1.414410e+02	-2.158733e+01
1.422579e+02	-2.163637e+01
1.430796e+02	-2.168494e+01
1.439060e+02	-2.173517e+01
1.447372e+02	-2.178333e+01
1.455732e+02	-2.183396e+01
1.464141e+02	-2.188481e+01
1.472597e+02	-2.193321e+01
1.481103e+02	-2.198389e+01
1.489658e+02	-2.203142e+01
1.498262e+02	-2.208153e+01
1.506916e+02	-2.213354e+01
1.515620e+02	-2.218274e+01
1.524374e+02	-2.223087e+01
1.533179e+02	-2.228265e+01
1.542034e+02	-2.233194e+01
1.550941e+02	-2.238041e+01
1.559899e+02	-2.243045e+01
1.568909e+02	-2.247938e+01
1.577971e+02	-2.252987e+01
1.587085e+02	-2.257956e+01
1.596252e+02	-2.262735e+01
1.605472e+02	-2.267823e+01
1.614745e+02	-2.272849e+01
1.624072e+02	-2.277837e+01
1.633453e+02	-2.282852e+01
1.642887e+02	-2.287763e+01
1.652377e+02	-2.292822e+01
1.661921e+02	-2.297920e+01
1.671520e+02	-2.302591e+01
1.681175e+02	-2.307838e+01
1.690885e+02	-2.312811e+01
1.700651e+02	-2.317613e+01
1.710474e+02	-2.322635e+01
1.720354e+02	-2.327735e+01
1.730291e+02	-2.332638e+01
1.740285e+02	-2.337782e+01
1.750337e+02	-2.342609e+01
1.760446e+02	-2.347774e+01
1.770615e+02	-2.352518e+01
1.780842e+02	-2.357671e+01
1.791128e+02	-2.362657e+01
1.801473e+02	-2.367584e+01
1.811878e+02	-2.372515e+01
1.822344e+02	-2.377601e+01
1.832870e+02	-2.382608e+01
1.843456e+02	-2.387570e+01
1.854104e+02	-2.392461e+01
1.864813e+02	-2.397363e+01
1.875584e+02	-2.402537e+01
1.886418e+02	-2.407407e+01
1.897313e+02	-2.412756e+01
1.908272e+02	-2.417534e+01
1.919294e+02	-2.422217e+01
1.930380e+02	-2.427489e+01
1.941530e+02	-2.432510e+01
1.952744e+02	-2.437420e+01
1.964023e+02	-2.442314e+01
1.975367e+02	-2.447478e+01
1.986777e+02	-2.452631e+01
1.998252e+02	-2.457184e+01
2.009794e+02	-2.462273e+01
2.021403e+02	-2.467537e+01
2.033078e+02	-2.472375e+01
2.044821e+02	-2.477077e+01
2.056632e+02	-2.482301e+01
2.068511e+02	-2.487112e+01
2.080459e+02	-2.492271e+01
2.092475e+02	-2.496988e+01
2.104561e+02	-2.502223e+01
2.116717e+02	-2.507281e+01
2.128943e+02	-2.512218e+01
2.141240e+02	-2.517040e+01
2.153608e+02	-2.522283e+01
2.166047e+02	-2.527477e+01
2.178558e+02	-2.532242e+01
2.191141e+02	-2.537086e+01
2.203797e+02	-2.542405e+01
2.216526e+02	-2.547210e+01
2.229329e+02	-2.552118e+01
2.242205e+02	-2.556958e+01
2.255156e+02	-2.561889e+01
2.268182e+02	-2.567142e+01
2.281283e+02	-2.572010e+01
2.294459e+02	-2.577194e+01
2.307712e+02	-2.582238e+01
2.321041e+02	-2.587088e+01
2.334447e+02	-2.591959e+01
2.347931e+02	-2.596799e+01
2.361493e+02	-2.602280e+01
2.375133e+02	-2.607283e+01
2.388851e+02	-2.612244e+01
2.402649e+02	-2.617092e+01
2.416527e+02	-2.621887e+01
2.430484e+02	-2.627047e+01
2.444523e+02	-2.632360e+01
2.458642e+02	-2.637075e+01
2.472843e+02	-2.642029e+01
2.487126e+02	-2.646806e+01
2.501492e+02	-2.652210e+01
2.515940e+02	-2.657032e+01
2.530472e+02	-2.661590e+01
2.545088e+02	-2.666848e+01
2.559789e+02	-2.672174e+01
2.574574e+02	-2.676828e+01
2.589444e+02	-2.681853e+01
2.604401e+02	-2.687250e+01
2.619444e+02	-2.692412e+01
2.634574e+02	-2.697203e+01
2.649791e+02	-2.702177e+01
2.665096e+02	-2.707438e+01
2.680489e+02	-2.712084e+01
2.695972e+02	-2.717095e+01
2.711544e+02	-2.721849e+01
2.727205e+02	-2.727113e+01
2.742958e+02	-2.731771e+01
2.758801e+02	-2.736944e+01
2.774736e+02	-2.742166e+01
2.790762e+02	-2.746996e+01
2.806882e+02	-2.751826e+01
2.823094e+02	-2.756912e+01
2.839400e+02	-2.761811e+01
2.855800e+02	-2.767092e+01
2.872295e+02	-2.771993e+01
2.888886e+02	-2.777153e+01
2.905572e+02	-2.782379e+01
2.922354e+02	-2.787136e+01
2.939234e+02	-2.792252e+01
2.956211e+02	-2.797044e+01
2.973286e+02	-2.802158e+01
2.990459e+02	-2.807215e+01
3.007732e+02	-2.811986e+01
3.025104e+02	-2.816978e+01
3.042577e+02	-2.822321e+01
3.060151e+02	-2.827307e+01
3.077826e+02	-2.831990e+01
3.095604e+02	-2.837046e+01
3.113484e+02	-2.841921e+01
3.131467e+02	-2.846747e+01
3.149554e+02	-2.851700e+01
3.167746e+02	-2.856999e+01
3.186043e+02	-2.862293e+01
3.204445e+02	-2.866799e+01
3.222954e+02	-2.871629e+01
3.241570e+02	-2.877031e+01
3.260293e+02	-2.882094e+01
3.279124e+02	-2.887010e+01
3.298064e+02	-2.892005e+01
3.317114e+02	-2.897231e+01
3.336273e+02	-2.901941e+01
3.355544e+02	-2.907088e+01
3.374925e+02	-2.912402e+01
3.394418e+02	-2.917101e+01
3.414024e+02	-2.922033e+01
3.433744e+02	-2.927319e+01
3.453577e+02	-2.931868e+01
3.473525e+02	-2.937111e+01
3.493588e+02	-2.942260e+01
3.513766e+02	-2.947146e+01
3.534062e+02	-2.951958e+01
3.554474e+02	-2.957056e+01
3.575005e+02	-2.962387e+01
3.595654e+02	-2.967417e+01
3.616422e+02	-2.972068e+01
3.637311e+02	-2.977154e+01
3.658320e+02	-2.982257e+01
3.679450e+02	-2.986766e+01
3.700702e+02	-2.992432e+01
3.722077e+02	-2.997002e+01
3.743576e+02	-3.002300e+01
3.765199e+02	-3.007369e+01
3.786946e+02	-3.012213e+01
3.808820e+02	-3.017426e+01
3.830819e+02	-3.022466e+01
3.852946e+02	-3.027436e+01
3.875200e+02	-3.032412e+01
3.897583e+02	-3.037655e+01
3.920096e+02	-3.042495e+01
3.942738e+02	-3.047267e+01
3.965511e+02	-3.052386e+01
3.988416e+02	-3.057333e+01
4.011452e+02	-3.062818e+01
4.034622e+02	-3.067636e+01
4.057926e+02	-3.072627e+01
4.081365e+02	-3.077563e+01
4.104938e+02	-3.082132e+01
4.128648e+02	-3.087622e+01
4.152495e+02	-3.092180e+01
4.176480e+02	-3.097801e+01
4.200603e+02	-3.102306e+01
4.224866e+02	-3.107248e+01
4.249268e+02	-3.112526e+01
4.273812e+02	-3.117815e+01
4.298497e+02	-3.122071e+01
4.323325e+02	-3.127215e+01
4.348297e+02	-3.132114e+01
4.373412e+02	-3.136876e+01
4.398673e+02	-3.142847e+01
4.424079e+02	-3.148088e+01
4.449633e+02	-3.152809e+01
4.475334e+02	-3.158065e+01
4.501183e+02	-3.163230e+01
4.527182e+02	-3.167076e+01
4.553330e+02	-3.172733e+01
4.579630e+02	-3.178063e+01
4.606082e+02	-3.182895e+01
4.632687e+02	-3.187856e+01
4.659445e+02	-3.192294e+01
4.686358e+02	-3.197681e+01
4.713426e+02	-3.202751e+01
4.740650e+02	-3.207401e+01
4.768032e+02	-3.212928e+01
4.795572e+02	-3.217345e+01
4.823271e+02	-3.222665e+01
4.851130e+02	-3.227859e+01
4.879150e+02	-3.232547e+01
4.907332e+02	-3.237926e+01
4.935676e+02	-3.243167e+01
4.964185e+02	-3.247820e+01
4.992858e+02	-3.254072e+01
5.021696e+02	-3.257937e+01
5.050701e+02	-3.262736e+01
5.079874e+02	-3.268212e+01
5.109215e+02	-3.273538e+01
5.138726e+02	-3.278101e+01
5.168407e+02	-3.283642e+01
5.198259e+02	-3.288162e+01
5.228284e+02	-3.293564e+01
5.258482e+02	-3.297564e+01
5.288855e+02	-3.303055e+01
5.319403e+02	-3.307369e+01
5.350128e+02	-3.313944e+01
5.381030e+02	-3.318163e+01
5.412111e+02	-3.324126e+01
5.443371e+02	-3.328504e+01
5.474812e+02	-3.333325e+01
5.506434e+02	-3.338553e+01
5.538239e+02	-3.343745e+01
5.570228e+02	-3.348536e+01
5.602401e+02	-3.353331e+01
5.634760e+02	-3.358814e+01
5.667306e+02	-3.364740e+01
5.700040e+02	-3.369179e+01
5.732964e+02	-3.373919e+01
5.766077e+02	-3.378311e+01
5.799382e+02	-3.383366e+01
5.832879e+02	-3.389040e+01
5.866569e+02	-3.394125e+01
5.900454e+02	-3.398901e+01
5.934535e+02	-3.403717e+01
5.968813e+02	-3.408456e+01
6.003288e+02	-3.413771e+01
6.037963e+02	-3.418136e+01
6.072838e+02	-3.423781e+01
6.107914e+02	-3.428742e+01
6.143194e+02	-3.434230e+01
6.178676e+02	-3.439201e+01
6.214364e+02	-3.443859e+01
6.250258e+02	-3.448497e+01
6.286359e+02	-3.453915e+01
6.322669e+02	-3.459406e+01
6.359189e+02	-3.463825e+01
6.395919e+02	-3.469182e+01
6.432862e+02	-3.473921e+01
6.470017e+02	-3.479136e+01
6.507388e+02	-3.484917e+01
6.544974e+02	-3.488830e+01
6.582778e+02	-3.494507e+01
6.620800e+02	-3.499328e+01
6.659041e+02	-3.504575e+01
6.697504e+02	-3.509197e+01
6.736188e+02	-3.515805e+01
6.775096e+02	-3.519897e+01
6.814229e+02	-3.524486e+01
6.853587e+02	-3.529198e+01
6.893173e+02	-3.534457e+01
6.932988e+02	-3.539912e+01
6.973033e+02	-3.544256e+01
7.013309e+02	-3.549182e+01
