Frequency(Hz)	Magnitude(dB)
1.000000e+01	-2.337889e+00
1.005776e+01	-2.358807e+00
1.011585e+01	-2.379895e+00
1.017428e+01	-2.401036e+00
1.023305e+01	-2.422289e+00
1.029215e+01	-2.443758e+00
1.035160e+01	-2.465452e+00
1.041139e+01	-2.487191e+00
1.047153e+01	-2.509043e+00
1.053201e+01	-2.530977e+00
1.059284e+01	-2.553324e+00
1.065403e+01	-2.575663e+00
1.071556e+01	-2.598018e+00
1.077746e+01	-2.620569e+00
1.083971e+01	-2.643193e+00
1.090232e+01	-2.666224e+00
1.096529e+01	-2.689143e+00
1.102862e+01	-2.712187e+00
1.109232e+01	-2.735736e+00
1.115639e+01	-2.759055e+00
1.122083e+01	-2.782656e+00
1.128564e+01	-2.806168e+00
1.135083e+01	-2.830397e+00
1.141639e+01	-2.854423e+00
1.148233e+01	-2.878490e+00
1.154865e+01	-2.902788e+00
1.161536e+01	-2.927362e+00
1.168245e+01	-2.951865e+00
1.174992e+01	-2.976664e+00
1.181779e+01	-3.001525e+00
1.188605e+01	-3.026376e+00
1.195470e+01	-3.051715e+00
1.202375e+01	-3.076916e+00
1.209320e+01	-3.102579e+00
1.216305e+01	-3.128116e+00
1.223330e+01	-3.153871e+00
1.230396e+01	-3.179620e+00
1.237503e+01	-3.206023e+00
1.244651e+01	-3.231836e+00
1.251840e+01	-3.258073e+00
1.259070e+01	-3.284938e+00
1.266343e+01	-3.311468e+00
1.273657e+01	-3.338239e+00
1.281014e+01	-3.364779e+00
1.288413e+01	-3.392145e+00
1.295855e+01	-3.419336e+00
1.303339e+01	-3.446531e+00
1.310867e+01	-3.474378e+00
1.318439e+01	-3.501754e+00
1.326054e+01	-3.529632e+00
1.333713e+01	-3.557387e+00
1.341417e+01	-3.585438e+00
1.349165e+01	-3.613760e+00
1.356958e+01	-3.641818e+00
1.364795e+01	-3.670304e+00
1.372678e+01	-3.699096e+00
1.380607e+01	-3.727758e+00
1.388581e+01	-3.756539e+00
1.396602e+01	-3.785563e+00
1.404668e+01	-3.814805e+00
1.412782e+01	-3.844118e+00
1.420942e+01	-3.873732e+00
1.429149e+01	-3.903101e+00
1.437404e+01	-3.932882e+00
1.445706e+01	-3.963026e+00
1.454057e+01	-3.992986e+00
1.462455e+01	-4.023085e+00
1.470902e+01	-4.053114e+00
1.479398e+01	-4.083658e+00
1.487943e+01	-4.114237e+00
1.496537e+01	-4.145099e+00
1.505181e+01	-4.176070e+00
1.513875e+01	-4.206740e+00
1.522619e+01	-4.237759e+00
1.531414e+01	-4.269111e+00
1.540259e+01	-4.300362e+00
1.549156e+01	-4.331831e+00
1.558103e+01	-4.363483e+00
1.567103e+01	-4.395474e+00
1.576155e+01	-4.427453e+00
1.585258e+01	-4.459039e+00
1.594415e+01	-4.491538e+00
1.603624e+01	-4.523986e+00
1.612886e+01	-4.556086e+00
1.622202e+01	-4.588844e+00
1.631572e+01	-4.621702e+00
1.640996e+01	-4.654377e+00
1.650474e+01	-4.687383e+00
1.660008e+01	-4.720385e+00
1.669596e+01	-4.753491e+00
1.679239e+01	-4.786898e+00
1.688938e+01	-4.820553e+00
1.698694e+01	-4.854083e+00
1.708505e+01	-4.887507e+00
1.718373e+01	-4.921705e+00
1.728299e+01	-4.955892e+00
1.738281e+01	-4.989754e+00
1.748322e+01	-5.023611e+00
1.758420e+01	-5.058551e+00
1.768576e+01	-5.092754e+00
1.778792e+01	-5.127337e+00
1.789066e+01	-5.162225e+00
1.799399e+01	-5.196782e+00
1.809793e+01	-5.231967e+00
1.820246e+01	-5.266805e+00
1.830760e+01	-5.302030e+00
1.841334e+01	-5.337431e+00
1.851969e+01	-5.373353e+00
1.862666e+01	-5.408526e+00
1.873425e+01	-5.444228e+00
1.884246e+01	-5.480194e+00
1.895129e+01	-5.516173e+00
1.906075e+01	-5.552112e+00
1.917085e+01	-5.588165e+00
1.928158e+01	-5.624282e+00
1.939295e+01	-5.660797e+00
1.950496e+01	-5.697510e+00
1.961762e+01	-5.733602e+00
1.973093e+01	-5.770645e+00
1.984490e+01	-5.807525e+00
1.995952e+01	-5.844469e+00
2.007480e+01	-5.881722e+00
2.019076e+01	-5.918552e+00
2.030738e+01	-5.955984e+00
2.042467e+01	-5.993366e+00
2.054264e+01	-6.030627e+00
2.066130e+01	-6.068551e+00
2.078064e+01	-6.106321e+00
2.090066e+01	-6.143964e+00
2.102139e+01	-6.181793e+00
2.114280e+01	-6.219869e+00
2.126492e+01	-6.257981e+00
2.138775e+01	-6.296231e+00
2.151128e+01	-6.334279e+00
2.163553e+01	-6.373095e+00
2.176050e+01	-6.411423e+00
2.188619e+01	-6.450275e+00
2.201260e+01	-6.488534e+00
2.213974e+01	-6.527796e+00
2.226762e+01	-6.566456e+00
2.239624e+01	-6.605820e+00
2.252560e+01	-6.644843e+00
2.265571e+01	-6.684178e+00
2.278656e+01	-6.723105e+00
2.291818e+01	-6.762838e+00
2.305055e+01	-6.802127e+00
2.318369e+01	-6.842009e+00
2.331760e+01	-6.881613e+00
2.345228e+01	-6.921860e+00
2.358774e+01	-6.961674e+00
2.372398e+01	-7.001133e+00
2.386101e+01	-7.041685e+00
2.399883e+01	-7.081889e+00
2.413745e+01	-7.122364e+00
2.427686e+01	-7.162625e+00
2.441709e+01	-7.202696e+00
2.455812e+01	-7.243516e+00
2.469997e+01	-7.284014e+00
2.484263e+01	-7.325119e+00
2.498612e+01	-7.365804e+00
2.513044e+01	-7.406449e+00
2.527559e+01	-7.447399e+00
2.542158e+01	-7.488816e+00
2.556842e+01	-7.529349e+00
2.571610e+01	-7.570931e+00
2.586463e+01	-7.611964e+00
2.601403e+01	-7.653337e+00
2.616428e+01	-7.695253e+00
2.631541e+01	-7.737026e+00
2.646740e+01	-7.778178e+00
2.662028e+01	-7.820264e+00
2.677404e+01	-7.861744e+00
2.692868e+01	-7.903590e+00
2.708422e+01	-7.945647e+00
2.724066e+01	-7.987784e+00
2.739800e+01	-8.029611e+00
2.755625e+01	-8.072288e+00
2.771541e+01	-8.114037e+00
2.787550e+01	-8.156711e+00
2.803650e+01	-8.198729e+00
2.819844e+01	-8.241380e+00
2.836131e+01	-8.284231e+00
2.852513e+01	-8.326947e+00
2.868989e+01	-8.369577e+00
2.885560e+01	-8.412098e+00
2.902227e+01	-8.455124e+00
2.918990e+01	-8.497750e+00
2.935850e+01	-8.541201e+00
2.952807e+01	-8.583996e+00
2.969863e+01	-8.627496e+00
2.987016e+01	-8.670561e+00
3.004269e+01	-8.713505e+00
3.021622e+01	-8.756920e+00
3.039075e+01	-8.799994e+00
3.056628e+01	-8.844407e+00
3.074283e+01	-8.887275e+00
3.092040e+01	-8.930561e+00
3.109900e+01	-8.974824e+00
3.127862e+01	-9.018067e+00
3.145929e+01	-9.062373e+00
3.164099e+01	-9.106140e+00
3.182375e+01	-9.149559e+00
3.200756e+01	-9.193685e+00
3.219244e+01	-9.238005e+00
3.237838e+01	-9.281879e+00
3.256540e+01	-9.326616e+00
3.275349e+01	-9.369932e+00
3.294268e+01	-9.414588e+00
3.313295e+01	-9.458939e+00
3.332433e+01	-9.503391e+00
3.351681e+01	-9.547589e+00
3.371040e+01	-9.592012e+00
3.390511e+01	-9.636884e+00
3.410094e+01	-9.681145e+00
3.429791e+01	-9.725869e+00
3.449601e+01	-9.771211e+00
3.469526e+01	-9.815067e+00
3.489566e+01	-9.860554e+00
3.509721e+01	-9.905364e+00
3.529993e+01	-9.950491e+00
3.550382e+01	-9.995422e+00
3.570889e+01	-1.004049e+01
3.591515e+01	-1.008507e+01
3.612259e+01	-1.013043e+01
3.633123e+01	-1.017589e+01
3.654108e+01	-1.022136e+01
3.675214e+01	-1.026673e+01
3.696442e+01	-1.031160e+01
3.717792e+01	-1.035730e+01
3.739266e+01	-1.040260e+01
3.760864e+01	-1.044802e+01
3.782587e+01	-1.049355e+01
3.804435e+01	-1.053927e+01
3.826409e+01	-1.058510e+01
3.848510e+01	-1.063005e+01
3.870739e+01	-1.067613e+01
3.893096e+01	-1.072219e+01
3.915583e+01	-1.076720e+01
3.938199e+01	-1.081314e+01
3.960946e+01	-1.085975e+01
3.983824e+01	-1.090548e+01
4.006834e+01	-1.095104e+01
4.029978e+01	-1.099705e+01
4.053255e+01	-1.104329e+01
4.076666e+01	-1.108934e+01
4.100213e+01	-1.113597e+01
4.123896e+01	-1.118187e+01
4.147715e+01	-1.122824e+01
4.171672e+01	-1.127469e+01
4.195767e+01	-1.132037e+01
4.220002e+01	-1.136723e+01
4.244377e+01	-1.141375e+01
4.268892e+01	-1.146027e+01
4.293549e+01	-1.150607e+01
4.318348e+01	-1.155251e+01
4.343291e+01	-1.159944e+01
4.368377e+01	-1.164562e+01
4.393609e+01	-1.169290e+01
4.418986e+01	-1.173975e+01
4.444510e+01	-1.178621e+01
4.470182e+01	-1.183364e+01
4.496001e+01	-1.187942e+01
4.521970e+01	-1.192674e+01
4.548089e+01	-1.197333e+01
4.574358e+01	-1.201958e+01
4.600779e+01	-1.206654e+01
4.627353e+01	-1.211443e+01
4.654081e+01	-1.216080e+01
4.680963e+01	-1.220694e+01
4.708000e+01	-1.225515e+01
4.735193e+01	-1.230237e+01
4.762543e+01	-1.234925e+01
4.790051e+01	-1.239635e+01
4.817719e+01	-1.244357e+01
4.845545e+01	-1.249008e+01
4.873533e+01	-1.253746e+01
4.901682e+01	-1.258476e+01
4.929994e+01	-1.263266e+01
4.958470e+01	-1.267997e+01
4.987110e+01	-1.272682e+01
5.015915e+01	-1.277471e+01
5.044887e+01	-1.282230e+01
5.074026e+01	-1.286938e+01
5.103333e+01	-1.291622e+01
5.132810e+01	-1.296407e+01
5.162457e+01	-1.301165e+01
5.192275e+01	-1.305905e+01
5.222265e+01	-1.310648e+01
5.252429e+01	-1.315430e+01
5.282767e+01	-1.320128e+01
5.313280e+01	-1.324958e+01
5.343969e+01	-1.329650e+01
5.374836e+01	-1.334460e+01
5.405880e+01	-1.339285e+01
5.437105e+01	-1.344081e+01
5.468509e+01	-1.348874e+01
5.500095e+01	-1.353552e+01
5.531863e+01	-1.358414e+01
5.563815e+01	-1.363192e+01
5.595951e+01	-1.367990e+01
5.628273e+01	-1.372754e+01
5.660782e+01	-1.377569e+01
5.693479e+01	-1.382243e+01
5.726364e+01	-1.387112e+01
5.759439e+01	-1.391954e+01
5.792705e+01	-1.396809e+01
5.826164e+01	-1.401500e+01
5.859815e+01	-1.406343e+01
5.893662e+01	-1.411109e+01
5.927703e+01	-1.415999e+01
5.961941e+01	-1.420855e+01
5.996377e+01	-1.425517e+01
6.031012e+01	-1.430451e+01
6.065847e+01	-1.435203e+01
6.100883e+01	-1.440038e+01
6.136121e+01	-1.444881e+01
6.171563e+01	-1.449681e+01
6.207210e+01	-1.454482e+01
6.243063e+01	-1.459375e+01
6.279122e+01	-1.464170e+01
6.315390e+01	-1.469017e+01
6.351868e+01	-1.473850e+01
6.388556e+01	-1.478720e+01
6.425456e+01	-1.483525e+01
6.462569e+01	-1.488342e+01
6.499897e+01	-1.493168e+01
6.537440e+01	-1.497942e+01
6.575200e+01	-1.502844e+01
6.613178e+01	-1.507759e+01
6.651375e+01	-1.512655e+01
6.689793e+01	-1.517498e+01
6.728433e+01	-1.522130e+01
6.767297e+01	-1.527165e+01
6.806384e+01	-1.531959e+01
6.845698e+01	-1.536833e+01
6.885238e+01	-1.541544e+01
6.925007e+01	-1.546553e+01
6.965005e+01	-1.551459e+01
7.005235e+01	-1.556321e+01
7.045697e+01	-1.561190e+01
7.086393e+01	-1.566026e+01
7.127323e+01	-1.571000e+01
7.168490e+01	-1.575711e+01
7.209895e+01	-1.580671e+01
7.251539e+01	-1.585491e+01
7.293424e+01	-1.590295e+01
7.335551e+01	-1.595275e+01
7.377920e+01	-1.600223e+01
7.420535e+01	-1.604976e+01
7.463396e+01	-1.609948e+01
7.506504e+01	-1.614708e+01
7.549861e+01	-1.619679e+01
7.593469e+01	-1.624530e+01
7.637328e+01	-1.629334e+01
7.681441e+01	-1.634378e+01
7.725809e+01	-1.639120e+01
7.770433e+01	-1.644106e+01
7.815315e+01	-1.648854e+01
7.860456e+01	-1.653847e+01
7.905857e+01	-1.658844e+01
7.951521e+01	-1.663567e+01
7.997449e+01	-1.668648e+01
8.043642e+01	-1.673549e+01
8.090102e+01	-1.678217e+01
8.136830e+01	-1.683266e+01
8.183828e+01	-1.688128e+01
8.231097e+01	-1.692986e+01
8.278640e+01	-1.697943e+01
8.326457e+01	-1.702813e+01
8.374550e+01	-1.707725e+01
8.422921e+01	-1.712659e+01
8.471572e+01	-1.717594e+01
8.520503e+01	-1.722366e+01
8.569717e+01	-1.727362e+01
8.619215e+01	-1.732323e+01
8.669000e+01	-1.737174e+01
8.719071e+01	-1.742169e+01
8.769432e+01	-1.746995e+01
8.820084e+01	-1.751955e+01
8.871029e+01	-1.756865e+01
8.922267e+01	-1.761717e+01
8.973802e+01	-1.766652e+01
9.025634e+01	-1.771551e+01
9.077766e+01	-1.776532e+01
9.130199e+01	-1.781708e+01
9.182935e+01	-1.786334e+01
9.235975e+01	-1.791199e+01
9.289321e+01	-1.796201e+01
9.342976e+01	-1.801130e+01
9.396941e+01	-1.806094e+01
9.451217e+01	-1.811037e+01
9.505807e+01	-1.815990e+01
9.560712e+01	-1.820804e+01
9.615934e+01	-1.825746e+01
9.671476e+01	-1.830748e+01
9.727338e+01	-1.835598e+01
9.783522e+01	-1.840426e+01
9.840032e+01	-1.845510e+01
9.896867e+01	-1.850393e+01
9.954031e+01	-1.855225e+01
1.001153e+02	-1.860287e+01
1.006935e+02	-1.865264e+01
1.012751e+02	-1.870080e+01
1.018601e+02	-1.874976e+01
1.024484e+02	-1.880008e+01
1.030402e+02	-1.885002e+01
1.036353e+02	-1.890134e+01
1.042339e+02	-1.894869e+01
1.048360e+02	-1.899894e+01
1.054415e+02	-1.904781e+01
1.060505e+02	-1.909529e+01
1.066631e+02	-1.914491e+01
1.072791e+02	-1.919744e+01
1.078988e+02	-1.924454e+01
1.085220e+02	-1.929394e+01
1.091488e+02	-1.934352e+01
1.097793e+02	-1.939292e+01
1.104133e+02	-1.944394e+01
1.110511e+02	-1.949209e+01
1.116925e+02	-1.954019e+01
1.123376e+02	-1.958932e+01
1.129865e+02	-1.963918e+01
1.136391e+02	-1.969109e+01
1.142955e+02	-1.973948e+01
1.149556e+02	-1.979042e+01
1.156196e+02	-1.983876e+01
1.162874e+02	-1.988927e+01
1.169591e+02	-1.993853e+01
1.176347e+02	-1.998603e+01
1.183141e+02	-2.003806e+01
1.189975e+02	-2.008645e+01
1.196848e+02	-2.013593e+01
1.203761e+02	-2.018485e+01
1.210714e+02	-2.023560e+01
1.217707e+02	-2.028376e+01
1.224740e+02	-2.033428e+01
1.231814e+02	-2.038196e+01
1.238929e+02	-2.043106e+01
1.246085e+02	-2.048197e+01
1.253283e+02	-2.053137e+01
1.260522e+02	-2.058380e+01
1.267802e+02	-2.063217e+01
1.275125e+02	-2.068260e+01
1.282490e+02	-2.073223e+01
1.289898e+02	-2.077867e+01
1.297348e+02	-2.083023e+01
1.304842e+02	-2.087865e+01
1.312378e+02	-2.092888e+01
1.319959e+02	-2.097811e+01
1.327583e+02	-2.102986e+01
1.335251e+02	-2.107814e+01
1.342963e+02	-2.112696e+01
1.350720e+02	-2.117597e+01
1.358522e+02	-2.122669e+01
1.366368e+02	-2.127664e+01
1.374260e+02	-2.132700e+01
1.382198e+02	-2.137548e+01
1.390182e+02	-2.142434e+01
1.398211e+02	-2.147453e+01
1.406287e+02	-2.152487e+01
1.414410e+02	-2.157443e+01
1.422579e+02	-2.162610e+01
1.430796e+02	-2.167320e+01
1.439060e+02	-2.172316e+01
1.447372e+02	-2.177407e+01
1.455732e+02	-2.182406e+01
1.464141e+02	-2.187240e+01
1.472597e+02	-2.192167e+01
1.481103e+02	-2.197153e+01
1.489658e+02	-2.202275e+01
1.498262e+02	-2.207219e+01
1.506916e+02	-2.212238e+01
1.515620e+02	-2.217219e+01
1.524374e+02	-2.222078e+01
1.533179e+02	-2.227129e+01
1.542034e+02	-2.232005e+01
1.550941e+02	-2.236910e+01
1.559899e+02	-2.242100e+01
1.568909e+02	-2.247253e+01
1.577971e+02	-2.251901e+01
1.587085e+02	-2.257185e+01
1.596252e+02	-2.261917e+01
1.605472e+02	-2.266904e+01
1.614745e+02	-2.271952e+01
1.624072e+02	-2.276911e+01
1.633453e+02	-2.281919e+01
1.642887e+02	-2.287093e+01
1.652377e+02	-2.291737e+01
1.661921e+02	-2.296778e+01
1.671520e+02	-2.301662e+01
1.681175e+02	-2.306469e+01
1.690885e+02	-2.311807e+01
1.700651e+02	-2.316560e+01
1.710474e+02	-2.321653e+01
1.720354e+02	-2.326751e+01
1.730291e+02	-2.331607e+01
1.740285e+02	-2.336453e+01
1.750337e+02	-2.341462e+01
1.760446e+02	-2.346509e+01
1.770615e+02	-2.351809e+01
1.780842e+02	-2.356523e+01
1.791128e+02	-2.361582e+01
1.801473e+02	-2.366455e+01
1.811878e+02	-2.371460e+01
1.822344e+02	-2.376268e+01
1.832870e+02	-2.381885e+01
1.843456e+02	-2.386556e+01
1.854104e+02	-2.391569e+01
1.864813e+02	-2.396225e+01
1.875584e+02	-2.401303e+01
1.886418e+02	-2.406368e+01
1.897313e+02	-2.411439e+01
1.908272e+02	-2.416207e+01
1.919294e+02	-2.421395e+01
1.930380e+02	-2.426132e+01
1.941530e+02	-2.431375e+01
1.952744e+02	-2.436116e+01
1.964023e+02	-2.441287e+01
1.975367e+02	-2.446230e+01
1.986777e+02	-2.451197e+01
1.998252e+02	-2.456301e+01
2.009794e+02	-2.461226e+01
2.021403e+02	-2.466025e+01
2.033078e+02	-2.471057e+01
2.044821e+02	-2.476206e+01
2.056632e+02	-2.481085e+01
2.068511e+02	-2.486066e+01
2.080459e+02	-2.491282e+01
2.092475e+02	-2.495779e+01
2.104561e+02	-2.501154e+01
2.116717e+02	-2.506182e+01
2.128943e+02	-2.511118e+01
2.141240e+02	-2.516179e+01
2.153608e+02	-2.521415e+01
2.166047e+02	-2.526278e+01
2.178558e+02	-2.531060e+01
2.191141e+02	-2.536034e+01
2.203797e+02	-2.541084e+01
2.216526e+02	-2.546133e+01
2.229329e+02	-2.550787e+01
2.242205e+02	-2.555855e+01
2.255156e+02	-2.561326e+01
2.268182e+02	-2.566092e+01
2.281283e+02	-2.571041e+01
2.294459e+02	-2.576250e+01
2.307712e+02	-2.580895e+01
2.321041e+02	-2.585979e+01
2.334447e+02	-2.591429e+01
2.347931e+02	-2.595982e+01
2.361493e+02	-2.600970e+01
2.375133e+02	-2.606073e+01
2.388851e+02	-2.611030e+01
2.402649e+02	-2.615825e+01
2.416527e+02	-2.620837e+01
2.430484e+02	-2.625967e+01
2.444523e+02	-2.630959e+01
2.458642e+02	-2.635820e+01
2.472843e+02	-2.641175e+01
2.487126e+02	-2.646063e+01
2.501492e+02	-2.651171e+01
2.515940e+02	-2.656097e+01
2.530472e+02	-2.660874e+01
2.545088e+02	-2.666102e+01
2.559789e+02	-2.670908e+01
2.574574e+02	-2.675697e+01
2.589444e+02	-2.680699e+01
2.604401e+02	-2.685940e+01
2.619444e+02	-2.691312e+01
2.634574e+02	-2.696062e+01
2.649791e+02	-2.700866e+01
2.665096e+02	-2.705510e+01
2.680489e+02	-2.710875e+01
2.695972e+02	-2.716148e+01
2.711544e+02	-2.720812e+01
2.727205e+02	-2.726119e+01
2.742958e+02	-2.731103e+01
2.758801e+02	-2.736142e+01
2.774736e+02	-2.741133e+01
2.790762e+02	-2.745972e+01
2.806882e+02	-2.751309e+01
2.823094e+02	-2.755883e+01
2.839400e+02	-2.760910e+01
2.855800e+02	-2.765979e+01
2.872295e+02	-2.770981e+01
2.888886e+02	-2.775910e+01
2.905572e+02	-2.780685e+01
2.922354e+02	-2.785859e+01
2.939234e+02	-2.791036e+01
2.956211e+02	-2.795821e+01
2.973286e+02	-2.800834e+01
2.990459e+02	-2.806036e+01
3.007732e+02	-2.811128e+01
3.025104e+02	-2.815918e+01
3.042577e+02	-2.820592e+01
3.060151e+02	-2.825481e+01
3.077826e+02	-2.831012e+01
3.095604e+02	-2.835755e+01
3.113484e+02	-2.840597e+01
3.131467e+02	-2.845797e+01
3.149554e+02	-2.850835e+01
3.167746e+02	-2.856105e+01
3.186043e+02	-2.860807e+01
3.204445e+02	-2.865876e+01
3.222954e+02	-2.870788e+01
3.241570e+02	-2.875599e+01
3.260293e+02	-2.881001e+01
3.279124e+02	-2.885818e+01
3.298064e+02	-2.891233e+01
3.317114e+02	-2.896223e+01
3.336273e+02	-2.900731e+01
3.355544e+02	-2.906417e+01
3.374925e+02	-2.910580e+01
3.394418e+02	-2.916035e+01
3.414024e+02	-2.921307e+01
3.433744e+02	-2.926230e+01
3.453577e+02	-2.930855e+01
3.473525e+02	-2.936019e+01
3.493588e+02	-2.940932e+01
3.513766e+02	-2.946568e+01
3.534062e+02	-2.951106e+01
3.554474e+02	-2.956343e+01
3.575005e+02	-2.961219e+01
3.595654e+02	-2.965974e+01
3.616422e+02	-2.971205e+01
3.637311e+02	-2.976239e+01
3.658320e+02	-2.981384e+01
3.679450e+02	-2.986026e+01
3.700702e+02	-2.991346e+01
3.722077e+02	-2.996240e+01
3.743576e+02	-3.000970e+01
3.765199e+02	-3.005966e+01
3.786946e+02	-3.011087e+01
3.808820e+02	-3.016045e+01
3.830819e+02	-3.021017e+01
3.852946e+02	-3.026166e+01
3.875200e+02	-3.031142e+01
3.897583e+02	-3.036368e+01
3.920096e+02	-3.040524e+01
3.942738e+02	-3.046615e+01
3.965511e+02	-3.051002e+01
3.988416e+02	-3.055962e+01
4.011452e+02	-3.061382e+01
4.034622e+02	-3.066999e+01
4.057926e+02	-3.071415e+01
4.081365e+02	-3.076244e+01
4.104938e+02	-3.081598e+01
4.128648e+02	-3.085681e+01
4.152495e+02	-3.091438e+01
4.176480e+02	-3.096195e+01
4.200603e+02	-3.101796e+01
4.224866e+02	-3.106358e+01
4.249268e+02	-3.111439e+01
4.273812e+02	-3.116483e+01
4.298497e+02	-3.121391e+01
4.323325e+02	-3.126636e+01
4.348297e+02	-3.131550e+01
4.373412e+02	-3.136857e+01
4.398673e+02	-3.141402e+01
4.424079e+02	-3.146316e+01
4.449633e+02	-3.151464e+01
4.475334e+02	-3.156608e+01
4.501183e+02	-3.161487e+01
4.527182e+02	-3.166752e+01
4.553330e+02	-3.171756e+01
4.579630e+02	-3.176294e+01
4.606082e+02	-3.181618e+01
4.632687e+02	-3.186925e+01
4.659445e+02	-3.191695e+01
4.686358e+02	-3.196664e+01
4.713426e+02	-3.201931e+01
4.740650e+02	-3.207062e+01
4.768032e+02	-3.211670e+01
4.795572e+02	-3.217016e+01
4.823271e+02	-3.221588e+01
4.851130e+02	-3.226952e+01
4.879150e+02	-3.231378e+01
4.907332e+02	-3.236796e+01
4.935676e+02	-3.241249e+01
4.964185e+02	-3.246554e+01
4.992858e+02	-3.251678e+01
5.021696e+02	-3.256454e+01
5.050701e+02	-3.262106e+01
5.079874e+02	-3.266936e+01
5.109215e+02	-3.272157e+01
5.138726e+02	-3.276046e+01
5.168407e+02	-3.282319e+01
5.198259e+02	-3.286876e+01
5.228284e+02	-3.291935e+01
5.258482e+02	-3.297554e+01
5.288855e+02	-3.302200e+01
5.319403e+02	-3.306732e+01
5.350128e+02	-3.312369e+01
5.381030e+02	-3.316428e+01
5.412111e+02	-3.323181e+01
5.443371e+02	-3.326343e+01
5.474812e+02	-3.332955e+01
5.506434e+02	-3.337233e+01
5.538239e+02	-3.342892e+01
5.570228e+02	-3.347579e+01
5.602401e+02	-3.352479e+01
5.634760e+02	-3.358229e+01
5.667306e+02	-3.362955e+01
5.700040e+02	-3.368098e+01
5.732964e+02	-3.372658e+01
5.766077e+02	-3.377709e+01
5.799382e+02	-3.382692e+01
5.832879e+02	-3.387364e+01
5.866569e+02	-3.392843e+01
5.900454e+02	-3.397051e+01
5.934535e+02	-3.403135e+01
5.968813e+02	-3.407132e+01
6.003288e+02	-3.413090e+01
6.037963e+02	-3.417574e+01
6.072838e+02	-3.423489e+01
6.107914e+02	-3.428304e+01
6.143194e+02	-3.432666e+01
6.178676e+02	-3.438681e+01
6.214364e+02	-3.442949e+01
6.250258e+02	-3.448275e+01
6.286359e+02	-3.453278e+01
6.322669e+02	-3.457738e+01
6.359189e+02	-3.463568e+01
6.395919e+02	-3.469010e+01
6.432862e+02	-3.473352e+01
6.470017e+02	-3.478211e+01
6.507388e+02	-3.483095e+01
6.544974e+02	-3.488464e+01
6.582778e+02	-3.493003e+01
6.620800e+02	-3.498671e+01
6.659041e+02	-3.502806e+01
6.697504e+02	-3.508244e+01
6.736188e+02	-3.513534e+01
6.775096e+02	-3.519138e+01
6.814229e+02	-3.523840e+01
6.853587e+02	-3.528680e+01
6.893173e+02	-3.534159e+01
6.932988e+02	-3.538189e+01
6.973033e+02	-3.543340e+01
7.013309e+02	-3.549359e+01
