Frequency(Hz)	Magnitude(dB)
1.000000e+01	-2.166052e+00
1.005776e+01	-2.185619e+00
1.011585e+01	-2.205272e+00
1.017428e+01	-2.225473e+00
1.023305e+01	-2.245660e+00
1.029215e+01	-2.265891e+00
1.035160e+01	-2.286437e+00
1.041139e+01	-2.306739e+00
1.047153e+01	-2.327471e+00
1.053201e+01	-2.348293e+00
1.059284e+01	-2.369463e+00
1.065403e+01	-2.390406e+00
1.071556e+01	-2.411544e+00
1.077746e+01	-2.432978e+00
1.083971e+01	-2.454806e+00
1.090232e+01	-2.476160e+00
1.096529e+01	-2.498173e+00
1.102862e+01	-2.520153e+00
1.109232e+01	-2.542078e+00
1.115639e+01	-2.564123e+00
1.122083e+01	-2.586623e+00
1.128564e+01	-2.609282e+00
1.135083e+01	-2.632106e+00
1.141639e+01	-2.654765e+00
1.148233e+01	-2.677594e+00
1.154865e+01	-2.700676e+00
1.161536e+01	-2.724168e+00
1.168245e+01	-2.747371e+00
1.174992e+01	-2.770924e+00
1.181779e+01	-2.794477e+00
1.188605e+01	-2.818425e+00
1.195470e+01	-2.842278e+00
1.202375e+01	-2.866483e+00
1.209320e+01	-2.890640e+00
1.216305e+01	-2.915117e+00
1.223330e+01	-2.939610e+00
1.230396e+01	-2.963878e+00
1.237503e+01	-2.989102e+00
1.244651e+01	-3.014002e+00
1.251840e+01	-3.039154e+00
1.259070e+01	-3.064271e+00
1.266343e+01	-3.089686e+00
1.273657e+01	-3.115384e+00
1.281014e+01	-3.141064e+00
1.288413e+01	-3.166889e+00
1.295855e+01	-3.192668e+00
1.303339e+01	-3.218771e+00
1.310867e+01	-3.245117e+00
1.318439e+01	-3.271496e+00
1.326054e+01	-3.298267e+00
1.333713e+01	-3.324878e+00
1.341417e+01	-3.351700e+00
1.349165e+01	-3.378636e+00
1.356958e+01	-3.405620e+00
1.364795e+01	-3.433091e+00
1.372678e+01	-3.460363e+00
1.380607e+01	-3.487926e+00
1.388581e+01	-3.515649e+00
1.396602e+01	-3.543490e+00
1.404668e+01	-3.571272e+00
1.412782e+01	-3.599248e+00
1.420942e+01	-3.627763e+00
1.429149e+01	-3.656052e+00
1.437404e+01	-3.685024e+00
1.445706e+01	-3.713206e+00
1.454057e+01	-3.742307e+00
1.462455e+01	-3.770969e+00
1.470902e+01	-3.800410e+00
1.479398e+01	-3.829585e+00
1.487943e+01	-3.858930e+00
1.496537e+01	-3.888727e+00
1.505181e+01	-3.917792e+00
1.513875e+01	-3.947752e+00
1.522619e+01	-3.977791e+00
1.531414e+01	-4.007769e+00
1.540259e+01	-4.038182e+00
1.549156e+01	-4.068772e+00
1.558103e+01	-4.098878e+00
1.567103e+01	-4.129640e+00
1.576155e+01	-4.160170e+00
1.585258e+01	-4.191144e+00
1.594415e+01	-4.222354e+00
1.603624e+01	-4.253390e+00
1.612886e+01	-4.284701e+00
1.622202e+01	-4.316237e+00
1.631572e+01	-4.347529e+00
1.640996e+01	-4.379379e+00
1.650474e+01	-4.411467e+00
1.660008e+01	-4.443360e+00
1.669596e+01	-4.475394e+00
1.679239e+01	-4.507723e+00
1.688938e+01	-4.539870e+00
1.698694e+01	-4.572478e+00
1.708505e+01	-4.604989e+00
1.718373e+01	-4.637995e+00
1.728299e+01	-4.670842e+00
1.738281e+01	-4.703727e+00
1.748322e+01	-4.737061e+00
1.758420e+01	-4.770211e+00
1.768576e+01	-4.803516e+00
1.778792e+01	-4.837285e+00
1.789066e+01	-4.870712e+00
1.799399e+01	-4.904556e+00
1.809793e+01	-4.938379e+00
1.820246e+01	-4.972720e+00
1.830760e+01	-5.006977e+00
1.841334e+01	-5.040963e+00
1.851969e+01	-5.075383e+00
1.862666e+01	-5.110295e+00
1.873425e+01	-5.144939e+00
1.884246e+01	-5.179377e+00
1.895129e+01	-5.214086e+00
1.906075e+01	-5.249476e+00
1.917085e+01	-5.284568e+00
1.928158e+01	-5.319867e+00
1.939295e+01	-5.355342e+00
1.950496e+01	-5.390718e+00
1.961762e+01	-5.426532e+00
1.973093e+01	-5.462322e+00
1.984490e+01	-5.498003e+00
1.995952e+01	-5.534041e+00
2.007480e+01	-5.569730e+00
2.019076e+01	-5.606306e+00
2.030738e+01	-5.642667e+00
2.042467e+01	-5.678604e+00
2.054264e+01	-5.715642e+00
2.066130e+01	-5.752179e+00
2.078064e+01	-5.788966e+00
2.090066e+01	-5.825960e+00
2.102139e+01	-5.863218e+00
2.114280e+01	-5.900077e+00
2.126492e+01	-5.936886e+00
2.138775e+01	-5.974778e+00
2.151128e+01	-6.012070e+00
2.163553e+01	-6.049616e+00
2.176050e+01	-6.087228e+00
2.188619e+01	-6.125011e+00
2.201260e+01	-6.163251e+00
2.213974e+01	-6.200721e+00
2.226762e+01	-6.238867e+00
2.239624e+01	-6.277323e+00
2.252560e+01	-6.315274e+00
2.265571e+01	-6.354066e+00
2.278656e+01	-6.392432e+00
2.291818e+01	-6.431114e+00
2.305055e+01	-6.469584e+00
2.318369e+01	-6.508324e+00
2.331760e+01	-6.547061e+00
2.345228e+01	-6.586398e+00
2.358774e+01	-6.625182e+00
2.372398e+01	-6.664370e+00
2.386101e+01	-6.703710e+00
2.399883e+01	-6.743319e+00
2.413745e+01	-6.782615e+00
2.427686e+01	-6.822227e+00
2.441709e+01	-6.861842e+00
2.455812e+01	-6.902052e+00
2.469997e+01	-6.941396e+00
2.484263e+01	-6.981600e+00
2.498612e+01	-7.021903e+00
2.513044e+01	-7.061642e+00
2.527559e+01	-7.102100e+00
2.542158e+01	-7.142053e+00
2.556842e+01	-7.182711e+00
2.571610e+01	-7.223437e+00
2.586463e+01	-7.264113e+00
2.601403e+01	-7.304493e+00
2.616428e+01	-7.345050e+00
2.631541e+01	-7.385757e+00
2.646740e+01	-7.426915e+00
2.662028e+01	-7.468081e+00
2.677404e+01	-7.509430e+00
2.692868e+01	-7.550314e+00
2.708422e+01	-7.591784e+00
2.724066e+01	-7.633086e+00
2.739800e+01	-7.674503e+00
2.755625e+01	-7.715732e+00
2.771541e+01	-7.757472e+00
2.787550e+01	-7.799251e+00
2.803650e+01	-7.840698e+00
2.819844e+01	-7.883133e+00
2.836131e+01	-7.924388e+00
2.852513e+01	-7.966760e+00
2.868989e+01	-8.008907e+00
2.885560e+01	-8.050541e+00
2.902227e+01	-8.093035e+00
2.918990e+01	-8.135276e+00
2.935850e+01	-8.177863e+00
2.952807e+01	-8.219841e+00
2.969863e+01	-8.262787e+00
2.987016e+01	-8.305633e+00
3.004269e+01	-8.348073e+00
3.021622e+01	-8.390869e+00
3.039075e+01	-8.434100e+00
3.056628e+01	-8.476327e+00
3.074283e+01	-8.519680e+00
3.092040e+01	-8.562432e+00
3.109900e+01	-8.605743e+00
3.127862e+01	-8.648490e+00
3.145929e+01	-8.691830e+00
3.164099e+01	-8.735459e+00
3.182375e+01	-8.778491e+00
3.200756e+01	-8.821981e+00
3.219244e+01	-8.865664e+00
3.237838e+01	-8.909272e+00
3.256540e+01	-8.952299e+00
3.275349e+01	-8.996638e+00
3.294268e+01	-9.040419e+00
3.313295e+01	-9.083881e+00
3.332433e+01	-9.127850e+00
3.351681e+01	-9.172103e+00
3.371040e+01	-9.215902e+00
3.390511e+01	-9.259649e+00
3.410094e+01	-9.304037e+00
3.429791e+01	-9.347858e+00
3.449601e+01	-9.392322e+00
3.469526e+01	-9.436436e+00
3.489566e+01	-9.481243e+00
3.509721e+01	-9.525284e+00
3.529993e+01	-9.569812e+00
3.550382e+01	-9.614535e+00
3.570889e+01	-9.659260e+00
3.591515e+01	-9.703553e+00
3.612259e+01	-9.748728e+00
3.633123e+01	-9.793814e+00
3.654108e+01	-9.837977e+00
3.675214e+01	-9.882944e+00
3.696442e+01	-9.928167e+00
3.717792e+01	-9.972651e+00
3.739266e+01	-1.001772e+01
3.760864e+01	-1.006295e+01
3.782587e+01	-1.010804e+01
3.804435e+01	-1.015293e+01
3.826409e+01	-1.019850e+01
3.848510e+01	-1.024374e+01
3.870739e+01	-1.028882e+01
3.893096e+01	-1.033443e+01
3.915583e+01	-1.037906e+01
3.938199e+01	-1.042515e+01
3.960946e+01	-1.047108e+01
3.983824e+01	-1.051631e+01
4.006834e+01	-1.056197e+01
4.029978e+01	-1.060708e+01
4.053255e+01	-1.065366e+01
4.076666e+01	-1.069965e+01
4.100213e+01	-1.074477e+01
4.123896e+01	-1.079122e+01
4.147715e+01	-1.083632e+01
4.171672e+01	-1.088254e+01
4.195767e+01	-1.092853e+01
4.220002e+01	-1.097439e+01
4.244377e+01	-1.102015e+01
4.268892e+01	-1.106644e+01
4.293549e+01	-1.111301e+01
4.318348e+01	-1.115851e+01
4.343291e+01	-1.120515e+01
4.368377e+01	-1.125094e+01
4.393609e+01	-1.129762e+01
4.418986e+01	-1.134445e+01
4.444510e+01	-1.138993e+01
4.470182e+01	-1.143674e+01
4.496001e+01	-1.148299e+01
4.521970e+01	-1.152981e+01
4.548089e+01	-1.157621e+01
4.574358e+01	-1.162250e+01
4.600779e+01	-1.166936e+01
4.627353e+01	-1.171593e+01
4.654081e+01	-1.176281e+01
4.680963e+01	-1.180941e+01
4.708000e+01	-1.185644e+01
4.735193e+01	-1.190354e+01
4.762543e+01	-1.194948e+01
4.790051e+01	-1.199712e+01
4.817719e+01	-1.204355e+01
4.845545e+01	-1.209085e+01
4.873533e+01	-1.213731e+01
4.901682e+01	-1.218405e+01
4.929994e+01	-1.223124e+01
4.958470e+01	-1.227856e+01
4.987110e+01	-1.232549e+01
5.015915e+01	-1.237252e+01
5.044887e+01	-1.241909e+01
5.074026e+01	-1.246710e+01
5.103333e+01	-1.251469e+01
5.132810e+01	-1.256126e+01
5.162457e+01	-1.260873e+01
5.192275e+01	-1.265634e+01
5.222265e+01	-1.270349e+01
5.252429e+01	-1.275080e+01
5.282767e+01	-1.279819e+01
5.313280e+01	-1.284573e+01
5.343969e+01	-1.289292e+01
5.374836e+01	-1.294007e+01
5.405880e+01	-1.298790e+01
5.437105e+01	-1.303578e+01
5.468509e+01	-1.308260e+01
5.500095e+01	-1.313061e+01
5.531863e+01	-1.317839e+01
5.563815e+01	-1.322575e+01
5.595951e+01	-1.327325e+01
5.628273e+01	-1.332066e+01
5.660782e+01	-1.336903e+01
5.693479e+01	-1.341680e+01
5.726364e+01	-1.346353e+01
5.759439e+01	-1.351189e+01
5.792705e+01	-1.356058e+01
5.826164e+01	-1.360728e+01
5.859815e+01	-1.365583e+01
5.893662e+01	-1.370296e+01
5.927703e+01	-1.375138e+01
5.961941e+01	-1.379891e+01
5.996377e+01	-1.384713e+01
6.031012e+01	-1.389596e+01
6.065847e+01	-1.394375e+01
6.100883e+01	-1.399133e+01
6.136121e+01	-1.403922e+01
6.171563e+01	-1.408704e+01
6.207210e+01	-1.413512e+01
6.243063e+01	-1.418396e+01
6.279122e+01	-1.423154e+01
6.315390e+01	-1.428028e+01
6.351868e+01	-1.432842e+01
6.388556e+01	-1.437565e+01
6.425456e+01	-1.442410e+01
6.462569e+01	-1.447300e+01
6.499897e+01	-1.452046e+01
6.537440e+01	-1.456878e+01
6.575200e+01	-1.461753e+01
6.613178e+01	-1.466682e+01
6.651375e+01	-1.471398e+01
6.689793e+01	-1.476196e+01
6.728433e+01	-1.481050e+01
6.767297e+01	-1.485883e+01
6.806384e+01	-1.490738e+01
6.845698e+01	-1.495638e+01
6.885238e+01	-1.500483e+01
6.925007e+01	-1.505250e+01
6.965005e+01	-1.510136e+01
7.005235e+01	-1.514931e+01
7.045697e+01	-1.519880e+01
7.086393e+01	-1.524643e+01
7.127323e+01	-1.529600e+01
7.168490e+01	-1.534380e+01
7.209895e+01	-1.539337e+01
7.251539e+01	-1.544023e+01
7.293424e+01	-1.548930e+01
7.335551e+01	-1.553913e+01
7.377920e+01	-1.558684e+01
7.420535e+01	-1.563671e+01
7.463396e+01	-1.568476e+01
7.506504e+01	-1.573372e+01
7.549861e+01	-1.578334e+01
7.593469e+01	-1.583123e+01
7.637328e+01	-1.587940e+01
7.681441e+01	-1.592770e+01
7.725809e+01	-1.597733e+01
7.770433e+01	-1.602543e+01
7.815315e+01	-1.607367e+01
7.860456e+01	-1.612364e+01
7.905857e+01	-1.617064e+01
7.951521e+01	-1.622087e+01
7.997449e+01	-1.626985e+01
8.043642e+01	-1.631816e+01
8.090102e+01	-1.636731e+01
8.136830e+01	-1.641697e+01
8.183828e+01	-1.646483e+01
8.231097e+01	-1.651417e+01
8.278640e+01	-1.656298e+01
8.326457e+01	-1.661203e+01
8.374550e+01	-1.666105e+01
8.422921e+01	-1.670995e+01
8.471572e+01	-1.675930e+01
8.520503e+01	-1.680794e+01
8.569717e+01	-1.685562e+01
8.619215e+01	-1.690642e+01
8.669000e+01	-1.695452e+01
8.719071e+01	-1.700322e+01
8.769432e+01	-1.705246e+01
8.820084e+01	-1.710225e+01
8.871029e+01	-1.715006e+01
8.922267e+01	-1.720007e+01
8.973802e+01	-1.724899e+01
9.025634e+01	-1.729806e+01
9.077766e+01	-1.734795e+01
9.130199e+01	-1.739606e+01
9.182935e+01	-1.744518e+01
9.235975e+01	-1.749378e+01
9.289321e+01	-1.754346e+01
9.342976e+01	-1.759268e+01
9.396941e+01	-1.764178e+01
9.451217e+01	-1.769012e+01
9.505807e+01	-1.774015e+01
9.560712e+01	-1.779019e+01
9.615934e+01	-1.783817e+01
9.671476e+01	-1.788830e+01
9.727338e+01	-1.793753e+01
9.783522e+01	-1.798645e+01
9.840032e+01	-1.803590e+01
9.896867e+01	-1.808424e+01
9.954031e+01	-1.813376e+01
1.001153e+02	-1.818338e+01
1.006935e+02	-1.823328e+01
1.012751e+02	-1.828142e+01
1.018601e+02	-1.833020e+01
1.024484e+02	-1.838108e+01
1.030402e+02	-1.842996e+01
1.036353e+02	-1.847838e+01
1.042339e+02	-1.852901e+01
1.048360e+02	-1.857911e+01
1.054415e+02	-1.862695e+01
1.060505e+02	-1.867610e+01
1.066631e+02	-1.872629e+01
1.072791e+02	-1.877525e+01
1.078988e+02	-1.882564e+01
1.085220e+02	-1.887325e+01
1.091488e+02	-1.892361e+01
1.097793e+02	-1.897278e+01
1.104133e+02	-1.902275e+01
1.110511e+02	-1.907138e+01
1.116925e+02	-1.912060e+01
1.123376e+02	-1.917100e+01
1.129865e+02	-1.922164e+01
1.136391e+02	-1.926901e+01
1.142955e+02	-1.931883e+01
1.149556e+02	-1.936878e+01
1.156196e+02	-1.941801e+01
1.162874e+02	-1.946774e+01
1.169591e+02	-1.951733e+01
1.176347e+02	-1.956631e+01
1.183141e+02	-1.961826e+01
1.189975e+02	-1.966544e+01
1.196848e+02	-1.971571e+01
1.203761e+02	-1.976471e+01
1.210714e+02	-1.981354e+01
1.217707e+02	-1.986390e+01
1.224740e+02	-1.991235e+01
1.231814e+02	-1.996200e+01
1.238929e+02	-2.000996e+01
1.246085e+02	-2.006137e+01
1.253283e+02	-2.011211e+01
1.260522e+02	-2.016233e+01
1.267802e+02	-2.020971e+01
1.275125e+02	-2.026001e+01
1.282490e+02	-2.030866e+01
1.289898e+02	-2.036018e+01
1.297348e+02	-2.040819e+01
1.304842e+02	-2.045744e+01
1.312378e+02	-2.050607e+01
1.319959e+02	-2.055643e+01
1.327583e+02	-2.060699e+01
1.335251e+02	-2.065579e+01
1.342963e+02	-2.070682e+01
1.350720e+02	-2.075603e+01
1.358522e+02	-2.080501e+01
1.366368e+02	-2.085547e+01
1.374260e+02	-2.090434e+01
1.382198e+02	-2.095288e+01
1.390182e+02	-2.100229e+01
1.398211e+02	-2.105233e+01
1.406287e+02	-2.110125e+01
1.414410e+02	-2.115210e+01
1.422579e+02	-2.120153e+01
1.430796e+02	-2.125220e+01
1.439060e+02	-2.130315e+01
1.447372e+02	-2.135269e+01
1.455732e+02	-2.140181e+01
1.464141e+02	-2.145079e+01
1.472597e+02	-2.150179e+01
1.481103e+02	-2.154946e+01
1.489658e+02	-2.160061e+01
1.498262e+02	-2.165064e+01
1.506916e+02	-2.170010e+01
1.515620e+02	-2.174648e+01
1.524374e+02	-2.179810e+01
1.533179e+02	-2.184766e+01
1.542034e+02	-2.189735e+01
1.550941e+02	-2.194668e+01
1.559899e+02	-2.199746e+01
1.568909e+02	-2.204781e+01
1.577971e+02	-2.209623e+01
1.587085e+02	-2.214407e+01
1.596252e+02	-2.219620e+01
1.605472e+02	-2.224583e+01
1.614745e+02	-2.229670e+01
1.624072e+02	-2.234719e+01
1.633453e+02	-2.239490e+01
1.642887e+02	-2.244489e+01
1.652377e+02	-2.249490e+01
1.661921e+02	-2.254606e+01
1.671520e+02	-2.259429e+01
1.681175e+02	-2.264434e+01
1.690885e+02	-2.269298e+01
1.700651e+02	-2.274394e+01
1.710474e+02	-2.279238e+01
1.720354e+02	-2.284338e+01
1.730291e+02	-2.289445e+01
1.740285e+02	-2.294195e+01
1.750337e+02	-2.299119e+01
1.760446e+02	-2.304457e+01
1.770615e+02	-2.309094e+01
1.780842e+02	-2.314180e+01
1.791128e+02	-2.319036e+01
1.801473e+02	-2.324192e+01
1.811878e+02	-2.329117e+01
1.822344e+02	-2.333973e+01
1.832870e+02	-2.339151e+01
1.843456e+02	-2.343973e+01
1.854104e+02	-2.348988e+01
1.864813e+02	-2.354152e+01
1.875584e+02	-2.359148e+01
1.886418e+02	-2.364066e+01
1.897313e+02	-2.369042e+01
1.908272e+02	-2.373751e+01
1.919294e+02	-2.378973e+01
1.930380e+02	-2.384032e+01
1.941530e+02	-2.388916e+01
1.952744e+02	-2.394110e+01
1.964023e+02	-2.398834e+01
1.975367e+02	-2.404013e+01
1.986777e+02	-2.408957e+01
1.998252e+02	-2.413777e+01
2.009794e+02	-2.418706e+01
2.021403e+02	-2.423750e+01
2.033078e+02	-2.428686e+01
2.044821e+02	-2.433849e+01
2.056632e+02	-2.439000e+01
2.068511e+02	-2.443715e+01
2.080459e+02	-2.448706e+01
2.092475e+02	-2.453699e+01
2.104561e+02	-2.459211e+01
2.116717e+02	-2.463331e+01
2.128943e+02	-2.468679e+01
2.141240e+02	-2.473757e+01
2.153608e+02	-2.478745e+01
2.166047e+02	-2.483872e+01
2.178558e+02	-2.488270e+01
2.191141e+02	-2.493619e+01
2.203797e+02	-2.498499e+01
2.216526e+02	-2.503658e+01
2.229329e+02	-2.508455e+01
2.242205e+02	-2.513789e+01
2.255156e+02	-2.518650e+01
2.268182e+02	-2.523847e+01
2.281283e+02	-2.528504e+01
2.294459e+02	-2.533893e+01
2.307712e+02	-2.538494e+01
2.321041e+02	-2.543501e+01
2.334447e+02	-2.548834e+01
2.347931e+02	-2.553742e+01
2.361493e+02	-2.558350e+01
2.375133e+02	-2.563440e+01
2.388851e+02	-2.568465e+01
2.402649e+02	-2.573884e+01
2.416527e+02	-2.578389e+01
2.430484e+02	-2.582926e+01
2.444523e+02	-2.588684e+01
2.458642e+02	-2.593447e+01
2.472843e+02	-2.598313e+01
2.487126e+02	-2.603083e+01
2.501492e+02	-2.608399e+01
2.515940e+02	-2.613584e+01
2.530472e+02	-2.618577e+01
2.545088e+02	-2.623580e+01
2.559789e+02	-2.628428e+01
2.574574e+02	-2.633419e+01
2.589444e+02	-2.638829e+01
2.604401e+02	-2.643445e+01
2.619444e+02	-2.648626e+01
2.634574e+02	-2.653300e+01
2.649791e+02	-2.658512e+01
2.665096e+02	-2.663615e+01
2.680489e+02	-2.668536e+01
2.695972e+02	-2.673282e+01
2.711544e+02	-2.678324e+01
2.727205e+02	-2.683737e+01
2.742958e+02	-2.688302e+01
2.758801e+02	-2.693237e+01
2.774736e+02	-2.698313e+01
2.790762e+02	-2.703343e+01
2.806882e+02	-2.707899e+01
2.823094e+02	-2.713555e+01
2.839400e+02	-2.718000e+01
2.855800e+02	-2.723332e+01
2.872295e+02	-2.728803e+01
2.888886e+02	-2.733290e+01
2.905572e+02	-2.738084e+01
2.922354e+02	-2.743300e+01
2.939234e+02	-2.748870e+01
2.956211e+02	-2.753184e+01
2.973286e+02	-2.758269e+01
2.990459e+02	-2.762865e+01
3.007732e+02	-2.768027e+01
3.025104e+02	-2.773411e+01
3.042577e+02	-2.778050e+01
3.060151e+02	-2.782996e+01
3.077826e+02	-2.788532e+01
3.095604e+02	-2.793380e+01
3.113484e+02	-2.797862e+01
3.131467e+02	-2.803470e+01
3.149554e+02	-2.808073e+01
3.167746e+02	-2.813406e+01
3.186043e+02	-2.818666e+01
3.204445e+02	-2.823175e+01
3.222954e+02	-2.828683e+01
3.241570e+02	-2.833868e+01
3.260293e+02	-2.837846e+01
3.279124e+02	-2.843740e+01
3.298064e+02	-2.848148e+01
3.317114e+02	-2.853350e+01
3.336273e+02	-2.858346e+01
3.355544e+02	-2.863618e+01
3.374925e+02	-2.868352e+01
3.394418e+02	-2.873240e+01
3.414024e+02	-2.878290e+01
3.433744e+02	-2.883338e+01
3.453577e+02	-2.888746e+01
3.473525e+02	-2.893623e+01
3.493588e+02	-2.898757e+01
3.513766e+02	-2.903379e+01
3.534062e+02	-2.908294e+01
3.554474e+02	-2.913315e+01
3.575005e+02	-2.918631e+01
3.595654e+02	-2.923002e+01
3.616422e+02	-2.928431e+01
3.637311e+02	-2.933486e+01
3.658320e+02	-2.938035e+01
3.679450e+02	-2.943655e+01
3.700702e+02	-2.948792e+01
3.722077e+02	-2.953791e+01
3.743576e+02	-2.958192e+01
3.765199e+02	-2.963377e+01
3.786946e+02	-2.968598e+01
3.808820e+02	-2.973672e+01
3.830819e+02	-2.978323e+01
3.852946e+02	-2.983363e+01
3.875200e+02	-2.988828e+01
3.897583e+02	-2.993584e+01
3.920096e+02	-2.998654e+01
3.942738e+02	-3.003794e+01
3.965511e+02	-3.008347e+01
3.988416e+02	-3.013567e+01
4.011452e+02	-3.018822e+01
4.034622e+02	-3.024007e+01
4.057926e+02	-3.028760e+01
4.081365e+02	-3.033403e+01
4.104938e+02	-3.038978e+01
4.128648e+02	-3.043645e+01
4.152495e+02	-3.048875e+01
4.176480e+02	-3.054030e+01
4.200603e+02	-3.059453e+01
4.224866e+02	-3.063344e+01
4.249268e+02	-3.068270e+01
4.273812e+02	-3.072818e+01
4.298497e+02	-3.079188e+01
4.323325e+02	-3.084081e+01
4.348297e+02	-3.089175e+01
4.373412e+02	-3.093750e+01
4.398673e+02	-3.098817e+01
4.424079e+02	-3.103915e+01
4.449633e+02	-3.108511e+01
4.475334e+02	-3.113982e+01
4.501183e+02	-3.118772e+01
4.527182e+02	-3.123616e+01
4.553330e+02	-3.128942e+01
4.579630e+02	-3.133793e+01
4.606082e+02	-3.139216e+01
4.632687e+02	-3.144399e+01
4.659445e+02	-3.148627e+01
4.686358e+02	-3.153833e+01
4.713426e+02	-3.159248e+01
4.740650e+02	-3.164042e+01
4.768032e+02	-3.168505e+01
4.795572e+02	-3.173991e+01
4.823271e+02	-3.179863e+01
4.851130e+02	-3.184373e+01
4.879150e+02	-3.189165e+01
4.907332e+02	-3.193971e+01
4.935676e+02	-3.199574e+01
4.964185e+02	-3.203578e+01
4.992858e+02	-3.209250e+01
5.021696e+02	-3.214548e+01
5.050701e+02	-3.219054e+01
5.079874e+02	-3.223793e+01
5.109215e+02	-3.228998e+01
5.138726e+02	-3.233889e+01
5.168407e+02	-3.239003e+01
5.198259e+02	-3.244031e+01
5.228284e+02	-3.249508e+01
5.258482e+02	-3.254155e+01
5.288855e+02	-3.259272e+01
5.319403e+02	-3.263565e+01
5.350128e+02	-3.269532e+01
5.381030e+02	-3.274297e+01
5.412111e+02	-3.279083e+01
5.443371e+02	-3.284834e+01
5.474812e+02	-3.289565e+01
5.506434e+02	-3.294442e+01
5.538239e+02	-3.300050e+01
5.570228e+02	-3.304844e+01
5.602401e+02	-3.309695e+01
5.634760e+02	-3.314305e+01
5.667306e+02	-3.318804e+01
5.700040e+02	-3.325616e+01
5.732964e+02	-3.330571e+01
5.766077e+02	-3.334531e+01
5.799382e+02	-3.339247e+01
5.832879e+02	-3.345031e+01
5.866569e+02	-3.349635e+01
5.900454e+02	-3.354819e+01
5.934535e+02	-3.359575e+01
5.968813e+02	-3.364034e+01
6.003288e+02	-3.369643e+01
6.037963e+02	-3.374535e+01
6.072838e+02	-3.379886e+01
6.107914e+02	-3.384816e+01
6.143194e+02	-3.389859e+01
6.178676e+02	-3.394586e+01
6.214364e+02	-3.400915e+01
6.250258e+02	-3.404678e+01
6.286359e+02	-3.410827e+01
6.322669e+02	-3.415245e+01
6.359189e+02	-3.419989e+01
6.395919e+02	-3.425469e+01
6.432862e+02	-3.430225e+01
6.470017e+02	-3.435189e+01
6.507388e+02	-3.440255e+01
6.544974e+02	-3.445407e+01
6.582778e+02	-3.450194e+01
6.620800e+02	-3.455648e+01
6.659041e+02	-3.460239e+01
6.697504e+02	-3.466081e+01
6.736188e+02	-3.470621e+01
6.775096e+02	-3.475380e+01
6.814229e+02	-3.480131e+01
6.853587e+02	-3.485884e+01
6.893173e+02	-3.490579e+01
6.932988e+02	-3.495277e+01
6.973033e+02	-3.499857e+01
7.013309e+02	-3.506017e+01
