Frequency(Hz)	Magnitude(dB)
1.000000e+01	-1.626155e-05
1.005776e+01	-1.644995e-05
1.011585e+01	-1.664053e-05
1.017428e+01	-1.683331e-05
1.023305e+01	-1.702833e-05
1.029215e+01	-1.722561e-05
1.035160e+01	-1.742517e-05
1.041139e+01	-1.762704e-05
1.047153e+01	-1.783126e-05
1.053201e+01	-1.803784e-05
1.059284e+01	-1.824681e-05
1.065403e+01	-1.845820e-05
1.071556e+01	-1.867205e-05
1.077746e+01	-1.888837e-05
1.083971e+01	-1.910719e-05
1.090232e+01	-1.932856e-05
1.096529e+01	-1.955248e-05
1.102862e+01	-1.977900e-05
1.109232e+01	-2.000815e-05
1.115639e+01	-2.023995e-05
1.122083e+01	-2.047443e-05
1.128564e+01	-2.071163e-05
1.135083e+01	-2.095158e-05
1.141639e+01	-2.119431e-05
1.148233e+01	-2.143985e-05
1.154865e+01	-2.168824e-05
1.161536e+01	-2.193950e-05
1.168245e+01	-2.219368e-05
1.174992e+01	-2.245080e-05
1.181779e+01	-2.271090e-05
1.188605e+01	-2.297401e-05
1.195470e+01	-2.324017e-05
1.202375e+01	-2.350941e-05
1.209320e+01	-2.378177e-05
1.216305e+01	-2.405729e-05
1.223330e+01	-2.433600e-05
1.230396e+01	-2.461794e-05
1.237503e+01	-2.490314e-05
1.244651e+01	-2.519165e-05
1.251840e+01	-2.548350e-05
1.259070e+01	-2.577874e-05
1.266343e+01	-2.607739e-05
1.273657e+01	-2.637950e-05
1.281014e+01	-2.668512e-05
1.288413e+01	-2.699427e-05
1.295855e+01	-2.730700e-05
1.303339e+01	-2.762336e-05
1.310867e+01	-2.794339e-05
1.318439e+01	-2.826712e-05
1.326054e+01	-2.859460e-05
1.333713e+01	-2.892587e-05
1.341417e+01	-2.926099e-05
1.349165e+01	-2.959998e-05
1.356958e+01	-2.994290e-05
1.364795e+01	-3.028980e-05
1.372678e+01	-3.064072e-05
1.380607e+01	-3.099570e-05
1.388581e+01	-3.135479e-05
1.396602e+01	-3.171804e-05
1.404668e+01	-3.208550e-05
1.412782e+01	-3.245722e-05
1.420942e+01	-3.283324e-05
1.429149e+01	-3.321363e-05
1.437404e+01	-3.359841e-05
1.445706e+01	-3.398766e-05
1.454057e+01	-3.438141e-05
1.462455e+01	-3.477973e-05
1.470902e+01	-3.518266e-05
1.479398e+01	-3.559026e-05
1.487943e+01	-3.600258e-05
1.496537e+01	-3.641968e-05
1.505181e+01	-3.684161e-05
1.513875e+01	-3.726843e-05
1.522619e+01	-3.770019e-05
1.531414e+01	-3.813696e-05
1.540259e+01	-3.857878e-05
1.549156e+01	-3.902573e-05
1.558103e+01	-3.947785e-05
1.567103e+01	-3.993521e-05
1.576155e+01	-4.039787e-05
1.585258e+01	-4.086589e-05
1.594415e+01	-4.133933e-05
1.603624e+01	-4.181825e-05
1.612886e+01	-4.230273e-05
1.622202e+01	-4.279281e-05
1.631572e+01	-4.328858e-05
1.640996e+01	-4.379008e-05
1.650474e+01	-4.429740e-05
1.660008e+01	-4.481060e-05
1.669596e+01	-4.532974e-05
1.679239e+01	-4.585489e-05
1.688938e+01	-4.638613e-05
1.698694e+01	-4.692352e-05
1.708505e+01	-4.746714e-05
1.718373e+01	-4.801706e-05
1.728299e+01	-4.857335e-05
1.738281e+01	-4.913608e-05
1.748322e+01	-4.970533e-05
1.758420e+01	-5.028118e-05
1.768576e+01	-5.086370e-05
1.778792e+01	-5.145297e-05
1.789066e+01	-5.204906e-05
1.799399e+01	-5.265206e-05
1.809793e+01	-5.326204e-05
1.820246e+01	-5.387909e-05
1.830760e+01	-5.450330e-05
1.841334e+01	-5.513473e-05
1.851969e+01	-5.577347e-05
1.862666e+01	-5.641962e-05
1.873425e+01	-5.707325e-05
1.884246e+01	-5.773446e-05
1.895129e+01	-5.840332e-05
1.906075e+01	-5.907994e-05
1.917085e+01	-5.976439e-05
1.928158e+01	-6.045677e-05
1.939295e+01	-6.115718e-05
1.950496e+01	-6.186570e-05
1.961762e+01	-6.258242e-05
1.973093e+01	-6.330745e-05
1.984490e+01	-6.404088e-05
1.995952e+01	-6.478281e-05
2.007480e+01	-6.553333e-05
2.019076e+01	-6.629254e-05
2.030738e+01	-6.706056e-05
2.042467e+01	-6.783747e-05
2.054264e+01	-6.862338e-05
2.066130e+01	-6.941839e-05
2.078064e+01	-7.022261e-05
2.090066e+01	-7.103616e-05
2.102139e+01	-7.185912e-05
2.114280e+01	-7.269162e-05
2.126492e+01	-7.353377e-05
2.138775e+01	-7.438567e-05
2.151128e+01	-7.524744e-05
2.163553e+01	-7.611920e-05
2.176050e+01	-7.700105e-05
2.188619e+01	-7.789312e-05
2.201260e+01	-7.879553e-05
2.213974e+01	-7.970839e-05
2.226762e+01	-8.063182e-05
2.239624e+01	-8.156596e-05
2.252560e+01	-8.251091e-05
2.265571e+01	-8.346682e-05
2.278656e+01	-8.443379e-05
2.291818e+01	-8.541197e-05
2.305055e+01	-8.640148e-05
2.318369e+01	-8.740246e-05
2.331760e+01	-8.841503e-05
2.345228e+01	-8.943933e-05
2.358774e+01	-9.047550e-05
2.372398e+01	-9.152368e-05
2.386101e+01	-9.258399e-05
2.399883e+01	-9.365659e-05
2.413745e+01	-9.474162e-05
2.427686e+01	-9.583921e-05
2.441709e+01	-9.694953e-05
2.455812e+01	-9.807270e-05
2.469997e+01	-9.920889e-05
2.484263e+01	-1.003582e-04
2.498612e+01	-1.015209e-04
2.513044e+01	-1.026970e-04
2.527559e+01	-1.038868e-04
2.542158e+01	-1.050903e-04
2.556842e+01	-1.063078e-04
2.571610e+01	-1.075394e-04
2.586463e+01	-1.087853e-04
2.601403e+01	-1.100456e-04
2.616428e+01	-1.113205e-04
2.631541e+01	-1.126101e-04
2.646740e+01	-1.139147e-04
2.662028e+01	-1.152344e-04
2.677404e+01	-1.165694e-04
2.692868e+01	-1.179199e-04
2.708422e+01	-1.192860e-04
2.724066e+01	-1.206680e-04
2.739800e+01	-1.220659e-04
2.755625e+01	-1.234801e-04
2.771541e+01	-1.249106e-04
2.787550e+01	-1.263577e-04
2.803650e+01	-1.278216e-04
2.819844e+01	-1.293024e-04
2.836131e+01	-1.308004e-04
2.852513e+01	-1.323157e-04
2.868989e+01	-1.338486e-04
2.885560e+01	-1.353993e-04
2.902227e+01	-1.369679e-04
2.918990e+01	-1.385547e-04
2.935850e+01	-1.401598e-04
2.952807e+01	-1.417836e-04
2.969863e+01	-1.434262e-04
2.987016e+01	-1.450878e-04
3.004269e+01	-1.467686e-04
3.021622e+01	-1.484690e-04
3.039075e+01	-1.501890e-04
3.056628e+01	-1.519289e-04
3.074283e+01	-1.536890e-04
3.092040e+01	-1.554695e-04
3.109900e+01	-1.572707e-04
3.127862e+01	-1.590926e-04
3.145929e+01	-1.609357e-04
3.164099e+01	-1.628002e-04
3.182375e+01	-1.646862e-04
3.200756e+01	-1.665941e-04
3.219244e+01	-1.685241e-04
3.237838e+01	-1.704765e-04
3.256540e+01	-1.724515e-04
3.275349e+01	-1.744493e-04
3.294268e+01	-1.764704e-04
3.313295e+01	-1.785148e-04
3.332433e+01	-1.805829e-04
3.351681e+01	-1.826749e-04
3.371040e+01	-1.847912e-04
3.390511e+01	-1.869320e-04
3.410094e+01	-1.890976e-04
3.429791e+01	-1.912883e-04
3.449601e+01	-1.935044e-04
3.469526e+01	-1.957462e-04
3.489566e+01	-1.980139e-04
3.509721e+01	-2.003079e-04
3.529993e+01	-2.026285e-04
3.550382e+01	-2.049759e-04
3.570889e+01	-2.073506e-04
3.591515e+01	-2.097527e-04
3.612259e+01	-2.121827e-04
3.633123e+01	-2.146408e-04
3.654108e+01	-2.171274e-04
3.675214e+01	-2.196429e-04
3.696442e+01	-2.221874e-04
3.717792e+01	-2.247615e-04
3.739266e+01	-2.273653e-04
3.760864e+01	-2.299993e-04
3.782587e+01	-2.326639e-04
3.804435e+01	-2.353593e-04
3.826409e+01	-2.380859e-04
3.848510e+01	-2.408441e-04
3.870739e+01	-2.436343e-04
3.893096e+01	-2.464568e-04
3.915583e+01	-2.493120e-04
3.938199e+01	-2.522002e-04
3.960946e+01	-2.551220e-04
3.983824e+01	-2.580775e-04
4.006834e+01	-2.610673e-04
4.029978e+01	-2.640918e-04
4.053255e+01	-2.671513e-04
4.076666e+01	-2.702462e-04
4.100213e+01	-2.733770e-04
4.123896e+01	-2.765440e-04
4.147715e+01	-2.797478e-04
4.171672e+01	-2.829886e-04
4.195767e+01	-2.862670e-04
4.220002e+01	-2.895834e-04
4.244377e+01	-2.929382e-04
4.268892e+01	-2.963318e-04
4.293549e+01	-2.997648e-04
4.318348e+01	-3.032375e-04
4.343291e+01	-3.067505e-04
4.368377e+01	-3.103041e-04
4.393609e+01	-3.138990e-04
4.418986e+01	-3.175354e-04
4.444510e+01	-3.212140e-04
4.470182e+01	-3.249353e-04
4.496001e+01	-3.286996e-04
4.521970e+01	-3.325075e-04
4.548089e+01	-3.363596e-04
4.574358e+01	-3.402562e-04
4.600779e+01	-3.441980e-04
4.627353e+01	-3.481855e-04
4.654081e+01	-3.522192e-04
4.680963e+01	-3.562996e-04
4.708000e+01	-3.604272e-04
4.735193e+01	-3.646027e-04
4.762543e+01	-3.688265e-04
4.790051e+01	-3.730993e-04
4.817719e+01	-3.774216e-04
4.845545e+01	-3.817939e-04
4.873533e+01	-3.862169e-04
4.901682e+01	-3.906911e-04
4.929994e+01	-3.952172e-04
4.958470e+01	-3.997957e-04
4.987110e+01	-4.044272e-04
5.015915e+01	-4.091124e-04
5.044887e+01	-4.138518e-04
5.074026e+01	-4.186462e-04
5.103333e+01	-4.234961e-04
5.132810e+01	-4.284022e-04
5.162457e+01	-4.333651e-04
5.192275e+01	-4.383855e-04
5.222265e+01	-4.434640e-04
5.252429e+01	-4.486014e-04
5.282767e+01	-4.537983e-04
5.313280e+01	-4.590554e-04
5.343969e+01	-4.643734e-04
5.374836e+01	-4.697530e-04
5.405880e+01	-4.751950e-04
5.437105e+01	-4.806999e-04
5.468509e+01	-4.862686e-04
5.500095e+01	-4.919019e-04
5.531863e+01	-4.976004e-04
5.563815e+01	-5.033649e-04
5.595951e+01	-5.091962e-04
5.628273e+01	-5.150950e-04
5.660782e+01	-5.210622e-04
5.693479e+01	-5.270984e-04
5.726364e+01	-5.332046e-04
5.759439e+01	-5.393816e-04
5.792705e+01	-5.456301e-04
5.826164e+01	-5.519509e-04
5.859815e+01	-5.583450e-04
5.893662e+01	-5.648132e-04
5.927703e+01	-5.713563e-04
5.961941e+01	-5.779752e-04
5.996377e+01	-5.846707e-04
6.031012e+01	-5.914438e-04
6.065847e+01	-5.982954e-04
6.100883e+01	-6.052263e-04
6.136121e+01	-6.122375e-04
6.171563e+01	-6.193300e-04
6.207210e+01	-6.265046e-04
6.243063e+01	-6.337623e-04
6.279122e+01	-6.411040e-04
6.315390e+01	-6.485308e-04
6.351868e+01	-6.560437e-04
6.388556e+01	-6.636436e-04
6.425456e+01	-6.713315e-04
6.462569e+01	-6.791084e-04
6.499897e+01	-6.869754e-04
6.537440e+01	-6.949336e-04
6.575200e+01	-7.029839e-04
6.613178e+01	-7.111275e-04
6.651375e+01	-7.193655e-04
6.689793e+01	-7.276988e-04
6.728433e+01	-7.361287e-04
6.767297e+01	-7.446562e-04
6.806384e+01	-7.532825e-04
6.845698e+01	-7.620087e-04
6.885238e+01	-7.708360e-04
6.925007e+01	-7.797656e-04
6.965005e+01	-7.887985e-04
7.005235e+01	-7.979362e-04
7.045697e+01	-8.071796e-04
7.086393e+01	-8.165301e-04
7.127323e+01	-8.259889e-04
7.168490e+01	-8.355573e-04
7.209895e+01	-8.452365e-04
7.251539e+01	-8.550279e-04
7.293424e+01	-8.649326e-04
7.335551e+01	-8.749521e-04
7.377920e+01	-8.850876e-04
7.420535e+01	-8.953405e-04
7.463396e+01	-9.057122e-04
7.506504e+01	-9.162040e-04
7.549861e+01	-9.268174e-04
7.593469e+01	-9.375537e-04
7.637328e+01	-9.484143e-04
7.681441e+01	-9.594007e-04
7.725809e+01	-9.705144e-04
7.770433e+01	-9.817568e-04
7.815315e+01	-9.931294e-04
7.860456e+01	-1.004634e-03
7.905857e+01	-1.016271e-03
7.951521e+01	-1.028044e-03
7.997449e+01	-1.039952e-03
8.043642e+01	-1.051999e-03
8.090102e+01	-1.064185e-03
8.136830e+01	-1.076513e-03
8.183828e+01	-1.088983e-03
8.231097e+01	-1.101597e-03
8.278640e+01	-1.114358e-03
8.326457e+01	-1.127267e-03
8.374550e+01	-1.140324e-03
8.422921e+01	-1.153534e-03
8.471572e+01	-1.166896e-03
8.520503e+01	-1.180413e-03
8.569717e+01	-1.194086e-03
8.619215e+01	-1.207918e-03
8.669000e+01	-1.221910e-03
8.719071e+01	-1.236065e-03
8.769432e+01	-1.250383e-03
8.820084e+01	-1.264867e-03
8.871029e+01	-1.279518e-03
8.922267e+01	-1.294340e-03
8.973802e+01	-1.309333e-03
9.025634e+01	-1.324499e-03
9.077766e+01	-1.339842e-03
9.130199e+01	-1.355362e-03
9.182935e+01	-1.371061e-03
9.235975e+01	-1.386943e-03
9.289321e+01	-1.403008e-03
9.342976e+01	-1.419260e-03
9.396941e+01	-1.435700e-03
9.451217e+01	-1.452330e-03
9.505807e+01	-1.469153e-03
9.560712e+01	-1.486170e-03
9.615934e+01	-1.503385e-03
9.671476e+01	-1.520799e-03
9.727338e+01	-1.538415e-03
9.783522e+01	-1.556235e-03
9.840032e+01	-1.574261e-03
9.896867e+01	-1.592496e-03
9.954031e+01	-1.610942e-03
1.001153e+02	-1.629601e-03
1.006935e+02	-1.648477e-03
1.012751e+02	-1.667571e-03
1.018601e+02	-1.686887e-03
1.024484e+02	-1.706426e-03
1.030402e+02	-1.726192e-03
1.036353e+02	-1.746186e-03
1.042339e+02	-1.766412e-03
1.048360e+02	-1.786872e-03
1.054415e+02	-1.807569e-03
1.060505e+02	-1.828506e-03
1.066631e+02	-1.849685e-03
1.072791e+02	-1.871110e-03
1.078988e+02	-1.892782e-03
1.085220e+02	-1.914706e-03
1.091488e+02	-1.936883e-03
1.097793e+02	-1.959317e-03
1.104133e+02	-1.982011e-03
1.110511e+02	-2.004968e-03
1.116925e+02	-2.028191e-03
1.123376e+02	-2.051682e-03
1.129865e+02	-2.075446e-03
1.136391e+02	-2.099485e-03
1.142955e+02	-2.123802e-03
1.149556e+02	-2.148401e-03
1.156196e+02	-2.173284e-03
1.162874e+02	-2.198456e-03
1.169591e+02	-2.223919e-03
1.176347e+02	-2.249677e-03
1.183141e+02	-2.275733e-03
1.189975e+02	-2.302091e-03
1.196848e+02	-2.328755e-03
1.203761e+02	-2.355726e-03
1.210714e+02	-2.383011e-03
1.217707e+02	-2.410611e-03
1.224740e+02	-2.438531e-03
1.231814e+02	-2.466774e-03
1.238929e+02	-2.495344e-03
1.246085e+02	-2.524244e-03
1.253283e+02	-2.553480e-03
1.260522e+02	-2.583054e-03
1.267802e+02	-2.612970e-03
1.275125e+02	-2.643233e-03
1.282490e+02	-2.673846e-03
1.289898e+02	-2.704813e-03
1.297348e+02	-2.736140e-03
1.304842e+02	-2.767828e-03
1.312378e+02	-2.799884e-03
1.319959e+02	-2.832311e-03
1.327583e+02	-2.865113e-03
1.335251e+02	-2.898295e-03
1.342963e+02	-2.931861e-03
1.350720e+02	-2.965816e-03
1.358522e+02	-3.000164e-03
1.366368e+02	-3.034909e-03
1.374260e+02	-3.070057e-03
1.382198e+02	-3.105612e-03
1.390182e+02	-3.141578e-03
1.398211e+02	-3.177961e-03
1.406287e+02	-3.214765e-03
1.414410e+02	-3.251994e-03
1.422579e+02	-3.289655e-03
1.430796e+02	-3.327752e-03
1.439060e+02	-3.366290e-03
1.447372e+02	-3.405274e-03
1.455732e+02	-3.444710e-03
1.464141e+02	-3.484601e-03
1.472597e+02	-3.524955e-03
1.481103e+02	-3.565776e-03
1.489658e+02	-3.607069e-03
1.498262e+02	-3.648840e-03
1.506916e+02	-3.691095e-03
1.515620e+02	-3.733839e-03
1.524374e+02	-3.777077e-03
1.533179e+02	-3.820817e-03
1.542034e+02	-3.865062e-03
1.550941e+02	-3.909820e-03
1.559899e+02	-3.955095e-03
1.568909e+02	-4.000895e-03
1.577971e+02	-4.047225e-03
1.587085e+02	-4.094091e-03
1.596252e+02	-4.141499e-03
1.605472e+02	-4.189456e-03
1.614745e+02	-4.237968e-03
1.624072e+02	-4.287042e-03
1.633453e+02	-4.336684e-03
1.642887e+02	-4.386900e-03
1.652377e+02	-4.437697e-03
1.661921e+02	-4.489082e-03
1.671520e+02	-4.541062e-03
1.681175e+02	-4.593644e-03
1.690885e+02	-4.646834e-03
1.700651e+02	-4.700639e-03
1.710474e+02	-4.755068e-03
1.720354e+02	-4.810126e-03
1.730291e+02	-4.865821e-03
1.740285e+02	-4.922161e-03
1.750337e+02	-4.979152e-03
1.760446e+02	-5.036804e-03
1.770615e+02	-5.095122e-03
1.780842e+02	-5.154115e-03
1.791128e+02	-5.213791e-03
1.801473e+02	-5.274157e-03
1.811878e+02	-5.335222e-03
1.822344e+02	-5.396994e-03
1.832870e+02	-5.459480e-03
1.843456e+02	-5.522689e-03
1.854104e+02	-5.586629e-03
1.864813e+02	-5.651310e-03
1.875584e+02	-5.716738e-03
1.886418e+02	-5.782924e-03
1.897313e+02	-5.849875e-03
1.908272e+02	-5.917601e-03
1.919294e+02	-5.986111e-03
1.930380e+02	-6.055413e-03
1.941530e+02	-6.125517e-03
1.952744e+02	-6.196432e-03
1.964023e+02	-6.268167e-03
1.975367e+02	-6.340732e-03
1.986777e+02	-6.414137e-03
1.998252e+02	-6.488391e-03
2.009794e+02	-6.563503e-03
2.021403e+02	-6.639485e-03
2.033078e+02	-6.716345e-03
2.044821e+02	-6.794095e-03
2.056632e+02	-6.872744e-03
2.068511e+02	-6.952302e-03
2.080459e+02	-7.032781e-03
2.092475e+02	-7.114191e-03
2.104561e+02	-7.196542e-03
2.116717e+02	-7.279845e-03
2.128943e+02	-7.364113e-03
2.141240e+02	-7.449354e-03
2.153608e+02	-7.535582e-03
2.166047e+02	-7.622807e-03
2.178558e+02	-7.711040e-03
2.191141e+02	-7.800294e-03
2.203797e+02	-7.890580e-03
2.216526e+02	-7.981910e-03
2.229329e+02	-8.074296e-03
2.242205e+02	-8.167751e-03
2.255156e+02	-8.262286e-03
2.268182e+02	-8.357914e-03
2.281283e+02	-8.454648e-03
2.294459e+02	-8.552501e-03
2.307712e+02	-8.651485e-03
2.321041e+02	-8.751613e-03
2.334447e+02	-8.852899e-03
2.347931e+02	-8.955356e-03
2.361493e+02	-9.058997e-03
2.375133e+02	-9.163837e-03
2.388851e+02	-9.269889e-03
2.402649e+02	-9.377166e-03
2.416527e+02	-9.485684e-03
2.430484e+02	-9.595456e-03
2.444523e+02	-9.706497e-03
2.458642e+02	-9.818822e-03
2.472843e+02	-9.932445e-03
2.487126e+02	-1.004738e-02
2.501492e+02	-1.016365e-02
2.515940e+02	-1.028125e-02
2.530472e+02	-1.040022e-02
2.545088e+02	-1.052057e-02
2.559789e+02	-1.064230e-02
2.574574e+02	-1.076544e-02
2.589444e+02	-1.089000e-02
2.604401e+02	-1.101601e-02
2.619444e+02	-1.114346e-02
2.634574e+02	-1.127240e-02
2.649791e+02	-1.140282e-02
2.665096e+02	-1.153475e-02
2.680489e+02	-1.166820e-02
2.695972e+02	-1.180319e-02
2.711544e+02	-1.193975e-02
2.727205e+02	-1.207788e-02
2.742958e+02	-1.221761e-02
2.758801e+02	-1.235895e-02
2.774736e+02	-1.250192e-02
2.790762e+02	-1.264655e-02
2.806882e+02	-1.279285e-02
2.823094e+02	-1.294083e-02
2.839400e+02	-1.309053e-02
2.855800e+02	-1.324195e-02
2.872295e+02	-1.339513e-02
2.888886e+02	-1.355007e-02
2.905572e+02	-1.370680e-02
2.922354e+02	-1.386535e-02
2.939234e+02	-1.402572e-02
2.956211e+02	-1.418794e-02
2.973286e+02	-1.435204e-02
2.990459e+02	-1.451804e-02
3.007732e+02	-1.468595e-02
3.025104e+02	-1.485579e-02
3.042577e+02	-1.502760e-02
3.060151e+02	-1.520140e-02
3.077826e+02	-1.537719e-02
3.095604e+02	-1.555502e-02
3.113484e+02	-1.573490e-02
3.131467e+02	-1.591686e-02
3.149554e+02	-1.610092e-02
3.167746e+02	-1.628710e-02
3.186043e+02	-1.647543e-02
3.204445e+02	-1.666594e-02
3.222954e+02	-1.685864e-02
3.241570e+02	-1.705357e-02
3.260293e+02	-1.725074e-02
3.279124e+02	-1.745019e-02
3.298064e+02	-1.765195e-02
3.317114e+02	-1.785603e-02
3.336273e+02	-1.806246e-02
3.355544e+02	-1.827128e-02
3.374925e+02	-1.848250e-02
3.394418e+02	-1.869616e-02
3.414024e+02	-1.891229e-02
3.433744e+02	-1.913091e-02
3.453577e+02	-1.935205e-02
3.473525e+02	-1.957574e-02
3.493588e+02	-1.980201e-02
3.513766e+02	-2.003089e-02
3.534062e+02	-2.026241e-02
3.554474e+02	-2.049660e-02
3.575005e+02	-2.073349e-02
3.595654e+02	-2.097311e-02
3.616422e+02	-2.121549e-02
3.637311e+02	-2.146067e-02
3.658320e+02	-2.170867e-02
3.679450e+02	-2.195954e-02
3.700702e+02	-2.221329e-02
3.722077e+02	-2.246997e-02
3.743576e+02	-2.272960e-02
3.765199e+02	-2.299223e-02
3.786946e+02	-2.325789e-02
3.808820e+02	-2.352660e-02
3.830819e+02	-2.379842e-02
3.852946e+02	-2.407336e-02
3.875200e+02	-2.435147e-02
3.897583e+02	-2.463279e-02
3.920096e+02	-2.491734e-02
3.942738e+02	-2.520517e-02
3.965511e+02	-2.549632e-02
3.988416e+02	-2.579082e-02
4.011452e+02	-2.608872e-02
4.034622e+02	-2.639004e-02
4.057926e+02	-2.669483e-02
4.081365e+02	-2.700313e-02
4.104938e+02	-2.731498e-02
4.128648e+02	-2.763042e-02
4.152495e+02	-2.794950e-02
4.176480e+02	-2.827224e-02
4.200603e+02	-2.859870e-02
4.224866e+02	-2.892891e-02
4.249268e+02	-2.926293e-02
4.273812e+02	-2.960079e-02
4.298497e+02	-2.994254e-02
4.323325e+02	-3.028821e-02
4.348297e+02	-3.063787e-02
4.373412e+02	-3.099155e-02
4.398673e+02	-3.134929e-02
4.424079e+02	-3.171115e-02
4.449633e+02	-3.207717e-02
4.475334e+02	-3.244740e-02
4.501183e+02	-3.282189e-02
4.527182e+02	-3.320068e-02
4.553330e+02	-3.358382e-02
4.579630e+02	-3.397137e-02
4.606082e+02	-3.436338e-02
4.632687e+02	-3.475989e-02
4.659445e+02	-3.516096e-02
4.686358e+02	-3.556663e-02
4.713426e+02	-3.597697e-02
4.740650e+02	-3.639202e-02
4.768032e+02	-3.681184e-02
4.795572e+02	-3.723648e-02
4.823271e+02	-3.766599e-02
4.851130e+02	-3.810045e-02
4.879150e+02	-3.853988e-02
4.907332e+02	-3.898437e-02
4.935676e+02	-3.943396e-02
4.964185e+02	-3.988870e-02
4.992858e+02	-4.034867e-02
5.021696e+02	-4.081392e-02
5.050701e+02	-4.128451e-02
5.079874e+02	-4.176049e-02
5.109215e+02	-4.224194e-02
5.138726e+02	-4.272891e-02
5.168407e+02	-4.322146e-02
5.198259e+02	-4.371967e-02
5.228284e+02	-4.422359e-02
5.258482e+02	-4.473328e-02
5.288855e+02	-4.524882e-02
5.319403e+02	-4.577027e-02
5.350128e+02	-4.629770e-02
5.381030e+02	-4.683117e-02
5.412111e+02	-4.737075e-02
5.443371e+02	-4.791652e-02
5.474812e+02	-4.846854e-02
5.506434e+02	-4.902689e-02
5.538239e+02	-4.959162e-02
5.570228e+02	-5.016283e-02
5.602401e+02	-5.074058e-02
5.634760e+02	-5.132494e-02
5.667306e+02	-5.191599e-02
5.700040e+02	-5.251381e-02
5.732964e+02	-5.311846e-02
5.766077e+02	-5.373004e-02
5.799382e+02	-5.434862e-02
5.832879e+02	-5.497427e-02
5.866569e+02	-5.560707e-02
5.900454e+02	-5.624711e-02
5.934535e+02	-5.689448e-02
5.968813e+02	-5.754924e-02
6.003288e+02	-5.821148e-02
6.037963e+02	-5.888130e-02
6.072838e+02	-5.955877e-02
6.107914e+02	-6.024398e-02
6.143194e+02	-6.093702e-02
6.178676e+02	-6.163797e-02
6.214364e+02	-6.234693e-02
6.250258e+02	-6.306399e-02
6.286359e+02	-6.378923e-02
6.322669e+02	-6.452274e-02
6.359189e+02	-6.526463e-02
6.395919e+02	-6.601499e-02
6.432862e+02	-6.677390e-02
6.470017e+02	-6.754147e-02
6.507388e+02	-6.831780e-02
6.544974e+02	-6.910298e-02
6.582778e+02	-6.989710e-02
6.620800e+02	-7.070028e-02
6.659041e+02	-7.151262e-02
6.697504e+02	-7.233420e-02
6.736188e+02	-7.316515e-02
6.775096e+02	-7.400556e-02
6.814229e+02	-7.485554e-02
6.853587e+02	-7.571520e-02
6.893173e+02	-7.658464e-02
6.932988e+02	-7.746398e-02
6.973033e+02	-7.835332e-02
7.013309e+02	-7.925278e-02
