Frequency(Hz)	Magnitude(dB)
1.000000e+01	-1.882252e-05
1.005776e+01	-1.904058e-05
1.011585e+01	-1.926117e-05
1.017428e+01	-1.948432e-05
1.023305e+01	-1.971005e-05
1.029215e+01	-1.993839e-05
1.035160e+01	-2.016939e-05
1.041139e+01	-2.040305e-05
1.047153e+01	-2.063943e-05
1.053201e+01	-2.087854e-05
1.059284e+01	-2.112042e-05
1.065403e+01	-2.136511e-05
1.071556e+01	-2.161263e-05
1.077746e+01	-2.186302e-05
1.083971e+01	-2.211631e-05
1.090232e+01	-2.237253e-05
1.096529e+01	-2.263172e-05
1.102862e+01	-2.289391e-05
1.109232e+01	-2.315915e-05
1.115639e+01	-2.342745e-05
1.122083e+01	-2.369886e-05
1.128564e+01	-2.397342e-05
1.135083e+01	-2.425116e-05
1.141639e+01	-2.453211e-05
1.148233e+01	-2.481632e-05
1.154865e+01	-2.510383e-05
1.161536e+01	-2.539466e-05
1.168245e+01	-2.568886e-05
1.174992e+01	-2.598648e-05
1.181779e+01	-2.628754e-05
1.188605e+01	-2.659208e-05
1.195470e+01	-2.690016e-05
1.202375e+01	-2.721180e-05
1.209320e+01	-2.752706e-05
1.216305e+01	-2.784597e-05
1.223330e+01	-2.816857e-05
1.230396e+01	-2.849491e-05
1.237503e+01	-2.882503e-05
1.244651e+01	-2.915897e-05
1.251840e+01	-2.949679e-05
1.259070e+01	-2.983852e-05
1.266343e+01	-3.018420e-05
1.273657e+01	-3.053389e-05
1.281014e+01	-3.088764e-05
1.288413e+01	-3.124548e-05
1.295855e+01	-3.160746e-05
1.303339e+01	-3.197364e-05
1.310867e+01	-3.234407e-05
1.318439e+01	-3.271878e-05
1.326054e+01	-3.309783e-05
1.333713e+01	-3.348128e-05
1.341417e+01	-3.386917e-05
1.349165e+01	-3.426155e-05
1.356958e+01	-3.465848e-05
1.364795e+01	-3.506001e-05
1.372678e+01	-3.546618e-05
1.380607e+01	-3.587707e-05
1.388581e+01	-3.629271e-05
1.396602e+01	-3.671317e-05
1.404668e+01	-3.713850e-05
1.412782e+01	-3.756876e-05
1.420942e+01	-3.800400e-05
1.429149e+01	-3.844429e-05
1.437404e+01	-3.888967e-05
1.445706e+01	-3.934022e-05
1.454057e+01	-3.979598e-05
1.462455e+01	-4.025703e-05
1.470902e+01	-4.072342e-05
1.479398e+01	-4.119521e-05
1.487943e+01	-4.167246e-05
1.496537e+01	-4.215525e-05
1.505181e+01	-4.264363e-05
1.513875e+01	-4.313766e-05
1.522619e+01	-4.363742e-05
1.531414e+01	-4.414297e-05
1.540259e+01	-4.465438e-05
1.549156e+01	-4.517171e-05
1.558103e+01	-4.569503e-05
1.567103e+01	-4.622442e-05
1.576155e+01	-4.675994e-05
1.585258e+01	-4.730166e-05
1.594415e+01	-4.784966e-05
1.603624e+01	-4.840401e-05
1.612886e+01	-4.896478e-05
1.622202e+01	-4.953205e-05
1.631572e+01	-5.010589e-05
1.640996e+01	-5.068638e-05
1.650474e+01	-5.127359e-05
1.660008e+01	-5.186760e-05
1.669596e+01	-5.246850e-05
1.679239e+01	-5.307636e-05
1.688938e+01	-5.369126e-05
1.698694e+01	-5.431328e-05
1.708505e+01	-5.494251e-05
1.718373e+01	-5.557903e-05
1.728299e+01	-5.622293e-05
1.738281e+01	-5.687428e-05
1.748322e+01	-5.753318e-05
1.758420e+01	-5.819972e-05
1.768576e+01	-5.887397e-05
1.778792e+01	-5.955604e-05
1.789066e+01	-6.024601e-05
1.799399e+01	-6.094397e-05
1.809793e+01	-6.165002e-05
1.820246e+01	-6.236424e-05
1.830760e+01	-6.308675e-05
1.841334e+01	-6.381762e-05
1.851969e+01	-6.455696e-05
1.862666e+01	-6.530486e-05
1.873425e+01	-6.606143e-05
1.884246e+01	-6.682677e-05
1.895129e+01	-6.760097e-05
1.906075e+01	-6.838414e-05
1.917085e+01	-6.917638e-05
1.928158e+01	-6.997780e-05
1.939295e+01	-7.078851e-05
1.950496e+01	-7.160861e-05
1.961762e+01	-7.243820e-05
1.973093e+01	-7.327741e-05
1.984490e+01	-7.412635e-05
1.995952e+01	-7.498511e-05
2.007480e+01	-7.585383e-05
2.019076e+01	-7.673261e-05
2.030738e+01	-7.762157e-05
2.042467e+01	-7.852083e-05
2.054264e+01	-7.943051e-05
2.066130e+01	-8.035072e-05
2.078064e+01	-8.128160e-05
2.090066e+01	-8.222326e-05
2.102139e+01	-8.317583e-05
2.114280e+01	-8.413944e-05
2.126492e+01	-8.511421e-05
2.138775e+01	-8.610027e-05
2.151128e+01	-8.709775e-05
2.163553e+01	-8.810680e-05
2.176050e+01	-8.912753e-05
2.188619e+01	-9.016008e-05
2.201260e+01	-9.120460e-05
2.213974e+01	-9.226122e-05
2.226762e+01	-9.333008e-05
2.239624e+01	-9.441133e-05
2.252560e+01	-9.550510e-05
2.265571e+01	-9.661154e-05
2.278656e+01	-9.773080e-05
2.291818e+01	-9.886302e-05
2.305055e+01	-1.000084e-04
2.318369e+01	-1.011670e-04
2.331760e+01	-1.023390e-04
2.345228e+01	-1.035246e-04
2.358774e+01	-1.047240e-04
2.372398e+01	-1.059372e-04
2.386101e+01	-1.071645e-04
2.399883e+01	-1.084060e-04
2.413745e+01	-1.096619e-04
2.427686e+01	-1.109324e-04
2.441709e+01	-1.122175e-04
2.455812e+01	-1.135176e-04
2.469997e+01	-1.148327e-04
2.484263e+01	-1.161631e-04
2.498612e+01	-1.175088e-04
2.513044e+01	-1.188702e-04
2.527559e+01	-1.202473e-04
2.542158e+01	-1.216404e-04
2.556842e+01	-1.230496e-04
2.571610e+01	-1.244751e-04
2.586463e+01	-1.259172e-04
2.601403e+01	-1.273760e-04
2.616428e+01	-1.288516e-04
2.631541e+01	-1.303444e-04
2.646740e+01	-1.318544e-04
2.662028e+01	-1.333820e-04
2.677404e+01	-1.349272e-04
2.692868e+01	-1.364904e-04
2.708422e+01	-1.380716e-04
2.724066e+01	-1.396712e-04
2.739800e+01	-1.412893e-04
2.755625e+01	-1.429262e-04
2.771541e+01	-1.445820e-04
2.787550e+01	-1.462570e-04
2.803650e+01	-1.479514e-04
2.819844e+01	-1.496654e-04
2.836131e+01	-1.513993e-04
2.852513e+01	-1.531532e-04
2.868989e+01	-1.549275e-04
2.885560e+01	-1.567224e-04
2.902227e+01	-1.585380e-04
2.918990e+01	-1.603747e-04
2.935850e+01	-1.622326e-04
2.952807e+01	-1.641121e-04
2.969863e+01	-1.660134e-04
2.987016e+01	-1.679366e-04
3.004269e+01	-1.698822e-04
3.021622e+01	-1.718503e-04
3.039075e+01	-1.738412e-04
3.056628e+01	-1.758551e-04
3.074283e+01	-1.778924e-04
3.092040e+01	-1.799533e-04
3.109900e+01	-1.820381e-04
3.127862e+01	-1.841470e-04
3.145929e+01	-1.862804e-04
3.164099e+01	-1.884384e-04
3.182375e+01	-1.906215e-04
3.200756e+01	-1.928298e-04
3.219244e+01	-1.950638e-04
3.237838e+01	-1.973236e-04
3.256540e+01	-1.996096e-04
3.275349e+01	-2.019221e-04
3.294268e+01	-2.042613e-04
3.313295e+01	-2.066277e-04
3.332433e+01	-2.090215e-04
3.351681e+01	-2.114430e-04
3.371040e+01	-2.138926e-04
3.390511e+01	-2.163705e-04
3.410094e+01	-2.188772e-04
3.429791e+01	-2.214128e-04
3.449601e+01	-2.239779e-04
3.469526e+01	-2.265727e-04
3.489566e+01	-2.291975e-04
3.509721e+01	-2.318528e-04
3.529993e+01	-2.345388e-04
3.550382e+01	-2.372559e-04
3.570889e+01	-2.400045e-04
3.591515e+01	-2.427849e-04
3.612259e+01	-2.455976e-04
3.633123e+01	-2.484428e-04
3.654108e+01	-2.513210e-04
3.675214e+01	-2.542326e-04
3.696442e+01	-2.571778e-04
3.717792e+01	-2.601572e-04
3.739266e+01	-2.631711e-04
3.760864e+01	-2.662199e-04
3.782587e+01	-2.693041e-04
3.804435e+01	-2.724239e-04
3.826409e+01	-2.755799e-04
3.848510e+01	-2.787725e-04
3.870739e+01	-2.820021e-04
3.893096e+01	-2.852690e-04
3.915583e+01	-2.885738e-04
3.938199e+01	-2.919169e-04
3.960946e+01	-2.952988e-04
3.983824e+01	-2.987198e-04
4.006834e+01	-3.021804e-04
4.029978e+01	-3.056811e-04
4.053255e+01	-3.092224e-04
4.076666e+01	-3.128047e-04
4.100213e+01	-3.164285e-04
4.123896e+01	-3.200943e-04
4.147715e+01	-3.238025e-04
4.171672e+01	-3.275537e-04
4.195767e+01	-3.313484e-04
4.220002e+01	-3.351870e-04
4.244377e+01	-3.390701e-04
4.268892e+01	-3.429981e-04
4.293549e+01	-3.469717e-04
4.318348e+01	-3.509913e-04
4.343291e+01	-3.550575e-04
4.368377e+01	-3.591707e-04
4.393609e+01	-3.633316e-04
4.418986e+01	-3.675408e-04
4.444510e+01	-3.717986e-04
4.470182e+01	-3.761058e-04
4.496001e+01	-3.804629e-04
4.521970e+01	-3.848705e-04
4.548089e+01	-3.893292e-04
4.574358e+01	-3.938394e-04
4.600779e+01	-3.984020e-04
4.627353e+01	-4.030173e-04
4.654081e+01	-4.076862e-04
4.680963e+01	-4.124091e-04
4.708000e+01	-4.171868e-04
4.735193e+01	-4.220198e-04
4.762543e+01	-4.269087e-04
4.790051e+01	-4.318543e-04
4.817719e+01	-4.368572e-04
4.845545e+01	-4.419181e-04
4.873533e+01	-4.470376e-04
4.901682e+01	-4.522164e-04
4.929994e+01	-4.574551e-04
4.958470e+01	-4.627546e-04
4.987110e+01	-4.681155e-04
5.015915e+01	-4.735384e-04
5.044887e+01	-4.790242e-04
5.074026e+01	-4.845735e-04
5.103333e+01	-4.901871e-04
5.132810e+01	-4.958657e-04
5.162457e+01	-5.016101e-04
5.192275e+01	-5.074211e-04
5.222265e+01	-5.132994e-04
5.252429e+01	-5.192457e-04
5.282767e+01	-5.252610e-04
5.313280e+01	-5.313459e-04
5.343969e+01	-5.375013e-04
5.374836e+01	-5.437280e-04
5.405880e+01	-5.500268e-04
5.437105e+01	-5.563986e-04
5.468509e+01	-5.628443e-04
5.500095e+01	-5.693645e-04
5.531863e+01	-5.759603e-04
5.563815e+01	-5.826326e-04
5.595951e+01	-5.893821e-04
5.628273e+01	-5.962097e-04
5.660782e+01	-6.031165e-04
5.693479e+01	-6.101033e-04
5.726364e+01	-6.171710e-04
5.759439e+01	-6.243206e-04
5.792705e+01	-6.315530e-04
5.826164e+01	-6.388692e-04
5.859815e+01	-6.462701e-04
5.893662e+01	-6.537567e-04
5.927703e+01	-6.613301e-04
5.961941e+01	-6.689912e-04
5.996377e+01	-6.767411e-04
6.031012e+01	-6.845807e-04
6.065847e+01	-6.925111e-04
6.100883e+01	-7.005334e-04
6.136121e+01	-7.086486e-04
6.171563e+01	-7.168578e-04
6.207210e+01	-7.251621e-04
6.243063e+01	-7.335626e-04
6.279122e+01	-7.420604e-04
6.315390e+01	-7.506566e-04
6.351868e+01	-7.593524e-04
6.388556e+01	-7.681490e-04
6.425456e+01	-7.770474e-04
6.462569e+01	-7.860489e-04
6.499897e+01	-7.951546e-04
6.537440e+01	-8.043659e-04
6.575200e+01	-8.136838e-04
6.613178e+01	-8.231096e-04
6.651375e+01	-8.326447e-04
6.689793e+01	-8.422902e-04
6.728433e+01	-8.520474e-04
6.767297e+01	-8.619176e-04
6.806384e+01	-8.719021e-04
6.845698e+01	-8.820023e-04
6.885238e+01	-8.922195e-04
6.925007e+01	-9.025551e-04
6.965005e+01	-9.130103e-04
7.005235e+01	-9.235867e-04
7.045697e+01	-9.342855e-04
7.086393e+01	-9.451083e-04
7.127323e+01	-9.560564e-04
7.168490e+01	-9.671314e-04
7.209895e+01	-9.783346e-04
7.251539e+01	-9.896676e-04
7.293424e+01	-1.001132e-03
7.335551e+01	-1.012729e-03
7.377920e+01	-1.024460e-03
7.420535e+01	-1.036327e-03
7.463396e+01	-1.048332e-03
7.506504e+01	-1.060476e-03
7.549861e+01	-1.072760e-03
7.593469e+01	-1.085187e-03
7.637328e+01	-1.097757e-03
7.681441e+01	-1.110474e-03
7.725809e+01	-1.123337e-03
7.770433e+01	-1.136350e-03
7.815315e+01	-1.149513e-03
7.860456e+01	-1.162828e-03
7.905857e+01	-1.176298e-03
7.951521e+01	-1.189924e-03
7.997449e+01	-1.203708e-03
8.043642e+01	-1.217651e-03
8.090102e+01	-1.231756e-03
8.136830e+01	-1.246024e-03
8.183828e+01	-1.260458e-03
8.231097e+01	-1.275058e-03
8.278640e+01	-1.289828e-03
8.326457e+01	-1.304769e-03
8.374550e+01	-1.319882e-03
8.422921e+01	-1.335171e-03
8.471572e+01	-1.350637e-03
8.520503e+01	-1.366282e-03
8.569717e+01	-1.382108e-03
8.619215e+01	-1.398118e-03
8.669000e+01	-1.414313e-03
8.719071e+01	-1.430695e-03
8.769432e+01	-1.447268e-03
8.820084e+01	-1.464032e-03
8.871029e+01	-1.480990e-03
8.922267e+01	-1.498145e-03
8.973802e+01	-1.515498e-03
9.025634e+01	-1.533053e-03
9.077766e+01	-1.550810e-03
9.130199e+01	-1.568774e-03
9.182935e+01	-1.586945e-03
9.235975e+01	-1.605327e-03
9.289321e+01	-1.623921e-03
9.342976e+01	-1.642731e-03
9.396941e+01	-1.661759e-03
9.451217e+01	-1.681007e-03
9.505807e+01	-1.700478e-03
9.560712e+01	-1.720175e-03
9.615934e+01	-1.740100e-03
9.671476e+01	-1.760255e-03
9.727338e+01	-1.780644e-03
9.783522e+01	-1.801269e-03
9.840032e+01	-1.822133e-03
9.896867e+01	-1.843238e-03
9.954031e+01	-1.864588e-03
1.001153e+02	-1.886185e-03
1.006935e+02	-1.908032e-03
1.012751e+02	-1.930132e-03
1.018601e+02	-1.952488e-03
1.024484e+02	-1.975103e-03
1.030402e+02	-1.997980e-03
1.036353e+02	-2.021122e-03
1.042339e+02	-2.044532e-03
1.048360e+02	-2.068213e-03
1.054415e+02	-2.092168e-03
1.060505e+02	-2.116400e-03
1.066631e+02	-2.140913e-03
1.072791e+02	-2.165710e-03
1.078988e+02	-2.190794e-03
1.085220e+02	-2.216168e-03
1.091488e+02	-2.241837e-03
1.097793e+02	-2.267802e-03
1.104133e+02	-2.294068e-03
1.110511e+02	-2.320638e-03
1.116925e+02	-2.347516e-03
1.123376e+02	-2.374706e-03
1.129865e+02	-2.402210e-03
1.136391e+02	-2.430032e-03
1.142955e+02	-2.458177e-03
1.149556e+02	-2.486647e-03
1.156196e+02	-2.515447e-03
1.162874e+02	-2.544581e-03
1.169591e+02	-2.574052e-03
1.176347e+02	-2.603864e-03
1.183141e+02	-2.634021e-03
1.189975e+02	-2.664527e-03
1.196848e+02	-2.695387e-03
1.203761e+02	-2.726604e-03
1.210714e+02	-2.758182e-03
1.217707e+02	-2.790126e-03
1.224740e+02	-2.822440e-03
1.231814e+02	-2.855128e-03
1.238929e+02	-2.888195e-03
1.246085e+02	-2.921644e-03
1.253283e+02	-2.955480e-03
1.260522e+02	-2.989709e-03
1.267802e+02	-3.024333e-03
1.275125e+02	-3.059358e-03
1.282490e+02	-3.094789e-03
1.289898e+02	-3.130630e-03
1.297348e+02	-3.166886e-03
1.304842e+02	-3.203562e-03
1.312378e+02	-3.240662e-03
1.319959e+02	-3.278192e-03
1.327583e+02	-3.316156e-03
1.335251e+02	-3.354560e-03
1.342963e+02	-3.393408e-03
1.350720e+02	-3.432706e-03
1.358522e+02	-3.472459e-03
1.366368e+02	-3.512672e-03
1.374260e+02	-3.553350e-03
1.382198e+02	-3.594500e-03
1.390182e+02	-3.636126e-03
1.398211e+02	-3.678233e-03
1.406287e+02	-3.720828e-03
1.414410e+02	-3.763916e-03
1.422579e+02	-3.807503e-03
1.430796e+02	-3.851594e-03
1.439060e+02	-3.896196e-03
1.447372e+02	-3.941314e-03
1.455732e+02	-3.986954e-03
1.464141e+02	-4.033122e-03
1.472597e+02	-4.079825e-03
1.481103e+02	-4.127069e-03
1.489658e+02	-4.174859e-03
1.498262e+02	-4.223202e-03
1.506916e+02	-4.272105e-03
1.515620e+02	-4.321574e-03
1.524374e+02	-4.371615e-03
1.533179e+02	-4.422235e-03
1.542034e+02	-4.473442e-03
1.550941e+02	-4.525241e-03
1.559899e+02	-4.577639e-03
1.568909e+02	-4.630644e-03
1.577971e+02	-4.684262e-03
1.587085e+02	-4.738501e-03
1.596252e+02	-4.793367e-03
1.605472e+02	-4.848868e-03
1.614745e+02	-4.905012e-03
1.624072e+02	-4.961805e-03
1.633453e+02	-5.019256e-03
1.642887e+02	-5.077371e-03
1.652377e+02	-5.136159e-03
1.661921e+02	-5.195627e-03
1.671520e+02	-5.255783e-03
1.681175e+02	-5.316635e-03
1.690885e+02	-5.378192e-03
1.700651e+02	-5.440460e-03
1.710474e+02	-5.503449e-03
1.720354e+02	-5.567167e-03
1.730291e+02	-5.631623e-03
1.740285e+02	-5.696823e-03
1.750337e+02	-5.762779e-03
1.760446e+02	-5.829497e-03
1.770615e+02	-5.896987e-03
1.780842e+02	-5.965258e-03
1.791128e+02	-6.034319e-03
1.801473e+02	-6.104179e-03
1.811878e+02	-6.174847e-03
1.822344e+02	-6.246333e-03
1.832870e+02	-6.318646e-03
1.843456e+02	-6.391795e-03
1.854104e+02	-6.465790e-03
1.864813e+02	-6.540641e-03
1.875584e+02	-6.616358e-03
1.886418e+02	-6.692951e-03
1.897313e+02	-6.770430e-03
1.908272e+02	-6.848806e-03
1.919294e+02	-6.928087e-03
1.930380e+02	-7.008286e-03
1.941530e+02	-7.089412e-03
1.952744e+02	-7.171477e-03
1.964023e+02	-7.254491e-03
1.975367e+02	-7.338465e-03
1.986777e+02	-7.423410e-03
1.998252e+02	-7.509337e-03
2.009794e+02	-7.596259e-03
2.021403e+02	-7.684185e-03
2.033078e+02	-7.773129e-03
2.044821e+02	-7.863100e-03
2.056632e+02	-7.954113e-03
2.068511e+02	-8.046178e-03
2.080459e+02	-8.139307e-03
2.092475e+02	-8.233513e-03
2.104561e+02	-8.328809e-03
2.116717e+02	-8.425206e-03
2.128943e+02	-8.522719e-03
2.141240e+02	-8.621358e-03
2.153608e+02	-8.721138e-03
2.166047e+02	-8.822072e-03
2.178558e+02	-8.924173e-03
2.191141e+02	-9.027454e-03
2.203797e+02	-9.131929e-03
2.216526e+02	-9.237611e-03
2.229329e+02	-9.344516e-03
2.242205e+02	-9.452656e-03
2.255156e+02	-9.562047e-03
2.268182e+02	-9.672702e-03
2.281283e+02	-9.784636e-03
2.294459e+02	-9.897864e-03
2.307712e+02	-1.001240e-02
2.321041e+02	-1.012826e-02
2.334447e+02	-1.024546e-02
2.347931e+02	-1.036402e-02
2.361493e+02	-1.048394e-02
2.375133e+02	-1.060525e-02
2.388851e+02	-1.072796e-02
2.402649e+02	-1.085209e-02
2.416527e+02	-1.097766e-02
2.430484e+02	-1.110467e-02
2.444523e+02	-1.123316e-02
2.458642e+02	-1.136312e-02
2.472843e+02	-1.149459e-02
2.487126e+02	-1.162758e-02
2.501492e+02	-1.176211e-02
2.515940e+02	-1.189819e-02
2.530472e+02	-1.203584e-02
2.545088e+02	-1.217508e-02
2.559789e+02	-1.231593e-02
2.574574e+02	-1.245841e-02
2.589444e+02	-1.260254e-02
2.604401e+02	-1.274832e-02
2.619444e+02	-1.289580e-02
2.634574e+02	-1.304497e-02
2.649791e+02	-1.319587e-02
2.665096e+02	-1.334851e-02
2.680489e+02	-1.350292e-02
2.695972e+02	-1.365911e-02
2.711544e+02	-1.381710e-02
2.727205e+02	-1.397691e-02
2.742958e+02	-1.413858e-02
2.758801e+02	-1.430210e-02
2.774736e+02	-1.446752e-02
2.790762e+02	-1.463485e-02
2.806882e+02	-1.480411e-02
2.823094e+02	-1.497532e-02
2.839400e+02	-1.514851e-02
2.855800e+02	-1.532370e-02
2.872295e+02	-1.550091e-02
2.888886e+02	-1.568016e-02
2.905572e+02	-1.586149e-02
2.922354e+02	-1.604491e-02
2.939234e+02	-1.623044e-02
2.956211e+02	-1.641812e-02
2.973286e+02	-1.660796e-02
2.990459e+02	-1.680000e-02
3.007732e+02	-1.699425e-02
3.025104e+02	-1.719074e-02
3.042577e+02	-1.738950e-02
3.060151e+02	-1.759055e-02
3.077826e+02	-1.779392e-02
3.095604e+02	-1.799964e-02
3.113484e+02	-1.820773e-02
3.131467e+02	-1.841823e-02
3.149554e+02	-1.863115e-02
3.167746e+02	-1.884652e-02
3.186043e+02	-1.906438e-02
3.204445e+02	-1.928476e-02
3.222954e+02	-1.950767e-02
3.241570e+02	-1.973316e-02
3.260293e+02	-1.996125e-02
3.279124e+02	-2.019196e-02
3.298064e+02	-2.042534e-02
3.317114e+02	-2.066141e-02
3.336273e+02	-2.090020e-02
3.355544e+02	-2.114174e-02
3.374925e+02	-2.138607e-02
3.394418e+02	-2.163321e-02
3.414024e+02	-2.188321e-02
3.433744e+02	-2.213608e-02
3.453577e+02	-2.239187e-02
3.473525e+02	-2.265061e-02
3.493588e+02	-2.291232e-02
3.513766e+02	-2.317706e-02
3.534062e+02	-2.344484e-02
3.554474e+02	-2.371571e-02
3.575005e+02	-2.398971e-02
3.595654e+02	-2.426685e-02
3.616422e+02	-2.454719e-02
3.637311e+02	-2.483076e-02
3.658320e+02	-2.511760e-02
3.679450e+02	-2.540774e-02
3.700702e+02	-2.570122e-02
3.722077e+02	-2.599808e-02
3.743576e+02	-2.629836e-02
3.765199e+02	-2.660210e-02
3.786946e+02	-2.690933e-02
3.808820e+02	-2.722011e-02
3.830819e+02	-2.753445e-02
3.852946e+02	-2.785242e-02
3.875200e+02	-2.817405e-02
3.897583e+02	-2.849938e-02
3.920096e+02	-2.882845e-02
3.942738e+02	-2.916131e-02
3.965511e+02	-2.949800e-02
3.988416e+02	-2.983857e-02
4.011452e+02	-3.018305e-02
4.034622e+02	-3.053150e-02
4.057926e+02	-3.088395e-02
4.081365e+02	-3.124046e-02
4.104938e+02	-3.160107e-02
4.128648e+02	-3.196582e-02
4.152495e+02	-3.233477e-02
4.176480e+02	-3.270796e-02
4.200603e+02	-3.308545e-02
4.224866e+02	-3.346727e-02
4.249268e+02	-3.385348e-02
4.273812e+02	-3.424413e-02
4.298497e+02	-3.463927e-02
4.323325e+02	-3.503895e-02
4.348297e+02	-3.544323e-02
4.373412e+02	-3.585215e-02
4.398673e+02	-3.626577e-02
4.424079e+02	-3.668413e-02
4.449633e+02	-3.710731e-02
4.475334e+02	-3.753534e-02
4.501183e+02	-3.796830e-02
4.527182e+02	-3.840622e-02
4.553330e+02	-3.884917e-02
4.579630e+02	-3.929721e-02
4.606082e+02	-3.975039e-02
4.632687e+02	-4.020877e-02
4.659445e+02	-4.067241e-02
4.686358e+02	-4.114137e-02
4.713426e+02	-4.161572e-02
4.740650e+02	-4.209551e-02
4.768032e+02	-4.258080e-02
4.795572e+02	-4.307165e-02
4.823271e+02	-4.356814e-02
4.851130e+02	-4.407032e-02
4.879150e+02	-4.457826e-02
4.907332e+02	-4.509203e-02
4.935676e+02	-4.561168e-02
4.964185e+02	-4.613729e-02
4.992858e+02	-4.666893e-02
5.021696e+02	-4.720666e-02
5.050701e+02	-4.775055e-02
5.079874e+02	-4.830067e-02
5.109215e+02	-4.885709e-02
5.138726e+02	-4.941988e-02
5.168407e+02	-4.998913e-02
5.198259e+02	-5.056489e-02
5.228284e+02	-5.114724e-02
5.258482e+02	-5.173626e-02
5.288855e+02	-5.233202e-02
5.319403e+02	-5.293460e-02
5.350128e+02	-5.354407e-02
5.381030e+02	-5.416052e-02
5.412111e+02	-5.478402e-02
5.443371e+02	-5.541465e-02
5.474812e+02	-5.605250e-02
5.506434e+02	-5.669764e-02
5.538239e+02	-5.735015e-02
5.570228e+02	-5.801013e-02
5.602401e+02	-5.867764e-02
5.634760e+02	-5.935279e-02
5.667306e+02	-6.003565e-02
5.700040e+02	-6.072631e-02
5.732964e+02	-6.142486e-02
5.766077e+02	-6.213139e-02
5.799382e+02	-6.284599e-02
5.832879e+02	-6.356874e-02
5.866569e+02	-6.429974e-02
5.900454e+02	-6.503909e-02
5.934535e+02	-6.578688e-02
5.968813e+02	-6.654319e-02
6.003288e+02	-6.730814e-02
6.037963e+02	-6.808180e-02
6.072838e+02	-6.886429e-02
6.107914e+02	-6.965570e-02
6.143194e+02	-7.045614e-02
6.178676e+02	-7.126569e-02
6.214364e+02	-7.208447e-02
6.250258e+02	-7.291258e-02
6.286359e+02	-7.375011e-02
6.322669e+02	-7.459719e-02
6.359189e+02	-7.545391e-02
6.395919e+02	-7.632039e-02
6.432862e+02	-7.719672e-02
6.470017e+02	-7.808303e-02
6.507388e+02	-7.897942e-02
6.544974e+02	-7.988600e-02
6.582778e+02	-8.080290e-02
6.620800e+02	-8.173022e-02
6.659041e+02	-8.266808e-02
6.697504e+02	-8.361659e-02
6.736188e+02	-8.457589e-02
6.775096e+02	-8.554608e-02
6.814229e+02	-8.652729e-02
6.853587e+02	-8.751964e-02
6.893173e+02	-8.852326e-02
6.932988e+02	-8.953826e-02
6.973033e+02	-9.056478e-02
7.013309e+02	-9.160295e-02
