Frequency(Hz)	Magnitude(dB)
1.000000e+01	-2.350272e+00
1.005776e+01	-2.371440e+00
1.011585e+01	-2.392414e+00
1.017428e+01	-2.413357e+00
1.023305e+01	-2.435049e+00
1.029215e+01	-2.456836e+00
1.035160e+01	-2.478395e+00
1.041139e+01	-2.500239e+00
1.047153e+01	-2.522231e+00
1.053201e+01	-2.543868e+00
1.059284e+01	-2.566374e+00
1.065403e+01	-2.588789e+00
1.071556e+01	-2.611504e+00
1.077746e+01	-2.633986e+00
1.083971e+01	-2.656909e+00
1.090232e+01	-2.679819e+00
1.096529e+01	-2.702934e+00
1.102862e+01	-2.726121e+00
1.109232e+01	-2.749609e+00
1.115639e+01	-2.773017e+00
1.122083e+01	-2.796846e+00
1.128564e+01	-2.820483e+00
1.135083e+01	-2.844494e+00
1.141639e+01	-2.868569e+00
1.148233e+01	-2.893008e+00
1.154865e+01	-2.917288e+00
1.161536e+01	-2.942026e+00
1.168245e+01	-2.966653e+00
1.174992e+01	-2.991388e+00
1.181779e+01	-3.016333e+00
1.188605e+01	-3.041554e+00
1.195470e+01	-3.067002e+00
1.202375e+01	-3.092253e+00
1.209320e+01	-3.117932e+00
1.216305e+01	-3.143287e+00
1.223330e+01	-3.169394e+00
1.230396e+01	-3.195285e+00
1.237503e+01	-3.221329e+00
1.244651e+01	-3.247720e+00
1.251840e+01	-3.273820e+00
1.259070e+01	-3.300858e+00
1.266343e+01	-3.327356e+00
1.273657e+01	-3.354259e+00
1.281014e+01	-3.380908e+00
1.288413e+01	-3.408334e+00
1.295855e+01	-3.435722e+00
1.303339e+01	-3.462903e+00
1.310867e+01	-3.490602e+00
1.318439e+01	-3.518289e+00
1.326054e+01	-3.546207e+00
1.333713e+01	-3.574033e+00
1.341417e+01	-3.602289e+00
1.349165e+01	-3.630554e+00
1.356958e+01	-3.658807e+00
1.364795e+01	-3.687588e+00
1.372678e+01	-3.715820e+00
1.380607e+01	-3.744961e+00
1.388581e+01	-3.774155e+00
1.396602e+01	-3.802970e+00
1.404668e+01	-3.832178e+00
1.412782e+01	-3.861759e+00
1.420942e+01	-3.891330e+00
1.429149e+01	-3.920588e+00
1.437404e+01	-3.950779e+00
1.445706e+01	-3.980939e+00
1.454057e+01	-4.010719e+00
1.462455e+01	-4.041046e+00
1.470902e+01	-4.071688e+00
1.479398e+01	-4.101506e+00
1.487943e+01	-4.132414e+00
1.496537e+01	-4.163271e+00
1.505181e+01	-4.194219e+00
1.513875e+01	-4.225326e+00
1.522619e+01	-4.256413e+00
1.531414e+01	-4.287649e+00
1.540259e+01	-4.319041e+00
1.549156e+01	-4.350946e+00
1.558103e+01	-4.382482e+00
1.567103e+01	-4.414140e+00
1.576155e+01	-4.446290e+00
1.585258e+01	-4.478291e+00
1.594415e+01	-4.510701e+00
1.603624e+01	-4.543282e+00
1.612886e+01	-4.575613e+00
1.622202e+01	-4.608091e+00
1.631572e+01	-4.640972e+00
1.640996e+01	-4.673878e+00
1.650474e+01	-4.706869e+00
1.660008e+01	-4.740329e+00
1.669596e+01	-4.773211e+00
1.679239e+01	-4.806838e+00
1.688938e+01	-4.840583e+00
1.698694e+01	-4.874290e+00
1.708505e+01	-4.907929e+00
1.718373e+01	-4.941715e+00
1.728299e+01	-4.975844e+00
1.738281e+01	-5.009988e+00
1.748322e+01	-5.044709e+00
1.758420e+01	-5.079115e+00
1.768576e+01	-5.113318e+00
1.778792e+01	-5.147926e+00
1.789066e+01	-5.182943e+00
1.799399e+01	-5.217945e+00
1.809793e+01	-5.252766e+00
1.820246e+01	-5.288128e+00
1.830760e+01	-5.323196e+00
1.841334e+01	-5.358518e+00
1.851969e+01	-5.394384e+00
1.862666e+01	-5.429994e+00
1.873425e+01	-5.465656e+00
1.884246e+01	-5.501301e+00
1.895129e+01	-5.537385e+00
1.906075e+01	-5.573263e+00
1.917085e+01	-5.609514e+00
1.928158e+01	-5.645976e+00
1.939295e+01	-5.682674e+00
1.950496e+01	-5.719070e+00
1.961762e+01	-5.755601e+00
1.973093e+01	-5.792446e+00
1.984490e+01	-5.829842e+00
1.995952e+01	-5.866413e+00
2.007480e+01	-5.903211e+00
2.019076e+01	-5.940799e+00
2.030738e+01	-5.978199e+00
2.042467e+01	-6.015985e+00
2.054264e+01	-6.053386e+00
2.066130e+01	-6.090746e+00
2.078064e+01	-6.128687e+00
2.090066e+01	-6.166617e+00
2.102139e+01	-6.204522e+00
2.114280e+01	-6.242618e+00
2.126492e+01	-6.281032e+00
2.138775e+01	-6.318953e+00
2.151128e+01	-6.357435e+00
2.163553e+01	-6.396294e+00
2.176050e+01	-6.434573e+00
2.188619e+01	-6.473213e+00
2.201260e+01	-6.511981e+00
2.213974e+01	-6.551017e+00
2.226762e+01	-6.590442e+00
2.239624e+01	-6.629429e+00
2.252560e+01	-6.668284e+00
2.265571e+01	-6.707530e+00
2.278656e+01	-6.747045e+00
2.291818e+01	-6.786570e+00
2.305055e+01	-6.826191e+00
2.318369e+01	-6.865751e+00
2.331760e+01	-6.905701e+00
2.345228e+01	-6.945475e+00
2.358774e+01	-6.985359e+00
2.372398e+01	-7.025480e+00
2.386101e+01	-7.065708e+00
2.399883e+01	-7.106081e+00
2.413745e+01	-7.146247e+00
2.427686e+01	-7.186768e+00
2.441709e+01	-7.227015e+00
2.455812e+01	-7.267941e+00
2.469997e+01	-7.308496e+00
2.484263e+01	-7.349351e+00
2.498612e+01	-7.390159e+00
2.513044e+01	-7.430891e+00
2.527559e+01	-7.472070e+00
2.542158e+01	-7.513229e+00
2.556842e+01	-7.554012e+00
2.571610e+01	-7.595374e+00
2.586463e+01	-7.636892e+00
2.601403e+01	-7.678205e+00
2.616428e+01	-7.720165e+00
2.631541e+01	-7.761532e+00
2.646740e+01	-7.803291e+00
2.662028e+01	-7.844762e+00
2.677404e+01	-7.886303e+00
2.692868e+01	-7.928402e+00
2.708422e+01	-7.970662e+00
2.724066e+01	-8.012856e+00
2.739800e+01	-8.054818e+00
2.755625e+01	-8.097515e+00
2.771541e+01	-8.139464e+00
2.787550e+01	-8.181941e+00
2.803650e+01	-8.224336e+00
2.819844e+01	-8.266904e+00
2.836131e+01	-8.309663e+00
2.852513e+01	-8.352168e+00
2.868989e+01	-8.394710e+00
2.885560e+01	-8.437660e+00
2.902227e+01	-8.480769e+00
2.918990e+01	-8.524012e+00
2.935850e+01	-8.567071e+00
2.952807e+01	-8.609651e+00
2.969863e+01	-8.653129e+00
2.987016e+01	-8.696257e+00
3.004269e+01	-8.739457e+00
3.021622e+01	-8.782861e+00
3.039075e+01	-8.826294e+00
3.056628e+01	-8.870087e+00
3.074283e+01	-8.913650e+00
3.092040e+01	-8.956830e+00
3.109900e+01	-9.000006e+00
3.127862e+01	-9.044318e+00
3.145929e+01	-9.088039e+00
3.164099e+01	-9.132176e+00
3.182375e+01	-9.175961e+00
3.200756e+01	-9.220084e+00
3.219244e+01	-9.263514e+00
3.237838e+01	-9.307895e+00
3.256540e+01	-9.352660e+00
3.275349e+01	-9.397297e+00
3.294268e+01	-9.440924e+00
3.313295e+01	-9.485296e+00
3.332433e+01	-9.529723e+00
3.351681e+01	-9.574475e+00
3.371040e+01	-9.619062e+00
3.390511e+01	-9.663214e+00
3.410094e+01	-9.707988e+00
3.429791e+01	-9.753059e+00
3.449601e+01	-9.797208e+00
3.469526e+01	-9.842482e+00
3.489566e+01	-9.887103e+00
3.509721e+01	-9.931795e+00
3.529993e+01	-9.976896e+00
3.550382e+01	-1.002195e+01
3.570889e+01	-1.006731e+01
3.591515e+01	-1.011247e+01
3.612259e+01	-1.015767e+01
3.633123e+01	-1.020251e+01
3.654108e+01	-1.024818e+01
3.675214e+01	-1.029317e+01
3.696442e+01	-1.033893e+01
3.717792e+01	-1.038429e+01
3.739266e+01	-1.042981e+01
3.760864e+01	-1.047480e+01
3.782587e+01	-1.052075e+01
3.804435e+01	-1.056603e+01
3.826409e+01	-1.061200e+01
3.848510e+01	-1.065770e+01
3.870739e+01	-1.070344e+01
3.893096e+01	-1.074896e+01
3.915583e+01	-1.079511e+01
3.938199e+01	-1.084093e+01
3.960946e+01	-1.088690e+01
3.983824e+01	-1.093230e+01
4.006834e+01	-1.097916e+01
4.029978e+01	-1.102491e+01
4.053255e+01	-1.107040e+01
4.076666e+01	-1.111732e+01
4.100213e+01	-1.116324e+01
4.123896e+01	-1.120926e+01
4.147715e+01	-1.125575e+01
4.171672e+01	-1.130242e+01
4.195767e+01	-1.134850e+01
4.220002e+01	-1.139513e+01
4.244377e+01	-1.144058e+01
4.268892e+01	-1.148808e+01
4.293549e+01	-1.153388e+01
4.318348e+01	-1.158094e+01
4.343291e+01	-1.162733e+01
4.368377e+01	-1.167401e+01
4.393609e+01	-1.172060e+01
4.418986e+01	-1.176731e+01
4.444510e+01	-1.181384e+01
4.470182e+01	-1.186058e+01
4.496001e+01	-1.190738e+01
4.521970e+01	-1.195423e+01
4.548089e+01	-1.200225e+01
4.574358e+01	-1.204818e+01
4.600779e+01	-1.209475e+01
4.627353e+01	-1.214181e+01
4.654081e+01	-1.218943e+01
4.680963e+01	-1.223607e+01
4.708000e+01	-1.228307e+01
4.735193e+01	-1.232969e+01
4.762543e+01	-1.237695e+01
4.790051e+01	-1.242498e+01
4.817719e+01	-1.247123e+01
4.845545e+01	-1.251851e+01
4.873533e+01	-1.256621e+01
4.901682e+01	-1.261239e+01
4.929994e+01	-1.266096e+01
4.958470e+01	-1.270819e+01
4.987110e+01	-1.275533e+01
5.015915e+01	-1.280217e+01
5.044887e+01	-1.285032e+01
5.074026e+01	-1.289697e+01
5.103333e+01	-1.294524e+01
5.132810e+01	-1.299282e+01
5.162457e+01	-1.303948e+01
5.192275e+01	-1.308791e+01
5.222265e+01	-1.313531e+01
5.252429e+01	-1.318252e+01
5.282767e+01	-1.323003e+01
5.313280e+01	-1.327720e+01
5.343969e+01	-1.332533e+01
5.374836e+01	-1.337350e+01
5.405880e+01	-1.342189e+01
5.437105e+01	-1.346905e+01
5.468509e+01	-1.351616e+01
5.500095e+01	-1.356445e+01
5.531863e+01	-1.361189e+01
5.563815e+01	-1.365952e+01
5.595951e+01	-1.370877e+01
5.628273e+01	-1.375518e+01
5.660782e+01	-1.380301e+01
5.693479e+01	-1.385238e+01
5.726364e+01	-1.390001e+01
5.759439e+01	-1.394760e+01
5.792705e+01	-1.399624e+01
5.826164e+01	-1.404447e+01
5.859815e+01	-1.409261e+01
5.893662e+01	-1.414043e+01
5.927703e+01	-1.418855e+01
5.961941e+01	-1.423561e+01
5.996377e+01	-1.428433e+01
6.031012e+01	-1.433264e+01
6.065847e+01	-1.438197e+01
6.100883e+01	-1.442863e+01
6.136121e+01	-1.447759e+01
6.171563e+01	-1.452608e+01
6.207210e+01	-1.457456e+01
6.243063e+01	-1.462168e+01
6.279122e+01	-1.467079e+01
6.315390e+01	-1.471983e+01
6.351868e+01	-1.476680e+01
6.388556e+01	-1.481579e+01
6.425456e+01	-1.486296e+01
6.462569e+01	-1.491244e+01
6.499897e+01	-1.496080e+01
6.537440e+01	-1.500974e+01
6.575200e+01	-1.505652e+01
6.613178e+01	-1.510590e+01
6.651375e+01	-1.515482e+01
6.689793e+01	-1.520310e+01
6.728433e+01	-1.525188e+01
6.767297e+01	-1.530028e+01
6.806384e+01	-1.534927e+01
6.845698e+01	-1.539745e+01
6.885238e+01	-1.544614e+01
6.925007e+01	-1.549473e+01
6.965005e+01	-1.554297e+01
7.005235e+01	-1.559183e+01
7.045697e+01	-1.564110e+01
7.086393e+01	-1.568756e+01
7.127323e+01	-1.573679e+01
7.168490e+01	-1.578630e+01
7.209895e+01	-1.583523e+01
7.251539e+01	-1.588407e+01
7.293424e+01	-1.593262e+01
7.335551e+01	-1.598141e+01
7.377920e+01	-1.603047e+01
7.420535e+01	-1.607967e+01
7.463396e+01	-1.612752e+01
7.506504e+01	-1.617629e+01
7.549861e+01	-1.622467e+01
7.593469e+01	-1.627443e+01
7.637328e+01	-1.632323e+01
7.681441e+01	-1.637075e+01
7.725809e+01	-1.642044e+01
7.770433e+01	-1.646819e+01
7.815315e+01	-1.651869e+01
7.860456e+01	-1.656776e+01
7.905857e+01	-1.661606e+01
7.951521e+01	-1.666518e+01
7.997449e+01	-1.671466e+01
8.043642e+01	-1.676311e+01
8.090102e+01	-1.681237e+01
8.136830e+01	-1.686153e+01
8.183828e+01	-1.691075e+01
8.231097e+01	-1.695885e+01
8.278640e+01	-1.700898e+01
8.326457e+01	-1.705796e+01
8.374550e+01	-1.710586e+01
8.422921e+01	-1.715522e+01
8.471572e+01	-1.720455e+01
8.520503e+01	-1.725436e+01
8.569717e+01	-1.730361e+01
8.619215e+01	-1.735102e+01
8.669000e+01	-1.740214e+01
8.719071e+01	-1.745036e+01
8.769432e+01	-1.749879e+01
8.820084e+01	-1.754848e+01
8.871029e+01	-1.759777e+01
8.922267e+01	-1.764726e+01
8.973802e+01	-1.769637e+01
9.025634e+01	-1.774577e+01
9.077766e+01	-1.779387e+01
9.130199e+01	-1.784401e+01
9.182935e+01	-1.789245e+01
9.235975e+01	-1.794218e+01
9.289321e+01	-1.799095e+01
9.342976e+01	-1.804076e+01
9.396941e+01	-1.809002e+01
9.451217e+01	-1.813897e+01
9.505807e+01	-1.818882e+01
9.560712e+01	-1.823730e+01
9.615934e+01	-1.828583e+01
9.671476e+01	-1.833570e+01
9.727338e+01	-1.838598e+01
9.783522e+01	-1.843463e+01
9.840032e+01	-1.848435e+01
9.896867e+01	-1.853322e+01
9.954031e+01	-1.858243e+01
1.001153e+02	-1.863276e+01
1.006935e+02	-1.868169e+01
1.012751e+02	-1.873194e+01
1.018601e+02	-1.877908e+01
1.024484e+02	-1.882975e+01
1.030402e+02	-1.887883e+01
1.036353e+02	-1.893007e+01
1.042339e+02	-1.897708e+01
1.048360e+02	-1.902705e+01
1.054415e+02	-1.907520e+01
1.060505e+02	-1.912606e+01
1.066631e+02	-1.917582e+01
1.072791e+02	-1.922359e+01
1.078988e+02	-1.927395e+01
1.085220e+02	-1.932380e+01
1.091488e+02	-1.937337e+01
1.097793e+02	-1.942203e+01
1.104133e+02	-1.947310e+01
1.110511e+02	-1.952176e+01
1.116925e+02	-1.957115e+01
1.123376e+02	-1.962128e+01
1.129865e+02	-1.966979e+01
1.136391e+02	-1.971988e+01
1.142955e+02	-1.977021e+01
1.149556e+02	-1.981880e+01
1.156196e+02	-1.986755e+01
1.162874e+02	-1.991700e+01
1.169591e+02	-1.996685e+01
1.176347e+02	-2.001672e+01
1.183141e+02	-2.006666e+01
1.189975e+02	-2.011491e+01
1.196848e+02	-2.016500e+01
1.203761e+02	-2.021458e+01
1.210714e+02	-2.026374e+01
1.217707e+02	-2.031426e+01
1.224740e+02	-2.036327e+01
1.231814e+02	-2.041245e+01
1.238929e+02	-2.046374e+01
1.246085e+02	-2.051155e+01
1.253283e+02	-2.056280e+01
1.260522e+02	-2.061023e+01
1.267802e+02	-2.066014e+01
1.275125e+02	-2.071018e+01
1.282490e+02	-2.075797e+01
1.289898e+02	-2.081027e+01
1.297348e+02	-2.085985e+01
1.304842e+02	-2.090911e+01
1.312378e+02	-2.095903e+01
1.319959e+02	-2.100935e+01
1.327583e+02	-2.105906e+01
1.335251e+02	-2.110867e+01
1.342963e+02	-2.115812e+01
1.350720e+02	-2.120555e+01
1.358522e+02	-2.125674e+01
1.366368e+02	-2.130580e+01
1.374260e+02	-2.135587e+01
1.382198e+02	-2.140736e+01
1.390182e+02	-2.145525e+01
1.398211e+02	-2.150542e+01
1.406287e+02	-2.155417e+01
1.414410e+02	-2.160438e+01
1.422579e+02	-2.165184e+01
1.430796e+02	-2.170287e+01
1.439060e+02	-2.175301e+01
1.447372e+02	-2.180498e+01
1.455732e+02	-2.185549e+01
1.464141e+02	-2.190303e+01
1.472597e+02	-2.195348e+01
1.481103e+02	-2.200373e+01
1.489658e+02	-2.205002e+01
1.498262e+02	-2.210271e+01
1.506916e+02	-2.215064e+01
1.515620e+02	-2.220070e+01
1.524374e+02	-2.225178e+01
1.533179e+02	-2.230116e+01
1.542034e+02	-2.235053e+01
1.550941e+02	-2.240082e+01
1.559899e+02	-2.244924e+01
1.568909e+02	-2.249909e+01
1.577971e+02	-2.254982e+01
1.587085e+02	-2.259979e+01
1.596252e+02	-2.264962e+01
1.605472e+02	-2.269924e+01
1.614745e+02	-2.274796e+01
1.624072e+02	-2.279924e+01
1.633453e+02	-2.284771e+01
1.642887e+02	-2.289534e+01
1.652377e+02	-2.294624e+01
1.661921e+02	-2.299699e+01
1.671520e+02	-2.304696e+01
1.681175e+02	-2.309771e+01
1.690885e+02	-2.314580e+01
1.700651e+02	-2.319573e+01
1.710474e+02	-2.324538e+01
1.720354e+02	-2.329345e+01
1.730291e+02	-2.334573e+01
1.740285e+02	-2.339373e+01
1.750337e+02	-2.344498e+01
1.760446e+02	-2.349533e+01
1.770615e+02	-2.354563e+01
1.780842e+02	-2.359490e+01
1.791128e+02	-2.364186e+01
1.801473e+02	-2.369554e+01
1.811878e+02	-2.374417e+01
1.822344e+02	-2.379724e+01
1.832870e+02	-2.384463e+01
1.843456e+02	-2.389307e+01
1.854104e+02	-2.394458e+01
1.864813e+02	-2.399398e+01
1.875584e+02	-2.404440e+01
1.886418e+02	-2.409312e+01
1.897313e+02	-2.414048e+01
1.908272e+02	-2.419230e+01
1.919294e+02	-2.424649e+01
1.930380e+02	-2.429441e+01
1.941530e+02	-2.434305e+01
1.952744e+02	-2.439519e+01
1.964023e+02	-2.444189e+01
1.975367e+02	-2.449499e+01
1.986777e+02	-2.454086e+01
1.998252e+02	-2.459331e+01
2.009794e+02	-2.464167e+01
2.021403e+02	-2.469112e+01
2.033078e+02	-2.474155e+01
2.044821e+02	-2.479320e+01
2.056632e+02	-2.484207e+01
2.068511e+02	-2.489143e+01
2.080459e+02	-2.494397e+01
2.092475e+02	-2.499236e+01
2.104561e+02	-2.503963e+01
2.116717e+02	-2.509021e+01
2.128943e+02	-2.513986e+01
2.141240e+02	-2.519032e+01
2.153608e+02	-2.523975e+01
2.166047e+02	-2.528855e+01
2.178558e+02	-2.534077e+01
2.191141e+02	-2.539094e+01
2.203797e+02	-2.544042e+01
2.216526e+02	-2.548980e+01
2.229329e+02	-2.554021e+01
2.242205e+02	-2.558981e+01
2.255156e+02	-2.563779e+01
2.268182e+02	-2.568958e+01
2.281283e+02	-2.574138e+01
2.294459e+02	-2.578899e+01
2.307712e+02	-2.583883e+01
2.321041e+02	-2.589278e+01
2.334447e+02	-2.593726e+01
2.347931e+02	-2.598882e+01
2.361493e+02	-2.604037e+01
2.375133e+02	-2.608984e+01
2.388851e+02	-2.613739e+01
2.402649e+02	-2.618814e+01
2.416527e+02	-2.624234e+01
2.430484e+02	-2.628982e+01
2.444523e+02	-2.634271e+01
2.458642e+02	-2.638869e+01
2.472843e+02	-2.643878e+01
2.487126e+02	-2.648886e+01
2.501492e+02	-2.653836e+01
2.515940e+02	-2.658884e+01
2.530472e+02	-2.664193e+01
2.545088e+02	-2.668664e+01
2.559789e+02	-2.674736e+01
2.574574e+02	-2.679072e+01
2.589444e+02	-2.683763e+01
2.604401e+02	-2.688993e+01
2.619444e+02	-2.694132e+01
2.634574e+02	-2.698882e+01
2.649791e+02	-2.703876e+01
2.665096e+02	-2.708749e+01
2.680489e+02	-2.713984e+01
2.695972e+02	-2.718853e+01
2.711544e+02	-2.724176e+01
2.727205e+02	-2.728565e+01
2.742958e+02	-2.733927e+01
2.758801e+02	-2.739020e+01
2.774736e+02	-2.744185e+01
2.790762e+02	-2.748645e+01
2.806882e+02	-2.753687e+01
2.823094e+02	-2.758816e+01
2.839400e+02	-2.764055e+01
2.855800e+02	-2.768880e+01
2.872295e+02	-2.773532e+01
2.888886e+02	-2.778757e+01
2.905572e+02	-2.783986e+01
2.922354e+02	-2.788873e+01
2.939234e+02	-2.794393e+01
2.956211e+02	-2.799059e+01
2.973286e+02	-2.803841e+01
2.990459e+02	-2.808519e+01
3.007732e+02	-2.814060e+01
3.025104e+02	-2.818868e+01
3.042577e+02	-2.823554e+01
3.060151e+02	-2.828442e+01
3.077826e+02	-2.833885e+01
3.095604e+02	-2.838846e+01
3.113484e+02	-2.844247e+01
3.131467e+02	-2.848555e+01
3.149554e+02	-2.853597e+01
3.167746e+02	-2.859207e+01
3.186043e+02	-2.863694e+01
3.204445e+02	-2.868870e+01
3.222954e+02	-2.874053e+01
3.241570e+02	-2.879285e+01
3.260293e+02	-2.884220e+01
3.279124e+02	-2.888872e+01
3.298064e+02	-2.893696e+01
3.317114e+02	-2.899246e+01
3.336273e+02	-2.904249e+01
3.355544e+02	-2.908981e+01
3.374925e+02	-2.914029e+01
3.394418e+02	-2.918472e+01
3.414024e+02	-2.923645e+01
3.433744e+02	-2.929375e+01
3.453577e+02	-2.933473e+01
3.473525e+02	-2.938968e+01
3.493588e+02	-2.943834e+01
3.513766e+02	-2.948803e+01
3.534062e+02	-2.953969e+01
3.554474e+02	-2.958714e+01
3.575005e+02	-2.964010e+01
3.595654e+02	-2.968408e+01
3.616422e+02	-2.973937e+01
3.637311e+02	-2.978668e+01
3.658320e+02	-2.984011e+01
3.679450e+02	-2.989418e+01
3.700702e+02	-2.993841e+01
3.722077e+02	-2.999364e+01
3.743576e+02	-3.004022e+01
3.765199e+02	-3.008762e+01
3.786946e+02	-3.014105e+01
3.808820e+02	-3.018706e+01
3.830819e+02	-3.023870e+01
3.852946e+02	-3.029367e+01
3.875200e+02	-3.033746e+01
3.897583e+02	-3.039242e+01
3.920096e+02	-3.043964e+01
3.942738e+02	-3.049222e+01
3.965511e+02	-3.054568e+01
3.988416e+02	-3.059088e+01
4.011452e+02	-3.064325e+01
4.034622e+02	-3.070065e+01
4.057926e+02	-3.074042e+01
4.081365e+02	-3.079260e+01
4.104938e+02	-3.084012e+01
4.128648e+02	-3.089246e+01
4.152495e+02	-3.093779e+01
4.176480e+02	-3.099482e+01
4.200603e+02	-3.104522e+01
4.224866e+02	-3.108813e+01
4.249268e+02	-3.114409e+01
4.273812e+02	-3.119202e+01
4.298497e+02	-3.123888e+01
4.323325e+02	-3.128760e+01
4.348297e+02	-3.135068e+01
4.373412e+02	-3.139919e+01
4.398673e+02	-3.144009e+01
4.424079e+02	-3.149469e+01
4.449633e+02	-3.154650e+01
4.475334e+02	-3.159687e+01
4.501183e+02	-3.164280e+01
4.527182e+02	-3.169428e+01
4.553330e+02	-3.173949e+01
4.579630e+02	-3.179817e+01
4.606082e+02	-3.184330e+01
4.632687e+02	-3.189048e+01
4.659445e+02	-3.194129e+01
4.686358e+02	-3.199400e+01
4.713426e+02	-3.204115e+01
4.740650e+02	-3.209393e+01
4.768032e+02	-3.214762e+01
4.795572e+02	-3.219529e+01
4.823271e+02	-3.224821e+01
4.851130e+02	-3.229634e+01
4.879150e+02	-3.235080e+01
4.907332e+02	-3.240091e+01
4.935676e+02	-3.245227e+01
4.964185e+02	-3.249643e+01
4.992858e+02	-3.254673e+01
5.021696e+02	-3.260155e+01
5.050701e+02	-3.265070e+01
5.079874e+02	-3.269861e+01
5.109215e+02	-3.275169e+01
5.138726e+02	-3.280175e+01
5.168407e+02	-3.284735e+01
5.198259e+02	-3.290006e+01
5.228284e+02	-3.294967e+01
5.258482e+02	-3.299770e+01
5.288855e+02	-3.304803e+01
5.319403e+02	-3.310533e+01
5.350128e+02	-3.315352e+01
5.381030e+02	-3.320285e+01
5.412111e+02	-3.324913e+01
5.443371e+02	-3.330319e+01
5.474812e+02	-3.335208e+01
5.506434e+02	-3.340365e+01
5.538239e+02	-3.344903e+01
5.570228e+02	-3.350684e+01
5.602401e+02	-3.354470e+01
5.634760e+02	-3.360776e+01
5.667306e+02	-3.365378e+01
5.700040e+02	-3.369751e+01
5.732964e+02	-3.375784e+01
5.766077e+02	-3.380909e+01
5.799382e+02	-3.384893e+01
5.832879e+02	-3.390249e+01
5.866569e+02	-3.395147e+01
5.900454e+02	-3.400976e+01
5.934535e+02	-3.405271e+01
5.968813e+02	-3.410499e+01
6.003288e+02	-3.415968e+01
6.037963e+02	-3.420815e+01
6.072838e+02	-3.424943e+01
6.107914e+02	-3.431082e+01
6.143194e+02	-3.435878e+01
6.178676e+02	-3.441245e+01
6.214364e+02	-3.445675e+01
6.250258e+02	-3.450238e+01
6.286359e+02	-3.455599e+01
6.322669e+02	-3.461028e+01
6.359189e+02	-3.465542e+01
6.395919e+02	-3.470092e+01
6.432862e+02	-3.476445e+01
6.470017e+02	-3.480652e+01
6.507388e+02	-3.486269e+01
6.544974e+02	-3.491693e+01
6.582778e+02	-3.494948e+01
6.620800e+02	-3.500949e+01
6.659041e+02	-3.505936e+01
6.697504e+02	-3.510523e+01
6.736188e+02	-3.515489e+01
6.775096e+02	-3.521379e+01
6.814229e+02	-3.526620e+01
6.853587e+02	-3.531874e+01
6.893173e+02	-3.535723e+01
6.932988e+02	-3.540360e+01
6.973033e+02	-3.546741e+01
7.013309e+02	-3.551346e+01
