Frequency(Hz)	Magnitude(dB)
1.000000e+01	-1.687676e-05
1.005776e+01	-1.707229e-05
1.011585e+01	-1.727007e-05
1.017428e+01	-1.747015e-05
1.023305e+01	-1.767255e-05
1.029215e+01	-1.787729e-05
1.035160e+01	-1.808440e-05
1.041139e+01	-1.829391e-05
1.047153e+01	-1.850585e-05
1.053201e+01	-1.872025e-05
1.059284e+01	-1.893713e-05
1.065403e+01	-1.915652e-05
1.071556e+01	-1.937845e-05
1.077746e+01	-1.960296e-05
1.083971e+01	-1.983006e-05
1.090232e+01	-2.005980e-05
1.096529e+01	-2.029219e-05
1.102862e+01	-2.052728e-05
1.109232e+01	-2.076510e-05
1.115639e+01	-2.100567e-05
1.122083e+01	-2.124902e-05
1.128564e+01	-2.149520e-05
1.135083e+01	-2.174423e-05
1.141639e+01	-2.199614e-05
1.148233e+01	-2.225097e-05
1.154865e+01	-2.250875e-05
1.161536e+01	-2.276952e-05
1.168245e+01	-2.303331e-05
1.174992e+01	-2.330016e-05
1.181779e+01	-2.357010e-05
1.188605e+01	-2.384316e-05
1.195470e+01	-2.411939e-05
1.202375e+01	-2.439882e-05
1.209320e+01	-2.468149e-05
1.216305e+01	-2.496743e-05
1.223330e+01	-2.525668e-05
1.230396e+01	-2.554929e-05
1.237503e+01	-2.584528e-05
1.244651e+01	-2.614471e-05
1.251840e+01	-2.644760e-05
1.259070e+01	-2.675400e-05
1.266343e+01	-2.706395e-05
1.273657e+01	-2.737749e-05
1.281014e+01	-2.769467e-05
1.288413e+01	-2.801552e-05
1.295855e+01	-2.834009e-05
1.303339e+01	-2.866841e-05
1.310867e+01	-2.900054e-05
1.318439e+01	-2.933652e-05
1.326054e+01	-2.967639e-05
1.333713e+01	-3.002020e-05
1.341417e+01	-3.036799e-05
1.349165e+01	-3.071981e-05
1.356958e+01	-3.107571e-05
1.364795e+01	-3.143573e-05
1.372678e+01	-3.179992e-05
1.380607e+01	-3.216833e-05
1.388581e+01	-3.254100e-05
1.396602e+01	-3.291800e-05
1.404668e+01	-3.329936e-05
1.412782e+01	-3.368514e-05
1.420942e+01	-3.407539e-05
1.429149e+01	-3.447016e-05
1.437404e+01	-3.486951e-05
1.445706e+01	-3.527348e-05
1.454057e+01	-3.568213e-05
1.462455e+01	-3.609552e-05
1.470902e+01	-3.651369e-05
1.479398e+01	-3.693671e-05
1.487943e+01	-3.736463e-05
1.496537e+01	-3.779751e-05
1.505181e+01	-3.823540e-05
1.513875e+01	-3.867837e-05
1.522619e+01	-3.912647e-05
1.531414e+01	-3.957976e-05
1.540259e+01	-4.003830e-05
1.549156e+01	-4.050215e-05
1.558103e+01	-4.097138e-05
1.567103e+01	-4.144604e-05
1.576155e+01	-4.192620e-05
1.585258e+01	-4.241192e-05
1.594415e+01	-4.290328e-05
1.603624e+01	-4.340032e-05
1.612886e+01	-4.390312e-05
1.622202e+01	-4.441175e-05
1.631572e+01	-4.492627e-05
1.640996e+01	-4.544675e-05
1.650474e+01	-4.597326e-05
1.660008e+01	-4.650587e-05
1.669596e+01	-4.704465e-05
1.679239e+01	-4.758967e-05
1.688938e+01	-4.814101e-05
1.698694e+01	-4.869874e-05
1.708505e+01	-4.926292e-05
1.718373e+01	-4.983364e-05
1.728299e+01	-5.041098e-05
1.738281e+01	-5.099500e-05
1.748322e+01	-5.158578e-05
1.758420e+01	-5.218342e-05
1.768576e+01	-5.278797e-05
1.778792e+01	-5.339953e-05
1.789066e+01	-5.401818e-05
1.799399e+01	-5.464399e-05
1.809793e+01	-5.527705e-05
1.820246e+01	-5.591745e-05
1.830760e+01	-5.656526e-05
1.841334e+01	-5.722058e-05
1.851969e+01	-5.788349e-05
1.862666e+01	-5.855409e-05
1.873425e+01	-5.923245e-05
1.884246e+01	-5.991867e-05
1.895129e+01	-6.061284e-05
1.906075e+01	-6.131505e-05
1.917085e+01	-6.202539e-05
1.928158e+01	-6.274397e-05
1.939295e+01	-6.347087e-05
1.950496e+01	-6.420619e-05
1.961762e+01	-6.495004e-05
1.973093e+01	-6.570249e-05
1.984490e+01	-6.646367e-05
1.995952e+01	-6.723366e-05
2.007480e+01	-6.801258e-05
2.019076e+01	-6.880052e-05
2.030738e+01	-6.959759e-05
2.042467e+01	-7.040389e-05
2.054264e+01	-7.121953e-05
2.066130e+01	-7.204462e-05
2.078064e+01	-7.287927e-05
2.090066e+01	-7.372359e-05
2.102139e+01	-7.457769e-05
2.114280e+01	-7.544169e-05
2.126492e+01	-7.631569e-05
2.138775e+01	-7.719982e-05
2.151128e+01	-7.809420e-05
2.163553e+01	-7.899893e-05
2.176050e+01	-7.991415e-05
2.188619e+01	-8.083997e-05
2.201260e+01	-8.177651e-05
2.213974e+01	-8.272391e-05
2.226762e+01	-8.368228e-05
2.239624e+01	-8.465175e-05
2.252560e+01	-8.563245e-05
2.265571e+01	-8.662452e-05
2.278656e+01	-8.762808e-05
2.291818e+01	-8.864326e-05
2.305055e+01	-8.967021e-05
2.318369e+01	-9.070905e-05
2.331760e+01	-9.175993e-05
2.345228e+01	-9.282299e-05
2.358774e+01	-9.389835e-05
2.372398e+01	-9.498618e-05
2.386101e+01	-9.608661e-05
2.399883e+01	-9.719979e-05
2.413745e+01	-9.832586e-05
2.427686e+01	-9.946498e-05
2.441709e+01	-1.006173e-04
2.455812e+01	-1.017830e-04
2.469997e+01	-1.029621e-04
2.484263e+01	-1.041550e-04
2.498612e+01	-1.053616e-04
2.513044e+01	-1.065822e-04
2.527559e+01	-1.078170e-04
2.542158e+01	-1.090661e-04
2.556842e+01	-1.103296e-04
2.571610e+01	-1.116078e-04
2.586463e+01	-1.129008e-04
2.601403e+01	-1.142088e-04
2.616428e+01	-1.155319e-04
2.631541e+01	-1.168704e-04
2.646740e+01	-1.182243e-04
2.662028e+01	-1.195940e-04
2.677404e+01	-1.209795e-04
2.692868e+01	-1.223810e-04
2.708422e+01	-1.237988e-04
2.724066e+01	-1.252330e-04
2.739800e+01	-1.266839e-04
2.755625e+01	-1.281515e-04
2.771541e+01	-1.296362e-04
2.787550e+01	-1.311380e-04
2.803650e+01	-1.326573e-04
2.819844e+01	-1.341941e-04
2.836131e+01	-1.357488e-04
2.852513e+01	-1.373214e-04
2.868989e+01	-1.389123e-04
2.885560e+01	-1.405216e-04
2.902227e+01	-1.421496e-04
2.918990e+01	-1.437964e-04
2.935850e+01	-1.454623e-04
2.952807e+01	-1.471475e-04
2.969863e+01	-1.488522e-04
2.987016e+01	-1.505767e-04
3.004269e+01	-1.523211e-04
3.021622e+01	-1.540858e-04
3.039075e+01	-1.558709e-04
3.056628e+01	-1.576766e-04
3.074283e+01	-1.595033e-04
3.092040e+01	-1.613512e-04
3.109900e+01	-1.632204e-04
3.127862e+01	-1.651114e-04
3.145929e+01	-1.670242e-04
3.164099e+01	-1.689592e-04
3.182375e+01	-1.709166e-04
3.200756e+01	-1.728966e-04
3.219244e+01	-1.748997e-04
3.237838e+01	-1.769259e-04
3.256540e+01	-1.789756e-04
3.275349e+01	-1.810490e-04
3.294268e+01	-1.831465e-04
3.313295e+01	-1.852682e-04
3.332433e+01	-1.874146e-04
3.351681e+01	-1.895858e-04
3.371040e+01	-1.917821e-04
3.390511e+01	-1.940039e-04
3.410094e+01	-1.962515e-04
3.429791e+01	-1.985250e-04
3.449601e+01	-2.008250e-04
3.469526e+01	-2.031515e-04
3.489566e+01	-2.055050e-04
3.509721e+01	-2.078858e-04
3.529993e+01	-2.102942e-04
3.550382e+01	-2.127304e-04
3.570889e+01	-2.151949e-04
3.591515e+01	-2.176879e-04
3.612259e+01	-2.202098e-04
3.633123e+01	-2.227610e-04
3.654108e+01	-2.253416e-04
3.675214e+01	-2.279522e-04
3.696442e+01	-2.305930e-04
3.717792e+01	-2.332645e-04
3.739266e+01	-2.359668e-04
3.760864e+01	-2.387005e-04
3.782587e+01	-2.414658e-04
3.804435e+01	-2.442632e-04
3.826409e+01	-2.470930e-04
3.848510e+01	-2.499555e-04
3.870739e+01	-2.528512e-04
3.893096e+01	-2.557805e-04
3.915583e+01	-2.587437e-04
3.938199e+01	-2.617412e-04
3.960946e+01	-2.647735e-04
3.983824e+01	-2.678409e-04
4.006834e+01	-2.709438e-04
4.029978e+01	-2.740826e-04
4.053255e+01	-2.772579e-04
4.076666e+01	-2.804699e-04
4.100213e+01	-2.837191e-04
4.123896e+01	-2.870059e-04
4.147715e+01	-2.903309e-04
4.171672e+01	-2.936943e-04
4.195767e+01	-2.970967e-04
4.220002e+01	-3.005386e-04
4.244377e+01	-3.040203e-04
4.268892e+01	-3.075423e-04
4.293549e+01	-3.111051e-04
4.318348e+01	-3.147092e-04
4.343291e+01	-3.183551e-04
4.368377e+01	-3.220432e-04
4.393609e+01	-3.257740e-04
4.418986e+01	-3.295481e-04
4.444510e+01	-3.333658e-04
4.470182e+01	-3.372278e-04
4.496001e+01	-3.411345e-04
4.521970e+01	-3.450865e-04
4.548089e+01	-3.490843e-04
4.574358e+01	-3.531283e-04
4.600779e+01	-3.572193e-04
4.627353e+01	-3.613576e-04
4.654081e+01	-3.655438e-04
4.680963e+01	-3.697786e-04
4.708000e+01	-3.740624e-04
4.735193e+01	-3.783958e-04
4.762543e+01	-3.827794e-04
4.790051e+01	-3.872138e-04
4.817719e+01	-3.916996e-04
4.845545e+01	-3.962374e-04
4.873533e+01	-4.008277e-04
4.901682e+01	-4.054712e-04
4.929994e+01	-4.101684e-04
4.958470e+01	-4.149201e-04
4.987110e+01	-4.197269e-04
5.015915e+01	-4.245893e-04
5.044887e+01	-4.295080e-04
5.074026e+01	-4.344837e-04
5.103333e+01	-4.395171e-04
5.132810e+01	-4.446088e-04
5.162457e+01	-4.497594e-04
5.192275e+01	-4.549697e-04
5.222265e+01	-4.602404e-04
5.252429e+01	-4.655721e-04
5.282767e+01	-4.709656e-04
5.313280e+01	-4.764216e-04
5.343969e+01	-4.819407e-04
5.374836e+01	-4.875238e-04
5.405880e+01	-4.931716e-04
5.437105e+01	-4.988848e-04
5.468509e+01	-5.046642e-04
5.500095e+01	-5.105105e-04
5.531863e+01	-5.164246e-04
5.563815e+01	-5.224072e-04
5.595951e+01	-5.284590e-04
5.628273e+01	-5.345810e-04
5.660782e+01	-5.407739e-04
5.693479e+01	-5.470385e-04
5.726364e+01	-5.533757e-04
5.759439e+01	-5.597863e-04
5.792705e+01	-5.662711e-04
5.826164e+01	-5.728311e-04
5.859815e+01	-5.794671e-04
5.893662e+01	-5.861799e-04
5.927703e+01	-5.929705e-04
5.961941e+01	-5.998397e-04
5.996377e+01	-6.067886e-04
6.031012e+01	-6.138179e-04
6.065847e+01	-6.209286e-04
6.100883e+01	-6.281217e-04
6.136121e+01	-6.353982e-04
6.171563e+01	-6.427589e-04
6.207210e+01	-6.502049e-04
6.243063e+01	-6.577371e-04
6.279122e+01	-6.653566e-04
6.315390e+01	-6.730643e-04
6.351868e+01	-6.808613e-04
6.388556e+01	-6.887487e-04
6.425456e+01	-6.967274e-04
6.462569e+01	-7.047985e-04
6.499897e+01	-7.129631e-04
6.537440e+01	-7.212223e-04
6.575200e+01	-7.295772e-04
6.613178e+01	-7.380288e-04
6.651375e+01	-7.465783e-04
6.689793e+01	-7.552269e-04
6.728433e+01	-7.639756e-04
6.767297e+01	-7.728257e-04
6.806384e+01	-7.817783e-04
6.845698e+01	-7.908346e-04
6.885238e+01	-7.999958e-04
6.925007e+01	-8.092631e-04
6.965005e+01	-8.186377e-04
7.005235e+01	-8.281210e-04
7.045697e+01	-8.377141e-04
7.086393e+01	-8.474183e-04
7.127323e+01	-8.572349e-04
7.168490e+01	-8.671652e-04
7.209895e+01	-8.772105e-04
7.251539e+01	-8.873722e-04
7.293424e+01	-8.976516e-04
7.335551e+01	-9.080500e-04
7.377920e+01	-9.185689e-04
7.420535e+01	-9.292097e-04
7.463396e+01	-9.399736e-04
7.506504e+01	-9.508623e-04
7.549861e+01	-9.618771e-04
7.593469e+01	-9.730194e-04
7.637328e+01	-9.842909e-04
7.681441e+01	-9.956928e-04
7.725809e+01	-1.007227e-03
7.770433e+01	-1.018894e-03
7.815315e+01	-1.030697e-03
7.860456e+01	-1.042637e-03
7.905857e+01	-1.054714e-03
7.951521e+01	-1.066932e-03
7.997449e+01	-1.079291e-03
8.043642e+01	-1.091794e-03
8.090102e+01	-1.104441e-03
8.136830e+01	-1.117234e-03
8.183828e+01	-1.130176e-03
8.231097e+01	-1.143268e-03
8.278640e+01	-1.156511e-03
8.326457e+01	-1.169908e-03
8.374550e+01	-1.183460e-03
8.422921e+01	-1.197168e-03
8.471572e+01	-1.211036e-03
8.520503e+01	-1.225064e-03
8.569717e+01	-1.239255e-03
8.619215e+01	-1.253610e-03
8.669000e+01	-1.268131e-03
8.719071e+01	-1.282821e-03
8.769432e+01	-1.297680e-03
8.820084e+01	-1.312712e-03
8.871029e+01	-1.327918e-03
8.922267e+01	-1.343300e-03
8.973802e+01	-1.358860e-03
9.025634e+01	-1.374600e-03
9.077766e+01	-1.390523e-03
9.130199e+01	-1.406630e-03
9.182935e+01	-1.422923e-03
9.235975e+01	-1.439405e-03
9.289321e+01	-1.456078e-03
9.342976e+01	-1.472945e-03
9.396941e+01	-1.490006e-03
9.451217e+01	-1.507265e-03
9.505807e+01	-1.524724e-03
9.560712e+01	-1.542385e-03
9.615934e+01	-1.560251e-03
9.671476e+01	-1.578324e-03
9.727338e+01	-1.596606e-03
9.783522e+01	-1.615099e-03
9.840032e+01	-1.633807e-03
9.896867e+01	-1.652732e-03
9.954031e+01	-1.671875e-03
1.001153e+02	-1.691241e-03
1.006935e+02	-1.710830e-03
1.012751e+02	-1.730647e-03
1.018601e+02	-1.750693e-03
1.024484e+02	-1.770971e-03
1.030402e+02	-1.791484e-03
1.036353e+02	-1.812234e-03
1.042339e+02	-1.833225e-03
1.048360e+02	-1.854459e-03
1.054415e+02	-1.875939e-03
1.060505e+02	-1.897667e-03
1.066631e+02	-1.919647e-03
1.072791e+02	-1.941882e-03
1.078988e+02	-1.964374e-03
1.085220e+02	-1.987127e-03
1.091488e+02	-2.010143e-03
1.097793e+02	-2.033425e-03
1.104133e+02	-2.056978e-03
1.110511e+02	-2.080803e-03
1.116925e+02	-2.104903e-03
1.123376e+02	-2.129283e-03
1.129865e+02	-2.153945e-03
1.136391e+02	-2.178893e-03
1.142955e+02	-2.204130e-03
1.149556e+02	-2.229659e-03
1.156196e+02	-2.255483e-03
1.162874e+02	-2.281607e-03
1.169591e+02	-2.308033e-03
1.176347e+02	-2.334765e-03
1.183141e+02	-2.361806e-03
1.189975e+02	-2.389161e-03
1.196848e+02	-2.416832e-03
1.203761e+02	-2.444824e-03
1.210714e+02	-2.473140e-03
1.217707e+02	-2.501783e-03
1.224740e+02	-2.530759e-03
1.231814e+02	-2.560070e-03
1.238929e+02	-2.589720e-03
1.246085e+02	-2.619713e-03
1.253283e+02	-2.650054e-03
1.260522e+02	-2.680746e-03
1.267802e+02	-2.711794e-03
1.275125e+02	-2.743201e-03
1.282490e+02	-2.774971e-03
1.289898e+02	-2.807110e-03
1.297348e+02	-2.839620e-03
1.304842e+02	-2.872507e-03
1.312378e+02	-2.905775e-03
1.319959e+02	-2.939427e-03
1.327583e+02	-2.973470e-03
1.335251e+02	-3.007906e-03
1.342963e+02	-3.042741e-03
1.350720e+02	-3.077980e-03
1.358522e+02	-3.113626e-03
1.366368e+02	-3.149685e-03
1.374260e+02	-3.186162e-03
1.382198e+02	-3.223061e-03
1.390182e+02	-3.260387e-03
1.398211e+02	-3.298145e-03
1.406287e+02	-3.336340e-03
1.414410e+02	-3.374977e-03
1.422579e+02	-3.414062e-03
1.430796e+02	-3.453599e-03
1.439060e+02	-3.493593e-03
1.447372e+02	-3.534051e-03
1.455732e+02	-3.574977e-03
1.464141e+02	-3.616377e-03
1.472597e+02	-3.658256e-03
1.481103e+02	-3.700620e-03
1.489658e+02	-3.743474e-03
1.498262e+02	-3.786824e-03
1.506916e+02	-3.830676e-03
1.515620e+02	-3.875036e-03
1.524374e+02	-3.919909e-03
1.533179e+02	-3.965301e-03
1.542034e+02	-4.011219e-03
1.550941e+02	-4.057668e-03
1.559899e+02	-4.104655e-03
1.568909e+02	-4.152186e-03
1.577971e+02	-4.200266e-03
1.587085e+02	-4.248904e-03
1.596252e+02	-4.298104e-03
1.605472e+02	-4.347874e-03
1.614745e+02	-4.398219e-03
1.624072e+02	-4.449148e-03
1.633453e+02	-4.500665e-03
1.642887e+02	-4.552779e-03
1.652377e+02	-4.605497e-03
1.661921e+02	-4.658824e-03
1.671520e+02	-4.712768e-03
1.681175e+02	-4.767337e-03
1.690885e+02	-4.822537e-03
1.700651e+02	-4.878376e-03
1.710474e+02	-4.934861e-03
1.720354e+02	-4.991999e-03
1.730291e+02	-5.049799e-03
1.740285e+02	-5.108268e-03
1.750337e+02	-5.167413e-03
1.760446e+02	-5.227243e-03
1.770615e+02	-5.287765e-03
1.780842e+02	-5.348987e-03
1.791128e+02	-5.410918e-03
1.801473e+02	-5.473565e-03
1.811878e+02	-5.536938e-03
1.822344e+02	-5.601043e-03
1.832870e+02	-5.665890e-03
1.843456e+02	-5.731487e-03
1.854104e+02	-5.797844e-03
1.864813e+02	-5.864968e-03
1.875584e+02	-5.932868e-03
1.886418e+02	-6.001555e-03
1.897313e+02	-6.071035e-03
1.908272e+02	-6.141320e-03
1.919294e+02	-6.212418e-03
1.930380e+02	-6.284338e-03
1.941530e+02	-6.357090e-03
1.952744e+02	-6.430684e-03
1.964023e+02	-6.505129e-03
1.975367e+02	-6.580436e-03
1.986777e+02	-6.656613e-03
1.998252e+02	-6.733672e-03
2.009794e+02	-6.811622e-03
2.021403e+02	-6.890473e-03
2.033078e+02	-6.970237e-03
2.044821e+02	-7.050923e-03
2.056632e+02	-7.132543e-03
2.068511e+02	-7.215106e-03
2.080459e+02	-7.298625e-03
2.092475e+02	-7.383109e-03
2.104561e+02	-7.468570e-03
2.116717e+02	-7.555020e-03
2.128943e+02	-7.642470e-03
2.141240e+02	-7.730931e-03
2.153608e+02	-7.820415e-03
2.166047e+02	-7.910933e-03
2.178558e+02	-8.002499e-03
2.191141e+02	-8.095123e-03
2.203797e+02	-8.188818e-03
2.216526e+02	-8.283597e-03
2.229329e+02	-8.379472e-03
2.242205e+02	-8.476455e-03
2.255156e+02	-8.574560e-03
2.268182e+02	-8.673799e-03
2.281283e+02	-8.774185e-03
2.294459e+02	-8.875732e-03
2.307712e+02	-8.978453e-03
2.321041e+02	-9.082362e-03
2.334447e+02	-9.187472e-03
2.347931e+02	-9.293797e-03
2.361493e+02	-9.401351e-03
2.375133e+02	-9.510148e-03
2.388851e+02	-9.620203e-03
2.402649e+02	-9.731530e-03
2.416527e+02	-9.844144e-03
2.430484e+02	-9.958060e-03
2.444523e+02	-1.007329e-02
2.458642e+02	-1.018986e-02
2.472843e+02	-1.030777e-02
2.487126e+02	-1.042704e-02
2.501492e+02	-1.054770e-02
2.515940e+02	-1.066974e-02
2.530472e+02	-1.079320e-02
2.545088e+02	-1.091808e-02
2.559789e+02	-1.104441e-02
2.574574e+02	-1.117220e-02
2.589444e+02	-1.130146e-02
2.604401e+02	-1.143222e-02
2.619444e+02	-1.156449e-02
2.634574e+02	-1.169829e-02
2.649791e+02	-1.183363e-02
2.665096e+02	-1.197053e-02
2.680489e+02	-1.210902e-02
2.695972e+02	-1.224911e-02
2.711544e+02	-1.239081e-02
2.727205e+02	-1.253416e-02
2.742958e+02	-1.267916e-02
2.758801e+02	-1.282583e-02
2.774736e+02	-1.297420e-02
2.790762e+02	-1.312428e-02
2.806882e+02	-1.327609e-02
2.823094e+02	-1.342966e-02
2.839400e+02	-1.358500e-02
2.855800e+02	-1.374214e-02
2.872295e+02	-1.390109e-02
2.888886e+02	-1.406188e-02
2.905572e+02	-1.422452e-02
2.922354e+02	-1.438904e-02
2.939234e+02	-1.455546e-02
2.956211e+02	-1.472380e-02
2.973286e+02	-1.489409e-02
2.990459e+02	-1.506634e-02
3.007732e+02	-1.524058e-02
3.025104e+02	-1.541683e-02
3.042577e+02	-1.559512e-02
3.060151e+02	-1.577546e-02
3.077826e+02	-1.595789e-02
3.095604e+02	-1.614242e-02
3.113484e+02	-1.632908e-02
3.131467e+02	-1.651789e-02
3.149554e+02	-1.670889e-02
3.167746e+02	-1.690209e-02
3.186043e+02	-1.709752e-02
3.204445e+02	-1.729520e-02
3.222954e+02	-1.749516e-02
3.241570e+02	-1.769744e-02
3.260293e+02	-1.790204e-02
3.279124e+02	-1.810901e-02
3.298064e+02	-1.831836e-02
3.317114e+02	-1.853013e-02
3.336273e+02	-1.874434e-02
3.355544e+02	-1.896102e-02
3.374925e+02	-1.918020e-02
3.394418e+02	-1.940191e-02
3.414024e+02	-1.962618e-02
3.433744e+02	-1.985303e-02
3.453577e+02	-2.008250e-02
3.473525e+02	-2.031462e-02
3.493588e+02	-2.054941e-02
3.513766e+02	-2.078691e-02
3.534062e+02	-2.102714e-02
3.554474e+02	-2.127015e-02
3.575005e+02	-2.151596e-02
3.595654e+02	-2.176460e-02
3.616422e+02	-2.201610e-02
3.637311e+02	-2.227051e-02
3.658320e+02	-2.252785e-02
3.679450e+02	-2.278815e-02
3.700702e+02	-2.305146e-02
3.722077e+02	-2.331779e-02
3.743576e+02	-2.358720e-02
3.765199e+02	-2.385971e-02
3.786946e+02	-2.413536e-02
3.808820e+02	-2.441419e-02
3.830819e+02	-2.469622e-02
3.852946e+02	-2.498151e-02
3.875200e+02	-2.527008e-02
3.897583e+02	-2.556198e-02
3.920096e+02	-2.585724e-02
3.942738e+02	-2.615589e-02
3.965511e+02	-2.645799e-02
3.988416e+02	-2.676357e-02
4.011452e+02	-2.707266e-02
4.034622e+02	-2.738531e-02
4.057926e+02	-2.770156e-02
4.081365e+02	-2.802145e-02
4.104938e+02	-2.834503e-02
4.128648e+02	-2.867232e-02
4.152495e+02	-2.900339e-02
4.176480e+02	-2.933826e-02
4.200603e+02	-2.967699e-02
4.224866e+02	-3.001961e-02
4.249268e+02	-3.036617e-02
4.273812e+02	-3.071673e-02
4.298497e+02	-3.107131e-02
4.323325e+02	-3.142997e-02
4.348297e+02	-3.179276e-02
4.373412e+02	-3.215972e-02
4.398673e+02	-3.253090e-02
4.424079e+02	-3.290635e-02
4.449633e+02	-3.328611e-02
4.475334e+02	-3.367024e-02
4.501183e+02	-3.405878e-02
4.527182e+02	-3.445179e-02
4.553330e+02	-3.484932e-02
4.579630e+02	-3.525142e-02
4.606082e+02	-3.565813e-02
4.632687e+02	-3.606952e-02
4.659445e+02	-3.648563e-02
4.686358e+02	-3.690653e-02
4.713426e+02	-3.733226e-02
4.740650e+02	-3.776288e-02
4.768032e+02	-3.819844e-02
4.795572e+02	-3.863900e-02
4.823271e+02	-3.908463e-02
4.851130e+02	-3.953537e-02
4.879150e+02	-3.999128e-02
4.907332e+02	-4.045243e-02
4.935676e+02	-4.091887e-02
4.964185e+02	-4.139066e-02
4.992858e+02	-4.186786e-02
5.021696e+02	-4.235054e-02
5.050701e+02	-4.283876e-02
5.079874e+02	-4.333257e-02
5.109215e+02	-4.383205e-02
5.138726e+02	-4.433726e-02
5.168407e+02	-4.484826e-02
5.198259e+02	-4.536512e-02
5.228284e+02	-4.588791e-02
5.258482e+02	-4.641668e-02
5.288855e+02	-4.695152e-02
5.319403e+02	-4.749248e-02
5.350128e+02	-4.803965e-02
5.381030e+02	-4.859308e-02
5.412111e+02	-4.915285e-02
5.443371e+02	-4.971904e-02
5.474812e+02	-5.029170e-02
5.506434e+02	-5.087093e-02
5.538239e+02	-5.145678e-02
5.570228e+02	-5.204934e-02
5.602401e+02	-5.264869e-02
5.634760e+02	-5.325489e-02
5.667306e+02	-5.386803e-02
5.700040e+02	-5.448818e-02
5.732964e+02	-5.511543e-02
5.766077e+02	-5.574985e-02
5.799382e+02	-5.639153e-02
5.832879e+02	-5.704055e-02
5.866569e+02	-5.769698e-02
5.900454e+02	-5.836092e-02
5.934535e+02	-5.903244e-02
5.968813e+02	-5.971164e-02
6.003288e+02	-6.039860e-02
6.037963e+02	-6.109341e-02
6.072838e+02	-6.179615e-02
6.107914e+02	-6.250692e-02
6.143194e+02	-6.322580e-02
6.178676e+02	-6.395289e-02
6.214364e+02	-6.468828e-02
6.250258e+02	-6.543206e-02
6.286359e+02	-6.618433e-02
6.322669e+02	-6.694518e-02
6.359189e+02	-6.771470e-02
6.395919e+02	-6.849301e-02
6.432862e+02	-6.928019e-02
6.470017e+02	-7.007634e-02
6.507388e+02	-7.088156e-02
6.544974e+02	-7.169596e-02
6.582778e+02	-7.251964e-02
6.620800e+02	-7.335270e-02
6.659041e+02	-7.419525e-02
6.697504e+02	-7.504740e-02
6.736188e+02	-7.590924e-02
6.775096e+02	-7.678090e-02
6.814229e+02	-7.766247e-02
6.853587e+02	-7.855408e-02
6.893173e+02	-7.945583e-02
6.932988e+02	-8.036783e-02
6.973033e+02	-8.129020e-02
7.013309e+02	-8.222306e-02
