Frequency(Hz)	Magnitude(dB)
1.000000e+01	-2.145677e+00
1.005776e+01	-2.165736e+00
1.011585e+01	-2.185287e+00
1.017428e+01	-2.205045e+00
1.023305e+01	-2.225052e+00
1.029215e+01	-2.245291e+00
1.035160e+01	-2.265526e+00
1.041139e+01	-2.285721e+00
1.047153e+01	-2.306352e+00
1.053201e+01	-2.327071e+00
1.059284e+01	-2.347769e+00
1.065403e+01	-2.368778e+00
1.071556e+01	-2.389961e+00
1.077746e+01	-2.411330e+00
1.083971e+01	-2.432492e+00
1.090232e+01	-2.454213e+00
1.096529e+01	-2.475591e+00
1.102862e+01	-2.497474e+00
1.109232e+01	-2.519576e+00
1.115639e+01	-2.541627e+00
1.122083e+01	-2.563689e+00
1.128564e+01	-2.586387e+00
1.135083e+01	-2.608725e+00
1.141639e+01	-2.631392e+00
1.148233e+01	-2.654442e+00
1.154865e+01	-2.677147e+00
1.161536e+01	-2.700231e+00
1.168245e+01	-2.723536e+00
1.174992e+01	-2.746669e+00
1.181779e+01	-2.770243e+00
1.188605e+01	-2.793996e+00
1.195470e+01	-2.817843e+00
1.202375e+01	-2.841803e+00
1.209320e+01	-2.865953e+00
1.216305e+01	-2.890162e+00
1.223330e+01	-2.914638e+00
1.230396e+01	-2.939203e+00
1.237503e+01	-2.963800e+00
1.244651e+01	-2.988334e+00
1.251840e+01	-3.013594e+00
1.259070e+01	-3.038469e+00
1.266343e+01	-3.064261e+00
1.273657e+01	-3.089229e+00
1.281014e+01	-3.114802e+00
1.288413e+01	-3.140397e+00
1.295855e+01	-3.166180e+00
1.303339e+01	-3.192155e+00
1.310867e+01	-3.218440e+00
1.318439e+01	-3.244737e+00
1.326054e+01	-3.271048e+00
1.333713e+01	-3.297589e+00
1.341417e+01	-3.324156e+00
1.349165e+01	-3.350977e+00
1.356958e+01	-3.378017e+00
1.364795e+01	-3.405015e+00
1.372678e+01	-3.432105e+00
1.380607e+01	-3.459823e+00
1.388581e+01	-3.487562e+00
1.396602e+01	-3.515106e+00
1.404668e+01	-3.542868e+00
1.412782e+01	-3.570941e+00
1.420942e+01	-3.598993e+00
1.429149e+01	-3.627161e+00
1.437404e+01	-3.655903e+00
1.445706e+01	-3.684178e+00
1.454057e+01	-3.712845e+00
1.462455e+01	-3.741533e+00
1.470902e+01	-3.770597e+00
1.479398e+01	-3.799693e+00
1.487943e+01	-3.828832e+00
1.496537e+01	-3.858358e+00
1.505181e+01	-3.887872e+00
1.513875e+01	-3.917553e+00
1.522619e+01	-3.947207e+00
1.531414e+01	-3.977182e+00
1.540259e+01	-4.007224e+00
1.549156e+01	-4.037598e+00
1.558103e+01	-4.067929e+00
1.567103e+01	-4.098214e+00
1.576155e+01	-4.129060e+00
1.585258e+01	-4.159747e+00
1.594415e+01	-4.190362e+00
1.603624e+01	-4.221775e+00
1.612886e+01	-4.252726e+00
1.622202e+01	-4.284073e+00
1.631572e+01	-4.315467e+00
1.640996e+01	-4.347226e+00
1.650474e+01	-4.378695e+00
1.660008e+01	-4.410780e+00
1.669596e+01	-4.442478e+00
1.679239e+01	-4.474887e+00
1.688938e+01	-4.506825e+00
1.698694e+01	-4.539372e+00
1.708505e+01	-4.571787e+00
1.718373e+01	-4.604302e+00
1.728299e+01	-4.637129e+00
1.738281e+01	-4.670104e+00
1.748322e+01	-4.703165e+00
1.758420e+01	-4.736250e+00
1.768576e+01	-4.769614e+00
1.778792e+01	-4.803057e+00
1.789066e+01	-4.836557e+00
1.799399e+01	-4.870404e+00
1.809793e+01	-4.903877e+00
1.820246e+01	-4.937919e+00
1.830760e+01	-4.971881e+00
1.841334e+01	-5.006179e+00
1.851969e+01	-5.040508e+00
1.862666e+01	-5.075011e+00
1.873425e+01	-5.109661e+00
1.884246e+01	-5.144003e+00
1.895129e+01	-5.179101e+00
1.906075e+01	-5.213746e+00
1.917085e+01	-5.248835e+00
1.928158e+01	-5.283835e+00
1.939295e+01	-5.319030e+00
1.950496e+01	-5.354771e+00
1.961762e+01	-5.390047e+00
1.973093e+01	-5.425856e+00
1.984490e+01	-5.461307e+00
1.995952e+01	-5.497261e+00
2.007480e+01	-5.533046e+00
2.019076e+01	-5.569228e+00
2.030738e+01	-5.605365e+00
2.042467e+01	-5.641886e+00
2.054264e+01	-5.678230e+00
2.066130e+01	-5.714546e+00
2.078064e+01	-5.751818e+00
2.090066e+01	-5.788094e+00
2.102139e+01	-5.825294e+00
2.114280e+01	-5.862418e+00
2.126492e+01	-5.899013e+00
2.138775e+01	-5.936780e+00
2.151128e+01	-5.973757e+00
2.163553e+01	-6.011469e+00
2.176050e+01	-6.048949e+00
2.188619e+01	-6.086354e+00
2.201260e+01	-6.124004e+00
2.213974e+01	-6.162169e+00
2.226762e+01	-6.200414e+00
2.239624e+01	-6.238383e+00
2.252560e+01	-6.276385e+00
2.265571e+01	-6.314985e+00
2.278656e+01	-6.352923e+00
2.291818e+01	-6.391458e+00
2.305055e+01	-6.430305e+00
2.318369e+01	-6.468644e+00
2.331760e+01	-6.507243e+00
2.345228e+01	-6.546560e+00
2.358774e+01	-6.585504e+00
2.372398e+01	-6.624522e+00
2.386101e+01	-6.663571e+00
2.399883e+01	-6.702998e+00
2.413745e+01	-6.742150e+00
2.427686e+01	-6.782050e+00
2.441709e+01	-6.821653e+00
2.455812e+01	-6.861115e+00
2.469997e+01	-6.900956e+00
2.484263e+01	-6.940677e+00
2.498612e+01	-6.980913e+00
2.513044e+01	-7.021163e+00
2.527559e+01	-7.060774e+00
2.542158e+01	-7.101013e+00
2.556842e+01	-7.141636e+00
2.571610e+01	-7.181913e+00
2.586463e+01	-7.222361e+00
2.601403e+01	-7.263036e+00
2.616428e+01	-7.303595e+00
2.631541e+01	-7.344179e+00
2.646740e+01	-7.385357e+00
2.662028e+01	-7.426294e+00
2.677404e+01	-7.467172e+00
2.692868e+01	-7.508396e+00
2.708422e+01	-7.549503e+00
2.724066e+01	-7.590963e+00
2.739800e+01	-7.632161e+00
2.755625e+01	-7.673936e+00
2.771541e+01	-7.715316e+00
2.787550e+01	-7.756518e+00
2.803650e+01	-7.798735e+00
2.819844e+01	-7.840298e+00
2.836131e+01	-7.881982e+00
2.852513e+01	-7.924221e+00
2.868989e+01	-7.966061e+00
2.885560e+01	-8.007878e+00
2.902227e+01	-8.049933e+00
2.918990e+01	-8.092498e+00
2.935850e+01	-8.135058e+00
2.952807e+01	-8.177156e+00
2.969863e+01	-8.219553e+00
2.987016e+01	-8.262325e+00
3.004269e+01	-8.304523e+00
3.021622e+01	-8.347506e+00
3.039075e+01	-8.389817e+00
3.056628e+01	-8.433176e+00
3.074283e+01	-8.476014e+00
3.092040e+01	-8.518976e+00
3.109900e+01	-8.561420e+00
3.127862e+01	-8.605036e+00
3.145929e+01	-8.647950e+00
3.164099e+01	-8.691131e+00
3.182375e+01	-8.734210e+00
3.200756e+01	-8.777962e+00
3.219244e+01	-8.821281e+00
3.237838e+01	-8.864796e+00
3.256540e+01	-8.908444e+00
3.275349e+01	-8.951698e+00
3.294268e+01	-8.995650e+00
3.313295e+01	-9.039289e+00
3.332433e+01	-9.083426e+00
3.351681e+01	-9.127339e+00
3.371040e+01	-9.171112e+00
3.390511e+01	-9.214843e+00
3.410094e+01	-9.259079e+00
3.429791e+01	-9.303135e+00
3.449601e+01	-9.347440e+00
3.469526e+01	-9.391590e+00
3.489566e+01	-9.435614e+00
3.509721e+01	-9.480426e+00
3.529993e+01	-9.524575e+00
3.550382e+01	-9.569130e+00
3.570889e+01	-9.614126e+00
3.591515e+01	-9.658565e+00
3.612259e+01	-9.703155e+00
3.633123e+01	-9.747664e+00
3.654108e+01	-9.792372e+00
3.675214e+01	-9.837272e+00
3.696442e+01	-9.882290e+00
3.717792e+01	-9.926694e+00
3.739266e+01	-9.972080e+00
3.760864e+01	-1.001696e+01
3.782587e+01	-1.006250e+01
3.804435e+01	-1.010688e+01
3.826409e+01	-1.015211e+01
3.848510e+01	-1.019730e+01
3.870739e+01	-1.024277e+01
3.893096e+01	-1.028842e+01
3.915583e+01	-1.033396e+01
3.938199e+01	-1.037847e+01
3.960946e+01	-1.042433e+01
3.983824e+01	-1.046968e+01
4.006834e+01	-1.051495e+01
4.029978e+01	-1.056137e+01
4.053255e+01	-1.060705e+01
4.076666e+01	-1.065237e+01
4.100213e+01	-1.069791e+01
4.123896e+01	-1.074367e+01
4.147715e+01	-1.078972e+01
4.171672e+01	-1.083548e+01
4.195767e+01	-1.088209e+01
4.220002e+01	-1.092834e+01
4.244377e+01	-1.097378e+01
4.268892e+01	-1.101910e+01
4.293549e+01	-1.106509e+01
4.318348e+01	-1.111172e+01
4.343291e+01	-1.115737e+01
4.368377e+01	-1.120409e+01
4.393609e+01	-1.125083e+01
4.418986e+01	-1.129712e+01
4.444510e+01	-1.134358e+01
4.470182e+01	-1.139024e+01
4.496001e+01	-1.143532e+01
4.521970e+01	-1.148254e+01
4.548089e+01	-1.152933e+01
4.574358e+01	-1.157559e+01
4.600779e+01	-1.162215e+01
4.627353e+01	-1.166839e+01
4.654081e+01	-1.171506e+01
4.680963e+01	-1.176164e+01
4.708000e+01	-1.180832e+01
4.735193e+01	-1.185459e+01
4.762543e+01	-1.190231e+01
4.790051e+01	-1.194887e+01
4.817719e+01	-1.199546e+01
4.845545e+01	-1.204263e+01
4.873533e+01	-1.208967e+01
4.901682e+01	-1.213661e+01
4.929994e+01	-1.218404e+01
4.958470e+01	-1.223065e+01
4.987110e+01	-1.227709e+01
5.015915e+01	-1.232412e+01
5.044887e+01	-1.237177e+01
5.074026e+01	-1.241846e+01
5.103333e+01	-1.246548e+01
5.132810e+01	-1.251220e+01
5.162457e+01	-1.256065e+01
5.192275e+01	-1.260805e+01
5.222265e+01	-1.265550e+01
5.252429e+01	-1.270205e+01
5.282767e+01	-1.274988e+01
5.313280e+01	-1.279688e+01
5.343969e+01	-1.284463e+01
5.374836e+01	-1.289216e+01
5.405880e+01	-1.293972e+01
5.437105e+01	-1.298735e+01
5.468509e+01	-1.303538e+01
5.500095e+01	-1.308206e+01
5.531863e+01	-1.313012e+01
5.563815e+01	-1.317685e+01
5.595951e+01	-1.322496e+01
5.628273e+01	-1.327152e+01
5.660782e+01	-1.331968e+01
5.693479e+01	-1.336812e+01
5.726364e+01	-1.341615e+01
5.759439e+01	-1.346316e+01
5.792705e+01	-1.351065e+01
5.826164e+01	-1.355920e+01
5.859815e+01	-1.360712e+01
5.893662e+01	-1.365415e+01
5.927703e+01	-1.370272e+01
5.961941e+01	-1.375069e+01
5.996377e+01	-1.379801e+01
6.031012e+01	-1.384629e+01
6.065847e+01	-1.389527e+01
6.100883e+01	-1.394209e+01
6.136121e+01	-1.399108e+01
6.171563e+01	-1.403827e+01
6.207210e+01	-1.408641e+01
6.243063e+01	-1.413504e+01
6.279122e+01	-1.418270e+01
6.315390e+01	-1.423107e+01
6.351868e+01	-1.427865e+01
6.388556e+01	-1.432744e+01
6.425456e+01	-1.437596e+01
6.462569e+01	-1.442360e+01
6.499897e+01	-1.447175e+01
6.537440e+01	-1.452005e+01
6.575200e+01	-1.456783e+01
6.613178e+01	-1.461649e+01
6.651375e+01	-1.466495e+01
6.689793e+01	-1.471351e+01
6.728433e+01	-1.476132e+01
6.767297e+01	-1.480959e+01
6.806384e+01	-1.485736e+01
6.845698e+01	-1.490619e+01
6.885238e+01	-1.495514e+01
6.925007e+01	-1.500308e+01
6.965005e+01	-1.505210e+01
7.005235e+01	-1.510030e+01
7.045697e+01	-1.514865e+01
7.086393e+01	-1.519747e+01
7.127323e+01	-1.524567e+01
7.168490e+01	-1.529428e+01
7.209895e+01	-1.534322e+01
7.251539e+01	-1.539196e+01
7.293424e+01	-1.543994e+01
7.335551e+01	-1.548899e+01
7.377920e+01	-1.553835e+01
7.420535e+01	-1.558543e+01
7.463396e+01	-1.563469e+01
7.506504e+01	-1.568409e+01
7.549861e+01	-1.573184e+01
7.593469e+01	-1.578020e+01
7.637328e+01	-1.582901e+01
7.681441e+01	-1.587780e+01
7.725809e+01	-1.592719e+01
7.770433e+01	-1.597617e+01
7.815315e+01	-1.602482e+01
7.860456e+01	-1.607276e+01
7.905857e+01	-1.612258e+01
7.951521e+01	-1.617062e+01
7.997449e+01	-1.621908e+01
8.043642e+01	-1.626898e+01
8.090102e+01	-1.631740e+01
8.136830e+01	-1.636677e+01
8.183828e+01	-1.641484e+01
8.231097e+01	-1.646477e+01
8.278640e+01	-1.651380e+01
8.326457e+01	-1.656215e+01
8.374550e+01	-1.661185e+01
8.422921e+01	-1.665906e+01
8.471572e+01	-1.670918e+01
8.520503e+01	-1.675821e+01
8.569717e+01	-1.680615e+01
8.619215e+01	-1.685606e+01
8.669000e+01	-1.690466e+01
8.719071e+01	-1.695302e+01
8.769432e+01	-1.700327e+01
8.820084e+01	-1.705116e+01
8.871029e+01	-1.710018e+01
8.922267e+01	-1.715094e+01
8.973802e+01	-1.719809e+01
9.025634e+01	-1.724878e+01
9.077766e+01	-1.729705e+01
9.130199e+01	-1.734629e+01
9.182935e+01	-1.739549e+01
9.235975e+01	-1.744440e+01
9.289321e+01	-1.749491e+01
9.342976e+01	-1.754279e+01
9.396941e+01	-1.759251e+01
9.451217e+01	-1.764215e+01
9.505807e+01	-1.769021e+01
9.560712e+01	-1.773914e+01
9.615934e+01	-1.778803e+01
9.671476e+01	-1.783715e+01
9.727338e+01	-1.788657e+01
9.783522e+01	-1.793706e+01
9.840032e+01	-1.798563e+01
9.896867e+01	-1.803510e+01
9.954031e+01	-1.808310e+01
1.001153e+02	-1.813437e+01
1.006935e+02	-1.818328e+01
1.012751e+02	-1.823124e+01
1.018601e+02	-1.828217e+01
1.024484e+02	-1.832954e+01
1.030402e+02	-1.837844e+01
1.036353e+02	-1.842949e+01
1.042339e+02	-1.847917e+01
1.048360e+02	-1.852769e+01
1.054415e+02	-1.857788e+01
1.060505e+02	-1.862631e+01
1.066631e+02	-1.867549e+01
1.072791e+02	-1.872517e+01
1.078988e+02	-1.877458e+01
1.085220e+02	-1.882416e+01
1.091488e+02	-1.887343e+01
1.097793e+02	-1.892363e+01
1.104133e+02	-1.897064e+01
1.110511e+02	-1.901993e+01
1.116925e+02	-1.907037e+01
1.123376e+02	-1.912046e+01
1.129865e+02	-1.916986e+01
1.136391e+02	-1.922006e+01
1.142955e+02	-1.926753e+01
1.149556e+02	-1.931813e+01
1.156196e+02	-1.936733e+01
1.162874e+02	-1.941559e+01
1.169591e+02	-1.946612e+01
1.176347e+02	-1.951550e+01
1.183141e+02	-1.956494e+01
1.189975e+02	-1.961459e+01
1.196848e+02	-1.966359e+01
1.203761e+02	-1.971456e+01
1.210714e+02	-1.976161e+01
1.217707e+02	-1.981305e+01
1.224740e+02	-1.986208e+01
1.231814e+02	-1.991156e+01
1.238929e+02	-1.996014e+01
1.246085e+02	-2.001205e+01
1.253283e+02	-2.006165e+01
1.260522e+02	-2.010922e+01
1.267802e+02	-2.015973e+01
1.275125e+02	-2.020881e+01
1.282490e+02	-2.025712e+01
1.289898e+02	-2.030926e+01
1.297348e+02	-2.035588e+01
1.304842e+02	-2.040810e+01
1.312378e+02	-2.045561e+01
1.319959e+02	-2.050703e+01
1.327583e+02	-2.055761e+01
1.335251e+02	-2.060573e+01
1.342963e+02	-2.065458e+01
1.350720e+02	-2.070477e+01
1.358522e+02	-2.075364e+01
1.366368e+02	-2.080429e+01
1.374260e+02	-2.085553e+01
1.382198e+02	-2.090427e+01
1.390182e+02	-2.095332e+01
1.398211e+02	-2.100351e+01
1.406287e+02	-2.105132e+01
1.414410e+02	-2.110207e+01
1.422579e+02	-2.115067e+01
1.430796e+02	-2.120268e+01
1.439060e+02	-2.125011e+01
1.447372e+02	-2.130212e+01
1.455732e+02	-2.135111e+01
1.464141e+02	-2.140107e+01
1.472597e+02	-2.144855e+01
1.481103e+02	-2.149978e+01
1.489658e+02	-2.154797e+01
1.498262e+02	-2.159935e+01
1.506916e+02	-2.164849e+01
1.515620e+02	-2.169814e+01
1.524374e+02	-2.174795e+01
1.533179e+02	-2.179743e+01
1.542034e+02	-2.184676e+01
1.550941e+02	-2.189636e+01
1.559899e+02	-2.194499e+01
1.568909e+02	-2.199595e+01
1.577971e+02	-2.204609e+01
1.587085e+02	-2.209645e+01
1.596252e+02	-2.214531e+01
1.605472e+02	-2.219571e+01
1.614745e+02	-2.224481e+01
1.624072e+02	-2.229403e+01
1.633453e+02	-2.234494e+01
1.642887e+02	-2.239104e+01
1.652377e+02	-2.244657e+01
1.661921e+02	-2.249089e+01
1.671520e+02	-2.254415e+01
1.681175e+02	-2.259305e+01
1.690885e+02	-2.264205e+01
1.700651e+02	-2.269387e+01
1.710474e+02	-2.274182e+01
1.720354e+02	-2.279157e+01
1.730291e+02	-2.284147e+01
1.740285e+02	-2.289209e+01
1.750337e+02	-2.294321e+01
1.760446e+02	-2.299120e+01
1.770615e+02	-2.304105e+01
1.780842e+02	-2.309108e+01
1.791128e+02	-2.314040e+01
1.801473e+02	-2.319081e+01
1.811878e+02	-2.324134e+01
1.822344e+02	-2.329135e+01
1.832870e+02	-2.334038e+01
1.843456e+02	-2.338745e+01
1.854104e+02	-2.344172e+01
1.864813e+02	-2.348777e+01
1.875584e+02	-2.353803e+01
1.886418e+02	-2.358994e+01
1.897313e+02	-2.363924e+01
1.908272e+02	-2.368803e+01
1.919294e+02	-2.373829e+01
1.930380e+02	-2.378774e+01
1.941530e+02	-2.383909e+01
1.952744e+02	-2.388977e+01
1.964023e+02	-2.393778e+01
1.975367e+02	-2.398874e+01
1.986777e+02	-2.403604e+01
1.998252e+02	-2.408822e+01
2.009794e+02	-2.414162e+01
2.021403e+02	-2.419050e+01
2.033078e+02	-2.423720e+01
2.044821e+02	-2.428501e+01
2.056632e+02	-2.433478e+01
2.068511e+02	-2.438368e+01
2.080459e+02	-2.443589e+01
2.092475e+02	-2.448680e+01
2.104561e+02	-2.453732e+01
2.116717e+02	-2.458693e+01
2.128943e+02	-2.463651e+01
2.141240e+02	-2.468495e+01
2.153608e+02	-2.473678e+01
2.166047e+02	-2.478532e+01
2.178558e+02	-2.483711e+01
2.191141e+02	-2.488405e+01
2.203797e+02	-2.493581e+01
2.216526e+02	-2.498435e+01
2.229329e+02	-2.503613e+01
2.242205e+02	-2.508585e+01
2.255156e+02	-2.513587e+01
2.268182e+02	-2.518360e+01
2.281283e+02	-2.523365e+01
2.294459e+02	-2.528537e+01
2.307712e+02	-2.533560e+01
2.321041e+02	-2.538423e+01
2.334447e+02	-2.543563e+01
2.347931e+02	-2.548469e+01
2.361493e+02	-2.553710e+01
2.375133e+02	-2.558517e+01
2.388851e+02	-2.563688e+01
2.402649e+02	-2.568466e+01
2.416527e+02	-2.573245e+01
2.430484e+02	-2.578153e+01
2.444523e+02	-2.583256e+01
2.458642e+02	-2.588501e+01
2.472843e+02	-2.593520e+01
2.487126e+02	-2.598658e+01
2.501492e+02	-2.603469e+01
2.515940e+02	-2.608765e+01
2.530472e+02	-2.613504e+01
2.545088e+02	-2.618696e+01
2.559789e+02	-2.623761e+01
2.574574e+02	-2.628333e+01
2.589444e+02	-2.633336e+01
2.604401e+02	-2.638315e+01
2.619444e+02	-2.643513e+01
2.634574e+02	-2.648240e+01
2.649791e+02	-2.653009e+01
2.665096e+02	-2.658084e+01
2.680489e+02	-2.663208e+01
2.695972e+02	-2.668299e+01
2.711544e+02	-2.673086e+01
2.727205e+02	-2.678539e+01
2.742958e+02	-2.683622e+01
2.758801e+02	-2.687898e+01
2.774736e+02	-2.693386e+01
2.790762e+02	-2.698122e+01
2.806882e+02	-2.703463e+01
2.823094e+02	-2.708685e+01
2.839400e+02	-2.713439e+01
2.855800e+02	-2.718501e+01
2.872295e+02	-2.723217e+01
2.888886e+02	-2.728543e+01
2.905572e+02	-2.733041e+01
2.922354e+02	-2.737998e+01
2.939234e+02	-2.742986e+01
2.956211e+02	-2.748114e+01
2.973286e+02	-2.753620e+01
2.990459e+02	-2.758431e+01
3.007732e+02	-2.763173e+01
3.025104e+02	-2.768372e+01
3.042577e+02	-2.773191e+01
3.060151e+02	-2.777864e+01
3.077826e+02	-2.783622e+01
3.095604e+02	-2.788728e+01
3.113484e+02	-2.793479e+01
3.131467e+02	-2.798769e+01
3.149554e+02	-2.803157e+01
3.167746e+02	-2.808195e+01
3.186043e+02	-2.813624e+01
3.204445e+02	-2.818364e+01
3.222954e+02	-2.823779e+01
3.241570e+02	-2.828157e+01
3.260293e+02	-2.833164e+01
3.279124e+02	-2.837842e+01
3.298064e+02	-2.843123e+01
3.317114e+02	-2.848369e+01
3.336273e+02	-2.853710e+01
3.355544e+02	-2.858431e+01
3.374925e+02	-2.863534e+01
3.394418e+02	-2.868316e+01
3.414024e+02	-2.873374e+01
3.433744e+02	-2.878833e+01
3.453577e+02	-2.883076e+01
3.473525e+02	-2.888455e+01
3.493588e+02	-2.892950e+01
3.513766e+02	-2.898591e+01
3.534062e+02	-2.903360e+01
3.554474e+02	-2.908670e+01
3.575005e+02	-2.913139e+01
3.595654e+02	-2.918386e+01
3.616422e+02	-2.923146e+01
3.637311e+02	-2.928774e+01
3.658320e+02	-2.933552e+01
3.679450e+02	-2.938896e+01
3.700702e+02	-2.943582e+01
3.722077e+02	-2.948319e+01
3.743576e+02	-2.953504e+01
3.765199e+02	-2.958693e+01
3.786946e+02	-2.963373e+01
3.808820e+02	-2.968348e+01
3.830819e+02	-2.973844e+01
3.852946e+02	-2.978463e+01
3.875200e+02	-2.983735e+01
3.897583e+02	-2.988674e+01
3.920096e+02	-2.993404e+01
3.942738e+02	-2.998611e+01
3.965511e+02	-3.003731e+01
3.988416e+02	-3.008833e+01
4.011452e+02	-3.013653e+01
4.034622e+02	-3.018859e+01
4.057926e+02	-3.023480e+01
4.081365e+02	-3.028910e+01
4.104938e+02	-3.033512e+01
4.128648e+02	-3.038786e+01
4.152495e+02	-3.043899e+01
4.176480e+02	-3.048590e+01
4.200603e+02	-3.053955e+01
4.224866e+02	-3.058454e+01
4.249268e+02	-3.063807e+01
4.273812e+02	-3.068861e+01
4.298497e+02	-3.073862e+01
4.323325e+02	-3.078747e+01
4.348297e+02	-3.083865e+01
4.373412e+02	-3.088795e+01
4.398673e+02	-3.093548e+01
4.424079e+02	-3.099175e+01
4.449633e+02	-3.103480e+01
4.475334e+02	-3.108809e+01
4.501183e+02	-3.114016e+01
4.527182e+02	-3.118781e+01
4.553330e+02	-3.123617e+01
4.579630e+02	-3.129135e+01
4.606082e+02	-3.134129e+01
4.632687e+02	-3.138369e+01
4.659445e+02	-3.143737e+01
4.686358e+02	-3.148944e+01
4.713426e+02	-3.153942e+01
4.740650e+02	-3.158228e+01
4.768032e+02	-3.163690e+01
4.795572e+02	-3.169003e+01
4.823271e+02	-3.173857e+01
4.851130e+02	-3.178690e+01
4.879150e+02	-3.183577e+01
4.907332e+02	-3.188946e+01
4.935676e+02	-3.193475e+01
4.964185e+02	-3.198354e+01
4.992858e+02	-3.204148e+01
5.021696e+02	-3.209432e+01
5.050701e+02	-3.214059e+01
5.079874e+02	-3.219426e+01
5.109215e+02	-3.224113e+01
5.138726e+02	-3.229110e+01
5.168407e+02	-3.234452e+01
5.198259e+02	-3.239514e+01
5.228284e+02	-3.244186e+01
5.258482e+02	-3.248948e+01
5.288855e+02	-3.253867e+01
5.319403e+02	-3.258601e+01
5.350128e+02	-3.264201e+01
5.381030e+02	-3.269280e+01
5.412111e+02	-3.273873e+01
5.443371e+02	-3.279133e+01
5.474812e+02	-3.284297e+01
5.506434e+02	-3.289326e+01
5.538239e+02	-3.294062e+01
5.570228e+02	-3.299373e+01
5.602401e+02	-3.304603e+01
5.634760e+02	-3.309603e+01
5.667306e+02	-3.314812e+01
5.700040e+02	-3.319410e+01
5.732964e+02	-3.324781e+01
5.766077e+02	-3.329484e+01
5.799382e+02	-3.334250e+01
5.832879e+02	-3.340022e+01
5.866569e+02	-3.345128e+01
5.900454e+02	-3.350030e+01
5.934535e+02	-3.353793e+01
5.968813e+02	-3.359415e+01
6.003288e+02	-3.364999e+01
6.037963e+02	-3.369631e+01
6.072838e+02	-3.374961e+01
6.107914e+02	-3.380510e+01
6.143194e+02	-3.385517e+01
6.178676e+02	-3.390560e+01
6.214364e+02	-3.394397e+01
6.250258e+02	-3.399350e+01
6.286359e+02	-3.405277e+01
6.322669e+02	-3.410442e+01
6.359189e+02	-3.415606e+01
6.395919e+02	-3.420064e+01
6.432862e+02	-3.424391e+01
6.470017e+02	-3.429707e+01
6.507388e+02	-3.435538e+01
6.544974e+02	-3.439926e+01
6.582778e+02	-3.444867e+01
6.620800e+02	-3.450483e+01
6.659041e+02	-3.456082e+01
6.697504e+02	-3.460010e+01
6.736188e+02	-3.465612e+01
6.775096e+02	-3.470155e+01
6.814229e+02	-3.475560e+01
6.853587e+02	-3.481135e+01
6.893173e+02	-3.484804e+01
6.932988e+02	-3.491054e+01
6.973033e+02	-3.495649e+01
7.013309e+02	-3.500774e+01
