Frequency(Hz)	Magnitude(dB)
1.000000e+01	-2.115749e+00
1.005776e+01	-2.135335e+00
1.011585e+01	-2.154827e+00
1.017428e+01	-2.174225e+00
1.023305e+01	-2.193916e+00
1.029215e+01	-2.213849e+00
1.035160e+01	-2.233929e+00
1.041139e+01	-2.254363e+00
1.047153e+01	-2.274799e+00
1.053201e+01	-2.295044e+00
1.059284e+01	-2.315580e+00
1.065403e+01	-2.336334e+00
1.071556e+01	-2.357271e+00
1.077746e+01	-2.378322e+00
1.083971e+01	-2.399480e+00
1.090232e+01	-2.420591e+00
1.096529e+01	-2.442214e+00
1.102862e+01	-2.463633e+00
1.109232e+01	-2.485522e+00
1.115639e+01	-2.507398e+00
1.122083e+01	-2.529381e+00
1.128564e+01	-2.551331e+00
1.135083e+01	-2.573776e+00
1.141639e+01	-2.596142e+00
1.148233e+01	-2.618861e+00
1.154865e+01	-2.641713e+00
1.161536e+01	-2.664452e+00
1.168245e+01	-2.687480e+00
1.174992e+01	-2.710665e+00
1.181779e+01	-2.733842e+00
1.188605e+01	-2.757129e+00
1.195470e+01	-2.780965e+00
1.202375e+01	-2.804777e+00
1.209320e+01	-2.828367e+00
1.216305e+01	-2.852484e+00
1.223330e+01	-2.876822e+00
1.230396e+01	-2.900891e+00
1.237503e+01	-2.925451e+00
1.244651e+01	-2.950102e+00
1.251840e+01	-2.974744e+00
1.259070e+01	-2.999602e+00
1.266343e+01	-3.024738e+00
1.273657e+01	-3.049990e+00
1.281014e+01	-3.075244e+00
1.288413e+01	-3.100586e+00
1.295855e+01	-3.126472e+00
1.303339e+01	-3.151811e+00
1.310867e+01	-3.177926e+00
1.318439e+01	-3.203878e+00
1.326054e+01	-3.230119e+00
1.333713e+01	-3.256384e+00
1.341417e+01	-3.283032e+00
1.349165e+01	-3.309561e+00
1.356958e+01	-3.336132e+00
1.364795e+01	-3.363054e+00
1.372678e+01	-3.390342e+00
1.380607e+01	-3.417210e+00
1.388581e+01	-3.444580e+00
1.396602e+01	-3.472087e+00
1.404668e+01	-3.499557e+00
1.412782e+01	-3.527553e+00
1.420942e+01	-3.555242e+00
1.429149e+01	-3.583298e+00
1.437404e+01	-3.611423e+00
1.445706e+01	-3.640083e+00
1.454057e+01	-3.668078e+00
1.462455e+01	-3.696744e+00
1.470902e+01	-3.725611e+00
1.479398e+01	-3.754613e+00
1.487943e+01	-3.783509e+00
1.496537e+01	-3.812906e+00
1.505181e+01	-3.842187e+00
1.513875e+01	-3.871461e+00
1.522619e+01	-3.901049e+00
1.531414e+01	-3.930966e+00
1.540259e+01	-3.960766e+00
1.549156e+01	-3.990555e+00
1.558103e+01	-4.020577e+00
1.567103e+01	-4.051101e+00
1.576155e+01	-4.081210e+00
1.585258e+01	-4.112030e+00
1.594415e+01	-4.142628e+00
1.603624e+01	-4.173566e+00
1.612886e+01	-4.204740e+00
1.622202e+01	-4.235477e+00
1.631572e+01	-4.266895e+00
1.640996e+01	-4.298083e+00
1.650474e+01	-4.329634e+00
1.660008e+01	-4.361349e+00
1.669596e+01	-4.393112e+00
1.679239e+01	-4.424934e+00
1.688938e+01	-4.457001e+00
1.698694e+01	-4.489158e+00
1.708505e+01	-4.521515e+00
1.718373e+01	-4.554097e+00
1.728299e+01	-4.586383e+00
1.738281e+01	-4.619267e+00
1.748322e+01	-4.652007e+00
1.758420e+01	-4.685017e+00
1.768576e+01	-4.717820e+00
1.778792e+01	-4.751288e+00
1.789066e+01	-4.784471e+00
1.799399e+01	-4.818132e+00
1.809793e+01	-4.851328e+00
1.820246e+01	-4.885343e+00
1.830760e+01	-4.918997e+00
1.841334e+01	-4.952983e+00
1.851969e+01	-4.987264e+00
1.862666e+01	-5.021302e+00
1.873425e+01	-5.055681e+00
1.884246e+01	-5.090095e+00
1.895129e+01	-5.124863e+00
1.906075e+01	-5.159381e+00
1.917085e+01	-5.194565e+00
1.928158e+01	-5.229388e+00
1.939295e+01	-5.264479e+00
1.950496e+01	-5.299432e+00
1.961762e+01	-5.334780e+00
1.973093e+01	-5.370415e+00
1.984490e+01	-5.406118e+00
1.995952e+01	-5.441810e+00
2.007480e+01	-5.477198e+00
2.019076e+01	-5.513171e+00
2.030738e+01	-5.549274e+00
2.042467e+01	-5.585669e+00
2.054264e+01	-5.621807e+00
2.066130e+01	-5.657948e+00
2.078064e+01	-5.694806e+00
2.090066e+01	-5.731295e+00
2.102139e+01	-5.767807e+00
2.114280e+01	-5.804836e+00
2.126492e+01	-5.841351e+00
2.138775e+01	-5.878550e+00
2.151128e+01	-5.915790e+00
2.163553e+01	-5.953312e+00
2.176050e+01	-5.990747e+00
2.188619e+01	-6.027959e+00
2.201260e+01	-6.065611e+00
2.213974e+01	-6.103292e+00
2.226762e+01	-6.141452e+00
2.239624e+01	-6.179228e+00
2.252560e+01	-6.216675e+00
2.265571e+01	-6.255178e+00
2.278656e+01	-6.293377e+00
2.291818e+01	-6.331567e+00
2.305055e+01	-6.370308e+00
2.318369e+01	-6.408402e+00
2.331760e+01	-6.447056e+00
2.345228e+01	-6.486033e+00
2.358774e+01	-6.525238e+00
2.372398e+01	-6.564105e+00
2.386101e+01	-6.603040e+00
2.399883e+01	-6.642076e+00
2.413745e+01	-6.681244e+00
2.427686e+01	-6.720906e+00
2.441709e+01	-6.759986e+00
2.455812e+01	-6.799779e+00
2.469997e+01	-6.838958e+00
2.484263e+01	-6.878825e+00
2.498612e+01	-6.918798e+00
2.513044e+01	-6.958588e+00
2.527559e+01	-6.998390e+00
2.542158e+01	-7.038681e+00
2.556842e+01	-7.078695e+00
2.571610e+01	-7.119262e+00
2.586463e+01	-7.159528e+00
2.601403e+01	-7.199710e+00
2.616428e+01	-7.240730e+00
2.631541e+01	-7.281353e+00
2.646740e+01	-7.321805e+00
2.662028e+01	-7.363153e+00
2.677404e+01	-7.403727e+00
2.692868e+01	-7.444425e+00
2.708422e+01	-7.485718e+00
2.724066e+01	-7.526395e+00
2.739800e+01	-7.567863e+00
2.755625e+01	-7.609272e+00
2.771541e+01	-7.650748e+00
2.787550e+01	-7.692055e+00
2.803650e+01	-7.733983e+00
2.819844e+01	-7.775193e+00
2.836131e+01	-7.816743e+00
2.852513e+01	-7.858629e+00
2.868989e+01	-7.900882e+00
2.885560e+01	-7.943090e+00
2.902227e+01	-7.984300e+00
2.918990e+01	-8.026846e+00
2.935850e+01	-8.068923e+00
2.952807e+01	-8.111114e+00
2.969863e+01	-8.154116e+00
2.987016e+01	-8.195715e+00
3.004269e+01	-8.238264e+00
3.021622e+01	-8.281055e+00
3.039075e+01	-8.323402e+00
3.056628e+01	-8.366284e+00
3.074283e+01	-8.409423e+00
3.092040e+01	-8.451692e+00
3.109900e+01	-8.494732e+00
3.127862e+01	-8.537767e+00
3.145929e+01	-8.580971e+00
3.164099e+01	-8.624176e+00
3.182375e+01	-8.667322e+00
3.200756e+01	-8.710339e+00
3.219244e+01	-8.754019e+00
3.237838e+01	-8.797276e+00
3.256540e+01	-8.840638e+00
3.275349e+01	-8.884184e+00
3.294268e+01	-8.927912e+00
3.313295e+01	-8.971241e+00
3.332433e+01	-9.015509e+00
3.351681e+01	-9.059142e+00
3.371040e+01	-9.103388e+00
3.390511e+01	-9.146994e+00
3.410094e+01	-9.190054e+00
3.429791e+01	-9.234631e+00
3.449601e+01	-9.278779e+00
3.469526e+01	-9.322534e+00
3.489566e+01	-9.367324e+00
3.509721e+01	-9.411408e+00
3.529993e+01	-9.455870e+00
3.550382e+01	-9.500116e+00
3.570889e+01	-9.544430e+00
3.591515e+01	-9.589365e+00
3.612259e+01	-9.633580e+00
3.633123e+01	-9.678081e+00
3.654108e+01	-9.722741e+00
3.675214e+01	-9.768027e+00
3.696442e+01	-9.812218e+00
3.717792e+01	-9.857095e+00
3.739266e+01	-9.902034e+00
3.760864e+01	-9.946976e+00
3.782587e+01	-9.992370e+00
3.804435e+01	-1.003742e+01
3.826409e+01	-1.008210e+01
3.848510e+01	-1.012707e+01
3.870739e+01	-1.017246e+01
3.893096e+01	-1.021756e+01
3.915583e+01	-1.026309e+01
3.938199e+01	-1.030819e+01
3.960946e+01	-1.035395e+01
3.983824e+01	-1.039969e+01
4.006834e+01	-1.044405e+01
4.029978e+01	-1.048995e+01
4.053255e+01	-1.053577e+01
4.076666e+01	-1.058157e+01
4.100213e+01	-1.062673e+01
4.123896e+01	-1.067245e+01
4.147715e+01	-1.071878e+01
4.171672e+01	-1.076422e+01
4.195767e+01	-1.081083e+01
4.220002e+01	-1.085682e+01
4.244377e+01	-1.090198e+01
4.268892e+01	-1.094791e+01
4.293549e+01	-1.099457e+01
4.318348e+01	-1.104012e+01
4.343291e+01	-1.108584e+01
4.368377e+01	-1.113246e+01
4.393609e+01	-1.117842e+01
4.418986e+01	-1.122442e+01
4.444510e+01	-1.127103e+01
4.470182e+01	-1.131748e+01
4.496001e+01	-1.136375e+01
4.521970e+01	-1.141052e+01
4.548089e+01	-1.145694e+01
4.574358e+01	-1.150339e+01
4.600779e+01	-1.154995e+01
4.627353e+01	-1.159592e+01
4.654081e+01	-1.164255e+01
4.680963e+01	-1.168959e+01
4.708000e+01	-1.173561e+01
4.735193e+01	-1.178264e+01
4.762543e+01	-1.182925e+01
4.790051e+01	-1.187651e+01
4.817719e+01	-1.192294e+01
4.845545e+01	-1.196936e+01
4.873533e+01	-1.201680e+01
4.901682e+01	-1.206346e+01
4.929994e+01	-1.211031e+01
4.958470e+01	-1.215739e+01
4.987110e+01	-1.220417e+01
5.015915e+01	-1.225142e+01
5.044887e+01	-1.229852e+01
5.074026e+01	-1.234562e+01
5.103333e+01	-1.239322e+01
5.132810e+01	-1.244008e+01
5.162457e+01	-1.248665e+01
5.192275e+01	-1.253517e+01
5.222265e+01	-1.258131e+01
5.252429e+01	-1.262919e+01
5.282767e+01	-1.267630e+01
5.313280e+01	-1.272344e+01
5.343969e+01	-1.277155e+01
5.374836e+01	-1.281837e+01
5.405880e+01	-1.286634e+01
5.437105e+01	-1.291335e+01
5.468509e+01	-1.296033e+01
5.500095e+01	-1.300778e+01
5.531863e+01	-1.305629e+01
5.563815e+01	-1.310356e+01
5.595951e+01	-1.315118e+01
5.628273e+01	-1.319842e+01
5.660782e+01	-1.324596e+01
5.693479e+01	-1.329411e+01
5.726364e+01	-1.334155e+01
5.759439e+01	-1.338969e+01
5.792705e+01	-1.343672e+01
5.826164e+01	-1.348454e+01
5.859815e+01	-1.353289e+01
5.893662e+01	-1.358084e+01
5.927703e+01	-1.362826e+01
5.961941e+01	-1.367542e+01
5.996377e+01	-1.372372e+01
6.031012e+01	-1.377257e+01
6.065847e+01	-1.382055e+01
6.100883e+01	-1.386773e+01
6.136121e+01	-1.391554e+01
6.171563e+01	-1.396414e+01
6.207210e+01	-1.401263e+01
6.243063e+01	-1.406007e+01
6.279122e+01	-1.410748e+01
6.315390e+01	-1.415604e+01
6.351868e+01	-1.420442e+01
6.388556e+01	-1.425207e+01
6.425456e+01	-1.430112e+01
6.462569e+01	-1.434866e+01
6.499897e+01	-1.439708e+01
6.537440e+01	-1.444466e+01
6.575200e+01	-1.449333e+01
6.613178e+01	-1.454155e+01
6.651375e+01	-1.458993e+01
6.689793e+01	-1.463843e+01
6.728433e+01	-1.468650e+01
6.767297e+01	-1.473434e+01
6.806384e+01	-1.478299e+01
6.845698e+01	-1.483131e+01
6.885238e+01	-1.488033e+01
6.925007e+01	-1.492830e+01
6.965005e+01	-1.497736e+01
7.005235e+01	-1.502526e+01
7.045697e+01	-1.507419e+01
7.086393e+01	-1.512210e+01
7.127323e+01	-1.517034e+01
7.168490e+01	-1.521926e+01
7.209895e+01	-1.526828e+01
7.251539e+01	-1.531648e+01
7.293424e+01	-1.536426e+01
7.335551e+01	-1.541348e+01
7.377920e+01	-1.546177e+01
7.420535e+01	-1.551105e+01
7.463396e+01	-1.555846e+01
7.506504e+01	-1.560874e+01
7.549861e+01	-1.565724e+01
7.593469e+01	-1.570532e+01
7.637328e+01	-1.575378e+01
7.681441e+01	-1.580306e+01
7.725809e+01	-1.585195e+01
7.770433e+01	-1.590024e+01
7.815315e+01	-1.594842e+01
7.860456e+01	-1.599760e+01
7.905857e+01	-1.604662e+01
7.951521e+01	-1.609463e+01
7.997449e+01	-1.614435e+01
8.043642e+01	-1.619323e+01
8.090102e+01	-1.624095e+01
8.136830e+01	-1.629056e+01
8.183828e+01	-1.633924e+01
8.231097e+01	-1.638751e+01
8.278640e+01	-1.643676e+01
8.326457e+01	-1.648600e+01
8.374550e+01	-1.653474e+01
8.422921e+01	-1.658325e+01
8.471572e+01	-1.663329e+01
8.520503e+01	-1.668113e+01
8.569717e+01	-1.672965e+01
8.619215e+01	-1.677895e+01
8.669000e+01	-1.682870e+01
8.719071e+01	-1.687823e+01
8.769432e+01	-1.692735e+01
8.820084e+01	-1.697508e+01
8.871029e+01	-1.702561e+01
8.922267e+01	-1.707475e+01
8.973802e+01	-1.712293e+01
9.025634e+01	-1.717164e+01
9.077766e+01	-1.722192e+01
9.130199e+01	-1.727089e+01
9.182935e+01	-1.731849e+01
9.235975e+01	-1.736837e+01
9.289321e+01	-1.741851e+01
9.342976e+01	-1.746492e+01
9.396941e+01	-1.751561e+01
9.451217e+01	-1.756541e+01
9.505807e+01	-1.761323e+01
9.560712e+01	-1.766325e+01
9.615934e+01	-1.771236e+01
9.671476e+01	-1.776086e+01
9.727338e+01	-1.781120e+01
9.783522e+01	-1.786064e+01
9.840032e+01	-1.790964e+01
9.896867e+01	-1.795929e+01
9.954031e+01	-1.800866e+01
1.001153e+02	-1.805648e+01
1.006935e+02	-1.810660e+01
1.012751e+02	-1.815583e+01
1.018601e+02	-1.820510e+01
1.024484e+02	-1.825477e+01
1.030402e+02	-1.830256e+01
1.036353e+02	-1.835302e+01
1.042339e+02	-1.840246e+01
1.048360e+02	-1.845182e+01
1.054415e+02	-1.850130e+01
1.060505e+02	-1.854853e+01
1.066631e+02	-1.859889e+01
1.072791e+02	-1.864752e+01
1.078988e+02	-1.869756e+01
1.085220e+02	-1.874702e+01
1.091488e+02	-1.879674e+01
1.097793e+02	-1.884601e+01
1.104133e+02	-1.889454e+01
1.110511e+02	-1.894433e+01
1.116925e+02	-1.899178e+01
1.123376e+02	-1.904356e+01
1.129865e+02	-1.909218e+01
1.136391e+02	-1.914226e+01
1.142955e+02	-1.919099e+01
1.149556e+02	-1.924020e+01
1.156196e+02	-1.929100e+01
1.162874e+02	-1.934065e+01
1.169591e+02	-1.938894e+01
1.176347e+02	-1.943972e+01
1.183141e+02	-1.948746e+01
1.189975e+02	-1.953893e+01
1.196848e+02	-1.958699e+01
1.203761e+02	-1.963705e+01
1.210714e+02	-1.968604e+01
1.217707e+02	-1.973626e+01
1.224740e+02	-1.978513e+01
1.231814e+02	-1.983639e+01
1.238929e+02	-1.988425e+01
1.246085e+02	-1.993411e+01
1.253283e+02	-1.998266e+01
1.260522e+02	-2.003159e+01
1.267802e+02	-2.008279e+01
1.275125e+02	-2.013258e+01
1.282490e+02	-2.018152e+01
1.289898e+02	-2.023206e+01
1.297348e+02	-2.028078e+01
1.304842e+02	-2.033139e+01
1.312378e+02	-2.038063e+01
1.319959e+02	-2.042870e+01
1.327583e+02	-2.047781e+01
1.335251e+02	-2.052898e+01
1.342963e+02	-2.057863e+01
1.350720e+02	-2.062850e+01
1.358522e+02	-2.067749e+01
1.366368e+02	-2.072604e+01
1.374260e+02	-2.077792e+01
1.382198e+02	-2.082602e+01
1.390182e+02	-2.087632e+01
1.398211e+02	-2.092571e+01
1.406287e+02	-2.097589e+01
1.414410e+02	-2.102408e+01
1.422579e+02	-2.107526e+01
1.430796e+02	-2.112341e+01
1.439060e+02	-2.117519e+01
1.447372e+02	-2.122340e+01
1.455732e+02	-2.127300e+01
1.464141e+02	-2.132346e+01
1.472597e+02	-2.137214e+01
1.481103e+02	-2.142347e+01
1.489658e+02	-2.147361e+01
1.498262e+02	-2.152110e+01
1.506916e+02	-2.157029e+01
1.515620e+02	-2.162280e+01
1.524374e+02	-2.167371e+01
1.533179e+02	-2.172054e+01
1.542034e+02	-2.176959e+01
1.550941e+02	-2.181955e+01
1.559899e+02	-2.186950e+01
1.568909e+02	-2.192013e+01
1.577971e+02	-2.196959e+01
1.587085e+02	-2.202089e+01
1.596252e+02	-2.206707e+01
1.605472e+02	-2.211978e+01
1.614745e+02	-2.216750e+01
1.624072e+02	-2.221676e+01
1.633453e+02	-2.226784e+01
1.642887e+02	-2.231641e+01
1.652377e+02	-2.236542e+01
1.661921e+02	-2.241726e+01
1.671520e+02	-2.246610e+01
1.681175e+02	-2.251630e+01
1.690885e+02	-2.256609e+01
1.700651e+02	-2.261610e+01
1.710474e+02	-2.266410e+01
1.720354e+02	-2.271533e+01
1.730291e+02	-2.276580e+01
1.740285e+02	-2.281341e+01
1.750337e+02	-2.286378e+01
1.760446e+02	-2.291355e+01
1.770615e+02	-2.296554e+01
1.780842e+02	-2.301338e+01
1.791128e+02	-2.306357e+01
1.801473e+02	-2.311496e+01
1.811878e+02	-2.316365e+01
1.822344e+02	-2.321146e+01
1.832870e+02	-2.326102e+01
1.843456e+02	-2.331104e+01
1.854104e+02	-2.336195e+01
1.864813e+02	-2.341191e+01
1.875584e+02	-2.346345e+01
1.886418e+02	-2.351285e+01
1.897313e+02	-2.356143e+01
1.908272e+02	-2.361456e+01
1.919294e+02	-2.366121e+01
1.930380e+02	-2.371272e+01
1.941530e+02	-2.376040e+01
1.952744e+02	-2.380765e+01
1.964023e+02	-2.386130e+01
1.975367e+02	-2.391209e+01
1.986777e+02	-2.396077e+01
1.998252e+02	-2.401137e+01
2.009794e+02	-2.405930e+01
2.021403e+02	-2.410963e+01
2.033078e+02	-2.415773e+01
2.044821e+02	-2.420802e+01
2.056632e+02	-2.426112e+01
2.068511e+02	-2.431024e+01
2.080459e+02	-2.435773e+01
2.092475e+02	-2.441093e+01
2.104561e+02	-2.445935e+01
2.116717e+02	-2.450956e+01
2.128943e+02	-2.456048e+01
2.141240e+02	-2.460730e+01
2.153608e+02	-2.466071e+01
2.166047e+02	-2.470683e+01
2.178558e+02	-2.476145e+01
2.191141e+02	-2.481051e+01
2.203797e+02	-2.485822e+01
2.216526e+02	-2.490483e+01
2.229329e+02	-2.495884e+01
2.242205e+02	-2.500676e+01
2.255156e+02	-2.506046e+01
2.268182e+02	-2.511022e+01
2.281283e+02	-2.515720e+01
2.294459e+02	-2.520843e+01
2.307712e+02	-2.525931e+01
2.321041e+02	-2.530624e+01
2.334447e+02	-2.535826e+01
2.347931e+02	-2.541036e+01
2.361493e+02	-2.546051e+01
2.375133e+02	-2.550702e+01
2.388851e+02	-2.555687e+01
2.402649e+02	-2.560761e+01
2.416527e+02	-2.565786e+01
2.430484e+02	-2.570791e+01
2.444523e+02	-2.575421e+01
2.458642e+02	-2.580727e+01
2.472843e+02	-2.585536e+01
2.487126e+02	-2.590575e+01
2.501492e+02	-2.595389e+01
2.515940e+02	-2.600552e+01
2.530472e+02	-2.605834e+01
2.545088e+02	-2.610592e+01
2.559789e+02	-2.615503e+01
2.574574e+02	-2.620771e+01
2.589444e+02	-2.625387e+01
2.604401e+02	-2.630584e+01
2.619444e+02	-2.635853e+01
2.634574e+02	-2.640758e+01
2.649791e+02	-2.645695e+01
2.665096e+02	-2.650553e+01
2.680489e+02	-2.655687e+01
2.695972e+02	-2.660728e+01
2.711544e+02	-2.665695e+01
2.727205e+02	-2.670785e+01
2.742958e+02	-2.675471e+01
2.758801e+02	-2.680782e+01
2.774736e+02	-2.685536e+01
2.790762e+02	-2.690570e+01
2.806882e+02	-2.695335e+01
2.823094e+02	-2.700623e+01
2.839400e+02	-2.705938e+01
2.855800e+02	-2.710631e+01
2.872295e+02	-2.715407e+01
2.888886e+02	-2.721068e+01
2.905572e+02	-2.725760e+01
2.922354e+02	-2.730401e+01
2.939234e+02	-2.735815e+01
2.956211e+02	-2.740404e+01
2.973286e+02	-2.745368e+01
2.990459e+02	-2.750654e+01
3.007732e+02	-2.755319e+01
3.025104e+02	-2.760583e+01
3.042577e+02	-2.765393e+01
3.060151e+02	-2.770944e+01
3.077826e+02	-2.775811e+01
3.095604e+02	-2.780608e+01
3.113484e+02	-2.785473e+01
3.131467e+02	-2.790153e+01
3.149554e+02	-2.795768e+01
3.167746e+02	-2.800853e+01
3.186043e+02	-2.805475e+01
3.204445e+02	-2.810805e+01
3.222954e+02	-2.816061e+01
3.241570e+02	-2.821065e+01
3.260293e+02	-2.825752e+01
3.279124e+02	-2.830638e+01
3.298064e+02	-2.835866e+01
3.317114e+02	-2.840648e+01
3.336273e+02	-2.845473e+01
3.355544e+02	-2.851255e+01
3.374925e+02	-2.856143e+01
3.394418e+02	-2.860637e+01
3.414024e+02	-2.866008e+01
3.433744e+02	-2.870814e+01
3.453577e+02	-2.875255e+01
3.473525e+02	-2.880430e+01
3.493588e+02	-2.885742e+01
3.513766e+02	-2.890240e+01
3.534062e+02	-2.895028e+01
3.554474e+02	-2.900653e+01
3.575005e+02	-2.905677e+01
3.595654e+02	-2.910790e+01
3.616422e+02	-2.916448e+01
3.637311e+02	-2.920609e+01
3.658320e+02	-2.925416e+01
3.679450e+02	-2.930157e+01
3.700702e+02	-2.935451e+01
3.722077e+02	-2.940591e+01
3.743576e+02	-2.945782e+01
3.765199e+02	-2.950769e+01
3.786946e+02	-2.955122e+01
3.808820e+02	-2.960759e+01
3.830819e+02	-2.965734e+01
3.852946e+02	-2.970385e+01
3.875200e+02	-2.975973e+01
3.897583e+02	-2.980936e+01
3.920096e+02	-2.985696e+01
3.942738e+02	-2.990635e+01
3.965511e+02	-2.996156e+01
3.988416e+02	-3.000986e+01
4.011452e+02	-3.005849e+01
4.034622e+02	-3.010973e+01
4.057926e+02	-3.015992e+01
4.081365e+02	-3.020901e+01
4.104938e+02	-3.025894e+01
4.128648e+02	-3.030805e+01
4.152495e+02	-3.035733e+01
4.176480e+02	-3.041502e+01
4.200603e+02	-3.045888e+01
4.224866e+02	-3.051077e+01
4.249268e+02	-3.055926e+01
4.273812e+02	-3.061314e+01
4.298497e+02	-3.066453e+01
4.323325e+02	-3.071179e+01
4.348297e+02	-3.076483e+01
4.373412e+02	-3.081793e+01
4.398673e+02	-3.086259e+01
4.424079e+02	-3.090512e+01
4.449633e+02	-3.096341e+01
4.475334e+02	-3.101747e+01
4.501183e+02	-3.106273e+01
4.527182e+02	-3.111002e+01
4.553330e+02	-3.116441e+01
4.579630e+02	-3.121002e+01
4.606082e+02	-3.126491e+01
4.632687e+02	-3.131316e+01
4.659445e+02	-3.136380e+01
4.686358e+02	-3.141364e+01
4.713426e+02	-3.146328e+01
4.740650e+02	-3.151393e+01
4.768032e+02	-3.155456e+01
4.795572e+02	-3.161146e+01
4.823271e+02	-3.165537e+01
4.851130e+02	-3.171345e+01
4.879150e+02	-3.176579e+01
4.907332e+02	-3.181482e+01
4.935676e+02	-3.185439e+01
4.964185e+02	-3.191063e+01
4.992858e+02	-3.195940e+01
5.021696e+02	-3.201141e+01
5.050701e+02	-3.205900e+01
5.079874e+02	-3.211481e+01
5.109215e+02	-3.216632e+01
5.138726e+02	-3.220918e+01
5.168407e+02	-3.226669e+01
5.198259e+02	-3.231701e+01
5.228284e+02	-3.236013e+01
5.258482e+02	-3.241273e+01
5.288855e+02	-3.247198e+01
5.319403e+02	-3.251902e+01
5.350128e+02	-3.256158e+01
5.381030e+02	-3.261774e+01
5.412111e+02	-3.266351e+01
5.443371e+02	-3.271138e+01
5.474812e+02	-3.276631e+01
5.506434e+02	-3.281015e+01
5.538239e+02	-3.287121e+01
5.570228e+02	-3.291569e+01
5.602401e+02	-3.297131e+01
5.634760e+02	-3.302091e+01
5.667306e+02	-3.306568e+01
5.700040e+02	-3.312047e+01
5.732964e+02	-3.317163e+01
5.766077e+02	-3.321838e+01
5.799382e+02	-3.327402e+01
5.832879e+02	-3.331661e+01
5.866569e+02	-3.337200e+01
5.900454e+02	-3.342056e+01
5.934535e+02	-3.346948e+01
5.968813e+02	-3.351469e+01
6.003288e+02	-3.357006e+01
6.037963e+02	-3.362165e+01
6.072838e+02	-3.366888e+01
6.107914e+02	-3.371278e+01
6.143194e+02	-3.376899e+01
6.178676e+02	-3.382650e+01
6.214364e+02	-3.387528e+01
6.250258e+02	-3.392079e+01
6.286359e+02	-3.397352e+01
6.322669e+02	-3.402672e+01
6.359189e+02	-3.407976e+01
6.395919e+02	-3.412116e+01
6.432862e+02	-3.417796e+01
6.470017e+02	-3.422094e+01
6.507388e+02	-3.426961e+01
6.544974e+02	-3.432738e+01
6.582778e+02	-3.437722e+01
6.620800e+02	-3.442771e+01
6.659041e+02	-3.447344e+01
6.697504e+02	-3.453254e+01
6.736188e+02	-3.457318e+01
6.775096e+02	-3.462497e+01
6.814229e+02	-3.468209e+01
6.853587e+02	-3.472756e+01
6.893173e+02	-3.478524e+01
6.932988e+02	-3.482960e+01
6.973033e+02	-3.488055e+01
7.013309e+02	-3.493340e+01
