Frequency(Hz)	Magnitude(dB)
1.000000e+01	-2.210543e+00
1.005776e+01	-2.230533e+00
1.011585e+01	-2.250566e+00
1.017428e+01	-2.270989e+00
1.023305e+01	-2.291282e+00
1.029215e+01	-2.312073e+00
1.035160e+01	-2.332634e+00
1.041139e+01	-2.353355e+00
1.047153e+01	-2.374373e+00
1.053201e+01	-2.395764e+00
1.059284e+01	-2.416966e+00
1.065403e+01	-2.438344e+00
1.071556e+01	-2.459861e+00
1.077746e+01	-2.481524e+00
1.083971e+01	-2.503637e+00
1.090232e+01	-2.525574e+00
1.096529e+01	-2.547533e+00
1.102862e+01	-2.570230e+00
1.109232e+01	-2.592448e+00
1.115639e+01	-2.614654e+00
1.122083e+01	-2.637582e+00
1.128564e+01	-2.660456e+00
1.135083e+01	-2.683397e+00
1.141639e+01	-2.706604e+00
1.148233e+01	-2.730003e+00
1.154865e+01	-2.753254e+00
1.161536e+01	-2.777039e+00
1.168245e+01	-2.800448e+00
1.174992e+01	-2.824187e+00
1.181779e+01	-2.848328e+00
1.188605e+01	-2.872498e+00
1.195470e+01	-2.896671e+00
1.202375e+01	-2.920981e+00
1.209320e+01	-2.945709e+00
1.216305e+01	-2.970463e+00
1.223330e+01	-2.995361e+00
1.230396e+01	-3.020233e+00
1.237503e+01	-3.045336e+00
1.244651e+01	-3.070805e+00
1.251840e+01	-3.096113e+00
1.259070e+01	-3.121813e+00
1.266343e+01	-3.147672e+00
1.273657e+01	-3.173425e+00
1.281014e+01	-3.199489e+00
1.288413e+01	-3.225418e+00
1.295855e+01	-3.251754e+00
1.303339e+01	-3.278013e+00
1.310867e+01	-3.304694e+00
1.318439e+01	-3.331534e+00
1.326054e+01	-3.358311e+00
1.333713e+01	-3.385300e+00
1.341417e+01	-3.412352e+00
1.349165e+01	-3.439732e+00
1.356958e+01	-3.467409e+00
1.364795e+01	-3.494811e+00
1.372678e+01	-3.522581e+00
1.380607e+01	-3.550371e+00
1.388581e+01	-3.578404e+00
1.396602e+01	-3.606688e+00
1.404668e+01	-3.634742e+00
1.412782e+01	-3.663447e+00
1.420942e+01	-3.691665e+00
1.429149e+01	-3.720686e+00
1.437404e+01	-3.749601e+00
1.445706e+01	-3.778404e+00
1.454057e+01	-3.807651e+00
1.462455e+01	-3.836882e+00
1.470902e+01	-3.866185e+00
1.479398e+01	-3.895890e+00
1.487943e+01	-3.925573e+00
1.496537e+01	-3.955455e+00
1.505181e+01	-3.985158e+00
1.513875e+01	-4.015331e+00
1.522619e+01	-4.045491e+00
1.531414e+01	-4.076045e+00
1.540259e+01	-4.106661e+00
1.549156e+01	-4.137390e+00
1.558103e+01	-4.168003e+00
1.567103e+01	-4.198900e+00
1.576155e+01	-4.230012e+00
1.585258e+01	-4.261247e+00
1.594415e+01	-4.292679e+00
1.603624e+01	-4.323863e+00
1.612886e+01	-4.355891e+00
1.622202e+01	-4.387296e+00
1.631572e+01	-4.419614e+00
1.640996e+01	-4.451425e+00
1.650474e+01	-4.483235e+00
1.660008e+01	-4.515737e+00
1.669596e+01	-4.548059e+00
1.679239e+01	-4.580525e+00
1.688938e+01	-4.613472e+00
1.698694e+01	-4.645958e+00
1.708505e+01	-4.678849e+00
1.718373e+01	-4.712166e+00
1.728299e+01	-4.745400e+00
1.738281e+01	-4.778608e+00
1.748322e+01	-4.812069e+00
1.758420e+01	-4.845547e+00
1.768576e+01	-4.879461e+00
1.778792e+01	-4.913271e+00
1.789066e+01	-4.946972e+00
1.799399e+01	-4.981259e+00
1.809793e+01	-5.015454e+00
1.820246e+01	-5.049602e+00
1.830760e+01	-5.084101e+00
1.841334e+01	-5.118595e+00
1.851969e+01	-5.153343e+00
1.862666e+01	-5.188236e+00
1.873425e+01	-5.223141e+00
1.884246e+01	-5.258378e+00
1.895129e+01	-5.293422e+00
1.906075e+01	-5.328667e+00
1.917085e+01	-5.363654e+00
1.928158e+01	-5.399509e+00
1.939295e+01	-5.435448e+00
1.950496e+01	-5.470979e+00
1.961762e+01	-5.506916e+00
1.973093e+01	-5.543058e+00
1.984490e+01	-5.578935e+00
1.995952e+01	-5.615218e+00
2.007480e+01	-5.651596e+00
2.019076e+01	-5.688079e+00
2.030738e+01	-5.725092e+00
2.042467e+01	-5.761419e+00
2.054264e+01	-5.798215e+00
2.066130e+01	-5.835331e+00
2.078064e+01	-5.872235e+00
2.090066e+01	-5.909043e+00
2.102139e+01	-5.946768e+00
2.114280e+01	-5.983855e+00
2.126492e+01	-6.021388e+00
2.138775e+01	-6.059093e+00
2.151128e+01	-6.096665e+00
2.163553e+01	-6.134423e+00
2.176050e+01	-6.172445e+00
2.188619e+01	-6.210505e+00
2.201260e+01	-6.248447e+00
2.213974e+01	-6.286699e+00
2.226762e+01	-6.324791e+00
2.239624e+01	-6.363406e+00
2.252560e+01	-6.401874e+00
2.265571e+01	-6.440372e+00
2.278656e+01	-6.478956e+00
2.291818e+01	-6.518233e+00
2.305055e+01	-6.557071e+00
2.318369e+01	-6.595996e+00
2.331760e+01	-6.634953e+00
2.345228e+01	-6.674393e+00
2.358774e+01	-6.713888e+00
2.372398e+01	-6.753203e+00
2.386101e+01	-6.792948e+00
2.399883e+01	-6.832221e+00
2.413745e+01	-6.871816e+00
2.427686e+01	-6.911691e+00
2.441709e+01	-6.951354e+00
2.455812e+01	-6.991591e+00
2.469997e+01	-7.031444e+00
2.484263e+01	-7.071511e+00
2.498612e+01	-7.112132e+00
2.513044e+01	-7.152328e+00
2.527559e+01	-7.192903e+00
2.542158e+01	-7.233242e+00
2.556842e+01	-7.274059e+00
2.571610e+01	-7.314619e+00
2.586463e+01	-7.355492e+00
2.601403e+01	-7.395879e+00
2.616428e+01	-7.437468e+00
2.631541e+01	-7.478368e+00
2.646740e+01	-7.519553e+00
2.662028e+01	-7.560574e+00
2.677404e+01	-7.602076e+00
2.692868e+01	-7.643484e+00
2.708422e+01	-7.685184e+00
2.724066e+01	-7.726443e+00
2.739800e+01	-7.768135e+00
2.755625e+01	-7.809743e+00
2.771541e+01	-7.851356e+00
2.787550e+01	-7.893388e+00
2.803650e+01	-7.935510e+00
2.819844e+01	-7.977236e+00
2.836131e+01	-8.019085e+00
2.852513e+01	-8.061366e+00
2.868989e+01	-8.103812e+00
2.885560e+01	-8.146009e+00
2.902227e+01	-8.188457e+00
2.918990e+01	-8.230619e+00
2.935850e+01	-8.273549e+00
2.952807e+01	-8.316142e+00
2.969863e+01	-8.358876e+00
2.987016e+01	-8.401485e+00
3.004269e+01	-8.444786e+00
3.021622e+01	-8.487504e+00
3.039075e+01	-8.530294e+00
3.056628e+01	-8.573076e+00
3.074283e+01	-8.616415e+00
3.092040e+01	-8.659521e+00
3.109900e+01	-8.702629e+00
3.127862e+01	-8.746156e+00
3.145929e+01	-8.789931e+00
3.164099e+01	-8.833322e+00
3.182375e+01	-8.875970e+00
3.200756e+01	-8.920250e+00
3.219244e+01	-8.963709e+00
3.237838e+01	-9.007310e+00
3.256540e+01	-9.051741e+00
3.275349e+01	-9.095000e+00
3.294268e+01	-9.138924e+00
3.313295e+01	-9.183072e+00
3.332433e+01	-9.227136e+00
3.351681e+01	-9.271703e+00
3.371040e+01	-9.315122e+00
3.390511e+01	-9.360015e+00
3.410094e+01	-9.403693e+00
3.429791e+01	-9.447681e+00
3.449601e+01	-9.491980e+00
3.469526e+01	-9.536780e+00
3.489566e+01	-9.580985e+00
3.509721e+01	-9.625984e+00
3.529993e+01	-9.670090e+00
3.550382e+01	-9.714706e+00
3.570889e+01	-9.759468e+00
3.591515e+01	-9.804518e+00
3.612259e+01	-9.849170e+00
3.633123e+01	-9.894034e+00
3.654108e+01	-9.939553e+00
3.675214e+01	-9.983504e+00
3.696442e+01	-1.002918e+01
3.717792e+01	-1.007424e+01
3.739266e+01	-1.011945e+01
3.760864e+01	-1.016414e+01
3.782587e+01	-1.020945e+01
3.804435e+01	-1.025500e+01
3.826409e+01	-1.030004e+01
3.848510e+01	-1.034575e+01
3.870739e+01	-1.039099e+01
3.893096e+01	-1.043653e+01
3.915583e+01	-1.048227e+01
3.938199e+01	-1.052758e+01
3.960946e+01	-1.057358e+01
3.983824e+01	-1.061986e+01
4.006834e+01	-1.066493e+01
4.029978e+01	-1.071020e+01
4.053255e+01	-1.075696e+01
4.076666e+01	-1.080251e+01
4.100213e+01	-1.084815e+01
4.123896e+01	-1.089406e+01
4.147715e+01	-1.094006e+01
4.171672e+01	-1.098617e+01
4.195767e+01	-1.103159e+01
4.220002e+01	-1.107841e+01
4.244377e+01	-1.112422e+01
4.268892e+01	-1.117015e+01
4.293549e+01	-1.121621e+01
4.318348e+01	-1.126238e+01
4.343291e+01	-1.130929e+01
4.368377e+01	-1.135554e+01
4.393609e+01	-1.140195e+01
4.418986e+01	-1.144832e+01
4.444510e+01	-1.149537e+01
4.470182e+01	-1.154115e+01
4.496001e+01	-1.158787e+01
4.521970e+01	-1.163474e+01
4.548089e+01	-1.168056e+01
4.574358e+01	-1.172793e+01
4.600779e+01	-1.177472e+01
4.627353e+01	-1.182124e+01
4.654081e+01	-1.186792e+01
4.680963e+01	-1.191419e+01
4.708000e+01	-1.196184e+01
4.735193e+01	-1.200837e+01
4.762543e+01	-1.205578e+01
4.790051e+01	-1.210204e+01
4.817719e+01	-1.214872e+01
4.845545e+01	-1.219631e+01
4.873533e+01	-1.224338e+01
4.901682e+01	-1.229067e+01
4.929994e+01	-1.233745e+01
4.958470e+01	-1.238440e+01
4.987110e+01	-1.243183e+01
5.015915e+01	-1.247898e+01
5.044887e+01	-1.252629e+01
5.074026e+01	-1.257330e+01
5.103333e+01	-1.262089e+01
5.132810e+01	-1.266784e+01
5.162457e+01	-1.271537e+01
5.192275e+01	-1.276292e+01
5.222265e+01	-1.281027e+01
5.252429e+01	-1.285677e+01
5.282767e+01	-1.290457e+01
5.313280e+01	-1.295125e+01
5.343969e+01	-1.299992e+01
5.374836e+01	-1.304732e+01
5.405880e+01	-1.309494e+01
5.437105e+01	-1.314245e+01
5.468509e+01	-1.319020e+01
5.500095e+01	-1.323734e+01
5.531863e+01	-1.328509e+01
5.563815e+01	-1.333312e+01
5.595951e+01	-1.338052e+01
5.628273e+01	-1.342854e+01
5.660782e+01	-1.347619e+01
5.693479e+01	-1.352399e+01
5.726364e+01	-1.357254e+01
5.759439e+01	-1.362000e+01
5.792705e+01	-1.366738e+01
5.826164e+01	-1.371566e+01
5.859815e+01	-1.376334e+01
5.893662e+01	-1.381192e+01
5.927703e+01	-1.385883e+01
5.961941e+01	-1.390776e+01
5.996377e+01	-1.395511e+01
6.031012e+01	-1.400316e+01
6.065847e+01	-1.405163e+01
6.100883e+01	-1.409992e+01
6.136121e+01	-1.414707e+01
6.171563e+01	-1.419600e+01
6.207210e+01	-1.424344e+01
6.243063e+01	-1.429139e+01
6.279122e+01	-1.434141e+01
6.315390e+01	-1.438847e+01
6.351868e+01	-1.443639e+01
6.388556e+01	-1.448507e+01
6.425456e+01	-1.453340e+01
6.462569e+01	-1.458198e+01
6.499897e+01	-1.462966e+01
6.537440e+01	-1.467739e+01
6.575200e+01	-1.472615e+01
6.613178e+01	-1.477475e+01
6.651375e+01	-1.482285e+01
6.689793e+01	-1.487109e+01
6.728433e+01	-1.492030e+01
6.767297e+01	-1.496842e+01
6.806384e+01	-1.501746e+01
6.845698e+01	-1.506540e+01
6.885238e+01	-1.511292e+01
6.925007e+01	-1.516207e+01
6.965005e+01	-1.521097e+01
7.005235e+01	-1.525782e+01
7.045697e+01	-1.530763e+01
7.086393e+01	-1.535612e+01
7.127323e+01	-1.540517e+01
7.168490e+01	-1.545354e+01
7.209895e+01	-1.550183e+01
7.251539e+01	-1.555170e+01
7.293424e+01	-1.559897e+01
7.335551e+01	-1.564759e+01
7.377920e+01	-1.569535e+01
7.420535e+01	-1.574508e+01
7.463396e+01	-1.579347e+01
7.506504e+01	-1.584238e+01
7.549861e+01	-1.589204e+01
7.593469e+01	-1.594001e+01
7.637328e+01	-1.598842e+01
7.681441e+01	-1.603886e+01
7.725809e+01	-1.608575e+01
7.770433e+01	-1.613596e+01
7.815315e+01	-1.618461e+01
7.860456e+01	-1.623322e+01
7.905857e+01	-1.628109e+01
7.951521e+01	-1.633047e+01
7.997449e+01	-1.637941e+01
8.043642e+01	-1.642827e+01
8.090102e+01	-1.647738e+01
8.136830e+01	-1.652621e+01
8.183828e+01	-1.657566e+01
8.231097e+01	-1.662353e+01
8.278640e+01	-1.667265e+01
8.326457e+01	-1.672203e+01
8.374550e+01	-1.677165e+01
8.422921e+01	-1.682060e+01
8.471572e+01	-1.686868e+01
8.520503e+01	-1.691771e+01
8.569717e+01	-1.696654e+01
8.619215e+01	-1.701599e+01
8.669000e+01	-1.706619e+01
8.719071e+01	-1.711348e+01
8.769432e+01	-1.716334e+01
8.820084e+01	-1.721252e+01
8.871029e+01	-1.726189e+01
8.922267e+01	-1.731018e+01
8.973802e+01	-1.736010e+01
9.025634e+01	-1.740931e+01
9.077766e+01	-1.745792e+01
9.130199e+01	-1.750645e+01
9.182935e+01	-1.755664e+01
9.235975e+01	-1.760497e+01
9.289321e+01	-1.765405e+01
9.342976e+01	-1.770237e+01
9.396941e+01	-1.775267e+01
9.451217e+01	-1.780086e+01
9.505807e+01	-1.785058e+01
9.560712e+01	-1.789950e+01
9.615934e+01	-1.794946e+01
9.671476e+01	-1.799890e+01
9.727338e+01	-1.804761e+01
9.783522e+01	-1.809761e+01
9.840032e+01	-1.814607e+01
9.896867e+01	-1.819554e+01
9.954031e+01	-1.824583e+01
1.001153e+02	-1.829414e+01
1.006935e+02	-1.834406e+01
1.012751e+02	-1.839264e+01
1.018601e+02	-1.844313e+01
1.024484e+02	-1.849131e+01
1.030402e+02	-1.854067e+01
1.036353e+02	-1.859037e+01
1.042339e+02	-1.863992e+01
1.048360e+02	-1.868893e+01
1.054415e+02	-1.873829e+01
1.060505e+02	-1.878764e+01
1.066631e+02	-1.883721e+01
1.072791e+02	-1.888685e+01
1.078988e+02	-1.893594e+01
1.085220e+02	-1.898624e+01
1.091488e+02	-1.903655e+01
1.097793e+02	-1.908352e+01
1.104133e+02	-1.913379e+01
1.110511e+02	-1.918274e+01
1.116925e+02	-1.923231e+01
1.123376e+02	-1.928181e+01
1.129865e+02	-1.933017e+01
1.136391e+02	-1.937869e+01
1.142955e+02	-1.943042e+01
1.149556e+02	-1.947949e+01
1.156196e+02	-1.952925e+01
1.162874e+02	-1.957954e+01
1.169591e+02	-1.962992e+01
1.176347e+02	-1.967789e+01
1.183141e+02	-1.972713e+01
1.189975e+02	-1.977622e+01
1.196848e+02	-1.982573e+01
1.203761e+02	-1.987507e+01
1.210714e+02	-1.992683e+01
1.217707e+02	-1.997410e+01
1.224740e+02	-2.002546e+01
1.231814e+02	-2.007453e+01
1.238929e+02	-2.012390e+01
1.246085e+02	-2.017302e+01
1.253283e+02	-2.022170e+01
1.260522e+02	-2.027064e+01
1.267802e+02	-2.032180e+01
1.275125e+02	-2.037158e+01
1.282490e+02	-2.042028e+01
1.289898e+02	-2.047030e+01
1.297348e+02	-2.051955e+01
1.304842e+02	-2.056884e+01
1.312378e+02	-2.061846e+01
1.319959e+02	-2.066836e+01
1.327583e+02	-2.071859e+01
1.335251e+02	-2.076730e+01
1.342963e+02	-2.081773e+01
1.350720e+02	-2.086754e+01
1.358522e+02	-2.091651e+01
1.366368e+02	-2.096710e+01
1.374260e+02	-2.101656e+01
1.382198e+02	-2.106586e+01
1.390182e+02	-2.111253e+01
1.398211e+02	-2.116650e+01
1.406287e+02	-2.121466e+01
1.414410e+02	-2.126434e+01
1.422579e+02	-2.131367e+01
1.430796e+02	-2.136360e+01
1.439060e+02	-2.141433e+01
1.447372e+02	-2.146266e+01
1.455732e+02	-2.151226e+01
1.464141e+02	-2.156314e+01
1.472597e+02	-2.161212e+01
1.481103e+02	-2.166383e+01
1.489658e+02	-2.171200e+01
1.498262e+02	-2.176096e+01
1.506916e+02	-2.181152e+01
1.515620e+02	-2.186141e+01
1.524374e+02	-2.191029e+01
1.533179e+02	-2.196139e+01
1.542034e+02	-2.200969e+01
1.550941e+02	-2.206176e+01
1.559899e+02	-2.210952e+01
1.568909e+02	-2.215749e+01
1.577971e+02	-2.220789e+01
1.587085e+02	-2.225841e+01
1.596252e+02	-2.230961e+01
1.605472e+02	-2.235720e+01
1.614745e+02	-2.240719e+01
1.624072e+02	-2.245715e+01
1.633453e+02	-2.250638e+01
1.642887e+02	-2.255898e+01
1.652377e+02	-2.260663e+01
1.661921e+02	-2.265751e+01
1.671520e+02	-2.270665e+01
1.681175e+02	-2.275587e+01
1.690885e+02	-2.280486e+01
1.700651e+02	-2.285605e+01
1.710474e+02	-2.290611e+01
1.720354e+02	-2.295357e+01
1.730291e+02	-2.300420e+01
1.740285e+02	-2.305542e+01
1.750337e+02	-2.310553e+01
1.760446e+02	-2.315463e+01
1.770615e+02	-2.320368e+01
1.780842e+02	-2.325319e+01
1.791128e+02	-2.330256e+01
1.801473e+02	-2.335353e+01
1.811878e+02	-2.340388e+01
1.822344e+02	-2.345218e+01
1.832870e+02	-2.350275e+01
1.843456e+02	-2.355267e+01
1.854104e+02	-2.360344e+01
1.864813e+02	-2.365550e+01
1.875584e+02	-2.370376e+01
1.886418e+02	-2.375362e+01
1.897313e+02	-2.380432e+01
1.908272e+02	-2.385102e+01
1.919294e+02	-2.390268e+01
1.930380e+02	-2.395263e+01
1.941530e+02	-2.400198e+01
1.952744e+02	-2.404848e+01
1.964023e+02	-2.410376e+01
1.975367e+02	-2.415311e+01
1.986777e+02	-2.420345e+01
1.998252e+02	-2.425201e+01
2.009794e+02	-2.430295e+01
2.021403e+02	-2.435021e+01
2.033078e+02	-2.440136e+01
2.044821e+02	-2.445267e+01
2.056632e+02	-2.449915e+01
2.068511e+02	-2.455071e+01
2.080459e+02	-2.460219e+01
2.092475e+02	-2.465229e+01
2.104561e+02	-2.469856e+01
2.116717e+02	-2.475039e+01
2.128943e+02	-2.480011e+01
2.141240e+02	-2.484831e+01
2.153608e+02	-2.490002e+01
2.166047e+02	-2.495085e+01
2.178558e+02	-2.499945e+01
2.191141e+02	-2.504985e+01
2.203797e+02	-2.509896e+01
2.216526e+02	-2.515036e+01
2.229329e+02	-2.520257e+01
2.242205e+02	-2.524970e+01
2.255156e+02	-2.529438e+01
2.268182e+02	-2.535045e+01
2.281283e+02	-2.539951e+01
2.294459e+02	-2.544921e+01
2.307712e+02	-2.550011e+01
2.321041e+02	-2.554910e+01
2.334447e+02	-2.559823e+01
2.347931e+02	-2.564675e+01
2.361493e+02	-2.569704e+01
2.375133e+02	-2.574705e+01
2.388851e+02	-2.580100e+01
2.402649e+02	-2.584715e+01
2.416527e+02	-2.590011e+01
2.430484e+02	-2.594918e+01
2.444523e+02	-2.599701e+01
2.458642e+02	-2.604847e+01
2.472843e+02	-2.609981e+01
2.487126e+02	-2.614803e+01
2.501492e+02	-2.619856e+01
2.515940e+02	-2.624639e+01
2.530472e+02	-2.629754e+01
2.545088e+02	-2.634998e+01
2.559789e+02	-2.640004e+01
2.574574e+02	-2.644942e+01
2.589444e+02	-2.649335e+01
2.604401e+02	-2.654752e+01
2.619444e+02	-2.659964e+01
2.634574e+02	-2.664530e+01
2.649791e+02	-2.669696e+01
2.665096e+02	-2.674967e+01
2.680489e+02	-2.679472e+01
2.695972e+02	-2.684461e+01
2.711544e+02	-2.690229e+01
2.727205e+02	-2.694733e+01
2.742958e+02	-2.699474e+01
2.758801e+02	-2.704612e+01
2.774736e+02	-2.709471e+01
2.790762e+02	-2.714961e+01
2.806882e+02	-2.719722e+01
2.823094e+02	-2.724600e+01
2.839400e+02	-2.729575e+01
2.855800e+02	-2.734644e+01
2.872295e+02	-2.739970e+01
2.888886e+02	-2.745031e+01
2.905572e+02	-2.749732e+01
2.922354e+02	-2.754650e+01
2.939234e+02	-2.759447e+01
2.956211e+02	-2.764729e+01
2.973286e+02	-2.769456e+01
2.990459e+02	-2.774874e+01
3.007732e+02	-2.779928e+01
3.025104e+02	-2.784689e+01
3.042577e+02	-2.789522e+01
3.060151e+02	-2.794256e+01
3.077826e+02	-2.799470e+01
3.095604e+02	-2.804680e+01
3.113484e+02	-2.809912e+01
3.131467e+02	-2.814665e+01
3.149554e+02	-2.819531e+01
3.167746e+02	-2.825049e+01
3.186043e+02	-2.829565e+01
3.204445e+02	-2.834239e+01
3.222954e+02	-2.840169e+01
3.241570e+02	-2.844674e+01
3.260293e+02	-2.849662e+01
3.279124e+02	-2.854660e+01
3.298064e+02	-2.860014e+01
3.317114e+02	-2.865152e+01
3.336273e+02	-2.869605e+01
3.355544e+02	-2.874580e+01
3.374925e+02	-2.880142e+01
3.394418e+02	-2.884421e+01
3.414024e+02	-2.889242e+01
3.433744e+02	-2.895046e+01
3.453577e+02	-2.899808e+01
3.473525e+02	-2.905442e+01
3.493588e+02	-2.909688e+01
3.513766e+02	-2.914877e+01
3.534062e+02	-2.919244e+01
3.554474e+02	-2.924857e+01
3.575005e+02	-2.929654e+01
3.595654e+02	-2.934895e+01
3.616422e+02	-2.939622e+01
3.637311e+02	-2.944888e+01
3.658320e+02	-2.950030e+01
3.679450e+02	-2.954700e+01
3.700702e+02	-2.959612e+01
3.722077e+02	-2.964390e+01
3.743576e+02	-2.969936e+01
3.765199e+02	-2.975197e+01
3.786946e+02	-2.979643e+01
3.808820e+02	-2.985070e+01
3.830819e+02	-2.989763e+01
3.852946e+02	-2.994859e+01
3.875200e+02	-2.999999e+01
3.897583e+02	-3.005365e+01
3.920096e+02	-3.010481e+01
3.942738e+02	-3.015116e+01
3.965511e+02	-3.020262e+01
3.988416e+02	-3.025036e+01
4.011452e+02	-3.029563e+01
4.034622e+02	-3.035152e+01
4.057926e+02	-3.039549e+01
4.081365e+02	-3.044952e+01
4.104938e+02	-3.049760e+01
4.128648e+02	-3.054576e+01
4.152495e+02	-3.059689e+01
4.176480e+02	-3.064541e+01
4.200603e+02	-3.070423e+01
4.224866e+02	-3.075407e+01
4.249268e+02	-3.079761e+01
4.273812e+02	-3.085110e+01
4.298497e+02	-3.090645e+01
4.323325e+02	-3.094610e+01
4.348297e+02	-3.100427e+01
4.373412e+02	-3.105073e+01
4.398673e+02	-3.110582e+01
4.424079e+02	-3.115076e+01
4.449633e+02	-3.120269e+01
4.475334e+02	-3.125341e+01
4.501183e+02	-3.129985e+01
4.527182e+02	-3.136316e+01
4.553330e+02	-3.140205e+01
4.579630e+02	-3.145612e+01
4.606082e+02	-3.150575e+01
4.632687e+02	-3.155560e+01
4.659445e+02	-3.160714e+01
4.686358e+02	-3.165043e+01
4.713426e+02	-3.170227e+01
4.740650e+02	-3.175432e+01
4.768032e+02	-3.180787e+01
4.795572e+02	-3.185631e+01
4.823271e+02	-3.190430e+01
4.851130e+02	-3.195511e+01
4.879150e+02	-3.200606e+01
4.907332e+02	-3.205076e+01
4.935676e+02	-3.210824e+01
4.964185e+02	-3.215973e+01
4.992858e+02	-3.220153e+01
5.021696e+02	-3.225553e+01
5.050701e+02	-3.230345e+01
5.079874e+02	-3.235450e+01
5.109215e+02	-3.240833e+01
5.138726e+02	-3.246228e+01
5.168407e+02	-3.250401e+01
5.198259e+02	-3.256228e+01
5.228284e+02	-3.260629e+01
5.258482e+02	-3.265708e+01
5.288855e+02	-3.271662e+01
5.319403e+02	-3.275935e+01
5.350128e+02	-3.280175e+01
5.381030e+02	-3.285331e+01
5.412111e+02	-3.290535e+01
5.443371e+02	-3.296050e+01
5.474812e+02	-3.301599e+01
5.506434e+02	-3.305825e+01
5.538239e+02	-3.311065e+01
5.570228e+02	-3.315875e+01
5.602401e+02	-3.321356e+01
5.634760e+02	-3.325860e+01
5.667306e+02	-3.331061e+01
5.700040e+02	-3.336314e+01
5.732964e+02	-3.341949e+01
5.766077e+02	-3.345984e+01
5.799382e+02	-3.350428e+01
5.832879e+02	-3.355592e+01
5.866569e+02	-3.361225e+01
5.900454e+02	-3.365352e+01
5.934535e+02	-3.371112e+01
5.968813e+02	-3.375971e+01
6.003288e+02	-3.381378e+01
6.037963e+02	-3.386106e+01
6.072838e+02	-3.390771e+01
6.107914e+02	-3.396599e+01
6.143194e+02	-3.401457e+01
6.178676e+02	-3.406267e+01
6.214364e+02	-3.411496e+01
6.250258e+02	-3.416707e+01
6.286359e+02	-3.421555e+01
6.322669e+02	-3.426409e+01
6.359189e+02	-3.431786e+01
6.395919e+02	-3.438277e+01
6.432862e+02	-3.441592e+01
6.470017e+02	-3.447219e+01
6.507388e+02	-3.452220e+01
6.544974e+02	-3.457458e+01
6.582778e+02	-3.461179e+01
6.620800e+02	-3.466510e+01
6.659041e+02	-3.472558e+01
6.697504e+02	-3.477589e+01
6.736188e+02	-3.482073e+01
6.775096e+02	-3.486969e+01
6.814229e+02	-3.491859e+01
6.853587e+02	-3.496584e+01
6.893173e+02	-3.501733e+01
6.932988e+02	-3.506791e+01
6.973033e+02	-3.511908e+01
7.013309e+02	-3.517565e+01
