Frequency(Hz)	Magnitude(dB)
1.000000e+01	-2.216661e+00
1.005776e+01	-2.236604e+00
1.011585e+01	-2.256880e+00
1.017428e+01	-2.277184e+00
1.023305e+01	-2.297450e+00
1.029215e+01	-2.318403e+00
1.035160e+01	-2.339012e+00
1.041139e+01	-2.359866e+00
1.047153e+01	-2.381003e+00
1.053201e+01	-2.402125e+00
1.059284e+01	-2.423429e+00
1.065403e+01	-2.445017e+00
1.071556e+01	-2.466690e+00
1.077746e+01	-2.488335e+00
1.083971e+01	-2.510178e+00
1.090232e+01	-2.532062e+00
1.096529e+01	-2.554506e+00
1.102862e+01	-2.576536e+00
1.109232e+01	-2.598982e+00
1.115639e+01	-2.621476e+00
1.122083e+01	-2.644523e+00
1.128564e+01	-2.667290e+00
1.135083e+01	-2.690380e+00
1.141639e+01	-2.713487e+00
1.148233e+01	-2.736708e+00
1.154865e+01	-2.760114e+00
1.161536e+01	-2.783858e+00
1.168245e+01	-2.807639e+00
1.174992e+01	-2.831459e+00
1.181779e+01	-2.855654e+00
1.188605e+01	-2.879678e+00
1.195470e+01	-2.904252e+00
1.202375e+01	-2.928547e+00
1.209320e+01	-2.953077e+00
1.216305e+01	-2.977922e+00
1.223330e+01	-3.002804e+00
1.230396e+01	-3.027851e+00
1.237503e+01	-3.052938e+00
1.244651e+01	-3.078445e+00
1.251840e+01	-3.104113e+00
1.259070e+01	-3.129482e+00
1.266343e+01	-3.155237e+00
1.273657e+01	-3.181037e+00
1.281014e+01	-3.207238e+00
1.288413e+01	-3.233287e+00
1.295855e+01	-3.259898e+00
1.303339e+01	-3.286151e+00
1.310867e+01	-3.312812e+00
1.318439e+01	-3.339560e+00
1.326054e+01	-3.366362e+00
1.333713e+01	-3.393501e+00
1.341417e+01	-3.420901e+00
1.349165e+01	-3.447965e+00
1.356958e+01	-3.475592e+00
1.364795e+01	-3.503244e+00
1.372678e+01	-3.531022e+00
1.380607e+01	-3.558999e+00
1.388581e+01	-3.586810e+00
1.396602e+01	-3.615121e+00
1.404668e+01	-3.643330e+00
1.412782e+01	-3.671811e+00
1.420942e+01	-3.700535e+00
1.429149e+01	-3.729227e+00
1.437404e+01	-3.758144e+00
1.445706e+01	-3.787244e+00
1.454057e+01	-3.816324e+00
1.462455e+01	-3.845671e+00
1.470902e+01	-3.875069e+00
1.479398e+01	-3.904862e+00
1.487943e+01	-3.934687e+00
1.496537e+01	-3.964234e+00
1.505181e+01	-3.994619e+00
1.513875e+01	-4.024547e+00
1.522619e+01	-4.055130e+00
1.531414e+01	-4.085114e+00
1.540259e+01	-4.115726e+00
1.549156e+01	-4.146364e+00
1.558103e+01	-4.177608e+00
1.567103e+01	-4.208398e+00
1.576155e+01	-4.239387e+00
1.585258e+01	-4.270630e+00
1.594415e+01	-4.302007e+00
1.603624e+01	-4.333711e+00
1.612886e+01	-4.365034e+00
1.622202e+01	-4.397106e+00
1.631572e+01	-4.429042e+00
1.640996e+01	-4.461040e+00
1.650474e+01	-4.492951e+00
1.660008e+01	-4.525512e+00
1.669596e+01	-4.557822e+00
1.679239e+01	-4.590459e+00
1.688938e+01	-4.623070e+00
1.698694e+01	-4.656112e+00
1.708505e+01	-4.689094e+00
1.718373e+01	-4.722014e+00
1.728299e+01	-4.755060e+00
1.738281e+01	-4.788636e+00
1.748322e+01	-4.822101e+00
1.758420e+01	-4.855801e+00
1.768576e+01	-4.889519e+00
1.778792e+01	-4.923250e+00
1.789066e+01	-4.957582e+00
1.799399e+01	-4.991351e+00
1.809793e+01	-5.025711e+00
1.820246e+01	-5.060081e+00
1.830760e+01	-5.094440e+00
1.841334e+01	-5.129117e+00
1.851969e+01	-5.163775e+00
1.862666e+01	-5.198647e+00
1.873425e+01	-5.233480e+00
1.884246e+01	-5.268839e+00
1.895129e+01	-5.303870e+00
1.906075e+01	-5.339577e+00
1.917085e+01	-5.374398e+00
1.928158e+01	-5.410350e+00
1.939295e+01	-5.445819e+00
1.950496e+01	-5.481871e+00
1.961762e+01	-5.517975e+00
1.973093e+01	-5.553933e+00
1.984490e+01	-5.590128e+00
1.995952e+01	-5.626699e+00
2.007480e+01	-5.662546e+00
2.019076e+01	-5.699002e+00
2.030738e+01	-5.735642e+00
2.042467e+01	-5.772279e+00
2.054264e+01	-5.809584e+00
2.066130e+01	-5.846114e+00
2.078064e+01	-5.883503e+00
2.090066e+01	-5.920530e+00
2.102139e+01	-5.957574e+00
2.114280e+01	-5.995203e+00
2.126492e+01	-6.032400e+00
2.138775e+01	-6.070454e+00
2.151128e+01	-6.107961e+00
2.163553e+01	-6.146221e+00
2.176050e+01	-6.183628e+00
2.188619e+01	-6.221843e+00
2.201260e+01	-6.259972e+00
2.213974e+01	-6.298371e+00
2.226762e+01	-6.336388e+00
2.239624e+01	-6.374482e+00
2.252560e+01	-6.413271e+00
2.265571e+01	-6.452385e+00
2.278656e+01	-6.490782e+00
2.291818e+01	-6.529454e+00
2.305055e+01	-6.568731e+00
2.318369e+01	-6.607584e+00
2.331760e+01	-6.646934e+00
2.345228e+01	-6.686237e+00
2.358774e+01	-6.725507e+00
2.372398e+01	-6.765137e+00
2.386101e+01	-6.804770e+00
2.399883e+01	-6.844102e+00
2.413745e+01	-6.883878e+00
2.427686e+01	-6.923825e+00
2.441709e+01	-6.963962e+00
2.455812e+01	-7.003567e+00
2.469997e+01	-7.043979e+00
2.484263e+01	-7.083699e+00
2.498612e+01	-7.124560e+00
2.513044e+01	-7.164779e+00
2.527559e+01	-7.205005e+00
2.542158e+01	-7.245606e+00
2.556842e+01	-7.286156e+00
2.571610e+01	-7.326561e+00
2.586463e+01	-7.367566e+00
2.601403e+01	-7.408436e+00
2.616428e+01	-7.449536e+00
2.631541e+01	-7.490789e+00
2.646740e+01	-7.531587e+00
2.662028e+01	-7.572841e+00
2.677404e+01	-7.614457e+00
2.692868e+01	-7.655315e+00
2.708422e+01	-7.697515e+00
2.724066e+01	-7.738662e+00
2.739800e+01	-7.780599e+00
2.755625e+01	-7.822153e+00
2.771541e+01	-7.864221e+00
2.787550e+01	-7.905992e+00
2.803650e+01	-7.947892e+00
2.819844e+01	-7.990190e+00
2.836131e+01	-8.032153e+00
2.852513e+01	-8.073647e+00
2.868989e+01	-8.116537e+00
2.885560e+01	-8.158934e+00
2.902227e+01	-8.201416e+00
2.918990e+01	-8.243585e+00
2.935850e+01	-8.285810e+00
2.952807e+01	-8.328796e+00
2.969863e+01	-8.371538e+00
2.987016e+01	-8.414569e+00
3.004269e+01	-8.457133e+00
3.021622e+01	-8.500142e+00
3.039075e+01	-8.543266e+00
3.056628e+01	-8.586640e+00
3.074283e+01	-8.629375e+00
3.092040e+01	-8.672398e+00
3.109900e+01	-8.715611e+00
3.127862e+01	-8.759459e+00
3.145929e+01	-8.802619e+00
3.164099e+01	-8.846300e+00
3.182375e+01	-8.889312e+00
3.200756e+01	-8.933420e+00
3.219244e+01	-8.977113e+00
3.237838e+01	-9.020430e+00
3.256540e+01	-9.064438e+00
3.275349e+01	-9.107715e+00
3.294268e+01	-9.152270e+00
3.313295e+01	-9.196198e+00
3.332433e+01	-9.240420e+00
3.351681e+01	-9.284232e+00
3.371040e+01	-9.328609e+00
3.390511e+01	-9.372167e+00
3.410094e+01	-9.416468e+00
3.429791e+01	-9.461366e+00
3.449601e+01	-9.505632e+00
3.469526e+01	-9.550260e+00
3.489566e+01	-9.594598e+00
3.509721e+01	-9.639157e+00
3.529993e+01	-9.683696e+00
3.550382e+01	-9.728652e+00
3.570889e+01	-9.773950e+00
3.591515e+01	-9.818169e+00
3.612259e+01	-9.862542e+00
3.633123e+01	-9.907824e+00
3.654108e+01	-9.952484e+00
3.675214e+01	-9.997900e+00
3.696442e+01	-1.004272e+01
3.717792e+01	-1.008768e+01
3.739266e+01	-1.013301e+01
3.760864e+01	-1.017771e+01
3.782587e+01	-1.022330e+01
3.804435e+01	-1.026940e+01
3.826409e+01	-1.031386e+01
3.848510e+01	-1.035944e+01
3.870739e+01	-1.040505e+01
3.893096e+01	-1.044990e+01
3.915583e+01	-1.049630e+01
3.938199e+01	-1.054126e+01
3.960946e+01	-1.058662e+01
3.983824e+01	-1.063311e+01
4.006834e+01	-1.067838e+01
4.029978e+01	-1.072396e+01
4.053255e+01	-1.077013e+01
4.076666e+01	-1.081616e+01
4.100213e+01	-1.086197e+01
4.123896e+01	-1.090752e+01
4.147715e+01	-1.095388e+01
4.171672e+01	-1.099946e+01
4.195767e+01	-1.104611e+01
4.220002e+01	-1.109216e+01
4.244377e+01	-1.113820e+01
4.268892e+01	-1.118429e+01
4.293549e+01	-1.123057e+01
4.318348e+01	-1.127691e+01
4.343291e+01	-1.132343e+01
4.368377e+01	-1.136985e+01
4.393609e+01	-1.141596e+01
4.418986e+01	-1.146249e+01
4.444510e+01	-1.150871e+01
4.470182e+01	-1.155591e+01
4.496001e+01	-1.160163e+01
4.521970e+01	-1.164804e+01
4.548089e+01	-1.169492e+01
4.574358e+01	-1.174214e+01
4.600779e+01	-1.178920e+01
4.627353e+01	-1.183522e+01
4.654081e+01	-1.188247e+01
4.680963e+01	-1.192861e+01
4.708000e+01	-1.197566e+01
4.735193e+01	-1.202248e+01
4.762543e+01	-1.206938e+01
4.790051e+01	-1.211573e+01
4.817719e+01	-1.216359e+01
4.845545e+01	-1.221008e+01
4.873533e+01	-1.225761e+01
4.901682e+01	-1.230483e+01
4.929994e+01	-1.235144e+01
4.958470e+01	-1.239885e+01
4.987110e+01	-1.244560e+01
5.015915e+01	-1.249333e+01
5.044887e+01	-1.254051e+01
5.074026e+01	-1.258787e+01
5.103333e+01	-1.263511e+01
5.132810e+01	-1.268142e+01
5.162457e+01	-1.272962e+01
5.192275e+01	-1.277711e+01
5.222265e+01	-1.282389e+01
5.252429e+01	-1.287189e+01
5.282767e+01	-1.291929e+01
5.313280e+01	-1.296680e+01
5.343969e+01	-1.301440e+01
5.374836e+01	-1.306259e+01
5.405880e+01	-1.310983e+01
5.437105e+01	-1.315714e+01
5.468509e+01	-1.320429e+01
5.500095e+01	-1.325227e+01
5.531863e+01	-1.329961e+01
5.563815e+01	-1.334723e+01
5.595951e+01	-1.339490e+01
5.628273e+01	-1.344285e+01
5.660782e+01	-1.349107e+01
5.693479e+01	-1.353813e+01
5.726364e+01	-1.358583e+01
5.759439e+01	-1.363441e+01
5.792705e+01	-1.368177e+01
5.826164e+01	-1.372966e+01
5.859815e+01	-1.377793e+01
5.893662e+01	-1.382588e+01
5.927703e+01	-1.387402e+01
5.961941e+01	-1.392212e+01
5.996377e+01	-1.396962e+01
6.031012e+01	-1.401769e+01
6.065847e+01	-1.406461e+01
6.100883e+01	-1.411364e+01
6.136121e+01	-1.416238e+01
6.171563e+01	-1.420957e+01
6.207210e+01	-1.425838e+01
6.243063e+01	-1.430740e+01
6.279122e+01	-1.435441e+01
6.315390e+01	-1.440207e+01
6.351868e+01	-1.445073e+01
6.388556e+01	-1.449951e+01
6.425456e+01	-1.454781e+01
6.462569e+01	-1.459664e+01
6.499897e+01	-1.464275e+01
6.537440e+01	-1.469263e+01
6.575200e+01	-1.474043e+01
6.613178e+01	-1.478935e+01
6.651375e+01	-1.483839e+01
6.689793e+01	-1.488501e+01
6.728433e+01	-1.493502e+01
6.767297e+01	-1.498388e+01
6.806384e+01	-1.503131e+01
6.845698e+01	-1.508086e+01
6.885238e+01	-1.512787e+01
6.925007e+01	-1.517707e+01
6.965005e+01	-1.522447e+01
7.005235e+01	-1.527323e+01
7.045697e+01	-1.532242e+01
7.086393e+01	-1.537172e+01
7.127323e+01	-1.541998e+01
7.168490e+01	-1.546801e+01
7.209895e+01	-1.551664e+01
7.251539e+01	-1.556495e+01
7.293424e+01	-1.561512e+01
7.335551e+01	-1.566268e+01
7.377920e+01	-1.571078e+01
7.420535e+01	-1.576013e+01
7.463396e+01	-1.580932e+01
7.506504e+01	-1.585777e+01
7.549861e+01	-1.590601e+01
7.593469e+01	-1.595519e+01
7.637328e+01	-1.600366e+01
7.681441e+01	-1.605345e+01
7.725809e+01	-1.610100e+01
7.770433e+01	-1.614980e+01
7.815315e+01	-1.619928e+01
7.860456e+01	-1.624803e+01
7.905857e+01	-1.629518e+01
7.951521e+01	-1.634525e+01
7.997449e+01	-1.639473e+01
8.043642e+01	-1.644269e+01
8.090102e+01	-1.649214e+01
8.136830e+01	-1.654120e+01
8.183828e+01	-1.659059e+01
8.231097e+01	-1.663845e+01
8.278640e+01	-1.668866e+01
8.326457e+01	-1.673714e+01
8.374550e+01	-1.678511e+01
8.422921e+01	-1.683466e+01
8.471572e+01	-1.688314e+01
8.520503e+01	-1.693321e+01
8.569717e+01	-1.698164e+01
8.619215e+01	-1.703000e+01
8.669000e+01	-1.708074e+01
8.719071e+01	-1.712887e+01
8.769432e+01	-1.717914e+01
8.820084e+01	-1.722720e+01
8.871029e+01	-1.727628e+01
8.922267e+01	-1.732565e+01
8.973802e+01	-1.737437e+01
9.025634e+01	-1.742249e+01
9.077766e+01	-1.747378e+01
9.130199e+01	-1.752324e+01
9.182935e+01	-1.757082e+01
9.235975e+01	-1.762000e+01
9.289321e+01	-1.767031e+01
9.342976e+01	-1.771717e+01
9.396941e+01	-1.776737e+01
9.451217e+01	-1.781732e+01
9.505807e+01	-1.786651e+01
9.560712e+01	-1.791432e+01
9.615934e+01	-1.796420e+01
9.671476e+01	-1.801312e+01
9.727338e+01	-1.806334e+01
9.783522e+01	-1.811189e+01
9.840032e+01	-1.816192e+01
9.896867e+01	-1.821132e+01
9.954031e+01	-1.825964e+01
1.001153e+02	-1.830927e+01
1.006935e+02	-1.836013e+01
1.012751e+02	-1.840779e+01
1.018601e+02	-1.845731e+01
1.024484e+02	-1.850561e+01
1.030402e+02	-1.855624e+01
1.036353e+02	-1.860685e+01
1.042339e+02	-1.865545e+01
1.048360e+02	-1.870472e+01
1.054415e+02	-1.875292e+01
1.060505e+02	-1.880297e+01
1.066631e+02	-1.885180e+01
1.072791e+02	-1.890067e+01
1.078988e+02	-1.895109e+01
1.085220e+02	-1.900056e+01
1.091488e+02	-1.904819e+01
1.097793e+02	-1.909875e+01
1.104133e+02	-1.914851e+01
1.110511e+02	-1.919954e+01
1.116925e+02	-1.924867e+01
1.123376e+02	-1.929834e+01
1.129865e+02	-1.934585e+01
1.136391e+02	-1.939500e+01
1.142955e+02	-1.944610e+01
1.149556e+02	-1.949591e+01
1.156196e+02	-1.954284e+01
1.162874e+02	-1.959448e+01
1.169591e+02	-1.964246e+01
1.176347e+02	-1.969414e+01
1.183141e+02	-1.974102e+01
1.189975e+02	-1.979208e+01
1.196848e+02	-1.984195e+01
1.203761e+02	-1.989081e+01
1.210714e+02	-1.993954e+01
1.217707e+02	-1.998908e+01
1.224740e+02	-2.003869e+01
1.231814e+02	-2.008944e+01
1.238929e+02	-2.013711e+01
1.246085e+02	-2.018761e+01
1.253283e+02	-2.023691e+01
1.260522e+02	-2.028769e+01
1.267802e+02	-2.033743e+01
1.275125e+02	-2.038613e+01
1.282490e+02	-2.043479e+01
1.289898e+02	-2.048527e+01
1.297348e+02	-2.053497e+01
1.304842e+02	-2.058537e+01
1.312378e+02	-2.063277e+01
1.319959e+02	-2.068562e+01
1.327583e+02	-2.073340e+01
1.335251e+02	-2.078245e+01
1.342963e+02	-2.083447e+01
1.350720e+02	-2.088392e+01
1.358522e+02	-2.093136e+01
1.366368e+02	-2.098051e+01
1.374260e+02	-2.103123e+01
1.382198e+02	-2.108030e+01
1.390182e+02	-2.112932e+01
1.398211e+02	-2.118122e+01
1.406287e+02	-2.122935e+01
1.414410e+02	-2.128020e+01
1.422579e+02	-2.132852e+01
1.430796e+02	-2.137804e+01
1.439060e+02	-2.142771e+01
1.447372e+02	-2.147822e+01
1.455732e+02	-2.152802e+01
1.464141e+02	-2.157784e+01
1.472597e+02	-2.162595e+01
1.481103e+02	-2.167534e+01
1.489658e+02	-2.172629e+01
1.498262e+02	-2.177647e+01
1.506916e+02	-2.182593e+01
1.515620e+02	-2.187716e+01
1.524374e+02	-2.192642e+01
1.533179e+02	-2.197584e+01
1.542034e+02	-2.202354e+01
1.550941e+02	-2.207481e+01
1.559899e+02	-2.212315e+01
1.568909e+02	-2.217570e+01
1.577971e+02	-2.222504e+01
1.587085e+02	-2.227538e+01
1.596252e+02	-2.232297e+01
1.605472e+02	-2.237328e+01
1.614745e+02	-2.242268e+01
1.624072e+02	-2.247161e+01
1.633453e+02	-2.252132e+01
1.642887e+02	-2.256935e+01
1.652377e+02	-2.262072e+01
1.661921e+02	-2.266944e+01
1.671520e+02	-2.272111e+01
1.681175e+02	-2.276891e+01
1.690885e+02	-2.282211e+01
1.700651e+02	-2.286951e+01
1.710474e+02	-2.292327e+01
1.720354e+02	-2.296837e+01
1.730291e+02	-2.301986e+01
1.740285e+02	-2.306972e+01
1.750337e+02	-2.311898e+01
1.760446e+02	-2.316935e+01
1.770615e+02	-2.322052e+01
1.780842e+02	-2.326890e+01
1.791128e+02	-2.331757e+01
1.801473e+02	-2.336724e+01
1.811878e+02	-2.341896e+01
1.822344e+02	-2.346937e+01
1.832870e+02	-2.351844e+01
1.843456e+02	-2.356994e+01
1.854104e+02	-2.361600e+01
1.864813e+02	-2.366834e+01
1.875584e+02	-2.371695e+01
1.886418e+02	-2.376813e+01
1.897313e+02	-2.381657e+01
1.908272e+02	-2.386786e+01
1.919294e+02	-2.391477e+01
1.930380e+02	-2.396735e+01
1.941530e+02	-2.401441e+01
1.952744e+02	-2.406739e+01
1.964023e+02	-2.411441e+01
1.975367e+02	-2.416581e+01
1.986777e+02	-2.421737e+01
1.998252e+02	-2.426410e+01
2.009794e+02	-2.431414e+01
2.021403e+02	-2.436386e+01
2.033078e+02	-2.441398e+01
2.044821e+02	-2.446611e+01
2.056632e+02	-2.451333e+01
2.068511e+02	-2.456568e+01
2.080459e+02	-2.461703e+01
2.092475e+02	-2.466607e+01
2.104561e+02	-2.471432e+01
2.116717e+02	-2.476474e+01
2.128943e+02	-2.481727e+01
2.141240e+02	-2.486389e+01
2.153608e+02	-2.491465e+01
2.166047e+02	-2.496620e+01
2.178558e+02	-2.501330e+01
2.191141e+02	-2.506456e+01
2.203797e+02	-2.511617e+01
2.216526e+02	-2.516215e+01
2.229329e+02	-2.521542e+01
2.242205e+02	-2.526395e+01
2.255156e+02	-2.531687e+01
2.268182e+02	-2.536396e+01
2.281283e+02	-2.541335e+01
2.294459e+02	-2.546339e+01
2.307712e+02	-2.551468e+01
2.321041e+02	-2.556055e+01
2.334447e+02	-2.561123e+01
2.347931e+02	-2.566213e+01
2.361493e+02	-2.571257e+01
2.375133e+02	-2.576195e+01
2.388851e+02	-2.581188e+01
2.402649e+02	-2.586244e+01
2.416527e+02	-2.591328e+01
2.430484e+02	-2.596322e+01
2.444523e+02	-2.601059e+01
2.458642e+02	-2.606332e+01
2.472843e+02	-2.611290e+01
2.487126e+02	-2.616163e+01
2.501492e+02	-2.621536e+01
2.515940e+02	-2.626513e+01
2.530472e+02	-2.631389e+01
2.545088e+02	-2.635925e+01
2.559789e+02	-2.641191e+01
2.574574e+02	-2.646084e+01
2.589444e+02	-2.651414e+01
2.604401e+02	-2.656527e+01
2.619444e+02	-2.661693e+01
2.634574e+02	-2.666089e+01
2.649791e+02	-2.671061e+01
2.665096e+02	-2.676344e+01
2.680489e+02	-2.680888e+01
2.695972e+02	-2.686446e+01
2.711544e+02	-2.691361e+01
2.727205e+02	-2.696248e+01
2.742958e+02	-2.701356e+01
2.758801e+02	-2.706399e+01
2.774736e+02	-2.711092e+01
2.790762e+02	-2.716123e+01
2.806882e+02	-2.721331e+01
2.823094e+02	-2.726067e+01
2.839400e+02	-2.731030e+01
2.855800e+02	-2.736663e+01
2.872295e+02	-2.741175e+01
2.888886e+02	-2.746221e+01
2.905572e+02	-2.751341e+01
2.922354e+02	-2.756076e+01
2.939234e+02	-2.761146e+01
2.956211e+02	-2.766014e+01
2.973286e+02	-2.771513e+01
2.990459e+02	-2.776211e+01
3.007732e+02	-2.780908e+01
3.025104e+02	-2.786504e+01
3.042577e+02	-2.791264e+01
3.060151e+02	-2.796199e+01
3.077826e+02	-2.801389e+01
3.095604e+02	-2.806328e+01
3.113484e+02	-2.811065e+01
3.131467e+02	-2.816240e+01
3.149554e+02	-2.821090e+01
3.167746e+02	-2.825720e+01
3.186043e+02	-2.831053e+01
3.204445e+02	-2.836661e+01
3.222954e+02	-2.841347e+01
3.241570e+02	-2.846132e+01
3.260293e+02	-2.851107e+01
3.279124e+02	-2.856426e+01
3.298064e+02	-2.861208e+01
3.317114e+02	-2.866054e+01
3.336273e+02	-2.871201e+01
3.355544e+02	-2.876036e+01
3.374925e+02	-2.881333e+01
3.394418e+02	-2.886258e+01
3.414024e+02	-2.891770e+01
3.433744e+02	-2.896441e+01
3.453577e+02	-2.901190e+01
3.473525e+02	-2.906099e+01
3.493588e+02	-2.911390e+01
3.513766e+02	-2.916022e+01
3.534062e+02	-2.921591e+01
3.554474e+02	-2.926541e+01
3.575005e+02	-2.931834e+01
3.595654e+02	-2.936174e+01
3.616422e+02	-2.941330e+01
3.637311e+02	-2.945958e+01
3.658320e+02	-2.951047e+01
3.679450e+02	-2.956370e+01
3.700702e+02	-2.961893e+01
3.722077e+02	-2.966556e+01
3.743576e+02	-2.971947e+01
3.765199e+02	-2.976356e+01
3.786946e+02	-2.981679e+01
3.808820e+02	-2.986604e+01
3.830819e+02	-2.991190e+01
3.852946e+02	-2.996760e+01
3.875200e+02	-3.001456e+01
3.897583e+02	-3.006573e+01
3.920096e+02	-3.010688e+01
3.942738e+02	-3.016395e+01
3.965511e+02	-3.021312e+01
3.988416e+02	-3.026235e+01
4.011452e+02	-3.031579e+01
4.034622e+02	-3.036184e+01
4.057926e+02	-3.041641e+01
4.081365e+02	-3.046542e+01
4.104938e+02	-3.051474e+01
4.128648e+02	-3.056942e+01
4.152495e+02	-3.061428e+01
4.176480e+02	-3.066342e+01
4.200603e+02	-3.071422e+01
4.224866e+02	-3.076243e+01
4.249268e+02	-3.080846e+01
4.273812e+02	-3.087196e+01
4.298497e+02	-3.091559e+01
4.323325e+02	-3.096831e+01
4.348297e+02	-3.101520e+01
4.373412e+02	-3.107414e+01
4.398673e+02	-3.111458e+01
4.424079e+02	-3.116601e+01
4.449633e+02	-3.121976e+01
4.475334e+02	-3.126837e+01
4.501183e+02	-3.131508e+01
4.527182e+02	-3.136737e+01
4.553330e+02	-3.141474e+01
4.579630e+02	-3.146194e+01
4.606082e+02	-3.151469e+01
4.632687e+02	-3.157077e+01
4.659445e+02	-3.161551e+01
4.686358e+02	-3.166637e+01
4.713426e+02	-3.171872e+01
4.740650e+02	-3.176979e+01
4.768032e+02	-3.181831e+01
4.795572e+02	-3.187385e+01
4.823271e+02	-3.192184e+01
4.851130e+02	-3.197014e+01
4.879150e+02	-3.201677e+01
4.907332e+02	-3.206748e+01
4.935676e+02	-3.211962e+01
4.964185e+02	-3.217683e+01
4.992858e+02	-3.222224e+01
5.021696e+02	-3.227439e+01
5.050701e+02	-3.232046e+01
5.079874e+02	-3.237584e+01
5.109215e+02	-3.241527e+01
5.138726e+02	-3.246682e+01
5.168407e+02	-3.251907e+01
5.198259e+02	-3.257287e+01
5.228284e+02	-3.261628e+01
5.258482e+02	-3.267233e+01
5.288855e+02	-3.272749e+01
5.319403e+02	-3.277450e+01
5.350128e+02	-3.282357e+01
5.381030e+02	-3.287888e+01
5.412111e+02	-3.291991e+01
5.443371e+02	-3.296627e+01
5.474812e+02	-3.302910e+01
5.506434e+02	-3.307226e+01
5.538239e+02	-3.312889e+01
5.570228e+02	-3.317308e+01
5.602401e+02	-3.323349e+01
5.634760e+02	-3.328160e+01
5.667306e+02	-3.333165e+01
5.700040e+02	-3.337324e+01
5.732964e+02	-3.342271e+01
5.766077e+02	-3.347162e+01
5.799382e+02	-3.352733e+01
5.832879e+02	-3.358065e+01
5.866569e+02	-3.363004e+01
5.900454e+02	-3.368186e+01
5.934535e+02	-3.373067e+01
5.968813e+02	-3.378337e+01
6.003288e+02	-3.383037e+01
6.037963e+02	-3.387568e+01
6.072838e+02	-3.393639e+01
6.107914e+02	-3.398507e+01
6.143194e+02	-3.402822e+01
6.178676e+02	-3.407769e+01
6.214364e+02	-3.412547e+01
6.250258e+02	-3.417920e+01
6.286359e+02	-3.423775e+01
6.322669e+02	-3.428399e+01
6.359189e+02	-3.432749e+01
6.395919e+02	-3.437680e+01
6.432862e+02	-3.443248e+01
6.470017e+02	-3.447826e+01
6.507388e+02	-3.453466e+01
6.544974e+02	-3.457478e+01
6.582778e+02	-3.463855e+01
6.620800e+02	-3.468774e+01
6.659041e+02	-3.473459e+01
6.697504e+02	-3.479808e+01
6.736188e+02	-3.483212e+01
6.775096e+02	-3.488217e+01
6.814229e+02	-3.492892e+01
6.853587e+02	-3.498728e+01
6.893173e+02	-3.503804e+01
6.932988e+02	-3.509105e+01
6.973033e+02	-3.512623e+01
7.013309e+02	-3.518770e+01
