Frequency(Hz)	Magnitude(dB)
1.000000e+01	-2.213383e+00
1.005776e+01	-2.233211e+00
1.011585e+01	-2.253529e+00
1.017428e+01	-2.274003e+00
1.023305e+01	-2.294300e+00
1.029215e+01	-2.314966e+00
1.035160e+01	-2.335874e+00
1.041139e+01	-2.356706e+00
1.047153e+01	-2.377622e+00
1.053201e+01	-2.398512e+00
1.059284e+01	-2.419759e+00
1.065403e+01	-2.441352e+00
1.071556e+01	-2.462894e+00
1.077746e+01	-2.484758e+00
1.083971e+01	-2.506609e+00
1.090232e+01	-2.528590e+00
1.096529e+01	-2.550912e+00
1.102862e+01	-2.572918e+00
1.109232e+01	-2.595648e+00
1.115639e+01	-2.618050e+00
1.122083e+01	-2.640807e+00
1.128564e+01	-2.663882e+00
1.135083e+01	-2.686683e+00
1.141639e+01	-2.709678e+00
1.148233e+01	-2.732863e+00
1.154865e+01	-2.756560e+00
1.161536e+01	-2.780052e+00
1.168245e+01	-2.803656e+00
1.174992e+01	-2.827657e+00
1.181779e+01	-2.851742e+00
1.188605e+01	-2.875803e+00
1.195470e+01	-2.900263e+00
1.202375e+01	-2.924663e+00
1.209320e+01	-2.949058e+00
1.216305e+01	-2.973797e+00
1.223330e+01	-2.999023e+00
1.230396e+01	-3.024058e+00
1.237503e+01	-3.049122e+00
1.244651e+01	-3.074119e+00
1.251840e+01	-3.099668e+00
1.259070e+01	-3.125411e+00
1.266343e+01	-3.151221e+00
1.273657e+01	-3.176949e+00
1.281014e+01	-3.203074e+00
1.288413e+01	-3.228910e+00
1.295855e+01	-3.255349e+00
1.303339e+01	-3.281690e+00
1.310867e+01	-3.308551e+00
1.318439e+01	-3.335289e+00
1.326054e+01	-3.362098e+00
1.333713e+01	-3.389222e+00
1.341417e+01	-3.416298e+00
1.349165e+01	-3.443637e+00
1.356958e+01	-3.471025e+00
1.364795e+01	-3.498665e+00
1.372678e+01	-3.526521e+00
1.380607e+01	-3.554421e+00
1.388581e+01	-3.582113e+00
1.396602e+01	-3.610474e+00
1.404668e+01	-3.638635e+00
1.412782e+01	-3.667287e+00
1.420942e+01	-3.695992e+00
1.429149e+01	-3.724702e+00
1.437404e+01	-3.753421e+00
1.445706e+01	-3.782651e+00
1.454057e+01	-3.811555e+00
1.462455e+01	-3.840877e+00
1.470902e+01	-3.870350e+00
1.479398e+01	-3.899951e+00
1.487943e+01	-3.929773e+00
1.496537e+01	-3.959432e+00
1.505181e+01	-3.989524e+00
1.513875e+01	-4.019566e+00
1.522619e+01	-4.050067e+00
1.531414e+01	-4.080501e+00
1.540259e+01	-4.110769e+00
1.549156e+01	-4.141759e+00
1.558103e+01	-4.172513e+00
1.567103e+01	-4.203310e+00
1.576155e+01	-4.234435e+00
1.585258e+01	-4.265760e+00
1.594415e+01	-4.296813e+00
1.603624e+01	-4.328525e+00
1.612886e+01	-4.360165e+00
1.622202e+01	-4.391873e+00
1.631572e+01	-4.423769e+00
1.640996e+01	-4.455902e+00
1.650474e+01	-4.487887e+00
1.660008e+01	-4.520366e+00
1.669596e+01	-4.552647e+00
1.679239e+01	-4.585388e+00
1.688938e+01	-4.617935e+00
1.698694e+01	-4.650707e+00
1.708505e+01	-4.683815e+00
1.718373e+01	-4.716855e+00
1.728299e+01	-4.749733e+00
1.738281e+01	-4.783443e+00
1.748322e+01	-4.816806e+00
1.758420e+01	-4.850499e+00
1.768576e+01	-4.884324e+00
1.778792e+01	-4.918140e+00
1.789066e+01	-4.951983e+00
1.799399e+01	-4.985795e+00
1.809793e+01	-5.020147e+00
1.820246e+01	-5.054432e+00
1.830760e+01	-5.088718e+00
1.841334e+01	-5.123471e+00
1.851969e+01	-5.158453e+00
1.862666e+01	-5.193195e+00
1.873425e+01	-5.228032e+00
1.884246e+01	-5.263352e+00
1.895129e+01	-5.298698e+00
1.906075e+01	-5.333969e+00
1.917085e+01	-5.369205e+00
1.928158e+01	-5.404646e+00
1.939295e+01	-5.440213e+00
1.950496e+01	-5.476251e+00
1.961762e+01	-5.512050e+00
1.973093e+01	-5.548073e+00
1.984490e+01	-5.584268e+00
1.995952e+01	-5.620504e+00
2.007480e+01	-5.656928e+00
2.019076e+01	-5.693192e+00
2.030738e+01	-5.729818e+00
2.042467e+01	-5.766648e+00
2.054264e+01	-5.803552e+00
2.066130e+01	-5.840282e+00
2.078064e+01	-5.877511e+00
2.090066e+01	-5.914302e+00
2.102139e+01	-5.952102e+00
2.114280e+01	-5.988967e+00
2.126492e+01	-6.027103e+00
2.138775e+01	-6.064214e+00
2.151128e+01	-6.102002e+00
2.163553e+01	-6.140137e+00
2.176050e+01	-6.177903e+00
2.188619e+01	-6.215527e+00
2.201260e+01	-6.253804e+00
2.213974e+01	-6.292505e+00
2.226762e+01	-6.330502e+00
2.239624e+01	-6.369021e+00
2.252560e+01	-6.407171e+00
2.265571e+01	-6.446133e+00
2.278656e+01	-6.484864e+00
2.291818e+01	-6.523245e+00
2.305055e+01	-6.562559e+00
2.318369e+01	-6.601278e+00
2.331760e+01	-6.640580e+00
2.345228e+01	-6.679700e+00
2.358774e+01	-6.719418e+00
2.372398e+01	-6.758844e+00
2.386101e+01	-6.798537e+00
2.399883e+01	-6.837801e+00
2.413745e+01	-6.877327e+00
2.427686e+01	-6.917024e+00
2.441709e+01	-6.957375e+00
2.455812e+01	-6.997498e+00
2.469997e+01	-7.037381e+00
2.484263e+01	-7.077420e+00
2.498612e+01	-7.117921e+00
2.513044e+01	-7.157951e+00
2.527559e+01	-7.198834e+00
2.542158e+01	-7.239177e+00
2.556842e+01	-7.279709e+00
2.571610e+01	-7.320617e+00
2.586463e+01	-7.361206e+00
2.601403e+01	-7.402174e+00
2.616428e+01	-7.442796e+00
2.631541e+01	-7.484008e+00
2.646740e+01	-7.525330e+00
2.662028e+01	-7.566356e+00
2.677404e+01	-7.607574e+00
2.692868e+01	-7.648818e+00
2.708422e+01	-7.690356e+00
2.724066e+01	-7.732095e+00
2.739800e+01	-7.773987e+00
2.755625e+01	-7.815527e+00
2.771541e+01	-7.857140e+00
2.787550e+01	-7.899228e+00
2.803650e+01	-7.940844e+00
2.819844e+01	-7.983260e+00
2.836131e+01	-8.025234e+00
2.852513e+01	-8.067253e+00
2.868989e+01	-8.109702e+00
2.885560e+01	-8.152099e+00
2.902227e+01	-8.194296e+00
2.918990e+01	-8.236857e+00
2.935850e+01	-8.279436e+00
2.952807e+01	-8.321758e+00
2.969863e+01	-8.364927e+00
2.987016e+01	-8.407138e+00
3.004269e+01	-8.450215e+00
3.021622e+01	-8.492834e+00
3.039075e+01	-8.536287e+00
3.056628e+01	-8.579278e+00
3.074283e+01	-8.622649e+00
3.092040e+01	-8.665926e+00
3.109900e+01	-8.708946e+00
3.127862e+01	-8.752703e+00
3.145929e+01	-8.795675e+00
3.164099e+01	-8.838944e+00
3.182375e+01	-8.882998e+00
3.200756e+01	-8.926443e+00
3.219244e+01	-8.969910e+00
3.237838e+01	-9.013402e+00
3.256540e+01	-9.057403e+00
3.275349e+01	-9.101697e+00
3.294268e+01	-9.145142e+00
3.313295e+01	-9.188736e+00
3.332433e+01	-9.232921e+00
3.351681e+01	-9.277446e+00
3.371040e+01	-9.321770e+00
3.390511e+01	-9.365615e+00
3.410094e+01	-9.409660e+00
3.429791e+01	-9.454193e+00
3.449601e+01	-9.498465e+00
3.469526e+01	-9.542855e+00
3.489566e+01	-9.587609e+00
3.509721e+01	-9.631776e+00
3.529993e+01	-9.676351e+00
3.550382e+01	-9.721300e+00
3.570889e+01	-9.765886e+00
3.591515e+01	-9.811070e+00
3.612259e+01	-9.855544e+00
3.633123e+01	-9.900721e+00
3.654108e+01	-9.945337e+00
3.675214e+01	-9.989959e+00
3.696442e+01	-1.003552e+01
3.717792e+01	-1.008071e+01
3.739266e+01	-1.012593e+01
3.760864e+01	-1.017086e+01
3.782587e+01	-1.021617e+01
3.804435e+01	-1.026141e+01
3.826409e+01	-1.030701e+01
3.848510e+01	-1.035193e+01
3.870739e+01	-1.039730e+01
3.893096e+01	-1.044290e+01
3.915583e+01	-1.048853e+01
3.938199e+01	-1.053433e+01
3.960946e+01	-1.058022e+01
3.983824e+01	-1.062554e+01
4.006834e+01	-1.067126e+01
4.029978e+01	-1.071743e+01
4.053255e+01	-1.076239e+01
4.076666e+01	-1.080880e+01
4.100213e+01	-1.085455e+01
4.123896e+01	-1.090025e+01
4.147715e+01	-1.094614e+01
4.171672e+01	-1.099293e+01
4.195767e+01	-1.103862e+01
4.220002e+01	-1.108498e+01
4.244377e+01	-1.113092e+01
4.268892e+01	-1.117696e+01
4.293549e+01	-1.122343e+01
4.318348e+01	-1.126959e+01
4.343291e+01	-1.131605e+01
4.368377e+01	-1.136186e+01
4.393609e+01	-1.140835e+01
4.418986e+01	-1.145497e+01
4.444510e+01	-1.150121e+01
4.470182e+01	-1.154772e+01
4.496001e+01	-1.159481e+01
4.521970e+01	-1.164130e+01
4.548089e+01	-1.168770e+01
4.574358e+01	-1.173445e+01
4.600779e+01	-1.178122e+01
4.627353e+01	-1.182768e+01
4.654081e+01	-1.187454e+01
4.680963e+01	-1.192135e+01
4.708000e+01	-1.196749e+01
4.735193e+01	-1.201497e+01
4.762543e+01	-1.206107e+01
4.790051e+01	-1.210863e+01
4.817719e+01	-1.215536e+01
4.845545e+01	-1.220209e+01
4.873533e+01	-1.224909e+01
4.901682e+01	-1.229679e+01
4.929994e+01	-1.234360e+01
4.958470e+01	-1.239162e+01
4.987110e+01	-1.243837e+01
5.015915e+01	-1.248561e+01
5.044887e+01	-1.253285e+01
5.074026e+01	-1.258028e+01
5.103333e+01	-1.262694e+01
5.132810e+01	-1.267546e+01
5.162457e+01	-1.272187e+01
5.192275e+01	-1.276938e+01
5.222265e+01	-1.281632e+01
5.252429e+01	-1.286449e+01
5.282767e+01	-1.291173e+01
5.313280e+01	-1.295881e+01
5.343969e+01	-1.300650e+01
5.374836e+01	-1.305456e+01
5.405880e+01	-1.310210e+01
5.437105e+01	-1.314829e+01
5.468509e+01	-1.319662e+01
5.500095e+01	-1.324455e+01
5.531863e+01	-1.329205e+01
5.563815e+01	-1.333990e+01
5.595951e+01	-1.338785e+01
5.628273e+01	-1.343547e+01
5.660782e+01	-1.348333e+01
5.693479e+01	-1.353120e+01
5.726364e+01	-1.357883e+01
5.759439e+01	-1.362642e+01
5.792705e+01	-1.367357e+01
5.826164e+01	-1.372167e+01
5.859815e+01	-1.377006e+01
5.893662e+01	-1.381847e+01
5.927703e+01	-1.386638e+01
5.961941e+01	-1.391420e+01
5.996377e+01	-1.396216e+01
6.031012e+01	-1.400991e+01
6.065847e+01	-1.405790e+01
6.100883e+01	-1.410648e+01
6.136121e+01	-1.415457e+01
6.171563e+01	-1.420330e+01
6.207210e+01	-1.425088e+01
6.243063e+01	-1.429825e+01
6.279122e+01	-1.434632e+01
6.315390e+01	-1.439467e+01
6.351868e+01	-1.444330e+01
6.388556e+01	-1.449200e+01
6.425456e+01	-1.453954e+01
6.462569e+01	-1.458808e+01
6.499897e+01	-1.463698e+01
6.537440e+01	-1.468478e+01
6.575200e+01	-1.473207e+01
6.613178e+01	-1.478274e+01
6.651375e+01	-1.483011e+01
6.689793e+01	-1.487816e+01
6.728433e+01	-1.492634e+01
6.767297e+01	-1.497495e+01
6.806384e+01	-1.502334e+01
6.845698e+01	-1.507185e+01
6.885238e+01	-1.512002e+01
6.925007e+01	-1.516864e+01
6.965005e+01	-1.521713e+01
7.005235e+01	-1.526584e+01
7.045697e+01	-1.531354e+01
7.086393e+01	-1.536306e+01
7.127323e+01	-1.541154e+01
7.168490e+01	-1.545989e+01
7.209895e+01	-1.550943e+01
7.251539e+01	-1.555825e+01
7.293424e+01	-1.560666e+01
7.335551e+01	-1.565388e+01
7.377920e+01	-1.570254e+01
7.420535e+01	-1.575313e+01
7.463396e+01	-1.579979e+01
7.506504e+01	-1.584974e+01
7.549861e+01	-1.589717e+01
7.593469e+01	-1.594813e+01
7.637328e+01	-1.599537e+01
7.681441e+01	-1.604505e+01
7.725809e+01	-1.609211e+01
7.770433e+01	-1.614292e+01
7.815315e+01	-1.619243e+01
7.860456e+01	-1.624024e+01
7.905857e+01	-1.628815e+01
7.951521e+01	-1.633790e+01
7.997449e+01	-1.638579e+01
8.043642e+01	-1.643480e+01
8.090102e+01	-1.648484e+01
8.136830e+01	-1.653377e+01
8.183828e+01	-1.658249e+01
8.231097e+01	-1.663175e+01
8.278640e+01	-1.668052e+01
8.326457e+01	-1.672954e+01
8.374550e+01	-1.677801e+01
8.422921e+01	-1.682707e+01
8.471572e+01	-1.687508e+01
8.520503e+01	-1.692478e+01
8.569717e+01	-1.697429e+01
8.619215e+01	-1.702393e+01
8.669000e+01	-1.707165e+01
8.719071e+01	-1.712039e+01
8.769432e+01	-1.716950e+01
8.820084e+01	-1.722000e+01
8.871029e+01	-1.726821e+01
8.922267e+01	-1.731709e+01
8.973802e+01	-1.736675e+01
9.025634e+01	-1.741569e+01
9.077766e+01	-1.746508e+01
9.130199e+01	-1.751365e+01
9.182935e+01	-1.756279e+01
9.235975e+01	-1.761301e+01
9.289321e+01	-1.766208e+01
9.342976e+01	-1.770987e+01
9.396941e+01	-1.776023e+01
9.451217e+01	-1.780857e+01
9.505807e+01	-1.785796e+01
9.560712e+01	-1.790834e+01
9.615934e+01	-1.795623e+01
9.671476e+01	-1.800634e+01
9.727338e+01	-1.805507e+01
9.783522e+01	-1.810454e+01
9.840032e+01	-1.815339e+01
9.896867e+01	-1.820304e+01
9.954031e+01	-1.825224e+01
1.001153e+02	-1.830161e+01
1.006935e+02	-1.835072e+01
1.012751e+02	-1.839965e+01
1.018601e+02	-1.844955e+01
1.024484e+02	-1.849822e+01
1.030402e+02	-1.854738e+01
1.036353e+02	-1.859747e+01
1.042339e+02	-1.864712e+01
1.048360e+02	-1.869583e+01
1.054415e+02	-1.874453e+01
1.060505e+02	-1.879429e+01
1.066631e+02	-1.884531e+01
1.072791e+02	-1.889340e+01
1.078988e+02	-1.894261e+01
1.085220e+02	-1.899212e+01
1.091488e+02	-1.904208e+01
1.097793e+02	-1.909092e+01
1.104133e+02	-1.914122e+01
1.110511e+02	-1.918941e+01
1.116925e+02	-1.924100e+01
1.123376e+02	-1.928852e+01
1.129865e+02	-1.933758e+01
1.136391e+02	-1.938704e+01
1.142955e+02	-1.943667e+01
1.149556e+02	-1.948664e+01
1.156196e+02	-1.953606e+01
1.162874e+02	-1.958571e+01
1.169591e+02	-1.963531e+01
1.176347e+02	-1.968591e+01
1.183141e+02	-1.973651e+01
1.189975e+02	-1.978349e+01
1.196848e+02	-1.983365e+01
1.203761e+02	-1.988174e+01
1.210714e+02	-1.993190e+01
1.217707e+02	-1.998275e+01
1.224740e+02	-2.003183e+01
1.231814e+02	-2.008097e+01
1.238929e+02	-2.012968e+01
1.246085e+02	-2.017990e+01
1.253283e+02	-2.023166e+01
1.260522e+02	-2.027980e+01
1.267802e+02	-2.032925e+01
1.275125e+02	-2.037980e+01
1.282490e+02	-2.042685e+01
1.289898e+02	-2.047677e+01
1.297348e+02	-2.052799e+01
1.304842e+02	-2.057728e+01
1.312378e+02	-2.062685e+01
1.319959e+02	-2.067726e+01
1.327583e+02	-2.072688e+01
1.335251e+02	-2.077576e+01
1.342963e+02	-2.082507e+01
1.350720e+02	-2.087498e+01
1.358522e+02	-2.092395e+01
1.366368e+02	-2.097197e+01
1.374260e+02	-2.102268e+01
1.382198e+02	-2.107105e+01
1.390182e+02	-2.112346e+01
1.398211e+02	-2.117195e+01
1.406287e+02	-2.122235e+01
1.414410e+02	-2.127020e+01
1.422579e+02	-2.132194e+01
1.430796e+02	-2.137214e+01
1.439060e+02	-2.142010e+01
1.447372e+02	-2.147102e+01
1.455732e+02	-2.152051e+01
1.464141e+02	-2.156992e+01
1.472597e+02	-2.162036e+01
1.481103e+02	-2.166957e+01
1.489658e+02	-2.171858e+01
1.498262e+02	-2.176698e+01
1.506916e+02	-2.181763e+01
1.515620e+02	-2.186727e+01
1.524374e+02	-2.191850e+01
1.533179e+02	-2.196861e+01
1.542034e+02	-2.201726e+01
1.550941e+02	-2.206674e+01
1.559899e+02	-2.211537e+01
1.568909e+02	-2.216460e+01
1.577971e+02	-2.221792e+01
1.587085e+02	-2.226775e+01
1.596252e+02	-2.231497e+01
1.605472e+02	-2.236601e+01
1.614745e+02	-2.241438e+01
1.624072e+02	-2.246367e+01
1.633453e+02	-2.251488e+01
1.642887e+02	-2.256416e+01
1.652377e+02	-2.261437e+01
1.661921e+02	-2.266381e+01
1.671520e+02	-2.271595e+01
1.681175e+02	-2.276196e+01
1.690885e+02	-2.281269e+01
1.700651e+02	-2.286127e+01
1.710474e+02	-2.291108e+01
1.720354e+02	-2.296447e+01
1.730291e+02	-2.301361e+01
1.740285e+02	-2.306311e+01
1.750337e+02	-2.311128e+01
1.760446e+02	-2.316068e+01
1.770615e+02	-2.320916e+01
1.780842e+02	-2.325956e+01
1.791128e+02	-2.331034e+01
1.801473e+02	-2.336151e+01
1.811878e+02	-2.341055e+01
1.822344e+02	-2.346158e+01
1.832870e+02	-2.351037e+01
1.843456e+02	-2.356082e+01
1.854104e+02	-2.360902e+01
1.864813e+02	-2.366093e+01
1.875584e+02	-2.370799e+01
1.886418e+02	-2.375869e+01
1.897313e+02	-2.380662e+01
1.908272e+02	-2.386011e+01
1.919294e+02	-2.390997e+01
1.930380e+02	-2.395869e+01
1.941530e+02	-2.401050e+01
1.952744e+02	-2.406069e+01
1.964023e+02	-2.411038e+01
1.975367e+02	-2.415719e+01
1.986777e+02	-2.420968e+01
1.998252e+02	-2.425732e+01
2.009794e+02	-2.430787e+01
2.021403e+02	-2.435956e+01
2.033078e+02	-2.440780e+01
2.044821e+02	-2.445580e+01
2.056632e+02	-2.450749e+01
2.068511e+02	-2.455354e+01
2.080459e+02	-2.460773e+01
2.092475e+02	-2.465796e+01
2.104561e+02	-2.470450e+01
2.116717e+02	-2.475530e+01
2.128943e+02	-2.480897e+01
2.141240e+02	-2.485613e+01
2.153608e+02	-2.490607e+01
2.166047e+02	-2.495769e+01
2.178558e+02	-2.500749e+01
2.191141e+02	-2.505613e+01
2.203797e+02	-2.510534e+01
2.216526e+02	-2.515699e+01
2.229329e+02	-2.520691e+01
2.242205e+02	-2.525593e+01
2.255156e+02	-2.530519e+01
2.268182e+02	-2.535560e+01
2.281283e+02	-2.540495e+01
2.294459e+02	-2.545507e+01
2.307712e+02	-2.550703e+01
2.321041e+02	-2.555698e+01
2.334447e+02	-2.560319e+01
2.347931e+02	-2.565621e+01
2.361493e+02	-2.570823e+01
2.375133e+02	-2.575377e+01
2.388851e+02	-2.580760e+01
2.402649e+02	-2.585677e+01
2.416527e+02	-2.590845e+01
2.430484e+02	-2.595393e+01
2.444523e+02	-2.600552e+01
2.458642e+02	-2.605636e+01
2.472843e+02	-2.610535e+01
2.487126e+02	-2.615574e+01
2.501492e+02	-2.620209e+01
2.515940e+02	-2.625632e+01
2.530472e+02	-2.630377e+01
2.545088e+02	-2.635588e+01
2.559789e+02	-2.640258e+01
2.574574e+02	-2.645600e+01
2.589444e+02	-2.650811e+01
2.604401e+02	-2.655202e+01
2.619444e+02	-2.660249e+01
2.634574e+02	-2.665935e+01
2.649791e+02	-2.670510e+01
2.665096e+02	-2.675147e+01
2.680489e+02	-2.680391e+01
2.695972e+02	-2.685515e+01
2.711544e+02	-2.690534e+01
2.727205e+02	-2.695482e+01
2.742958e+02	-2.700278e+01
2.758801e+02	-2.705668e+01
2.774736e+02	-2.710481e+01
2.790762e+02	-2.715471e+01
2.806882e+02	-2.720709e+01
2.823094e+02	-2.725314e+01
2.839400e+02	-2.730457e+01
2.855800e+02	-2.735364e+01
2.872295e+02	-2.740389e+01
2.888886e+02	-2.745378e+01
2.905572e+02	-2.750588e+01
2.922354e+02	-2.755410e+01
2.939234e+02	-2.760403e+01
2.956211e+02	-2.765285e+01
2.973286e+02	-2.770664e+01
2.990459e+02	-2.775147e+01
3.007732e+02	-2.780608e+01
3.025104e+02	-2.785344e+01
3.042577e+02	-2.790207e+01
3.060151e+02	-2.795486e+01
3.077826e+02	-2.800443e+01
3.095604e+02	-2.805225e+01
3.113484e+02	-2.810239e+01
3.131467e+02	-2.815129e+01
3.149554e+02	-2.820374e+01
3.167746e+02	-2.825373e+01
3.186043e+02	-2.830554e+01
3.204445e+02	-2.835594e+01
3.222954e+02	-2.839872e+01
3.241570e+02	-2.845505e+01
3.260293e+02	-2.850308e+01
3.279124e+02	-2.855798e+01
3.298064e+02	-2.860157e+01
3.317114e+02	-2.865380e+01
3.336273e+02	-2.870480e+01
3.355544e+02	-2.875644e+01
3.374925e+02	-2.880432e+01
3.394418e+02	-2.885416e+01
3.414024e+02	-2.890235e+01
3.433744e+02	-2.895559e+01
3.453577e+02	-2.900586e+01
3.473525e+02	-2.905226e+01
3.493588e+02	-2.910730e+01
3.513766e+02	-2.915305e+01
3.534062e+02	-2.920559e+01
3.554474e+02	-2.925519e+01
3.575005e+02	-2.930758e+01
3.595654e+02	-2.935312e+01
3.616422e+02	-2.940777e+01
3.637311e+02	-2.945649e+01
3.658320e+02	-2.950406e+01
3.679450e+02	-2.955628e+01
3.700702e+02	-2.960276e+01
3.722077e+02	-2.965057e+01
3.743576e+02	-2.970670e+01
3.765199e+02	-2.975444e+01
3.786946e+02	-2.981079e+01
3.808820e+02	-2.985642e+01
3.830819e+02	-2.990409e+01
3.852946e+02	-2.995462e+01
3.875200e+02	-3.000540e+01
3.897583e+02	-3.005797e+01
3.920096e+02	-3.010905e+01
3.942738e+02	-3.015705e+01
3.965511e+02	-3.020595e+01
3.988416e+02	-3.025751e+01
4.011452e+02	-3.030392e+01
4.034622e+02	-3.035840e+01
4.057926e+02	-3.040643e+01
4.081365e+02	-3.045770e+01
4.104938e+02	-3.050615e+01
4.128648e+02	-3.055515e+01
4.152495e+02	-3.061351e+01
4.176480e+02	-3.065873e+01
4.200603e+02	-3.070801e+01
4.224866e+02	-3.075564e+01
4.249268e+02	-3.080679e+01
4.273812e+02	-3.085976e+01
4.298497e+02	-3.090400e+01
4.323325e+02	-3.096437e+01
4.348297e+02	-3.100439e+01
4.373412e+02	-3.105588e+01
4.398673e+02	-3.111323e+01
4.424079e+02	-3.115661e+01
4.449633e+02	-3.120861e+01
4.475334e+02	-3.126239e+01
4.501183e+02	-3.130945e+01
4.527182e+02	-3.136497e+01
4.553330e+02	-3.139869e+01
4.579630e+02	-3.146593e+01
4.606082e+02	-3.151056e+01
4.632687e+02	-3.155818e+01
4.659445e+02	-3.161444e+01
4.686358e+02	-3.166706e+01
4.713426e+02	-3.170807e+01
4.740650e+02	-3.175903e+01
4.768032e+02	-3.181303e+01
4.795572e+02	-3.186508e+01
4.823271e+02	-3.191142e+01
4.851130e+02	-3.196148e+01
4.879150e+02	-3.201640e+01
4.907332e+02	-3.205967e+01
4.935676e+02	-3.211579e+01
4.964185e+02	-3.216248e+01
4.992858e+02	-3.221072e+01
5.021696e+02	-3.225999e+01
5.050701e+02	-3.231361e+01
5.079874e+02	-3.235853e+01
5.109215e+02	-3.241237e+01
5.138726e+02	-3.246625e+01
5.168407e+02	-3.251638e+01
5.198259e+02	-3.256659e+01
5.228284e+02	-3.261102e+01
5.258482e+02	-3.266981e+01
5.288855e+02	-3.271505e+01
5.319403e+02	-3.276499e+01
5.350128e+02	-3.282001e+01
5.381030e+02	-3.287137e+01
5.412111e+02	-3.291864e+01
5.443371e+02	-3.297464e+01
5.474812e+02	-3.302292e+01
5.506434e+02	-3.307448e+01
5.538239e+02	-3.311742e+01
5.570228e+02	-3.316856e+01
5.602401e+02	-3.321215e+01
5.634760e+02	-3.327306e+01
5.667306e+02	-3.332346e+01
5.700040e+02	-3.336158e+01
5.732964e+02	-3.341550e+01
5.766077e+02	-3.346655e+01
5.799382e+02	-3.351845e+01
5.832879e+02	-3.356516e+01
5.866569e+02	-3.361598e+01
5.900454e+02	-3.366532e+01
5.934535e+02	-3.372342e+01
5.968813e+02	-3.376490e+01
6.003288e+02	-3.382061e+01
6.037963e+02	-3.386936e+01
6.072838e+02	-3.392098e+01
6.107914e+02	-3.396752e+01
6.143194e+02	-3.402601e+01
6.178676e+02	-3.407012e+01
6.214364e+02	-3.412716e+01
6.250258e+02	-3.417796e+01
6.286359e+02	-3.422534e+01
6.322669e+02	-3.427900e+01
6.359189e+02	-3.432297e+01
6.395919e+02	-3.437372e+01
6.432862e+02	-3.442178e+01
6.470017e+02	-3.447525e+01
6.507388e+02	-3.452624e+01
6.544974e+02	-3.457798e+01
6.582778e+02	-3.462891e+01
6.620800e+02	-3.467394e+01
6.659041e+02	-3.471971e+01
6.697504e+02	-3.477015e+01
6.736188e+02	-3.483251e+01
6.775096e+02	-3.487620e+01
6.814229e+02	-3.491944e+01
6.853587e+02	-3.498513e+01
6.893173e+02	-3.502928e+01
6.932988e+02	-3.508339e+01
6.973033e+02	-3.511724e+01
7.013309e+02	-3.517706e+01
