Frequency(Hz)	Magnitude(dB)
1.000000e+01	-2.334124e+00
1.005776e+01	-2.355009e+00
1.011585e+01	-2.376099e+00
1.017428e+01	-2.397121e+00
1.023305e+01	-2.418485e+00
1.029215e+01	-2.439823e+00
1.035160e+01	-2.461474e+00
1.041139e+01	-2.483288e+00
1.047153e+01	-2.504905e+00
1.053201e+01	-2.526907e+00
1.059284e+01	-2.549187e+00
1.065403e+01	-2.571349e+00
1.071556e+01	-2.593845e+00
1.077746e+01	-2.616356e+00
1.083971e+01	-2.639265e+00
1.090232e+01	-2.662021e+00
1.096529e+01	-2.685069e+00
1.102862e+01	-2.707997e+00
1.109232e+01	-2.731298e+00
1.115639e+01	-2.755023e+00
1.122083e+01	-2.778490e+00
1.128564e+01	-2.802078e+00
1.135083e+01	-2.826065e+00
1.141639e+01	-2.849908e+00
1.148233e+01	-2.874067e+00
1.154865e+01	-2.898410e+00
1.161536e+01	-2.922751e+00
1.168245e+01	-2.947280e+00
1.174992e+01	-2.972278e+00
1.181779e+01	-2.996903e+00
1.188605e+01	-3.021904e+00
1.195470e+01	-3.047230e+00
1.202375e+01	-3.072566e+00
1.209320e+01	-3.097993e+00
1.216305e+01	-3.123531e+00
1.223330e+01	-3.149466e+00
1.230396e+01	-3.174979e+00
1.237503e+01	-3.201117e+00
1.244651e+01	-3.227411e+00
1.251840e+01	-3.253760e+00
1.259070e+01	-3.279771e+00
1.266343e+01	-3.306427e+00
1.273657e+01	-3.333447e+00
1.281014e+01	-3.360058e+00
1.288413e+01	-3.387001e+00
1.295855e+01	-3.414348e+00
1.303339e+01	-3.441829e+00
1.310867e+01	-3.469309e+00
1.318439e+01	-3.496799e+00
1.326054e+01	-3.524474e+00
1.333713e+01	-3.552403e+00
1.341417e+01	-3.580347e+00
1.349165e+01	-3.608618e+00
1.356958e+01	-3.636850e+00
1.364795e+01	-3.665266e+00
1.372678e+01	-3.693717e+00
1.380607e+01	-3.722397e+00
1.388581e+01	-3.751407e+00
1.396602e+01	-3.780532e+00
1.404668e+01	-3.809353e+00
1.412782e+01	-3.839074e+00
1.420942e+01	-3.868251e+00
1.429149e+01	-3.897904e+00
1.437404e+01	-3.927575e+00
1.445706e+01	-3.957364e+00
1.454057e+01	-3.987218e+00
1.462455e+01	-4.017397e+00
1.470902e+01	-4.047755e+00
1.479398e+01	-4.077981e+00
1.487943e+01	-4.108977e+00
1.496537e+01	-4.139410e+00
1.505181e+01	-4.170036e+00
1.513875e+01	-4.201231e+00
1.522619e+01	-4.231951e+00
1.531414e+01	-4.263418e+00
1.540259e+01	-4.294987e+00
1.549156e+01	-4.326239e+00
1.558103e+01	-4.357875e+00
1.567103e+01	-4.389642e+00
1.576155e+01	-4.421361e+00
1.585258e+01	-4.453571e+00
1.594415e+01	-4.485671e+00
1.603624e+01	-4.517919e+00
1.612886e+01	-4.550371e+00
1.622202e+01	-4.583049e+00
1.631572e+01	-4.615602e+00
1.640996e+01	-4.648531e+00
1.650474e+01	-4.681482e+00
1.660008e+01	-4.714554e+00
1.669596e+01	-4.747816e+00
1.679239e+01	-4.781070e+00
1.688938e+01	-4.814367e+00
1.698694e+01	-4.848198e+00
1.708505e+01	-4.881673e+00
1.718373e+01	-4.915643e+00
1.728299e+01	-4.949762e+00
1.738281e+01	-4.983701e+00
1.748322e+01	-5.017962e+00
1.758420e+01	-5.051977e+00
1.768576e+01	-5.086563e+00
1.778792e+01	-5.120700e+00
1.789066e+01	-5.155660e+00
1.799399e+01	-5.190747e+00
1.809793e+01	-5.225711e+00
1.820246e+01	-5.260750e+00
1.830760e+01	-5.296071e+00
1.841334e+01	-5.330935e+00
1.851969e+01	-5.366596e+00
1.862666e+01	-5.402021e+00
1.873425e+01	-5.437859e+00
1.884246e+01	-5.473395e+00
1.895129e+01	-5.509658e+00
1.906075e+01	-5.545493e+00
1.917085e+01	-5.581282e+00
1.928158e+01	-5.617737e+00
1.939295e+01	-5.654263e+00
1.950496e+01	-5.690680e+00
1.961762e+01	-5.727359e+00
1.973093e+01	-5.763804e+00
1.984490e+01	-5.800936e+00
1.995952e+01	-5.837721e+00
2.007480e+01	-5.874930e+00
2.019076e+01	-5.911879e+00
2.030738e+01	-5.948997e+00
2.042467e+01	-5.986580e+00
2.054264e+01	-6.023559e+00
2.066130e+01	-6.061552e+00
2.078064e+01	-6.099024e+00
2.090066e+01	-6.137408e+00
2.102139e+01	-6.174823e+00
2.114280e+01	-6.213064e+00
2.126492e+01	-6.251015e+00
2.138775e+01	-6.289016e+00
2.151128e+01	-6.327558e+00
2.163553e+01	-6.366192e+00
2.176050e+01	-6.404535e+00
2.188619e+01	-6.443306e+00
2.201260e+01	-6.481689e+00
2.213974e+01	-6.520645e+00
2.226762e+01	-6.560013e+00
2.239624e+01	-6.598936e+00
2.252560e+01	-6.638068e+00
2.265571e+01	-6.677143e+00
2.278656e+01	-6.716505e+00
2.291818e+01	-6.756131e+00
2.305055e+01	-6.795025e+00
2.318369e+01	-6.835023e+00
2.331760e+01	-6.875040e+00
2.345228e+01	-6.914395e+00
2.358774e+01	-6.954910e+00
2.372398e+01	-6.994692e+00
2.386101e+01	-7.034531e+00
2.399883e+01	-7.074679e+00
2.413745e+01	-7.114761e+00
2.427686e+01	-7.154999e+00
2.441709e+01	-7.195900e+00
2.455812e+01	-7.236141e+00
2.469997e+01	-7.276718e+00
2.484263e+01	-7.317691e+00
2.498612e+01	-7.358327e+00
2.513044e+01	-7.399049e+00
2.527559e+01	-7.440081e+00
2.542158e+01	-7.481423e+00
2.556842e+01	-7.522231e+00
2.571610e+01	-7.563592e+00
2.586463e+01	-7.604678e+00
2.601403e+01	-7.646195e+00
2.616428e+01	-7.687847e+00
2.631541e+01	-7.728962e+00
2.646740e+01	-7.771080e+00
2.662028e+01	-7.812064e+00
2.677404e+01	-7.854229e+00
2.692868e+01	-7.896272e+00
2.708422e+01	-7.938008e+00
2.724066e+01	-7.980579e+00
2.739800e+01	-8.022347e+00
2.755625e+01	-8.064598e+00
2.771541e+01	-8.106669e+00
2.787550e+01	-8.148651e+00
2.803650e+01	-8.191520e+00
2.819844e+01	-8.233920e+00
2.836131e+01	-8.276067e+00
2.852513e+01	-8.319212e+00
2.868989e+01	-8.362132e+00
2.885560e+01	-8.404443e+00
2.902227e+01	-8.447415e+00
2.918990e+01	-8.490368e+00
2.935850e+01	-8.533077e+00
2.952807e+01	-8.576098e+00
2.969863e+01	-8.619432e+00
2.987016e+01	-8.662572e+00
3.004269e+01	-8.705826e+00
3.021622e+01	-8.749310e+00
3.039075e+01	-8.792337e+00
3.056628e+01	-8.835906e+00
3.074283e+01	-8.879543e+00
3.092040e+01	-8.923054e+00
3.109900e+01	-8.966995e+00
3.127862e+01	-9.010216e+00
3.145929e+01	-9.054010e+00
3.164099e+01	-9.098085e+00
3.182375e+01	-9.141686e+00
3.200756e+01	-9.185628e+00
3.219244e+01	-9.229651e+00
3.237838e+01	-9.273977e+00
3.256540e+01	-9.318728e+00
3.275349e+01	-9.362326e+00
3.294268e+01	-9.406787e+00
3.313295e+01	-9.451039e+00
3.332433e+01	-9.495809e+00
3.351681e+01	-9.539452e+00
3.371040e+01	-9.584356e+00
3.390511e+01	-9.629069e+00
3.410094e+01	-9.673578e+00
3.429791e+01	-9.718361e+00
3.449601e+01	-9.763009e+00
3.469526e+01	-9.807904e+00
3.489566e+01	-9.852399e+00
3.509721e+01	-9.897461e+00
3.529993e+01	-9.941756e+00
3.550382e+01	-9.986827e+00
3.570889e+01	-1.003264e+01
3.591515e+01	-1.007742e+01
3.612259e+01	-1.012190e+01
3.633123e+01	-1.016783e+01
3.654108e+01	-1.021344e+01
3.675214e+01	-1.025806e+01
3.696442e+01	-1.030345e+01
3.717792e+01	-1.034896e+01
3.739266e+01	-1.039390e+01
3.760864e+01	-1.043985e+01
3.782587e+01	-1.048573e+01
3.804435e+01	-1.053054e+01
3.826409e+01	-1.057657e+01
3.848510e+01	-1.062188e+01
3.870739e+01	-1.066823e+01
3.893096e+01	-1.071367e+01
3.915583e+01	-1.075990e+01
3.938199e+01	-1.080544e+01
3.960946e+01	-1.085130e+01
3.983824e+01	-1.089726e+01
4.006834e+01	-1.094303e+01
4.029978e+01	-1.098913e+01
4.053255e+01	-1.103512e+01
4.076666e+01	-1.108153e+01
4.100213e+01	-1.112679e+01
4.123896e+01	-1.117373e+01
4.147715e+01	-1.121951e+01
4.171672e+01	-1.126645e+01
4.195767e+01	-1.131246e+01
4.220002e+01	-1.135929e+01
4.244377e+01	-1.140482e+01
4.268892e+01	-1.145184e+01
4.293549e+01	-1.149784e+01
4.318348e+01	-1.154419e+01
4.343291e+01	-1.159100e+01
4.368377e+01	-1.163787e+01
4.393609e+01	-1.168419e+01
4.418986e+01	-1.173048e+01
4.444510e+01	-1.177791e+01
4.470182e+01	-1.182430e+01
4.496001e+01	-1.187121e+01
4.521970e+01	-1.191837e+01
4.548089e+01	-1.196526e+01
4.574358e+01	-1.201202e+01
4.600779e+01	-1.205922e+01
4.627353e+01	-1.210542e+01
4.654081e+01	-1.215263e+01
4.680963e+01	-1.219931e+01
4.708000e+01	-1.224616e+01
4.735193e+01	-1.229286e+01
4.762543e+01	-1.234050e+01
4.790051e+01	-1.238800e+01
4.817719e+01	-1.243496e+01
4.845545e+01	-1.248178e+01
4.873533e+01	-1.252955e+01
4.901682e+01	-1.257608e+01
4.929994e+01	-1.262400e+01
4.958470e+01	-1.267116e+01
4.987110e+01	-1.271841e+01
5.015915e+01	-1.276567e+01
5.044887e+01	-1.281373e+01
5.074026e+01	-1.286103e+01
5.103333e+01	-1.290825e+01
5.132810e+01	-1.295593e+01
5.162457e+01	-1.300313e+01
5.192275e+01	-1.305072e+01
5.222265e+01	-1.309784e+01
5.252429e+01	-1.314583e+01
5.282767e+01	-1.319360e+01
5.313280e+01	-1.324162e+01
5.343969e+01	-1.328881e+01
5.374836e+01	-1.333643e+01
5.405880e+01	-1.338366e+01
5.437105e+01	-1.343192e+01
5.468509e+01	-1.347966e+01
5.500095e+01	-1.352711e+01
5.531863e+01	-1.357572e+01
5.563815e+01	-1.362313e+01
5.595951e+01	-1.367102e+01
5.628273e+01	-1.371882e+01
5.660782e+01	-1.376662e+01
5.693479e+01	-1.381500e+01
5.726364e+01	-1.386260e+01
5.759439e+01	-1.391067e+01
5.792705e+01	-1.395887e+01
5.826164e+01	-1.400695e+01
5.859815e+01	-1.405452e+01
5.893662e+01	-1.410239e+01
5.927703e+01	-1.415029e+01
5.961941e+01	-1.419904e+01
5.996377e+01	-1.424696e+01
6.031012e+01	-1.429512e+01
6.065847e+01	-1.434368e+01
6.100883e+01	-1.439152e+01
6.136121e+01	-1.443991e+01
6.171563e+01	-1.448807e+01
6.207210e+01	-1.453676e+01
6.243063e+01	-1.458452e+01
6.279122e+01	-1.463280e+01
6.315390e+01	-1.468129e+01
6.351868e+01	-1.472980e+01
6.388556e+01	-1.477863e+01
6.425456e+01	-1.482715e+01
6.462569e+01	-1.487507e+01
6.499897e+01	-1.492315e+01
6.537440e+01	-1.497229e+01
6.575200e+01	-1.502014e+01
6.613178e+01	-1.506839e+01
6.651375e+01	-1.511668e+01
6.689793e+01	-1.516477e+01
6.728433e+01	-1.521497e+01
6.767297e+01	-1.526258e+01
6.806384e+01	-1.531079e+01
6.845698e+01	-1.535980e+01
6.885238e+01	-1.540778e+01
6.925007e+01	-1.545669e+01
6.965005e+01	-1.550520e+01
7.005235e+01	-1.555399e+01
7.045697e+01	-1.560258e+01
7.086393e+01	-1.565196e+01
7.127323e+01	-1.570099e+01
7.168490e+01	-1.574944e+01
7.209895e+01	-1.579696e+01
7.251539e+01	-1.584635e+01
7.293424e+01	-1.589483e+01
7.335551e+01	-1.594360e+01
7.377920e+01	-1.599210e+01
7.420535e+01	-1.604175e+01
7.463396e+01	-1.608948e+01
7.506504e+01	-1.613852e+01
7.549861e+01	-1.618688e+01
7.593469e+01	-1.623614e+01
7.637328e+01	-1.628547e+01
7.681441e+01	-1.633474e+01
7.725809e+01	-1.638240e+01
7.770433e+01	-1.643213e+01
7.815315e+01	-1.648091e+01
7.860456e+01	-1.653003e+01
7.905857e+01	-1.657922e+01
7.951521e+01	-1.662720e+01
7.997449e+01	-1.667679e+01
8.043642e+01	-1.672488e+01
8.090102e+01	-1.677443e+01
8.136830e+01	-1.682338e+01
8.183828e+01	-1.687218e+01
8.231097e+01	-1.692023e+01
8.278640e+01	-1.696952e+01
8.326457e+01	-1.701992e+01
8.374550e+01	-1.706791e+01
8.422921e+01	-1.711651e+01
8.471572e+01	-1.716638e+01
8.520503e+01	-1.721493e+01
8.569717e+01	-1.726393e+01
8.619215e+01	-1.731239e+01
8.669000e+01	-1.736275e+01
8.719071e+01	-1.741178e+01
8.769432e+01	-1.746153e+01
8.820084e+01	-1.751133e+01
8.871029e+01	-1.755903e+01
8.922267e+01	-1.760711e+01
8.973802e+01	-1.765776e+01
9.025634e+01	-1.770696e+01
9.077766e+01	-1.775565e+01
9.130199e+01	-1.780605e+01
9.182935e+01	-1.785629e+01
9.235975e+01	-1.790392e+01
9.289321e+01	-1.795360e+01
9.342976e+01	-1.800172e+01
9.396941e+01	-1.805120e+01
9.451217e+01	-1.809989e+01
9.505807e+01	-1.815076e+01
9.560712e+01	-1.819937e+01
9.615934e+01	-1.824883e+01
9.671476e+01	-1.829691e+01
9.727338e+01	-1.834699e+01
9.783522e+01	-1.839693e+01
9.840032e+01	-1.844411e+01
9.896867e+01	-1.849576e+01
9.954031e+01	-1.854390e+01
1.001153e+02	-1.859474e+01
1.006935e+02	-1.864322e+01
1.012751e+02	-1.869195e+01
1.018601e+02	-1.874277e+01
1.024484e+02	-1.879150e+01
1.030402e+02	-1.884130e+01
1.036353e+02	-1.888951e+01
1.042339e+02	-1.893864e+01
1.048360e+02	-1.898878e+01
1.054415e+02	-1.903861e+01
1.060505e+02	-1.908825e+01
1.066631e+02	-1.913687e+01
1.072791e+02	-1.918622e+01
1.078988e+02	-1.923508e+01
1.085220e+02	-1.928628e+01
1.091488e+02	-1.933497e+01
1.097793e+02	-1.938408e+01
1.104133e+02	-1.943465e+01
1.110511e+02	-1.948331e+01
1.116925e+02	-1.953319e+01
1.123376e+02	-1.958247e+01
1.129865e+02	-1.963264e+01
1.136391e+02	-1.968026e+01
1.142955e+02	-1.972993e+01
1.149556e+02	-1.977940e+01
1.156196e+02	-1.983054e+01
1.162874e+02	-1.987986e+01
1.169591e+02	-1.992947e+01
1.176347e+02	-1.997893e+01
1.183141e+02	-2.002841e+01
1.189975e+02	-2.007623e+01
1.196848e+02	-2.012714e+01
1.203761e+02	-2.017472e+01
1.210714e+02	-2.022606e+01
1.217707e+02	-2.027558e+01
1.224740e+02	-2.032661e+01
1.231814e+02	-2.037438e+01
1.238929e+02	-2.042473e+01
1.246085e+02	-2.047285e+01
1.253283e+02	-2.052437e+01
1.260522e+02	-2.057312e+01
1.267802e+02	-2.062428e+01
1.275125e+02	-2.067175e+01
1.282490e+02	-2.072276e+01
1.289898e+02	-2.077273e+01
1.297348e+02	-2.082229e+01
1.304842e+02	-2.086955e+01
1.312378e+02	-2.091926e+01
1.319959e+02	-2.097074e+01
1.327583e+02	-2.101865e+01
1.335251e+02	-2.106984e+01
1.342963e+02	-2.112024e+01
1.350720e+02	-2.116764e+01
1.358522e+02	-2.121849e+01
1.366368e+02	-2.126784e+01
1.374260e+02	-2.131821e+01
1.382198e+02	-2.136899e+01
1.390182e+02	-2.141629e+01
1.398211e+02	-2.146789e+01
1.406287e+02	-2.151397e+01
1.414410e+02	-2.156798e+01
1.422579e+02	-2.161474e+01
1.430796e+02	-2.166717e+01
1.439060e+02	-2.171787e+01
1.447372e+02	-2.176368e+01
1.455732e+02	-2.181456e+01
1.464141e+02	-2.186203e+01
1.472597e+02	-2.191508e+01
1.481103e+02	-2.196399e+01
1.489658e+02	-2.201221e+01
1.498262e+02	-2.206280e+01
1.506916e+02	-2.211200e+01
1.515620e+02	-2.216205e+01
1.524374e+02	-2.221252e+01
1.533179e+02	-2.226301e+01
1.542034e+02	-2.231012e+01
1.550941e+02	-2.236234e+01
1.559899e+02	-2.241080e+01
1.568909e+02	-2.246196e+01
1.577971e+02	-2.251216e+01
1.587085e+02	-2.255967e+01
1.596252e+02	-2.261085e+01
1.605472e+02	-2.266190e+01
1.614745e+02	-2.270982e+01
1.624072e+02	-2.275803e+01
1.633453e+02	-2.280913e+01
1.642887e+02	-2.285771e+01
1.652377e+02	-2.291112e+01
1.661921e+02	-2.296073e+01
1.671520e+02	-2.301114e+01
1.681175e+02	-2.305789e+01
1.690885e+02	-2.310936e+01
1.700651e+02	-2.315780e+01
1.710474e+02	-2.320730e+01
1.720354e+02	-2.325750e+01
1.730291e+02	-2.330983e+01
1.740285e+02	-2.335651e+01
1.750337e+02	-2.341001e+01
1.760446e+02	-2.345727e+01
1.770615e+02	-2.350814e+01
1.780842e+02	-2.355708e+01
1.791128e+02	-2.360645e+01
1.801473e+02	-2.365564e+01
1.811878e+02	-2.370644e+01
1.822344e+02	-2.375528e+01
1.832870e+02	-2.380627e+01
1.843456e+02	-2.385642e+01
1.854104e+02	-2.390562e+01
1.864813e+02	-2.395443e+01
1.875584e+02	-2.400513e+01
1.886418e+02	-2.405525e+01
1.897313e+02	-2.410606e+01
1.908272e+02	-2.415540e+01
1.919294e+02	-2.420797e+01
1.930380e+02	-2.425554e+01
1.941530e+02	-2.430603e+01
1.952744e+02	-2.435423e+01
1.964023e+02	-2.440721e+01
1.975367e+02	-2.445373e+01
1.986777e+02	-2.450405e+01
1.998252e+02	-2.455403e+01
2.009794e+02	-2.460611e+01
2.021403e+02	-2.465278e+01
2.033078e+02	-2.470740e+01
2.044821e+02	-2.475165e+01
2.056632e+02	-2.480399e+01
2.068511e+02	-2.485633e+01
2.080459e+02	-2.490188e+01
2.092475e+02	-2.495229e+01
2.104561e+02	-2.500406e+01
2.116717e+02	-2.505398e+01
2.128943e+02	-2.510374e+01
2.141240e+02	-2.515198e+01
2.153608e+02	-2.520170e+01
2.166047e+02	-2.525109e+01
2.178558e+02	-2.530233e+01
2.191141e+02	-2.535055e+01
2.203797e+02	-2.540414e+01
2.216526e+02	-2.545308e+01
2.229329e+02	-2.550195e+01
2.242205e+02	-2.555308e+01
2.255156e+02	-2.560215e+01
2.268182e+02	-2.565249e+01
2.281283e+02	-2.570215e+01
2.294459e+02	-2.575202e+01
2.307712e+02	-2.580134e+01
2.321041e+02	-2.585062e+01
2.334447e+02	-2.590147e+01
2.347931e+02	-2.594911e+01
2.361493e+02	-2.600103e+01
2.375133e+02	-2.605067e+01
2.388851e+02	-2.610333e+01
2.402649e+02	-2.615070e+01
2.416527e+02	-2.620129e+01
2.430484e+02	-2.624896e+01
2.444523e+02	-2.630171e+01
2.458642e+02	-2.635164e+01
2.472843e+02	-2.640354e+01
2.487126e+02	-2.644980e+01
2.501492e+02	-2.650017e+01
2.515940e+02	-2.655339e+01
2.530472e+02	-2.660131e+01
2.545088e+02	-2.665297e+01
2.559789e+02	-2.669941e+01
2.574574e+02	-2.675037e+01
2.589444e+02	-2.680209e+01
2.604401e+02	-2.685121e+01
2.619444e+02	-2.690185e+01
2.634574e+02	-2.695098e+01
2.649791e+02	-2.700465e+01
2.665096e+02	-2.705110e+01
2.680489e+02	-2.709961e+01
2.695972e+02	-2.715464e+01
2.711544e+02	-2.720232e+01
2.727205e+02	-2.725172e+01
2.742958e+02	-2.730005e+01
2.758801e+02	-2.735085e+01
2.774736e+02	-2.739757e+01
2.790762e+02	-2.744873e+01
2.806882e+02	-2.750315e+01
2.823094e+02	-2.755023e+01
2.839400e+02	-2.760246e+01
2.855800e+02	-2.764772e+01
2.872295e+02	-2.770375e+01
2.888886e+02	-2.775335e+01
2.905572e+02	-2.780106e+01
2.922354e+02	-2.785064e+01
2.939234e+02	-2.790005e+01
2.956211e+02	-2.795387e+01
2.973286e+02	-2.799805e+01
2.990459e+02	-2.805135e+01
3.007732e+02	-2.810239e+01
3.025104e+02	-2.815105e+01
3.042577e+02	-2.820206e+01
3.060151e+02	-2.825284e+01
3.077826e+02	-2.829727e+01
3.095604e+02	-2.834941e+01
3.113484e+02	-2.840365e+01
3.131467e+02	-2.845439e+01
3.149554e+02	-2.850321e+01
3.167746e+02	-2.855257e+01
3.186043e+02	-2.859991e+01
3.204445e+02	-2.865300e+01
3.222954e+02	-2.870210e+01
3.241570e+02	-2.875158e+01
3.260293e+02	-2.880154e+01
3.279124e+02	-2.885293e+01
3.298064e+02	-2.890011e+01
3.317114e+02	-2.895505e+01
3.336273e+02	-2.899838e+01
3.355544e+02	-2.905204e+01
3.374925e+02	-2.910598e+01
3.394418e+02	-2.915185e+01
3.414024e+02	-2.920293e+01
3.433744e+02	-2.925223e+01
3.453577e+02	-2.930456e+01
3.473525e+02	-2.935145e+01
3.493588e+02	-2.940014e+01
3.513766e+02	-2.945302e+01
3.534062e+02	-2.950117e+01
3.554474e+02	-2.954473e+01
3.575005e+02	-2.960262e+01
3.595654e+02	-2.965438e+01
3.616422e+02	-2.970861e+01
3.637311e+02	-2.975099e+01
3.658320e+02	-2.980040e+01
3.679450e+02	-2.985232e+01
3.700702e+02	-2.990200e+01
3.722077e+02	-2.995062e+01
3.743576e+02	-3.000076e+01
3.765199e+02	-3.005073e+01
3.786946e+02	-3.010123e+01
3.808820e+02	-3.015429e+01
3.830819e+02	-3.020510e+01
3.852946e+02	-3.025216e+01
3.875200e+02	-3.030827e+01
3.897583e+02	-3.035752e+01
3.920096e+02	-3.040357e+01
3.942738e+02	-3.045332e+01
3.965511e+02	-3.050543e+01
3.988416e+02	-3.055908e+01
4.011452e+02	-3.060526e+01
4.034622e+02	-3.065858e+01
4.057926e+02	-3.070249e+01
4.081365e+02	-3.075568e+01
4.104938e+02	-3.080380e+01
4.128648e+02	-3.085497e+01
4.152495e+02	-3.090689e+01
4.176480e+02	-3.095831e+01
4.200603e+02	-3.100629e+01
4.224866e+02	-3.106083e+01
4.249268e+02	-3.111256e+01
4.273812e+02	-3.115636e+01
4.298497e+02	-3.120991e+01
4.323325e+02	-3.125283e+01
4.348297e+02	-3.131114e+01
4.373412e+02	-3.135477e+01
4.398673e+02	-3.140890e+01
4.424079e+02	-3.145878e+01
4.449633e+02	-3.150547e+01
4.475334e+02	-3.156202e+01
4.501183e+02	-3.160287e+01
4.527182e+02	-3.165867e+01
4.553330e+02	-3.170904e+01
4.579630e+02	-3.175702e+01
4.606082e+02	-3.180518e+01
4.632687e+02	-3.186216e+01
4.659445e+02	-3.191159e+01
4.686358e+02	-3.195845e+01
4.713426e+02	-3.200534e+01
4.740650e+02	-3.206207e+01
4.768032e+02	-3.211305e+01
4.795572e+02	-3.215891e+01
4.823271e+02	-3.221443e+01
4.851130e+02	-3.225795e+01
4.879150e+02	-3.231348e+01
4.907332e+02	-3.236784e+01
4.935676e+02	-3.240996e+01
4.964185e+02	-3.245998e+01
4.992858e+02	-3.250994e+01
5.021696e+02	-3.256438e+01
5.050701e+02	-3.261348e+01
5.079874e+02	-3.266562e+01
5.109215e+02	-3.271659e+01
5.138726e+02	-3.276018e+01
5.168407e+02	-3.280900e+01
5.198259e+02	-3.286310e+01
5.228284e+02	-3.291224e+01
5.258482e+02	-3.296859e+01
5.288855e+02	-3.301839e+01
5.319403e+02	-3.306472e+01
5.350128e+02	-3.311382e+01
5.381030e+02	-3.316770e+01
5.412111e+02	-3.322181e+01
5.443371e+02	-3.326557e+01
5.474812e+02	-3.332291e+01
5.506434e+02	-3.337364e+01
5.538239e+02	-3.341413e+01
5.570228e+02	-3.347194e+01
5.602401e+02	-3.351461e+01
5.634760e+02	-3.355687e+01
5.667306e+02	-3.362122e+01
5.700040e+02	-3.365959e+01
5.732964e+02	-3.372441e+01
5.766077e+02	-3.376264e+01
5.799382e+02	-3.381958e+01
5.832879e+02	-3.386462e+01
5.866569e+02	-3.392022e+01
5.900454e+02	-3.396203e+01
5.934535e+02	-3.402573e+01
5.968813e+02	-3.407308e+01
6.003288e+02	-3.411131e+01
6.037963e+02	-3.417557e+01
6.072838e+02	-3.422430e+01
6.107914e+02	-3.427933e+01
6.143194e+02	-3.431943e+01
6.178676e+02	-3.437356e+01
6.214364e+02	-3.441872e+01
6.250258e+02	-3.447584e+01
6.286359e+02	-3.452494e+01
6.322669e+02	-3.457991e+01
6.359189e+02	-3.462827e+01
6.395919e+02	-3.467570e+01
6.432862e+02	-3.472910e+01
6.470017e+02	-3.477610e+01
6.507388e+02	-3.482421e+01
6.544974e+02	-3.487489e+01
6.582778e+02	-3.493005e+01
6.620800e+02	-3.496958e+01
6.659041e+02	-3.502762e+01
6.697504e+02	-3.508055e+01
6.736188e+02	-3.513850e+01
6.775096e+02	-3.517252e+01
6.814229e+02	-3.523165e+01
6.853587e+02	-3.528389e+01
6.893173e+02	-3.533030e+01
6.932988e+02	-3.537051e+01
6.973033e+02	-3.543330e+01
7.013309e+02	-3.548679e+01
