Frequency(Hz)	Magnitude(dB)
1.000000e+01	-1.982837e+00
1.005776e+01	-2.001543e+00
1.011585e+01	-2.019976e+00
1.017428e+01	-2.038589e+00
1.023305e+01	-2.057385e+00
1.029215e+01	-2.076422e+00
1.035160e+01	-2.095364e+00
1.041139e+01	-2.114495e+00
1.047153e+01	-2.134020e+00
1.053201e+01	-2.153166e+00
1.059284e+01	-2.173021e+00
1.065403e+01	-2.192949e+00
1.071556e+01	-2.212806e+00
1.077746e+01	-2.232818e+00
1.083971e+01	-2.253107e+00
1.090232e+01	-2.273218e+00
1.096529e+01	-2.293919e+00
1.102862e+01	-2.314330e+00
1.109232e+01	-2.335024e+00
1.115639e+01	-2.356118e+00
1.122083e+01	-2.376988e+00
1.128564e+01	-2.397954e+00
1.135083e+01	-2.419416e+00
1.141639e+01	-2.440772e+00
1.148233e+01	-2.462433e+00
1.154865e+01	-2.484094e+00
1.161536e+01	-2.506045e+00
1.168245e+01	-2.527899e+00
1.174992e+01	-2.550061e+00
1.181779e+01	-2.572491e+00
1.188605e+01	-2.594835e+00
1.195470e+01	-2.617208e+00
1.202375e+01	-2.639969e+00
1.209320e+01	-2.662922e+00
1.216305e+01	-2.685881e+00
1.223330e+01	-2.709353e+00
1.230396e+01	-2.732577e+00
1.237503e+01	-2.755786e+00
1.244651e+01	-2.779475e+00
1.251840e+01	-2.803184e+00
1.259070e+01	-2.827176e+00
1.266343e+01	-2.850937e+00
1.273657e+01	-2.875315e+00
1.281014e+01	-2.899402e+00
1.288413e+01	-2.924034e+00
1.295855e+01	-2.948556e+00
1.303339e+01	-2.973184e+00
1.310867e+01	-2.998011e+00
1.318439e+01	-3.023001e+00
1.326054e+01	-3.048333e+00
1.333713e+01	-3.073605e+00
1.341417e+01	-3.098876e+00
1.349165e+01	-3.124706e+00
1.356958e+01	-3.150526e+00
1.364795e+01	-3.176293e+00
1.372678e+01	-3.202168e+00
1.380607e+01	-3.228566e+00
1.388581e+01	-3.254514e+00
1.396602e+01	-3.280995e+00
1.404668e+01	-3.307565e+00
1.412782e+01	-3.334709e+00
1.420942e+01	-3.361606e+00
1.429149e+01	-3.388561e+00
1.437404e+01	-3.415776e+00
1.445706e+01	-3.442886e+00
1.454057e+01	-3.470641e+00
1.462455e+01	-3.497825e+00
1.470902e+01	-3.525679e+00
1.479398e+01	-3.553556e+00
1.487943e+01	-3.581769e+00
1.496537e+01	-3.609975e+00
1.505181e+01	-3.637858e+00
1.513875e+01	-3.666346e+00
1.522619e+01	-3.695233e+00
1.531414e+01	-3.723832e+00
1.540259e+01	-3.752904e+00
1.549156e+01	-3.781687e+00
1.558103e+01	-3.810975e+00
1.567103e+01	-3.840296e+00
1.576155e+01	-3.869503e+00
1.585258e+01	-3.899355e+00
1.594415e+01	-3.928823e+00
1.603624e+01	-3.958574e+00
1.612886e+01	-3.988843e+00
1.622202e+01	-4.019153e+00
1.631572e+01	-4.049146e+00
1.640996e+01	-4.079691e+00
1.650474e+01	-4.110080e+00
1.660008e+01	-4.140598e+00
1.669596e+01	-4.171625e+00
1.679239e+01	-4.202603e+00
1.688938e+01	-4.233705e+00
1.698694e+01	-4.264824e+00
1.708505e+01	-4.296292e+00
1.718373e+01	-4.327641e+00
1.728299e+01	-4.359114e+00
1.738281e+01	-4.390913e+00
1.748322e+01	-4.422961e+00
1.758420e+01	-4.455052e+00
1.768576e+01	-4.487111e+00
1.778792e+01	-4.519493e+00
1.789066e+01	-4.551853e+00
1.799399e+01	-4.584597e+00
1.809793e+01	-4.616958e+00
1.820246e+01	-4.650020e+00
1.830760e+01	-4.682911e+00
1.841334e+01	-4.716063e+00
1.851969e+01	-4.749077e+00
1.862666e+01	-4.782498e+00
1.873425e+01	-4.815869e+00
1.884246e+01	-4.849486e+00
1.895129e+01	-4.883154e+00
1.906075e+01	-4.917299e+00
1.917085e+01	-4.951182e+00
1.928158e+01	-4.985342e+00
1.939295e+01	-5.019409e+00
1.950496e+01	-5.054061e+00
1.961762e+01	-5.088141e+00
1.973093e+01	-5.122560e+00
1.984490e+01	-5.157207e+00
1.995952e+01	-5.192414e+00
2.007480e+01	-5.227194e+00
2.019076e+01	-5.262081e+00
2.030738e+01	-5.297547e+00
2.042467e+01	-5.332847e+00
2.054264e+01	-5.368088e+00
2.066130e+01	-5.403813e+00
2.078064e+01	-5.439589e+00
2.090066e+01	-5.475228e+00
2.102139e+01	-5.510909e+00
2.114280e+01	-5.547255e+00
2.126492e+01	-5.583521e+00
2.138775e+01	-5.619326e+00
2.151128e+01	-5.655659e+00
2.163553e+01	-5.692462e+00
2.176050e+01	-5.728950e+00
2.188619e+01	-5.765864e+00
2.201260e+01	-5.802247e+00
2.213974e+01	-5.839134e+00
2.226762e+01	-5.876397e+00
2.239624e+01	-5.913610e+00
2.252560e+01	-5.951002e+00
2.265571e+01	-5.988302e+00
2.278656e+01	-6.025775e+00
2.291818e+01	-6.063373e+00
2.305055e+01	-6.101152e+00
2.318369e+01	-6.138919e+00
2.331760e+01	-6.176497e+00
2.345228e+01	-6.214687e+00
2.358774e+01	-6.252921e+00
2.372398e+01	-6.291187e+00
2.386101e+01	-6.329386e+00
2.399883e+01	-6.367968e+00
2.413745e+01	-6.406506e+00
2.427686e+01	-6.445343e+00
2.441709e+01	-6.483540e+00
2.455812e+01	-6.522452e+00
2.469997e+01	-6.561290e+00
2.484263e+01	-6.600270e+00
2.498612e+01	-6.639664e+00
2.513044e+01	-6.678706e+00
2.527559e+01	-6.718185e+00
2.542158e+01	-6.757778e+00
2.556842e+01	-6.797284e+00
2.571610e+01	-6.836801e+00
2.586463e+01	-6.876443e+00
2.601403e+01	-6.916529e+00
2.616428e+01	-6.955823e+00
2.631541e+01	-6.995787e+00
2.646740e+01	-7.036125e+00
2.662028e+01	-7.076422e+00
2.677404e+01	-7.116531e+00
2.692868e+01	-7.157087e+00
2.708422e+01	-7.197583e+00
2.724066e+01	-7.237576e+00
2.739800e+01	-7.278745e+00
2.755625e+01	-7.319113e+00
2.771541e+01	-7.360247e+00
2.787550e+01	-7.400906e+00
2.803650e+01	-7.441804e+00
2.819844e+01	-7.482780e+00
2.836131e+01	-7.524491e+00
2.852513e+01	-7.565410e+00
2.868989e+01	-7.606476e+00
2.885560e+01	-7.648208e+00
2.902227e+01	-7.689583e+00
2.918990e+01	-7.731134e+00
2.935850e+01	-7.772339e+00
2.952807e+01	-7.814645e+00
2.969863e+01	-7.856369e+00
2.987016e+01	-7.897844e+00
3.004269e+01	-7.939867e+00
3.021622e+01	-7.981959e+00
3.039075e+01	-8.023905e+00
3.056628e+01	-8.066210e+00
3.074283e+01	-8.108774e+00
3.092040e+01	-8.150936e+00
3.109900e+01	-8.193407e+00
3.127862e+01	-8.235320e+00
3.145929e+01	-8.278448e+00
3.164099e+01	-8.321240e+00
3.182375e+01	-8.364071e+00
3.200756e+01	-8.406130e+00
3.219244e+01	-8.449167e+00
3.237838e+01	-8.492036e+00
3.256540e+01	-8.535414e+00
3.275349e+01	-8.578321e+00
3.294268e+01	-8.621208e+00
3.313295e+01	-8.664576e+00
3.332433e+01	-8.707807e+00
3.351681e+01	-8.751217e+00
3.371040e+01	-8.794737e+00
3.390511e+01	-8.837682e+00
3.410094e+01	-8.881143e+00
3.429791e+01	-8.924607e+00
3.449601e+01	-8.969062e+00
3.469526e+01	-9.012622e+00
3.489566e+01	-9.056244e+00
3.509721e+01	-9.099889e+00
3.529993e+01	-9.143718e+00
3.550382e+01	-9.188256e+00
3.570889e+01	-9.231829e+00
3.591515e+01	-9.276201e+00
3.612259e+01	-9.319933e+00
3.633123e+01	-9.364252e+00
3.654108e+01	-9.408165e+00
3.675214e+01	-9.453063e+00
3.696442e+01	-9.497157e+00
3.717792e+01	-9.542193e+00
3.739266e+01	-9.586365e+00
3.760864e+01	-9.630388e+00
3.782587e+01	-9.675723e+00
3.804435e+01	-9.720125e+00
3.826409e+01	-9.764689e+00
3.848510e+01	-9.809330e+00
3.870739e+01	-9.854515e+00
3.893096e+01	-9.899439e+00
3.915583e+01	-9.944146e+00
3.938199e+01	-9.989332e+00
3.960946e+01	-1.003410e+01
3.983824e+01	-1.007987e+01
4.006834e+01	-1.012510e+01
4.029978e+01	-1.017009e+01
4.053255e+01	-1.021492e+01
4.076666e+01	-1.026039e+01
4.100213e+01	-1.030552e+01
4.123896e+01	-1.035098e+01
4.147715e+01	-1.039674e+01
4.171672e+01	-1.044190e+01
4.195767e+01	-1.048729e+01
4.220002e+01	-1.053278e+01
4.244377e+01	-1.057851e+01
4.268892e+01	-1.062532e+01
4.293549e+01	-1.066999e+01
4.318348e+01	-1.071537e+01
4.343291e+01	-1.076160e+01
4.368377e+01	-1.080779e+01
4.393609e+01	-1.085317e+01
4.418986e+01	-1.089895e+01
4.444510e+01	-1.094563e+01
4.470182e+01	-1.099172e+01
4.496001e+01	-1.103735e+01
4.521970e+01	-1.108293e+01
4.548089e+01	-1.113021e+01
4.574358e+01	-1.117534e+01
4.600779e+01	-1.122215e+01
4.627353e+01	-1.126835e+01
4.654081e+01	-1.131432e+01
4.680963e+01	-1.136129e+01
4.708000e+01	-1.140724e+01
4.735193e+01	-1.145401e+01
4.762543e+01	-1.150000e+01
4.790051e+01	-1.154697e+01
4.817719e+01	-1.159327e+01
4.845545e+01	-1.163957e+01
4.873533e+01	-1.168633e+01
4.901682e+01	-1.173293e+01
4.929994e+01	-1.178006e+01
4.958470e+01	-1.182652e+01
4.987110e+01	-1.187275e+01
5.015915e+01	-1.192009e+01
5.044887e+01	-1.196687e+01
5.074026e+01	-1.201386e+01
5.103333e+01	-1.206081e+01
5.132810e+01	-1.210731e+01
5.162457e+01	-1.215438e+01
5.192275e+01	-1.220152e+01
5.222265e+01	-1.224854e+01
5.252429e+01	-1.229554e+01
5.282767e+01	-1.234349e+01
5.313280e+01	-1.239022e+01
5.343969e+01	-1.243632e+01
5.374836e+01	-1.248366e+01
5.405880e+01	-1.253087e+01
5.437105e+01	-1.257888e+01
5.468509e+01	-1.262579e+01
5.500095e+01	-1.267352e+01
5.531863e+01	-1.272049e+01
5.563815e+01	-1.276769e+01
5.595951e+01	-1.281601e+01
5.628273e+01	-1.286216e+01
5.660782e+01	-1.290968e+01
5.693479e+01	-1.295842e+01
5.726364e+01	-1.300524e+01
5.759439e+01	-1.305194e+01
5.792705e+01	-1.310038e+01
5.826164e+01	-1.314756e+01
5.859815e+01	-1.319606e+01
5.893662e+01	-1.324247e+01
5.927703e+01	-1.329079e+01
5.961941e+01	-1.333834e+01
5.996377e+01	-1.338697e+01
6.031012e+01	-1.343296e+01
6.065847e+01	-1.348211e+01
6.100883e+01	-1.353027e+01
6.136121e+01	-1.357744e+01
6.171563e+01	-1.362567e+01
6.207210e+01	-1.367301e+01
6.243063e+01	-1.372122e+01
6.279122e+01	-1.376898e+01
6.315390e+01	-1.381574e+01
6.351868e+01	-1.386549e+01
6.388556e+01	-1.391232e+01
6.425456e+01	-1.396103e+01
6.462569e+01	-1.400891e+01
6.499897e+01	-1.405653e+01
6.537440e+01	-1.410553e+01
6.575200e+01	-1.415312e+01
6.613178e+01	-1.420159e+01
6.651375e+01	-1.424913e+01
6.689793e+01	-1.429724e+01
6.728433e+01	-1.434585e+01
6.767297e+01	-1.439399e+01
6.806384e+01	-1.444198e+01
6.845698e+01	-1.449045e+01
6.885238e+01	-1.453898e+01
6.925007e+01	-1.458697e+01
6.965005e+01	-1.463482e+01
7.005235e+01	-1.468343e+01
7.045697e+01	-1.473109e+01
7.086393e+01	-1.477976e+01
7.127323e+01	-1.482781e+01
7.168490e+01	-1.487692e+01
7.209895e+01	-1.492569e+01
7.251539e+01	-1.497400e+01
7.293424e+01	-1.502227e+01
7.335551e+01	-1.507085e+01
7.377920e+01	-1.511835e+01
7.420535e+01	-1.516688e+01
7.463396e+01	-1.521640e+01
7.506504e+01	-1.526454e+01
7.549861e+01	-1.531308e+01
7.593469e+01	-1.536210e+01
7.637328e+01	-1.541071e+01
7.681441e+01	-1.545989e+01
7.725809e+01	-1.550775e+01
7.770433e+01	-1.555699e+01
7.815315e+01	-1.560398e+01
7.860456e+01	-1.565336e+01
7.905857e+01	-1.570195e+01
7.951521e+01	-1.575038e+01
7.997449e+01	-1.580024e+01
8.043642e+01	-1.584768e+01
8.090102e+01	-1.589851e+01
8.136830e+01	-1.594512e+01
8.183828e+01	-1.599417e+01
8.231097e+01	-1.604405e+01
8.278640e+01	-1.609184e+01
8.326457e+01	-1.614068e+01
8.374550e+01	-1.618993e+01
8.422921e+01	-1.623807e+01
8.471572e+01	-1.628685e+01
8.520503e+01	-1.633677e+01
8.569717e+01	-1.638478e+01
8.619215e+01	-1.643417e+01
8.669000e+01	-1.648250e+01
8.719071e+01	-1.653109e+01
8.769432e+01	-1.658117e+01
8.820084e+01	-1.662981e+01
8.871029e+01	-1.667907e+01
8.922267e+01	-1.672822e+01
8.973802e+01	-1.677672e+01
9.025634e+01	-1.682581e+01
9.077766e+01	-1.687463e+01
9.130199e+01	-1.692421e+01
9.182935e+01	-1.697315e+01
9.235975e+01	-1.702198e+01
9.289321e+01	-1.707145e+01
9.342976e+01	-1.712066e+01
9.396941e+01	-1.716779e+01
9.451217e+01	-1.721907e+01
9.505807e+01	-1.726720e+01
9.560712e+01	-1.731600e+01
9.615934e+01	-1.736564e+01
9.671476e+01	-1.741486e+01
9.727338e+01	-1.746376e+01
9.783522e+01	-1.751222e+01
9.840032e+01	-1.756219e+01
9.896867e+01	-1.761081e+01
9.954031e+01	-1.765899e+01
1.001153e+02	-1.770945e+01
1.006935e+02	-1.775877e+01
1.012751e+02	-1.780870e+01
1.018601e+02	-1.785544e+01
1.024484e+02	-1.790725e+01
1.030402e+02	-1.795619e+01
1.036353e+02	-1.800361e+01
1.042339e+02	-1.805430e+01
1.048360e+02	-1.810311e+01
1.054415e+02	-1.815203e+01
1.060505e+02	-1.820159e+01
1.066631e+02	-1.825193e+01
1.072791e+02	-1.829957e+01
1.078988e+02	-1.834982e+01
1.085220e+02	-1.839781e+01
1.091488e+02	-1.844794e+01
1.097793e+02	-1.849706e+01
1.104133e+02	-1.854793e+01
1.110511e+02	-1.859695e+01
1.116925e+02	-1.864598e+01
1.123376e+02	-1.869515e+01
1.129865e+02	-1.874423e+01
1.136391e+02	-1.879469e+01
1.142955e+02	-1.884221e+01
1.149556e+02	-1.889300e+01
1.156196e+02	-1.894114e+01
1.162874e+02	-1.899181e+01
1.169591e+02	-1.904151e+01
1.176347e+02	-1.909080e+01
1.183141e+02	-1.913930e+01
1.189975e+02	-1.918783e+01
1.196848e+02	-1.923852e+01
1.203761e+02	-1.928877e+01
1.210714e+02	-1.933777e+01
1.217707e+02	-1.938537e+01
1.224740e+02	-1.943598e+01
1.231814e+02	-1.948382e+01
1.238929e+02	-1.953587e+01
1.246085e+02	-1.958399e+01
1.253283e+02	-1.963516e+01
1.260522e+02	-1.968393e+01
1.267802e+02	-1.973313e+01
1.275125e+02	-1.978413e+01
1.282490e+02	-1.983115e+01
1.289898e+02	-1.988234e+01
1.297348e+02	-1.993216e+01
1.304842e+02	-1.998092e+01
1.312378e+02	-2.003080e+01
1.319959e+02	-2.008084e+01
1.327583e+02	-2.013025e+01
1.335251e+02	-2.017605e+01
1.342963e+02	-2.022927e+01
1.350720e+02	-2.028053e+01
1.358522e+02	-2.032663e+01
1.366368e+02	-2.037829e+01
1.374260e+02	-2.042565e+01
1.382198e+02	-2.047526e+01
1.390182e+02	-2.052671e+01
1.398211e+02	-2.057498e+01
1.406287e+02	-2.062513e+01
1.414410e+02	-2.067491e+01
1.422579e+02	-2.072458e+01
1.430796e+02	-2.077348e+01
1.439060e+02	-2.082457e+01
1.447372e+02	-2.087370e+01
1.455732e+02	-2.092166e+01
1.464141e+02	-2.097300e+01
1.472597e+02	-2.102344e+01
1.481103e+02	-2.107152e+01
1.489658e+02	-2.112136e+01
1.498262e+02	-2.116869e+01
1.506916e+02	-2.122087e+01
1.515620e+02	-2.126875e+01
1.524374e+02	-2.132186e+01
1.533179e+02	-2.136902e+01
1.542034e+02	-2.141872e+01
1.550941e+02	-2.146900e+01
1.559899e+02	-2.151831e+01
1.568909e+02	-2.156887e+01
1.577971e+02	-2.161941e+01
1.587085e+02	-2.166974e+01
1.596252e+02	-2.171620e+01
1.605472e+02	-2.176741e+01
1.614745e+02	-2.181884e+01
1.624072e+02	-2.186672e+01
1.633453e+02	-2.191718e+01
1.642887e+02	-2.196713e+01
1.652377e+02	-2.201681e+01
1.661921e+02	-2.206422e+01
1.671520e+02	-2.211481e+01
1.681175e+02	-2.216713e+01
1.690885e+02	-2.221393e+01
1.700651e+02	-2.226563e+01
1.710474e+02	-2.231271e+01
1.720354e+02	-2.236513e+01
1.730291e+02	-2.241471e+01
1.740285e+02	-2.246275e+01
1.750337e+02	-2.251194e+01
1.760446e+02	-2.256075e+01
1.770615e+02	-2.260948e+01
1.780842e+02	-2.266149e+01
1.791128e+02	-2.271276e+01
1.801473e+02	-2.276251e+01
1.811878e+02	-2.281380e+01
1.822344e+02	-2.286185e+01
1.832870e+02	-2.291189e+01
1.843456e+02	-2.296195e+01
1.854104e+02	-2.301220e+01
1.864813e+02	-2.306122e+01
1.875584e+02	-2.311000e+01
1.886418e+02	-2.316158e+01
1.897313e+02	-2.320916e+01
1.908272e+02	-2.325872e+01
1.919294e+02	-2.331329e+01
1.930380e+02	-2.336256e+01
1.941530e+02	-2.340670e+01
1.952744e+02	-2.346003e+01
1.964023e+02	-2.350980e+01
1.975367e+02	-2.355785e+01
1.986777e+02	-2.360710e+01
1.998252e+02	-2.365994e+01
2.009794e+02	-2.370835e+01
2.021403e+02	-2.375552e+01
2.033078e+02	-2.381065e+01
2.044821e+02	-2.385650e+01
2.056632e+02	-2.390750e+01
2.068511e+02	-2.395687e+01
2.080459e+02	-2.400707e+01
2.092475e+02	-2.405629e+01
2.104561e+02	-2.411033e+01
2.116717e+02	-2.415421e+01
2.128943e+02	-2.420557e+01
2.141240e+02	-2.425827e+01
2.153608e+02	-2.430594e+01
2.166047e+02	-2.435587e+01
2.178558e+02	-2.440746e+01
2.191141e+02	-2.445541e+01
2.203797e+02	-2.450845e+01
2.216526e+02	-2.455582e+01
2.229329e+02	-2.460794e+01
2.242205e+02	-2.466002e+01
2.255156e+02	-2.470611e+01
2.268182e+02	-2.475592e+01
2.281283e+02	-2.480544e+01
2.294459e+02	-2.485436e+01
2.307712e+02	-2.490683e+01
2.321041e+02	-2.495677e+01
2.334447e+02	-2.500578e+01
2.347931e+02	-2.505660e+01
2.361493e+02	-2.510546e+01
2.375133e+02	-2.515329e+01
2.388851e+02	-2.520551e+01
2.402649e+02	-2.525523e+01
2.416527e+02	-2.530507e+01
2.430484e+02	-2.535303e+01
2.444523e+02	-2.540694e+01
2.458642e+02	-2.545426e+01
2.472843e+02	-2.550481e+01
2.487126e+02	-2.555562e+01
2.501492e+02	-2.560491e+01
2.515940e+02	-2.565521e+01
2.530472e+02	-2.570489e+01
2.545088e+02	-2.575432e+01
2.559789e+02	-2.580509e+01
2.574574e+02	-2.585346e+01
2.589444e+02	-2.590608e+01
2.604401e+02	-2.595301e+01
2.619444e+02	-2.600439e+01
2.634574e+02	-2.605210e+01
2.649791e+02	-2.610246e+01
2.665096e+02	-2.615227e+01
2.680489e+02	-2.620635e+01
2.695972e+02	-2.625130e+01
2.711544e+02	-2.630550e+01
2.727205e+02	-2.635144e+01
2.742958e+02	-2.640575e+01
2.758801e+02	-2.645494e+01
2.774736e+02	-2.650254e+01
2.790762e+02	-2.655410e+01
2.806882e+02	-2.660481e+01
2.823094e+02	-2.664980e+01
2.839400e+02	-2.670432e+01
2.855800e+02	-2.675452e+01
2.872295e+02	-2.680552e+01
2.888886e+02	-2.685110e+01
2.905572e+02	-2.690219e+01
2.922354e+02	-2.695217e+01
2.939234e+02	-2.700139e+01
2.956211e+02	-2.705277e+01
2.973286e+02	-2.710282e+01
2.990459e+02	-2.715568e+01
3.007732e+02	-2.720082e+01
3.025104e+02	-2.725428e+01
3.042577e+02	-2.730103e+01
3.060151e+02	-2.735668e+01
3.077826e+02	-2.740272e+01
3.095604e+02	-2.745366e+01
3.113484e+02	-2.750418e+01
3.131467e+02	-2.755310e+01
3.149554e+02	-2.760834e+01
3.167746e+02	-2.765296e+01
3.186043e+02	-2.770446e+01
3.204445e+02	-2.775183e+01
3.222954e+02	-2.780501e+01
3.241570e+02	-2.785287e+01
3.260293e+02	-2.790126e+01
3.279124e+02	-2.795141e+01
3.298064e+02	-2.800462e+01
3.317114e+02	-2.804817e+01
3.336273e+02	-2.810522e+01
3.355544e+02	-2.815253e+01
3.374925e+02	-2.820647e+01
3.394418e+02	-2.825340e+01
3.414024e+02	-2.830206e+01
3.433744e+02	-2.835457e+01
3.453577e+02	-2.840511e+01
3.473525e+02	-2.845228e+01
3.493588e+02	-2.850257e+01
3.513766e+02	-2.855762e+01
3.534062e+02	-2.860826e+01
3.554474e+02	-2.865437e+01
3.575005e+02	-2.870317e+01
3.595654e+02	-2.874708e+01
3.616422e+02	-2.880613e+01
3.637311e+02	-2.885588e+01
3.658320e+02	-2.890447e+01
3.679450e+02	-2.895338e+01
3.700702e+02	-2.900349e+01
3.722077e+02	-2.905758e+01
3.743576e+02	-2.910552e+01
3.765199e+02	-2.915378e+01
3.786946e+02	-2.920936e+01
3.808820e+02	-2.925259e+01
3.830819e+02	-2.930484e+01
3.852946e+02	-2.935902e+01
3.875200e+02	-2.940483e+01
3.897583e+02	-2.945602e+01
3.920096e+02	-2.950267e+01
3.942738e+02	-2.954892e+01
3.965511e+02	-2.960484e+01
3.988416e+02	-2.965801e+01
4.011452e+02	-2.970870e+01
4.034622e+02	-2.975987e+01
4.057926e+02	-2.980434e+01
4.081365e+02	-2.985585e+01
4.104938e+02	-2.990830e+01
4.128648e+02	-2.995612e+01
4.152495e+02	-3.000605e+01
4.176480e+02	-3.005616e+01
4.200603e+02	-3.010150e+01
4.224866e+02	-3.016180e+01
4.249268e+02	-3.020654e+01
4.273812e+02	-3.025752e+01
4.298497e+02	-3.030562e+01
4.323325e+02	-3.035348e+01
4.348297e+02	-3.040897e+01
4.373412e+02	-3.045832e+01
4.398673e+02	-3.051062e+01
4.424079e+02	-3.055685e+01
4.449633e+02	-3.060774e+01
4.475334e+02	-3.065616e+01
4.501183e+02	-3.070567e+01
4.527182e+02	-3.076571e+01
4.553330e+02	-3.080199e+01
4.579630e+02	-3.086112e+01
4.606082e+02	-3.091034e+01
4.632687e+02	-3.096069e+01
4.659445e+02	-3.101708e+01
4.686358e+02	-3.105886e+01
4.713426e+02	-3.110982e+01
4.740650e+02	-3.115759e+01
4.768032e+02	-3.120531e+01
4.795572e+02	-3.126536e+01
4.823271e+02	-3.131523e+01
4.851130e+02	-3.135989e+01
4.879150e+02	-3.141531e+01
4.907332e+02	-3.145708e+01
4.935676e+02	-3.150745e+01
4.964185e+02	-3.156271e+01
4.992858e+02	-3.161182e+01
5.021696e+02	-3.166311e+01
5.050701e+02	-3.171732e+01
5.079874e+02	-3.175985e+01
5.109215e+02	-3.180931e+01
5.138726e+02	-3.186248e+01
5.168407e+02	-3.191526e+01
5.198259e+02	-3.196747e+01
5.228284e+02	-3.201048e+01
5.258482e+02	-3.205473e+01
5.288855e+02	-3.210701e+01
5.319403e+02	-3.216685e+01
5.350128e+02	-3.221046e+01
5.381030e+02	-3.226691e+01
5.412111e+02	-3.231268e+01
5.443371e+02	-3.236846e+01
5.474812e+02	-3.241303e+01
5.506434e+02	-3.246832e+01
5.538239e+02	-3.251667e+01
5.570228e+02	-3.256586e+01
5.602401e+02	-3.261160e+01
5.634760e+02	-3.266724e+01
5.667306e+02	-3.271780e+01
5.700040e+02	-3.276877e+01
5.732964e+02	-3.281814e+01
5.766077e+02	-3.286912e+01
5.799382e+02	-3.291764e+01
5.832879e+02	-3.296931e+01
5.866569e+02	-3.302070e+01
5.900454e+02	-3.306024e+01
5.934535e+02	-3.312054e+01
5.968813e+02	-3.317097e+01
6.003288e+02	-3.321951e+01
6.037963e+02	-3.327106e+01
6.072838e+02	-3.332177e+01
6.107914e+02	-3.336866e+01
6.143194e+02	-3.342082e+01
6.178676e+02	-3.346295e+01
6.214364e+02	-3.352180e+01
6.250258e+02	-3.356926e+01
6.286359e+02	-3.361817e+01
6.322669e+02	-3.367164e+01
6.359189e+02	-3.372557e+01
6.395919e+02	-3.376861e+01
6.432862e+02	-3.381910e+01
6.470017e+02	-3.386718e+01
6.507388e+02	-3.392887e+01
6.544974e+02	-3.397256e+01
6.582778e+02	-3.402619e+01
6.620800e+02	-3.407865e+01
6.659041e+02	-3.412007e+01
6.697504e+02	-3.417695e+01
6.736188e+02	-3.422421e+01
6.775096e+02	-3.427691e+01
6.814229e+02	-3.432597e+01
6.853587e+02	-3.438858e+01
6.893173e+02	-3.442344e+01
6.932988e+02	-3.447666e+01
6.973033e+02	-3.452965e+01
7.013309e+02	-3.458143e+01
