Frequency(Hz)	Magnitude(dB)
1.000000e+01	-2.188785e+00
1.005776e+01	-2.208592e+00
1.011585e+01	-2.228734e+00
1.017428e+01	-2.248730e+00
1.023305e+01	-2.269105e+00
1.029215e+01	-2.289467e+00
1.035160e+01	-2.310155e+00
1.041139e+01	-2.330949e+00
1.047153e+01	-2.351792e+00
1.053201e+01	-2.372689e+00
1.059284e+01	-2.393660e+00
1.065403e+01	-2.415062e+00
1.071556e+01	-2.436579e+00
1.077746e+01	-2.457784e+00
1.083971e+01	-2.479761e+00
1.090232e+01	-2.501585e+00
1.096529e+01	-2.523452e+00
1.102862e+01	-2.545576e+00
1.109232e+01	-2.567903e+00
1.115639e+01	-2.590387e+00
1.122083e+01	-2.612794e+00
1.128564e+01	-2.635487e+00
1.135083e+01	-2.658302e+00
1.141639e+01	-2.681214e+00
1.148233e+01	-2.704560e+00
1.154865e+01	-2.727476e+00
1.161536e+01	-2.751010e+00
1.168245e+01	-2.774484e+00
1.174992e+01	-2.798177e+00
1.181779e+01	-2.822118e+00
1.188605e+01	-2.845997e+00
1.195470e+01	-2.870171e+00
1.202375e+01	-2.894517e+00
1.209320e+01	-2.918902e+00
1.216305e+01	-2.943542e+00
1.223330e+01	-2.968048e+00
1.230396e+01	-2.992849e+00
1.237503e+01	-3.018044e+00
1.244651e+01	-3.043185e+00
1.251840e+01	-3.068260e+00
1.259070e+01	-3.093819e+00
1.266343e+01	-3.119668e+00
1.273657e+01	-3.145155e+00
1.281014e+01	-3.171027e+00
1.288413e+01	-3.196865e+00
1.295855e+01	-3.223139e+00
1.303339e+01	-3.249526e+00
1.310867e+01	-3.275830e+00
1.318439e+01	-3.302443e+00
1.326054e+01	-3.328952e+00
1.333713e+01	-3.355913e+00
1.341417e+01	-3.382811e+00
1.349165e+01	-3.409811e+00
1.356958e+01	-3.437418e+00
1.364795e+01	-3.464738e+00
1.372678e+01	-3.492327e+00
1.380607e+01	-3.519875e+00
1.388581e+01	-3.547573e+00
1.396602e+01	-3.575987e+00
1.404668e+01	-3.603888e+00
1.412782e+01	-3.632422e+00
1.420942e+01	-3.660933e+00
1.429149e+01	-3.689025e+00
1.437404e+01	-3.718029e+00
1.445706e+01	-3.746843e+00
1.454057e+01	-3.775721e+00
1.462455e+01	-3.804925e+00
1.470902e+01	-3.834153e+00
1.479398e+01	-3.863517e+00
1.487943e+01	-3.893042e+00
1.496537e+01	-3.922753e+00
1.505181e+01	-3.952509e+00
1.513875e+01	-3.982275e+00
1.522619e+01	-4.012806e+00
1.531414e+01	-4.042667e+00
1.540259e+01	-4.073252e+00
1.549156e+01	-4.103823e+00
1.558103e+01	-4.134523e+00
1.567103e+01	-4.165236e+00
1.576155e+01	-4.196161e+00
1.585258e+01	-4.227282e+00
1.594415e+01	-4.258587e+00
1.603624e+01	-4.289759e+00
1.612886e+01	-4.321492e+00
1.622202e+01	-4.353056e+00
1.631572e+01	-4.384445e+00
1.640996e+01	-4.416387e+00
1.650474e+01	-4.448615e+00
1.660008e+01	-4.480438e+00
1.669596e+01	-4.512670e+00
1.679239e+01	-4.545359e+00
1.688938e+01	-4.577658e+00
1.698694e+01	-4.610495e+00
1.708505e+01	-4.643380e+00
1.718373e+01	-4.676022e+00
1.728299e+01	-4.709065e+00
1.738281e+01	-4.742171e+00
1.748322e+01	-4.775727e+00
1.758420e+01	-4.808993e+00
1.768576e+01	-4.842305e+00
1.778792e+01	-4.876157e+00
1.789066e+01	-4.910286e+00
1.799399e+01	-4.944058e+00
1.809793e+01	-4.978074e+00
1.820246e+01	-5.012354e+00
1.830760e+01	-5.046591e+00
1.841334e+01	-5.081146e+00
1.851969e+01	-5.115710e+00
1.862666e+01	-5.149785e+00
1.873425e+01	-5.185121e+00
1.884246e+01	-5.219878e+00
1.895129e+01	-5.254874e+00
1.906075e+01	-5.290049e+00
1.917085e+01	-5.325674e+00
1.928158e+01	-5.360793e+00
1.939295e+01	-5.396659e+00
1.950496e+01	-5.432025e+00
1.961762e+01	-5.467798e+00
1.973093e+01	-5.503859e+00
1.984490e+01	-5.539981e+00
1.995952e+01	-5.575758e+00
2.007480e+01	-5.611911e+00
2.019076e+01	-5.648336e+00
2.030738e+01	-5.684974e+00
2.042467e+01	-5.721489e+00
2.054264e+01	-5.757848e+00
2.066130e+01	-5.794939e+00
2.078064e+01	-5.831866e+00
2.090066e+01	-5.868914e+00
2.102139e+01	-5.906006e+00
2.114280e+01	-5.943134e+00
2.126492e+01	-5.980508e+00
2.138775e+01	-6.017698e+00
2.151128e+01	-6.055829e+00
2.163553e+01	-6.093327e+00
2.176050e+01	-6.131226e+00
2.188619e+01	-6.168914e+00
2.201260e+01	-6.206866e+00
2.213974e+01	-6.245070e+00
2.226762e+01	-6.283160e+00
2.239624e+01	-6.321655e+00
2.252560e+01	-6.359859e+00
2.265571e+01	-6.398625e+00
2.278656e+01	-6.437237e+00
2.291818e+01	-6.475970e+00
2.305055e+01	-6.514245e+00
2.318369e+01	-6.553723e+00
2.331760e+01	-6.592221e+00
2.345228e+01	-6.631780e+00
2.358774e+01	-6.670802e+00
2.372398e+01	-6.710308e+00
2.386101e+01	-6.749392e+00
2.399883e+01	-6.789049e+00
2.413745e+01	-6.828505e+00
2.427686e+01	-6.867977e+00
2.441709e+01	-6.907854e+00
2.455812e+01	-6.947943e+00
2.469997e+01	-6.987533e+00
2.484263e+01	-7.028166e+00
2.498612e+01	-7.067977e+00
2.513044e+01	-7.108502e+00
2.527559e+01	-7.148637e+00
2.542158e+01	-7.189473e+00
2.556842e+01	-7.229316e+00
2.571610e+01	-7.270550e+00
2.586463e+01	-7.310742e+00
2.601403e+01	-7.351971e+00
2.616428e+01	-7.392510e+00
2.631541e+01	-7.433553e+00
2.646740e+01	-7.474163e+00
2.662028e+01	-7.515965e+00
2.677404e+01	-7.556585e+00
2.692868e+01	-7.598352e+00
2.708422e+01	-7.639348e+00
2.724066e+01	-7.680708e+00
2.739800e+01	-7.722365e+00
2.755625e+01	-7.764279e+00
2.771541e+01	-7.806116e+00
2.787550e+01	-7.847679e+00
2.803650e+01	-7.889753e+00
2.819844e+01	-7.931480e+00
2.836131e+01	-7.973445e+00
2.852513e+01	-8.015216e+00
2.868989e+01	-8.057110e+00
2.885560e+01	-8.099915e+00
2.902227e+01	-8.142118e+00
2.918990e+01	-8.184295e+00
2.935850e+01	-8.227269e+00
2.952807e+01	-8.269662e+00
2.969863e+01	-8.312255e+00
2.987016e+01	-8.355043e+00
3.004269e+01	-8.397655e+00
3.021622e+01	-8.440115e+00
3.039075e+01	-8.483101e+00
3.056628e+01	-8.526363e+00
3.074283e+01	-8.569334e+00
3.092040e+01	-8.612506e+00
3.109900e+01	-8.655521e+00
3.127862e+01	-8.699102e+00
3.145929e+01	-8.742531e+00
3.164099e+01	-8.785441e+00
3.182375e+01	-8.829320e+00
3.200756e+01	-8.872462e+00
3.219244e+01	-8.915930e+00
3.237838e+01	-8.959869e+00
3.256540e+01	-9.003317e+00
3.275349e+01	-9.047272e+00
3.294268e+01	-9.090766e+00
3.313295e+01	-9.134908e+00
3.332433e+01	-9.178903e+00
3.351681e+01	-9.222886e+00
3.371040e+01	-9.266813e+00
3.390511e+01	-9.311291e+00
3.410094e+01	-9.355346e+00
3.429791e+01	-9.400017e+00
3.449601e+01	-9.444041e+00
3.469526e+01	-9.488465e+00
3.489566e+01	-9.532923e+00
3.509721e+01	-9.577091e+00
3.529993e+01	-9.621734e+00
3.550382e+01	-9.666266e+00
3.570889e+01	-9.711054e+00
3.591515e+01	-9.756441e+00
3.612259e+01	-9.800134e+00
3.633123e+01	-9.846059e+00
3.654108e+01	-9.889927e+00
3.675214e+01	-9.935092e+00
3.696442e+01	-9.980256e+00
3.717792e+01	-1.002519e+01
3.739266e+01	-1.006974e+01
3.760864e+01	-1.011512e+01
3.782587e+01	-1.016043e+01
3.804435e+01	-1.020562e+01
3.826409e+01	-1.025090e+01
3.848510e+01	-1.029629e+01
3.870739e+01	-1.034216e+01
3.893096e+01	-1.038721e+01
3.915583e+01	-1.043295e+01
3.938199e+01	-1.047847e+01
3.960946e+01	-1.052388e+01
3.983824e+01	-1.056916e+01
4.006834e+01	-1.061494e+01
4.029978e+01	-1.066042e+01
4.053255e+01	-1.070656e+01
4.076666e+01	-1.075242e+01
4.100213e+01	-1.079808e+01
4.123896e+01	-1.084381e+01
4.147715e+01	-1.088967e+01
4.171672e+01	-1.093541e+01
4.195767e+01	-1.098217e+01
4.220002e+01	-1.102837e+01
4.244377e+01	-1.107383e+01
4.268892e+01	-1.112019e+01
4.293549e+01	-1.116625e+01
4.318348e+01	-1.121276e+01
4.343291e+01	-1.125934e+01
4.368377e+01	-1.130506e+01
4.393609e+01	-1.135158e+01
4.418986e+01	-1.139730e+01
4.444510e+01	-1.144461e+01
4.470182e+01	-1.149053e+01
4.496001e+01	-1.153704e+01
4.521970e+01	-1.158398e+01
4.548089e+01	-1.163053e+01
4.574358e+01	-1.167704e+01
4.600779e+01	-1.172358e+01
4.627353e+01	-1.177006e+01
4.654081e+01	-1.181688e+01
4.680963e+01	-1.186316e+01
4.708000e+01	-1.191052e+01
4.735193e+01	-1.195710e+01
4.762543e+01	-1.200424e+01
4.790051e+01	-1.205101e+01
4.817719e+01	-1.209801e+01
4.845545e+01	-1.214434e+01
4.873533e+01	-1.219104e+01
4.901682e+01	-1.223840e+01
4.929994e+01	-1.228578e+01
4.958470e+01	-1.233316e+01
4.987110e+01	-1.237998e+01
5.015915e+01	-1.242723e+01
5.044887e+01	-1.247427e+01
5.074026e+01	-1.252163e+01
5.103333e+01	-1.256919e+01
5.132810e+01	-1.261586e+01
5.162457e+01	-1.266387e+01
5.192275e+01	-1.271074e+01
5.222265e+01	-1.275759e+01
5.252429e+01	-1.280500e+01
5.282767e+01	-1.285241e+01
5.313280e+01	-1.290085e+01
5.343969e+01	-1.294724e+01
5.374836e+01	-1.299530e+01
5.405880e+01	-1.304328e+01
5.437105e+01	-1.309071e+01
5.468509e+01	-1.313768e+01
5.500095e+01	-1.318557e+01
5.531863e+01	-1.323291e+01
5.563815e+01	-1.328058e+01
5.595951e+01	-1.332889e+01
5.628273e+01	-1.337615e+01
5.660782e+01	-1.342387e+01
5.693479e+01	-1.347221e+01
5.726364e+01	-1.351987e+01
5.759439e+01	-1.356812e+01
5.792705e+01	-1.361558e+01
5.826164e+01	-1.366376e+01
5.859815e+01	-1.371106e+01
5.893662e+01	-1.375915e+01
5.927703e+01	-1.380706e+01
5.961941e+01	-1.385472e+01
5.996377e+01	-1.390344e+01
6.031012e+01	-1.395136e+01
6.065847e+01	-1.399918e+01
6.100883e+01	-1.404731e+01
6.136121e+01	-1.409490e+01
6.171563e+01	-1.414297e+01
6.207210e+01	-1.419179e+01
6.243063e+01	-1.423905e+01
6.279122e+01	-1.428786e+01
6.315390e+01	-1.433559e+01
6.351868e+01	-1.438363e+01
6.388556e+01	-1.443291e+01
6.425456e+01	-1.447950e+01
6.462569e+01	-1.452843e+01
6.499897e+01	-1.457692e+01
6.537440e+01	-1.462510e+01
6.575200e+01	-1.467400e+01
6.613178e+01	-1.472184e+01
6.651375e+01	-1.477035e+01
6.689793e+01	-1.481883e+01
6.728433e+01	-1.486679e+01
6.767297e+01	-1.491540e+01
6.806384e+01	-1.496409e+01
6.845698e+01	-1.501201e+01
6.885238e+01	-1.506053e+01
6.925007e+01	-1.510923e+01
6.965005e+01	-1.515783e+01
7.005235e+01	-1.520571e+01
7.045697e+01	-1.525398e+01
7.086393e+01	-1.530353e+01
7.127323e+01	-1.535181e+01
7.168490e+01	-1.540021e+01
7.209895e+01	-1.544859e+01
7.251539e+01	-1.549766e+01
7.293424e+01	-1.554606e+01
7.335551e+01	-1.559473e+01
7.377920e+01	-1.564372e+01
7.420535e+01	-1.569161e+01
7.463396e+01	-1.574081e+01
7.506504e+01	-1.578953e+01
7.549861e+01	-1.583824e+01
7.593469e+01	-1.588765e+01
7.637328e+01	-1.593547e+01
7.681441e+01	-1.598356e+01
7.725809e+01	-1.603329e+01
7.770433e+01	-1.608230e+01
7.815315e+01	-1.613089e+01
7.860456e+01	-1.617910e+01
7.905857e+01	-1.622873e+01
7.951521e+01	-1.627769e+01
7.997449e+01	-1.632679e+01
8.043642e+01	-1.637488e+01
8.090102e+01	-1.642433e+01
8.136830e+01	-1.647321e+01
8.183828e+01	-1.652105e+01
8.231097e+01	-1.657019e+01
8.278640e+01	-1.661959e+01
8.326457e+01	-1.666913e+01
8.374550e+01	-1.671717e+01
8.422921e+01	-1.676522e+01
8.471572e+01	-1.681557e+01
8.520503e+01	-1.686521e+01
8.569717e+01	-1.691335e+01
8.619215e+01	-1.696167e+01
8.669000e+01	-1.701017e+01
8.719071e+01	-1.706151e+01
8.769432e+01	-1.710910e+01
8.820084e+01	-1.715970e+01
8.871029e+01	-1.720900e+01
8.922267e+01	-1.725658e+01
8.973802e+01	-1.730565e+01
9.025634e+01	-1.735648e+01
9.077766e+01	-1.740453e+01
9.130199e+01	-1.745327e+01
9.182935e+01	-1.750168e+01
9.235975e+01	-1.755172e+01
9.289321e+01	-1.760107e+01
9.342976e+01	-1.764849e+01
9.396941e+01	-1.769897e+01
9.451217e+01	-1.774889e+01
9.505807e+01	-1.779613e+01
9.560712e+01	-1.784755e+01
9.615934e+01	-1.789634e+01
9.671476e+01	-1.794565e+01
9.727338e+01	-1.799421e+01
9.783522e+01	-1.804322e+01
9.840032e+01	-1.809300e+01
9.896867e+01	-1.814253e+01
9.954031e+01	-1.819113e+01
1.001153e+02	-1.824142e+01
1.006935e+02	-1.828989e+01
1.012751e+02	-1.833958e+01
1.018601e+02	-1.838874e+01
1.024484e+02	-1.843748e+01
1.030402e+02	-1.848645e+01
1.036353e+02	-1.853669e+01
1.042339e+02	-1.858570e+01
1.048360e+02	-1.863578e+01
1.054415e+02	-1.868387e+01
1.060505e+02	-1.873543e+01
1.066631e+02	-1.878486e+01
1.072791e+02	-1.883409e+01
1.078988e+02	-1.888175e+01
1.085220e+02	-1.893194e+01
1.091488e+02	-1.898036e+01
1.097793e+02	-1.903055e+01
1.104133e+02	-1.907993e+01
1.110511e+02	-1.912945e+01
1.116925e+02	-1.917875e+01
1.123376e+02	-1.922874e+01
1.129865e+02	-1.927778e+01
1.136391e+02	-1.932512e+01
1.142955e+02	-1.937465e+01
1.149556e+02	-1.942506e+01
1.156196e+02	-1.947438e+01
1.162874e+02	-1.952406e+01
1.169591e+02	-1.957366e+01
1.176347e+02	-1.962456e+01
1.183141e+02	-1.967302e+01
1.189975e+02	-1.972108e+01
1.196848e+02	-1.977117e+01
1.203761e+02	-1.982218e+01
1.210714e+02	-1.987211e+01
1.217707e+02	-1.991980e+01
1.224740e+02	-1.997040e+01
1.231814e+02	-2.002150e+01
1.238929e+02	-2.006790e+01
1.246085e+02	-2.011728e+01
1.253283e+02	-2.016654e+01
1.260522e+02	-2.021668e+01
1.267802e+02	-2.026686e+01
1.275125e+02	-2.031720e+01
1.282490e+02	-2.036642e+01
1.289898e+02	-2.041595e+01
1.297348e+02	-2.046708e+01
1.304842e+02	-2.051549e+01
1.312378e+02	-2.056540e+01
1.319959e+02	-2.061456e+01
1.327583e+02	-2.066384e+01
1.335251e+02	-2.071509e+01
1.342963e+02	-2.076403e+01
1.350720e+02	-2.081303e+01
1.358522e+02	-2.086224e+01
1.366368e+02	-2.091375e+01
1.374260e+02	-2.096105e+01
1.382198e+02	-2.101281e+01
1.390182e+02	-2.106193e+01
1.398211e+02	-2.110994e+01
1.406287e+02	-2.116048e+01
1.414410e+02	-2.121114e+01
1.422579e+02	-2.125907e+01
1.430796e+02	-2.130968e+01
1.439060e+02	-2.135932e+01
1.447372e+02	-2.140901e+01
1.455732e+02	-2.145880e+01
1.464141e+02	-2.150759e+01
1.472597e+02	-2.155522e+01
1.481103e+02	-2.160841e+01
1.489658e+02	-2.165564e+01
1.498262e+02	-2.170753e+01
1.506916e+02	-2.175681e+01
1.515620e+02	-2.180721e+01
1.524374e+02	-2.185719e+01
1.533179e+02	-2.190375e+01
1.542034e+02	-2.195288e+01
1.550941e+02	-2.200697e+01
1.559899e+02	-2.205634e+01
1.568909e+02	-2.210518e+01
1.577971e+02	-2.215645e+01
1.587085e+02	-2.220375e+01
1.596252e+02	-2.225221e+01
1.605472e+02	-2.230316e+01
1.614745e+02	-2.235235e+01
1.624072e+02	-2.240542e+01
1.633453e+02	-2.245468e+01
1.642887e+02	-2.250283e+01
1.652377e+02	-2.255151e+01
1.661921e+02	-2.260271e+01
1.671520e+02	-2.265454e+01
1.681175e+02	-2.270072e+01
1.690885e+02	-2.275293e+01
1.700651e+02	-2.280305e+01
1.710474e+02	-2.285099e+01
1.720354e+02	-2.290218e+01
1.730291e+02	-2.295147e+01
1.740285e+02	-2.300137e+01
1.750337e+02	-2.305222e+01
1.760446e+02	-2.310164e+01
1.770615e+02	-2.315233e+01
1.780842e+02	-2.320150e+01
1.791128e+02	-2.325138e+01
1.801473e+02	-2.329959e+01
1.811878e+02	-2.334839e+01
1.822344e+02	-2.340001e+01
1.832870e+02	-2.345093e+01
1.843456e+02	-2.349630e+01
1.854104e+02	-2.354794e+01
1.864813e+02	-2.359925e+01
1.875584e+02	-2.365092e+01
1.886418e+02	-2.369678e+01
1.897313e+02	-2.374853e+01
1.908272e+02	-2.379754e+01
1.919294e+02	-2.384994e+01
1.930380e+02	-2.389807e+01
1.941530e+02	-2.394611e+01
1.952744e+02	-2.399701e+01
1.964023e+02	-2.404379e+01
1.975367e+02	-2.409675e+01
1.986777e+02	-2.414773e+01
1.998252e+02	-2.419619e+01
2.009794e+02	-2.424533e+01
2.021403e+02	-2.429572e+01
2.033078e+02	-2.434529e+01
2.044821e+02	-2.439678e+01
2.056632e+02	-2.444618e+01
2.068511e+02	-2.449354e+01
2.080459e+02	-2.454336e+01
2.092475e+02	-2.459357e+01
2.104561e+02	-2.464547e+01
2.116717e+02	-2.469476e+01
2.128943e+02	-2.474317e+01
2.141240e+02	-2.479483e+01
2.153608e+02	-2.484489e+01
2.166047e+02	-2.489533e+01
2.178558e+02	-2.494691e+01
2.191141e+02	-2.499434e+01
2.203797e+02	-2.504388e+01
2.216526e+02	-2.509554e+01
2.229329e+02	-2.514521e+01
2.242205e+02	-2.519204e+01
2.255156e+02	-2.524355e+01
2.268182e+02	-2.529469e+01
2.281283e+02	-2.534280e+01
2.294459e+02	-2.539790e+01
2.307712e+02	-2.544361e+01
2.321041e+02	-2.549159e+01
2.334447e+02	-2.554517e+01
2.347931e+02	-2.559235e+01
2.361493e+02	-2.564289e+01
2.375133e+02	-2.569262e+01
2.388851e+02	-2.574597e+01
2.402649e+02	-2.579482e+01
2.416527e+02	-2.584246e+01
2.430484e+02	-2.588923e+01
2.444523e+02	-2.594582e+01
2.458642e+02	-2.599137e+01
2.472843e+02	-2.603933e+01
2.487126e+02	-2.609258e+01
2.501492e+02	-2.614334e+01
2.515940e+02	-2.619292e+01
2.530472e+02	-2.624225e+01
2.545088e+02	-2.629590e+01
2.559789e+02	-2.634227e+01
2.574574e+02	-2.639444e+01
2.589444e+02	-2.644063e+01
2.604401e+02	-2.649244e+01
2.619444e+02	-2.654354e+01
2.634574e+02	-2.659419e+01
2.649791e+02	-2.664239e+01
2.665096e+02	-2.669527e+01
2.680489e+02	-2.674516e+01
2.695972e+02	-2.679420e+01
2.711544e+02	-2.683935e+01
2.727205e+02	-2.689330e+01
2.742958e+02	-2.694254e+01
2.758801e+02	-2.699266e+01
2.774736e+02	-2.704425e+01
2.790762e+02	-2.709407e+01
2.806882e+02	-2.714241e+01
2.823094e+02	-2.719296e+01
2.839400e+02	-2.724740e+01
2.855800e+02	-2.729312e+01
2.872295e+02	-2.734400e+01
2.888886e+02	-2.739341e+01
2.905572e+02	-2.744098e+01
2.922354e+02	-2.749338e+01
2.939234e+02	-2.754287e+01
2.956211e+02	-2.759651e+01
2.973286e+02	-2.764029e+01
2.990459e+02	-2.769232e+01
3.007732e+02	-2.774231e+01
3.025104e+02	-2.779306e+01
3.042577e+02	-2.784363e+01
3.060151e+02	-2.789215e+01
3.077826e+02	-2.794076e+01
3.095604e+02	-2.799286e+01
3.113484e+02	-2.804070e+01
3.131467e+02	-2.809801e+01
3.149554e+02	-2.814374e+01
3.167746e+02	-2.818909e+01
3.186043e+02	-2.824466e+01
3.204445e+02	-2.829480e+01
3.222954e+02	-2.834294e+01
3.241570e+02	-2.839421e+01
3.260293e+02	-2.844610e+01
3.279124e+02	-2.849449e+01
3.298064e+02	-2.854267e+01
3.317114e+02	-2.859335e+01
3.336273e+02	-2.864429e+01
3.355544e+02	-2.869119e+01
3.374925e+02	-2.874009e+01
3.394418e+02	-2.879636e+01
3.414024e+02	-2.884329e+01
3.433744e+02	-2.889142e+01
3.453577e+02	-2.894240e+01
3.473525e+02	-2.899664e+01
3.493588e+02	-2.904681e+01
3.513766e+02	-2.909398e+01
3.534062e+02	-2.914001e+01
3.554474e+02	-2.919315e+01
3.575005e+02	-2.924319e+01
3.595654e+02	-2.929264e+01
3.616422e+02	-2.934707e+01
3.637311e+02	-2.939458e+01
3.658320e+02	-2.944191e+01
3.679450e+02	-2.949476e+01
3.700702e+02	-2.955129e+01
3.722077e+02	-2.959352e+01
3.743576e+02	-2.964510e+01
3.765199e+02	-2.969964e+01
3.786946e+02	-2.974368e+01
3.808820e+02	-2.978936e+01
3.830819e+02	-2.984655e+01
3.852946e+02	-2.989919e+01
3.875200e+02	-2.994821e+01
3.897583e+02	-2.999374e+01
3.920096e+02	-3.004652e+01
3.942738e+02	-3.009877e+01
3.965511e+02	-3.013802e+01
3.988416e+02	-3.019229e+01
4.011452e+02	-3.024742e+01
4.034622e+02	-3.029822e+01
4.057926e+02	-3.034786e+01
4.081365e+02	-3.039718e+01
4.104938e+02	-3.044955e+01
4.128648e+02	-3.049587e+01
4.152495e+02	-3.054586e+01
4.176480e+02	-3.059779e+01
4.200603e+02	-3.064694e+01
4.224866e+02	-3.069554e+01
4.249268e+02	-3.074700e+01
4.273812e+02	-3.079537e+01
4.298497e+02	-3.084568e+01
4.323325e+02	-3.089632e+01
4.348297e+02	-3.094667e+01
4.373412e+02	-3.099299e+01
4.398673e+02	-3.104179e+01
4.424079e+02	-3.109676e+01
4.449633e+02	-3.114926e+01
4.475334e+02	-3.119915e+01
4.501183e+02	-3.125385e+01
4.527182e+02	-3.130084e+01
4.553330e+02	-3.135354e+01
4.579630e+02	-3.139783e+01
4.606082e+02	-3.144703e+01
4.632687e+02	-3.149745e+01
4.659445e+02	-3.154631e+01
4.686358e+02	-3.159419e+01
4.713426e+02	-3.165535e+01
4.740650e+02	-3.169649e+01
4.768032e+02	-3.175396e+01
4.795572e+02	-3.180094e+01
4.823271e+02	-3.184806e+01
4.851130e+02	-3.190264e+01
4.879150e+02	-3.195531e+01
4.907332e+02	-3.201105e+01
4.935676e+02	-3.204813e+01
4.964185e+02	-3.210067e+01
4.992858e+02	-3.215218e+01
5.021696e+02	-3.220119e+01
5.050701e+02	-3.224920e+01
5.079874e+02	-3.230327e+01
5.109215e+02	-3.234891e+01
5.138726e+02	-3.240428e+01
5.168407e+02	-3.244652e+01
5.198259e+02	-3.249909e+01
5.228284e+02	-3.255385e+01
5.258482e+02	-3.261166e+01
5.288855e+02	-3.265618e+01
5.319403e+02	-3.270117e+01
5.350128e+02	-3.275064e+01
5.381030e+02	-3.280257e+01
5.412111e+02	-3.285405e+01
5.443371e+02	-3.290281e+01
5.474812e+02	-3.295381e+01
5.506434e+02	-3.301112e+01
5.538239e+02	-3.305249e+01
5.570228e+02	-3.309912e+01
5.602401e+02	-3.315080e+01
5.634760e+02	-3.321347e+01
5.667306e+02	-3.325141e+01
5.700040e+02	-3.330239e+01
5.732964e+02	-3.335466e+01
5.766077e+02	-3.340454e+01
5.799382e+02	-3.345718e+01
5.832879e+02	-3.350051e+01
5.866569e+02	-3.355785e+01
5.900454e+02	-3.360484e+01
5.934535e+02	-3.365855e+01
5.968813e+02	-3.369912e+01
6.003288e+02	-3.376287e+01
6.037963e+02	-3.380621e+01
6.072838e+02	-3.385343e+01
6.107914e+02	-3.391629e+01
6.143194e+02	-3.396478e+01
6.178676e+02	-3.401938e+01
6.214364e+02	-3.406443e+01
6.250258e+02	-3.411578e+01
6.286359e+02	-3.416040e+01
6.322669e+02	-3.420352e+01
6.359189e+02	-3.425632e+01
6.395919e+02	-3.432219e+01
6.432862e+02	-3.435900e+01
6.470017e+02	-3.441209e+01
6.507388e+02	-3.445964e+01
6.544974e+02	-3.451489e+01
6.582778e+02	-3.456925e+01
6.620800e+02	-3.461617e+01
6.659041e+02	-3.466217e+01
6.697504e+02	-3.472154e+01
6.736188e+02	-3.476632e+01
6.775096e+02	-3.481582e+01
6.814229e+02	-3.486739e+01
6.853587e+02	-3.491075e+01
6.893173e+02	-3.496456e+01
6.932988e+02	-3.502292e+01
6.973033e+02	-3.506640e+01
7.013309e+02	-3.511991e+01
