Frequency(Hz)	Magnitude(dB)
1.000000e+01	-1.867341e+00
1.005776e+01	-1.884790e+00
1.011585e+01	-1.902635e+00
1.017428e+01	-1.920378e+00
1.023305e+01	-1.938467e+00
1.029215e+01	-1.956505e+00
1.035160e+01	-1.974587e+00
1.041139e+01	-1.992874e+00
1.047153e+01	-2.011547e+00
1.053201e+01	-2.029934e+00
1.059284e+01	-2.048838e+00
1.065403e+01	-2.067534e+00
1.071556e+01	-2.086655e+00
1.077746e+01	-2.106006e+00
1.083971e+01	-2.124964e+00
1.090232e+01	-2.144555e+00
1.096529e+01	-2.164082e+00
1.102862e+01	-2.183902e+00
1.109232e+01	-2.203650e+00
1.115639e+01	-2.223615e+00
1.122083e+01	-2.243753e+00
1.128564e+01	-2.264129e+00
1.135083e+01	-2.284257e+00
1.141639e+01	-2.304973e+00
1.148233e+01	-2.325488e+00
1.154865e+01	-2.346336e+00
1.161536e+01	-2.367301e+00
1.168245e+01	-2.388516e+00
1.174992e+01	-2.409708e+00
1.181779e+01	-2.431172e+00
1.188605e+01	-2.452559e+00
1.195470e+01	-2.473975e+00
1.202375e+01	-2.496159e+00
1.209320e+01	-2.517885e+00
1.216305e+01	-2.540012e+00
1.223330e+01	-2.562094e+00
1.230396e+01	-2.584741e+00
1.237503e+01	-2.607214e+00
1.244651e+01	-2.629821e+00
1.251840e+01	-2.652548e+00
1.259070e+01	-2.675440e+00
1.266343e+01	-2.698723e+00
1.273657e+01	-2.721797e+00
1.281014e+01	-2.745075e+00
1.288413e+01	-2.768811e+00
1.295855e+01	-2.792139e+00
1.303339e+01	-2.816370e+00
1.310867e+01	-2.840085e+00
1.318439e+01	-2.864186e+00
1.326054e+01	-2.888532e+00
1.333713e+01	-2.912543e+00
1.341417e+01	-2.937355e+00
1.349165e+01	-2.962001e+00
1.356958e+01	-2.986810e+00
1.364795e+01	-3.011849e+00
1.372678e+01	-3.036729e+00
1.380607e+01	-3.062215e+00
1.388581e+01	-3.087392e+00
1.396602e+01	-3.112913e+00
1.404668e+01	-3.138525e+00
1.412782e+01	-3.164116e+00
1.420942e+01	-3.190414e+00
1.429149e+01	-3.216677e+00
1.437404e+01	-3.242665e+00
1.445706e+01	-3.268931e+00
1.454057e+01	-3.295487e+00
1.462455e+01	-3.322121e+00
1.470902e+01	-3.349189e+00
1.479398e+01	-3.376101e+00
1.487943e+01	-3.403154e+00
1.496537e+01	-3.430715e+00
1.505181e+01	-3.457687e+00
1.513875e+01	-3.485423e+00
1.522619e+01	-3.513177e+00
1.531414e+01	-3.540848e+00
1.540259e+01	-3.568782e+00
1.549156e+01	-3.596912e+00
1.558103e+01	-3.625151e+00
1.567103e+01	-3.653517e+00
1.576155e+01	-3.682122e+00
1.585258e+01	-3.710742e+00
1.594415e+01	-3.739444e+00
1.603624e+01	-3.768233e+00
1.612886e+01	-3.797481e+00
1.622202e+01	-3.826680e+00
1.631572e+01	-3.856268e+00
1.640996e+01	-3.885774e+00
1.650474e+01	-3.915214e+00
1.660008e+01	-3.945195e+00
1.669596e+01	-3.975074e+00
1.679239e+01	-4.005159e+00
1.688938e+01	-4.035383e+00
1.698694e+01	-4.065819e+00
1.708505e+01	-4.095998e+00
1.718373e+01	-4.126769e+00
1.728299e+01	-4.157594e+00
1.738281e+01	-4.188467e+00
1.748322e+01	-4.219444e+00
1.758420e+01	-4.250564e+00
1.768576e+01	-4.281981e+00
1.778792e+01	-4.313616e+00
1.789066e+01	-4.344612e+00
1.799399e+01	-4.376551e+00
1.809793e+01	-4.408492e+00
1.820246e+01	-4.440202e+00
1.830760e+01	-4.472432e+00
1.841334e+01	-4.504658e+00
1.851969e+01	-4.537262e+00
1.862666e+01	-4.569430e+00
1.873425e+01	-4.601854e+00
1.884246e+01	-4.635001e+00
1.895129e+01	-4.667557e+00
1.906075e+01	-4.700890e+00
1.917085e+01	-4.733835e+00
1.928158e+01	-4.767512e+00
1.939295e+01	-4.800593e+00
1.950496e+01	-4.834142e+00
1.961762e+01	-4.867783e+00
1.973093e+01	-4.901606e+00
1.984490e+01	-4.935542e+00
1.995952e+01	-4.969567e+00
2.007480e+01	-5.003616e+00
2.019076e+01	-5.038046e+00
2.030738e+01	-5.072082e+00
2.042467e+01	-5.106916e+00
2.054264e+01	-5.141274e+00
2.066130e+01	-5.176322e+00
2.078064e+01	-5.210922e+00
2.090066e+01	-5.246270e+00
2.102139e+01	-5.281262e+00
2.114280e+01	-5.316511e+00
2.126492e+01	-5.352071e+00
2.138775e+01	-5.387561e+00
2.151128e+01	-5.423239e+00
2.163553e+01	-5.458794e+00
2.176050e+01	-5.494612e+00
2.188619e+01	-5.530494e+00
2.201260e+01	-5.566972e+00
2.213974e+01	-5.603292e+00
2.226762e+01	-5.639143e+00
2.239624e+01	-5.675940e+00
2.252560e+01	-5.712381e+00
2.265571e+01	-5.748998e+00
2.278656e+01	-5.785794e+00
2.291818e+01	-5.822530e+00
2.305055e+01	-5.859564e+00
2.318369e+01	-5.896845e+00
2.331760e+01	-5.934178e+00
2.345228e+01	-5.971329e+00
2.358774e+01	-6.008771e+00
2.372398e+01	-6.046067e+00
2.386101e+01	-6.083831e+00
2.399883e+01	-6.121835e+00
2.413745e+01	-6.159472e+00
2.427686e+01	-6.197527e+00
2.441709e+01	-6.235347e+00
2.455812e+01	-6.273145e+00
2.469997e+01	-6.311915e+00
2.484263e+01	-6.350360e+00
2.498612e+01	-6.388750e+00
2.513044e+01	-6.427013e+00
2.527559e+01	-6.465960e+00
2.542158e+01	-6.504798e+00
2.556842e+01	-6.543693e+00
2.571610e+01	-6.582727e+00
2.586463e+01	-6.621541e+00
2.601403e+01	-6.660749e+00
2.616428e+01	-6.700285e+00
2.631541e+01	-6.739473e+00
2.646740e+01	-6.779145e+00
2.662028e+01	-6.818723e+00
2.677404e+01	-6.858315e+00
2.692868e+01	-6.897992e+00
2.708422e+01	-6.938112e+00
2.724066e+01	-6.978095e+00
2.739800e+01	-7.017694e+00
2.755625e+01	-7.057736e+00
2.771541e+01	-7.098364e+00
2.787550e+01	-7.138430e+00
2.803650e+01	-7.179112e+00
2.819844e+01	-7.219354e+00
2.836131e+01	-7.260252e+00
2.852513e+01	-7.300428e+00
2.868989e+01	-7.341423e+00
2.885560e+01	-7.382905e+00
2.902227e+01	-7.423539e+00
2.918990e+01	-7.464564e+00
2.935850e+01	-7.505144e+00
2.952807e+01	-7.546808e+00
2.969863e+01	-7.587678e+00
2.987016e+01	-7.629143e+00
3.004269e+01	-7.670554e+00
3.021622e+01	-7.712004e+00
3.039075e+01	-7.753507e+00
3.056628e+01	-7.795290e+00
3.074283e+01	-7.837127e+00
3.092040e+01	-7.878773e+00
3.109900e+01	-7.920970e+00
3.127862e+01	-7.962983e+00
3.145929e+01	-8.004786e+00
3.164099e+01	-8.047298e+00
3.182375e+01	-8.089534e+00
3.200756e+01	-8.131681e+00
3.219244e+01	-8.174163e+00
3.237838e+01	-8.216213e+00
3.256540e+01	-8.259052e+00
3.275349e+01	-8.301751e+00
3.294268e+01	-8.344614e+00
3.313295e+01	-8.387069e+00
3.332433e+01	-8.429406e+00
3.351681e+01	-8.472502e+00
3.371040e+01	-8.515950e+00
3.390511e+01	-8.558852e+00
3.410094e+01	-8.601649e+00
3.429791e+01	-8.644735e+00
3.449601e+01	-8.688110e+00
3.469526e+01	-8.731210e+00
3.489566e+01	-8.774231e+00
3.509721e+01	-8.817956e+00
3.529993e+01	-8.861732e+00
3.550382e+01	-8.905261e+00
3.570889e+01	-8.949212e+00
3.591515e+01	-8.992749e+00
3.612259e+01	-9.036318e+00
3.633123e+01	-9.079585e+00
3.654108e+01	-9.123712e+00
3.675214e+01	-9.167920e+00
3.696442e+01	-9.211750e+00
3.717792e+01	-9.255651e+00
3.739266e+01	-9.300258e+00
3.760864e+01	-9.344745e+00
3.782587e+01	-9.388218e+00
3.804435e+01	-9.432548e+00
3.826409e+01	-9.477227e+00
3.848510e+01	-9.521648e+00
3.870739e+01	-9.565766e+00
3.893096e+01	-9.610538e+00
3.915583e+01	-9.654902e+00
3.938199e+01	-9.699935e+00
3.960946e+01	-9.744471e+00
3.983824e+01	-9.789453e+00
4.006834e+01	-9.834453e+00
4.029978e+01	-9.878611e+00
4.053255e+01	-9.923431e+00
4.076666e+01	-9.968599e+00
4.100213e+01	-1.001376e+01
4.123896e+01	-1.005859e+01
4.147715e+01	-1.010413e+01
4.171672e+01	-1.014887e+01
4.195767e+01	-1.019370e+01
4.220002e+01	-1.023944e+01
4.244377e+01	-1.028430e+01
4.268892e+01	-1.033005e+01
4.293549e+01	-1.037569e+01
4.318348e+01	-1.042126e+01
4.343291e+01	-1.046633e+01
4.368377e+01	-1.051229e+01
4.393609e+01	-1.055770e+01
4.418986e+01	-1.060402e+01
4.444510e+01	-1.064932e+01
4.470182e+01	-1.069488e+01
4.496001e+01	-1.074051e+01
4.521970e+01	-1.078639e+01
4.548089e+01	-1.083243e+01
4.574358e+01	-1.087841e+01
4.600779e+01	-1.092444e+01
4.627353e+01	-1.097036e+01
4.654081e+01	-1.101633e+01
4.680963e+01	-1.106236e+01
4.708000e+01	-1.110883e+01
4.735193e+01	-1.115460e+01
4.762543e+01	-1.120087e+01
4.790051e+01	-1.124747e+01
4.817719e+01	-1.129367e+01
4.845545e+01	-1.133973e+01
4.873533e+01	-1.138639e+01
4.901682e+01	-1.143229e+01
4.929994e+01	-1.147878e+01
4.958470e+01	-1.152596e+01
4.987110e+01	-1.157222e+01
5.015915e+01	-1.161819e+01
5.044887e+01	-1.166548e+01
5.074026e+01	-1.171237e+01
5.103333e+01	-1.175836e+01
5.132810e+01	-1.180537e+01
5.162457e+01	-1.185184e+01
5.192275e+01	-1.189862e+01
5.222265e+01	-1.194612e+01
5.252429e+01	-1.199291e+01
5.282767e+01	-1.203880e+01
5.313280e+01	-1.208568e+01
5.343969e+01	-1.213283e+01
5.374836e+01	-1.218006e+01
5.405880e+01	-1.222752e+01
5.437105e+01	-1.227442e+01
5.468509e+01	-1.232076e+01
5.500095e+01	-1.236834e+01
5.531863e+01	-1.241568e+01
5.563815e+01	-1.246299e+01
5.595951e+01	-1.250980e+01
5.628273e+01	-1.255717e+01
5.660782e+01	-1.260421e+01
5.693479e+01	-1.265156e+01
5.726364e+01	-1.269895e+01
5.759439e+01	-1.274658e+01
5.792705e+01	-1.279352e+01
5.826164e+01	-1.284098e+01
5.859815e+01	-1.288883e+01
5.893662e+01	-1.293623e+01
5.927703e+01	-1.298388e+01
5.961941e+01	-1.303110e+01
5.996377e+01	-1.307942e+01
6.031012e+01	-1.312645e+01
6.065847e+01	-1.317378e+01
6.100883e+01	-1.322141e+01
6.136121e+01	-1.326978e+01
6.171563e+01	-1.331635e+01
6.207210e+01	-1.336393e+01
6.243063e+01	-1.341187e+01
6.279122e+01	-1.346008e+01
6.315390e+01	-1.350752e+01
6.351868e+01	-1.355543e+01
6.388556e+01	-1.360369e+01
6.425456e+01	-1.365098e+01
6.462569e+01	-1.369984e+01
6.499897e+01	-1.374659e+01
6.537440e+01	-1.379475e+01
6.575200e+01	-1.384365e+01
6.613178e+01	-1.388993e+01
6.651375e+01	-1.393895e+01
6.689793e+01	-1.398682e+01
6.728433e+01	-1.403463e+01
6.767297e+01	-1.408263e+01
6.806384e+01	-1.413093e+01
6.845698e+01	-1.417965e+01
6.885238e+01	-1.422707e+01
6.925007e+01	-1.427574e+01
6.965005e+01	-1.432349e+01
7.005235e+01	-1.437144e+01
7.045697e+01	-1.441937e+01
7.086393e+01	-1.446752e+01
7.127323e+01	-1.451659e+01
7.168490e+01	-1.456379e+01
7.209895e+01	-1.461334e+01
7.251539e+01	-1.466146e+01
7.293424e+01	-1.471007e+01
7.335551e+01	-1.475837e+01
7.377920e+01	-1.480659e+01
7.420535e+01	-1.485543e+01
7.463396e+01	-1.490337e+01
7.506504e+01	-1.495115e+01
7.549861e+01	-1.500013e+01
7.593469e+01	-1.504856e+01
7.637328e+01	-1.509679e+01
7.681441e+01	-1.514504e+01
7.725809e+01	-1.519328e+01
7.770433e+01	-1.524224e+01
7.815315e+01	-1.529160e+01
7.860456e+01	-1.533887e+01
7.905857e+01	-1.538836e+01
7.951521e+01	-1.543550e+01
7.997449e+01	-1.548464e+01
8.043642e+01	-1.553298e+01
8.090102e+01	-1.558316e+01
8.136830e+01	-1.563131e+01
8.183828e+01	-1.568045e+01
8.231097e+01	-1.572802e+01
8.278640e+01	-1.577781e+01
8.326457e+01	-1.582530e+01
8.374550e+01	-1.587428e+01
8.422921e+01	-1.592398e+01
8.471572e+01	-1.597213e+01
8.520503e+01	-1.602084e+01
8.569717e+01	-1.606958e+01
8.619215e+01	-1.611906e+01
8.669000e+01	-1.616791e+01
8.719071e+01	-1.621640e+01
8.769432e+01	-1.626493e+01
8.820084e+01	-1.631340e+01
8.871029e+01	-1.636363e+01
8.922267e+01	-1.641139e+01
8.973802e+01	-1.646001e+01
9.025634e+01	-1.651081e+01
9.077766e+01	-1.655836e+01
9.130199e+01	-1.660672e+01
9.182935e+01	-1.665676e+01
9.235975e+01	-1.670618e+01
9.289321e+01	-1.675430e+01
9.342976e+01	-1.680331e+01
9.396941e+01	-1.685124e+01
9.451217e+01	-1.690146e+01
9.505807e+01	-1.695134e+01
9.560712e+01	-1.699907e+01
9.615934e+01	-1.704946e+01
9.671476e+01	-1.709619e+01
9.727338e+01	-1.714618e+01
9.783522e+01	-1.719545e+01
9.840032e+01	-1.724432e+01
9.896867e+01	-1.729405e+01
9.954031e+01	-1.734249e+01
1.001153e+02	-1.739172e+01
1.006935e+02	-1.744080e+01
1.012751e+02	-1.749021e+01
1.018601e+02	-1.754023e+01
1.024484e+02	-1.758859e+01
1.030402e+02	-1.763717e+01
1.036353e+02	-1.768759e+01
1.042339e+02	-1.773599e+01
1.048360e+02	-1.778457e+01
1.054415e+02	-1.783432e+01
1.060505e+02	-1.788364e+01
1.066631e+02	-1.793291e+01
1.072791e+02	-1.798240e+01
1.078988e+02	-1.803127e+01
1.085220e+02	-1.808147e+01
1.091488e+02	-1.813000e+01
1.097793e+02	-1.817864e+01
1.104133e+02	-1.822761e+01
1.110511e+02	-1.827790e+01
1.116925e+02	-1.832745e+01
1.123376e+02	-1.837534e+01
1.129865e+02	-1.842554e+01
1.136391e+02	-1.847415e+01
1.142955e+02	-1.852523e+01
1.149556e+02	-1.857369e+01
1.156196e+02	-1.862306e+01
1.162874e+02	-1.867112e+01
1.169591e+02	-1.872086e+01
1.176347e+02	-1.877050e+01
1.183141e+02	-1.882077e+01
1.189975e+02	-1.887037e+01
1.196848e+02	-1.891968e+01
1.203761e+02	-1.896706e+01
1.210714e+02	-1.901902e+01
1.217707e+02	-1.906845e+01
1.224740e+02	-1.911818e+01
1.231814e+02	-1.916446e+01
1.238929e+02	-1.921636e+01
1.246085e+02	-1.926538e+01
1.253283e+02	-1.931454e+01
1.260522e+02	-1.936451e+01
1.267802e+02	-1.941331e+01
1.275125e+02	-1.946390e+01
1.282490e+02	-1.951157e+01
1.289898e+02	-1.956124e+01
1.297348e+02	-1.961138e+01
1.304842e+02	-1.966067e+01
1.312378e+02	-1.971016e+01
1.319959e+02	-1.976199e+01
1.327583e+02	-1.980847e+01
1.335251e+02	-1.985770e+01
1.342963e+02	-1.990804e+01
1.350720e+02	-1.995932e+01
1.358522e+02	-2.000820e+01
1.366368e+02	-2.005793e+01
1.374260e+02	-2.010656e+01
1.382198e+02	-2.015495e+01
1.390182e+02	-2.020520e+01
1.398211e+02	-2.025395e+01
1.406287e+02	-2.030513e+01
1.414410e+02	-2.035492e+01
1.422579e+02	-2.040401e+01
1.430796e+02	-2.045380e+01
1.439060e+02	-2.050235e+01
1.447372e+02	-2.055392e+01
1.455732e+02	-2.060215e+01
1.464141e+02	-2.065172e+01
1.472597e+02	-2.070158e+01
1.481103e+02	-2.075069e+01
1.489658e+02	-2.079966e+01
1.498262e+02	-2.085024e+01
1.506916e+02	-2.090021e+01
1.515620e+02	-2.094803e+01
1.524374e+02	-2.099853e+01
1.533179e+02	-2.104981e+01
1.542034e+02	-2.109844e+01
1.550941e+02	-2.114791e+01
1.559899e+02	-2.119848e+01
1.568909e+02	-2.124638e+01
1.577971e+02	-2.129825e+01
1.587085e+02	-2.134655e+01
1.596252e+02	-2.139751e+01
1.605472e+02	-2.144635e+01
1.614745e+02	-2.149566e+01
1.624072e+02	-2.154454e+01
1.633453e+02	-2.159375e+01
1.642887e+02	-2.164587e+01
1.652377e+02	-2.169388e+01
1.661921e+02	-2.174279e+01
1.671520e+02	-2.179403e+01
1.681175e+02	-2.184289e+01
1.690885e+02	-2.189434e+01
1.700651e+02	-2.194203e+01
1.710474e+02	-2.199356e+01
1.720354e+02	-2.204316e+01
1.730291e+02	-2.209128e+01
1.740285e+02	-2.214164e+01
1.750337e+02	-2.219401e+01
1.760446e+02	-2.224146e+01
1.770615e+02	-2.229103e+01
1.780842e+02	-2.234179e+01
1.791128e+02	-2.238947e+01
1.801473e+02	-2.244241e+01
1.811878e+02	-2.249121e+01
1.822344e+02	-2.254038e+01
1.832870e+02	-2.259084e+01
1.843456e+02	-2.263897e+01
1.854104e+02	-2.269007e+01
1.864813e+02	-2.273819e+01
1.875584e+02	-2.278953e+01
1.886418e+02	-2.283896e+01
1.897313e+02	-2.288962e+01
1.908272e+02	-2.293819e+01
1.919294e+02	-2.298925e+01
1.930380e+02	-2.304056e+01
1.941530e+02	-2.308639e+01
1.952744e+02	-2.313684e+01
1.964023e+02	-2.318862e+01
1.975367e+02	-2.323734e+01
1.986777e+02	-2.328516e+01
1.998252e+02	-2.333682e+01
2.009794e+02	-2.338775e+01
2.021403e+02	-2.343707e+01
2.033078e+02	-2.348463e+01
2.044821e+02	-2.353472e+01
2.056632e+02	-2.358483e+01
2.068511e+02	-2.363793e+01
2.080459e+02	-2.368748e+01
2.092475e+02	-2.373264e+01
2.104561e+02	-2.378463e+01
2.116717e+02	-2.383282e+01
2.128943e+02	-2.388662e+01
2.141240e+02	-2.393501e+01
2.153608e+02	-2.398316e+01
2.166047e+02	-2.403703e+01
2.178558e+02	-2.408268e+01
2.191141e+02	-2.413164e+01
2.203797e+02	-2.418406e+01
2.216526e+02	-2.423680e+01
2.229329e+02	-2.428515e+01
2.242205e+02	-2.433397e+01
2.255156e+02	-2.438485e+01
2.268182e+02	-2.443186e+01
2.281283e+02	-2.448385e+01
2.294459e+02	-2.453077e+01
2.307712e+02	-2.458331e+01
2.321041e+02	-2.463265e+01
2.334447e+02	-2.468243e+01
2.347931e+02	-2.473345e+01
2.361493e+02	-2.478481e+01
2.375133e+02	-2.483165e+01
2.388851e+02	-2.488249e+01
2.402649e+02	-2.493094e+01
2.416527e+02	-2.498160e+01
2.430484e+02	-2.503370e+01
2.444523e+02	-2.508019e+01
2.458642e+02	-2.513126e+01
2.472843e+02	-2.518397e+01
2.487126e+02	-2.523150e+01
2.501492e+02	-2.527954e+01
2.515940e+02	-2.533135e+01
2.530472e+02	-2.537991e+01
2.545088e+02	-2.543300e+01
2.559789e+02	-2.548317e+01
2.574574e+02	-2.552933e+01
2.589444e+02	-2.558112e+01
2.604401e+02	-2.563122e+01
2.619444e+02	-2.568299e+01
2.634574e+02	-2.573368e+01
2.649791e+02	-2.578231e+01
2.665096e+02	-2.583131e+01
2.680489e+02	-2.588126e+01
2.695972e+02	-2.593156e+01
2.711544e+02	-2.598053e+01
2.727205e+02	-2.603140e+01
2.742958e+02	-2.607978e+01
2.758801e+02	-2.613399e+01
2.774736e+02	-2.618323e+01
2.790762e+02	-2.623491e+01
2.806882e+02	-2.628139e+01
2.823094e+02	-2.632873e+01
2.839400e+02	-2.638168e+01
2.855800e+02	-2.643110e+01
2.872295e+02	-2.648104e+01
2.888886e+02	-2.653220e+01
2.905572e+02	-2.658036e+01
2.922354e+02	-2.663239e+01
2.939234e+02	-2.668107e+01
2.956211e+02	-2.673133e+01
2.973286e+02	-2.678158e+01
2.990459e+02	-2.683240e+01
3.007732e+02	-2.688137e+01
3.025104e+02	-2.692987e+01
3.042577e+02	-2.698043e+01
3.060151e+02	-2.702870e+01
3.077826e+02	-2.708186e+01
3.095604e+02	-2.712882e+01
3.113484e+02	-2.718175e+01
3.131467e+02	-2.723085e+01
3.149554e+02	-2.728088e+01
3.167746e+02	-2.733241e+01
3.186043e+02	-2.738321e+01
3.204445e+02	-2.743466e+01
3.222954e+02	-2.747622e+01
3.241570e+02	-2.753264e+01
3.260293e+02	-2.758350e+01
3.279124e+02	-2.763239e+01
3.298064e+02	-2.768000e+01
3.317114e+02	-2.773398e+01
3.336273e+02	-2.777931e+01
3.355544e+02	-2.783021e+01
3.374925e+02	-2.787818e+01
3.394418e+02	-2.793430e+01
3.414024e+02	-2.797857e+01
3.433744e+02	-2.803148e+01
3.453577e+02	-2.808307e+01
3.473525e+02	-2.813288e+01
3.493588e+02	-2.818042e+01
3.513766e+02	-2.822928e+01
3.534062e+02	-2.827686e+01
3.554474e+02	-2.833052e+01
3.575005e+02	-2.838314e+01
3.595654e+02	-2.843120e+01
3.616422e+02	-2.848524e+01
3.637311e+02	-2.853074e+01
3.658320e+02	-2.858541e+01
3.679450e+02	-2.863141e+01
3.700702e+02	-2.867785e+01
3.722077e+02	-2.872966e+01
3.743576e+02	-2.877596e+01
3.765199e+02	-2.882782e+01
3.786946e+02	-2.888072e+01
3.808820e+02	-2.893398e+01
3.830819e+02	-2.898323e+01
3.852946e+02	-2.903061e+01
3.875200e+02	-2.907704e+01
3.897583e+02	-2.913330e+01
3.920096e+02	-2.918226e+01
3.942738e+02	-2.923437e+01
3.965511e+02	-2.927883e+01
3.988416e+02	-2.933157e+01
4.011452e+02	-2.938766e+01
4.034622e+02	-2.943532e+01
4.057926e+02	-2.948737e+01
4.081365e+02	-2.952707e+01
4.104938e+02	-2.958411e+01
4.128648e+02	-2.963283e+01
4.152495e+02	-2.968857e+01
4.176480e+02	-2.973507e+01
4.200603e+02	-2.978609e+01
4.224866e+02	-2.983165e+01
4.249268e+02	-2.988464e+01
4.273812e+02	-2.993482e+01
4.298497e+02	-2.998677e+01
4.323325e+02	-3.003148e+01
4.348297e+02	-3.007994e+01
4.373412e+02	-3.013248e+01
4.398673e+02	-3.018300e+01
4.424079e+02	-3.024079e+01
4.449633e+02	-3.028510e+01
4.475334e+02	-3.033181e+01
4.501183e+02	-3.038489e+01
4.527182e+02	-3.043166e+01
4.553330e+02	-3.048786e+01
4.579630e+02	-3.052969e+01
4.606082e+02	-3.058808e+01
4.632687e+02	-3.063868e+01
4.659445e+02	-3.068552e+01
4.686358e+02	-3.073721e+01
4.713426e+02	-3.078940e+01
4.740650e+02	-3.083596e+01
4.768032e+02	-3.088475e+01
4.795572e+02	-3.094010e+01
4.823271e+02	-3.098434e+01
4.851130e+02	-3.103656e+01
4.879150e+02	-3.109520e+01
4.907332e+02	-3.113461e+01
4.935676e+02	-3.118779e+01
4.964185e+02	-3.123843e+01
4.992858e+02	-3.128845e+01
5.021696e+02	-3.134201e+01
5.050701e+02	-3.138807e+01
5.079874e+02	-3.144455e+01
5.109215e+02	-3.148814e+01
5.138726e+02	-3.153683e+01
5.168407e+02	-3.159446e+01
5.198259e+02	-3.163556e+01
5.228284e+02	-3.168953e+01
5.258482e+02	-3.173600e+01
5.288855e+02	-3.178513e+01
5.319403e+02	-3.183545e+01
5.350128e+02	-3.188830e+01
5.381030e+02	-3.193973e+01
5.412111e+02	-3.198932e+01
5.443371e+02	-3.203816e+01
5.474812e+02	-3.208936e+01
5.506434e+02	-3.214265e+01
5.538239e+02	-3.219157e+01
5.570228e+02	-3.224324e+01
5.602401e+02	-3.228885e+01
5.634760e+02	-3.233729e+01
5.667306e+02	-3.239441e+01
5.700040e+02	-3.244073e+01
5.732964e+02	-3.249129e+01
5.766077e+02	-3.254243e+01
5.799382e+02	-3.259232e+01
5.832879e+02	-3.265276e+01
5.866569e+02	-3.269180e+01
5.900454e+02	-3.273814e+01
5.934535e+02	-3.279278e+01
5.968813e+02	-3.283998e+01
6.003288e+02	-3.289621e+01
6.037963e+02	-3.294584e+01
6.072838e+02	-3.299174e+01
6.107914e+02	-3.304579e+01
6.143194e+02	-3.309961e+01
6.178676e+02	-3.313626e+01
6.214364e+02	-3.319168e+01
6.250258e+02	-3.324180e+01
6.286359e+02	-3.329419e+01
6.322669e+02	-3.333861e+01
6.359189e+02	-3.339331e+01
6.395919e+02	-3.344664e+01
6.432862e+02	-3.349675e+01
6.470017e+02	-3.354315e+01
6.507388e+02	-3.359881e+01
6.544974e+02	-3.364282e+01
6.582778e+02	-3.369402e+01
6.620800e+02	-3.375126e+01
6.659041e+02	-3.379733e+01
6.697504e+02	-3.384961e+01
6.736188e+02	-3.389652e+01
6.775096e+02	-3.394541e+01
6.814229e+02	-3.400366e+01
6.853587e+02	-3.404873e+01
6.893173e+02	-3.410431e+01
6.932988e+02	-3.414724e+01
6.973033e+02	-3.419912e+01
7.013309e+02	-3.425577e+01
