Frequency(Hz)	Magnitude(dB)
1.000000e+01	-2.194349e+00
1.005776e+01	-2.214318e+00
1.011585e+01	-2.234513e+00
1.017428e+01	-2.254718e+00
1.023305e+01	-2.274924e+00
1.029215e+01	-2.295316e+00
1.035160e+01	-2.316054e+00
1.041139e+01	-2.336651e+00
1.047153e+01	-2.357576e+00
1.053201e+01	-2.378739e+00
1.059284e+01	-2.399946e+00
1.065403e+01	-2.421295e+00
1.071556e+01	-2.442509e+00
1.077746e+01	-2.463981e+00
1.083971e+01	-2.485763e+00
1.090232e+01	-2.507979e+00
1.096529e+01	-2.529840e+00
1.102862e+01	-2.551827e+00
1.109232e+01	-2.574160e+00
1.115639e+01	-2.596678e+00
1.122083e+01	-2.619389e+00
1.128564e+01	-2.642063e+00
1.135083e+01	-2.665124e+00
1.141639e+01	-2.687716e+00
1.148233e+01	-2.711058e+00
1.154865e+01	-2.734459e+00
1.161536e+01	-2.757732e+00
1.168245e+01	-2.781577e+00
1.174992e+01	-2.805290e+00
1.181779e+01	-2.829032e+00
1.188605e+01	-2.853109e+00
1.195470e+01	-2.877107e+00
1.202375e+01	-2.901542e+00
1.209320e+01	-2.926030e+00
1.216305e+01	-2.950649e+00
1.223330e+01	-2.975319e+00
1.230396e+01	-3.000138e+00
1.237503e+01	-3.025335e+00
1.244651e+01	-3.050323e+00
1.251840e+01	-3.075639e+00
1.259070e+01	-3.101130e+00
1.266343e+01	-3.126810e+00
1.273657e+01	-3.152328e+00
1.281014e+01	-3.178453e+00
1.288413e+01	-3.204371e+00
1.295855e+01	-3.230369e+00
1.303339e+01	-3.256783e+00
1.310867e+01	-3.283192e+00
1.318439e+01	-3.309744e+00
1.326054e+01	-3.336484e+00
1.333713e+01	-3.363588e+00
1.341417e+01	-3.390589e+00
1.349165e+01	-3.417700e+00
1.356958e+01	-3.445173e+00
1.364795e+01	-3.472522e+00
1.372678e+01	-3.500360e+00
1.380607e+01	-3.527897e+00
1.388581e+01	-3.555945e+00
1.396602e+01	-3.584129e+00
1.404668e+01	-3.612097e+00
1.412782e+01	-3.640486e+00
1.420942e+01	-3.669066e+00
1.429149e+01	-3.697350e+00
1.437404e+01	-3.726102e+00
1.445706e+01	-3.755172e+00
1.454057e+01	-3.784154e+00
1.462455e+01	-3.813330e+00
1.470902e+01	-3.842720e+00
1.479398e+01	-3.871791e+00
1.487943e+01	-3.901649e+00
1.496537e+01	-3.931277e+00
1.505181e+01	-3.961237e+00
1.513875e+01	-3.991180e+00
1.522619e+01	-4.021329e+00
1.531414e+01	-4.051810e+00
1.540259e+01	-4.082141e+00
1.549156e+01	-4.112653e+00
1.558103e+01	-4.143413e+00
1.567103e+01	-4.174041e+00
1.576155e+01	-4.204962e+00
1.585258e+01	-4.236130e+00
1.594415e+01	-4.267687e+00
1.603624e+01	-4.298984e+00
1.612886e+01	-4.330286e+00
1.622202e+01	-4.361938e+00
1.631572e+01	-4.393484e+00
1.640996e+01	-4.425358e+00
1.650474e+01	-4.457708e+00
1.660008e+01	-4.489805e+00
1.669596e+01	-4.522030e+00
1.679239e+01	-4.554399e+00
1.688938e+01	-4.587185e+00
1.698694e+01	-4.619664e+00
1.708505e+01	-4.652561e+00
1.718373e+01	-4.685611e+00
1.728299e+01	-4.718410e+00
1.738281e+01	-4.751937e+00
1.748322e+01	-4.784884e+00
1.758420e+01	-4.818482e+00
1.768576e+01	-4.852458e+00
1.778792e+01	-4.885841e+00
1.789066e+01	-4.919661e+00
1.799399e+01	-4.953775e+00
1.809793e+01	-4.987878e+00
1.820246e+01	-5.021860e+00
1.830760e+01	-5.056508e+00
1.841334e+01	-5.090773e+00
1.851969e+01	-5.125372e+00
1.862666e+01	-5.160367e+00
1.873425e+01	-5.195183e+00
1.884246e+01	-5.230081e+00
1.895129e+01	-5.265217e+00
1.906075e+01	-5.300210e+00
1.917085e+01	-5.335498e+00
1.928158e+01	-5.371165e+00
1.939295e+01	-5.406627e+00
1.950496e+01	-5.442398e+00
1.961762e+01	-5.477951e+00
1.973093e+01	-5.514082e+00
1.984490e+01	-5.549870e+00
1.995952e+01	-5.586178e+00
2.007480e+01	-5.622776e+00
2.019076e+01	-5.658552e+00
2.030738e+01	-5.695491e+00
2.042467e+01	-5.732096e+00
2.054264e+01	-5.768725e+00
2.066130e+01	-5.805526e+00
2.078064e+01	-5.842599e+00
2.090066e+01	-5.879647e+00
2.102139e+01	-5.916859e+00
2.114280e+01	-5.953757e+00
2.126492e+01	-5.991067e+00
2.138775e+01	-6.028753e+00
2.151128e+01	-6.066203e+00
2.163553e+01	-6.104406e+00
2.176050e+01	-6.141575e+00
2.188619e+01	-6.179887e+00
2.201260e+01	-6.217959e+00
2.213974e+01	-6.256178e+00
2.226762e+01	-6.294461e+00
2.239624e+01	-6.332223e+00
2.252560e+01	-6.370764e+00
2.265571e+01	-6.409398e+00
2.278656e+01	-6.448334e+00
2.291818e+01	-6.487026e+00
2.305055e+01	-6.525492e+00
2.318369e+01	-6.564584e+00
2.331760e+01	-6.603561e+00
2.345228e+01	-6.642621e+00
2.358774e+01	-6.682078e+00
2.372398e+01	-6.721415e+00
2.386101e+01	-6.760680e+00
2.399883e+01	-6.800170e+00
2.413745e+01	-6.839928e+00
2.427686e+01	-6.879674e+00
2.441709e+01	-6.919647e+00
2.455812e+01	-6.959318e+00
2.469997e+01	-6.999443e+00
2.484263e+01	-7.039611e+00
2.498612e+01	-7.079683e+00
2.513044e+01	-7.120034e+00
2.527559e+01	-7.160253e+00
2.542158e+01	-7.200580e+00
2.556842e+01	-7.241226e+00
2.571610e+01	-7.282145e+00
2.586463e+01	-7.322847e+00
2.601403e+01	-7.363196e+00
2.616428e+01	-7.404158e+00
2.631541e+01	-7.445252e+00
2.646740e+01	-7.486140e+00
2.662028e+01	-7.527346e+00
2.677404e+01	-7.568989e+00
2.692868e+01	-7.610066e+00
2.708422e+01	-7.651400e+00
2.724066e+01	-7.692984e+00
2.739800e+01	-7.734849e+00
2.755625e+01	-7.776075e+00
2.771541e+01	-7.817821e+00
2.787550e+01	-7.859739e+00
2.803650e+01	-7.901862e+00
2.819844e+01	-7.943719e+00
2.836131e+01	-7.985247e+00
2.852513e+01	-8.027679e+00
2.868989e+01	-8.070032e+00
2.885560e+01	-8.111853e+00
2.902227e+01	-8.154286e+00
2.918990e+01	-8.196519e+00
2.935850e+01	-8.238971e+00
2.952807e+01	-8.281791e+00
2.969863e+01	-8.324339e+00
2.987016e+01	-8.367350e+00
3.004269e+01	-8.409811e+00
3.021622e+01	-8.452741e+00
3.039075e+01	-8.495657e+00
3.056628e+01	-8.538945e+00
3.074283e+01	-8.581780e+00
3.092040e+01	-8.624864e+00
3.109900e+01	-8.668257e+00
3.127862e+01	-8.711517e+00
3.145929e+01	-8.754583e+00
3.164099e+01	-8.798264e+00
3.182375e+01	-8.841654e+00
3.200756e+01	-8.885471e+00
3.219244e+01	-8.928580e+00
3.237838e+01	-8.971861e+00
3.256540e+01	-9.015900e+00
3.275349e+01	-9.059597e+00
3.294268e+01	-9.103780e+00
3.313295e+01	-9.147637e+00
3.332433e+01	-9.191999e+00
3.351681e+01	-9.235446e+00
3.371040e+01	-9.279310e+00
3.390511e+01	-9.323724e+00
3.410094e+01	-9.367831e+00
3.429791e+01	-9.412136e+00
3.449601e+01	-9.456479e+00
3.469526e+01	-9.501447e+00
3.489566e+01	-9.545648e+00
3.509721e+01	-9.590137e+00
3.529993e+01	-9.634543e+00
3.550382e+01	-9.679122e+00
3.570889e+01	-9.723358e+00
3.591515e+01	-9.768468e+00
3.612259e+01	-9.813297e+00
3.633123e+01	-9.858298e+00
3.654108e+01	-9.902941e+00
3.675214e+01	-9.948072e+00
3.696442e+01	-9.993025e+00
3.717792e+01	-1.003807e+01
3.739266e+01	-1.008296e+01
3.760864e+01	-1.012806e+01
3.782587e+01	-1.017355e+01
3.804435e+01	-1.021860e+01
3.826409e+01	-1.026405e+01
3.848510e+01	-1.030916e+01
3.870739e+01	-1.035516e+01
3.893096e+01	-1.040054e+01
3.915583e+01	-1.044602e+01
3.938199e+01	-1.049141e+01
3.960946e+01	-1.053717e+01
3.983824e+01	-1.058203e+01
4.006834e+01	-1.062847e+01
4.029978e+01	-1.067341e+01
4.053255e+01	-1.071910e+01
4.076666e+01	-1.076613e+01
4.100213e+01	-1.081121e+01
4.123896e+01	-1.085655e+01
4.147715e+01	-1.090325e+01
4.171672e+01	-1.094902e+01
4.195767e+01	-1.099479e+01
4.220002e+01	-1.104095e+01
4.244377e+01	-1.108718e+01
4.268892e+01	-1.113299e+01
4.293549e+01	-1.117977e+01
4.318348e+01	-1.122603e+01
4.343291e+01	-1.127177e+01
4.368377e+01	-1.131795e+01
4.393609e+01	-1.136495e+01
4.418986e+01	-1.141138e+01
4.444510e+01	-1.145719e+01
4.470182e+01	-1.150427e+01
4.496001e+01	-1.155040e+01
4.521970e+01	-1.159766e+01
4.548089e+01	-1.164283e+01
4.574358e+01	-1.169025e+01
4.600779e+01	-1.173768e+01
4.627353e+01	-1.178379e+01
4.654081e+01	-1.183013e+01
4.680963e+01	-1.187718e+01
4.708000e+01	-1.192353e+01
4.735193e+01	-1.197097e+01
4.762543e+01	-1.201746e+01
4.790051e+01	-1.206481e+01
4.817719e+01	-1.211089e+01
4.845545e+01	-1.215833e+01
4.873533e+01	-1.220524e+01
4.901682e+01	-1.225260e+01
4.929994e+01	-1.229943e+01
4.958470e+01	-1.234609e+01
4.987110e+01	-1.239386e+01
5.015915e+01	-1.244094e+01
5.044887e+01	-1.248845e+01
5.074026e+01	-1.253500e+01
5.103333e+01	-1.258217e+01
5.132810e+01	-1.262913e+01
5.162457e+01	-1.267690e+01
5.192275e+01	-1.272404e+01
5.222265e+01	-1.277171e+01
5.252429e+01	-1.281884e+01
5.282767e+01	-1.286619e+01
5.313280e+01	-1.291404e+01
5.343969e+01	-1.296117e+01
5.374836e+01	-1.300976e+01
5.405880e+01	-1.305661e+01
5.437105e+01	-1.310398e+01
5.468509e+01	-1.315207e+01
5.500095e+01	-1.319972e+01
5.531863e+01	-1.324736e+01
5.563815e+01	-1.329437e+01
5.595951e+01	-1.334241e+01
5.628273e+01	-1.338970e+01
5.660782e+01	-1.343775e+01
5.693479e+01	-1.348578e+01
5.726364e+01	-1.353294e+01
5.759439e+01	-1.358090e+01
5.792705e+01	-1.362958e+01
5.826164e+01	-1.367639e+01
5.859815e+01	-1.372564e+01
5.893662e+01	-1.377277e+01
5.927703e+01	-1.382101e+01
5.961941e+01	-1.386854e+01
5.996377e+01	-1.391679e+01
6.031012e+01	-1.396457e+01
6.065847e+01	-1.401222e+01
6.100883e+01	-1.406091e+01
6.136121e+01	-1.410895e+01
6.171563e+01	-1.415733e+01
6.207210e+01	-1.420542e+01
6.243063e+01	-1.425287e+01
6.279122e+01	-1.430211e+01
6.315390e+01	-1.434920e+01
6.351868e+01	-1.439802e+01
6.388556e+01	-1.444554e+01
6.425456e+01	-1.449400e+01
6.462569e+01	-1.454231e+01
6.499897e+01	-1.459139e+01
6.537440e+01	-1.463870e+01
6.575200e+01	-1.468765e+01
6.613178e+01	-1.473564e+01
6.651375e+01	-1.478455e+01
6.689793e+01	-1.483246e+01
6.728433e+01	-1.488185e+01
6.767297e+01	-1.492946e+01
6.806384e+01	-1.497757e+01
6.845698e+01	-1.502673e+01
6.885238e+01	-1.507443e+01
6.925007e+01	-1.512391e+01
6.965005e+01	-1.517174e+01
7.005235e+01	-1.522050e+01
7.045697e+01	-1.526844e+01
7.086393e+01	-1.531704e+01
7.127323e+01	-1.536590e+01
7.168490e+01	-1.541483e+01
7.209895e+01	-1.546288e+01
7.251539e+01	-1.551053e+01
7.293424e+01	-1.556085e+01
7.335551e+01	-1.560817e+01
7.377920e+01	-1.565762e+01
7.420535e+01	-1.570607e+01
7.463396e+01	-1.575534e+01
7.506504e+01	-1.580288e+01
7.549861e+01	-1.585146e+01
7.593469e+01	-1.590131e+01
7.637328e+01	-1.594888e+01
7.681441e+01	-1.599943e+01
7.725809e+01	-1.604773e+01
7.770433e+01	-1.609556e+01
7.815315e+01	-1.614553e+01
7.860456e+01	-1.619293e+01
7.905857e+01	-1.624313e+01
7.951521e+01	-1.629101e+01
7.997449e+01	-1.633961e+01
8.043642e+01	-1.638884e+01
8.090102e+01	-1.643772e+01
8.136830e+01	-1.648799e+01
8.183828e+01	-1.653598e+01
8.231097e+01	-1.658400e+01
8.278640e+01	-1.663363e+01
8.326457e+01	-1.668341e+01
8.374550e+01	-1.673158e+01
8.422921e+01	-1.678026e+01
8.471572e+01	-1.683052e+01
8.520503e+01	-1.687816e+01
8.569717e+01	-1.692800e+01
8.619215e+01	-1.697692e+01
8.669000e+01	-1.702528e+01
8.719071e+01	-1.707476e+01
8.769432e+01	-1.712295e+01
8.820084e+01	-1.717315e+01
8.871029e+01	-1.722200e+01
8.922267e+01	-1.727063e+01
8.973802e+01	-1.731971e+01
9.025634e+01	-1.736843e+01
9.077766e+01	-1.741861e+01
9.130199e+01	-1.746633e+01
9.182935e+01	-1.751719e+01
9.235975e+01	-1.756470e+01
9.289321e+01	-1.761573e+01
9.342976e+01	-1.766414e+01
9.396941e+01	-1.771322e+01
9.451217e+01	-1.776077e+01
9.505807e+01	-1.781338e+01
9.560712e+01	-1.786183e+01
9.615934e+01	-1.790899e+01
9.671476e+01	-1.795989e+01
9.727338e+01	-1.800898e+01
9.783522e+01	-1.805818e+01
9.840032e+01	-1.810698e+01
9.896867e+01	-1.815635e+01
9.954031e+01	-1.820573e+01
1.001153e+02	-1.825492e+01
1.006935e+02	-1.830430e+01
1.012751e+02	-1.835270e+01
1.018601e+02	-1.840242e+01
1.024484e+02	-1.845347e+01
1.030402e+02	-1.850323e+01
1.036353e+02	-1.855064e+01
1.042339e+02	-1.860019e+01
1.048360e+02	-1.865005e+01
1.054415e+02	-1.869874e+01
1.060505e+02	-1.874804e+01
1.066631e+02	-1.879716e+01
1.072791e+02	-1.884685e+01
1.078988e+02	-1.889660e+01
1.085220e+02	-1.894668e+01
1.091488e+02	-1.899383e+01
1.097793e+02	-1.904532e+01
1.104133e+02	-1.909371e+01
1.110511e+02	-1.914118e+01
1.116925e+02	-1.919302e+01
1.123376e+02	-1.924301e+01
1.129865e+02	-1.929153e+01
1.136391e+02	-1.934135e+01
1.142955e+02	-1.939040e+01
1.149556e+02	-1.944040e+01
1.156196e+02	-1.948983e+01
1.162874e+02	-1.953841e+01
1.169591e+02	-1.958773e+01
1.176347e+02	-1.963903e+01
1.183141e+02	-1.968673e+01
1.189975e+02	-1.973648e+01
1.196848e+02	-1.978736e+01
1.203761e+02	-1.983657e+01
1.210714e+02	-1.988501e+01
1.217707e+02	-1.993476e+01
1.224740e+02	-1.998601e+01
1.231814e+02	-2.003401e+01
1.238929e+02	-2.008389e+01
1.246085e+02	-2.013424e+01
1.253283e+02	-2.018209e+01
1.260522e+02	-2.023195e+01
1.267802e+02	-2.028068e+01
1.275125e+02	-2.033185e+01
1.282490e+02	-2.038157e+01
1.289898e+02	-2.043028e+01
1.297348e+02	-2.047912e+01
1.304842e+02	-2.053106e+01
1.312378e+02	-2.057964e+01
1.319959e+02	-2.062954e+01
1.327583e+02	-2.067878e+01
1.335251e+02	-2.072959e+01
1.342963e+02	-2.077914e+01
1.350720e+02	-2.082623e+01
1.358522e+02	-2.087784e+01
1.366368e+02	-2.092641e+01
1.374260e+02	-2.097705e+01
1.382198e+02	-2.102888e+01
1.390182e+02	-2.107528e+01
1.398211e+02	-2.112531e+01
1.406287e+02	-2.117531e+01
1.414410e+02	-2.122439e+01
1.422579e+02	-2.127490e+01
1.430796e+02	-2.132391e+01
1.439060e+02	-2.137189e+01
1.447372e+02	-2.142212e+01
1.455732e+02	-2.147325e+01
1.464141e+02	-2.152285e+01
1.472597e+02	-2.157145e+01
1.481103e+02	-2.162322e+01
1.489658e+02	-2.167097e+01
1.498262e+02	-2.172168e+01
1.506916e+02	-2.177115e+01
1.515620e+02	-2.182025e+01
1.524374e+02	-2.187341e+01
1.533179e+02	-2.191832e+01
1.542034e+02	-2.197007e+01
1.550941e+02	-2.201982e+01
1.559899e+02	-2.206881e+01
1.568909e+02	-2.211925e+01
1.577971e+02	-2.216965e+01
1.587085e+02	-2.221916e+01
1.596252e+02	-2.226864e+01
1.605472e+02	-2.232093e+01
1.614745e+02	-2.236625e+01
1.624072e+02	-2.241806e+01
1.633453e+02	-2.246572e+01
1.642887e+02	-2.251743e+01
1.652377e+02	-2.256479e+01
1.661921e+02	-2.261664e+01
1.671520e+02	-2.266460e+01
1.681175e+02	-2.271731e+01
1.690885e+02	-2.276744e+01
1.700651e+02	-2.281585e+01
1.710474e+02	-2.286532e+01
1.720354e+02	-2.291569e+01
1.730291e+02	-2.296587e+01
1.740285e+02	-2.301537e+01
1.750337e+02	-2.306469e+01
1.760446e+02	-2.311473e+01
1.770615e+02	-2.316313e+01
1.780842e+02	-2.321278e+01
1.791128e+02	-2.326354e+01
1.801473e+02	-2.331486e+01
1.811878e+02	-2.336406e+01
1.822344e+02	-2.341510e+01
1.832870e+02	-2.346281e+01
1.843456e+02	-2.351155e+01
1.854104e+02	-2.356232e+01
1.864813e+02	-2.361187e+01
1.875584e+02	-2.366165e+01
1.886418e+02	-2.371539e+01
1.897313e+02	-2.376236e+01
1.908272e+02	-2.381217e+01
1.919294e+02	-2.386278e+01
1.930380e+02	-2.391351e+01
1.941530e+02	-2.396239e+01
1.952744e+02	-2.401110e+01
1.964023e+02	-2.405961e+01
1.975367e+02	-2.411187e+01
1.986777e+02	-2.416277e+01
1.998252e+02	-2.421351e+01
2.009794e+02	-2.425961e+01
2.021403e+02	-2.431384e+01
2.033078e+02	-2.436001e+01
2.044821e+02	-2.441108e+01
2.056632e+02	-2.446115e+01
2.068511e+02	-2.451158e+01
2.080459e+02	-2.455997e+01
2.092475e+02	-2.460826e+01
2.104561e+02	-2.465940e+01
2.116717e+02	-2.470819e+01
2.128943e+02	-2.476347e+01
2.141240e+02	-2.480854e+01
2.153608e+02	-2.485934e+01
2.166047e+02	-2.490985e+01
2.178558e+02	-2.496094e+01
2.191141e+02	-2.500940e+01
2.203797e+02	-2.506211e+01
2.216526e+02	-2.510822e+01
2.229329e+02	-2.516143e+01
2.242205e+02	-2.520794e+01
2.255156e+02	-2.526068e+01
2.268182e+02	-2.530687e+01
2.281283e+02	-2.535987e+01
2.294459e+02	-2.540858e+01
2.307712e+02	-2.546056e+01
2.321041e+02	-2.550740e+01
2.334447e+02	-2.555850e+01
2.347931e+02	-2.560746e+01
2.361493e+02	-2.565818e+01
2.375133e+02	-2.570810e+01
2.388851e+02	-2.575485e+01
2.402649e+02	-2.580773e+01
2.416527e+02	-2.585713e+01
2.430484e+02	-2.590809e+01
2.444523e+02	-2.595894e+01
2.458642e+02	-2.600912e+01
2.472843e+02	-2.605933e+01
2.487126e+02	-2.610823e+01
2.501492e+02	-2.615727e+01
2.515940e+02	-2.620897e+01
2.530472e+02	-2.625570e+01
2.545088e+02	-2.630594e+01
2.559789e+02	-2.635714e+01
2.574574e+02	-2.640848e+01
2.589444e+02	-2.645600e+01
2.604401e+02	-2.650490e+01
2.619444e+02	-2.655691e+01
2.634574e+02	-2.661005e+01
2.649791e+02	-2.666055e+01
2.665096e+02	-2.670638e+01
2.680489e+02	-2.675589e+01
2.695972e+02	-2.680542e+01
2.711544e+02	-2.685701e+01
2.727205e+02	-2.690837e+01
2.742958e+02	-2.695591e+01
2.758801e+02	-2.700837e+01
2.774736e+02	-2.705262e+01
2.790762e+02	-2.710705e+01
2.806882e+02	-2.715987e+01
2.823094e+02	-2.720484e+01
2.839400e+02	-2.725886e+01
2.855800e+02	-2.730864e+01
2.872295e+02	-2.735846e+01
2.888886e+02	-2.740822e+01
2.905572e+02	-2.745745e+01
2.922354e+02	-2.750964e+01
2.939234e+02	-2.755518e+01
2.956211e+02	-2.760897e+01
2.973286e+02	-2.765372e+01
2.990459e+02	-2.770579e+01
3.007732e+02	-2.776077e+01
3.025104e+02	-2.780704e+01
3.042577e+02	-2.785421e+01
3.060151e+02	-2.790746e+01
3.077826e+02	-2.795881e+01
3.095604e+02	-2.800787e+01
3.113484e+02	-2.805607e+01
3.131467e+02	-2.810714e+01
3.149554e+02	-2.815887e+01
3.167746e+02	-2.820521e+01
3.186043e+02	-2.825612e+01
3.204445e+02	-2.830530e+01
3.222954e+02	-2.835885e+01
3.241570e+02	-2.840575e+01
3.260293e+02	-2.845643e+01
3.279124e+02	-2.850499e+01
3.298064e+02	-2.855747e+01
3.317114e+02	-2.860008e+01
3.336273e+02	-2.865799e+01
3.355544e+02	-2.871367e+01
3.374925e+02	-2.875756e+01
3.394418e+02	-2.880433e+01
3.414024e+02	-2.885524e+01
3.433744e+02	-2.891526e+01
3.453577e+02	-2.895664e+01
3.473525e+02	-2.900772e+01
3.493588e+02	-2.905978e+01
3.513766e+02	-2.910299e+01
3.534062e+02	-2.915894e+01
3.554474e+02	-2.920927e+01
3.575005e+02	-2.925965e+01
3.595654e+02	-2.931200e+01
3.616422e+02	-2.935708e+01
3.637311e+02	-2.941116e+01
3.658320e+02	-2.946204e+01
3.679450e+02	-2.951311e+01
3.700702e+02	-2.956216e+01
3.722077e+02	-2.960672e+01
3.743576e+02	-2.965995e+01
3.765199e+02	-2.971279e+01
3.786946e+02	-2.975558e+01
3.808820e+02	-2.980798e+01
3.830819e+02	-2.985884e+01
3.852946e+02	-2.991026e+01
3.875200e+02	-2.996151e+01
3.897583e+02	-3.001055e+01
3.920096e+02	-3.006662e+01
3.942738e+02	-3.011573e+01
3.965511e+02	-3.015842e+01
3.988416e+02	-3.021579e+01
4.011452e+02	-3.025547e+01
4.034622e+02	-3.031210e+01
4.057926e+02	-3.036109e+01
4.081365e+02	-3.040788e+01
4.104938e+02	-3.045123e+01
4.128648e+02	-3.051212e+01
4.152495e+02	-3.055967e+01
4.176480e+02	-3.061151e+01
4.200603e+02	-3.066215e+01
4.224866e+02	-3.071504e+01
4.249268e+02	-3.076043e+01
4.273812e+02	-3.080598e+01
4.298497e+02	-3.086013e+01
4.323325e+02	-3.091688e+01
4.348297e+02	-3.095897e+01
4.373412e+02	-3.100978e+01
4.398673e+02	-3.106504e+01
4.424079e+02	-3.111002e+01
4.449633e+02	-3.116605e+01
4.475334e+02	-3.121476e+01
4.501183e+02	-3.126100e+01
4.527182e+02	-3.131354e+01
4.553330e+02	-3.136413e+01
4.579630e+02	-3.141338e+01
4.606082e+02	-3.146332e+01
4.632687e+02	-3.151769e+01
4.659445e+02	-3.156241e+01
4.686358e+02	-3.161137e+01
4.713426e+02	-3.166907e+01
4.740650e+02	-3.170971e+01
4.768032e+02	-3.176816e+01
4.795572e+02	-3.181422e+01
4.823271e+02	-3.186544e+01
4.851130e+02	-3.191505e+01
4.879150e+02	-3.196997e+01
4.907332e+02	-3.200973e+01
4.935676e+02	-3.206572e+01
4.964185e+02	-3.211705e+01
4.992858e+02	-3.216139e+01
5.021696e+02	-3.221813e+01
5.050701e+02	-3.226872e+01
5.079874e+02	-3.231501e+01
5.109215e+02	-3.236544e+01
5.138726e+02	-3.241516e+01
5.168407e+02	-3.246450e+01
5.198259e+02	-3.251807e+01
5.228284e+02	-3.256601e+01
5.258482e+02	-3.261215e+01
5.288855e+02	-3.267112e+01
5.319403e+02	-3.272025e+01
5.350128e+02	-3.276989e+01
5.381030e+02	-3.281553e+01
5.412111e+02	-3.287941e+01
5.443371e+02	-3.292463e+01
5.474812e+02	-3.296828e+01
5.506434e+02	-3.302623e+01
5.538239e+02	-3.306375e+01
5.570228e+02	-3.311685e+01
5.602401e+02	-3.316714e+01
5.634760e+02	-3.321976e+01
5.667306e+02	-3.326816e+01
5.700040e+02	-3.332143e+01
5.732964e+02	-3.337025e+01
5.766077e+02	-3.342078e+01
5.799382e+02	-3.347472e+01
5.832879e+02	-3.352503e+01
5.866569e+02	-3.357235e+01
5.900454e+02	-3.362221e+01
5.934535e+02	-3.367043e+01
5.968813e+02	-3.372805e+01
6.003288e+02	-3.377309e+01
6.037963e+02	-3.382317e+01
6.072838e+02	-3.387756e+01
6.107914e+02	-3.391677e+01
6.143194e+02	-3.397598e+01
6.178676e+02	-3.402532e+01
6.214364e+02	-3.408019e+01
6.250258e+02	-3.412881e+01
6.286359e+02	-3.417766e+01
6.322669e+02	-3.422173e+01
6.359189e+02	-3.427681e+01
6.395919e+02	-3.433159e+01
6.432862e+02	-3.437702e+01
6.470017e+02	-3.443193e+01
6.507388e+02	-3.447392e+01
6.544974e+02	-3.453157e+01
6.582778e+02	-3.458473e+01
6.620800e+02	-3.463071e+01
6.659041e+02	-3.468340e+01
6.697504e+02	-3.472654e+01
6.736188e+02	-3.477592e+01
6.775096e+02	-3.483335e+01
6.814229e+02	-3.488366e+01
6.853587e+02	-3.493647e+01
6.893173e+02	-3.497719e+01
6.932988e+02	-3.502878e+01
6.973033e+02	-3.508487e+01
7.013309e+02	-3.513350e+01
