Frequency(Hz)	Magnitude(dB)
1.000000e+01	-2.082743e+00
1.005776e+01	-2.101877e+00
1.011585e+01	-2.120977e+00
1.017428e+01	-2.140346e+00
1.023305e+01	-2.160011e+00
1.029215e+01	-2.179856e+00
1.035160e+01	-2.199545e+00
1.041139e+01	-2.219439e+00
1.047153e+01	-2.239500e+00
1.053201e+01	-2.259735e+00
1.059284e+01	-2.280084e+00
1.065403e+01	-2.300581e+00
1.071556e+01	-2.321317e+00
1.077746e+01	-2.342117e+00
1.083971e+01	-2.363171e+00
1.090232e+01	-2.384194e+00
1.096529e+01	-2.405428e+00
1.102862e+01	-2.426664e+00
1.109232e+01	-2.448154e+00
1.115639e+01	-2.469854e+00
1.122083e+01	-2.491588e+00
1.128564e+01	-2.513589e+00
1.135083e+01	-2.535288e+00
1.141639e+01	-2.557597e+00
1.148233e+01	-2.580392e+00
1.154865e+01	-2.602482e+00
1.161536e+01	-2.625050e+00
1.168245e+01	-2.647853e+00
1.174992e+01	-2.670731e+00
1.181779e+01	-2.693783e+00
1.188605e+01	-2.717088e+00
1.195470e+01	-2.740387e+00
1.202375e+01	-2.763809e+00
1.209320e+01	-2.787526e+00
1.216305e+01	-2.811102e+00
1.223330e+01	-2.835015e+00
1.230396e+01	-2.859140e+00
1.237503e+01	-2.883315e+00
1.244651e+01	-2.907687e+00
1.251840e+01	-2.932299e+00
1.259070e+01	-2.956666e+00
1.266343e+01	-2.981625e+00
1.273657e+01	-3.006498e+00
1.281014e+01	-3.031424e+00
1.288413e+01	-3.056848e+00
1.295855e+01	-3.082306e+00
1.303339e+01	-3.107839e+00
1.310867e+01	-3.133413e+00
1.318439e+01	-3.159128e+00
1.326054e+01	-3.184835e+00
1.333713e+01	-3.211095e+00
1.341417e+01	-3.237310e+00
1.349165e+01	-3.263708e+00
1.356958e+01	-3.290090e+00
1.364795e+01	-3.316586e+00
1.372678e+01	-3.343627e+00
1.380607e+01	-3.370540e+00
1.388581e+01	-3.397710e+00
1.396602e+01	-3.424655e+00
1.404668e+01	-3.452206e+00
1.412782e+01	-3.479861e+00
1.420942e+01	-3.507343e+00
1.429149e+01	-3.535092e+00
1.437404e+01	-3.562979e+00
1.445706e+01	-3.591171e+00
1.454057e+01	-3.619567e+00
1.462455e+01	-3.647682e+00
1.470902e+01	-3.675987e+00
1.479398e+01	-3.704811e+00
1.487943e+01	-3.733488e+00
1.496537e+01	-3.762502e+00
1.505181e+01	-3.791621e+00
1.513875e+01	-3.820791e+00
1.522619e+01	-3.850091e+00
1.531414e+01	-3.879672e+00
1.540259e+01	-3.909229e+00
1.549156e+01	-3.938897e+00
1.558103e+01	-3.968955e+00
1.567103e+01	-3.999106e+00
1.576155e+01	-4.029230e+00
1.585258e+01	-4.059415e+00
1.594415e+01	-4.089926e+00
1.603624e+01	-4.120393e+00
1.612886e+01	-4.151188e+00
1.622202e+01	-4.181886e+00
1.631572e+01	-4.213006e+00
1.640996e+01	-4.244179e+00
1.650474e+01	-4.275503e+00
1.660008e+01	-4.306892e+00
1.669596e+01	-4.338379e+00
1.679239e+01	-4.370070e+00
1.688938e+01	-4.401614e+00
1.698694e+01	-4.433636e+00
1.708505e+01	-4.465975e+00
1.718373e+01	-4.497544e+00
1.728299e+01	-4.530394e+00
1.738281e+01	-4.562891e+00
1.748322e+01	-4.595907e+00
1.758420e+01	-4.628197e+00
1.768576e+01	-4.661165e+00
1.778792e+01	-4.693882e+00
1.789066e+01	-4.726992e+00
1.799399e+01	-4.760267e+00
1.809793e+01	-4.793564e+00
1.820246e+01	-4.827423e+00
1.830760e+01	-4.860935e+00
1.841334e+01	-4.894647e+00
1.851969e+01	-4.928374e+00
1.862666e+01	-4.962420e+00
1.873425e+01	-4.996636e+00
1.884246e+01	-5.030942e+00
1.895129e+01	-5.065248e+00
1.906075e+01	-5.099940e+00
1.917085e+01	-5.134384e+00
1.928158e+01	-5.169181e+00
1.939295e+01	-5.204041e+00
1.950496e+01	-5.239070e+00
1.961762e+01	-5.274124e+00
1.973093e+01	-5.309228e+00
1.984490e+01	-5.344529e+00
1.995952e+01	-5.380412e+00
2.007480e+01	-5.415598e+00
2.019076e+01	-5.451366e+00
2.030738e+01	-5.487544e+00
2.042467e+01	-5.523276e+00
2.054264e+01	-5.559673e+00
2.066130e+01	-5.595534e+00
2.078064e+01	-5.631993e+00
2.090066e+01	-5.668044e+00
2.102139e+01	-5.704590e+00
2.114280e+01	-5.741577e+00
2.126492e+01	-5.777796e+00
2.138775e+01	-5.814906e+00
2.151128e+01	-5.851591e+00
2.163553e+01	-5.889070e+00
2.176050e+01	-5.925906e+00
2.188619e+01	-5.963673e+00
2.201260e+01	-6.001221e+00
2.213974e+01	-6.038439e+00
2.226762e+01	-6.076113e+00
2.239624e+01	-6.113601e+00
2.252560e+01	-6.151566e+00
2.265571e+01	-6.189591e+00
2.278656e+01	-6.227554e+00
2.291818e+01	-6.265576e+00
2.305055e+01	-6.303786e+00
2.318369e+01	-6.342489e+00
2.331760e+01	-6.381024e+00
2.345228e+01	-6.419473e+00
2.358774e+01	-6.457818e+00
2.372398e+01	-6.496823e+00
2.386101e+01	-6.535537e+00
2.399883e+01	-6.574574e+00
2.413745e+01	-6.613701e+00
2.427686e+01	-6.653228e+00
2.441709e+01	-6.692167e+00
2.455812e+01	-6.731579e+00
2.469997e+01	-6.771266e+00
2.484263e+01	-6.810406e+00
2.498612e+01	-6.850311e+00
2.513044e+01	-6.889753e+00
2.527559e+01	-6.929915e+00
2.542158e+01	-6.969943e+00
2.556842e+01	-7.009833e+00
2.571610e+01	-7.049700e+00
2.586463e+01	-7.090024e+00
2.601403e+01	-7.130527e+00
2.616428e+01	-7.170790e+00
2.631541e+01	-7.211289e+00
2.646740e+01	-7.251760e+00
2.662028e+01	-7.292490e+00
2.677404e+01	-7.333203e+00
2.692868e+01	-7.374315e+00
2.708422e+01	-7.415005e+00
2.724066e+01	-7.455876e+00
2.739800e+01	-7.496817e+00
2.755625e+01	-7.537870e+00
2.771541e+01	-7.579277e+00
2.787550e+01	-7.620722e+00
2.803650e+01	-7.662231e+00
2.819844e+01	-7.703237e+00
2.836131e+01	-7.745200e+00
2.852513e+01	-7.787000e+00
2.868989e+01	-7.829090e+00
2.885560e+01	-7.870401e+00
2.902227e+01	-7.912032e+00
2.918990e+01	-7.954494e+00
2.935850e+01	-7.995878e+00
2.952807e+01	-8.038203e+00
2.969863e+01	-8.080426e+00
2.987016e+01	-8.123107e+00
3.004269e+01	-8.165728e+00
3.021622e+01	-8.207842e+00
3.039075e+01	-8.250424e+00
3.056628e+01	-8.292691e+00
3.074283e+01	-8.335672e+00
3.092040e+01	-8.378205e+00
3.109900e+01	-8.420837e+00
3.127862e+01	-8.463741e+00
3.145929e+01	-8.506757e+00
3.164099e+01	-8.549926e+00
3.182375e+01	-8.592768e+00
3.200756e+01	-8.635932e+00
3.219244e+01	-8.679013e+00
3.237838e+01	-8.722353e+00
3.256540e+01	-8.765841e+00
3.275349e+01	-8.809052e+00
3.294268e+01	-8.852662e+00
3.313295e+01	-8.896370e+00
3.332433e+01	-8.939797e+00
3.351681e+01	-8.983822e+00
3.371040e+01	-9.027033e+00
3.390511e+01	-9.071220e+00
3.410094e+01	-9.115038e+00
3.429791e+01	-9.158786e+00
3.449601e+01	-9.203181e+00
3.469526e+01	-9.246692e+00
3.489566e+01	-9.291504e+00
3.509721e+01	-9.335281e+00
3.529993e+01	-9.379310e+00
3.550382e+01	-9.423412e+00
3.570889e+01	-9.467469e+00
3.591515e+01	-9.512433e+00
3.612259e+01	-9.557298e+00
3.633123e+01	-9.601425e+00
3.654108e+01	-9.645769e+00
3.675214e+01	-9.690284e+00
3.696442e+01	-9.735245e+00
3.717792e+01	-9.780139e+00
3.739266e+01	-9.824849e+00
3.760864e+01	-9.869699e+00
3.782587e+01	-9.914343e+00
3.804435e+01	-9.959641e+00
3.826409e+01	-1.000461e+01
3.848510e+01	-1.004949e+01
3.870739e+01	-1.009420e+01
3.893096e+01	-1.013984e+01
3.915583e+01	-1.018528e+01
3.938199e+01	-1.023010e+01
3.960946e+01	-1.027568e+01
3.983824e+01	-1.032091e+01
4.006834e+01	-1.036668e+01
4.029978e+01	-1.041176e+01
4.053255e+01	-1.045688e+01
4.076666e+01	-1.050306e+01
4.100213e+01	-1.054793e+01
4.123896e+01	-1.059393e+01
4.147715e+01	-1.063970e+01
4.171672e+01	-1.068540e+01
4.195767e+01	-1.073090e+01
4.220002e+01	-1.077712e+01
4.244377e+01	-1.082259e+01
4.268892e+01	-1.086952e+01
4.293549e+01	-1.091481e+01
4.318348e+01	-1.096063e+01
4.343291e+01	-1.100674e+01
4.368377e+01	-1.105244e+01
4.393609e+01	-1.109873e+01
4.418986e+01	-1.114575e+01
4.444510e+01	-1.119133e+01
4.470182e+01	-1.123760e+01
4.496001e+01	-1.128407e+01
4.521970e+01	-1.132994e+01
4.548089e+01	-1.137670e+01
4.574358e+01	-1.142309e+01
4.600779e+01	-1.146943e+01
4.627353e+01	-1.151588e+01
4.654081e+01	-1.156186e+01
4.680963e+01	-1.160874e+01
4.708000e+01	-1.165516e+01
4.735193e+01	-1.170226e+01
4.762543e+01	-1.174877e+01
4.790051e+01	-1.179609e+01
4.817719e+01	-1.184193e+01
4.845545e+01	-1.188921e+01
4.873533e+01	-1.193564e+01
4.901682e+01	-1.198313e+01
4.929994e+01	-1.202970e+01
4.958470e+01	-1.207686e+01
4.987110e+01	-1.212373e+01
5.015915e+01	-1.217020e+01
5.044887e+01	-1.221741e+01
5.074026e+01	-1.226402e+01
5.103333e+01	-1.231216e+01
5.132810e+01	-1.235853e+01
5.162457e+01	-1.240577e+01
5.192275e+01	-1.245208e+01
5.222265e+01	-1.249976e+01
5.252429e+01	-1.254745e+01
5.282767e+01	-1.259530e+01
5.313280e+01	-1.264220e+01
5.343969e+01	-1.268936e+01
5.374836e+01	-1.273656e+01
5.405880e+01	-1.278394e+01
5.437105e+01	-1.283206e+01
5.468509e+01	-1.287905e+01
5.500095e+01	-1.292657e+01
5.531863e+01	-1.297317e+01
5.563815e+01	-1.302137e+01
5.595951e+01	-1.306923e+01
5.628273e+01	-1.311628e+01
5.660782e+01	-1.316380e+01
5.693479e+01	-1.321151e+01
5.726364e+01	-1.325993e+01
5.759439e+01	-1.330738e+01
5.792705e+01	-1.335462e+01
5.826164e+01	-1.340264e+01
5.859815e+01	-1.345048e+01
5.893662e+01	-1.349801e+01
5.927703e+01	-1.354560e+01
5.961941e+01	-1.359381e+01
5.996377e+01	-1.364178e+01
6.031012e+01	-1.368981e+01
6.065847e+01	-1.373713e+01
6.100883e+01	-1.378526e+01
6.136121e+01	-1.383375e+01
6.171563e+01	-1.388052e+01
6.207210e+01	-1.392866e+01
6.243063e+01	-1.397703e+01
6.279122e+01	-1.402510e+01
6.315390e+01	-1.407298e+01
6.351868e+01	-1.412138e+01
6.388556e+01	-1.416893e+01
6.425456e+01	-1.421760e+01
6.462569e+01	-1.426578e+01
6.499897e+01	-1.431331e+01
6.537440e+01	-1.436185e+01
6.575200e+01	-1.441053e+01
6.613178e+01	-1.445915e+01
6.651375e+01	-1.450584e+01
6.689793e+01	-1.455522e+01
6.728433e+01	-1.460294e+01
6.767297e+01	-1.465133e+01
6.806384e+01	-1.469926e+01
6.845698e+01	-1.474745e+01
6.885238e+01	-1.479592e+01
6.925007e+01	-1.484577e+01
6.965005e+01	-1.489407e+01
7.005235e+01	-1.494239e+01
7.045697e+01	-1.499007e+01
7.086393e+01	-1.503832e+01
7.127323e+01	-1.508688e+01
7.168490e+01	-1.513571e+01
7.209895e+01	-1.518382e+01
7.251539e+01	-1.523221e+01
7.293424e+01	-1.528141e+01
7.335551e+01	-1.533010e+01
7.377920e+01	-1.537751e+01
7.420535e+01	-1.542714e+01
7.463396e+01	-1.547512e+01
7.506504e+01	-1.552457e+01
7.549861e+01	-1.557300e+01
7.593469e+01	-1.562058e+01
7.637328e+01	-1.567039e+01
7.681441e+01	-1.571892e+01
7.725809e+01	-1.576760e+01
7.770433e+01	-1.581520e+01
7.815315e+01	-1.586380e+01
7.860456e+01	-1.591305e+01
7.905857e+01	-1.596269e+01
7.951521e+01	-1.601209e+01
7.997449e+01	-1.606082e+01
8.043642e+01	-1.610819e+01
8.090102e+01	-1.615774e+01
8.136830e+01	-1.620660e+01
8.183828e+01	-1.625587e+01
8.231097e+01	-1.630386e+01
8.278640e+01	-1.635220e+01
8.326457e+01	-1.640213e+01
8.374550e+01	-1.644949e+01
8.422921e+01	-1.649953e+01
8.471572e+01	-1.654906e+01
8.520503e+01	-1.659740e+01
8.569717e+01	-1.664597e+01
8.619215e+01	-1.669621e+01
8.669000e+01	-1.674491e+01
8.719071e+01	-1.679398e+01
8.769432e+01	-1.684225e+01
8.820084e+01	-1.689119e+01
8.871029e+01	-1.693963e+01
8.922267e+01	-1.698938e+01
8.973802e+01	-1.703899e+01
9.025634e+01	-1.708687e+01
9.077766e+01	-1.713652e+01
9.130199e+01	-1.718566e+01
9.182935e+01	-1.723419e+01
9.235975e+01	-1.728369e+01
9.289321e+01	-1.733283e+01
9.342976e+01	-1.738330e+01
9.396941e+01	-1.743095e+01
9.451217e+01	-1.747913e+01
9.505807e+01	-1.752940e+01
9.560712e+01	-1.757839e+01
9.615934e+01	-1.762788e+01
9.671476e+01	-1.767654e+01
9.727338e+01	-1.772600e+01
9.783522e+01	-1.777558e+01
9.840032e+01	-1.782386e+01
9.896867e+01	-1.787379e+01
9.954031e+01	-1.792266e+01
1.001153e+02	-1.797249e+01
1.006935e+02	-1.802125e+01
1.012751e+02	-1.807066e+01
1.018601e+02	-1.811923e+01
1.024484e+02	-1.816941e+01
1.030402e+02	-1.821825e+01
1.036353e+02	-1.826866e+01
1.042339e+02	-1.831506e+01
1.048360e+02	-1.836732e+01
1.054415e+02	-1.841549e+01
1.060505e+02	-1.846420e+01
1.066631e+02	-1.851401e+01
1.072791e+02	-1.856274e+01
1.078988e+02	-1.861233e+01
1.085220e+02	-1.866261e+01
1.091488e+02	-1.871152e+01
1.097793e+02	-1.876207e+01
1.104133e+02	-1.881030e+01
1.110511e+02	-1.885927e+01
1.116925e+02	-1.890826e+01
1.123376e+02	-1.895773e+01
1.129865e+02	-1.900826e+01
1.136391e+02	-1.905715e+01
1.142955e+02	-1.910702e+01
1.149556e+02	-1.915703e+01
1.156196e+02	-1.920540e+01
1.162874e+02	-1.925382e+01
1.169591e+02	-1.930483e+01
1.176347e+02	-1.935306e+01
1.183141e+02	-1.940206e+01
1.189975e+02	-1.945223e+01
1.196848e+02	-1.950380e+01
1.203761e+02	-1.955154e+01
1.210714e+02	-1.960134e+01
1.217707e+02	-1.965036e+01
1.224740e+02	-1.970203e+01
1.231814e+02	-1.974849e+01
1.238929e+02	-1.980035e+01
1.246085e+02	-1.984929e+01
1.253283e+02	-1.989675e+01
1.260522e+02	-1.994881e+01
1.267802e+02	-1.999675e+01
1.275125e+02	-2.004661e+01
1.282490e+02	-2.009577e+01
1.289898e+02	-2.014659e+01
1.297348e+02	-2.019656e+01
1.304842e+02	-2.024472e+01
1.312378e+02	-2.029551e+01
1.319959e+02	-2.034593e+01
1.327583e+02	-2.039405e+01
1.335251e+02	-2.044255e+01
1.342963e+02	-2.049163e+01
1.350720e+02	-2.054304e+01
1.358522e+02	-2.059276e+01
1.366368e+02	-2.064144e+01
1.374260e+02	-2.069150e+01
1.382198e+02	-2.074130e+01
1.390182e+02	-2.079000e+01
1.398211e+02	-2.084102e+01
1.406287e+02	-2.089088e+01
1.414410e+02	-2.093926e+01
1.422579e+02	-2.099043e+01
1.430796e+02	-2.104033e+01
1.439060e+02	-2.108743e+01
1.447372e+02	-2.113633e+01
1.455732e+02	-2.118518e+01
1.464141e+02	-2.123714e+01
1.472597e+02	-2.128743e+01
1.481103e+02	-2.133526e+01
1.489658e+02	-2.138856e+01
1.498262e+02	-2.143519e+01
1.506916e+02	-2.148499e+01
1.515620e+02	-2.153473e+01
1.524374e+02	-2.158660e+01
1.533179e+02	-2.163502e+01
1.542034e+02	-2.168374e+01
1.550941e+02	-2.173345e+01
1.559899e+02	-2.178360e+01
1.568909e+02	-2.183231e+01
1.577971e+02	-2.188471e+01
1.587085e+02	-2.193246e+01
1.596252e+02	-2.198283e+01
1.605472e+02	-2.203370e+01
1.614745e+02	-2.208384e+01
1.624072e+02	-2.213306e+01
1.633453e+02	-2.218235e+01
1.642887e+02	-2.223330e+01
1.652377e+02	-2.228072e+01
1.661921e+02	-2.233036e+01
1.671520e+02	-2.237890e+01
1.681175e+02	-2.242975e+01
1.690885e+02	-2.247852e+01
1.700651e+02	-2.253050e+01
1.710474e+02	-2.258074e+01
1.720354e+02	-2.263001e+01
1.730291e+02	-2.267827e+01
1.740285e+02	-2.272846e+01
1.750337e+02	-2.277919e+01
1.760446e+02	-2.282703e+01
1.770615e+02	-2.287628e+01
1.780842e+02	-2.292880e+01
1.791128e+02	-2.297860e+01
1.801473e+02	-2.302860e+01
1.811878e+02	-2.307631e+01
1.822344e+02	-2.312703e+01
1.832870e+02	-2.317633e+01
1.843456e+02	-2.322695e+01
1.854104e+02	-2.327600e+01
1.864813e+02	-2.332760e+01
1.875584e+02	-2.337828e+01
1.886418e+02	-2.342658e+01
1.897313e+02	-2.347670e+01
1.908272e+02	-2.352608e+01
1.919294e+02	-2.357573e+01
1.930380e+02	-2.362491e+01
1.941530e+02	-2.367493e+01
1.952744e+02	-2.372683e+01
1.964023e+02	-2.377652e+01
1.975367e+02	-2.382710e+01
1.986777e+02	-2.387818e+01
1.998252e+02	-2.392622e+01
2.009794e+02	-2.397481e+01
2.021403e+02	-2.402352e+01
2.033078e+02	-2.407310e+01
2.044821e+02	-2.412499e+01
2.056632e+02	-2.417206e+01
2.068511e+02	-2.422226e+01
2.080459e+02	-2.427458e+01
2.092475e+02	-2.432596e+01
2.104561e+02	-2.437613e+01
2.116717e+02	-2.442483e+01
2.128943e+02	-2.447286e+01
2.141240e+02	-2.452292e+01
2.153608e+02	-2.457304e+01
2.166047e+02	-2.462456e+01
2.178558e+02	-2.467235e+01
2.191141e+02	-2.472241e+01
2.203797e+02	-2.477273e+01
2.216526e+02	-2.482119e+01
2.229329e+02	-2.487260e+01
2.242205e+02	-2.492448e+01
2.255156e+02	-2.497253e+01
2.268182e+02	-2.502166e+01
2.281283e+02	-2.507192e+01
2.294459e+02	-2.512094e+01
2.307712e+02	-2.517189e+01
2.321041e+02	-2.522169e+01
2.334447e+02	-2.527110e+01
2.347931e+02	-2.532197e+01
2.361493e+02	-2.537267e+01
2.375133e+02	-2.542295e+01
2.388851e+02	-2.547347e+01
2.402649e+02	-2.552258e+01
2.416527e+02	-2.557186e+01
2.430484e+02	-2.561968e+01
2.444523e+02	-2.567040e+01
2.458642e+02	-2.572256e+01
2.472843e+02	-2.577134e+01
2.487126e+02	-2.582002e+01
2.501492e+02	-2.587054e+01
2.515940e+02	-2.591986e+01
2.530472e+02	-2.597111e+01
2.545088e+02	-2.602164e+01
2.559789e+02	-2.607174e+01
2.574574e+02	-2.612244e+01
2.589444e+02	-2.617049e+01
2.604401e+02	-2.622088e+01
2.619444e+02	-2.627355e+01
2.634574e+02	-2.632009e+01
2.649791e+02	-2.637214e+01
2.665096e+02	-2.642293e+01
2.680489e+02	-2.647160e+01
2.695972e+02	-2.652207e+01
2.711544e+02	-2.656885e+01
2.727205e+02	-2.661546e+01
2.742958e+02	-2.667012e+01
2.758801e+02	-2.671892e+01
2.774736e+02	-2.677073e+01
2.790762e+02	-2.681957e+01
2.806882e+02	-2.686749e+01
2.823094e+02	-2.692054e+01
2.839400e+02	-2.697429e+01
2.855800e+02	-2.702082e+01
2.872295e+02	-2.706741e+01
2.888886e+02	-2.712021e+01
2.905572e+02	-2.717224e+01
2.922354e+02	-2.722312e+01
2.939234e+02	-2.726958e+01
2.956211e+02	-2.731852e+01
2.973286e+02	-2.736652e+01
2.990459e+02	-2.741893e+01
3.007732e+02	-2.747112e+01
3.025104e+02	-2.751895e+01
3.042577e+02	-2.756734e+01
3.060151e+02	-2.761995e+01
3.077826e+02	-2.767260e+01
3.095604e+02	-2.771822e+01
3.113484e+02	-2.777231e+01
3.131467e+02	-2.782098e+01
3.149554e+02	-2.786919e+01
3.167746e+02	-2.791691e+01
3.186043e+02	-2.797338e+01
3.204445e+02	-2.801996e+01
3.222954e+02	-2.806955e+01
3.241570e+02	-2.811953e+01
3.260293e+02	-2.816783e+01
3.279124e+02	-2.822485e+01
3.298064e+02	-2.827410e+01
3.317114e+02	-2.832034e+01
3.336273e+02	-2.836981e+01
3.355544e+02	-2.842428e+01
3.374925e+02	-2.846748e+01
3.394418e+02	-2.851945e+01
3.414024e+02	-2.857011e+01
3.433744e+02	-2.862088e+01
3.453577e+02	-2.866838e+01
3.473525e+02	-2.872354e+01
3.493588e+02	-2.876922e+01
3.513766e+02	-2.882069e+01
3.534062e+02	-2.887358e+01
3.554474e+02	-2.891874e+01
3.575005e+02	-2.896899e+01
3.595654e+02	-2.902343e+01
3.616422e+02	-2.907062e+01
3.637311e+02	-2.911850e+01
3.658320e+02	-2.916899e+01
3.679450e+02	-2.921984e+01
3.700702e+02	-2.927352e+01
3.722077e+02	-2.931867e+01
3.743576e+02	-2.937217e+01
3.765199e+02	-2.942157e+01
3.786946e+02	-2.947232e+01
3.808820e+02	-2.952199e+01
3.830819e+02	-2.957392e+01
3.852946e+02	-2.962278e+01
3.875200e+02	-2.966961e+01
3.897583e+02	-2.971967e+01
3.920096e+02	-2.977277e+01
3.942738e+02	-2.982400e+01
3.965511e+02	-2.986438e+01
3.988416e+02	-2.992000e+01
4.011452e+02	-2.997439e+01
4.034622e+02	-3.002540e+01
4.057926e+02	-3.007360e+01
4.081365e+02	-3.012340e+01
4.104938e+02	-3.017789e+01
4.128648e+02	-3.021911e+01
4.152495e+02	-3.027633e+01
4.176480e+02	-3.032247e+01
4.200603e+02	-3.037536e+01
4.224866e+02	-3.042216e+01
4.249268e+02	-3.047284e+01
4.273812e+02	-3.052603e+01
4.298497e+02	-3.057223e+01
4.323325e+02	-3.062612e+01
4.348297e+02	-3.067628e+01
4.373412e+02	-3.071976e+01
4.398673e+02	-3.077464e+01
4.424079e+02	-3.082223e+01
4.449633e+02	-3.087340e+01
4.475334e+02	-3.092519e+01
4.501183e+02	-3.097550e+01
4.527182e+02	-3.102427e+01
4.553330e+02	-3.107163e+01
4.579630e+02	-3.112169e+01
4.606082e+02	-3.117291e+01
4.632687e+02	-3.122171e+01
4.659445e+02	-3.127044e+01
4.686358e+02	-3.132856e+01
4.713426e+02	-3.137829e+01
4.740650e+02	-3.142130e+01
4.768032e+02	-3.147097e+01
4.795572e+02	-3.152661e+01
4.823271e+02	-3.157673e+01
4.851130e+02	-3.162312e+01
4.879150e+02	-3.167664e+01
4.907332e+02	-3.172703e+01
4.935676e+02	-3.178299e+01
4.964185e+02	-3.183168e+01
4.992858e+02	-3.187622e+01
5.021696e+02	-3.192555e+01
5.050701e+02	-3.197578e+01
5.079874e+02	-3.202977e+01
5.109215e+02	-3.207892e+01
5.138726e+02	-3.213145e+01
5.168407e+02	-3.218436e+01
5.198259e+02	-3.223023e+01
5.228284e+02	-3.227669e+01
5.258482e+02	-3.232902e+01
5.288855e+02	-3.238243e+01
5.319403e+02	-3.242807e+01
5.350128e+02	-3.248056e+01
5.381030e+02	-3.252959e+01
5.412111e+02	-3.257642e+01
5.443371e+02	-3.263177e+01
5.474812e+02	-3.267331e+01
5.506434e+02	-3.273533e+01
5.538239e+02	-3.278004e+01
5.570228e+02	-3.282346e+01
5.602401e+02	-3.287882e+01
5.634760e+02	-3.293051e+01
5.667306e+02	-3.297951e+01
5.700040e+02	-3.303530e+01
5.732964e+02	-3.309130e+01
5.766077e+02	-3.313567e+01
5.799382e+02	-3.317986e+01
5.832879e+02	-3.323802e+01
5.866569e+02	-3.329114e+01
5.900454e+02	-3.333498e+01
5.934535e+02	-3.338405e+01
5.968813e+02	-3.343433e+01
6.003288e+02	-3.348565e+01
6.037963e+02	-3.353561e+01
6.072838e+02	-3.358635e+01
6.107914e+02	-3.362972e+01
6.143194e+02	-3.368698e+01
6.178676e+02	-3.373032e+01
6.214364e+02	-3.378532e+01
6.250258e+02	-3.382969e+01
6.286359e+02	-3.389446e+01
6.322669e+02	-3.393219e+01
6.359189e+02	-3.398921e+01
6.395919e+02	-3.403704e+01
6.432862e+02	-3.408835e+01
6.470017e+02	-3.413787e+01
6.507388e+02	-3.418663e+01
6.544974e+02	-3.424006e+01
6.582778e+02	-3.429025e+01
6.620800e+02	-3.434885e+01
6.659041e+02	-3.438461e+01
6.697504e+02	-3.443957e+01
6.736188e+02	-3.449362e+01
6.775096e+02	-3.454747e+01
6.814229e+02	-3.459118e+01
6.853587e+02	-3.463966e+01
6.893173e+02	-3.469938e+01
6.932988e+02	-3.474411e+01
6.973033e+02	-3.478401e+01
7.013309e+02	-3.485002e+01
