Frequency(Hz)	Magnitude(dB)
1.000000e+01	-2.163060e+00
1.005776e+01	-2.182854e+00
1.011585e+01	-2.202709e+00
1.017428e+01	-2.222651e+00
1.023305e+01	-2.242739e+00
1.029215e+01	-2.263207e+00
1.035160e+01	-2.283322e+00
1.041139e+01	-2.303893e+00
1.047153e+01	-2.324571e+00
1.053201e+01	-2.345403e+00
1.059284e+01	-2.366252e+00
1.065403e+01	-2.387586e+00
1.071556e+01	-2.408831e+00
1.077746e+01	-2.430053e+00
1.083971e+01	-2.451649e+00
1.090232e+01	-2.473258e+00
1.096529e+01	-2.495120e+00
1.102862e+01	-2.517113e+00
1.109232e+01	-2.539051e+00
1.115639e+01	-2.561072e+00
1.122083e+01	-2.583472e+00
1.128564e+01	-2.606064e+00
1.135083e+01	-2.628699e+00
1.141639e+01	-2.651438e+00
1.148233e+01	-2.674497e+00
1.154865e+01	-2.697220e+00
1.161536e+01	-2.720753e+00
1.168245e+01	-2.743982e+00
1.174992e+01	-2.767549e+00
1.181779e+01	-2.791415e+00
1.188605e+01	-2.814666e+00
1.195470e+01	-2.839181e+00
1.202375e+01	-2.862809e+00
1.209320e+01	-2.887419e+00
1.216305e+01	-2.911677e+00
1.223330e+01	-2.936219e+00
1.230396e+01	-2.960438e+00
1.237503e+01	-2.985354e+00
1.244651e+01	-3.010395e+00
1.251840e+01	-3.035574e+00
1.259070e+01	-3.060801e+00
1.266343e+01	-3.086341e+00
1.273657e+01	-3.111615e+00
1.281014e+01	-3.137227e+00
1.288413e+01	-3.163077e+00
1.295855e+01	-3.189182e+00
1.303339e+01	-3.215111e+00
1.310867e+01	-3.241699e+00
1.318439e+01	-3.267966e+00
1.326054e+01	-3.294431e+00
1.333713e+01	-3.321032e+00
1.341417e+01	-3.347949e+00
1.349165e+01	-3.374862e+00
1.356958e+01	-3.401949e+00
1.364795e+01	-3.429148e+00
1.372678e+01	-3.456492e+00
1.380607e+01	-3.483843e+00
1.388581e+01	-3.511784e+00
1.396602e+01	-3.539450e+00
1.404668e+01	-3.567513e+00
1.412782e+01	-3.595787e+00
1.420942e+01	-3.623730e+00
1.429149e+01	-3.652260e+00
1.437404e+01	-3.680644e+00
1.445706e+01	-3.709586e+00
1.454057e+01	-3.738057e+00
1.462455e+01	-3.766965e+00
1.470902e+01	-3.796198e+00
1.479398e+01	-3.825327e+00
1.487943e+01	-3.854628e+00
1.496537e+01	-3.884422e+00
1.505181e+01	-3.914138e+00
1.513875e+01	-3.943731e+00
1.522619e+01	-3.973844e+00
1.531414e+01	-4.003625e+00
1.540259e+01	-4.033711e+00
1.549156e+01	-4.064255e+00
1.558103e+01	-4.094591e+00
1.567103e+01	-4.125387e+00
1.576155e+01	-4.155954e+00
1.585258e+01	-4.186872e+00
1.594415e+01	-4.217937e+00
1.603624e+01	-4.249343e+00
1.612886e+01	-4.280338e+00
1.622202e+01	-4.311713e+00
1.631572e+01	-4.343175e+00
1.640996e+01	-4.374646e+00
1.650474e+01	-4.407002e+00
1.660008e+01	-4.438884e+00
1.669596e+01	-4.470714e+00
1.679239e+01	-4.503108e+00
1.688938e+01	-4.535388e+00
1.698694e+01	-4.568118e+00
1.708505e+01	-4.600754e+00
1.718373e+01	-4.633317e+00
1.728299e+01	-4.666339e+00
1.738281e+01	-4.698988e+00
1.748322e+01	-4.732317e+00
1.758420e+01	-4.765539e+00
1.768576e+01	-4.799321e+00
1.778792e+01	-4.832624e+00
1.789066e+01	-4.865994e+00
1.799399e+01	-4.900153e+00
1.809793e+01	-4.933971e+00
1.820246e+01	-4.967841e+00
1.830760e+01	-5.002156e+00
1.841334e+01	-5.036019e+00
1.851969e+01	-5.070613e+00
1.862666e+01	-5.105342e+00
1.873425e+01	-5.139833e+00
1.884246e+01	-5.174289e+00
1.895129e+01	-5.209516e+00
1.906075e+01	-5.244500e+00
1.917085e+01	-5.279456e+00
1.928158e+01	-5.315099e+00
1.939295e+01	-5.350264e+00
1.950496e+01	-5.385685e+00
1.961762e+01	-5.421465e+00
1.973093e+01	-5.457114e+00
1.984490e+01	-5.492918e+00
1.995952e+01	-5.529088e+00
2.007480e+01	-5.565248e+00
2.019076e+01	-5.600924e+00
2.030738e+01	-5.637443e+00
2.042467e+01	-5.674047e+00
2.054264e+01	-5.710484e+00
2.066130e+01	-5.747040e+00
2.078064e+01	-5.783684e+00
2.090066e+01	-5.820678e+00
2.102139e+01	-5.857746e+00
2.114280e+01	-5.894547e+00
2.126492e+01	-5.932463e+00
2.138775e+01	-5.969865e+00
2.151128e+01	-6.006655e+00
2.163553e+01	-6.044413e+00
2.176050e+01	-6.082049e+00
2.188619e+01	-6.119641e+00
2.201260e+01	-6.157613e+00
2.213974e+01	-6.195294e+00
2.226762e+01	-6.233824e+00
2.239624e+01	-6.271571e+00
2.252560e+01	-6.309959e+00
2.265571e+01	-6.348615e+00
2.278656e+01	-6.386602e+00
2.291818e+01	-6.425554e+00
2.305055e+01	-6.464255e+00
2.318369e+01	-6.502967e+00
2.331760e+01	-6.541649e+00
2.345228e+01	-6.580706e+00
2.358774e+01	-6.619807e+00
2.372398e+01	-6.659268e+00
2.386101e+01	-6.698406e+00
2.399883e+01	-6.737671e+00
2.413745e+01	-6.776993e+00
2.427686e+01	-6.816734e+00
2.441709e+01	-6.856348e+00
2.455812e+01	-6.896468e+00
2.469997e+01	-6.936187e+00
2.484263e+01	-6.976058e+00
2.498612e+01	-7.016023e+00
2.513044e+01	-7.056100e+00
2.527559e+01	-7.096273e+00
2.542158e+01	-7.136695e+00
2.556842e+01	-7.176954e+00
2.571610e+01	-7.217207e+00
2.586463e+01	-7.257952e+00
2.601403e+01	-7.298852e+00
2.616428e+01	-7.339212e+00
2.631541e+01	-7.380673e+00
2.646740e+01	-7.421351e+00
2.662028e+01	-7.462459e+00
2.677404e+01	-7.503088e+00
2.692868e+01	-7.544780e+00
2.708422e+01	-7.585896e+00
2.724066e+01	-7.627512e+00
2.739800e+01	-7.668539e+00
2.755625e+01	-7.709913e+00
2.771541e+01	-7.751742e+00
2.787550e+01	-7.793386e+00
2.803650e+01	-7.835263e+00
2.819844e+01	-7.877035e+00
2.836131e+01	-7.918762e+00
2.852513e+01	-7.960759e+00
2.868989e+01	-8.003556e+00
2.885560e+01	-8.045198e+00
2.902227e+01	-8.087316e+00
2.918990e+01	-8.129775e+00
2.935850e+01	-8.171410e+00
2.952807e+01	-8.214351e+00
2.969863e+01	-8.256551e+00
2.987016e+01	-8.299072e+00
3.004269e+01	-8.341734e+00
3.021622e+01	-8.384894e+00
3.039075e+01	-8.427728e+00
3.056628e+01	-8.470902e+00
3.074283e+01	-8.513784e+00
3.092040e+01	-8.556646e+00
3.109900e+01	-8.599885e+00
3.127862e+01	-8.643049e+00
3.145929e+01	-8.685880e+00
3.164099e+01	-8.729294e+00
3.182375e+01	-8.772194e+00
3.200756e+01	-8.816046e+00
3.219244e+01	-8.859821e+00
3.237838e+01	-8.903221e+00
3.256540e+01	-8.946907e+00
3.275349e+01	-8.990176e+00
3.294268e+01	-9.033924e+00
3.313295e+01	-9.077551e+00
3.332433e+01	-9.121283e+00
3.351681e+01	-9.166155e+00
3.371040e+01	-9.209231e+00
3.390511e+01	-9.253911e+00
3.410094e+01	-9.297791e+00
3.429791e+01	-9.342644e+00
3.449601e+01	-9.386385e+00
3.469526e+01	-9.430840e+00
3.489566e+01	-9.475217e+00
3.509721e+01	-9.519239e+00
3.529993e+01	-9.563623e+00
3.550382e+01	-9.608249e+00
3.570889e+01	-9.653303e+00
3.591515e+01	-9.697658e+00
3.612259e+01	-9.742430e+00
3.633123e+01	-9.786610e+00
3.654108e+01	-9.831756e+00
3.675214e+01	-9.877128e+00
3.696442e+01	-9.921625e+00
3.717792e+01	-9.966886e+00
3.739266e+01	-1.001124e+01
3.760864e+01	-1.005713e+01
3.782587e+01	-1.010160e+01
3.804435e+01	-1.014650e+01
3.826409e+01	-1.019170e+01
3.848510e+01	-1.023749e+01
3.870739e+01	-1.028251e+01
3.893096e+01	-1.032803e+01
3.915583e+01	-1.037357e+01
3.938199e+01	-1.041886e+01
3.960946e+01	-1.046389e+01
3.983824e+01	-1.050982e+01
4.006834e+01	-1.055517e+01
4.029978e+01	-1.060125e+01
4.053255e+01	-1.064665e+01
4.076666e+01	-1.069221e+01
4.100213e+01	-1.073846e+01
4.123896e+01	-1.078462e+01
4.147715e+01	-1.083006e+01
4.171672e+01	-1.087638e+01
4.195767e+01	-1.092232e+01
4.220002e+01	-1.096806e+01
4.244377e+01	-1.101348e+01
4.268892e+01	-1.105991e+01
4.293549e+01	-1.110622e+01
4.318348e+01	-1.115229e+01
4.343291e+01	-1.119848e+01
4.368377e+01	-1.124540e+01
4.393609e+01	-1.129109e+01
4.418986e+01	-1.133750e+01
4.444510e+01	-1.138394e+01
4.470182e+01	-1.143036e+01
4.496001e+01	-1.147602e+01
4.521970e+01	-1.152362e+01
4.548089e+01	-1.156937e+01
4.574358e+01	-1.161635e+01
4.600779e+01	-1.166267e+01
4.627353e+01	-1.170918e+01
4.654081e+01	-1.175605e+01
4.680963e+01	-1.180300e+01
4.708000e+01	-1.184999e+01
4.735193e+01	-1.189637e+01
4.762543e+01	-1.194288e+01
4.790051e+01	-1.199002e+01
4.817719e+01	-1.203755e+01
4.845545e+01	-1.208366e+01
4.873533e+01	-1.213055e+01
4.901682e+01	-1.217817e+01
4.929994e+01	-1.222504e+01
4.958470e+01	-1.227206e+01
4.987110e+01	-1.231879e+01
5.015915e+01	-1.236584e+01
5.044887e+01	-1.241355e+01
5.074026e+01	-1.246026e+01
5.103333e+01	-1.250763e+01
5.132810e+01	-1.255516e+01
5.162457e+01	-1.260231e+01
5.192275e+01	-1.264896e+01
5.222265e+01	-1.269651e+01
5.252429e+01	-1.274377e+01
5.282767e+01	-1.279144e+01
5.313280e+01	-1.283873e+01
5.343969e+01	-1.288621e+01
5.374836e+01	-1.293362e+01
5.405880e+01	-1.298095e+01
5.437105e+01	-1.302878e+01
5.468509e+01	-1.307532e+01
5.500095e+01	-1.312486e+01
5.531863e+01	-1.317152e+01
5.563815e+01	-1.321979e+01
5.595951e+01	-1.326717e+01
5.628273e+01	-1.331446e+01
5.660782e+01	-1.336200e+01
5.693479e+01	-1.341002e+01
5.726364e+01	-1.345838e+01
5.759439e+01	-1.350569e+01
5.792705e+01	-1.355379e+01
5.826164e+01	-1.360091e+01
5.859815e+01	-1.364872e+01
5.893662e+01	-1.369747e+01
5.927703e+01	-1.374504e+01
5.961941e+01	-1.379296e+01
5.996377e+01	-1.383946e+01
6.031012e+01	-1.388966e+01
6.065847e+01	-1.393591e+01
6.100883e+01	-1.398512e+01
6.136121e+01	-1.403167e+01
6.171563e+01	-1.408035e+01
6.207210e+01	-1.412931e+01
6.243063e+01	-1.417678e+01
6.279122e+01	-1.422463e+01
6.315390e+01	-1.427314e+01
6.351868e+01	-1.432106e+01
6.388556e+01	-1.436862e+01
6.425456e+01	-1.441776e+01
6.462569e+01	-1.446654e+01
6.499897e+01	-1.451396e+01
6.537440e+01	-1.456303e+01
6.575200e+01	-1.461064e+01
6.613178e+01	-1.465887e+01
6.651375e+01	-1.470773e+01
6.689793e+01	-1.475582e+01
6.728433e+01	-1.480366e+01
6.767297e+01	-1.485337e+01
6.806384e+01	-1.490153e+01
6.845698e+01	-1.494977e+01
6.885238e+01	-1.499809e+01
6.925007e+01	-1.504644e+01
6.965005e+01	-1.509435e+01
7.005235e+01	-1.514312e+01
7.045697e+01	-1.519205e+01
7.086393e+01	-1.524009e+01
7.127323e+01	-1.528956e+01
7.168490e+01	-1.533676e+01
7.209895e+01	-1.538565e+01
7.251539e+01	-1.543395e+01
7.293424e+01	-1.548359e+01
7.335551e+01	-1.553272e+01
7.377920e+01	-1.558001e+01
7.420535e+01	-1.562936e+01
7.463396e+01	-1.567831e+01
7.506504e+01	-1.572648e+01
7.549861e+01	-1.577597e+01
7.593469e+01	-1.582295e+01
7.637328e+01	-1.587316e+01
7.681441e+01	-1.592173e+01
7.725809e+01	-1.596994e+01
7.770433e+01	-1.601835e+01
7.815315e+01	-1.606794e+01
7.860456e+01	-1.611575e+01
7.905857e+01	-1.616531e+01
7.951521e+01	-1.621416e+01
7.997449e+01	-1.626338e+01
8.043642e+01	-1.631114e+01
8.090102e+01	-1.635951e+01
8.136830e+01	-1.640903e+01
8.183828e+01	-1.645863e+01
8.231097e+01	-1.650652e+01
8.278640e+01	-1.655692e+01
8.326457e+01	-1.660565e+01
8.374550e+01	-1.665374e+01
8.422921e+01	-1.670284e+01
8.471572e+01	-1.675300e+01
8.520503e+01	-1.680063e+01
8.569717e+01	-1.684885e+01
8.619215e+01	-1.689885e+01
8.669000e+01	-1.694808e+01
8.719071e+01	-1.699737e+01
8.769432e+01	-1.704577e+01
8.820084e+01	-1.709696e+01
8.871029e+01	-1.714204e+01
8.922267e+01	-1.719331e+01
8.973802e+01	-1.724239e+01
9.025634e+01	-1.729077e+01
9.077766e+01	-1.734181e+01
9.130199e+01	-1.738954e+01
9.182935e+01	-1.743932e+01
9.235975e+01	-1.748801e+01
9.289321e+01	-1.753840e+01
9.342976e+01	-1.758612e+01
9.396941e+01	-1.763433e+01
9.451217e+01	-1.768286e+01
9.505807e+01	-1.773288e+01
9.560712e+01	-1.778279e+01
9.615934e+01	-1.783208e+01
9.671476e+01	-1.788117e+01
9.727338e+01	-1.793123e+01
9.783522e+01	-1.797929e+01
9.840032e+01	-1.802831e+01
9.896867e+01	-1.807826e+01
9.954031e+01	-1.812749e+01
1.001153e+02	-1.817572e+01
1.006935e+02	-1.822673e+01
1.012751e+02	-1.827590e+01
1.018601e+02	-1.832389e+01
1.024484e+02	-1.837561e+01
1.030402e+02	-1.842336e+01
1.036353e+02	-1.847262e+01
1.042339e+02	-1.852222e+01
1.048360e+02	-1.857120e+01
1.054415e+02	-1.861926e+01
1.060505e+02	-1.866943e+01
1.066631e+02	-1.871900e+01
1.072791e+02	-1.876820e+01
1.078988e+02	-1.881906e+01
1.085220e+02	-1.886842e+01
1.091488e+02	-1.891736e+01
1.097793e+02	-1.896637e+01
1.104133e+02	-1.901508e+01
1.110511e+02	-1.906466e+01
1.116925e+02	-1.911422e+01
1.123376e+02	-1.916507e+01
1.129865e+02	-1.921243e+01
1.136391e+02	-1.926392e+01
1.142955e+02	-1.931122e+01
1.149556e+02	-1.936101e+01
1.156196e+02	-1.941183e+01
1.162874e+02	-1.945919e+01
1.169591e+02	-1.950981e+01
1.176347e+02	-1.955805e+01
1.183141e+02	-1.960990e+01
1.189975e+02	-1.965855e+01
1.196848e+02	-1.970761e+01
1.203761e+02	-1.975664e+01
1.210714e+02	-1.980677e+01
1.217707e+02	-1.985722e+01
1.224740e+02	-1.990677e+01
1.231814e+02	-1.995535e+01
1.238929e+02	-2.000603e+01
1.246085e+02	-2.005610e+01
1.253283e+02	-2.010309e+01
1.260522e+02	-2.015439e+01
1.267802e+02	-2.020240e+01
1.275125e+02	-2.025189e+01
1.282490e+02	-2.030129e+01
1.289898e+02	-2.034999e+01
1.297348e+02	-2.040267e+01
1.304842e+02	-2.045213e+01
1.312378e+02	-2.050125e+01
1.319959e+02	-2.055258e+01
1.327583e+02	-2.059990e+01
1.335251e+02	-2.065061e+01
1.342963e+02	-2.069800e+01
1.350720e+02	-2.074695e+01
1.358522e+02	-2.079899e+01
1.366368e+02	-2.084625e+01
1.374260e+02	-2.089836e+01
1.382198e+02	-2.094572e+01
1.390182e+02	-2.099823e+01
1.398211e+02	-2.104715e+01
1.406287e+02	-2.109597e+01
1.414410e+02	-2.114452e+01
1.422579e+02	-2.119577e+01
1.430796e+02	-2.124320e+01
1.439060e+02	-2.129412e+01
1.447372e+02	-2.134436e+01
1.455732e+02	-2.139387e+01
1.464141e+02	-2.144374e+01
1.472597e+02	-2.149298e+01
1.481103e+02	-2.154316e+01
1.489658e+02	-2.159166e+01
1.498262e+02	-2.164133e+01
1.506916e+02	-2.169173e+01
1.515620e+02	-2.174144e+01
1.524374e+02	-2.179301e+01
1.533179e+02	-2.184033e+01
1.542034e+02	-2.189198e+01
1.550941e+02	-2.194086e+01
1.559899e+02	-2.198996e+01
1.568909e+02	-2.203950e+01
1.577971e+02	-2.209086e+01
1.587085e+02	-2.213975e+01
1.596252e+02	-2.218778e+01
1.605472e+02	-2.223826e+01
1.614745e+02	-2.228857e+01
1.624072e+02	-2.233984e+01
1.633453e+02	-2.238788e+01
1.642887e+02	-2.244044e+01
1.652377e+02	-2.248822e+01
1.661921e+02	-2.253998e+01
1.671520e+02	-2.258976e+01
1.681175e+02	-2.263780e+01
1.690885e+02	-2.268692e+01
1.700651e+02	-2.273714e+01
1.710474e+02	-2.278669e+01
1.720354e+02	-2.283787e+01
1.730291e+02	-2.288374e+01
1.740285e+02	-2.293788e+01
1.750337e+02	-2.298558e+01
1.760446e+02	-2.303666e+01
1.770615e+02	-2.308478e+01
1.780842e+02	-2.313470e+01
1.791128e+02	-2.318623e+01
1.801473e+02	-2.323385e+01
1.811878e+02	-2.328490e+01
1.822344e+02	-2.333483e+01
1.832870e+02	-2.338405e+01
1.843456e+02	-2.343456e+01
1.854104e+02	-2.348471e+01
1.864813e+02	-2.353462e+01
1.875584e+02	-2.358198e+01
1.886418e+02	-2.363539e+01
1.897313e+02	-2.368307e+01
1.908272e+02	-2.373396e+01
1.919294e+02	-2.378362e+01
1.930380e+02	-2.383277e+01
1.941530e+02	-2.388184e+01
1.952744e+02	-2.393361e+01
1.964023e+02	-2.398221e+01
1.975367e+02	-2.403278e+01
1.986777e+02	-2.408286e+01
1.998252e+02	-2.413235e+01
2.009794e+02	-2.418087e+01
2.021403e+02	-2.423089e+01
2.033078e+02	-2.427982e+01
2.044821e+02	-2.433215e+01
2.056632e+02	-2.438299e+01
2.068511e+02	-2.443006e+01
2.080459e+02	-2.448028e+01
2.092475e+02	-2.453125e+01
2.104561e+02	-2.458195e+01
2.116717e+02	-2.463004e+01
2.128943e+02	-2.467981e+01
2.141240e+02	-2.473014e+01
2.153608e+02	-2.477852e+01
2.166047e+02	-2.482820e+01
2.178558e+02	-2.488305e+01
2.191141e+02	-2.493003e+01
2.203797e+02	-2.497892e+01
2.216526e+02	-2.502944e+01
2.229329e+02	-2.508142e+01
2.242205e+02	-2.512879e+01
2.255156e+02	-2.517822e+01
2.268182e+02	-2.522798e+01
2.281283e+02	-2.528251e+01
2.294459e+02	-2.533249e+01
2.307712e+02	-2.538036e+01
2.321041e+02	-2.543130e+01
2.334447e+02	-2.547692e+01
2.347931e+02	-2.553276e+01
2.361493e+02	-2.558322e+01
2.375133e+02	-2.562646e+01
2.388851e+02	-2.567737e+01
2.402649e+02	-2.573037e+01
2.416527e+02	-2.577976e+01
2.430484e+02	-2.583048e+01
2.444523e+02	-2.587894e+01
2.458642e+02	-2.592790e+01
2.472843e+02	-2.597924e+01
2.487126e+02	-2.602925e+01
2.501492e+02	-2.607759e+01
2.515940e+02	-2.612773e+01
2.530472e+02	-2.617626e+01
2.545088e+02	-2.622776e+01
2.559789e+02	-2.627867e+01
2.574574e+02	-2.632815e+01
2.589444e+02	-2.638061e+01
2.604401e+02	-2.642797e+01
2.619444e+02	-2.647706e+01
2.634574e+02	-2.652769e+01
2.649791e+02	-2.657579e+01
2.665096e+02	-2.662877e+01
2.680489e+02	-2.667744e+01
2.695972e+02	-2.673081e+01
2.711544e+02	-2.677760e+01
2.727205e+02	-2.682784e+01
2.742958e+02	-2.687532e+01
2.758801e+02	-2.692709e+01
2.774736e+02	-2.697736e+01
2.790762e+02	-2.703002e+01
2.806882e+02	-2.707620e+01
2.823094e+02	-2.712630e+01
2.839400e+02	-2.717877e+01
2.855800e+02	-2.722660e+01
2.872295e+02	-2.727503e+01
2.888886e+02	-2.732960e+01
2.905572e+02	-2.737739e+01
2.922354e+02	-2.742630e+01
2.939234e+02	-2.747814e+01
2.956211e+02	-2.752590e+01
2.973286e+02	-2.757844e+01
2.990459e+02	-2.763054e+01
3.007732e+02	-2.768090e+01
3.025104e+02	-2.772662e+01
3.042577e+02	-2.777685e+01
3.060151e+02	-2.782638e+01
3.077826e+02	-2.787886e+01
3.095604e+02	-2.792668e+01
3.113484e+02	-2.797910e+01
3.131467e+02	-2.802958e+01
3.149554e+02	-2.808092e+01
3.167746e+02	-2.812737e+01
3.186043e+02	-2.817876e+01
3.204445e+02	-2.823061e+01
3.222954e+02	-2.827482e+01
3.241570e+02	-2.832573e+01
3.260293e+02	-2.837813e+01
3.279124e+02	-2.842998e+01
3.298064e+02	-2.848277e+01
3.317114e+02	-2.852934e+01
3.336273e+02	-2.857625e+01
3.355544e+02	-2.862546e+01
3.374925e+02	-2.868191e+01
3.394418e+02	-2.873192e+01
3.414024e+02	-2.877553e+01
3.433744e+02	-2.882758e+01
3.453577e+02	-2.888240e+01
3.473525e+02	-2.892626e+01
3.493588e+02	-2.897471e+01
3.513766e+02	-2.902767e+01
3.534062e+02	-2.908099e+01
3.554474e+02	-2.912836e+01
3.575005e+02	-2.917364e+01
3.595654e+02	-2.922298e+01
3.616422e+02	-2.927748e+01
3.637311e+02	-2.932807e+01
3.658320e+02	-2.937921e+01
3.679450e+02	-2.942609e+01
3.700702e+02	-2.948447e+01
3.722077e+02	-2.953115e+01
3.743576e+02	-2.957806e+01
3.765199e+02	-2.962976e+01
3.786946e+02	-2.967960e+01
3.808820e+02	-2.972734e+01
3.830819e+02	-2.977823e+01
3.852946e+02	-2.983210e+01
3.875200e+02	-2.987949e+01
3.897583e+02	-2.993134e+01
3.920096e+02	-2.998283e+01
3.942738e+02	-3.003538e+01
3.965511e+02	-3.008213e+01
3.988416e+02	-3.013672e+01
4.011452e+02	-3.018510e+01
4.034622e+02	-3.023516e+01
4.057926e+02	-3.028267e+01
4.081365e+02	-3.033055e+01
4.104938e+02	-3.038159e+01
4.128648e+02	-3.043527e+01
4.152495e+02	-3.047969e+01
4.176480e+02	-3.053177e+01
4.200603e+02	-3.058521e+01
4.224866e+02	-3.063547e+01
4.249268e+02	-3.067938e+01
4.273812e+02	-3.072860e+01
4.298497e+02	-3.077815e+01
4.323325e+02	-3.082879e+01
4.348297e+02	-3.088213e+01
4.373412e+02	-3.092829e+01
4.398673e+02	-3.098513e+01
4.424079e+02	-3.103161e+01
4.449633e+02	-3.108312e+01
4.475334e+02	-3.113239e+01
4.501183e+02	-3.118410e+01
4.527182e+02	-3.123454e+01
4.553330e+02	-3.128588e+01
4.579630e+02	-3.133208e+01
4.606082e+02	-3.138147e+01
4.632687e+02	-3.143160e+01
4.659445e+02	-3.148552e+01
4.686358e+02	-3.153273e+01
4.713426e+02	-3.158213e+01
4.740650e+02	-3.163434e+01
4.768032e+02	-3.168817e+01
4.795572e+02	-3.173270e+01
4.823271e+02	-3.178893e+01
4.851130e+02	-3.183498e+01
4.879150e+02	-3.188588e+01
4.907332e+02	-3.193276e+01
4.935676e+02	-3.198771e+01
4.964185e+02	-3.203460e+01
4.992858e+02	-3.208341e+01
5.021696e+02	-3.213604e+01
5.050701e+02	-3.218736e+01
5.079874e+02	-3.223815e+01
5.109215e+02	-3.227710e+01
5.138726e+02	-3.233935e+01
5.168407e+02	-3.238962e+01
5.198259e+02	-3.243540e+01
5.228284e+02	-3.249026e+01
5.258482e+02	-3.253961e+01
5.288855e+02	-3.258681e+01
5.319403e+02	-3.263538e+01
5.350128e+02	-3.268127e+01
5.381030e+02	-3.274605e+01
5.412111e+02	-3.278973e+01
5.443371e+02	-3.284573e+01
5.474812e+02	-3.289256e+01
5.506434e+02	-3.293938e+01
5.538239e+02	-3.299371e+01
5.570228e+02	-3.303551e+01
5.602401e+02	-3.309464e+01
5.634760e+02	-3.313733e+01
5.667306e+02	-3.318705e+01
5.700040e+02	-3.324570e+01
5.732964e+02	-3.329655e+01
5.766077e+02	-3.334172e+01
5.799382e+02	-3.339467e+01
5.832879e+02	-3.344708e+01
5.866569e+02	-3.349708e+01
5.900454e+02	-3.354036e+01
5.934535e+02	-3.359510e+01
5.968813e+02	-3.363804e+01
6.003288e+02	-3.369447e+01
6.037963e+02	-3.375071e+01
6.072838e+02	-3.379345e+01
6.107914e+02	-3.384587e+01
6.143194e+02	-3.389085e+01
6.178676e+02	-3.394441e+01
6.214364e+02	-3.399414e+01
6.250258e+02	-3.404024e+01
6.286359e+02	-3.409889e+01
6.322669e+02	-3.414873e+01
6.359189e+02	-3.419935e+01
6.395919e+02	-3.424389e+01
6.432862e+02	-3.429234e+01
6.470017e+02	-3.435140e+01
6.507388e+02	-3.439558e+01
6.544974e+02	-3.445623e+01
6.582778e+02	-3.449146e+01
6.620800e+02	-3.455102e+01
6.659041e+02	-3.459214e+01
6.697504e+02	-3.465145e+01
6.736188e+02	-3.469811e+01
6.775096e+02	-3.474850e+01
6.814229e+02	-3.480077e+01
6.853587e+02	-3.485610e+01
6.893173e+02	-3.490581e+01
6.932988e+02	-3.496033e+01
6.973033e+02	-3.499512e+01
7.013309e+02	-3.505026e+01
