Frequency(Hz)	Magnitude(dB)
1.000000e+01	-2.142830e+00
1.005776e+01	-2.162323e+00
1.011585e+01	-2.182022e+00
1.017428e+01	-2.201836e+00
1.023305e+01	-2.221633e+00
1.029215e+01	-2.241797e+00
1.035160e+01	-2.262030e+00
1.041139e+01	-2.282430e+00
1.047153e+01	-2.302906e+00
1.053201e+01	-2.323760e+00
1.059284e+01	-2.344775e+00
1.065403e+01	-2.365539e+00
1.071556e+01	-2.386772e+00
1.077746e+01	-2.407797e+00
1.083971e+01	-2.429177e+00
1.090232e+01	-2.450495e+00
1.096529e+01	-2.472028e+00
1.102862e+01	-2.494188e+00
1.109232e+01	-2.515923e+00
1.115639e+01	-2.537986e+00
1.122083e+01	-2.560462e+00
1.128564e+01	-2.582451e+00
1.135083e+01	-2.605134e+00
1.141639e+01	-2.627471e+00
1.148233e+01	-2.650503e+00
1.154865e+01	-2.673415e+00
1.161536e+01	-2.696468e+00
1.168245e+01	-2.719955e+00
1.174992e+01	-2.742970e+00
1.181779e+01	-2.766772e+00
1.188605e+01	-2.790283e+00
1.195470e+01	-2.814003e+00
1.202375e+01	-2.837849e+00
1.209320e+01	-2.861927e+00
1.216305e+01	-2.886018e+00
1.223330e+01	-2.910441e+00
1.230396e+01	-2.935061e+00
1.237503e+01	-2.959530e+00
1.244651e+01	-2.984501e+00
1.251840e+01	-3.009321e+00
1.259070e+01	-3.034606e+00
1.266343e+01	-3.059809e+00
1.273657e+01	-3.085026e+00
1.281014e+01	-3.110788e+00
1.288413e+01	-3.136346e+00
1.295855e+01	-3.162219e+00
1.303339e+01	-3.188207e+00
1.310867e+01	-3.214081e+00
1.318439e+01	-3.240295e+00
1.326054e+01	-3.266565e+00
1.333713e+01	-3.292976e+00
1.341417e+01	-3.319985e+00
1.349165e+01	-3.346645e+00
1.356958e+01	-3.373437e+00
1.364795e+01	-3.400620e+00
1.372678e+01	-3.427809e+00
1.380607e+01	-3.455333e+00
1.388581e+01	-3.483060e+00
1.396602e+01	-3.510411e+00
1.404668e+01	-3.538232e+00
1.412782e+01	-3.566009e+00
1.420942e+01	-3.594205e+00
1.429149e+01	-3.622481e+00
1.437404e+01	-3.651189e+00
1.445706e+01	-3.679658e+00
1.454057e+01	-3.707986e+00
1.462455e+01	-3.736832e+00
1.470902e+01	-3.765902e+00
1.479398e+01	-3.794706e+00
1.487943e+01	-3.824391e+00
1.496537e+01	-3.853574e+00
1.505181e+01	-3.882912e+00
1.513875e+01	-3.912838e+00
1.522619e+01	-3.942510e+00
1.531414e+01	-3.972299e+00
1.540259e+01	-4.002541e+00
1.549156e+01	-4.032591e+00
1.558103e+01	-4.062811e+00
1.567103e+01	-4.093176e+00
1.576155e+01	-4.124292e+00
1.585258e+01	-4.154894e+00
1.594415e+01	-4.185634e+00
1.603624e+01	-4.216635e+00
1.612886e+01	-4.247606e+00
1.622202e+01	-4.278922e+00
1.631572e+01	-4.310472e+00
1.640996e+01	-4.341830e+00
1.650474e+01	-4.373660e+00
1.660008e+01	-4.405344e+00
1.669596e+01	-4.437223e+00
1.679239e+01	-4.469341e+00
1.688938e+01	-4.502098e+00
1.698694e+01	-4.534300e+00
1.708505e+01	-4.566489e+00
1.718373e+01	-4.598915e+00
1.728299e+01	-4.632193e+00
1.738281e+01	-4.664803e+00
1.748322e+01	-4.697770e+00
1.758420e+01	-4.731038e+00
1.768576e+01	-4.764227e+00
1.778792e+01	-4.797775e+00
1.789066e+01	-4.830924e+00
1.799399e+01	-4.864731e+00
1.809793e+01	-4.898680e+00
1.820246e+01	-4.932351e+00
1.830760e+01	-4.966201e+00
1.841334e+01	-5.000477e+00
1.851969e+01	-5.034701e+00
1.862666e+01	-5.069276e+00
1.873425e+01	-5.103857e+00
1.884246e+01	-5.138352e+00
1.895129e+01	-5.172763e+00
1.906075e+01	-5.207974e+00
1.917085e+01	-5.243099e+00
1.928158e+01	-5.278296e+00
1.939295e+01	-5.313341e+00
1.950496e+01	-5.348824e+00
1.961762e+01	-5.384338e+00
1.973093e+01	-5.419927e+00
1.984490e+01	-5.455258e+00
1.995952e+01	-5.491610e+00
2.007480e+01	-5.527333e+00
2.019076e+01	-5.563612e+00
2.030738e+01	-5.599664e+00
2.042467e+01	-5.636068e+00
2.054264e+01	-5.672513e+00
2.066130e+01	-5.708942e+00
2.078064e+01	-5.745563e+00
2.090066e+01	-5.782544e+00
2.102139e+01	-5.819074e+00
2.114280e+01	-5.856001e+00
2.126492e+01	-5.893345e+00
2.138775e+01	-5.930569e+00
2.151128e+01	-5.967607e+00
2.163553e+01	-6.005060e+00
2.176050e+01	-6.042661e+00
2.188619e+01	-6.080135e+00
2.201260e+01	-6.118196e+00
2.213974e+01	-6.155934e+00
2.226762e+01	-6.194233e+00
2.239624e+01	-6.231881e+00
2.252560e+01	-6.270333e+00
2.265571e+01	-6.308346e+00
2.278656e+01	-6.347329e+00
2.291818e+01	-6.385163e+00
2.305055e+01	-6.423916e+00
2.318369e+01	-6.462348e+00
2.331760e+01	-6.501520e+00
2.345228e+01	-6.539695e+00
2.358774e+01	-6.578980e+00
2.372398e+01	-6.618099e+00
2.386101e+01	-6.657235e+00
2.399883e+01	-6.696987e+00
2.413745e+01	-6.736296e+00
2.427686e+01	-6.775288e+00
2.441709e+01	-6.814849e+00
2.455812e+01	-6.854771e+00
2.469997e+01	-6.894440e+00
2.484263e+01	-6.934245e+00
2.498612e+01	-6.974395e+00
2.513044e+01	-7.014156e+00
2.527559e+01	-7.054457e+00
2.542158e+01	-7.094856e+00
2.556842e+01	-7.135175e+00
2.571610e+01	-7.175275e+00
2.586463e+01	-7.215880e+00
2.601403e+01	-7.256539e+00
2.616428e+01	-7.297194e+00
2.631541e+01	-7.337328e+00
2.646740e+01	-7.378496e+00
2.662028e+01	-7.419567e+00
2.677404e+01	-7.460760e+00
2.692868e+01	-7.501679e+00
2.708422e+01	-7.542707e+00
2.724066e+01	-7.584314e+00
2.739800e+01	-7.625951e+00
2.755625e+01	-7.666764e+00
2.771541e+01	-7.708233e+00
2.787550e+01	-7.749791e+00
2.803650e+01	-7.791626e+00
2.819844e+01	-7.833336e+00
2.836131e+01	-7.875280e+00
2.852513e+01	-7.916892e+00
2.868989e+01	-7.959136e+00
2.885560e+01	-8.001004e+00
2.902227e+01	-8.043263e+00
2.918990e+01	-8.085261e+00
2.935850e+01	-8.127825e+00
2.952807e+01	-8.170183e+00
2.969863e+01	-8.212485e+00
2.987016e+01	-8.254506e+00
3.004269e+01	-8.297888e+00
3.021622e+01	-8.340231e+00
3.039075e+01	-8.383005e+00
3.056628e+01	-8.425675e+00
3.074283e+01	-8.468883e+00
3.092040e+01	-8.511570e+00
3.109900e+01	-8.554763e+00
3.127862e+01	-8.598013e+00
3.145929e+01	-8.640724e+00
3.164099e+01	-8.684323e+00
3.182375e+01	-8.727319e+00
3.200756e+01	-8.770778e+00
3.219244e+01	-8.814431e+00
3.237838e+01	-8.857596e+00
3.256540e+01	-8.901063e+00
3.275349e+01	-8.945089e+00
3.294268e+01	-8.988418e+00
3.313295e+01	-9.032358e+00
3.332433e+01	-9.076252e+00
3.351681e+01	-9.120353e+00
3.371040e+01	-9.163549e+00
3.390511e+01	-9.207890e+00
3.410094e+01	-9.251936e+00
3.429791e+01	-9.295666e+00
3.449601e+01	-9.340125e+00
3.469526e+01	-9.384492e+00
3.489566e+01	-9.428649e+00
3.509721e+01	-9.473022e+00
3.529993e+01	-9.517096e+00
3.550382e+01	-9.561270e+00
3.570889e+01	-9.606279e+00
3.591515e+01	-9.650769e+00
3.612259e+01	-9.695704e+00
3.633123e+01	-9.740669e+00
3.654108e+01	-9.784871e+00
3.675214e+01	-9.830057e+00
3.696442e+01	-9.874994e+00
3.717792e+01	-9.919746e+00
3.739266e+01	-9.964776e+00
3.760864e+01	-1.000983e+01
3.782587e+01	-1.005527e+01
3.804435e+01	-1.009996e+01
3.826409e+01	-1.014456e+01
3.848510e+01	-1.018983e+01
3.870739e+01	-1.023550e+01
3.893096e+01	-1.028048e+01
3.915583e+01	-1.032619e+01
3.938199e+01	-1.037145e+01
3.960946e+01	-1.041733e+01
3.983824e+01	-1.046244e+01
4.006834e+01	-1.050784e+01
4.029978e+01	-1.055361e+01
4.053255e+01	-1.059963e+01
4.076666e+01	-1.064461e+01
4.100213e+01	-1.069065e+01
4.123896e+01	-1.073625e+01
4.147715e+01	-1.078268e+01
4.171672e+01	-1.082802e+01
4.195767e+01	-1.087446e+01
4.220002e+01	-1.092067e+01
4.244377e+01	-1.096633e+01
4.268892e+01	-1.101181e+01
4.293549e+01	-1.105770e+01
4.318348e+01	-1.110469e+01
4.343291e+01	-1.115082e+01
4.368377e+01	-1.119639e+01
4.393609e+01	-1.124288e+01
4.418986e+01	-1.128889e+01
4.444510e+01	-1.133568e+01
4.470182e+01	-1.138166e+01
4.496001e+01	-1.142805e+01
4.521970e+01	-1.147496e+01
4.548089e+01	-1.152144e+01
4.574358e+01	-1.156742e+01
4.600779e+01	-1.161428e+01
4.627353e+01	-1.166090e+01
4.654081e+01	-1.170738e+01
4.680963e+01	-1.175410e+01
4.708000e+01	-1.180114e+01
4.735193e+01	-1.184803e+01
4.762543e+01	-1.189446e+01
4.790051e+01	-1.194132e+01
4.817719e+01	-1.198790e+01
4.845545e+01	-1.203503e+01
4.873533e+01	-1.208246e+01
4.901682e+01	-1.212864e+01
4.929994e+01	-1.217623e+01
4.958470e+01	-1.222324e+01
4.987110e+01	-1.226999e+01
5.015915e+01	-1.231716e+01
5.044887e+01	-1.236394e+01
5.074026e+01	-1.241165e+01
5.103333e+01	-1.245864e+01
5.132810e+01	-1.250542e+01
5.162457e+01	-1.255226e+01
5.192275e+01	-1.259977e+01
5.222265e+01	-1.264738e+01
5.252429e+01	-1.269444e+01
5.282767e+01	-1.274249e+01
5.313280e+01	-1.278927e+01
5.343969e+01	-1.283693e+01
5.374836e+01	-1.288405e+01
5.405880e+01	-1.293135e+01
5.437105e+01	-1.297894e+01
5.468509e+01	-1.302653e+01
5.500095e+01	-1.307444e+01
5.531863e+01	-1.312204e+01
5.563815e+01	-1.316933e+01
5.595951e+01	-1.321748e+01
5.628273e+01	-1.326541e+01
5.660782e+01	-1.331287e+01
5.693479e+01	-1.335975e+01
5.726364e+01	-1.340780e+01
5.759439e+01	-1.345549e+01
5.792705e+01	-1.350298e+01
5.826164e+01	-1.355134e+01
5.859815e+01	-1.359921e+01
5.893662e+01	-1.364683e+01
5.927703e+01	-1.369497e+01
5.961941e+01	-1.374295e+01
5.996377e+01	-1.379085e+01
6.031012e+01	-1.383969e+01
6.065847e+01	-1.388670e+01
6.100883e+01	-1.393431e+01
6.136121e+01	-1.398208e+01
6.171563e+01	-1.403086e+01
6.207210e+01	-1.407846e+01
6.243063e+01	-1.412698e+01
6.279122e+01	-1.417484e+01
6.315390e+01	-1.422271e+01
6.351868e+01	-1.427097e+01
6.388556e+01	-1.431868e+01
6.425456e+01	-1.436826e+01
6.462569e+01	-1.441625e+01
6.499897e+01	-1.446441e+01
6.537440e+01	-1.451334e+01
6.575200e+01	-1.456108e+01
6.613178e+01	-1.460886e+01
6.651375e+01	-1.465707e+01
6.689793e+01	-1.470562e+01
6.728433e+01	-1.475398e+01
6.767297e+01	-1.480158e+01
6.806384e+01	-1.484963e+01
6.845698e+01	-1.489951e+01
6.885238e+01	-1.494708e+01
6.925007e+01	-1.499567e+01
6.965005e+01	-1.504452e+01
7.005235e+01	-1.509254e+01
7.045697e+01	-1.514110e+01
7.086393e+01	-1.518995e+01
7.127323e+01	-1.523762e+01
7.168490e+01	-1.528609e+01
7.209895e+01	-1.533432e+01
7.251539e+01	-1.538373e+01
7.293424e+01	-1.543207e+01
7.335551e+01	-1.548075e+01
7.377920e+01	-1.553006e+01
7.420535e+01	-1.557798e+01
7.463396e+01	-1.562756e+01
7.506504e+01	-1.567567e+01
7.549861e+01	-1.572485e+01
7.593469e+01	-1.577380e+01
7.637328e+01	-1.582168e+01
7.681441e+01	-1.587006e+01
7.725809e+01	-1.591908e+01
7.770433e+01	-1.596797e+01
7.815315e+01	-1.601703e+01
7.860456e+01	-1.606560e+01
7.905857e+01	-1.611372e+01
7.951521e+01	-1.616248e+01
7.997449e+01	-1.621191e+01
8.043642e+01	-1.626045e+01
8.090102e+01	-1.631047e+01
8.136830e+01	-1.635863e+01
8.183828e+01	-1.640774e+01
8.231097e+01	-1.645637e+01
8.278640e+01	-1.650541e+01
8.326457e+01	-1.655418e+01
8.374550e+01	-1.660370e+01
8.422921e+01	-1.665185e+01
8.471572e+01	-1.670225e+01
8.520503e+01	-1.674986e+01
8.569717e+01	-1.679951e+01
8.619215e+01	-1.684836e+01
8.669000e+01	-1.689646e+01
8.719071e+01	-1.694544e+01
8.769432e+01	-1.699576e+01
8.820084e+01	-1.704394e+01
8.871029e+01	-1.709307e+01
8.922267e+01	-1.714267e+01
8.973802e+01	-1.719118e+01
9.025634e+01	-1.723969e+01
9.077766e+01	-1.728897e+01
9.130199e+01	-1.733838e+01
9.182935e+01	-1.738770e+01
9.235975e+01	-1.743729e+01
9.289321e+01	-1.748475e+01
9.342976e+01	-1.753447e+01
9.396941e+01	-1.758477e+01
9.451217e+01	-1.763317e+01
9.505807e+01	-1.768221e+01
9.560712e+01	-1.773084e+01
9.615934e+01	-1.778066e+01
9.671476e+01	-1.783048e+01
9.727338e+01	-1.787909e+01
9.783522e+01	-1.792831e+01
9.840032e+01	-1.797723e+01
9.896867e+01	-1.802705e+01
9.954031e+01	-1.807594e+01
1.001153e+02	-1.812599e+01
1.006935e+02	-1.817428e+01
1.012751e+02	-1.822457e+01
1.018601e+02	-1.827279e+01
1.024484e+02	-1.832202e+01
1.030402e+02	-1.837101e+01
1.036353e+02	-1.842103e+01
1.042339e+02	-1.847051e+01
1.048360e+02	-1.851948e+01
1.054415e+02	-1.857020e+01
1.060505e+02	-1.861871e+01
1.066631e+02	-1.866749e+01
1.072791e+02	-1.871771e+01
1.078988e+02	-1.876687e+01
1.085220e+02	-1.881507e+01
1.091488e+02	-1.886615e+01
1.097793e+02	-1.891410e+01
1.104133e+02	-1.896461e+01
1.110511e+02	-1.901301e+01
1.116925e+02	-1.906248e+01
1.123376e+02	-1.911316e+01
1.129865e+02	-1.916198e+01
1.136391e+02	-1.921139e+01
1.142955e+02	-1.926034e+01
1.149556e+02	-1.930949e+01
1.156196e+02	-1.935964e+01
1.162874e+02	-1.940971e+01
1.169591e+02	-1.945827e+01
1.176347e+02	-1.950649e+01
1.183141e+02	-1.955878e+01
1.189975e+02	-1.960624e+01
1.196848e+02	-1.965441e+01
1.203761e+02	-1.970452e+01
1.210714e+02	-1.975445e+01
1.217707e+02	-1.980489e+01
1.224740e+02	-1.985457e+01
1.231814e+02	-1.990438e+01
1.238929e+02	-1.995338e+01
1.246085e+02	-2.000299e+01
1.253283e+02	-2.005120e+01
1.260522e+02	-2.010126e+01
1.267802e+02	-2.015131e+01
1.275125e+02	-2.020083e+01
1.282490e+02	-2.024994e+01
1.289898e+02	-2.030026e+01
1.297348e+02	-2.034976e+01
1.304842e+02	-2.039974e+01
1.312378e+02	-2.044829e+01
1.319959e+02	-2.049830e+01
1.327583e+02	-2.054911e+01
1.335251e+02	-2.059940e+01
1.342963e+02	-2.064682e+01
1.350720e+02	-2.069728e+01
1.358522e+02	-2.074753e+01
1.366368e+02	-2.079529e+01
1.374260e+02	-2.084743e+01
1.382198e+02	-2.089609e+01
1.390182e+02	-2.094482e+01
1.398211e+02	-2.099452e+01
1.406287e+02	-2.104545e+01
1.414410e+02	-2.109423e+01
1.422579e+02	-2.114371e+01
1.430796e+02	-2.119187e+01
1.439060e+02	-2.124241e+01
1.447372e+02	-2.129399e+01
1.455732e+02	-2.134220e+01
1.464141e+02	-2.139226e+01
1.472597e+02	-2.144087e+01
1.481103e+02	-2.149134e+01
1.489658e+02	-2.154088e+01
1.498262e+02	-2.159058e+01
1.506916e+02	-2.164096e+01
1.515620e+02	-2.168989e+01
1.524374e+02	-2.174052e+01
1.533179e+02	-2.178692e+01
1.542034e+02	-2.183800e+01
1.550941e+02	-2.188756e+01
1.559899e+02	-2.193898e+01
1.568909e+02	-2.198891e+01
1.577971e+02	-2.204159e+01
1.587085e+02	-2.208615e+01
1.596252e+02	-2.213805e+01
1.605472e+02	-2.218620e+01
1.614745e+02	-2.223571e+01
1.624072e+02	-2.228652e+01
1.633453e+02	-2.233588e+01
1.642887e+02	-2.238683e+01
1.652377e+02	-2.243398e+01
1.661921e+02	-2.248536e+01
1.671520e+02	-2.253387e+01
1.681175e+02	-2.258391e+01
1.690885e+02	-2.263638e+01
1.700651e+02	-2.268292e+01
1.710474e+02	-2.273499e+01
1.720354e+02	-2.278516e+01
1.730291e+02	-2.283347e+01
1.740285e+02	-2.288416e+01
1.750337e+02	-2.293286e+01
1.760446e+02	-2.298528e+01
1.770615e+02	-2.303314e+01
1.780842e+02	-2.308561e+01
1.791128e+02	-2.313554e+01
1.801473e+02	-2.318284e+01
1.811878e+02	-2.323120e+01
1.822344e+02	-2.328317e+01
1.832870e+02	-2.333352e+01
1.843456e+02	-2.337998e+01
1.854104e+02	-2.343121e+01
1.864813e+02	-2.348213e+01
1.875584e+02	-2.353335e+01
1.886418e+02	-2.358285e+01
1.897313e+02	-2.362989e+01
1.908272e+02	-2.367991e+01
1.919294e+02	-2.373395e+01
1.930380e+02	-2.378094e+01
1.941530e+02	-2.383105e+01
1.952744e+02	-2.387932e+01
1.964023e+02	-2.392971e+01
1.975367e+02	-2.397773e+01
1.986777e+02	-2.402939e+01
1.998252e+02	-2.407954e+01
2.009794e+02	-2.413004e+01
2.021403e+02	-2.417945e+01
2.033078e+02	-2.422922e+01
2.044821e+02	-2.428158e+01
2.056632e+02	-2.432915e+01
2.068511e+02	-2.437927e+01
2.080459e+02	-2.443003e+01
2.092475e+02	-2.448104e+01
2.104561e+02	-2.452881e+01
2.116717e+02	-2.458123e+01
2.128943e+02	-2.462891e+01
2.141240e+02	-2.468036e+01
2.153608e+02	-2.472868e+01
2.166047e+02	-2.477885e+01
2.178558e+02	-2.482667e+01
2.191141e+02	-2.487736e+01
2.203797e+02	-2.492902e+01
2.216526e+02	-2.497763e+01
2.229329e+02	-2.502922e+01
2.242205e+02	-2.507635e+01
2.255156e+02	-2.512447e+01
2.268182e+02	-2.517726e+01
2.281283e+02	-2.522838e+01
2.294459e+02	-2.527823e+01
2.307712e+02	-2.532627e+01
2.321041e+02	-2.537855e+01
2.334447e+02	-2.542665e+01
2.347931e+02	-2.547749e+01
2.361493e+02	-2.552748e+01
2.375133e+02	-2.557843e+01
2.388851e+02	-2.562443e+01
2.402649e+02	-2.567825e+01
2.416527e+02	-2.572102e+01
2.430484e+02	-2.577712e+01
2.444523e+02	-2.582729e+01
2.458642e+02	-2.587201e+01
2.472843e+02	-2.592655e+01
2.487126e+02	-2.597349e+01
2.501492e+02	-2.602723e+01
2.515940e+02	-2.607452e+01
2.530472e+02	-2.612489e+01
2.545088e+02	-2.617754e+01
2.559789e+02	-2.623060e+01
2.574574e+02	-2.627717e+01
2.589444e+02	-2.632426e+01
2.604401e+02	-2.637781e+01
2.619444e+02	-2.642613e+01
2.634574e+02	-2.647486e+01
2.649791e+02	-2.652765e+01
2.665096e+02	-2.657666e+01
2.680489e+02	-2.662539e+01
2.695972e+02	-2.667670e+01
2.711544e+02	-2.672397e+01
2.727205e+02	-2.677562e+01
2.742958e+02	-2.682447e+01
2.758801e+02	-2.687512e+01
2.774736e+02	-2.692241e+01
2.790762e+02	-2.697364e+01
2.806882e+02	-2.702758e+01
2.823094e+02	-2.707237e+01
2.839400e+02	-2.712843e+01
2.855800e+02	-2.717116e+01
2.872295e+02	-2.722704e+01
2.888886e+02	-2.727600e+01
2.905572e+02	-2.732762e+01
2.922354e+02	-2.737621e+01
2.939234e+02	-2.742686e+01
2.956211e+02	-2.747875e+01
2.973286e+02	-2.752313e+01
2.990459e+02	-2.757177e+01
3.007732e+02	-2.762345e+01
3.025104e+02	-2.767936e+01
3.042577e+02	-2.772753e+01
3.060151e+02	-2.777464e+01
3.077826e+02	-2.782232e+01
3.095604e+02	-2.787329e+01
3.113484e+02	-2.792563e+01
3.131467e+02	-2.797869e+01
3.149554e+02	-2.802594e+01
3.167746e+02	-2.807347e+01
3.186043e+02	-2.812939e+01
3.204445e+02	-2.817739e+01
3.222954e+02	-2.822798e+01
3.241570e+02	-2.827531e+01
3.260293e+02	-2.832331e+01
3.279124e+02	-2.838007e+01
3.298064e+02	-2.842386e+01
3.317114e+02	-2.847790e+01
3.336273e+02	-2.852814e+01
3.355544e+02	-2.857919e+01
3.374925e+02	-2.862603e+01
3.394418e+02	-2.867598e+01
3.414024e+02	-2.872567e+01
3.433744e+02	-2.877500e+01
3.453577e+02	-2.883016e+01
3.473525e+02	-2.887720e+01
3.493588e+02	-2.892793e+01
3.513766e+02	-2.898021e+01
3.534062e+02	-2.902957e+01
3.554474e+02	-2.908019e+01
3.575005e+02	-2.912923e+01
3.595654e+02	-2.917745e+01
3.616422e+02	-2.922576e+01
3.637311e+02	-2.927748e+01
3.658320e+02	-2.932404e+01
3.679450e+02	-2.937842e+01
3.700702e+02	-2.942386e+01
3.722077e+02	-2.947363e+01
3.743576e+02	-2.952196e+01
3.765199e+02	-2.957816e+01
3.786946e+02	-2.962285e+01
3.808820e+02	-2.967619e+01
3.830819e+02	-2.972851e+01
3.852946e+02	-2.978003e+01
3.875200e+02	-2.983090e+01
3.897583e+02	-2.988068e+01
3.920096e+02	-2.992842e+01
3.942738e+02	-2.997327e+01
3.965511e+02	-3.002605e+01
3.988416e+02	-3.007467e+01
4.011452e+02	-3.012615e+01
4.034622e+02	-3.017673e+01
4.057926e+02	-3.023068e+01
4.081365e+02	-3.027754e+01
4.104938e+02	-3.033108e+01
4.128648e+02	-3.037426e+01
4.152495e+02	-3.042936e+01
4.176480e+02	-3.047879e+01
4.200603e+02	-3.053465e+01
4.224866e+02	-3.058133e+01
4.249268e+02	-3.062453e+01
4.273812e+02	-3.067686e+01
4.298497e+02	-3.072845e+01
4.323325e+02	-3.078179e+01
4.348297e+02	-3.082791e+01
4.373412e+02	-3.087676e+01
4.398673e+02	-3.093515e+01
4.424079e+02	-3.097977e+01
4.449633e+02	-3.102852e+01
4.475334e+02	-3.108273e+01
4.501183e+02	-3.112746e+01
4.527182e+02	-3.118605e+01
4.553330e+02	-3.123732e+01
4.579630e+02	-3.127996e+01
4.606082e+02	-3.132775e+01
4.632687e+02	-3.138404e+01
4.659445e+02	-3.143366e+01
4.686358e+02	-3.148444e+01
4.713426e+02	-3.153153e+01
4.740650e+02	-3.157997e+01
4.768032e+02	-3.163481e+01
4.795572e+02	-3.167818e+01
4.823271e+02	-3.173490e+01
4.851130e+02	-3.177841e+01
4.879150e+02	-3.183592e+01
4.907332e+02	-3.188195e+01
4.935676e+02	-3.192975e+01
4.964185e+02	-3.198102e+01
4.992858e+02	-3.203577e+01
5.021696e+02	-3.207921e+01
5.050701e+02	-3.213352e+01
5.079874e+02	-3.218484e+01
5.109215e+02	-3.222853e+01
5.138726e+02	-3.228714e+01
5.168407e+02	-3.233716e+01
5.198259e+02	-3.237789e+01
5.228284e+02	-3.243298e+01
5.258482e+02	-3.248585e+01
5.288855e+02	-3.253527e+01
5.319403e+02	-3.258453e+01
5.350128e+02	-3.263244e+01
5.381030e+02	-3.268371e+01
5.412111e+02	-3.274080e+01
5.443371e+02	-3.278954e+01
5.474812e+02	-3.283376e+01
5.506434e+02	-3.289366e+01
5.538239e+02	-3.293309e+01
5.570228e+02	-3.299040e+01
5.602401e+02	-3.303524e+01
5.634760e+02	-3.308241e+01
5.667306e+02	-3.313514e+01
5.700040e+02	-3.318564e+01
5.732964e+02	-3.323554e+01
5.766077e+02	-3.328397e+01
5.799382e+02	-3.334617e+01
5.832879e+02	-3.338832e+01
5.866569e+02	-3.344053e+01
5.900454e+02	-3.349359e+01
5.934535e+02	-3.354178e+01
5.968813e+02	-3.359017e+01
6.003288e+02	-3.364859e+01
6.037963e+02	-3.369027e+01
6.072838e+02	-3.374253e+01
6.107914e+02	-3.379543e+01
6.143194e+02	-3.384495e+01
6.178676e+02	-3.389225e+01
6.214364e+02	-3.395064e+01
6.250258e+02	-3.398930e+01
6.286359e+02	-3.404516e+01
6.322669e+02	-3.409046e+01
6.359189e+02	-3.414886e+01
6.395919e+02	-3.419502e+01
6.432862e+02	-3.424679e+01
6.470017e+02	-3.429643e+01
6.507388e+02	-3.434936e+01
6.544974e+02	-3.439179e+01
6.582778e+02	-3.444874e+01
6.620800e+02	-3.449278e+01
6.659041e+02	-3.454464e+01
6.697504e+02	-3.459557e+01
6.736188e+02	-3.465221e+01
6.775096e+02	-3.469826e+01
6.814229e+02	-3.474672e+01
6.853587e+02	-3.479093e+01
6.893173e+02	-3.485650e+01
6.932988e+02	-3.490029e+01
6.973033e+02	-3.494570e+01
7.013309e+02	-3.499682e+01
