Frequency(Hz)	Magnitude(dB)
1.000000e+01	-2.281384e+00
1.005776e+01	-2.301610e+00
1.011585e+01	-2.322373e+00
1.017428e+01	-2.343196e+00
1.023305e+01	-2.364151e+00
1.029215e+01	-2.385177e+00
1.035160e+01	-2.406255e+00
1.041139e+01	-2.427579e+00
1.047153e+01	-2.449037e+00
1.053201e+01	-2.471045e+00
1.059284e+01	-2.492449e+00
1.065403e+01	-2.514744e+00
1.071556e+01	-2.536514e+00
1.077746e+01	-2.558891e+00
1.083971e+01	-2.581026e+00
1.090232e+01	-2.603611e+00
1.096529e+01	-2.626092e+00
1.102862e+01	-2.649023e+00
1.109232e+01	-2.671800e+00
1.115639e+01	-2.694925e+00
1.122083e+01	-2.718081e+00
1.128564e+01	-2.741313e+00
1.135083e+01	-2.764867e+00
1.141639e+01	-2.788649e+00
1.148233e+01	-2.812443e+00
1.154865e+01	-2.836403e+00
1.161536e+01	-2.860112e+00
1.168245e+01	-2.884402e+00
1.174992e+01	-2.908902e+00
1.181779e+01	-2.933290e+00
1.188605e+01	-2.958110e+00
1.195470e+01	-2.983024e+00
1.202375e+01	-3.007722e+00
1.209320e+01	-3.032792e+00
1.216305e+01	-3.057769e+00
1.223330e+01	-3.083312e+00
1.230396e+01	-3.108650e+00
1.237503e+01	-3.134556e+00
1.244651e+01	-3.160170e+00
1.251840e+01	-3.186332e+00
1.259070e+01	-3.212217e+00
1.266343e+01	-3.238626e+00
1.273657e+01	-3.265053e+00
1.281014e+01	-3.291238e+00
1.288413e+01	-3.318277e+00
1.295855e+01	-3.344622e+00
1.303339e+01	-3.371698e+00
1.310867e+01	-3.398700e+00
1.318439e+01	-3.426441e+00
1.326054e+01	-3.453555e+00
1.333713e+01	-3.481211e+00
1.341417e+01	-3.508855e+00
1.349165e+01	-3.536359e+00
1.356958e+01	-3.564185e+00
1.364795e+01	-3.592666e+00
1.372678e+01	-3.620574e+00
1.380607e+01	-3.648892e+00
1.388581e+01	-3.677394e+00
1.396602e+01	-3.706330e+00
1.404668e+01	-3.734923e+00
1.412782e+01	-3.764093e+00
1.420942e+01	-3.792934e+00
1.429149e+01	-3.822173e+00
1.437404e+01	-3.851625e+00
1.445706e+01	-3.881146e+00
1.454057e+01	-3.910428e+00
1.462455e+01	-3.940268e+00
1.470902e+01	-3.970375e+00
1.479398e+01	-4.000324e+00
1.487943e+01	-4.030400e+00
1.496537e+01	-4.060837e+00
1.505181e+01	-4.091548e+00
1.513875e+01	-4.121995e+00
1.522619e+01	-4.152310e+00
1.531414e+01	-4.183507e+00
1.540259e+01	-4.214291e+00
1.549156e+01	-4.245879e+00
1.558103e+01	-4.277193e+00
1.567103e+01	-4.308273e+00
1.576155e+01	-4.339996e+00
1.585258e+01	-4.371587e+00
1.594415e+01	-4.403317e+00
1.603624e+01	-4.435193e+00
1.612886e+01	-4.467145e+00
1.622202e+01	-4.499752e+00
1.631572e+01	-4.532102e+00
1.640996e+01	-4.564446e+00
1.650474e+01	-4.596976e+00
1.660008e+01	-4.629478e+00
1.669596e+01	-4.662604e+00
1.679239e+01	-4.695734e+00
1.688938e+01	-4.728933e+00
1.698694e+01	-4.762094e+00
1.708505e+01	-4.795169e+00
1.718373e+01	-4.828913e+00
1.728299e+01	-4.862357e+00
1.738281e+01	-4.896200e+00
1.748322e+01	-4.929980e+00
1.758420e+01	-4.964469e+00
1.768576e+01	-4.997986e+00
1.778792e+01	-5.032489e+00
1.789066e+01	-5.067024e+00
1.799399e+01	-5.101477e+00
1.809793e+01	-5.136138e+00
1.820246e+01	-5.170720e+00
1.830760e+01	-5.205814e+00
1.841334e+01	-5.240679e+00
1.851969e+01	-5.276052e+00
1.862666e+01	-5.311061e+00
1.873425e+01	-5.346494e+00
1.884246e+01	-5.381818e+00
1.895129e+01	-5.417492e+00
1.906075e+01	-5.453003e+00
1.917085e+01	-5.488661e+00
1.928158e+01	-5.525039e+00
1.939295e+01	-5.560884e+00
1.950496e+01	-5.597071e+00
1.961762e+01	-5.633475e+00
1.973093e+01	-5.669989e+00
1.984490e+01	-5.706112e+00
1.995952e+01	-5.742779e+00
2.007480e+01	-5.779929e+00
2.019076e+01	-5.816657e+00
2.030738e+01	-5.853722e+00
2.042467e+01	-5.890573e+00
2.054264e+01	-5.927923e+00
2.066130e+01	-5.965343e+00
2.078064e+01	-6.002612e+00
2.090066e+01	-6.040068e+00
2.102139e+01	-6.077732e+00
2.114280e+01	-6.115695e+00
2.126492e+01	-6.153586e+00
2.138775e+01	-6.191417e+00
2.151128e+01	-6.229311e+00
2.163553e+01	-6.267647e+00
2.176050e+01	-6.305736e+00
2.188619e+01	-6.344090e+00
2.201260e+01	-6.382729e+00
2.213974e+01	-6.421235e+00
2.226762e+01	-6.460019e+00
2.239624e+01	-6.498627e+00
2.252560e+01	-6.537888e+00
2.265571e+01	-6.576692e+00
2.278656e+01	-6.615551e+00
2.291818e+01	-6.654805e+00
2.305055e+01	-6.693940e+00
2.318369e+01	-6.733565e+00
2.331760e+01	-6.772882e+00
2.345228e+01	-6.812684e+00
2.358774e+01	-6.851990e+00
2.372398e+01	-6.891977e+00
2.386101e+01	-6.931468e+00
2.399883e+01	-6.971635e+00
2.413745e+01	-7.011561e+00
2.427686e+01	-7.051834e+00
2.441709e+01	-7.091962e+00
2.455812e+01	-7.132703e+00
2.469997e+01	-7.172542e+00
2.484263e+01	-7.212748e+00
2.498612e+01	-7.253693e+00
2.513044e+01	-7.294460e+00
2.527559e+01	-7.335014e+00
2.542158e+01	-7.376256e+00
2.556842e+01	-7.416828e+00
2.571610e+01	-7.457886e+00
2.586463e+01	-7.498703e+00
2.601403e+01	-7.540172e+00
2.616428e+01	-7.581302e+00
2.631541e+01	-7.622416e+00
2.646740e+01	-7.664297e+00
2.662028e+01	-7.705441e+00
2.677404e+01	-7.747165e+00
2.692868e+01	-7.789438e+00
2.708422e+01	-7.830613e+00
2.724066e+01	-7.872556e+00
2.739800e+01	-7.914439e+00
2.755625e+01	-7.955964e+00
2.771541e+01	-7.998041e+00
2.787550e+01	-8.040394e+00
2.803650e+01	-8.082927e+00
2.819844e+01	-8.124883e+00
2.836131e+01	-8.167046e+00
2.852513e+01	-8.209881e+00
2.868989e+01	-8.252243e+00
2.885560e+01	-8.294731e+00
2.902227e+01	-8.337211e+00
2.918990e+01	-8.380242e+00
2.935850e+01	-8.422907e+00
2.952807e+01	-8.465951e+00
2.969863e+01	-8.508829e+00
2.987016e+01	-8.551805e+00
3.004269e+01	-8.595267e+00
3.021622e+01	-8.637893e+00
3.039075e+01	-8.680870e+00
3.056628e+01	-8.724503e+00
3.074283e+01	-8.768272e+00
3.092040e+01	-8.811214e+00
3.109900e+01	-8.854598e+00
3.127862e+01	-8.898555e+00
3.145929e+01	-8.941773e+00
3.164099e+01	-8.985927e+00
3.182375e+01	-9.029133e+00
3.200756e+01	-9.073420e+00
3.219244e+01	-9.117089e+00
3.237838e+01	-9.161234e+00
3.256540e+01	-9.204804e+00
3.275349e+01	-9.248690e+00
3.294268e+01	-9.293060e+00
3.313295e+01	-9.337476e+00
3.332433e+01	-9.381199e+00
3.351681e+01	-9.425793e+00
3.371040e+01	-9.469980e+00
3.390511e+01	-9.514872e+00
3.410094e+01	-9.558968e+00
3.429791e+01	-9.603737e+00
3.449601e+01	-9.648289e+00
3.469526e+01	-9.692926e+00
3.489566e+01	-9.737220e+00
3.509721e+01	-9.782525e+00
3.529993e+01	-9.826336e+00
3.550382e+01	-9.871664e+00
3.570889e+01	-9.916613e+00
3.591515e+01	-9.961403e+00
3.612259e+01	-1.000635e+01
3.633123e+01	-1.005185e+01
3.654108e+01	-1.009692e+01
3.675214e+01	-1.014208e+01
3.696442e+01	-1.018666e+01
3.717792e+01	-1.023215e+01
3.739266e+01	-1.027761e+01
3.760864e+01	-1.032309e+01
3.782587e+01	-1.036898e+01
3.804435e+01	-1.041384e+01
3.826409e+01	-1.045966e+01
3.848510e+01	-1.050463e+01
3.870739e+01	-1.055107e+01
3.893096e+01	-1.059606e+01
3.915583e+01	-1.064160e+01
3.938199e+01	-1.068752e+01
3.960946e+01	-1.073386e+01
3.983824e+01	-1.077952e+01
4.006834e+01	-1.082486e+01
4.029978e+01	-1.087102e+01
4.053255e+01	-1.091696e+01
4.076666e+01	-1.096308e+01
4.100213e+01	-1.100889e+01
4.123896e+01	-1.105518e+01
4.147715e+01	-1.110114e+01
4.171672e+01	-1.114742e+01
4.195767e+01	-1.119394e+01
4.220002e+01	-1.123980e+01
4.244377e+01	-1.128658e+01
4.268892e+01	-1.133283e+01
4.293549e+01	-1.137888e+01
4.318348e+01	-1.142488e+01
4.343291e+01	-1.147177e+01
4.368377e+01	-1.151789e+01
4.393609e+01	-1.156523e+01
4.418986e+01	-1.161145e+01
4.444510e+01	-1.165773e+01
4.470182e+01	-1.170432e+01
4.496001e+01	-1.175151e+01
4.521970e+01	-1.179773e+01
4.548089e+01	-1.184409e+01
4.574358e+01	-1.189166e+01
4.600779e+01	-1.193807e+01
4.627353e+01	-1.198483e+01
4.654081e+01	-1.203169e+01
4.680963e+01	-1.207882e+01
4.708000e+01	-1.212628e+01
4.735193e+01	-1.217273e+01
4.762543e+01	-1.222026e+01
4.790051e+01	-1.226616e+01
4.817719e+01	-1.231345e+01
4.845545e+01	-1.236062e+01
4.873533e+01	-1.240895e+01
4.901682e+01	-1.245468e+01
4.929994e+01	-1.250247e+01
4.958470e+01	-1.255031e+01
4.987110e+01	-1.259704e+01
5.015915e+01	-1.264489e+01
5.044887e+01	-1.269108e+01
5.074026e+01	-1.273888e+01
5.103333e+01	-1.278590e+01
5.132810e+01	-1.283375e+01
5.162457e+01	-1.288134e+01
5.192275e+01	-1.292853e+01
5.222265e+01	-1.297577e+01
5.252429e+01	-1.302328e+01
5.282767e+01	-1.307119e+01
5.313280e+01	-1.311878e+01
5.343969e+01	-1.316625e+01
5.374836e+01	-1.321444e+01
5.405880e+01	-1.326136e+01
5.437105e+01	-1.330965e+01
5.468509e+01	-1.335712e+01
5.500095e+01	-1.340403e+01
5.531863e+01	-1.345300e+01
5.563815e+01	-1.350070e+01
5.595951e+01	-1.354839e+01
5.628273e+01	-1.359578e+01
5.660782e+01	-1.364398e+01
5.693479e+01	-1.369140e+01
5.726364e+01	-1.373982e+01
5.759439e+01	-1.378767e+01
5.792705e+01	-1.383551e+01
5.826164e+01	-1.388278e+01
5.859815e+01	-1.393149e+01
5.893662e+01	-1.397857e+01
5.927703e+01	-1.402739e+01
5.961941e+01	-1.407502e+01
5.996377e+01	-1.412381e+01
6.031012e+01	-1.417214e+01
6.065847e+01	-1.421960e+01
6.100883e+01	-1.426898e+01
6.136121e+01	-1.431613e+01
6.171563e+01	-1.436453e+01
6.207210e+01	-1.441238e+01
6.243063e+01	-1.446044e+01
6.279122e+01	-1.450904e+01
6.315390e+01	-1.455659e+01
6.351868e+01	-1.460530e+01
6.388556e+01	-1.465340e+01
6.425456e+01	-1.470203e+01
6.462569e+01	-1.475034e+01
6.499897e+01	-1.479920e+01
6.537440e+01	-1.484661e+01
6.575200e+01	-1.489611e+01
6.613178e+01	-1.494458e+01
6.651375e+01	-1.499256e+01
6.689793e+01	-1.504147e+01
6.728433e+01	-1.508974e+01
6.767297e+01	-1.513775e+01
6.806384e+01	-1.518659e+01
6.845698e+01	-1.523521e+01
6.885238e+01	-1.528291e+01
6.925007e+01	-1.533161e+01
6.965005e+01	-1.538094e+01
7.005235e+01	-1.542949e+01
7.045697e+01	-1.547663e+01
7.086393e+01	-1.552585e+01
7.127323e+01	-1.557481e+01
7.168490e+01	-1.562247e+01
7.209895e+01	-1.567130e+01
7.251539e+01	-1.572050e+01
7.293424e+01	-1.577071e+01
7.335551e+01	-1.581857e+01
7.377920e+01	-1.586886e+01
7.420535e+01	-1.591585e+01
7.463396e+01	-1.596570e+01
7.506504e+01	-1.601286e+01
7.549861e+01	-1.606246e+01
7.593469e+01	-1.611045e+01
7.637328e+01	-1.615959e+01
7.681441e+01	-1.620924e+01
7.725809e+01	-1.625779e+01
7.770433e+01	-1.630654e+01
7.815315e+01	-1.635570e+01
7.860456e+01	-1.640368e+01
7.905857e+01	-1.645359e+01
7.951521e+01	-1.650228e+01
7.997449e+01	-1.655065e+01
8.043642e+01	-1.659895e+01
8.090102e+01	-1.664890e+01
8.136830e+01	-1.669747e+01
8.183828e+01	-1.674674e+01
8.231097e+01	-1.679549e+01
8.278640e+01	-1.684536e+01
8.326457e+01	-1.689391e+01
8.374550e+01	-1.694254e+01
8.422921e+01	-1.699168e+01
8.471572e+01	-1.703928e+01
8.520503e+01	-1.708998e+01
8.569717e+01	-1.713913e+01
8.619215e+01	-1.718813e+01
8.669000e+01	-1.723679e+01
8.719071e+01	-1.728601e+01
8.769432e+01	-1.733522e+01
8.820084e+01	-1.738467e+01
8.871029e+01	-1.743522e+01
8.922267e+01	-1.748257e+01
8.973802e+01	-1.753252e+01
9.025634e+01	-1.758019e+01
9.077766e+01	-1.763000e+01
9.130199e+01	-1.767990e+01
9.182935e+01	-1.772873e+01
9.235975e+01	-1.777757e+01
9.289321e+01	-1.782591e+01
9.342976e+01	-1.787605e+01
9.396941e+01	-1.792468e+01
9.451217e+01	-1.797533e+01
9.505807e+01	-1.802358e+01
9.560712e+01	-1.807229e+01
9.615934e+01	-1.812338e+01
9.671476e+01	-1.817194e+01
9.727338e+01	-1.822052e+01
9.783522e+01	-1.826991e+01
9.840032e+01	-1.831847e+01
9.896867e+01	-1.836883e+01
9.954031e+01	-1.841805e+01
1.001153e+02	-1.846604e+01
1.006935e+02	-1.851622e+01
1.012751e+02	-1.856549e+01
1.018601e+02	-1.861520e+01
1.024484e+02	-1.866497e+01
1.030402e+02	-1.871276e+01
1.036353e+02	-1.876249e+01
1.042339e+02	-1.881193e+01
1.048360e+02	-1.886283e+01
1.054415e+02	-1.891288e+01
1.060505e+02	-1.896018e+01
1.066631e+02	-1.901031e+01
1.072791e+02	-1.905895e+01
1.078988e+02	-1.910930e+01
1.085220e+02	-1.915719e+01
1.091488e+02	-1.920670e+01
1.097793e+02	-1.925725e+01
1.104133e+02	-1.930566e+01
1.110511e+02	-1.935584e+01
1.116925e+02	-1.940560e+01
1.123376e+02	-1.945581e+01
1.129865e+02	-1.950518e+01
1.136391e+02	-1.955351e+01
1.142955e+02	-1.960335e+01
1.149556e+02	-1.965289e+01
1.156196e+02	-1.970260e+01
1.162874e+02	-1.975111e+01
1.169591e+02	-1.980154e+01
1.176347e+02	-1.985128e+01
1.183141e+02	-1.989935e+01
1.189975e+02	-1.995081e+01
1.196848e+02	-2.000048e+01
1.203761e+02	-2.004810e+01
1.210714e+02	-2.009890e+01
1.217707e+02	-2.014923e+01
1.224740e+02	-2.019732e+01
1.231814e+02	-2.024587e+01
1.238929e+02	-2.029756e+01
1.246085e+02	-2.034752e+01
1.253283e+02	-2.039679e+01
1.260522e+02	-2.044488e+01
1.267802e+02	-2.049507e+01
1.275125e+02	-2.054589e+01
1.282490e+02	-2.059478e+01
1.289898e+02	-2.064532e+01
1.297348e+02	-2.069273e+01
1.304842e+02	-2.074310e+01
1.312378e+02	-2.079391e+01
1.319959e+02	-2.084251e+01
1.327583e+02	-2.089237e+01
1.335251e+02	-2.094139e+01
1.342963e+02	-2.099003e+01
1.350720e+02	-2.104209e+01
1.358522e+02	-2.109065e+01
1.366368e+02	-2.114127e+01
1.374260e+02	-2.119104e+01
1.382198e+02	-2.124046e+01
1.390182e+02	-2.128879e+01
1.398211e+02	-2.133792e+01
1.406287e+02	-2.138793e+01
1.414410e+02	-2.143673e+01
1.422579e+02	-2.148659e+01
1.430796e+02	-2.153879e+01
1.439060e+02	-2.158690e+01
1.447372e+02	-2.163663e+01
1.455732e+02	-2.168775e+01
1.464141e+02	-2.173489e+01
1.472597e+02	-2.178695e+01
1.481103e+02	-2.183767e+01
1.489658e+02	-2.188661e+01
1.498262e+02	-2.193723e+01
1.506916e+02	-2.198464e+01
1.515620e+02	-2.203549e+01
1.524374e+02	-2.208423e+01
1.533179e+02	-2.213347e+01
1.542034e+02	-2.218493e+01
1.550941e+02	-2.223361e+01
1.559899e+02	-2.228353e+01
1.568909e+02	-2.233182e+01
1.577971e+02	-2.238080e+01
1.587085e+02	-2.243265e+01
1.596252e+02	-2.248200e+01
1.605472e+02	-2.253207e+01
1.614745e+02	-2.258142e+01
1.624072e+02	-2.263211e+01
1.633453e+02	-2.268275e+01
1.642887e+02	-2.273150e+01
1.652377e+02	-2.278078e+01
1.661921e+02	-2.283143e+01
1.671520e+02	-2.287891e+01
1.681175e+02	-2.293322e+01
1.690885e+02	-2.298128e+01
1.700651e+02	-2.302961e+01
1.710474e+02	-2.307805e+01
1.720354e+02	-2.312876e+01
1.730291e+02	-2.317879e+01
1.740285e+02	-2.323129e+01
1.750337e+02	-2.328066e+01
1.760446e+02	-2.332883e+01
1.770615e+02	-2.337882e+01
1.780842e+02	-2.342725e+01
1.791128e+02	-2.347774e+01
1.801473e+02	-2.352688e+01
1.811878e+02	-2.357892e+01
1.822344e+02	-2.362852e+01
1.832870e+02	-2.367963e+01
1.843456e+02	-2.372977e+01
1.854104e+02	-2.377848e+01
1.864813e+02	-2.382902e+01
1.875584e+02	-2.387936e+01
1.886418e+02	-2.392848e+01
1.897313e+02	-2.397570e+01
1.908272e+02	-2.402991e+01
1.919294e+02	-2.407666e+01
1.930380e+02	-2.412485e+01
1.941530e+02	-2.417592e+01
1.952744e+02	-2.422802e+01
1.964023e+02	-2.427572e+01
1.975367e+02	-2.432409e+01
1.986777e+02	-2.437547e+01
1.998252e+02	-2.442486e+01
2.009794e+02	-2.447514e+01
2.021403e+02	-2.452552e+01
2.033078e+02	-2.457370e+01
2.044821e+02	-2.462463e+01
2.056632e+02	-2.467520e+01
2.068511e+02	-2.472565e+01
2.080459e+02	-2.477554e+01
2.092475e+02	-2.482350e+01
2.104561e+02	-2.487749e+01
2.116717e+02	-2.492369e+01
2.128943e+02	-2.497557e+01
2.141240e+02	-2.502519e+01
2.153608e+02	-2.507370e+01
2.166047e+02	-2.512209e+01
2.178558e+02	-2.517267e+01
2.191141e+02	-2.522562e+01
2.203797e+02	-2.527208e+01
2.216526e+02	-2.532620e+01
2.229329e+02	-2.537015e+01
2.242205e+02	-2.542364e+01
2.255156e+02	-2.547576e+01
2.268182e+02	-2.552319e+01
2.281283e+02	-2.557642e+01
2.294459e+02	-2.562439e+01
2.307712e+02	-2.567391e+01
2.321041e+02	-2.572570e+01
2.334447e+02	-2.577374e+01
2.347931e+02	-2.582144e+01
2.361493e+02	-2.587226e+01
2.375133e+02	-2.592225e+01
2.388851e+02	-2.597342e+01
2.402649e+02	-2.602565e+01
2.416527e+02	-2.607568e+01
2.430484e+02	-2.612338e+01
2.444523e+02	-2.617209e+01
2.458642e+02	-2.622728e+01
2.472843e+02	-2.626956e+01
2.487126e+02	-2.632173e+01
2.501492e+02	-2.637152e+01
2.515940e+02	-2.642222e+01
2.530472e+02	-2.647181e+01
2.545088e+02	-2.652260e+01
2.559789e+02	-2.657193e+01
2.574574e+02	-2.662213e+01
2.589444e+02	-2.667559e+01
2.604401e+02	-2.672362e+01
2.619444e+02	-2.677158e+01
2.634574e+02	-2.682009e+01
2.649791e+02	-2.687188e+01
2.665096e+02	-2.692455e+01
2.680489e+02	-2.697464e+01
2.695972e+02	-2.701976e+01
2.711544e+02	-2.707126e+01
2.727205e+02	-2.711968e+01
2.742958e+02	-2.716795e+01
2.758801e+02	-2.722242e+01
2.774736e+02	-2.727674e+01
2.790762e+02	-2.732193e+01
2.806882e+02	-2.737227e+01
2.823094e+02	-2.742277e+01
2.839400e+02	-2.747318e+01
2.855800e+02	-2.752351e+01
2.872295e+02	-2.757011e+01
2.888886e+02	-2.762320e+01
2.905572e+02	-2.766604e+01
2.922354e+02	-2.772139e+01
2.939234e+02	-2.777415e+01
2.956211e+02	-2.782418e+01
2.973286e+02	-2.786946e+01
2.990459e+02	-2.792213e+01
3.007732e+02	-2.797345e+01
3.025104e+02	-2.802027e+01
3.042577e+02	-2.807292e+01
3.060151e+02	-2.812290e+01
3.077826e+02	-2.817163e+01
3.095604e+02	-2.822293e+01
3.113484e+02	-2.827202e+01
3.131467e+02	-2.832660e+01
3.149554e+02	-2.837572e+01
3.167746e+02	-2.842215e+01
3.186043e+02	-2.846886e+01
3.204445e+02	-2.852758e+01
3.222954e+02	-2.857415e+01
3.241570e+02	-2.862874e+01
3.260293e+02	-2.867502e+01
3.279124e+02	-2.872555e+01
3.298064e+02	-2.877144e+01
3.317114e+02	-2.882466e+01
3.336273e+02	-2.887267e+01
3.355544e+02	-2.892039e+01
3.374925e+02	-2.897333e+01
3.394418e+02	-2.902568e+01
3.414024e+02	-2.907458e+01
3.433744e+02	-2.912266e+01
3.453577e+02	-2.917395e+01
3.473525e+02	-2.922393e+01
3.493588e+02	-2.927438e+01
3.513766e+02	-2.932413e+01
3.534062e+02	-2.937579e+01
3.554474e+02	-2.942828e+01
3.575005e+02	-2.947344e+01
3.595654e+02	-2.952838e+01
3.616422e+02	-2.957635e+01
3.637311e+02	-2.962598e+01
3.658320e+02	-2.967571e+01
3.679450e+02	-2.972623e+01
3.700702e+02	-2.977597e+01
3.722077e+02	-2.982946e+01
3.743576e+02	-2.988257e+01
3.765199e+02	-2.992569e+01
3.786946e+02	-2.996861e+01
3.808820e+02	-3.002469e+01
3.830819e+02	-3.007615e+01
3.852946e+02	-3.012790e+01
3.875200e+02	-3.017705e+01
3.897583e+02	-3.022549e+01
3.920096e+02	-3.027167e+01
3.942738e+02	-3.032518e+01
3.965511e+02	-3.037465e+01
3.988416e+02	-3.042377e+01
4.011452e+02	-3.048123e+01
4.034622e+02	-3.052780e+01
4.057926e+02	-3.058265e+01
4.081365e+02	-3.062080e+01
4.104938e+02	-3.068031e+01
4.128648e+02	-3.073021e+01
4.152495e+02	-3.078089e+01
4.176480e+02	-3.082276e+01
4.200603e+02	-3.087304e+01
4.224866e+02	-3.092806e+01
4.249268e+02	-3.097586e+01
4.273812e+02	-3.102118e+01
4.298497e+02	-3.107394e+01
4.323325e+02	-3.112808e+01
4.348297e+02	-3.117576e+01
4.373412e+02	-3.122860e+01
4.398673e+02	-3.127801e+01
4.424079e+02	-3.132849e+01
4.449633e+02	-3.137458e+01
4.475334e+02	-3.143041e+01
4.501183e+02	-3.147767e+01
4.527182e+02	-3.153383e+01
4.553330e+02	-3.157811e+01
4.579630e+02	-3.163278e+01
4.606082e+02	-3.167334e+01
4.632687e+02	-3.173011e+01
4.659445e+02	-3.178325e+01
4.686358e+02	-3.183539e+01
4.713426e+02	-3.188221e+01
4.740650e+02	-3.193378e+01
4.768032e+02	-3.198247e+01
4.795572e+02	-3.203037e+01
4.823271e+02	-3.208001e+01
4.851130e+02	-3.213439e+01
4.879150e+02	-3.218194e+01
4.907332e+02	-3.223144e+01
4.935676e+02	-3.228607e+01
4.964185e+02	-3.233004e+01
4.992858e+02	-3.238237e+01
5.021696e+02	-3.243383e+01
5.050701e+02	-3.248662e+01
5.079874e+02	-3.253078e+01
5.109215e+02	-3.258116e+01
5.138726e+02	-3.262959e+01
5.168407e+02	-3.268840e+01
5.198259e+02	-3.273479e+01
5.228284e+02	-3.278456e+01
5.258482e+02	-3.283459e+01
5.288855e+02	-3.288267e+01
5.319403e+02	-3.293641e+01
5.350128e+02	-3.298477e+01
5.381030e+02	-3.303004e+01
5.412111e+02	-3.308837e+01
5.443371e+02	-3.313045e+01
5.474812e+02	-3.318205e+01
5.506434e+02	-3.323640e+01
5.538239e+02	-3.329214e+01
5.570228e+02	-3.333210e+01
5.602401e+02	-3.339388e+01
5.634760e+02	-3.343359e+01
5.667306e+02	-3.349222e+01
5.700040e+02	-3.353417e+01
5.732964e+02	-3.358467e+01
5.766077e+02	-3.364375e+01
5.799382e+02	-3.369331e+01
5.832879e+02	-3.373608e+01
5.866569e+02	-3.379374e+01
5.900454e+02	-3.383281e+01
5.934535e+02	-3.388714e+01
5.968813e+02	-3.394066e+01
6.003288e+02	-3.399168e+01
6.037963e+02	-3.404362e+01
6.072838e+02	-3.409686e+01
6.107914e+02	-3.414322e+01
6.143194e+02	-3.418919e+01
6.178676e+02	-3.425223e+01
6.214364e+02	-3.428889e+01
6.250258e+02	-3.433737e+01
6.286359e+02	-3.439563e+01
6.322669e+02	-3.443217e+01
6.359189e+02	-3.449375e+01
6.395919e+02	-3.454965e+01
6.432862e+02	-3.459260e+01
6.470017e+02	-3.465206e+01
6.507388e+02	-3.469816e+01
6.544974e+02	-3.474574e+01
6.582778e+02	-3.479225e+01
6.620800e+02	-3.484027e+01
6.659041e+02	-3.489293e+01
6.697504e+02	-3.495179e+01
6.736188e+02	-3.499452e+01
6.775096e+02	-3.505881e+01
6.814229e+02	-3.509665e+01
6.853587e+02	-3.514772e+01
6.893173e+02	-3.519945e+01
6.932988e+02	-3.524929e+01
6.973033e+02	-3.530216e+01
7.013309e+02	-3.534301e+01
