Frequency(Hz)	Magnitude(dB)
1.000000e+01	-2.042664e+00
1.005776e+01	-2.061362e+00
1.011585e+01	-2.080239e+00
1.017428e+01	-2.099446e+00
1.023305e+01	-2.118465e+00
1.029215e+01	-2.138070e+00
1.035160e+01	-2.157556e+00
1.041139e+01	-2.177090e+00
1.047153e+01	-2.197130e+00
1.053201e+01	-2.217060e+00
1.059284e+01	-2.236933e+00
1.065403e+01	-2.257153e+00
1.071556e+01	-2.277572e+00
1.077746e+01	-2.298154e+00
1.083971e+01	-2.318745e+00
1.090232e+01	-2.339301e+00
1.096529e+01	-2.360329e+00
1.102862e+01	-2.381499e+00
1.109232e+01	-2.402673e+00
1.115639e+01	-2.423803e+00
1.122083e+01	-2.445500e+00
1.128564e+01	-2.467043e+00
1.135083e+01	-2.488791e+00
1.141639e+01	-2.510635e+00
1.148233e+01	-2.532621e+00
1.154865e+01	-2.554708e+00
1.161536e+01	-2.577382e+00
1.168245e+01	-2.599718e+00
1.174992e+01	-2.622171e+00
1.181779e+01	-2.645306e+00
1.188605e+01	-2.668083e+00
1.195470e+01	-2.690908e+00
1.202375e+01	-2.714171e+00
1.209320e+01	-2.737566e+00
1.216305e+01	-2.760990e+00
1.223330e+01	-2.784612e+00
1.230396e+01	-2.808331e+00
1.237503e+01	-2.832119e+00
1.244651e+01	-2.856211e+00
1.251840e+01	-2.880308e+00
1.259070e+01	-2.904740e+00
1.266343e+01	-2.929091e+00
1.273657e+01	-2.953777e+00
1.281014e+01	-2.978586e+00
1.288413e+01	-3.003622e+00
1.295855e+01	-3.028578e+00
1.303339e+01	-3.053400e+00
1.310867e+01	-3.079128e+00
1.318439e+01	-3.104476e+00
1.326054e+01	-3.130075e+00
1.333713e+01	-3.155811e+00
1.341417e+01	-3.182056e+00
1.349165e+01	-3.208210e+00
1.356958e+01	-3.234032e+00
1.364795e+01	-3.260510e+00
1.372678e+01	-3.286878e+00
1.380607e+01	-3.313484e+00
1.388581e+01	-3.340265e+00
1.396602e+01	-3.367019e+00
1.404668e+01	-3.394266e+00
1.412782e+01	-3.421394e+00
1.420942e+01	-3.448852e+00
1.429149e+01	-3.476400e+00
1.437404e+01	-3.503953e+00
1.445706e+01	-3.531906e+00
1.454057e+01	-3.559400e+00
1.462455e+01	-3.587661e+00
1.470902e+01	-3.615924e+00
1.479398e+01	-3.644062e+00
1.487943e+01	-3.672731e+00
1.496537e+01	-3.701031e+00
1.505181e+01	-3.730200e+00
1.513875e+01	-3.758962e+00
1.522619e+01	-3.787957e+00
1.531414e+01	-3.817145e+00
1.540259e+01	-3.846380e+00
1.549156e+01	-3.875678e+00
1.558103e+01	-3.905631e+00
1.567103e+01	-3.935317e+00
1.576155e+01	-3.965238e+00
1.585258e+01	-3.995175e+00
1.594415e+01	-4.025270e+00
1.603624e+01	-4.055781e+00
1.612886e+01	-4.086130e+00
1.622202e+01	-4.116657e+00
1.631572e+01	-4.147432e+00
1.640996e+01	-4.178192e+00
1.650474e+01	-4.209099e+00
1.660008e+01	-4.240143e+00
1.669596e+01	-4.271353e+00
1.679239e+01	-4.303206e+00
1.688938e+01	-4.334269e+00
1.698694e+01	-4.365900e+00
1.708505e+01	-4.397580e+00
1.718373e+01	-4.429917e+00
1.728299e+01	-4.461863e+00
1.738281e+01	-4.494159e+00
1.748322e+01	-4.526421e+00
1.758420e+01	-4.558810e+00
1.768576e+01	-4.591459e+00
1.778792e+01	-4.623926e+00
1.789066e+01	-4.656833e+00
1.799399e+01	-4.689809e+00
1.809793e+01	-4.723051e+00
1.820246e+01	-4.756347e+00
1.830760e+01	-4.789327e+00
1.841334e+01	-4.823155e+00
1.851969e+01	-4.856577e+00
1.862666e+01	-4.890546e+00
1.873425e+01	-4.924419e+00
1.884246e+01	-4.958446e+00
1.895129e+01	-4.992341e+00
1.906075e+01	-5.026797e+00
1.917085e+01	-5.060862e+00
1.928158e+01	-5.095251e+00
1.939295e+01	-5.130079e+00
1.950496e+01	-5.164737e+00
1.961762e+01	-5.199500e+00
1.973093e+01	-5.234443e+00
1.984490e+01	-5.270162e+00
1.995952e+01	-5.304990e+00
2.007480e+01	-5.340015e+00
2.019076e+01	-5.375973e+00
2.030738e+01	-5.411673e+00
2.042467e+01	-5.447057e+00
2.054264e+01	-5.483184e+00
2.066130e+01	-5.518743e+00
2.078064e+01	-5.554653e+00
2.090066e+01	-5.590690e+00
2.102139e+01	-5.627009e+00
2.114280e+01	-5.663873e+00
2.126492e+01	-5.700248e+00
2.138775e+01	-5.737038e+00
2.151128e+01	-5.773405e+00
2.163553e+01	-5.810682e+00
2.176050e+01	-5.847351e+00
2.188619e+01	-5.884673e+00
2.201260e+01	-5.921629e+00
2.213974e+01	-5.958959e+00
2.226762e+01	-5.995884e+00
2.239624e+01	-6.033793e+00
2.252560e+01	-6.071281e+00
2.265571e+01	-6.109171e+00
2.278656e+01	-6.146761e+00
2.291818e+01	-6.184701e+00
2.305055e+01	-6.222820e+00
2.318369e+01	-6.260812e+00
2.331760e+01	-6.299085e+00
2.345228e+01	-6.337869e+00
2.358774e+01	-6.376043e+00
2.372398e+01	-6.414730e+00
2.386101e+01	-6.453009e+00
2.399883e+01	-6.492061e+00
2.413745e+01	-6.531020e+00
2.427686e+01	-6.569819e+00
2.441709e+01	-6.608834e+00
2.455812e+01	-6.648258e+00
2.469997e+01	-6.687583e+00
2.484263e+01	-6.726319e+00
2.498612e+01	-6.766281e+00
2.513044e+01	-6.805711e+00
2.527559e+01	-6.845521e+00
2.542158e+01	-6.884979e+00
2.556842e+01	-6.924714e+00
2.571610e+01	-6.964492e+00
2.586463e+01	-7.004495e+00
2.601403e+01	-7.044794e+00
2.616428e+01	-7.084777e+00
2.631541e+01	-7.125519e+00
2.646740e+01	-7.165472e+00
2.662028e+01	-7.206653e+00
2.677404e+01	-7.246711e+00
2.692868e+01	-7.287255e+00
2.708422e+01	-7.328047e+00
2.724066e+01	-7.369229e+00
2.739800e+01	-7.409596e+00
2.755625e+01	-7.450638e+00
2.771541e+01	-7.491788e+00
2.787550e+01	-7.532834e+00
2.803650e+01	-7.574085e+00
2.819844e+01	-7.615256e+00
2.836131e+01	-7.657016e+00
2.852513e+01	-7.698333e+00
2.868989e+01	-7.740110e+00
2.885560e+01	-7.781822e+00
2.902227e+01	-7.823696e+00
2.918990e+01	-7.865135e+00
2.935850e+01	-7.906902e+00
2.952807e+01	-7.948788e+00
2.969863e+01	-7.991096e+00
2.987016e+01	-8.033408e+00
3.004269e+01	-8.075440e+00
3.021622e+01	-8.117862e+00
3.039075e+01	-8.159826e+00
3.056628e+01	-8.202407e+00
3.074283e+01	-8.244865e+00
3.092040e+01	-8.287708e+00
3.109900e+01	-8.330213e+00
3.127862e+01	-8.372750e+00
3.145929e+01	-8.415611e+00
3.164099e+01	-8.458312e+00
3.182375e+01	-8.501505e+00
3.200756e+01	-8.544355e+00
3.219244e+01	-8.587162e+00
3.237838e+01	-8.630365e+00
3.256540e+01	-8.674802e+00
3.275349e+01	-8.717139e+00
3.294268e+01	-8.760294e+00
3.313295e+01	-8.803687e+00
3.332433e+01	-8.847514e+00
3.351681e+01	-8.891097e+00
3.371040e+01	-8.934491e+00
3.390511e+01	-8.977962e+00
3.410094e+01	-9.021392e+00
3.429791e+01	-9.065388e+00
3.449601e+01	-9.110171e+00
3.469526e+01	-9.153690e+00
3.489566e+01	-9.197287e+00
3.509721e+01	-9.241543e+00
3.529993e+01	-9.285664e+00
3.550382e+01	-9.329325e+00
3.570889e+01	-9.373766e+00
3.591515e+01	-9.418166e+00
3.612259e+01	-9.462763e+00
3.633123e+01	-9.506973e+00
3.654108e+01	-9.551361e+00
3.675214e+01	-9.595690e+00
3.696442e+01	-9.639957e+00
3.717792e+01	-9.684834e+00
3.739266e+01	-9.729692e+00
3.760864e+01	-9.774150e+00
3.782587e+01	-9.819091e+00
3.804435e+01	-9.864334e+00
3.826409e+01	-9.908632e+00
3.848510e+01	-9.953844e+00
3.870739e+01	-9.999168e+00
3.893096e+01	-1.004368e+01
3.915583e+01	-1.008853e+01
3.938199e+01	-1.013434e+01
3.960946e+01	-1.017937e+01
3.983824e+01	-1.022460e+01
4.006834e+01	-1.026957e+01
4.029978e+01	-1.031517e+01
4.053255e+01	-1.036001e+01
4.076666e+01	-1.040629e+01
4.100213e+01	-1.045182e+01
4.123896e+01	-1.049701e+01
4.147715e+01	-1.054285e+01
4.171672e+01	-1.058839e+01
4.195767e+01	-1.063433e+01
4.220002e+01	-1.067948e+01
4.244377e+01	-1.072578e+01
4.268892e+01	-1.077090e+01
4.293549e+01	-1.081691e+01
4.318348e+01	-1.086323e+01
4.343291e+01	-1.090937e+01
4.368377e+01	-1.095486e+01
4.393609e+01	-1.100117e+01
4.418986e+01	-1.104752e+01
4.444510e+01	-1.109327e+01
4.470182e+01	-1.113903e+01
4.496001e+01	-1.118579e+01
4.521970e+01	-1.123229e+01
4.548089e+01	-1.127787e+01
4.574358e+01	-1.132470e+01
4.600779e+01	-1.137116e+01
4.627353e+01	-1.141771e+01
4.654081e+01	-1.146407e+01
4.680963e+01	-1.150999e+01
4.708000e+01	-1.155672e+01
4.735193e+01	-1.160343e+01
4.762543e+01	-1.164950e+01
4.790051e+01	-1.169655e+01
4.817719e+01	-1.174295e+01
4.845545e+01	-1.178940e+01
4.873533e+01	-1.183665e+01
4.901682e+01	-1.188300e+01
4.929994e+01	-1.193015e+01
4.958470e+01	-1.197654e+01
4.987110e+01	-1.202375e+01
5.015915e+01	-1.207034e+01
5.044887e+01	-1.211780e+01
5.074026e+01	-1.216458e+01
5.103333e+01	-1.221212e+01
5.132810e+01	-1.225796e+01
5.162457e+01	-1.230580e+01
5.192275e+01	-1.235331e+01
5.222265e+01	-1.240014e+01
5.252429e+01	-1.244684e+01
5.282767e+01	-1.249427e+01
5.313280e+01	-1.254147e+01
5.343969e+01	-1.258876e+01
5.374836e+01	-1.263610e+01
5.405880e+01	-1.268319e+01
5.437105e+01	-1.273097e+01
5.468509e+01	-1.277808e+01
5.500095e+01	-1.282538e+01
5.531863e+01	-1.287318e+01
5.563815e+01	-1.292035e+01
5.595951e+01	-1.296840e+01
5.628273e+01	-1.301508e+01
5.660782e+01	-1.306370e+01
5.693479e+01	-1.311005e+01
5.726364e+01	-1.315740e+01
5.759439e+01	-1.320575e+01
5.792705e+01	-1.325203e+01
5.826164e+01	-1.330102e+01
5.859815e+01	-1.334896e+01
5.893662e+01	-1.339629e+01
5.927703e+01	-1.344449e+01
5.961941e+01	-1.349233e+01
5.996377e+01	-1.353983e+01
6.031012e+01	-1.358741e+01
6.065847e+01	-1.363508e+01
6.100883e+01	-1.368345e+01
6.136121e+01	-1.373159e+01
6.171563e+01	-1.377914e+01
6.207210e+01	-1.382675e+01
6.243063e+01	-1.387528e+01
6.279122e+01	-1.392259e+01
6.315390e+01	-1.397119e+01
6.351868e+01	-1.401875e+01
6.388556e+01	-1.406724e+01
6.425456e+01	-1.411564e+01
6.462569e+01	-1.416373e+01
6.499897e+01	-1.421096e+01
6.537440e+01	-1.425973e+01
6.575200e+01	-1.430774e+01
6.613178e+01	-1.435672e+01
6.651375e+01	-1.440452e+01
6.689793e+01	-1.445154e+01
6.728433e+01	-1.449962e+01
6.767297e+01	-1.454876e+01
6.806384e+01	-1.459779e+01
6.845698e+01	-1.464532e+01
6.885238e+01	-1.469405e+01
6.925007e+01	-1.474284e+01
6.965005e+01	-1.479052e+01
7.005235e+01	-1.484005e+01
7.045697e+01	-1.488716e+01
7.086393e+01	-1.493510e+01
7.127323e+01	-1.498328e+01
7.168490e+01	-1.503200e+01
7.209895e+01	-1.508097e+01
7.251539e+01	-1.512954e+01
7.293424e+01	-1.517785e+01
7.335551e+01	-1.522745e+01
7.377920e+01	-1.527557e+01
7.420535e+01	-1.532325e+01
7.463396e+01	-1.537241e+01
7.506504e+01	-1.542106e+01
7.549861e+01	-1.546927e+01
7.593469e+01	-1.551789e+01
7.637328e+01	-1.556714e+01
7.681441e+01	-1.561513e+01
7.725809e+01	-1.566292e+01
7.770433e+01	-1.571267e+01
7.815315e+01	-1.576132e+01
7.860456e+01	-1.580934e+01
7.905857e+01	-1.585957e+01
7.951521e+01	-1.590788e+01
7.997449e+01	-1.595632e+01
8.043642e+01	-1.600434e+01
8.090102e+01	-1.605286e+01
8.136830e+01	-1.610217e+01
8.183828e+01	-1.615147e+01
8.231097e+01	-1.620064e+01
8.278640e+01	-1.624808e+01
8.326457e+01	-1.629858e+01
8.374550e+01	-1.634664e+01
8.422921e+01	-1.639575e+01
8.471572e+01	-1.644388e+01
8.520503e+01	-1.649344e+01
8.569717e+01	-1.654205e+01
8.619215e+01	-1.659144e+01
8.669000e+01	-1.663964e+01
8.719071e+01	-1.668988e+01
8.769432e+01	-1.673898e+01
8.820084e+01	-1.678653e+01
8.871029e+01	-1.683687e+01
8.922267e+01	-1.688563e+01
8.973802e+01	-1.693425e+01
9.025634e+01	-1.698359e+01
9.077766e+01	-1.703276e+01
9.130199e+01	-1.708115e+01
9.182935e+01	-1.713141e+01
9.235975e+01	-1.717928e+01
9.289321e+01	-1.722849e+01
9.342976e+01	-1.727769e+01
9.396941e+01	-1.732662e+01
9.451217e+01	-1.737439e+01
9.505807e+01	-1.742578e+01
9.560712e+01	-1.747387e+01
9.615934e+01	-1.752378e+01
9.671476e+01	-1.757189e+01
9.727338e+01	-1.762269e+01
9.783522e+01	-1.767006e+01
9.840032e+01	-1.771893e+01
9.896867e+01	-1.776883e+01
9.954031e+01	-1.781779e+01
1.001153e+02	-1.786712e+01
1.006935e+02	-1.791679e+01
1.012751e+02	-1.796513e+01
1.018601e+02	-1.801390e+01
1.024484e+02	-1.806437e+01
1.030402e+02	-1.811367e+01
1.036353e+02	-1.816244e+01
1.042339e+02	-1.821126e+01
1.048360e+02	-1.826155e+01
1.054415e+02	-1.831027e+01
1.060505e+02	-1.835930e+01
1.066631e+02	-1.841033e+01
1.072791e+02	-1.845840e+01
1.078988e+02	-1.850749e+01
1.085220e+02	-1.855662e+01
1.091488e+02	-1.860596e+01
1.097793e+02	-1.865618e+01
1.104133e+02	-1.870583e+01
1.110511e+02	-1.875536e+01
1.116925e+02	-1.880286e+01
1.123376e+02	-1.885359e+01
1.129865e+02	-1.890325e+01
1.136391e+02	-1.895133e+01
1.142955e+02	-1.900062e+01
1.149556e+02	-1.905195e+01
1.156196e+02	-1.910025e+01
1.162874e+02	-1.914999e+01
1.169591e+02	-1.919819e+01
1.176347e+02	-1.924923e+01
1.183141e+02	-1.929731e+01
1.189975e+02	-1.934661e+01
1.196848e+02	-1.939592e+01
1.203761e+02	-1.944641e+01
1.210714e+02	-1.949498e+01
1.217707e+02	-1.954484e+01
1.224740e+02	-1.959624e+01
1.231814e+02	-1.964462e+01
1.238929e+02	-1.969384e+01
1.246085e+02	-1.974389e+01
1.253283e+02	-1.979253e+01
1.260522e+02	-1.984441e+01
1.267802e+02	-1.989098e+01
1.275125e+02	-1.994249e+01
1.282490e+02	-1.999104e+01
1.289898e+02	-2.003997e+01
1.297348e+02	-2.009028e+01
1.304842e+02	-2.013878e+01
1.312378e+02	-2.018934e+01
1.319959e+02	-2.023921e+01
1.327583e+02	-2.028961e+01
1.335251e+02	-2.033865e+01
1.342963e+02	-2.038736e+01
1.350720e+02	-2.043718e+01
1.358522e+02	-2.048687e+01
1.366368e+02	-2.053687e+01
1.374260e+02	-2.058531e+01
1.382198e+02	-2.063749e+01
1.390182e+02	-2.068600e+01
1.398211e+02	-2.073314e+01
1.406287e+02	-2.078598e+01
1.414410e+02	-2.083411e+01
1.422579e+02	-2.088374e+01
1.430796e+02	-2.093307e+01
1.439060e+02	-2.098322e+01
1.447372e+02	-2.103353e+01
1.455732e+02	-2.108341e+01
1.464141e+02	-2.113132e+01
1.472597e+02	-2.118259e+01
1.481103e+02	-2.123202e+01
1.489658e+02	-2.127928e+01
1.498262e+02	-2.133094e+01
1.506916e+02	-2.138046e+01
1.515620e+02	-2.143007e+01
1.524374e+02	-2.147903e+01
1.533179e+02	-2.152934e+01
1.542034e+02	-2.157839e+01
1.550941e+02	-2.162791e+01
1.559899e+02	-2.167935e+01
1.568909e+02	-2.172753e+01
1.577971e+02	-2.177889e+01
1.587085e+02	-2.182795e+01
1.596252e+02	-2.187995e+01
1.605472e+02	-2.192719e+01
1.614745e+02	-2.197593e+01
1.624072e+02	-2.202789e+01
1.633453e+02	-2.207427e+01
1.642887e+02	-2.212628e+01
1.652377e+02	-2.217704e+01
1.661921e+02	-2.222416e+01
1.671520e+02	-2.227316e+01
1.681175e+02	-2.232647e+01
1.690885e+02	-2.237562e+01
1.700651e+02	-2.242354e+01
1.710474e+02	-2.247484e+01
1.720354e+02	-2.252448e+01
1.730291e+02	-2.257389e+01
1.740285e+02	-2.262280e+01
1.750337e+02	-2.267149e+01
1.760446e+02	-2.272268e+01
1.770615e+02	-2.277241e+01
1.780842e+02	-2.282190e+01
1.791128e+02	-2.287362e+01
1.801473e+02	-2.292332e+01
1.811878e+02	-2.297270e+01
1.822344e+02	-2.302132e+01
1.832870e+02	-2.307412e+01
1.843456e+02	-2.312290e+01
1.854104e+02	-2.317324e+01
1.864813e+02	-2.322135e+01
1.875584e+02	-2.326809e+01
1.886418e+02	-2.332028e+01
1.897313e+02	-2.337385e+01
1.908272e+02	-2.342095e+01
1.919294e+02	-2.347002e+01
1.930380e+02	-2.351940e+01
1.941530e+02	-2.357153e+01
1.952744e+02	-2.362082e+01
1.964023e+02	-2.366842e+01
1.975367e+02	-2.372301e+01
1.986777e+02	-2.376758e+01
1.998252e+02	-2.381917e+01
2.009794e+02	-2.386927e+01
2.021403e+02	-2.391910e+01
2.033078e+02	-2.396767e+01
2.044821e+02	-2.401922e+01
2.056632e+02	-2.407000e+01
2.068511e+02	-2.411764e+01
2.080459e+02	-2.416810e+01
2.092475e+02	-2.421894e+01
2.104561e+02	-2.426818e+01
2.116717e+02	-2.431853e+01
2.128943e+02	-2.436607e+01
2.141240e+02	-2.441850e+01
2.153608e+02	-2.446537e+01
2.166047e+02	-2.451582e+01
2.178558e+02	-2.456614e+01
2.191141e+02	-2.461566e+01
2.203797e+02	-2.466658e+01
2.216526e+02	-2.471859e+01
2.229329e+02	-2.476974e+01
2.242205e+02	-2.481679e+01
2.255156e+02	-2.486708e+01
2.268182e+02	-2.491340e+01
2.281283e+02	-2.496575e+01
2.294459e+02	-2.501497e+01
2.307712e+02	-2.506747e+01
2.321041e+02	-2.511691e+01
2.334447e+02	-2.516595e+01
2.347931e+02	-2.521373e+01
2.361493e+02	-2.526678e+01
2.375133e+02	-2.531505e+01
2.388851e+02	-2.536684e+01
2.402649e+02	-2.541811e+01
2.416527e+02	-2.546358e+01
2.430484e+02	-2.551353e+01
2.444523e+02	-2.556678e+01
2.458642e+02	-2.561413e+01
2.472843e+02	-2.566327e+01
2.487126e+02	-2.571370e+01
2.501492e+02	-2.576593e+01
2.515940e+02	-2.581630e+01
2.530472e+02	-2.586501e+01
2.545088e+02	-2.591584e+01
2.559789e+02	-2.596242e+01
2.574574e+02	-2.601448e+01
2.589444e+02	-2.606339e+01
2.604401e+02	-2.611418e+01
2.619444e+02	-2.616588e+01
2.634574e+02	-2.621306e+01
2.649791e+02	-2.626266e+01
2.665096e+02	-2.631331e+01
2.680489e+02	-2.636661e+01
2.695972e+02	-2.641496e+01
2.711544e+02	-2.646638e+01
2.727205e+02	-2.651489e+01
2.742958e+02	-2.656561e+01
2.758801e+02	-2.661473e+01
2.774736e+02	-2.666545e+01
2.790762e+02	-2.671345e+01
2.806882e+02	-2.676571e+01
2.823094e+02	-2.681310e+01
2.839400e+02	-2.686260e+01
2.855800e+02	-2.691502e+01
2.872295e+02	-2.696195e+01
2.888886e+02	-2.701401e+01
2.905572e+02	-2.706191e+01
2.922354e+02	-2.711412e+01
2.939234e+02	-2.716416e+01
2.956211e+02	-2.721752e+01
2.973286e+02	-2.726433e+01
2.990459e+02	-2.731580e+01
3.007732e+02	-2.735992e+01
3.025104e+02	-2.741396e+01
3.042577e+02	-2.746591e+01
3.060151e+02	-2.751194e+01
3.077826e+02	-2.755988e+01
3.095604e+02	-2.761431e+01
3.113484e+02	-2.766524e+01
3.131467e+02	-2.771830e+01
3.149554e+02	-2.776565e+01
3.167746e+02	-2.781223e+01
3.186043e+02	-2.786070e+01
3.204445e+02	-2.791400e+01
3.222954e+02	-2.796686e+01
3.241570e+02	-2.801532e+01
3.260293e+02	-2.806464e+01
3.279124e+02	-2.811380e+01
3.298064e+02	-2.816496e+01
3.317114e+02	-2.821622e+01
3.336273e+02	-2.826494e+01
3.355544e+02	-2.831185e+01
3.374925e+02	-2.836406e+01
3.394418e+02	-2.841489e+01
3.414024e+02	-2.846284e+01
3.433744e+02	-2.851341e+01
3.453577e+02	-2.856701e+01
3.473525e+02	-2.861370e+01
3.493588e+02	-2.866505e+01
3.513766e+02	-2.870832e+01
3.534062e+02	-2.876607e+01
3.554474e+02	-2.881205e+01
3.575005e+02	-2.886391e+01
3.595654e+02	-2.891586e+01
3.616422e+02	-2.896637e+01
3.637311e+02	-2.901545e+01
3.658320e+02	-2.906662e+01
3.679450e+02	-2.911547e+01
3.700702e+02	-2.916236e+01
3.722077e+02	-2.921165e+01
3.743576e+02	-2.926354e+01
3.765199e+02	-2.931824e+01
3.786946e+02	-2.936436e+01
3.808820e+02	-2.941722e+01
3.830819e+02	-2.946969e+01
3.852946e+02	-2.951875e+01
3.875200e+02	-2.956496e+01
3.897583e+02	-2.961564e+01
3.920096e+02	-2.966781e+01
3.942738e+02	-2.971891e+01
3.965511e+02	-2.976591e+01
3.988416e+02	-2.982023e+01
4.011452e+02	-2.986977e+01
4.034622e+02	-2.991695e+01
4.057926e+02	-2.996359e+01
4.081365e+02	-3.001895e+01
4.104938e+02	-3.006492e+01
4.128648e+02	-3.011239e+01
4.152495e+02	-3.016920e+01
4.176480e+02	-3.021401e+01
4.200603e+02	-3.026522e+01
4.224866e+02	-3.031730e+01
4.249268e+02	-3.037081e+01
4.273812e+02	-3.041907e+01
4.298497e+02	-3.046779e+01
4.323325e+02	-3.052184e+01
4.348297e+02	-3.057003e+01
4.373412e+02	-3.062064e+01
4.398673e+02	-3.066433e+01
4.424079e+02	-3.071718e+01
4.449633e+02	-3.076801e+01
4.475334e+02	-3.082209e+01
4.501183e+02	-3.086897e+01
4.527182e+02	-3.092103e+01
4.553330e+02	-3.097521e+01
4.579630e+02	-3.101922e+01
4.606082e+02	-3.106985e+01
4.632687e+02	-3.111350e+01
4.659445e+02	-3.116971e+01
4.686358e+02	-3.121730e+01
4.713426e+02	-3.127030e+01
4.740650e+02	-3.131931e+01
4.768032e+02	-3.136977e+01
4.795572e+02	-3.142845e+01
4.823271e+02	-3.147113e+01
4.851130e+02	-3.152192e+01
4.879150e+02	-3.157350e+01
4.907332e+02	-3.162470e+01
4.935676e+02	-3.167182e+01
4.964185e+02	-3.172195e+01
4.992858e+02	-3.177579e+01
5.021696e+02	-3.182229e+01
5.050701e+02	-3.187329e+01
5.079874e+02	-3.192026e+01
5.109215e+02	-3.197035e+01
5.138726e+02	-3.201478e+01
5.168407e+02	-3.206936e+01
5.198259e+02	-3.212155e+01
5.228284e+02	-3.216898e+01
5.258482e+02	-3.222438e+01
5.288855e+02	-3.227783e+01
5.319403e+02	-3.232866e+01
5.350128e+02	-3.237447e+01
5.381030e+02	-3.242680e+01
5.412111e+02	-3.248415e+01
5.443371e+02	-3.251343e+01
5.474812e+02	-3.257076e+01
5.506434e+02	-3.262275e+01
5.538239e+02	-3.267577e+01
5.570228e+02	-3.272430e+01
5.602401e+02	-3.277268e+01
5.634760e+02	-3.282912e+01
5.667306e+02	-3.287001e+01
5.700040e+02	-3.292826e+01
5.732964e+02	-3.297856e+01
5.766077e+02	-3.302861e+01
5.799382e+02	-3.307972e+01
5.832879e+02	-3.312420e+01
5.866569e+02	-3.317708e+01
5.900454e+02	-3.322889e+01
5.934535e+02	-3.328037e+01
5.968813e+02	-3.332621e+01
6.003288e+02	-3.338086e+01
6.037963e+02	-3.342421e+01
6.072838e+02	-3.348488e+01
6.107914e+02	-3.353795e+01
6.143194e+02	-3.358297e+01
6.178676e+02	-3.362511e+01
6.214364e+02	-3.367911e+01
6.250258e+02	-3.373756e+01
6.286359e+02	-3.377798e+01
6.322669e+02	-3.383212e+01
6.359189e+02	-3.388806e+01
6.395919e+02	-3.393575e+01
6.432862e+02	-3.398882e+01
6.470017e+02	-3.402676e+01
6.507388e+02	-3.409119e+01
6.544974e+02	-3.413407e+01
6.582778e+02	-3.418488e+01
6.620800e+02	-3.423954e+01
6.659041e+02	-3.428897e+01
6.697504e+02	-3.433891e+01
6.736188e+02	-3.437905e+01
6.775096e+02	-3.443127e+01
6.814229e+02	-3.448347e+01
6.853587e+02	-3.454617e+01
6.893173e+02	-3.458579e+01
6.932988e+02	-3.464252e+01
6.973033e+02	-3.469042e+01
7.013309e+02	-3.473887e+01
