Frequency(Hz)	Magnitude(dB)
1.000000e+01	-2.029465e+00
1.005776e+01	-2.048273e+00
1.011585e+01	-2.067190e+00
1.017428e+01	-2.085902e+00
1.023305e+01	-2.105197e+00
1.029215e+01	-2.124335e+00
1.035160e+01	-2.143751e+00
1.041139e+01	-2.163539e+00
1.047153e+01	-2.183050e+00
1.053201e+01	-2.202783e+00
1.059284e+01	-2.222826e+00
1.065403e+01	-2.243105e+00
1.071556e+01	-2.263181e+00
1.077746e+01	-2.283570e+00
1.083971e+01	-2.304122e+00
1.090232e+01	-2.324905e+00
1.096529e+01	-2.345570e+00
1.102862e+01	-2.366579e+00
1.109232e+01	-2.387700e+00
1.115639e+01	-2.408901e+00
1.122083e+01	-2.430425e+00
1.128564e+01	-2.451747e+00
1.135083e+01	-2.473208e+00
1.141639e+01	-2.495106e+00
1.148233e+01	-2.517234e+00
1.154865e+01	-2.539102e+00
1.161536e+01	-2.561532e+00
1.168245e+01	-2.583770e+00
1.174992e+01	-2.606384e+00
1.181779e+01	-2.628803e+00
1.188605e+01	-2.651765e+00
1.195470e+01	-2.674621e+00
1.202375e+01	-2.697762e+00
1.209320e+01	-2.720889e+00
1.216305e+01	-2.744457e+00
1.223330e+01	-2.768111e+00
1.230396e+01	-2.791681e+00
1.237503e+01	-2.815263e+00
1.244651e+01	-2.839180e+00
1.251840e+01	-2.863442e+00
1.259070e+01	-2.887511e+00
1.266343e+01	-2.911942e+00
1.273657e+01	-2.936502e+00
1.281014e+01	-2.961034e+00
1.288413e+01	-2.985808e+00
1.295855e+01	-3.010824e+00
1.303339e+01	-3.035837e+00
1.310867e+01	-3.060993e+00
1.318439e+01	-3.086532e+00
1.326054e+01	-3.112016e+00
1.333713e+01	-3.137714e+00
1.341417e+01	-3.163375e+00
1.349165e+01	-3.189524e+00
1.356958e+01	-3.215478e+00
1.364795e+01	-3.241950e+00
1.372678e+01	-3.267707e+00
1.380607e+01	-3.294666e+00
1.388581e+01	-3.321082e+00
1.396602e+01	-3.348259e+00
1.404668e+01	-3.375123e+00
1.412782e+01	-3.402264e+00
1.420942e+01	-3.429528e+00
1.429149e+01	-3.457048e+00
1.437404e+01	-3.484102e+00
1.445706e+01	-3.512241e+00
1.454057e+01	-3.540120e+00
1.462455e+01	-3.567545e+00
1.470902e+01	-3.595847e+00
1.479398e+01	-3.624256e+00
1.487943e+01	-3.652525e+00
1.496537e+01	-3.680886e+00
1.505181e+01	-3.709762e+00
1.513875e+01	-3.738421e+00
1.522619e+01	-3.767428e+00
1.531414e+01	-3.796609e+00
1.540259e+01	-3.825553e+00
1.549156e+01	-3.855219e+00
1.558103e+01	-3.884498e+00
1.567103e+01	-3.914347e+00
1.576155e+01	-3.944101e+00
1.585258e+01	-3.974052e+00
1.594415e+01	-4.003834e+00
1.603624e+01	-4.034032e+00
1.612886e+01	-4.064819e+00
1.622202e+01	-4.095329e+00
1.631572e+01	-4.125777e+00
1.640996e+01	-4.156235e+00
1.650474e+01	-4.187093e+00
1.660008e+01	-4.218381e+00
1.669596e+01	-4.249535e+00
1.679239e+01	-4.280629e+00
1.688938e+01	-4.311911e+00
1.698694e+01	-4.343849e+00
1.708505e+01	-4.375504e+00
1.718373e+01	-4.407292e+00
1.728299e+01	-4.439131e+00
1.738281e+01	-4.471339e+00
1.748322e+01	-4.503542e+00
1.758420e+01	-4.535920e+00
1.768576e+01	-4.568478e+00
1.778792e+01	-4.600916e+00
1.789066e+01	-4.633727e+00
1.799399e+01	-4.666839e+00
1.809793e+01	-4.699477e+00
1.820246e+01	-4.732883e+00
1.830760e+01	-4.766290e+00
1.841334e+01	-4.798995e+00
1.851969e+01	-4.833041e+00
1.862666e+01	-4.866650e+00
1.873425e+01	-4.900502e+00
1.884246e+01	-4.934303e+00
1.895129e+01	-4.968445e+00
1.906075e+01	-5.002367e+00
1.917085e+01	-5.036704e+00
1.928158e+01	-5.071428e+00
1.939295e+01	-5.105738e+00
1.950496e+01	-5.140399e+00
1.961762e+01	-5.175093e+00
1.973093e+01	-5.209784e+00
1.984490e+01	-5.244918e+00
1.995952e+01	-5.280039e+00
2.007480e+01	-5.314845e+00
2.019076e+01	-5.350534e+00
2.030738e+01	-5.386414e+00
2.042467e+01	-5.422033e+00
2.054264e+01	-5.457485e+00
2.066130e+01	-5.493194e+00
2.078064e+01	-5.529105e+00
2.090066e+01	-5.565438e+00
2.102139e+01	-5.601693e+00
2.114280e+01	-5.638019e+00
2.126492e+01	-5.674149e+00
2.138775e+01	-5.711115e+00
2.151128e+01	-5.747532e+00
2.163553e+01	-5.784317e+00
2.176050e+01	-5.821029e+00
2.188619e+01	-5.858222e+00
2.201260e+01	-5.895250e+00
2.213974e+01	-5.932463e+00
2.226762e+01	-5.970036e+00
2.239624e+01	-6.007352e+00
2.252560e+01	-6.044624e+00
2.265571e+01	-6.082734e+00
2.278656e+01	-6.120116e+00
2.291818e+01	-6.158090e+00
2.305055e+01	-6.195919e+00
2.318369e+01	-6.234088e+00
2.331760e+01	-6.272217e+00
2.345228e+01	-6.310535e+00
2.358774e+01	-6.349226e+00
2.372398e+01	-6.387107e+00
2.386101e+01	-6.426032e+00
2.399883e+01	-6.464717e+00
2.413745e+01	-6.503421e+00
2.427686e+01	-6.542558e+00
2.441709e+01	-6.580847e+00
2.455812e+01	-6.620348e+00
2.469997e+01	-6.659433e+00
2.484263e+01	-6.698772e+00
2.498612e+01	-6.737991e+00
2.513044e+01	-6.777491e+00
2.527559e+01	-6.817229e+00
2.542158e+01	-6.857228e+00
2.556842e+01	-6.896927e+00
2.571610e+01	-6.936461e+00
2.586463e+01	-6.976296e+00
2.601403e+01	-7.016537e+00
2.616428e+01	-7.057024e+00
2.631541e+01	-7.097133e+00
2.646740e+01	-7.137274e+00
2.662028e+01	-7.177385e+00
2.677404e+01	-7.218356e+00
2.692868e+01	-7.258734e+00
2.708422e+01	-7.299552e+00
2.724066e+01	-7.340035e+00
2.739800e+01	-7.380942e+00
2.755625e+01	-7.421708e+00
2.771541e+01	-7.463257e+00
2.787550e+01	-7.504421e+00
2.803650e+01	-7.544804e+00
2.819844e+01	-7.586126e+00
2.836131e+01	-7.627601e+00
2.852513e+01	-7.669323e+00
2.868989e+01	-7.710469e+00
2.885560e+01	-7.752148e+00
2.902227e+01	-7.793717e+00
2.918990e+01	-7.835469e+00
2.935850e+01	-7.877390e+00
2.952807e+01	-7.919169e+00
2.969863e+01	-7.961443e+00
2.987016e+01	-8.003424e+00
3.004269e+01	-8.045232e+00
3.021622e+01	-8.087756e+00
3.039075e+01	-8.129908e+00
3.056628e+01	-8.172503e+00
3.074283e+01	-8.214826e+00
3.092040e+01	-8.257541e+00
3.109900e+01	-8.300068e+00
3.127862e+01	-8.342547e+00
3.145929e+01	-8.385521e+00
3.164099e+01	-8.428269e+00
3.182375e+01	-8.470999e+00
3.200756e+01	-8.513788e+00
3.219244e+01	-8.557100e+00
3.237838e+01	-8.600126e+00
3.256540e+01	-8.642855e+00
3.275349e+01	-8.686363e+00
3.294268e+01	-8.729650e+00
3.313295e+01	-8.773144e+00
3.332433e+01	-8.816340e+00
3.351681e+01	-8.859698e+00
3.371040e+01	-8.903434e+00
3.390511e+01	-8.947099e+00
3.410094e+01	-8.990797e+00
3.429791e+01	-9.034772e+00
3.449601e+01	-9.078549e+00
3.469526e+01	-9.122052e+00
3.489566e+01	-9.166428e+00
3.509721e+01	-9.210274e+00
3.529993e+01	-9.253894e+00
3.550382e+01	-9.298802e+00
3.570889e+01	-9.342587e+00
3.591515e+01	-9.386870e+00
3.612259e+01	-9.430831e+00
3.633123e+01	-9.475478e+00
3.654108e+01	-9.520300e+00
3.675214e+01	-9.564511e+00
3.696442e+01	-9.608957e+00
3.717792e+01	-9.653463e+00
3.739266e+01	-9.698245e+00
3.760864e+01	-9.742994e+00
3.782587e+01	-9.787515e+00
3.804435e+01	-9.832350e+00
3.826409e+01	-9.877439e+00
3.848510e+01	-9.921761e+00
3.870739e+01	-9.966617e+00
3.893096e+01	-1.001230e+01
3.915583e+01	-1.005695e+01
3.938199e+01	-1.010221e+01
3.960946e+01	-1.014753e+01
3.983824e+01	-1.019248e+01
4.006834e+01	-1.023788e+01
4.029978e+01	-1.028301e+01
4.053255e+01	-1.032879e+01
4.076666e+01	-1.037452e+01
4.100213e+01	-1.041977e+01
4.123896e+01	-1.046502e+01
4.147715e+01	-1.051059e+01
4.171672e+01	-1.055597e+01
4.195767e+01	-1.060152e+01
4.220002e+01	-1.064742e+01
4.244377e+01	-1.069349e+01
4.268892e+01	-1.073900e+01
4.293549e+01	-1.078509e+01
4.318348e+01	-1.083071e+01
4.343291e+01	-1.087656e+01
4.368377e+01	-1.092243e+01
4.393609e+01	-1.096862e+01
4.418986e+01	-1.101462e+01
4.444510e+01	-1.106056e+01
4.470182e+01	-1.110692e+01
4.496001e+01	-1.115268e+01
4.521970e+01	-1.119902e+01
4.548089e+01	-1.124540e+01
4.574358e+01	-1.129169e+01
4.600779e+01	-1.133830e+01
4.627353e+01	-1.138414e+01
4.654081e+01	-1.143081e+01
4.680963e+01	-1.147724e+01
4.708000e+01	-1.152398e+01
4.735193e+01	-1.156970e+01
4.762543e+01	-1.161685e+01
4.790051e+01	-1.166389e+01
4.817719e+01	-1.170945e+01
4.845545e+01	-1.175623e+01
4.873533e+01	-1.180317e+01
4.901682e+01	-1.185061e+01
4.929994e+01	-1.189667e+01
4.958470e+01	-1.194377e+01
4.987110e+01	-1.199047e+01
5.015915e+01	-1.203781e+01
5.044887e+01	-1.208476e+01
5.074026e+01	-1.213090e+01
5.103333e+01	-1.217905e+01
5.132810e+01	-1.222492e+01
5.162457e+01	-1.227219e+01
5.192275e+01	-1.231875e+01
5.222265e+01	-1.236666e+01
5.252429e+01	-1.241374e+01
5.282767e+01	-1.246066e+01
5.313280e+01	-1.250730e+01
5.343969e+01	-1.255575e+01
5.374836e+01	-1.260234e+01
5.405880e+01	-1.265068e+01
5.437105e+01	-1.269741e+01
5.468509e+01	-1.274462e+01
5.500095e+01	-1.279227e+01
5.531863e+01	-1.283944e+01
5.563815e+01	-1.288658e+01
5.595951e+01	-1.293491e+01
5.628273e+01	-1.298183e+01
5.660782e+01	-1.302994e+01
5.693479e+01	-1.307622e+01
5.726364e+01	-1.312459e+01
5.759439e+01	-1.317170e+01
5.792705e+01	-1.321957e+01
5.826164e+01	-1.326718e+01
5.859815e+01	-1.331620e+01
5.893662e+01	-1.336201e+01
5.927703e+01	-1.341064e+01
5.961941e+01	-1.345847e+01
5.996377e+01	-1.350544e+01
6.031012e+01	-1.355374e+01
6.065847e+01	-1.360209e+01
6.100883e+01	-1.365048e+01
6.136121e+01	-1.369656e+01
6.171563e+01	-1.374558e+01
6.207210e+01	-1.379310e+01
6.243063e+01	-1.384043e+01
6.279122e+01	-1.388958e+01
6.315390e+01	-1.393702e+01
6.351868e+01	-1.398600e+01
6.388556e+01	-1.403348e+01
6.425456e+01	-1.408182e+01
6.462569e+01	-1.412888e+01
6.499897e+01	-1.417773e+01
6.537440e+01	-1.422606e+01
6.575200e+01	-1.427337e+01
6.613178e+01	-1.432210e+01
6.651375e+01	-1.437008e+01
6.689793e+01	-1.441875e+01
6.728433e+01	-1.446650e+01
6.767297e+01	-1.451540e+01
6.806384e+01	-1.456307e+01
6.845698e+01	-1.461181e+01
6.885238e+01	-1.466033e+01
6.925007e+01	-1.470722e+01
6.965005e+01	-1.475643e+01
7.005235e+01	-1.480493e+01
7.045697e+01	-1.485383e+01
7.086393e+01	-1.490174e+01
7.127323e+01	-1.494981e+01
7.168490e+01	-1.499784e+01
7.209895e+01	-1.504677e+01
7.251539e+01	-1.509545e+01
7.293424e+01	-1.514331e+01
7.335551e+01	-1.519286e+01
7.377920e+01	-1.524183e+01
7.420535e+01	-1.528921e+01
7.463396e+01	-1.533784e+01
7.506504e+01	-1.538629e+01
7.549861e+01	-1.543472e+01
7.593469e+01	-1.548383e+01
7.637328e+01	-1.553275e+01
7.681441e+01	-1.558165e+01
7.725809e+01	-1.562994e+01
7.770433e+01	-1.567841e+01
7.815315e+01	-1.572648e+01
7.860456e+01	-1.577625e+01
7.905857e+01	-1.582415e+01
7.951521e+01	-1.587375e+01
7.997449e+01	-1.592236e+01
8.043642e+01	-1.597088e+01
8.090102e+01	-1.601962e+01
8.136830e+01	-1.606827e+01
8.183828e+01	-1.611725e+01
8.231097e+01	-1.616516e+01
8.278640e+01	-1.621494e+01
8.326457e+01	-1.626432e+01
8.374550e+01	-1.631313e+01
8.422921e+01	-1.636087e+01
8.471572e+01	-1.641044e+01
8.520503e+01	-1.645817e+01
8.569717e+01	-1.650719e+01
8.619215e+01	-1.655758e+01
8.669000e+01	-1.660498e+01
8.719071e+01	-1.665480e+01
8.769432e+01	-1.670344e+01
8.820084e+01	-1.675235e+01
8.871029e+01	-1.680094e+01
8.922267e+01	-1.684934e+01
8.973802e+01	-1.689950e+01
9.025634e+01	-1.694862e+01
9.077766e+01	-1.699832e+01
9.130199e+01	-1.704706e+01
9.182935e+01	-1.709586e+01
9.235975e+01	-1.714455e+01
9.289321e+01	-1.719371e+01
9.342976e+01	-1.724294e+01
9.396941e+01	-1.729060e+01
9.451217e+01	-1.734164e+01
9.505807e+01	-1.738994e+01
9.560712e+01	-1.743883e+01
9.615934e+01	-1.748889e+01
9.671476e+01	-1.753756e+01
9.727338e+01	-1.758649e+01
9.783522e+01	-1.763575e+01
9.840032e+01	-1.768542e+01
9.896867e+01	-1.773367e+01
9.954031e+01	-1.778434e+01
1.001153e+02	-1.783304e+01
1.006935e+02	-1.788189e+01
1.012751e+02	-1.793102e+01
1.018601e+02	-1.798116e+01
1.024484e+02	-1.802880e+01
1.030402e+02	-1.807819e+01
1.036353e+02	-1.812832e+01
1.042339e+02	-1.817599e+01
1.048360e+02	-1.822682e+01
1.054415e+02	-1.827580e+01
1.060505e+02	-1.832467e+01
1.066631e+02	-1.837391e+01
1.072791e+02	-1.842350e+01
1.078988e+02	-1.847411e+01
1.085220e+02	-1.852460e+01
1.091488e+02	-1.857196e+01
1.097793e+02	-1.862130e+01
1.104133e+02	-1.866933e+01
1.110511e+02	-1.871983e+01
1.116925e+02	-1.876969e+01
1.123376e+02	-1.881911e+01
1.129865e+02	-1.886761e+01
1.136391e+02	-1.891763e+01
1.142955e+02	-1.896753e+01
1.149556e+02	-1.901607e+01
1.156196e+02	-1.906650e+01
1.162874e+02	-1.911415e+01
1.169591e+02	-1.916367e+01
1.176347e+02	-1.921472e+01
1.183141e+02	-1.926441e+01
1.189975e+02	-1.931260e+01
1.196848e+02	-1.936242e+01
1.203761e+02	-1.941258e+01
1.210714e+02	-1.946024e+01
1.217707e+02	-1.951091e+01
1.224740e+02	-1.956111e+01
1.231814e+02	-1.961035e+01
1.238929e+02	-1.965911e+01
1.246085e+02	-1.970901e+01
1.253283e+02	-1.975956e+01
1.260522e+02	-1.980767e+01
1.267802e+02	-1.985551e+01
1.275125e+02	-1.990757e+01
1.282490e+02	-1.995474e+01
1.289898e+02	-2.000581e+01
1.297348e+02	-2.005619e+01
1.304842e+02	-2.010350e+01
1.312378e+02	-2.015492e+01
1.319959e+02	-2.020555e+01
1.327583e+02	-2.025175e+01
1.335251e+02	-2.030134e+01
1.342963e+02	-2.035393e+01
1.350720e+02	-2.040213e+01
1.358522e+02	-2.045068e+01
1.366368e+02	-2.049989e+01
1.374260e+02	-2.055265e+01
1.382198e+02	-2.060110e+01
1.390182e+02	-2.065032e+01
1.398211e+02	-2.069765e+01
1.406287e+02	-2.074945e+01
1.414410e+02	-2.079866e+01
1.422579e+02	-2.084950e+01
1.430796e+02	-2.089787e+01
1.439060e+02	-2.094782e+01
1.447372e+02	-2.099747e+01
1.455732e+02	-2.104467e+01
1.464141e+02	-2.109752e+01
1.472597e+02	-2.114701e+01
1.481103e+02	-2.119690e+01
1.489658e+02	-2.124556e+01
1.498262e+02	-2.129493e+01
1.506916e+02	-2.134410e+01
1.515620e+02	-2.139483e+01
1.524374e+02	-2.144494e+01
1.533179e+02	-2.149367e+01
1.542034e+02	-2.154236e+01
1.550941e+02	-2.159326e+01
1.559899e+02	-2.164299e+01
1.568909e+02	-2.169290e+01
1.577971e+02	-2.174287e+01
1.587085e+02	-2.179188e+01
1.596252e+02	-2.184206e+01
1.605472e+02	-2.189127e+01
1.614745e+02	-2.193948e+01
1.624072e+02	-2.199149e+01
1.633453e+02	-2.204240e+01
1.642887e+02	-2.208919e+01
1.652377e+02	-2.213940e+01
1.661921e+02	-2.218779e+01
1.671520e+02	-2.224034e+01
1.681175e+02	-2.228942e+01
1.690885e+02	-2.234027e+01
1.700651e+02	-2.238981e+01
1.710474e+02	-2.243818e+01
1.720354e+02	-2.248842e+01
1.730291e+02	-2.253965e+01
1.740285e+02	-2.258800e+01
1.750337e+02	-2.263724e+01
1.760446e+02	-2.268793e+01
1.770615e+02	-2.273737e+01
1.780842e+02	-2.278713e+01
1.791128e+02	-2.283813e+01
1.801473e+02	-2.288520e+01
1.811878e+02	-2.293546e+01
1.822344e+02	-2.298605e+01
1.832870e+02	-2.303717e+01
1.843456e+02	-2.308516e+01
1.854104e+02	-2.313587e+01
1.864813e+02	-2.319042e+01
1.875584e+02	-2.323522e+01
1.886418e+02	-2.328699e+01
1.897313e+02	-2.333481e+01
1.908272e+02	-2.338291e+01
1.919294e+02	-2.343270e+01
1.930380e+02	-2.348374e+01
1.941530e+02	-2.353415e+01
1.952744e+02	-2.358452e+01
1.964023e+02	-2.363354e+01
1.975367e+02	-2.368316e+01
1.986777e+02	-2.373625e+01
1.998252e+02	-2.378647e+01
2.009794e+02	-2.383303e+01
2.021403e+02	-2.388318e+01
2.033078e+02	-2.393261e+01
2.044821e+02	-2.398599e+01
2.056632e+02	-2.403080e+01
2.068511e+02	-2.408482e+01
2.080459e+02	-2.412900e+01
2.092475e+02	-2.417989e+01
2.104561e+02	-2.423333e+01
2.116717e+02	-2.428051e+01
2.128943e+02	-2.433074e+01
2.141240e+02	-2.438271e+01
2.153608e+02	-2.443170e+01
2.166047e+02	-2.447873e+01
2.178558e+02	-2.453352e+01
2.191141e+02	-2.458030e+01
2.203797e+02	-2.462917e+01
2.216526e+02	-2.468487e+01
2.229329e+02	-2.472665e+01
2.242205e+02	-2.477913e+01
2.255156e+02	-2.483275e+01
2.268182e+02	-2.487986e+01
2.281283e+02	-2.492896e+01
2.294459e+02	-2.498062e+01
2.307712e+02	-2.502857e+01
2.321041e+02	-2.508125e+01
2.334447e+02	-2.513053e+01
2.347931e+02	-2.518177e+01
2.361493e+02	-2.522991e+01
2.375133e+02	-2.528005e+01
2.388851e+02	-2.533423e+01
2.402649e+02	-2.537980e+01
2.416527e+02	-2.542965e+01
2.430484e+02	-2.547979e+01
2.444523e+02	-2.552880e+01
2.458642e+02	-2.557597e+01
2.472843e+02	-2.562816e+01
2.487126e+02	-2.568020e+01
2.501492e+02	-2.573211e+01
2.515940e+02	-2.577696e+01
2.530472e+02	-2.583046e+01
2.545088e+02	-2.588126e+01
2.559789e+02	-2.592793e+01
2.574574e+02	-2.598160e+01
2.589444e+02	-2.603111e+01
2.604401e+02	-2.607865e+01
2.619444e+02	-2.612971e+01
2.634574e+02	-2.617915e+01
2.649791e+02	-2.622852e+01
2.665096e+02	-2.627595e+01
2.680489e+02	-2.632913e+01
2.695972e+02	-2.637813e+01
2.711544e+02	-2.642924e+01
2.727205e+02	-2.647906e+01
2.742958e+02	-2.652695e+01
2.758801e+02	-2.657711e+01
2.774736e+02	-2.662778e+01
2.790762e+02	-2.667928e+01
2.806882e+02	-2.672545e+01
2.823094e+02	-2.677873e+01
2.839400e+02	-2.683194e+01
2.855800e+02	-2.687748e+01
2.872295e+02	-2.692654e+01
2.888886e+02	-2.698145e+01
2.905572e+02	-2.702686e+01
2.922354e+02	-2.707561e+01
2.939234e+02	-2.712439e+01
2.956211e+02	-2.717822e+01
2.973286e+02	-2.722403e+01
2.990459e+02	-2.727534e+01
3.007732e+02	-2.732845e+01
3.025104e+02	-2.737726e+01
3.042577e+02	-2.742597e+01
3.060151e+02	-2.747809e+01
3.077826e+02	-2.752747e+01
3.095604e+02	-2.757406e+01
3.113484e+02	-2.762450e+01
3.131467e+02	-2.767855e+01
3.149554e+02	-2.772858e+01
3.167746e+02	-2.777753e+01
3.186043e+02	-2.782911e+01
3.204445e+02	-2.788100e+01
3.222954e+02	-2.793048e+01
3.241570e+02	-2.797796e+01
3.260293e+02	-2.802903e+01
3.279124e+02	-2.807512e+01
3.298064e+02	-2.812664e+01
3.317114e+02	-2.817887e+01
3.336273e+02	-2.822936e+01
3.355544e+02	-2.827684e+01
3.374925e+02	-2.832914e+01
3.394418e+02	-2.837804e+01
3.414024e+02	-2.842963e+01
3.433744e+02	-2.848176e+01
3.453577e+02	-2.853055e+01
3.473525e+02	-2.857717e+01
3.493588e+02	-2.862987e+01
3.513766e+02	-2.868276e+01
3.534062e+02	-2.872804e+01
3.554474e+02	-2.877514e+01
3.575005e+02	-2.883045e+01
3.595654e+02	-2.887841e+01
3.616422e+02	-2.892599e+01
3.637311e+02	-2.897787e+01
3.658320e+02	-2.903208e+01
3.679450e+02	-2.907769e+01
3.700702e+02	-2.912629e+01
3.722077e+02	-2.917791e+01
3.743576e+02	-2.922858e+01
3.765199e+02	-2.928344e+01
3.786946e+02	-2.933014e+01
3.808820e+02	-2.938116e+01
3.830819e+02	-2.942912e+01
3.852946e+02	-2.948178e+01
3.875200e+02	-2.952673e+01
3.897583e+02	-2.957839e+01
3.920096e+02	-2.962668e+01
3.942738e+02	-2.968086e+01
3.965511e+02	-2.973315e+01
3.988416e+02	-2.977978e+01
4.011452e+02	-2.983136e+01
4.034622e+02	-2.987725e+01
4.057926e+02	-2.992815e+01
4.081365e+02	-2.998181e+01
4.104938e+02	-3.003173e+01
4.128648e+02	-3.007750e+01
4.152495e+02	-3.013050e+01
4.176480e+02	-3.018496e+01
4.200603e+02	-3.022978e+01
4.224866e+02	-3.028190e+01
4.249268e+02	-3.033444e+01
4.273812e+02	-3.037939e+01
4.298497e+02	-3.042963e+01
4.323325e+02	-3.048558e+01
4.348297e+02	-3.053477e+01
4.373412e+02	-3.058128e+01
4.398673e+02	-3.063152e+01
4.424079e+02	-3.068289e+01
4.449633e+02	-3.072771e+01
4.475334e+02	-3.078553e+01
4.501183e+02	-3.083352e+01
4.527182e+02	-3.088379e+01
4.553330e+02	-3.093918e+01
4.579630e+02	-3.098955e+01
4.606082e+02	-3.103313e+01
4.632687e+02	-3.108365e+01
4.659445e+02	-3.113384e+01
4.686358e+02	-3.117951e+01
4.713426e+02	-3.123873e+01
4.740650e+02	-3.128447e+01
4.768032e+02	-3.133324e+01
4.795572e+02	-3.138337e+01
4.823271e+02	-3.143451e+01
4.851130e+02	-3.148032e+01
4.879150e+02	-3.153435e+01
4.907332e+02	-3.158889e+01
4.935676e+02	-3.163436e+01
4.964185e+02	-3.168096e+01
4.992858e+02	-3.174045e+01
5.021696e+02	-3.178323e+01
5.050701e+02	-3.183715e+01
5.079874e+02	-3.188420e+01
5.109215e+02	-3.193629e+01
5.138726e+02	-3.198254e+01
5.168407e+02	-3.203374e+01
5.198259e+02	-3.208530e+01
5.228284e+02	-3.213625e+01
5.258482e+02	-3.219094e+01
5.288855e+02	-3.223691e+01
5.319403e+02	-3.228891e+01
5.350128e+02	-3.233764e+01
5.381030e+02	-3.238930e+01
5.412111e+02	-3.243494e+01
5.443371e+02	-3.248496e+01
5.474812e+02	-3.254082e+01
5.506434e+02	-3.259623e+01
5.538239e+02	-3.263769e+01
5.570228e+02	-3.268686e+01
5.602401e+02	-3.274195e+01
5.634760e+02	-3.278986e+01
5.667306e+02	-3.284531e+01
5.700040e+02	-3.288926e+01
5.732964e+02	-3.293930e+01
5.766077e+02	-3.298799e+01
5.799382e+02	-3.303868e+01
5.832879e+02	-3.308858e+01
5.866569e+02	-3.313931e+01
5.900454e+02	-3.319263e+01
5.934535e+02	-3.324255e+01
5.968813e+02	-3.328937e+01
6.003288e+02	-3.334159e+01
6.037963e+02	-3.339098e+01
6.072838e+02	-3.343497e+01
6.107914e+02	-3.349858e+01
6.143194e+02	-3.354494e+01
6.178676e+02	-3.359273e+01
6.214364e+02	-3.364140e+01
6.250258e+02	-3.369082e+01
6.286359e+02	-3.374185e+01
6.322669e+02	-3.380303e+01
6.359189e+02	-3.384169e+01
6.395919e+02	-3.389640e+01
6.432862e+02	-3.394118e+01
6.470017e+02	-3.400331e+01
6.507388e+02	-3.404448e+01
6.544974e+02	-3.409048e+01
6.582778e+02	-3.414611e+01
6.620800e+02	-3.419250e+01
6.659041e+02	-3.424176e+01
6.697504e+02	-3.429165e+01
6.736188e+02	-3.433969e+01
6.775096e+02	-3.439716e+01
6.814229e+02	-3.445005e+01
6.853587e+02	-3.449375e+01
6.893173e+02	-3.455253e+01
6.932988e+02	-3.460009e+01
6.973033e+02	-3.465415e+01
7.013309e+02	-3.470661e+01
