Frequency(Hz)	Magnitude(dB)
1.000000e+01	-2.177570e+00
1.005776e+01	-2.197315e+00
1.011585e+01	-2.217562e+00
1.017428e+01	-2.237683e+00
1.023305e+01	-2.257701e+00
1.029215e+01	-2.278249e+00
1.035160e+01	-2.298545e+00
1.041139e+01	-2.319138e+00
1.047153e+01	-2.339991e+00
1.053201e+01	-2.360858e+00
1.059284e+01	-2.381844e+00
1.065403e+01	-2.402939e+00
1.071556e+01	-2.424408e+00
1.077746e+01	-2.445852e+00
1.083971e+01	-2.467437e+00
1.090232e+01	-2.489187e+00
1.096529e+01	-2.511183e+00
1.102862e+01	-2.533025e+00
1.109232e+01	-2.555554e+00
1.115639e+01	-2.577957e+00
1.122083e+01	-2.600147e+00
1.128564e+01	-2.622653e+00
1.135083e+01	-2.645623e+00
1.141639e+01	-2.668334e+00
1.148233e+01	-2.691378e+00
1.154865e+01	-2.714680e+00
1.161536e+01	-2.738008e+00
1.168245e+01	-2.761253e+00
1.174992e+01	-2.785002e+00
1.181779e+01	-2.808536e+00
1.188605e+01	-2.832743e+00
1.195470e+01	-2.856762e+00
1.202375e+01	-2.880896e+00
1.209320e+01	-2.905236e+00
1.216305e+01	-2.929809e+00
1.223330e+01	-2.954361e+00
1.230396e+01	-2.978943e+00
1.237503e+01	-3.003795e+00
1.244651e+01	-3.028829e+00
1.251840e+01	-3.054437e+00
1.259070e+01	-3.079607e+00
1.266343e+01	-3.105208e+00
1.273657e+01	-3.130798e+00
1.281014e+01	-3.156478e+00
1.288413e+01	-3.182384e+00
1.295855e+01	-3.208420e+00
1.303339e+01	-3.234435e+00
1.310867e+01	-3.261002e+00
1.318439e+01	-3.287540e+00
1.326054e+01	-3.314073e+00
1.333713e+01	-3.340870e+00
1.341417e+01	-3.367871e+00
1.349165e+01	-3.394701e+00
1.356958e+01	-3.422150e+00
1.364795e+01	-3.449357e+00
1.372678e+01	-3.476771e+00
1.380607e+01	-3.504461e+00
1.388581e+01	-3.532016e+00
1.396602e+01	-3.560038e+00
1.404668e+01	-3.588218e+00
1.412782e+01	-3.616419e+00
1.420942e+01	-3.644458e+00
1.429149e+01	-3.673452e+00
1.437404e+01	-3.701595e+00
1.445706e+01	-3.730730e+00
1.454057e+01	-3.759538e+00
1.462455e+01	-3.788500e+00
1.470902e+01	-3.817725e+00
1.479398e+01	-3.847100e+00
1.487943e+01	-3.876707e+00
1.496537e+01	-3.906196e+00
1.505181e+01	-3.935860e+00
1.513875e+01	-3.965966e+00
1.522619e+01	-3.995844e+00
1.531414e+01	-4.025906e+00
1.540259e+01	-4.056227e+00
1.549156e+01	-4.086587e+00
1.558103e+01	-4.117102e+00
1.567103e+01	-4.147884e+00
1.576155e+01	-4.178885e+00
1.585258e+01	-4.209588e+00
1.594415e+01	-4.240879e+00
1.603624e+01	-4.272142e+00
1.612886e+01	-4.303436e+00
1.622202e+01	-4.334805e+00
1.631572e+01	-4.366853e+00
1.640996e+01	-4.398311e+00
1.650474e+01	-4.430459e+00
1.660008e+01	-4.462579e+00
1.669596e+01	-4.495164e+00
1.679239e+01	-4.526655e+00
1.688938e+01	-4.559403e+00
1.698694e+01	-4.592029e+00
1.708505e+01	-4.624925e+00
1.718373e+01	-4.657569e+00
1.728299e+01	-4.690574e+00
1.738281e+01	-4.723487e+00
1.748322e+01	-4.756782e+00
1.758420e+01	-4.790430e+00
1.768576e+01	-4.823968e+00
1.778792e+01	-4.857217e+00
1.789066e+01	-4.891177e+00
1.799399e+01	-4.925053e+00
1.809793e+01	-4.959275e+00
1.820246e+01	-4.992875e+00
1.830760e+01	-5.027245e+00
1.841334e+01	-5.061841e+00
1.851969e+01	-5.096123e+00
1.862666e+01	-5.130794e+00
1.873425e+01	-5.165634e+00
1.884246e+01	-5.200477e+00
1.895129e+01	-5.235434e+00
1.906075e+01	-5.270737e+00
1.917085e+01	-5.305668e+00
1.928158e+01	-5.341005e+00
1.939295e+01	-5.376160e+00
1.950496e+01	-5.412097e+00
1.961762e+01	-5.447633e+00
1.973093e+01	-5.483640e+00
1.984490e+01	-5.519553e+00
1.995952e+01	-5.555668e+00
2.007480e+01	-5.591573e+00
2.019076e+01	-5.628038e+00
2.030738e+01	-5.664741e+00
2.042467e+01	-5.701050e+00
2.054264e+01	-5.737487e+00
2.066130e+01	-5.774233e+00
2.078064e+01	-5.811232e+00
2.090066e+01	-5.847980e+00
2.102139e+01	-5.885268e+00
2.114280e+01	-5.922254e+00
2.126492e+01	-5.959410e+00
2.138775e+01	-5.997242e+00
2.151128e+01	-6.034502e+00
2.163553e+01	-6.072054e+00
2.176050e+01	-6.110092e+00
2.188619e+01	-6.147578e+00
2.201260e+01	-6.185606e+00
2.213974e+01	-6.223823e+00
2.226762e+01	-6.261703e+00
2.239624e+01	-6.300055e+00
2.252560e+01	-6.338452e+00
2.265571e+01	-6.376660e+00
2.278656e+01	-6.415416e+00
2.291818e+01	-6.454204e+00
2.305055e+01	-6.492517e+00
2.318369e+01	-6.531722e+00
2.331760e+01	-6.570711e+00
2.345228e+01	-6.609761e+00
2.358774e+01	-6.648749e+00
2.372398e+01	-6.687746e+00
2.386101e+01	-6.727545e+00
2.399883e+01	-6.766692e+00
2.413745e+01	-6.806425e+00
2.427686e+01	-6.846266e+00
2.441709e+01	-6.885735e+00
2.455812e+01	-6.925651e+00
2.469997e+01	-6.965646e+00
2.484263e+01	-7.005760e+00
2.498612e+01	-7.045486e+00
2.513044e+01	-7.086222e+00
2.527559e+01	-7.126234e+00
2.542158e+01	-7.166365e+00
2.556842e+01	-7.206918e+00
2.571610e+01	-7.247432e+00
2.586463e+01	-7.288186e+00
2.601403e+01	-7.328613e+00
2.616428e+01	-7.369864e+00
2.631541e+01	-7.410760e+00
2.646740e+01	-7.451760e+00
2.662028e+01	-7.492556e+00
2.677404e+01	-7.533817e+00
2.692868e+01	-7.575382e+00
2.708422e+01	-7.616757e+00
2.724066e+01	-7.657745e+00
2.739800e+01	-7.699076e+00
2.755625e+01	-7.740676e+00
2.771541e+01	-7.782560e+00
2.787550e+01	-7.823899e+00
2.803650e+01	-7.866087e+00
2.819844e+01	-7.907952e+00
2.836131e+01	-7.949775e+00
2.852513e+01	-7.991948e+00
2.868989e+01	-8.034078e+00
2.885560e+01	-8.076220e+00
2.902227e+01	-8.118293e+00
2.918990e+01	-8.160881e+00
2.935850e+01	-8.203696e+00
2.952807e+01	-8.245583e+00
2.969863e+01	-8.288260e+00
2.987016e+01	-8.330796e+00
3.004269e+01	-8.374067e+00
3.021622e+01	-8.417142e+00
3.039075e+01	-8.459481e+00
3.056628e+01	-8.502592e+00
3.074283e+01	-8.545160e+00
3.092040e+01	-8.588164e+00
3.109900e+01	-8.631152e+00
3.127862e+01	-8.674482e+00
3.145929e+01	-8.717505e+00
3.164099e+01	-8.761097e+00
3.182375e+01	-8.804804e+00
3.200756e+01	-8.848221e+00
3.219244e+01	-8.891406e+00
3.237838e+01	-8.935610e+00
3.256540e+01	-8.978916e+00
3.275349e+01	-9.022080e+00
3.294268e+01	-9.066773e+00
3.313295e+01	-9.110430e+00
3.332433e+01	-9.154180e+00
3.351681e+01	-9.198513e+00
3.371040e+01	-9.241966e+00
3.390511e+01	-9.286387e+00
3.410094e+01	-9.330609e+00
3.429791e+01	-9.375250e+00
3.449601e+01	-9.419288e+00
3.469526e+01	-9.463429e+00
3.489566e+01	-9.507204e+00
3.509721e+01	-9.552350e+00
3.529993e+01	-9.596753e+00
3.550382e+01	-9.641606e+00
3.570889e+01	-9.685685e+00
3.591515e+01	-9.730764e+00
3.612259e+01	-9.775014e+00
3.633123e+01	-9.819796e+00
3.654108e+01	-9.865253e+00
3.675214e+01	-9.910325e+00
3.696442e+01	-9.954994e+00
3.717792e+01	-9.999821e+00
3.739266e+01	-1.004480e+01
3.760864e+01	-1.008988e+01
3.782587e+01	-1.013508e+01
3.804435e+01	-1.017993e+01
3.826409e+01	-1.022545e+01
3.848510e+01	-1.027093e+01
3.870739e+01	-1.031596e+01
3.893096e+01	-1.036120e+01
3.915583e+01	-1.040657e+01
3.938199e+01	-1.045229e+01
3.960946e+01	-1.049788e+01
3.983824e+01	-1.054377e+01
4.006834e+01	-1.058953e+01
4.029978e+01	-1.063488e+01
4.053255e+01	-1.068005e+01
4.076666e+01	-1.072634e+01
4.100213e+01	-1.077208e+01
4.123896e+01	-1.081828e+01
4.147715e+01	-1.086389e+01
4.171672e+01	-1.090989e+01
4.195767e+01	-1.095608e+01
4.220002e+01	-1.100199e+01
4.244377e+01	-1.104795e+01
4.268892e+01	-1.109425e+01
4.293549e+01	-1.114044e+01
4.318348e+01	-1.118679e+01
4.343291e+01	-1.123259e+01
4.368377e+01	-1.127923e+01
4.393609e+01	-1.132576e+01
4.418986e+01	-1.137231e+01
4.444510e+01	-1.141829e+01
4.470182e+01	-1.146544e+01
4.496001e+01	-1.151069e+01
4.521970e+01	-1.155776e+01
4.548089e+01	-1.160444e+01
4.574358e+01	-1.165114e+01
4.600779e+01	-1.169735e+01
4.627353e+01	-1.174424e+01
4.654081e+01	-1.179024e+01
4.680963e+01	-1.183700e+01
4.708000e+01	-1.188350e+01
4.735193e+01	-1.193053e+01
4.762543e+01	-1.197784e+01
4.790051e+01	-1.202475e+01
4.817719e+01	-1.207163e+01
4.845545e+01	-1.211849e+01
4.873533e+01	-1.216516e+01
4.901682e+01	-1.221293e+01
4.929994e+01	-1.225987e+01
4.958470e+01	-1.230667e+01
4.987110e+01	-1.235335e+01
5.015915e+01	-1.240034e+01
5.044887e+01	-1.244759e+01
5.074026e+01	-1.249466e+01
5.103333e+01	-1.254261e+01
5.132810e+01	-1.258986e+01
5.162457e+01	-1.263669e+01
5.192275e+01	-1.268403e+01
5.222265e+01	-1.273175e+01
5.252429e+01	-1.277930e+01
5.282767e+01	-1.282630e+01
5.313280e+01	-1.287401e+01
5.343969e+01	-1.292120e+01
5.374836e+01	-1.296845e+01
5.405880e+01	-1.301676e+01
5.437105e+01	-1.306328e+01
5.468509e+01	-1.311112e+01
5.500095e+01	-1.315955e+01
5.531863e+01	-1.320672e+01
5.563815e+01	-1.325464e+01
5.595951e+01	-1.330215e+01
5.628273e+01	-1.334950e+01
5.660782e+01	-1.339789e+01
5.693479e+01	-1.344555e+01
5.726364e+01	-1.349264e+01
5.759439e+01	-1.354080e+01
5.792705e+01	-1.358885e+01
5.826164e+01	-1.363628e+01
5.859815e+01	-1.368439e+01
5.893662e+01	-1.373170e+01
5.927703e+01	-1.378021e+01
5.961941e+01	-1.382847e+01
5.996377e+01	-1.387571e+01
6.031012e+01	-1.392420e+01
6.065847e+01	-1.397150e+01
6.100883e+01	-1.402052e+01
6.136121e+01	-1.406839e+01
6.171563e+01	-1.411626e+01
6.207210e+01	-1.416421e+01
6.243063e+01	-1.421287e+01
6.279122e+01	-1.426076e+01
6.315390e+01	-1.430978e+01
6.351868e+01	-1.435667e+01
6.388556e+01	-1.440510e+01
6.425456e+01	-1.445348e+01
6.462569e+01	-1.450223e+01
6.499897e+01	-1.454922e+01
6.537440e+01	-1.459881e+01
6.575200e+01	-1.464627e+01
6.613178e+01	-1.469520e+01
6.651375e+01	-1.474296e+01
6.689793e+01	-1.479108e+01
6.728433e+01	-1.483989e+01
6.767297e+01	-1.488786e+01
6.806384e+01	-1.493622e+01
6.845698e+01	-1.498485e+01
6.885238e+01	-1.503407e+01
6.925007e+01	-1.508202e+01
6.965005e+01	-1.513130e+01
7.005235e+01	-1.517845e+01
7.045697e+01	-1.522797e+01
7.086393e+01	-1.527617e+01
7.127323e+01	-1.532456e+01
7.168490e+01	-1.537325e+01
7.209895e+01	-1.542144e+01
7.251539e+01	-1.547024e+01
7.293424e+01	-1.551903e+01
7.335551e+01	-1.556755e+01
7.377920e+01	-1.561710e+01
7.420535e+01	-1.566554e+01
7.463396e+01	-1.571366e+01
7.506504e+01	-1.576261e+01
7.549861e+01	-1.581135e+01
7.593469e+01	-1.585893e+01
7.637328e+01	-1.590902e+01
7.681441e+01	-1.595747e+01
7.725809e+01	-1.600580e+01
7.770433e+01	-1.605481e+01
7.815315e+01	-1.610308e+01
7.860456e+01	-1.615193e+01
7.905857e+01	-1.620111e+01
7.951521e+01	-1.624979e+01
7.997449e+01	-1.629849e+01
8.043642e+01	-1.634813e+01
8.090102e+01	-1.639666e+01
8.136830e+01	-1.644431e+01
8.183828e+01	-1.649366e+01
8.231097e+01	-1.654379e+01
8.278640e+01	-1.659195e+01
8.326457e+01	-1.664178e+01
8.374550e+01	-1.669017e+01
8.422921e+01	-1.673941e+01
8.471572e+01	-1.678788e+01
8.520503e+01	-1.683735e+01
8.569717e+01	-1.688658e+01
8.619215e+01	-1.693579e+01
8.669000e+01	-1.698322e+01
8.719071e+01	-1.703291e+01
8.769432e+01	-1.708149e+01
8.820084e+01	-1.713149e+01
8.871029e+01	-1.718061e+01
8.922267e+01	-1.723052e+01
8.973802e+01	-1.727883e+01
9.025634e+01	-1.732695e+01
9.077766e+01	-1.737651e+01
9.130199e+01	-1.742536e+01
9.182935e+01	-1.747440e+01
9.235975e+01	-1.752432e+01
9.289321e+01	-1.757323e+01
9.342976e+01	-1.762242e+01
9.396941e+01	-1.767216e+01
9.451217e+01	-1.772040e+01
9.505807e+01	-1.776907e+01
9.560712e+01	-1.781867e+01
9.615934e+01	-1.786839e+01
9.671476e+01	-1.791817e+01
9.727338e+01	-1.796619e+01
9.783522e+01	-1.801501e+01
9.840032e+01	-1.806547e+01
9.896867e+01	-1.811423e+01
9.954031e+01	-1.816500e+01
1.001153e+02	-1.821406e+01
1.006935e+02	-1.826337e+01
1.012751e+02	-1.831124e+01
1.018601e+02	-1.836068e+01
1.024484e+02	-1.840955e+01
1.030402e+02	-1.846020e+01
1.036353e+02	-1.850866e+01
1.042339e+02	-1.855830e+01
1.048360e+02	-1.860742e+01
1.054415e+02	-1.865772e+01
1.060505e+02	-1.870637e+01
1.066631e+02	-1.875612e+01
1.072791e+02	-1.880540e+01
1.078988e+02	-1.885418e+01
1.085220e+02	-1.890418e+01
1.091488e+02	-1.895303e+01
1.097793e+02	-1.900387e+01
1.104133e+02	-1.905193e+01
1.110511e+02	-1.910152e+01
1.116925e+02	-1.915289e+01
1.123376e+02	-1.920032e+01
1.129865e+02	-1.925001e+01
1.136391e+02	-1.929979e+01
1.142955e+02	-1.934859e+01
1.149556e+02	-1.939793e+01
1.156196e+02	-1.944863e+01
1.162874e+02	-1.949696e+01
1.169591e+02	-1.954613e+01
1.176347e+02	-1.959485e+01
1.183141e+02	-1.964500e+01
1.189975e+02	-1.969554e+01
1.196848e+02	-1.974565e+01
1.203761e+02	-1.979509e+01
1.210714e+02	-1.984369e+01
1.217707e+02	-1.989340e+01
1.224740e+02	-1.994147e+01
1.231814e+02	-1.999425e+01
1.238929e+02	-2.004138e+01
1.246085e+02	-2.009169e+01
1.253283e+02	-2.014117e+01
1.260522e+02	-2.018836e+01
1.267802e+02	-2.024061e+01
1.275125e+02	-2.028857e+01
1.282490e+02	-2.034058e+01
1.289898e+02	-2.038802e+01
1.297348e+02	-2.043745e+01
1.304842e+02	-2.048665e+01
1.312378e+02	-2.053609e+01
1.319959e+02	-2.058826e+01
1.327583e+02	-2.063713e+01
1.335251e+02	-2.068655e+01
1.342963e+02	-2.073658e+01
1.350720e+02	-2.078630e+01
1.358522e+02	-2.083595e+01
1.366368e+02	-2.088496e+01
1.374260e+02	-2.093428e+01
1.382198e+02	-2.098376e+01
1.390182e+02	-2.103296e+01
1.398211e+02	-2.108377e+01
1.406287e+02	-2.113243e+01
1.414410e+02	-2.118242e+01
1.422579e+02	-2.123151e+01
1.430796e+02	-2.127985e+01
1.439060e+02	-2.133135e+01
1.447372e+02	-2.138196e+01
1.455732e+02	-2.142980e+01
1.464141e+02	-2.148081e+01
1.472597e+02	-2.153084e+01
1.481103e+02	-2.157968e+01
1.489658e+02	-2.162969e+01
1.498262e+02	-2.168089e+01
1.506916e+02	-2.173020e+01
1.515620e+02	-2.178016e+01
1.524374e+02	-2.182874e+01
1.533179e+02	-2.187733e+01
1.542034e+02	-2.192817e+01
1.550941e+02	-2.197748e+01
1.559899e+02	-2.202862e+01
1.568909e+02	-2.207637e+01
1.577971e+02	-2.212763e+01
1.587085e+02	-2.217714e+01
1.596252e+02	-2.222658e+01
1.605472e+02	-2.227707e+01
1.614745e+02	-2.232657e+01
1.624072e+02	-2.237425e+01
1.633453e+02	-2.242507e+01
1.642887e+02	-2.247524e+01
1.652377e+02	-2.252643e+01
1.661921e+02	-2.257554e+01
1.671520e+02	-2.262432e+01
1.681175e+02	-2.267598e+01
1.690885e+02	-2.272541e+01
1.700651e+02	-2.277347e+01
1.710474e+02	-2.282336e+01
1.720354e+02	-2.287330e+01
1.730291e+02	-2.292303e+01
1.740285e+02	-2.297435e+01
1.750337e+02	-2.302073e+01
1.760446e+02	-2.306984e+01
1.770615e+02	-2.312236e+01
1.780842e+02	-2.317137e+01
1.791128e+02	-2.322069e+01
1.801473e+02	-2.327075e+01
1.811878e+02	-2.332070e+01
1.822344e+02	-2.337118e+01
1.832870e+02	-2.342151e+01
1.843456e+02	-2.347023e+01
1.854104e+02	-2.351959e+01
1.864813e+02	-2.357163e+01
1.875584e+02	-2.362034e+01
1.886418e+02	-2.366816e+01
1.897313e+02	-2.371897e+01
1.908272e+02	-2.377078e+01
1.919294e+02	-2.382081e+01
1.930380e+02	-2.386949e+01
1.941530e+02	-2.392044e+01
1.952744e+02	-2.396877e+01
1.964023e+02	-2.402178e+01
1.975367e+02	-2.406881e+01
1.986777e+02	-2.412044e+01
1.998252e+02	-2.416726e+01
2.009794e+02	-2.421770e+01
2.021403e+02	-2.426785e+01
2.033078e+02	-2.431765e+01
2.044821e+02	-2.436806e+01
2.056632e+02	-2.441860e+01
2.068511e+02	-2.446857e+01
2.080459e+02	-2.451774e+01
2.092475e+02	-2.456870e+01
2.104561e+02	-2.461673e+01
2.116717e+02	-2.466954e+01
2.128943e+02	-2.471783e+01
2.141240e+02	-2.476683e+01
2.153608e+02	-2.481824e+01
2.166047e+02	-2.486888e+01
2.178558e+02	-2.491777e+01
2.191141e+02	-2.496774e+01
2.203797e+02	-2.501837e+01
2.216526e+02	-2.506628e+01
2.229329e+02	-2.511782e+01
2.242205e+02	-2.516472e+01
2.255156e+02	-2.521888e+01
2.268182e+02	-2.526588e+01
2.281283e+02	-2.531664e+01
2.294459e+02	-2.536283e+01
2.307712e+02	-2.541664e+01
2.321041e+02	-2.546697e+01
2.334447e+02	-2.551612e+01
2.347931e+02	-2.556708e+01
2.361493e+02	-2.561579e+01
2.375133e+02	-2.566648e+01
2.388851e+02	-2.571392e+01
2.402649e+02	-2.576647e+01
2.416527e+02	-2.581439e+01
2.430484e+02	-2.586700e+01
2.444523e+02	-2.591584e+01
2.458642e+02	-2.596764e+01
2.472843e+02	-2.601954e+01
2.487126e+02	-2.606481e+01
2.501492e+02	-2.611616e+01
2.515940e+02	-2.616215e+01
2.530472e+02	-2.621745e+01
2.545088e+02	-2.626483e+01
2.559789e+02	-2.631646e+01
2.574574e+02	-2.636391e+01
2.589444e+02	-2.641582e+01
2.604401e+02	-2.646246e+01
2.619444e+02	-2.651509e+01
2.634574e+02	-2.656658e+01
2.649791e+02	-2.661561e+01
2.665096e+02	-2.666269e+01
2.680489e+02	-2.671468e+01
2.695972e+02	-2.676934e+01
2.711544e+02	-2.681297e+01
2.727205e+02	-2.686304e+01
2.742958e+02	-2.691235e+01
2.758801e+02	-2.696512e+01
2.774736e+02	-2.701566e+01
2.790762e+02	-2.706635e+01
2.806882e+02	-2.711089e+01
2.823094e+02	-2.716414e+01
2.839400e+02	-2.721142e+01
2.855800e+02	-2.726455e+01
2.872295e+02	-2.731324e+01
2.888886e+02	-2.736522e+01
2.905572e+02	-2.741445e+01
2.922354e+02	-2.746329e+01
2.939234e+02	-2.751213e+01
2.956211e+02	-2.756469e+01
2.973286e+02	-2.761432e+01
2.990459e+02	-2.766521e+01
3.007732e+02	-2.771944e+01
3.025104e+02	-2.776350e+01
3.042577e+02	-2.781068e+01
3.060151e+02	-2.786281e+01
3.077826e+02	-2.791534e+01
3.095604e+02	-2.796406e+01
3.113484e+02	-2.801905e+01
3.131467e+02	-2.806218e+01
3.149554e+02	-2.811670e+01
3.167746e+02	-2.816642e+01
3.186043e+02	-2.821332e+01
3.204445e+02	-2.826091e+01
3.222954e+02	-2.831434e+01
3.241570e+02	-2.836360e+01
3.260293e+02	-2.841396e+01
3.279124e+02	-2.846466e+01
3.298064e+02	-2.851521e+01
3.317114e+02	-2.856614e+01
3.336273e+02	-2.861892e+01
3.355544e+02	-2.866785e+01
3.374925e+02	-2.871724e+01
3.394418e+02	-2.876644e+01
3.414024e+02	-2.881734e+01
3.433744e+02	-2.886550e+01
3.453577e+02	-2.891684e+01
3.473525e+02	-2.896667e+01
3.493588e+02	-2.901099e+01
3.513766e+02	-2.906661e+01
3.534062e+02	-2.911408e+01
3.554474e+02	-2.916288e+01
3.575005e+02	-2.921839e+01
3.595654e+02	-2.926689e+01
3.616422e+02	-2.931057e+01
3.637311e+02	-2.936155e+01
3.658320e+02	-2.941733e+01
3.679450e+02	-2.946747e+01
3.700702e+02	-2.951275e+01
3.722077e+02	-2.956463e+01
3.743576e+02	-2.961385e+01
3.765199e+02	-2.966767e+01
3.786946e+02	-2.971704e+01
3.808820e+02	-2.976545e+01
3.830819e+02	-2.981753e+01
3.852946e+02	-2.986554e+01
3.875200e+02	-2.991577e+01
3.897583e+02	-2.996267e+01
3.920096e+02	-3.001594e+01
3.942738e+02	-3.006888e+01
3.965511e+02	-3.011724e+01
3.988416e+02	-3.016673e+01
4.011452e+02	-3.022065e+01
4.034622e+02	-3.026935e+01
4.057926e+02	-3.031617e+01
4.081365e+02	-3.036747e+01
4.104938e+02	-3.041803e+01
4.128648e+02	-3.046498e+01
4.152495e+02	-3.052056e+01
4.176480e+02	-3.057002e+01
4.200603e+02	-3.061507e+01
4.224866e+02	-3.066663e+01
4.249268e+02	-3.071744e+01
4.273812e+02	-3.076444e+01
4.298497e+02	-3.082348e+01
4.323325e+02	-3.087234e+01
4.348297e+02	-3.091705e+01
4.373412e+02	-3.096934e+01
4.398673e+02	-3.101918e+01
4.424079e+02	-3.107403e+01
4.449633e+02	-3.111219e+01
4.475334e+02	-3.117349e+01
4.501183e+02	-3.121997e+01
4.527182e+02	-3.126779e+01
4.553330e+02	-3.132168e+01
4.579630e+02	-3.137329e+01
4.606082e+02	-3.141430e+01
4.632687e+02	-3.147092e+01
4.659445e+02	-3.152399e+01
4.686358e+02	-3.156851e+01
4.713426e+02	-3.161897e+01
4.740650e+02	-3.167095e+01
4.768032e+02	-3.172303e+01
4.795572e+02	-3.177405e+01
4.823271e+02	-3.182698e+01
4.851130e+02	-3.187124e+01
4.879150e+02	-3.191784e+01
4.907332e+02	-3.197280e+01
4.935676e+02	-3.202593e+01
4.964185e+02	-3.207203e+01
4.992858e+02	-3.212248e+01
5.021696e+02	-3.217650e+01
5.050701e+02	-3.222101e+01
5.079874e+02	-3.227795e+01
5.109215e+02	-3.232462e+01
5.138726e+02	-3.236738e+01
5.168407e+02	-3.243049e+01
5.198259e+02	-3.247502e+01
5.228284e+02	-3.252821e+01
5.258482e+02	-3.257663e+01
5.288855e+02	-3.262755e+01
5.319403e+02	-3.267872e+01
5.350128e+02	-3.272629e+01
5.381030e+02	-3.277368e+01
5.412111e+02	-3.283476e+01
5.443371e+02	-3.287390e+01
5.474812e+02	-3.292906e+01
5.506434e+02	-3.297625e+01
5.538239e+02	-3.302332e+01
5.570228e+02	-3.307420e+01
5.602401e+02	-3.313444e+01
5.634760e+02	-3.317916e+01
5.667306e+02	-3.323078e+01
5.700040e+02	-3.327671e+01
5.732964e+02	-3.333082e+01
5.766077e+02	-3.337576e+01
5.799382e+02	-3.343348e+01
5.832879e+02	-3.347989e+01
5.866569e+02	-3.353335e+01
5.900454e+02	-3.358493e+01
5.934535e+02	-3.362722e+01
5.968813e+02	-3.367427e+01
6.003288e+02	-3.373710e+01
6.037963e+02	-3.377946e+01
6.072838e+02	-3.383425e+01
6.107914e+02	-3.386849e+01
6.143194e+02	-3.393990e+01
6.178676e+02	-3.398450e+01
6.214364e+02	-3.403498e+01
6.250258e+02	-3.408104e+01
6.286359e+02	-3.413014e+01
6.322669e+02	-3.417456e+01
6.359189e+02	-3.423916e+01
6.395919e+02	-3.428877e+01
6.432862e+02	-3.433535e+01
6.470017e+02	-3.438492e+01
6.507388e+02	-3.443053e+01
6.544974e+02	-3.448010e+01
6.582778e+02	-3.453683e+01
6.620800e+02	-3.458125e+01
6.659041e+02	-3.463901e+01
6.697504e+02	-3.468499e+01
6.736188e+02	-3.473731e+01
6.775096e+02	-3.479322e+01
6.814229e+02	-3.483784e+01
6.853587e+02	-3.488010e+01
6.893173e+02	-3.492956e+01
6.932988e+02	-3.499348e+01
6.973033e+02	-3.504201e+01
7.013309e+02	-3.508927e+01
