Frequency(Hz)	Magnitude(dB)
1.000000e+01	-2.377078e+00
1.005776e+01	-2.398167e+00
1.011585e+01	-2.419410e+00
1.017428e+01	-2.440751e+00
1.023305e+01	-2.462386e+00
1.029215e+01	-2.484094e+00
1.035160e+01	-2.506090e+00
1.041139e+01	-2.528279e+00
1.047153e+01	-2.550223e+00
1.053201e+01	-2.572375e+00
1.059284e+01	-2.595035e+00
1.065403e+01	-2.617538e+00
1.071556e+01	-2.640265e+00
1.077746e+01	-2.663188e+00
1.083971e+01	-2.686094e+00
1.090232e+01	-2.709252e+00
1.096529e+01	-2.732363e+00
1.102862e+01	-2.755801e+00
1.109232e+01	-2.779427e+00
1.115639e+01	-2.803273e+00
1.122083e+01	-2.827109e+00
1.128564e+01	-2.851038e+00
1.135083e+01	-2.875348e+00
1.141639e+01	-2.899598e+00
1.148233e+01	-2.923921e+00
1.154865e+01	-2.948713e+00
1.161536e+01	-2.973226e+00
1.168245e+01	-2.998007e+00
1.174992e+01	-3.023189e+00
1.181779e+01	-3.048420e+00
1.188605e+01	-3.073748e+00
1.195470e+01	-3.099271e+00
1.202375e+01	-3.124836e+00
1.209320e+01	-3.150428e+00
1.216305e+01	-3.176231e+00
1.223330e+01	-3.202138e+00
1.230396e+01	-3.228341e+00
1.237503e+01	-3.254815e+00
1.244651e+01	-3.281269e+00
1.251840e+01	-3.307882e+00
1.259070e+01	-3.334579e+00
1.266343e+01	-3.361568e+00
1.273657e+01	-3.388407e+00
1.281014e+01	-3.415686e+00
1.288413e+01	-3.442875e+00
1.295855e+01	-3.470394e+00
1.303339e+01	-3.498126e+00
1.310867e+01	-3.525684e+00
1.318439e+01	-3.553697e+00
1.326054e+01	-3.581473e+00
1.333713e+01	-3.609780e+00
1.341417e+01	-3.638217e+00
1.349165e+01	-3.666525e+00
1.356958e+01	-3.695324e+00
1.364795e+01	-3.723903e+00
1.372678e+01	-3.752702e+00
1.380607e+01	-3.781545e+00
1.388581e+01	-3.811154e+00
1.396602e+01	-3.840312e+00
1.404668e+01	-3.869522e+00
1.412782e+01	-3.899297e+00
1.420942e+01	-3.929150e+00
1.429149e+01	-3.958658e+00
1.437404e+01	-3.988749e+00
1.445706e+01	-4.018988e+00
1.454057e+01	-4.049409e+00
1.462455e+01	-4.079787e+00
1.470902e+01	-4.110218e+00
1.479398e+01	-4.140805e+00
1.487943e+01	-4.171617e+00
1.496537e+01	-4.202506e+00
1.505181e+01	-4.233698e+00
1.513875e+01	-4.264963e+00
1.522619e+01	-4.296086e+00
1.531414e+01	-4.327722e+00
1.540259e+01	-4.359207e+00
1.549156e+01	-4.390970e+00
1.558103e+01	-4.423009e+00
1.567103e+01	-4.455246e+00
1.576155e+01	-4.486984e+00
1.585258e+01	-4.519194e+00
1.594415e+01	-4.551806e+00
1.603624e+01	-4.584402e+00
1.612886e+01	-4.617173e+00
1.622202e+01	-4.649970e+00
1.631572e+01	-4.683308e+00
1.640996e+01	-4.715911e+00
1.650474e+01	-4.749299e+00
1.660008e+01	-4.782595e+00
1.669596e+01	-4.816000e+00
1.679239e+01	-4.849433e+00
1.688938e+01	-4.882956e+00
1.698694e+01	-4.916894e+00
1.708505e+01	-4.950725e+00
1.718373e+01	-4.985214e+00
1.728299e+01	-5.019362e+00
1.738281e+01	-5.053641e+00
1.748322e+01	-5.088116e+00
1.758420e+01	-5.122821e+00
1.768576e+01	-5.157432e+00
1.778792e+01	-5.192023e+00
1.789066e+01	-5.227425e+00
1.799399e+01	-5.262469e+00
1.809793e+01	-5.297573e+00
1.820246e+01	-5.333045e+00
1.830760e+01	-5.368252e+00
1.841334e+01	-5.403884e+00
1.851969e+01	-5.439655e+00
1.862666e+01	-5.475519e+00
1.873425e+01	-5.511152e+00
1.884246e+01	-5.547419e+00
1.895129e+01	-5.583261e+00
1.906075e+01	-5.619803e+00
1.917085e+01	-5.655946e+00
1.928158e+01	-5.692335e+00
1.939295e+01	-5.728803e+00
1.950496e+01	-5.765745e+00
1.961762e+01	-5.802522e+00
1.973093e+01	-5.839598e+00
1.984490e+01	-5.876504e+00
1.995952e+01	-5.913779e+00
2.007480e+01	-5.951429e+00
2.019076e+01	-5.988290e+00
2.030738e+01	-6.025530e+00
2.042467e+01	-6.063428e+00
2.054264e+01	-6.100846e+00
2.066130e+01	-6.139021e+00
2.078064e+01	-6.176735e+00
2.090066e+01	-6.215038e+00
2.102139e+01	-6.252794e+00
2.114280e+01	-6.291302e+00
2.126492e+01	-6.329159e+00
2.138775e+01	-6.367748e+00
2.151128e+01	-6.406517e+00
2.163553e+01	-6.445140e+00
2.176050e+01	-6.483544e+00
2.188619e+01	-6.522725e+00
2.201260e+01	-6.561757e+00
2.213974e+01	-6.600479e+00
2.226762e+01	-6.639960e+00
2.239624e+01	-6.679290e+00
2.252560e+01	-6.718089e+00
2.265571e+01	-6.757758e+00
2.278656e+01	-6.797228e+00
2.291818e+01	-6.836845e+00
2.305055e+01	-6.876150e+00
2.318369e+01	-6.916667e+00
2.331760e+01	-6.956118e+00
2.345228e+01	-6.996104e+00
2.358774e+01	-7.036411e+00
2.372398e+01	-7.076540e+00
2.386101e+01	-7.116678e+00
2.399883e+01	-7.157353e+00
2.413745e+01	-7.197405e+00
2.427686e+01	-7.238519e+00
2.441709e+01	-7.279073e+00
2.455812e+01	-7.319372e+00
2.469997e+01	-7.360465e+00
2.484263e+01	-7.401090e+00
2.498612e+01	-7.441922e+00
2.513044e+01	-7.482882e+00
2.527559e+01	-7.524028e+00
2.542158e+01	-7.565339e+00
2.556842e+01	-7.606697e+00
2.571610e+01	-7.648118e+00
2.586463e+01	-7.689375e+00
2.601403e+01	-7.731116e+00
2.616428e+01	-7.772867e+00
2.631541e+01	-7.814136e+00
2.646740e+01	-7.856316e+00
2.662028e+01	-7.897923e+00
2.677404e+01	-7.940079e+00
2.692868e+01	-7.982384e+00
2.708422e+01	-8.024085e+00
2.724066e+01	-8.066548e+00
2.739800e+01	-8.108342e+00
2.755625e+01	-8.151091e+00
2.771541e+01	-8.193374e+00
2.787550e+01	-8.235588e+00
2.803650e+01	-8.278679e+00
2.819844e+01	-8.320896e+00
2.836131e+01	-8.363745e+00
2.852513e+01	-8.406233e+00
2.868989e+01	-8.449700e+00
2.885560e+01	-8.492603e+00
2.902227e+01	-8.535468e+00
2.918990e+01	-8.578434e+00
2.935850e+01	-8.621382e+00
2.952807e+01	-8.664878e+00
2.969863e+01	-8.708110e+00
2.987016e+01	-8.751478e+00
3.004269e+01	-8.794309e+00
3.021622e+01	-8.837840e+00
3.039075e+01	-8.881528e+00
3.056628e+01	-8.925203e+00
3.074283e+01	-8.968847e+00
3.092040e+01	-9.012129e+00
3.109900e+01	-9.056732e+00
3.127862e+01	-9.100163e+00
3.145929e+01	-9.143819e+00
3.164099e+01	-9.187700e+00
3.182375e+01	-9.232051e+00
3.200756e+01	-9.276467e+00
3.219244e+01	-9.320267e+00
3.237838e+01	-9.364174e+00
3.256540e+01	-9.408837e+00
3.275349e+01	-9.452561e+00
3.294268e+01	-9.497712e+00
3.313295e+01	-9.541764e+00
3.332433e+01	-9.586805e+00
3.351681e+01	-9.631295e+00
3.371040e+01	-9.675395e+00
3.390511e+01	-9.720430e+00
3.410094e+01	-9.765040e+00
3.429791e+01	-9.809765e+00
3.449601e+01	-9.854574e+00
3.469526e+01	-9.899732e+00
3.489566e+01	-9.944244e+00
3.509721e+01	-9.988609e+00
3.529993e+01	-1.003388e+01
3.550382e+01	-1.007965e+01
3.570889e+01	-1.012452e+01
3.591515e+01	-1.016994e+01
3.612259e+01	-1.021496e+01
3.633123e+01	-1.026023e+01
3.654108e+01	-1.030552e+01
3.675214e+01	-1.035051e+01
3.696442e+01	-1.039643e+01
3.717792e+01	-1.044186e+01
3.739266e+01	-1.048746e+01
3.760864e+01	-1.053269e+01
3.782587e+01	-1.057929e+01
3.804435e+01	-1.062457e+01
3.826409e+01	-1.066966e+01
3.848510e+01	-1.071606e+01
3.870739e+01	-1.076163e+01
3.893096e+01	-1.080726e+01
3.915583e+01	-1.085360e+01
3.938199e+01	-1.089900e+01
3.960946e+01	-1.094513e+01
3.983824e+01	-1.099119e+01
4.006834e+01	-1.103771e+01
4.029978e+01	-1.108339e+01
4.053255e+01	-1.112949e+01
4.076666e+01	-1.117590e+01
4.100213e+01	-1.122200e+01
4.123896e+01	-1.126854e+01
4.147715e+01	-1.131466e+01
4.171672e+01	-1.136095e+01
4.195767e+01	-1.140747e+01
4.220002e+01	-1.145423e+01
4.244377e+01	-1.150093e+01
4.268892e+01	-1.154659e+01
4.293549e+01	-1.159335e+01
4.318348e+01	-1.163959e+01
4.343291e+01	-1.168677e+01
4.368377e+01	-1.173259e+01
4.393609e+01	-1.177987e+01
4.418986e+01	-1.182609e+01
4.444510e+01	-1.187322e+01
4.470182e+01	-1.192019e+01
4.496001e+01	-1.196679e+01
4.521970e+01	-1.201358e+01
4.548089e+01	-1.206103e+01
4.574358e+01	-1.210744e+01
4.600779e+01	-1.215436e+01
4.627353e+01	-1.220173e+01
4.654081e+01	-1.224914e+01
4.680963e+01	-1.229553e+01
4.708000e+01	-1.234285e+01
4.735193e+01	-1.238974e+01
4.762543e+01	-1.243744e+01
4.790051e+01	-1.248456e+01
4.817719e+01	-1.253134e+01
4.845545e+01	-1.257885e+01
4.873533e+01	-1.262599e+01
4.901682e+01	-1.267315e+01
4.929994e+01	-1.272068e+01
4.958470e+01	-1.276806e+01
4.987110e+01	-1.281500e+01
5.015915e+01	-1.286237e+01
5.044887e+01	-1.290999e+01
5.074026e+01	-1.295838e+01
5.103333e+01	-1.300469e+01
5.132810e+01	-1.305240e+01
5.162457e+01	-1.310075e+01
5.192275e+01	-1.314805e+01
5.222265e+01	-1.319587e+01
5.252429e+01	-1.324285e+01
5.282767e+01	-1.329118e+01
5.313280e+01	-1.333932e+01
5.343969e+01	-1.338637e+01
5.374836e+01	-1.343375e+01
5.405880e+01	-1.348128e+01
5.437105e+01	-1.352910e+01
5.468509e+01	-1.357827e+01
5.500095e+01	-1.362504e+01
5.531863e+01	-1.367314e+01
5.563815e+01	-1.372155e+01
5.595951e+01	-1.376867e+01
5.628273e+01	-1.381665e+01
5.660782e+01	-1.386474e+01
5.693479e+01	-1.391236e+01
5.726364e+01	-1.396082e+01
5.759439e+01	-1.400851e+01
5.792705e+01	-1.405703e+01
5.826164e+01	-1.410532e+01
5.859815e+01	-1.415334e+01
5.893662e+01	-1.420073e+01
5.927703e+01	-1.424942e+01
5.961941e+01	-1.429788e+01
5.996377e+01	-1.434559e+01
6.031012e+01	-1.439366e+01
6.065847e+01	-1.444259e+01
6.100883e+01	-1.449001e+01
6.136121e+01	-1.453808e+01
6.171563e+01	-1.458670e+01
6.207210e+01	-1.463476e+01
6.243063e+01	-1.468375e+01
6.279122e+01	-1.473213e+01
6.315390e+01	-1.477998e+01
6.351868e+01	-1.482868e+01
6.388556e+01	-1.487617e+01
6.425456e+01	-1.492470e+01
6.462569e+01	-1.497327e+01
6.499897e+01	-1.502265e+01
6.537440e+01	-1.507057e+01
6.575200e+01	-1.511899e+01
6.613178e+01	-1.516797e+01
6.651375e+01	-1.521526e+01
6.689793e+01	-1.526424e+01
6.728433e+01	-1.531314e+01
6.767297e+01	-1.536223e+01
6.806384e+01	-1.541086e+01
6.845698e+01	-1.545984e+01
6.885238e+01	-1.550769e+01
6.925007e+01	-1.555526e+01
6.965005e+01	-1.560503e+01
7.005235e+01	-1.565411e+01
7.045697e+01	-1.570359e+01
7.086393e+01	-1.575149e+01
7.127323e+01	-1.579918e+01
7.168490e+01	-1.584796e+01
7.209895e+01	-1.589604e+01
7.251539e+01	-1.594528e+01
7.293424e+01	-1.599459e+01
7.335551e+01	-1.604340e+01
7.377920e+01	-1.609253e+01
7.420535e+01	-1.614146e+01
7.463396e+01	-1.618913e+01
7.506504e+01	-1.623995e+01
7.549861e+01	-1.628773e+01
7.593469e+01	-1.633666e+01
7.637328e+01	-1.638451e+01
7.681441e+01	-1.643371e+01
7.725809e+01	-1.648334e+01
7.770433e+01	-1.653159e+01
7.815315e+01	-1.658068e+01
7.860456e+01	-1.662955e+01
7.905857e+01	-1.667826e+01
7.951521e+01	-1.672773e+01
7.997449e+01	-1.677672e+01
8.043642e+01	-1.682568e+01
8.090102e+01	-1.687545e+01
8.136830e+01	-1.692384e+01
8.183828e+01	-1.697265e+01
8.231097e+01	-1.702128e+01
8.278640e+01	-1.707081e+01
8.326457e+01	-1.712002e+01
8.374550e+01	-1.716860e+01
8.422921e+01	-1.721935e+01
8.471572e+01	-1.726919e+01
8.520503e+01	-1.731595e+01
8.569717e+01	-1.736486e+01
8.619215e+01	-1.741403e+01
8.669000e+01	-1.746369e+01
8.719071e+01	-1.751303e+01
8.769432e+01	-1.756126e+01
8.820084e+01	-1.761024e+01
8.871029e+01	-1.765959e+01
8.922267e+01	-1.770993e+01
8.973802e+01	-1.775844e+01
9.025634e+01	-1.780601e+01
9.077766e+01	-1.785788e+01
9.130199e+01	-1.790668e+01
9.182935e+01	-1.795634e+01
9.235975e+01	-1.800417e+01
9.289321e+01	-1.805385e+01
9.342976e+01	-1.810405e+01
9.396941e+01	-1.815041e+01
9.451217e+01	-1.820153e+01
9.505807e+01	-1.825122e+01
9.560712e+01	-1.830057e+01
9.615934e+01	-1.834901e+01
9.671476e+01	-1.839818e+01
9.727338e+01	-1.844885e+01
9.783522e+01	-1.849711e+01
9.840032e+01	-1.854723e+01
9.896867e+01	-1.859496e+01
9.954031e+01	-1.864483e+01
1.001153e+02	-1.869297e+01
1.006935e+02	-1.874464e+01
1.012751e+02	-1.879510e+01
1.018601e+02	-1.884238e+01
1.024484e+02	-1.889187e+01
1.030402e+02	-1.894241e+01
1.036353e+02	-1.899124e+01
1.042339e+02	-1.904055e+01
1.048360e+02	-1.908998e+01
1.054415e+02	-1.913902e+01
1.060505e+02	-1.918833e+01
1.066631e+02	-1.923763e+01
1.072791e+02	-1.928793e+01
1.078988e+02	-1.933525e+01
1.085220e+02	-1.938473e+01
1.091488e+02	-1.943555e+01
1.097793e+02	-1.948396e+01
1.104133e+02	-1.953394e+01
1.110511e+02	-1.958431e+01
1.116925e+02	-1.963364e+01
1.123376e+02	-1.968349e+01
1.129865e+02	-1.973309e+01
1.136391e+02	-1.978108e+01
1.142955e+02	-1.983166e+01
1.149556e+02	-1.988060e+01
1.156196e+02	-1.993039e+01
1.162874e+02	-1.998072e+01
1.169591e+02	-2.002855e+01
1.176347e+02	-2.007982e+01
1.183141e+02	-2.012876e+01
1.189975e+02	-2.017932e+01
1.196848e+02	-2.022732e+01
1.203761e+02	-2.027880e+01
1.210714e+02	-2.032753e+01
1.217707e+02	-2.037617e+01
1.224740e+02	-2.042635e+01
1.231814e+02	-2.047566e+01
1.238929e+02	-2.052431e+01
1.246085e+02	-2.057402e+01
1.253283e+02	-2.062555e+01
1.260522e+02	-2.067377e+01
1.267802e+02	-2.072339e+01
1.275125e+02	-2.077432e+01
1.282490e+02	-2.082355e+01
1.289898e+02	-2.087317e+01
1.297348e+02	-2.092313e+01
1.304842e+02	-2.097257e+01
1.312378e+02	-2.102178e+01
1.319959e+02	-2.107068e+01
1.327583e+02	-2.112022e+01
1.335251e+02	-2.117180e+01
1.342963e+02	-2.122128e+01
1.350720e+02	-2.126910e+01
1.358522e+02	-2.131997e+01
1.366368e+02	-2.137040e+01
1.374260e+02	-2.141951e+01
1.382198e+02	-2.146774e+01
1.390182e+02	-2.152087e+01
1.398211e+02	-2.156856e+01
1.406287e+02	-2.161741e+01
1.414410e+02	-2.166873e+01
1.422579e+02	-2.171682e+01
1.430796e+02	-2.176869e+01
1.439060e+02	-2.181721e+01
1.447372e+02	-2.186592e+01
1.455732e+02	-2.191606e+01
1.464141e+02	-2.196593e+01
1.472597e+02	-2.201661e+01
1.481103e+02	-2.206371e+01
1.489658e+02	-2.211530e+01
1.498262e+02	-2.216451e+01
1.506916e+02	-2.221435e+01
1.515620e+02	-2.226404e+01
1.524374e+02	-2.231241e+01
1.533179e+02	-2.236299e+01
1.542034e+02	-2.241407e+01
1.550941e+02	-2.246237e+01
1.559899e+02	-2.251068e+01
1.568909e+02	-2.256114e+01
1.577971e+02	-2.261341e+01
1.587085e+02	-2.266247e+01
1.596252e+02	-2.271012e+01
1.605472e+02	-2.276065e+01
1.614745e+02	-2.281089e+01
1.624072e+02	-2.285942e+01
1.633453e+02	-2.290951e+01
1.642887e+02	-2.296052e+01
1.652377e+02	-2.301062e+01
1.661921e+02	-2.306198e+01
1.671520e+02	-2.311333e+01
1.681175e+02	-2.315931e+01
1.690885e+02	-2.321011e+01
1.700651e+02	-2.325936e+01
1.710474e+02	-2.331009e+01
1.720354e+02	-2.335879e+01
1.730291e+02	-2.341003e+01
1.740285e+02	-2.345888e+01
1.750337e+02	-2.350959e+01
1.760446e+02	-2.355943e+01
1.770615e+02	-2.361004e+01
1.780842e+02	-2.365824e+01
1.791128e+02	-2.370731e+01
1.801473e+02	-2.375997e+01
1.811878e+02	-2.380973e+01
1.822344e+02	-2.385663e+01
1.832870e+02	-2.390836e+01
1.843456e+02	-2.395503e+01
1.854104e+02	-2.400801e+01
1.864813e+02	-2.405667e+01
1.875584e+02	-2.410464e+01
1.886418e+02	-2.415759e+01
1.897313e+02	-2.420918e+01
1.908272e+02	-2.425557e+01
1.919294e+02	-2.430705e+01
1.930380e+02	-2.435732e+01
1.941530e+02	-2.440647e+01
1.952744e+02	-2.445520e+01
1.964023e+02	-2.450758e+01
1.975367e+02	-2.455696e+01
1.986777e+02	-2.460538e+01
1.998252e+02	-2.465526e+01
2.009794e+02	-2.470372e+01
2.021403e+02	-2.475310e+01
2.033078e+02	-2.480521e+01
2.044821e+02	-2.485504e+01
2.056632e+02	-2.490437e+01
2.068511e+02	-2.495482e+01
2.080459e+02	-2.500632e+01
2.092475e+02	-2.505240e+01
2.104561e+02	-2.510489e+01
2.116717e+02	-2.515590e+01
2.128943e+02	-2.520516e+01
2.141240e+02	-2.525656e+01
2.153608e+02	-2.530276e+01
2.166047e+02	-2.535675e+01
2.178558e+02	-2.540363e+01
2.191141e+02	-2.545398e+01
2.203797e+02	-2.550449e+01
2.216526e+02	-2.555456e+01
2.229329e+02	-2.560384e+01
2.242205e+02	-2.565282e+01
2.255156e+02	-2.570492e+01
2.268182e+02	-2.575535e+01
2.281283e+02	-2.580186e+01
2.294459e+02	-2.585461e+01
2.307712e+02	-2.590368e+01
2.321041e+02	-2.595369e+01
2.334447e+02	-2.600706e+01
2.347931e+02	-2.605277e+01
2.361493e+02	-2.610129e+01
2.375133e+02	-2.615275e+01
2.388851e+02	-2.620448e+01
2.402649e+02	-2.625455e+01
2.416527e+02	-2.630254e+01
2.430484e+02	-2.635186e+01
2.444523e+02	-2.640379e+01
2.458642e+02	-2.645358e+01
2.472843e+02	-2.649905e+01
2.487126e+02	-2.655252e+01
2.501492e+02	-2.659997e+01
2.515940e+02	-2.665127e+01
2.530472e+02	-2.670337e+01
2.545088e+02	-2.675195e+01
2.559789e+02	-2.680068e+01
2.574574e+02	-2.685231e+01
2.589444e+02	-2.690258e+01
2.604401e+02	-2.695236e+01
2.619444e+02	-2.700483e+01
2.634574e+02	-2.705474e+01
2.649791e+02	-2.710506e+01
2.665096e+02	-2.715569e+01
2.680489e+02	-2.720410e+01
2.695972e+02	-2.725044e+01
2.711544e+02	-2.730697e+01
2.727205e+02	-2.735024e+01
2.742958e+02	-2.740420e+01
2.758801e+02	-2.745147e+01
2.774736e+02	-2.750734e+01
2.790762e+02	-2.755099e+01
2.806882e+02	-2.760094e+01
2.823094e+02	-2.764748e+01
2.839400e+02	-2.770501e+01
2.855800e+02	-2.775272e+01
2.872295e+02	-2.780378e+01
2.888886e+02	-2.785306e+01
2.905572e+02	-2.790541e+01
2.922354e+02	-2.795499e+01
2.939234e+02	-2.800187e+01
2.956211e+02	-2.805100e+01
2.973286e+02	-2.809962e+01
2.990459e+02	-2.815059e+01
3.007732e+02	-2.820181e+01
3.025104e+02	-2.825625e+01
3.042577e+02	-2.830534e+01
3.060151e+02	-2.835493e+01
3.077826e+02	-2.840049e+01
3.095604e+02	-2.844945e+01
3.113484e+02	-2.850185e+01
3.131467e+02	-2.855404e+01
3.149554e+02	-2.859936e+01
3.167746e+02	-2.864862e+01
3.186043e+02	-2.870467e+01
3.204445e+02	-2.875316e+01
3.222954e+02	-2.879953e+01
3.241570e+02	-2.885092e+01
3.260293e+02	-2.890436e+01
3.279124e+02	-2.895152e+01
3.298064e+02	-2.900346e+01
3.317114e+02	-2.904801e+01
3.336273e+02	-2.910103e+01
3.355544e+02	-2.915269e+01
3.374925e+02	-2.920492e+01
3.394418e+02	-2.925657e+01
3.414024e+02	-2.930393e+01
3.433744e+02	-2.935326e+01
3.453577e+02	-2.940405e+01
3.473525e+02	-2.945241e+01
3.493588e+02	-2.950337e+01
3.513766e+02	-2.955576e+01
3.534062e+02	-2.960274e+01
3.554474e+02	-2.965723e+01
3.575005e+02	-2.970546e+01
3.595654e+02	-2.975518e+01
3.616422e+02	-2.980145e+01
3.637311e+02	-2.985272e+01
3.658320e+02	-2.990574e+01
3.679450e+02	-2.995066e+01
3.700702e+02	-3.000445e+01
3.722077e+02	-3.005302e+01
3.743576e+02	-3.009853e+01
3.765199e+02	-3.015299e+01
3.786946e+02	-3.020443e+01
3.808820e+02	-3.025525e+01
3.830819e+02	-3.030339e+01
3.852946e+02	-3.035256e+01
3.875200e+02	-3.040163e+01
3.897583e+02	-3.045466e+01
3.920096e+02	-3.050270e+01
3.942738e+02	-3.055533e+01
3.965511e+02	-3.060343e+01
3.988416e+02	-3.065235e+01
4.011452e+02	-3.070324e+01
4.034622e+02	-3.075315e+01
4.057926e+02	-3.080540e+01
4.081365e+02	-3.086101e+01
4.104938e+02	-3.090462e+01
4.128648e+02	-3.095077e+01
4.152495e+02	-3.100356e+01
4.176480e+02	-3.104979e+01
4.200603e+02	-3.110321e+01
4.224866e+02	-3.114894e+01
4.249268e+02	-3.120542e+01
4.273812e+02	-3.125149e+01
4.298497e+02	-3.130759e+01
4.323325e+02	-3.134817e+01
4.348297e+02	-3.140850e+01
4.373412e+02	-3.146012e+01
4.398673e+02	-3.150646e+01
4.424079e+02	-3.156277e+01
4.449633e+02	-3.160746e+01
4.475334e+02	-3.165544e+01
4.501183e+02	-3.171012e+01
4.527182e+02	-3.175787e+01
4.553330e+02	-3.180607e+01
4.579630e+02	-3.185675e+01
4.606082e+02	-3.190380e+01
4.632687e+02	-3.195544e+01
4.659445e+02	-3.200781e+01
4.686358e+02	-3.205917e+01
4.713426e+02	-3.210880e+01
4.740650e+02	-3.215825e+01
4.768032e+02	-3.220633e+01
4.795572e+02	-3.225602e+01
4.823271e+02	-3.231363e+01
4.851130e+02	-3.235641e+01
4.879150e+02	-3.240388e+01
4.907332e+02	-3.246079e+01
4.935676e+02	-3.250455e+01
4.964185e+02	-3.256034e+01
4.992858e+02	-3.261333e+01
5.021696e+02	-3.266583e+01
5.050701e+02	-3.270986e+01
5.079874e+02	-3.275843e+01
5.109215e+02	-3.280454e+01
5.138726e+02	-3.285713e+01
5.168407e+02	-3.291332e+01
5.198259e+02	-3.296220e+01
5.228284e+02	-3.301195e+01
5.258482e+02	-3.305510e+01
5.288855e+02	-3.312127e+01
5.319403e+02	-3.315998e+01
5.350128e+02	-3.321234e+01
5.381030e+02	-3.326603e+01
5.412111e+02	-3.331025e+01
5.443371e+02	-3.336281e+01
5.474812e+02	-3.341894e+01
5.506434e+02	-3.346476e+01
5.538239e+02	-3.352057e+01
5.570228e+02	-3.356844e+01
5.602401e+02	-3.361678e+01
5.634760e+02	-3.366917e+01
5.667306e+02	-3.371993e+01
5.700040e+02	-3.376848e+01
5.732964e+02	-3.380957e+01
5.766077e+02	-3.386168e+01
5.799382e+02	-3.391788e+01
5.832879e+02	-3.395940e+01
5.866569e+02	-3.400960e+01
5.900454e+02	-3.406606e+01
5.934535e+02	-3.411876e+01
5.968813e+02	-3.417797e+01
6.003288e+02	-3.421073e+01
6.037963e+02	-3.427319e+01
6.072838e+02	-3.432355e+01
6.107914e+02	-3.436293e+01
6.143194e+02	-3.441562e+01
6.178676e+02	-3.446286e+01
6.214364e+02	-3.452900e+01
6.250258e+02	-3.457544e+01
6.286359e+02	-3.462178e+01
6.322669e+02	-3.467268e+01
6.359189e+02	-3.470735e+01
6.395919e+02	-3.476909e+01
6.432862e+02	-3.481875e+01
6.470017e+02	-3.487392e+01
6.507388e+02	-3.492137e+01
6.544974e+02	-3.496952e+01
6.582778e+02	-3.501819e+01
6.620800e+02	-3.506839e+01
6.659041e+02	-3.512885e+01
6.697504e+02	-3.516922e+01
6.736188e+02	-3.522185e+01
6.775096e+02	-3.527816e+01
6.814229e+02	-3.532715e+01
6.853587e+02	-3.536561e+01
6.893173e+02	-3.542272e+01
6.932988e+02	-3.547227e+01
6.973033e+02	-3.551949e+01
7.013309e+02	-3.557288e+01
