Frequency(Hz)	Magnitude(dB)
1.000000e+01	-1.563624e-05
1.005776e+01	-1.581739e-05
1.011585e+01	-1.600064e-05
1.017428e+01	-1.618601e-05
1.023305e+01	-1.637353e-05
1.029215e+01	-1.656322e-05
1.035160e+01	-1.675511e-05
1.041139e+01	-1.694923e-05
1.047153e+01	-1.714559e-05
1.053201e+01	-1.734422e-05
1.059284e+01	-1.754516e-05
1.065403e+01	-1.774843e-05
1.071556e+01	-1.795405e-05
1.077746e+01	-1.816205e-05
1.083971e+01	-1.837246e-05
1.090232e+01	-1.858531e-05
1.096529e+01	-1.880063e-05
1.102862e+01	-1.901843e-05
1.109232e+01	-1.923877e-05
1.115639e+01	-1.946165e-05
1.122083e+01	-1.968712e-05
1.128564e+01	-1.991520e-05
1.135083e+01	-2.014593e-05
1.141639e+01	-2.037932e-05
1.148233e+01	-2.061542e-05
1.154865e+01	-2.085426e-05
1.161536e+01	-2.109586e-05
1.168245e+01	-2.134026e-05
1.174992e+01	-2.158749e-05
1.181779e+01	-2.183759e-05
1.188605e+01	-2.209058e-05
1.195470e+01	-2.234651e-05
1.202375e+01	-2.260540e-05
1.209320e+01	-2.286728e-05
1.216305e+01	-2.313221e-05
1.223330e+01	-2.340020e-05
1.230396e+01	-2.367130e-05
1.237503e+01	-2.394554e-05
1.244651e+01	-2.422295e-05
1.251840e+01	-2.450358e-05
1.259070e+01	-2.478746e-05
1.266343e+01	-2.507463e-05
1.273657e+01	-2.536512e-05
1.281014e+01	-2.565899e-05
1.288413e+01	-2.595625e-05
1.295855e+01	-2.625696e-05
1.303339e+01	-2.656115e-05
1.310867e+01	-2.686887e-05
1.318439e+01	-2.718015e-05
1.326054e+01	-2.749504e-05
1.333713e+01	-2.781358e-05
1.341417e+01	-2.813581e-05
1.349165e+01	-2.846177e-05
1.356958e+01	-2.879150e-05
1.364795e+01	-2.912506e-05
1.372678e+01	-2.946248e-05
1.380607e+01	-2.980381e-05
1.388581e+01	-3.014909e-05
1.396602e+01	-3.049838e-05
1.404668e+01	-3.085171e-05
1.412782e+01	-3.120913e-05
1.420942e+01	-3.157070e-05
1.429149e+01	-3.193645e-05
1.437404e+01	-3.230644e-05
1.445706e+01	-3.268072e-05
1.454057e+01	-3.305934e-05
1.462455e+01	-3.344234e-05
1.470902e+01	-3.382977e-05
1.479398e+01	-3.422170e-05
1.487943e+01	-3.461817e-05
1.496537e+01	-3.501923e-05
1.505181e+01	-3.542493e-05
1.513875e+01	-3.583534e-05
1.522619e+01	-3.625050e-05
1.531414e+01	-3.667047e-05
1.540259e+01	-3.709530e-05
1.549156e+01	-3.752506e-05
1.558103e+01	-3.795980e-05
1.567103e+01	-3.839957e-05
1.576155e+01	-3.884444e-05
1.585258e+01	-3.929446e-05
1.594415e+01	-3.974970e-05
1.603624e+01	-4.021021e-05
1.612886e+01	-4.067605e-05
1.622202e+01	-4.114729e-05
1.631572e+01	-4.162399e-05
1.640996e+01	-4.210621e-05
1.650474e+01	-4.259402e-05
1.660008e+01	-4.308749e-05
1.669596e+01	-4.358666e-05
1.679239e+01	-4.409162e-05
1.688938e+01	-4.460244e-05
1.698694e+01	-4.511917e-05
1.708505e+01	-4.564188e-05
1.718373e+01	-4.617065e-05
1.728299e+01	-4.670555e-05
1.738281e+01	-4.724664e-05
1.748322e+01	-4.779401e-05
1.758420e+01	-4.834771e-05
1.768576e+01	-4.890783e-05
1.778792e+01	-4.947444e-05
1.789066e+01	-5.004761e-05
1.799399e+01	-5.062742e-05
1.809793e+01	-5.121395e-05
1.820246e+01	-5.180727e-05
1.830760e+01	-5.240747e-05
1.841334e+01	-5.301462e-05
1.851969e+01	-5.362881e-05
1.862666e+01	-5.425011e-05
1.873425e+01	-5.487861e-05
1.884246e+01	-5.551439e-05
1.895129e+01	-5.615753e-05
1.906075e+01	-5.680813e-05
1.917085e+01	-5.746626e-05
1.928158e+01	-5.813202e-05
1.939295e+01	-5.880549e-05
1.950496e+01	-5.948677e-05
1.961762e+01	-6.017593e-05
1.973093e+01	-6.087308e-05
1.984490e+01	-6.157831e-05
1.995952e+01	-6.229171e-05
2.007480e+01	-6.301337e-05
2.019076e+01	-6.374339e-05
2.030738e+01	-6.448187e-05
2.042467e+01	-6.522890e-05
2.054264e+01	-6.598459e-05
2.066130e+01	-6.674904e-05
2.078064e+01	-6.752234e-05
2.090066e+01	-6.830460e-05
2.102139e+01	-6.909592e-05
2.114280e+01	-6.989641e-05
2.126492e+01	-7.070617e-05
2.138775e+01	-7.152531e-05
2.151128e+01	-7.235395e-05
2.163553e+01	-7.319218e-05
2.176050e+01	-7.404013e-05
2.188619e+01	-7.489789e-05
2.201260e+01	-7.576560e-05
2.213974e+01	-7.664336e-05
2.226762e+01	-7.753129e-05
2.239624e+01	-7.842950e-05
2.252560e+01	-7.933812e-05
2.265571e+01	-8.025726e-05
2.278656e+01	-8.118706e-05
2.291818e+01	-8.212762e-05
2.305055e+01	-8.307909e-05
2.318369e+01	-8.404157e-05
2.331760e+01	-8.501521e-05
2.345228e+01	-8.600012e-05
2.358774e+01	-8.699645e-05
2.372398e+01	-8.800432e-05
2.386101e+01	-8.902386e-05
2.399883e+01	-9.005522e-05
2.413745e+01	-9.109852e-05
2.427686e+01	-9.215391e-05
2.441709e+01	-9.322153e-05
2.455812e+01	-9.430151e-05
2.469997e+01	-9.539401e-05
2.484263e+01	-9.649916e-05
2.498612e+01	-9.761712e-05
2.513044e+01	-9.874803e-05
2.527559e+01	-9.989204e-05
2.542158e+01	-1.010493e-04
2.556842e+01	-1.022200e-04
2.571610e+01	-1.034042e-04
2.586463e+01	-1.046022e-04
2.601403e+01	-1.058140e-04
2.616428e+01	-1.070399e-04
2.631541e+01	-1.082799e-04
2.646740e+01	-1.095344e-04
2.662028e+01	-1.108033e-04
2.677404e+01	-1.120870e-04
2.692868e+01	-1.133856e-04
2.708422e+01	-1.146991e-04
2.724066e+01	-1.160279e-04
2.739800e+01	-1.173721e-04
2.755625e+01	-1.187319e-04
2.771541e+01	-1.201074e-04
2.787550e+01	-1.214989e-04
2.803650e+01	-1.229065e-04
2.819844e+01	-1.243304e-04
2.836131e+01	-1.257707e-04
2.852513e+01	-1.272278e-04
2.868989e+01	-1.287018e-04
2.885560e+01	-1.301928e-04
2.902227e+01	-1.317011e-04
2.918990e+01	-1.332268e-04
2.935850e+01	-1.347703e-04
2.952807e+01	-1.363316e-04
2.969863e+01	-1.379110e-04
2.987016e+01	-1.395087e-04
3.004269e+01	-1.411250e-04
3.021622e+01	-1.427599e-04
3.039075e+01	-1.444138e-04
3.056628e+01	-1.460868e-04
3.074283e+01	-1.477793e-04
3.092040e+01	-1.494913e-04
3.109900e+01	-1.512232e-04
3.127862e+01	-1.529751e-04
3.145929e+01	-1.547473e-04
3.164099e+01	-1.565401e-04
3.182375e+01	-1.583536e-04
3.200756e+01	-1.601882e-04
3.219244e+01	-1.620439e-04
3.237838e+01	-1.639212e-04
3.256540e+01	-1.658203e-04
3.275349e+01	-1.677413e-04
3.294268e+01	-1.696846e-04
3.313295e+01	-1.716504e-04
3.332433e+01	-1.736390e-04
3.351681e+01	-1.756506e-04
3.371040e+01	-1.776855e-04
3.390511e+01	-1.797440e-04
3.410094e+01	-1.818264e-04
3.429791e+01	-1.839328e-04
3.449601e+01	-1.860637e-04
3.469526e+01	-1.882192e-04
3.489566e+01	-1.903998e-04
3.509721e+01	-1.926055e-04
3.529993e+01	-1.948369e-04
3.550382e+01	-1.970941e-04
3.570889e+01	-1.993774e-04
3.591515e+01	-2.016872e-04
3.612259e+01	-2.040237e-04
3.633123e+01	-2.063874e-04
3.654108e+01	-2.087784e-04
3.675214e+01	-2.111971e-04
3.696442e+01	-2.136438e-04
3.717792e+01	-2.161188e-04
3.739266e+01	-2.186226e-04
3.760864e+01	-2.211553e-04
3.782587e+01	-2.237174e-04
3.804435e+01	-2.263091e-04
3.826409e+01	-2.289309e-04
3.848510e+01	-2.315831e-04
3.870739e+01	-2.342660e-04
3.893096e+01	-2.369799e-04
3.915583e+01	-2.397253e-04
3.938199e+01	-2.425025e-04
3.960946e+01	-2.453119e-04
3.983824e+01	-2.481539e-04
4.006834e+01	-2.510287e-04
4.029978e+01	-2.539369e-04
4.053255e+01	-2.568787e-04
4.076666e+01	-2.598546e-04
4.100213e+01	-2.628650e-04
4.123896e+01	-2.659103e-04
4.147715e+01	-2.689908e-04
4.171672e+01	-2.721071e-04
4.195767e+01	-2.752594e-04
4.220002e+01	-2.784483e-04
4.244377e+01	-2.816741e-04
4.268892e+01	-2.849372e-04
4.293549e+01	-2.882382e-04
4.318348e+01	-2.915774e-04
4.343291e+01	-2.949553e-04
4.368377e+01	-2.983723e-04
4.393609e+01	-3.018289e-04
4.418986e+01	-3.053256e-04
4.444510e+01	-3.088627e-04
4.470182e+01	-3.124409e-04
4.496001e+01	-3.160604e-04
4.521970e+01	-3.197219e-04
4.548089e+01	-3.234259e-04
4.574358e+01	-3.271727e-04
4.600779e+01	-3.309630e-04
4.627353e+01	-3.347971e-04
4.654081e+01	-3.386757e-04
4.680963e+01	-3.425992e-04
4.708000e+01	-3.465681e-04
4.735193e+01	-3.505830e-04
4.762543e+01	-3.546445e-04
4.790051e+01	-3.587530e-04
4.817719e+01	-3.629090e-04
4.845545e+01	-3.671133e-04
4.873533e+01	-3.713662e-04
4.901682e+01	-3.756684e-04
4.929994e+01	-3.800204e-04
4.958470e+01	-3.844229e-04
4.987110e+01	-3.888763e-04
5.015915e+01	-3.933814e-04
5.044887e+01	-3.979386e-04
5.074026e+01	-4.025486e-04
5.103333e+01	-4.072120e-04
5.132810e+01	-4.119294e-04
5.162457e+01	-4.167015e-04
5.192275e+01	-4.215289e-04
5.222265e+01	-4.264122e-04
5.252429e+01	-4.313521e-04
5.282767e+01	-4.363491e-04
5.313280e+01	-4.414041e-04
5.343969e+01	-4.465176e-04
5.374836e+01	-4.516904e-04
5.405880e+01	-4.569231e-04
5.437105e+01	-4.622164e-04
5.468509e+01	-4.675710e-04
5.500095e+01	-4.729876e-04
5.531863e+01	-4.784670e-04
5.563815e+01	-4.840099e-04
5.595951e+01	-4.896170e-04
5.628273e+01	-4.952890e-04
5.660782e+01	-5.010267e-04
5.693479e+01	-5.068309e-04
5.726364e+01	-5.127023e-04
5.759439e+01	-5.186418e-04
5.792705e+01	-5.246500e-04
5.826164e+01	-5.307279e-04
5.859815e+01	-5.368761e-04
5.893662e+01	-5.430956e-04
5.927703e+01	-5.493871e-04
5.961941e+01	-5.557515e-04
5.996377e+01	-5.621896e-04
6.031012e+01	-5.687023e-04
6.065847e+01	-5.752904e-04
6.100883e+01	-5.819549e-04
6.136121e+01	-5.886965e-04
6.171563e+01	-5.955163e-04
6.207210e+01	-6.024150e-04
6.243063e+01	-6.093937e-04
6.279122e+01	-6.164532e-04
6.315390e+01	-6.235944e-04
6.351868e+01	-6.308184e-04
6.388556e+01	-6.381261e-04
6.425456e+01	-6.455184e-04
6.462569e+01	-6.529964e-04
6.499897e+01	-6.605609e-04
6.537440e+01	-6.682131e-04
6.575200e+01	-6.759539e-04
6.613178e+01	-6.837844e-04
6.651375e+01	-6.917056e-04
6.689793e+01	-6.997186e-04
6.728433e+01	-7.078244e-04
6.767297e+01	-7.160240e-04
6.806384e+01	-7.243187e-04
6.845698e+01	-7.327094e-04
6.885238e+01	-7.411973e-04
6.925007e+01	-7.497835e-04
6.965005e+01	-7.584692e-04
7.005235e+01	-7.672555e-04
7.045697e+01	-7.761436e-04
7.086393e+01	-7.851346e-04
7.127323e+01	-7.942298e-04
7.168490e+01	-8.034303e-04
7.209895e+01	-8.127374e-04
7.251539e+01	-8.221523e-04
7.293424e+01	-8.316762e-04
7.335551e+01	-8.413105e-04
7.377920e+01	-8.510564e-04
7.420535e+01	-8.609151e-04
7.463396e+01	-8.708880e-04
7.506504e+01	-8.809765e-04
7.549861e+01	-8.911818e-04
7.593469e+01	-9.015053e-04
7.637328e+01	-9.119484e-04
7.681441e+01	-9.225125e-04
7.725809e+01	-9.331989e-04
7.770433e+01	-9.440091e-04
7.815315e+01	-9.549445e-04
7.860456e+01	-9.660065e-04
7.905857e+01	-9.771967e-04
7.951521e+01	-9.885165e-04
7.997449e+01	-9.999674e-04
8.043642e+01	-1.011551e-03
8.090102e+01	-1.023269e-03
8.136830e+01	-1.035122e-03
8.183828e+01	-1.047113e-03
8.231097e+01	-1.059242e-03
8.278640e+01	-1.071513e-03
8.326457e+01	-1.083925e-03
8.374550e+01	-1.096481e-03
8.422921e+01	-1.109182e-03
8.471572e+01	-1.122031e-03
8.520503e+01	-1.135028e-03
8.569717e+01	-1.148176e-03
8.619215e+01	-1.161476e-03
8.669000e+01	-1.174930e-03
8.719071e+01	-1.188540e-03
8.769432e+01	-1.202308e-03
8.820084e+01	-1.216235e-03
8.871029e+01	-1.230323e-03
8.922267e+01	-1.244575e-03
8.973802e+01	-1.258992e-03
9.025634e+01	-1.273575e-03
9.077766e+01	-1.288328e-03
9.130199e+01	-1.303251e-03
9.182935e+01	-1.318347e-03
9.235975e+01	-1.333618e-03
9.289321e+01	-1.349066e-03
9.342976e+01	-1.364693e-03
9.396941e+01	-1.380501e-03
9.451217e+01	-1.396492e-03
9.505807e+01	-1.412668e-03
9.560712e+01	-1.429032e-03
9.615934e+01	-1.445584e-03
9.671476e+01	-1.462329e-03
9.727338e+01	-1.479268e-03
9.783522e+01	-1.496402e-03
9.840032e+01	-1.513736e-03
9.896867e+01	-1.531270e-03
9.954031e+01	-1.549007e-03
1.001153e+02	-1.566949e-03
1.006935e+02	-1.585099e-03
1.012751e+02	-1.603460e-03
1.018601e+02	-1.622033e-03
1.024484e+02	-1.640821e-03
1.030402e+02	-1.659827e-03
1.036353e+02	-1.679052e-03
1.042339e+02	-1.698501e-03
1.048360e+02	-1.718175e-03
1.054415e+02	-1.738076e-03
1.060505e+02	-1.758208e-03
1.066631e+02	-1.778573e-03
1.072791e+02	-1.799174e-03
1.078988e+02	-1.820014e-03
1.085220e+02	-1.841095e-03
1.091488e+02	-1.862420e-03
1.097793e+02	-1.883992e-03
1.104133e+02	-1.905813e-03
1.110511e+02	-1.927888e-03
1.116925e+02	-1.950218e-03
1.123376e+02	-1.972806e-03
1.129865e+02	-1.995657e-03
1.136391e+02	-2.018772e-03
1.142955e+02	-2.042154e-03
1.149556e+02	-2.065807e-03
1.156196e+02	-2.089734e-03
1.162874e+02	-2.113939e-03
1.169591e+02	-2.138423e-03
1.176347e+02	-2.163191e-03
1.183141e+02	-2.188246e-03
1.189975e+02	-2.213591e-03
1.196848e+02	-2.239229e-03
1.203761e+02	-2.265165e-03
1.210714e+02	-2.291400e-03
1.217707e+02	-2.317940e-03
1.224740e+02	-2.344786e-03
1.231814e+02	-2.371944e-03
1.238929e+02	-2.399416e-03
1.246085e+02	-2.427206e-03
1.253283e+02	-2.455318e-03
1.260522e+02	-2.483755e-03
1.267802e+02	-2.512522e-03
1.275125e+02	-2.541622e-03
1.282490e+02	-2.571058e-03
1.289898e+02	-2.600836e-03
1.297348e+02	-2.630958e-03
1.304842e+02	-2.661429e-03
1.312378e+02	-2.692253e-03
1.319959e+02	-2.723433e-03
1.327583e+02	-2.754975e-03
1.335251e+02	-2.786882e-03
1.342963e+02	-2.819158e-03
1.350720e+02	-2.851808e-03
1.358522e+02	-2.884836e-03
1.366368e+02	-2.918246e-03
1.374260e+02	-2.952043e-03
1.382198e+02	-2.986232e-03
1.390182e+02	-3.020816e-03
1.398211e+02	-3.055801e-03
1.406287e+02	-3.091190e-03
1.414410e+02	-3.126990e-03
1.422579e+02	-3.163204e-03
1.430796e+02	-3.199837e-03
1.439060e+02	-3.236894e-03
1.447372e+02	-3.274380e-03
1.455732e+02	-3.312300e-03
1.464141e+02	-3.350659e-03
1.472597e+02	-3.389462e-03
1.481103e+02	-3.428714e-03
1.489658e+02	-3.468421e-03
1.498262e+02	-3.508587e-03
1.506916e+02	-3.549218e-03
1.515620e+02	-3.590320e-03
1.524374e+02	-3.631897e-03
1.533179e+02	-3.673956e-03
1.542034e+02	-3.716501e-03
1.550941e+02	-3.759539e-03
1.559899e+02	-3.803076e-03
1.568909e+02	-3.847116e-03
1.577971e+02	-3.891665e-03
1.587085e+02	-3.936731e-03
1.596252e+02	-3.982318e-03
1.605472e+02	-4.028433e-03
1.614745e+02	-4.075081e-03
1.624072e+02	-4.122270e-03
1.633453e+02	-4.170004e-03
1.642887e+02	-4.218291e-03
1.652377e+02	-4.267137e-03
1.661921e+02	-4.316549e-03
1.671520e+02	-4.366532e-03
1.681175e+02	-4.417093e-03
1.690885e+02	-4.468240e-03
1.700651e+02	-4.519979e-03
1.710474e+02	-4.572316e-03
1.720354e+02	-4.625260e-03
1.730291e+02	-4.678815e-03
1.740285e+02	-4.732991e-03
1.750337e+02	-4.787794e-03
1.760446e+02	-4.843231e-03
1.770615e+02	-4.899309e-03
1.780842e+02	-4.956036e-03
1.791128e+02	-5.013420e-03
1.801473e+02	-5.071468e-03
1.811878e+02	-5.130187e-03
1.822344e+02	-5.189586e-03
1.832870e+02	-5.249672e-03
1.843456e+02	-5.310454e-03
1.854104e+02	-5.371939e-03
1.864813e+02	-5.434135e-03
1.875584e+02	-5.497051e-03
1.886418e+02	-5.560695e-03
1.897313e+02	-5.625075e-03
1.908272e+02	-5.690200e-03
1.919294e+02	-5.756079e-03
1.930380e+02	-5.822720e-03
1.941530e+02	-5.890131e-03
1.952744e+02	-5.958323e-03
1.964023e+02	-6.027304e-03
1.975367e+02	-6.097083e-03
1.986777e+02	-6.167669e-03
1.998252e+02	-6.239071e-03
2.009794e+02	-6.311300e-03
2.021403e+02	-6.384364e-03
2.033078e+02	-6.458273e-03
2.044821e+02	-6.533037e-03
2.056632e+02	-6.608667e-03
2.068511e+02	-6.685171e-03
2.080459e+02	-6.762559e-03
2.092475e+02	-6.840844e-03
2.104561e+02	-6.920033e-03
2.116717e+02	-7.000139e-03
2.128943e+02	-7.081171e-03
2.141240e+02	-7.163140e-03
2.153608e+02	-7.246057e-03
2.166047e+02	-7.329934e-03
2.178558e+02	-7.414780e-03
2.191141e+02	-7.500608e-03
2.203797e+02	-7.587428e-03
2.216526e+02	-7.675253e-03
2.229329e+02	-7.764093e-03
2.242205e+02	-7.853960e-03
2.255156e+02	-7.944867e-03
2.268182e+02	-8.036825e-03
2.281283e+02	-8.129846e-03
2.294459e+02	-8.223943e-03
2.307712e+02	-8.319128e-03
2.321041e+02	-8.415413e-03
2.334447e+02	-8.512812e-03
2.347931e+02	-8.611337e-03
2.361493e+02	-8.711001e-03
2.375133e+02	-8.811818e-03
2.388851e+02	-8.913800e-03
2.402649e+02	-9.016961e-03
2.416527e+02	-9.121314e-03
2.430484e+02	-9.226874e-03
2.444523e+02	-9.333655e-03
2.458642e+02	-9.441670e-03
2.472843e+02	-9.550933e-03
2.487126e+02	-9.661460e-03
2.501492e+02	-9.773264e-03
2.515940e+02	-9.886360e-03
2.530472e+02	-1.000076e-02
2.545088e+02	-1.011649e-02
2.559789e+02	-1.023355e-02
2.574574e+02	-1.035197e-02
2.589444e+02	-1.047175e-02
2.604401e+02	-1.059292e-02
2.619444e+02	-1.071549e-02
2.634574e+02	-1.083948e-02
2.649791e+02	-1.096490e-02
2.665096e+02	-1.109177e-02
2.680489e+02	-1.122010e-02
2.695972e+02	-1.134992e-02
2.711544e+02	-1.148124e-02
2.727205e+02	-1.161407e-02
2.742958e+02	-1.174844e-02
2.758801e+02	-1.188436e-02
2.774736e+02	-1.202185e-02
2.790762e+02	-1.216093e-02
2.806882e+02	-1.230162e-02
2.823094e+02	-1.244393e-02
2.839400e+02	-1.258789e-02
2.855800e+02	-1.273351e-02
2.872295e+02	-1.288081e-02
2.888886e+02	-1.302981e-02
2.905572e+02	-1.318054e-02
2.922354e+02	-1.333300e-02
2.939234e+02	-1.348723e-02
2.956211e+02	-1.364324e-02
2.973286e+02	-1.380104e-02
2.990459e+02	-1.396067e-02
3.007732e+02	-1.412215e-02
3.025104e+02	-1.428549e-02
3.042577e+02	-1.445071e-02
3.060151e+02	-1.461784e-02
3.077826e+02	-1.478691e-02
3.095604e+02	-1.495792e-02
3.113484e+02	-1.513091e-02
3.131467e+02	-1.530589e-02
3.149554e+02	-1.548290e-02
3.167746e+02	-1.566195e-02
3.186043e+02	-1.584306e-02
3.204445e+02	-1.602627e-02
3.222954e+02	-1.621159e-02
3.241570e+02	-1.639905e-02
3.260293e+02	-1.658867e-02
3.279124e+02	-1.678048e-02
3.298064e+02	-1.697451e-02
3.317114e+02	-1.717077e-02
3.336273e+02	-1.736930e-02
3.355544e+02	-1.757012e-02
3.374925e+02	-1.777326e-02
3.394418e+02	-1.797874e-02
3.414024e+02	-1.818659e-02
3.433744e+02	-1.839683e-02
3.453577e+02	-1.860951e-02
3.473525e+02	-1.882463e-02
3.493588e+02	-1.904224e-02
3.513766e+02	-1.926236e-02
3.534062e+02	-1.948502e-02
3.554474e+02	-1.971024e-02
3.575005e+02	-1.993806e-02
3.595654e+02	-2.016851e-02
3.616422e+02	-2.040162e-02
3.637311e+02	-2.063741e-02
3.658320e+02	-2.087593e-02
3.679450e+02	-2.111719e-02
3.700702e+02	-2.136123e-02
3.722077e+02	-2.160809e-02
3.743576e+02	-2.185780e-02
3.765199e+02	-2.211038e-02
3.786946e+02	-2.236587e-02
3.808820e+02	-2.262431e-02
3.830819e+02	-2.288572e-02
3.852946e+02	-2.315015e-02
3.875200e+02	-2.341762e-02
3.897583e+02	-2.368818e-02
3.920096e+02	-2.396185e-02
3.942738e+02	-2.423868e-02
3.965511e+02	-2.451870e-02
3.988416e+02	-2.480194e-02
4.011452e+02	-2.508844e-02
4.034622e+02	-2.537825e-02
4.057926e+02	-2.567139e-02
4.081365e+02	-2.596790e-02
4.104938e+02	-2.626784e-02
4.128648e+02	-2.657122e-02
4.152495e+02	-2.687810e-02
4.176480e+02	-2.718851e-02
4.200603e+02	-2.750250e-02
4.224866e+02	-2.782010e-02
4.249268e+02	-2.814135e-02
4.273812e+02	-2.846630e-02
4.298497e+02	-2.879500e-02
4.323325e+02	-2.912747e-02
4.348297e+02	-2.946377e-02
4.373412e+02	-2.980394e-02
4.398673e+02	-3.014803e-02
4.424079e+02	-3.049607e-02
4.449633e+02	-3.084811e-02
4.475334e+02	-3.120421e-02
4.501183e+02	-3.156440e-02
4.527182e+02	-3.192873e-02
4.553330e+02	-3.229726e-02
4.579630e+02	-3.267002e-02
4.606082e+02	-3.304706e-02
4.632687e+02	-3.342844e-02
4.659445e+02	-3.381421e-02
4.686358e+02	-3.420441e-02
4.713426e+02	-3.459909e-02
4.740650e+02	-3.499831e-02
4.768032e+02	-3.540212e-02
4.795572e+02	-3.581056e-02
4.823271e+02	-3.622370e-02
4.851130e+02	-3.664159e-02
4.879150e+02	-3.706427e-02
4.907332e+02	-3.749181e-02
4.935676e+02	-3.792426e-02
4.964185e+02	-3.836168e-02
4.992858e+02	-3.880412e-02
5.021696e+02	-3.925164e-02
5.050701e+02	-3.970429e-02
5.079874e+02	-4.016214e-02
5.109215e+02	-4.062525e-02
5.138726e+02	-4.109367e-02
5.168407e+02	-4.156747e-02
5.198259e+02	-4.204670e-02
5.228284e+02	-4.253143e-02
5.258482e+02	-4.302172e-02
5.288855e+02	-4.351764e-02
5.319403e+02	-4.401924e-02
5.350128e+02	-4.452659e-02
5.381030e+02	-4.503976e-02
5.412111e+02	-4.555882e-02
5.443371e+02	-4.608382e-02
5.474812e+02	-4.661484e-02
5.506434e+02	-4.715195e-02
5.538239e+02	-4.769521e-02
5.570228e+02	-4.824469e-02
5.602401e+02	-4.880048e-02
5.634760e+02	-4.936262e-02
5.667306e+02	-4.993121e-02
5.700040e+02	-5.050630e-02
5.732964e+02	-5.108798e-02
5.766077e+02	-5.167632e-02
5.799382e+02	-5.227139e-02
5.832879e+02	-5.287328e-02
5.866569e+02	-5.348205e-02
5.900454e+02	-5.409779e-02
5.934535e+02	-5.472057e-02
5.968813e+02	-5.535048e-02
6.003288e+02	-5.598758e-02
6.037963e+02	-5.663198e-02
6.072838e+02	-5.728374e-02
6.107914e+02	-5.794295e-02
6.143194e+02	-5.860970e-02
6.178676e+02	-5.928407e-02
6.214364e+02	-5.996614e-02
6.250258e+02	-6.065601e-02
6.286359e+02	-6.135375e-02
6.322669e+02	-6.205947e-02
6.359189e+02	-6.277324e-02
6.395919e+02	-6.349516e-02
6.432862e+02	-6.422533e-02
6.470017e+02	-6.496382e-02
6.507388e+02	-6.571075e-02
6.544974e+02	-6.646619e-02
6.582778e+02	-6.723025e-02
6.620800e+02	-6.800303e-02
6.659041e+02	-6.878462e-02
6.697504e+02	-6.957512e-02
6.736188e+02	-7.037463e-02
6.775096e+02	-7.118325e-02
6.814229e+02	-7.200109e-02
6.853587e+02	-7.282824e-02
6.893173e+02	-7.366482e-02
6.932988e+02	-7.451092e-02
6.973033e+02	-7.536666e-02
7.013309e+02	-7.623214e-02
