Frequency(Hz)	Magnitude(dB)
1.000000e+01	-2.212621e+00
1.005776e+01	-2.232655e+00
1.011585e+01	-2.252856e+00
1.017428e+01	-2.273134e+00
1.023305e+01	-2.293666e+00
1.029215e+01	-2.314276e+00
1.035160e+01	-2.334841e+00
1.041139e+01	-2.355812e+00
1.047153e+01	-2.376745e+00
1.053201e+01	-2.397890e+00
1.059284e+01	-2.419412e+00
1.065403e+01	-2.440500e+00
1.071556e+01	-2.462229e+00
1.077746e+01	-2.484146e+00
1.083971e+01	-2.505877e+00
1.090232e+01	-2.527841e+00
1.096529e+01	-2.550082e+00
1.102862e+01	-2.572392e+00
1.109232e+01	-2.594718e+00
1.115639e+01	-2.617344e+00
1.122083e+01	-2.639965e+00
1.128564e+01	-2.662831e+00
1.135083e+01	-2.685968e+00
1.141639e+01	-2.709115e+00
1.148233e+01	-2.732337e+00
1.154865e+01	-2.755769e+00
1.161536e+01	-2.779521e+00
1.168245e+01	-2.803072e+00
1.174992e+01	-2.826892e+00
1.181779e+01	-2.850783e+00
1.188605e+01	-2.875002e+00
1.195470e+01	-2.899201e+00
1.202375e+01	-2.923864e+00
1.209320e+01	-2.948239e+00
1.216305e+01	-2.973044e+00
1.223330e+01	-2.997897e+00
1.230396e+01	-3.022924e+00
1.237503e+01	-3.048353e+00
1.244651e+01	-3.073582e+00
1.251840e+01	-3.098953e+00
1.259070e+01	-3.124294e+00
1.266343e+01	-3.150143e+00
1.273657e+01	-3.176093e+00
1.281014e+01	-3.202196e+00
1.288413e+01	-3.228342e+00
1.295855e+01	-3.254672e+00
1.303339e+01	-3.281088e+00
1.310867e+01	-3.307418e+00
1.318439e+01	-3.334324e+00
1.326054e+01	-3.361177e+00
1.333713e+01	-3.387834e+00
1.341417e+01	-3.415513e+00
1.349165e+01	-3.442598e+00
1.356958e+01	-3.470205e+00
1.364795e+01	-3.497712e+00
1.372678e+01	-3.525435e+00
1.380607e+01	-3.553480e+00
1.388581e+01	-3.581445e+00
1.396602e+01	-3.609383e+00
1.404668e+01	-3.637912e+00
1.412782e+01	-3.666462e+00
1.420942e+01	-3.694780e+00
1.429149e+01	-3.723647e+00
1.437404e+01	-3.752600e+00
1.445706e+01	-3.781590e+00
1.454057e+01	-3.810577e+00
1.462455e+01	-3.839683e+00
1.470902e+01	-3.869215e+00
1.479398e+01	-3.898948e+00
1.487943e+01	-3.928525e+00
1.496537e+01	-3.958729e+00
1.505181e+01	-3.988401e+00
1.513875e+01	-4.018775e+00
1.522619e+01	-4.048788e+00
1.531414e+01	-4.079269e+00
1.540259e+01	-4.109756e+00
1.549156e+01	-4.140729e+00
1.558103e+01	-4.171311e+00
1.567103e+01	-4.202419e+00
1.576155e+01	-4.233499e+00
1.585258e+01	-4.264342e+00
1.594415e+01	-4.295957e+00
1.603624e+01	-4.327339e+00
1.612886e+01	-4.359186e+00
1.622202e+01	-4.390975e+00
1.631572e+01	-4.422650e+00
1.640996e+01	-4.454736e+00
1.650474e+01	-4.486803e+00
1.660008e+01	-4.519385e+00
1.669596e+01	-4.551632e+00
1.679239e+01	-4.584270e+00
1.688938e+01	-4.617033e+00
1.698694e+01	-4.649749e+00
1.708505e+01	-4.682648e+00
1.718373e+01	-4.715664e+00
1.728299e+01	-4.748666e+00
1.738281e+01	-4.782300e+00
1.748322e+01	-4.815696e+00
1.758420e+01	-4.849338e+00
1.768576e+01	-4.882708e+00
1.778792e+01	-4.916689e+00
1.789066e+01	-4.950716e+00
1.799399e+01	-4.984903e+00
1.809793e+01	-5.019031e+00
1.820246e+01	-5.053480e+00
1.830760e+01	-5.088055e+00
1.841334e+01	-5.122379e+00
1.851969e+01	-5.157209e+00
1.862666e+01	-5.191821e+00
1.873425e+01	-5.226864e+00
1.884246e+01	-5.262160e+00
1.895129e+01	-5.297477e+00
1.906075e+01	-5.332686e+00
1.917085e+01	-5.367865e+00
1.928158e+01	-5.403591e+00
1.939295e+01	-5.439088e+00
1.950496e+01	-5.474790e+00
1.961762e+01	-5.510958e+00
1.973093e+01	-5.546844e+00
1.984490e+01	-5.582950e+00
1.995952e+01	-5.619379e+00
2.007480e+01	-5.655605e+00
2.019076e+01	-5.692117e+00
2.030738e+01	-5.728686e+00
2.042467e+01	-5.765685e+00
2.054264e+01	-5.802192e+00
2.066130e+01	-5.839056e+00
2.078064e+01	-5.876041e+00
2.090066e+01	-5.913379e+00
2.102139e+01	-5.950644e+00
2.114280e+01	-5.988054e+00
2.126492e+01	-6.025272e+00
2.138775e+01	-6.063019e+00
2.151128e+01	-6.100800e+00
2.163553e+01	-6.138830e+00
2.176050e+01	-6.176293e+00
2.188619e+01	-6.214352e+00
2.201260e+01	-6.252226e+00
2.213974e+01	-6.290886e+00
2.226762e+01	-6.329213e+00
2.239624e+01	-6.367221e+00
2.252560e+01	-6.406067e+00
2.265571e+01	-6.444770e+00
2.278656e+01	-6.483929e+00
2.291818e+01	-6.522354e+00
2.305055e+01	-6.561071e+00
2.318369e+01	-6.600013e+00
2.331760e+01	-6.639310e+00
2.345228e+01	-6.678507e+00
2.358774e+01	-6.717717e+00
2.372398e+01	-6.757465e+00
2.386101e+01	-6.796792e+00
2.399883e+01	-6.836590e+00
2.413745e+01	-6.876159e+00
2.427686e+01	-6.915513e+00
2.441709e+01	-6.955859e+00
2.455812e+01	-6.996003e+00
2.469997e+01	-7.036000e+00
2.484263e+01	-7.076379e+00
2.498612e+01	-7.116662e+00
2.513044e+01	-7.156556e+00
2.527559e+01	-7.197107e+00
2.542158e+01	-7.238076e+00
2.556842e+01	-7.278491e+00
2.571610e+01	-7.318977e+00
2.586463e+01	-7.359504e+00
2.601403e+01	-7.400853e+00
2.616428e+01	-7.441254e+00
2.631541e+01	-7.482690e+00
2.646740e+01	-7.523842e+00
2.662028e+01	-7.565152e+00
2.677404e+01	-7.606403e+00
2.692868e+01	-7.647537e+00
2.708422e+01	-7.689357e+00
2.724066e+01	-7.730770e+00
2.739800e+01	-7.772452e+00
2.755625e+01	-7.814410e+00
2.771541e+01	-7.855958e+00
2.787550e+01	-7.897640e+00
2.803650e+01	-7.939957e+00
2.819844e+01	-7.982054e+00
2.836131e+01	-8.024011e+00
2.852513e+01	-8.065756e+00
2.868989e+01	-8.108531e+00
2.885560e+01	-8.150313e+00
2.902227e+01	-8.192605e+00
2.918990e+01	-8.235614e+00
2.935850e+01	-8.277928e+00
2.952807e+01	-8.320503e+00
2.969863e+01	-8.363167e+00
2.987016e+01	-8.406074e+00
3.004269e+01	-8.449275e+00
3.021622e+01	-8.491915e+00
3.039075e+01	-8.535070e+00
3.056628e+01	-8.578041e+00
3.074283e+01	-8.621504e+00
3.092040e+01	-8.664248e+00
3.109900e+01	-8.707663e+00
3.127862e+01	-8.750324e+00
3.145929e+01	-8.794144e+00
3.164099e+01	-8.837865e+00
3.182375e+01	-8.881054e+00
3.200756e+01	-8.924879e+00
3.219244e+01	-8.968288e+00
3.237838e+01	-9.011960e+00
3.256540e+01	-9.056071e+00
3.275349e+01	-9.099414e+00
3.294268e+01	-9.143716e+00
3.313295e+01	-9.187776e+00
3.332433e+01	-9.231486e+00
3.351681e+01	-9.275512e+00
3.371040e+01	-9.319832e+00
3.390511e+01	-9.364230e+00
3.410094e+01	-9.408786e+00
3.429791e+01	-9.452431e+00
3.449601e+01	-9.496842e+00
3.469526e+01	-9.541646e+00
3.489566e+01	-9.585802e+00
3.509721e+01	-9.630389e+00
3.529993e+01	-9.674786e+00
3.550382e+01	-9.719788e+00
3.570889e+01	-9.764292e+00
3.591515e+01	-9.809348e+00
3.612259e+01	-9.853571e+00
3.633123e+01	-9.898827e+00
3.654108e+01	-9.943615e+00
3.675214e+01	-9.989101e+00
3.696442e+01	-1.003430e+01
3.717792e+01	-1.007878e+01
3.739266e+01	-1.012398e+01
3.760864e+01	-1.016935e+01
3.782587e+01	-1.021448e+01
3.804435e+01	-1.025955e+01
3.826409e+01	-1.030516e+01
3.848510e+01	-1.035068e+01
3.870739e+01	-1.039611e+01
3.893096e+01	-1.044190e+01
3.915583e+01	-1.048690e+01
3.938199e+01	-1.053249e+01
3.960946e+01	-1.057834e+01
3.983824e+01	-1.062424e+01
4.006834e+01	-1.066985e+01
4.029978e+01	-1.071561e+01
4.053255e+01	-1.076044e+01
4.076666e+01	-1.080721e+01
4.100213e+01	-1.085311e+01
4.123896e+01	-1.089937e+01
4.147715e+01	-1.094537e+01
4.171672e+01	-1.099051e+01
4.195767e+01	-1.103762e+01
4.220002e+01	-1.108345e+01
4.244377e+01	-1.112927e+01
4.268892e+01	-1.117579e+01
4.293549e+01	-1.122182e+01
4.318348e+01	-1.126747e+01
4.343291e+01	-1.131464e+01
4.368377e+01	-1.136107e+01
4.393609e+01	-1.140725e+01
4.418986e+01	-1.145338e+01
4.444510e+01	-1.150024e+01
4.470182e+01	-1.154629e+01
4.496001e+01	-1.159351e+01
4.521970e+01	-1.164052e+01
4.548089e+01	-1.168685e+01
4.574358e+01	-1.173327e+01
4.600779e+01	-1.177955e+01
4.627353e+01	-1.182674e+01
4.654081e+01	-1.187333e+01
4.680963e+01	-1.191906e+01
4.708000e+01	-1.196703e+01
4.735193e+01	-1.201341e+01
4.762543e+01	-1.206005e+01
4.790051e+01	-1.210763e+01
4.817719e+01	-1.215446e+01
4.845545e+01	-1.220138e+01
4.873533e+01	-1.224839e+01
4.901682e+01	-1.229562e+01
4.929994e+01	-1.234200e+01
4.958470e+01	-1.238972e+01
4.987110e+01	-1.243669e+01
5.015915e+01	-1.248348e+01
5.044887e+01	-1.253139e+01
5.074026e+01	-1.257839e+01
5.103333e+01	-1.262563e+01
5.132810e+01	-1.267302e+01
5.162457e+01	-1.272050e+01
5.192275e+01	-1.276787e+01
5.222265e+01	-1.281523e+01
5.252429e+01	-1.286269e+01
5.282767e+01	-1.290990e+01
5.313280e+01	-1.295762e+01
5.343969e+01	-1.300558e+01
5.374836e+01	-1.305188e+01
5.405880e+01	-1.310037e+01
5.437105e+01	-1.314735e+01
5.468509e+01	-1.319499e+01
5.500095e+01	-1.324210e+01
5.531863e+01	-1.329073e+01
5.563815e+01	-1.333864e+01
5.595951e+01	-1.338597e+01
5.628273e+01	-1.343429e+01
5.660782e+01	-1.348112e+01
5.693479e+01	-1.352941e+01
5.726364e+01	-1.357821e+01
5.759439e+01	-1.362462e+01
5.792705e+01	-1.367337e+01
5.826164e+01	-1.372061e+01
5.859815e+01	-1.376838e+01
5.893662e+01	-1.381678e+01
5.927703e+01	-1.386435e+01
5.961941e+01	-1.391255e+01
5.996377e+01	-1.396072e+01
6.031012e+01	-1.400839e+01
6.065847e+01	-1.405639e+01
6.100883e+01	-1.410460e+01
6.136121e+01	-1.415214e+01
6.171563e+01	-1.420085e+01
6.207210e+01	-1.424893e+01
6.243063e+01	-1.429731e+01
6.279122e+01	-1.434609e+01
6.315390e+01	-1.439333e+01
6.351868e+01	-1.444110e+01
6.388556e+01	-1.449056e+01
6.425456e+01	-1.453778e+01
6.462569e+01	-1.458655e+01
6.499897e+01	-1.463451e+01
6.537440e+01	-1.468292e+01
6.575200e+01	-1.473186e+01
6.613178e+01	-1.477980e+01
6.651375e+01	-1.482861e+01
6.689793e+01	-1.487638e+01
6.728433e+01	-1.492543e+01
6.767297e+01	-1.497382e+01
6.806384e+01	-1.502145e+01
6.845698e+01	-1.507114e+01
6.885238e+01	-1.511906e+01
6.925007e+01	-1.516673e+01
6.965005e+01	-1.521620e+01
7.005235e+01	-1.526387e+01
7.045697e+01	-1.531276e+01
7.086393e+01	-1.536180e+01
7.127323e+01	-1.541012e+01
7.168490e+01	-1.545809e+01
7.209895e+01	-1.550776e+01
7.251539e+01	-1.555590e+01
7.293424e+01	-1.560573e+01
7.335551e+01	-1.565289e+01
7.377920e+01	-1.570126e+01
7.420535e+01	-1.575121e+01
7.463396e+01	-1.579814e+01
7.506504e+01	-1.584857e+01
7.549861e+01	-1.589677e+01
7.593469e+01	-1.594487e+01
7.637328e+01	-1.599464e+01
7.681441e+01	-1.604275e+01
7.725809e+01	-1.609241e+01
7.770433e+01	-1.613976e+01
7.815315e+01	-1.618938e+01
7.860456e+01	-1.623893e+01
7.905857e+01	-1.628703e+01
7.951521e+01	-1.633671e+01
7.997449e+01	-1.638479e+01
8.043642e+01	-1.643295e+01
8.090102e+01	-1.648255e+01
8.136830e+01	-1.653197e+01
8.183828e+01	-1.658007e+01
8.231097e+01	-1.662961e+01
8.278640e+01	-1.667854e+01
8.326457e+01	-1.672774e+01
8.374550e+01	-1.677661e+01
8.422921e+01	-1.682628e+01
8.471572e+01	-1.687431e+01
8.520503e+01	-1.692454e+01
8.569717e+01	-1.697189e+01
8.619215e+01	-1.702184e+01
8.669000e+01	-1.707013e+01
8.719071e+01	-1.712062e+01
8.769432e+01	-1.716826e+01
8.820084e+01	-1.721756e+01
8.871029e+01	-1.726668e+01
8.922267e+01	-1.731590e+01
8.973802e+01	-1.736500e+01
9.025634e+01	-1.741451e+01
9.077766e+01	-1.746289e+01
9.130199e+01	-1.751312e+01
9.182935e+01	-1.756169e+01
9.235975e+01	-1.760985e+01
9.289321e+01	-1.766081e+01
9.342976e+01	-1.770825e+01
9.396941e+01	-1.775814e+01
9.451217e+01	-1.780670e+01
9.505807e+01	-1.785597e+01
9.560712e+01	-1.790534e+01
9.615934e+01	-1.795521e+01
9.671476e+01	-1.800428e+01
9.727338e+01	-1.805249e+01
9.783522e+01	-1.810335e+01
9.840032e+01	-1.815192e+01
9.896867e+01	-1.820172e+01
9.954031e+01	-1.825062e+01
1.001153e+02	-1.830081e+01
1.006935e+02	-1.835000e+01
1.012751e+02	-1.839930e+01
1.018601e+02	-1.844653e+01
1.024484e+02	-1.849781e+01
1.030402e+02	-1.854556e+01
1.036353e+02	-1.859633e+01
1.042339e+02	-1.864534e+01
1.048360e+02	-1.869389e+01
1.054415e+02	-1.874319e+01
1.060505e+02	-1.879311e+01
1.066631e+02	-1.884349e+01
1.072791e+02	-1.889184e+01
1.078988e+02	-1.894075e+01
1.085220e+02	-1.899205e+01
1.091488e+02	-1.903984e+01
1.097793e+02	-1.908929e+01
1.104133e+02	-1.914046e+01
1.110511e+02	-1.918848e+01
1.116925e+02	-1.923725e+01
1.123376e+02	-1.928652e+01
1.129865e+02	-1.933619e+01
1.136391e+02	-1.938694e+01
1.142955e+02	-1.943524e+01
1.149556e+02	-1.948594e+01
1.156196e+02	-1.953454e+01
1.162874e+02	-1.958349e+01
1.169591e+02	-1.963379e+01
1.176347e+02	-1.968407e+01
1.183141e+02	-1.973242e+01
1.189975e+02	-1.978231e+01
1.196848e+02	-1.983202e+01
1.203761e+02	-1.988130e+01
1.210714e+02	-1.993140e+01
1.217707e+02	-1.998072e+01
1.224740e+02	-2.002846e+01
1.231814e+02	-2.007921e+01
1.238929e+02	-2.012961e+01
1.246085e+02	-2.017717e+01
1.253283e+02	-2.022851e+01
1.260522e+02	-2.027588e+01
1.267802e+02	-2.032656e+01
1.275125e+02	-2.037585e+01
1.282490e+02	-2.042605e+01
1.289898e+02	-2.047748e+01
1.297348e+02	-2.052527e+01
1.304842e+02	-2.057455e+01
1.312378e+02	-2.062650e+01
1.319959e+02	-2.067230e+01
1.327583e+02	-2.072275e+01
1.335251e+02	-2.077500e+01
1.342963e+02	-2.082281e+01
1.350720e+02	-2.087366e+01
1.358522e+02	-2.092244e+01
1.366368e+02	-2.097150e+01
1.374260e+02	-2.101981e+01
1.382198e+02	-2.107082e+01
1.390182e+02	-2.112080e+01
1.398211e+02	-2.116937e+01
1.406287e+02	-2.121929e+01
1.414410e+02	-2.126894e+01
1.422579e+02	-2.131996e+01
1.430796e+02	-2.136865e+01
1.439060e+02	-2.141837e+01
1.447372e+02	-2.146769e+01
1.455732e+02	-2.152019e+01
1.464141e+02	-2.156637e+01
1.472597e+02	-2.161693e+01
1.481103e+02	-2.166621e+01
1.489658e+02	-2.171687e+01
1.498262e+02	-2.176713e+01
1.506916e+02	-2.181553e+01
1.515620e+02	-2.186535e+01
1.524374e+02	-2.191479e+01
1.533179e+02	-2.196487e+01
1.542034e+02	-2.201579e+01
1.550941e+02	-2.206405e+01
1.559899e+02	-2.211476e+01
1.568909e+02	-2.216636e+01
1.577971e+02	-2.221334e+01
1.587085e+02	-2.226398e+01
1.596252e+02	-2.231096e+01
1.605472e+02	-2.236416e+01
1.614745e+02	-2.241217e+01
1.624072e+02	-2.246364e+01
1.633453e+02	-2.251315e+01
1.642887e+02	-2.256389e+01
1.652377e+02	-2.261508e+01
1.661921e+02	-2.266421e+01
1.671520e+02	-2.271152e+01
1.681175e+02	-2.276090e+01
1.690885e+02	-2.281200e+01
1.700651e+02	-2.286219e+01
1.710474e+02	-2.291074e+01
1.720354e+02	-2.296028e+01
1.730291e+02	-2.301164e+01
1.740285e+02	-2.306121e+01
1.750337e+02	-2.311150e+01
1.760446e+02	-2.315983e+01
1.770615e+02	-2.320938e+01
1.780842e+02	-2.326024e+01
1.791128e+02	-2.331146e+01
1.801473e+02	-2.335968e+01
1.811878e+02	-2.341065e+01
1.822344e+02	-2.346052e+01
1.832870e+02	-2.350900e+01
1.843456e+02	-2.355808e+01
1.854104e+02	-2.361048e+01
1.864813e+02	-2.365900e+01
1.875584e+02	-2.370939e+01
1.886418e+02	-2.375837e+01
1.897313e+02	-2.380968e+01
1.908272e+02	-2.385507e+01
1.919294e+02	-2.390650e+01
1.930380e+02	-2.395720e+01
1.941530e+02	-2.400699e+01
1.952744e+02	-2.405853e+01
1.964023e+02	-2.411082e+01
1.975367e+02	-2.415640e+01
1.986777e+02	-2.420842e+01
1.998252e+02	-2.425697e+01
2.009794e+02	-2.430585e+01
2.021403e+02	-2.435611e+01
2.033078e+02	-2.440902e+01
2.044821e+02	-2.445803e+01
2.056632e+02	-2.450861e+01
2.068511e+02	-2.455669e+01
2.080459e+02	-2.460659e+01
2.092475e+02	-2.465629e+01
2.104561e+02	-2.470369e+01
2.116717e+02	-2.475635e+01
2.128943e+02	-2.480461e+01
2.141240e+02	-2.485633e+01
2.153608e+02	-2.490288e+01
2.166047e+02	-2.495797e+01
2.178558e+02	-2.500810e+01
2.191141e+02	-2.505361e+01
2.203797e+02	-2.510722e+01
2.216526e+02	-2.515258e+01
2.229329e+02	-2.520393e+01
2.242205e+02	-2.525279e+01
2.255156e+02	-2.530274e+01
2.268182e+02	-2.535322e+01
2.281283e+02	-2.540478e+01
2.294459e+02	-2.545484e+01
2.307712e+02	-2.550310e+01
2.321041e+02	-2.555416e+01
2.334447e+02	-2.560624e+01
2.347931e+02	-2.565432e+01
2.361493e+02	-2.570105e+01
2.375133e+02	-2.575213e+01
2.388851e+02	-2.580381e+01
2.402649e+02	-2.585148e+01
2.416527e+02	-2.590394e+01
2.430484e+02	-2.595441e+01
2.444523e+02	-2.600102e+01
2.458642e+02	-2.605179e+01
2.472843e+02	-2.610197e+01
2.487126e+02	-2.615678e+01
2.501492e+02	-2.620507e+01
2.515940e+02	-2.625224e+01
2.530472e+02	-2.629828e+01
2.545088e+02	-2.635416e+01
2.559789e+02	-2.640256e+01
2.574574e+02	-2.645489e+01
2.589444e+02	-2.650132e+01
2.604401e+02	-2.655356e+01
2.619444e+02	-2.660191e+01
2.634574e+02	-2.664754e+01
2.649791e+02	-2.670496e+01
2.665096e+02	-2.675088e+01
2.680489e+02	-2.680444e+01
2.695972e+02	-2.685564e+01
2.711544e+02	-2.690031e+01
2.727205e+02	-2.695299e+01
2.742958e+02	-2.700207e+01
2.758801e+02	-2.705279e+01
2.774736e+02	-2.710247e+01
2.790762e+02	-2.715398e+01
2.806882e+02	-2.720191e+01
2.823094e+02	-2.725319e+01
2.839400e+02	-2.730258e+01
2.855800e+02	-2.735336e+01
2.872295e+02	-2.740459e+01
2.888886e+02	-2.745341e+01
2.905572e+02	-2.750184e+01
2.922354e+02	-2.755537e+01
2.939234e+02	-2.760193e+01
2.956211e+02	-2.765234e+01
2.973286e+02	-2.770350e+01
2.990459e+02	-2.775734e+01
3.007732e+02	-2.780532e+01
3.025104e+02	-2.785610e+01
3.042577e+02	-2.790425e+01
3.060151e+02	-2.795652e+01
3.077826e+02	-2.800423e+01
3.095604e+02	-2.805505e+01
3.113484e+02	-2.810399e+01
3.131467e+02	-2.815568e+01
3.149554e+02	-2.820469e+01
3.167746e+02	-2.825648e+01
3.186043e+02	-2.830304e+01
3.204445e+02	-2.835291e+01
3.222954e+02	-2.840560e+01
3.241570e+02	-2.845717e+01
3.260293e+02	-2.850285e+01
3.279124e+02	-2.855084e+01
3.298064e+02	-2.860729e+01
3.317114e+02	-2.865856e+01
3.336273e+02	-2.870209e+01
3.355544e+02	-2.875634e+01
3.374925e+02	-2.879990e+01
3.394418e+02	-2.885654e+01
3.414024e+02	-2.890307e+01
3.433744e+02	-2.895249e+01
3.453577e+02	-2.900882e+01
3.473525e+02	-2.905033e+01
3.493588e+02	-2.910549e+01
3.513766e+02	-2.915365e+01
3.534062e+02	-2.920644e+01
3.554474e+02	-2.925154e+01
3.575005e+02	-2.930722e+01
3.595654e+02	-2.935444e+01
3.616422e+02	-2.940774e+01
3.637311e+02	-2.945644e+01
3.658320e+02	-2.950211e+01
3.679450e+02	-2.955558e+01
3.700702e+02	-2.960560e+01
3.722077e+02	-2.965756e+01
3.743576e+02	-2.970317e+01
3.765199e+02	-2.975443e+01
3.786946e+02	-2.980462e+01
3.808820e+02	-2.985570e+01
3.830819e+02	-2.990071e+01
3.852946e+02	-2.995315e+01
3.875200e+02	-3.001270e+01
3.897583e+02	-3.005579e+01
3.920096e+02	-3.011014e+01
3.942738e+02	-3.015815e+01
3.965511e+02	-3.020992e+01
3.988416e+02	-3.025626e+01
4.011452e+02	-3.031222e+01
4.034622e+02	-3.035660e+01
4.057926e+02	-3.040168e+01
4.081365e+02	-3.045839e+01
4.104938e+02	-3.051117e+01
4.128648e+02	-3.055241e+01
4.152495e+02	-3.060811e+01
4.176480e+02	-3.065303e+01
4.200603e+02	-3.070549e+01
4.224866e+02	-3.076032e+01
4.249268e+02	-3.080821e+01
4.273812e+02	-3.085719e+01
4.298497e+02	-3.091197e+01
4.323325e+02	-3.095680e+01
4.348297e+02	-3.100638e+01
4.373412e+02	-3.106378e+01
4.398673e+02	-3.111052e+01
4.424079e+02	-3.115655e+01
4.449633e+02	-3.121218e+01
4.475334e+02	-3.125760e+01
4.501183e+02	-3.131828e+01
4.527182e+02	-3.136168e+01
4.553330e+02	-3.140724e+01
4.579630e+02	-3.146608e+01
4.606082e+02	-3.151596e+01
4.632687e+02	-3.155854e+01
4.659445e+02	-3.160937e+01
4.686358e+02	-3.166409e+01
4.713426e+02	-3.171166e+01
4.740650e+02	-3.176285e+01
4.768032e+02	-3.180693e+01
4.795572e+02	-3.186216e+01
4.823271e+02	-3.191334e+01
4.851130e+02	-3.195848e+01
4.879150e+02	-3.200660e+01
4.907332e+02	-3.206276e+01
4.935676e+02	-3.211473e+01
4.964185e+02	-3.216503e+01
4.992858e+02	-3.221038e+01
5.021696e+02	-3.226223e+01
5.050701e+02	-3.231265e+01
5.079874e+02	-3.236465e+01
5.109215e+02	-3.241189e+01
5.138726e+02	-3.246396e+01
5.168407e+02	-3.251401e+01
5.198259e+02	-3.256371e+01
5.228284e+02	-3.261833e+01
5.258482e+02	-3.266288e+01
5.288855e+02	-3.271303e+01
5.319403e+02	-3.275935e+01
5.350128e+02	-3.281550e+01
5.381030e+02	-3.286843e+01
5.412111e+02	-3.291234e+01
5.443371e+02	-3.296227e+01
5.474812e+02	-3.301131e+01
5.506434e+02	-3.306981e+01
5.538239e+02	-3.311814e+01
5.570228e+02	-3.316892e+01
5.602401e+02	-3.321875e+01
5.634760e+02	-3.326051e+01
5.667306e+02	-3.331809e+01
5.700040e+02	-3.337400e+01
5.732964e+02	-3.342117e+01
5.766077e+02	-3.346462e+01
5.799382e+02	-3.351989e+01
5.832879e+02	-3.356114e+01
5.866569e+02	-3.362737e+01
5.900454e+02	-3.367074e+01
5.934535e+02	-3.371735e+01
5.968813e+02	-3.376949e+01
6.003288e+02	-3.382056e+01
6.037963e+02	-3.386753e+01
6.072838e+02	-3.392283e+01
6.107914e+02	-3.397500e+01
6.143194e+02	-3.401923e+01
6.178676e+02	-3.406920e+01
6.214364e+02	-3.412109e+01
6.250258e+02	-3.417970e+01
6.286359e+02	-3.421959e+01
6.322669e+02	-3.427942e+01
6.359189e+02	-3.432676e+01
6.395919e+02	-3.436845e+01
6.432862e+02	-3.441884e+01
6.470017e+02	-3.447258e+01
6.507388e+02	-3.452886e+01
6.544974e+02	-3.457724e+01
6.582778e+02	-3.462738e+01
6.620800e+02	-3.467268e+01
6.659041e+02	-3.473013e+01
6.697504e+02	-3.478185e+01
6.736188e+02	-3.482402e+01
6.775096e+02	-3.487694e+01
6.814229e+02	-3.493167e+01
6.853587e+02	-3.497557e+01
6.893173e+02	-3.502934e+01
6.932988e+02	-3.508226e+01
6.973033e+02	-3.513124e+01
7.013309e+02	-3.517974e+01
