Frequency(Hz)	Magnitude(dB)
1.000000e+01	-2.177391e+00
1.005776e+01	-2.197005e+00
1.011585e+01	-2.217018e+00
1.017428e+01	-2.237104e+00
1.023305e+01	-2.257332e+00
1.029215e+01	-2.277596e+00
1.035160e+01	-2.298114e+00
1.041139e+01	-2.319038e+00
1.047153e+01	-2.339501e+00
1.053201e+01	-2.360455e+00
1.059284e+01	-2.381549e+00
1.065403e+01	-2.402689e+00
1.071556e+01	-2.423811e+00
1.077746e+01	-2.445530e+00
1.083971e+01	-2.467279e+00
1.090232e+01	-2.488717e+00
1.096529e+01	-2.510643e+00
1.102862e+01	-2.532836e+00
1.109232e+01	-2.554725e+00
1.115639e+01	-2.577209e+00
1.122083e+01	-2.599539e+00
1.128564e+01	-2.622342e+00
1.135083e+01	-2.645077e+00
1.141639e+01	-2.667888e+00
1.148233e+01	-2.691098e+00
1.154865e+01	-2.714114e+00
1.161536e+01	-2.737556e+00
1.168245e+01	-2.760918e+00
1.174992e+01	-2.784377e+00
1.181779e+01	-2.808345e+00
1.188605e+01	-2.832084e+00
1.195470e+01	-2.856153e+00
1.202375e+01	-2.880435e+00
1.209320e+01	-2.904893e+00
1.216305e+01	-2.929065e+00
1.223330e+01	-2.953623e+00
1.230396e+01	-2.978510e+00
1.237503e+01	-3.003258e+00
1.244651e+01	-3.028645e+00
1.251840e+01	-3.053363e+00
1.259070e+01	-3.079029e+00
1.266343e+01	-3.104395e+00
1.273657e+01	-3.129979e+00
1.281014e+01	-3.155701e+00
1.288413e+01	-3.181750e+00
1.295855e+01	-3.207532e+00
1.303339e+01	-3.234000e+00
1.310867e+01	-3.260340e+00
1.318439e+01	-3.286780e+00
1.326054e+01	-3.313593e+00
1.333713e+01	-3.340219e+00
1.341417e+01	-3.367141e+00
1.349165e+01	-3.394177e+00
1.356958e+01	-3.421483e+00
1.364795e+01	-3.448583e+00
1.372678e+01	-3.476526e+00
1.380607e+01	-3.504028e+00
1.388581e+01	-3.531676e+00
1.396602e+01	-3.559525e+00
1.404668e+01	-3.587605e+00
1.412782e+01	-3.615822e+00
1.420942e+01	-3.644245e+00
1.429149e+01	-3.672635e+00
1.437404e+01	-3.701237e+00
1.445706e+01	-3.730132e+00
1.454057e+01	-3.758894e+00
1.462455e+01	-3.787676e+00
1.470902e+01	-3.817471e+00
1.479398e+01	-3.846510e+00
1.487943e+01	-3.875846e+00
1.496537e+01	-3.905681e+00
1.505181e+01	-3.935266e+00
1.513875e+01	-3.964971e+00
1.522619e+01	-3.995284e+00
1.531414e+01	-4.025184e+00
1.540259e+01	-4.055620e+00
1.549156e+01	-4.086151e+00
1.558103e+01	-4.116806e+00
1.567103e+01	-4.147124e+00
1.576155e+01	-4.178130e+00
1.585258e+01	-4.208970e+00
1.594415e+01	-4.240368e+00
1.603624e+01	-4.271324e+00
1.612886e+01	-4.303135e+00
1.622202e+01	-4.334179e+00
1.631572e+01	-4.365879e+00
1.640996e+01	-4.397816e+00
1.650474e+01	-4.430007e+00
1.660008e+01	-4.462041e+00
1.669596e+01	-4.494044e+00
1.679239e+01	-4.526418e+00
1.688938e+01	-4.558697e+00
1.698694e+01	-4.591404e+00
1.708505e+01	-4.623822e+00
1.718373e+01	-4.657056e+00
1.728299e+01	-4.689968e+00
1.738281e+01	-4.722960e+00
1.748322e+01	-4.756083e+00
1.758420e+01	-4.789556e+00
1.768576e+01	-4.822820e+00
1.778792e+01	-4.856815e+00
1.789066e+01	-4.890482e+00
1.799399e+01	-4.924475e+00
1.809793e+01	-4.958295e+00
1.820246e+01	-4.992292e+00
1.830760e+01	-5.026755e+00
1.841334e+01	-5.061007e+00
1.851969e+01	-5.095650e+00
1.862666e+01	-5.130094e+00
1.873425e+01	-5.164884e+00
1.884246e+01	-5.199450e+00
1.895129e+01	-5.234757e+00
1.906075e+01	-5.269885e+00
1.917085e+01	-5.305047e+00
1.928158e+01	-5.340228e+00
1.939295e+01	-5.375801e+00
1.950496e+01	-5.411204e+00
1.961762e+01	-5.447116e+00
1.973093e+01	-5.482648e+00
1.984490e+01	-5.518569e+00
1.995952e+01	-5.554883e+00
2.007480e+01	-5.590709e+00
2.019076e+01	-5.627108e+00
2.030738e+01	-5.663602e+00
2.042467e+01	-5.700166e+00
2.054264e+01	-5.736985e+00
2.066130e+01	-5.773634e+00
2.078064e+01	-5.810054e+00
2.090066e+01	-5.847132e+00
2.102139e+01	-5.884380e+00
2.114280e+01	-5.921424e+00
2.126492e+01	-5.958799e+00
2.138775e+01	-5.996404e+00
2.151128e+01	-6.033817e+00
2.163553e+01	-6.071354e+00
2.176050e+01	-6.109316e+00
2.188619e+01	-6.147233e+00
2.201260e+01	-6.184957e+00
2.213974e+01	-6.222729e+00
2.226762e+01	-6.260883e+00
2.239624e+01	-6.299234e+00
2.252560e+01	-6.337482e+00
2.265571e+01	-6.376247e+00
2.278656e+01	-6.414489e+00
2.291818e+01	-6.453254e+00
2.305055e+01	-6.491891e+00
2.318369e+01	-6.531091e+00
2.331760e+01	-6.569654e+00
2.345228e+01	-6.608850e+00
2.358774e+01	-6.648050e+00
2.372398e+01	-6.687346e+00
2.386101e+01	-6.726465e+00
2.399883e+01	-6.766029e+00
2.413745e+01	-6.805343e+00
2.427686e+01	-6.845192e+00
2.441709e+01	-6.884759e+00
2.455812e+01	-6.924622e+00
2.469997e+01	-6.964782e+00
2.484263e+01	-7.004979e+00
2.498612e+01	-7.044703e+00
2.513044e+01	-7.084588e+00
2.527559e+01	-7.125454e+00
2.542158e+01	-7.165700e+00
2.556842e+01	-7.206232e+00
2.571610e+01	-7.246454e+00
2.586463e+01	-7.287263e+00
2.601403e+01	-7.328176e+00
2.616428e+01	-7.369133e+00
2.631541e+01	-7.409804e+00
2.646740e+01	-7.450601e+00
2.662028e+01	-7.491817e+00
2.677404e+01	-7.533071e+00
2.692868e+01	-7.574112e+00
2.708422e+01	-7.615386e+00
2.724066e+01	-7.657372e+00
2.739800e+01	-7.698653e+00
2.755625e+01	-7.740056e+00
2.771541e+01	-7.781582e+00
2.787550e+01	-7.823251e+00
2.803650e+01	-7.865248e+00
2.819844e+01	-7.907144e+00
2.836131e+01	-7.949285e+00
2.852513e+01	-7.991457e+00
2.868989e+01	-8.033613e+00
2.885560e+01	-8.075172e+00
2.902227e+01	-8.117306e+00
2.918990e+01	-8.160024e+00
2.935850e+01	-8.202693e+00
2.952807e+01	-8.245430e+00
2.969863e+01	-8.287652e+00
2.987016e+01	-8.330291e+00
3.004269e+01	-8.372958e+00
3.021622e+01	-8.415543e+00
3.039075e+01	-8.458375e+00
3.056628e+01	-8.501458e+00
3.074283e+01	-8.544187e+00
3.092040e+01	-8.587077e+00
3.109900e+01	-8.630165e+00
3.127862e+01	-8.673901e+00
3.145929e+01	-8.716920e+00
3.164099e+01	-8.760134e+00
3.182375e+01	-8.803615e+00
3.200756e+01	-8.847251e+00
3.219244e+01	-8.891108e+00
3.237838e+01	-8.934083e+00
3.256540e+01	-8.978263e+00
3.275349e+01	-9.021785e+00
3.294268e+01	-9.065556e+00
3.313295e+01	-9.109859e+00
3.332433e+01	-9.153197e+00
3.351681e+01	-9.197653e+00
3.371040e+01	-9.241492e+00
3.390511e+01	-9.285706e+00
3.410094e+01	-9.329595e+00
3.429791e+01	-9.374096e+00
3.449601e+01	-9.418186e+00
3.469526e+01	-9.462537e+00
3.489566e+01	-9.507134e+00
3.509721e+01	-9.551141e+00
3.529993e+01	-9.595809e+00
3.550382e+01	-9.640247e+00
3.570889e+01	-9.684997e+00
3.591515e+01	-9.729863e+00
3.612259e+01	-9.774525e+00
3.633123e+01	-9.818849e+00
3.654108e+01	-9.864290e+00
3.675214e+01	-9.909075e+00
3.696442e+01	-9.953830e+00
3.717792e+01	-9.999102e+00
3.739266e+01	-1.004421e+01
3.760864e+01	-1.008927e+01
3.782587e+01	-1.013415e+01
3.804435e+01	-1.017941e+01
3.826409e+01	-1.022451e+01
3.848510e+01	-1.027006e+01
3.870739e+01	-1.031535e+01
3.893096e+01	-1.036079e+01
3.915583e+01	-1.040583e+01
3.938199e+01	-1.045138e+01
3.960946e+01	-1.049694e+01
3.983824e+01	-1.054271e+01
4.006834e+01	-1.058829e+01
4.029978e+01	-1.063385e+01
4.053255e+01	-1.067994e+01
4.076666e+01	-1.072552e+01
4.100213e+01	-1.077196e+01
4.123896e+01	-1.081688e+01
4.147715e+01	-1.086323e+01
4.171672e+01	-1.090924e+01
4.195767e+01	-1.095500e+01
4.220002e+01	-1.100125e+01
4.244377e+01	-1.104728e+01
4.268892e+01	-1.109296e+01
4.293549e+01	-1.113923e+01
4.318348e+01	-1.118562e+01
4.343291e+01	-1.123178e+01
4.368377e+01	-1.127793e+01
4.393609e+01	-1.132495e+01
4.418986e+01	-1.137054e+01
4.444510e+01	-1.141738e+01
4.470182e+01	-1.146402e+01
4.496001e+01	-1.151017e+01
4.521970e+01	-1.155637e+01
4.548089e+01	-1.160355e+01
4.574358e+01	-1.164938e+01
4.600779e+01	-1.169696e+01
4.627353e+01	-1.174300e+01
4.654081e+01	-1.178941e+01
4.680963e+01	-1.183596e+01
4.708000e+01	-1.188330e+01
4.735193e+01	-1.193014e+01
4.762543e+01	-1.197720e+01
4.790051e+01	-1.202404e+01
4.817719e+01	-1.207066e+01
4.845545e+01	-1.211796e+01
4.873533e+01	-1.216410e+01
4.901682e+01	-1.221191e+01
4.929994e+01	-1.225867e+01
4.958470e+01	-1.230550e+01
4.987110e+01	-1.235329e+01
5.015915e+01	-1.240008e+01
5.044887e+01	-1.244710e+01
5.074026e+01	-1.249387e+01
5.103333e+01	-1.254174e+01
5.132810e+01	-1.258884e+01
5.162457e+01	-1.263588e+01
5.192275e+01	-1.268345e+01
5.222265e+01	-1.273003e+01
5.252429e+01	-1.277787e+01
5.282767e+01	-1.282593e+01
5.313280e+01	-1.287275e+01
5.343969e+01	-1.292098e+01
5.374836e+01	-1.296731e+01
5.405880e+01	-1.301548e+01
5.437105e+01	-1.306285e+01
5.468509e+01	-1.310992e+01
5.500095e+01	-1.315811e+01
5.531863e+01	-1.320574e+01
5.563815e+01	-1.325301e+01
5.595951e+01	-1.330059e+01
5.628273e+01	-1.334879e+01
5.660782e+01	-1.339595e+01
5.693479e+01	-1.344439e+01
5.726364e+01	-1.349143e+01
5.759439e+01	-1.353922e+01
5.792705e+01	-1.358762e+01
5.826164e+01	-1.363543e+01
5.859815e+01	-1.368268e+01
5.893662e+01	-1.373030e+01
5.927703e+01	-1.377928e+01
5.961941e+01	-1.382721e+01
5.996377e+01	-1.387543e+01
6.031012e+01	-1.392246e+01
6.065847e+01	-1.397141e+01
6.100883e+01	-1.401845e+01
6.136121e+01	-1.406669e+01
6.171563e+01	-1.411564e+01
6.207210e+01	-1.416366e+01
6.243063e+01	-1.421154e+01
6.279122e+01	-1.425885e+01
6.315390e+01	-1.430755e+01
6.351868e+01	-1.435584e+01
6.388556e+01	-1.440470e+01
6.425456e+01	-1.445204e+01
6.462569e+01	-1.450013e+01
6.499897e+01	-1.454933e+01
6.537440e+01	-1.459775e+01
6.575200e+01	-1.464541e+01
6.613178e+01	-1.469471e+01
6.651375e+01	-1.474108e+01
6.689793e+01	-1.479006e+01
6.728433e+01	-1.483922e+01
6.767297e+01	-1.488697e+01
6.806384e+01	-1.493569e+01
6.845698e+01	-1.498411e+01
6.885238e+01	-1.503275e+01
6.925007e+01	-1.508103e+01
6.965005e+01	-1.512898e+01
7.005235e+01	-1.517780e+01
7.045697e+01	-1.522652e+01
7.086393e+01	-1.527471e+01
7.127323e+01	-1.532227e+01
7.168490e+01	-1.537221e+01
7.209895e+01	-1.542106e+01
7.251539e+01	-1.546879e+01
7.293424e+01	-1.551773e+01
7.335551e+01	-1.556818e+01
7.377920e+01	-1.561554e+01
7.420535e+01	-1.566352e+01
7.463396e+01	-1.571304e+01
7.506504e+01	-1.576149e+01
7.549861e+01	-1.581036e+01
7.593469e+01	-1.585903e+01
7.637328e+01	-1.590745e+01
7.681441e+01	-1.595608e+01
7.725809e+01	-1.600468e+01
7.770433e+01	-1.605405e+01
7.815315e+01	-1.610317e+01
7.860456e+01	-1.615282e+01
7.905857e+01	-1.619981e+01
7.951521e+01	-1.624951e+01
7.997449e+01	-1.629784e+01
8.043642e+01	-1.634536e+01
8.090102e+01	-1.639578e+01
8.136830e+01	-1.644485e+01
8.183828e+01	-1.649279e+01
8.231097e+01	-1.654270e+01
8.278640e+01	-1.659152e+01
8.326457e+01	-1.664053e+01
8.374550e+01	-1.668777e+01
8.422921e+01	-1.673892e+01
8.471572e+01	-1.678693e+01
8.520503e+01	-1.683651e+01
8.569717e+01	-1.688478e+01
8.619215e+01	-1.693327e+01
8.669000e+01	-1.698339e+01
8.719071e+01	-1.703235e+01
8.769432e+01	-1.708101e+01
8.820084e+01	-1.712996e+01
8.871029e+01	-1.717949e+01
8.922267e+01	-1.722856e+01
8.973802e+01	-1.727721e+01
9.025634e+01	-1.732753e+01
9.077766e+01	-1.737577e+01
9.130199e+01	-1.742455e+01
9.182935e+01	-1.747420e+01
9.235975e+01	-1.752224e+01
9.289321e+01	-1.757229e+01
9.342976e+01	-1.762172e+01
9.396941e+01	-1.767006e+01
9.451217e+01	-1.772046e+01
9.505807e+01	-1.776892e+01
9.560712e+01	-1.781823e+01
9.615934e+01	-1.786646e+01
9.671476e+01	-1.791657e+01
9.727338e+01	-1.796552e+01
9.783522e+01	-1.801464e+01
9.840032e+01	-1.806365e+01
9.896867e+01	-1.811469e+01
9.954031e+01	-1.816237e+01
1.001153e+02	-1.821164e+01
1.006935e+02	-1.826074e+01
1.012751e+02	-1.831105e+01
1.018601e+02	-1.836087e+01
1.024484e+02	-1.840863e+01
1.030402e+02	-1.845761e+01
1.036353e+02	-1.850719e+01
1.042339e+02	-1.855634e+01
1.048360e+02	-1.860720e+01
1.054415e+02	-1.865583e+01
1.060505e+02	-1.870470e+01
1.066631e+02	-1.875527e+01
1.072791e+02	-1.880297e+01
1.078988e+02	-1.885256e+01
1.085220e+02	-1.890185e+01
1.091488e+02	-1.895238e+01
1.097793e+02	-1.900213e+01
1.104133e+02	-1.905072e+01
1.110511e+02	-1.909974e+01
1.116925e+02	-1.915022e+01
1.123376e+02	-1.920001e+01
1.129865e+02	-1.924894e+01
1.136391e+02	-1.929855e+01
1.142955e+02	-1.934807e+01
1.149556e+02	-1.939790e+01
1.156196e+02	-1.944679e+01
1.162874e+02	-1.949602e+01
1.169591e+02	-1.954632e+01
1.176347e+02	-1.959462e+01
1.183141e+02	-1.964395e+01
1.189975e+02	-1.969423e+01
1.196848e+02	-1.974297e+01
1.203761e+02	-1.979399e+01
1.210714e+02	-1.984138e+01
1.217707e+02	-1.989230e+01
1.224740e+02	-1.994212e+01
1.231814e+02	-1.999214e+01
1.238929e+02	-2.004079e+01
1.246085e+02	-2.009107e+01
1.253283e+02	-2.013937e+01
1.260522e+02	-2.018873e+01
1.267802e+02	-2.023804e+01
1.275125e+02	-2.028831e+01
1.282490e+02	-2.033761e+01
1.289898e+02	-2.038761e+01
1.297348e+02	-2.043679e+01
1.304842e+02	-2.048845e+01
1.312378e+02	-2.053460e+01
1.319959e+02	-2.058520e+01
1.327583e+02	-2.063710e+01
1.335251e+02	-2.068503e+01
1.342963e+02	-2.073481e+01
1.350720e+02	-2.078327e+01
1.358522e+02	-2.083484e+01
1.366368e+02	-2.088482e+01
1.374260e+02	-2.093268e+01
1.382198e+02	-2.098160e+01
1.390182e+02	-2.103096e+01
1.398211e+02	-2.108255e+01
1.406287e+02	-2.113168e+01
1.414410e+02	-2.118102e+01
1.422579e+02	-2.123198e+01
1.430796e+02	-2.128057e+01
1.439060e+02	-2.132946e+01
1.447372e+02	-2.138167e+01
1.455732e+02	-2.142975e+01
1.464141e+02	-2.148000e+01
1.472597e+02	-2.152910e+01
1.481103e+02	-2.157815e+01
1.489658e+02	-2.162809e+01
1.498262e+02	-2.167703e+01
1.506916e+02	-2.172930e+01
1.515620e+02	-2.177793e+01
1.524374e+02	-2.182669e+01
1.533179e+02	-2.187744e+01
1.542034e+02	-2.192780e+01
1.550941e+02	-2.197629e+01
1.559899e+02	-2.202713e+01
1.568909e+02	-2.207303e+01
1.577971e+02	-2.212561e+01
1.587085e+02	-2.217423e+01
1.596252e+02	-2.222584e+01
1.605472e+02	-2.227453e+01
1.614745e+02	-2.232284e+01
1.624072e+02	-2.237373e+01
1.633453e+02	-2.242388e+01
1.642887e+02	-2.247394e+01
1.652377e+02	-2.252032e+01
1.661921e+02	-2.257378e+01
1.671520e+02	-2.262435e+01
1.681175e+02	-2.267198e+01
1.690885e+02	-2.272217e+01
1.700651e+02	-2.277315e+01
1.710474e+02	-2.282252e+01
1.720354e+02	-2.287117e+01
1.730291e+02	-2.292001e+01
1.740285e+02	-2.297244e+01
1.750337e+02	-2.302048e+01
1.760446e+02	-2.307121e+01
1.770615e+02	-2.312155e+01
1.780842e+02	-2.316959e+01
1.791128e+02	-2.322041e+01
1.801473e+02	-2.327199e+01
1.811878e+02	-2.331979e+01
1.822344e+02	-2.337162e+01
1.832870e+02	-2.341942e+01
1.843456e+02	-2.346898e+01
1.854104e+02	-2.351744e+01
1.864813e+02	-2.356815e+01
1.875584e+02	-2.362028e+01
1.886418e+02	-2.366803e+01
1.897313e+02	-2.371795e+01
1.908272e+02	-2.376922e+01
1.919294e+02	-2.381971e+01
1.930380e+02	-2.386781e+01
1.941530e+02	-2.392058e+01
1.952744e+02	-2.396834e+01
1.964023e+02	-2.401799e+01
1.975367e+02	-2.406829e+01
1.986777e+02	-2.411752e+01
1.998252e+02	-2.416928e+01
2.009794e+02	-2.421730e+01
2.021403e+02	-2.426856e+01
2.033078e+02	-2.431799e+01
2.044821e+02	-2.436910e+01
2.056632e+02	-2.441616e+01
2.068511e+02	-2.446636e+01
2.080459e+02	-2.451705e+01
2.092475e+02	-2.456630e+01
2.104561e+02	-2.461837e+01
2.116717e+02	-2.466860e+01
2.128943e+02	-2.471665e+01
2.141240e+02	-2.476591e+01
2.153608e+02	-2.481486e+01
2.166047e+02	-2.486658e+01
2.178558e+02	-2.491587e+01
2.191141e+02	-2.496702e+01
2.203797e+02	-2.501497e+01
2.216526e+02	-2.506491e+01
2.229329e+02	-2.511730e+01
2.242205e+02	-2.516695e+01
2.255156e+02	-2.521391e+01
2.268182e+02	-2.526729e+01
2.281283e+02	-2.531441e+01
2.294459e+02	-2.536475e+01
2.307712e+02	-2.541451e+01
2.321041e+02	-2.546574e+01
2.334447e+02	-2.551494e+01
2.347931e+02	-2.556638e+01
2.361493e+02	-2.561579e+01
2.375133e+02	-2.566514e+01
2.388851e+02	-2.571347e+01
2.402649e+02	-2.576505e+01
2.416527e+02	-2.581408e+01
2.430484e+02	-2.586541e+01
2.444523e+02	-2.591580e+01
2.458642e+02	-2.596412e+01
2.472843e+02	-2.601258e+01
2.487126e+02	-2.606710e+01
2.501492e+02	-2.611350e+01
2.515940e+02	-2.616672e+01
2.530472e+02	-2.621471e+01
2.545088e+02	-2.626600e+01
2.559789e+02	-2.631449e+01
2.574574e+02	-2.636342e+01
2.589444e+02	-2.641451e+01
2.604401e+02	-2.646201e+01
2.619444e+02	-2.651344e+01
2.634574e+02	-2.656420e+01
2.649791e+02	-2.661191e+01
2.665096e+02	-2.666263e+01
2.680489e+02	-2.671435e+01
2.695972e+02	-2.676742e+01
2.711544e+02	-2.681837e+01
2.727205e+02	-2.686515e+01
2.742958e+02	-2.691269e+01
2.758801e+02	-2.696067e+01
2.774736e+02	-2.701454e+01
2.790762e+02	-2.706142e+01
2.806882e+02	-2.711750e+01
2.823094e+02	-2.716548e+01
2.839400e+02	-2.721370e+01
2.855800e+02	-2.726142e+01
2.872295e+02	-2.731478e+01
2.888886e+02	-2.736486e+01
2.905572e+02	-2.741164e+01
2.922354e+02	-2.746360e+01
2.939234e+02	-2.751356e+01
2.956211e+02	-2.756280e+01
2.973286e+02	-2.761210e+01
2.990459e+02	-2.766409e+01
3.007732e+02	-2.771722e+01
3.025104e+02	-2.776045e+01
3.042577e+02	-2.781389e+01
3.060151e+02	-2.786370e+01
3.077826e+02	-2.791222e+01
3.095604e+02	-2.796204e+01
3.113484e+02	-2.801272e+01
3.131467e+02	-2.806338e+01
3.149554e+02	-2.811190e+01
3.167746e+02	-2.816377e+01
3.186043e+02	-2.821175e+01
3.204445e+02	-2.826437e+01
3.222954e+02	-2.831274e+01
3.241570e+02	-2.836483e+01
3.260293e+02	-2.841702e+01
3.279124e+02	-2.846537e+01
3.298064e+02	-2.851254e+01
3.317114e+02	-2.855988e+01
3.336273e+02	-2.861140e+01
3.355544e+02	-2.866047e+01
3.374925e+02	-2.871486e+01
3.394418e+02	-2.876647e+01
3.414024e+02	-2.881482e+01
3.433744e+02	-2.886434e+01
3.453577e+02	-2.891410e+01
3.473525e+02	-2.896620e+01
3.493588e+02	-2.901429e+01
3.513766e+02	-2.906687e+01
3.534062e+02	-2.911685e+01
3.554474e+02	-2.916443e+01
3.575005e+02	-2.921549e+01
3.595654e+02	-2.926582e+01
3.616422e+02	-2.931933e+01
3.637311e+02	-2.936511e+01
3.658320e+02	-2.941499e+01
3.679450e+02	-2.946531e+01
3.700702e+02	-2.951607e+01
3.722077e+02	-2.956845e+01
3.743576e+02	-2.961004e+01
3.765199e+02	-2.966988e+01
3.786946e+02	-2.971649e+01
3.808820e+02	-2.976303e+01
3.830819e+02	-2.981696e+01
3.852946e+02	-2.986348e+01
3.875200e+02	-2.991672e+01
3.897583e+02	-2.996434e+01
3.920096e+02	-3.001516e+01
3.942738e+02	-3.006006e+01
3.965511e+02	-3.011732e+01
3.988416e+02	-3.016421e+01
4.011452e+02	-3.021664e+01
4.034622e+02	-3.026638e+01
4.057926e+02	-3.032120e+01
4.081365e+02	-3.036803e+01
4.104938e+02	-3.041562e+01
4.128648e+02	-3.046739e+01
4.152495e+02	-3.051454e+01
4.176480e+02	-3.057089e+01
4.200603e+02	-3.061780e+01
4.224866e+02	-3.066732e+01
4.249268e+02	-3.071504e+01
4.273812e+02	-3.077109e+01
4.298497e+02	-3.081577e+01
4.323325e+02	-3.086440e+01
4.348297e+02	-3.091883e+01
4.373412e+02	-3.096676e+01
4.398673e+02	-3.102048e+01
4.424079e+02	-3.106941e+01
4.449633e+02	-3.111379e+01
4.475334e+02	-3.117047e+01
4.501183e+02	-3.121996e+01
4.527182e+02	-3.127028e+01
4.553330e+02	-3.132145e+01
4.579630e+02	-3.137154e+01
4.606082e+02	-3.141555e+01
4.632687e+02	-3.147083e+01
4.659445e+02	-3.151439e+01
4.686358e+02	-3.156714e+01
4.713426e+02	-3.161598e+01
4.740650e+02	-3.166615e+01
4.768032e+02	-3.171355e+01
4.795572e+02	-3.177245e+01
4.823271e+02	-3.181852e+01
4.851130e+02	-3.186770e+01
4.879150e+02	-3.192229e+01
4.907332e+02	-3.197006e+01
4.935676e+02	-3.202412e+01
4.964185e+02	-3.207673e+01
4.992858e+02	-3.212636e+01
5.021696e+02	-3.216933e+01
5.050701e+02	-3.222153e+01
5.079874e+02	-3.227173e+01
5.109215e+02	-3.231771e+01
5.138726e+02	-3.236689e+01
5.168407e+02	-3.242639e+01
5.198259e+02	-3.247361e+01
5.228284e+02	-3.251809e+01
5.258482e+02	-3.257526e+01
5.288855e+02	-3.262495e+01
5.319403e+02	-3.267180e+01
5.350128e+02	-3.272246e+01
5.381030e+02	-3.277409e+01
5.412111e+02	-3.282458e+01
5.443371e+02	-3.287547e+01
5.474812e+02	-3.291679e+01
5.506434e+02	-3.297736e+01
5.538239e+02	-3.303058e+01
5.570228e+02	-3.307494e+01
5.602401e+02	-3.312305e+01
5.634760e+02	-3.318390e+01
5.667306e+02	-3.322842e+01
5.700040e+02	-3.327471e+01
5.732964e+02	-3.333385e+01
5.766077e+02	-3.337619e+01
5.799382e+02	-3.343267e+01
5.832879e+02	-3.347585e+01
5.866569e+02	-3.353101e+01
5.900454e+02	-3.357575e+01
5.934535e+02	-3.362532e+01
5.968813e+02	-3.367819e+01
6.003288e+02	-3.372486e+01
6.037963e+02	-3.377661e+01
6.072838e+02	-3.382877e+01
6.107914e+02	-3.387664e+01
6.143194e+02	-3.393940e+01
6.178676e+02	-3.397603e+01
6.214364e+02	-3.403454e+01
6.250258e+02	-3.407392e+01
6.286359e+02	-3.412776e+01
6.322669e+02	-3.417640e+01
6.359189e+02	-3.423381e+01
6.395919e+02	-3.427728e+01
6.432862e+02	-3.433176e+01
6.470017e+02	-3.438141e+01
6.507388e+02	-3.443203e+01
6.544974e+02	-3.448113e+01
6.582778e+02	-3.453431e+01
6.620800e+02	-3.458610e+01
6.659041e+02	-3.462839e+01
6.697504e+02	-3.468267e+01
6.736188e+02	-3.472668e+01
6.775096e+02	-3.478803e+01
6.814229e+02	-3.483460e+01
6.853587e+02	-3.488959e+01
6.893173e+02	-3.493924e+01
6.932988e+02	-3.498565e+01
6.973033e+02	-3.504057e+01
7.013309e+02	-3.508945e+01
