Frequency(Hz)	Magnitude(dB)
1.000000e+01	-2.225085e+00
1.005776e+01	-2.245252e+00
1.011585e+01	-2.265476e+00
1.017428e+01	-2.285853e+00
1.023305e+01	-2.306649e+00
1.029215e+01	-2.327205e+00
1.035160e+01	-2.347671e+00
1.041139e+01	-2.368872e+00
1.047153e+01	-2.390072e+00
1.053201e+01	-2.411188e+00
1.059284e+01	-2.432457e+00
1.065403e+01	-2.454188e+00
1.071556e+01	-2.475880e+00
1.077746e+01	-2.497636e+00
1.083971e+01	-2.519473e+00
1.090232e+01	-2.541753e+00
1.096529e+01	-2.563993e+00
1.102862e+01	-2.586300e+00
1.109232e+01	-2.608858e+00
1.115639e+01	-2.631490e+00
1.122083e+01	-2.654369e+00
1.128564e+01	-2.677161e+00
1.135083e+01	-2.700302e+00
1.141639e+01	-2.723499e+00
1.148233e+01	-2.746952e+00
1.154865e+01	-2.770408e+00
1.161536e+01	-2.794024e+00
1.168245e+01	-2.818218e+00
1.174992e+01	-2.841868e+00
1.181779e+01	-2.865948e+00
1.188605e+01	-2.890196e+00
1.195470e+01	-2.914523e+00
1.202375e+01	-2.939105e+00
1.209320e+01	-2.963790e+00
1.216305e+01	-2.988669e+00
1.223330e+01	-3.013407e+00
1.230396e+01	-3.038766e+00
1.237503e+01	-3.063771e+00
1.244651e+01	-3.089247e+00
1.251840e+01	-3.114719e+00
1.259070e+01	-3.140390e+00
1.266343e+01	-3.166304e+00
1.273657e+01	-3.192324e+00
1.281014e+01	-3.218408e+00
1.288413e+01	-3.244727e+00
1.295855e+01	-3.271183e+00
1.303339e+01	-3.297535e+00
1.310867e+01	-3.324474e+00
1.318439e+01	-3.351103e+00
1.326054e+01	-3.377840e+00
1.333713e+01	-3.405389e+00
1.341417e+01	-3.432520e+00
1.349165e+01	-3.459834e+00
1.356958e+01	-3.487413e+00
1.364795e+01	-3.515085e+00
1.372678e+01	-3.542879e+00
1.380607e+01	-3.570788e+00
1.388581e+01	-3.598993e+00
1.396602e+01	-3.627417e+00
1.404668e+01	-3.655772e+00
1.412782e+01	-3.683907e+00
1.420942e+01	-3.712532e+00
1.429149e+01	-3.741696e+00
1.437404e+01	-3.770566e+00
1.445706e+01	-3.799983e+00
1.454057e+01	-3.828990e+00
1.462455e+01	-3.858329e+00
1.470902e+01	-3.888012e+00
1.479398e+01	-3.917305e+00
1.487943e+01	-3.947215e+00
1.496537e+01	-3.977199e+00
1.505181e+01	-4.007474e+00
1.513875e+01	-4.037509e+00
1.522619e+01	-4.067921e+00
1.531414e+01	-4.098140e+00
1.540259e+01	-4.128907e+00
1.549156e+01	-4.159743e+00
1.558103e+01	-4.190637e+00
1.567103e+01	-4.221840e+00
1.576155e+01	-4.252926e+00
1.585258e+01	-4.284270e+00
1.594415e+01	-4.316028e+00
1.603624e+01	-4.347267e+00
1.612886e+01	-4.378876e+00
1.622202e+01	-4.410863e+00
1.631572e+01	-4.442656e+00
1.640996e+01	-4.474765e+00
1.650474e+01	-4.507256e+00
1.660008e+01	-4.539292e+00
1.669596e+01	-4.572226e+00
1.679239e+01	-4.604604e+00
1.688938e+01	-4.637107e+00
1.698694e+01	-4.670155e+00
1.708505e+01	-4.703209e+00
1.718373e+01	-4.736229e+00
1.728299e+01	-4.769762e+00
1.738281e+01	-4.803453e+00
1.748322e+01	-4.836386e+00
1.758420e+01	-4.870064e+00
1.768576e+01	-4.903852e+00
1.778792e+01	-4.937789e+00
1.789066e+01	-4.971994e+00
1.799399e+01	-5.006232e+00
1.809793e+01	-5.040480e+00
1.820246e+01	-5.075011e+00
1.830760e+01	-5.109553e+00
1.841334e+01	-5.144137e+00
1.851969e+01	-5.178890e+00
1.862666e+01	-5.213688e+00
1.873425e+01	-5.248736e+00
1.884246e+01	-5.284059e+00
1.895129e+01	-5.319469e+00
1.906075e+01	-5.354724e+00
1.917085e+01	-5.390133e+00
1.928158e+01	-5.425753e+00
1.939295e+01	-5.461613e+00
1.950496e+01	-5.497550e+00
1.961762e+01	-5.533565e+00
1.973093e+01	-5.569552e+00
1.984490e+01	-5.605606e+00
1.995952e+01	-5.641868e+00
2.007480e+01	-5.678524e+00
2.019076e+01	-5.714778e+00
2.030738e+01	-5.751540e+00
2.042467e+01	-5.788274e+00
2.054264e+01	-5.825316e+00
2.066130e+01	-5.862476e+00
2.078064e+01	-5.899099e+00
2.090066e+01	-5.936348e+00
2.102139e+01	-5.973780e+00
2.114280e+01	-6.011318e+00
2.126492e+01	-6.048823e+00
2.138775e+01	-6.086644e+00
2.151128e+01	-6.124048e+00
2.163553e+01	-6.162177e+00
2.176050e+01	-6.200032e+00
2.188619e+01	-6.238249e+00
2.201260e+01	-6.276352e+00
2.213974e+01	-6.314673e+00
2.226762e+01	-6.353034e+00
2.239624e+01	-6.391524e+00
2.252560e+01	-6.430344e+00
2.265571e+01	-6.468870e+00
2.278656e+01	-6.507897e+00
2.291818e+01	-6.546501e+00
2.305055e+01	-6.585377e+00
2.318369e+01	-6.624811e+00
2.331760e+01	-6.663756e+00
2.345228e+01	-6.702789e+00
2.358774e+01	-6.742488e+00
2.372398e+01	-6.782060e+00
2.386101e+01	-6.821843e+00
2.399883e+01	-6.861768e+00
2.413745e+01	-6.901126e+00
2.427686e+01	-6.941214e+00
2.441709e+01	-6.980922e+00
2.455812e+01	-7.021030e+00
2.469997e+01	-7.061064e+00
2.484263e+01	-7.101302e+00
2.498612e+01	-7.141651e+00
2.513044e+01	-7.182259e+00
2.527559e+01	-7.222805e+00
2.542158e+01	-7.262955e+00
2.556842e+01	-7.303542e+00
2.571610e+01	-7.344430e+00
2.586463e+01	-7.385580e+00
2.601403e+01	-7.426146e+00
2.616428e+01	-7.467356e+00
2.631541e+01	-7.508336e+00
2.646740e+01	-7.549706e+00
2.662028e+01	-7.590958e+00
2.677404e+01	-7.632782e+00
2.692868e+01	-7.673679e+00
2.708422e+01	-7.714988e+00
2.724066e+01	-7.756661e+00
2.739800e+01	-7.798650e+00
2.755625e+01	-7.840566e+00
2.771541e+01	-7.882336e+00
2.787550e+01	-7.924029e+00
2.803650e+01	-7.965635e+00
2.819844e+01	-8.007909e+00
2.836131e+01	-8.050340e+00
2.852513e+01	-8.092145e+00
2.868989e+01	-8.135154e+00
2.885560e+01	-8.176859e+00
2.902227e+01	-8.219704e+00
2.918990e+01	-8.261556e+00
2.935850e+01	-8.304952e+00
2.952807e+01	-8.347363e+00
2.969863e+01	-8.389992e+00
2.987016e+01	-8.433117e+00
3.004269e+01	-8.476040e+00
3.021622e+01	-8.518570e+00
3.039075e+01	-8.561627e+00
3.056628e+01	-8.604676e+00
3.074283e+01	-8.647445e+00
3.092040e+01	-8.691294e+00
3.109900e+01	-8.734651e+00
3.127862e+01	-8.777900e+00
3.145929e+01	-8.821064e+00
3.164099e+01	-8.864939e+00
3.182375e+01	-8.908384e+00
3.200756e+01	-8.952043e+00
3.219244e+01	-8.996057e+00
3.237838e+01	-9.039405e+00
3.256540e+01	-9.083018e+00
3.275349e+01	-9.127083e+00
3.294268e+01	-9.171174e+00
3.313295e+01	-9.215275e+00
3.332433e+01	-9.259113e+00
3.351681e+01	-9.303496e+00
3.371040e+01	-9.347544e+00
3.390511e+01	-9.391638e+00
3.410094e+01	-9.435945e+00
3.429791e+01	-9.480602e+00
3.449601e+01	-9.524828e+00
3.469526e+01	-9.569623e+00
3.489566e+01	-9.613650e+00
3.509721e+01	-9.658538e+00
3.529993e+01	-9.702646e+00
3.550382e+01	-9.747755e+00
3.570889e+01	-9.792547e+00
3.591515e+01	-9.837853e+00
3.612259e+01	-9.882242e+00
3.633123e+01	-9.926588e+00
3.654108e+01	-9.971585e+00
3.675214e+01	-1.001681e+01
3.696442e+01	-1.006204e+01
3.717792e+01	-1.010724e+01
3.739266e+01	-1.015199e+01
3.760864e+01	-1.019764e+01
3.782587e+01	-1.024354e+01
3.804435e+01	-1.028787e+01
3.826409e+01	-1.033366e+01
3.848510e+01	-1.037932e+01
3.870739e+01	-1.042467e+01
3.893096e+01	-1.047045e+01
3.915583e+01	-1.051576e+01
3.938199e+01	-1.056164e+01
3.960946e+01	-1.060649e+01
3.983824e+01	-1.065289e+01
4.006834e+01	-1.069818e+01
4.029978e+01	-1.074417e+01
4.053255e+01	-1.078946e+01
4.076666e+01	-1.083581e+01
4.100213e+01	-1.088158e+01
4.123896e+01	-1.092764e+01
4.147715e+01	-1.097383e+01
4.171672e+01	-1.101928e+01
4.195767e+01	-1.106585e+01
4.220002e+01	-1.111238e+01
4.244377e+01	-1.115788e+01
4.268892e+01	-1.120399e+01
4.293549e+01	-1.125053e+01
4.318348e+01	-1.129721e+01
4.343291e+01	-1.134336e+01
4.368377e+01	-1.138911e+01
4.393609e+01	-1.143596e+01
4.418986e+01	-1.148300e+01
4.444510e+01	-1.152906e+01
4.470182e+01	-1.157558e+01
4.496001e+01	-1.162254e+01
4.521970e+01	-1.166918e+01
4.548089e+01	-1.171568e+01
4.574358e+01	-1.176141e+01
4.600779e+01	-1.180797e+01
4.627353e+01	-1.185507e+01
4.654081e+01	-1.190254e+01
4.680963e+01	-1.194944e+01
4.708000e+01	-1.199528e+01
4.735193e+01	-1.204253e+01
4.762543e+01	-1.208929e+01
4.790051e+01	-1.213705e+01
4.817719e+01	-1.218350e+01
4.845545e+01	-1.222915e+01
4.873533e+01	-1.227817e+01
4.901682e+01	-1.232449e+01
4.929994e+01	-1.237154e+01
4.958470e+01	-1.241915e+01
4.987110e+01	-1.246625e+01
5.015915e+01	-1.251330e+01
5.044887e+01	-1.256036e+01
5.074026e+01	-1.260877e+01
5.103333e+01	-1.265485e+01
5.132810e+01	-1.270292e+01
5.162457e+01	-1.275028e+01
5.192275e+01	-1.279672e+01
5.222265e+01	-1.284439e+01
5.252429e+01	-1.289226e+01
5.282767e+01	-1.293989e+01
5.313280e+01	-1.298719e+01
5.343969e+01	-1.303438e+01
5.374836e+01	-1.308191e+01
5.405880e+01	-1.312898e+01
5.437105e+01	-1.317709e+01
5.468509e+01	-1.322478e+01
5.500095e+01	-1.327273e+01
5.531863e+01	-1.331978e+01
5.563815e+01	-1.336776e+01
5.595951e+01	-1.341526e+01
5.628273e+01	-1.346299e+01
5.660782e+01	-1.351102e+01
5.693479e+01	-1.355890e+01
5.726364e+01	-1.360734e+01
5.759439e+01	-1.365450e+01
5.792705e+01	-1.370263e+01
5.826164e+01	-1.375032e+01
5.859815e+01	-1.379859e+01
5.893662e+01	-1.384643e+01
5.927703e+01	-1.389427e+01
5.961941e+01	-1.394352e+01
5.996377e+01	-1.399009e+01
6.031012e+01	-1.403786e+01
6.065847e+01	-1.408685e+01
6.100883e+01	-1.413509e+01
6.136121e+01	-1.418286e+01
6.171563e+01	-1.423084e+01
6.207210e+01	-1.427953e+01
6.243063e+01	-1.432776e+01
6.279122e+01	-1.437555e+01
6.315390e+01	-1.442382e+01
6.351868e+01	-1.447193e+01
6.388556e+01	-1.452046e+01
6.425456e+01	-1.456868e+01
6.462569e+01	-1.461643e+01
6.499897e+01	-1.466508e+01
6.537440e+01	-1.471322e+01
6.575200e+01	-1.476145e+01
6.613178e+01	-1.480920e+01
6.651375e+01	-1.485837e+01
6.689793e+01	-1.490771e+01
6.728433e+01	-1.495489e+01
6.767297e+01	-1.500321e+01
6.806384e+01	-1.505231e+01
6.845698e+01	-1.510084e+01
6.885238e+01	-1.514908e+01
6.925007e+01	-1.519766e+01
6.965005e+01	-1.524636e+01
7.005235e+01	-1.529487e+01
7.045697e+01	-1.534405e+01
7.086393e+01	-1.539191e+01
7.127323e+01	-1.544058e+01
7.168490e+01	-1.548920e+01
7.209895e+01	-1.553826e+01
7.251539e+01	-1.558611e+01
7.293424e+01	-1.563587e+01
7.335551e+01	-1.568413e+01
7.377920e+01	-1.573134e+01
7.420535e+01	-1.578141e+01
7.463396e+01	-1.583057e+01
7.506504e+01	-1.587875e+01
7.549861e+01	-1.592586e+01
7.593469e+01	-1.597618e+01
7.637328e+01	-1.602410e+01
7.681441e+01	-1.607317e+01
7.725809e+01	-1.612190e+01
7.770433e+01	-1.617161e+01
7.815315e+01	-1.621939e+01
7.860456e+01	-1.626733e+01
7.905857e+01	-1.631732e+01
7.951521e+01	-1.636617e+01
7.997449e+01	-1.641575e+01
8.043642e+01	-1.646450e+01
8.090102e+01	-1.651280e+01
8.136830e+01	-1.656164e+01
8.183828e+01	-1.661091e+01
8.231097e+01	-1.665941e+01
8.278640e+01	-1.670923e+01
8.326457e+01	-1.675854e+01
8.374550e+01	-1.680627e+01
8.422921e+01	-1.685558e+01
8.471572e+01	-1.690555e+01
8.520503e+01	-1.695391e+01
8.569717e+01	-1.700282e+01
8.619215e+01	-1.705306e+01
8.669000e+01	-1.710202e+01
8.719071e+01	-1.714979e+01
8.769432e+01	-1.719835e+01
8.820084e+01	-1.724796e+01
8.871029e+01	-1.729719e+01
8.922267e+01	-1.734628e+01
8.973802e+01	-1.739513e+01
9.025634e+01	-1.744426e+01
9.077766e+01	-1.749356e+01
9.130199e+01	-1.754282e+01
9.182935e+01	-1.759256e+01
9.235975e+01	-1.764124e+01
9.289321e+01	-1.768853e+01
9.342976e+01	-1.774001e+01
9.396941e+01	-1.778913e+01
9.451217e+01	-1.783797e+01
9.505807e+01	-1.788703e+01
9.560712e+01	-1.793698e+01
9.615934e+01	-1.798531e+01
9.671476e+01	-1.803438e+01
9.727338e+01	-1.808344e+01
9.783522e+01	-1.813332e+01
9.840032e+01	-1.818298e+01
9.896867e+01	-1.823320e+01
9.954031e+01	-1.828169e+01
1.001153e+02	-1.833016e+01
1.006935e+02	-1.838023e+01
1.012751e+02	-1.842952e+01
1.018601e+02	-1.847912e+01
1.024484e+02	-1.852745e+01
1.030402e+02	-1.857710e+01
1.036353e+02	-1.862611e+01
1.042339e+02	-1.867632e+01
1.048360e+02	-1.872597e+01
1.054415e+02	-1.877339e+01
1.060505e+02	-1.882346e+01
1.066631e+02	-1.887352e+01
1.072791e+02	-1.892242e+01
1.078988e+02	-1.897158e+01
1.085220e+02	-1.902041e+01
1.091488e+02	-1.907092e+01
1.097793e+02	-1.911796e+01
1.104133e+02	-1.917031e+01
1.110511e+02	-1.921857e+01
1.116925e+02	-1.926788e+01
1.123376e+02	-1.931785e+01
1.129865e+02	-1.936714e+01
1.136391e+02	-1.941602e+01
1.142955e+02	-1.946542e+01
1.149556e+02	-1.951571e+01
1.156196e+02	-1.956622e+01
1.162874e+02	-1.961505e+01
1.169591e+02	-1.966407e+01
1.176347e+02	-1.971307e+01
1.183141e+02	-1.976415e+01
1.189975e+02	-1.981342e+01
1.196848e+02	-1.986198e+01
1.203761e+02	-1.991181e+01
1.210714e+02	-1.996123e+01
1.217707e+02	-2.001104e+01
1.224740e+02	-2.005964e+01
1.231814e+02	-2.010963e+01
1.238929e+02	-2.015871e+01
1.246085e+02	-2.020773e+01
1.253283e+02	-2.025821e+01
1.260522e+02	-2.031013e+01
1.267802e+02	-2.035747e+01
1.275125e+02	-2.040710e+01
1.282490e+02	-2.045626e+01
1.289898e+02	-2.050765e+01
1.297348e+02	-2.055610e+01
1.304842e+02	-2.060659e+01
1.312378e+02	-2.065567e+01
1.319959e+02	-2.070638e+01
1.327583e+02	-2.075372e+01
1.335251e+02	-2.080391e+01
1.342963e+02	-2.085312e+01
1.350720e+02	-2.090287e+01
1.358522e+02	-2.095356e+01
1.366368e+02	-2.100220e+01
1.374260e+02	-2.105205e+01
1.382198e+02	-2.110185e+01
1.390182e+02	-2.115024e+01
1.398211e+02	-2.120054e+01
1.406287e+02	-2.124844e+01
1.414410e+02	-2.130176e+01
1.422579e+02	-2.135236e+01
1.430796e+02	-2.139995e+01
1.439060e+02	-2.145162e+01
1.447372e+02	-2.149806e+01
1.455732e+02	-2.154664e+01
1.464141e+02	-2.159794e+01
1.472597e+02	-2.164789e+01
1.481103e+02	-2.169910e+01
1.489658e+02	-2.174591e+01
1.498262e+02	-2.179586e+01
1.506916e+02	-2.184643e+01
1.515620e+02	-2.189736e+01
1.524374e+02	-2.194714e+01
1.533179e+02	-2.199743e+01
1.542034e+02	-2.204761e+01
1.550941e+02	-2.209439e+01
1.559899e+02	-2.214550e+01
1.568909e+02	-2.219371e+01
1.577971e+02	-2.224447e+01
1.587085e+02	-2.229448e+01
1.596252e+02	-2.234417e+01
1.605472e+02	-2.239325e+01
1.614745e+02	-2.244469e+01
1.624072e+02	-2.249586e+01
1.633453e+02	-2.254203e+01
1.642887e+02	-2.259595e+01
1.652377e+02	-2.264182e+01
1.661921e+02	-2.269506e+01
1.671520e+02	-2.274252e+01
1.681175e+02	-2.279323e+01
1.690885e+02	-2.284030e+01
1.700651e+02	-2.289307e+01
1.710474e+02	-2.293987e+01
1.720354e+02	-2.299056e+01
1.730291e+02	-2.304229e+01
1.740285e+02	-2.309208e+01
1.750337e+02	-2.314051e+01
1.760446e+02	-2.319145e+01
1.770615e+02	-2.324092e+01
1.780842e+02	-2.329271e+01
1.791128e+02	-2.334011e+01
1.801473e+02	-2.339065e+01
1.811878e+02	-2.344056e+01
1.822344e+02	-2.349037e+01
1.832870e+02	-2.353716e+01
1.843456e+02	-2.358947e+01
1.854104e+02	-2.363933e+01
1.864813e+02	-2.368787e+01
1.875584e+02	-2.373952e+01
1.886418e+02	-2.379072e+01
1.897313e+02	-2.383722e+01
1.908272e+02	-2.388813e+01
1.919294e+02	-2.393539e+01
1.930380e+02	-2.398735e+01
1.941530e+02	-2.403793e+01
1.952744e+02	-2.408691e+01
1.964023e+02	-2.413759e+01
1.975367e+02	-2.418823e+01
1.986777e+02	-2.423682e+01
1.998252e+02	-2.428925e+01
2.009794e+02	-2.433720e+01
2.021403e+02	-2.438516e+01
2.033078e+02	-2.443934e+01
2.044821e+02	-2.449056e+01
2.056632e+02	-2.453698e+01
2.068511e+02	-2.458927e+01
2.080459e+02	-2.463556e+01
2.092475e+02	-2.468541e+01
2.104561e+02	-2.473807e+01
2.116717e+02	-2.478707e+01
2.128943e+02	-2.483397e+01
2.141240e+02	-2.488893e+01
2.153608e+02	-2.493449e+01
2.166047e+02	-2.498469e+01
2.178558e+02	-2.503595e+01
2.191141e+02	-2.508510e+01
2.203797e+02	-2.513327e+01
2.216526e+02	-2.518518e+01
2.229329e+02	-2.523400e+01
2.242205e+02	-2.528138e+01
2.255156e+02	-2.533547e+01
2.268182e+02	-2.538596e+01
2.281283e+02	-2.543691e+01
2.294459e+02	-2.548425e+01
2.307712e+02	-2.553246e+01
2.321041e+02	-2.558464e+01
2.334447e+02	-2.563627e+01
2.347931e+02	-2.568881e+01
2.361493e+02	-2.573125e+01
2.375133e+02	-2.578672e+01
2.388851e+02	-2.583482e+01
2.402649e+02	-2.588169e+01
2.416527e+02	-2.593557e+01
2.430484e+02	-2.598099e+01
2.444523e+02	-2.603429e+01
2.458642e+02	-2.608265e+01
2.472843e+02	-2.613642e+01
2.487126e+02	-2.618542e+01
2.501492e+02	-2.623381e+01
2.515940e+02	-2.628363e+01
2.530472e+02	-2.633174e+01
2.545088e+02	-2.638619e+01
2.559789e+02	-2.643176e+01
2.574574e+02	-2.648133e+01
2.589444e+02	-2.653207e+01
2.604401e+02	-2.658447e+01
2.619444e+02	-2.663207e+01
2.634574e+02	-2.668219e+01
2.649791e+02	-2.673239e+01
2.665096e+02	-2.678251e+01
2.680489e+02	-2.683139e+01
2.695972e+02	-2.688267e+01
2.711544e+02	-2.693347e+01
2.727205e+02	-2.698312e+01
2.742958e+02	-2.703412e+01
2.758801e+02	-2.708405e+01
2.774736e+02	-2.713147e+01
2.790762e+02	-2.718390e+01
2.806882e+02	-2.723023e+01
2.823094e+02	-2.728071e+01
2.839400e+02	-2.733456e+01
2.855800e+02	-2.738203e+01
2.872295e+02	-2.743570e+01
2.888886e+02	-2.748337e+01
2.905572e+02	-2.753379e+01
2.922354e+02	-2.758545e+01
2.939234e+02	-2.763544e+01
2.956211e+02	-2.768233e+01
2.973286e+02	-2.773711e+01
2.990459e+02	-2.778178e+01
3.007732e+02	-2.783300e+01
3.025104e+02	-2.788056e+01
3.042577e+02	-2.793246e+01
3.060151e+02	-2.798125e+01
3.077826e+02	-2.803376e+01
3.095604e+02	-2.808308e+01
3.113484e+02	-2.813490e+01
3.131467e+02	-2.818302e+01
3.149554e+02	-2.823272e+01
3.167746e+02	-2.828469e+01
3.186043e+02	-2.833244e+01
3.204445e+02	-2.838438e+01
3.222954e+02	-2.843223e+01
3.241570e+02	-2.848462e+01
3.260293e+02	-2.853052e+01
3.279124e+02	-2.858230e+01
3.298064e+02	-2.863281e+01
3.317114e+02	-2.868068e+01
3.336273e+02	-2.873314e+01
3.355544e+02	-2.878678e+01
3.374925e+02	-2.883473e+01
3.394418e+02	-2.888490e+01
3.414024e+02	-2.893285e+01
3.433744e+02	-2.898504e+01
3.453577e+02	-2.903233e+01
3.473525e+02	-2.908718e+01
3.493588e+02	-2.913451e+01
3.513766e+02	-2.918141e+01
3.534062e+02	-2.923461e+01
3.554474e+02	-2.927936e+01
3.575005e+02	-2.933534e+01
3.595654e+02	-2.938252e+01
3.616422e+02	-2.943385e+01
3.637311e+02	-2.948305e+01
3.658320e+02	-2.953456e+01
3.679450e+02	-2.958724e+01
3.700702e+02	-2.963446e+01
3.722077e+02	-2.968543e+01
3.743576e+02	-2.973487e+01
3.765199e+02	-2.978298e+01
3.786946e+02	-2.983405e+01
3.808820e+02	-2.988539e+01
3.830819e+02	-2.993341e+01
3.852946e+02	-2.998788e+01
3.875200e+02	-3.003793e+01
3.897583e+02	-3.009336e+01
3.920096e+02	-3.013535e+01
3.942738e+02	-3.018881e+01
3.965511e+02	-3.023458e+01
3.988416e+02	-3.028172e+01
4.011452e+02	-3.033037e+01
4.034622e+02	-3.038757e+01
4.057926e+02	-3.043827e+01
4.081365e+02	-3.048514e+01
4.104938e+02	-3.053603e+01
4.128648e+02	-3.058560e+01
4.152495e+02	-3.063484e+01
4.176480e+02	-3.068797e+01
4.200603e+02	-3.073539e+01
4.224866e+02	-3.078675e+01
4.249268e+02	-3.083844e+01
4.273812e+02	-3.088838e+01
4.298497e+02	-3.093579e+01
4.323325e+02	-3.098487e+01
4.348297e+02	-3.103455e+01
4.373412e+02	-3.109091e+01
4.398673e+02	-3.113732e+01
4.424079e+02	-3.118841e+01
4.449633e+02	-3.124228e+01
4.475334e+02	-3.129147e+01
4.501183e+02	-3.133634e+01
4.527182e+02	-3.138831e+01
4.553330e+02	-3.143430e+01
4.579630e+02	-3.149064e+01
4.606082e+02	-3.154215e+01
4.632687e+02	-3.159218e+01
4.659445e+02	-3.163604e+01
4.686358e+02	-3.168884e+01
4.713426e+02	-3.173778e+01
4.740650e+02	-3.178781e+01
4.768032e+02	-3.183925e+01
4.795572e+02	-3.188715e+01
4.823271e+02	-3.194061e+01
4.851130e+02	-3.199022e+01
4.879150e+02	-3.204214e+01
4.907332e+02	-3.209171e+01
4.935676e+02	-3.214063e+01
4.964185e+02	-3.218554e+01
4.992858e+02	-3.223877e+01
5.021696e+02	-3.228736e+01
5.050701e+02	-3.234065e+01
5.079874e+02	-3.239359e+01
5.109215e+02	-3.244308e+01
5.138726e+02	-3.249002e+01
5.168407e+02	-3.254761e+01
5.198259e+02	-3.258896e+01
5.228284e+02	-3.264323e+01
5.258482e+02	-3.268684e+01
5.288855e+02	-3.274740e+01
5.319403e+02	-3.279070e+01
5.350128e+02	-3.284721e+01
5.381030e+02	-3.289564e+01
5.412111e+02	-3.293757e+01
5.443371e+02	-3.299533e+01
5.474812e+02	-3.303707e+01
5.506434e+02	-3.309365e+01
5.538239e+02	-3.313889e+01
5.570228e+02	-3.320107e+01
5.602401e+02	-3.324193e+01
5.634760e+02	-3.329156e+01
5.667306e+02	-3.334198e+01
5.700040e+02	-3.339455e+01
5.732964e+02	-3.344805e+01
5.766077e+02	-3.349426e+01
5.799382e+02	-3.354205e+01
5.832879e+02	-3.359501e+01
5.866569e+02	-3.364141e+01
5.900454e+02	-3.369544e+01
5.934535e+02	-3.373940e+01
5.968813e+02	-3.379391e+01
6.003288e+02	-3.384226e+01
6.037963e+02	-3.390409e+01
6.072838e+02	-3.394803e+01
6.107914e+02	-3.400445e+01
6.143194e+02	-3.404914e+01
6.178676e+02	-3.409738e+01
6.214364e+02	-3.413941e+01
6.250258e+02	-3.420336e+01
6.286359e+02	-3.425230e+01
6.322669e+02	-3.430047e+01
6.359189e+02	-3.436285e+01
6.395919e+02	-3.440739e+01
6.432862e+02	-3.445315e+01
6.470017e+02	-3.450305e+01
6.507388e+02	-3.455354e+01
6.544974e+02	-3.460407e+01
6.582778e+02	-3.464868e+01
6.620800e+02	-3.470195e+01
6.659041e+02	-3.475766e+01
6.697504e+02	-3.480925e+01
6.736188e+02	-3.485095e+01
6.775096e+02	-3.490383e+01
6.814229e+02	-3.496309e+01
6.853587e+02	-3.500209e+01
6.893173e+02	-3.504758e+01
6.932988e+02	-3.510694e+01
6.973033e+02	-3.515313e+01
7.013309e+02	-3.520548e+01
