Frequency(Hz)	Magnitude(dB)
1.000000e+01	-2.225734e+00
1.005776e+01	-2.245748e+00
1.011585e+01	-2.265949e+00
1.017428e+01	-2.286455e+00
1.023305e+01	-2.306912e+00
1.029215e+01	-2.327380e+00
1.035160e+01	-2.348327e+00
1.041139e+01	-2.369263e+00
1.047153e+01	-2.390259e+00
1.053201e+01	-2.411638e+00
1.059284e+01	-2.433092e+00
1.065403e+01	-2.454708e+00
1.071556e+01	-2.476404e+00
1.077746e+01	-2.498318e+00
1.083971e+01	-2.520152e+00
1.090232e+01	-2.542255e+00
1.096529e+01	-2.564291e+00
1.102862e+01	-2.586871e+00
1.109232e+01	-2.609390e+00
1.115639e+01	-2.632168e+00
1.122083e+01	-2.654844e+00
1.128564e+01	-2.677872e+00
1.135083e+01	-2.700801e+00
1.141639e+01	-2.724196e+00
1.148233e+01	-2.747489e+00
1.154865e+01	-2.771243e+00
1.161536e+01	-2.794569e+00
1.168245e+01	-2.818520e+00
1.174992e+01	-2.842243e+00
1.181779e+01	-2.866350e+00
1.188605e+01	-2.890896e+00
1.195470e+01	-2.914995e+00
1.202375e+01	-2.939525e+00
1.209320e+01	-2.964150e+00
1.216305e+01	-2.989050e+00
1.223330e+01	-3.014185e+00
1.230396e+01	-3.039237e+00
1.237503e+01	-3.064433e+00
1.244651e+01	-3.089883e+00
1.251840e+01	-3.115382e+00
1.259070e+01	-3.141288e+00
1.266343e+01	-3.167003e+00
1.273657e+01	-3.193216e+00
1.281014e+01	-3.218861e+00
1.288413e+01	-3.245348e+00
1.295855e+01	-3.271569e+00
1.303339e+01	-3.298107e+00
1.310867e+01	-3.324996e+00
1.318439e+01	-3.351808e+00
1.326054e+01	-3.378542e+00
1.333713e+01	-3.405849e+00
1.341417e+01	-3.433086e+00
1.349165e+01	-3.460517e+00
1.356958e+01	-3.488145e+00
1.364795e+01	-3.515693e+00
1.372678e+01	-3.543554e+00
1.380607e+01	-3.571491e+00
1.388581e+01	-3.599707e+00
1.396602e+01	-3.627925e+00
1.404668e+01	-3.656219e+00
1.412782e+01	-3.684669e+00
1.420942e+01	-3.713380e+00
1.429149e+01	-3.742370e+00
1.437404e+01	-3.771408e+00
1.445706e+01	-3.800712e+00
1.454057e+01	-3.829889e+00
1.462455e+01	-3.859177e+00
1.470902e+01	-3.888666e+00
1.479398e+01	-3.918358e+00
1.487943e+01	-3.948054e+00
1.496537e+01	-3.977872e+00
1.505181e+01	-4.008147e+00
1.513875e+01	-4.038247e+00
1.522619e+01	-4.068702e+00
1.531414e+01	-4.099300e+00
1.540259e+01	-4.129670e+00
1.549156e+01	-4.160425e+00
1.558103e+01	-4.191416e+00
1.567103e+01	-4.222488e+00
1.576155e+01	-4.253541e+00
1.585258e+01	-4.285013e+00
1.594415e+01	-4.316115e+00
1.603624e+01	-4.348013e+00
1.612886e+01	-4.379302e+00
1.622202e+01	-4.411617e+00
1.631572e+01	-4.443666e+00
1.640996e+01	-4.475662e+00
1.650474e+01	-4.507896e+00
1.660008e+01	-4.539852e+00
1.669596e+01	-4.572985e+00
1.679239e+01	-4.605112e+00
1.688938e+01	-4.638268e+00
1.698694e+01	-4.671029e+00
1.708505e+01	-4.703863e+00
1.718373e+01	-4.737012e+00
1.728299e+01	-4.770424e+00
1.738281e+01	-4.803841e+00
1.748322e+01	-4.837343e+00
1.758420e+01	-4.870948e+00
1.768576e+01	-4.904824e+00
1.778792e+01	-4.938535e+00
1.789066e+01	-4.972884e+00
1.799399e+01	-5.007243e+00
1.809793e+01	-5.041054e+00
1.820246e+01	-5.075445e+00
1.830760e+01	-5.110040e+00
1.841334e+01	-5.144924e+00
1.851969e+01	-5.179734e+00
1.862666e+01	-5.214607e+00
1.873425e+01	-5.249686e+00
1.884246e+01	-5.284969e+00
1.895129e+01	-5.320212e+00
1.906075e+01	-5.355473e+00
1.917085e+01	-5.390818e+00
1.928158e+01	-5.426704e+00
1.939295e+01	-5.462485e+00
1.950496e+01	-5.498481e+00
1.961762e+01	-5.533969e+00
1.973093e+01	-5.570206e+00
1.984490e+01	-5.606576e+00
1.995952e+01	-5.642679e+00
2.007480e+01	-5.678994e+00
2.019076e+01	-5.715684e+00
2.030738e+01	-5.752575e+00
2.042467e+01	-5.789216e+00
2.054264e+01	-5.826002e+00
2.066130e+01	-5.863165e+00
2.078064e+01	-5.900081e+00
2.090066e+01	-5.937110e+00
2.102139e+01	-5.975062e+00
2.114280e+01	-6.012227e+00
2.126492e+01	-6.049896e+00
2.138775e+01	-6.087522e+00
2.151128e+01	-6.125143e+00
2.163553e+01	-6.163148e+00
2.176050e+01	-6.201058e+00
2.188619e+01	-6.238834e+00
2.201260e+01	-6.277353e+00
2.213974e+01	-6.315435e+00
2.226762e+01	-6.353809e+00
2.239624e+01	-6.392508e+00
2.252560e+01	-6.430749e+00
2.265571e+01	-6.469322e+00
2.278656e+01	-6.508454e+00
2.291818e+01	-6.547520e+00
2.305055e+01	-6.586594e+00
2.318369e+01	-6.625562e+00
2.331760e+01	-6.664732e+00
2.345228e+01	-6.704108e+00
2.358774e+01	-6.743359e+00
2.372398e+01	-6.783056e+00
2.386101e+01	-6.822283e+00
2.399883e+01	-6.862407e+00
2.413745e+01	-6.901790e+00
2.427686e+01	-6.941605e+00
2.441709e+01	-6.981657e+00
2.455812e+01	-7.021902e+00
2.469997e+01	-7.062067e+00
2.484263e+01	-7.102286e+00
2.498612e+01	-7.142010e+00
2.513044e+01	-7.182990e+00
2.527559e+01	-7.223349e+00
2.542158e+01	-7.263780e+00
2.556842e+01	-7.304982e+00
2.571610e+01	-7.345261e+00
2.586463e+01	-7.386405e+00
2.601403e+01	-7.427038e+00
2.616428e+01	-7.468260e+00
2.631541e+01	-7.509443e+00
2.646740e+01	-7.550591e+00
2.662028e+01	-7.591999e+00
2.677404e+01	-7.633449e+00
2.692868e+01	-7.674600e+00
2.708422e+01	-7.715931e+00
2.724066e+01	-7.757865e+00
2.739800e+01	-7.799677e+00
2.755625e+01	-7.841177e+00
2.771541e+01	-7.883199e+00
2.787550e+01	-7.925128e+00
2.803650e+01	-7.967004e+00
2.819844e+01	-8.008902e+00
2.836131e+01	-8.051225e+00
2.852513e+01	-8.093495e+00
2.868989e+01	-8.135710e+00
2.885560e+01	-8.177818e+00
2.902227e+01	-8.220444e+00
2.918990e+01	-8.262866e+00
2.935850e+01	-8.305462e+00
2.952807e+01	-8.348393e+00
2.969863e+01	-8.391065e+00
2.987016e+01	-8.433696e+00
3.004269e+01	-8.476558e+00
3.021622e+01	-8.519988e+00
3.039075e+01	-8.563044e+00
3.056628e+01	-8.605759e+00
3.074283e+01	-8.648980e+00
3.092040e+01	-8.692620e+00
3.109900e+01	-8.735518e+00
3.127862e+01	-8.778932e+00
3.145929e+01	-8.822382e+00
3.164099e+01	-8.865812e+00
3.182375e+01	-8.909832e+00
3.200756e+01	-8.953144e+00
3.219244e+01	-8.996572e+00
3.237838e+01	-9.040178e+00
3.256540e+01	-9.084451e+00
3.275349e+01	-9.128304e+00
3.294268e+01	-9.171863e+00
3.313295e+01	-9.216114e+00
3.332433e+01	-9.260514e+00
3.351681e+01	-9.304540e+00
3.371040e+01	-9.348359e+00
3.390511e+01	-9.393061e+00
3.410094e+01	-9.436775e+00
3.429791e+01	-9.481112e+00
3.449601e+01	-9.525399e+00
3.469526e+01	-9.570134e+00
3.489566e+01	-9.614718e+00
3.509721e+01	-9.659667e+00
3.529993e+01	-9.704015e+00
3.550382e+01	-9.748668e+00
3.570889e+01	-9.793681e+00
3.591515e+01	-9.838208e+00
3.612259e+01	-9.883055e+00
3.633123e+01	-9.928463e+00
3.654108e+01	-9.972652e+00
3.675214e+01	-1.001821e+01
3.696442e+01	-1.006329e+01
3.717792e+01	-1.010845e+01
3.739266e+01	-1.015356e+01
3.760864e+01	-1.019893e+01
3.782587e+01	-1.024411e+01
3.804435e+01	-1.028960e+01
3.826409e+01	-1.033450e+01
3.848510e+01	-1.037992e+01
3.870739e+01	-1.042494e+01
3.893096e+01	-1.047027e+01
3.915583e+01	-1.051662e+01
3.938199e+01	-1.056256e+01
3.960946e+01	-1.060697e+01
3.983824e+01	-1.065356e+01
4.006834e+01	-1.069888e+01
4.029978e+01	-1.074522e+01
4.053255e+01	-1.079022e+01
4.076666e+01	-1.083659e+01
4.100213e+01	-1.088274e+01
4.123896e+01	-1.092792e+01
4.147715e+01	-1.097479e+01
4.171672e+01	-1.102059e+01
4.195767e+01	-1.106698e+01
4.220002e+01	-1.111315e+01
4.244377e+01	-1.115902e+01
4.268892e+01	-1.120530e+01
4.293549e+01	-1.125114e+01
4.318348e+01	-1.129771e+01
4.343291e+01	-1.134468e+01
4.368377e+01	-1.139072e+01
4.393609e+01	-1.143684e+01
4.418986e+01	-1.148320e+01
4.444510e+01	-1.153015e+01
4.470182e+01	-1.157698e+01
4.496001e+01	-1.162286e+01
4.521970e+01	-1.167045e+01
4.548089e+01	-1.171620e+01
4.574358e+01	-1.176292e+01
4.600779e+01	-1.180969e+01
4.627353e+01	-1.185646e+01
4.654081e+01	-1.190302e+01
4.680963e+01	-1.195004e+01
4.708000e+01	-1.199680e+01
4.735193e+01	-1.204312e+01
4.762543e+01	-1.209036e+01
4.790051e+01	-1.213743e+01
4.817719e+01	-1.218459e+01
4.845545e+01	-1.223137e+01
4.873533e+01	-1.227879e+01
4.901682e+01	-1.232534e+01
4.929994e+01	-1.237293e+01
4.958470e+01	-1.241979e+01
4.987110e+01	-1.246670e+01
5.015915e+01	-1.251488e+01
5.044887e+01	-1.256162e+01
5.074026e+01	-1.260838e+01
5.103333e+01	-1.265597e+01
5.132810e+01	-1.270388e+01
5.162457e+01	-1.275064e+01
5.192275e+01	-1.279829e+01
5.222265e+01	-1.284603e+01
5.252429e+01	-1.289332e+01
5.282767e+01	-1.294054e+01
5.313280e+01	-1.298794e+01
5.343969e+01	-1.303498e+01
5.374836e+01	-1.308342e+01
5.405880e+01	-1.313107e+01
5.437105e+01	-1.317788e+01
5.468509e+01	-1.322582e+01
5.500095e+01	-1.327353e+01
5.531863e+01	-1.332154e+01
5.563815e+01	-1.336946e+01
5.595951e+01	-1.341673e+01
5.628273e+01	-1.346465e+01
5.660782e+01	-1.351191e+01
5.693479e+01	-1.356006e+01
5.726364e+01	-1.360882e+01
5.759439e+01	-1.365612e+01
5.792705e+01	-1.370382e+01
5.826164e+01	-1.375153e+01
5.859815e+01	-1.380002e+01
5.893662e+01	-1.384744e+01
5.927703e+01	-1.389519e+01
5.961941e+01	-1.394312e+01
5.996377e+01	-1.399129e+01
6.031012e+01	-1.404010e+01
6.065847e+01	-1.408755e+01
6.100883e+01	-1.413564e+01
6.136121e+01	-1.418380e+01
6.171563e+01	-1.423135e+01
6.207210e+01	-1.428041e+01
6.243063e+01	-1.432747e+01
6.279122e+01	-1.437668e+01
6.315390e+01	-1.442600e+01
6.351868e+01	-1.447370e+01
6.388556e+01	-1.452157e+01
6.425456e+01	-1.456993e+01
6.462569e+01	-1.461709e+01
6.499897e+01	-1.466571e+01
6.537440e+01	-1.471492e+01
6.575200e+01	-1.476314e+01
6.613178e+01	-1.481114e+01
6.651375e+01	-1.485958e+01
6.689793e+01	-1.490855e+01
6.728433e+01	-1.495591e+01
6.767297e+01	-1.500501e+01
6.806384e+01	-1.505318e+01
6.845698e+01	-1.510135e+01
6.885238e+01	-1.515082e+01
6.925007e+01	-1.519863e+01
6.965005e+01	-1.524778e+01
7.005235e+01	-1.529543e+01
7.045697e+01	-1.534354e+01
7.086393e+01	-1.539294e+01
7.127323e+01	-1.544183e+01
7.168490e+01	-1.548965e+01
7.209895e+01	-1.553883e+01
7.251539e+01	-1.558719e+01
7.293424e+01	-1.563636e+01
7.335551e+01	-1.568497e+01
7.377920e+01	-1.573259e+01
7.420535e+01	-1.578186e+01
7.463396e+01	-1.583085e+01
7.506504e+01	-1.587955e+01
7.549861e+01	-1.592783e+01
7.593469e+01	-1.597713e+01
7.637328e+01	-1.602584e+01
7.681441e+01	-1.607386e+01
7.725809e+01	-1.612394e+01
7.770433e+01	-1.617191e+01
7.815315e+01	-1.622118e+01
7.860456e+01	-1.626982e+01
7.905857e+01	-1.631869e+01
7.951521e+01	-1.636655e+01
7.997449e+01	-1.641563e+01
8.043642e+01	-1.646583e+01
8.090102e+01	-1.651453e+01
8.136830e+01	-1.656413e+01
8.183828e+01	-1.661187e+01
8.231097e+01	-1.666089e+01
8.278640e+01	-1.671011e+01
8.326457e+01	-1.675814e+01
8.374550e+01	-1.680956e+01
8.422921e+01	-1.685797e+01
8.471572e+01	-1.690579e+01
8.520503e+01	-1.695436e+01
8.569717e+01	-1.700475e+01
8.619215e+01	-1.705377e+01
8.669000e+01	-1.710296e+01
8.719071e+01	-1.714991e+01
8.769432e+01	-1.720073e+01
8.820084e+01	-1.724835e+01
8.871029e+01	-1.729894e+01
8.922267e+01	-1.734735e+01
8.973802e+01	-1.739583e+01
9.025634e+01	-1.744544e+01
9.077766e+01	-1.749464e+01
9.130199e+01	-1.754307e+01
9.182935e+01	-1.759348e+01
9.235975e+01	-1.764225e+01
9.289321e+01	-1.769120e+01
9.342976e+01	-1.774027e+01
9.396941e+01	-1.778844e+01
9.451217e+01	-1.783902e+01
9.505807e+01	-1.788742e+01
9.560712e+01	-1.793681e+01
9.615934e+01	-1.798658e+01
9.671476e+01	-1.803573e+01
9.727338e+01	-1.808425e+01
9.783522e+01	-1.813483e+01
9.840032e+01	-1.818500e+01
9.896867e+01	-1.823342e+01
9.954031e+01	-1.828231e+01
1.001153e+02	-1.833194e+01
1.006935e+02	-1.838107e+01
1.012751e+02	-1.843078e+01
1.018601e+02	-1.847910e+01
1.024484e+02	-1.852892e+01
1.030402e+02	-1.857809e+01
1.036353e+02	-1.862788e+01
1.042339e+02	-1.867759e+01
1.048360e+02	-1.872725e+01
1.054415e+02	-1.877451e+01
1.060505e+02	-1.882499e+01
1.066631e+02	-1.887351e+01
1.072791e+02	-1.892412e+01
1.078988e+02	-1.897370e+01
1.085220e+02	-1.902253e+01
1.091488e+02	-1.907158e+01
1.097793e+02	-1.912141e+01
1.104133e+02	-1.917216e+01
1.110511e+02	-1.922004e+01
1.116925e+02	-1.926949e+01
1.123376e+02	-1.931867e+01
1.129865e+02	-1.936848e+01
1.136391e+02	-1.941806e+01
1.142955e+02	-1.946820e+01
1.149556e+02	-1.951750e+01
1.156196e+02	-1.956767e+01
1.162874e+02	-1.961574e+01
1.169591e+02	-1.966539e+01
1.176347e+02	-1.971471e+01
1.183141e+02	-1.976448e+01
1.189975e+02	-1.981251e+01
1.196848e+02	-1.986304e+01
1.203761e+02	-1.991389e+01
1.210714e+02	-1.996289e+01
1.217707e+02	-2.001212e+01
1.224740e+02	-2.006255e+01
1.231814e+02	-2.011096e+01
1.238929e+02	-2.016151e+01
1.246085e+02	-2.020963e+01
1.253283e+02	-2.026024e+01
1.260522e+02	-2.030937e+01
1.267802e+02	-2.035854e+01
1.275125e+02	-2.040885e+01
1.282490e+02	-2.045720e+01
1.289898e+02	-2.050748e+01
1.297348e+02	-2.055721e+01
1.304842e+02	-2.060771e+01
1.312378e+02	-2.065718e+01
1.319959e+02	-2.070694e+01
1.327583e+02	-2.075514e+01
1.335251e+02	-2.080591e+01
1.342963e+02	-2.085509e+01
1.350720e+02	-2.090555e+01
1.358522e+02	-2.095642e+01
1.366368e+02	-2.100273e+01
1.374260e+02	-2.105297e+01
1.382198e+02	-2.110404e+01
1.390182e+02	-2.115200e+01
1.398211e+02	-2.120480e+01
1.406287e+02	-2.125192e+01
1.414410e+02	-2.130090e+01
1.422579e+02	-2.135137e+01
1.430796e+02	-2.140130e+01
1.439060e+02	-2.145027e+01
1.447372e+02	-2.149966e+01
1.455732e+02	-2.155013e+01
1.464141e+02	-2.160093e+01
1.472597e+02	-2.165163e+01
1.481103e+02	-2.170113e+01
1.489658e+02	-2.175001e+01
1.498262e+02	-2.179835e+01
1.506916e+02	-2.184848e+01
1.515620e+02	-2.189775e+01
1.524374e+02	-2.194948e+01
1.533179e+02	-2.199721e+01
1.542034e+02	-2.204665e+01
1.550941e+02	-2.209896e+01
1.559899e+02	-2.214705e+01
1.568909e+02	-2.219599e+01
1.577971e+02	-2.224731e+01
1.587085e+02	-2.229449e+01
1.596252e+02	-2.234687e+01
1.605472e+02	-2.239637e+01
1.614745e+02	-2.244692e+01
1.624072e+02	-2.249598e+01
1.633453e+02	-2.254595e+01
1.642887e+02	-2.259520e+01
1.652377e+02	-2.264432e+01
1.661921e+02	-2.269237e+01
1.671520e+02	-2.274228e+01
1.681175e+02	-2.279331e+01
1.690885e+02	-2.284468e+01
1.700651e+02	-2.289448e+01
1.710474e+02	-2.294241e+01
1.720354e+02	-2.299412e+01
1.730291e+02	-2.304315e+01
1.740285e+02	-2.309185e+01
1.750337e+02	-2.314384e+01
1.760446e+02	-2.319272e+01
1.770615e+02	-2.323923e+01
1.780842e+02	-2.329257e+01
1.791128e+02	-2.334174e+01
1.801473e+02	-2.339193e+01
1.811878e+02	-2.343933e+01
1.822344e+02	-2.349033e+01
1.832870e+02	-2.353982e+01
1.843456e+02	-2.358956e+01
1.854104e+02	-2.363988e+01
1.864813e+02	-2.369305e+01
1.875584e+02	-2.374023e+01
1.886418e+02	-2.378904e+01
1.897313e+02	-2.383713e+01
1.908272e+02	-2.388923e+01
1.919294e+02	-2.393955e+01
1.930380e+02	-2.398695e+01
1.941530e+02	-2.403958e+01
1.952744e+02	-2.408931e+01
1.964023e+02	-2.413973e+01
1.975367e+02	-2.418891e+01
1.986777e+02	-2.423877e+01
1.998252e+02	-2.428689e+01
2.009794e+02	-2.433925e+01
2.021403e+02	-2.438871e+01
2.033078e+02	-2.443880e+01
2.044821e+02	-2.448789e+01
2.056632e+02	-2.453993e+01
2.068511e+02	-2.458772e+01
2.080459e+02	-2.463433e+01
2.092475e+02	-2.468436e+01
2.104561e+02	-2.473785e+01
2.116717e+02	-2.478582e+01
2.128943e+02	-2.483885e+01
2.141240e+02	-2.488365e+01
2.153608e+02	-2.493717e+01
2.166047e+02	-2.498572e+01
2.178558e+02	-2.503894e+01
2.191141e+02	-2.508726e+01
2.203797e+02	-2.513561e+01
2.216526e+02	-2.518747e+01
2.229329e+02	-2.523629e+01
2.242205e+02	-2.528809e+01
2.255156e+02	-2.533563e+01
2.268182e+02	-2.538093e+01
2.281283e+02	-2.543573e+01
2.294459e+02	-2.548574e+01
2.307712e+02	-2.553550e+01
2.321041e+02	-2.558389e+01
2.334447e+02	-2.563650e+01
2.347931e+02	-2.568378e+01
2.361493e+02	-2.573542e+01
2.375133e+02	-2.578585e+01
2.388851e+02	-2.583564e+01
2.402649e+02	-2.588591e+01
2.416527e+02	-2.593405e+01
2.430484e+02	-2.598354e+01
2.444523e+02	-2.603341e+01
2.458642e+02	-2.608390e+01
2.472843e+02	-2.613609e+01
2.487126e+02	-2.618643e+01
2.501492e+02	-2.623362e+01
2.515940e+02	-2.628497e+01
2.530472e+02	-2.633364e+01
2.545088e+02	-2.638630e+01
2.559789e+02	-2.643570e+01
2.574574e+02	-2.648525e+01
2.589444e+02	-2.653522e+01
2.604401e+02	-2.658771e+01
2.619444e+02	-2.663589e+01
2.634574e+02	-2.668320e+01
2.649791e+02	-2.673462e+01
2.665096e+02	-2.678329e+01
2.680489e+02	-2.683402e+01
2.695972e+02	-2.688101e+01
2.711544e+02	-2.693555e+01
2.727205e+02	-2.698404e+01
2.742958e+02	-2.703617e+01
2.758801e+02	-2.708423e+01
2.774736e+02	-2.713645e+01
2.790762e+02	-2.718552e+01
2.806882e+02	-2.723595e+01
2.823094e+02	-2.728595e+01
2.839400e+02	-2.733491e+01
2.855800e+02	-2.738149e+01
2.872295e+02	-2.743512e+01
2.888886e+02	-2.747858e+01
2.905572e+02	-2.753051e+01
2.922354e+02	-2.758265e+01
2.939234e+02	-2.763203e+01
2.956211e+02	-2.768499e+01
2.973286e+02	-2.773372e+01
2.990459e+02	-2.778446e+01
3.007732e+02	-2.783467e+01
3.025104e+02	-2.788250e+01
3.042577e+02	-2.793241e+01
3.060151e+02	-2.798627e+01
3.077826e+02	-2.803587e+01
3.095604e+02	-2.808154e+01
3.113484e+02	-2.813162e+01
3.131467e+02	-2.818673e+01
3.149554e+02	-2.823642e+01
3.167746e+02	-2.828585e+01
3.186043e+02	-2.833661e+01
3.204445e+02	-2.838806e+01
3.222954e+02	-2.843738e+01
3.241570e+02	-2.848447e+01
3.260293e+02	-2.853247e+01
3.279124e+02	-2.858724e+01
3.298064e+02	-2.863841e+01
3.317114e+02	-2.868349e+01
3.336273e+02	-2.873382e+01
3.355544e+02	-2.878184e+01
3.374925e+02	-2.883775e+01
3.394418e+02	-2.888650e+01
3.414024e+02	-2.893507e+01
3.433744e+02	-2.898631e+01
3.453577e+02	-2.903456e+01
3.473525e+02	-2.908435e+01
3.493588e+02	-2.913561e+01
3.513766e+02	-2.918704e+01
3.534062e+02	-2.923481e+01
3.554474e+02	-2.928571e+01
3.575005e+02	-2.933649e+01
3.595654e+02	-2.938711e+01
3.616422e+02	-2.943571e+01
3.637311e+02	-2.948364e+01
3.658320e+02	-2.953780e+01
3.679450e+02	-2.958401e+01
3.700702e+02	-2.963838e+01
3.722077e+02	-2.968802e+01
3.743576e+02	-2.973630e+01
3.765199e+02	-2.978099e+01
3.786946e+02	-2.983052e+01
3.808820e+02	-2.988460e+01
3.830819e+02	-2.993886e+01
3.852946e+02	-2.998520e+01
3.875200e+02	-3.002997e+01
3.897583e+02	-3.008282e+01
3.920096e+02	-3.013761e+01
3.942738e+02	-3.018301e+01
3.965511e+02	-3.023544e+01
3.988416e+02	-3.028378e+01
4.011452e+02	-3.033608e+01
4.034622e+02	-3.038604e+01
4.057926e+02	-3.043381e+01
4.081365e+02	-3.048387e+01
4.104938e+02	-3.053888e+01
4.128648e+02	-3.059198e+01
4.152495e+02	-3.063478e+01
4.176480e+02	-3.068787e+01
4.200603e+02	-3.073863e+01
4.224866e+02	-3.078464e+01
4.249268e+02	-3.083816e+01
4.273812e+02	-3.088337e+01
4.298497e+02	-3.093768e+01
4.323325e+02	-3.098071e+01
4.348297e+02	-3.104005e+01
4.373412e+02	-3.108765e+01
4.398673e+02	-3.113705e+01
4.424079e+02	-3.119254e+01
4.449633e+02	-3.123527e+01
4.475334e+02	-3.129214e+01
4.501183e+02	-3.133958e+01
4.527182e+02	-3.138876e+01
4.553330e+02	-3.144533e+01
4.579630e+02	-3.148886e+01
4.606082e+02	-3.153611e+01
4.632687e+02	-3.159653e+01
4.659445e+02	-3.163878e+01
4.686358e+02	-3.168717e+01
4.713426e+02	-3.174102e+01
4.740650e+02	-3.179311e+01
4.768032e+02	-3.184390e+01
4.795572e+02	-3.189059e+01
4.823271e+02	-3.193975e+01
4.851130e+02	-3.199181e+01
4.879150e+02	-3.204440e+01
4.907332e+02	-3.209006e+01
4.935676e+02	-3.213424e+01
4.964185e+02	-3.219164e+01
4.992858e+02	-3.223917e+01
5.021696e+02	-3.229190e+01
5.050701e+02	-3.234396e+01
5.079874e+02	-3.239589e+01
5.109215e+02	-3.244583e+01
5.138726e+02	-3.249342e+01
5.168407e+02	-3.254433e+01
5.198259e+02	-3.259099e+01
5.228284e+02	-3.263744e+01
5.258482e+02	-3.269205e+01
5.288855e+02	-3.274605e+01
5.319403e+02	-3.279465e+01
5.350128e+02	-3.284111e+01
5.381030e+02	-3.289634e+01
5.412111e+02	-3.294766e+01
5.443371e+02	-3.299815e+01
5.474812e+02	-3.304179e+01
5.506434e+02	-3.309051e+01
5.538239e+02	-3.314869e+01
5.570228e+02	-3.319880e+01
5.602401e+02	-3.324416e+01
5.634760e+02	-3.328741e+01
5.667306e+02	-3.334546e+01
5.700040e+02	-3.339442e+01
5.732964e+02	-3.343533e+01
5.766077e+02	-3.348710e+01
5.799382e+02	-3.355395e+01
5.832879e+02	-3.359290e+01
5.866569e+02	-3.364585e+01
5.900454e+02	-3.369654e+01
5.934535e+02	-3.374550e+01
5.968813e+02	-3.379502e+01
6.003288e+02	-3.384850e+01
6.037963e+02	-3.389549e+01
6.072838e+02	-3.394599e+01
6.107914e+02	-3.400051e+01
6.143194e+02	-3.404840e+01
6.178676e+02	-3.410117e+01
6.214364e+02	-3.415740e+01
6.250258e+02	-3.419485e+01
6.286359e+02	-3.425147e+01
6.322669e+02	-3.430280e+01
6.359189e+02	-3.435024e+01
6.395919e+02	-3.440927e+01
6.432862e+02	-3.444861e+01
6.470017e+02	-3.450470e+01
6.507388e+02	-3.455582e+01
6.544974e+02	-3.459580e+01
6.582778e+02	-3.465775e+01
6.620800e+02	-3.470335e+01
6.659041e+02	-3.476108e+01
6.697504e+02	-3.480299e+01
6.736188e+02	-3.485079e+01
6.775096e+02	-3.490290e+01
6.814229e+02	-3.496205e+01
6.853587e+02	-3.500290e+01
6.893173e+02	-3.505613e+01
6.932988e+02	-3.511004e+01
6.973033e+02	-3.515857e+01
7.013309e+02	-3.520410e+01
