Frequency(Hz)	Magnitude(dB)
1.000000e+01	-2.080739e+00
1.005776e+01	-2.099706e+00
1.011585e+01	-2.118943e+00
1.017428e+01	-2.138406e+00
1.023305e+01	-2.157993e+00
1.029215e+01	-2.177373e+00
1.035160e+01	-2.197280e+00
1.041139e+01	-2.217232e+00
1.047153e+01	-2.237325e+00
1.053201e+01	-2.257729e+00
1.059284e+01	-2.277908e+00
1.065403e+01	-2.298455e+00
1.071556e+01	-2.319005e+00
1.077746e+01	-2.339964e+00
1.083971e+01	-2.360698e+00
1.090232e+01	-2.381854e+00
1.096529e+01	-2.402746e+00
1.102862e+01	-2.424371e+00
1.109232e+01	-2.445816e+00
1.115639e+01	-2.467373e+00
1.122083e+01	-2.489068e+00
1.128564e+01	-2.510941e+00
1.135083e+01	-2.533010e+00
1.141639e+01	-2.555099e+00
1.148233e+01	-2.577630e+00
1.154865e+01	-2.599874e+00
1.161536e+01	-2.622599e+00
1.168245e+01	-2.645287e+00
1.174992e+01	-2.668333e+00
1.181779e+01	-2.691321e+00
1.188605e+01	-2.714211e+00
1.195470e+01	-2.737854e+00
1.202375e+01	-2.761250e+00
1.209320e+01	-2.784598e+00
1.216305e+01	-2.808494e+00
1.223330e+01	-2.832661e+00
1.230396e+01	-2.856517e+00
1.237503e+01	-2.880617e+00
1.244651e+01	-2.904989e+00
1.251840e+01	-2.929530e+00
1.259070e+01	-2.954336e+00
1.266343e+01	-2.978812e+00
1.273657e+01	-3.003735e+00
1.281014e+01	-3.028761e+00
1.288413e+01	-3.054055e+00
1.295855e+01	-3.079474e+00
1.303339e+01	-3.104915e+00
1.310867e+01	-3.130258e+00
1.318439e+01	-3.156434e+00
1.326054e+01	-3.182158e+00
1.333713e+01	-3.208176e+00
1.341417e+01	-3.234516e+00
1.349165e+01	-3.260809e+00
1.356958e+01	-3.287211e+00
1.364795e+01	-3.313867e+00
1.372678e+01	-3.340566e+00
1.380607e+01	-3.367559e+00
1.388581e+01	-3.394532e+00
1.396602e+01	-3.421662e+00
1.404668e+01	-3.449173e+00
1.412782e+01	-3.476607e+00
1.420942e+01	-3.504173e+00
1.429149e+01	-3.532211e+00
1.437404e+01	-3.559841e+00
1.445706e+01	-3.588018e+00
1.454057e+01	-3.616196e+00
1.462455e+01	-3.644684e+00
1.470902e+01	-3.672869e+00
1.479398e+01	-3.701559e+00
1.487943e+01	-3.730359e+00
1.496537e+01	-3.759210e+00
1.505181e+01	-3.788245e+00
1.513875e+01	-3.817619e+00
1.522619e+01	-3.846969e+00
1.531414e+01	-3.876122e+00
1.540259e+01	-3.906104e+00
1.549156e+01	-3.935577e+00
1.558103e+01	-3.965762e+00
1.567103e+01	-3.995737e+00
1.576155e+01	-4.025541e+00
1.585258e+01	-4.055987e+00
1.594415e+01	-4.086783e+00
1.603624e+01	-4.116951e+00
1.612886e+01	-4.147922e+00
1.622202e+01	-4.178574e+00
1.631572e+01	-4.209484e+00
1.640996e+01	-4.240665e+00
1.650474e+01	-4.272087e+00
1.660008e+01	-4.303282e+00
1.669596e+01	-4.334555e+00
1.679239e+01	-4.366524e+00
1.688938e+01	-4.398086e+00
1.698694e+01	-4.430207e+00
1.708505e+01	-4.462374e+00
1.718373e+01	-4.494573e+00
1.728299e+01	-4.526636e+00
1.738281e+01	-4.559067e+00
1.748322e+01	-4.591612e+00
1.758420e+01	-4.624557e+00
1.768576e+01	-4.657320e+00
1.778792e+01	-4.690391e+00
1.789066e+01	-4.723653e+00
1.799399e+01	-4.756516e+00
1.809793e+01	-4.790104e+00
1.820246e+01	-4.823831e+00
1.830760e+01	-4.856975e+00
1.841334e+01	-4.890804e+00
1.851969e+01	-4.924685e+00
1.862666e+01	-4.958644e+00
1.873425e+01	-4.993036e+00
1.884246e+01	-5.027040e+00
1.895129e+01	-5.061372e+00
1.906075e+01	-5.096132e+00
1.917085e+01	-5.130571e+00
1.928158e+01	-5.165436e+00
1.939295e+01	-5.199834e+00
1.950496e+01	-5.234995e+00
1.961762e+01	-5.270395e+00
1.973093e+01	-5.305559e+00
1.984490e+01	-5.340545e+00
1.995952e+01	-5.376171e+00
2.007480e+01	-5.411828e+00
2.019076e+01	-5.447581e+00
2.030738e+01	-5.483375e+00
2.042467e+01	-5.519169e+00
2.054264e+01	-5.555364e+00
2.066130e+01	-5.591653e+00
2.078064e+01	-5.628092e+00
2.090066e+01	-5.663765e+00
2.102139e+01	-5.700905e+00
2.114280e+01	-5.737602e+00
2.126492e+01	-5.773784e+00
2.138775e+01	-5.810618e+00
2.151128e+01	-5.847944e+00
2.163553e+01	-5.884795e+00
2.176050e+01	-5.922025e+00
2.188619e+01	-5.959521e+00
2.201260e+01	-5.996819e+00
2.213974e+01	-6.034499e+00
2.226762e+01	-6.071993e+00
2.239624e+01	-6.109696e+00
2.252560e+01	-6.147353e+00
2.265571e+01	-6.185545e+00
2.278656e+01	-6.223327e+00
2.291818e+01	-6.261559e+00
2.305055e+01	-6.299934e+00
2.318369e+01	-6.338089e+00
2.331760e+01	-6.376512e+00
2.345228e+01	-6.415274e+00
2.358774e+01	-6.453791e+00
2.372398e+01	-6.492327e+00
2.386101e+01	-6.531337e+00
2.399883e+01	-6.570591e+00
2.413745e+01	-6.609617e+00
2.427686e+01	-6.648150e+00
2.441709e+01	-6.687605e+00
2.455812e+01	-6.727188e+00
2.469997e+01	-6.766776e+00
2.484263e+01	-6.806279e+00
2.498612e+01	-6.845697e+00
2.513044e+01	-6.885476e+00
2.527559e+01	-6.925252e+00
2.542158e+01	-6.965439e+00
2.556842e+01	-7.005540e+00
2.571610e+01	-7.045577e+00
2.586463e+01	-7.085589e+00
2.601403e+01	-7.125502e+00
2.616428e+01	-7.166127e+00
2.631541e+01	-7.206681e+00
2.646740e+01	-7.247252e+00
2.662028e+01	-7.287762e+00
2.677404e+01	-7.328571e+00
2.692868e+01	-7.369387e+00
2.708422e+01	-7.410242e+00
2.724066e+01	-7.450921e+00
2.739800e+01	-7.492476e+00
2.755625e+01	-7.533714e+00
2.771541e+01	-7.574536e+00
2.787550e+01	-7.615871e+00
2.803650e+01	-7.657674e+00
2.819844e+01	-7.699372e+00
2.836131e+01	-7.740562e+00
2.852513e+01	-7.782311e+00
2.868989e+01	-7.823657e+00
2.885560e+01	-7.865744e+00
2.902227e+01	-7.907800e+00
2.918990e+01	-7.949636e+00
2.935850e+01	-7.991464e+00
2.952807e+01	-8.033806e+00
2.969863e+01	-8.076046e+00
2.987016e+01	-8.118360e+00
3.004269e+01	-8.160548e+00
3.021622e+01	-8.203035e+00
3.039075e+01	-8.245322e+00
3.056628e+01	-8.287997e+00
3.074283e+01	-8.330729e+00
3.092040e+01	-8.373676e+00
3.109900e+01	-8.416090e+00
3.127862e+01	-8.459489e+00
3.145929e+01	-8.501957e+00
3.164099e+01	-8.545361e+00
3.182375e+01	-8.587999e+00
3.200756e+01	-8.631212e+00
3.219244e+01	-8.674407e+00
3.237838e+01	-8.717365e+00
3.256540e+01	-8.760927e+00
3.275349e+01	-8.804198e+00
3.294268e+01	-8.848275e+00
3.313295e+01	-8.891391e+00
3.332433e+01	-8.934810e+00
3.351681e+01	-8.978523e+00
3.371040e+01	-9.022667e+00
3.390511e+01	-9.065966e+00
3.410094e+01	-9.110092e+00
3.429791e+01	-9.153743e+00
3.449601e+01	-9.197296e+00
3.469526e+01	-9.241969e+00
3.489566e+01	-9.286673e+00
3.509721e+01	-9.329992e+00
3.529993e+01	-9.374278e+00
3.550382e+01	-9.418792e+00
3.570889e+01	-9.463255e+00
3.591515e+01	-9.507625e+00
3.612259e+01	-9.551948e+00
3.633123e+01	-9.596654e+00
3.654108e+01	-9.640644e+00
3.675214e+01	-9.685252e+00
3.696442e+01	-9.730357e+00
3.717792e+01	-9.774859e+00
3.739266e+01	-9.819462e+00
3.760864e+01	-9.864565e+00
3.782587e+01	-9.909400e+00
3.804435e+01	-9.954448e+00
3.826409e+01	-9.999728e+00
3.848510e+01	-1.004461e+01
3.870739e+01	-1.008960e+01
3.893096e+01	-1.013488e+01
3.915583e+01	-1.017956e+01
3.938199e+01	-1.022466e+01
3.960946e+01	-1.027045e+01
3.983824e+01	-1.031605e+01
4.006834e+01	-1.036169e+01
4.029978e+01	-1.040657e+01
4.053255e+01	-1.045245e+01
4.076666e+01	-1.049795e+01
4.100213e+01	-1.054375e+01
4.123896e+01	-1.058926e+01
4.147715e+01	-1.063416e+01
4.171672e+01	-1.068075e+01
4.195767e+01	-1.072618e+01
4.220002e+01	-1.077171e+01
4.244377e+01	-1.081766e+01
4.268892e+01	-1.086343e+01
4.293549e+01	-1.090970e+01
4.318348e+01	-1.095575e+01
4.343291e+01	-1.100165e+01
4.368377e+01	-1.104793e+01
4.393609e+01	-1.109457e+01
4.418986e+01	-1.114054e+01
4.444510e+01	-1.118612e+01
4.470182e+01	-1.123270e+01
4.496001e+01	-1.127908e+01
4.521970e+01	-1.132522e+01
4.548089e+01	-1.137109e+01
4.574358e+01	-1.141801e+01
4.600779e+01	-1.146440e+01
4.627353e+01	-1.151089e+01
4.654081e+01	-1.155660e+01
4.680963e+01	-1.160402e+01
4.708000e+01	-1.164983e+01
4.735193e+01	-1.169689e+01
4.762543e+01	-1.174343e+01
4.790051e+01	-1.179040e+01
4.817719e+01	-1.183722e+01
4.845545e+01	-1.188423e+01
4.873533e+01	-1.193114e+01
4.901682e+01	-1.197738e+01
4.929994e+01	-1.202450e+01
4.958470e+01	-1.207114e+01
4.987110e+01	-1.211888e+01
5.015915e+01	-1.216540e+01
5.044887e+01	-1.221218e+01
5.074026e+01	-1.225860e+01
5.103333e+01	-1.230616e+01
5.132810e+01	-1.235362e+01
5.162457e+01	-1.240069e+01
5.192275e+01	-1.244814e+01
5.222265e+01	-1.249543e+01
5.252429e+01	-1.254147e+01
5.282767e+01	-1.258955e+01
5.313280e+01	-1.263685e+01
5.343969e+01	-1.268368e+01
5.374836e+01	-1.273177e+01
5.405880e+01	-1.277834e+01
5.437105e+01	-1.282649e+01
5.468509e+01	-1.287369e+01
5.500095e+01	-1.292056e+01
5.531863e+01	-1.296873e+01
5.563815e+01	-1.301651e+01
5.595951e+01	-1.306348e+01
5.628273e+01	-1.311034e+01
5.660782e+01	-1.315843e+01
5.693479e+01	-1.320644e+01
5.726364e+01	-1.325402e+01
5.759439e+01	-1.330175e+01
5.792705e+01	-1.334976e+01
5.826164e+01	-1.339747e+01
5.859815e+01	-1.344517e+01
5.893662e+01	-1.349216e+01
5.927703e+01	-1.354055e+01
5.961941e+01	-1.358795e+01
5.996377e+01	-1.363702e+01
6.031012e+01	-1.368374e+01
6.065847e+01	-1.373183e+01
6.100883e+01	-1.378004e+01
6.136121e+01	-1.382790e+01
6.171563e+01	-1.387643e+01
6.207210e+01	-1.392450e+01
6.243063e+01	-1.397155e+01
6.279122e+01	-1.402044e+01
6.315390e+01	-1.406772e+01
6.351868e+01	-1.411637e+01
6.388556e+01	-1.416451e+01
6.425456e+01	-1.421172e+01
6.462569e+01	-1.426086e+01
6.499897e+01	-1.430891e+01
6.537440e+01	-1.435620e+01
6.575200e+01	-1.440422e+01
6.613178e+01	-1.445255e+01
6.651375e+01	-1.450155e+01
6.689793e+01	-1.454960e+01
6.728433e+01	-1.459682e+01
6.767297e+01	-1.464670e+01
6.806384e+01	-1.469484e+01
6.845698e+01	-1.474304e+01
6.885238e+01	-1.479179e+01
6.925007e+01	-1.483982e+01
6.965005e+01	-1.488828e+01
7.005235e+01	-1.493629e+01
7.045697e+01	-1.498495e+01
7.086393e+01	-1.503331e+01
7.127323e+01	-1.508143e+01
7.168490e+01	-1.512973e+01
7.209895e+01	-1.517916e+01
7.251539e+01	-1.522677e+01
7.293424e+01	-1.527540e+01
7.335551e+01	-1.532470e+01
7.377920e+01	-1.537297e+01
7.420535e+01	-1.542134e+01
7.463396e+01	-1.547053e+01
7.506504e+01	-1.551857e+01
7.549861e+01	-1.556720e+01
7.593469e+01	-1.561643e+01
7.637328e+01	-1.566526e+01
7.681441e+01	-1.571437e+01
7.725809e+01	-1.576211e+01
7.770433e+01	-1.581041e+01
7.815315e+01	-1.585982e+01
7.860456e+01	-1.590716e+01
7.905857e+01	-1.595589e+01
7.951521e+01	-1.600595e+01
7.997449e+01	-1.605429e+01
8.043642e+01	-1.610336e+01
8.090102e+01	-1.615209e+01
8.136830e+01	-1.620056e+01
8.183828e+01	-1.624892e+01
8.231097e+01	-1.629827e+01
8.278640e+01	-1.634714e+01
8.326457e+01	-1.639656e+01
8.374550e+01	-1.644492e+01
8.422921e+01	-1.649474e+01
8.471572e+01	-1.654328e+01
8.520503e+01	-1.659267e+01
8.569717e+01	-1.664123e+01
8.619215e+01	-1.668973e+01
8.669000e+01	-1.673759e+01
8.719071e+01	-1.678772e+01
8.769432e+01	-1.683542e+01
8.820084e+01	-1.688544e+01
8.871029e+01	-1.693584e+01
8.922267e+01	-1.698417e+01
8.973802e+01	-1.703339e+01
9.025634e+01	-1.708093e+01
9.077766e+01	-1.713129e+01
9.130199e+01	-1.717852e+01
9.182935e+01	-1.722864e+01
9.235975e+01	-1.727793e+01
9.289321e+01	-1.732771e+01
9.342976e+01	-1.737672e+01
9.396941e+01	-1.742513e+01
9.451217e+01	-1.747509e+01
9.505807e+01	-1.752337e+01
9.560712e+01	-1.757302e+01
9.615934e+01	-1.762176e+01
9.671476e+01	-1.767173e+01
9.727338e+01	-1.772074e+01
9.783522e+01	-1.777008e+01
9.840032e+01	-1.781920e+01
9.896867e+01	-1.786790e+01
9.954031e+01	-1.791783e+01
1.001153e+02	-1.796479e+01
1.006935e+02	-1.801677e+01
1.012751e+02	-1.806581e+01
1.018601e+02	-1.811405e+01
1.024484e+02	-1.816313e+01
1.030402e+02	-1.821297e+01
1.036353e+02	-1.826192e+01
1.042339e+02	-1.831101e+01
1.048360e+02	-1.835946e+01
1.054415e+02	-1.841073e+01
1.060505e+02	-1.846010e+01
1.066631e+02	-1.851069e+01
1.072791e+02	-1.855838e+01
1.078988e+02	-1.860658e+01
1.085220e+02	-1.865681e+01
1.091488e+02	-1.870577e+01
1.097793e+02	-1.875484e+01
1.104133e+02	-1.880426e+01
1.110511e+02	-1.885524e+01
1.116925e+02	-1.890298e+01
1.123376e+02	-1.895267e+01
1.129865e+02	-1.900184e+01
1.136391e+02	-1.905186e+01
1.142955e+02	-1.910056e+01
1.149556e+02	-1.915070e+01
1.156196e+02	-1.920019e+01
1.162874e+02	-1.924918e+01
1.169591e+02	-1.929914e+01
1.176347e+02	-1.934816e+01
1.183141e+02	-1.939739e+01
1.189975e+02	-1.944822e+01
1.196848e+02	-1.949656e+01
1.203761e+02	-1.954518e+01
1.210714e+02	-1.959494e+01
1.217707e+02	-1.964477e+01
1.224740e+02	-1.969462e+01
1.231814e+02	-1.974557e+01
1.238929e+02	-1.979472e+01
1.246085e+02	-1.984504e+01
1.253283e+02	-1.989235e+01
1.260522e+02	-1.994243e+01
1.267802e+02	-1.999084e+01
1.275125e+02	-2.003983e+01
1.282490e+02	-2.009186e+01
1.289898e+02	-2.014150e+01
1.297348e+02	-2.018984e+01
1.304842e+02	-2.023861e+01
1.312378e+02	-2.028937e+01
1.319959e+02	-2.033769e+01
1.327583e+02	-2.038941e+01
1.335251e+02	-2.043612e+01
1.342963e+02	-2.048778e+01
1.350720e+02	-2.053701e+01
1.358522e+02	-2.058728e+01
1.366368e+02	-2.063469e+01
1.374260e+02	-2.068642e+01
1.382198e+02	-2.073319e+01
1.390182e+02	-2.078487e+01
1.398211e+02	-2.083582e+01
1.406287e+02	-2.088395e+01
1.414410e+02	-2.093332e+01
1.422579e+02	-2.098358e+01
1.430796e+02	-2.103232e+01
1.439060e+02	-2.108394e+01
1.447372e+02	-2.113481e+01
1.455732e+02	-2.118343e+01
1.464141e+02	-2.123127e+01
1.472597e+02	-2.128015e+01
1.481103e+02	-2.133213e+01
1.489658e+02	-2.138070e+01
1.498262e+02	-2.143053e+01
1.506916e+02	-2.148167e+01
1.515620e+02	-2.153011e+01
1.524374e+02	-2.157996e+01
1.533179e+02	-2.163015e+01
1.542034e+02	-2.167923e+01
1.550941e+02	-2.173049e+01
1.559899e+02	-2.177876e+01
1.568909e+02	-2.182677e+01
1.577971e+02	-2.187735e+01
1.587085e+02	-2.192937e+01
1.596252e+02	-2.197818e+01
1.605472e+02	-2.202764e+01
1.614745e+02	-2.207586e+01
1.624072e+02	-2.212833e+01
1.633453e+02	-2.217759e+01
1.642887e+02	-2.222609e+01
1.652377e+02	-2.227911e+01
1.661921e+02	-2.232702e+01
1.671520e+02	-2.237664e+01
1.681175e+02	-2.242193e+01
1.690885e+02	-2.247423e+01
1.700651e+02	-2.252592e+01
1.710474e+02	-2.257301e+01
1.720354e+02	-2.262459e+01
1.730291e+02	-2.267525e+01
1.740285e+02	-2.272618e+01
1.750337e+02	-2.277355e+01
1.760446e+02	-2.282277e+01
1.770615e+02	-2.287309e+01
1.780842e+02	-2.292347e+01
1.791128e+02	-2.297171e+01
1.801473e+02	-2.302210e+01
1.811878e+02	-2.307100e+01
1.822344e+02	-2.312304e+01
1.832870e+02	-2.317221e+01
1.843456e+02	-2.322323e+01
1.854104e+02	-2.327032e+01
1.864813e+02	-2.332030e+01
1.875584e+02	-2.337376e+01
1.886418e+02	-2.342099e+01
1.897313e+02	-2.347099e+01
1.908272e+02	-2.352233e+01
1.919294e+02	-2.357113e+01
1.930380e+02	-2.362193e+01
1.941530e+02	-2.367108e+01
1.952744e+02	-2.372047e+01
1.964023e+02	-2.377036e+01
1.975367e+02	-2.382025e+01
1.986777e+02	-2.387122e+01
1.998252e+02	-2.391957e+01
2.009794e+02	-2.396850e+01
2.021403e+02	-2.401966e+01
2.033078e+02	-2.406936e+01
2.044821e+02	-2.412000e+01
2.056632e+02	-2.416896e+01
2.068511e+02	-2.422015e+01
2.080459e+02	-2.426987e+01
2.092475e+02	-2.431988e+01
2.104561e+02	-2.436957e+01
2.116717e+02	-2.441855e+01
2.128943e+02	-2.447003e+01
2.141240e+02	-2.451711e+01
2.153608e+02	-2.456804e+01
2.166047e+02	-2.461881e+01
2.178558e+02	-2.466659e+01
2.191141e+02	-2.472045e+01
2.203797e+02	-2.476747e+01
2.216526e+02	-2.481579e+01
2.229329e+02	-2.486550e+01
2.242205e+02	-2.491895e+01
2.255156e+02	-2.496691e+01
2.268182e+02	-2.501868e+01
2.281283e+02	-2.506563e+01
2.294459e+02	-2.511782e+01
2.307712e+02	-2.516915e+01
2.321041e+02	-2.521623e+01
2.334447e+02	-2.526357e+01
2.347931e+02	-2.531816e+01
2.361493e+02	-2.536510e+01
2.375133e+02	-2.541660e+01
2.388851e+02	-2.546485e+01
2.402649e+02	-2.551474e+01
2.416527e+02	-2.556541e+01
2.430484e+02	-2.561720e+01
2.444523e+02	-2.566651e+01
2.458642e+02	-2.571308e+01
2.472843e+02	-2.576803e+01
2.487126e+02	-2.581413e+01
2.501492e+02	-2.586443e+01
2.515940e+02	-2.591496e+01
2.530472e+02	-2.596584e+01
2.545088e+02	-2.601799e+01
2.559789e+02	-2.606226e+01
2.574574e+02	-2.611601e+01
2.589444e+02	-2.616607e+01
2.604401e+02	-2.621456e+01
2.619444e+02	-2.626791e+01
2.634574e+02	-2.631661e+01
2.649791e+02	-2.636439e+01
2.665096e+02	-2.641719e+01
2.680489e+02	-2.646625e+01
2.695972e+02	-2.651423e+01
2.711544e+02	-2.656490e+01
2.727205e+02	-2.661556e+01
2.742958e+02	-2.666393e+01
2.758801e+02	-2.671543e+01
2.774736e+02	-2.676347e+01
2.790762e+02	-2.681625e+01
2.806882e+02	-2.686591e+01
2.823094e+02	-2.691260e+01
2.839400e+02	-2.696223e+01
2.855800e+02	-2.701465e+01
2.872295e+02	-2.706497e+01
2.888886e+02	-2.711563e+01
2.905572e+02	-2.716219e+01
2.922354e+02	-2.721693e+01
2.939234e+02	-2.726578e+01
2.956211e+02	-2.731271e+01
2.973286e+02	-2.736701e+01
2.990459e+02	-2.741329e+01
3.007732e+02	-2.746691e+01
3.025104e+02	-2.751434e+01
3.042577e+02	-2.756300e+01
3.060151e+02	-2.761607e+01
3.077826e+02	-2.766311e+01
3.095604e+02	-2.771753e+01
3.113484e+02	-2.776179e+01
3.131467e+02	-2.781515e+01
3.149554e+02	-2.787035e+01
3.167746e+02	-2.791570e+01
3.186043e+02	-2.796680e+01
3.204445e+02	-2.801597e+01
3.222954e+02	-2.806428e+01
3.241570e+02	-2.811446e+01
3.260293e+02	-2.816270e+01
3.279124e+02	-2.821262e+01
3.298064e+02	-2.826658e+01
3.317114e+02	-2.831596e+01
3.336273e+02	-2.836434e+01
3.355544e+02	-2.841658e+01
3.374925e+02	-2.846962e+01
3.394418e+02	-2.852068e+01
3.414024e+02	-2.856269e+01
3.433744e+02	-2.861622e+01
3.453577e+02	-2.866494e+01
3.473525e+02	-2.871569e+01
3.493588e+02	-2.876513e+01
3.513766e+02	-2.882029e+01
3.534062e+02	-2.886740e+01
3.554474e+02	-2.891852e+01
3.575005e+02	-2.896709e+01
3.595654e+02	-2.901398e+01
3.616422e+02	-2.906368e+01
3.637311e+02	-2.911603e+01
3.658320e+02	-2.916290e+01
3.679450e+02	-2.921955e+01
3.700702e+02	-2.926877e+01
3.722077e+02	-2.931758e+01
3.743576e+02	-2.936457e+01
3.765199e+02	-2.942107e+01
3.786946e+02	-2.946649e+01
3.808820e+02	-2.952162e+01
3.830819e+02	-2.956753e+01
3.852946e+02	-2.961898e+01
3.875200e+02	-2.967037e+01
3.897583e+02	-2.971922e+01
3.920096e+02	-2.976336e+01
3.942738e+02	-2.982318e+01
3.965511e+02	-2.986504e+01
3.988416e+02	-2.991840e+01
4.011452e+02	-2.996513e+01
4.034622e+02	-3.001908e+01
4.057926e+02	-3.007132e+01
4.081365e+02	-3.012119e+01
4.104938e+02	-3.016569e+01
4.128648e+02	-3.021649e+01
4.152495e+02	-3.026512e+01
4.176480e+02	-3.031716e+01
4.200603e+02	-3.036714e+01
4.224866e+02	-3.041900e+01
4.249268e+02	-3.046560e+01
4.273812e+02	-3.051852e+01
4.298497e+02	-3.056478e+01
4.323325e+02	-3.061797e+01
4.348297e+02	-3.066510e+01
4.373412e+02	-3.072051e+01
4.398673e+02	-3.076678e+01
4.424079e+02	-3.081739e+01
4.449633e+02	-3.087072e+01
4.475334e+02	-3.091956e+01
4.501183e+02	-3.096776e+01
4.527182e+02	-3.102481e+01
4.553330e+02	-3.107250e+01
4.579630e+02	-3.111861e+01
4.606082e+02	-3.117043e+01
4.632687e+02	-3.121858e+01
4.659445e+02	-3.127532e+01
4.686358e+02	-3.132645e+01
4.713426e+02	-3.137504e+01
4.740650e+02	-3.142137e+01
4.768032e+02	-3.147155e+01
4.795572e+02	-3.152488e+01
4.823271e+02	-3.157266e+01
4.851130e+02	-3.163050e+01
4.879150e+02	-3.167280e+01
4.907332e+02	-3.172231e+01
4.935676e+02	-3.177438e+01
4.964185e+02	-3.183580e+01
4.992858e+02	-3.186931e+01
5.021696e+02	-3.192072e+01
5.050701e+02	-3.197268e+01
5.079874e+02	-3.202802e+01
5.109215e+02	-3.207605e+01
5.138726e+02	-3.212194e+01
5.168407e+02	-3.217437e+01
5.198259e+02	-3.222267e+01
5.228284e+02	-3.227297e+01
5.258482e+02	-3.232219e+01
5.288855e+02	-3.237703e+01
5.319403e+02	-3.242690e+01
5.350128e+02	-3.247425e+01
5.381030e+02	-3.252975e+01
5.412111e+02	-3.257527e+01
5.443371e+02	-3.262575e+01
5.474812e+02	-3.267563e+01
5.506434e+02	-3.272538e+01
5.538239e+02	-3.278326e+01
5.570228e+02	-3.282685e+01
5.602401e+02	-3.288278e+01
5.634760e+02	-3.293546e+01
5.667306e+02	-3.298408e+01
5.700040e+02	-3.302844e+01
5.732964e+02	-3.307817e+01
5.766077e+02	-3.313459e+01
5.799382e+02	-3.317541e+01
5.832879e+02	-3.322465e+01
5.866569e+02	-3.328708e+01
5.900454e+02	-3.333022e+01
5.934535e+02	-3.338306e+01
5.968813e+02	-3.342798e+01
6.003288e+02	-3.347731e+01
6.037963e+02	-3.353529e+01
6.072838e+02	-3.358714e+01
6.107914e+02	-3.363219e+01
6.143194e+02	-3.368576e+01
6.178676e+02	-3.373941e+01
6.214364e+02	-3.379012e+01
6.250258e+02	-3.384216e+01
6.286359e+02	-3.388530e+01
6.322669e+02	-3.393099e+01
6.359189e+02	-3.398094e+01
6.395919e+02	-3.403168e+01
6.432862e+02	-3.408957e+01
6.470017e+02	-3.413674e+01
6.507388e+02	-3.417988e+01
6.544974e+02	-3.423641e+01
6.582778e+02	-3.429153e+01
6.620800e+02	-3.433675e+01
6.659041e+02	-3.439360e+01
6.697504e+02	-3.443849e+01
6.736188e+02	-3.448622e+01
6.775096e+02	-3.453538e+01
6.814229e+02	-3.458963e+01
6.853587e+02	-3.464237e+01
6.893173e+02	-3.469422e+01
6.932988e+02	-3.474661e+01
6.973033e+02	-3.478940e+01
7.013309e+02	-3.483986e+01
