Frequency(Hz)	Magnitude(dB)
1.000000e+01	-1.991960e+00
1.005776e+01	-2.010415e+00
1.011585e+01	-2.029099e+00
1.017428e+01	-2.047574e+00
1.023305e+01	-2.066441e+00
1.029215e+01	-2.085609e+00
1.035160e+01	-2.104703e+00
1.041139e+01	-2.123944e+00
1.047153e+01	-2.143515e+00
1.053201e+01	-2.163065e+00
1.059284e+01	-2.182531e+00
1.065403e+01	-2.202304e+00
1.071556e+01	-2.222457e+00
1.077746e+01	-2.242590e+00
1.083971e+01	-2.262893e+00
1.090232e+01	-2.283200e+00
1.096529e+01	-2.303664e+00
1.102862e+01	-2.324248e+00
1.109232e+01	-2.345209e+00
1.115639e+01	-2.365996e+00
1.122083e+01	-2.387263e+00
1.128564e+01	-2.408261e+00
1.135083e+01	-2.429589e+00
1.141639e+01	-2.451285e+00
1.148233e+01	-2.472849e+00
1.154865e+01	-2.494709e+00
1.161536e+01	-2.516822e+00
1.168245e+01	-2.538709e+00
1.174992e+01	-2.560805e+00
1.181779e+01	-2.583251e+00
1.188605e+01	-2.605805e+00
1.195470e+01	-2.628321e+00
1.202375e+01	-2.651188e+00
1.209320e+01	-2.673996e+00
1.216305e+01	-2.697253e+00
1.223330e+01	-2.720530e+00
1.230396e+01	-2.743901e+00
1.237503e+01	-2.767170e+00
1.244651e+01	-2.790903e+00
1.251840e+01	-2.814898e+00
1.259070e+01	-2.838625e+00
1.266343e+01	-2.862649e+00
1.273657e+01	-2.887016e+00
1.281014e+01	-2.911143e+00
1.288413e+01	-2.935500e+00
1.295855e+01	-2.960517e+00
1.303339e+01	-2.985262e+00
1.310867e+01	-3.010005e+00
1.318439e+01	-3.035449e+00
1.326054e+01	-3.060649e+00
1.333713e+01	-3.085737e+00
1.341417e+01	-3.111692e+00
1.349165e+01	-3.136921e+00
1.356958e+01	-3.162882e+00
1.364795e+01	-3.188817e+00
1.372678e+01	-3.214840e+00
1.380607e+01	-3.241087e+00
1.388581e+01	-3.267481e+00
1.396602e+01	-3.294060e+00
1.404668e+01	-3.320786e+00
1.412782e+01	-3.347566e+00
1.420942e+01	-3.374448e+00
1.429149e+01	-3.401674e+00
1.437404e+01	-3.428797e+00
1.445706e+01	-3.456329e+00
1.454057e+01	-3.483697e+00
1.462455e+01	-3.511283e+00
1.470902e+01	-3.539232e+00
1.479398e+01	-3.567312e+00
1.487943e+01	-3.595297e+00
1.496537e+01	-3.623459e+00
1.505181e+01	-3.651890e+00
1.513875e+01	-3.680269e+00
1.522619e+01	-3.709234e+00
1.531414e+01	-3.737798e+00
1.540259e+01	-3.766760e+00
1.549156e+01	-3.795732e+00
1.558103e+01	-3.824909e+00
1.567103e+01	-3.854731e+00
1.576155e+01	-3.884106e+00
1.585258e+01	-3.913472e+00
1.594415e+01	-3.943410e+00
1.603624e+01	-3.973191e+00
1.612886e+01	-4.003116e+00
1.622202e+01	-4.033777e+00
1.631572e+01	-4.063800e+00
1.640996e+01	-4.094134e+00
1.650474e+01	-4.125288e+00
1.660008e+01	-4.155904e+00
1.669596e+01	-4.186571e+00
1.679239e+01	-4.217448e+00
1.688938e+01	-4.249013e+00
1.698694e+01	-4.279758e+00
1.708505e+01	-4.311400e+00
1.718373e+01	-4.343058e+00
1.728299e+01	-4.374746e+00
1.738281e+01	-4.406661e+00
1.748322e+01	-4.438344e+00
1.758420e+01	-4.470672e+00
1.768576e+01	-4.503166e+00
1.778792e+01	-4.535166e+00
1.789066e+01	-4.567647e+00
1.799399e+01	-4.600031e+00
1.809793e+01	-4.632736e+00
1.820246e+01	-4.666046e+00
1.830760e+01	-4.698988e+00
1.841334e+01	-4.732000e+00
1.851969e+01	-4.765299e+00
1.862666e+01	-4.798647e+00
1.873425e+01	-4.832445e+00
1.884246e+01	-4.865782e+00
1.895129e+01	-4.899766e+00
1.906075e+01	-4.933542e+00
1.917085e+01	-4.967471e+00
1.928158e+01	-5.001490e+00
1.939295e+01	-5.035970e+00
1.950496e+01	-5.070190e+00
1.961762e+01	-5.104701e+00
1.973093e+01	-5.139593e+00
1.984490e+01	-5.174223e+00
1.995952e+01	-5.209135e+00
2.007480e+01	-5.244535e+00
2.019076e+01	-5.279603e+00
2.030738e+01	-5.314204e+00
2.042467e+01	-5.349886e+00
2.054264e+01	-5.385712e+00
2.066130e+01	-5.420906e+00
2.078064e+01	-5.457218e+00
2.090066e+01	-5.492891e+00
2.102139e+01	-5.528328e+00
2.114280e+01	-5.564704e+00
2.126492e+01	-5.601024e+00
2.138775e+01	-5.636881e+00
2.151128e+01	-5.673420e+00
2.163553e+01	-5.709910e+00
2.176050e+01	-5.746855e+00
2.188619e+01	-5.783310e+00
2.201260e+01	-5.820328e+00
2.213974e+01	-5.857327e+00
2.226762e+01	-5.894526e+00
2.239624e+01	-5.931736e+00
2.252560e+01	-5.968855e+00
2.265571e+01	-6.006390e+00
2.278656e+01	-6.043567e+00
2.291818e+01	-6.081625e+00
2.305055e+01	-6.119362e+00
2.318369e+01	-6.157250e+00
2.331760e+01	-6.195020e+00
2.345228e+01	-6.233009e+00
2.358774e+01	-6.271458e+00
2.372398e+01	-6.309375e+00
2.386101e+01	-6.348019e+00
2.399883e+01	-6.386384e+00
2.413745e+01	-6.425106e+00
2.427686e+01	-6.463976e+00
2.441709e+01	-6.502360e+00
2.455812e+01	-6.541499e+00
2.469997e+01	-6.580348e+00
2.484263e+01	-6.619601e+00
2.498612e+01	-6.658713e+00
2.513044e+01	-6.697940e+00
2.527559e+01	-6.736970e+00
2.542158e+01	-6.776605e+00
2.556842e+01	-6.816206e+00
2.571610e+01	-6.855850e+00
2.586463e+01	-6.895812e+00
2.601403e+01	-6.935528e+00
2.616428e+01	-6.975411e+00
2.631541e+01	-7.015476e+00
2.646740e+01	-7.055737e+00
2.662028e+01	-7.096226e+00
2.677404e+01	-7.136053e+00
2.692868e+01	-7.176511e+00
2.708422e+01	-7.217101e+00
2.724066e+01	-7.257748e+00
2.739800e+01	-7.298289e+00
2.755625e+01	-7.338998e+00
2.771541e+01	-7.379906e+00
2.787550e+01	-7.420731e+00
2.803650e+01	-7.461763e+00
2.819844e+01	-7.503049e+00
2.836131e+01	-7.544402e+00
2.852513e+01	-7.585216e+00
2.868989e+01	-7.626396e+00
2.885560e+01	-7.668089e+00
2.902227e+01	-7.709654e+00
2.918990e+01	-7.751139e+00
2.935850e+01	-7.793088e+00
2.952807e+01	-7.834791e+00
2.969863e+01	-7.876380e+00
2.987016e+01	-7.918500e+00
3.004269e+01	-7.960266e+00
3.021622e+01	-8.002410e+00
3.039075e+01	-8.045142e+00
3.056628e+01	-8.087016e+00
3.074283e+01	-8.129234e+00
3.092040e+01	-8.171840e+00
3.109900e+01	-8.214045e+00
3.127862e+01	-8.256118e+00
3.145929e+01	-8.298902e+00
3.164099e+01	-8.341639e+00
3.182375e+01	-8.384363e+00
3.200756e+01	-8.427277e+00
3.219244e+01	-8.470018e+00
3.237838e+01	-8.512717e+00
3.256540e+01	-8.555876e+00
3.275349e+01	-8.599159e+00
3.294268e+01	-8.642377e+00
3.313295e+01	-8.685461e+00
3.332433e+01	-8.728744e+00
3.351681e+01	-8.771777e+00
3.371040e+01	-8.815636e+00
3.390511e+01	-8.859036e+00
3.410094e+01	-8.902295e+00
3.429791e+01	-8.946074e+00
3.449601e+01	-8.990027e+00
3.469526e+01	-9.033485e+00
3.489566e+01	-9.077549e+00
3.509721e+01	-9.121311e+00
3.529993e+01	-9.165772e+00
3.550382e+01	-9.209013e+00
3.570889e+01	-9.253410e+00
3.591515e+01	-9.297590e+00
3.612259e+01	-9.341827e+00
3.633123e+01	-9.385983e+00
3.654108e+01	-9.430255e+00
3.675214e+01	-9.474274e+00
3.696442e+01	-9.518468e+00
3.717792e+01	-9.563389e+00
3.739266e+01	-9.608009e+00
3.760864e+01	-9.652470e+00
3.782587e+01	-9.696688e+00
3.804435e+01	-9.741429e+00
3.826409e+01	-9.786174e+00
3.848510e+01	-9.831575e+00
3.870739e+01	-9.876276e+00
3.893096e+01	-9.921044e+00
3.915583e+01	-9.966113e+00
3.938199e+01	-1.001119e+01
3.960946e+01	-1.005619e+01
3.983824e+01	-1.010134e+01
4.006834e+01	-1.014597e+01
4.029978e+01	-1.019159e+01
4.053255e+01	-1.023700e+01
4.076666e+01	-1.028208e+01
4.100213e+01	-1.032770e+01
4.123896e+01	-1.037299e+01
4.147715e+01	-1.041847e+01
4.171672e+01	-1.046439e+01
4.195767e+01	-1.050907e+01
4.220002e+01	-1.055503e+01
4.244377e+01	-1.060117e+01
4.268892e+01	-1.064605e+01
4.293549e+01	-1.069239e+01
4.318348e+01	-1.073763e+01
4.343291e+01	-1.078299e+01
4.368377e+01	-1.082973e+01
4.393609e+01	-1.087588e+01
4.418986e+01	-1.092153e+01
4.444510e+01	-1.096739e+01
4.470182e+01	-1.101379e+01
4.496001e+01	-1.105966e+01
4.521970e+01	-1.110569e+01
4.548089e+01	-1.115205e+01
4.574358e+01	-1.119751e+01
4.600779e+01	-1.124434e+01
4.627353e+01	-1.129090e+01
4.654081e+01	-1.133671e+01
4.680963e+01	-1.138343e+01
4.708000e+01	-1.142988e+01
4.735193e+01	-1.147618e+01
4.762543e+01	-1.152249e+01
4.790051e+01	-1.156939e+01
4.817719e+01	-1.161622e+01
4.845545e+01	-1.166258e+01
4.873533e+01	-1.170888e+01
4.901682e+01	-1.175575e+01
4.929994e+01	-1.180266e+01
4.958470e+01	-1.184891e+01
4.987110e+01	-1.189625e+01
5.015915e+01	-1.194275e+01
5.044887e+01	-1.198937e+01
5.074026e+01	-1.203666e+01
5.103333e+01	-1.208353e+01
5.132810e+01	-1.213058e+01
5.162457e+01	-1.217732e+01
5.192275e+01	-1.222477e+01
5.222265e+01	-1.227147e+01
5.252429e+01	-1.231853e+01
5.282767e+01	-1.236630e+01
5.313280e+01	-1.241294e+01
5.343969e+01	-1.246033e+01
5.374836e+01	-1.250619e+01
5.405880e+01	-1.255413e+01
5.437105e+01	-1.260140e+01
5.468509e+01	-1.264935e+01
5.500095e+01	-1.269602e+01
5.531863e+01	-1.274350e+01
5.563815e+01	-1.279170e+01
5.595951e+01	-1.283838e+01
5.628273e+01	-1.288574e+01
5.660782e+01	-1.293326e+01
5.693479e+01	-1.298054e+01
5.726364e+01	-1.302828e+01
5.759439e+01	-1.307613e+01
5.792705e+01	-1.312366e+01
5.826164e+01	-1.317026e+01
5.859815e+01	-1.321864e+01
5.893662e+01	-1.326650e+01
5.927703e+01	-1.331440e+01
5.961941e+01	-1.336163e+01
5.996377e+01	-1.340859e+01
6.031012e+01	-1.345680e+01
6.065847e+01	-1.350449e+01
6.100883e+01	-1.355268e+01
6.136121e+01	-1.360081e+01
6.171563e+01	-1.364845e+01
6.207210e+01	-1.369530e+01
6.243063e+01	-1.374425e+01
6.279122e+01	-1.379191e+01
6.315390e+01	-1.384056e+01
6.351868e+01	-1.388801e+01
6.388556e+01	-1.393667e+01
6.425456e+01	-1.398408e+01
6.462569e+01	-1.403228e+01
6.499897e+01	-1.408035e+01
6.537440e+01	-1.412952e+01
6.575200e+01	-1.417601e+01
6.613178e+01	-1.422454e+01
6.651375e+01	-1.427234e+01
6.689793e+01	-1.432113e+01
6.728433e+01	-1.436868e+01
6.767297e+01	-1.441758e+01
6.806384e+01	-1.446603e+01
6.845698e+01	-1.451346e+01
6.885238e+01	-1.456138e+01
6.925007e+01	-1.461030e+01
6.965005e+01	-1.465894e+01
7.005235e+01	-1.470622e+01
7.045697e+01	-1.475463e+01
7.086393e+01	-1.480459e+01
7.127323e+01	-1.485226e+01
7.168490e+01	-1.490088e+01
7.209895e+01	-1.494868e+01
7.251539e+01	-1.499777e+01
7.293424e+01	-1.504604e+01
7.335551e+01	-1.509436e+01
7.377920e+01	-1.514300e+01
7.420535e+01	-1.519047e+01
7.463396e+01	-1.523932e+01
7.506504e+01	-1.528784e+01
7.549861e+01	-1.533681e+01
7.593469e+01	-1.538555e+01
7.637328e+01	-1.543376e+01
7.681441e+01	-1.548227e+01
7.725809e+01	-1.553147e+01
7.770433e+01	-1.557930e+01
7.815315e+01	-1.562827e+01
7.860456e+01	-1.567720e+01
7.905857e+01	-1.572661e+01
7.951521e+01	-1.577491e+01
7.997449e+01	-1.582413e+01
8.043642e+01	-1.587209e+01
8.090102e+01	-1.592050e+01
8.136830e+01	-1.596956e+01
8.183828e+01	-1.601812e+01
8.231097e+01	-1.606579e+01
8.278640e+01	-1.611582e+01
8.326457e+01	-1.616336e+01
8.374550e+01	-1.621383e+01
8.422921e+01	-1.626278e+01
8.471572e+01	-1.631108e+01
8.520503e+01	-1.635930e+01
8.569717e+01	-1.640826e+01
8.619215e+01	-1.645788e+01
8.669000e+01	-1.650732e+01
8.719071e+01	-1.655482e+01
8.769432e+01	-1.660419e+01
8.820084e+01	-1.665423e+01
8.871029e+01	-1.670259e+01
8.922267e+01	-1.675149e+01
8.973802e+01	-1.680017e+01
9.025634e+01	-1.684868e+01
9.077766e+01	-1.689918e+01
9.130199e+01	-1.694674e+01
9.182935e+01	-1.699577e+01
9.235975e+01	-1.704590e+01
9.289321e+01	-1.709544e+01
9.342976e+01	-1.714372e+01
9.396941e+01	-1.719364e+01
9.451217e+01	-1.724185e+01
9.505807e+01	-1.729082e+01
9.560712e+01	-1.733986e+01
9.615934e+01	-1.738960e+01
9.671476e+01	-1.743742e+01
9.727338e+01	-1.748728e+01
9.783522e+01	-1.753634e+01
9.840032e+01	-1.758555e+01
9.896867e+01	-1.763361e+01
9.954031e+01	-1.768438e+01
1.001153e+02	-1.773306e+01
1.006935e+02	-1.778251e+01
1.012751e+02	-1.783145e+01
1.018601e+02	-1.788002e+01
1.024484e+02	-1.793136e+01
1.030402e+02	-1.797900e+01
1.036353e+02	-1.802694e+01
1.042339e+02	-1.807760e+01
1.048360e+02	-1.812603e+01
1.054415e+02	-1.817672e+01
1.060505e+02	-1.822632e+01
1.066631e+02	-1.827541e+01
1.072791e+02	-1.832432e+01
1.078988e+02	-1.837298e+01
1.085220e+02	-1.842192e+01
1.091488e+02	-1.847250e+01
1.097793e+02	-1.852061e+01
1.104133e+02	-1.857021e+01
1.110511e+02	-1.862030e+01
1.116925e+02	-1.867052e+01
1.123376e+02	-1.871864e+01
1.129865e+02	-1.876796e+01
1.136391e+02	-1.881764e+01
1.142955e+02	-1.886634e+01
1.149556e+02	-1.891521e+01
1.156196e+02	-1.896613e+01
1.162874e+02	-1.901570e+01
1.169591e+02	-1.906539e+01
1.176347e+02	-1.911417e+01
1.183141e+02	-1.916309e+01
1.189975e+02	-1.921350e+01
1.196848e+02	-1.926166e+01
1.203761e+02	-1.931130e+01
1.210714e+02	-1.936130e+01
1.217707e+02	-1.941223e+01
1.224740e+02	-1.945904e+01
1.231814e+02	-1.950815e+01
1.238929e+02	-1.955971e+01
1.246085e+02	-1.960987e+01
1.253283e+02	-1.965893e+01
1.260522e+02	-1.970772e+01
1.267802e+02	-1.975789e+01
1.275125e+02	-1.980646e+01
1.282490e+02	-1.985557e+01
1.289898e+02	-1.990613e+01
1.297348e+02	-1.995455e+01
1.304842e+02	-2.000615e+01
1.312378e+02	-2.005432e+01
1.319959e+02	-2.010377e+01
1.327583e+02	-2.015335e+01
1.335251e+02	-2.020333e+01
1.342963e+02	-2.025235e+01
1.350720e+02	-2.030293e+01
1.358522e+02	-2.035185e+01
1.366368e+02	-2.039996e+01
1.374260e+02	-2.045093e+01
1.382198e+02	-2.049976e+01
1.390182e+02	-2.055053e+01
1.398211e+02	-2.059975e+01
1.406287e+02	-2.064876e+01
1.414410e+02	-2.069894e+01
1.422579e+02	-2.074835e+01
1.430796e+02	-2.079857e+01
1.439060e+02	-2.084903e+01
1.447372e+02	-2.089642e+01
1.455732e+02	-2.094759e+01
1.464141e+02	-2.099652e+01
1.472597e+02	-2.104290e+01
1.481103e+02	-2.109610e+01
1.489658e+02	-2.114447e+01
1.498262e+02	-2.119434e+01
1.506916e+02	-2.124553e+01
1.515620e+02	-2.129488e+01
1.524374e+02	-2.134468e+01
1.533179e+02	-2.139367e+01
1.542034e+02	-2.144279e+01
1.550941e+02	-2.149349e+01
1.559899e+02	-2.154184e+01
1.568909e+02	-2.159205e+01
1.577971e+02	-2.164351e+01
1.587085e+02	-2.168943e+01
1.596252e+02	-2.173992e+01
1.605472e+02	-2.179263e+01
1.614745e+02	-2.184164e+01
1.624072e+02	-2.188921e+01
1.633453e+02	-2.193872e+01
1.642887e+02	-2.198941e+01
1.652377e+02	-2.203925e+01
1.661921e+02	-2.208819e+01
1.671520e+02	-2.213861e+01
1.681175e+02	-2.218913e+01
1.690885e+02	-2.223800e+01
1.700651e+02	-2.228992e+01
1.710474e+02	-2.233730e+01
1.720354e+02	-2.238737e+01
1.730291e+02	-2.243756e+01
1.740285e+02	-2.248926e+01
1.750337e+02	-2.253966e+01
1.760446e+02	-2.258656e+01
1.770615e+02	-2.263632e+01
1.780842e+02	-2.268679e+01
1.791128e+02	-2.273608e+01
1.801473e+02	-2.278593e+01
1.811878e+02	-2.283611e+01
1.822344e+02	-2.288710e+01
1.832870e+02	-2.293490e+01
1.843456e+02	-2.298735e+01
1.854104e+02	-2.303485e+01
1.864813e+02	-2.308430e+01
1.875584e+02	-2.313537e+01
1.886418e+02	-2.318581e+01
1.897313e+02	-2.323367e+01
1.908272e+02	-2.328391e+01
1.919294e+02	-2.333282e+01
1.930380e+02	-2.338577e+01
1.941530e+02	-2.343491e+01
1.952744e+02	-2.348470e+01
1.964023e+02	-2.353461e+01
1.975367e+02	-2.358283e+01
1.986777e+02	-2.363279e+01
1.998252e+02	-2.368298e+01
2.009794e+02	-2.373418e+01
2.021403e+02	-2.378155e+01
2.033078e+02	-2.383269e+01
2.044821e+02	-2.388067e+01
2.056632e+02	-2.393148e+01
2.068511e+02	-2.397998e+01
2.080459e+02	-2.403197e+01
2.092475e+02	-2.408345e+01
2.104561e+02	-2.413315e+01
2.116717e+02	-2.417940e+01
2.128943e+02	-2.423266e+01
2.141240e+02	-2.427896e+01
2.153608e+02	-2.433094e+01
2.166047e+02	-2.438321e+01
2.178558e+02	-2.443060e+01
2.191141e+02	-2.448327e+01
2.203797e+02	-2.453172e+01
2.216526e+02	-2.458100e+01
2.229329e+02	-2.463046e+01
2.242205e+02	-2.468042e+01
2.255156e+02	-2.472982e+01
2.268182e+02	-2.478173e+01
2.281283e+02	-2.483126e+01
2.294459e+02	-2.488027e+01
2.307712e+02	-2.493105e+01
2.321041e+02	-2.498269e+01
2.334447e+02	-2.502964e+01
2.347931e+02	-2.508058e+01
2.361493e+02	-2.512811e+01
2.375133e+02	-2.517736e+01
2.388851e+02	-2.523034e+01
2.402649e+02	-2.527828e+01
2.416527e+02	-2.532747e+01
2.430484e+02	-2.537958e+01
2.444523e+02	-2.542904e+01
2.458642e+02	-2.548084e+01
2.472843e+02	-2.552909e+01
2.487126e+02	-2.557925e+01
2.501492e+02	-2.562908e+01
2.515940e+02	-2.567908e+01
2.530472e+02	-2.572968e+01
2.545088e+02	-2.577745e+01
2.559789e+02	-2.582767e+01
2.574574e+02	-2.587790e+01
2.589444e+02	-2.592748e+01
2.604401e+02	-2.597793e+01
2.619444e+02	-2.602986e+01
2.634574e+02	-2.607629e+01
2.649791e+02	-2.612850e+01
2.665096e+02	-2.617860e+01
2.680489e+02	-2.622676e+01
2.695972e+02	-2.627538e+01
2.711544e+02	-2.633005e+01
2.727205e+02	-2.637736e+01
2.742958e+02	-2.642654e+01
2.758801e+02	-2.648135e+01
2.774736e+02	-2.652874e+01
2.790762e+02	-2.657640e+01
2.806882e+02	-2.662878e+01
2.823094e+02	-2.667949e+01
2.839400e+02	-2.672740e+01
2.855800e+02	-2.677510e+01
2.872295e+02	-2.682785e+01
2.888886e+02	-2.688028e+01
2.905572e+02	-2.692832e+01
2.922354e+02	-2.697675e+01
2.939234e+02	-2.702663e+01
2.956211e+02	-2.708131e+01
2.973286e+02	-2.712923e+01
2.990459e+02	-2.718010e+01
3.007732e+02	-2.722840e+01
3.025104e+02	-2.727779e+01
3.042577e+02	-2.732916e+01
3.060151e+02	-2.738000e+01
3.077826e+02	-2.742900e+01
3.095604e+02	-2.747741e+01
3.113484e+02	-2.752910e+01
3.131467e+02	-2.757684e+01
3.149554e+02	-2.762972e+01
3.167746e+02	-2.767522e+01
3.186043e+02	-2.773150e+01
3.204445e+02	-2.777566e+01
3.222954e+02	-2.782824e+01
3.241570e+02	-2.787691e+01
3.260293e+02	-2.793208e+01
3.279124e+02	-2.798136e+01
3.298064e+02	-2.803043e+01
3.317114e+02	-2.807314e+01
3.336273e+02	-2.812781e+01
3.355544e+02	-2.818048e+01
3.374925e+02	-2.822935e+01
3.394418e+02	-2.827707e+01
3.414024e+02	-2.832503e+01
3.433744e+02	-2.837709e+01
3.453577e+02	-2.842537e+01
3.473525e+02	-2.848135e+01
3.493588e+02	-2.852885e+01
3.513766e+02	-2.858047e+01
3.534062e+02	-2.862419e+01
3.554474e+02	-2.867629e+01
3.575005e+02	-2.872539e+01
3.595654e+02	-2.878202e+01
3.616422e+02	-2.882993e+01
3.637311e+02	-2.887790e+01
3.658320e+02	-2.892766e+01
3.679450e+02	-2.898011e+01
3.700702e+02	-2.902945e+01
3.722077e+02	-2.907865e+01
3.743576e+02	-2.913221e+01
3.765199e+02	-2.918244e+01
3.786946e+02	-2.923247e+01
3.808820e+02	-2.928072e+01
3.830819e+02	-2.933251e+01
3.852946e+02	-2.937988e+01
3.875200e+02	-2.942636e+01
3.897583e+02	-2.947588e+01
3.920096e+02	-2.953198e+01
3.942738e+02	-2.957577e+01
3.965511e+02	-2.963131e+01
3.988416e+02	-2.968379e+01
4.011452e+02	-2.973193e+01
4.034622e+02	-2.977975e+01
4.057926e+02	-2.983447e+01
4.081365e+02	-2.988457e+01
4.104938e+02	-2.993416e+01
4.128648e+02	-2.998161e+01
4.152495e+02	-3.002923e+01
4.176480e+02	-3.008336e+01
4.200603e+02	-3.013036e+01
4.224866e+02	-3.018685e+01
4.249268e+02	-3.023632e+01
4.273812e+02	-3.027889e+01
4.298497e+02	-3.032521e+01
4.323325e+02	-3.037985e+01
4.348297e+02	-3.043159e+01
4.373412e+02	-3.048296e+01
4.398673e+02	-3.053559e+01
4.424079e+02	-3.058322e+01
4.449633e+02	-3.063979e+01
4.475334e+02	-3.068592e+01
4.501183e+02	-3.073021e+01
4.527182e+02	-3.078210e+01
4.553330e+02	-3.083516e+01
4.579630e+02	-3.088307e+01
4.606082e+02	-3.093275e+01
4.632687e+02	-3.098239e+01
4.659445e+02	-3.103747e+01
4.686358e+02	-3.108115e+01
4.713426e+02	-3.113721e+01
4.740650e+02	-3.118310e+01
4.768032e+02	-3.123073e+01
4.795572e+02	-3.128691e+01
4.823271e+02	-3.133369e+01
4.851130e+02	-3.138400e+01
4.879150e+02	-3.143507e+01
4.907332e+02	-3.148098e+01
4.935676e+02	-3.153687e+01
4.964185e+02	-3.158812e+01
4.992858e+02	-3.163182e+01
5.021696e+02	-3.168583e+01
5.050701e+02	-3.173926e+01
5.079874e+02	-3.178803e+01
5.109215e+02	-3.183377e+01
5.138726e+02	-3.188799e+01
5.168407e+02	-3.194344e+01
5.198259e+02	-3.198492e+01
5.228284e+02	-3.204188e+01
5.258482e+02	-3.208613e+01
5.288855e+02	-3.213555e+01
5.319403e+02	-3.218758e+01
5.350128e+02	-3.223791e+01
5.381030e+02	-3.228804e+01
5.412111e+02	-3.233770e+01
5.443371e+02	-3.238720e+01
5.474812e+02	-3.243432e+01
5.506434e+02	-3.249083e+01
5.538239e+02	-3.254597e+01
5.570228e+02	-3.258671e+01
5.602401e+02	-3.264128e+01
5.634760e+02	-3.268612e+01
5.667306e+02	-3.273295e+01
5.700040e+02	-3.279333e+01
5.732964e+02	-3.283917e+01
5.766077e+02	-3.289233e+01
5.799382e+02	-3.294703e+01
5.832879e+02	-3.298976e+01
5.866569e+02	-3.303949e+01
5.900454e+02	-3.308933e+01
5.934535e+02	-3.314000e+01
5.968813e+02	-3.318726e+01
6.003288e+02	-3.324462e+01
6.037963e+02	-3.329823e+01
6.072838e+02	-3.334729e+01
6.107914e+02	-3.339698e+01
6.143194e+02	-3.344233e+01
6.178676e+02	-3.349067e+01
6.214364e+02	-3.354299e+01
6.250258e+02	-3.359393e+01
6.286359e+02	-3.364169e+01
6.322669e+02	-3.369527e+01
6.359189e+02	-3.375066e+01
6.395919e+02	-3.379839e+01
6.432862e+02	-3.384823e+01
6.470017e+02	-3.389452e+01
6.507388e+02	-3.394846e+01
6.544974e+02	-3.399444e+01
6.582778e+02	-3.404782e+01
6.620800e+02	-3.410203e+01
6.659041e+02	-3.414827e+01
6.697504e+02	-3.419387e+01
6.736188e+02	-3.425320e+01
6.775096e+02	-3.430638e+01
6.814229e+02	-3.434941e+01
6.853587e+02	-3.439862e+01
6.893173e+02	-3.445167e+01
6.932988e+02	-3.450077e+01
6.973033e+02	-3.455176e+01
7.013309e+02	-3.460266e+01
