Frequency(Hz)	Magnitude(dB)
1.000000e+01	-1.881448e-05
1.005776e+01	-1.903245e-05
1.011585e+01	-1.925295e-05
1.017428e+01	-1.947600e-05
1.023305e+01	-1.970163e-05
1.029215e+01	-1.992988e-05
1.035160e+01	-2.016077e-05
1.041139e+01	-2.039434e-05
1.047153e+01	-2.063061e-05
1.053201e+01	-2.086962e-05
1.059284e+01	-2.111140e-05
1.065403e+01	-2.135598e-05
1.071556e+01	-2.160340e-05
1.077746e+01	-2.185368e-05
1.083971e+01	-2.210686e-05
1.090232e+01	-2.236297e-05
1.096529e+01	-2.262205e-05
1.102862e+01	-2.288414e-05
1.109232e+01	-2.314925e-05
1.115639e+01	-2.341744e-05
1.122083e+01	-2.368874e-05
1.128564e+01	-2.396318e-05
1.135083e+01	-2.424080e-05
1.141639e+01	-2.452164e-05
1.148233e+01	-2.480572e-05
1.154865e+01	-2.509311e-05
1.161536e+01	-2.538382e-05
1.168245e+01	-2.567789e-05
1.174992e+01	-2.597538e-05
1.181779e+01	-2.627631e-05
1.188605e+01	-2.658073e-05
1.195470e+01	-2.688867e-05
1.202375e+01	-2.720018e-05
1.209320e+01	-2.751530e-05
1.216305e+01	-2.783407e-05
1.223330e+01	-2.815654e-05
1.230396e+01	-2.848274e-05
1.237503e+01	-2.881272e-05
1.244651e+01	-2.914652e-05
1.251840e+01	-2.948419e-05
1.259070e+01	-2.982577e-05
1.266343e+01	-3.017131e-05
1.273657e+01	-3.052085e-05
1.281014e+01	-3.087444e-05
1.288413e+01	-3.123213e-05
1.295855e+01	-3.159396e-05
1.303339e+01	-3.195999e-05
1.310867e+01	-3.233025e-05
1.318439e+01	-3.270480e-05
1.326054e+01	-3.308370e-05
1.333713e+01	-3.346698e-05
1.341417e+01	-3.385470e-05
1.349165e+01	-3.424692e-05
1.356958e+01	-3.464368e-05
1.364795e+01	-3.504503e-05
1.372678e+01	-3.545104e-05
1.380607e+01	-3.586174e-05
1.388581e+01	-3.627721e-05
1.396602e+01	-3.669749e-05
1.404668e+01	-3.712264e-05
1.412782e+01	-3.755271e-05
1.420942e+01	-3.798777e-05
1.429149e+01	-3.842787e-05
1.437404e+01	-3.887306e-05
1.445706e+01	-3.932342e-05
1.454057e+01	-3.977899e-05
1.462455e+01	-4.023984e-05
1.470902e+01	-4.070602e-05
1.479398e+01	-4.117761e-05
1.487943e+01	-4.165466e-05
1.496537e+01	-4.213724e-05
1.505181e+01	-4.262541e-05
1.513875e+01	-4.311924e-05
1.522619e+01	-4.361878e-05
1.531414e+01	-4.412412e-05
1.540259e+01	-4.463530e-05
1.549156e+01	-4.515241e-05
1.558103e+01	-4.567551e-05
1.567103e+01	-4.620467e-05
1.576155e+01	-4.673997e-05
1.585258e+01	-4.728146e-05
1.594415e+01	-4.782922e-05
1.603624e+01	-4.838334e-05
1.612886e+01	-4.894387e-05
1.622202e+01	-4.951089e-05
1.631572e+01	-5.008449e-05
1.640996e+01	-5.066473e-05
1.650474e+01	-5.125169e-05
1.660008e+01	-5.184545e-05
1.669596e+01	-5.244609e-05
1.679239e+01	-5.305369e-05
1.688938e+01	-5.366833e-05
1.698694e+01	-5.429009e-05
1.708505e+01	-5.491905e-05
1.718373e+01	-5.555530e-05
1.728299e+01	-5.619892e-05
1.738281e+01	-5.684999e-05
1.748322e+01	-5.750861e-05
1.758420e+01	-5.817486e-05
1.768576e+01	-5.884883e-05
1.778792e+01	-5.953060e-05
1.789066e+01	-6.022028e-05
1.799399e+01	-6.091794e-05
1.809793e+01	-6.162369e-05
1.820246e+01	-6.233761e-05
1.830760e+01	-6.305980e-05
1.841334e+01	-6.379036e-05
1.851969e+01	-6.452939e-05
1.862666e+01	-6.527697e-05
1.873425e+01	-6.603322e-05
1.884246e+01	-6.679822e-05
1.895129e+01	-6.757209e-05
1.906075e+01	-6.835493e-05
1.917085e+01	-6.914684e-05
1.928158e+01	-6.994791e-05
1.939295e+01	-7.075827e-05
1.950496e+01	-7.157802e-05
1.961762e+01	-7.240727e-05
1.973093e+01	-7.324612e-05
1.984490e+01	-7.409469e-05
1.995952e+01	-7.495309e-05
2.007480e+01	-7.582143e-05
2.019076e+01	-7.669984e-05
2.030738e+01	-7.758842e-05
2.042467e+01	-7.848729e-05
2.054264e+01	-7.939658e-05
2.066130e+01	-8.031640e-05
2.078064e+01	-8.124688e-05
2.090066e+01	-8.218814e-05
2.102139e+01	-8.314031e-05
2.114280e+01	-8.410350e-05
2.126492e+01	-8.507785e-05
2.138775e+01	-8.606350e-05
2.151128e+01	-8.706055e-05
2.163553e+01	-8.806917e-05
2.176050e+01	-8.908946e-05
2.188619e+01	-9.012158e-05
2.201260e+01	-9.116565e-05
2.213974e+01	-9.222182e-05
2.226762e+01	-9.329022e-05
2.239624e+01	-9.437100e-05
2.252560e+01	-9.546431e-05
2.265571e+01	-9.657027e-05
2.278656e+01	-9.768906e-05
2.291818e+01	-9.882080e-05
2.305055e+01	-9.996565e-05
2.318369e+01	-1.011238e-04
2.331760e+01	-1.022953e-04
2.345228e+01	-1.034804e-04
2.358774e+01	-1.046792e-04
2.372398e+01	-1.058920e-04
2.386101e+01	-1.071187e-04
2.399883e+01	-1.083597e-04
2.413745e+01	-1.096151e-04
2.427686e+01	-1.108850e-04
2.441709e+01	-1.121696e-04
2.455812e+01	-1.134691e-04
2.469997e+01	-1.147837e-04
2.484263e+01	-1.161134e-04
2.498612e+01	-1.174586e-04
2.513044e+01	-1.188194e-04
2.527559e+01	-1.201959e-04
2.542158e+01	-1.215884e-04
2.556842e+01	-1.229970e-04
2.571610e+01	-1.244220e-04
2.586463e+01	-1.258634e-04
2.601403e+01	-1.273216e-04
2.616428e+01	-1.287966e-04
2.631541e+01	-1.302887e-04
2.646740e+01	-1.317981e-04
2.662028e+01	-1.333250e-04
2.677404e+01	-1.348696e-04
2.692868e+01	-1.364321e-04
2.708422e+01	-1.380127e-04
2.724066e+01	-1.396115e-04
2.739800e+01	-1.412290e-04
2.755625e+01	-1.428651e-04
2.771541e+01	-1.445202e-04
2.787550e+01	-1.461945e-04
2.803650e+01	-1.478882e-04
2.819844e+01	-1.496015e-04
2.836131e+01	-1.513346e-04
2.852513e+01	-1.530878e-04
2.868989e+01	-1.548614e-04
2.885560e+01	-1.566554e-04
2.902227e+01	-1.584703e-04
2.918990e+01	-1.603062e-04
2.935850e+01	-1.621634e-04
2.952807e+01	-1.640420e-04
2.969863e+01	-1.659425e-04
2.987016e+01	-1.678649e-04
3.004269e+01	-1.698096e-04
3.021622e+01	-1.717769e-04
3.039075e+01	-1.737669e-04
3.056628e+01	-1.757800e-04
3.074283e+01	-1.778165e-04
3.092040e+01	-1.798765e-04
3.109900e+01	-1.819603e-04
3.127862e+01	-1.840684e-04
3.145929e+01	-1.862008e-04
3.164099e+01	-1.883579e-04
3.182375e+01	-1.905401e-04
3.200756e+01	-1.927475e-04
3.219244e+01	-1.949805e-04
3.237838e+01	-1.972393e-04
3.256540e+01	-1.995243e-04
3.275349e+01	-2.018358e-04
3.294268e+01	-2.041741e-04
3.313295e+01	-2.065395e-04
3.332433e+01	-2.089322e-04
3.351681e+01	-2.113527e-04
3.371040e+01	-2.138012e-04
3.390511e+01	-2.162781e-04
3.410094e+01	-2.187837e-04
3.429791e+01	-2.213183e-04
3.449601e+01	-2.238822e-04
3.469526e+01	-2.264759e-04
3.489566e+01	-2.290996e-04
3.509721e+01	-2.317537e-04
3.529993e+01	-2.344386e-04
3.550382e+01	-2.371546e-04
3.570889e+01	-2.399020e-04
3.591515e+01	-2.426812e-04
3.612259e+01	-2.454927e-04
3.633123e+01	-2.483367e-04
3.654108e+01	-2.512137e-04
3.675214e+01	-2.541240e-04
3.696442e+01	-2.570680e-04
3.717792e+01	-2.600461e-04
3.739266e+01	-2.630587e-04
3.760864e+01	-2.661062e-04
3.782587e+01	-2.691891e-04
3.804435e+01	-2.723076e-04
3.826409e+01	-2.754622e-04
3.848510e+01	-2.786534e-04
3.870739e+01	-2.818816e-04
3.893096e+01	-2.851472e-04
3.915583e+01	-2.884506e-04
3.938199e+01	-2.917923e-04
3.960946e+01	-2.951726e-04
3.983824e+01	-2.985922e-04
4.006834e+01	-3.020513e-04
4.029978e+01	-3.055506e-04
4.053255e+01	-3.090903e-04
4.076666e+01	-3.126711e-04
4.100213e+01	-3.162933e-04
4.123896e+01	-3.199575e-04
4.147715e+01	-3.236642e-04
4.171672e+01	-3.274138e-04
4.195767e+01	-3.312068e-04
4.220002e+01	-3.350438e-04
4.244377e+01	-3.389252e-04
4.268892e+01	-3.428516e-04
4.293549e+01	-3.468235e-04
4.318348e+01	-3.508414e-04
4.343291e+01	-3.549058e-04
4.368377e+01	-3.590173e-04
4.393609e+01	-3.631765e-04
4.418986e+01	-3.673838e-04
4.444510e+01	-3.716399e-04
4.470182e+01	-3.759452e-04
4.496001e+01	-3.803005e-04
4.521970e+01	-3.847061e-04
4.548089e+01	-3.891629e-04
4.574358e+01	-3.936712e-04
4.600779e+01	-3.982318e-04
4.627353e+01	-4.028452e-04
4.654081e+01	-4.075121e-04
4.680963e+01	-4.122330e-04
4.708000e+01	-4.170086e-04
4.735193e+01	-4.218395e-04
4.762543e+01	-4.267264e-04
4.790051e+01	-4.316699e-04
4.817719e+01	-4.366707e-04
4.845545e+01	-4.417294e-04
4.873533e+01	-4.468467e-04
4.901682e+01	-4.520232e-04
4.929994e+01	-4.572598e-04
4.958470e+01	-4.625570e-04
4.987110e+01	-4.679155e-04
5.015915e+01	-4.733362e-04
5.044887e+01	-4.788196e-04
5.074026e+01	-4.843665e-04
5.103333e+01	-4.899777e-04
5.132810e+01	-4.956540e-04
5.162457e+01	-5.013959e-04
5.192275e+01	-5.072044e-04
5.222265e+01	-5.130801e-04
5.252429e+01	-5.190240e-04
5.282767e+01	-5.250366e-04
5.313280e+01	-5.311190e-04
5.343969e+01	-5.372717e-04
5.374836e+01	-5.434958e-04
5.405880e+01	-5.497919e-04
5.437105e+01	-5.561610e-04
5.468509e+01	-5.626039e-04
5.500095e+01	-5.691214e-04
5.531863e+01	-5.757144e-04
5.563815e+01	-5.823837e-04
5.595951e+01	-5.891303e-04
5.628273e+01	-5.959551e-04
5.660782e+01	-6.028589e-04
5.693479e+01	-6.098427e-04
5.726364e+01	-6.169074e-04
5.759439e+01	-6.240540e-04
5.792705e+01	-6.312833e-04
5.826164e+01	-6.385963e-04
5.859815e+01	-6.459941e-04
5.893662e+01	-6.534775e-04
5.927703e+01	-6.610477e-04
5.961941e+01	-6.687055e-04
5.996377e+01	-6.764520e-04
6.031012e+01	-6.842883e-04
6.065847e+01	-6.922153e-04
6.100883e+01	-7.002342e-04
6.136121e+01	-7.083460e-04
6.171563e+01	-7.165517e-04
6.207210e+01	-7.248524e-04
6.243063e+01	-7.332493e-04
6.279122e+01	-7.417435e-04
6.315390e+01	-7.503360e-04
6.351868e+01	-7.590281e-04
6.388556e+01	-7.678209e-04
6.425456e+01	-7.767155e-04
6.462569e+01	-7.857132e-04
6.499897e+01	-7.948150e-04
6.537440e+01	-8.040223e-04
6.575200e+01	-8.133363e-04
6.613178e+01	-8.227581e-04
6.651375e+01	-8.322891e-04
6.689793e+01	-8.419305e-04
6.728433e+01	-8.516835e-04
6.767297e+01	-8.615495e-04
6.806384e+01	-8.715298e-04
6.845698e+01	-8.816257e-04
6.885238e+01	-8.918385e-04
6.925007e+01	-9.021696e-04
6.965005e+01	-9.126204e-04
7.005235e+01	-9.231922e-04
7.045697e+01	-9.338865e-04
7.086393e+01	-9.447047e-04
7.127323e+01	-9.556481e-04
7.168490e+01	-9.667183e-04
7.209895e+01	-9.779168e-04
7.251539e+01	-9.892449e-04
7.293424e+01	-1.000704e-03
7.335551e+01	-1.012296e-03
7.377920e+01	-1.024023e-03
7.420535e+01	-1.035885e-03
7.463396e+01	-1.047884e-03
7.506504e+01	-1.060023e-03
7.549861e+01	-1.072302e-03
7.593469e+01	-1.084723e-03
7.637328e+01	-1.097289e-03
7.681441e+01	-1.109999e-03
7.725809e+01	-1.122857e-03
7.770433e+01	-1.135864e-03
7.815315e+01	-1.149022e-03
7.860456e+01	-1.162332e-03
7.905857e+01	-1.175796e-03
7.951521e+01	-1.189416e-03
7.997449e+01	-1.203194e-03
8.043642e+01	-1.217131e-03
8.090102e+01	-1.231230e-03
8.136830e+01	-1.245492e-03
8.183828e+01	-1.259919e-03
8.231097e+01	-1.274514e-03
8.278640e+01	-1.289277e-03
8.326457e+01	-1.304211e-03
8.374550e+01	-1.319319e-03
8.422921e+01	-1.334601e-03
8.471572e+01	-1.350060e-03
8.520503e+01	-1.365699e-03
8.569717e+01	-1.381518e-03
8.619215e+01	-1.397521e-03
8.669000e+01	-1.413709e-03
8.719071e+01	-1.430084e-03
8.769432e+01	-1.446650e-03
8.820084e+01	-1.463407e-03
8.871029e+01	-1.480358e-03
8.922267e+01	-1.497505e-03
8.973802e+01	-1.514851e-03
9.025634e+01	-1.532398e-03
9.077766e+01	-1.550148e-03
9.130199e+01	-1.568104e-03
9.182935e+01	-1.586267e-03
9.235975e+01	-1.604641e-03
9.289321e+01	-1.623228e-03
9.342976e+01	-1.642030e-03
9.396941e+01	-1.661050e-03
9.451217e+01	-1.680290e-03
9.505807e+01	-1.699752e-03
9.560712e+01	-1.719441e-03
9.615934e+01	-1.739357e-03
9.671476e+01	-1.759504e-03
9.727338e+01	-1.779884e-03
9.783522e+01	-1.800500e-03
9.840032e+01	-1.821355e-03
9.896867e+01	-1.842451e-03
9.954031e+01	-1.863792e-03
1.001153e+02	-1.885380e-03
1.006935e+02	-1.907218e-03
1.012751e+02	-1.929308e-03
1.018601e+02	-1.951655e-03
1.024484e+02	-1.974260e-03
1.030402e+02	-1.997127e-03
1.036353e+02	-2.020259e-03
1.042339e+02	-2.043659e-03
1.048360e+02	-2.067329e-03
1.054415e+02	-2.091274e-03
1.060505e+02	-2.115496e-03
1.066631e+02	-2.139999e-03
1.072791e+02	-2.164785e-03
1.078988e+02	-2.189858e-03
1.085220e+02	-2.215222e-03
1.091488e+02	-2.240879e-03
1.097793e+02	-2.266834e-03
1.104133e+02	-2.293089e-03
1.110511e+02	-2.319648e-03
1.116925e+02	-2.346514e-03
1.123376e+02	-2.373692e-03
1.129865e+02	-2.401184e-03
1.136391e+02	-2.428994e-03
1.142955e+02	-2.457127e-03
1.149556e+02	-2.485585e-03
1.156196e+02	-2.514373e-03
1.162874e+02	-2.543494e-03
1.169591e+02	-2.572953e-03
1.176347e+02	-2.602752e-03
1.183141e+02	-2.632896e-03
1.189975e+02	-2.663390e-03
1.196848e+02	-2.694236e-03
1.203761e+02	-2.725440e-03
1.210714e+02	-2.757005e-03
1.217707e+02	-2.788935e-03
1.224740e+02	-2.821235e-03
1.231814e+02	-2.853909e-03
1.238929e+02	-2.886962e-03
1.246085e+02	-2.920397e-03
1.253283e+02	-2.954219e-03
1.260522e+02	-2.988432e-03
1.267802e+02	-3.023042e-03
1.275125e+02	-3.058052e-03
1.282490e+02	-3.093468e-03
1.289898e+02	-3.129294e-03
1.297348e+02	-3.165534e-03
1.304842e+02	-3.202194e-03
1.312378e+02	-3.239279e-03
1.319959e+02	-3.276792e-03
1.327583e+02	-3.314740e-03
1.335251e+02	-3.353128e-03
1.342963e+02	-3.391959e-03
1.350720e+02	-3.431240e-03
1.358522e+02	-3.470976e-03
1.366368e+02	-3.511172e-03
1.374260e+02	-3.551833e-03
1.382198e+02	-3.592965e-03
1.390182e+02	-3.634573e-03
1.398211e+02	-3.676663e-03
1.406287e+02	-3.719240e-03
1.414410e+02	-3.762309e-03
1.422579e+02	-3.805878e-03
1.430796e+02	-3.849950e-03
1.439060e+02	-3.894533e-03
1.447372e+02	-3.939632e-03
1.455732e+02	-3.985252e-03
1.464141e+02	-4.031401e-03
1.472597e+02	-4.078084e-03
1.481103e+02	-4.125307e-03
1.489658e+02	-4.173077e-03
1.498262e+02	-4.221399e-03
1.506916e+02	-4.270281e-03
1.515620e+02	-4.319729e-03
1.524374e+02	-4.369749e-03
1.533179e+02	-4.420348e-03
1.542034e+02	-4.471532e-03
1.550941e+02	-4.523309e-03
1.559899e+02	-4.575685e-03
1.568909e+02	-4.628667e-03
1.577971e+02	-4.682263e-03
1.587085e+02	-4.736478e-03
1.596252e+02	-4.791321e-03
1.605472e+02	-4.846799e-03
1.614745e+02	-4.902919e-03
1.624072e+02	-4.959688e-03
1.633453e+02	-5.017114e-03
1.642887e+02	-5.075204e-03
1.652377e+02	-5.133967e-03
1.661921e+02	-5.193410e-03
1.671520e+02	-5.253540e-03
1.681175e+02	-5.314366e-03
1.690885e+02	-5.375897e-03
1.700651e+02	-5.438139e-03
1.710474e+02	-5.501101e-03
1.720354e+02	-5.564792e-03
1.730291e+02	-5.629219e-03
1.740285e+02	-5.694392e-03
1.750337e+02	-5.760320e-03
1.760446e+02	-5.827009e-03
1.770615e+02	-5.894471e-03
1.780842e+02	-5.962713e-03
1.791128e+02	-6.031744e-03
1.801473e+02	-6.101574e-03
1.811878e+02	-6.172212e-03
1.822344e+02	-6.243668e-03
1.832870e+02	-6.315949e-03
1.843456e+02	-6.389067e-03
1.854104e+02	-6.463031e-03
1.864813e+02	-6.537850e-03
1.875584e+02	-6.613535e-03
1.886418e+02	-6.690096e-03
1.897313e+02	-6.767542e-03
1.908272e+02	-6.845883e-03
1.919294e+02	-6.925131e-03
1.930380e+02	-7.005296e-03
1.941530e+02	-7.086387e-03
1.952744e+02	-7.168417e-03
1.964023e+02	-7.251396e-03
1.975367e+02	-7.335334e-03
1.986777e+02	-7.420243e-03
1.998252e+02	-7.506134e-03
2.009794e+02	-7.593018e-03
2.021403e+02	-7.680907e-03
2.033078e+02	-7.769812e-03
2.044821e+02	-7.859746e-03
2.056632e+02	-7.950720e-03
2.068511e+02	-8.042745e-03
2.080459e+02	-8.135835e-03
2.092475e+02	-8.230001e-03
2.104561e+02	-8.325256e-03
2.116717e+02	-8.421612e-03
2.128943e+02	-8.519083e-03
2.141240e+02	-8.617681e-03
2.153608e+02	-8.717418e-03
2.166047e+02	-8.818309e-03
2.178558e+02	-8.920366e-03
2.191141e+02	-9.023603e-03
2.203797e+02	-9.128034e-03
2.216526e+02	-9.233671e-03
2.229329e+02	-9.340530e-03
2.242205e+02	-9.448625e-03
2.255156e+02	-9.557969e-03
2.268182e+02	-9.668577e-03
2.281283e+02	-9.780463e-03
2.294459e+02	-9.893643e-03
2.307712e+02	-1.000813e-02
2.321041e+02	-1.012394e-02
2.334447e+02	-1.024109e-02
2.347931e+02	-1.035960e-02
2.361493e+02	-1.047947e-02
2.375133e+02	-1.060073e-02
2.388851e+02	-1.072339e-02
2.402649e+02	-1.084746e-02
2.416527e+02	-1.097298e-02
2.430484e+02	-1.109994e-02
2.444523e+02	-1.122837e-02
2.458642e+02	-1.135828e-02
2.472843e+02	-1.148969e-02
2.487126e+02	-1.162263e-02
2.501492e+02	-1.175709e-02
2.515940e+02	-1.189312e-02
2.530472e+02	-1.203071e-02
2.545088e+02	-1.216989e-02
2.559789e+02	-1.231068e-02
2.574574e+02	-1.245310e-02
2.589444e+02	-1.259716e-02
2.604401e+02	-1.274289e-02
2.619444e+02	-1.289030e-02
2.634574e+02	-1.303941e-02
2.649791e+02	-1.319025e-02
2.665096e+02	-1.334282e-02
2.680489e+02	-1.349716e-02
2.695972e+02	-1.365328e-02
2.711544e+02	-1.381121e-02
2.727205e+02	-1.397096e-02
2.742958e+02	-1.413255e-02
2.758801e+02	-1.429601e-02
2.774736e+02	-1.446135e-02
2.790762e+02	-1.462861e-02
2.806882e+02	-1.479780e-02
2.823094e+02	-1.496894e-02
2.839400e+02	-1.514205e-02
2.855800e+02	-1.531717e-02
2.872295e+02	-1.549430e-02
2.888886e+02	-1.567348e-02
2.905572e+02	-1.585473e-02
2.922354e+02	-1.603807e-02
2.939234e+02	-1.622353e-02
2.956211e+02	-1.641113e-02
2.973286e+02	-1.660089e-02
2.990459e+02	-1.679284e-02
3.007732e+02	-1.698701e-02
3.025104e+02	-1.718342e-02
3.042577e+02	-1.738209e-02
3.060151e+02	-1.758306e-02
3.077826e+02	-1.778634e-02
3.095604e+02	-1.799197e-02
3.113484e+02	-1.819998e-02
3.131467e+02	-1.841038e-02
3.149554e+02	-1.862321e-02
3.167746e+02	-1.883850e-02
3.186043e+02	-1.905627e-02
3.204445e+02	-1.927655e-02
3.222954e+02	-1.949937e-02
3.241570e+02	-1.972476e-02
3.260293e+02	-1.995275e-02
3.279124e+02	-2.018336e-02
3.298064e+02	-2.041664e-02
3.317114e+02	-2.065261e-02
3.336273e+02	-2.089130e-02
3.355544e+02	-2.113274e-02
3.374925e+02	-2.137696e-02
3.394418e+02	-2.162400e-02
3.414024e+02	-2.187389e-02
3.433744e+02	-2.212666e-02
3.453577e+02	-2.238234e-02
3.473525e+02	-2.264096e-02
3.493588e+02	-2.290257e-02
3.513766e+02	-2.316719e-02
3.534062e+02	-2.343486e-02
3.554474e+02	-2.370562e-02
3.575005e+02	-2.397950e-02
3.595654e+02	-2.425653e-02
3.616422e+02	-2.453675e-02
3.637311e+02	-2.482020e-02
3.658320e+02	-2.510691e-02
3.679450e+02	-2.539693e-02
3.700702e+02	-2.569029e-02
3.722077e+02	-2.598702e-02
3.743576e+02	-2.628717e-02
3.765199e+02	-2.659078e-02
3.786946e+02	-2.689789e-02
3.808820e+02	-2.720853e-02
3.830819e+02	-2.752274e-02
3.852946e+02	-2.784057e-02
3.875200e+02	-2.816207e-02
3.897583e+02	-2.848726e-02
3.920096e+02	-2.881619e-02
3.942738e+02	-2.914891e-02
3.965511e+02	-2.948546e-02
3.988416e+02	-2.982588e-02
4.011452e+02	-3.017022e-02
4.034622e+02	-3.051851e-02
4.057926e+02	-3.087082e-02
4.081365e+02	-3.122718e-02
4.104938e+02	-3.158763e-02
4.128648e+02	-3.195223e-02
4.152495e+02	-3.232103e-02
4.176480e+02	-3.269406e-02
4.200603e+02	-3.307138e-02
4.224866e+02	-3.345304e-02
4.249268e+02	-3.383909e-02
4.273812e+02	-3.422958e-02
4.298497e+02	-3.462455e-02
4.323325e+02	-3.502407e-02
4.348297e+02	-3.542817e-02
4.373412e+02	-3.583692e-02
4.398673e+02	-3.625036e-02
4.424079e+02	-3.666855e-02
4.449633e+02	-3.709155e-02
4.475334e+02	-3.751940e-02
4.501183e+02	-3.795217e-02
4.527182e+02	-3.838991e-02
4.553330e+02	-3.883267e-02
4.579630e+02	-3.928052e-02
4.606082e+02	-3.973351e-02
4.632687e+02	-4.019170e-02
4.659445e+02	-4.065514e-02
4.686358e+02	-4.112391e-02
4.713426e+02	-4.159805e-02
4.740650e+02	-4.207764e-02
4.768032e+02	-4.256272e-02
4.795572e+02	-4.305337e-02
4.823271e+02	-4.354965e-02
4.851130e+02	-4.405162e-02
4.879150e+02	-4.455935e-02
4.907332e+02	-4.507290e-02
4.935676e+02	-4.559233e-02
4.964185e+02	-4.611772e-02
4.992858e+02	-4.664913e-02
5.021696e+02	-4.718663e-02
5.050701e+02	-4.773029e-02
5.079874e+02	-4.828018e-02
5.109215e+02	-4.883637e-02
5.138726e+02	-4.939893e-02
5.168407e+02	-4.996793e-02
5.198259e+02	-5.054345e-02
5.228284e+02	-5.112556e-02
5.258482e+02	-5.171433e-02
5.288855e+02	-5.230984e-02
5.319403e+02	-5.291216e-02
5.350128e+02	-5.352138e-02
5.381030e+02	-5.413757e-02
5.412111e+02	-5.476081e-02
5.443371e+02	-5.539118e-02
5.474812e+02	-5.602876e-02
5.506434e+02	-5.667362e-02
5.538239e+02	-5.732586e-02
5.570228e+02	-5.798556e-02
5.602401e+02	-5.865280e-02
5.634760e+02	-5.932766e-02
5.667306e+02	-6.001023e-02
5.700040e+02	-6.070061e-02
5.732964e+02	-6.139886e-02
5.766077e+02	-6.210510e-02
5.799382e+02	-6.281939e-02
5.832879e+02	-6.354184e-02
5.866569e+02	-6.427254e-02
5.900454e+02	-6.501158e-02
5.934535e+02	-6.575905e-02
5.968813e+02	-6.651505e-02
6.003288e+02	-6.727967e-02
6.037963e+02	-6.805302e-02
6.072838e+02	-6.883518e-02
6.107914e+02	-6.962626e-02
6.143194e+02	-7.042636e-02
6.178676e+02	-7.123557e-02
6.214364e+02	-7.205401e-02
6.250258e+02	-7.288177e-02
6.286359e+02	-7.371896e-02
6.322669e+02	-7.456568e-02
6.359189e+02	-7.542204e-02
6.395919e+02	-7.628815e-02
6.432862e+02	-7.716412e-02
6.470017e+02	-7.805006e-02
6.507388e+02	-7.894608e-02
6.544974e+02	-7.985228e-02
6.582778e+02	-8.076880e-02
6.620800e+02	-8.169573e-02
6.659041e+02	-8.263320e-02
6.697504e+02	-8.358132e-02
6.736188e+02	-8.454021e-02
6.775096e+02	-8.551000e-02
6.814229e+02	-8.649080e-02
6.853587e+02	-8.748274e-02
6.893173e+02	-8.848594e-02
6.932988e+02	-8.950052e-02
6.973033e+02	-9.052662e-02
7.013309e+02	-9.156435e-02
