Frequency(Hz)	Magnitude(dB)
1.000000e+01	-1.652730e-05
1.005776e+01	-1.671877e-05
1.011585e+01	-1.691247e-05
1.017428e+01	-1.710840e-05
1.023305e+01	-1.730661e-05
1.029215e+01	-1.750711e-05
1.035160e+01	-1.770993e-05
1.041139e+01	-1.791511e-05
1.047153e+01	-1.812266e-05
1.053201e+01	-1.833261e-05
1.059284e+01	-1.854500e-05
1.065403e+01	-1.875985e-05
1.071556e+01	-1.897719e-05
1.077746e+01	-1.919704e-05
1.083971e+01	-1.941945e-05
1.090232e+01	-1.964442e-05
1.096529e+01	-1.987201e-05
1.102862e+01	-2.010223e-05
1.109232e+01	-2.033512e-05
1.115639e+01	-2.057071e-05
1.122083e+01	-2.080903e-05
1.128564e+01	-2.105010e-05
1.135083e+01	-2.129398e-05
1.141639e+01	-2.154067e-05
1.148233e+01	-2.179023e-05
1.154865e+01	-2.204267e-05
1.161536e+01	-2.229804e-05
1.168245e+01	-2.255637e-05
1.174992e+01	-2.281769e-05
1.181779e+01	-2.308204e-05
1.188605e+01	-2.334945e-05
1.195470e+01	-2.361996e-05
1.202375e+01	-2.389360e-05
1.209320e+01	-2.417042e-05
1.216305e+01	-2.445044e-05
1.223330e+01	-2.473370e-05
1.230396e+01	-2.502025e-05
1.237503e+01	-2.531011e-05
1.244651e+01	-2.560334e-05
1.251840e+01	-2.589996e-05
1.259070e+01	-2.620001e-05
1.266343e+01	-2.650355e-05
1.273657e+01	-2.681060e-05
1.281014e+01	-2.712120e-05
1.288413e+01	-2.743541e-05
1.295855e+01	-2.775326e-05
1.303339e+01	-2.807478e-05
1.310867e+01	-2.840004e-05
1.318439e+01	-2.872906e-05
1.326054e+01	-2.906189e-05
1.333713e+01	-2.939858e-05
1.341417e+01	-2.973917e-05
1.349165e+01	-3.008371e-05
1.356958e+01	-3.043223e-05
1.364795e+01	-3.078480e-05
1.372678e+01	-3.114145e-05
1.380607e+01	-3.150223e-05
1.388581e+01	-3.186719e-05
1.396602e+01	-3.223638e-05
1.404668e+01	-3.260984e-05
1.412782e+01	-3.298764e-05
1.420942e+01	-3.336981e-05
1.429149e+01	-3.375640e-05
1.437404e+01	-3.414748e-05
1.445706e+01	-3.454309e-05
1.454057e+01	-3.494328e-05
1.462455e+01	-3.534810e-05
1.470902e+01	-3.575762e-05
1.479398e+01	-3.617188e-05
1.487943e+01	-3.659094e-05
1.496537e+01	-3.701485e-05
1.505181e+01	-3.744368e-05
1.513875e+01	-3.787747e-05
1.522619e+01	-3.831629e-05
1.531414e+01	-3.876019e-05
1.540259e+01	-3.920924e-05
1.549156e+01	-3.966349e-05
1.558103e+01	-4.012300e-05
1.567103e+01	-4.058783e-05
1.576155e+01	-4.105805e-05
1.585258e+01	-4.153372e-05
1.594415e+01	-4.201489e-05
1.603624e+01	-4.250165e-05
1.612886e+01	-4.299404e-05
1.622202e+01	-4.349213e-05
1.631572e+01	-4.399600e-05
1.640996e+01	-4.450570e-05
1.650474e+01	-4.502131e-05
1.660008e+01	-4.554289e-05
1.669596e+01	-4.607052e-05
1.679239e+01	-4.660425e-05
1.688938e+01	-4.714417e-05
1.698694e+01	-4.769035e-05
1.708505e+01	-4.824285e-05
1.718373e+01	-4.880176e-05
1.728299e+01	-4.936714e-05
1.738281e+01	-4.993906e-05
1.748322e+01	-5.051762e-05
1.758420e+01	-5.110288e-05
1.768576e+01	-5.169491e-05
1.778792e+01	-5.229381e-05
1.789066e+01	-5.289964e-05
1.799399e+01	-5.351250e-05
1.809793e+01	-5.413245e-05
1.820246e+01	-5.475959e-05
1.830760e+01	-5.539399e-05
1.841334e+01	-5.603574e-05
1.851969e+01	-5.668492e-05
1.862666e+01	-5.734163e-05
1.873425e+01	-5.800595e-05
1.884246e+01	-5.867796e-05
1.895129e+01	-5.935775e-05
1.906075e+01	-6.004542e-05
1.917085e+01	-6.074106e-05
1.928158e+01	-6.144476e-05
1.939295e+01	-6.215661e-05
1.950496e+01	-6.287670e-05
1.961762e+01	-6.360514e-05
1.973093e+01	-6.434202e-05
1.984490e+01	-6.508744e-05
1.995952e+01	-6.584149e-05
2.007480e+01	-6.660427e-05
2.019076e+01	-6.737590e-05
2.030738e+01	-6.815646e-05
2.042467e+01	-6.894606e-05
2.054264e+01	-6.974482e-05
2.066130e+01	-7.055282e-05
2.078064e+01	-7.137019e-05
2.090066e+01	-7.219703e-05
2.102139e+01	-7.303344e-05
2.114280e+01	-7.387955e-05
2.126492e+01	-7.473546e-05
2.138775e+01	-7.560128e-05
2.151128e+01	-7.647713e-05
2.163553e+01	-7.736314e-05
2.176050e+01	-7.825940e-05
2.188619e+01	-7.916605e-05
2.201260e+01	-8.008320e-05
2.213974e+01	-8.101098e-05
2.226762e+01	-8.194951e-05
2.239624e+01	-8.289890e-05
2.252560e+01	-8.385930e-05
2.265571e+01	-8.483083e-05
2.278656e+01	-8.581361e-05
2.291818e+01	-8.680777e-05
2.305055e+01	-8.781345e-05
2.318369e+01	-8.883079e-05
2.331760e+01	-8.985990e-05
2.345228e+01	-9.090095e-05
2.358774e+01	-9.195405e-05
2.372398e+01	-9.301935e-05
2.386101e+01	-9.409699e-05
2.399883e+01	-9.518712e-05
2.413745e+01	-9.628988e-05
2.427686e+01	-9.740541e-05
2.441709e+01	-9.853387e-05
2.455812e+01	-9.967540e-05
2.469997e+01	-1.008301e-04
2.484263e+01	-1.019983e-04
2.498612e+01	-1.031799e-04
2.513044e+01	-1.043753e-04
2.527559e+01	-1.055845e-04
2.542158e+01	-1.068077e-04
2.556842e+01	-1.080451e-04
2.571610e+01	-1.092968e-04
2.586463e+01	-1.105630e-04
2.601403e+01	-1.118439e-04
2.616428e+01	-1.131396e-04
2.631541e+01	-1.144504e-04
2.646740e+01	-1.157763e-04
2.662028e+01	-1.171176e-04
2.677404e+01	-1.184744e-04
2.692868e+01	-1.198469e-04
2.708422e+01	-1.212354e-04
2.724066e+01	-1.226399e-04
2.739800e+01	-1.240607e-04
2.755625e+01	-1.254980e-04
2.771541e+01	-1.269519e-04
2.787550e+01	-1.284226e-04
2.803650e+01	-1.299104e-04
2.819844e+01	-1.314154e-04
2.836131e+01	-1.329379e-04
2.852513e+01	-1.344780e-04
2.868989e+01	-1.360359e-04
2.885560e+01	-1.376119e-04
2.902227e+01	-1.392062e-04
2.918990e+01	-1.408189e-04
2.935850e+01	-1.424503e-04
2.952807e+01	-1.441006e-04
2.969863e+01	-1.457700e-04
2.987016e+01	-1.474588e-04
3.004269e+01	-1.491671e-04
3.021622e+01	-1.508952e-04
3.039075e+01	-1.526433e-04
3.056628e+01	-1.544117e-04
3.074283e+01	-1.562006e-04
3.092040e+01	-1.580102e-04
3.109900e+01	-1.598407e-04
3.127862e+01	-1.616925e-04
3.145929e+01	-1.635657e-04
3.164099e+01	-1.654606e-04
3.182375e+01	-1.673775e-04
3.200756e+01	-1.693166e-04
3.219244e+01	-1.712781e-04
3.237838e+01	-1.732624e-04
3.256540e+01	-1.752697e-04
3.275349e+01	-1.773002e-04
3.294268e+01	-1.793542e-04
3.313295e+01	-1.814320e-04
3.332433e+01	-1.835339e-04
3.351681e+01	-1.856602e-04
3.371040e+01	-1.878110e-04
3.390511e+01	-1.899868e-04
3.410094e+01	-1.921878e-04
3.429791e+01	-1.944143e-04
3.449601e+01	-1.966666e-04
3.469526e+01	-1.989450e-04
3.489566e+01	-2.012498e-04
3.509721e+01	-2.035813e-04
3.529993e+01	-2.059398e-04
3.550382e+01	-2.083256e-04
3.570889e+01	-2.107390e-04
3.591515e+01	-2.131804e-04
3.612259e+01	-2.156501e-04
3.633123e+01	-2.181484e-04
3.654108e+01	-2.206757e-04
3.675214e+01	-2.232322e-04
3.696442e+01	-2.258183e-04
3.717792e+01	-2.284344e-04
3.739266e+01	-2.310808e-04
3.760864e+01	-2.337579e-04
3.782587e+01	-2.364660e-04
3.804435e+01	-2.392054e-04
3.826409e+01	-2.419766e-04
3.848510e+01	-2.447799e-04
3.870739e+01	-2.476157e-04
3.893096e+01	-2.504843e-04
3.915583e+01	-2.533861e-04
3.938199e+01	-2.563216e-04
3.960946e+01	-2.592911e-04
3.983824e+01	-2.622949e-04
4.006834e+01	-2.653336e-04
4.029978e+01	-2.684075e-04
4.053255e+01	-2.715169e-04
4.076666e+01	-2.746624e-04
4.100213e+01	-2.778444e-04
4.123896e+01	-2.810632e-04
4.147715e+01	-2.843193e-04
4.171672e+01	-2.876131e-04
4.195767e+01	-2.909450e-04
4.220002e+01	-2.943156e-04
4.244377e+01	-2.977252e-04
4.268892e+01	-3.011743e-04
4.293549e+01	-3.046634e-04
4.318348e+01	-3.081929e-04
4.343291e+01	-3.117633e-04
4.368377e+01	-3.153750e-04
4.393609e+01	-3.190286e-04
4.418986e+01	-3.227245e-04
4.444510e+01	-3.264632e-04
4.470182e+01	-3.302452e-04
4.496001e+01	-3.340710e-04
4.521970e+01	-3.379412e-04
4.548089e+01	-3.418562e-04
4.574358e+01	-3.458165e-04
4.600779e+01	-3.498227e-04
4.627353e+01	-3.538754e-04
4.654081e+01	-3.579749e-04
4.680963e+01	-3.621220e-04
4.708000e+01	-3.663171e-04
4.735193e+01	-3.705608e-04
4.762543e+01	-3.748537e-04
4.790051e+01	-3.791963e-04
4.817719e+01	-3.835892e-04
4.845545e+01	-3.880330e-04
4.873533e+01	-3.925282e-04
4.901682e+01	-3.970756e-04
4.929994e+01	-4.016756e-04
4.958470e+01	-4.063289e-04
4.987110e+01	-4.110361e-04
5.015915e+01	-4.157978e-04
5.044887e+01	-4.206147e-04
5.074026e+01	-4.254874e-04
5.103333e+01	-4.304166e-04
5.132810e+01	-4.354028e-04
5.162457e+01	-4.404468e-04
5.192275e+01	-4.455493e-04
5.222265e+01	-4.507108e-04
5.252429e+01	-4.559322e-04
5.282767e+01	-4.612140e-04
5.313280e+01	-4.665570e-04
5.343969e+01	-4.719619e-04
5.374836e+01	-4.774294e-04
5.405880e+01	-4.829602e-04
5.437105e+01	-4.885551e-04
5.468509e+01	-4.942149e-04
5.500095e+01	-4.999401e-04
5.531863e+01	-5.057318e-04
5.563815e+01	-5.115905e-04
5.595951e+01	-5.175170e-04
5.628273e+01	-5.235122e-04
5.660782e+01	-5.295769e-04
5.693479e+01	-5.357118e-04
5.726364e+01	-5.419178e-04
5.759439e+01	-5.481957e-04
5.792705e+01	-5.545463e-04
5.826164e+01	-5.609704e-04
5.859815e+01	-5.674690e-04
5.893662e+01	-5.740428e-04
5.927703e+01	-5.806928e-04
5.961941e+01	-5.874199e-04
5.996377e+01	-5.942248e-04
6.031012e+01	-6.011086e-04
6.065847e+01	-6.080721e-04
6.100883e+01	-6.151163e-04
6.136121e+01	-6.222421e-04
6.171563e+01	-6.294504e-04
6.207210e+01	-6.367422e-04
6.243063e+01	-6.441185e-04
6.279122e+01	-6.515803e-04
6.315390e+01	-6.591284e-04
6.351868e+01	-6.667640e-04
6.388556e+01	-6.744881e-04
6.425456e+01	-6.823016e-04
6.462569e+01	-6.902056e-04
6.499897e+01	-6.982012e-04
6.537440e+01	-7.062894e-04
6.575200e+01	-7.144713e-04
6.613178e+01	-7.227479e-04
6.651375e+01	-7.311204e-04
6.689793e+01	-7.395900e-04
6.728433e+01	-7.481576e-04
6.767297e+01	-7.568244e-04
6.806384e+01	-7.655917e-04
6.845698e+01	-7.744605e-04
6.885238e+01	-7.834320e-04
6.925007e+01	-7.925074e-04
6.965005e+01	-8.016880e-04
7.005235e+01	-8.109749e-04
7.045697e+01	-8.203694e-04
7.086393e+01	-8.298727e-04
7.127323e+01	-8.394861e-04
7.168490e+01	-8.492108e-04
7.209895e+01	-8.590482e-04
7.251539e+01	-8.689995e-04
7.293424e+01	-8.790661e-04
7.335551e+01	-8.892492e-04
7.377920e+01	-8.995504e-04
7.420535e+01	-9.099708e-04
7.463396e+01	-9.205119e-04
7.506504e+01	-9.311752e-04
7.549861e+01	-9.419619e-04
7.593469e+01	-9.528736e-04
7.637328e+01	-9.639117e-04
7.681441e+01	-9.750776e-04
7.725809e+01	-9.863729e-04
7.770433e+01	-9.977990e-04
7.815315e+01	-1.009357e-03
7.860456e+01	-1.021050e-03
7.905857e+01	-1.032877e-03
7.951521e+01	-1.044842e-03
7.997449e+01	-1.056945e-03
8.043642e+01	-1.069189e-03
8.090102e+01	-1.081574e-03
8.136830e+01	-1.094103e-03
8.183828e+01	-1.106777e-03
8.231097e+01	-1.119598e-03
8.278640e+01	-1.132567e-03
8.326457e+01	-1.145686e-03
8.374550e+01	-1.158957e-03
8.422921e+01	-1.172382e-03
8.471572e+01	-1.185963e-03
8.520503e+01	-1.199701e-03
8.569717e+01	-1.213598e-03
8.619215e+01	-1.227655e-03
8.669000e+01	-1.241876e-03
8.719071e+01	-1.256262e-03
8.769432e+01	-1.270814e-03
8.820084e+01	-1.285534e-03
8.871029e+01	-1.300425e-03
8.922267e+01	-1.315489e-03
8.973802e+01	-1.330727e-03
9.025634e+01	-1.346141e-03
9.077766e+01	-1.361734e-03
9.130199e+01	-1.377508e-03
9.182935e+01	-1.393464e-03
9.235975e+01	-1.409605e-03
9.289321e+01	-1.425933e-03
9.342976e+01	-1.442450e-03
9.396941e+01	-1.459158e-03
9.451217e+01	-1.476060e-03
9.505807e+01	-1.493158e-03
9.560712e+01	-1.510453e-03
9.615934e+01	-1.527949e-03
9.671476e+01	-1.545648e-03
9.727338e+01	-1.563551e-03
9.783522e+01	-1.581662e-03
9.840032e+01	-1.599983e-03
9.896867e+01	-1.618516e-03
9.954031e+01	-1.637263e-03
1.001153e+02	-1.656227e-03
1.006935e+02	-1.675412e-03
1.012751e+02	-1.694818e-03
1.018601e+02	-1.714449e-03
1.024484e+02	-1.734307e-03
1.030402e+02	-1.754396e-03
1.036353e+02	-1.774717e-03
1.042339e+02	-1.795273e-03
1.048360e+02	-1.816067e-03
1.054415e+02	-1.837103e-03
1.060505e+02	-1.858381e-03
1.066631e+02	-1.879907e-03
1.072791e+02	-1.901681e-03
1.078988e+02	-1.923708e-03
1.085220e+02	-1.945989e-03
1.091488e+02	-1.968529e-03
1.097793e+02	-1.991330e-03
1.104133e+02	-2.014394e-03
1.110511e+02	-2.037726e-03
1.116925e+02	-2.061328e-03
1.123376e+02	-2.085203e-03
1.129865e+02	-2.109355e-03
1.136391e+02	-2.133787e-03
1.142955e+02	-2.158501e-03
1.149556e+02	-2.183502e-03
1.156196e+02	-2.208792e-03
1.162874e+02	-2.234374e-03
1.169591e+02	-2.260253e-03
1.176347e+02	-2.286432e-03
1.183141e+02	-2.312914e-03
1.189975e+02	-2.339703e-03
1.196848e+02	-2.366801e-03
1.203761e+02	-2.394214e-03
1.210714e+02	-2.421944e-03
1.217707e+02	-2.449995e-03
1.224740e+02	-2.478370e-03
1.231814e+02	-2.507075e-03
1.238929e+02	-2.536111e-03
1.246085e+02	-2.565484e-03
1.253283e+02	-2.595197e-03
1.260522e+02	-2.625254e-03
1.267802e+02	-2.655659e-03
1.275125e+02	-2.686416e-03
1.282490e+02	-2.717529e-03
1.289898e+02	-2.749002e-03
1.297348e+02	-2.780840e-03
1.304842e+02	-2.813046e-03
1.312378e+02	-2.845625e-03
1.319959e+02	-2.878582e-03
1.327583e+02	-2.911920e-03
1.335251e+02	-2.945644e-03
1.342963e+02	-2.979758e-03
1.350720e+02	-3.014267e-03
1.358522e+02	-3.049176e-03
1.366368e+02	-3.084489e-03
1.374260e+02	-3.120211e-03
1.382198e+02	-3.156346e-03
1.390182e+02	-3.192900e-03
1.398211e+02	-3.229876e-03
1.406287e+02	-3.267281e-03
1.414410e+02	-3.305119e-03
1.422579e+02	-3.343395e-03
1.430796e+02	-3.382114e-03
1.439060e+02	-3.421281e-03
1.447372e+02	-3.460902e-03
1.455732e+02	-3.500981e-03
1.464141e+02	-3.541524e-03
1.472597e+02	-3.582537e-03
1.481103e+02	-3.624024e-03
1.489658e+02	-3.665992e-03
1.498262e+02	-3.708445e-03
1.506916e+02	-3.751390e-03
1.515620e+02	-3.794832e-03
1.524374e+02	-3.838776e-03
1.533179e+02	-3.883230e-03
1.542034e+02	-3.928197e-03
1.550941e+02	-3.973686e-03
1.559899e+02	-4.019701e-03
1.568909e+02	-4.066248e-03
1.577971e+02	-4.113334e-03
1.587085e+02	-4.160965e-03
1.596252e+02	-4.209148e-03
1.605472e+02	-4.257888e-03
1.614745e+02	-4.307192e-03
1.624072e+02	-4.357067e-03
1.633453e+02	-4.407519e-03
1.642887e+02	-4.458555e-03
1.652377e+02	-4.510182e-03
1.661921e+02	-4.562406e-03
1.671520e+02	-4.615234e-03
1.681175e+02	-4.668674e-03
1.690885e+02	-4.722733e-03
1.700651e+02	-4.777417e-03
1.710474e+02	-4.832733e-03
1.720354e+02	-4.888690e-03
1.730291e+02	-4.945295e-03
1.740285e+02	-5.002554e-03
1.750337e+02	-5.060476e-03
1.760446e+02	-5.119068e-03
1.770615e+02	-5.178339e-03
1.780842e+02	-5.238295e-03
1.791128e+02	-5.298945e-03
1.801473e+02	-5.360296e-03
1.811878e+02	-5.422358e-03
1.822344e+02	-5.485138e-03
1.832870e+02	-5.548644e-03
1.843456e+02	-5.612885e-03
1.854104e+02	-5.677869e-03
1.864813e+02	-5.743605e-03
1.875584e+02	-5.810101e-03
1.886418e+02	-5.877367e-03
1.897313e+02	-5.945411e-03
1.908272e+02	-6.014242e-03
1.919294e+02	-6.083870e-03
1.930380e+02	-6.154303e-03
1.941530e+02	-6.225551e-03
1.952744e+02	-6.297623e-03
1.964023e+02	-6.370529e-03
1.975367e+02	-6.444278e-03
1.986777e+02	-6.518881e-03
1.998252e+02	-6.594346e-03
2.009794e+02	-6.670685e-03
2.021403e+02	-6.747906e-03
2.033078e+02	-6.826021e-03
2.044821e+02	-6.905039e-03
2.056632e+02	-6.984971e-03
2.068511e+02	-7.065828e-03
2.080459e+02	-7.147620e-03
2.092475e+02	-7.230357e-03
2.104561e+02	-7.314052e-03
2.116717e+02	-7.398715e-03
2.128943e+02	-7.484357e-03
2.141240e+02	-7.570989e-03
2.153608e+02	-7.658624e-03
2.166047e+02	-7.747271e-03
2.178558e+02	-7.836944e-03
2.191141e+02	-7.927654e-03
2.203797e+02	-8.019413e-03
2.216526e+02	-8.112233e-03
2.229329e+02	-8.206126e-03
2.242205e+02	-8.301105e-03
2.255156e+02	-8.397182e-03
2.268182e+02	-8.494370e-03
2.281283e+02	-8.592682e-03
2.294459e+02	-8.692131e-03
2.307712e+02	-8.792729e-03
2.321041e+02	-8.894490e-03
2.334447e+02	-8.997428e-03
2.347931e+02	-9.101556e-03
2.361493e+02	-9.206888e-03
2.375133e+02	-9.313437e-03
2.388851e+02	-9.421219e-03
2.402649e+02	-9.530246e-03
2.416527e+02	-9.640533e-03
2.430484e+02	-9.752095e-03
2.444523e+02	-9.864947e-03
2.458642e+02	-9.979103e-03
2.472843e+02	-1.009458e-02
2.487126e+02	-1.021139e-02
2.501492e+02	-1.032955e-02
2.515940e+02	-1.044908e-02
2.530472e+02	-1.056998e-02
2.545088e+02	-1.069229e-02
2.559789e+02	-1.081601e-02
2.574574e+02	-1.094115e-02
2.589444e+02	-1.106775e-02
2.604401e+02	-1.119580e-02
2.619444e+02	-1.132534e-02
2.634574e+02	-1.145637e-02
2.649791e+02	-1.158892e-02
2.665096e+02	-1.172300e-02
2.680489e+02	-1.185863e-02
2.695972e+02	-1.199582e-02
2.711544e+02	-1.213460e-02
2.727205e+02	-1.227499e-02
2.742958e+02	-1.241699e-02
2.758801e+02	-1.256064e-02
2.774736e+02	-1.270594e-02
2.790762e+02	-1.285292e-02
2.806882e+02	-1.300161e-02
2.823094e+02	-1.315200e-02
2.839400e+02	-1.330414e-02
2.855800e+02	-1.345803e-02
2.872295e+02	-1.361370e-02
2.888886e+02	-1.377117e-02
2.905572e+02	-1.393045e-02
2.922354e+02	-1.409158e-02
2.939234e+02	-1.425456e-02
2.956211e+02	-1.441943e-02
2.973286e+02	-1.458620e-02
2.990459e+02	-1.475490e-02
3.007732e+02	-1.492554e-02
3.025104e+02	-1.509816e-02
3.042577e+02	-1.527277e-02
3.060151e+02	-1.544939e-02
3.077826e+02	-1.562805e-02
3.095604e+02	-1.580878e-02
3.113484e+02	-1.599159e-02
3.131467e+02	-1.617651e-02
3.149554e+02	-1.636356e-02
3.167746e+02	-1.655277e-02
3.186043e+02	-1.674417e-02
3.204445e+02	-1.693778e-02
3.222954e+02	-1.713362e-02
3.241570e+02	-1.733172e-02
3.260293e+02	-1.753210e-02
3.279124e+02	-1.773480e-02
3.298064e+02	-1.793984e-02
3.317114e+02	-1.814724e-02
3.336273e+02	-1.835703e-02
3.355544e+02	-1.856925e-02
3.374925e+02	-1.878391e-02
3.394418e+02	-1.900105e-02
3.414024e+02	-1.922069e-02
3.433744e+02	-1.944287e-02
3.453577e+02	-1.966761e-02
3.473525e+02	-1.989494e-02
3.493588e+02	-2.012489e-02
3.513766e+02	-2.035749e-02
3.534062e+02	-2.059278e-02
3.554474e+02	-2.083078e-02
3.575005e+02	-2.107152e-02
3.595654e+02	-2.131504e-02
3.616422e+02	-2.156136e-02
3.637311e+02	-2.181053e-02
3.658320e+02	-2.206257e-02
3.679450e+02	-2.231751e-02
3.700702e+02	-2.257539e-02
3.722077e+02	-2.283624e-02
3.743576e+02	-2.310010e-02
3.765199e+02	-2.336699e-02
3.786946e+02	-2.363697e-02
3.808820e+02	-2.391005e-02
3.830819e+02	-2.418628e-02
3.852946e+02	-2.446570e-02
3.875200e+02	-2.474833e-02
3.897583e+02	-2.503421e-02
3.920096e+02	-2.532339e-02
3.942738e+02	-2.561590e-02
3.965511e+02	-2.591178e-02
3.988416e+02	-2.621107e-02
4.011452e+02	-2.651380e-02
4.034622e+02	-2.682002e-02
4.057926e+02	-2.712976e-02
4.081365e+02	-2.744307e-02
4.104938e+02	-2.775998e-02
4.128648e+02	-2.808055e-02
4.152495e+02	-2.840480e-02
4.176480e+02	-2.873279e-02
4.200603e+02	-2.906455e-02
4.224866e+02	-2.940012e-02
4.249268e+02	-2.973956e-02
4.273812e+02	-3.008291e-02
4.298497e+02	-3.043020e-02
4.323325e+02	-3.078149e-02
4.348297e+02	-3.113682e-02
4.373412e+02	-3.149623e-02
4.398673e+02	-3.185978e-02
4.424079e+02	-3.222751e-02
4.449633e+02	-3.259947e-02
4.475334e+02	-3.297571e-02
4.501183e+02	-3.335627e-02
4.527182e+02	-3.374120e-02
4.553330e+02	-3.413056e-02
4.579630e+02	-3.452440e-02
4.606082e+02	-3.492276e-02
4.632687e+02	-3.532570e-02
4.659445e+02	-3.573327e-02
4.686358e+02	-3.614552e-02
4.713426e+02	-3.656251e-02
4.740650e+02	-3.698429e-02
4.768032e+02	-3.741091e-02
4.795572e+02	-3.784243e-02
4.823271e+02	-3.827891e-02
4.851130e+02	-3.872040e-02
4.879150e+02	-3.916696e-02
4.907332e+02	-3.961864e-02
4.935676e+02	-4.007551e-02
4.964185e+02	-4.053762e-02
4.992858e+02	-4.100504e-02
5.021696e+02	-4.147782e-02
5.050701e+02	-4.195603e-02
5.079874e+02	-4.243972e-02
5.109215e+02	-4.292896e-02
5.138726e+02	-4.342381e-02
5.168407e+02	-4.392433e-02
5.198259e+02	-4.443060e-02
5.228284e+02	-4.494267e-02
5.258482e+02	-4.546061e-02
5.288855e+02	-4.598449e-02
5.319403e+02	-4.651438e-02
5.350128e+02	-4.705033e-02
5.381030e+02	-4.759243e-02
5.412111e+02	-4.814074e-02
5.443371e+02	-4.869533e-02
5.474812e+02	-4.925627e-02
5.506434e+02	-4.982364e-02
5.538239e+02	-5.039751e-02
5.570228e+02	-5.097794e-02
5.602401e+02	-5.156502e-02
5.634760e+02	-5.215882e-02
5.667306e+02	-5.275942e-02
5.700040e+02	-5.336689e-02
5.732964e+02	-5.398131e-02
5.766077e+02	-5.460276e-02
5.799382e+02	-5.523132e-02
5.832879e+02	-5.586707e-02
5.866569e+02	-5.651009e-02
5.900454e+02	-5.716046e-02
5.934535e+02	-5.781827e-02
5.968813e+02	-5.848359e-02
6.003288e+02	-5.915652e-02
6.037963e+02	-5.983714e-02
6.072838e+02	-6.052553e-02
6.107914e+02	-6.122179e-02
6.143194e+02	-6.192600e-02
6.178676e+02	-6.263825e-02
6.214364e+02	-6.335863e-02
6.250258e+02	-6.408724e-02
6.286359e+02	-6.482416e-02
6.322669e+02	-6.556949e-02
6.359189e+02	-6.632333e-02
6.395919e+02	-6.708576e-02
6.432862e+02	-6.785689e-02
6.470017e+02	-6.863682e-02
6.507388e+02	-6.942563e-02
6.544974e+02	-7.022344e-02
6.582778e+02	-7.103035e-02
6.620800e+02	-7.184644e-02
6.659041e+02	-7.267184e-02
6.697504e+02	-7.350664e-02
6.736188e+02	-7.435094e-02
6.775096e+02	-7.520486e-02
6.814229e+02	-7.606850e-02
6.853587e+02	-7.694196e-02
6.893173e+02	-7.782537e-02
6.932988e+02	-7.871883e-02
6.973033e+02	-7.962245e-02
7.013309e+02	-8.053635e-02
