Frequency(Hz)	Magnitude(dB)
1.000000e+01	-2.154307e+00
1.005776e+01	-2.173755e+00
1.011585e+01	-2.193544e+00
1.017428e+01	-2.213448e+00
1.023305e+01	-2.233455e+00
1.029215e+01	-2.253666e+00
1.035160e+01	-2.274017e+00
1.041139e+01	-2.294577e+00
1.047153e+01	-2.314978e+00
1.053201e+01	-2.335734e+00
1.059284e+01	-2.356611e+00
1.065403e+01	-2.377827e+00
1.071556e+01	-2.398896e+00
1.077746e+01	-2.420168e+00
1.083971e+01	-2.441754e+00
1.090232e+01	-2.463299e+00
1.096529e+01	-2.484919e+00
1.102862e+01	-2.506904e+00
1.109232e+01	-2.528909e+00
1.115639e+01	-2.550974e+00
1.122083e+01	-2.573121e+00
1.128564e+01	-2.595779e+00
1.135083e+01	-2.618130e+00
1.141639e+01	-2.641025e+00
1.148233e+01	-2.663852e+00
1.154865e+01	-2.686599e+00
1.161536e+01	-2.710173e+00
1.168245e+01	-2.733389e+00
1.174992e+01	-2.756775e+00
1.181779e+01	-2.780382e+00
1.188605e+01	-2.804064e+00
1.195470e+01	-2.827925e+00
1.202375e+01	-2.851940e+00
1.209320e+01	-2.876172e+00
1.216305e+01	-2.900481e+00
1.223330e+01	-2.924827e+00
1.230396e+01	-2.949323e+00
1.237503e+01	-2.974046e+00
1.244651e+01	-2.999071e+00
1.251840e+01	-3.024091e+00
1.259070e+01	-3.049085e+00
1.266343e+01	-3.074549e+00
1.273657e+01	-3.100094e+00
1.281014e+01	-3.125592e+00
1.288413e+01	-3.151286e+00
1.295855e+01	-3.177140e+00
1.303339e+01	-3.203166e+00
1.310867e+01	-3.229624e+00
1.318439e+01	-3.255415e+00
1.326054e+01	-3.282151e+00
1.333713e+01	-3.308717e+00
1.341417e+01	-3.335470e+00
1.349165e+01	-3.362424e+00
1.356958e+01	-3.389601e+00
1.364795e+01	-3.416679e+00
1.372678e+01	-3.444013e+00
1.380607e+01	-3.471092e+00
1.388581e+01	-3.499278e+00
1.396602e+01	-3.526627e+00
1.404668e+01	-3.554615e+00
1.412782e+01	-3.582375e+00
1.420942e+01	-3.610838e+00
1.429149e+01	-3.639249e+00
1.437404e+01	-3.667617e+00
1.445706e+01	-3.696194e+00
1.454057e+01	-3.724835e+00
1.462455e+01	-3.753811e+00
1.470902e+01	-3.782768e+00
1.479398e+01	-3.811881e+00
1.487943e+01	-3.841237e+00
1.496537e+01	-3.870696e+00
1.505181e+01	-3.900126e+00
1.513875e+01	-3.930064e+00
1.522619e+01	-3.959636e+00
1.531414e+01	-3.989852e+00
1.540259e+01	-4.019783e+00
1.549156e+01	-4.050157e+00
1.558103e+01	-4.080566e+00
1.567103e+01	-4.111108e+00
1.576155e+01	-4.142037e+00
1.585258e+01	-4.172705e+00
1.594415e+01	-4.203532e+00
1.603624e+01	-4.234487e+00
1.612886e+01	-4.265906e+00
1.622202e+01	-4.297400e+00
1.631572e+01	-4.328647e+00
1.640996e+01	-4.360404e+00
1.650474e+01	-4.392287e+00
1.660008e+01	-4.424106e+00
1.669596e+01	-4.456317e+00
1.679239e+01	-4.488347e+00
1.688938e+01	-4.520494e+00
1.698694e+01	-4.553332e+00
1.708505e+01	-4.585576e+00
1.718373e+01	-4.618227e+00
1.728299e+01	-4.651357e+00
1.738281e+01	-4.684064e+00
1.748322e+01	-4.716942e+00
1.758420e+01	-4.750392e+00
1.768576e+01	-4.783822e+00
1.778792e+01	-4.816851e+00
1.789066e+01	-4.850808e+00
1.799399e+01	-4.884456e+00
1.809793e+01	-4.917928e+00
1.820246e+01	-4.952191e+00
1.830760e+01	-4.986639e+00
1.841334e+01	-5.020315e+00
1.851969e+01	-5.054758e+00
1.862666e+01	-5.089555e+00
1.873425e+01	-5.124038e+00
1.884246e+01	-5.158564e+00
1.895129e+01	-5.193387e+00
1.906075e+01	-5.228604e+00
1.917085e+01	-5.263453e+00
1.928158e+01	-5.298570e+00
1.939295e+01	-5.333904e+00
1.950496e+01	-5.369316e+00
1.961762e+01	-5.405106e+00
1.973093e+01	-5.440847e+00
1.984490e+01	-5.476473e+00
1.995952e+01	-5.512438e+00
2.007480e+01	-5.548658e+00
2.019076e+01	-5.584364e+00
2.030738e+01	-5.620793e+00
2.042467e+01	-5.657014e+00
2.054264e+01	-5.693782e+00
2.066130e+01	-5.730413e+00
2.078064e+01	-5.767181e+00
2.090066e+01	-5.803847e+00
2.102139e+01	-5.840798e+00
2.114280e+01	-5.877832e+00
2.126492e+01	-5.914980e+00
2.138775e+01	-5.952094e+00
2.151128e+01	-5.989090e+00
2.163553e+01	-6.027120e+00
2.176050e+01	-6.064781e+00
2.188619e+01	-6.102215e+00
2.201260e+01	-6.140026e+00
2.213974e+01	-6.178472e+00
2.226762e+01	-6.215883e+00
2.239624e+01	-6.254065e+00
2.252560e+01	-6.292015e+00
2.265571e+01	-6.330571e+00
2.278656e+01	-6.369024e+00
2.291818e+01	-6.407926e+00
2.305055e+01	-6.446575e+00
2.318369e+01	-6.485206e+00
2.331760e+01	-6.524128e+00
2.345228e+01	-6.562502e+00
2.358774e+01	-6.601864e+00
2.372398e+01	-6.641024e+00
2.386101e+01	-6.680070e+00
2.399883e+01	-6.719884e+00
2.413745e+01	-6.758786e+00
2.427686e+01	-6.798208e+00
2.441709e+01	-6.838113e+00
2.455812e+01	-6.878191e+00
2.469997e+01	-6.917265e+00
2.484263e+01	-6.957568e+00
2.498612e+01	-6.997330e+00
2.513044e+01	-7.037460e+00
2.527559e+01	-7.077735e+00
2.542158e+01	-7.117797e+00
2.556842e+01	-7.158752e+00
2.571610e+01	-7.198440e+00
2.586463e+01	-7.239024e+00
2.601403e+01	-7.280123e+00
2.616428e+01	-7.320798e+00
2.631541e+01	-7.361454e+00
2.646740e+01	-7.402340e+00
2.662028e+01	-7.443328e+00
2.677404e+01	-7.484418e+00
2.692868e+01	-7.525468e+00
2.708422e+01	-7.566717e+00
2.724066e+01	-7.608079e+00
2.739800e+01	-7.649742e+00
2.755625e+01	-7.691060e+00
2.771541e+01	-7.732460e+00
2.787550e+01	-7.774183e+00
2.803650e+01	-7.816081e+00
2.819844e+01	-7.857357e+00
2.836131e+01	-7.899332e+00
2.852513e+01	-7.941082e+00
2.868989e+01	-7.983672e+00
2.885560e+01	-8.025448e+00
2.902227e+01	-8.067752e+00
2.918990e+01	-8.110368e+00
2.935850e+01	-8.152408e+00
2.952807e+01	-8.194832e+00
2.969863e+01	-8.237449e+00
2.987016e+01	-8.280046e+00
3.004269e+01	-8.322866e+00
3.021622e+01	-8.365103e+00
3.039075e+01	-8.407973e+00
3.056628e+01	-8.450827e+00
3.074283e+01	-8.493835e+00
3.092040e+01	-8.536830e+00
3.109900e+01	-8.579851e+00
3.127862e+01	-8.623158e+00
3.145929e+01	-8.666429e+00
3.164099e+01	-8.709556e+00
3.182375e+01	-8.752533e+00
3.200756e+01	-8.796086e+00
3.219244e+01	-8.839653e+00
3.237838e+01	-8.883057e+00
3.256540e+01	-8.926687e+00
3.275349e+01	-8.970283e+00
3.294268e+01	-9.014034e+00
3.313295e+01	-9.057608e+00
3.332433e+01	-9.101612e+00
3.351681e+01	-9.145697e+00
3.371040e+01	-9.189541e+00
3.390511e+01	-9.233075e+00
3.410094e+01	-9.277187e+00
3.429791e+01	-9.321489e+00
3.449601e+01	-9.366375e+00
3.469526e+01	-9.410613e+00
3.489566e+01	-9.454486e+00
3.509721e+01	-9.498663e+00
3.529993e+01	-9.543538e+00
3.550382e+01	-9.588093e+00
3.570889e+01	-9.632421e+00
3.591515e+01	-9.676984e+00
3.612259e+01	-9.721372e+00
3.633123e+01	-9.766539e+00
3.654108e+01	-9.811434e+00
3.675214e+01	-9.856342e+00
3.696442e+01	-9.901005e+00
3.717792e+01	-9.946259e+00
3.739266e+01	-9.991346e+00
3.760864e+01	-1.003615e+01
3.782587e+01	-1.008118e+01
3.804435e+01	-1.012593e+01
3.826409e+01	-1.017152e+01
3.848510e+01	-1.021675e+01
3.870739e+01	-1.026153e+01
3.893096e+01	-1.030712e+01
3.915583e+01	-1.035238e+01
3.938199e+01	-1.039838e+01
3.960946e+01	-1.044312e+01
3.983824e+01	-1.048877e+01
4.006834e+01	-1.053414e+01
4.029978e+01	-1.058038e+01
4.053255e+01	-1.062552e+01
4.076666e+01	-1.067219e+01
4.100213e+01	-1.071767e+01
4.123896e+01	-1.076334e+01
4.147715e+01	-1.080898e+01
4.171672e+01	-1.085493e+01
4.195767e+01	-1.090017e+01
4.220002e+01	-1.094689e+01
4.244377e+01	-1.099303e+01
4.268892e+01	-1.103872e+01
4.293549e+01	-1.108437e+01
4.318348e+01	-1.113065e+01
4.343291e+01	-1.117759e+01
4.368377e+01	-1.122321e+01
4.393609e+01	-1.127003e+01
4.418986e+01	-1.131576e+01
4.444510e+01	-1.136251e+01
4.470182e+01	-1.140915e+01
4.496001e+01	-1.145542e+01
4.521970e+01	-1.150163e+01
4.548089e+01	-1.154791e+01
4.574358e+01	-1.159453e+01
4.600779e+01	-1.164168e+01
4.627353e+01	-1.168775e+01
4.654081e+01	-1.173433e+01
4.680963e+01	-1.178166e+01
4.708000e+01	-1.182770e+01
4.735193e+01	-1.187446e+01
4.762543e+01	-1.192195e+01
4.790051e+01	-1.196865e+01
4.817719e+01	-1.201615e+01
4.845545e+01	-1.206218e+01
4.873533e+01	-1.210896e+01
4.901682e+01	-1.215588e+01
4.929994e+01	-1.220363e+01
4.958470e+01	-1.225049e+01
4.987110e+01	-1.229724e+01
5.015915e+01	-1.234477e+01
5.044887e+01	-1.239193e+01
5.074026e+01	-1.243865e+01
5.103333e+01	-1.248577e+01
5.132810e+01	-1.253292e+01
5.162457e+01	-1.258013e+01
5.192275e+01	-1.262751e+01
5.222265e+01	-1.267519e+01
5.252429e+01	-1.272190e+01
5.282767e+01	-1.277027e+01
5.313280e+01	-1.281688e+01
5.343969e+01	-1.286496e+01
5.374836e+01	-1.291214e+01
5.405880e+01	-1.296002e+01
5.437105e+01	-1.300687e+01
5.468509e+01	-1.305511e+01
5.500095e+01	-1.310246e+01
5.531863e+01	-1.314953e+01
5.563815e+01	-1.319699e+01
5.595951e+01	-1.324421e+01
5.628273e+01	-1.329317e+01
5.660782e+01	-1.334012e+01
5.693479e+01	-1.338745e+01
5.726364e+01	-1.343564e+01
5.759439e+01	-1.348402e+01
5.792705e+01	-1.353098e+01
5.826164e+01	-1.357893e+01
5.859815e+01	-1.362673e+01
5.893662e+01	-1.367418e+01
5.927703e+01	-1.372278e+01
5.961941e+01	-1.377017e+01
5.996377e+01	-1.381807e+01
6.031012e+01	-1.386665e+01
6.065847e+01	-1.391478e+01
6.100883e+01	-1.396235e+01
6.136121e+01	-1.400998e+01
6.171563e+01	-1.405930e+01
6.207210e+01	-1.410642e+01
6.243063e+01	-1.415466e+01
6.279122e+01	-1.420286e+01
6.315390e+01	-1.425150e+01
6.351868e+01	-1.429838e+01
6.388556e+01	-1.434719e+01
6.425456e+01	-1.439626e+01
6.462569e+01	-1.444431e+01
6.499897e+01	-1.449153e+01
6.537440e+01	-1.453950e+01
6.575200e+01	-1.458793e+01
6.613178e+01	-1.463654e+01
6.651375e+01	-1.468488e+01
6.689793e+01	-1.473337e+01
6.728433e+01	-1.478195e+01
6.767297e+01	-1.483019e+01
6.806384e+01	-1.487894e+01
6.845698e+01	-1.492743e+01
6.885238e+01	-1.497538e+01
6.925007e+01	-1.502423e+01
6.965005e+01	-1.507191e+01
7.005235e+01	-1.512076e+01
7.045697e+01	-1.516943e+01
7.086393e+01	-1.521741e+01
7.127323e+01	-1.526717e+01
7.168490e+01	-1.531489e+01
7.209895e+01	-1.536388e+01
7.251539e+01	-1.541197e+01
7.293424e+01	-1.546065e+01
7.335551e+01	-1.550945e+01
7.377920e+01	-1.555801e+01
7.420535e+01	-1.560718e+01
7.463396e+01	-1.565509e+01
7.506504e+01	-1.570327e+01
7.549861e+01	-1.575390e+01
7.593469e+01	-1.580128e+01
7.637328e+01	-1.584981e+01
7.681441e+01	-1.589876e+01
7.725809e+01	-1.594865e+01
7.770433e+01	-1.599644e+01
7.815315e+01	-1.604478e+01
7.860456e+01	-1.609483e+01
7.905857e+01	-1.614227e+01
7.951521e+01	-1.619167e+01
7.997449e+01	-1.624022e+01
8.043642e+01	-1.629061e+01
8.090102e+01	-1.633848e+01
8.136830e+01	-1.638673e+01
8.183828e+01	-1.643579e+01
8.231097e+01	-1.648562e+01
8.278640e+01	-1.653480e+01
8.326457e+01	-1.658237e+01
8.374550e+01	-1.663072e+01
8.422921e+01	-1.668084e+01
8.471572e+01	-1.672907e+01
8.520503e+01	-1.677775e+01
8.569717e+01	-1.682649e+01
8.619215e+01	-1.687810e+01
8.669000e+01	-1.692513e+01
8.719071e+01	-1.697471e+01
8.769432e+01	-1.702285e+01
8.820084e+01	-1.707115e+01
8.871029e+01	-1.712087e+01
8.922267e+01	-1.717127e+01
8.973802e+01	-1.721959e+01
9.025634e+01	-1.726910e+01
9.077766e+01	-1.731754e+01
9.130199e+01	-1.736656e+01
9.182935e+01	-1.741727e+01
9.235975e+01	-1.746524e+01
9.289321e+01	-1.751480e+01
9.342976e+01	-1.756282e+01
9.396941e+01	-1.761300e+01
9.451217e+01	-1.766203e+01
9.505807e+01	-1.771005e+01
9.560712e+01	-1.776011e+01
9.615934e+01	-1.780785e+01
9.671476e+01	-1.785892e+01
9.727338e+01	-1.790801e+01
9.783522e+01	-1.795665e+01
9.840032e+01	-1.800668e+01
9.896867e+01	-1.805521e+01
9.954031e+01	-1.810573e+01
1.001153e+02	-1.815298e+01
1.006935e+02	-1.820427e+01
1.012751e+02	-1.825116e+01
1.018601e+02	-1.830206e+01
1.024484e+02	-1.835194e+01
1.030402e+02	-1.840121e+01
1.036353e+02	-1.845073e+01
1.042339e+02	-1.849885e+01
1.048360e+02	-1.854830e+01
1.054415e+02	-1.859706e+01
1.060505e+02	-1.864752e+01
1.066631e+02	-1.869558e+01
1.072791e+02	-1.874446e+01
1.078988e+02	-1.879590e+01
1.085220e+02	-1.884471e+01
1.091488e+02	-1.889377e+01
1.097793e+02	-1.894287e+01
1.104133e+02	-1.899188e+01
1.110511e+02	-1.904097e+01
1.116925e+02	-1.909078e+01
1.123376e+02	-1.914113e+01
1.129865e+02	-1.918938e+01
1.136391e+02	-1.924086e+01
1.142955e+02	-1.928976e+01
1.149556e+02	-1.933748e+01
1.156196e+02	-1.938679e+01
1.162874e+02	-1.943666e+01
1.169591e+02	-1.948625e+01
1.176347e+02	-1.953624e+01
1.183141e+02	-1.958645e+01
1.189975e+02	-1.963523e+01
1.196848e+02	-1.968525e+01
1.203761e+02	-1.973571e+01
1.210714e+02	-1.978511e+01
1.217707e+02	-1.983456e+01
1.224740e+02	-1.988370e+01
1.231814e+02	-1.993319e+01
1.238929e+02	-1.998322e+01
1.246085e+02	-2.003215e+01
1.253283e+02	-2.008088e+01
1.260522e+02	-2.013165e+01
1.267802e+02	-2.018178e+01
1.275125e+02	-2.022892e+01
1.282490e+02	-2.027803e+01
1.289898e+02	-2.032813e+01
1.297348e+02	-2.037929e+01
1.304842e+02	-2.042942e+01
1.312378e+02	-2.047683e+01
1.319959e+02	-2.052638e+01
1.327583e+02	-2.057695e+01
1.335251e+02	-2.062795e+01
1.342963e+02	-2.067510e+01
1.350720e+02	-2.072617e+01
1.358522e+02	-2.077616e+01
1.366368e+02	-2.082648e+01
1.374260e+02	-2.087555e+01
1.382198e+02	-2.092368e+01
1.390182e+02	-2.097406e+01
1.398211e+02	-2.102441e+01
1.406287e+02	-2.107433e+01
1.414410e+02	-2.112383e+01
1.422579e+02	-2.117254e+01
1.430796e+02	-2.122189e+01
1.439060e+02	-2.127242e+01
1.447372e+02	-2.132232e+01
1.455732e+02	-2.137124e+01
1.464141e+02	-2.141981e+01
1.472597e+02	-2.147101e+01
1.481103e+02	-2.152236e+01
1.489658e+02	-2.157074e+01
1.498262e+02	-2.161889e+01
1.506916e+02	-2.166903e+01
1.515620e+02	-2.171846e+01
1.524374e+02	-2.176831e+01
1.533179e+02	-2.181877e+01
1.542034e+02	-2.186775e+01
1.550941e+02	-2.191666e+01
1.559899e+02	-2.196682e+01
1.568909e+02	-2.201770e+01
1.577971e+02	-2.206507e+01
1.587085e+02	-2.211660e+01
1.596252e+02	-2.216737e+01
1.605472e+02	-2.221794e+01
1.614745e+02	-2.226541e+01
1.624072e+02	-2.231487e+01
1.633453e+02	-2.236539e+01
1.642887e+02	-2.241637e+01
1.652377e+02	-2.246485e+01
1.661921e+02	-2.251541e+01
1.671520e+02	-2.256379e+01
1.681175e+02	-2.261448e+01
1.690885e+02	-2.266420e+01
1.700651e+02	-2.271365e+01
1.710474e+02	-2.276166e+01
1.720354e+02	-2.281189e+01
1.730291e+02	-2.286419e+01
1.740285e+02	-2.291368e+01
1.750337e+02	-2.296155e+01
1.760446e+02	-2.301473e+01
1.770615e+02	-2.306180e+01
1.780842e+02	-2.311091e+01
1.791128e+02	-2.316355e+01
1.801473e+02	-2.321261e+01
1.811878e+02	-2.326130e+01
1.822344e+02	-2.331103e+01
1.832870e+02	-2.336146e+01
1.843456e+02	-2.341041e+01
1.854104e+02	-2.346032e+01
1.864813e+02	-2.350910e+01
1.875584e+02	-2.355957e+01
1.886418e+02	-2.361133e+01
1.897313e+02	-2.366013e+01
1.908272e+02	-2.371059e+01
1.919294e+02	-2.376214e+01
1.930380e+02	-2.381071e+01
1.941530e+02	-2.385947e+01
1.952744e+02	-2.390819e+01
1.964023e+02	-2.396189e+01
1.975367e+02	-2.400661e+01
1.986777e+02	-2.405873e+01
1.998252e+02	-2.410929e+01
2.009794e+02	-2.415678e+01
2.021403e+02	-2.421151e+01
2.033078e+02	-2.425863e+01
2.044821e+02	-2.430735e+01
2.056632e+02	-2.435924e+01
2.068511e+02	-2.440881e+01
2.080459e+02	-2.445582e+01
2.092475e+02	-2.450662e+01
2.104561e+02	-2.455661e+01
2.116717e+02	-2.460587e+01
2.128943e+02	-2.465564e+01
2.141240e+02	-2.470470e+01
2.153608e+02	-2.475578e+01
2.166047e+02	-2.480497e+01
2.178558e+02	-2.485734e+01
2.191141e+02	-2.490683e+01
2.203797e+02	-2.495624e+01
2.216526e+02	-2.500778e+01
2.229329e+02	-2.505578e+01
2.242205e+02	-2.510625e+01
2.255156e+02	-2.515748e+01
2.268182e+02	-2.520630e+01
2.281283e+02	-2.525488e+01
2.294459e+02	-2.530598e+01
2.307712e+02	-2.535689e+01
2.321041e+02	-2.540792e+01
2.334447e+02	-2.545382e+01
2.347931e+02	-2.550265e+01
2.361493e+02	-2.555536e+01
2.375133e+02	-2.560584e+01
2.388851e+02	-2.565440e+01
2.402649e+02	-2.570654e+01
2.416527e+02	-2.575638e+01
2.430484e+02	-2.580468e+01
2.444523e+02	-2.585463e+01
2.458642e+02	-2.590647e+01
2.472843e+02	-2.595460e+01
2.487126e+02	-2.600513e+01
2.501492e+02	-2.605595e+01
2.515940e+02	-2.610563e+01
2.530472e+02	-2.615569e+01
2.545088e+02	-2.620445e+01
2.559789e+02	-2.625295e+01
2.574574e+02	-2.630294e+01
2.589444e+02	-2.635623e+01
2.604401e+02	-2.640584e+01
2.619444e+02	-2.645512e+01
2.634574e+02	-2.650481e+01
2.649791e+02	-2.655327e+01
2.665096e+02	-2.660520e+01
2.680489e+02	-2.665472e+01
2.695972e+02	-2.670329e+01
2.711544e+02	-2.675632e+01
2.727205e+02	-2.680502e+01
2.742958e+02	-2.685855e+01
2.758801e+02	-2.690634e+01
2.774736e+02	-2.695153e+01
2.790762e+02	-2.700336e+01
2.806882e+02	-2.705401e+01
2.823094e+02	-2.710654e+01
2.839400e+02	-2.715807e+01
2.855800e+02	-2.720559e+01
2.872295e+02	-2.725782e+01
2.888886e+02	-2.730596e+01
2.905572e+02	-2.735299e+01
2.922354e+02	-2.740491e+01
2.939234e+02	-2.745703e+01
2.956211e+02	-2.750484e+01
2.973286e+02	-2.755698e+01
2.990459e+02	-2.760225e+01
3.007732e+02	-2.765615e+01
3.025104e+02	-2.770311e+01
3.042577e+02	-2.775202e+01
3.060151e+02	-2.780739e+01
3.077826e+02	-2.785169e+01
3.095604e+02	-2.790226e+01
3.113484e+02	-2.795484e+01
3.131467e+02	-2.800590e+01
3.149554e+02	-2.805108e+01
3.167746e+02	-2.810611e+01
3.186043e+02	-2.815541e+01
3.204445e+02	-2.820386e+01
3.222954e+02	-2.825513e+01
3.241570e+02	-2.830328e+01
3.260293e+02	-2.835519e+01
3.279124e+02	-2.840610e+01
3.298064e+02	-2.845478e+01
3.317114e+02	-2.850329e+01
3.336273e+02	-2.855108e+01
3.355544e+02	-2.860489e+01
3.374925e+02	-2.865333e+01
3.394418e+02	-2.870951e+01
3.414024e+02	-2.875329e+01
3.433744e+02	-2.880418e+01
3.453577e+02	-2.885297e+01
3.473525e+02	-2.890666e+01
3.493588e+02	-2.895386e+01
3.513766e+02	-2.900867e+01
3.534062e+02	-2.905875e+01
3.554474e+02	-2.910116e+01
3.575005e+02	-2.916203e+01
3.595654e+02	-2.920869e+01
3.616422e+02	-2.925628e+01
3.637311e+02	-2.930622e+01
3.658320e+02	-2.935328e+01
3.679450e+02	-2.940330e+01
3.700702e+02	-2.945615e+01
3.722077e+02	-2.950268e+01
3.743576e+02	-2.955558e+01
3.765199e+02	-2.960538e+01
3.786946e+02	-2.966186e+01
3.808820e+02	-2.969980e+01
3.830819e+02	-2.975592e+01
3.852946e+02	-2.981167e+01
3.875200e+02	-2.985913e+01
3.897583e+02	-2.990666e+01
3.920096e+02	-2.995872e+01
3.942738e+02	-3.001047e+01
3.965511e+02	-3.005765e+01
3.988416e+02	-3.010595e+01
4.011452e+02	-3.015698e+01
4.034622e+02	-3.020763e+01
4.057926e+02	-3.025580e+01
4.081365e+02	-3.030692e+01
4.104938e+02	-3.034847e+01
4.128648e+02	-3.040681e+01
4.152495e+02	-3.045583e+01
4.176480e+02	-3.050950e+01
4.200603e+02	-3.055620e+01
4.224866e+02	-3.060915e+01
4.249268e+02	-3.065747e+01
4.273812e+02	-3.070560e+01
4.298497e+02	-3.075849e+01
4.323325e+02	-3.080815e+01
4.348297e+02	-3.085947e+01
4.373412e+02	-3.091314e+01
4.398673e+02	-3.095981e+01
4.424079e+02	-3.100582e+01
4.449633e+02	-3.105959e+01
4.475334e+02	-3.111337e+01
4.501183e+02	-3.116001e+01
4.527182e+02	-3.121160e+01
4.553330e+02	-3.126531e+01
4.579630e+02	-3.130606e+01
4.606082e+02	-3.136726e+01
4.632687e+02	-3.141243e+01
4.659445e+02	-3.145728e+01
4.686358e+02	-3.151395e+01
4.713426e+02	-3.155689e+01
4.740650e+02	-3.161047e+01
4.768032e+02	-3.166362e+01
4.795572e+02	-3.170949e+01
4.823271e+02	-3.176816e+01
4.851130e+02	-3.180795e+01
4.879150e+02	-3.186648e+01
4.907332e+02	-3.191313e+01
4.935676e+02	-3.196028e+01
4.964185e+02	-3.201754e+01
4.992858e+02	-3.206030e+01
5.021696e+02	-3.210979e+01
5.050701e+02	-3.216191e+01
5.079874e+02	-3.221986e+01
5.109215e+02	-3.225719e+01
5.138726e+02	-3.231586e+01
5.168407e+02	-3.235823e+01
5.198259e+02	-3.241777e+01
5.228284e+02	-3.246728e+01
5.258482e+02	-3.251331e+01
5.288855e+02	-3.256387e+01
5.319403e+02	-3.262021e+01
5.350128e+02	-3.266658e+01
5.381030e+02	-3.271794e+01
5.412111e+02	-3.276819e+01
5.443371e+02	-3.281952e+01
5.474812e+02	-3.286550e+01
5.506434e+02	-3.291631e+01
5.538239e+02	-3.296278e+01
5.570228e+02	-3.300997e+01
5.602401e+02	-3.306367e+01
5.634760e+02	-3.312036e+01
5.667306e+02	-3.316653e+01
5.700040e+02	-3.321595e+01
5.732964e+02	-3.326687e+01
5.766077e+02	-3.331741e+01
5.799382e+02	-3.337273e+01
5.832879e+02	-3.341942e+01
5.866569e+02	-3.346252e+01
5.900454e+02	-3.351727e+01
5.934535e+02	-3.356388e+01
5.968813e+02	-3.362052e+01
6.003288e+02	-3.367330e+01
6.037963e+02	-3.372805e+01
6.072838e+02	-3.377518e+01
6.107914e+02	-3.381445e+01
6.143194e+02	-3.387124e+01
6.178676e+02	-3.391404e+01
6.214364e+02	-3.396003e+01
6.250258e+02	-3.401989e+01
6.286359e+02	-3.407485e+01
6.322669e+02	-3.411988e+01
6.359189e+02	-3.417392e+01
6.395919e+02	-3.422052e+01
6.432862e+02	-3.426971e+01
6.470017e+02	-3.431508e+01
6.507388e+02	-3.437949e+01
6.544974e+02	-3.442815e+01
6.582778e+02	-3.447254e+01
6.620800e+02	-3.452668e+01
6.659041e+02	-3.457777e+01
6.697504e+02	-3.461934e+01
6.736188e+02	-3.467310e+01
6.775096e+02	-3.472015e+01
6.814229e+02	-3.478039e+01
6.853587e+02	-3.483066e+01
6.893173e+02	-3.486958e+01
6.932988e+02	-3.493226e+01
6.973033e+02	-3.497606e+01
7.013309e+02	-3.503571e+01
