Frequency(Hz)	Magnitude(dB)
1.000000e+01	-2.075267e+00
1.005776e+01	-2.094184e+00
1.011585e+01	-2.113447e+00
1.017428e+01	-2.132949e+00
1.023305e+01	-2.152344e+00
1.029215e+01	-2.171755e+00
1.035160e+01	-2.191704e+00
1.041139e+01	-2.211644e+00
1.047153e+01	-2.231532e+00
1.053201e+01	-2.251959e+00
1.059284e+01	-2.271905e+00
1.065403e+01	-2.292627e+00
1.071556e+01	-2.313128e+00
1.077746e+01	-2.333834e+00
1.083971e+01	-2.354564e+00
1.090232e+01	-2.375708e+00
1.096529e+01	-2.396845e+00
1.102862e+01	-2.418031e+00
1.109232e+01	-2.439556e+00
1.115639e+01	-2.461118e+00
1.122083e+01	-2.482897e+00
1.128564e+01	-2.504534e+00
1.135083e+01	-2.526572e+00
1.141639e+01	-2.548739e+00
1.148233e+01	-2.570949e+00
1.154865e+01	-2.593340e+00
1.161536e+01	-2.616090e+00
1.168245e+01	-2.638711e+00
1.174992e+01	-2.661641e+00
1.181779e+01	-2.684980e+00
1.188605e+01	-2.707772e+00
1.195470e+01	-2.731210e+00
1.202375e+01	-2.754546e+00
1.209320e+01	-2.777929e+00
1.216305e+01	-2.801779e+00
1.223330e+01	-2.825699e+00
1.230396e+01	-2.849620e+00
1.237503e+01	-2.873739e+00
1.244651e+01	-2.897987e+00
1.251840e+01	-2.922472e+00
1.259070e+01	-2.946980e+00
1.266343e+01	-2.971846e+00
1.273657e+01	-2.996668e+00
1.281014e+01	-3.021601e+00
1.288413e+01	-3.046994e+00
1.295855e+01	-3.072174e+00
1.303339e+01	-3.097434e+00
1.310867e+01	-3.123107e+00
1.318439e+01	-3.148819e+00
1.326054e+01	-3.174597e+00
1.333713e+01	-3.200642e+00
1.341417e+01	-3.226879e+00
1.349165e+01	-3.253353e+00
1.356958e+01	-3.279859e+00
1.364795e+01	-3.305986e+00
1.372678e+01	-3.333123e+00
1.380607e+01	-3.359878e+00
1.388581e+01	-3.386756e+00
1.396602e+01	-3.414124e+00
1.404668e+01	-3.441568e+00
1.412782e+01	-3.468812e+00
1.420942e+01	-3.496135e+00
1.429149e+01	-3.524066e+00
1.437404e+01	-3.551906e+00
1.445706e+01	-3.579910e+00
1.454057e+01	-3.608269e+00
1.462455e+01	-3.636319e+00
1.470902e+01	-3.664643e+00
1.479398e+01	-3.693225e+00
1.487943e+01	-3.722324e+00
1.496537e+01	-3.751194e+00
1.505181e+01	-3.780084e+00
1.513875e+01	-3.809126e+00
1.522619e+01	-3.838340e+00
1.531414e+01	-3.867930e+00
1.540259e+01	-3.897322e+00
1.549156e+01	-3.927128e+00
1.558103e+01	-3.957010e+00
1.567103e+01	-3.986729e+00
1.576155e+01	-4.016930e+00
1.585258e+01	-4.047410e+00
1.594415e+01	-4.077788e+00
1.603624e+01	-4.108479e+00
1.612886e+01	-4.139165e+00
1.622202e+01	-4.169849e+00
1.631572e+01	-4.200721e+00
1.640996e+01	-4.231887e+00
1.650474e+01	-4.262924e+00
1.660008e+01	-4.294730e+00
1.669596e+01	-4.325957e+00
1.679239e+01	-4.357681e+00
1.688938e+01	-4.389097e+00
1.698694e+01	-4.420931e+00
1.708505e+01	-4.453094e+00
1.718373e+01	-4.485332e+00
1.728299e+01	-4.517564e+00
1.738281e+01	-4.550107e+00
1.748322e+01	-4.582272e+00
1.758420e+01	-4.615048e+00
1.768576e+01	-4.647972e+00
1.778792e+01	-4.680791e+00
1.789066e+01	-4.713854e+00
1.799399e+01	-4.747278e+00
1.809793e+01	-4.780136e+00
1.820246e+01	-4.814036e+00
1.830760e+01	-4.847796e+00
1.841334e+01	-4.881078e+00
1.851969e+01	-4.915213e+00
1.862666e+01	-4.949064e+00
1.873425e+01	-4.983139e+00
1.884246e+01	-5.017212e+00
1.895129e+01	-5.051658e+00
1.906075e+01	-5.086117e+00
1.917085e+01	-5.120862e+00
1.928158e+01	-5.154925e+00
1.939295e+01	-5.190057e+00
1.950496e+01	-5.224884e+00
1.961762e+01	-5.260175e+00
1.973093e+01	-5.295567e+00
1.984490e+01	-5.330422e+00
1.995952e+01	-5.366032e+00
2.007480e+01	-5.401631e+00
2.019076e+01	-5.437316e+00
2.030738e+01	-5.473054e+00
2.042467e+01	-5.508633e+00
2.054264e+01	-5.544671e+00
2.066130e+01	-5.581171e+00
2.078064e+01	-5.617019e+00
2.090066e+01	-5.653645e+00
2.102139e+01	-5.689940e+00
2.114280e+01	-5.726822e+00
2.126492e+01	-5.763358e+00
2.138775e+01	-5.800149e+00
2.151128e+01	-5.837355e+00
2.163553e+01	-5.874261e+00
2.176050e+01	-5.911694e+00
2.188619e+01	-5.948524e+00
2.201260e+01	-5.985989e+00
2.213974e+01	-6.023581e+00
2.226762e+01	-6.060925e+00
2.239624e+01	-6.098843e+00
2.252560e+01	-6.136647e+00
2.265571e+01	-6.174184e+00
2.278656e+01	-6.212261e+00
2.291818e+01	-6.250257e+00
2.305055e+01	-6.288996e+00
2.318369e+01	-6.327064e+00
2.331760e+01	-6.365550e+00
2.345228e+01	-6.404192e+00
2.358774e+01	-6.442572e+00
2.372398e+01	-6.480979e+00
2.386101e+01	-6.520204e+00
2.399883e+01	-6.559255e+00
2.413745e+01	-6.598113e+00
2.427686e+01	-6.637357e+00
2.441709e+01	-6.676436e+00
2.455812e+01	-6.715666e+00
2.469997e+01	-6.755290e+00
2.484263e+01	-6.794900e+00
2.498612e+01	-6.834556e+00
2.513044e+01	-6.874188e+00
2.527559e+01	-6.914300e+00
2.542158e+01	-6.953486e+00
2.556842e+01	-6.993542e+00
2.571610e+01	-7.033897e+00
2.586463e+01	-7.074125e+00
2.601403e+01	-7.114238e+00
2.616428e+01	-7.154701e+00
2.631541e+01	-7.195367e+00
2.646740e+01	-7.235565e+00
2.662028e+01	-7.276107e+00
2.677404e+01	-7.316827e+00
2.692868e+01	-7.357663e+00
2.708422e+01	-7.398498e+00
2.724066e+01	-7.439489e+00
2.739800e+01	-7.480820e+00
2.755625e+01	-7.521834e+00
2.771541e+01	-7.562911e+00
2.787550e+01	-7.603980e+00
2.803650e+01	-7.645308e+00
2.819844e+01	-7.687002e+00
2.836131e+01	-7.728986e+00
2.852513e+01	-7.770326e+00
2.868989e+01	-7.811887e+00
2.885560e+01	-7.853616e+00
2.902227e+01	-7.895940e+00
2.918990e+01	-7.937439e+00
2.935850e+01	-7.979958e+00
2.952807e+01	-8.021292e+00
2.969863e+01	-8.063816e+00
2.987016e+01	-8.106249e+00
3.004269e+01	-8.147899e+00
3.021622e+01	-8.190860e+00
3.039075e+01	-8.233502e+00
3.056628e+01	-8.275817e+00
3.074283e+01	-8.318394e+00
3.092040e+01	-8.360692e+00
3.109900e+01	-8.403746e+00
3.127862e+01	-8.446512e+00
3.145929e+01	-8.490085e+00
3.164099e+01	-8.532512e+00
3.182375e+01	-8.576190e+00
3.200756e+01	-8.618476e+00
3.219244e+01	-8.661631e+00
3.237838e+01	-8.704935e+00
3.256540e+01	-8.747907e+00
3.275349e+01	-8.791705e+00
3.294268e+01	-8.835482e+00
3.313295e+01	-8.879041e+00
3.332433e+01	-8.922670e+00
3.351681e+01	-8.966623e+00
3.371040e+01	-9.009878e+00
3.390511e+01	-9.053773e+00
3.410094e+01	-9.097115e+00
3.429791e+01	-9.141732e+00
3.449601e+01	-9.185288e+00
3.469526e+01	-9.229107e+00
3.489566e+01	-9.273113e+00
3.509721e+01	-9.317552e+00
3.529993e+01	-9.361455e+00
3.550382e+01	-9.405895e+00
3.570889e+01	-9.450128e+00
3.591515e+01	-9.494979e+00
3.612259e+01	-9.539397e+00
3.633123e+01	-9.583946e+00
3.654108e+01	-9.628644e+00
3.675214e+01	-9.672898e+00
3.696442e+01	-9.717426e+00
3.717792e+01	-9.761786e+00
3.739266e+01	-9.806574e+00
3.760864e+01	-9.851260e+00
3.782587e+01	-9.896299e+00
3.804435e+01	-9.941223e+00
3.826409e+01	-9.986495e+00
3.848510e+01	-1.003156e+01
3.870739e+01	-1.007652e+01
3.893096e+01	-1.012169e+01
3.915583e+01	-1.016698e+01
3.938199e+01	-1.021215e+01
3.960946e+01	-1.025775e+01
3.983824e+01	-1.030277e+01
4.006834e+01	-1.034792e+01
4.029978e+01	-1.039390e+01
4.053255e+01	-1.043904e+01
4.076666e+01	-1.048471e+01
4.100213e+01	-1.053052e+01
4.123896e+01	-1.057608e+01
4.147715e+01	-1.062134e+01
4.171672e+01	-1.066666e+01
4.195767e+01	-1.071314e+01
4.220002e+01	-1.075894e+01
4.244377e+01	-1.080426e+01
4.268892e+01	-1.085056e+01
4.293549e+01	-1.089709e+01
4.318348e+01	-1.094227e+01
4.343291e+01	-1.098900e+01
4.368377e+01	-1.103457e+01
4.393609e+01	-1.108061e+01
4.418986e+01	-1.112675e+01
4.444510e+01	-1.117302e+01
4.470182e+01	-1.121996e+01
4.496001e+01	-1.126600e+01
4.521970e+01	-1.131175e+01
4.548089e+01	-1.135801e+01
4.574358e+01	-1.140424e+01
4.600779e+01	-1.145090e+01
4.627353e+01	-1.149777e+01
4.654081e+01	-1.154368e+01
4.680963e+01	-1.158985e+01
4.708000e+01	-1.163716e+01
4.735193e+01	-1.168394e+01
4.762543e+01	-1.172985e+01
4.790051e+01	-1.177740e+01
4.817719e+01	-1.182332e+01
4.845545e+01	-1.187069e+01
4.873533e+01	-1.191740e+01
4.901682e+01	-1.196406e+01
4.929994e+01	-1.201164e+01
4.958470e+01	-1.205807e+01
4.987110e+01	-1.210441e+01
5.015915e+01	-1.215163e+01
5.044887e+01	-1.219879e+01
5.074026e+01	-1.224591e+01
5.103333e+01	-1.229295e+01
5.132810e+01	-1.234007e+01
5.162457e+01	-1.238648e+01
5.192275e+01	-1.243420e+01
5.222265e+01	-1.248138e+01
5.252429e+01	-1.252862e+01
5.282767e+01	-1.257534e+01
5.313280e+01	-1.262271e+01
5.343969e+01	-1.266992e+01
5.374836e+01	-1.271724e+01
5.405880e+01	-1.276508e+01
5.437105e+01	-1.281258e+01
5.468509e+01	-1.285988e+01
5.500095e+01	-1.290795e+01
5.531863e+01	-1.295503e+01
5.563815e+01	-1.300211e+01
5.595951e+01	-1.305013e+01
5.628273e+01	-1.309782e+01
5.660782e+01	-1.314573e+01
5.693479e+01	-1.319270e+01
5.726364e+01	-1.324020e+01
5.759439e+01	-1.328842e+01
5.792705e+01	-1.333596e+01
5.826164e+01	-1.338331e+01
5.859815e+01	-1.343173e+01
5.893662e+01	-1.347914e+01
5.927703e+01	-1.352701e+01
5.961941e+01	-1.357465e+01
5.996377e+01	-1.362198e+01
6.031012e+01	-1.367059e+01
6.065847e+01	-1.371826e+01
6.100883e+01	-1.376671e+01
6.136121e+01	-1.381450e+01
6.171563e+01	-1.386239e+01
6.207210e+01	-1.391059e+01
6.243063e+01	-1.395870e+01
6.279122e+01	-1.400648e+01
6.315390e+01	-1.405353e+01
6.351868e+01	-1.410316e+01
6.388556e+01	-1.415010e+01
6.425456e+01	-1.419806e+01
6.462569e+01	-1.424610e+01
6.499897e+01	-1.429513e+01
6.537440e+01	-1.434269e+01
6.575200e+01	-1.439048e+01
6.613178e+01	-1.443851e+01
6.651375e+01	-1.448812e+01
6.689793e+01	-1.453563e+01
6.728433e+01	-1.458378e+01
6.767297e+01	-1.463230e+01
6.806384e+01	-1.468071e+01
6.845698e+01	-1.472886e+01
6.885238e+01	-1.477779e+01
6.925007e+01	-1.482494e+01
6.965005e+01	-1.487376e+01
7.005235e+01	-1.492293e+01
7.045697e+01	-1.497114e+01
7.086393e+01	-1.501962e+01
7.127323e+01	-1.506808e+01
7.168490e+01	-1.511705e+01
7.209895e+01	-1.516423e+01
7.251539e+01	-1.521361e+01
7.293424e+01	-1.526258e+01
7.335551e+01	-1.531064e+01
7.377920e+01	-1.535867e+01
7.420535e+01	-1.540761e+01
7.463396e+01	-1.545638e+01
7.506504e+01	-1.550433e+01
7.549861e+01	-1.555375e+01
7.593469e+01	-1.560201e+01
7.637328e+01	-1.565114e+01
7.681441e+01	-1.569852e+01
7.725809e+01	-1.574813e+01
7.770433e+01	-1.579672e+01
7.815315e+01	-1.584560e+01
7.860456e+01	-1.589269e+01
7.905857e+01	-1.594245e+01
7.951521e+01	-1.599172e+01
7.997449e+01	-1.603983e+01
8.043642e+01	-1.608938e+01
8.090102e+01	-1.613762e+01
8.136830e+01	-1.618700e+01
8.183828e+01	-1.623574e+01
8.231097e+01	-1.628500e+01
8.278640e+01	-1.633353e+01
8.326457e+01	-1.638198e+01
8.374550e+01	-1.643139e+01
8.422921e+01	-1.648041e+01
8.471572e+01	-1.652816e+01
8.520503e+01	-1.657758e+01
8.569717e+01	-1.662701e+01
8.619215e+01	-1.667605e+01
8.669000e+01	-1.672425e+01
8.719071e+01	-1.677428e+01
8.769432e+01	-1.682227e+01
8.820084e+01	-1.687100e+01
8.871029e+01	-1.692135e+01
8.922267e+01	-1.696906e+01
8.973802e+01	-1.701760e+01
9.025634e+01	-1.706877e+01
9.077766e+01	-1.711686e+01
9.130199e+01	-1.716632e+01
9.182935e+01	-1.721474e+01
9.235975e+01	-1.726401e+01
9.289321e+01	-1.731226e+01
9.342976e+01	-1.736260e+01
9.396941e+01	-1.741119e+01
9.451217e+01	-1.746111e+01
9.505807e+01	-1.751067e+01
9.560712e+01	-1.755904e+01
9.615934e+01	-1.760795e+01
9.671476e+01	-1.765781e+01
9.727338e+01	-1.770605e+01
9.783522e+01	-1.775554e+01
9.840032e+01	-1.780490e+01
9.896867e+01	-1.785312e+01
9.954031e+01	-1.790314e+01
1.001153e+02	-1.795182e+01
1.006935e+02	-1.800131e+01
1.012751e+02	-1.805014e+01
1.018601e+02	-1.809997e+01
1.024484e+02	-1.814965e+01
1.030402e+02	-1.819891e+01
1.036353e+02	-1.824899e+01
1.042339e+02	-1.829660e+01
1.048360e+02	-1.834651e+01
1.054415e+02	-1.839582e+01
1.060505e+02	-1.844405e+01
1.066631e+02	-1.849465e+01
1.072791e+02	-1.854317e+01
1.078988e+02	-1.859269e+01
1.085220e+02	-1.864153e+01
1.091488e+02	-1.869274e+01
1.097793e+02	-1.874124e+01
1.104133e+02	-1.879149e+01
1.110511e+02	-1.883819e+01
1.116925e+02	-1.888948e+01
1.123376e+02	-1.893806e+01
1.129865e+02	-1.898755e+01
1.136391e+02	-1.903786e+01
1.142955e+02	-1.908487e+01
1.149556e+02	-1.913661e+01
1.156196e+02	-1.918506e+01
1.162874e+02	-1.923617e+01
1.169591e+02	-1.928423e+01
1.176347e+02	-1.933418e+01
1.183141e+02	-1.938295e+01
1.189975e+02	-1.943319e+01
1.196848e+02	-1.948263e+01
1.203761e+02	-1.953150e+01
1.210714e+02	-1.958073e+01
1.217707e+02	-1.963041e+01
1.224740e+02	-1.968037e+01
1.231814e+02	-1.973019e+01
1.238929e+02	-1.978154e+01
1.246085e+02	-1.983039e+01
1.253283e+02	-1.987714e+01
1.260522e+02	-1.992971e+01
1.267802e+02	-1.997728e+01
1.275125e+02	-2.002645e+01
1.282490e+02	-2.007687e+01
1.289898e+02	-2.012739e+01
1.297348e+02	-2.017590e+01
1.304842e+02	-2.022588e+01
1.312378e+02	-2.027520e+01
1.319959e+02	-2.032301e+01
1.327583e+02	-2.037299e+01
1.335251e+02	-2.042410e+01
1.342963e+02	-2.047384e+01
1.350720e+02	-2.052276e+01
1.358522e+02	-2.057185e+01
1.366368e+02	-2.062279e+01
1.374260e+02	-2.067175e+01
1.382198e+02	-2.072144e+01
1.390182e+02	-2.077019e+01
1.398211e+02	-2.082123e+01
1.406287e+02	-2.086961e+01
1.414410e+02	-2.092005e+01
1.422579e+02	-2.096803e+01
1.430796e+02	-2.101887e+01
1.439060e+02	-2.106833e+01
1.447372e+02	-2.111874e+01
1.455732e+02	-2.116785e+01
1.464141e+02	-2.121750e+01
1.472597e+02	-2.126799e+01
1.481103e+02	-2.131684e+01
1.489658e+02	-2.136578e+01
1.498262e+02	-2.141507e+01
1.506916e+02	-2.146687e+01
1.515620e+02	-2.151548e+01
1.524374e+02	-2.156574e+01
1.533179e+02	-2.161526e+01
1.542034e+02	-2.166324e+01
1.550941e+02	-2.171597e+01
1.559899e+02	-2.176583e+01
1.568909e+02	-2.181288e+01
1.577971e+02	-2.186481e+01
1.587085e+02	-2.191186e+01
1.596252e+02	-2.196184e+01
1.605472e+02	-2.201224e+01
1.614745e+02	-2.206166e+01
1.624072e+02	-2.211315e+01
1.633453e+02	-2.216276e+01
1.642887e+02	-2.221021e+01
1.652377e+02	-2.226198e+01
1.661921e+02	-2.231181e+01
1.671520e+02	-2.236162e+01
1.681175e+02	-2.240985e+01
1.690885e+02	-2.246018e+01
1.700651e+02	-2.251255e+01
1.710474e+02	-2.255879e+01
1.720354e+02	-2.261156e+01
1.730291e+02	-2.265841e+01
1.740285e+02	-2.271246e+01
1.750337e+02	-2.275882e+01
1.760446e+02	-2.280937e+01
1.770615e+02	-2.285664e+01
1.780842e+02	-2.290917e+01
1.791128e+02	-2.295777e+01
1.801473e+02	-2.300968e+01
1.811878e+02	-2.305674e+01
1.822344e+02	-2.310980e+01
1.832870e+02	-2.315762e+01
1.843456e+02	-2.320709e+01
1.854104e+02	-2.325495e+01
1.864813e+02	-2.330565e+01
1.875584e+02	-2.335558e+01
1.886418e+02	-2.341023e+01
1.897313e+02	-2.345555e+01
1.908272e+02	-2.350467e+01
1.919294e+02	-2.355739e+01
1.930380e+02	-2.360861e+01
1.941530e+02	-2.365419e+01
1.952744e+02	-2.370505e+01
1.964023e+02	-2.375567e+01
1.975367e+02	-2.380656e+01
1.986777e+02	-2.385478e+01
1.998252e+02	-2.390534e+01
2.009794e+02	-2.395374e+01
2.021403e+02	-2.400555e+01
2.033078e+02	-2.405757e+01
2.044821e+02	-2.410101e+01
2.056632e+02	-2.415657e+01
2.068511e+02	-2.420395e+01
2.080459e+02	-2.425454e+01
2.092475e+02	-2.430364e+01
2.104561e+02	-2.435163e+01
2.116717e+02	-2.440381e+01
2.128943e+02	-2.445195e+01
2.141240e+02	-2.450304e+01
2.153608e+02	-2.455393e+01
2.166047e+02	-2.460132e+01
2.178558e+02	-2.465386e+01
2.191141e+02	-2.470182e+01
2.203797e+02	-2.475243e+01
2.216526e+02	-2.480359e+01
2.229329e+02	-2.485605e+01
2.242205e+02	-2.490362e+01
2.255156e+02	-2.495181e+01
2.268182e+02	-2.500005e+01
2.281283e+02	-2.504753e+01
2.294459e+02	-2.509970e+01
2.307712e+02	-2.515213e+01
2.321041e+02	-2.520094e+01
2.334447e+02	-2.525137e+01
2.347931e+02	-2.530154e+01
2.361493e+02	-2.535071e+01
2.375133e+02	-2.539807e+01
2.388851e+02	-2.545181e+01
2.402649e+02	-2.549865e+01
2.416527e+02	-2.555251e+01
2.430484e+02	-2.560100e+01
2.444523e+02	-2.565154e+01
2.458642e+02	-2.570150e+01
2.472843e+02	-2.575154e+01
2.487126e+02	-2.579914e+01
2.501492e+02	-2.585267e+01
2.515940e+02	-2.589968e+01
2.530472e+02	-2.595237e+01
2.545088e+02	-2.600006e+01
2.559789e+02	-2.605130e+01
2.574574e+02	-2.610272e+01
2.589444e+02	-2.615041e+01
2.604401e+02	-2.619875e+01
2.619444e+02	-2.624902e+01
2.634574e+02	-2.629732e+01
2.649791e+02	-2.635215e+01
2.665096e+02	-2.640228e+01
2.680489e+02	-2.645225e+01
2.695972e+02	-2.649686e+01
2.711544e+02	-2.654843e+01
2.727205e+02	-2.659898e+01
2.742958e+02	-2.664945e+01
2.758801e+02	-2.670083e+01
2.774736e+02	-2.674787e+01
2.790762e+02	-2.680054e+01
2.806882e+02	-2.685043e+01
2.823094e+02	-2.689801e+01
2.839400e+02	-2.694971e+01
2.855800e+02	-2.700022e+01
2.872295e+02	-2.705095e+01
2.888886e+02	-2.710062e+01
2.905572e+02	-2.715124e+01
2.922354e+02	-2.720187e+01
2.939234e+02	-2.724819e+01
2.956211e+02	-2.730203e+01
2.973286e+02	-2.734812e+01
2.990459e+02	-2.740125e+01
3.007732e+02	-2.745474e+01
3.025104e+02	-2.749801e+01
3.042577e+02	-2.754834e+01
3.060151e+02	-2.759679e+01
3.077826e+02	-2.764900e+01
3.095604e+02	-2.770113e+01
3.113484e+02	-2.775008e+01
3.131467e+02	-2.780169e+01
3.149554e+02	-2.785091e+01
3.167746e+02	-2.790199e+01
3.186043e+02	-2.795235e+01
3.204445e+02	-2.800021e+01
3.222954e+02	-2.805485e+01
3.241570e+02	-2.809911e+01
3.260293e+02	-2.814868e+01
3.279124e+02	-2.819871e+01
3.298064e+02	-2.825108e+01
3.317114e+02	-2.830067e+01
3.336273e+02	-2.834859e+01
3.355544e+02	-2.839915e+01
3.374925e+02	-2.845036e+01
3.394418e+02	-2.850068e+01
3.414024e+02	-2.854764e+01
3.433744e+02	-2.859948e+01
3.453577e+02	-2.865100e+01
3.473525e+02	-2.870103e+01
3.493588e+02	-2.874708e+01
3.513766e+02	-2.880218e+01
3.534062e+02	-2.885270e+01
3.554474e+02	-2.890256e+01
3.575005e+02	-2.895020e+01
3.595654e+02	-2.900352e+01
3.616422e+02	-2.905317e+01
3.637311e+02	-2.910120e+01
3.658320e+02	-2.914976e+01
3.679450e+02	-2.920728e+01
3.700702e+02	-2.924887e+01
3.722077e+02	-2.930080e+01
3.743576e+02	-2.935356e+01
3.765199e+02	-2.940173e+01
3.786946e+02	-2.945036e+01
3.808820e+02	-2.950087e+01
3.830819e+02	-2.955149e+01
3.852946e+02	-2.960397e+01
3.875200e+02	-2.965166e+01
3.897583e+02	-2.970382e+01
3.920096e+02	-2.975218e+01
3.942738e+02	-2.980272e+01
3.965511e+02	-2.985566e+01
3.988416e+02	-2.990640e+01
4.011452e+02	-2.995113e+01
4.034622e+02	-3.000145e+01
4.057926e+02	-3.004538e+01
4.081365e+02	-3.010474e+01
4.104938e+02	-3.015385e+01
4.128648e+02	-3.020108e+01
4.152495e+02	-3.025224e+01
4.176480e+02	-3.030466e+01
4.200603e+02	-3.034745e+01
4.224866e+02	-3.039777e+01
4.249268e+02	-3.045914e+01
4.273812e+02	-3.050297e+01
4.298497e+02	-3.055163e+01
4.323325e+02	-3.059982e+01
4.348297e+02	-3.065366e+01
4.373412e+02	-3.070283e+01
4.398673e+02	-3.074817e+01
4.424079e+02	-3.080214e+01
4.449633e+02	-3.086100e+01
4.475334e+02	-3.090724e+01
4.501183e+02	-3.095484e+01
4.527182e+02	-3.100465e+01
4.553330e+02	-3.105110e+01
4.579630e+02	-3.110766e+01
4.606082e+02	-3.115482e+01
4.632687e+02	-3.120765e+01
4.659445e+02	-3.125409e+01
4.686358e+02	-3.130891e+01
4.713426e+02	-3.136174e+01
4.740650e+02	-3.140717e+01
4.768032e+02	-3.145928e+01
4.795572e+02	-3.150489e+01
4.823271e+02	-3.155147e+01
4.851130e+02	-3.160310e+01
4.879150e+02	-3.165860e+01
4.907332e+02	-3.170949e+01
4.935676e+02	-3.175251e+01
4.964185e+02	-3.180861e+01
4.992858e+02	-3.186090e+01
5.021696e+02	-3.190826e+01
5.050701e+02	-3.196375e+01
5.079874e+02	-3.201136e+01
5.109215e+02	-3.206401e+01
5.138726e+02	-3.211007e+01
5.168407e+02	-3.215934e+01
5.198259e+02	-3.220692e+01
5.228284e+02	-3.225964e+01
5.258482e+02	-3.230515e+01
5.288855e+02	-3.235130e+01
5.319403e+02	-3.240772e+01
5.350128e+02	-3.246254e+01
5.381030e+02	-3.250317e+01
5.412111e+02	-3.256507e+01
5.443371e+02	-3.260995e+01
5.474812e+02	-3.266097e+01
5.506434e+02	-3.270611e+01
5.538239e+02	-3.275570e+01
5.570228e+02	-3.280922e+01
5.602401e+02	-3.286444e+01
5.634760e+02	-3.291039e+01
5.667306e+02	-3.296458e+01
5.700040e+02	-3.301329e+01
5.732964e+02	-3.306224e+01
5.766077e+02	-3.311296e+01
5.799382e+02	-3.316376e+01
5.832879e+02	-3.322516e+01
5.866569e+02	-3.326216e+01
5.900454e+02	-3.331515e+01
5.934535e+02	-3.336091e+01
5.968813e+02	-3.341659e+01
6.003288e+02	-3.346233e+01
6.037963e+02	-3.350942e+01
6.072838e+02	-3.356105e+01
6.107914e+02	-3.361759e+01
6.143194e+02	-3.366862e+01
6.178676e+02	-3.372176e+01
6.214364e+02	-3.376523e+01
6.250258e+02	-3.381415e+01
6.286359e+02	-3.386990e+01
6.322669e+02	-3.392149e+01
6.359189e+02	-3.397422e+01
6.395919e+02	-3.401761e+01
6.432862e+02	-3.407162e+01
6.470017e+02	-3.411712e+01
6.507388e+02	-3.416832e+01
6.544974e+02	-3.422281e+01
6.582778e+02	-3.427004e+01
6.620800e+02	-3.432216e+01
6.659041e+02	-3.437262e+01
6.697504e+02	-3.442267e+01
6.736188e+02	-3.446383e+01
6.775096e+02	-3.452472e+01
6.814229e+02	-3.456648e+01
6.853587e+02	-3.462235e+01
6.893173e+02	-3.467331e+01
6.932988e+02	-3.472229e+01
6.973033e+02	-3.476769e+01
7.013309e+02	-3.481835e+01
