Frequency(Hz)	Magnitude(dB)
1.000000e+01	-1.709631e-05
1.005776e+01	-1.729437e-05
1.011585e+01	-1.749473e-05
1.017428e+01	-1.769741e-05
1.023305e+01	-1.790244e-05
1.029215e+01	-1.810984e-05
1.035160e+01	-1.831965e-05
1.041139e+01	-1.853189e-05
1.047153e+01	-1.874659e-05
1.053201e+01	-1.896377e-05
1.059284e+01	-1.918347e-05
1.065403e+01	-1.940572e-05
1.071556e+01	-1.963054e-05
1.077746e+01	-1.985796e-05
1.083971e+01	-2.008802e-05
1.090232e+01	-2.032074e-05
1.096529e+01	-2.055617e-05
1.102862e+01	-2.079431e-05
1.109232e+01	-2.103522e-05
1.115639e+01	-2.127892e-05
1.122083e+01	-2.152544e-05
1.128564e+01	-2.177482e-05
1.135083e+01	-2.202709e-05
1.141639e+01	-2.228227e-05
1.148233e+01	-2.254042e-05
1.154865e+01	-2.280156e-05
1.161536e+01	-2.306572e-05
1.168245e+01	-2.333294e-05
1.174992e+01	-2.360326e-05
1.181779e+01	-2.387671e-05
1.188605e+01	-2.415333e-05
1.195470e+01	-2.443315e-05
1.202375e+01	-2.471621e-05
1.209320e+01	-2.500256e-05
1.216305e+01	-2.529222e-05
1.223330e+01	-2.558523e-05
1.230396e+01	-2.588164e-05
1.237503e+01	-2.618149e-05
1.244651e+01	-2.648481e-05
1.251840e+01	-2.679164e-05
1.259070e+01	-2.710203e-05
1.266343e+01	-2.741601e-05
1.273657e+01	-2.773363e-05
1.281014e+01	-2.805493e-05
1.288413e+01	-2.837996e-05
1.295855e+01	-2.870875e-05
1.303339e+01	-2.904134e-05
1.310867e+01	-2.937780e-05
1.318439e+01	-2.971814e-05
1.326054e+01	-3.006244e-05
1.333713e+01	-3.041072e-05
1.341417e+01	-3.076303e-05
1.349165e+01	-3.111943e-05
1.356958e+01	-3.147996e-05
1.364795e+01	-3.184466e-05
1.372678e+01	-3.221359e-05
1.380607e+01	-3.258679e-05
1.388581e+01	-3.296431e-05
1.396602e+01	-3.334621e-05
1.404668e+01	-3.373254e-05
1.412782e+01	-3.412334e-05
1.420942e+01	-3.451866e-05
1.429149e+01	-3.491857e-05
1.437404e+01	-3.532311e-05
1.445706e+01	-3.573234e-05
1.454057e+01	-3.614630e-05
1.462455e+01	-3.656507e-05
1.470902e+01	-3.698868e-05
1.479398e+01	-3.741720e-05
1.487943e+01	-3.785069e-05
1.496537e+01	-3.828920e-05
1.505181e+01	-3.873279e-05
1.513875e+01	-3.918152e-05
1.522619e+01	-3.963544e-05
1.531414e+01	-4.009463e-05
1.540259e+01	-4.055913e-05
1.549156e+01	-4.102902e-05
1.558103e+01	-4.150435e-05
1.567103e+01	-4.198519e-05
1.576155e+01	-4.247160e-05
1.585258e+01	-4.296364e-05
1.594415e+01	-4.346138e-05
1.603624e+01	-4.396489e-05
1.612886e+01	-4.447424e-05
1.622202e+01	-4.498948e-05
1.631572e+01	-4.551069e-05
1.640996e+01	-4.603794e-05
1.650474e+01	-4.657130e-05
1.660008e+01	-4.711084e-05
1.669596e+01	-4.765663e-05
1.679239e+01	-4.820874e-05
1.688938e+01	-4.876725e-05
1.698694e+01	-4.933223e-05
1.708505e+01	-4.990376e-05
1.718373e+01	-5.048190e-05
1.728299e+01	-5.106674e-05
1.738281e+01	-5.165836e-05
1.748322e+01	-5.225684e-05
1.758420e+01	-5.286224e-05
1.768576e+01	-5.347466e-05
1.778792e+01	-5.409418e-05
1.789066e+01	-5.472087e-05
1.799399e+01	-5.535482e-05
1.809793e+01	-5.599612e-05
1.820246e+01	-5.664485e-05
1.830760e+01	-5.730109e-05
1.841334e+01	-5.796493e-05
1.851969e+01	-5.863647e-05
1.862666e+01	-5.931578e-05
1.873425e+01	-6.000297e-05
1.884246e+01	-6.069812e-05
1.895129e+01	-6.140131e-05
1.906075e+01	-6.211266e-05
1.917085e+01	-6.283225e-05
1.928158e+01	-6.356017e-05
1.939295e+01	-6.429653e-05
1.950496e+01	-6.504142e-05
1.961762e+01	-6.579493e-05
1.973093e+01	-6.655718e-05
1.984490e+01	-6.732826e-05
1.995952e+01	-6.810827e-05
2.007480e+01	-6.889732e-05
2.019076e+01	-6.969551e-05
2.030738e+01	-7.050294e-05
2.042467e+01	-7.131973e-05
2.054264e+01	-7.214598e-05
2.066130e+01	-7.298181e-05
2.078064e+01	-7.382731e-05
2.090066e+01	-7.468262e-05
2.102139e+01	-7.554783e-05
2.114280e+01	-7.642306e-05
2.126492e+01	-7.730844e-05
2.138775e+01	-7.820407e-05
2.151128e+01	-7.911008e-05
2.163553e+01	-8.002658e-05
2.176050e+01	-8.095370e-05
2.188619e+01	-8.189157e-05
2.201260e+01	-8.284029e-05
2.213974e+01	-8.380001e-05
2.226762e+01	-8.477085e-05
2.239624e+01	-8.575293e-05
2.252560e+01	-8.674639e-05
2.265571e+01	-8.775137e-05
2.278656e+01	-8.876798e-05
2.291818e+01	-8.979637e-05
2.305055e+01	-9.083668e-05
2.318369e+01	-9.188903e-05
2.331760e+01	-9.295358e-05
2.345228e+01	-9.403046e-05
2.358774e+01	-9.511982e-05
2.372398e+01	-9.622180e-05
2.386101e+01	-9.733654e-05
2.399883e+01	-9.846420e-05
2.413745e+01	-9.960492e-05
2.427686e+01	-1.007589e-04
2.441709e+01	-1.019262e-04
2.455812e+01	-1.031070e-04
2.469997e+01	-1.043015e-04
2.484263e+01	-1.055099e-04
2.498612e+01	-1.067322e-04
2.513044e+01	-1.079687e-04
2.527559e+01	-1.092195e-04
2.542158e+01	-1.104849e-04
2.556842e+01	-1.117648e-04
2.571610e+01	-1.130597e-04
2.586463e+01	-1.143695e-04
2.601403e+01	-1.156944e-04
2.616428e+01	-1.170348e-04
2.631541e+01	-1.183906e-04
2.646740e+01	-1.197622e-04
2.662028e+01	-1.211497e-04
2.677404e+01	-1.225532e-04
2.692868e+01	-1.239730e-04
2.708422e+01	-1.254092e-04
2.724066e+01	-1.268621e-04
2.739800e+01	-1.283318e-04
2.755625e+01	-1.298186e-04
2.771541e+01	-1.313225e-04
2.787550e+01	-1.328439e-04
2.803650e+01	-1.343829e-04
2.819844e+01	-1.359398e-04
2.836131e+01	-1.375146e-04
2.852513e+01	-1.391078e-04
2.868989e+01	-1.407193e-04
2.885560e+01	-1.423496e-04
2.902227e+01	-1.439987e-04
2.918990e+01	-1.456670e-04
2.935850e+01	-1.473545e-04
2.952807e+01	-1.490616e-04
2.969863e+01	-1.507885e-04
2.987016e+01	-1.525354e-04
3.004269e+01	-1.543025e-04
3.021622e+01	-1.560902e-04
3.039075e+01	-1.578985e-04
3.056628e+01	-1.597277e-04
3.074283e+01	-1.615782e-04
3.092040e+01	-1.634501e-04
3.109900e+01	-1.653437e-04
3.127862e+01	-1.672592e-04
3.145929e+01	-1.691969e-04
3.164099e+01	-1.711570e-04
3.182375e+01	-1.731399e-04
3.200756e+01	-1.751457e-04
3.219244e+01	-1.771748e-04
3.237838e+01	-1.792274e-04
3.256540e+01	-1.813037e-04
3.275349e+01	-1.834041e-04
3.294268e+01	-1.855289e-04
3.313295e+01	-1.876782e-04
3.332433e+01	-1.898525e-04
3.351681e+01	-1.920520e-04
3.371040e+01	-1.942769e-04
3.390511e+01	-1.965276e-04
3.410094e+01	-1.988044e-04
3.429791e+01	-2.011075e-04
3.449601e+01	-2.034373e-04
3.469526e+01	-2.057942e-04
3.489566e+01	-2.081783e-04
3.509721e+01	-2.105900e-04
3.529993e+01	-2.130297e-04
3.550382e+01	-2.154977e-04
3.570889e+01	-2.179942e-04
3.591515e+01	-2.205197e-04
3.612259e+01	-2.230744e-04
3.633123e+01	-2.256587e-04
3.654108e+01	-2.282729e-04
3.675214e+01	-2.309175e-04
3.696442e+01	-2.335926e-04
3.717792e+01	-2.362988e-04
3.739266e+01	-2.390363e-04
3.760864e+01	-2.418055e-04
3.782587e+01	-2.446068e-04
3.804435e+01	-2.474406e-04
3.826409e+01	-2.503072e-04
3.848510e+01	-2.532070e-04
3.870739e+01	-2.561404e-04
3.893096e+01	-2.591077e-04
3.915583e+01	-2.621095e-04
3.938199e+01	-2.651460e-04
3.960946e+01	-2.682177e-04
3.983824e+01	-2.713250e-04
4.006834e+01	-2.744683e-04
4.029978e+01	-2.776479e-04
4.053255e+01	-2.808645e-04
4.076666e+01	-2.841183e-04
4.100213e+01	-2.874097e-04
4.123896e+01	-2.907393e-04
4.147715e+01	-2.941075e-04
4.171672e+01	-2.975147e-04
4.195767e+01	-3.009614e-04
4.220002e+01	-3.044480e-04
4.244377e+01	-3.079750e-04
4.268892e+01	-3.115428e-04
4.293549e+01	-3.151520e-04
4.318348e+01	-3.188030e-04
4.343291e+01	-3.224963e-04
4.368377e+01	-3.262324e-04
4.393609e+01	-3.300117e-04
4.418986e+01	-3.338348e-04
4.444510e+01	-3.377023e-04
4.470182e+01	-3.416145e-04
4.496001e+01	-3.455720e-04
4.521970e+01	-3.495754e-04
4.548089e+01	-3.536252e-04
4.574358e+01	-3.577218e-04
4.600779e+01	-3.618660e-04
4.627353e+01	-3.660581e-04
4.654081e+01	-3.702988e-04
4.680963e+01	-3.745887e-04
4.708000e+01	-3.789282e-04
4.735193e+01	-3.833180e-04
4.762543e+01	-3.877586e-04
4.790051e+01	-3.922507e-04
4.817719e+01	-3.967948e-04
4.845545e+01	-4.013916e-04
4.873533e+01	-4.060416e-04
4.901682e+01	-4.107455e-04
4.929994e+01	-4.155039e-04
4.958470e+01	-4.203174e-04
4.987110e+01	-4.251866e-04
5.015915e+01	-4.301123e-04
5.044887e+01	-4.350950e-04
5.074026e+01	-4.401354e-04
5.103333e+01	-4.452343e-04
5.132810e+01	-4.503922e-04
5.162457e+01	-4.556098e-04
5.192275e+01	-4.608879e-04
5.222265e+01	-4.662271e-04
5.252429e+01	-4.716282e-04
5.282767e+01	-4.770918e-04
5.313280e+01	-4.826188e-04
5.343969e+01	-4.882097e-04
5.374836e+01	-4.938655e-04
5.405880e+01	-4.995867e-04
5.437105e+01	-5.053742e-04
5.468509e+01	-5.112288e-04
5.500095e+01	-5.171511e-04
5.531863e+01	-5.231421e-04
5.563815e+01	-5.292025e-04
5.595951e+01	-5.353331e-04
5.628273e+01	-5.415347e-04
5.660782e+01	-5.478081e-04
5.693479e+01	-5.541542e-04
5.726364e+01	-5.605738e-04
5.759439e+01	-5.670678e-04
5.792705e+01	-5.736370e-04
5.826164e+01	-5.802823e-04
5.859815e+01	-5.870046e-04
5.893662e+01	-5.938047e-04
5.927703e+01	-6.006836e-04
5.961941e+01	-6.076422e-04
5.996377e+01	-6.146814e-04
6.031012e+01	-6.218022e-04
6.065847e+01	-6.290054e-04
6.100883e+01	-6.362921e-04
6.136121e+01	-6.436632e-04
6.171563e+01	-6.511196e-04
6.207210e+01	-6.586624e-04
6.243063e+01	-6.662926e-04
6.279122e+01	-6.740112e-04
6.315390e+01	-6.818192e-04
6.351868e+01	-6.897177e-04
6.388556e+01	-6.977076e-04
6.425456e+01	-7.057901e-04
6.462569e+01	-7.139662e-04
6.499897e+01	-7.222370e-04
6.537440e+01	-7.306036e-04
6.575200e+01	-7.390671e-04
6.613178e+01	-7.476287e-04
6.651375e+01	-7.562894e-04
6.689793e+01	-7.650504e-04
6.728433e+01	-7.739130e-04
6.767297e+01	-7.828782e-04
6.806384e+01	-7.919472e-04
6.845698e+01	-8.011213e-04
6.885238e+01	-8.104016e-04
6.925007e+01	-8.197894e-04
6.965005e+01	-8.292860e-04
7.005235e+01	-8.388926e-04
7.045697e+01	-8.486105e-04
7.086393e+01	-8.584409e-04
7.127323e+01	-8.683851e-04
7.168490e+01	-8.784446e-04
7.209895e+01	-8.886206e-04
7.251539e+01	-8.989144e-04
7.293424e+01	-9.093275e-04
7.335551e+01	-9.198612e-04
7.377920e+01	-9.305169e-04
7.420535e+01	-9.412960e-04
7.463396e+01	-9.522000e-04
7.506504e+01	-9.632303e-04
7.549861e+01	-9.743883e-04
7.593469e+01	-9.856756e-04
7.637328e+01	-9.970936e-04
7.681441e+01	-1.008644e-03
7.725809e+01	-1.020328e-03
7.770433e+01	-1.032147e-03
7.815315e+01	-1.044104e-03
7.860456e+01	-1.056198e-03
7.905857e+01	-1.068433e-03
7.951521e+01	-1.080810e-03
7.997449e+01	-1.093330e-03
8.043642e+01	-1.105995e-03
8.090102e+01	-1.118806e-03
8.136830e+01	-1.131766e-03
8.183828e+01	-1.144876e-03
8.231097e+01	-1.158138e-03
8.278640e+01	-1.171554e-03
8.326457e+01	-1.185125e-03
8.374550e+01	-1.198853e-03
8.422921e+01	-1.212740e-03
8.471572e+01	-1.226788e-03
8.520503e+01	-1.240998e-03
8.569717e+01	-1.255374e-03
8.619215e+01	-1.269915e-03
8.669000e+01	-1.284625e-03
8.719071e+01	-1.299506e-03
8.769432e+01	-1.314559e-03
8.820084e+01	-1.329786e-03
8.871029e+01	-1.345189e-03
8.922267e+01	-1.360771e-03
8.973802e+01	-1.376534e-03
9.025634e+01	-1.392479e-03
9.077766e+01	-1.408608e-03
9.130199e+01	-1.424925e-03
9.182935e+01	-1.441430e-03
9.235975e+01	-1.458127e-03
9.289321e+01	-1.475017e-03
9.342976e+01	-1.492102e-03
9.396941e+01	-1.509386e-03
9.451217e+01	-1.526869e-03
9.505807e+01	-1.544555e-03
9.560712e+01	-1.562446e-03
9.615934e+01	-1.580544e-03
9.671476e+01	-1.598852e-03
9.727338e+01	-1.617372e-03
9.783522e+01	-1.636106e-03
9.840032e+01	-1.655057e-03
9.896867e+01	-1.674227e-03
9.954031e+01	-1.693620e-03
1.001153e+02	-1.713237e-03
1.006935e+02	-1.733082e-03
1.012751e+02	-1.753156e-03
1.018601e+02	-1.773462e-03
1.024484e+02	-1.794004e-03
1.030402e+02	-1.814784e-03
1.036353e+02	-1.835804e-03
1.042339e+02	-1.857068e-03
1.048360e+02	-1.878578e-03
1.054415e+02	-1.900337e-03
1.060505e+02	-1.922348e-03
1.066631e+02	-1.944614e-03
1.072791e+02	-1.967138e-03
1.078988e+02	-1.989922e-03
1.085220e+02	-2.012971e-03
1.091488e+02	-2.036286e-03
1.097793e+02	-2.059871e-03
1.104133e+02	-2.083730e-03
1.110511e+02	-2.107864e-03
1.116925e+02	-2.132279e-03
1.123376e+02	-2.156975e-03
1.129865e+02	-2.181958e-03
1.136391e+02	-2.207230e-03
1.142955e+02	-2.232795e-03
1.149556e+02	-2.258656e-03
1.156196e+02	-2.284816e-03
1.162874e+02	-2.311279e-03
1.169591e+02	-2.338049e-03
1.176347e+02	-2.365129e-03
1.183141e+02	-2.392522e-03
1.189975e+02	-2.420232e-03
1.196848e+02	-2.448263e-03
1.203761e+02	-2.476619e-03
1.210714e+02	-2.505303e-03
1.217707e+02	-2.534319e-03
1.224740e+02	-2.563671e-03
1.231814e+02	-2.593363e-03
1.238929e+02	-2.623399e-03
1.246085e+02	-2.653782e-03
1.253283e+02	-2.684517e-03
1.260522e+02	-2.715608e-03
1.267802e+02	-2.747059e-03
1.275125e+02	-2.778875e-03
1.282490e+02	-2.811058e-03
1.289898e+02	-2.843614e-03
1.297348e+02	-2.876548e-03
1.304842e+02	-2.909862e-03
1.312378e+02	-2.943562e-03
1.319959e+02	-2.977652e-03
1.327583e+02	-3.012137e-03
1.335251e+02	-3.047021e-03
1.342963e+02	-3.082309e-03
1.350720e+02	-3.118006e-03
1.358522e+02	-3.154116e-03
1.366368e+02	-3.190643e-03
1.374260e+02	-3.227594e-03
1.382198e+02	-3.264973e-03
1.390182e+02	-3.302784e-03
1.398211e+02	-3.341033e-03
1.406287e+02	-3.379724e-03
1.414410e+02	-3.418864e-03
1.422579e+02	-3.458456e-03
1.430796e+02	-3.498507e-03
1.439060e+02	-3.539022e-03
1.447372e+02	-3.580006e-03
1.455732e+02	-3.621464e-03
1.464141e+02	-3.663401e-03
1.472597e+02	-3.705825e-03
1.481103e+02	-3.748739e-03
1.489658e+02	-3.792150e-03
1.498262e+02	-3.836064e-03
1.506916e+02	-3.880486e-03
1.515620e+02	-3.925422e-03
1.524374e+02	-3.970878e-03
1.533179e+02	-4.016860e-03
1.542034e+02	-4.063375e-03
1.550941e+02	-4.110428e-03
1.559899e+02	-4.158026e-03
1.568909e+02	-4.206174e-03
1.577971e+02	-4.254880e-03
1.587085e+02	-4.304149e-03
1.596252e+02	-4.353989e-03
1.605472e+02	-4.404405e-03
1.614745e+02	-4.455405e-03
1.624072e+02	-4.506995e-03
1.633453e+02	-4.559183e-03
1.642887e+02	-4.611974e-03
1.652377e+02	-4.665376e-03
1.661921e+02	-4.719396e-03
1.671520e+02	-4.774042e-03
1.681175e+02	-4.829319e-03
1.690885e+02	-4.885237e-03
1.700651e+02	-4.941801e-03
1.710474e+02	-4.999020e-03
1.720354e+02	-5.056901e-03
1.730291e+02	-5.115452e-03
1.740285e+02	-5.174681e-03
1.750337e+02	-5.234595e-03
1.760446e+02	-5.295202e-03
1.770615e+02	-5.356510e-03
1.780842e+02	-5.418528e-03
1.791128e+02	-5.481263e-03
1.801473e+02	-5.544724e-03
1.811878e+02	-5.608920e-03
1.822344e+02	-5.673858e-03
1.832870e+02	-5.739548e-03
1.843456e+02	-5.805997e-03
1.854104e+02	-5.873216e-03
1.864813e+02	-5.941212e-03
1.875584e+02	-6.009994e-03
1.886418e+02	-6.079573e-03
1.897313e+02	-6.149956e-03
1.908272e+02	-6.221154e-03
1.919294e+02	-6.293175e-03
1.930380e+02	-6.366030e-03
1.941530e+02	-6.439727e-03
1.952744e+02	-6.514277e-03
1.964023e+02	-6.589689e-03
1.975367e+02	-6.665974e-03
1.986777e+02	-6.743141e-03
1.998252e+02	-6.821200e-03
2.009794e+02	-6.900163e-03
2.021403e+02	-6.980038e-03
2.033078e+02	-7.060838e-03
2.044821e+02	-7.142572e-03
2.056632e+02	-7.225252e-03
2.068511e+02	-7.308887e-03
2.080459e+02	-7.393490e-03
2.092475e+02	-7.479072e-03
2.104561e+02	-7.565643e-03
2.116717e+02	-7.653216e-03
2.128943e+02	-7.741801e-03
2.141240e+02	-7.831411e-03
2.153608e+02	-7.922057e-03
2.166047e+02	-8.013751e-03
2.178558e+02	-8.106505e-03
2.191141e+02	-8.200332e-03
2.203797e+02	-8.295244e-03
2.216526e+02	-8.391254e-03
2.229329e+02	-8.488373e-03
2.242205e+02	-8.586616e-03
2.255156e+02	-8.685994e-03
2.268182e+02	-8.786522e-03
2.281283e+02	-8.888211e-03
2.294459e+02	-8.991077e-03
2.307712e+02	-9.095131e-03
2.321041e+02	-9.200389e-03
2.334447e+02	-9.306863e-03
2.347931e+02	-9.414568e-03
2.361493e+02	-9.523518e-03
2.375133e+02	-9.633728e-03
2.388851e+02	-9.745212e-03
2.402649e+02	-9.857984e-03
2.416527e+02	-9.972060e-03
2.430484e+02	-1.008745e-02
2.444523e+02	-1.020418e-02
2.458642e+02	-1.032226e-02
2.472843e+02	-1.044170e-02
2.487126e+02	-1.056252e-02
2.501492e+02	-1.068474e-02
2.515940e+02	-1.080837e-02
2.530472e+02	-1.093343e-02
2.545088e+02	-1.105994e-02
2.559789e+02	-1.118790e-02
2.574574e+02	-1.131735e-02
2.589444e+02	-1.144829e-02
2.604401e+02	-1.158074e-02
2.619444e+02	-1.171473e-02
2.634574e+02	-1.185026e-02
2.649791e+02	-1.198736e-02
2.665096e+02	-1.212604e-02
2.680489e+02	-1.226633e-02
2.695972e+02	-1.240823e-02
2.711544e+02	-1.255177e-02
2.727205e+02	-1.269698e-02
2.742958e+02	-1.284386e-02
2.758801e+02	-1.299243e-02
2.774736e+02	-1.314272e-02
2.790762e+02	-1.329475e-02
2.806882e+02	-1.344854e-02
2.823094e+02	-1.360410e-02
2.839400e+02	-1.376145e-02
2.855800e+02	-1.392063e-02
2.872295e+02	-1.408164e-02
2.888886e+02	-1.424451e-02
2.905572e+02	-1.440926e-02
2.922354e+02	-1.457592e-02
2.939234e+02	-1.474449e-02
2.956211e+02	-1.491502e-02
2.973286e+02	-1.508751e-02
2.990459e+02	-1.526200e-02
3.007732e+02	-1.543849e-02
3.025104e+02	-1.561703e-02
3.042577e+02	-1.579763e-02
3.060151e+02	-1.598031e-02
3.077826e+02	-1.616510e-02
3.095604e+02	-1.635202e-02
3.113484e+02	-1.654110e-02
3.131467e+02	-1.673237e-02
3.149554e+02	-1.692584e-02
3.167746e+02	-1.712154e-02
3.186043e+02	-1.731950e-02
3.204445e+02	-1.751974e-02
3.222954e+02	-1.772230e-02
3.241570e+02	-1.792719e-02
3.260293e+02	-1.813445e-02
3.279124e+02	-1.834410e-02
3.298064e+02	-1.855616e-02
3.317114e+02	-1.877067e-02
3.336273e+02	-1.898766e-02
3.355544e+02	-1.920715e-02
3.374925e+02	-1.942917e-02
3.394418e+02	-1.965375e-02
3.414024e+02	-1.988092e-02
3.433744e+02	-2.011071e-02
3.453577e+02	-2.034315e-02
3.473525e+02	-2.057827e-02
3.493588e+02	-2.081610e-02
3.513766e+02	-2.105668e-02
3.534062e+02	-2.130002e-02
3.554474e+02	-2.154618e-02
3.575005e+02	-2.179517e-02
3.595654e+02	-2.204703e-02
3.616422e+02	-2.230179e-02
3.637311e+02	-2.255949e-02
3.658320e+02	-2.282016e-02
3.679450e+02	-2.308383e-02
3.700702e+02	-2.335054e-02
3.722077e+02	-2.362032e-02
3.743576e+02	-2.389322e-02
3.765199e+02	-2.416925e-02
3.786946e+02	-2.444847e-02
3.808820e+02	-2.473090e-02
3.830819e+02	-2.501659e-02
3.852946e+02	-2.530557e-02
3.875200e+02	-2.559787e-02
3.897583e+02	-2.589354e-02
3.920096e+02	-2.619262e-02
3.942738e+02	-2.649514e-02
3.965511e+02	-2.680114e-02
3.988416e+02	-2.711067e-02
4.011452e+02	-2.742376e-02
4.034622e+02	-2.774045e-02
4.057926e+02	-2.806079e-02
4.081365e+02	-2.838482e-02
4.104938e+02	-2.871257e-02
4.128648e+02	-2.904410e-02
4.152495e+02	-2.937944e-02
4.176480e+02	-2.971864e-02
4.200603e+02	-3.006174e-02
4.224866e+02	-3.040880e-02
4.249268e+02	-3.075984e-02
4.273812e+02	-3.111492e-02
4.298497e+02	-3.147408e-02
4.323325e+02	-3.183738e-02
4.348297e+02	-3.220485e-02
4.373412e+02	-3.257655e-02
4.398673e+02	-3.295252e-02
4.424079e+02	-3.333282e-02
4.449633e+02	-3.371748e-02
4.475334e+02	-3.410657e-02
4.501183e+02	-3.450013e-02
4.527182e+02	-3.489822e-02
4.553330e+02	-3.530087e-02
4.579630e+02	-3.570816e-02
4.606082e+02	-3.612012e-02
4.632687e+02	-3.653682e-02
4.659445e+02	-3.695830e-02
4.686358e+02	-3.738463e-02
4.713426e+02	-3.781585e-02
4.740650e+02	-3.825202e-02
4.768032e+02	-3.869320e-02
4.795572e+02	-3.913945e-02
4.823271e+02	-3.959082e-02
4.851130e+02	-4.004737e-02
4.879150e+02	-4.050916e-02
4.907332e+02	-4.097625e-02
4.935676e+02	-4.144870e-02
4.964185e+02	-4.192657e-02
4.992858e+02	-4.240993e-02
5.021696e+02	-4.289883e-02
5.050701e+02	-4.339333e-02
5.079874e+02	-4.389351e-02
5.109215e+02	-4.439942e-02
5.138726e+02	-4.491114e-02
5.168407e+02	-4.542872e-02
5.198259e+02	-4.595223e-02
5.228284e+02	-4.648175e-02
5.258482e+02	-4.701733e-02
5.288855e+02	-4.755905e-02
5.319403e+02	-4.810698e-02
5.350128e+02	-4.866119e-02
5.381030e+02	-4.922174e-02
5.412111e+02	-4.978871e-02
5.443371e+02	-5.036218e-02
5.474812e+02	-5.094221e-02
5.506434e+02	-5.152888e-02
5.538239e+02	-5.212227e-02
5.570228e+02	-5.272245e-02
5.602401e+02	-5.332950e-02
5.634760e+02	-5.394350e-02
5.667306e+02	-5.456452e-02
5.700040e+02	-5.519264e-02
5.732964e+02	-5.582795e-02
5.766077e+02	-5.647052e-02
5.799382e+02	-5.712044e-02
5.832879e+02	-5.777779e-02
5.866569e+02	-5.844265e-02
5.900454e+02	-5.911511e-02
5.934535e+02	-5.979526e-02
5.968813e+02	-6.048318e-02
6.003288e+02	-6.117895e-02
6.037963e+02	-6.188267e-02
6.072838e+02	-6.259443e-02
6.107914e+02	-6.331431e-02
6.143194e+02	-6.404242e-02
6.178676e+02	-6.477883e-02
6.214364e+02	-6.552365e-02
6.250258e+02	-6.627696e-02
6.286359e+02	-6.703887e-02
6.322669e+02	-6.780947e-02
6.359189e+02	-6.858885e-02
6.395919e+02	-6.937713e-02
6.432862e+02	-7.017439e-02
6.470017e+02	-7.098073e-02
6.507388e+02	-7.179627e-02
6.544974e+02	-7.262109e-02
6.582778e+02	-7.345531e-02
6.620800e+02	-7.429903e-02
6.659041e+02	-7.515236e-02
6.697504e+02	-7.601541e-02
6.736188e+02	-7.688827e-02
6.775096e+02	-7.777107e-02
6.814229e+02	-7.866392e-02
6.853587e+02	-7.956692e-02
6.893173e+02	-8.048019e-02
6.932988e+02	-8.140384e-02
6.973033e+02	-8.233799e-02
7.013309e+02	-8.328276e-02
