Frequency(Hz)	Magnitude(dB)
1.000000e+01	-1.536714e-05
1.005776e+01	-1.554517e-05
1.011585e+01	-1.572526e-05
1.017428e+01	-1.590745e-05
1.023305e+01	-1.609174e-05
1.029215e+01	-1.627816e-05
1.035160e+01	-1.646675e-05
1.041139e+01	-1.665752e-05
1.047153e+01	-1.685050e-05
1.053201e+01	-1.704572e-05
1.059284e+01	-1.724320e-05
1.065403e+01	-1.744297e-05
1.071556e+01	-1.764505e-05
1.077746e+01	-1.784947e-05
1.083971e+01	-1.805626e-05
1.090232e+01	-1.826545e-05
1.096529e+01	-1.847706e-05
1.102862e+01	-1.869112e-05
1.109232e+01	-1.890766e-05
1.115639e+01	-1.912671e-05
1.122083e+01	-1.934830e-05
1.128564e+01	-1.957245e-05
1.135083e+01	-1.979921e-05
1.141639e+01	-2.002858e-05
1.148233e+01	-2.026062e-05
1.154865e+01	-2.049534e-05
1.161536e+01	-2.073279e-05
1.168245e+01	-2.097298e-05
1.174992e+01	-2.121596e-05
1.181779e+01	-2.146175e-05
1.188605e+01	-2.171039e-05
1.195470e+01	-2.196191e-05
1.202375e+01	-2.221635e-05
1.209320e+01	-2.247373e-05
1.216305e+01	-2.273409e-05
1.223330e+01	-2.299747e-05
1.230396e+01	-2.326390e-05
1.237503e+01	-2.353342e-05
1.244651e+01	-2.380606e-05
1.251840e+01	-2.408186e-05
1.259070e+01	-2.436086e-05
1.266343e+01	-2.464308e-05
1.273657e+01	-2.492858e-05
1.281014e+01	-2.521738e-05
1.288413e+01	-2.550953e-05
1.295855e+01	-2.580507e-05
1.303339e+01	-2.610403e-05
1.310867e+01	-2.640645e-05
1.318439e+01	-2.671237e-05
1.326054e+01	-2.702184e-05
1.333713e+01	-2.733490e-05
1.341417e+01	-2.765158e-05
1.349165e+01	-2.797193e-05
1.356958e+01	-2.829599e-05
1.364795e+01	-2.862380e-05
1.372678e+01	-2.895542e-05
1.380607e+01	-2.929087e-05
1.388581e+01	-2.963022e-05
1.396602e+01	-2.997349e-05
1.404668e+01	-3.032074e-05
1.412782e+01	-3.067201e-05
1.420942e+01	-3.102735e-05
1.429149e+01	-3.138681e-05
1.437404e+01	-3.175044e-05
1.445706e+01	-3.211827e-05
1.454057e+01	-3.249037e-05
1.462455e+01	-3.286678e-05
1.470902e+01	-3.324755e-05
1.479398e+01	-3.363273e-05
1.487943e+01	-3.402237e-05
1.496537e+01	-3.441653e-05
1.505181e+01	-3.481525e-05
1.513875e+01	-3.521860e-05
1.522619e+01	-3.562661e-05
1.531414e+01	-3.603936e-05
1.540259e+01	-3.645688e-05
1.549156e+01	-3.687924e-05
1.558103e+01	-3.730650e-05
1.567103e+01	-3.773870e-05
1.576155e+01	-3.817591e-05
1.585258e+01	-3.861819e-05
1.594415e+01	-3.906559e-05
1.603624e+01	-3.951817e-05
1.612886e+01	-3.997600e-05
1.622202e+01	-4.043913e-05
1.631572e+01	-4.090763e-05
1.640996e+01	-4.138155e-05
1.650474e+01	-4.186097e-05
1.660008e+01	-4.234593e-05
1.669596e+01	-4.283652e-05
1.679239e+01	-4.333279e-05
1.688938e+01	-4.383481e-05
1.698694e+01	-4.434265e-05
1.708505e+01	-4.485637e-05
1.718373e+01	-4.537604e-05
1.728299e+01	-4.590173e-05
1.738281e+01	-4.643351e-05
1.748322e+01	-4.697145e-05
1.758420e+01	-4.751563e-05
1.768576e+01	-4.806611e-05
1.778792e+01	-4.862296e-05
1.789066e+01	-4.918627e-05
1.799399e+01	-4.975610e-05
1.809793e+01	-5.033254e-05
1.820246e+01	-5.091565e-05
1.830760e+01	-5.150552e-05
1.841334e+01	-5.210222e-05
1.851969e+01	-5.270584e-05
1.862666e+01	-5.331645e-05
1.873425e+01	-5.393413e-05
1.884246e+01	-5.455897e-05
1.895129e+01	-5.519104e-05
1.906075e+01	-5.583044e-05
1.917085e+01	-5.647725e-05
1.928158e+01	-5.713155e-05
1.939295e+01	-5.779343e-05
1.950496e+01	-5.846298e-05
1.961762e+01	-5.914028e-05
1.973093e+01	-5.982544e-05
1.984490e+01	-6.051853e-05
1.995952e+01	-6.121964e-05
2.007480e+01	-6.192889e-05
2.019076e+01	-6.264634e-05
2.030738e+01	-6.337211e-05
2.042467e+01	-6.410629e-05
2.054264e+01	-6.484898e-05
2.066130e+01	-6.560026e-05
2.078064e+01	-6.636026e-05
2.090066e+01	-6.712905e-05
2.102139e+01	-6.790676e-05
2.114280e+01	-6.869347e-05
2.126492e+01	-6.948929e-05
2.138775e+01	-7.029434e-05
2.151128e+01	-7.110871e-05
2.163553e+01	-7.193252e-05
2.176050e+01	-7.276587e-05
2.188619e+01	-7.360888e-05
2.201260e+01	-7.446165e-05
2.213974e+01	-7.532430e-05
2.226762e+01	-7.619695e-05
2.239624e+01	-7.707970e-05
2.252560e+01	-7.797268e-05
2.265571e+01	-7.887601e-05
2.278656e+01	-7.978980e-05
2.291818e+01	-8.071418e-05
2.305055e+01	-8.164927e-05
2.318369e+01	-8.259519e-05
2.331760e+01	-8.355207e-05
2.345228e+01	-8.452003e-05
2.358774e+01	-8.549921e-05
2.372398e+01	-8.648974e-05
2.386101e+01	-8.749173e-05
2.399883e+01	-8.850534e-05
2.413745e+01	-8.953069e-05
2.427686e+01	-9.056791e-05
2.441709e+01	-9.161716e-05
2.455812e+01	-9.267856e-05
2.469997e+01	-9.375225e-05
2.484263e+01	-9.483839e-05
2.498612e+01	-9.593710e-05
2.513044e+01	-9.704855e-05
2.527559e+01	-9.817287e-05
2.542158e+01	-9.931022e-05
2.556842e+01	-1.004607e-04
2.571610e+01	-1.016246e-04
2.586463e+01	-1.028019e-04
2.601403e+01	-1.039929e-04
2.616428e+01	-1.051977e-04
2.631541e+01	-1.064164e-04
2.646740e+01	-1.076493e-04
2.662028e+01	-1.088964e-04
2.677404e+01	-1.101580e-04
2.692868e+01	-1.114342e-04
2.708422e+01	-1.127251e-04
2.724066e+01	-1.140311e-04
2.739800e+01	-1.153521e-04
2.755625e+01	-1.166885e-04
2.771541e+01	-1.180404e-04
2.787550e+01	-1.194079e-04
2.803650e+01	-1.207912e-04
2.819844e+01	-1.221906e-04
2.836131e+01	-1.236062e-04
2.852513e+01	-1.250382e-04
2.868989e+01	-1.264868e-04
2.885560e+01	-1.279521e-04
2.902227e+01	-1.294345e-04
2.918990e+01	-1.309340e-04
2.935850e+01	-1.324509e-04
2.952807e+01	-1.339853e-04
2.969863e+01	-1.355376e-04
2.987016e+01	-1.371078e-04
3.004269e+01	-1.386962e-04
3.021622e+01	-1.403030e-04
3.039075e+01	-1.419284e-04
3.056628e+01	-1.435727e-04
3.074283e+01	-1.452360e-04
3.092040e+01	-1.469185e-04
3.109900e+01	-1.486206e-04
3.127862e+01	-1.503424e-04
3.145929e+01	-1.520841e-04
3.164099e+01	-1.538460e-04
3.182375e+01	-1.556283e-04
3.200756e+01	-1.574313e-04
3.219244e+01	-1.592551e-04
3.237838e+01	-1.611001e-04
3.256540e+01	-1.629665e-04
3.275349e+01	-1.648545e-04
3.294268e+01	-1.667643e-04
3.313295e+01	-1.686963e-04
3.332433e+01	-1.706506e-04
3.351681e+01	-1.726276e-04
3.371040e+01	-1.746275e-04
3.390511e+01	-1.766506e-04
3.410094e+01	-1.786971e-04
3.429791e+01	-1.807673e-04
3.449601e+01	-1.828615e-04
3.469526e+01	-1.849800e-04
3.489566e+01	-1.871230e-04
3.509721e+01	-1.892908e-04
3.529993e+01	-1.914837e-04
3.550382e+01	-1.937021e-04
3.570889e+01	-1.959461e-04
3.591515e+01	-1.982162e-04
3.612259e+01	-2.005125e-04
3.633123e+01	-2.028354e-04
3.654108e+01	-2.051853e-04
3.675214e+01	-2.075623e-04
3.696442e+01	-2.099670e-04
3.717792e+01	-2.123994e-04
3.739266e+01	-2.148601e-04
3.760864e+01	-2.173492e-04
3.782587e+01	-2.198672e-04
3.804435e+01	-2.224144e-04
3.826409e+01	-2.249910e-04
3.848510e+01	-2.275975e-04
3.870739e+01	-2.302343e-04
3.893096e+01	-2.329015e-04
3.915583e+01	-2.355997e-04
3.938199e+01	-2.383291e-04
3.960946e+01	-2.410901e-04
3.983824e+01	-2.438831e-04
4.006834e+01	-2.467085e-04
4.029978e+01	-2.495666e-04
4.053255e+01	-2.524578e-04
4.076666e+01	-2.553825e-04
4.100213e+01	-2.583411e-04
4.123896e+01	-2.613340e-04
4.147715e+01	-2.643615e-04
4.171672e+01	-2.674241e-04
4.195767e+01	-2.705222e-04
4.220002e+01	-2.736562e-04
4.244377e+01	-2.768265e-04
4.268892e+01	-2.800335e-04
4.293549e+01	-2.832776e-04
4.318348e+01	-2.865594e-04
4.343291e+01	-2.898791e-04
4.368377e+01	-2.932374e-04
4.393609e+01	-2.966345e-04
4.418986e+01	-3.000710e-04
4.444510e+01	-3.035472e-04
4.470182e+01	-3.070638e-04
4.496001e+01	-3.106211e-04
4.521970e+01	-3.142196e-04
4.548089e+01	-3.178598e-04
4.574358e+01	-3.215421e-04
4.600779e+01	-3.252671e-04
4.627353e+01	-3.290353e-04
4.654081e+01	-3.328471e-04
4.680963e+01	-3.367031e-04
4.708000e+01	-3.406038e-04
4.735193e+01	-3.445496e-04
4.762543e+01	-3.485411e-04
4.790051e+01	-3.525789e-04
4.817719e+01	-3.566635e-04
4.845545e+01	-3.607953e-04
4.873533e+01	-3.649751e-04
4.901682e+01	-3.692032e-04
4.929994e+01	-3.734804e-04
4.958470e+01	-3.778071e-04
4.987110e+01	-3.821839e-04
5.015915e+01	-3.866114e-04
5.044887e+01	-3.910902e-04
5.074026e+01	-3.956209e-04
5.103333e+01	-4.002040e-04
5.132810e+01	-4.048403e-04
5.162457e+01	-4.095303e-04
5.192275e+01	-4.142745e-04
5.222265e+01	-4.190738e-04
5.252429e+01	-4.239287e-04
5.282767e+01	-4.288397e-04
5.313280e+01	-4.338077e-04
5.343969e+01	-4.388332e-04
5.374836e+01	-4.439170e-04
5.405880e+01	-4.490596e-04
5.437105e+01	-4.542618e-04
5.468509e+01	-4.595243e-04
5.500095e+01	-4.648477e-04
5.531863e+01	-4.702328e-04
5.563815e+01	-4.756803e-04
5.595951e+01	-4.811909e-04
5.628273e+01	-4.867653e-04
5.660782e+01	-4.924043e-04
5.693479e+01	-4.981086e-04
5.726364e+01	-5.038790e-04
5.759439e+01	-5.097162e-04
5.792705e+01	-5.156211e-04
5.826164e+01	-5.215944e-04
5.859815e+01	-5.276368e-04
5.893662e+01	-5.337492e-04
5.927703e+01	-5.399325e-04
5.961941e+01	-5.461874e-04
5.996377e+01	-5.525147e-04
6.031012e+01	-5.589153e-04
6.065847e+01	-5.653901e-04
6.100883e+01	-5.719398e-04
6.136121e+01	-5.785655e-04
6.171563e+01	-5.852679e-04
6.207210e+01	-5.920479e-04
6.243063e+01	-5.989065e-04
6.279122e+01	-6.058445e-04
6.315390e+01	-6.128629e-04
6.351868e+01	-6.199625e-04
6.388556e+01	-6.271445e-04
6.425456e+01	-6.344096e-04
6.462569e+01	-6.417588e-04
6.499897e+01	-6.491932e-04
6.537440e+01	-6.567137e-04
6.575200e+01	-6.643214e-04
6.613178e+01	-6.720171e-04
6.651375e+01	-6.798020e-04
6.689793e+01	-6.876771e-04
6.728433e+01	-6.956434e-04
6.767297e+01	-7.037019e-04
6.806384e+01	-7.118539e-04
6.845698e+01	-7.201002e-04
6.885238e+01	-7.284421e-04
6.925007e+01	-7.368805e-04
6.965005e+01	-7.454168e-04
7.005235e+01	-7.540519e-04
7.045697e+01	-7.627870e-04
7.086393e+01	-7.716233e-04
7.127323e+01	-7.805620e-04
7.168490e+01	-7.896042e-04
7.209895e+01	-7.987511e-04
7.251539e+01	-8.080040e-04
7.293424e+01	-8.173641e-04
7.335551e+01	-8.268326e-04
7.377920e+01	-8.364107e-04
7.420535e+01	-8.460998e-04
7.463396e+01	-8.559012e-04
7.506504e+01	-8.658160e-04
7.549861e+01	-8.758457e-04
7.593469e+01	-8.859916e-04
7.637328e+01	-8.962550e-04
7.681441e+01	-9.066373e-04
7.725809e+01	-9.171398e-04
7.770433e+01	-9.277640e-04
7.815315e+01	-9.385112e-04
7.860456e+01	-9.493829e-04
7.905857e+01	-9.603806e-04
7.951521e+01	-9.715056e-04
7.997449e+01	-9.827595e-04
8.043642e+01	-9.941437e-04
8.090102e+01	-1.005660e-03
8.136830e+01	-1.017309e-03
8.183828e+01	-1.029094e-03
8.231097e+01	-1.041015e-03
8.278640e+01	-1.053074e-03
8.326457e+01	-1.065272e-03
8.374550e+01	-1.077612e-03
8.422921e+01	-1.090095e-03
8.471572e+01	-1.102722e-03
8.520503e+01	-1.115496e-03
8.569717e+01	-1.128418e-03
8.619215e+01	-1.141489e-03
8.669000e+01	-1.154712e-03
8.719071e+01	-1.168088e-03
8.769432e+01	-1.181618e-03
8.820084e+01	-1.195306e-03
8.871029e+01	-1.209152e-03
8.922267e+01	-1.223158e-03
8.973802e+01	-1.237327e-03
9.025634e+01	-1.251660e-03
9.077766e+01	-1.266158e-03
9.130199e+01	-1.280825e-03
9.182935e+01	-1.295661e-03
9.235975e+01	-1.310670e-03
9.289321e+01	-1.325852e-03
9.342976e+01	-1.341210e-03
9.396941e+01	-1.356746e-03
9.451217e+01	-1.372462e-03
9.505807e+01	-1.388359e-03
9.560712e+01	-1.404441e-03
9.615934e+01	-1.420709e-03
9.671476e+01	-1.437166e-03
9.727338e+01	-1.453813e-03
9.783522e+01	-1.470653e-03
9.840032e+01	-1.487688e-03
9.896867e+01	-1.504920e-03
9.954031e+01	-1.522352e-03
1.001153e+02	-1.539986e-03
1.006935e+02	-1.557824e-03
1.012751e+02	-1.575868e-03
1.018601e+02	-1.594122e-03
1.024484e+02	-1.612587e-03
1.030402e+02	-1.631266e-03
1.036353e+02	-1.650161e-03
1.042339e+02	-1.669275e-03
1.048360e+02	-1.688610e-03
1.054415e+02	-1.708169e-03
1.060505e+02	-1.727955e-03
1.066631e+02	-1.747969e-03
1.072791e+02	-1.768216e-03
1.078988e+02	-1.788697e-03
1.085220e+02	-1.809415e-03
1.091488e+02	-1.830373e-03
1.097793e+02	-1.851574e-03
1.104133e+02	-1.873021e-03
1.110511e+02	-1.894715e-03
1.116925e+02	-1.916661e-03
1.123376e+02	-1.938861e-03
1.129865e+02	-1.961318e-03
1.136391e+02	-1.984036e-03
1.142955e+02	-2.007016e-03
1.149556e+02	-2.030262e-03
1.156196e+02	-2.053778e-03
1.162874e+02	-2.077566e-03
1.169591e+02	-2.101629e-03
1.176347e+02	-2.125971e-03
1.183141e+02	-2.150595e-03
1.189975e+02	-2.175504e-03
1.196848e+02	-2.200701e-03
1.203761e+02	-2.226190e-03
1.210714e+02	-2.251975e-03
1.217707e+02	-2.278058e-03
1.224740e+02	-2.304442e-03
1.231814e+02	-2.331133e-03
1.238929e+02	-2.358132e-03
1.246085e+02	-2.385444e-03
1.253283e+02	-2.413073e-03
1.260522e+02	-2.441021e-03
1.267802e+02	-2.469293e-03
1.275125e+02	-2.497892e-03
1.282490e+02	-2.526822e-03
1.289898e+02	-2.556087e-03
1.297348e+02	-2.585692e-03
1.304842e+02	-2.615638e-03
1.312378e+02	-2.645932e-03
1.319959e+02	-2.676576e-03
1.327583e+02	-2.707576e-03
1.335251e+02	-2.738934e-03
1.342963e+02	-2.770655e-03
1.350720e+02	-2.802743e-03
1.358522e+02	-2.835203e-03
1.366368e+02	-2.868039e-03
1.374260e+02	-2.901255e-03
1.382198e+02	-2.934855e-03
1.390182e+02	-2.968845e-03
1.398211e+02	-3.003227e-03
1.406287e+02	-3.038008e-03
1.414410e+02	-3.073192e-03
1.422579e+02	-3.108783e-03
1.430796e+02	-3.144786e-03
1.439060e+02	-3.181206e-03
1.447372e+02	-3.218047e-03
1.455732e+02	-3.255315e-03
1.464141e+02	-3.293015e-03
1.472597e+02	-3.331150e-03
1.481103e+02	-3.369728e-03
1.489658e+02	-3.408752e-03
1.498262e+02	-3.448227e-03
1.506916e+02	-3.488160e-03
1.515620e+02	-3.528554e-03
1.524374e+02	-3.569417e-03
1.533179e+02	-3.610752e-03
1.542034e+02	-3.652566e-03
1.550941e+02	-3.694864e-03
1.559899e+02	-3.737652e-03
1.568909e+02	-3.780934e-03
1.577971e+02	-3.824718e-03
1.587085e+02	-3.869009e-03
1.596252e+02	-3.913812e-03
1.605472e+02	-3.959134e-03
1.614745e+02	-4.004980e-03
1.624072e+02	-4.051357e-03
1.633453e+02	-4.098271e-03
1.642887e+02	-4.145728e-03
1.652377e+02	-4.193734e-03
1.661921e+02	-4.242296e-03
1.671520e+02	-4.291419e-03
1.681175e+02	-4.341112e-03
1.690885e+02	-4.391379e-03
1.700651e+02	-4.442228e-03
1.710474e+02	-4.493666e-03
1.720354e+02	-4.545699e-03
1.730291e+02	-4.598334e-03
1.740285e+02	-4.651578e-03
1.750337e+02	-4.705439e-03
1.760446e+02	-4.759923e-03
1.770615e+02	-4.815037e-03
1.780842e+02	-4.870789e-03
1.791128e+02	-4.927186e-03
1.801473e+02	-4.984236e-03
1.811878e+02	-5.041946e-03
1.822344e+02	-5.100324e-03
1.832870e+02	-5.159378e-03
1.843456e+02	-5.219114e-03
1.854104e+02	-5.279542e-03
1.864813e+02	-5.340669e-03
1.875584e+02	-5.402504e-03
1.886418e+02	-5.465054e-03
1.897313e+02	-5.528327e-03
1.908272e+02	-5.592333e-03
1.919294e+02	-5.657080e-03
1.930380e+02	-5.722575e-03
1.941530e+02	-5.788828e-03
1.952744e+02	-5.855848e-03
1.964023e+02	-5.923643e-03
1.975367e+02	-5.992222e-03
1.986777e+02	-6.061595e-03
1.998252e+02	-6.131771e-03
2.009794e+02	-6.202758e-03
2.021403e+02	-6.274567e-03
2.033078e+02	-6.347206e-03
2.044821e+02	-6.420685e-03
2.056632e+02	-6.495015e-03
2.068511e+02	-6.570204e-03
2.080459e+02	-6.646263e-03
2.092475e+02	-6.723202e-03
2.104561e+02	-6.801031e-03
2.116717e+02	-6.879760e-03
2.128943e+02	-6.959400e-03
2.141240e+02	-7.039961e-03
2.153608e+02	-7.121453e-03
2.166047e+02	-7.203889e-03
2.178558e+02	-7.287277e-03
2.191141e+02	-7.371630e-03
2.203797e+02	-7.456959e-03
2.216526e+02	-7.543275e-03
2.229329e+02	-7.630588e-03
2.242205e+02	-7.718912e-03
2.255156e+02	-7.808257e-03
2.268182e+02	-7.898635e-03
2.281283e+02	-7.990058e-03
2.294459e+02	-8.082539e-03
2.307712e+02	-8.176088e-03
2.321041e+02	-8.270720e-03
2.334447e+02	-8.366446e-03
2.347931e+02	-8.463279e-03
2.361493e+02	-8.561231e-03
2.375133e+02	-8.660316e-03
2.388851e+02	-8.760546e-03
2.402649e+02	-8.861935e-03
2.416527e+02	-8.964497e-03
2.430484e+02	-9.068244e-03
2.444523e+02	-9.173191e-03
2.458642e+02	-9.279351e-03
2.472843e+02	-9.386738e-03
2.487126e+02	-9.495366e-03
2.501492e+02	-9.605250e-03
2.515940e+02	-9.716405e-03
2.530472e+02	-9.828844e-03
2.545088e+02	-9.942583e-03
2.559789e+02	-1.005764e-02
2.574574e+02	-1.017402e-02
2.589444e+02	-1.029175e-02
2.604401e+02	-1.041084e-02
2.619444e+02	-1.053130e-02
2.634574e+02	-1.065316e-02
2.649791e+02	-1.077643e-02
2.665096e+02	-1.090112e-02
2.680489e+02	-1.102725e-02
2.695972e+02	-1.115484e-02
2.711544e+02	-1.128390e-02
2.727205e+02	-1.141445e-02
2.742958e+02	-1.154652e-02
2.758801e+02	-1.168011e-02
2.774736e+02	-1.181524e-02
2.790762e+02	-1.195193e-02
2.806882e+02	-1.209020e-02
2.823094e+02	-1.223008e-02
2.839400e+02	-1.237156e-02
2.855800e+02	-1.251468e-02
2.872295e+02	-1.265946e-02
2.888886e+02	-1.280590e-02
2.905572e+02	-1.295404e-02
2.922354e+02	-1.310389e-02
2.939234e+02	-1.325547e-02
2.956211e+02	-1.340880e-02
2.973286e+02	-1.356390e-02
2.990459e+02	-1.372079e-02
3.007732e+02	-1.387949e-02
3.025104e+02	-1.404003e-02
3.042577e+02	-1.420242e-02
3.060151e+02	-1.436669e-02
3.077826e+02	-1.453285e-02
3.095604e+02	-1.470093e-02
3.113484e+02	-1.487095e-02
3.131467e+02	-1.504294e-02
3.149554e+02	-1.521690e-02
3.167746e+02	-1.539288e-02
3.186043e+02	-1.557089e-02
3.204445e+02	-1.575096e-02
3.222954e+02	-1.593310e-02
3.241570e+02	-1.611735e-02
3.260293e+02	-1.630372e-02
3.279124e+02	-1.649224e-02
3.298064e+02	-1.668294e-02
3.317114e+02	-1.687584e-02
3.336273e+02	-1.707096e-02
3.355544e+02	-1.726834e-02
3.374925e+02	-1.746799e-02
3.394418e+02	-1.766995e-02
3.414024e+02	-1.787424e-02
3.433744e+02	-1.808089e-02
3.453577e+02	-1.828991e-02
3.473525e+02	-1.850135e-02
3.493588e+02	-1.871523e-02
3.513766e+02	-1.893158e-02
3.534062e+02	-1.915042e-02
3.554474e+02	-1.937179e-02
3.575005e+02	-1.959571e-02
3.595654e+02	-1.982221e-02
3.616422e+02	-2.005132e-02
3.637311e+02	-2.028308e-02
3.658320e+02	-2.051750e-02
3.679450e+02	-2.075464e-02
3.700702e+02	-2.099450e-02
3.722077e+02	-2.123713e-02
3.743576e+02	-2.148256e-02
3.765199e+02	-2.173081e-02
3.786946e+02	-2.198193e-02
3.808820e+02	-2.223594e-02
3.830819e+02	-2.249288e-02
3.852946e+02	-2.275278e-02
3.875200e+02	-2.301568e-02
3.897583e+02	-2.328160e-02
3.920096e+02	-2.355059e-02
3.942738e+02	-2.382268e-02
3.965511e+02	-2.409791e-02
3.988416e+02	-2.437630e-02
4.011452e+02	-2.465790e-02
4.034622e+02	-2.494275e-02
4.057926e+02	-2.523087e-02
4.081365e+02	-2.552232e-02
4.104938e+02	-2.581712e-02
4.128648e+02	-2.611531e-02
4.152495e+02	-2.641694e-02
4.176480e+02	-2.672204e-02
4.200603e+02	-2.703066e-02
4.224866e+02	-2.734283e-02
4.249268e+02	-2.765859e-02
4.273812e+02	-2.797799e-02
4.298497e+02	-2.830106e-02
4.323325e+02	-2.862785e-02
4.348297e+02	-2.895840e-02
4.373412e+02	-2.929276e-02
4.398673e+02	-2.963096e-02
4.424079e+02	-2.997305e-02
4.449633e+02	-3.031908e-02
4.475334e+02	-3.066909e-02
4.501183e+02	-3.102313e-02
4.527182e+02	-3.138124e-02
4.553330e+02	-3.174346e-02
4.579630e+02	-3.210986e-02
4.606082e+02	-3.248046e-02
4.632687e+02	-3.285533e-02
4.659445e+02	-3.323451e-02
4.686358e+02	-3.361804e-02
4.713426e+02	-3.400599e-02
4.740650e+02	-3.439839e-02
4.768032e+02	-3.479530e-02
4.795572e+02	-3.519678e-02
4.823271e+02	-3.560287e-02
4.851130e+02	-3.601362e-02
4.879150e+02	-3.642909e-02
4.907332e+02	-3.684934e-02
4.935676e+02	-3.727441e-02
4.964185e+02	-3.770436e-02
4.992858e+02	-3.813925e-02
5.021696e+02	-3.857914e-02
5.050701e+02	-3.902407e-02
5.079874e+02	-3.947412e-02
5.109215e+02	-3.992933e-02
5.138726e+02	-4.038976e-02
5.168407e+02	-4.085548e-02
5.198259e+02	-4.132655e-02
5.228284e+02	-4.180302e-02
5.258482e+02	-4.228495e-02
5.288855e+02	-4.277242e-02
5.319403e+02	-4.326547e-02
5.350128e+02	-4.376418e-02
5.381030e+02	-4.426861e-02
5.412111e+02	-4.477882e-02
5.443371e+02	-4.529489e-02
5.474812e+02	-4.581687e-02
5.506434e+02	-4.634483e-02
5.538239e+02	-4.687884e-02
5.570228e+02	-4.741897e-02
5.602401e+02	-4.796529e-02
5.634760e+02	-4.851787e-02
5.667306e+02	-4.907678e-02
5.700040e+02	-4.964210e-02
5.732964e+02	-5.021388e-02
5.766077e+02	-5.079221e-02
5.799382e+02	-5.137717e-02
5.832879e+02	-5.196882e-02
5.866569e+02	-5.256724e-02
5.900454e+02	-5.317251e-02
5.934535e+02	-5.378471e-02
5.968813e+02	-5.440391e-02
6.003288e+02	-5.503019e-02
6.037963e+02	-5.566364e-02
6.072838e+02	-5.630433e-02
6.107914e+02	-5.695235e-02
6.143194e+02	-5.760777e-02
6.178676e+02	-5.827069e-02
6.214364e+02	-5.894119e-02
6.250258e+02	-5.961934e-02
6.286359e+02	-6.030525e-02
6.322669e+02	-6.099899e-02
6.359189e+02	-6.170065e-02
6.395919e+02	-6.241033e-02
6.432862e+02	-6.312811e-02
6.470017e+02	-6.385408e-02
6.507388e+02	-6.458834e-02
6.544974e+02	-6.533098e-02
6.582778e+02	-6.608209e-02
6.620800e+02	-6.684178e-02
6.659041e+02	-6.761012e-02
6.697504e+02	-6.838723e-02
6.736188e+02	-6.917321e-02
6.775096e+02	-6.996814e-02
6.814229e+02	-7.077213e-02
6.853587e+02	-7.158528e-02
6.893173e+02	-7.240770e-02
6.932988e+02	-7.323949e-02
6.973033e+02	-7.408075e-02
7.013309e+02	-7.493159e-02
