Frequency(Hz)	Magnitude(dB)
1.000000e+01	-2.212059e+00
1.005776e+01	-2.232244e+00
1.011585e+01	-2.252240e+00
1.017428e+01	-2.272783e+00
1.023305e+01	-2.293056e+00
1.029215e+01	-2.313998e+00
1.035160e+01	-2.334578e+00
1.041139e+01	-2.355460e+00
1.047153e+01	-2.376451e+00
1.053201e+01	-2.397560e+00
1.059284e+01	-2.418882e+00
1.065403e+01	-2.440243e+00
1.071556e+01	-2.461892e+00
1.077746e+01	-2.483708e+00
1.083971e+01	-2.505450e+00
1.090232e+01	-2.527674e+00
1.096529e+01	-2.549437e+00
1.102862e+01	-2.571680e+00
1.109232e+01	-2.594149e+00
1.115639e+01	-2.616619e+00
1.122083e+01	-2.639546e+00
1.128564e+01	-2.662577e+00
1.135083e+01	-2.685353e+00
1.141639e+01	-2.708585e+00
1.148233e+01	-2.731990e+00
1.154865e+01	-2.755268e+00
1.161536e+01	-2.778801e+00
1.168245e+01	-2.802605e+00
1.174992e+01	-2.826511e+00
1.181779e+01	-2.850538e+00
1.188605e+01	-2.874612e+00
1.195470e+01	-2.898868e+00
1.202375e+01	-2.923215e+00
1.209320e+01	-2.947657e+00
1.216305e+01	-2.972410e+00
1.223330e+01	-2.997353e+00
1.230396e+01	-3.022636e+00
1.237503e+01	-3.047670e+00
1.244651e+01	-3.072984e+00
1.251840e+01	-3.098311e+00
1.259070e+01	-3.123977e+00
1.266343e+01	-3.149863e+00
1.273657e+01	-3.175615e+00
1.281014e+01	-3.201738e+00
1.288413e+01	-3.227796e+00
1.295855e+01	-3.253883e+00
1.303339e+01	-3.280219e+00
1.310867e+01	-3.307157e+00
1.318439e+01	-3.333677e+00
1.326054e+01	-3.360730e+00
1.333713e+01	-3.387872e+00
1.341417e+01	-3.414955e+00
1.349165e+01	-3.442240e+00
1.356958e+01	-3.469864e+00
1.364795e+01	-3.497081e+00
1.372678e+01	-3.525129e+00
1.380607e+01	-3.553083e+00
1.388581e+01	-3.580928e+00
1.396602e+01	-3.609101e+00
1.404668e+01	-3.637482e+00
1.412782e+01	-3.665944e+00
1.420942e+01	-3.694267e+00
1.429149e+01	-3.723185e+00
1.437404e+01	-3.752012e+00
1.445706e+01	-3.780887e+00
1.454057e+01	-3.810160e+00
1.462455e+01	-3.839405e+00
1.470902e+01	-3.868804e+00
1.479398e+01	-3.898127e+00
1.487943e+01	-3.928036e+00
1.496537e+01	-3.958155e+00
1.505181e+01	-3.988150e+00
1.513875e+01	-4.018032e+00
1.522619e+01	-4.048441e+00
1.531414e+01	-4.078966e+00
1.540259e+01	-4.109558e+00
1.549156e+01	-4.139571e+00
1.558103e+01	-4.170850e+00
1.567103e+01	-4.201517e+00
1.576155e+01	-4.232632e+00
1.585258e+01	-4.264025e+00
1.594415e+01	-4.295383e+00
1.603624e+01	-4.326969e+00
1.612886e+01	-4.358386e+00
1.622202e+01	-4.390263e+00
1.631572e+01	-4.422344e+00
1.640996e+01	-4.454023e+00
1.650474e+01	-4.486241e+00
1.660008e+01	-4.518610e+00
1.669596e+01	-4.551038e+00
1.679239e+01	-4.583654e+00
1.688938e+01	-4.616168e+00
1.698694e+01	-4.649027e+00
1.708505e+01	-4.681883e+00
1.718373e+01	-4.715133e+00
1.728299e+01	-4.748097e+00
1.738281e+01	-4.781724e+00
1.748322e+01	-4.815005e+00
1.758420e+01	-4.848625e+00
1.768576e+01	-4.882320e+00
1.778792e+01	-4.916131e+00
1.789066e+01	-4.950045e+00
1.799399e+01	-4.984207e+00
1.809793e+01	-5.018481e+00
1.820246e+01	-5.052771e+00
1.830760e+01	-5.087139e+00
1.841334e+01	-5.122079e+00
1.851969e+01	-5.156512e+00
1.862666e+01	-5.191383e+00
1.873425e+01	-5.226563e+00
1.884246e+01	-5.261270e+00
1.895129e+01	-5.296336e+00
1.906075e+01	-5.331999e+00
1.917085e+01	-5.367285e+00
1.928158e+01	-5.402893e+00
1.939295e+01	-5.438172e+00
1.950496e+01	-5.474401e+00
1.961762e+01	-5.510195e+00
1.973093e+01	-5.546139e+00
1.984490e+01	-5.582398e+00
1.995952e+01	-5.618509e+00
2.007480e+01	-5.655083e+00
2.019076e+01	-5.691612e+00
2.030738e+01	-5.727720e+00
2.042467e+01	-5.764538e+00
2.054264e+01	-5.801754e+00
2.066130e+01	-5.838354e+00
2.078064e+01	-5.875398e+00
2.090066e+01	-5.912653e+00
2.102139e+01	-5.949874e+00
2.114280e+01	-5.987139e+00
2.126492e+01	-6.024355e+00
2.138775e+01	-6.062187e+00
2.151128e+01	-6.100080e+00
2.163553e+01	-6.137756e+00
2.176050e+01	-6.175449e+00
2.188619e+01	-6.213600e+00
2.201260e+01	-6.251555e+00
2.213974e+01	-6.290195e+00
2.226762e+01	-6.328285e+00
2.239624e+01	-6.366640e+00
2.252560e+01	-6.405208e+00
2.265571e+01	-6.444259e+00
2.278656e+01	-6.483366e+00
2.291818e+01	-6.521601e+00
2.305055e+01	-6.560553e+00
2.318369e+01	-6.599558e+00
2.331760e+01	-6.638474e+00
2.345228e+01	-6.678011e+00
2.358774e+01	-6.717174e+00
2.372398e+01	-6.756762e+00
2.386101e+01	-6.796198e+00
2.399883e+01	-6.835772e+00
2.413745e+01	-6.875771e+00
2.427686e+01	-6.915132e+00
2.441709e+01	-6.955149e+00
2.455812e+01	-6.995290e+00
2.469997e+01	-7.034978e+00
2.484263e+01	-7.075564e+00
2.498612e+01	-7.115525e+00
2.513044e+01	-7.155861e+00
2.527559e+01	-7.196534e+00
2.542158e+01	-7.236880e+00
2.556842e+01	-7.277781e+00
2.571610e+01	-7.318261e+00
2.586463e+01	-7.359405e+00
2.601403e+01	-7.399710e+00
2.616428e+01	-7.441204e+00
2.631541e+01	-7.481838e+00
2.646740e+01	-7.523405e+00
2.662028e+01	-7.564274e+00
2.677404e+01	-7.605510e+00
2.692868e+01	-7.646857e+00
2.708422e+01	-7.688351e+00
2.724066e+01	-7.730384e+00
2.739800e+01	-7.771468e+00
2.755625e+01	-7.813480e+00
2.771541e+01	-7.855227e+00
2.787550e+01	-7.897056e+00
2.803650e+01	-7.938874e+00
2.819844e+01	-7.980966e+00
2.836131e+01	-8.022695e+00
2.852513e+01	-8.065161e+00
2.868989e+01	-8.107372e+00
2.885560e+01	-8.149840e+00
2.902227e+01	-8.192076e+00
2.918990e+01	-8.234897e+00
2.935850e+01	-8.277136e+00
2.952807e+01	-8.320020e+00
2.969863e+01	-8.362637e+00
2.987016e+01	-8.405112e+00
3.004269e+01	-8.448457e+00
3.021622e+01	-8.490966e+00
3.039075e+01	-8.534295e+00
3.056628e+01	-8.577216e+00
3.074283e+01	-8.619923e+00
3.092040e+01	-8.663532e+00
3.109900e+01	-8.706561e+00
3.127862e+01	-8.750069e+00
3.145929e+01	-8.793422e+00
3.164099e+01	-8.836405e+00
3.182375e+01	-8.880383e+00
3.200756e+01	-8.923834e+00
3.219244e+01	-8.967464e+00
3.237838e+01	-9.011473e+00
3.256540e+01	-9.055421e+00
3.275349e+01	-9.098785e+00
3.294268e+01	-9.142908e+00
3.313295e+01	-9.187326e+00
3.332433e+01	-9.230619e+00
3.351681e+01	-9.274740e+00
3.371040e+01	-9.319089e+00
3.390511e+01	-9.363084e+00
3.410094e+01	-9.407514e+00
3.429791e+01	-9.451832e+00
3.449601e+01	-9.496205e+00
3.469526e+01	-9.540614e+00
3.489566e+01	-9.585259e+00
3.509721e+01	-9.629783e+00
3.529993e+01	-9.674372e+00
3.550382e+01	-9.718668e+00
3.570889e+01	-9.763538e+00
3.591515e+01	-9.808977e+00
3.612259e+01	-9.853327e+00
3.633123e+01	-9.897707e+00
3.654108e+01	-9.942898e+00
3.675214e+01	-9.988129e+00
3.696442e+01	-1.003332e+01
3.717792e+01	-1.007780e+01
3.739266e+01	-1.012339e+01
3.760864e+01	-1.016850e+01
3.782587e+01	-1.021388e+01
3.804435e+01	-1.025906e+01
3.826409e+01	-1.030463e+01
3.848510e+01	-1.034946e+01
3.870739e+01	-1.039558e+01
3.893096e+01	-1.044092e+01
3.915583e+01	-1.048612e+01
3.938199e+01	-1.053160e+01
3.960946e+01	-1.057717e+01
3.983824e+01	-1.062271e+01
4.006834e+01	-1.066929e+01
4.029978e+01	-1.071432e+01
4.053255e+01	-1.076032e+01
4.076666e+01	-1.080667e+01
4.100213e+01	-1.085190e+01
4.123896e+01	-1.089857e+01
4.147715e+01	-1.094386e+01
4.171672e+01	-1.098973e+01
4.195767e+01	-1.103612e+01
4.220002e+01	-1.108270e+01
4.244377e+01	-1.112854e+01
4.268892e+01	-1.117451e+01
4.293549e+01	-1.122066e+01
4.318348e+01	-1.126762e+01
4.343291e+01	-1.131348e+01
4.368377e+01	-1.136002e+01
4.393609e+01	-1.140658e+01
4.418986e+01	-1.145244e+01
4.444510e+01	-1.149901e+01
4.470182e+01	-1.154557e+01
4.496001e+01	-1.159154e+01
4.521970e+01	-1.163841e+01
4.548089e+01	-1.168529e+01
4.574358e+01	-1.173168e+01
4.600779e+01	-1.177844e+01
4.627353e+01	-1.182506e+01
4.654081e+01	-1.187243e+01
4.680963e+01	-1.191860e+01
4.708000e+01	-1.196554e+01
4.735193e+01	-1.201233e+01
4.762543e+01	-1.205914e+01
4.790051e+01	-1.210657e+01
4.817719e+01	-1.215326e+01
4.845545e+01	-1.219968e+01
4.873533e+01	-1.224724e+01
4.901682e+01	-1.229399e+01
4.929994e+01	-1.234209e+01
4.958470e+01	-1.238853e+01
4.987110e+01	-1.243642e+01
5.015915e+01	-1.248317e+01
5.044887e+01	-1.253072e+01
5.074026e+01	-1.257757e+01
5.103333e+01	-1.262444e+01
5.132810e+01	-1.267244e+01
5.162457e+01	-1.271935e+01
5.192275e+01	-1.276653e+01
5.222265e+01	-1.281351e+01
5.252429e+01	-1.286136e+01
5.282767e+01	-1.290842e+01
5.313280e+01	-1.295666e+01
5.343969e+01	-1.300437e+01
5.374836e+01	-1.305099e+01
5.405880e+01	-1.309953e+01
5.437105e+01	-1.314649e+01
5.468509e+01	-1.319408e+01
5.500095e+01	-1.324214e+01
5.531863e+01	-1.328968e+01
5.563815e+01	-1.333758e+01
5.595951e+01	-1.338587e+01
5.628273e+01	-1.343284e+01
5.660782e+01	-1.347979e+01
5.693479e+01	-1.352832e+01
5.726364e+01	-1.357660e+01
5.759439e+01	-1.362369e+01
5.792705e+01	-1.367192e+01
5.826164e+01	-1.371962e+01
5.859815e+01	-1.376769e+01
5.893662e+01	-1.381604e+01
5.927703e+01	-1.386352e+01
5.961941e+01	-1.391162e+01
5.996377e+01	-1.395917e+01
6.031012e+01	-1.400767e+01
6.065847e+01	-1.405594e+01
6.100883e+01	-1.410404e+01
6.136121e+01	-1.415268e+01
6.171563e+01	-1.420029e+01
6.207210e+01	-1.424769e+01
6.243063e+01	-1.429670e+01
6.279122e+01	-1.434438e+01
6.315390e+01	-1.439319e+01
6.351868e+01	-1.444045e+01
6.388556e+01	-1.448862e+01
6.425456e+01	-1.453622e+01
6.462569e+01	-1.458543e+01
6.499897e+01	-1.463370e+01
6.537440e+01	-1.468262e+01
6.575200e+01	-1.473036e+01
6.613178e+01	-1.477873e+01
6.651375e+01	-1.482845e+01
6.689793e+01	-1.487441e+01
6.728433e+01	-1.492415e+01
6.767297e+01	-1.497128e+01
6.806384e+01	-1.502087e+01
6.845698e+01	-1.506959e+01
6.885238e+01	-1.511833e+01
6.925007e+01	-1.516626e+01
6.965005e+01	-1.521572e+01
7.005235e+01	-1.526388e+01
7.045697e+01	-1.531198e+01
7.086393e+01	-1.536061e+01
7.127323e+01	-1.540958e+01
7.168490e+01	-1.545862e+01
7.209895e+01	-1.550609e+01
7.251539e+01	-1.555450e+01
7.293424e+01	-1.560413e+01
7.335551e+01	-1.565179e+01
7.377920e+01	-1.570051e+01
7.420535e+01	-1.575035e+01
7.463396e+01	-1.579834e+01
7.506504e+01	-1.584660e+01
7.549861e+01	-1.589599e+01
7.593469e+01	-1.594528e+01
7.637328e+01	-1.599330e+01
7.681441e+01	-1.604264e+01
7.725809e+01	-1.609123e+01
7.770433e+01	-1.613964e+01
7.815315e+01	-1.618923e+01
7.860456e+01	-1.623696e+01
7.905857e+01	-1.628648e+01
7.951521e+01	-1.633472e+01
7.997449e+01	-1.638284e+01
8.043642e+01	-1.643220e+01
8.090102e+01	-1.648153e+01
8.136830e+01	-1.653221e+01
8.183828e+01	-1.657952e+01
8.231097e+01	-1.662727e+01
8.278640e+01	-1.667710e+01
8.326457e+01	-1.672727e+01
8.374550e+01	-1.677570e+01
8.422921e+01	-1.682345e+01
8.471572e+01	-1.687343e+01
8.520503e+01	-1.692180e+01
8.569717e+01	-1.697253e+01
8.619215e+01	-1.702009e+01
8.669000e+01	-1.706969e+01
8.719071e+01	-1.711950e+01
8.769432e+01	-1.716750e+01
8.820084e+01	-1.721578e+01
8.871029e+01	-1.726548e+01
8.922267e+01	-1.731497e+01
8.973802e+01	-1.736424e+01
9.025634e+01	-1.741438e+01
9.077766e+01	-1.746454e+01
9.130199e+01	-1.750933e+01
9.182935e+01	-1.755962e+01
9.235975e+01	-1.761117e+01
9.289321e+01	-1.765973e+01
9.342976e+01	-1.770856e+01
9.396941e+01	-1.775647e+01
9.451217e+01	-1.780746e+01
9.505807e+01	-1.785604e+01
9.560712e+01	-1.790451e+01
9.615934e+01	-1.795479e+01
9.671476e+01	-1.800249e+01
9.727338e+01	-1.805133e+01
9.783522e+01	-1.810327e+01
9.840032e+01	-1.815096e+01
9.896867e+01	-1.820094e+01
9.954031e+01	-1.824937e+01
1.001153e+02	-1.829811e+01
1.006935e+02	-1.834690e+01
1.012751e+02	-1.839845e+01
1.018601e+02	-1.844654e+01
1.024484e+02	-1.849615e+01
1.030402e+02	-1.854642e+01
1.036353e+02	-1.859498e+01
1.042339e+02	-1.864384e+01
1.048360e+02	-1.869285e+01
1.054415e+02	-1.874230e+01
1.060505e+02	-1.879105e+01
1.066631e+02	-1.884204e+01
1.072791e+02	-1.889108e+01
1.078988e+02	-1.894108e+01
1.085220e+02	-1.899115e+01
1.091488e+02	-1.903924e+01
1.097793e+02	-1.908981e+01
1.104133e+02	-1.913742e+01
1.110511e+02	-1.918747e+01
1.116925e+02	-1.923646e+01
1.123376e+02	-1.928580e+01
1.129865e+02	-1.933697e+01
1.136391e+02	-1.938535e+01
1.142955e+02	-1.943454e+01
1.149556e+02	-1.948461e+01
1.156196e+02	-1.953309e+01
1.162874e+02	-1.958167e+01
1.169591e+02	-1.963225e+01
1.176347e+02	-1.968154e+01
1.183141e+02	-1.973200e+01
1.189975e+02	-1.978023e+01
1.196848e+02	-1.983179e+01
1.203761e+02	-1.988105e+01
1.210714e+02	-1.992900e+01
1.217707e+02	-1.997858e+01
1.224740e+02	-2.002831e+01
1.231814e+02	-2.007808e+01
1.238929e+02	-2.012807e+01
1.246085e+02	-2.017721e+01
1.253283e+02	-2.022598e+01
1.260522e+02	-2.027578e+01
1.267802e+02	-2.032465e+01
1.275125e+02	-2.037488e+01
1.282490e+02	-2.042540e+01
1.289898e+02	-2.047452e+01
1.297348e+02	-2.052292e+01
1.304842e+02	-2.057315e+01
1.312378e+02	-2.062363e+01
1.319959e+02	-2.067498e+01
1.327583e+02	-2.072261e+01
1.335251e+02	-2.077194e+01
1.342963e+02	-2.082152e+01
1.350720e+02	-2.087218e+01
1.358522e+02	-2.092179e+01
1.366368e+02	-2.097058e+01
1.374260e+02	-2.101965e+01
1.382198e+02	-2.106985e+01
1.390182e+02	-2.112133e+01
1.398211e+02	-2.117088e+01
1.406287e+02	-2.121896e+01
1.414410e+02	-2.126753e+01
1.422579e+02	-2.131819e+01
1.430796e+02	-2.136863e+01
1.439060e+02	-2.141860e+01
1.447372e+02	-2.146608e+01
1.455732e+02	-2.151805e+01
1.464141e+02	-2.156572e+01
1.472597e+02	-2.161615e+01
1.481103e+02	-2.166633e+01
1.489658e+02	-2.171557e+01
1.498262e+02	-2.176581e+01
1.506916e+02	-2.181418e+01
1.515620e+02	-2.186502e+01
1.524374e+02	-2.191633e+01
1.533179e+02	-2.196258e+01
1.542034e+02	-2.201462e+01
1.550941e+02	-2.206310e+01
1.559899e+02	-2.211291e+01
1.568909e+02	-2.216549e+01
1.577971e+02	-2.221292e+01
1.587085e+02	-2.226222e+01
1.596252e+02	-2.231306e+01
1.605472e+02	-2.236197e+01
1.614745e+02	-2.241153e+01
1.624072e+02	-2.246168e+01
1.633453e+02	-2.251090e+01
1.642887e+02	-2.256070e+01
1.652377e+02	-2.261208e+01
1.661921e+02	-2.266129e+01
1.671520e+02	-2.271131e+01
1.681175e+02	-2.276006e+01
1.690885e+02	-2.280905e+01
1.700651e+02	-2.286114e+01
1.710474e+02	-2.291144e+01
1.720354e+02	-2.295854e+01
1.730291e+02	-2.301008e+01
1.740285e+02	-2.305767e+01
1.750337e+02	-2.310930e+01
1.760446e+02	-2.315871e+01
1.770615e+02	-2.320991e+01
1.780842e+02	-2.325864e+01
1.791128e+02	-2.331069e+01
1.801473e+02	-2.335682e+01
1.811878e+02	-2.340993e+01
1.822344e+02	-2.345889e+01
1.832870e+02	-2.350792e+01
1.843456e+02	-2.355799e+01
1.854104e+02	-2.360940e+01
1.864813e+02	-2.365584e+01
1.875584e+02	-2.370865e+01
1.886418e+02	-2.375410e+01
1.897313e+02	-2.380891e+01
1.908272e+02	-2.385679e+01
1.919294e+02	-2.390685e+01
1.930380e+02	-2.395461e+01
1.941530e+02	-2.400791e+01
1.952744e+02	-2.405563e+01
1.964023e+02	-2.410693e+01
1.975367e+02	-2.415508e+01
1.986777e+02	-2.420612e+01
1.998252e+02	-2.425511e+01
2.009794e+02	-2.430430e+01
2.021403e+02	-2.435761e+01
2.033078e+02	-2.440664e+01
2.044821e+02	-2.445555e+01
2.056632e+02	-2.450498e+01
2.068511e+02	-2.455437e+01
2.080459e+02	-2.460496e+01
2.092475e+02	-2.465619e+01
2.104561e+02	-2.470569e+01
2.116717e+02	-2.475204e+01
2.128943e+02	-2.480221e+01
2.141240e+02	-2.485461e+01
2.153608e+02	-2.490378e+01
2.166047e+02	-2.495545e+01
2.178558e+02	-2.500539e+01
2.191141e+02	-2.505223e+01
2.203797e+02	-2.510537e+01
2.216526e+02	-2.515359e+01
2.229329e+02	-2.520321e+01
2.242205e+02	-2.525393e+01
2.255156e+02	-2.530289e+01
2.268182e+02	-2.535232e+01
2.281283e+02	-2.540409e+01
2.294459e+02	-2.545698e+01
2.307712e+02	-2.550386e+01
2.321041e+02	-2.555305e+01
2.334447e+02	-2.560083e+01
2.347931e+02	-2.565204e+01
2.361493e+02	-2.570324e+01
2.375133e+02	-2.575775e+01
2.388851e+02	-2.580275e+01
2.402649e+02	-2.585096e+01
2.416527e+02	-2.590219e+01
2.430484e+02	-2.595183e+01
2.444523e+02	-2.600161e+01
2.458642e+02	-2.605031e+01
2.472843e+02	-2.610441e+01
2.487126e+02	-2.615229e+01
2.501492e+02	-2.620255e+01
2.515940e+02	-2.625264e+01
2.530472e+02	-2.630148e+01
2.545088e+02	-2.635015e+01
2.559789e+02	-2.640227e+01
2.574574e+02	-2.645062e+01
2.589444e+02	-2.650333e+01
2.604401e+02	-2.655152e+01
2.619444e+02	-2.660113e+01
2.634574e+02	-2.664900e+01
2.649791e+02	-2.670236e+01
2.665096e+02	-2.675201e+01
2.680489e+02	-2.680074e+01
2.695972e+02	-2.685021e+01
2.711544e+02	-2.689836e+01
2.727205e+02	-2.695105e+01
2.742958e+02	-2.700036e+01
2.758801e+02	-2.705204e+01
2.774736e+02	-2.710285e+01
2.790762e+02	-2.715068e+01
2.806882e+02	-2.720178e+01
2.823094e+02	-2.724795e+01
2.839400e+02	-2.729976e+01
2.855800e+02	-2.735097e+01
2.872295e+02	-2.740202e+01
2.888886e+02	-2.745011e+01
2.905572e+02	-2.750200e+01
2.922354e+02	-2.755176e+01
2.939234e+02	-2.760238e+01
2.956211e+02	-2.765020e+01
2.973286e+02	-2.769965e+01
2.990459e+02	-2.774965e+01
3.007732e+02	-2.780100e+01
3.025104e+02	-2.785784e+01
3.042577e+02	-2.790064e+01
3.060151e+02	-2.795312e+01
3.077826e+02	-2.800115e+01
3.095604e+02	-2.805540e+01
3.113484e+02	-2.810436e+01
3.131467e+02	-2.815336e+01
3.149554e+02	-2.820091e+01
3.167746e+02	-2.824924e+01
3.186043e+02	-2.830335e+01
3.204445e+02	-2.835224e+01
3.222954e+02	-2.840394e+01
3.241570e+02	-2.844957e+01
3.260293e+02	-2.849900e+01
3.279124e+02	-2.855611e+01
3.298064e+02	-2.860723e+01
3.317114e+02	-2.865397e+01
3.336273e+02	-2.870353e+01
3.355544e+02	-2.875308e+01
3.374925e+02	-2.880338e+01
3.394418e+02	-2.885478e+01
3.414024e+02	-2.889927e+01
3.433744e+02	-2.895267e+01
3.453577e+02	-2.900317e+01
3.473525e+02	-2.905624e+01
3.493588e+02	-2.910137e+01
3.513766e+02	-2.915112e+01
3.534062e+02	-2.920328e+01
3.554474e+02	-2.925117e+01
3.575005e+02	-2.929850e+01
3.595654e+02	-2.935240e+01
3.616422e+02	-2.940248e+01
3.637311e+02	-2.945216e+01
3.658320e+02	-2.950401e+01
3.679450e+02	-2.955287e+01
3.700702e+02	-2.960545e+01
3.722077e+02	-2.965344e+01
3.743576e+02	-2.970621e+01
3.765199e+02	-2.974890e+01
3.786946e+02	-2.979886e+01
3.808820e+02	-2.985365e+01
3.830819e+02	-2.990552e+01
3.852946e+02	-2.995147e+01
3.875200e+02	-3.000430e+01
3.897583e+02	-3.005012e+01
3.920096e+02	-3.010639e+01
3.942738e+02	-3.015747e+01
3.965511e+02	-3.020236e+01
3.988416e+02	-3.025689e+01
4.011452e+02	-3.030291e+01
4.034622e+02	-3.035553e+01
4.057926e+02	-3.040847e+01
4.081365e+02	-3.045590e+01
4.104938e+02	-3.050050e+01
4.128648e+02	-3.055455e+01
4.152495e+02	-3.060617e+01
4.176480e+02	-3.065962e+01
4.200603e+02	-3.070618e+01
4.224866e+02	-3.075810e+01
4.249268e+02	-3.080782e+01
4.273812e+02	-3.085997e+01
4.298497e+02	-3.090197e+01
4.323325e+02	-3.095415e+01
4.348297e+02	-3.100145e+01
4.373412e+02	-3.105513e+01
4.398673e+02	-3.110086e+01
4.424079e+02	-3.115801e+01
4.449633e+02	-3.121010e+01
4.475334e+02	-3.125642e+01
4.501183e+02	-3.130532e+01
4.527182e+02	-3.135931e+01
4.553330e+02	-3.140894e+01
4.579630e+02	-3.145998e+01
4.606082e+02	-3.151102e+01
4.632687e+02	-3.156419e+01
4.659445e+02	-3.161167e+01
4.686358e+02	-3.165136e+01
4.713426e+02	-3.171575e+01
4.740650e+02	-3.175825e+01
4.768032e+02	-3.180389e+01
4.795572e+02	-3.186405e+01
4.823271e+02	-3.190594e+01
4.851130e+02	-3.196095e+01
4.879150e+02	-3.200558e+01
4.907332e+02	-3.205828e+01
4.935676e+02	-3.211430e+01
4.964185e+02	-3.215467e+01
4.992858e+02	-3.220367e+01
5.021696e+02	-3.226355e+01
5.050701e+02	-3.231253e+01
5.079874e+02	-3.236207e+01
5.109215e+02	-3.240778e+01
5.138726e+02	-3.246077e+01
5.168407e+02	-3.250812e+01
5.198259e+02	-3.255901e+01
5.228284e+02	-3.260874e+01
5.258482e+02	-3.266054e+01
5.288855e+02	-3.271148e+01
5.319403e+02	-3.275662e+01
5.350128e+02	-3.280934e+01
5.381030e+02	-3.286254e+01
5.412111e+02	-3.290983e+01
5.443371e+02	-3.295384e+01
5.474812e+02	-3.301070e+01
5.506434e+02	-3.306748e+01
5.538239e+02	-3.311497e+01
5.570228e+02	-3.316057e+01
5.602401e+02	-3.321233e+01
5.634760e+02	-3.326009e+01
5.667306e+02	-3.331044e+01
5.700040e+02	-3.335977e+01
5.732964e+02	-3.341876e+01
5.766077e+02	-3.346981e+01
5.799382e+02	-3.351708e+01
5.832879e+02	-3.356096e+01
5.866569e+02	-3.361496e+01
5.900454e+02	-3.366537e+01
5.934535e+02	-3.371499e+01
5.968813e+02	-3.377159e+01
6.003288e+02	-3.381339e+01
6.037963e+02	-3.387549e+01
6.072838e+02	-3.391940e+01
6.107914e+02	-3.396420e+01
6.143194e+02	-3.401264e+01
6.178676e+02	-3.407125e+01
6.214364e+02	-3.411624e+01
6.250258e+02	-3.417396e+01
6.286359e+02	-3.422399e+01
6.322669e+02	-3.427113e+01
6.359189e+02	-3.432131e+01
6.395919e+02	-3.436707e+01
6.432862e+02	-3.442783e+01
6.470017e+02	-3.446930e+01
6.507388e+02	-3.451415e+01
6.544974e+02	-3.456713e+01
6.582778e+02	-3.462173e+01
6.620800e+02	-3.467298e+01
6.659041e+02	-3.471911e+01
6.697504e+02	-3.477669e+01
6.736188e+02	-3.481904e+01
6.775096e+02	-3.487568e+01
6.814229e+02	-3.492910e+01
6.853587e+02	-3.497994e+01
6.893173e+02	-3.502166e+01
6.932988e+02	-3.507184e+01
6.973033e+02	-3.512330e+01
7.013309e+02	-3.519003e+01
