Frequency(Hz)	Magnitude(dB)
1.000000e+01	-1.903657e-05
1.005776e+01	-1.925712e-05
1.011585e+01	-1.948021e-05
1.017428e+01	-1.970590e-05
1.023305e+01	-1.993419e-05
1.029215e+01	-2.016514e-05
1.035160e+01	-2.039876e-05
1.041139e+01	-2.063508e-05
1.047153e+01	-2.087414e-05
1.053201e+01	-2.111597e-05
1.059284e+01	-2.136061e-05
1.065403e+01	-2.160808e-05
1.071556e+01	-2.185841e-05
1.077746e+01	-2.211165e-05
1.083971e+01	-2.236782e-05
1.090232e+01	-2.262695e-05
1.096529e+01	-2.288909e-05
1.102862e+01	-2.315427e-05
1.109232e+01	-2.342252e-05
1.115639e+01	-2.369387e-05
1.122083e+01	-2.396837e-05
1.128564e+01	-2.424605e-05
1.135083e+01	-2.452695e-05
1.141639e+01	-2.481110e-05
1.148233e+01	-2.509854e-05
1.154865e+01	-2.538931e-05
1.161536e+01	-2.568345e-05
1.168245e+01	-2.598100e-05
1.174992e+01	-2.628200e-05
1.181779e+01	-2.658648e-05
1.188605e+01	-2.689449e-05
1.195470e+01	-2.720607e-05
1.202375e+01	-2.752126e-05
1.209320e+01	-2.784010e-05
1.216305e+01	-2.816264e-05
1.223330e+01	-2.848891e-05
1.230396e+01	-2.881896e-05
1.237503e+01	-2.915283e-05
1.244651e+01	-2.949058e-05
1.251840e+01	-2.983223e-05
1.259070e+01	-3.017784e-05
1.266343e+01	-3.052746e-05
1.273657e+01	-3.088113e-05
1.281014e+01	-3.123890e-05
1.288413e+01	-3.160081e-05
1.295855e+01	-3.196691e-05
1.303339e+01	-3.233725e-05
1.310867e+01	-3.271189e-05
1.318439e+01	-3.309086e-05
1.326054e+01	-3.347423e-05
1.333713e+01	-3.386203e-05
1.341417e+01	-3.425433e-05
1.349165e+01	-3.465118e-05
1.356958e+01	-3.505262e-05
1.364795e+01	-3.545871e-05
1.372678e+01	-3.586951e-05
1.380607e+01	-3.628507e-05
1.388581e+01	-3.670544e-05
1.396602e+01	-3.713068e-05
1.404668e+01	-3.756085e-05
1.412782e+01	-3.799600e-05
1.420942e+01	-3.843619e-05
1.429149e+01	-3.888148e-05
1.437404e+01	-3.933193e-05
1.445706e+01	-3.978760e-05
1.454057e+01	-4.024855e-05
1.462455e+01	-4.071484e-05
1.470902e+01	-4.118653e-05
1.479398e+01	-4.166368e-05
1.487943e+01	-4.214637e-05
1.496537e+01	-4.263464e-05
1.505181e+01	-4.312858e-05
1.513875e+01	-4.362823e-05
1.522619e+01	-4.413367e-05
1.531414e+01	-4.464497e-05
1.540259e+01	-4.516219e-05
1.549156e+01	-4.568541e-05
1.558103e+01	-4.621468e-05
1.567103e+01	-4.675009e-05
1.576155e+01	-4.729170e-05
1.585258e+01	-4.783958e-05
1.594415e+01	-4.839381e-05
1.603624e+01	-4.895447e-05
1.612886e+01	-4.952162e-05
1.622202e+01	-5.009533e-05
1.631572e+01	-5.067570e-05
1.640996e+01	-5.126279e-05
1.650474e+01	-5.185668e-05
1.660008e+01	-5.245745e-05
1.669596e+01	-5.306518e-05
1.679239e+01	-5.367995e-05
1.688938e+01	-5.430184e-05
1.698694e+01	-5.493094e-05
1.708505e+01	-5.556733e-05
1.718373e+01	-5.621109e-05
1.728299e+01	-5.686230e-05
1.738281e+01	-5.752107e-05
1.748322e+01	-5.818746e-05
1.758420e+01	-5.886157e-05
1.768576e+01	-5.954349e-05
1.778792e+01	-6.023332e-05
1.789066e+01	-6.093113e-05
1.799399e+01	-6.163703e-05
1.809793e+01	-6.235111e-05
1.820246e+01	-6.307346e-05
1.830760e+01	-6.380418e-05
1.841334e+01	-6.454336e-05
1.851969e+01	-6.529111e-05
1.862666e+01	-6.604752e-05
1.873425e+01	-6.681269e-05
1.884246e+01	-6.758673e-05
1.895129e+01	-6.836973e-05
1.906075e+01	-6.916181e-05
1.917085e+01	-6.996306e-05
1.928158e+01	-7.077360e-05
1.939295e+01	-7.159352e-05
1.950496e+01	-7.242295e-05
1.961762e+01	-7.326198e-05
1.973093e+01	-7.411073e-05
1.984490e+01	-7.496932e-05
1.995952e+01	-7.583785e-05
2.007480e+01	-7.671645e-05
2.019076e+01	-7.760522e-05
2.030738e+01	-7.850429e-05
2.042467e+01	-7.941378e-05
2.054264e+01	-8.033380e-05
2.066130e+01	-8.126448e-05
2.078064e+01	-8.220594e-05
2.090066e+01	-8.315831e-05
2.102139e+01	-8.412172e-05
2.114280e+01	-8.509628e-05
2.126492e+01	-8.608213e-05
2.138775e+01	-8.707941e-05
2.151128e+01	-8.808824e-05
2.163553e+01	-8.910875e-05
2.176050e+01	-9.014109e-05
2.188619e+01	-9.118539e-05
2.201260e+01	-9.224179e-05
2.213974e+01	-9.331043e-05
2.226762e+01	-9.439144e-05
2.239624e+01	-9.548498e-05
2.252560e+01	-9.659119e-05
2.265571e+01	-9.771021e-05
2.278656e+01	-9.884220e-05
2.291818e+01	-9.998730e-05
2.305055e+01	-1.011457e-04
2.318369e+01	-1.023175e-04
2.331760e+01	-1.035028e-04
2.345228e+01	-1.047019e-04
2.358774e+01	-1.059149e-04
2.372398e+01	-1.071419e-04
2.386101e+01	-1.083832e-04
2.399883e+01	-1.096388e-04
2.413745e+01	-1.109090e-04
2.427686e+01	-1.121939e-04
2.441709e+01	-1.134937e-04
2.455812e+01	-1.148085e-04
2.469997e+01	-1.161386e-04
2.484263e+01	-1.174841e-04
2.498612e+01	-1.188451e-04
2.513044e+01	-1.202220e-04
2.527559e+01	-1.216148e-04
2.542158e+01	-1.230237e-04
2.556842e+01	-1.244489e-04
2.571610e+01	-1.258907e-04
2.586463e+01	-1.273491e-04
2.601403e+01	-1.288245e-04
2.616428e+01	-1.303169e-04
2.631541e+01	-1.318267e-04
2.646740e+01	-1.333539e-04
2.662028e+01	-1.348988e-04
2.677404e+01	-1.364616e-04
2.692868e+01	-1.380425e-04
2.708422e+01	-1.396418e-04
2.724066e+01	-1.412595e-04
2.739800e+01	-1.428960e-04
2.755625e+01	-1.445515e-04
2.771541e+01	-1.462262e-04
2.787550e+01	-1.479202e-04
2.803650e+01	-1.496339e-04
2.819844e+01	-1.513674e-04
2.836131e+01	-1.531210e-04
2.852513e+01	-1.548949e-04
2.868989e+01	-1.566894e-04
2.885560e+01	-1.585046e-04
2.902227e+01	-1.603409e-04
2.918990e+01	-1.621985e-04
2.935850e+01	-1.640776e-04
2.952807e+01	-1.659784e-04
2.969863e+01	-1.679013e-04
2.987016e+01	-1.698464e-04
3.004269e+01	-1.718141e-04
3.021622e+01	-1.738046e-04
3.039075e+01	-1.758181e-04
3.056628e+01	-1.778550e-04
3.074283e+01	-1.799154e-04
3.092040e+01	-1.819997e-04
3.109900e+01	-1.841082e-04
3.127862e+01	-1.862411e-04
3.145929e+01	-1.883987e-04
3.164099e+01	-1.905813e-04
3.182375e+01	-1.927892e-04
3.200756e+01	-1.950227e-04
3.219244e+01	-1.972820e-04
3.237838e+01	-1.995675e-04
3.256540e+01	-2.018795e-04
3.275349e+01	-2.042183e-04
3.294268e+01	-2.065842e-04
3.313295e+01	-2.089775e-04
3.332433e+01	-2.113985e-04
3.351681e+01	-2.138475e-04
3.371040e+01	-2.163249e-04
3.390511e+01	-2.188311e-04
3.410094e+01	-2.213662e-04
3.429791e+01	-2.239307e-04
3.449601e+01	-2.265250e-04
3.469526e+01	-2.291492e-04
3.489566e+01	-2.318039e-04
3.509721e+01	-2.344894e-04
3.529993e+01	-2.372059e-04
3.550382e+01	-2.399539e-04
3.570889e+01	-2.427338e-04
3.591515e+01	-2.455459e-04
3.612259e+01	-2.483905e-04
3.633123e+01	-2.512681e-04
3.654108e+01	-2.541790e-04
3.675214e+01	-2.571237e-04
3.696442e+01	-2.601024e-04
3.717792e+01	-2.631157e-04
3.739266e+01	-2.661639e-04
3.760864e+01	-2.692473e-04
3.782587e+01	-2.723666e-04
3.804435e+01	-2.755219e-04
3.826409e+01	-2.787138e-04
3.848510e+01	-2.819427e-04
3.870739e+01	-2.852089e-04
3.893096e+01	-2.885131e-04
3.915583e+01	-2.918554e-04
3.938199e+01	-2.952366e-04
3.960946e+01	-2.986568e-04
3.983824e+01	-3.021167e-04
4.006834e+01	-3.056167e-04
4.029978e+01	-3.091573e-04
4.053255e+01	-3.127388e-04
4.076666e+01	-3.163618e-04
4.100213e+01	-3.200268e-04
4.123896e+01	-3.237343e-04
4.147715e+01	-3.274847e-04
4.171672e+01	-3.312786e-04
4.195767e+01	-3.351164e-04
4.220002e+01	-3.389986e-04
4.244377e+01	-3.429259e-04
4.268892e+01	-3.468986e-04
4.293549e+01	-3.509174e-04
4.318348e+01	-3.549827e-04
4.343291e+01	-3.590951e-04
4.368377e+01	-3.632551e-04
4.393609e+01	-3.674633e-04
4.418986e+01	-3.717203e-04
4.444510e+01	-3.760266e-04
4.470182e+01	-3.803828e-04
4.496001e+01	-3.847895e-04
4.521970e+01	-3.892471e-04
4.548089e+01	-3.937565e-04
4.574358e+01	-3.983180e-04
4.600779e+01	-4.029325e-04
4.627353e+01	-4.076003e-04
4.654081e+01	-4.123223e-04
4.680963e+01	-4.170989e-04
4.708000e+01	-4.219309e-04
4.735193e+01	-4.268188e-04
4.762543e+01	-4.317634e-04
4.790051e+01	-4.367652e-04
4.817719e+01	-4.418250e-04
4.845545e+01	-4.469434e-04
4.873533e+01	-4.521211e-04
4.901682e+01	-4.573588e-04
4.929994e+01	-4.626571e-04
4.958470e+01	-4.680169e-04
4.987110e+01	-4.734387e-04
5.015915e+01	-4.789233e-04
5.044887e+01	-4.844714e-04
5.074026e+01	-4.900839e-04
5.103333e+01	-4.957613e-04
5.132810e+01	-5.015045e-04
5.162457e+01	-5.073142e-04
5.192275e+01	-5.131912e-04
5.222265e+01	-5.191363e-04
5.252429e+01	-5.251503e-04
5.282767e+01	-5.312340e-04
5.313280e+01	-5.373881e-04
5.343969e+01	-5.436135e-04
5.374836e+01	-5.499110e-04
5.405880e+01	-5.562814e-04
5.437105e+01	-5.627257e-04
5.468509e+01	-5.692446e-04
5.500095e+01	-5.758390e-04
5.531863e+01	-5.825098e-04
5.563815e+01	-5.892579e-04
5.595951e+01	-5.960842e-04
5.628273e+01	-6.029895e-04
5.660782e+01	-6.099748e-04
5.693479e+01	-6.170410e-04
5.726364e+01	-6.241891e-04
5.759439e+01	-6.314200e-04
5.792705e+01	-6.387346e-04
5.826164e+01	-6.461340e-04
5.859815e+01	-6.536190e-04
5.893662e+01	-6.611908e-04
5.927703e+01	-6.688503e-04
5.961941e+01	-6.765985e-04
5.996377e+01	-6.844365e-04
6.031012e+01	-6.923652e-04
6.065847e+01	-7.003858e-04
6.100883e+01	-7.084993e-04
6.136121e+01	-7.167068e-04
6.171563e+01	-7.250094e-04
6.207210e+01	-7.334081e-04
6.243063e+01	-7.419041e-04
6.279122e+01	-7.504985e-04
6.315390e+01	-7.591925e-04
6.351868e+01	-7.679872e-04
6.388556e+01	-7.768837e-04
6.425456e+01	-7.858833e-04
6.462569e+01	-7.949872e-04
6.499897e+01	-8.041964e-04
6.537440e+01	-8.135124e-04
6.575200e+01	-8.229363e-04
6.613178e+01	-8.324693e-04
6.651375e+01	-8.421128e-04
6.689793e+01	-8.518679e-04
6.728433e+01	-8.617360e-04
6.767297e+01	-8.717185e-04
6.806384e+01	-8.818166e-04
6.845698e+01	-8.920316e-04
6.885238e+01	-9.023650e-04
6.925007e+01	-9.128180e-04
6.965005e+01	-9.233921e-04
7.005235e+01	-9.340887e-04
7.045697e+01	-9.449092e-04
7.086393e+01	-9.558550e-04
7.127323e+01	-9.669277e-04
7.168490e+01	-9.781285e-04
7.209895e+01	-9.894591e-04
7.251539e+01	-1.000921e-03
7.293424e+01	-1.012516e-03
7.335551e+01	-1.024244e-03
7.377920e+01	-1.036109e-03
7.420535e+01	-1.048111e-03
7.463396e+01	-1.060252e-03
7.506504e+01	-1.072534e-03
7.549861e+01	-1.084958e-03
7.593469e+01	-1.097526e-03
7.637328e+01	-1.110240e-03
7.681441e+01	-1.123101e-03
7.725809e+01	-1.136110e-03
7.770433e+01	-1.149271e-03
7.815315e+01	-1.162584e-03
7.860456e+01	-1.176051e-03
7.905857e+01	-1.189674e-03
7.951521e+01	-1.203454e-03
7.997449e+01	-1.217395e-03
8.043642e+01	-1.231497e-03
8.090102e+01	-1.245762e-03
8.136830e+01	-1.260192e-03
8.183828e+01	-1.274790e-03
8.231097e+01	-1.289556e-03
8.278640e+01	-1.304494e-03
8.326457e+01	-1.319604e-03
8.374550e+01	-1.334890e-03
8.422921e+01	-1.350353e-03
8.471572e+01	-1.365994e-03
8.520503e+01	-1.381817e-03
8.569717e+01	-1.397824e-03
8.619215e+01	-1.414015e-03
8.669000e+01	-1.430394e-03
8.719071e+01	-1.446963e-03
8.769432e+01	-1.463723e-03
8.820084e+01	-1.480678e-03
8.871029e+01	-1.497829e-03
8.922267e+01	-1.515179e-03
8.973802e+01	-1.532730e-03
9.025634e+01	-1.550484e-03
9.077766e+01	-1.568443e-03
9.130199e+01	-1.586611e-03
9.182935e+01	-1.604989e-03
9.235975e+01	-1.623579e-03
9.289321e+01	-1.642385e-03
9.342976e+01	-1.661409e-03
9.396941e+01	-1.680653e-03
9.451217e+01	-1.700120e-03
9.505807e+01	-1.719813e-03
9.560712e+01	-1.739733e-03
9.615934e+01	-1.759884e-03
9.671476e+01	-1.780269e-03
9.727338e+01	-1.800890e-03
9.783522e+01	-1.821749e-03
9.840032e+01	-1.842850e-03
9.896867e+01	-1.864195e-03
9.954031e+01	-1.885788e-03
1.001153e+02	-1.907630e-03
1.006935e+02	-1.929726e-03
1.012751e+02	-1.952077e-03
1.018601e+02	-1.974687e-03
1.024484e+02	-1.997559e-03
1.030402e+02	-2.020696e-03
1.036353e+02	-2.044101e-03
1.042339e+02	-2.067777e-03
1.048360e+02	-2.091727e-03
1.054415e+02	-2.115954e-03
1.060505e+02	-2.140462e-03
1.066631e+02	-2.165254e-03
1.072791e+02	-2.190332e-03
1.078988e+02	-2.215702e-03
1.085220e+02	-2.241364e-03
1.091488e+02	-2.267324e-03
1.097793e+02	-2.293585e-03
1.104133e+02	-2.320150e-03
1.110511e+02	-2.347022e-03
1.116925e+02	-2.374205e-03
1.123376e+02	-2.401704e-03
1.129865e+02	-2.429520e-03
1.136391e+02	-2.457659e-03
1.142955e+02	-2.486123e-03
1.149556e+02	-2.514917e-03
1.156196e+02	-2.544045e-03
1.162874e+02	-2.573510e-03
1.169591e+02	-2.603315e-03
1.176347e+02	-2.633466e-03
1.183141e+02	-2.663966e-03
1.189975e+02	-2.694819e-03
1.196848e+02	-2.726030e-03
1.203761e+02	-2.757602e-03
1.210714e+02	-2.789539e-03
1.217707e+02	-2.821846e-03
1.224740e+02	-2.854527e-03
1.231814e+02	-2.887586e-03
1.238929e+02	-2.921029e-03
1.246085e+02	-2.954858e-03
1.253283e+02	-2.989079e-03
1.260522e+02	-3.023696e-03
1.267802e+02	-3.058714e-03
1.275125e+02	-3.094137e-03
1.282490e+02	-3.129971e-03
1.289898e+02	-3.166219e-03
1.297348e+02	-3.202887e-03
1.304842e+02	-3.239980e-03
1.312378e+02	-3.277501e-03
1.319959e+02	-3.315458e-03
1.327583e+02	-3.353853e-03
1.335251e+02	-3.392693e-03
1.342963e+02	-3.431983e-03
1.350720e+02	-3.471727e-03
1.358522e+02	-3.511932e-03
1.366368e+02	-3.552602e-03
1.374260e+02	-3.593743e-03
1.382198e+02	-3.635360e-03
1.390182e+02	-3.677459e-03
1.398211e+02	-3.720045e-03
1.406287e+02	-3.763124e-03
1.414410e+02	-3.806701e-03
1.422579e+02	-3.850783e-03
1.430796e+02	-3.895376e-03
1.439060e+02	-3.940484e-03
1.447372e+02	-3.986114e-03
1.455732e+02	-4.032273e-03
1.464141e+02	-4.078966e-03
1.472597e+02	-4.126200e-03
1.481103e+02	-4.173980e-03
1.489658e+02	-4.222313e-03
1.498262e+02	-4.271205e-03
1.506916e+02	-4.320664e-03
1.515620e+02	-4.370694e-03
1.524374e+02	-4.421304e-03
1.533179e+02	-4.472500e-03
1.542034e+02	-4.524288e-03
1.550941e+02	-4.576675e-03
1.559899e+02	-4.629669e-03
1.568909e+02	-4.683276e-03
1.577971e+02	-4.737503e-03
1.587085e+02	-4.792358e-03
1.596252e+02	-4.847847e-03
1.605472e+02	-4.903979e-03
1.614745e+02	-4.960761e-03
1.624072e+02	-5.018199e-03
1.633453e+02	-5.076302e-03
1.642887e+02	-5.135077e-03
1.652377e+02	-5.194533e-03
1.661921e+02	-5.254676e-03
1.671520e+02	-5.315516e-03
1.681175e+02	-5.377059e-03
1.690885e+02	-5.439315e-03
1.700651e+02	-5.502291e-03
1.710474e+02	-5.565995e-03
1.720354e+02	-5.630437e-03
1.730291e+02	-5.695624e-03
1.740285e+02	-5.761565e-03
1.750337e+02	-5.828270e-03
1.760446e+02	-5.895746e-03
1.770615e+02	-5.964002e-03
1.780842e+02	-6.033049e-03
1.791128e+02	-6.102894e-03
1.801473e+02	-6.173547e-03
1.811878e+02	-6.245018e-03
1.822344e+02	-6.317315e-03
1.832870e+02	-6.390449e-03
1.843456e+02	-6.464429e-03
1.854104e+02	-6.539264e-03
1.864813e+02	-6.614965e-03
1.875584e+02	-6.691542e-03
1.886418e+02	-6.769005e-03
1.897313e+02	-6.847364e-03
1.908272e+02	-6.926629e-03
1.919294e+02	-7.006810e-03
1.930380e+02	-7.087920e-03
1.941530e+02	-7.169967e-03
1.952744e+02	-7.252963e-03
1.964023e+02	-7.336920e-03
1.975367e+02	-7.421847e-03
1.986777e+02	-7.507756e-03
1.998252e+02	-7.594659e-03
2.009794e+02	-7.682567e-03
2.021403e+02	-7.771492e-03
2.033078e+02	-7.861445e-03
2.044821e+02	-7.952438e-03
2.056632e+02	-8.044484e-03
2.068511e+02	-8.137593e-03
2.080459e+02	-8.231780e-03
2.092475e+02	-8.327056e-03
2.104561e+02	-8.423433e-03
2.116717e+02	-8.520924e-03
2.128943e+02	-8.619543e-03
2.141240e+02	-8.719302e-03
2.153608e+02	-8.820215e-03
2.166047e+02	-8.922294e-03
2.178558e+02	-9.025553e-03
2.191141e+02	-9.130006e-03
2.203797e+02	-9.235667e-03
2.216526e+02	-9.342549e-03
2.229329e+02	-9.450667e-03
2.242205e+02	-9.560034e-03
2.255156e+02	-9.670666e-03
2.268182e+02	-9.782576e-03
2.281283e+02	-9.895780e-03
2.294459e+02	-1.001029e-02
2.307712e+02	-1.012613e-02
2.321041e+02	-1.024330e-02
2.334447e+02	-1.036183e-02
2.347931e+02	-1.048173e-02
2.361493e+02	-1.060302e-02
2.375133e+02	-1.072570e-02
2.388851e+02	-1.084981e-02
2.402649e+02	-1.097535e-02
2.416527e+02	-1.110234e-02
2.430484e+02	-1.123079e-02
2.444523e+02	-1.136073e-02
2.458642e+02	-1.149218e-02
2.472843e+02	-1.162514e-02
2.487126e+02	-1.175963e-02
2.501492e+02	-1.189568e-02
2.515940e+02	-1.203331e-02
2.530472e+02	-1.217252e-02
2.545088e+02	-1.231334e-02
2.559789e+02	-1.245579e-02
2.574574e+02	-1.259988e-02
2.589444e+02	-1.274564e-02
2.604401e+02	-1.289308e-02
2.619444e+02	-1.304223e-02
2.634574e+02	-1.319309e-02
2.649791e+02	-1.334570e-02
2.665096e+02	-1.350008e-02
2.680489e+02	-1.365623e-02
2.695972e+02	-1.381419e-02
2.711544e+02	-1.397397e-02
2.727205e+02	-1.413560e-02
2.742958e+02	-1.429909e-02
2.758801e+02	-1.446448e-02
2.774736e+02	-1.463177e-02
2.790762e+02	-1.480099e-02
2.806882e+02	-1.497217e-02
2.823094e+02	-1.514532e-02
2.839400e+02	-1.532047e-02
2.855800e+02	-1.549764e-02
2.872295e+02	-1.567686e-02
2.888886e+02	-1.585815e-02
2.905572e+02	-1.604153e-02
2.922354e+02	-1.622703e-02
2.939234e+02	-1.641467e-02
2.956211e+02	-1.660447e-02
2.973286e+02	-1.679646e-02
2.990459e+02	-1.699067e-02
3.007732e+02	-1.718712e-02
3.025104e+02	-1.738584e-02
3.042577e+02	-1.758685e-02
3.060151e+02	-1.779018e-02
3.077826e+02	-1.799585e-02
3.095604e+02	-1.820390e-02
3.113484e+02	-1.841435e-02
3.131467e+02	-1.862723e-02
3.149554e+02	-1.884256e-02
3.167746e+02	-1.906037e-02
3.186043e+02	-1.928070e-02
3.204445e+02	-1.950357e-02
3.222954e+02	-1.972901e-02
3.241570e+02	-1.995705e-02
3.260293e+02	-2.018772e-02
3.279124e+02	-2.042104e-02
3.298064e+02	-2.065706e-02
3.317114e+02	-2.089580e-02
3.336273e+02	-2.113729e-02
3.355544e+02	-2.138157e-02
3.374925e+02	-2.162866e-02
3.394418e+02	-2.187860e-02
3.414024e+02	-2.213142e-02
3.433744e+02	-2.238716e-02
3.453577e+02	-2.264584e-02
3.473525e+02	-2.290750e-02
3.493588e+02	-2.317218e-02
3.513766e+02	-2.343991e-02
3.534062e+02	-2.371073e-02
3.554474e+02	-2.398466e-02
3.575005e+02	-2.426175e-02
3.595654e+02	-2.454203e-02
3.616422e+02	-2.482554e-02
3.637311e+02	-2.511232e-02
3.658320e+02	-2.540240e-02
3.679450e+02	-2.569582e-02
3.700702e+02	-2.599261e-02
3.722077e+02	-2.629283e-02
3.743576e+02	-2.659650e-02
3.765199e+02	-2.690367e-02
3.786946e+02	-2.721438e-02
3.808820e+02	-2.752866e-02
3.830819e+02	-2.784656e-02
3.852946e+02	-2.816812e-02
3.875200e+02	-2.849339e-02
3.897583e+02	-2.882239e-02
3.920096e+02	-2.915518e-02
3.942738e+02	-2.949180e-02
3.965511e+02	-2.983229e-02
3.988416e+02	-3.017670e-02
4.011452e+02	-3.052508e-02
4.034622e+02	-3.087746e-02
4.057926e+02	-3.123389e-02
4.081365e+02	-3.159442e-02
4.104938e+02	-3.195910e-02
4.128648e+02	-3.232797e-02
4.152495e+02	-3.270109e-02
4.176480e+02	-3.307849e-02
4.200603e+02	-3.346023e-02
4.224866e+02	-3.384636e-02
4.249268e+02	-3.423693e-02
4.273812e+02	-3.463199e-02
4.298497e+02	-3.503159e-02
4.323325e+02	-3.543578e-02
4.348297e+02	-3.584461e-02
4.373412e+02	-3.625814e-02
4.398673e+02	-3.667642e-02
4.424079e+02	-3.709951e-02
4.449633e+02	-3.752746e-02
4.475334e+02	-3.796032e-02
4.501183e+02	-3.839815e-02
4.527182e+02	-3.884100e-02
4.553330e+02	-3.928895e-02
4.579630e+02	-3.974203e-02
4.606082e+02	-4.020032e-02
4.632687e+02	-4.066386e-02
4.659445e+02	-4.113273e-02
4.686358e+02	-4.160697e-02
4.713426e+02	-4.208666e-02
4.740650e+02	-4.257185e-02
4.768032e+02	-4.306260e-02
4.795572e+02	-4.355899e-02
4.823271e+02	-4.406106e-02
4.851130e+02	-4.456890e-02
4.879150e+02	-4.508255e-02
4.907332e+02	-4.560210e-02
4.935676e+02	-4.612760e-02
4.964185e+02	-4.665912e-02
4.992858e+02	-4.719674e-02
5.021696e+02	-4.774051e-02
5.050701e+02	-4.829052e-02
5.079874e+02	-4.884683e-02
5.109215e+02	-4.940950e-02
5.138726e+02	-4.997863e-02
5.168407e+02	-5.055427e-02
5.198259e+02	-5.113650e-02
5.228284e+02	-5.172539e-02
5.258482e+02	-5.232103e-02
5.288855e+02	-5.292348e-02
5.319403e+02	-5.353283e-02
5.350128e+02	-5.414915e-02
5.381030e+02	-5.477252e-02
5.412111e+02	-5.540302e-02
5.443371e+02	-5.604073e-02
5.474812e+02	-5.668573e-02
5.506434e+02	-5.733811e-02
5.538239e+02	-5.799795e-02
5.570228e+02	-5.866532e-02
5.602401e+02	-5.934033e-02
5.634760e+02	-6.002305e-02
5.667306e+02	-6.071356e-02
5.700040e+02	-6.141197e-02
5.732964e+02	-6.211835e-02
5.766077e+02	-6.283279e-02
5.799382e+02	-6.355540e-02
5.832879e+02	-6.428625e-02
5.866569e+02	-6.502544e-02
5.900454e+02	-6.577307e-02
5.934535e+02	-6.652923e-02
5.968813e+02	-6.729401e-02
6.003288e+02	-6.806752e-02
6.037963e+02	-6.884984e-02
6.072838e+02	-6.964109e-02
6.107914e+02	-7.044135e-02
6.143194e+02	-7.125074e-02
6.178676e+02	-7.206935e-02
6.214364e+02	-7.289728e-02
6.250258e+02	-7.373464e-02
6.286359e+02	-7.458154e-02
6.322669e+02	-7.543809e-02
6.359189e+02	-7.630438e-02
6.395919e+02	-7.718053e-02
6.432862e+02	-7.806665e-02
6.470017e+02	-7.896285e-02
6.507388e+02	-7.986925e-02
6.544974e+02	-8.078595e-02
6.582778e+02	-8.171308e-02
6.620800e+02	-8.265074e-02
6.659041e+02	-8.359906e-02
6.697504e+02	-8.455816e-02
6.736188e+02	-8.552815e-02
6.775096e+02	-8.650915e-02
6.814229e+02	-8.750130e-02
6.853587e+02	-8.850470e-02
6.893173e+02	-8.951949e-02
6.932988e+02	-9.054580e-02
6.973033e+02	-9.158375e-02
7.013309e+02	-9.263347e-02
