Frequency(Hz)	Magnitude(dB)
1.000000e+01	-2.136690e+00
1.005776e+01	-2.156425e+00
1.011585e+01	-2.176027e+00
1.017428e+01	-2.195505e+00
1.023305e+01	-2.215726e+00
1.029215e+01	-2.235774e+00
1.035160e+01	-2.255865e+00
1.041139e+01	-2.276244e+00
1.047153e+01	-2.296883e+00
1.053201e+01	-2.317597e+00
1.059284e+01	-2.338177e+00
1.065403e+01	-2.359103e+00
1.071556e+01	-2.380099e+00
1.077746e+01	-2.401237e+00
1.083971e+01	-2.422268e+00
1.090232e+01	-2.443992e+00
1.096529e+01	-2.465968e+00
1.102862e+01	-2.487395e+00
1.109232e+01	-2.509254e+00
1.115639e+01	-2.531157e+00
1.122083e+01	-2.553534e+00
1.128564e+01	-2.575986e+00
1.135083e+01	-2.598297e+00
1.141639e+01	-2.620919e+00
1.148233e+01	-2.643646e+00
1.154865e+01	-2.666446e+00
1.161536e+01	-2.689455e+00
1.168245e+01	-2.712733e+00
1.174992e+01	-2.735873e+00
1.181779e+01	-2.759306e+00
1.188605e+01	-2.782865e+00
1.195470e+01	-2.806857e+00
1.202375e+01	-2.830870e+00
1.209320e+01	-2.854567e+00
1.216305e+01	-2.878636e+00
1.223330e+01	-2.903156e+00
1.230396e+01	-2.927648e+00
1.237503e+01	-2.952128e+00
1.244651e+01	-2.976838e+00
1.251840e+01	-3.001879e+00
1.259070e+01	-3.027063e+00
1.266343e+01	-3.052169e+00
1.273657e+01	-3.077196e+00
1.281014e+01	-3.102936e+00
1.288413e+01	-3.128674e+00
1.295855e+01	-3.154276e+00
1.303339e+01	-3.180185e+00
1.310867e+01	-3.206073e+00
1.318439e+01	-3.232492e+00
1.326054e+01	-3.258640e+00
1.333713e+01	-3.284993e+00
1.341417e+01	-3.311689e+00
1.349165e+01	-3.338746e+00
1.356958e+01	-3.365460e+00
1.364795e+01	-3.392400e+00
1.372678e+01	-3.419740e+00
1.380607e+01	-3.446911e+00
1.388581e+01	-3.474554e+00
1.396602e+01	-3.502093e+00
1.404668e+01	-3.529562e+00
1.412782e+01	-3.557826e+00
1.420942e+01	-3.585734e+00
1.429149e+01	-3.614190e+00
1.437404e+01	-3.642502e+00
1.445706e+01	-3.670920e+00
1.454057e+01	-3.699466e+00
1.462455e+01	-3.728123e+00
1.470902e+01	-3.757134e+00
1.479398e+01	-3.786004e+00
1.487943e+01	-3.815419e+00
1.496537e+01	-3.844592e+00
1.505181e+01	-3.874102e+00
1.513875e+01	-3.903420e+00
1.522619e+01	-3.933280e+00
1.531414e+01	-3.963050e+00
1.540259e+01	-3.993428e+00
1.549156e+01	-4.023283e+00
1.558103e+01	-4.053748e+00
1.567103e+01	-4.084098e+00
1.576155e+01	-4.114577e+00
1.585258e+01	-4.145307e+00
1.594415e+01	-4.176166e+00
1.603624e+01	-4.207181e+00
1.612886e+01	-4.238331e+00
1.622202e+01	-4.269359e+00
1.631572e+01	-4.300927e+00
1.640996e+01	-4.332511e+00
1.650474e+01	-4.364030e+00
1.660008e+01	-4.395760e+00
1.669596e+01	-4.427789e+00
1.679239e+01	-4.459778e+00
1.688938e+01	-4.491926e+00
1.698694e+01	-4.524527e+00
1.708505e+01	-4.556898e+00
1.718373e+01	-4.588999e+00
1.728299e+01	-4.621839e+00
1.738281e+01	-4.654685e+00
1.748322e+01	-4.687803e+00
1.758420e+01	-4.721139e+00
1.768576e+01	-4.754172e+00
1.778792e+01	-4.787554e+00
1.789066e+01	-4.820564e+00
1.799399e+01	-4.854477e+00
1.809793e+01	-4.888093e+00
1.820246e+01	-4.922294e+00
1.830760e+01	-4.955769e+00
1.841334e+01	-4.990163e+00
1.851969e+01	-5.024369e+00
1.862666e+01	-5.058565e+00
1.873425e+01	-5.093017e+00
1.884246e+01	-5.127920e+00
1.895129e+01	-5.162622e+00
1.906075e+01	-5.197514e+00
1.917085e+01	-5.232474e+00
1.928158e+01	-5.267278e+00
1.939295e+01	-5.302548e+00
1.950496e+01	-5.338301e+00
1.961762e+01	-5.373564e+00
1.973093e+01	-5.409126e+00
1.984490e+01	-5.444945e+00
1.995952e+01	-5.480770e+00
2.007480e+01	-5.516609e+00
2.019076e+01	-5.552674e+00
2.030738e+01	-5.588860e+00
2.042467e+01	-5.624882e+00
2.054264e+01	-5.661300e+00
2.066130e+01	-5.697778e+00
2.078064e+01	-5.734546e+00
2.090066e+01	-5.771048e+00
2.102139e+01	-5.807787e+00
2.114280e+01	-5.844999e+00
2.126492e+01	-5.881763e+00
2.138775e+01	-5.919322e+00
2.151128e+01	-5.956382e+00
2.163553e+01	-5.993891e+00
2.176050e+01	-6.031307e+00
2.188619e+01	-6.068920e+00
2.201260e+01	-6.106590e+00
2.213974e+01	-6.144836e+00
2.226762e+01	-6.182345e+00
2.239624e+01	-6.220466e+00
2.252560e+01	-6.258504e+00
2.265571e+01	-6.296721e+00
2.278656e+01	-6.335178e+00
2.291818e+01	-6.373316e+00
2.305055e+01	-6.412139e+00
2.318369e+01	-6.450871e+00
2.331760e+01	-6.489808e+00
2.345228e+01	-6.528349e+00
2.358774e+01	-6.567417e+00
2.372398e+01	-6.606240e+00
2.386101e+01	-6.645346e+00
2.399883e+01	-6.684449e+00
2.413745e+01	-6.723829e+00
2.427686e+01	-6.763412e+00
2.441709e+01	-6.803178e+00
2.455812e+01	-6.842277e+00
2.469997e+01	-6.882365e+00
2.484263e+01	-6.922240e+00
2.498612e+01	-6.962240e+00
2.513044e+01	-7.002050e+00
2.527559e+01	-7.042463e+00
2.542158e+01	-7.082482e+00
2.556842e+01	-7.122664e+00
2.571610e+01	-7.162804e+00
2.586463e+01	-7.203464e+00
2.601403e+01	-7.244290e+00
2.616428e+01	-7.284751e+00
2.631541e+01	-7.325531e+00
2.646740e+01	-7.366216e+00
2.662028e+01	-7.406936e+00
2.677404e+01	-7.448051e+00
2.692868e+01	-7.489517e+00
2.708422e+01	-7.529961e+00
2.724066e+01	-7.571756e+00
2.739800e+01	-7.612767e+00
2.755625e+01	-7.654201e+00
2.771541e+01	-7.695803e+00
2.787550e+01	-7.737412e+00
2.803650e+01	-7.778534e+00
2.819844e+01	-7.820718e+00
2.836131e+01	-7.862372e+00
2.852513e+01	-7.904241e+00
2.868989e+01	-7.946357e+00
2.885560e+01	-7.988331e+00
2.902227e+01	-8.030622e+00
2.918990e+01	-8.072603e+00
2.935850e+01	-8.114836e+00
2.952807e+01	-8.157791e+00
2.969863e+01	-8.199967e+00
2.987016e+01	-8.242104e+00
3.004269e+01	-8.284405e+00
3.021622e+01	-8.327356e+00
3.039075e+01	-8.370040e+00
3.056628e+01	-8.412886e+00
3.074283e+01	-8.455942e+00
3.092040e+01	-8.498608e+00
3.109900e+01	-8.541762e+00
3.127862e+01	-8.584637e+00
3.145929e+01	-8.627761e+00
3.164099e+01	-8.670700e+00
3.182375e+01	-8.714214e+00
3.200756e+01	-8.757745e+00
3.219244e+01	-8.801423e+00
3.237838e+01	-8.844173e+00
3.256540e+01	-8.888037e+00
3.275349e+01	-8.931646e+00
3.294268e+01	-8.975075e+00
3.313295e+01	-9.018866e+00
3.332433e+01	-9.062733e+00
3.351681e+01	-9.107122e+00
3.371040e+01	-9.150005e+00
3.390511e+01	-9.194756e+00
3.410094e+01	-9.238333e+00
3.429791e+01	-9.282909e+00
3.449601e+01	-9.326844e+00
3.469526e+01	-9.370996e+00
3.489566e+01	-9.415197e+00
3.509721e+01	-9.459486e+00
3.529993e+01	-9.504002e+00
3.550382e+01	-9.548538e+00
3.570889e+01	-9.592968e+00
3.591515e+01	-9.637607e+00
3.612259e+01	-9.682420e+00
3.633123e+01	-9.727311e+00
3.654108e+01	-9.771627e+00
3.675214e+01	-9.816144e+00
3.696442e+01	-9.861153e+00
3.717792e+01	-9.906255e+00
3.739266e+01	-9.951013e+00
3.760864e+01	-9.995640e+00
3.782587e+01	-1.004070e+01
3.804435e+01	-1.008582e+01
3.826409e+01	-1.013137e+01
3.848510e+01	-1.017655e+01
3.870739e+01	-1.022130e+01
3.893096e+01	-1.026704e+01
3.915583e+01	-1.031229e+01
3.938199e+01	-1.035796e+01
3.960946e+01	-1.040301e+01
3.983824e+01	-1.044882e+01
4.006834e+01	-1.049475e+01
4.029978e+01	-1.053947e+01
4.053255e+01	-1.058496e+01
4.076666e+01	-1.063111e+01
4.100213e+01	-1.067698e+01
4.123896e+01	-1.072299e+01
4.147715e+01	-1.076865e+01
4.171672e+01	-1.081455e+01
4.195767e+01	-1.086066e+01
4.220002e+01	-1.090564e+01
4.244377e+01	-1.095225e+01
4.268892e+01	-1.099833e+01
4.293549e+01	-1.104423e+01
4.318348e+01	-1.108999e+01
4.343291e+01	-1.113686e+01
4.368377e+01	-1.118306e+01
4.393609e+01	-1.122895e+01
4.418986e+01	-1.127475e+01
4.444510e+01	-1.132154e+01
4.470182e+01	-1.136889e+01
4.496001e+01	-1.141373e+01
4.521970e+01	-1.146077e+01
4.548089e+01	-1.150742e+01
4.574358e+01	-1.155432e+01
4.600779e+01	-1.160037e+01
4.627353e+01	-1.164722e+01
4.654081e+01	-1.169355e+01
4.680963e+01	-1.173986e+01
4.708000e+01	-1.178651e+01
4.735193e+01	-1.183372e+01
4.762543e+01	-1.188033e+01
4.790051e+01	-1.192731e+01
4.817719e+01	-1.197434e+01
4.845545e+01	-1.202040e+01
4.873533e+01	-1.206823e+01
4.901682e+01	-1.211480e+01
4.929994e+01	-1.216164e+01
4.958470e+01	-1.220863e+01
4.987110e+01	-1.225550e+01
5.015915e+01	-1.230293e+01
5.044887e+01	-1.235003e+01
5.074026e+01	-1.239712e+01
5.103333e+01	-1.244382e+01
5.132810e+01	-1.249139e+01
5.162457e+01	-1.253814e+01
5.192275e+01	-1.258530e+01
5.222265e+01	-1.263338e+01
5.252429e+01	-1.268040e+01
5.282767e+01	-1.272753e+01
5.313280e+01	-1.277548e+01
5.343969e+01	-1.282192e+01
5.374836e+01	-1.286943e+01
5.405880e+01	-1.291743e+01
5.437105e+01	-1.296468e+01
5.468509e+01	-1.301225e+01
5.500095e+01	-1.305976e+01
5.531863e+01	-1.310772e+01
5.563815e+01	-1.315531e+01
5.595951e+01	-1.320201e+01
5.628273e+01	-1.325028e+01
5.660782e+01	-1.329760e+01
5.693479e+01	-1.334643e+01
5.726364e+01	-1.339274e+01
5.759439e+01	-1.344155e+01
5.792705e+01	-1.348878e+01
5.826164e+01	-1.353706e+01
5.859815e+01	-1.358457e+01
5.893662e+01	-1.363241e+01
5.927703e+01	-1.367913e+01
5.961941e+01	-1.372774e+01
5.996377e+01	-1.377618e+01
6.031012e+01	-1.382490e+01
6.065847e+01	-1.387194e+01
6.100883e+01	-1.391967e+01
6.136121e+01	-1.396778e+01
6.171563e+01	-1.401556e+01
6.207210e+01	-1.406477e+01
6.243063e+01	-1.411216e+01
6.279122e+01	-1.416037e+01
6.315390e+01	-1.420864e+01
6.351868e+01	-1.425677e+01
6.388556e+01	-1.430451e+01
6.425456e+01	-1.435277e+01
6.462569e+01	-1.440123e+01
6.499897e+01	-1.444898e+01
6.537440e+01	-1.449832e+01
6.575200e+01	-1.454533e+01
6.613178e+01	-1.459358e+01
6.651375e+01	-1.464230e+01
6.689793e+01	-1.469052e+01
6.728433e+01	-1.473935e+01
6.767297e+01	-1.478680e+01
6.806384e+01	-1.483668e+01
6.845698e+01	-1.488433e+01
6.885238e+01	-1.493306e+01
6.925007e+01	-1.498087e+01
6.965005e+01	-1.502845e+01
7.005235e+01	-1.507580e+01
7.045697e+01	-1.512706e+01
7.086393e+01	-1.517500e+01
7.127323e+01	-1.522356e+01
7.168490e+01	-1.527285e+01
7.209895e+01	-1.532112e+01
7.251539e+01	-1.536904e+01
7.293424e+01	-1.541665e+01
7.335551e+01	-1.546617e+01
7.377920e+01	-1.551514e+01
7.420535e+01	-1.556342e+01
7.463396e+01	-1.561132e+01
7.506504e+01	-1.566036e+01
7.549861e+01	-1.570919e+01
7.593469e+01	-1.575809e+01
7.637328e+01	-1.580771e+01
7.681441e+01	-1.585572e+01
7.725809e+01	-1.590415e+01
7.770433e+01	-1.595335e+01
7.815315e+01	-1.600085e+01
7.860456e+01	-1.605111e+01
7.905857e+01	-1.609952e+01
7.951521e+01	-1.614802e+01
7.997449e+01	-1.619723e+01
8.043642e+01	-1.624635e+01
8.090102e+01	-1.629500e+01
8.136830e+01	-1.634391e+01
8.183828e+01	-1.639216e+01
8.231097e+01	-1.644174e+01
8.278640e+01	-1.649080e+01
8.326457e+01	-1.653912e+01
8.374550e+01	-1.658843e+01
8.422921e+01	-1.663630e+01
8.471572e+01	-1.668600e+01
8.520503e+01	-1.673529e+01
8.569717e+01	-1.678345e+01
8.619215e+01	-1.683327e+01
8.669000e+01	-1.688154e+01
8.719071e+01	-1.693105e+01
8.769432e+01	-1.698098e+01
8.820084e+01	-1.702889e+01
8.871029e+01	-1.707752e+01
8.922267e+01	-1.712649e+01
8.973802e+01	-1.717514e+01
9.025634e+01	-1.722508e+01
9.077766e+01	-1.727357e+01
9.130199e+01	-1.732355e+01
9.182935e+01	-1.737223e+01
9.235975e+01	-1.742173e+01
9.289321e+01	-1.747049e+01
9.342976e+01	-1.751863e+01
9.396941e+01	-1.756923e+01
9.451217e+01	-1.761771e+01
9.505807e+01	-1.766745e+01
9.560712e+01	-1.771580e+01
9.615934e+01	-1.776615e+01
9.671476e+01	-1.781573e+01
9.727338e+01	-1.786437e+01
9.783522e+01	-1.791359e+01
9.840032e+01	-1.796262e+01
9.896867e+01	-1.801193e+01
9.954031e+01	-1.806123e+01
1.001153e+02	-1.811091e+01
1.006935e+02	-1.815918e+01
1.012751e+02	-1.820932e+01
1.018601e+02	-1.825903e+01
1.024484e+02	-1.830648e+01
1.030402e+02	-1.835621e+01
1.036353e+02	-1.840543e+01
1.042339e+02	-1.845635e+01
1.048360e+02	-1.850523e+01
1.054415e+02	-1.855525e+01
1.060505e+02	-1.860313e+01
1.066631e+02	-1.865327e+01
1.072791e+02	-1.870087e+01
1.078988e+02	-1.875146e+01
1.085220e+02	-1.880134e+01
1.091488e+02	-1.884868e+01
1.097793e+02	-1.890063e+01
1.104133e+02	-1.895147e+01
1.110511e+02	-1.899817e+01
1.116925e+02	-1.904900e+01
1.123376e+02	-1.909705e+01
1.129865e+02	-1.914675e+01
1.136391e+02	-1.919567e+01
1.142955e+02	-1.924483e+01
1.149556e+02	-1.929482e+01
1.156196e+02	-1.934324e+01
1.162874e+02	-1.939435e+01
1.169591e+02	-1.944243e+01
1.176347e+02	-1.949297e+01
1.183141e+02	-1.954226e+01
1.189975e+02	-1.959040e+01
1.196848e+02	-1.964155e+01
1.203761e+02	-1.969161e+01
1.210714e+02	-1.973975e+01
1.217707e+02	-1.979086e+01
1.224740e+02	-1.983893e+01
1.231814e+02	-1.989006e+01
1.238929e+02	-1.993701e+01
1.246085e+02	-1.998901e+01
1.253283e+02	-2.003686e+01
1.260522e+02	-2.008557e+01
1.267802e+02	-2.013621e+01
1.275125e+02	-2.018580e+01
1.282490e+02	-2.023575e+01
1.289898e+02	-2.028459e+01
1.297348e+02	-2.033421e+01
1.304842e+02	-2.038429e+01
1.312378e+02	-2.043347e+01
1.319959e+02	-2.048232e+01
1.327583e+02	-2.053247e+01
1.335251e+02	-2.058359e+01
1.342963e+02	-2.063309e+01
1.350720e+02	-2.068115e+01
1.358522e+02	-2.073216e+01
1.366368e+02	-2.078026e+01
1.374260e+02	-2.083158e+01
1.382198e+02	-2.088036e+01
1.390182e+02	-2.093098e+01
1.398211e+02	-2.097987e+01
1.406287e+02	-2.102955e+01
1.414410e+02	-2.107905e+01
1.422579e+02	-2.112928e+01
1.430796e+02	-2.117858e+01
1.439060e+02	-2.122777e+01
1.447372e+02	-2.127610e+01
1.455732e+02	-2.132699e+01
1.464141e+02	-2.137564e+01
1.472597e+02	-2.142818e+01
1.481103e+02	-2.147517e+01
1.489658e+02	-2.152680e+01
1.498262e+02	-2.157574e+01
1.506916e+02	-2.162772e+01
1.515620e+02	-2.167545e+01
1.524374e+02	-2.172548e+01
1.533179e+02	-2.177735e+01
1.542034e+02	-2.182299e+01
1.550941e+02	-2.187511e+01
1.559899e+02	-2.192378e+01
1.568909e+02	-2.197434e+01
1.577971e+02	-2.202281e+01
1.587085e+02	-2.207284e+01
1.596252e+02	-2.212453e+01
1.605472e+02	-2.217265e+01
1.614745e+02	-2.222449e+01
1.624072e+02	-2.227119e+01
1.633453e+02	-2.232339e+01
1.642887e+02	-2.237105e+01
1.652377e+02	-2.241970e+01
1.661921e+02	-2.247278e+01
1.671520e+02	-2.252077e+01
1.681175e+02	-2.257102e+01
1.690885e+02	-2.262245e+01
1.700651e+02	-2.266993e+01
1.710474e+02	-2.272102e+01
1.720354e+02	-2.277004e+01
1.730291e+02	-2.282060e+01
1.740285e+02	-2.286882e+01
1.750337e+02	-2.291846e+01
1.760446e+02	-2.296847e+01
1.770615e+02	-2.301795e+01
1.780842e+02	-2.306659e+01
1.791128e+02	-2.311865e+01
1.801473e+02	-2.316767e+01
1.811878e+02	-2.321605e+01
1.822344e+02	-2.326611e+01
1.832870e+02	-2.331588e+01
1.843456e+02	-2.336862e+01
1.854104e+02	-2.342008e+01
1.864813e+02	-2.346639e+01
1.875584e+02	-2.351499e+01
1.886418e+02	-2.356586e+01
1.897313e+02	-2.361767e+01
1.908272e+02	-2.366581e+01
1.919294e+02	-2.371580e+01
1.930380e+02	-2.376489e+01
1.941530e+02	-2.381698e+01
1.952744e+02	-2.386540e+01
1.964023e+02	-2.391658e+01
1.975367e+02	-2.396562e+01
1.986777e+02	-2.401325e+01
1.998252e+02	-2.406529e+01
2.009794e+02	-2.411854e+01
2.021403e+02	-2.416340e+01
2.033078e+02	-2.421491e+01
2.044821e+02	-2.426486e+01
2.056632e+02	-2.431532e+01
2.068511e+02	-2.436369e+01
2.080459e+02	-2.441561e+01
2.092475e+02	-2.446523e+01
2.104561e+02	-2.451445e+01
2.116717e+02	-2.456460e+01
2.128943e+02	-2.461215e+01
2.141240e+02	-2.466351e+01
2.153608e+02	-2.471326e+01
2.166047e+02	-2.476233e+01
2.178558e+02	-2.481503e+01
2.191141e+02	-2.486420e+01
2.203797e+02	-2.491326e+01
2.216526e+02	-2.496235e+01
2.229329e+02	-2.501327e+01
2.242205e+02	-2.506367e+01
2.255156e+02	-2.511224e+01
2.268182e+02	-2.516302e+01
2.281283e+02	-2.521142e+01
2.294459e+02	-2.526316e+01
2.307712e+02	-2.531293e+01
2.321041e+02	-2.536253e+01
2.334447e+02	-2.541355e+01
2.347931e+02	-2.546282e+01
2.361493e+02	-2.551189e+01
2.375133e+02	-2.555874e+01
2.388851e+02	-2.561130e+01
2.402649e+02	-2.565828e+01
2.416527e+02	-2.571029e+01
2.430484e+02	-2.576151e+01
2.444523e+02	-2.581092e+01
2.458642e+02	-2.585971e+01
2.472843e+02	-2.591277e+01
2.487126e+02	-2.596216e+01
2.501492e+02	-2.601097e+01
2.515940e+02	-2.605959e+01
2.530472e+02	-2.611196e+01
2.545088e+02	-2.616082e+01
2.559789e+02	-2.621034e+01
2.574574e+02	-2.626193e+01
2.589444e+02	-2.631315e+01
2.604401e+02	-2.636263e+01
2.619444e+02	-2.640774e+01
2.634574e+02	-2.646153e+01
2.649791e+02	-2.651099e+01
2.665096e+02	-2.656154e+01
2.680489e+02	-2.661132e+01
2.695972e+02	-2.665970e+01
2.711544e+02	-2.671378e+01
2.727205e+02	-2.676101e+01
2.742958e+02	-2.681287e+01
2.758801e+02	-2.686336e+01
2.774736e+02	-2.691571e+01
2.790762e+02	-2.695657e+01
2.806882e+02	-2.701076e+01
2.823094e+02	-2.705825e+01
2.839400e+02	-2.710646e+01
2.855800e+02	-2.716023e+01
2.872295e+02	-2.721055e+01
2.888886e+02	-2.725882e+01
2.905572e+02	-2.730949e+01
2.922354e+02	-2.736513e+01
2.939234e+02	-2.741035e+01
2.956211e+02	-2.745997e+01
2.973286e+02	-2.751097e+01
2.990459e+02	-2.756427e+01
3.007732e+02	-2.761081e+01
3.025104e+02	-2.765960e+01
3.042577e+02	-2.771517e+01
3.060151e+02	-2.775968e+01
3.077826e+02	-2.781030e+01
3.095604e+02	-2.786126e+01
3.113484e+02	-2.791154e+01
3.131467e+02	-2.796095e+01
3.149554e+02	-2.801079e+01
3.167746e+02	-2.806130e+01
3.186043e+02	-2.811142e+01
3.204445e+02	-2.816242e+01
3.222954e+02	-2.820797e+01
3.241570e+02	-2.825892e+01
3.260293e+02	-2.830749e+01
3.279124e+02	-2.835968e+01
3.298064e+02	-2.841038e+01
3.317114e+02	-2.846400e+01
3.336273e+02	-2.850604e+01
3.355544e+02	-2.856386e+01
3.374925e+02	-2.861377e+01
3.394418e+02	-2.866470e+01
3.414024e+02	-2.871409e+01
3.433744e+02	-2.876092e+01
3.453577e+02	-2.881177e+01
3.473525e+02	-2.886100e+01
3.493588e+02	-2.891676e+01
3.513766e+02	-2.896388e+01
3.534062e+02	-2.900997e+01
3.554474e+02	-2.906112e+01
3.575005e+02	-2.910954e+01
3.595654e+02	-2.916650e+01
3.616422e+02	-2.921316e+01
3.637311e+02	-2.926042e+01
3.658320e+02	-2.931349e+01
3.679450e+02	-2.936007e+01
3.700702e+02	-2.940877e+01
3.722077e+02	-2.946200e+01
3.743576e+02	-2.951295e+01
3.765199e+02	-2.955889e+01
3.786946e+02	-2.961672e+01
3.808820e+02	-2.966399e+01
3.830819e+02	-2.971206e+01
3.852946e+02	-2.976370e+01
3.875200e+02	-2.981156e+01
3.897583e+02	-2.986422e+01
3.920096e+02	-2.991384e+01
3.942738e+02	-2.996328e+01
3.965511e+02	-3.001419e+01
3.988416e+02	-3.006666e+01
4.011452e+02	-3.011338e+01
4.034622e+02	-3.016047e+01
4.057926e+02	-3.021726e+01
4.081365e+02	-3.026075e+01
4.104938e+02	-3.031227e+01
4.128648e+02	-3.036388e+01
4.152495e+02	-3.041443e+01
4.176480e+02	-3.046875e+01
4.200603e+02	-3.050910e+01
4.224866e+02	-3.056279e+01
4.249268e+02	-3.061360e+01
4.273812e+02	-3.066726e+01
4.298497e+02	-3.071813e+01
4.323325e+02	-3.076673e+01
4.348297e+02	-3.081283e+01
4.373412e+02	-3.086743e+01
4.398673e+02	-3.091550e+01
4.424079e+02	-3.096764e+01
4.449633e+02	-3.101414e+01
4.475334e+02	-3.106442e+01
4.501183e+02	-3.111878e+01
4.527182e+02	-3.116987e+01
4.553330e+02	-3.122291e+01
4.579630e+02	-3.126334e+01
4.606082e+02	-3.131447e+01
4.632687e+02	-3.136304e+01
4.659445e+02	-3.141792e+01
4.686358e+02	-3.146554e+01
4.713426e+02	-3.152094e+01
4.740650e+02	-3.156376e+01
4.768032e+02	-3.161693e+01
4.795572e+02	-3.167195e+01
4.823271e+02	-3.171740e+01
4.851130e+02	-3.176943e+01
4.879150e+02	-3.181756e+01
4.907332e+02	-3.186883e+01
4.935676e+02	-3.191894e+01
4.964185e+02	-3.196635e+01
4.992858e+02	-3.201916e+01
5.021696e+02	-3.206854e+01
5.050701e+02	-3.212004e+01
5.079874e+02	-3.216445e+01
5.109215e+02	-3.221806e+01
5.138726e+02	-3.226984e+01
5.168407e+02	-3.231456e+01
5.198259e+02	-3.236605e+01
5.228284e+02	-3.242237e+01
5.258482e+02	-3.247188e+01
5.288855e+02	-3.252406e+01
5.319403e+02	-3.257232e+01
5.350128e+02	-3.262082e+01
5.381030e+02	-3.267083e+01
5.412111e+02	-3.272411e+01
5.443371e+02	-3.276960e+01
5.474812e+02	-3.282205e+01
5.506434e+02	-3.287665e+01
5.538239e+02	-3.292023e+01
5.570228e+02	-3.297125e+01
5.602401e+02	-3.302140e+01
5.634760e+02	-3.307404e+01
5.667306e+02	-3.312983e+01
5.700040e+02	-3.317793e+01
5.732964e+02	-3.322572e+01
5.766077e+02	-3.327121e+01
5.799382e+02	-3.332441e+01
5.832879e+02	-3.337762e+01
5.866569e+02	-3.341812e+01
5.900454e+02	-3.348525e+01
5.934535e+02	-3.352243e+01
5.968813e+02	-3.357117e+01
6.003288e+02	-3.362960e+01
6.037963e+02	-3.367263e+01
6.072838e+02	-3.373121e+01
6.107914e+02	-3.377505e+01
6.143194e+02	-3.382488e+01
6.178676e+02	-3.387633e+01
6.214364e+02	-3.392823e+01
6.250258e+02	-3.397860e+01
6.286359e+02	-3.403093e+01
6.322669e+02	-3.407624e+01
6.359189e+02	-3.413152e+01
6.395919e+02	-3.418423e+01
6.432862e+02	-3.423421e+01
6.470017e+02	-3.428080e+01
6.507388e+02	-3.433360e+01
6.544974e+02	-3.439343e+01
6.582778e+02	-3.442948e+01
6.620800e+02	-3.447794e+01
6.659041e+02	-3.453327e+01
6.697504e+02	-3.458298e+01
6.736188e+02	-3.463468e+01
6.775096e+02	-3.468363e+01
6.814229e+02	-3.474160e+01
6.853587e+02	-3.477871e+01
6.893173e+02	-3.482835e+01
6.932988e+02	-3.489335e+01
6.973033e+02	-3.493008e+01
7.013309e+02	-3.498836e+01
