Frequency(Hz)	Magnitude(dB)
1.000000e+01	-1.828750e-05
1.005776e+01	-1.849937e-05
1.011585e+01	-1.871369e-05
1.017428e+01	-1.893049e-05
1.023305e+01	-1.914981e-05
1.029215e+01	-1.937166e-05
1.035160e+01	-1.959609e-05
1.041139e+01	-1.982311e-05
1.047153e+01	-2.005277e-05
1.053201e+01	-2.028509e-05
1.059284e+01	-2.052009e-05
1.065403e+01	-2.075782e-05
1.071556e+01	-2.099831e-05
1.077746e+01	-2.124158e-05
1.083971e+01	-2.148767e-05
1.090232e+01	-2.173661e-05
1.096529e+01	-2.198843e-05
1.102862e+01	-2.224317e-05
1.109232e+01	-2.250087e-05
1.115639e+01	-2.276154e-05
1.122083e+01	-2.302524e-05
1.128564e+01	-2.329200e-05
1.135083e+01	-2.356184e-05
1.141639e+01	-2.383481e-05
1.148233e+01	-2.411094e-05
1.154865e+01	-2.439027e-05
1.161536e+01	-2.467284e-05
1.168245e+01	-2.495868e-05
1.174992e+01	-2.524783e-05
1.181779e+01	-2.554034e-05
1.188605e+01	-2.583623e-05
1.195470e+01	-2.613555e-05
1.202375e+01	-2.643833e-05
1.209320e+01	-2.674463e-05
1.216305e+01	-2.705447e-05
1.223330e+01	-2.736790e-05
1.230396e+01	-2.768497e-05
1.237503e+01	-2.800570e-05
1.244651e+01	-2.833016e-05
1.251840e+01	-2.865837e-05
1.259070e+01	-2.899038e-05
1.266343e+01	-2.932624e-05
1.273657e+01	-2.966599e-05
1.281014e+01	-3.000968e-05
1.288413e+01	-3.035735e-05
1.295855e+01	-3.070905e-05
1.303339e+01	-3.106482e-05
1.310867e+01	-3.142471e-05
1.318439e+01	-3.178878e-05
1.326054e+01	-3.215706e-05
1.333713e+01	-3.252960e-05
1.341417e+01	-3.290647e-05
1.349165e+01	-3.328770e-05
1.356958e+01	-3.367334e-05
1.364795e+01	-3.406346e-05
1.372678e+01	-3.445809e-05
1.380607e+01	-3.485729e-05
1.388581e+01	-3.526112e-05
1.396602e+01	-3.566963e-05
1.404668e+01	-3.608287e-05
1.412782e+01	-3.650090e-05
1.420942e+01	-3.692377e-05
1.429149e+01	-3.735154e-05
1.437404e+01	-3.778427e-05
1.445706e+01	-3.822201e-05
1.454057e+01	-3.866482e-05
1.462455e+01	-3.911276e-05
1.470902e+01	-3.956589e-05
1.479398e+01	-4.002427e-05
1.487943e+01	-4.048796e-05
1.496537e+01	-4.095702e-05
1.505181e+01	-4.143152e-05
1.513875e+01	-4.191151e-05
1.522619e+01	-4.239707e-05
1.531414e+01	-4.288825e-05
1.540259e+01	-4.338512e-05
1.549156e+01	-4.388774e-05
1.558103e+01	-4.439619e-05
1.567103e+01	-4.491053e-05
1.576155e+01	-4.543083e-05
1.585258e+01	-4.595716e-05
1.594415e+01	-4.648958e-05
1.603624e+01	-4.702817e-05
1.612886e+01	-4.757300e-05
1.622202e+01	-4.812415e-05
1.631572e+01	-4.868167e-05
1.640996e+01	-4.924566e-05
1.650474e+01	-4.981618e-05
1.660008e+01	-5.039332e-05
1.669596e+01	-5.097713e-05
1.679239e+01	-5.156771e-05
1.688938e+01	-5.216514e-05
1.698694e+01	-5.276948e-05
1.708505e+01	-5.338083e-05
1.718373e+01	-5.399925e-05
1.728299e+01	-5.462485e-05
1.738281e+01	-5.525769e-05
1.748322e+01	-5.589786e-05
1.758420e+01	-5.654545e-05
1.768576e+01	-5.720054e-05
1.778792e+01	-5.786322e-05
1.789066e+01	-5.853357e-05
1.799399e+01	-5.921170e-05
1.809793e+01	-5.989768e-05
1.820246e+01	-6.059160e-05
1.830760e+01	-6.129357e-05
1.841334e+01	-6.200367e-05
1.851969e+01	-6.272199e-05
1.862666e+01	-6.344864e-05
1.873425e+01	-6.418370e-05
1.884246e+01	-6.492728e-05
1.895129e+01	-6.567948e-05
1.906075e+01	-6.644039e-05
1.917085e+01	-6.721011e-05
1.928158e+01	-6.798875e-05
1.939295e+01	-6.877642e-05
1.950496e+01	-6.957320e-05
1.961762e+01	-7.037922e-05
1.973093e+01	-7.119458e-05
1.984490e+01	-7.201938e-05
1.995952e+01	-7.285374e-05
2.007480e+01	-7.369776e-05
2.019076e+01	-7.455156e-05
2.030738e+01	-7.541526e-05
2.042467e+01	-7.628896e-05
2.054264e+01	-7.717278e-05
2.066130e+01	-7.806684e-05
2.078064e+01	-7.897126e-05
2.090066e+01	-7.988615e-05
2.102139e+01	-8.081165e-05
2.114280e+01	-8.174786e-05
2.126492e+01	-8.269493e-05
2.138775e+01	-8.365296e-05
2.151128e+01	-8.462209e-05
2.163553e+01	-8.560245e-05
2.176050e+01	-8.659417e-05
2.188619e+01	-8.759738e-05
2.201260e+01	-8.861221e-05
2.213974e+01	-8.963880e-05
2.226762e+01	-9.067728e-05
2.239624e+01	-9.172779e-05
2.252560e+01	-9.279047e-05
2.265571e+01	-9.386546e-05
2.278656e+01	-9.495291e-05
2.291818e+01	-9.605295e-05
2.305055e+01	-9.716574e-05
2.318369e+01	-9.829142e-05
2.331760e+01	-9.943014e-05
2.345228e+01	-1.005820e-04
2.358774e+01	-1.017473e-04
2.372398e+01	-1.029261e-04
2.386101e+01	-1.041185e-04
2.399883e+01	-1.053247e-04
2.413745e+01	-1.065449e-04
2.427686e+01	-1.077792e-04
2.441709e+01	-1.090279e-04
2.455812e+01	-1.102910e-04
2.469997e+01	-1.115687e-04
2.484263e+01	-1.128613e-04
2.498612e+01	-1.141688e-04
2.513044e+01	-1.154914e-04
2.527559e+01	-1.168294e-04
2.542158e+01	-1.181829e-04
2.556842e+01	-1.195521e-04
2.571610e+01	-1.209371e-04
2.586463e+01	-1.223382e-04
2.601403e+01	-1.237555e-04
2.616428e+01	-1.251892e-04
2.631541e+01	-1.266395e-04
2.646740e+01	-1.281066e-04
2.662028e+01	-1.295908e-04
2.677404e+01	-1.310921e-04
2.692868e+01	-1.326108e-04
2.708422e+01	-1.341471e-04
2.724066e+01	-1.357012e-04
2.739800e+01	-1.372733e-04
2.755625e+01	-1.388637e-04
2.771541e+01	-1.404724e-04
2.787550e+01	-1.420998e-04
2.803650e+01	-1.437460e-04
2.819844e+01	-1.454113e-04
2.836131e+01	-1.470959e-04
2.852513e+01	-1.488001e-04
2.868989e+01	-1.505239e-04
2.885560e+01	-1.522677e-04
2.902227e+01	-1.540318e-04
2.918990e+01	-1.558163e-04
2.935850e+01	-1.576214e-04
2.952807e+01	-1.594474e-04
2.969863e+01	-1.612947e-04
2.987016e+01	-1.631633e-04
3.004269e+01	-1.650535e-04
3.021622e+01	-1.669657e-04
3.039075e+01	-1.689000e-04
3.056628e+01	-1.708567e-04
3.074283e+01	-1.728361e-04
3.092040e+01	-1.748384e-04
3.109900e+01	-1.768639e-04
3.127862e+01	-1.789129e-04
3.145929e+01	-1.809856e-04
3.164099e+01	-1.830823e-04
3.182375e+01	-1.852033e-04
3.200756e+01	-1.873489e-04
3.219244e+01	-1.895194e-04
3.237838e+01	-1.917149e-04
3.256540e+01	-1.939360e-04
3.275349e+01	-1.961827e-04
3.294268e+01	-1.984555e-04
3.313295e+01	-2.007546e-04
3.332433e+01	-2.030804e-04
3.351681e+01	-2.054330e-04
3.371040e+01	-2.078130e-04
3.390511e+01	-2.102205e-04
3.410094e+01	-2.126559e-04
3.429791e+01	-2.151195e-04
3.449601e+01	-2.176117e-04
3.469526e+01	-2.201327e-04
3.489566e+01	-2.226829e-04
3.509721e+01	-2.252627e-04
3.529993e+01	-2.278724e-04
3.550382e+01	-2.305123e-04
3.570889e+01	-2.331827e-04
3.591515e+01	-2.358842e-04
3.612259e+01	-2.386169e-04
3.633123e+01	-2.413812e-04
3.654108e+01	-2.441776e-04
3.675214e+01	-2.470064e-04
3.696442e+01	-2.498680e-04
3.717792e+01	-2.527627e-04
3.739266e+01	-2.556909e-04
3.760864e+01	-2.586531e-04
3.782587e+01	-2.616495e-04
3.804435e+01	-2.646807e-04
3.826409e+01	-2.677470e-04
3.848510e+01	-2.708489e-04
3.870739e+01	-2.739866e-04
3.893096e+01	-2.771607e-04
3.915583e+01	-2.803716e-04
3.938199e+01	-2.836197e-04
3.960946e+01	-2.869054e-04
3.983824e+01	-2.902292e-04
4.006834e+01	-2.935914e-04
4.029978e+01	-2.969927e-04
4.053255e+01	-3.004333e-04
4.076666e+01	-3.039138e-04
4.100213e+01	-3.074346e-04
4.123896e+01	-3.109962e-04
4.147715e+01	-3.145990e-04
4.171672e+01	-3.182436e-04
4.195767e+01	-3.219304e-04
4.220002e+01	-3.256599e-04
4.244377e+01	-3.294326e-04
4.268892e+01	-3.332490e-04
4.293549e+01	-3.371097e-04
4.318348e+01	-3.410150e-04
4.343291e+01	-3.449656e-04
4.368377e+01	-3.489620e-04
4.393609e+01	-3.530046e-04
4.418986e+01	-3.570941e-04
4.444510e+01	-3.612310e-04
4.470182e+01	-3.654158e-04
4.496001e+01	-3.696490e-04
4.521970e+01	-3.739314e-04
4.548089e+01	-3.782633e-04
4.574358e+01	-3.826454e-04
4.600779e+01	-3.870782e-04
4.627353e+01	-3.915624e-04
4.654081e+01	-3.960986e-04
4.680963e+01	-4.006873e-04
4.708000e+01	-4.053291e-04
4.735193e+01	-4.100248e-04
4.762543e+01	-4.147748e-04
4.790051e+01	-4.195798e-04
4.817719e+01	-4.244405e-04
4.845545e+01	-4.293576e-04
4.873533e+01	-4.343315e-04
4.901682e+01	-4.393631e-04
4.929994e+01	-4.444530e-04
4.958470e+01	-4.496019e-04
4.987110e+01	-4.548103e-04
5.015915e+01	-4.600792e-04
5.044887e+01	-4.654090e-04
5.074026e+01	-4.708006e-04
5.103333e+01	-4.762547e-04
5.132810e+01	-4.817719e-04
5.162457e+01	-4.873531e-04
5.192275e+01	-4.929989e-04
5.222265e+01	-4.987101e-04
5.252429e+01	-5.044874e-04
5.282767e+01	-5.103317e-04
5.313280e+01	-5.162437e-04
5.343969e+01	-5.222242e-04
5.374836e+01	-5.282739e-04
5.405880e+01	-5.343937e-04
5.437105e+01	-5.405844e-04
5.468509e+01	-5.468469e-04
5.500095e+01	-5.531818e-04
5.531863e+01	-5.595902e-04
5.563815e+01	-5.660728e-04
5.595951e+01	-5.726304e-04
5.628273e+01	-5.792641e-04
5.660782e+01	-5.859746e-04
5.693479e+01	-5.927628e-04
5.726364e+01	-5.996296e-04
5.759439e+01	-6.065760e-04
5.792705e+01	-6.136029e-04
5.826164e+01	-6.207111e-04
5.859815e+01	-6.279017e-04
5.893662e+01	-6.351756e-04
5.927703e+01	-6.425337e-04
5.961941e+01	-6.499771e-04
5.996377e+01	-6.575067e-04
6.031012e+01	-6.651235e-04
6.065847e+01	-6.728286e-04
6.100883e+01	-6.806228e-04
6.136121e+01	-6.885074e-04
6.171563e+01	-6.964833e-04
6.207210e+01	-7.045516e-04
6.243063e+01	-7.127134e-04
6.279122e+01	-7.209697e-04
6.315390e+01	-7.293216e-04
6.351868e+01	-7.377703e-04
6.388556e+01	-7.463168e-04
6.425456e+01	-7.549624e-04
6.462569e+01	-7.637080e-04
6.499897e+01	-7.725550e-04
6.537440e+01	-7.815045e-04
6.575200e+01	-7.905576e-04
6.613178e+01	-7.997156e-04
6.651375e+01	-8.089796e-04
6.689793e+01	-8.183510e-04
6.728433e+01	-8.278309e-04
6.767297e+01	-8.374206e-04
6.806384e+01	-8.471214e-04
6.845698e+01	-8.569346e-04
6.885238e+01	-8.668614e-04
6.925007e+01	-8.769032e-04
6.965005e+01	-8.870614e-04
7.005235e+01	-8.973372e-04
7.045697e+01	-9.077320e-04
7.086393e+01	-9.182472e-04
7.127323e+01	-9.288842e-04
7.168490e+01	-9.396444e-04
7.209895e+01	-9.505292e-04
7.251539e+01	-9.615402e-04
7.293424e+01	-9.726786e-04
7.335551e+01	-9.839461e-04
7.377920e+01	-9.953441e-04
7.420535e+01	-1.006874e-03
7.463396e+01	-1.018538e-03
7.506504e+01	-1.030336e-03
7.549861e+01	-1.042272e-03
7.593469e+01	-1.054345e-03
7.637328e+01	-1.066558e-03
7.681441e+01	-1.078913e-03
7.725809e+01	-1.091411e-03
7.770433e+01	-1.104054e-03
7.815315e+01	-1.116843e-03
7.860456e+01	-1.129780e-03
7.905857e+01	-1.142867e-03
7.951521e+01	-1.156106e-03
7.997449e+01	-1.169498e-03
8.043642e+01	-1.183045e-03
8.090102e+01	-1.196749e-03
8.136830e+01	-1.210612e-03
8.183828e+01	-1.224635e-03
8.231097e+01	-1.238821e-03
8.278640e+01	-1.253171e-03
8.326457e+01	-1.267687e-03
8.374550e+01	-1.282371e-03
8.422921e+01	-1.297226e-03
8.471572e+01	-1.312252e-03
8.520503e+01	-1.327453e-03
8.569717e+01	-1.342829e-03
8.619215e+01	-1.358384e-03
8.669000e+01	-1.374119e-03
8.719071e+01	-1.390036e-03
8.769432e+01	-1.406137e-03
8.820084e+01	-1.422425e-03
8.871029e+01	-1.438901e-03
8.922267e+01	-1.455568e-03
8.973802e+01	-1.472429e-03
9.025634e+01	-1.489484e-03
9.077766e+01	-1.506737e-03
9.130199e+01	-1.524190e-03
9.182935e+01	-1.541845e-03
9.235975e+01	-1.559705e-03
9.289321e+01	-1.577771e-03
9.342976e+01	-1.596047e-03
9.396941e+01	-1.614534e-03
9.451217e+01	-1.633235e-03
9.505807e+01	-1.652153e-03
9.560712e+01	-1.671290e-03
9.615934e+01	-1.690649e-03
9.671476e+01	-1.710231e-03
9.727338e+01	-1.730041e-03
9.783522e+01	-1.750080e-03
9.840032e+01	-1.770351e-03
9.896867e+01	-1.790857e-03
9.954031e+01	-1.811600e-03
1.001153e+02	-1.832583e-03
1.006935e+02	-1.853810e-03
1.012751e+02	-1.875282e-03
1.018601e+02	-1.897003e-03
1.024484e+02	-1.918975e-03
1.030402e+02	-1.941202e-03
1.036353e+02	-1.963686e-03
1.042339e+02	-1.986431e-03
1.048360e+02	-2.009439e-03
1.054415e+02	-2.032713e-03
1.060505e+02	-2.056257e-03
1.066631e+02	-2.080074e-03
1.072791e+02	-2.104166e-03
1.078988e+02	-2.128538e-03
1.085220e+02	-2.153191e-03
1.091488e+02	-2.178130e-03
1.097793e+02	-2.203358e-03
1.104133e+02	-2.228878e-03
1.110511e+02	-2.254693e-03
1.116925e+02	-2.280808e-03
1.123376e+02	-2.307225e-03
1.129865e+02	-2.333947e-03
1.136391e+02	-2.360979e-03
1.142955e+02	-2.388324e-03
1.149556e+02	-2.415986e-03
1.156196e+02	-2.443968e-03
1.162874e+02	-2.472274e-03
1.169591e+02	-2.500907e-03
1.176347e+02	-2.529873e-03
1.183141e+02	-2.559173e-03
1.189975e+02	-2.588813e-03
1.196848e+02	-2.618796e-03
1.203761e+02	-2.649126e-03
1.210714e+02	-2.679808e-03
1.217707e+02	-2.710844e-03
1.224740e+02	-2.742240e-03
1.231814e+02	-2.774000e-03
1.238929e+02	-2.806127e-03
1.246085e+02	-2.838626e-03
1.253283e+02	-2.871501e-03
1.260522e+02	-2.904757e-03
1.267802e+02	-2.938398e-03
1.275125e+02	-2.972429e-03
1.282490e+02	-3.006853e-03
1.289898e+02	-3.041676e-03
1.297348e+02	-3.076902e-03
1.304842e+02	-3.112536e-03
1.312378e+02	-3.148582e-03
1.319959e+02	-3.185046e-03
1.327583e+02	-3.221932e-03
1.335251e+02	-3.259245e-03
1.342963e+02	-3.296990e-03
1.350720e+02	-3.335172e-03
1.358522e+02	-3.373796e-03
1.366368e+02	-3.412866e-03
1.374260e+02	-3.452390e-03
1.382198e+02	-3.492370e-03
1.390182e+02	-3.532814e-03
1.398211e+02	-3.573726e-03
1.406287e+02	-3.615111e-03
1.414410e+02	-3.656975e-03
1.422579e+02	-3.699324e-03
1.430796e+02	-3.742163e-03
1.439060e+02	-3.785498e-03
1.447372e+02	-3.829335e-03
1.455732e+02	-3.873679e-03
1.464141e+02	-3.918536e-03
1.472597e+02	-3.963913e-03
1.481103e+02	-4.009815e-03
1.489658e+02	-4.056248e-03
1.498262e+02	-4.103218e-03
1.506916e+02	-4.150732e-03
1.515620e+02	-4.198796e-03
1.524374e+02	-4.247416e-03
1.533179e+02	-4.296599e-03
1.542034e+02	-4.346352e-03
1.550941e+02	-4.396680e-03
1.559899e+02	-4.447590e-03
1.568909e+02	-4.499090e-03
1.577971e+02	-4.551186e-03
1.587085e+02	-4.603885e-03
1.596252e+02	-4.657193e-03
1.605472e+02	-4.711119e-03
1.614745e+02	-4.765668e-03
1.624072e+02	-4.820849e-03
1.633453e+02	-4.876668e-03
1.642887e+02	-4.933134e-03
1.652377e+02	-4.990252e-03
1.661921e+02	-5.048032e-03
1.671520e+02	-5.106480e-03
1.681175e+02	-5.165605e-03
1.690885e+02	-5.225414e-03
1.700651e+02	-5.285915e-03
1.710474e+02	-5.347115e-03
1.720354e+02	-5.409025e-03
1.730291e+02	-5.471650e-03
1.740285e+02	-5.535000e-03
1.750337e+02	-5.599083e-03
1.760446e+02	-5.663907e-03
1.770615e+02	-5.729482e-03
1.780842e+02	-5.795815e-03
1.791128e+02	-5.862915e-03
1.801473e+02	-5.930792e-03
1.811878e+02	-5.999454e-03
1.822344e+02	-6.068911e-03
1.832870e+02	-6.139171e-03
1.843456e+02	-6.210244e-03
1.854104e+02	-6.282139e-03
1.864813e+02	-6.354866e-03
1.875584e+02	-6.428434e-03
1.886418e+02	-6.502853e-03
1.897313e+02	-6.578133e-03
1.908272e+02	-6.654284e-03
1.919294e+02	-6.731316e-03
1.930380e+02	-6.809239e-03
1.941530e+02	-6.888063e-03
1.952744e+02	-6.967798e-03
1.964023e+02	-7.048456e-03
1.975367e+02	-7.130047e-03
1.986777e+02	-7.212582e-03
1.998252e+02	-7.296071e-03
2.009794e+02	-7.380526e-03
2.021403e+02	-7.465958e-03
2.033078e+02	-7.552377e-03
2.044821e+02	-7.639796e-03
2.056632e+02	-7.728226e-03
2.068511e+02	-7.817679e-03
2.080459e+02	-7.908166e-03
2.092475e+02	-7.999700e-03
2.104561e+02	-8.092292e-03
2.116717e+02	-8.185954e-03
2.128943e+02	-8.280700e-03
2.141240e+02	-8.376541e-03
2.153608e+02	-8.473491e-03
2.166047e+02	-8.571561e-03
2.178558e+02	-8.670765e-03
2.191141e+02	-8.771117e-03
2.203797e+02	-8.872628e-03
2.216526e+02	-8.975313e-03
2.229329e+02	-9.079186e-03
2.242205e+02	-9.184259e-03
2.255156e+02	-9.290547e-03
2.268182e+02	-9.398063e-03
2.281283e+02	-9.506823e-03
2.294459e+02	-9.616839e-03
2.307712e+02	-9.728128e-03
2.321041e+02	-9.840702e-03
2.334447e+02	-9.954578e-03
2.347931e+02	-1.006977e-02
2.361493e+02	-1.018629e-02
2.375133e+02	-1.030416e-02
2.388851e+02	-1.042340e-02
2.402649e+02	-1.054401e-02
2.416527e+02	-1.066601e-02
2.430484e+02	-1.078943e-02
2.444523e+02	-1.091427e-02
2.458642e+02	-1.104055e-02
2.472843e+02	-1.116829e-02
2.487126e+02	-1.129751e-02
2.501492e+02	-1.142822e-02
2.515940e+02	-1.156045e-02
2.530472e+02	-1.169420e-02
2.545088e+02	-1.182949e-02
2.559789e+02	-1.196635e-02
2.574574e+02	-1.210479e-02
2.589444e+02	-1.224483e-02
2.604401e+02	-1.238648e-02
2.619444e+02	-1.252978e-02
2.634574e+02	-1.267473e-02
2.649791e+02	-1.282135e-02
2.665096e+02	-1.296966e-02
2.680489e+02	-1.311969e-02
2.695972e+02	-1.327145e-02
2.711544e+02	-1.342497e-02
2.727205e+02	-1.358026e-02
2.742958e+02	-1.373734e-02
2.758801e+02	-1.389623e-02
2.774736e+02	-1.405696e-02
2.790762e+02	-1.421955e-02
2.806882e+02	-1.438401e-02
2.823094e+02	-1.455038e-02
2.839400e+02	-1.471866e-02
2.855800e+02	-1.488888e-02
2.872295e+02	-1.506108e-02
2.888886e+02	-1.523526e-02
2.905572e+02	-1.541145e-02
2.922354e+02	-1.558967e-02
2.939234e+02	-1.576995e-02
2.956211e+02	-1.595231e-02
2.973286e+02	-1.613678e-02
2.990459e+02	-1.632338e-02
3.007732e+02	-1.651213e-02
3.025104e+02	-1.670305e-02
3.042577e+02	-1.689619e-02
3.060151e+02	-1.709155e-02
3.077826e+02	-1.728916e-02
3.095604e+02	-1.748906e-02
3.113484e+02	-1.769126e-02
3.131467e+02	-1.789579e-02
3.149554e+02	-1.810268e-02
3.167746e+02	-1.831196e-02
3.186043e+02	-1.852366e-02
3.204445e+02	-1.873780e-02
3.222954e+02	-1.895440e-02
3.241570e+02	-1.917351e-02
3.260293e+02	-1.939514e-02
3.279124e+02	-1.961933e-02
3.298064e+02	-1.984610e-02
3.317114e+02	-2.007549e-02
3.336273e+02	-2.030753e-02
3.355544e+02	-2.054224e-02
3.374925e+02	-2.077965e-02
3.394418e+02	-2.101981e-02
3.414024e+02	-2.126273e-02
3.433744e+02	-2.150845e-02
3.453577e+02	-2.175700e-02
3.473525e+02	-2.200842e-02
3.493588e+02	-2.226274e-02
3.513766e+02	-2.251999e-02
3.534062e+02	-2.278020e-02
3.554474e+02	-2.304342e-02
3.575005e+02	-2.330966e-02
3.595654e+02	-2.357897e-02
3.616422e+02	-2.385139e-02
3.637311e+02	-2.412694e-02
3.658320e+02	-2.440567e-02
3.679450e+02	-2.468761e-02
3.700702e+02	-2.497280e-02
3.722077e+02	-2.526127e-02
3.743576e+02	-2.555307e-02
3.765199e+02	-2.584822e-02
3.786946e+02	-2.614678e-02
3.808820e+02	-2.644877e-02
3.830819e+02	-2.675424e-02
3.852946e+02	-2.706322e-02
3.875200e+02	-2.737577e-02
3.897583e+02	-2.769191e-02
3.920096e+02	-2.801169e-02
3.942738e+02	-2.833515e-02
3.965511e+02	-2.866233e-02
3.988416e+02	-2.899328e-02
4.011452e+02	-2.932804e-02
4.034622e+02	-2.966665e-02
4.057926e+02	-3.000915e-02
4.081365e+02	-3.035560e-02
4.104938e+02	-3.070603e-02
4.128648e+02	-3.106049e-02
4.152495e+02	-3.141903e-02
4.176480e+02	-3.178169e-02
4.200603e+02	-3.214852e-02
4.224866e+02	-3.251957e-02
4.249268e+02	-3.289489e-02
4.273812e+02	-3.327452e-02
4.298497e+02	-3.365852e-02
4.323325e+02	-3.404693e-02
4.348297e+02	-3.443980e-02
4.373412e+02	-3.483719e-02
4.398673e+02	-3.523915e-02
4.424079e+02	-3.564573e-02
4.449633e+02	-3.605697e-02
4.475334e+02	-3.647294e-02
4.501183e+02	-3.689369e-02
4.527182e+02	-3.731927e-02
4.553330e+02	-3.774974e-02
4.579630e+02	-3.818516e-02
4.606082e+02	-3.862557e-02
4.632687e+02	-3.907104e-02
4.659445e+02	-3.952162e-02
4.686358e+02	-3.997738e-02
4.713426e+02	-4.043837e-02
4.740650e+02	-4.090464e-02
4.768032e+02	-4.137627e-02
4.795572e+02	-4.185331e-02
4.823271e+02	-4.233583e-02
4.851130e+02	-4.282387e-02
4.879150e+02	-4.331752e-02
4.907332e+02	-4.381683e-02
4.935676e+02	-4.432186e-02
4.964185e+02	-4.483269e-02
4.992858e+02	-4.534937e-02
5.021696e+02	-4.587197e-02
5.050701e+02	-4.640057e-02
5.079874e+02	-4.693522e-02
5.109215e+02	-4.747600e-02
5.138726e+02	-4.802298e-02
5.168407e+02	-4.857622e-02
5.198259e+02	-4.913580e-02
5.228284e+02	-4.970179e-02
5.258482e+02	-5.027426e-02
5.288855e+02	-5.085328e-02
5.319403e+02	-5.143893e-02
5.350128e+02	-5.203129e-02
5.381030e+02	-5.263043e-02
5.412111e+02	-5.323643e-02
5.443371e+02	-5.384936e-02
5.474812e+02	-5.446930e-02
5.506434e+02	-5.509633e-02
5.538239e+02	-5.573053e-02
5.570228e+02	-5.637199e-02
5.602401e+02	-5.702078e-02
5.634760e+02	-5.767699e-02
5.667306e+02	-5.834070e-02
5.700040e+02	-5.901200e-02
5.732964e+02	-5.969097e-02
5.766077e+02	-6.037769e-02
5.799382e+02	-6.107226e-02
5.832879e+02	-6.177476e-02
5.866569e+02	-6.248529e-02
5.900454e+02	-6.320392e-02
5.934535e+02	-6.393076e-02
5.968813e+02	-6.466590e-02
6.003288e+02	-6.540943e-02
6.037963e+02	-6.616144e-02
6.072838e+02	-6.692203e-02
6.107914e+02	-6.769129e-02
6.143194e+02	-6.846933e-02
6.178676e+02	-6.925624e-02
6.214364e+02	-7.005212e-02
6.250258e+02	-7.085707e-02
6.286359e+02	-7.167119e-02
6.322669e+02	-7.249459e-02
6.359189e+02	-7.332737e-02
6.395919e+02	-7.416964e-02
6.432862e+02	-7.502149e-02
6.470017e+02	-7.588304e-02
6.507388e+02	-7.675440e-02
6.544974e+02	-7.763568e-02
6.582778e+02	-7.852698e-02
6.620800e+02	-7.942842e-02
6.659041e+02	-8.034011e-02
6.697504e+02	-8.126217e-02
6.736188e+02	-8.219471e-02
6.775096e+02	-8.313785e-02
6.814229e+02	-8.409171e-02
6.853587e+02	-8.505640e-02
6.893173e+02	-8.603205e-02
6.932988e+02	-8.701878e-02
6.973033e+02	-8.801671e-02
7.013309e+02	-8.902597e-02
