Frequency(Hz)	Magnitude(dB)
1.000000e+01	-1.587572e-05
1.005776e+01	-1.605965e-05
1.011585e+01	-1.624570e-05
1.017428e+01	-1.643391e-05
1.023305e+01	-1.662430e-05
1.029215e+01	-1.681690e-05
1.035160e+01	-1.701173e-05
1.041139e+01	-1.720881e-05
1.047153e+01	-1.740818e-05
1.053201e+01	-1.760986e-05
1.059284e+01	-1.781387e-05
1.065403e+01	-1.802025e-05
1.071556e+01	-1.822902e-05
1.077746e+01	-1.844021e-05
1.083971e+01	-1.865384e-05
1.090232e+01	-1.886995e-05
1.096529e+01	-1.908857e-05
1.102862e+01	-1.930971e-05
1.109232e+01	-1.953342e-05
1.115639e+01	-1.975972e-05
1.122083e+01	-1.998864e-05
1.128564e+01	-2.022021e-05
1.135083e+01	-2.045447e-05
1.141639e+01	-2.069144e-05
1.148233e+01	-2.093116e-05
1.154865e+01	-2.117365e-05
1.161536e+01	-2.141895e-05
1.168245e+01	-2.166710e-05
1.174992e+01	-2.191811e-05
1.181779e+01	-2.217204e-05
1.188605e+01	-2.242891e-05
1.195470e+01	-2.268875e-05
1.202375e+01	-2.295161e-05
1.209320e+01	-2.321751e-05
1.216305e+01	-2.348649e-05
1.223330e+01	-2.375859e-05
1.230396e+01	-2.403384e-05
1.237503e+01	-2.431227e-05
1.244651e+01	-2.459394e-05
1.251840e+01	-2.487886e-05
1.259070e+01	-2.516709e-05
1.266343e+01	-2.545866e-05
1.273657e+01	-2.575360e-05
1.281014e+01	-2.605197e-05
1.288413e+01	-2.635378e-05
1.295855e+01	-2.665910e-05
1.303339e+01	-2.696795e-05
1.310867e+01	-2.728038e-05
1.318439e+01	-2.759643e-05
1.326054e+01	-2.791614e-05
1.333713e+01	-2.823956e-05
1.341417e+01	-2.856672e-05
1.349165e+01	-2.889767e-05
1.356958e+01	-2.923246e-05
1.364795e+01	-2.957112e-05
1.372678e+01	-2.991371e-05
1.380607e+01	-3.026027e-05
1.388581e+01	-3.061084e-05
1.396602e+01	-3.096548e-05
1.404668e+01	-3.132422e-05
1.412782e+01	-3.168712e-05
1.420942e+01	-3.205422e-05
1.429149e+01	-3.242558e-05
1.437404e+01	-3.280123e-05
1.445706e+01	-3.318124e-05
1.454057e+01	-3.356566e-05
1.462455e+01	-3.395452e-05
1.470902e+01	-3.434789e-05
1.479398e+01	-3.474582e-05
1.487943e+01	-3.514836e-05
1.496537e+01	-3.555556e-05
1.505181e+01	-3.596748e-05
1.513875e+01	-3.638417e-05
1.522619e+01	-3.680569e-05
1.531414e+01	-3.723209e-05
1.540259e+01	-3.766344e-05
1.549156e+01	-3.809978e-05
1.558103e+01	-3.854117e-05
1.567103e+01	-3.898768e-05
1.576155e+01	-3.943936e-05
1.585258e+01	-3.989627e-05
1.594415e+01	-4.035848e-05
1.603624e+01	-4.082604e-05
1.612886e+01	-4.129902e-05
1.622202e+01	-4.177748e-05
1.631572e+01	-4.226148e-05
1.640996e+01	-4.275109e-05
1.650474e+01	-4.324637e-05
1.660008e+01	-4.374739e-05
1.669596e+01	-4.425421e-05
1.679239e+01	-4.476691e-05
1.688938e+01	-4.528554e-05
1.698694e+01	-4.581019e-05
1.708505e+01	-4.634091e-05
1.718373e+01	-4.687778e-05
1.728299e+01	-4.742087e-05
1.738281e+01	-4.797025e-05
1.748322e+01	-4.852599e-05
1.758420e+01	-4.908818e-05
1.768576e+01	-4.965687e-05
1.778792e+01	-5.023216e-05
1.789066e+01	-5.081411e-05
1.799399e+01	-5.140280e-05
1.809793e+01	-5.199831e-05
1.820246e+01	-5.260072e-05
1.830760e+01	-5.321012e-05
1.841334e+01	-5.382657e-05
1.851969e+01	-5.445016e-05
1.862666e+01	-5.508097e-05
1.873425e+01	-5.571910e-05
1.884246e+01	-5.636462e-05
1.895129e+01	-5.701761e-05
1.906075e+01	-5.767817e-05
1.917085e+01	-5.834638e-05
1.928158e+01	-5.902234e-05
1.939295e+01	-5.970612e-05
1.950496e+01	-6.039783e-05
1.961762e+01	-6.109755e-05
1.973093e+01	-6.180538e-05
1.984490e+01	-6.252141e-05
1.995952e+01	-6.324573e-05
2.007480e+01	-6.397844e-05
2.019076e+01	-6.471965e-05
2.030738e+01	-6.546944e-05
2.042467e+01	-6.622791e-05
2.054264e+01	-6.699518e-05
2.066130e+01	-6.777133e-05
2.078064e+01	-6.855647e-05
2.090066e+01	-6.935071e-05
2.102139e+01	-7.015415e-05
2.114280e+01	-7.096690e-05
2.126492e+01	-7.178907e-05
2.138775e+01	-7.262075e-05
2.151128e+01	-7.346208e-05
2.163553e+01	-7.431315e-05
2.176050e+01	-7.517408e-05
2.188619e+01	-7.604499e-05
2.201260e+01	-7.692598e-05
2.213974e+01	-7.781718e-05
2.226762e+01	-7.871871e-05
2.239624e+01	-7.963068e-05
2.252560e+01	-8.055321e-05
2.265571e+01	-8.148644e-05
2.278656e+01	-8.243047e-05
2.291818e+01	-8.338544e-05
2.305055e+01	-8.435148e-05
2.318369e+01	-8.532870e-05
2.331760e+01	-8.631725e-05
2.345228e+01	-8.731725e-05
2.358774e+01	-8.832883e-05
2.372398e+01	-8.935214e-05
2.386101e+01	-9.038729e-05
2.399883e+01	-9.143445e-05
2.413745e+01	-9.249373e-05
2.427686e+01	-9.356528e-05
2.441709e+01	-9.464925e-05
2.455812e+01	-9.574578e-05
2.469997e+01	-9.685500e-05
2.484263e+01	-9.797708e-05
2.498612e+01	-9.911216e-05
2.513044e+01	-1.002604e-04
2.527559e+01	-1.014219e-04
2.542158e+01	-1.025969e-04
2.556842e+01	-1.037855e-04
2.571610e+01	-1.049879e-04
2.586463e+01	-1.062042e-04
2.601403e+01	-1.074346e-04
2.616428e+01	-1.086792e-04
2.631541e+01	-1.099383e-04
2.646740e+01	-1.112119e-04
2.662028e+01	-1.125003e-04
2.677404e+01	-1.138037e-04
2.692868e+01	-1.151221e-04
2.708422e+01	-1.164558e-04
2.724066e+01	-1.178049e-04
2.739800e+01	-1.191697e-04
2.755625e+01	-1.205503e-04
2.771541e+01	-1.219469e-04
2.787550e+01	-1.233597e-04
2.803650e+01	-1.247888e-04
2.819844e+01	-1.262345e-04
2.836131e+01	-1.276970e-04
2.852513e+01	-1.291763e-04
2.868989e+01	-1.306729e-04
2.885560e+01	-1.321867e-04
2.902227e+01	-1.337181e-04
2.918990e+01	-1.352673e-04
2.935850e+01	-1.368343e-04
2.952807e+01	-1.384196e-04
2.969863e+01	-1.400232e-04
2.987016e+01	-1.416454e-04
3.004269e+01	-1.432863e-04
3.021622e+01	-1.449463e-04
3.039075e+01	-1.466255e-04
3.056628e+01	-1.483242e-04
3.074283e+01	-1.500426e-04
3.092040e+01	-1.517808e-04
3.109900e+01	-1.535392e-04
3.127862e+01	-1.553180e-04
3.145929e+01	-1.571173e-04
3.164099e+01	-1.589375e-04
3.182375e+01	-1.607788e-04
3.200756e+01	-1.626415e-04
3.219244e+01	-1.645257e-04
3.237838e+01	-1.664317e-04
3.256540e+01	-1.683599e-04
3.275349e+01	-1.703103e-04
3.294268e+01	-1.722834e-04
3.313295e+01	-1.742793e-04
3.332433e+01	-1.762983e-04
3.351681e+01	-1.783407e-04
3.371040e+01	-1.804068e-04
3.390511e+01	-1.824968e-04
3.410094e+01	-1.846111e-04
3.429791e+01	-1.867498e-04
3.449601e+01	-1.889133e-04
3.469526e+01	-1.911019e-04
3.489566e+01	-1.933158e-04
3.509721e+01	-1.955553e-04
3.529993e+01	-1.978209e-04
3.550382e+01	-2.001126e-04
3.570889e+01	-2.024309e-04
3.591515e+01	-2.047761e-04
3.612259e+01	-2.071484e-04
3.633123e+01	-2.095482e-04
3.654108e+01	-2.119758e-04
3.675214e+01	-2.144316e-04
3.696442e+01	-2.169158e-04
3.717792e+01	-2.194287e-04
3.739266e+01	-2.219708e-04
3.760864e+01	-2.245423e-04
3.782587e+01	-2.271437e-04
3.804435e+01	-2.297751e-04
3.826409e+01	-2.324370e-04
3.848510e+01	-2.351298e-04
3.870739e+01	-2.378538e-04
3.893096e+01	-2.406093e-04
3.915583e+01	-2.433968e-04
3.938199e+01	-2.462165e-04
3.960946e+01	-2.490689e-04
3.983824e+01	-2.519544e-04
4.006834e+01	-2.548732e-04
4.029978e+01	-2.578259e-04
4.053255e+01	-2.608128e-04
4.076666e+01	-2.638343e-04
4.100213e+01	-2.668908e-04
4.123896e+01	-2.699827e-04
4.147715e+01	-2.731104e-04
4.171672e+01	-2.762744e-04
4.195767e+01	-2.794750e-04
4.220002e+01	-2.827127e-04
4.244377e+01	-2.859879e-04
4.268892e+01	-2.893010e-04
4.293549e+01	-2.926526e-04
4.318348e+01	-2.960429e-04
4.343291e+01	-2.994725e-04
4.368377e+01	-3.029419e-04
4.393609e+01	-3.064514e-04
4.418986e+01	-3.100016e-04
4.444510e+01	-3.135929e-04
4.470182e+01	-3.172259e-04
4.496001e+01	-3.209009e-04
4.521970e+01	-3.246185e-04
4.548089e+01	-3.283791e-04
4.574358e+01	-3.321834e-04
4.600779e+01	-3.360316e-04
4.627353e+01	-3.399245e-04
4.654081e+01	-3.438625e-04
4.680963e+01	-3.478461e-04
4.708000e+01	-3.518758e-04
4.735193e+01	-3.559522e-04
4.762543e+01	-3.600758e-04
4.790051e+01	-3.642472e-04
4.817719e+01	-3.684670e-04
4.845545e+01	-3.727356e-04
4.873533e+01	-3.770536e-04
4.901682e+01	-3.814217e-04
4.929994e+01	-3.858404e-04
4.958470e+01	-3.903102e-04
4.987110e+01	-3.948319e-04
5.015915e+01	-3.994059e-04
5.044887e+01	-4.040329e-04
5.074026e+01	-4.087135e-04
5.103333e+01	-4.134484e-04
5.132810e+01	-4.182381e-04
5.162457e+01	-4.230832e-04
5.192275e+01	-4.279845e-04
5.222265e+01	-4.329426e-04
5.252429e+01	-4.379581e-04
5.282767e+01	-4.430317e-04
5.313280e+01	-4.481641e-04
5.343969e+01	-4.533559e-04
5.374836e+01	-4.586079e-04
5.405880e+01	-4.639207e-04
5.437105e+01	-4.692951e-04
5.468509e+01	-4.747317e-04
5.500095e+01	-4.802313e-04
5.531863e+01	-4.857946e-04
5.563815e+01	-4.914223e-04
5.595951e+01	-4.971153e-04
5.628273e+01	-5.028742e-04
5.660782e+01	-5.086998e-04
5.693479e+01	-5.145928e-04
5.726364e+01	-5.205542e-04
5.759439e+01	-5.265846e-04
5.792705e+01	-5.326848e-04
5.826164e+01	-5.388557e-04
5.859815e+01	-5.450981e-04
5.893662e+01	-5.514129e-04
5.927703e+01	-5.578007e-04
5.961941e+01	-5.642626e-04
5.996377e+01	-5.707993e-04
6.031012e+01	-5.774117e-04
6.065847e+01	-5.841007e-04
6.100883e+01	-5.908672e-04
6.136121e+01	-5.977121e-04
6.171563e+01	-6.046363e-04
6.207210e+01	-6.116407e-04
6.243063e+01	-6.187262e-04
6.279122e+01	-6.258938e-04
6.315390e+01	-6.331444e-04
6.351868e+01	-6.404790e-04
6.388556e+01	-6.478986e-04
6.425456e+01	-6.554041e-04
6.462569e+01	-6.629966e-04
6.499897e+01	-6.706770e-04
6.537440e+01	-6.784464e-04
6.575200e+01	-6.863057e-04
6.613178e+01	-6.942561e-04
6.651375e+01	-7.022986e-04
6.689793e+01	-7.104343e-04
6.728433e+01	-7.186642e-04
6.767297e+01	-7.269894e-04
6.806384e+01	-7.354111e-04
6.845698e+01	-7.439303e-04
6.885238e+01	-7.525482e-04
6.925007e+01	-7.612659e-04
6.965005e+01	-7.700846e-04
7.005235e+01	-7.790054e-04
7.045697e+01	-7.880296e-04
7.086393e+01	-7.971583e-04
7.127323e+01	-8.063927e-04
7.168490e+01	-8.157341e-04
7.209895e+01	-8.251837e-04
7.251539e+01	-8.347428e-04
7.293424e+01	-8.444126e-04
7.335551e+01	-8.541944e-04
7.377920e+01	-8.640894e-04
7.420535e+01	-8.740992e-04
7.463396e+01	-8.842248e-04
7.506504e+01	-8.944677e-04
7.549861e+01	-9.048293e-04
7.593469e+01	-9.153109e-04
7.637328e+01	-9.259139e-04
7.681441e+01	-9.366397e-04
7.725809e+01	-9.474897e-04
7.770433e+01	-9.584655e-04
7.815315e+01	-9.695683e-04
7.860456e+01	-9.807997e-04
7.905857e+01	-9.921613e-04
7.951521e+01	-1.003654e-03
7.997449e+01	-1.015281e-03
8.043642e+01	-1.027042e-03
8.090102e+01	-1.038939e-03
8.136830e+01	-1.050974e-03
8.183828e+01	-1.063148e-03
8.231097e+01	-1.075463e-03
8.278640e+01	-1.087921e-03
8.326457e+01	-1.100524e-03
8.374550e+01	-1.113272e-03
8.422921e+01	-1.126168e-03
8.471572e+01	-1.139213e-03
8.520503e+01	-1.152409e-03
8.569717e+01	-1.165758e-03
8.619215e+01	-1.179262e-03
8.669000e+01	-1.192922e-03
8.719071e+01	-1.206741e-03
8.769432e+01	-1.220719e-03
8.820084e+01	-1.234860e-03
8.871029e+01	-1.249164e-03
8.922267e+01	-1.263634e-03
8.973802e+01	-1.278271e-03
9.025634e+01	-1.293078e-03
9.077766e+01	-1.308056e-03
9.130199e+01	-1.323208e-03
9.182935e+01	-1.338535e-03
9.235975e+01	-1.354040e-03
9.289321e+01	-1.369725e-03
9.342976e+01	-1.385591e-03
9.396941e+01	-1.401641e-03
9.451217e+01	-1.417876e-03
9.505807e+01	-1.434300e-03
9.560712e+01	-1.450914e-03
9.615934e+01	-1.467721e-03
9.671476e+01	-1.484722e-03
9.727338e+01	-1.501920e-03
9.783522e+01	-1.519317e-03
9.840032e+01	-1.536915e-03
9.896867e+01	-1.554718e-03
9.954031e+01	-1.572726e-03
1.001153e+02	-1.590943e-03
1.006935e+02	-1.609371e-03
1.012751e+02	-1.628013e-03
1.018601e+02	-1.646870e-03
1.024484e+02	-1.665946e-03
1.030402e+02	-1.685243e-03
1.036353e+02	-1.704763e-03
1.042339e+02	-1.724509e-03
1.048360e+02	-1.744484e-03
1.054415e+02	-1.764690e-03
1.060505e+02	-1.785130e-03
1.066631e+02	-1.805807e-03
1.072791e+02	-1.826724e-03
1.078988e+02	-1.847882e-03
1.085220e+02	-1.869286e-03
1.091488e+02	-1.890937e-03
1.097793e+02	-1.912839e-03
1.104133e+02	-1.934995e-03
1.110511e+02	-1.957408e-03
1.116925e+02	-1.980080e-03
1.123376e+02	-2.003014e-03
1.129865e+02	-2.026214e-03
1.136391e+02	-2.049683e-03
1.142955e+02	-2.073423e-03
1.149556e+02	-2.097439e-03
1.156196e+02	-2.121732e-03
1.162874e+02	-2.146307e-03
1.169591e+02	-2.171166e-03
1.176347e+02	-2.196313e-03
1.183141e+02	-2.221752e-03
1.189975e+02	-2.247484e-03
1.196848e+02	-2.273515e-03
1.203761e+02	-2.299848e-03
1.210714e+02	-2.326485e-03
1.217707e+02	-2.353430e-03
1.224740e+02	-2.380688e-03
1.231814e+02	-2.408261e-03
1.238929e+02	-2.436154e-03
1.246085e+02	-2.464369e-03
1.253283e+02	-2.492911e-03
1.260522e+02	-2.521784e-03
1.267802e+02	-2.550991e-03
1.275125e+02	-2.580536e-03
1.282490e+02	-2.610423e-03
1.289898e+02	-2.640657e-03
1.297348e+02	-2.671240e-03
1.304842e+02	-2.702177e-03
1.312378e+02	-2.733473e-03
1.319959e+02	-2.765131e-03
1.327583e+02	-2.797155e-03
1.335251e+02	-2.829550e-03
1.342963e+02	-2.862321e-03
1.350720e+02	-2.895470e-03
1.358522e+02	-2.929004e-03
1.366368e+02	-2.962925e-03
1.374260e+02	-2.997240e-03
1.382198e+02	-3.031951e-03
1.390182e+02	-3.067065e-03
1.398211e+02	-3.102585e-03
1.406287e+02	-3.138516e-03
1.414410e+02	-3.174864e-03
1.422579e+02	-3.211632e-03
1.430796e+02	-3.248825e-03
1.439060e+02	-3.286449e-03
1.447372e+02	-3.324509e-03
1.455732e+02	-3.363010e-03
1.464141e+02	-3.401956e-03
1.472597e+02	-3.441353e-03
1.481103e+02	-3.481205e-03
1.489658e+02	-3.521520e-03
1.498262e+02	-3.562301e-03
1.506916e+02	-3.603554e-03
1.515620e+02	-3.645284e-03
1.524374e+02	-3.687498e-03
1.533179e+02	-3.730200e-03
1.542034e+02	-3.773397e-03
1.550941e+02	-3.817093e-03
1.559899e+02	-3.861296e-03
1.568909e+02	-3.906009e-03
1.577971e+02	-3.951241e-03
1.587085e+02	-3.996996e-03
1.596252e+02	-4.043281e-03
1.605472e+02	-4.090101e-03
1.614745e+02	-4.137463e-03
1.624072e+02	-4.185374e-03
1.633453e+02	-4.233839e-03
1.642887e+02	-4.282865e-03
1.652377e+02	-4.332458e-03
1.661921e+02	-4.382625e-03
1.671520e+02	-4.433373e-03
1.681175e+02	-4.484708e-03
1.690885e+02	-4.536637e-03
1.700651e+02	-4.589168e-03
1.710474e+02	-4.642306e-03
1.720354e+02	-4.696059e-03
1.730291e+02	-4.750434e-03
1.740285e+02	-4.805439e-03
1.750337e+02	-4.861080e-03
1.760446e+02	-4.917365e-03
1.770615e+02	-4.974301e-03
1.780842e+02	-5.031896e-03
1.791128e+02	-5.090158e-03
1.801473e+02	-5.149093e-03
1.811878e+02	-5.208711e-03
1.822344e+02	-5.269019e-03
1.832870e+02	-5.330024e-03
1.843456e+02	-5.391735e-03
1.854104e+02	-5.454161e-03
1.864813e+02	-5.517308e-03
1.875584e+02	-5.581186e-03
1.886418e+02	-5.645804e-03
1.897313e+02	-5.711169e-03
1.908272e+02	-5.777290e-03
1.919294e+02	-5.844176e-03
1.930380e+02	-5.911836e-03
1.941530e+02	-5.980279e-03
1.952744e+02	-6.049514e-03
1.964023e+02	-6.119549e-03
1.975367e+02	-6.190395e-03
1.986777e+02	-6.262061e-03
1.998252e+02	-6.334555e-03
2.009794e+02	-6.407888e-03
2.021403e+02	-6.482070e-03
2.033078e+02	-6.557109e-03
2.044821e+02	-6.633017e-03
2.056632e+02	-6.709803e-03
2.068511e+02	-6.787476e-03
2.080459e+02	-6.866049e-03
2.092475e+02	-6.945530e-03
2.104561e+02	-7.025930e-03
2.116717e+02	-7.107261e-03
2.128943e+02	-7.189532e-03
2.141240e+02	-7.272754e-03
2.153608e+02	-7.356939e-03
2.166047e+02	-7.442098e-03
2.178558e+02	-7.528242e-03
2.191141e+02	-7.615382e-03
2.203797e+02	-7.703529e-03
2.216526e+02	-7.792696e-03
2.229329e+02	-7.882895e-03
2.242205e+02	-7.974136e-03
2.255156e+02	-8.066432e-03
2.268182e+02	-8.159796e-03
2.281283e+02	-8.254239e-03
2.294459e+02	-8.349774e-03
2.307712e+02	-8.446414e-03
2.321041e+02	-8.544171e-03
2.334447e+02	-8.643059e-03
2.347931e+02	-8.743090e-03
2.361493e+02	-8.844277e-03
2.375133e+02	-8.946634e-03
2.388851e+02	-9.050175e-03
2.402649e+02	-9.154913e-03
2.416527e+02	-9.260861e-03
2.430484e+02	-9.368035e-03
2.444523e+02	-9.476447e-03
2.458642e+02	-9.586112e-03
2.472843e+02	-9.697045e-03
2.487126e+02	-9.809261e-03
2.501492e+02	-9.922773e-03
2.515940e+02	-1.003760e-02
2.530472e+02	-1.015375e-02
2.545088e+02	-1.027124e-02
2.559789e+02	-1.039010e-02
2.574574e+02	-1.051032e-02
2.589444e+02	-1.063194e-02
2.604401e+02	-1.075496e-02
2.619444e+02	-1.087940e-02
2.634574e+02	-1.100528e-02
2.649791e+02	-1.113261e-02
2.665096e+02	-1.126142e-02
2.680489e+02	-1.139172e-02
2.695972e+02	-1.152352e-02
2.711544e+02	-1.165684e-02
2.727205e+02	-1.179170e-02
2.742958e+02	-1.192812e-02
2.758801e+02	-1.206612e-02
2.774736e+02	-1.220571e-02
2.790762e+02	-1.234692e-02
2.806882e+02	-1.248975e-02
2.823094e+02	-1.263424e-02
2.839400e+02	-1.278039e-02
2.855800e+02	-1.292824e-02
2.872295e+02	-1.307779e-02
2.888886e+02	-1.322907e-02
2.905572e+02	-1.338209e-02
2.922354e+02	-1.353688e-02
2.939234e+02	-1.369346e-02
2.956211e+02	-1.385185e-02
2.973286e+02	-1.401207e-02
2.990459e+02	-1.417414e-02
3.007732e+02	-1.433807e-02
3.025104e+02	-1.450391e-02
3.042577e+02	-1.467165e-02
3.060151e+02	-1.484134e-02
3.077826e+02	-1.501298e-02
3.095604e+02	-1.518660e-02
3.113484e+02	-1.536223e-02
3.131467e+02	-1.553989e-02
3.149554e+02	-1.571959e-02
3.167746e+02	-1.590137e-02
3.186043e+02	-1.608525e-02
3.204445e+02	-1.627125e-02
3.222954e+02	-1.645940e-02
3.241570e+02	-1.664972e-02
3.260293e+02	-1.684224e-02
3.279124e+02	-1.703697e-02
3.298064e+02	-1.723396e-02
3.317114e+02	-1.743322e-02
3.336273e+02	-1.763477e-02
3.355544e+02	-1.783866e-02
3.374925e+02	-1.804489e-02
3.394418e+02	-1.825350e-02
3.414024e+02	-1.846452e-02
3.433744e+02	-1.867798e-02
3.453577e+02	-1.889389e-02
3.473525e+02	-1.911230e-02
3.493588e+02	-1.933323e-02
3.513766e+02	-1.955670e-02
3.534062e+02	-1.978275e-02
3.554474e+02	-2.001141e-02
3.575005e+02	-2.024271e-02
3.595654e+02	-2.047667e-02
3.616422e+02	-2.071333e-02
3.637311e+02	-2.095272e-02
3.658320e+02	-2.119486e-02
3.679450e+02	-2.143980e-02
3.700702e+02	-2.168757e-02
3.722077e+02	-2.193819e-02
3.743576e+02	-2.219169e-02
3.765199e+02	-2.244812e-02
3.786946e+02	-2.270751e-02
3.808820e+02	-2.296988e-02
3.830819e+02	-2.323528e-02
3.852946e+02	-2.350373e-02
3.875200e+02	-2.377528e-02
3.897583e+02	-2.404996e-02
3.920096e+02	-2.432780e-02
3.942738e+02	-2.460884e-02
3.965511e+02	-2.489312e-02
3.988416e+02	-2.518068e-02
4.011452e+02	-2.547154e-02
4.034622e+02	-2.576576e-02
4.057926e+02	-2.606336e-02
4.081365e+02	-2.636439e-02
4.104938e+02	-2.666889e-02
4.128648e+02	-2.697689e-02
4.152495e+02	-2.728844e-02
4.176480e+02	-2.760358e-02
4.200603e+02	-2.792234e-02
4.224866e+02	-2.824477e-02
4.249268e+02	-2.857092e-02
4.273812e+02	-2.890081e-02
4.298497e+02	-2.923450e-02
4.323325e+02	-2.957204e-02
4.348297e+02	-2.991345e-02
4.373412e+02	-3.025880e-02
4.398673e+02	-3.060811e-02
4.424079e+02	-3.096145e-02
4.449633e+02	-3.131885e-02
4.475334e+02	-3.168035e-02
4.501183e+02	-3.204602e-02
4.527182e+02	-3.241589e-02
4.553330e+02	-3.279002e-02
4.579630e+02	-3.316844e-02
4.606082e+02	-3.355122e-02
4.632687e+02	-3.393839e-02
4.659445e+02	-3.433002e-02
4.686358e+02	-3.472615e-02
4.713426e+02	-3.512682e-02
4.740650e+02	-3.553211e-02
4.768032e+02	-3.594205e-02
4.795572e+02	-3.635670e-02
4.823271e+02	-3.677611e-02
4.851130e+02	-3.720034e-02
4.879150e+02	-3.762944e-02
4.907332e+02	-3.806347e-02
4.935676e+02	-3.850249e-02
4.964185e+02	-3.894654e-02
4.992858e+02	-3.939570e-02
5.021696e+02	-3.985001e-02
5.050701e+02	-4.030953e-02
5.079874e+02	-4.077433e-02
5.109215e+02	-4.124446e-02
5.138726e+02	-4.171999e-02
5.168407e+02	-4.220097e-02
5.198259e+02	-4.268747e-02
5.228284e+02	-4.317955e-02
5.258482e+02	-4.367727e-02
5.288855e+02	-4.418071e-02
5.319403e+02	-4.468991e-02
5.350128e+02	-4.520495e-02
5.381030e+02	-4.572590e-02
5.412111e+02	-4.625282e-02
5.443371e+02	-4.678578e-02
5.474812e+02	-4.732484e-02
5.506434e+02	-4.787008e-02
5.538239e+02	-4.842157e-02
5.570228e+02	-4.897938e-02
5.602401e+02	-4.954357e-02
5.634760e+02	-5.011423e-02
5.667306e+02	-5.069142e-02
5.700040e+02	-5.127522e-02
5.732964e+02	-5.186570e-02
5.766077e+02	-5.246294e-02
5.799382e+02	-5.306702e-02
5.832879e+02	-5.367801e-02
5.866569e+02	-5.429598e-02
5.900454e+02	-5.492103e-02
5.934535e+02	-5.555323e-02
5.968813e+02	-5.619266e-02
6.003288e+02	-5.683940e-02
6.037963e+02	-5.749353e-02
6.072838e+02	-5.815514e-02
6.107914e+02	-5.882431e-02
6.143194e+02	-5.950113e-02
6.178676e+02	-6.018568e-02
6.214364e+02	-6.087806e-02
6.250258e+02	-6.157834e-02
6.286359e+02	-6.228662e-02
6.322669e+02	-6.300298e-02
6.359189e+02	-6.372753e-02
6.395919e+02	-6.446034e-02
6.432862e+02	-6.520152e-02
6.470017e+02	-6.595115e-02
6.507388e+02	-6.670934e-02
6.544974e+02	-6.747618e-02
6.582778e+02	-6.825176e-02
6.620800e+02	-6.903618e-02
6.659041e+02	-6.982955e-02
6.697504e+02	-7.063196e-02
6.736188e+02	-7.144351e-02
6.775096e+02	-7.226431e-02
6.814229e+02	-7.309446e-02
6.853587e+02	-7.393407e-02
6.893173e+02	-7.478324e-02
6.932988e+02	-7.564207e-02
6.973033e+02	-7.651068e-02
7.013309e+02	-7.738918e-02
