Frequency(Hz)	Magnitude(dB)
1.000000e+01	-2.124508e+00
1.005776e+01	-2.144004e+00
1.011585e+01	-2.163733e+00
1.017428e+01	-2.183270e+00
1.023305e+01	-2.203051e+00
1.029215e+01	-2.223280e+00
1.035160e+01	-2.243277e+00
1.041139e+01	-2.263619e+00
1.047153e+01	-2.283794e+00
1.053201e+01	-2.304595e+00
1.059284e+01	-2.325076e+00
1.065403e+01	-2.345851e+00
1.071556e+01	-2.366735e+00
1.077746e+01	-2.387990e+00
1.083971e+01	-2.409224e+00
1.090232e+01	-2.430532e+00
1.096529e+01	-2.452198e+00
1.102862e+01	-2.473666e+00
1.109232e+01	-2.495398e+00
1.115639e+01	-2.517368e+00
1.122083e+01	-2.539559e+00
1.128564e+01	-2.561494e+00
1.135083e+01	-2.584021e+00
1.141639e+01	-2.606418e+00
1.148233e+01	-2.629127e+00
1.154865e+01	-2.651977e+00
1.161536e+01	-2.675147e+00
1.168245e+01	-2.697994e+00
1.174992e+01	-2.721435e+00
1.181779e+01	-2.744701e+00
1.188605e+01	-2.767935e+00
1.195470e+01	-2.791719e+00
1.202375e+01	-2.815555e+00
1.209320e+01	-2.839559e+00
1.216305e+01	-2.863557e+00
1.223330e+01	-2.887837e+00
1.230396e+01	-2.912200e+00
1.237503e+01	-2.936691e+00
1.244651e+01	-2.961449e+00
1.251840e+01	-2.986268e+00
1.259070e+01	-3.011018e+00
1.266343e+01	-3.036382e+00
1.273657e+01	-3.061554e+00
1.281014e+01	-3.086676e+00
1.288413e+01	-3.112479e+00
1.295855e+01	-3.137931e+00
1.303339e+01	-3.163863e+00
1.310867e+01	-3.189540e+00
1.318439e+01	-3.215975e+00
1.326054e+01	-3.242014e+00
1.333713e+01	-3.268574e+00
1.341417e+01	-3.295030e+00
1.349165e+01	-3.321691e+00
1.356958e+01	-3.348465e+00
1.364795e+01	-3.375423e+00
1.372678e+01	-3.402611e+00
1.380607e+01	-3.429751e+00
1.388581e+01	-3.457072e+00
1.396602e+01	-3.484770e+00
1.404668e+01	-3.512602e+00
1.412782e+01	-3.540275e+00
1.420942e+01	-3.567991e+00
1.429149e+01	-3.596234e+00
1.437404e+01	-3.624620e+00
1.445706e+01	-3.652876e+00
1.454057e+01	-3.681334e+00
1.462455e+01	-3.709909e+00
1.470902e+01	-3.739033e+00
1.479398e+01	-3.767843e+00
1.487943e+01	-3.796972e+00
1.496537e+01	-3.826384e+00
1.505181e+01	-3.855532e+00
1.513875e+01	-3.884922e+00
1.522619e+01	-3.914484e+00
1.531414e+01	-3.944374e+00
1.540259e+01	-3.974555e+00
1.549156e+01	-4.004357e+00
1.558103e+01	-4.034451e+00
1.567103e+01	-4.065090e+00
1.576155e+01	-4.095350e+00
1.585258e+01	-4.126115e+00
1.594415e+01	-4.156877e+00
1.603624e+01	-4.187766e+00
1.612886e+01	-4.218710e+00
1.622202e+01	-4.249962e+00
1.631572e+01	-4.281063e+00
1.640996e+01	-4.312485e+00
1.650474e+01	-4.344077e+00
1.660008e+01	-4.375828e+00
1.669596e+01	-4.407561e+00
1.679239e+01	-4.439479e+00
1.688938e+01	-4.471532e+00
1.698694e+01	-4.504271e+00
1.708505e+01	-4.536230e+00
1.718373e+01	-4.568671e+00
1.728299e+01	-4.601599e+00
1.738281e+01	-4.633998e+00
1.748322e+01	-4.667168e+00
1.758420e+01	-4.700125e+00
1.768576e+01	-4.733124e+00
1.778792e+01	-4.766381e+00
1.789066e+01	-4.799759e+00
1.799399e+01	-4.833609e+00
1.809793e+01	-4.866960e+00
1.820246e+01	-4.900898e+00
1.830760e+01	-4.934645e+00
1.841334e+01	-4.968650e+00
1.851969e+01	-5.003145e+00
1.862666e+01	-5.037395e+00
1.873425e+01	-5.071570e+00
1.884246e+01	-5.105991e+00
1.895129e+01	-5.140741e+00
1.906075e+01	-5.175539e+00
1.917085e+01	-5.210525e+00
1.928158e+01	-5.245497e+00
1.939295e+01	-5.280421e+00
1.950496e+01	-5.315801e+00
1.961762e+01	-5.351166e+00
1.973093e+01	-5.386631e+00
1.984490e+01	-5.422468e+00
1.995952e+01	-5.457756e+00
2.007480e+01	-5.493896e+00
2.019076e+01	-5.529939e+00
2.030738e+01	-5.565904e+00
2.042467e+01	-5.602214e+00
2.054264e+01	-5.638288e+00
2.066130e+01	-5.674707e+00
2.078064e+01	-5.711462e+00
2.090066e+01	-5.747982e+00
2.102139e+01	-5.784690e+00
2.114280e+01	-5.821607e+00
2.126492e+01	-5.858556e+00
2.138775e+01	-5.895597e+00
2.151128e+01	-5.932847e+00
2.163553e+01	-5.970140e+00
2.176050e+01	-6.007599e+00
2.188619e+01	-6.045280e+00
2.201260e+01	-6.082761e+00
2.213974e+01	-6.120555e+00
2.226762e+01	-6.158187e+00
2.239624e+01	-6.196835e+00
2.252560e+01	-6.234507e+00
2.265571e+01	-6.272489e+00
2.278656e+01	-6.311283e+00
2.291818e+01	-6.349630e+00
2.305055e+01	-6.387934e+00
2.318369e+01	-6.426116e+00
2.331760e+01	-6.464923e+00
2.345228e+01	-6.503885e+00
2.358774e+01	-6.543010e+00
2.372398e+01	-6.581817e+00
2.386101e+01	-6.620696e+00
2.399883e+01	-6.660408e+00
2.413745e+01	-6.699422e+00
2.427686e+01	-6.738810e+00
2.441709e+01	-6.778090e+00
2.455812e+01	-6.817603e+00
2.469997e+01	-6.857506e+00
2.484263e+01	-6.897301e+00
2.498612e+01	-6.937160e+00
2.513044e+01	-6.977137e+00
2.527559e+01	-7.017060e+00
2.542158e+01	-7.057196e+00
2.556842e+01	-7.097450e+00
2.571610e+01	-7.137814e+00
2.586463e+01	-7.178045e+00
2.601403e+01	-7.218501e+00
2.616428e+01	-7.259513e+00
2.631541e+01	-7.299793e+00
2.646740e+01	-7.340629e+00
2.662028e+01	-7.381288e+00
2.677404e+01	-7.422435e+00
2.692868e+01	-7.463827e+00
2.708422e+01	-7.504180e+00
2.724066e+01	-7.546031e+00
2.739800e+01	-7.587003e+00
2.755625e+01	-7.628141e+00
2.771541e+01	-7.669513e+00
2.787550e+01	-7.711035e+00
2.803650e+01	-7.752958e+00
2.819844e+01	-7.794326e+00
2.836131e+01	-7.836142e+00
2.852513e+01	-7.878083e+00
2.868989e+01	-7.919868e+00
2.885560e+01	-7.961818e+00
2.902227e+01	-8.003698e+00
2.918990e+01	-8.045989e+00
2.935850e+01	-8.088163e+00
2.952807e+01	-8.130363e+00
2.969863e+01	-8.173155e+00
2.987016e+01	-8.215654e+00
3.004269e+01	-8.257830e+00
3.021622e+01	-8.300922e+00
3.039075e+01	-8.343455e+00
3.056628e+01	-8.385781e+00
3.074283e+01	-8.429170e+00
3.092040e+01	-8.471557e+00
3.109900e+01	-8.514563e+00
3.127862e+01	-8.557508e+00
3.145929e+01	-8.600585e+00
3.164099e+01	-8.643657e+00
3.182375e+01	-8.686733e+00
3.200756e+01	-8.730412e+00
3.219244e+01	-8.773707e+00
3.237838e+01	-8.817105e+00
3.256540e+01	-8.860644e+00
3.275349e+01	-8.904129e+00
3.294268e+01	-8.947571e+00
3.313295e+01	-8.991215e+00
3.332433e+01	-9.035362e+00
3.351681e+01	-9.078903e+00
3.371040e+01	-9.122782e+00
3.390511e+01	-9.167231e+00
3.410094e+01	-9.210436e+00
3.429791e+01	-9.255079e+00
3.449601e+01	-9.299299e+00
3.469526e+01	-9.343021e+00
3.489566e+01	-9.387089e+00
3.509721e+01	-9.431384e+00
3.529993e+01	-9.475964e+00
3.550382e+01	-9.520615e+00
3.570889e+01	-9.564814e+00
3.591515e+01	-9.609449e+00
3.612259e+01	-9.654332e+00
3.633123e+01	-9.698539e+00
3.654108e+01	-9.743232e+00
3.675214e+01	-9.788318e+00
3.696442e+01	-9.832752e+00
3.717792e+01	-9.877748e+00
3.739266e+01	-9.922917e+00
3.760864e+01	-9.967369e+00
3.782587e+01	-1.001217e+01
3.804435e+01	-1.005779e+01
3.826409e+01	-1.010295e+01
3.848510e+01	-1.014811e+01
3.870739e+01	-1.019369e+01
3.893096e+01	-1.023866e+01
3.915583e+01	-1.028357e+01
3.938199e+01	-1.032885e+01
3.960946e+01	-1.037474e+01
3.983824e+01	-1.042035e+01
4.006834e+01	-1.046604e+01
4.029978e+01	-1.051152e+01
4.053255e+01	-1.055667e+01
4.076666e+01	-1.060249e+01
4.100213e+01	-1.064795e+01
4.123896e+01	-1.069415e+01
4.147715e+01	-1.073988e+01
4.171672e+01	-1.078516e+01
4.195767e+01	-1.083144e+01
4.220002e+01	-1.087739e+01
4.244377e+01	-1.092303e+01
4.268892e+01	-1.096883e+01
4.293549e+01	-1.101568e+01
4.318348e+01	-1.106124e+01
4.343291e+01	-1.110744e+01
4.368377e+01	-1.115363e+01
4.393609e+01	-1.120009e+01
4.418986e+01	-1.124633e+01
4.444510e+01	-1.129206e+01
4.470182e+01	-1.133877e+01
4.496001e+01	-1.138483e+01
4.521970e+01	-1.143140e+01
4.548089e+01	-1.147844e+01
4.574358e+01	-1.152443e+01
4.600779e+01	-1.157113e+01
4.627353e+01	-1.161724e+01
4.654081e+01	-1.166426e+01
4.680963e+01	-1.171116e+01
4.708000e+01	-1.175735e+01
4.735193e+01	-1.180455e+01
4.762543e+01	-1.185117e+01
4.790051e+01	-1.189763e+01
4.817719e+01	-1.194490e+01
4.845545e+01	-1.199074e+01
4.873533e+01	-1.203781e+01
4.901682e+01	-1.208455e+01
4.929994e+01	-1.213221e+01
4.958470e+01	-1.217916e+01
4.987110e+01	-1.222648e+01
5.015915e+01	-1.227362e+01
5.044887e+01	-1.232023e+01
5.074026e+01	-1.236682e+01
5.103333e+01	-1.241458e+01
5.132810e+01	-1.246124e+01
5.162457e+01	-1.250826e+01
5.192275e+01	-1.255595e+01
5.222265e+01	-1.260357e+01
5.252429e+01	-1.265075e+01
5.282767e+01	-1.269745e+01
5.313280e+01	-1.274540e+01
5.343969e+01	-1.279253e+01
5.374836e+01	-1.284025e+01
5.405880e+01	-1.288728e+01
5.437105e+01	-1.293433e+01
5.468509e+01	-1.298240e+01
5.500095e+01	-1.303031e+01
5.531863e+01	-1.307737e+01
5.563815e+01	-1.312486e+01
5.595951e+01	-1.317159e+01
5.628273e+01	-1.322036e+01
5.660782e+01	-1.326835e+01
5.693479e+01	-1.331544e+01
5.726364e+01	-1.336339e+01
5.759439e+01	-1.341089e+01
5.792705e+01	-1.345862e+01
5.826164e+01	-1.350660e+01
5.859815e+01	-1.355493e+01
5.893662e+01	-1.360255e+01
5.927703e+01	-1.365048e+01
5.961941e+01	-1.369764e+01
5.996377e+01	-1.374614e+01
6.031012e+01	-1.379503e+01
6.065847e+01	-1.384174e+01
6.100883e+01	-1.389030e+01
6.136121e+01	-1.393812e+01
6.171563e+01	-1.398602e+01
6.207210e+01	-1.403398e+01
6.243063e+01	-1.408322e+01
6.279122e+01	-1.413006e+01
6.315390e+01	-1.417822e+01
6.351868e+01	-1.422621e+01
6.388556e+01	-1.427431e+01
6.425456e+01	-1.432248e+01
6.462569e+01	-1.437081e+01
6.499897e+01	-1.441940e+01
6.537440e+01	-1.446749e+01
6.575200e+01	-1.451568e+01
6.613178e+01	-1.456414e+01
6.651375e+01	-1.461226e+01
6.689793e+01	-1.465991e+01
6.728433e+01	-1.470858e+01
6.767297e+01	-1.475712e+01
6.806384e+01	-1.480472e+01
6.845698e+01	-1.485346e+01
6.885238e+01	-1.490301e+01
6.925007e+01	-1.495086e+01
6.965005e+01	-1.499906e+01
7.005235e+01	-1.504692e+01
7.045697e+01	-1.509553e+01
7.086393e+01	-1.514414e+01
7.127323e+01	-1.519177e+01
7.168490e+01	-1.524138e+01
7.209895e+01	-1.529007e+01
7.251539e+01	-1.533914e+01
7.293424e+01	-1.538725e+01
7.335551e+01	-1.543576e+01
7.377920e+01	-1.548486e+01
7.420535e+01	-1.553375e+01
7.463396e+01	-1.558186e+01
7.506504e+01	-1.562993e+01
7.549861e+01	-1.567900e+01
7.593469e+01	-1.572809e+01
7.637328e+01	-1.577659e+01
7.681441e+01	-1.582423e+01
7.725809e+01	-1.587404e+01
7.770433e+01	-1.592235e+01
7.815315e+01	-1.597170e+01
7.860456e+01	-1.601990e+01
7.905857e+01	-1.606788e+01
7.951521e+01	-1.611707e+01
7.997449e+01	-1.616665e+01
8.043642e+01	-1.621503e+01
8.090102e+01	-1.626408e+01
8.136830e+01	-1.631371e+01
8.183828e+01	-1.636229e+01
8.231097e+01	-1.641024e+01
8.278640e+01	-1.645882e+01
8.326457e+01	-1.650807e+01
8.374550e+01	-1.655721e+01
8.422921e+01	-1.660623e+01
8.471572e+01	-1.665578e+01
8.520503e+01	-1.670369e+01
8.569717e+01	-1.675287e+01
8.619215e+01	-1.680203e+01
8.669000e+01	-1.685136e+01
8.719071e+01	-1.690012e+01
8.769432e+01	-1.694970e+01
8.820084e+01	-1.699867e+01
8.871029e+01	-1.704771e+01
8.922267e+01	-1.709661e+01
8.973802e+01	-1.714480e+01
9.025634e+01	-1.719501e+01
9.077766e+01	-1.724265e+01
9.130199e+01	-1.729231e+01
9.182935e+01	-1.734083e+01
9.235975e+01	-1.739156e+01
9.289321e+01	-1.744013e+01
9.342976e+01	-1.748849e+01
9.396941e+01	-1.753727e+01
9.451217e+01	-1.758706e+01
9.505807e+01	-1.763591e+01
9.560712e+01	-1.768753e+01
9.615934e+01	-1.773594e+01
9.671476e+01	-1.778345e+01
9.727338e+01	-1.783310e+01
9.783522e+01	-1.788301e+01
9.840032e+01	-1.793167e+01
9.896867e+01	-1.798191e+01
9.954031e+01	-1.803061e+01
1.001153e+02	-1.807977e+01
1.006935e+02	-1.812887e+01
1.012751e+02	-1.817739e+01
1.018601e+02	-1.822840e+01
1.024484e+02	-1.827704e+01
1.030402e+02	-1.832540e+01
1.036353e+02	-1.837476e+01
1.042339e+02	-1.842356e+01
1.048360e+02	-1.847406e+01
1.054415e+02	-1.852236e+01
1.060505e+02	-1.857164e+01
1.066631e+02	-1.862261e+01
1.072791e+02	-1.867107e+01
1.078988e+02	-1.872059e+01
1.085220e+02	-1.876945e+01
1.091488e+02	-1.881940e+01
1.097793e+02	-1.886851e+01
1.104133e+02	-1.891920e+01
1.110511e+02	-1.896645e+01
1.116925e+02	-1.901633e+01
1.123376e+02	-1.906676e+01
1.129865e+02	-1.911539e+01
1.136391e+02	-1.916603e+01
1.142955e+02	-1.921358e+01
1.149556e+02	-1.926254e+01
1.156196e+02	-1.931390e+01
1.162874e+02	-1.936297e+01
1.169591e+02	-1.941151e+01
1.176347e+02	-1.946160e+01
1.183141e+02	-1.950987e+01
1.189975e+02	-1.956003e+01
1.196848e+02	-1.961105e+01
1.203761e+02	-1.966057e+01
1.210714e+02	-1.970866e+01
1.217707e+02	-1.975828e+01
1.224740e+02	-1.980967e+01
1.231814e+02	-1.985746e+01
1.238929e+02	-1.990792e+01
1.246085e+02	-1.995534e+01
1.253283e+02	-2.000797e+01
1.260522e+02	-2.005557e+01
1.267802e+02	-2.010566e+01
1.275125e+02	-2.015540e+01
1.282490e+02	-2.020395e+01
1.289898e+02	-2.025424e+01
1.297348e+02	-2.030306e+01
1.304842e+02	-2.035230e+01
1.312378e+02	-2.040280e+01
1.319959e+02	-2.045180e+01
1.327583e+02	-2.050389e+01
1.335251e+02	-2.055218e+01
1.342963e+02	-2.060137e+01
1.350720e+02	-2.065001e+01
1.358522e+02	-2.070116e+01
1.366368e+02	-2.074898e+01
1.374260e+02	-2.079989e+01
1.382198e+02	-2.084826e+01
1.390182e+02	-2.090015e+01
1.398211e+02	-2.094794e+01
1.406287e+02	-2.099763e+01
1.414410e+02	-2.104792e+01
1.422579e+02	-2.109743e+01
1.430796e+02	-2.114823e+01
1.439060e+02	-2.119691e+01
1.447372e+02	-2.124659e+01
1.455732e+02	-2.129607e+01
1.464141e+02	-2.134580e+01
1.472597e+02	-2.139599e+01
1.481103e+02	-2.144514e+01
1.489658e+02	-2.149414e+01
1.498262e+02	-2.154452e+01
1.506916e+02	-2.159530e+01
1.515620e+02	-2.164276e+01
1.524374e+02	-2.169344e+01
1.533179e+02	-2.174359e+01
1.542034e+02	-2.179305e+01
1.550941e+02	-2.184235e+01
1.559899e+02	-2.189125e+01
1.568909e+02	-2.194273e+01
1.577971e+02	-2.199332e+01
1.587085e+02	-2.203982e+01
1.596252e+02	-2.208899e+01
1.605472e+02	-2.214090e+01
1.614745e+02	-2.219222e+01
1.624072e+02	-2.223919e+01
1.633453e+02	-2.229044e+01
1.642887e+02	-2.233966e+01
1.652377e+02	-2.238985e+01
1.661921e+02	-2.244119e+01
1.671520e+02	-2.249128e+01
1.681175e+02	-2.253806e+01
1.690885e+02	-2.259003e+01
1.700651e+02	-2.263787e+01
1.710474e+02	-2.268709e+01
1.720354e+02	-2.274029e+01
1.730291e+02	-2.278915e+01
1.740285e+02	-2.283820e+01
1.750337e+02	-2.288679e+01
1.760446e+02	-2.293598e+01
1.770615e+02	-2.298841e+01
1.780842e+02	-2.303870e+01
1.791128e+02	-2.308640e+01
1.801473e+02	-2.313800e+01
1.811878e+02	-2.318627e+01
1.822344e+02	-2.323512e+01
1.832870e+02	-2.328759e+01
1.843456e+02	-2.333647e+01
1.854104e+02	-2.338390e+01
1.864813e+02	-2.343206e+01
1.875584e+02	-2.348440e+01
1.886418e+02	-2.353389e+01
1.897313e+02	-2.358347e+01
1.908272e+02	-2.363796e+01
1.919294e+02	-2.368335e+01
1.930380e+02	-2.373512e+01
1.941530e+02	-2.378539e+01
1.952744e+02	-2.383633e+01
1.964023e+02	-2.388617e+01
1.975367e+02	-2.393328e+01
1.986777e+02	-2.398276e+01
1.998252e+02	-2.403588e+01
2.009794e+02	-2.408501e+01
2.021403e+02	-2.413193e+01
2.033078e+02	-2.418439e+01
2.044821e+02	-2.423105e+01
2.056632e+02	-2.428153e+01
2.068511e+02	-2.433491e+01
2.080459e+02	-2.438525e+01
2.092475e+02	-2.443201e+01
2.104561e+02	-2.448100e+01
2.116717e+02	-2.453651e+01
2.128943e+02	-2.458326e+01
2.141240e+02	-2.463172e+01
2.153608e+02	-2.468286e+01
2.166047e+02	-2.473197e+01
2.178558e+02	-2.478302e+01
2.191141e+02	-2.482927e+01
2.203797e+02	-2.488255e+01
2.216526e+02	-2.493283e+01
2.229329e+02	-2.498302e+01
2.242205e+02	-2.502999e+01
2.255156e+02	-2.508155e+01
2.268182e+02	-2.513105e+01
2.281283e+02	-2.517740e+01
2.294459e+02	-2.523033e+01
2.307712e+02	-2.528406e+01
2.321041e+02	-2.532922e+01
2.334447e+02	-2.537934e+01
2.347931e+02	-2.542822e+01
2.361493e+02	-2.548116e+01
2.375133e+02	-2.553093e+01
2.388851e+02	-2.558172e+01
2.402649e+02	-2.563057e+01
2.416527e+02	-2.568176e+01
2.430484e+02	-2.572919e+01
2.444523e+02	-2.578320e+01
2.458642e+02	-2.582742e+01
2.472843e+02	-2.588080e+01
2.487126e+02	-2.593159e+01
2.501492e+02	-2.598107e+01
2.515940e+02	-2.602793e+01
2.530472e+02	-2.607974e+01
2.545088e+02	-2.612848e+01
2.559789e+02	-2.618202e+01
2.574574e+02	-2.623035e+01
2.589444e+02	-2.628042e+01
2.604401e+02	-2.633025e+01
2.619444e+02	-2.637668e+01
2.634574e+02	-2.643083e+01
2.649791e+02	-2.647972e+01
2.665096e+02	-2.652614e+01
2.680489e+02	-2.658297e+01
2.695972e+02	-2.663036e+01
2.711544e+02	-2.668032e+01
2.727205e+02	-2.673165e+01
2.742958e+02	-2.678116e+01
2.758801e+02	-2.682834e+01
2.774736e+02	-2.687833e+01
2.790762e+02	-2.692985e+01
2.806882e+02	-2.697937e+01
2.823094e+02	-2.703065e+01
2.839400e+02	-2.707740e+01
2.855800e+02	-2.712558e+01
2.872295e+02	-2.717710e+01
2.888886e+02	-2.722871e+01
2.905572e+02	-2.728028e+01
2.922354e+02	-2.733152e+01
2.939234e+02	-2.738067e+01
2.956211e+02	-2.742571e+01
2.973286e+02	-2.748234e+01
2.990459e+02	-2.753226e+01
3.007732e+02	-2.758041e+01
3.025104e+02	-2.762972e+01
3.042577e+02	-2.768002e+01
3.060151e+02	-2.772943e+01
3.077826e+02	-2.778014e+01
3.095604e+02	-2.783075e+01
3.113484e+02	-2.787996e+01
3.131467e+02	-2.793056e+01
3.149554e+02	-2.798012e+01
3.167746e+02	-2.802879e+01
3.186043e+02	-2.808128e+01
3.204445e+02	-2.812802e+01
3.222954e+02	-2.818138e+01
3.241570e+02	-2.823122e+01
3.260293e+02	-2.828276e+01
3.279124e+02	-2.832870e+01
3.298064e+02	-2.837733e+01
3.317114e+02	-2.843062e+01
3.336273e+02	-2.847500e+01
3.355544e+02	-2.852988e+01
3.374925e+02	-2.857686e+01
3.394418e+02	-2.863098e+01
3.414024e+02	-2.868062e+01
3.433744e+02	-2.872980e+01
3.453577e+02	-2.877971e+01
3.473525e+02	-2.882425e+01
3.493588e+02	-2.887805e+01
3.513766e+02	-2.893137e+01
3.534062e+02	-2.898221e+01
3.554474e+02	-2.903174e+01
3.575005e+02	-2.908213e+01
3.595654e+02	-2.912862e+01
3.616422e+02	-2.918082e+01
3.637311e+02	-2.923315e+01
3.658320e+02	-2.927691e+01
3.679450e+02	-2.933029e+01
3.700702e+02	-2.937952e+01
3.722077e+02	-2.943255e+01
3.743576e+02	-2.947898e+01
3.765199e+02	-2.952845e+01
3.786946e+02	-2.957980e+01
3.808820e+02	-2.962918e+01
3.830819e+02	-2.967950e+01
3.852946e+02	-2.972934e+01
3.875200e+02	-2.977957e+01
3.897583e+02	-2.983096e+01
3.920096e+02	-2.988105e+01
3.942738e+02	-2.993355e+01
3.965511e+02	-2.998135e+01
3.988416e+02	-3.003129e+01
4.011452e+02	-3.007842e+01
4.034622e+02	-3.014085e+01
4.057926e+02	-3.017588e+01
4.081365e+02	-3.023055e+01
4.104938e+02	-3.028414e+01
4.128648e+02	-3.033351e+01
4.152495e+02	-3.037627e+01
4.176480e+02	-3.042679e+01
4.200603e+02	-3.048324e+01
4.224866e+02	-3.052991e+01
4.249268e+02	-3.058668e+01
4.273812e+02	-3.063327e+01
4.298497e+02	-3.068173e+01
4.323325e+02	-3.073247e+01
4.348297e+02	-3.078006e+01
4.373412e+02	-3.082929e+01
4.398673e+02	-3.088099e+01
4.424079e+02	-3.092861e+01
4.449633e+02	-3.098336e+01
4.475334e+02	-3.103557e+01
4.501183e+02	-3.108337e+01
4.527182e+02	-3.113682e+01
4.553330e+02	-3.117893e+01
4.579630e+02	-3.123171e+01
4.606082e+02	-3.128268e+01
4.632687e+02	-3.133972e+01
4.659445e+02	-3.138983e+01
4.686358e+02	-3.143313e+01
4.713426e+02	-3.148627e+01
4.740650e+02	-3.153557e+01
4.768032e+02	-3.158583e+01
4.795572e+02	-3.163067e+01
4.823271e+02	-3.168755e+01
4.851130e+02	-3.173410e+01
4.879150e+02	-3.178887e+01
4.907332e+02	-3.184403e+01
4.935676e+02	-3.188248e+01
4.964185e+02	-3.193595e+01
4.992858e+02	-3.199022e+01
5.021696e+02	-3.203795e+01
5.050701e+02	-3.208888e+01
5.079874e+02	-3.214099e+01
5.109215e+02	-3.218178e+01
5.138726e+02	-3.223744e+01
5.168407e+02	-3.228318e+01
5.198259e+02	-3.234147e+01
5.228284e+02	-3.238954e+01
5.258482e+02	-3.243905e+01
5.288855e+02	-3.248966e+01
5.319403e+02	-3.253724e+01
5.350128e+02	-3.258734e+01
5.381030e+02	-3.264040e+01
5.412111e+02	-3.269534e+01
5.443371e+02	-3.274351e+01
5.474812e+02	-3.279680e+01
5.506434e+02	-3.283840e+01
5.538239e+02	-3.289374e+01
5.570228e+02	-3.294037e+01
5.602401e+02	-3.299560e+01
5.634760e+02	-3.304079e+01
5.667306e+02	-3.308572e+01
5.700040e+02	-3.314264e+01
5.732964e+02	-3.319381e+01
5.766077e+02	-3.325048e+01
5.799382e+02	-3.328754e+01
5.832879e+02	-3.334322e+01
5.866569e+02	-3.339312e+01
5.900454e+02	-3.343966e+01
5.934535e+02	-3.349147e+01
5.968813e+02	-3.354226e+01
6.003288e+02	-3.359096e+01
6.037963e+02	-3.364792e+01
6.072838e+02	-3.369906e+01
6.107914e+02	-3.374403e+01
6.143194e+02	-3.379232e+01
6.178676e+02	-3.384325e+01
6.214364e+02	-3.389560e+01
6.250258e+02	-3.394217e+01
6.286359e+02	-3.400047e+01
6.322669e+02	-3.404658e+01
6.359189e+02	-3.409183e+01
6.395919e+02	-3.414766e+01
6.432862e+02	-3.418984e+01
6.470017e+02	-3.425230e+01
6.507388e+02	-3.430063e+01
6.544974e+02	-3.434919e+01
6.582778e+02	-3.439766e+01
6.620800e+02	-3.444636e+01
6.659041e+02	-3.449592e+01
6.697504e+02	-3.454355e+01
6.736188e+02	-3.460370e+01
6.775096e+02	-3.465618e+01
6.814229e+02	-3.470382e+01
6.853587e+02	-3.474765e+01
6.893173e+02	-3.481762e+01
6.932988e+02	-3.485309e+01
6.973033e+02	-3.489642e+01
7.013309e+02	-3.495542e+01
