Frequency(Hz)	Magnitude(dB)
1.000000e+01	-1.989463e+00
1.005776e+01	-2.007872e+00
1.011585e+01	-2.026453e+00
1.017428e+01	-2.045065e+00
1.023305e+01	-2.063932e+00
1.029215e+01	-2.082989e+00
1.035160e+01	-2.102225e+00
1.041139e+01	-2.121542e+00
1.047153e+01	-2.141012e+00
1.053201e+01	-2.160418e+00
1.059284e+01	-2.180231e+00
1.065403e+01	-2.199963e+00
1.071556e+01	-2.219888e+00
1.077746e+01	-2.240144e+00
1.083971e+01	-2.260362e+00
1.090232e+01	-2.280448e+00
1.096529e+01	-2.301136e+00
1.102862e+01	-2.321808e+00
1.109232e+01	-2.342436e+00
1.115639e+01	-2.363438e+00
1.122083e+01	-2.384344e+00
1.128564e+01	-2.405435e+00
1.135083e+01	-2.427067e+00
1.141639e+01	-2.448642e+00
1.148233e+01	-2.470136e+00
1.154865e+01	-2.491902e+00
1.161536e+01	-2.513673e+00
1.168245e+01	-2.535959e+00
1.174992e+01	-2.558048e+00
1.181779e+01	-2.580354e+00
1.188605e+01	-2.602672e+00
1.195470e+01	-2.625595e+00
1.202375e+01	-2.648183e+00
1.209320e+01	-2.671139e+00
1.216305e+01	-2.694240e+00
1.223330e+01	-2.717458e+00
1.230396e+01	-2.740997e+00
1.237503e+01	-2.764222e+00
1.244651e+01	-2.787912e+00
1.251840e+01	-2.811650e+00
1.259070e+01	-2.835454e+00
1.266343e+01	-2.859542e+00
1.273657e+01	-2.883733e+00
1.281014e+01	-2.908103e+00
1.288413e+01	-2.932604e+00
1.295855e+01	-2.957501e+00
1.303339e+01	-2.982057e+00
1.310867e+01	-3.007008e+00
1.318439e+01	-3.031984e+00
1.326054e+01	-3.057348e+00
1.333713e+01	-3.082823e+00
1.341417e+01	-3.108185e+00
1.349165e+01	-3.133710e+00
1.356958e+01	-3.159550e+00
1.364795e+01	-3.185229e+00
1.372678e+01	-3.211308e+00
1.380607e+01	-3.237796e+00
1.388581e+01	-3.264023e+00
1.396602e+01	-3.290586e+00
1.404668e+01	-3.317365e+00
1.412782e+01	-3.343989e+00
1.420942e+01	-3.370761e+00
1.429149e+01	-3.398069e+00
1.437404e+01	-3.425188e+00
1.445706e+01	-3.452543e+00
1.454057e+01	-3.480007e+00
1.462455e+01	-3.507803e+00
1.470902e+01	-3.535446e+00
1.479398e+01	-3.563567e+00
1.487943e+01	-3.591615e+00
1.496537e+01	-3.619662e+00
1.505181e+01	-3.648065e+00
1.513875e+01	-3.676677e+00
1.522619e+01	-3.705315e+00
1.531414e+01	-3.734117e+00
1.540259e+01	-3.763170e+00
1.549156e+01	-3.792197e+00
1.558103e+01	-3.821365e+00
1.567103e+01	-3.850618e+00
1.576155e+01	-3.880072e+00
1.585258e+01	-3.909782e+00
1.594415e+01	-3.939336e+00
1.603624e+01	-3.969547e+00
1.612886e+01	-3.999333e+00
1.622202e+01	-4.029276e+00
1.631572e+01	-4.060190e+00
1.640996e+01	-4.090292e+00
1.650474e+01	-4.120772e+00
1.660008e+01	-4.151769e+00
1.669596e+01	-4.182627e+00
1.679239e+01	-4.213482e+00
1.688938e+01	-4.244696e+00
1.698694e+01	-4.275824e+00
1.708505e+01	-4.307497e+00
1.718373e+01	-4.338779e+00
1.728299e+01	-4.370662e+00
1.738281e+01	-4.402413e+00
1.748322e+01	-4.434297e+00
1.758420e+01	-4.466296e+00
1.768576e+01	-4.498514e+00
1.778792e+01	-4.531088e+00
1.789066e+01	-4.563383e+00
1.799399e+01	-4.596239e+00
1.809793e+01	-4.628738e+00
1.820246e+01	-4.661590e+00
1.830760e+01	-4.694292e+00
1.841334e+01	-4.727663e+00
1.851969e+01	-4.760770e+00
1.862666e+01	-4.794332e+00
1.873425e+01	-4.827488e+00
1.884246e+01	-4.861315e+00
1.895129e+01	-4.894865e+00
1.906075e+01	-4.928879e+00
1.917085e+01	-4.962893e+00
1.928158e+01	-4.997440e+00
1.939295e+01	-5.031666e+00
1.950496e+01	-5.065971e+00
1.961762e+01	-5.100302e+00
1.973093e+01	-5.135038e+00
1.984490e+01	-5.169744e+00
1.995952e+01	-5.204427e+00
2.007480e+01	-5.239673e+00
2.019076e+01	-5.274878e+00
2.030738e+01	-5.310048e+00
2.042467e+01	-5.345382e+00
2.054264e+01	-5.380947e+00
2.066130e+01	-5.416572e+00
2.078064e+01	-5.451785e+00
2.090066e+01	-5.487834e+00
2.102139e+01	-5.523930e+00
2.114280e+01	-5.560128e+00
2.126492e+01	-5.596106e+00
2.138775e+01	-5.632519e+00
2.151128e+01	-5.668903e+00
2.163553e+01	-5.705316e+00
2.176050e+01	-5.741638e+00
2.188619e+01	-5.778811e+00
2.201260e+01	-5.815766e+00
2.213974e+01	-5.852672e+00
2.226762e+01	-5.889633e+00
2.239624e+01	-5.926805e+00
2.252560e+01	-5.964400e+00
2.265571e+01	-6.001650e+00
2.278656e+01	-6.039274e+00
2.291818e+01	-6.076604e+00
2.305055e+01	-6.114501e+00
2.318369e+01	-6.152161e+00
2.331760e+01	-6.190378e+00
2.345228e+01	-6.228158e+00
2.358774e+01	-6.266422e+00
2.372398e+01	-6.304468e+00
2.386101e+01	-6.343192e+00
2.399883e+01	-6.381563e+00
2.413745e+01	-6.420088e+00
2.427686e+01	-6.458741e+00
2.441709e+01	-6.497449e+00
2.455812e+01	-6.536242e+00
2.469997e+01	-6.575451e+00
2.484263e+01	-6.614231e+00
2.498612e+01	-6.653856e+00
2.513044e+01	-6.692559e+00
2.527559e+01	-6.731969e+00
2.542158e+01	-6.771534e+00
2.556842e+01	-6.810932e+00
2.571610e+01	-6.851081e+00
2.586463e+01	-6.890623e+00
2.601403e+01	-6.930624e+00
2.616428e+01	-6.970489e+00
2.631541e+01	-7.010341e+00
2.646740e+01	-7.050288e+00
2.662028e+01	-7.090837e+00
2.677404e+01	-7.131010e+00
2.692868e+01	-7.171120e+00
2.708422e+01	-7.212116e+00
2.724066e+01	-7.252472e+00
2.739800e+01	-7.292870e+00
2.755625e+01	-7.333461e+00
2.771541e+01	-7.374679e+00
2.787550e+01	-7.415723e+00
2.803650e+01	-7.457006e+00
2.819844e+01	-7.497644e+00
2.836131e+01	-7.538474e+00
2.852513e+01	-7.579871e+00
2.868989e+01	-7.621560e+00
2.885560e+01	-7.662582e+00
2.902227e+01	-7.704423e+00
2.918990e+01	-7.745873e+00
2.935850e+01	-7.787384e+00
2.952807e+01	-7.829360e+00
2.969863e+01	-7.871246e+00
2.987016e+01	-7.913043e+00
3.004269e+01	-7.954927e+00
3.021622e+01	-7.997052e+00
3.039075e+01	-8.039167e+00
3.056628e+01	-8.081143e+00
3.074283e+01	-8.123310e+00
3.092040e+01	-8.166247e+00
3.109900e+01	-8.208423e+00
3.127862e+01	-8.250810e+00
3.145929e+01	-8.293732e+00
3.164099e+01	-8.335859e+00
3.182375e+01	-8.378616e+00
3.200756e+01	-8.421692e+00
3.219244e+01	-8.464715e+00
3.237838e+01	-8.507220e+00
3.256540e+01	-8.550344e+00
3.275349e+01	-8.594018e+00
3.294268e+01	-8.636835e+00
3.313295e+01	-8.679833e+00
3.332433e+01	-8.722578e+00
3.351681e+01	-8.766576e+00
3.371040e+01	-8.809790e+00
3.390511e+01	-8.853382e+00
3.410094e+01	-8.896741e+00
3.429791e+01	-8.940743e+00
3.449601e+01	-8.983924e+00
3.469526e+01	-9.027940e+00
3.489566e+01	-9.071865e+00
3.509721e+01	-9.115292e+00
3.529993e+01	-9.159641e+00
3.550382e+01	-9.203731e+00
3.570889e+01	-9.247796e+00
3.591515e+01	-9.291830e+00
3.612259e+01	-9.335441e+00
3.633123e+01	-9.380190e+00
3.654108e+01	-9.424358e+00
3.675214e+01	-9.468980e+00
3.696442e+01	-9.513321e+00
3.717792e+01	-9.557253e+00
3.739266e+01	-9.601995e+00
3.760864e+01	-9.646210e+00
3.782587e+01	-9.691643e+00
3.804435e+01	-9.736379e+00
3.826409e+01	-9.781238e+00
3.848510e+01	-9.825603e+00
3.870739e+01	-9.870878e+00
3.893096e+01	-9.915079e+00
3.915583e+01	-9.960111e+00
3.938199e+01	-1.000495e+01
3.960946e+01	-1.005061e+01
3.983824e+01	-1.009453e+01
4.006834e+01	-1.014095e+01
4.029978e+01	-1.018551e+01
4.053255e+01	-1.023081e+01
4.076666e+01	-1.027702e+01
4.100213e+01	-1.032220e+01
4.123896e+01	-1.036681e+01
4.147715e+01	-1.041258e+01
4.171672e+01	-1.045807e+01
4.195767e+01	-1.050373e+01
4.220002e+01	-1.054965e+01
4.244377e+01	-1.059462e+01
4.268892e+01	-1.064068e+01
4.293549e+01	-1.068636e+01
4.318348e+01	-1.073183e+01
4.343291e+01	-1.077818e+01
4.368377e+01	-1.082359e+01
4.393609e+01	-1.086979e+01
4.418986e+01	-1.091572e+01
4.444510e+01	-1.096194e+01
4.470182e+01	-1.100772e+01
4.496001e+01	-1.105355e+01
4.521970e+01	-1.110006e+01
4.548089e+01	-1.114607e+01
4.574358e+01	-1.119237e+01
4.600779e+01	-1.123834e+01
4.627353e+01	-1.128448e+01
4.654081e+01	-1.133148e+01
4.680963e+01	-1.137736e+01
4.708000e+01	-1.142369e+01
4.735193e+01	-1.147021e+01
4.762543e+01	-1.151676e+01
4.790051e+01	-1.156318e+01
4.817719e+01	-1.161052e+01
4.845545e+01	-1.165661e+01
4.873533e+01	-1.170313e+01
4.901682e+01	-1.174955e+01
4.929994e+01	-1.179684e+01
4.958470e+01	-1.184346e+01
4.987110e+01	-1.189031e+01
5.015915e+01	-1.193690e+01
5.044887e+01	-1.198303e+01
5.074026e+01	-1.203025e+01
5.103333e+01	-1.207666e+01
5.132810e+01	-1.212456e+01
5.162457e+01	-1.217128e+01
5.192275e+01	-1.221821e+01
5.222265e+01	-1.226504e+01
5.252429e+01	-1.231255e+01
5.282767e+01	-1.235936e+01
5.313280e+01	-1.240673e+01
5.343969e+01	-1.245399e+01
5.374836e+01	-1.250145e+01
5.405880e+01	-1.254811e+01
5.437105e+01	-1.259579e+01
5.468509e+01	-1.264257e+01
5.500095e+01	-1.269059e+01
5.531863e+01	-1.273754e+01
5.563815e+01	-1.278534e+01
5.595951e+01	-1.283188e+01
5.628273e+01	-1.287974e+01
5.660782e+01	-1.292666e+01
5.693479e+01	-1.297437e+01
5.726364e+01	-1.302158e+01
5.759439e+01	-1.306994e+01
5.792705e+01	-1.311757e+01
5.826164e+01	-1.316515e+01
5.859815e+01	-1.321231e+01
5.893662e+01	-1.325965e+01
5.927703e+01	-1.330769e+01
5.961941e+01	-1.335465e+01
5.996377e+01	-1.340397e+01
6.031012e+01	-1.345110e+01
6.065847e+01	-1.349886e+01
6.100883e+01	-1.354612e+01
6.136121e+01	-1.359396e+01
6.171563e+01	-1.364192e+01
6.207210e+01	-1.369072e+01
6.243063e+01	-1.373732e+01
6.279122e+01	-1.378587e+01
6.315390e+01	-1.383360e+01
6.351868e+01	-1.388282e+01
6.388556e+01	-1.392940e+01
6.425456e+01	-1.397836e+01
6.462569e+01	-1.402638e+01
6.499897e+01	-1.407421e+01
6.537440e+01	-1.412155e+01
6.575200e+01	-1.416994e+01
6.613178e+01	-1.421776e+01
6.651375e+01	-1.426691e+01
6.689793e+01	-1.431456e+01
6.728433e+01	-1.436293e+01
6.767297e+01	-1.441155e+01
6.806384e+01	-1.445841e+01
6.845698e+01	-1.450761e+01
6.885238e+01	-1.455616e+01
6.925007e+01	-1.460397e+01
6.965005e+01	-1.465372e+01
7.005235e+01	-1.470155e+01
7.045697e+01	-1.474950e+01
7.086393e+01	-1.479733e+01
7.127323e+01	-1.484521e+01
7.168490e+01	-1.489384e+01
7.209895e+01	-1.494159e+01
7.251539e+01	-1.499036e+01
7.293424e+01	-1.503890e+01
7.335551e+01	-1.508744e+01
7.377920e+01	-1.513683e+01
7.420535e+01	-1.518592e+01
7.463396e+01	-1.523339e+01
7.506504e+01	-1.528188e+01
7.549861e+01	-1.532979e+01
7.593469e+01	-1.537827e+01
7.637328e+01	-1.542808e+01
7.681441e+01	-1.547596e+01
7.725809e+01	-1.552511e+01
7.770433e+01	-1.557317e+01
7.815315e+01	-1.562218e+01
7.860456e+01	-1.567117e+01
7.905857e+01	-1.571857e+01
7.951521e+01	-1.576864e+01
7.997449e+01	-1.581701e+01
8.043642e+01	-1.586689e+01
8.090102e+01	-1.591521e+01
8.136830e+01	-1.596299e+01
8.183828e+01	-1.601217e+01
8.231097e+01	-1.605974e+01
8.278640e+01	-1.610912e+01
8.326457e+01	-1.615784e+01
8.374550e+01	-1.620683e+01
8.422921e+01	-1.625626e+01
8.471572e+01	-1.630424e+01
8.520503e+01	-1.635392e+01
8.569717e+01	-1.640211e+01
8.619215e+01	-1.645178e+01
8.669000e+01	-1.650026e+01
8.719071e+01	-1.654956e+01
8.769432e+01	-1.659772e+01
8.820084e+01	-1.664750e+01
8.871029e+01	-1.669614e+01
8.922267e+01	-1.674599e+01
8.973802e+01	-1.679397e+01
9.025634e+01	-1.684253e+01
9.077766e+01	-1.689187e+01
9.130199e+01	-1.694050e+01
9.182935e+01	-1.699050e+01
9.235975e+01	-1.703959e+01
9.289321e+01	-1.708801e+01
9.342976e+01	-1.713639e+01
9.396941e+01	-1.718575e+01
9.451217e+01	-1.723554e+01
9.505807e+01	-1.728416e+01
9.560712e+01	-1.733360e+01
9.615934e+01	-1.738281e+01
9.671476e+01	-1.743211e+01
9.727338e+01	-1.748116e+01
9.783522e+01	-1.752959e+01
9.840032e+01	-1.757903e+01
9.896867e+01	-1.762828e+01
9.954031e+01	-1.767753e+01
1.001153e+02	-1.772734e+01
1.006935e+02	-1.777718e+01
1.012751e+02	-1.782574e+01
1.018601e+02	-1.787305e+01
1.024484e+02	-1.792376e+01
1.030402e+02	-1.797321e+01
1.036353e+02	-1.802111e+01
1.042339e+02	-1.807033e+01
1.048360e+02	-1.812089e+01
1.054415e+02	-1.816941e+01
1.060505e+02	-1.821980e+01
1.066631e+02	-1.826803e+01
1.072791e+02	-1.831804e+01
1.078988e+02	-1.836662e+01
1.085220e+02	-1.841692e+01
1.091488e+02	-1.846531e+01
1.097793e+02	-1.851488e+01
1.104133e+02	-1.856417e+01
1.110511e+02	-1.861320e+01
1.116925e+02	-1.866267e+01
1.123376e+02	-1.871313e+01
1.129865e+02	-1.876117e+01
1.136391e+02	-1.881104e+01
1.142955e+02	-1.886144e+01
1.149556e+02	-1.891111e+01
1.156196e+02	-1.895882e+01
1.162874e+02	-1.900904e+01
1.169591e+02	-1.905713e+01
1.176347e+02	-1.910745e+01
1.183141e+02	-1.915567e+01
1.189975e+02	-1.920545e+01
1.196848e+02	-1.925594e+01
1.203761e+02	-1.930565e+01
1.210714e+02	-1.935480e+01
1.217707e+02	-1.940427e+01
1.224740e+02	-1.945529e+01
1.231814e+02	-1.950186e+01
1.238929e+02	-1.955234e+01
1.246085e+02	-1.960225e+01
1.253283e+02	-1.965020e+01
1.260522e+02	-1.970040e+01
1.267802e+02	-1.975066e+01
1.275125e+02	-1.980067e+01
1.282490e+02	-1.985082e+01
1.289898e+02	-1.989800e+01
1.297348e+02	-1.994843e+01
1.304842e+02	-1.999735e+01
1.312378e+02	-2.004743e+01
1.319959e+02	-2.009803e+01
1.327583e+02	-2.014542e+01
1.335251e+02	-2.019478e+01
1.342963e+02	-2.024506e+01
1.350720e+02	-2.029596e+01
1.358522e+02	-2.034717e+01
1.366368e+02	-2.039489e+01
1.374260e+02	-2.044366e+01
1.382198e+02	-2.049445e+01
1.390182e+02	-2.054291e+01
1.398211e+02	-2.059286e+01
1.406287e+02	-2.064255e+01
1.414410e+02	-2.069253e+01
1.422579e+02	-2.074062e+01
1.430796e+02	-2.079268e+01
1.439060e+02	-2.084068e+01
1.447372e+02	-2.089087e+01
1.455732e+02	-2.093925e+01
1.464141e+02	-2.099171e+01
1.472597e+02	-2.104021e+01
1.481103e+02	-2.108912e+01
1.489658e+02	-2.113910e+01
1.498262e+02	-2.118976e+01
1.506916e+02	-2.123751e+01
1.515620e+02	-2.128721e+01
1.524374e+02	-2.133641e+01
1.533179e+02	-2.138814e+01
1.542034e+02	-2.143567e+01
1.550941e+02	-2.148633e+01
1.559899e+02	-2.153657e+01
1.568909e+02	-2.158690e+01
1.577971e+02	-2.163580e+01
1.587085e+02	-2.168630e+01
1.596252e+02	-2.173435e+01
1.605472e+02	-2.178432e+01
1.614745e+02	-2.183446e+01
1.624072e+02	-2.188523e+01
1.633453e+02	-2.193372e+01
1.642887e+02	-2.198250e+01
1.652377e+02	-2.203243e+01
1.661921e+02	-2.208330e+01
1.671520e+02	-2.213534e+01
1.681175e+02	-2.218192e+01
1.690885e+02	-2.223249e+01
1.700651e+02	-2.228352e+01
1.710474e+02	-2.233372e+01
1.720354e+02	-2.238365e+01
1.730291e+02	-2.243117e+01
1.740285e+02	-2.248001e+01
1.750337e+02	-2.253144e+01
1.760446e+02	-2.258069e+01
1.770615e+02	-2.263093e+01
1.780842e+02	-2.268150e+01
1.791128e+02	-2.273117e+01
1.801473e+02	-2.277981e+01
1.811878e+02	-2.282782e+01
1.822344e+02	-2.287882e+01
1.832870e+02	-2.292795e+01
1.843456e+02	-2.297903e+01
1.854104e+02	-2.302596e+01
1.864813e+02	-2.307821e+01
1.875584e+02	-2.312846e+01
1.886418e+02	-2.317884e+01
1.897313e+02	-2.322773e+01
1.908272e+02	-2.327804e+01
1.919294e+02	-2.332833e+01
1.930380e+02	-2.337827e+01
1.941530e+02	-2.342668e+01
1.952744e+02	-2.347738e+01
1.964023e+02	-2.352709e+01
1.975367e+02	-2.357759e+01
1.986777e+02	-2.362944e+01
1.998252e+02	-2.367791e+01
2.009794e+02	-2.372838e+01
2.021403e+02	-2.377576e+01
2.033078e+02	-2.382769e+01
2.044821e+02	-2.387490e+01
2.056632e+02	-2.392661e+01
2.068511e+02	-2.397483e+01
2.080459e+02	-2.402354e+01
2.092475e+02	-2.407383e+01
2.104561e+02	-2.412846e+01
2.116717e+02	-2.417658e+01
2.128943e+02	-2.422634e+01
2.141240e+02	-2.427456e+01
2.153608e+02	-2.432700e+01
2.166047e+02	-2.437327e+01
2.178558e+02	-2.442327e+01
2.191141e+02	-2.447553e+01
2.203797e+02	-2.452685e+01
2.216526e+02	-2.457392e+01
2.229329e+02	-2.462870e+01
2.242205e+02	-2.467380e+01
2.255156e+02	-2.472283e+01
2.268182e+02	-2.477360e+01
2.281283e+02	-2.482523e+01
2.294459e+02	-2.487629e+01
2.307712e+02	-2.492208e+01
2.321041e+02	-2.497523e+01
2.334447e+02	-2.502368e+01
2.347931e+02	-2.507246e+01
2.361493e+02	-2.512195e+01
2.375133e+02	-2.517128e+01
2.388851e+02	-2.522193e+01
2.402649e+02	-2.527408e+01
2.416527e+02	-2.532515e+01
2.430484e+02	-2.537151e+01
2.444523e+02	-2.542274e+01
2.458642e+02	-2.547193e+01
2.472843e+02	-2.552359e+01
2.487126e+02	-2.556874e+01
2.501492e+02	-2.562120e+01
2.515940e+02	-2.567348e+01
2.530472e+02	-2.572269e+01
2.545088e+02	-2.577103e+01
2.559789e+02	-2.582350e+01
2.574574e+02	-2.587254e+01
2.589444e+02	-2.592346e+01
2.604401e+02	-2.596983e+01
2.619444e+02	-2.602305e+01
2.634574e+02	-2.606822e+01
2.649791e+02	-2.611959e+01
2.665096e+02	-2.617076e+01
2.680489e+02	-2.622247e+01
2.695972e+02	-2.626989e+01
2.711544e+02	-2.632012e+01
2.727205e+02	-2.637230e+01
2.742958e+02	-2.642132e+01
2.758801e+02	-2.646986e+01
2.774736e+02	-2.651949e+01
2.790762e+02	-2.657042e+01
2.806882e+02	-2.662192e+01
2.823094e+02	-2.667307e+01
2.839400e+02	-2.672086e+01
2.855800e+02	-2.677083e+01
2.872295e+02	-2.682108e+01
2.888886e+02	-2.687125e+01
2.905572e+02	-2.692066e+01
2.922354e+02	-2.697104e+01
2.939234e+02	-2.702331e+01
2.956211e+02	-2.707163e+01
2.973286e+02	-2.712549e+01
2.990459e+02	-2.717159e+01
3.007732e+02	-2.722307e+01
3.025104e+02	-2.727133e+01
3.042577e+02	-2.732718e+01
3.060151e+02	-2.737023e+01
3.077826e+02	-2.742084e+01
3.095604e+02	-2.747379e+01
3.113484e+02	-2.752300e+01
3.131467e+02	-2.757287e+01
3.149554e+02	-2.761958e+01
3.167746e+02	-2.767282e+01
3.186043e+02	-2.772027e+01
3.204445e+02	-2.777577e+01
3.222954e+02	-2.782258e+01
3.241570e+02	-2.787299e+01
3.260293e+02	-2.792274e+01
3.279124e+02	-2.797251e+01
3.298064e+02	-2.801882e+01
3.317114e+02	-2.807057e+01
3.336273e+02	-2.812379e+01
3.355544e+02	-2.817435e+01
3.374925e+02	-2.822349e+01
3.394418e+02	-2.827182e+01
3.414024e+02	-2.832201e+01
3.433744e+02	-2.837248e+01
3.453577e+02	-2.842075e+01
3.473525e+02	-2.847035e+01
3.493588e+02	-2.852210e+01
3.513766e+02	-2.856972e+01
3.534062e+02	-2.862533e+01
3.554474e+02	-2.867229e+01
3.575005e+02	-2.871840e+01
3.595654e+02	-2.877527e+01
3.616422e+02	-2.881985e+01
3.637311e+02	-2.886881e+01
3.658320e+02	-2.892588e+01
3.679450e+02	-2.896914e+01
3.700702e+02	-2.902125e+01
3.722077e+02	-2.907152e+01
3.743576e+02	-2.912316e+01
3.765199e+02	-2.917082e+01
3.786946e+02	-2.922430e+01
3.808820e+02	-2.927300e+01
3.830819e+02	-2.932163e+01
3.852946e+02	-2.937135e+01
3.875200e+02	-2.942108e+01
3.897583e+02	-2.947218e+01
3.920096e+02	-2.952264e+01
3.942738e+02	-2.957009e+01
3.965511e+02	-2.962579e+01
3.988416e+02	-2.967016e+01
4.011452e+02	-2.972272e+01
4.034622e+02	-2.977234e+01
4.057926e+02	-2.982211e+01
4.081365e+02	-2.987648e+01
4.104938e+02	-2.992575e+01
4.128648e+02	-2.997435e+01
4.152495e+02	-3.001872e+01
4.176480e+02	-3.007579e+01
4.200603e+02	-3.012548e+01
4.224866e+02	-3.017458e+01
4.249268e+02	-3.022733e+01
4.273812e+02	-3.027425e+01
4.298497e+02	-3.032534e+01
4.323325e+02	-3.037412e+01
4.348297e+02	-3.043072e+01
4.373412e+02	-3.047748e+01
4.398673e+02	-3.052699e+01
4.424079e+02	-3.057348e+01
4.449633e+02	-3.062321e+01
4.475334e+02	-3.066949e+01
4.501183e+02	-3.072207e+01
4.527182e+02	-3.077301e+01
4.553330e+02	-3.082723e+01
4.579630e+02	-3.087949e+01
4.606082e+02	-3.092362e+01
4.632687e+02	-3.098073e+01
4.659445e+02	-3.102720e+01
4.686358e+02	-3.107550e+01
4.713426e+02	-3.112813e+01
4.740650e+02	-3.117903e+01
4.768032e+02	-3.122827e+01
4.795572e+02	-3.127214e+01
4.823271e+02	-3.132627e+01
4.851130e+02	-3.138186e+01
4.879150e+02	-3.143032e+01
4.907332e+02	-3.147766e+01
4.935676e+02	-3.153202e+01
4.964185e+02	-3.158292e+01
4.992858e+02	-3.163299e+01
5.021696e+02	-3.167699e+01
5.050701e+02	-3.173168e+01
5.079874e+02	-3.177321e+01
5.109215e+02	-3.183263e+01
5.138726e+02	-3.188461e+01
5.168407e+02	-3.193230e+01
5.198259e+02	-3.197855e+01
5.228284e+02	-3.203621e+01
5.258482e+02	-3.208088e+01
5.288855e+02	-3.212837e+01
5.319403e+02	-3.217777e+01
5.350128e+02	-3.223303e+01
5.381030e+02	-3.227791e+01
5.412111e+02	-3.232634e+01
5.443371e+02	-3.237809e+01
5.474812e+02	-3.242901e+01
5.506434e+02	-3.248464e+01
5.538239e+02	-3.253469e+01
5.570228e+02	-3.259145e+01
5.602401e+02	-3.262841e+01
5.634760e+02	-3.268559e+01
5.667306e+02	-3.273035e+01
5.700040e+02	-3.278887e+01
5.732964e+02	-3.283934e+01
5.766077e+02	-3.289166e+01
5.799382e+02	-3.292406e+01
5.832879e+02	-3.298638e+01
5.866569e+02	-3.303677e+01
5.900454e+02	-3.309134e+01
5.934535e+02	-3.313844e+01
5.968813e+02	-3.318261e+01
6.003288e+02	-3.323839e+01
6.037963e+02	-3.328651e+01
6.072838e+02	-3.333857e+01
6.107914e+02	-3.338547e+01
6.143194e+02	-3.343113e+01
6.178676e+02	-3.349505e+01
6.214364e+02	-3.354140e+01
6.250258e+02	-3.359358e+01
6.286359e+02	-3.364147e+01
6.322669e+02	-3.368630e+01
6.359189e+02	-3.373754e+01
6.395919e+02	-3.378201e+01
6.432862e+02	-3.383838e+01
6.470017e+02	-3.389233e+01
6.507388e+02	-3.394005e+01
6.544974e+02	-3.399357e+01
6.582778e+02	-3.404279e+01
6.620800e+02	-3.409494e+01
6.659041e+02	-3.414436e+01
6.697504e+02	-3.418783e+01
6.736188e+02	-3.424377e+01
6.775096e+02	-3.429920e+01
6.814229e+02	-3.434893e+01
6.853587e+02	-3.439071e+01
6.893173e+02	-3.444703e+01
6.932988e+02	-3.449007e+01
6.973033e+02	-3.454784e+01
7.013309e+02	-3.459629e+01
