Frequency(Hz)	Magnitude(dB)
1.000000e+01	-2.274051e+00
1.005776e+01	-2.294403e+00
1.011585e+01	-2.315197e+00
1.017428e+01	-2.335769e+00
1.023305e+01	-2.356551e+00
1.029215e+01	-2.377670e+00
1.035160e+01	-2.398827e+00
1.041139e+01	-2.420051e+00
1.047153e+01	-2.441732e+00
1.053201e+01	-2.463382e+00
1.059284e+01	-2.484788e+00
1.065403e+01	-2.506731e+00
1.071556e+01	-2.528862e+00
1.077746e+01	-2.550960e+00
1.083971e+01	-2.573421e+00
1.090232e+01	-2.595883e+00
1.096529e+01	-2.618100e+00
1.102862e+01	-2.641045e+00
1.109232e+01	-2.663685e+00
1.115639e+01	-2.686813e+00
1.122083e+01	-2.709964e+00
1.128564e+01	-2.733238e+00
1.135083e+01	-2.756630e+00
1.141639e+01	-2.780277e+00
1.148233e+01	-2.804260e+00
1.154865e+01	-2.828012e+00
1.161536e+01	-2.852077e+00
1.168245e+01	-2.876117e+00
1.174992e+01	-2.900475e+00
1.181779e+01	-2.924876e+00
1.188605e+01	-2.949735e+00
1.195470e+01	-2.974448e+00
1.202375e+01	-2.999033e+00
1.209320e+01	-3.024007e+00
1.216305e+01	-3.049220e+00
1.223330e+01	-3.074587e+00
1.230396e+01	-3.100296e+00
1.237503e+01	-3.125588e+00
1.244651e+01	-3.151318e+00
1.251840e+01	-3.177086e+00
1.259070e+01	-3.203240e+00
1.266343e+01	-3.229472e+00
1.273657e+01	-3.255857e+00
1.281014e+01	-3.282196e+00
1.288413e+01	-3.308636e+00
1.295855e+01	-3.335435e+00
1.303339e+01	-3.362595e+00
1.310867e+01	-3.389452e+00
1.318439e+01	-3.416430e+00
1.326054e+01	-3.443999e+00
1.333713e+01	-3.471366e+00
1.341417e+01	-3.499125e+00
1.349165e+01	-3.526628e+00
1.356958e+01	-3.554613e+00
1.364795e+01	-3.582807e+00
1.372678e+01	-3.610685e+00
1.380607e+01	-3.639246e+00
1.388581e+01	-3.667591e+00
1.396602e+01	-3.696290e+00
1.404668e+01	-3.725111e+00
1.412782e+01	-3.753891e+00
1.420942e+01	-3.782525e+00
1.429149e+01	-3.812177e+00
1.437404e+01	-3.841467e+00
1.445706e+01	-3.870988e+00
1.454057e+01	-3.900275e+00
1.462455e+01	-3.930298e+00
1.470902e+01	-3.959989e+00
1.479398e+01	-3.990014e+00
1.487943e+01	-4.020228e+00
1.496537e+01	-4.050208e+00
1.505181e+01	-4.080633e+00
1.513875e+01	-4.111312e+00
1.522619e+01	-4.142075e+00
1.531414e+01	-4.172715e+00
1.540259e+01	-4.203720e+00
1.549156e+01	-4.234914e+00
1.558103e+01	-4.266085e+00
1.567103e+01	-4.297315e+00
1.576155e+01	-4.328784e+00
1.585258e+01	-4.360580e+00
1.594415e+01	-4.392358e+00
1.603624e+01	-4.423890e+00
1.612886e+01	-4.456134e+00
1.622202e+01	-4.488377e+00
1.631572e+01	-4.520804e+00
1.640996e+01	-4.553185e+00
1.650474e+01	-4.585835e+00
1.660008e+01	-4.618225e+00
1.669596e+01	-4.651003e+00
1.679239e+01	-4.684215e+00
1.688938e+01	-4.717175e+00
1.698694e+01	-4.750251e+00
1.708505e+01	-4.783747e+00
1.718373e+01	-4.817279e+00
1.728299e+01	-4.850883e+00
1.738281e+01	-4.884165e+00
1.748322e+01	-4.918239e+00
1.758420e+01	-4.952398e+00
1.768576e+01	-4.986540e+00
1.778792e+01	-5.020334e+00
1.789066e+01	-5.055123e+00
1.799399e+01	-5.089573e+00
1.809793e+01	-5.123836e+00
1.820246e+01	-5.158415e+00
1.830760e+01	-5.193598e+00
1.841334e+01	-5.228559e+00
1.851969e+01	-5.263481e+00
1.862666e+01	-5.298780e+00
1.873425e+01	-5.334256e+00
1.884246e+01	-5.369627e+00
1.895129e+01	-5.405106e+00
1.906075e+01	-5.440759e+00
1.917085e+01	-5.476391e+00
1.928158e+01	-5.512641e+00
1.939295e+01	-5.548433e+00
1.950496e+01	-5.584597e+00
1.961762e+01	-5.620812e+00
1.973093e+01	-5.657200e+00
1.984490e+01	-5.693900e+00
1.995952e+01	-5.730387e+00
2.007480e+01	-5.767159e+00
2.019076e+01	-5.803763e+00
2.030738e+01	-5.840947e+00
2.042467e+01	-5.877722e+00
2.054264e+01	-5.915189e+00
2.066130e+01	-5.952479e+00
2.078064e+01	-5.989717e+00
2.090066e+01	-6.027229e+00
2.102139e+01	-6.064509e+00
2.114280e+01	-6.102469e+00
2.126492e+01	-6.139822e+00
2.138775e+01	-6.178064e+00
2.151128e+01	-6.216203e+00
2.163553e+01	-6.254232e+00
2.176050e+01	-6.292989e+00
2.188619e+01	-6.330703e+00
2.201260e+01	-6.369356e+00
2.213974e+01	-6.407565e+00
2.226762e+01	-6.446160e+00
2.239624e+01	-6.485276e+00
2.252560e+01	-6.523743e+00
2.265571e+01	-6.562951e+00
2.278656e+01	-6.601798e+00
2.291818e+01	-6.641125e+00
2.305055e+01	-6.679941e+00
2.318369e+01	-6.719286e+00
2.331760e+01	-6.759267e+00
2.345228e+01	-6.798210e+00
2.358774e+01	-6.837967e+00
2.372398e+01	-6.877785e+00
2.386101e+01	-6.917552e+00
2.399883e+01	-6.957700e+00
2.413745e+01	-6.997473e+00
2.427686e+01	-7.037172e+00
2.441709e+01	-7.077874e+00
2.455812e+01	-7.118157e+00
2.469997e+01	-7.158236e+00
2.484263e+01	-7.198880e+00
2.498612e+01	-7.239481e+00
2.513044e+01	-7.280313e+00
2.527559e+01	-7.320576e+00
2.542158e+01	-7.361206e+00
2.556842e+01	-7.402362e+00
2.571610e+01	-7.443664e+00
2.586463e+01	-7.484697e+00
2.601403e+01	-7.525529e+00
2.616428e+01	-7.566784e+00
2.631541e+01	-7.608654e+00
2.646740e+01	-7.649381e+00
2.662028e+01	-7.690527e+00
2.677404e+01	-7.732422e+00
2.692868e+01	-7.774505e+00
2.708422e+01	-7.816153e+00
2.724066e+01	-7.857832e+00
2.739800e+01	-7.899828e+00
2.755625e+01	-7.941566e+00
2.771541e+01	-7.983776e+00
2.787550e+01	-8.025796e+00
2.803650e+01	-8.067753e+00
2.819844e+01	-8.109983e+00
2.836131e+01	-8.152264e+00
2.852513e+01	-8.194829e+00
2.868989e+01	-8.237318e+00
2.885560e+01	-8.280422e+00
2.902227e+01	-8.323148e+00
2.918990e+01	-8.365130e+00
2.935850e+01	-8.408054e+00
2.952807e+01	-8.451086e+00
2.969863e+01	-8.493728e+00
2.987016e+01	-8.536948e+00
3.004269e+01	-8.579870e+00
3.021622e+01	-8.623260e+00
3.039075e+01	-8.666022e+00
3.056628e+01	-8.709624e+00
3.074283e+01	-8.752818e+00
3.092040e+01	-8.796166e+00
3.109900e+01	-8.839537e+00
3.127862e+01	-8.883687e+00
3.145929e+01	-8.926575e+00
3.164099e+01	-8.970058e+00
3.182375e+01	-9.013736e+00
3.200756e+01	-9.058118e+00
3.219244e+01	-9.101791e+00
3.237838e+01	-9.145678e+00
3.256540e+01	-9.189709e+00
3.275349e+01	-9.233407e+00
3.294268e+01	-9.277832e+00
3.313295e+01	-9.321933e+00
3.332433e+01	-9.366406e+00
3.351681e+01	-9.410265e+00
3.371040e+01	-9.454463e+00
3.390511e+01	-9.498759e+00
3.410094e+01	-9.543354e+00
3.429791e+01	-9.587423e+00
3.449601e+01	-9.632489e+00
3.469526e+01	-9.677441e+00
3.489566e+01	-9.721525e+00
3.509721e+01	-9.766299e+00
3.529993e+01	-9.811046e+00
3.550382e+01	-9.856072e+00
3.570889e+01	-9.901309e+00
3.591515e+01	-9.946314e+00
3.612259e+01	-9.990738e+00
3.633123e+01	-1.003581e+01
3.654108e+01	-1.008148e+01
3.675214e+01	-1.012626e+01
3.696442e+01	-1.017147e+01
3.717792e+01	-1.021660e+01
3.739266e+01	-1.026167e+01
3.760864e+01	-1.030762e+01
3.782587e+01	-1.035273e+01
3.804435e+01	-1.039765e+01
3.826409e+01	-1.044359e+01
3.848510e+01	-1.048891e+01
3.870739e+01	-1.053454e+01
3.893096e+01	-1.058082e+01
3.915583e+01	-1.062562e+01
3.938199e+01	-1.067157e+01
3.960946e+01	-1.071711e+01
3.983824e+01	-1.076323e+01
4.006834e+01	-1.080876e+01
4.029978e+01	-1.085435e+01
4.053255e+01	-1.090040e+01
4.076666e+01	-1.094708e+01
4.100213e+01	-1.099296e+01
4.123896e+01	-1.103903e+01
4.147715e+01	-1.108560e+01
4.171672e+01	-1.113154e+01
4.195767e+01	-1.117743e+01
4.220002e+01	-1.122419e+01
4.244377e+01	-1.126982e+01
4.268892e+01	-1.131606e+01
4.293549e+01	-1.136210e+01
4.318348e+01	-1.140887e+01
4.343291e+01	-1.145500e+01
4.368377e+01	-1.150184e+01
4.393609e+01	-1.154770e+01
4.418986e+01	-1.159513e+01
4.444510e+01	-1.164149e+01
4.470182e+01	-1.168868e+01
4.496001e+01	-1.173451e+01
4.521970e+01	-1.178172e+01
4.548089e+01	-1.182748e+01
4.574358e+01	-1.187504e+01
4.600779e+01	-1.192042e+01
4.627353e+01	-1.196907e+01
4.654081e+01	-1.201550e+01
4.680963e+01	-1.206253e+01
4.708000e+01	-1.210914e+01
4.735193e+01	-1.215636e+01
4.762543e+01	-1.220326e+01
4.790051e+01	-1.225040e+01
4.817719e+01	-1.229675e+01
4.845545e+01	-1.234471e+01
4.873533e+01	-1.239191e+01
4.901682e+01	-1.243893e+01
4.929994e+01	-1.248614e+01
4.958470e+01	-1.253322e+01
4.987110e+01	-1.258003e+01
5.015915e+01	-1.262800e+01
5.044887e+01	-1.267530e+01
5.074026e+01	-1.272241e+01
5.103333e+01	-1.276984e+01
5.132810e+01	-1.281774e+01
5.162457e+01	-1.286457e+01
5.192275e+01	-1.291272e+01
5.222265e+01	-1.295917e+01
5.252429e+01	-1.300689e+01
5.282767e+01	-1.305528e+01
5.313280e+01	-1.310161e+01
5.343969e+01	-1.314940e+01
5.374836e+01	-1.319763e+01
5.405880e+01	-1.324532e+01
5.437105e+01	-1.329293e+01
5.468509e+01	-1.334003e+01
5.500095e+01	-1.338752e+01
5.531863e+01	-1.343663e+01
5.563815e+01	-1.348300e+01
5.595951e+01	-1.353148e+01
5.628273e+01	-1.357852e+01
5.660782e+01	-1.362672e+01
5.693479e+01	-1.367491e+01
5.726364e+01	-1.372315e+01
5.759439e+01	-1.377070e+01
5.792705e+01	-1.381830e+01
5.826164e+01	-1.386648e+01
5.859815e+01	-1.391515e+01
5.893662e+01	-1.396326e+01
5.927703e+01	-1.401064e+01
5.961941e+01	-1.405827e+01
5.996377e+01	-1.410647e+01
6.031012e+01	-1.415433e+01
6.065847e+01	-1.420333e+01
6.100883e+01	-1.425122e+01
6.136121e+01	-1.429893e+01
6.171563e+01	-1.434755e+01
6.207210e+01	-1.439648e+01
6.243063e+01	-1.444450e+01
6.279122e+01	-1.449256e+01
6.315390e+01	-1.454072e+01
6.351868e+01	-1.458790e+01
6.388556e+01	-1.463779e+01
6.425456e+01	-1.468447e+01
6.462569e+01	-1.473300e+01
6.499897e+01	-1.478239e+01
6.537440e+01	-1.483046e+01
6.575200e+01	-1.487853e+01
6.613178e+01	-1.492663e+01
6.651375e+01	-1.497541e+01
6.689793e+01	-1.502430e+01
6.728433e+01	-1.507231e+01
6.767297e+01	-1.512124e+01
6.806384e+01	-1.516901e+01
6.845698e+01	-1.521881e+01
6.885238e+01	-1.526625e+01
6.925007e+01	-1.531515e+01
6.965005e+01	-1.536365e+01
7.005235e+01	-1.541155e+01
7.045697e+01	-1.546094e+01
7.086393e+01	-1.550990e+01
7.127323e+01	-1.555756e+01
7.168490e+01	-1.560787e+01
7.209895e+01	-1.565601e+01
7.251539e+01	-1.570384e+01
7.293424e+01	-1.575239e+01
7.335551e+01	-1.580125e+01
7.377920e+01	-1.585022e+01
7.420535e+01	-1.589880e+01
7.463396e+01	-1.594712e+01
7.506504e+01	-1.599659e+01
7.549861e+01	-1.604537e+01
7.593469e+01	-1.609393e+01
7.637328e+01	-1.614358e+01
7.681441e+01	-1.619062e+01
7.725809e+01	-1.624064e+01
7.770433e+01	-1.628929e+01
7.815315e+01	-1.633791e+01
7.860456e+01	-1.638813e+01
7.905857e+01	-1.643559e+01
7.951521e+01	-1.648494e+01
7.997449e+01	-1.653408e+01
8.043642e+01	-1.658200e+01
8.090102e+01	-1.663204e+01
8.136830e+01	-1.668085e+01
8.183828e+01	-1.672964e+01
8.231097e+01	-1.677920e+01
8.278640e+01	-1.682749e+01
8.326457e+01	-1.687561e+01
8.374550e+01	-1.692552e+01
8.422921e+01	-1.697391e+01
8.471572e+01	-1.702373e+01
8.520503e+01	-1.707269e+01
8.569717e+01	-1.712072e+01
8.619215e+01	-1.717008e+01
8.669000e+01	-1.722002e+01
8.719071e+01	-1.726838e+01
8.769432e+01	-1.731834e+01
8.820084e+01	-1.736770e+01
8.871029e+01	-1.741634e+01
8.922267e+01	-1.746635e+01
8.973802e+01	-1.751410e+01
9.025634e+01	-1.756315e+01
9.077766e+01	-1.761213e+01
9.130199e+01	-1.766370e+01
9.182935e+01	-1.771153e+01
9.235975e+01	-1.776134e+01
9.289321e+01	-1.781021e+01
9.342976e+01	-1.785887e+01
9.396941e+01	-1.790787e+01
9.451217e+01	-1.795712e+01
9.505807e+01	-1.800630e+01
9.560712e+01	-1.805498e+01
9.615934e+01	-1.810583e+01
9.671476e+01	-1.815448e+01
9.727338e+01	-1.820251e+01
9.783522e+01	-1.825285e+01
9.840032e+01	-1.830185e+01
9.896867e+01	-1.835083e+01
9.954031e+01	-1.840155e+01
1.001153e+02	-1.844961e+01
1.006935e+02	-1.849998e+01
1.012751e+02	-1.854880e+01
1.018601e+02	-1.859805e+01
1.024484e+02	-1.864774e+01
1.030402e+02	-1.869751e+01
1.036353e+02	-1.874507e+01
1.042339e+02	-1.879421e+01
1.048360e+02	-1.884543e+01
1.054415e+02	-1.889448e+01
1.060505e+02	-1.894240e+01
1.066631e+02	-1.899190e+01
1.072791e+02	-1.904284e+01
1.078988e+02	-1.909058e+01
1.085220e+02	-1.914078e+01
1.091488e+02	-1.919039e+01
1.097793e+02	-1.924178e+01
1.104133e+02	-1.928877e+01
1.110511e+02	-1.933982e+01
1.116925e+02	-1.938898e+01
1.123376e+02	-1.943874e+01
1.129865e+02	-1.948672e+01
1.136391e+02	-1.953803e+01
1.142955e+02	-1.958663e+01
1.149556e+02	-1.963481e+01
1.156196e+02	-1.968555e+01
1.162874e+02	-1.973641e+01
1.169591e+02	-1.978351e+01
1.176347e+02	-1.983355e+01
1.183141e+02	-1.988366e+01
1.189975e+02	-1.993369e+01
1.196848e+02	-1.998487e+01
1.203761e+02	-2.003138e+01
1.210714e+02	-2.008165e+01
1.217707e+02	-2.013072e+01
1.224740e+02	-2.017961e+01
1.231814e+02	-2.022846e+01
1.238929e+02	-2.028028e+01
1.246085e+02	-2.032916e+01
1.253283e+02	-2.037805e+01
1.260522e+02	-2.042873e+01
1.267802e+02	-2.047741e+01
1.275125e+02	-2.052844e+01
1.282490e+02	-2.057668e+01
1.289898e+02	-2.062827e+01
1.297348e+02	-2.067665e+01
1.304842e+02	-2.072361e+01
1.312378e+02	-2.077579e+01
1.319959e+02	-2.082553e+01
1.327583e+02	-2.087651e+01
1.335251e+02	-2.092517e+01
1.342963e+02	-2.097362e+01
1.350720e+02	-2.102440e+01
1.358522e+02	-2.107449e+01
1.366368e+02	-2.112342e+01
1.374260e+02	-2.117264e+01
1.382198e+02	-2.122194e+01
1.390182e+02	-2.127159e+01
1.398211e+02	-2.132154e+01
1.406287e+02	-2.137055e+01
1.414410e+02	-2.142124e+01
1.422579e+02	-2.147103e+01
1.430796e+02	-2.151881e+01
1.439060e+02	-2.156988e+01
1.447372e+02	-2.161905e+01
1.455732e+02	-2.166832e+01
1.464141e+02	-2.171922e+01
1.472597e+02	-2.176925e+01
1.481103e+02	-2.181951e+01
1.489658e+02	-2.186792e+01
1.498262e+02	-2.191763e+01
1.506916e+02	-2.196929e+01
1.515620e+02	-2.201771e+01
1.524374e+02	-2.206624e+01
1.533179e+02	-2.211619e+01
1.542034e+02	-2.216586e+01
1.550941e+02	-2.221726e+01
1.559899e+02	-2.226616e+01
1.568909e+02	-2.231455e+01
1.577971e+02	-2.236571e+01
1.587085e+02	-2.241623e+01
1.596252e+02	-2.246567e+01
1.605472e+02	-2.251627e+01
1.614745e+02	-2.256560e+01
1.624072e+02	-2.261374e+01
1.633453e+02	-2.266526e+01
1.642887e+02	-2.271372e+01
1.652377e+02	-2.276578e+01
1.661921e+02	-2.281300e+01
1.671520e+02	-2.286255e+01
1.681175e+02	-2.291201e+01
1.690885e+02	-2.296270e+01
1.700651e+02	-2.301392e+01
1.710474e+02	-2.306518e+01
1.720354e+02	-2.311383e+01
1.730291e+02	-2.316197e+01
1.740285e+02	-2.321310e+01
1.750337e+02	-2.326004e+01
1.760446e+02	-2.331165e+01
1.770615e+02	-2.336158e+01
1.780842e+02	-2.341378e+01
1.791128e+02	-2.346089e+01
1.801473e+02	-2.351081e+01
1.811878e+02	-2.356238e+01
1.822344e+02	-2.361071e+01
1.832870e+02	-2.366412e+01
1.843456e+02	-2.370972e+01
1.854104e+02	-2.376358e+01
1.864813e+02	-2.380944e+01
1.875584e+02	-2.385867e+01
1.886418e+02	-2.391012e+01
1.897313e+02	-2.395839e+01
1.908272e+02	-2.400847e+01
1.919294e+02	-2.405943e+01
1.930380e+02	-2.410743e+01
1.941530e+02	-2.416045e+01
1.952744e+02	-2.420773e+01
1.964023e+02	-2.425701e+01
1.975367e+02	-2.431079e+01
1.986777e+02	-2.435740e+01
1.998252e+02	-2.440875e+01
2.009794e+02	-2.445560e+01
2.021403e+02	-2.450685e+01
2.033078e+02	-2.455711e+01
2.044821e+02	-2.460947e+01
2.056632e+02	-2.465726e+01
2.068511e+02	-2.470665e+01
2.080459e+02	-2.475441e+01
2.092475e+02	-2.480953e+01
2.104561e+02	-2.485560e+01
2.116717e+02	-2.490983e+01
2.128943e+02	-2.495681e+01
2.141240e+02	-2.500715e+01
2.153608e+02	-2.505615e+01
2.166047e+02	-2.511000e+01
2.178558e+02	-2.515921e+01
2.191141e+02	-2.520813e+01
2.203797e+02	-2.526035e+01
2.216526e+02	-2.530637e+01
2.229329e+02	-2.535515e+01
2.242205e+02	-2.540647e+01
2.255156e+02	-2.545893e+01
2.268182e+02	-2.550791e+01
2.281283e+02	-2.555378e+01
2.294459e+02	-2.560528e+01
2.307712e+02	-2.565677e+01
2.321041e+02	-2.570542e+01
2.334447e+02	-2.575630e+01
2.347931e+02	-2.580636e+01
2.361493e+02	-2.585632e+01
2.375133e+02	-2.590898e+01
2.388851e+02	-2.595406e+01
2.402649e+02	-2.600873e+01
2.416527e+02	-2.605564e+01
2.430484e+02	-2.610334e+01
2.444523e+02	-2.615112e+01
2.458642e+02	-2.620549e+01
2.472843e+02	-2.625750e+01
2.487126e+02	-2.630379e+01
2.501492e+02	-2.635547e+01
2.515940e+02	-2.640583e+01
2.530472e+02	-2.645670e+01
2.545088e+02	-2.650620e+01
2.559789e+02	-2.655737e+01
2.574574e+02	-2.660549e+01
2.589444e+02	-2.665432e+01
2.604401e+02	-2.670913e+01
2.619444e+02	-2.675443e+01
2.634574e+02	-2.680677e+01
2.649791e+02	-2.685705e+01
2.665096e+02	-2.690430e+01
2.680489e+02	-2.695497e+01
2.695972e+02	-2.700513e+01
2.711544e+02	-2.704983e+01
2.727205e+02	-2.710649e+01
2.742958e+02	-2.715489e+01
2.758801e+02	-2.720605e+01
2.774736e+02	-2.725147e+01
2.790762e+02	-2.730531e+01
2.806882e+02	-2.735845e+01
2.823094e+02	-2.740609e+01
2.839400e+02	-2.745785e+01
2.855800e+02	-2.750311e+01
2.872295e+02	-2.755386e+01
2.888886e+02	-2.760443e+01
2.905572e+02	-2.765389e+01
2.922354e+02	-2.770648e+01
2.939234e+02	-2.775504e+01
2.956211e+02	-2.780580e+01
2.973286e+02	-2.785265e+01
2.990459e+02	-2.790770e+01
3.007732e+02	-2.795429e+01
3.025104e+02	-2.800410e+01
3.042577e+02	-2.805717e+01
3.060151e+02	-2.810562e+01
3.077826e+02	-2.815665e+01
3.095604e+02	-2.820667e+01
3.113484e+02	-2.825782e+01
3.131467e+02	-2.830786e+01
3.149554e+02	-2.836189e+01
3.167746e+02	-2.840986e+01
3.186043e+02	-2.845586e+01
3.204445e+02	-2.850852e+01
3.222954e+02	-2.855890e+01
3.241570e+02	-2.860710e+01
3.260293e+02	-2.865368e+01
3.279124e+02	-2.870614e+01
3.298064e+02	-2.875717e+01
3.317114e+02	-2.880759e+01
3.336273e+02	-2.885555e+01
3.355544e+02	-2.890026e+01
3.374925e+02	-2.895648e+01
3.394418e+02	-2.900423e+01
3.414024e+02	-2.905218e+01
3.433744e+02	-2.910490e+01
3.453577e+02	-2.915729e+01
3.473525e+02	-2.920866e+01
3.493588e+02	-2.925644e+01
3.513766e+02	-2.930750e+01
3.534062e+02	-2.936042e+01
3.554474e+02	-2.940578e+01
3.575005e+02	-2.945581e+01
3.595654e+02	-2.950866e+01
3.616422e+02	-2.955545e+01
3.637311e+02	-2.960923e+01
3.658320e+02	-2.965928e+01
3.679450e+02	-2.971159e+01
3.700702e+02	-2.975791e+01
3.722077e+02	-2.980865e+01
3.743576e+02	-2.986084e+01
3.765199e+02	-2.991048e+01
3.786946e+02	-2.995573e+01
3.808820e+02	-3.000904e+01
3.830819e+02	-3.006054e+01
3.852946e+02	-3.010743e+01
3.875200e+02	-3.016070e+01
3.897583e+02	-3.020602e+01
3.920096e+02	-3.025782e+01
3.942738e+02	-3.030676e+01
3.965511e+02	-3.035725e+01
3.988416e+02	-3.041017e+01
4.011452e+02	-3.046813e+01
4.034622e+02	-3.050719e+01
4.057926e+02	-3.056130e+01
4.081365e+02	-3.060271e+01
4.104938e+02	-3.065994e+01
4.128648e+02	-3.071117e+01
4.152495e+02	-3.075895e+01
4.176480e+02	-3.080921e+01
4.200603e+02	-3.085600e+01
4.224866e+02	-3.090981e+01
4.249268e+02	-3.095973e+01
4.273812e+02	-3.101262e+01
4.298497e+02	-3.106086e+01
4.323325e+02	-3.111207e+01
4.348297e+02	-3.115867e+01
4.373412e+02	-3.120926e+01
4.398673e+02	-3.126258e+01
4.424079e+02	-3.130891e+01
4.449633e+02	-3.136759e+01
4.475334e+02	-3.141230e+01
4.501183e+02	-3.146322e+01
4.527182e+02	-3.151961e+01
4.553330e+02	-3.156572e+01
4.579630e+02	-3.161620e+01
4.606082e+02	-3.166212e+01
4.632687e+02	-3.171887e+01
4.659445e+02	-3.176468e+01
4.686358e+02	-3.181366e+01
4.713426e+02	-3.186164e+01
4.740650e+02	-3.191327e+01
4.768032e+02	-3.196126e+01
4.795572e+02	-3.200470e+01
4.823271e+02	-3.206810e+01
4.851130e+02	-3.211343e+01
4.879150e+02	-3.216489e+01
4.907332e+02	-3.221380e+01
4.935676e+02	-3.225922e+01
4.964185e+02	-3.231905e+01
4.992858e+02	-3.236499e+01
5.021696e+02	-3.241316e+01
5.050701e+02	-3.246297e+01
5.079874e+02	-3.251872e+01
5.109215e+02	-3.256753e+01
5.138726e+02	-3.261039e+01
5.168407e+02	-3.266384e+01
5.198259e+02	-3.271488e+01
5.228284e+02	-3.276832e+01
5.258482e+02	-3.281119e+01
5.288855e+02	-3.286862e+01
5.319403e+02	-3.292292e+01
5.350128e+02	-3.296636e+01
5.381030e+02	-3.301282e+01
5.412111e+02	-3.307162e+01
5.443371e+02	-3.311569e+01
5.474812e+02	-3.317312e+01
5.506434e+02	-3.321840e+01
5.538239e+02	-3.327207e+01
5.570228e+02	-3.331020e+01
5.602401e+02	-3.337910e+01
5.634760e+02	-3.342174e+01
5.667306e+02	-3.346700e+01
5.700040e+02	-3.351559e+01
5.732964e+02	-3.357071e+01
5.766077e+02	-3.362257e+01
5.799382e+02	-3.368182e+01
5.832879e+02	-3.372096e+01
5.866569e+02	-3.377754e+01
5.900454e+02	-3.382138e+01
5.934535e+02	-3.387375e+01
5.968813e+02	-3.393005e+01
6.003288e+02	-3.397002e+01
6.037963e+02	-3.402219e+01
6.072838e+02	-3.406946e+01
6.107914e+02	-3.412414e+01
6.143194e+02	-3.417636e+01
6.178676e+02	-3.422709e+01
6.214364e+02	-3.427834e+01
6.250258e+02	-3.432782e+01
6.286359e+02	-3.437562e+01
6.322669e+02	-3.442240e+01
6.359189e+02	-3.447787e+01
6.395919e+02	-3.452329e+01
6.432862e+02	-3.457350e+01
6.470017e+02	-3.463009e+01
6.507388e+02	-3.468522e+01
6.544974e+02	-3.473041e+01
6.582778e+02	-3.477767e+01
6.620800e+02	-3.483230e+01
6.659041e+02	-3.488008e+01
6.697504e+02	-3.493248e+01
6.736188e+02	-3.498476e+01
6.775096e+02	-3.503524e+01
6.814229e+02	-3.508478e+01
6.853587e+02	-3.512337e+01
6.893173e+02	-3.518291e+01
6.932988e+02	-3.522249e+01
6.973033e+02	-3.528152e+01
7.013309e+02	-3.533220e+01
