Frequency(Hz)	Magnitude(dB)
1.000000e+01	-2.070949e+00
1.005776e+01	-2.090151e+00
1.011585e+01	-2.108993e+00
1.017428e+01	-2.128304e+00
1.023305e+01	-2.148040e+00
1.029215e+01	-2.167496e+00
1.035160e+01	-2.187208e+00
1.041139e+01	-2.207317e+00
1.047153e+01	-2.226994e+00
1.053201e+01	-2.247014e+00
1.059284e+01	-2.267492e+00
1.065403e+01	-2.287793e+00
1.071556e+01	-2.308271e+00
1.077746e+01	-2.329194e+00
1.083971e+01	-2.349927e+00
1.090232e+01	-2.370887e+00
1.096529e+01	-2.391913e+00
1.102862e+01	-2.413260e+00
1.109232e+01	-2.434654e+00
1.115639e+01	-2.456114e+00
1.122083e+01	-2.478022e+00
1.128564e+01	-2.499456e+00
1.135083e+01	-2.521796e+00
1.141639e+01	-2.543911e+00
1.148233e+01	-2.565866e+00
1.154865e+01	-2.588362e+00
1.161536e+01	-2.610877e+00
1.168245e+01	-2.633838e+00
1.174992e+01	-2.656385e+00
1.181779e+01	-2.679292e+00
1.188605e+01	-2.702467e+00
1.195470e+01	-2.725620e+00
1.202375e+01	-2.748944e+00
1.209320e+01	-2.772629e+00
1.216305e+01	-2.796389e+00
1.223330e+01	-2.820338e+00
1.230396e+01	-2.844085e+00
1.237503e+01	-2.868283e+00
1.244651e+01	-2.892527e+00
1.251840e+01	-2.916790e+00
1.259070e+01	-2.941629e+00
1.266343e+01	-2.966253e+00
1.273657e+01	-2.991030e+00
1.281014e+01	-3.015888e+00
1.288413e+01	-3.041124e+00
1.295855e+01	-3.066303e+00
1.303339e+01	-3.091601e+00
1.310867e+01	-3.117326e+00
1.318439e+01	-3.142960e+00
1.326054e+01	-3.168900e+00
1.333713e+01	-3.194764e+00
1.341417e+01	-3.220794e+00
1.349165e+01	-3.247167e+00
1.356958e+01	-3.273789e+00
1.364795e+01	-3.300333e+00
1.372678e+01	-3.326434e+00
1.380607e+01	-3.353830e+00
1.388581e+01	-3.380798e+00
1.396602e+01	-3.407746e+00
1.404668e+01	-3.435023e+00
1.412782e+01	-3.462400e+00
1.420942e+01	-3.489946e+00
1.429149e+01	-3.517591e+00
1.437404e+01	-3.545377e+00
1.445706e+01	-3.573229e+00
1.454057e+01	-3.601886e+00
1.462455e+01	-3.629828e+00
1.470902e+01	-3.658286e+00
1.479398e+01	-3.686977e+00
1.487943e+01	-3.715806e+00
1.496537e+01	-3.744452e+00
1.505181e+01	-3.773452e+00
1.513875e+01	-3.802403e+00
1.522619e+01	-3.831714e+00
1.531414e+01	-3.861148e+00
1.540259e+01	-3.890592e+00
1.549156e+01	-3.920281e+00
1.558103e+01	-3.950214e+00
1.567103e+01	-3.980002e+00
1.576155e+01	-4.010375e+00
1.585258e+01	-4.040651e+00
1.594415e+01	-4.070969e+00
1.603624e+01	-4.101436e+00
1.612886e+01	-4.131790e+00
1.622202e+01	-4.162770e+00
1.631572e+01	-4.193488e+00
1.640996e+01	-4.224680e+00
1.650474e+01	-4.255854e+00
1.660008e+01	-4.287615e+00
1.669596e+01	-4.318841e+00
1.679239e+01	-4.350086e+00
1.688938e+01	-4.381947e+00
1.698694e+01	-4.413834e+00
1.708505e+01	-4.445756e+00
1.718373e+01	-4.478062e+00
1.728299e+01	-4.509911e+00
1.738281e+01	-4.542502e+00
1.748322e+01	-4.575197e+00
1.758420e+01	-4.607462e+00
1.768576e+01	-4.640681e+00
1.778792e+01	-4.673274e+00
1.789066e+01	-4.706354e+00
1.799399e+01	-4.739554e+00
1.809793e+01	-4.772748e+00
1.820246e+01	-4.805974e+00
1.830760e+01	-4.839744e+00
1.841334e+01	-4.873679e+00
1.851969e+01	-4.907137e+00
1.862666e+01	-4.941361e+00
1.873425e+01	-4.975269e+00
1.884246e+01	-5.009400e+00
1.895129e+01	-5.043913e+00
1.906075e+01	-5.078307e+00
1.917085e+01	-5.112689e+00
1.928158e+01	-5.147280e+00
1.939295e+01	-5.182031e+00
1.950496e+01	-5.217193e+00
1.961762e+01	-5.252476e+00
1.973093e+01	-5.287305e+00
1.984490e+01	-5.322586e+00
1.995952e+01	-5.357773e+00
2.007480e+01	-5.393331e+00
2.019076e+01	-5.429024e+00
2.030738e+01	-5.464756e+00
2.042467e+01	-5.500818e+00
2.054264e+01	-5.536930e+00
2.066130e+01	-5.572759e+00
2.078064e+01	-5.609020e+00
2.090066e+01	-5.645645e+00
2.102139e+01	-5.682010e+00
2.114280e+01	-5.718509e+00
2.126492e+01	-5.755033e+00
2.138775e+01	-5.791932e+00
2.151128e+01	-5.828761e+00
2.163553e+01	-5.865762e+00
2.176050e+01	-5.902716e+00
2.188619e+01	-5.939961e+00
2.201260e+01	-5.977548e+00
2.213974e+01	-6.014513e+00
2.226762e+01	-6.052408e+00
2.239624e+01	-6.090105e+00
2.252560e+01	-6.128169e+00
2.265571e+01	-6.166192e+00
2.278656e+01	-6.204051e+00
2.291818e+01	-6.242073e+00
2.305055e+01	-6.279767e+00
2.318369e+01	-6.318306e+00
2.331760e+01	-6.356839e+00
2.345228e+01	-6.395097e+00
2.358774e+01	-6.433879e+00
2.372398e+01	-6.472601e+00
2.386101e+01	-6.511443e+00
2.399883e+01	-6.550417e+00
2.413745e+01	-6.589448e+00
2.427686e+01	-6.628874e+00
2.441709e+01	-6.667676e+00
2.455812e+01	-6.706601e+00
2.469997e+01	-6.746175e+00
2.484263e+01	-6.785793e+00
2.498612e+01	-6.825281e+00
2.513044e+01	-6.864810e+00
2.527559e+01	-6.904593e+00
2.542158e+01	-6.944501e+00
2.556842e+01	-6.984820e+00
2.571610e+01	-7.024830e+00
2.586463e+01	-7.064998e+00
2.601403e+01	-7.104767e+00
2.616428e+01	-7.145319e+00
2.631541e+01	-7.185917e+00
2.646740e+01	-7.226413e+00
2.662028e+01	-7.266766e+00
2.677404e+01	-7.307597e+00
2.692868e+01	-7.348431e+00
2.708422e+01	-7.388978e+00
2.724066e+01	-7.430416e+00
2.739800e+01	-7.471079e+00
2.755625e+01	-7.512251e+00
2.771541e+01	-7.553467e+00
2.787550e+01	-7.594489e+00
2.803650e+01	-7.636289e+00
2.819844e+01	-7.677649e+00
2.836131e+01	-7.718841e+00
2.852513e+01	-7.760747e+00
2.868989e+01	-7.802415e+00
2.885560e+01	-7.844386e+00
2.902227e+01	-7.885860e+00
2.918990e+01	-7.927889e+00
2.935850e+01	-7.970014e+00
2.952807e+01	-8.012343e+00
2.969863e+01	-8.054074e+00
2.987016e+01	-8.096152e+00
3.004269e+01	-8.138595e+00
3.021622e+01	-8.181142e+00
3.039075e+01	-8.223635e+00
3.056628e+01	-8.266104e+00
3.074283e+01	-8.308723e+00
3.092040e+01	-8.351319e+00
3.109900e+01	-8.394265e+00
3.127862e+01	-8.436894e+00
3.145929e+01	-8.479954e+00
3.164099e+01	-8.522258e+00
3.182375e+01	-8.565772e+00
3.200756e+01	-8.608512e+00
3.219244e+01	-8.651943e+00
3.237838e+01	-8.695613e+00
3.256540e+01	-8.738566e+00
3.275349e+01	-8.781657e+00
3.294268e+01	-8.825186e+00
3.313295e+01	-8.868802e+00
3.332433e+01	-8.912257e+00
3.351681e+01	-8.955916e+00
3.371040e+01	-9.000301e+00
3.390511e+01	-9.043758e+00
3.410094e+01	-9.087559e+00
3.429791e+01	-9.131501e+00
3.449601e+01	-9.175559e+00
3.469526e+01	-9.219547e+00
3.489566e+01	-9.263356e+00
3.509721e+01	-9.307355e+00
3.529993e+01	-9.351721e+00
3.550382e+01	-9.395857e+00
3.570889e+01	-9.439807e+00
3.591515e+01	-9.484574e+00
3.612259e+01	-9.529277e+00
3.633123e+01	-9.573668e+00
3.654108e+01	-9.617864e+00
3.675214e+01	-9.663023e+00
3.696442e+01	-9.707262e+00
3.717792e+01	-9.751883e+00
3.739266e+01	-9.796887e+00
3.760864e+01	-9.841317e+00
3.782587e+01	-9.886277e+00
3.804435e+01	-9.931287e+00
3.826409e+01	-9.975740e+00
3.848510e+01	-1.002091e+01
3.870739e+01	-1.006613e+01
3.893096e+01	-1.011187e+01
3.915583e+01	-1.015695e+01
3.938199e+01	-1.020174e+01
3.960946e+01	-1.024676e+01
3.983824e+01	-1.029260e+01
4.006834e+01	-1.033737e+01
4.029978e+01	-1.038353e+01
4.053255e+01	-1.042854e+01
4.076666e+01	-1.047458e+01
4.100213e+01	-1.052055e+01
4.123896e+01	-1.056511e+01
4.147715e+01	-1.061154e+01
4.171672e+01	-1.065705e+01
4.195767e+01	-1.070241e+01
4.220002e+01	-1.074840e+01
4.244377e+01	-1.079398e+01
4.268892e+01	-1.083983e+01
4.293549e+01	-1.088643e+01
4.318348e+01	-1.093178e+01
4.343291e+01	-1.097792e+01
4.368377e+01	-1.102394e+01
4.393609e+01	-1.106995e+01
4.418986e+01	-1.111606e+01
4.444510e+01	-1.116235e+01
4.470182e+01	-1.120911e+01
4.496001e+01	-1.125470e+01
4.521970e+01	-1.130121e+01
4.548089e+01	-1.134784e+01
4.574358e+01	-1.139462e+01
4.600779e+01	-1.144020e+01
4.627353e+01	-1.148702e+01
4.654081e+01	-1.153367e+01
4.680963e+01	-1.157994e+01
4.708000e+01	-1.162593e+01
4.735193e+01	-1.167265e+01
4.762543e+01	-1.171993e+01
4.790051e+01	-1.176654e+01
4.817719e+01	-1.181294e+01
4.845545e+01	-1.186035e+01
4.873533e+01	-1.190644e+01
4.901682e+01	-1.195371e+01
4.929994e+01	-1.199993e+01
4.958470e+01	-1.204784e+01
4.987110e+01	-1.209452e+01
5.015915e+01	-1.214051e+01
5.044887e+01	-1.218800e+01
5.074026e+01	-1.223460e+01
5.103333e+01	-1.228272e+01
5.132810e+01	-1.232871e+01
5.162457e+01	-1.237664e+01
5.192275e+01	-1.242312e+01
5.222265e+01	-1.247071e+01
5.252429e+01	-1.251800e+01
5.282767e+01	-1.256498e+01
5.313280e+01	-1.261267e+01
5.343969e+01	-1.265963e+01
5.374836e+01	-1.270645e+01
5.405880e+01	-1.275484e+01
5.437105e+01	-1.280177e+01
5.468509e+01	-1.284928e+01
5.500095e+01	-1.289609e+01
5.531863e+01	-1.294380e+01
5.563815e+01	-1.299173e+01
5.595951e+01	-1.303919e+01
5.628273e+01	-1.308735e+01
5.660782e+01	-1.313423e+01
5.693479e+01	-1.318193e+01
5.726364e+01	-1.323015e+01
5.759439e+01	-1.327632e+01
5.792705e+01	-1.332515e+01
5.826164e+01	-1.337255e+01
5.859815e+01	-1.342031e+01
5.893662e+01	-1.346786e+01
5.927703e+01	-1.351586e+01
5.961941e+01	-1.356398e+01
5.996377e+01	-1.361140e+01
6.031012e+01	-1.365971e+01
6.065847e+01	-1.370711e+01
6.100883e+01	-1.375548e+01
6.136121e+01	-1.380311e+01
6.171563e+01	-1.385149e+01
6.207210e+01	-1.389858e+01
6.243063e+01	-1.394704e+01
6.279122e+01	-1.399477e+01
6.315390e+01	-1.404345e+01
6.351868e+01	-1.409075e+01
6.388556e+01	-1.413972e+01
6.425456e+01	-1.418721e+01
6.462569e+01	-1.423520e+01
6.499897e+01	-1.428305e+01
6.537440e+01	-1.433215e+01
6.575200e+01	-1.438004e+01
6.613178e+01	-1.442759e+01
6.651375e+01	-1.447656e+01
6.689793e+01	-1.452516e+01
6.728433e+01	-1.457286e+01
6.767297e+01	-1.462131e+01
6.806384e+01	-1.466940e+01
6.845698e+01	-1.471771e+01
6.885238e+01	-1.476597e+01
6.925007e+01	-1.481476e+01
6.965005e+01	-1.486343e+01
7.005235e+01	-1.491142e+01
7.045697e+01	-1.495976e+01
7.086393e+01	-1.500812e+01
7.127323e+01	-1.505666e+01
7.168490e+01	-1.510437e+01
7.209895e+01	-1.515356e+01
7.251539e+01	-1.520128e+01
7.293424e+01	-1.525147e+01
7.335551e+01	-1.529854e+01
7.377920e+01	-1.534814e+01
7.420535e+01	-1.539649e+01
7.463396e+01	-1.544587e+01
7.506504e+01	-1.549339e+01
7.549861e+01	-1.554125e+01
7.593469e+01	-1.559150e+01
7.637328e+01	-1.563917e+01
7.681441e+01	-1.568809e+01
7.725809e+01	-1.573683e+01
7.770433e+01	-1.578646e+01
7.815315e+01	-1.583342e+01
7.860456e+01	-1.588285e+01
7.905857e+01	-1.593225e+01
7.951521e+01	-1.598058e+01
7.997449e+01	-1.602936e+01
8.043642e+01	-1.607765e+01
8.090102e+01	-1.612699e+01
8.136830e+01	-1.617602e+01
8.183828e+01	-1.622442e+01
8.231097e+01	-1.627336e+01
8.278640e+01	-1.632285e+01
8.326457e+01	-1.637030e+01
8.374550e+01	-1.642018e+01
8.422921e+01	-1.646915e+01
8.471572e+01	-1.651749e+01
8.520503e+01	-1.656626e+01
8.569717e+01	-1.661547e+01
8.619215e+01	-1.666474e+01
8.669000e+01	-1.671485e+01
8.719071e+01	-1.676228e+01
8.769432e+01	-1.681264e+01
8.820084e+01	-1.686087e+01
8.871029e+01	-1.690973e+01
8.922267e+01	-1.695823e+01
8.973802e+01	-1.700773e+01
9.025634e+01	-1.705665e+01
9.077766e+01	-1.710639e+01
9.130199e+01	-1.715423e+01
9.182935e+01	-1.720346e+01
9.235975e+01	-1.725300e+01
9.289321e+01	-1.730253e+01
9.342976e+01	-1.734976e+01
9.396941e+01	-1.739943e+01
9.451217e+01	-1.744951e+01
9.505807e+01	-1.749882e+01
9.560712e+01	-1.754775e+01
9.615934e+01	-1.759658e+01
9.671476e+01	-1.764616e+01
9.727338e+01	-1.769514e+01
9.783522e+01	-1.774336e+01
9.840032e+01	-1.779347e+01
9.896867e+01	-1.784315e+01
9.954031e+01	-1.789183e+01
1.001153e+02	-1.794094e+01
1.006935e+02	-1.798946e+01
1.012751e+02	-1.803908e+01
1.018601e+02	-1.808860e+01
1.024484e+02	-1.813749e+01
1.030402e+02	-1.818714e+01
1.036353e+02	-1.823776e+01
1.042339e+02	-1.828561e+01
1.048360e+02	-1.833512e+01
1.054415e+02	-1.838555e+01
1.060505e+02	-1.843325e+01
1.066631e+02	-1.848320e+01
1.072791e+02	-1.853320e+01
1.078988e+02	-1.858241e+01
1.085220e+02	-1.863059e+01
1.091488e+02	-1.867946e+01
1.097793e+02	-1.872992e+01
1.104133e+02	-1.877844e+01
1.110511e+02	-1.882898e+01
1.116925e+02	-1.887648e+01
1.123376e+02	-1.892778e+01
1.129865e+02	-1.897714e+01
1.136391e+02	-1.902715e+01
1.142955e+02	-1.907588e+01
1.149556e+02	-1.912447e+01
1.156196e+02	-1.917480e+01
1.162874e+02	-1.922274e+01
1.169591e+02	-1.927378e+01
1.176347e+02	-1.932453e+01
1.183141e+02	-1.937279e+01
1.189975e+02	-1.942235e+01
1.196848e+02	-1.947108e+01
1.203761e+02	-1.952077e+01
1.210714e+02	-1.957097e+01
1.217707e+02	-1.962092e+01
1.224740e+02	-1.967021e+01
1.231814e+02	-1.971896e+01
1.238929e+02	-1.976795e+01
1.246085e+02	-1.981744e+01
1.253283e+02	-1.986655e+01
1.260522e+02	-1.991601e+01
1.267802e+02	-1.996669e+01
1.275125e+02	-2.001660e+01
1.282490e+02	-2.006679e+01
1.289898e+02	-2.011625e+01
1.297348e+02	-2.016504e+01
1.304842e+02	-2.021278e+01
1.312378e+02	-2.026322e+01
1.319959e+02	-2.031345e+01
1.327583e+02	-2.036201e+01
1.335251e+02	-2.041096e+01
1.342963e+02	-2.046166e+01
1.350720e+02	-2.051250e+01
1.358522e+02	-2.055968e+01
1.366368e+02	-2.061168e+01
1.374260e+02	-2.065964e+01
1.382198e+02	-2.071116e+01
1.390182e+02	-2.076014e+01
1.398211e+02	-2.081016e+01
1.406287e+02	-2.085983e+01
1.414410e+02	-2.091019e+01
1.422579e+02	-2.095754e+01
1.430796e+02	-2.100742e+01
1.439060e+02	-2.105649e+01
1.447372e+02	-2.110738e+01
1.455732e+02	-2.115676e+01
1.464141e+02	-2.120725e+01
1.472597e+02	-2.125642e+01
1.481103e+02	-2.130507e+01
1.489658e+02	-2.135580e+01
1.498262e+02	-2.140360e+01
1.506916e+02	-2.145588e+01
1.515620e+02	-2.150271e+01
1.524374e+02	-2.155402e+01
1.533179e+02	-2.160440e+01
1.542034e+02	-2.165297e+01
1.550941e+02	-2.170292e+01
1.559899e+02	-2.175258e+01
1.568909e+02	-2.180264e+01
1.577971e+02	-2.185414e+01
1.587085e+02	-2.190350e+01
1.596252e+02	-2.195056e+01
1.605472e+02	-2.200074e+01
1.614745e+02	-2.205070e+01
1.624072e+02	-2.209834e+01
1.633453e+02	-2.215141e+01
1.642887e+02	-2.219948e+01
1.652377e+02	-2.224875e+01
1.661921e+02	-2.230057e+01
1.671520e+02	-2.234886e+01
1.681175e+02	-2.239847e+01
1.690885e+02	-2.245049e+01
1.700651e+02	-2.249876e+01
1.710474e+02	-2.254883e+01
1.720354e+02	-2.260001e+01
1.730291e+02	-2.264828e+01
1.740285e+02	-2.269828e+01
1.750337e+02	-2.274780e+01
1.760446e+02	-2.279570e+01
1.770615e+02	-2.284508e+01
1.780842e+02	-2.289593e+01
1.791128e+02	-2.294731e+01
1.801473e+02	-2.299596e+01
1.811878e+02	-2.304645e+01
1.822344e+02	-2.309595e+01
1.832870e+02	-2.314504e+01
1.843456e+02	-2.319501e+01
1.854104e+02	-2.324611e+01
1.864813e+02	-2.329805e+01
1.875584e+02	-2.334413e+01
1.886418e+02	-2.339347e+01
1.897313e+02	-2.344552e+01
1.908272e+02	-2.349477e+01
1.919294e+02	-2.354427e+01
1.930380e+02	-2.359303e+01
1.941530e+02	-2.364468e+01
1.952744e+02	-2.369462e+01
1.964023e+02	-2.374237e+01
1.975367e+02	-2.379455e+01
1.986777e+02	-2.384476e+01
1.998252e+02	-2.389347e+01
2.009794e+02	-2.394127e+01
2.021403e+02	-2.399205e+01
2.033078e+02	-2.404341e+01
2.044821e+02	-2.409302e+01
2.056632e+02	-2.414274e+01
2.068511e+02	-2.419241e+01
2.080459e+02	-2.424463e+01
2.092475e+02	-2.429336e+01
2.104561e+02	-2.434328e+01
2.116717e+02	-2.439192e+01
2.128943e+02	-2.444198e+01
2.141240e+02	-2.449353e+01
2.153608e+02	-2.454421e+01
2.166047e+02	-2.459358e+01
2.178558e+02	-2.464308e+01
2.191141e+02	-2.469333e+01
2.203797e+02	-2.474531e+01
2.216526e+02	-2.479250e+01
2.229329e+02	-2.484047e+01
2.242205e+02	-2.489300e+01
2.255156e+02	-2.494125e+01
2.268182e+02	-2.499199e+01
2.281283e+02	-2.504134e+01
2.294459e+02	-2.508966e+01
2.307712e+02	-2.514096e+01
2.321041e+02	-2.519139e+01
2.334447e+02	-2.524130e+01
2.347931e+02	-2.528848e+01
2.361493e+02	-2.534032e+01
2.375133e+02	-2.539228e+01
2.388851e+02	-2.543861e+01
2.402649e+02	-2.549011e+01
2.416527e+02	-2.554317e+01
2.430484e+02	-2.559000e+01
2.444523e+02	-2.563870e+01
2.458642e+02	-2.569143e+01
2.472843e+02	-2.573975e+01
2.487126e+02	-2.579015e+01
2.501492e+02	-2.583921e+01
2.515940e+02	-2.588889e+01
2.530472e+02	-2.594111e+01
2.545088e+02	-2.599083e+01
2.559789e+02	-2.603612e+01
2.574574e+02	-2.608861e+01
2.589444e+02	-2.614127e+01
2.604401e+02	-2.618927e+01
2.619444e+02	-2.623697e+01
2.634574e+02	-2.629077e+01
2.649791e+02	-2.633530e+01
2.665096e+02	-2.638862e+01
2.680489e+02	-2.643833e+01
2.695972e+02	-2.648964e+01
2.711544e+02	-2.653959e+01
2.727205e+02	-2.658902e+01
2.742958e+02	-2.663890e+01
2.758801e+02	-2.668846e+01
2.774736e+02	-2.673720e+01
2.790762e+02	-2.678880e+01
2.806882e+02	-2.683755e+01
2.823094e+02	-2.688728e+01
2.839400e+02	-2.694182e+01
2.855800e+02	-2.699125e+01
2.872295e+02	-2.703984e+01
2.888886e+02	-2.709036e+01
2.905572e+02	-2.713808e+01
2.922354e+02	-2.719104e+01
2.939234e+02	-2.723882e+01
2.956211e+02	-2.729098e+01
2.973286e+02	-2.734021e+01
2.990459e+02	-2.739061e+01
3.007732e+02	-2.744364e+01
3.025104e+02	-2.748981e+01
3.042577e+02	-2.753597e+01
3.060151e+02	-2.758686e+01
3.077826e+02	-2.763981e+01
3.095604e+02	-2.768805e+01
3.113484e+02	-2.773907e+01
3.131467e+02	-2.778969e+01
3.149554e+02	-2.783726e+01
3.167746e+02	-2.788610e+01
3.186043e+02	-2.793920e+01
3.204445e+02	-2.798969e+01
3.222954e+02	-2.803628e+01
3.241570e+02	-2.808444e+01
3.260293e+02	-2.813808e+01
3.279124e+02	-2.819054e+01
3.298064e+02	-2.824047e+01
3.317114e+02	-2.829173e+01
3.336273e+02	-2.834130e+01
3.355544e+02	-2.838903e+01
3.374925e+02	-2.843971e+01
3.394418e+02	-2.848749e+01
3.414024e+02	-2.854261e+01
3.433744e+02	-2.858971e+01
3.453577e+02	-2.863575e+01
3.473525e+02	-2.869460e+01
3.493588e+02	-2.873945e+01
3.513766e+02	-2.878966e+01
3.534062e+02	-2.884126e+01
3.554474e+02	-2.889592e+01
3.575005e+02	-2.894119e+01
3.595654e+02	-2.899155e+01
3.616422e+02	-2.904182e+01
3.637311e+02	-2.908843e+01
3.658320e+02	-2.914023e+01
3.679450e+02	-2.918858e+01
3.700702e+02	-2.923580e+01
3.722077e+02	-2.929195e+01
3.743576e+02	-2.933831e+01
3.765199e+02	-2.939117e+01
3.786946e+02	-2.944114e+01
3.808820e+02	-2.949406e+01
3.830819e+02	-2.954220e+01
3.852946e+02	-2.958668e+01
3.875200e+02	-2.964167e+01
3.897583e+02	-2.969143e+01
3.920096e+02	-2.974313e+01
3.942738e+02	-2.978889e+01
3.965511e+02	-2.984037e+01
3.988416e+02	-2.989077e+01
4.011452e+02	-2.994285e+01
4.034622e+02	-2.999140e+01
4.057926e+02	-3.004643e+01
4.081365e+02	-3.009222e+01
4.104938e+02	-3.014549e+01
4.128648e+02	-3.019208e+01
4.152495e+02	-3.024358e+01
4.176480e+02	-3.029286e+01
4.200603e+02	-3.034301e+01
4.224866e+02	-3.039523e+01
4.249268e+02	-3.044423e+01
4.273812e+02	-3.049753e+01
4.298497e+02	-3.054339e+01
4.323325e+02	-3.059349e+01
4.348297e+02	-3.064756e+01
4.373412e+02	-3.069523e+01
4.398673e+02	-3.074497e+01
4.424079e+02	-3.079681e+01
4.449633e+02	-3.084423e+01
4.475334e+02	-3.089676e+01
4.501183e+02	-3.094336e+01
4.527182e+02	-3.099288e+01
4.553330e+02	-3.104196e+01
4.579630e+02	-3.109554e+01
4.606082e+02	-3.114680e+01
4.632687e+02	-3.119237e+01
4.659445e+02	-3.124219e+01
4.686358e+02	-3.130140e+01
4.713426e+02	-3.134498e+01
4.740650e+02	-3.140114e+01
4.768032e+02	-3.144604e+01
4.795572e+02	-3.149018e+01
4.823271e+02	-3.154965e+01
4.851130e+02	-3.160120e+01
4.879150e+02	-3.164419e+01
4.907332e+02	-3.169292e+01
4.935676e+02	-3.174917e+01
4.964185e+02	-3.179841e+01
4.992858e+02	-3.184618e+01
5.021696e+02	-3.190162e+01
5.050701e+02	-3.194401e+01
5.079874e+02	-3.199741e+01
5.109215e+02	-3.204863e+01
5.138726e+02	-3.209621e+01
5.168407e+02	-3.214436e+01
5.198259e+02	-3.220165e+01
5.228284e+02	-3.224551e+01
5.258482e+02	-3.229668e+01
5.288855e+02	-3.234867e+01
5.319403e+02	-3.240262e+01
5.350128e+02	-3.244658e+01
5.381030e+02	-3.249829e+01
5.412111e+02	-3.254921e+01
5.443371e+02	-3.259992e+01
5.474812e+02	-3.264893e+01
5.506434e+02	-3.269889e+01
5.538239e+02	-3.275383e+01
5.570228e+02	-3.280070e+01
5.602401e+02	-3.284851e+01
5.634760e+02	-3.289816e+01
5.667306e+02	-3.294932e+01
5.700040e+02	-3.300275e+01
5.732964e+02	-3.305753e+01
5.766077e+02	-3.309963e+01
5.799382e+02	-3.315046e+01
5.832879e+02	-3.320823e+01
5.866569e+02	-3.326605e+01
5.900454e+02	-3.330116e+01
5.934535e+02	-3.335663e+01
5.968813e+02	-3.340011e+01
6.003288e+02	-3.345020e+01
6.037963e+02	-3.350194e+01
6.072838e+02	-3.356220e+01
6.107914e+02	-3.361356e+01
6.143194e+02	-3.365310e+01
6.178676e+02	-3.370371e+01
6.214364e+02	-3.375841e+01
6.250258e+02	-3.380779e+01
6.286359e+02	-3.385410e+01
6.322669e+02	-3.390789e+01
6.359189e+02	-3.395783e+01
6.395919e+02	-3.400634e+01
6.432862e+02	-3.406131e+01
6.470017e+02	-3.410610e+01
6.507388e+02	-3.415406e+01
6.544974e+02	-3.420654e+01
6.582778e+02	-3.426027e+01
6.620800e+02	-3.431132e+01
6.659041e+02	-3.436449e+01
6.697504e+02	-3.440173e+01
6.736188e+02	-3.445988e+01
6.775096e+02	-3.451286e+01
6.814229e+02	-3.456501e+01
6.853587e+02	-3.461155e+01
6.893173e+02	-3.465829e+01
6.932988e+02	-3.471343e+01
6.973033e+02	-3.475503e+01
7.013309e+02	-3.481720e+01
