Frequency(Hz)	Magnitude(dB)
1.000000e+01	-2.066333e+00
1.005776e+01	-2.085309e+00
1.011585e+01	-2.104371e+00
1.017428e+01	-2.123721e+00
1.023305e+01	-2.143216e+00
1.029215e+01	-2.162899e+00
1.035160e+01	-2.182443e+00
1.041139e+01	-2.202347e+00
1.047153e+01	-2.222129e+00
1.053201e+01	-2.242255e+00
1.059284e+01	-2.262581e+00
1.065403e+01	-2.283035e+00
1.071556e+01	-2.303619e+00
1.077746e+01	-2.323941e+00
1.083971e+01	-2.344733e+00
1.090232e+01	-2.366035e+00
1.096529e+01	-2.386903e+00
1.102862e+01	-2.408200e+00
1.109232e+01	-2.429467e+00
1.115639e+01	-2.451038e+00
1.122083e+01	-2.472707e+00
1.128564e+01	-2.494419e+00
1.135083e+01	-2.516516e+00
1.141639e+01	-2.538613e+00
1.148233e+01	-2.560797e+00
1.154865e+01	-2.583124e+00
1.161536e+01	-2.605614e+00
1.168245e+01	-2.628407e+00
1.174992e+01	-2.650992e+00
1.181779e+01	-2.673886e+00
1.188605e+01	-2.697063e+00
1.195470e+01	-2.720334e+00
1.202375e+01	-2.743448e+00
1.209320e+01	-2.767112e+00
1.216305e+01	-2.790717e+00
1.223330e+01	-2.814619e+00
1.230396e+01	-2.838487e+00
1.237503e+01	-2.862464e+00
1.244651e+01	-2.886751e+00
1.251840e+01	-2.911137e+00
1.259070e+01	-2.935548e+00
1.266343e+01	-2.960043e+00
1.273657e+01	-2.985036e+00
1.281014e+01	-3.009933e+00
1.288413e+01	-3.034932e+00
1.295855e+01	-3.060294e+00
1.303339e+01	-3.085744e+00
1.310867e+01	-3.111141e+00
1.318439e+01	-3.136723e+00
1.326054e+01	-3.162572e+00
1.333713e+01	-3.188660e+00
1.341417e+01	-3.214645e+00
1.349165e+01	-3.240752e+00
1.356958e+01	-3.267258e+00
1.364795e+01	-3.293803e+00
1.372678e+01	-3.320438e+00
1.380607e+01	-3.347100e+00
1.388581e+01	-3.374292e+00
1.396602e+01	-3.401312e+00
1.404668e+01	-3.428562e+00
1.412782e+01	-3.455996e+00
1.420942e+01	-3.483343e+00
1.429149e+01	-3.510917e+00
1.437404e+01	-3.538719e+00
1.445706e+01	-3.566698e+00
1.454057e+01	-3.595060e+00
1.462455e+01	-3.623093e+00
1.470902e+01	-3.651798e+00
1.479398e+01	-3.680003e+00
1.487943e+01	-3.708724e+00
1.496537e+01	-3.737413e+00
1.505181e+01	-3.766613e+00
1.513875e+01	-3.795317e+00
1.522619e+01	-3.824736e+00
1.531414e+01	-3.854237e+00
1.540259e+01	-3.883612e+00
1.549156e+01	-3.913316e+00
1.558103e+01	-3.943234e+00
1.567103e+01	-3.973016e+00
1.576155e+01	-4.002870e+00
1.585258e+01	-4.033280e+00
1.594415e+01	-4.063528e+00
1.603624e+01	-4.094114e+00
1.612886e+01	-4.124407e+00
1.622202e+01	-4.155602e+00
1.631572e+01	-4.186144e+00
1.640996e+01	-4.217260e+00
1.650474e+01	-4.248397e+00
1.660008e+01	-4.279908e+00
1.669596e+01	-4.311311e+00
1.679239e+01	-4.342700e+00
1.688938e+01	-4.374456e+00
1.698694e+01	-4.406362e+00
1.708505e+01	-4.438190e+00
1.718373e+01	-4.470275e+00
1.728299e+01	-4.502269e+00
1.738281e+01	-4.534866e+00
1.748322e+01	-4.567321e+00
1.758420e+01	-4.599561e+00
1.768576e+01	-4.632711e+00
1.778792e+01	-4.665548e+00
1.789066e+01	-4.698642e+00
1.799399e+01	-4.731787e+00
1.809793e+01	-4.765021e+00
1.820246e+01	-4.798199e+00
1.830760e+01	-4.831687e+00
1.841334e+01	-4.865469e+00
1.851969e+01	-4.899465e+00
1.862666e+01	-4.932660e+00
1.873425e+01	-4.967180e+00
1.884246e+01	-5.001216e+00
1.895129e+01	-5.035507e+00
1.906075e+01	-5.069917e+00
1.917085e+01	-5.104532e+00
1.928158e+01	-5.138937e+00
1.939295e+01	-5.173727e+00
1.950496e+01	-5.208686e+00
1.961762e+01	-5.243745e+00
1.973093e+01	-5.278574e+00
1.984490e+01	-5.314398e+00
1.995952e+01	-5.349691e+00
2.007480e+01	-5.384999e+00
2.019076e+01	-5.420478e+00
2.030738e+01	-5.456444e+00
2.042467e+01	-5.492077e+00
2.054264e+01	-5.528172e+00
2.066130e+01	-5.564196e+00
2.078064e+01	-5.600495e+00
2.090066e+01	-5.636783e+00
2.102139e+01	-5.673317e+00
2.114280e+01	-5.709977e+00
2.126492e+01	-5.746065e+00
2.138775e+01	-5.783034e+00
2.151128e+01	-5.820034e+00
2.163553e+01	-5.856947e+00
2.176050e+01	-5.893987e+00
2.188619e+01	-5.931448e+00
2.201260e+01	-5.968535e+00
2.213974e+01	-6.006007e+00
2.226762e+01	-6.043676e+00
2.239624e+01	-6.080971e+00
2.252560e+01	-6.119130e+00
2.265571e+01	-6.156590e+00
2.278656e+01	-6.194634e+00
2.291818e+01	-6.232907e+00
2.305055e+01	-6.271109e+00
2.318369e+01	-6.309394e+00
2.331760e+01	-6.347357e+00
2.345228e+01	-6.386324e+00
2.358774e+01	-6.424421e+00
2.372398e+01	-6.463724e+00
2.386101e+01	-6.502257e+00
2.399883e+01	-6.541023e+00
2.413745e+01	-6.579874e+00
2.427686e+01	-6.619223e+00
2.441709e+01	-6.658275e+00
2.455812e+01	-6.697037e+00
2.469997e+01	-6.737126e+00
2.484263e+01	-6.776396e+00
2.498612e+01	-6.816061e+00
2.513044e+01	-6.855828e+00
2.527559e+01	-6.895206e+00
2.542158e+01	-6.935238e+00
2.556842e+01	-6.974763e+00
2.571610e+01	-7.015253e+00
2.586463e+01	-7.055165e+00
2.601403e+01	-7.095658e+00
2.616428e+01	-7.136257e+00
2.631541e+01	-7.176240e+00
2.646740e+01	-7.216688e+00
2.662028e+01	-7.257297e+00
2.677404e+01	-7.297594e+00
2.692868e+01	-7.338623e+00
2.708422e+01	-7.379298e+00
2.724066e+01	-7.420362e+00
2.739800e+01	-7.461855e+00
2.755625e+01	-7.502580e+00
2.771541e+01	-7.543469e+00
2.787550e+01	-7.584954e+00
2.803650e+01	-7.626241e+00
2.819844e+01	-7.667532e+00
2.836131e+01	-7.709340e+00
2.852513e+01	-7.750775e+00
2.868989e+01	-7.792222e+00
2.885560e+01	-7.834630e+00
2.902227e+01	-7.875907e+00
2.918990e+01	-7.918073e+00
2.935850e+01	-7.960022e+00
2.952807e+01	-8.001979e+00
2.969863e+01	-8.044391e+00
2.987016e+01	-8.086514e+00
3.004269e+01	-8.128790e+00
3.021622e+01	-8.170861e+00
3.039075e+01	-8.213384e+00
3.056628e+01	-8.255604e+00
3.074283e+01	-8.298865e+00
3.092040e+01	-8.340955e+00
3.109900e+01	-8.383912e+00
3.127862e+01	-8.426700e+00
3.145929e+01	-8.469696e+00
3.164099e+01	-8.512454e+00
3.182375e+01	-8.555338e+00
3.200756e+01	-8.598972e+00
3.219244e+01	-8.641873e+00
3.237838e+01	-8.685102e+00
3.256540e+01	-8.728433e+00
3.275349e+01	-8.771736e+00
3.294268e+01	-8.815370e+00
3.313295e+01	-8.858651e+00
3.332433e+01	-8.902348e+00
3.351681e+01	-8.945632e+00
3.371040e+01	-8.989468e+00
3.390511e+01	-9.033144e+00
3.410094e+01	-9.076974e+00
3.429791e+01	-9.121150e+00
3.449601e+01	-9.164656e+00
3.469526e+01	-9.209085e+00
3.489566e+01	-9.252998e+00
3.509721e+01	-9.296949e+00
3.529993e+01	-9.341122e+00
3.550382e+01	-9.385911e+00
3.570889e+01	-9.429169e+00
3.591515e+01	-9.474054e+00
3.612259e+01	-9.518365e+00
3.633123e+01	-9.562760e+00
3.654108e+01	-9.607999e+00
3.675214e+01	-9.652384e+00
3.696442e+01	-9.696334e+00
3.717792e+01	-9.741010e+00
3.739266e+01	-9.786278e+00
3.760864e+01	-9.830478e+00
3.782587e+01	-9.875883e+00
3.804435e+01	-9.921029e+00
3.826409e+01	-9.965584e+00
3.848510e+01	-1.001048e+01
3.870739e+01	-1.005594e+01
3.893096e+01	-1.010039e+01
3.915583e+01	-1.014535e+01
3.938199e+01	-1.019116e+01
3.960946e+01	-1.023683e+01
3.983824e+01	-1.028204e+01
4.006834e+01	-1.032714e+01
4.029978e+01	-1.037215e+01
4.053255e+01	-1.041762e+01
4.076666e+01	-1.046370e+01
4.100213e+01	-1.050952e+01
4.123896e+01	-1.055438e+01
4.147715e+01	-1.059999e+01
4.171672e+01	-1.064597e+01
4.195767e+01	-1.069199e+01
4.220002e+01	-1.073787e+01
4.244377e+01	-1.078371e+01
4.268892e+01	-1.082921e+01
4.293549e+01	-1.087480e+01
4.318348e+01	-1.092122e+01
4.343291e+01	-1.096682e+01
4.368377e+01	-1.101350e+01
4.393609e+01	-1.105959e+01
4.418986e+01	-1.110546e+01
4.444510e+01	-1.115135e+01
4.470182e+01	-1.119765e+01
4.496001e+01	-1.124336e+01
4.521970e+01	-1.129037e+01
4.548089e+01	-1.133685e+01
4.574358e+01	-1.138280e+01
4.600779e+01	-1.142893e+01
4.627353e+01	-1.147509e+01
4.654081e+01	-1.152179e+01
4.680963e+01	-1.156846e+01
4.708000e+01	-1.161479e+01
4.735193e+01	-1.166154e+01
4.762543e+01	-1.170818e+01
4.790051e+01	-1.175520e+01
4.817719e+01	-1.180157e+01
4.845545e+01	-1.184901e+01
4.873533e+01	-1.189607e+01
4.901682e+01	-1.194226e+01
4.929994e+01	-1.198966e+01
4.958470e+01	-1.203534e+01
4.987110e+01	-1.208346e+01
5.015915e+01	-1.212912e+01
5.044887e+01	-1.217713e+01
5.074026e+01	-1.222350e+01
5.103333e+01	-1.227024e+01
5.132810e+01	-1.231822e+01
5.162457e+01	-1.236548e+01
5.192275e+01	-1.241209e+01
5.222265e+01	-1.245895e+01
5.252429e+01	-1.250664e+01
5.282767e+01	-1.255361e+01
5.313280e+01	-1.260104e+01
5.343969e+01	-1.264801e+01
5.374836e+01	-1.269583e+01
5.405880e+01	-1.274365e+01
5.437105e+01	-1.279068e+01
5.468509e+01	-1.283778e+01
5.500095e+01	-1.288485e+01
5.531863e+01	-1.293180e+01
5.563815e+01	-1.298019e+01
5.595951e+01	-1.302725e+01
5.628273e+01	-1.307563e+01
5.660782e+01	-1.312226e+01
5.693479e+01	-1.317002e+01
5.726364e+01	-1.321803e+01
5.759439e+01	-1.326578e+01
5.792705e+01	-1.331367e+01
5.826164e+01	-1.336112e+01
5.859815e+01	-1.340817e+01
5.893662e+01	-1.345697e+01
5.927703e+01	-1.350390e+01
5.961941e+01	-1.355229e+01
5.996377e+01	-1.360065e+01
6.031012e+01	-1.364837e+01
6.065847e+01	-1.369579e+01
6.100883e+01	-1.374415e+01
6.136121e+01	-1.379115e+01
6.171563e+01	-1.383968e+01
6.207210e+01	-1.388682e+01
6.243063e+01	-1.393583e+01
6.279122e+01	-1.398280e+01
6.315390e+01	-1.403216e+01
6.351868e+01	-1.407942e+01
6.388556e+01	-1.412776e+01
6.425456e+01	-1.417544e+01
6.462569e+01	-1.422442e+01
6.499897e+01	-1.427224e+01
6.537440e+01	-1.431986e+01
6.575200e+01	-1.436916e+01
6.613178e+01	-1.441568e+01
6.651375e+01	-1.446555e+01
6.689793e+01	-1.451357e+01
6.728433e+01	-1.456242e+01
6.767297e+01	-1.461011e+01
6.806384e+01	-1.465846e+01
6.845698e+01	-1.470617e+01
6.885238e+01	-1.475454e+01
6.925007e+01	-1.480317e+01
6.965005e+01	-1.485063e+01
7.005235e+01	-1.489937e+01
7.045697e+01	-1.494836e+01
7.086393e+01	-1.499563e+01
7.127323e+01	-1.504548e+01
7.168490e+01	-1.509375e+01
7.209895e+01	-1.514168e+01
7.251539e+01	-1.519155e+01
7.293424e+01	-1.523940e+01
7.335551e+01	-1.528736e+01
7.377920e+01	-1.533680e+01
7.420535e+01	-1.538447e+01
7.463396e+01	-1.543400e+01
7.506504e+01	-1.548213e+01
7.549861e+01	-1.553178e+01
7.593469e+01	-1.557947e+01
7.637328e+01	-1.562724e+01
7.681441e+01	-1.567677e+01
7.725809e+01	-1.572500e+01
7.770433e+01	-1.577386e+01
7.815315e+01	-1.582421e+01
7.860456e+01	-1.587120e+01
7.905857e+01	-1.592052e+01
7.951521e+01	-1.596907e+01
7.997449e+01	-1.601754e+01
8.043642e+01	-1.606777e+01
8.090102e+01	-1.611552e+01
8.136830e+01	-1.616390e+01
8.183828e+01	-1.621284e+01
8.231097e+01	-1.626137e+01
8.278640e+01	-1.631031e+01
8.326457e+01	-1.635974e+01
8.374550e+01	-1.640958e+01
8.422921e+01	-1.645769e+01
8.471572e+01	-1.650546e+01
8.520503e+01	-1.655397e+01
8.569717e+01	-1.660390e+01
8.619215e+01	-1.665326e+01
8.669000e+01	-1.670156e+01
8.719071e+01	-1.675147e+01
8.769432e+01	-1.680000e+01
8.820084e+01	-1.684889e+01
8.871029e+01	-1.689817e+01
8.922267e+01	-1.694691e+01
8.973802e+01	-1.699562e+01
9.025634e+01	-1.704433e+01
9.077766e+01	-1.709361e+01
9.130199e+01	-1.714362e+01
9.182935e+01	-1.719258e+01
9.235975e+01	-1.724079e+01
9.289321e+01	-1.729047e+01
9.342976e+01	-1.733974e+01
9.396941e+01	-1.738978e+01
9.451217e+01	-1.743879e+01
9.505807e+01	-1.748666e+01
9.560712e+01	-1.753600e+01
9.615934e+01	-1.758606e+01
9.671476e+01	-1.763428e+01
9.727338e+01	-1.768455e+01
9.783522e+01	-1.773254e+01
9.840032e+01	-1.778228e+01
9.896867e+01	-1.782997e+01
9.954031e+01	-1.788034e+01
1.001153e+02	-1.792962e+01
1.006935e+02	-1.797814e+01
1.012751e+02	-1.802832e+01
1.018601e+02	-1.807685e+01
1.024484e+02	-1.812608e+01
1.030402e+02	-1.817554e+01
1.036353e+02	-1.822547e+01
1.042339e+02	-1.827392e+01
1.048360e+02	-1.832307e+01
1.054415e+02	-1.837307e+01
1.060505e+02	-1.842246e+01
1.066631e+02	-1.847035e+01
1.072791e+02	-1.851960e+01
1.078988e+02	-1.856918e+01
1.085220e+02	-1.861991e+01
1.091488e+02	-1.866917e+01
1.097793e+02	-1.871890e+01
1.104133e+02	-1.876756e+01
1.110511e+02	-1.881498e+01
1.116925e+02	-1.886555e+01
1.123376e+02	-1.891580e+01
1.129865e+02	-1.896595e+01
1.136391e+02	-1.901431e+01
1.142955e+02	-1.906422e+01
1.149556e+02	-1.911318e+01
1.156196e+02	-1.916353e+01
1.162874e+02	-1.921248e+01
1.169591e+02	-1.926224e+01
1.176347e+02	-1.931013e+01
1.183141e+02	-1.935990e+01
1.189975e+02	-1.941071e+01
1.196848e+02	-1.945839e+01
1.203761e+02	-1.950871e+01
1.210714e+02	-1.955781e+01
1.217707e+02	-1.960812e+01
1.224740e+02	-1.965707e+01
1.231814e+02	-1.970701e+01
1.238929e+02	-1.975666e+01
1.246085e+02	-1.980710e+01
1.253283e+02	-1.985601e+01
1.260522e+02	-1.990417e+01
1.267802e+02	-1.995497e+01
1.275125e+02	-2.000499e+01
1.282490e+02	-2.005262e+01
1.289898e+02	-2.010180e+01
1.297348e+02	-2.015450e+01
1.304842e+02	-2.020259e+01
1.312378e+02	-2.025233e+01
1.319959e+02	-2.030182e+01
1.327583e+02	-2.035101e+01
1.335251e+02	-2.040008e+01
1.342963e+02	-2.045090e+01
1.350720e+02	-2.049959e+01
1.358522e+02	-2.055095e+01
1.366368e+02	-2.059963e+01
1.374260e+02	-2.064951e+01
1.382198e+02	-2.069822e+01
1.390182e+02	-2.074698e+01
1.398211e+02	-2.079784e+01
1.406287e+02	-2.084546e+01
1.414410e+02	-2.089595e+01
1.422579e+02	-2.094660e+01
1.430796e+02	-2.099609e+01
1.439060e+02	-2.104579e+01
1.447372e+02	-2.109545e+01
1.455732e+02	-2.114505e+01
1.464141e+02	-2.119390e+01
1.472597e+02	-2.124218e+01
1.481103e+02	-2.129313e+01
1.489658e+02	-2.134382e+01
1.498262e+02	-2.139304e+01
1.506916e+02	-2.144382e+01
1.515620e+02	-2.149354e+01
1.524374e+02	-2.154210e+01
1.533179e+02	-2.159101e+01
1.542034e+02	-2.164237e+01
1.550941e+02	-2.169138e+01
1.559899e+02	-2.174113e+01
1.568909e+02	-2.179131e+01
1.577971e+02	-2.183999e+01
1.587085e+02	-2.189062e+01
1.596252e+02	-2.194076e+01
1.605472e+02	-2.198973e+01
1.614745e+02	-2.203916e+01
1.624072e+02	-2.209040e+01
1.633453e+02	-2.213884e+01
1.642887e+02	-2.218894e+01
1.652377e+02	-2.223906e+01
1.661921e+02	-2.228879e+01
1.671520e+02	-2.233870e+01
1.681175e+02	-2.238673e+01
1.690885e+02	-2.243932e+01
1.700651e+02	-2.248792e+01
1.710474e+02	-2.253710e+01
1.720354e+02	-2.258773e+01
1.730291e+02	-2.263735e+01
1.740285e+02	-2.268765e+01
1.750337e+02	-2.273845e+01
1.760446e+02	-2.278529e+01
1.770615e+02	-2.283580e+01
1.780842e+02	-2.288577e+01
1.791128e+02	-2.293564e+01
1.801473e+02	-2.298355e+01
1.811878e+02	-2.303511e+01
1.822344e+02	-2.308476e+01
1.832870e+02	-2.313288e+01
1.843456e+02	-2.318512e+01
1.854104e+02	-2.323475e+01
1.864813e+02	-2.328260e+01
1.875584e+02	-2.333307e+01
1.886418e+02	-2.338519e+01
1.897313e+02	-2.343232e+01
1.908272e+02	-2.348248e+01
1.919294e+02	-2.353233e+01
1.930380e+02	-2.358459e+01
1.941530e+02	-2.363369e+01
1.952744e+02	-2.368316e+01
1.964023e+02	-2.373154e+01
1.975367e+02	-2.378231e+01
1.986777e+02	-2.383082e+01
1.998252e+02	-2.388113e+01
2.009794e+02	-2.393163e+01
2.021403e+02	-2.398306e+01
2.033078e+02	-2.403216e+01
2.044821e+02	-2.408374e+01
2.056632e+02	-2.413076e+01
2.068511e+02	-2.418061e+01
2.080459e+02	-2.422974e+01
2.092475e+02	-2.428187e+01
2.104561e+02	-2.432923e+01
2.116717e+02	-2.437878e+01
2.128943e+02	-2.442922e+01
2.141240e+02	-2.447882e+01
2.153608e+02	-2.452781e+01
2.166047e+02	-2.457842e+01
2.178558e+02	-2.463149e+01
2.191141e+02	-2.467849e+01
2.203797e+02	-2.472922e+01
2.216526e+02	-2.477958e+01
2.229329e+02	-2.482828e+01
2.242205e+02	-2.487612e+01
2.255156e+02	-2.492779e+01
2.268182e+02	-2.497585e+01
2.281283e+02	-2.502971e+01
2.294459e+02	-2.507883e+01
2.307712e+02	-2.512802e+01
2.321041e+02	-2.518366e+01
2.334447e+02	-2.522832e+01
2.347931e+02	-2.527854e+01
2.361493e+02	-2.532828e+01
2.375133e+02	-2.537768e+01
2.388851e+02	-2.542946e+01
2.402649e+02	-2.547613e+01
2.416527e+02	-2.552792e+01
2.430484e+02	-2.557651e+01
2.444523e+02	-2.562768e+01
2.458642e+02	-2.567649e+01
2.472843e+02	-2.573095e+01
2.487126e+02	-2.577941e+01
2.501492e+02	-2.582841e+01
2.515940e+02	-2.587917e+01
2.530472e+02	-2.592759e+01
2.545088e+02	-2.598025e+01
2.559789e+02	-2.602952e+01
2.574574e+02	-2.607730e+01
2.589444e+02	-2.612731e+01
2.604401e+02	-2.617573e+01
2.619444e+02	-2.622911e+01
2.634574e+02	-2.628137e+01
2.649791e+02	-2.632810e+01
2.665096e+02	-2.637750e+01
2.680489e+02	-2.642644e+01
2.695972e+02	-2.647848e+01
2.711544e+02	-2.652809e+01
2.727205e+02	-2.657905e+01
2.742958e+02	-2.662838e+01
2.758801e+02	-2.667684e+01
2.774736e+02	-2.672695e+01
2.790762e+02	-2.677822e+01
2.806882e+02	-2.682363e+01
2.823094e+02	-2.687796e+01
2.839400e+02	-2.692634e+01
2.855800e+02	-2.697956e+01
2.872295e+02	-2.702861e+01
2.888886e+02	-2.707843e+01
2.905572e+02	-2.712984e+01
2.922354e+02	-2.717506e+01
2.939234e+02	-2.722752e+01
2.956211e+02	-2.728041e+01
2.973286e+02	-2.732567e+01
2.990459e+02	-2.737459e+01
3.007732e+02	-2.742554e+01
3.025104e+02	-2.747889e+01
3.042577e+02	-2.753124e+01
3.060151e+02	-2.757573e+01
3.077826e+02	-2.762130e+01
3.095604e+02	-2.767420e+01
3.113484e+02	-2.772921e+01
3.131467e+02	-2.777621e+01
3.149554e+02	-2.782533e+01
3.167746e+02	-2.787836e+01
3.186043e+02	-2.792708e+01
3.204445e+02	-2.797710e+01
3.222954e+02	-2.802430e+01
3.241570e+02	-2.807827e+01
3.260293e+02	-2.812738e+01
3.279124e+02	-2.817535e+01
3.298064e+02	-2.823002e+01
3.317114e+02	-2.827346e+01
3.336273e+02	-2.832635e+01
3.355544e+02	-2.838034e+01
3.374925e+02	-2.842637e+01
3.394418e+02	-2.847785e+01
3.414024e+02	-2.853062e+01
3.433744e+02	-2.857882e+01
3.453577e+02	-2.862529e+01
3.473525e+02	-2.867845e+01
3.493588e+02	-2.872997e+01
3.513766e+02	-2.878229e+01
3.534062e+02	-2.882673e+01
3.554474e+02	-2.888143e+01
3.575005e+02	-2.893161e+01
3.595654e+02	-2.897959e+01
3.616422e+02	-2.902761e+01
3.637311e+02	-2.907834e+01
3.658320e+02	-2.913028e+01
3.679450e+02	-2.917595e+01
3.700702e+02	-2.922235e+01
3.722077e+02	-2.927881e+01
3.743576e+02	-2.932645e+01
3.765199e+02	-2.937873e+01
3.786946e+02	-2.942923e+01
3.808820e+02	-2.948551e+01
3.830819e+02	-2.952779e+01
3.852946e+02	-2.957895e+01
3.875200e+02	-2.963003e+01
3.897583e+02	-2.967613e+01
3.920096e+02	-2.973526e+01
3.942738e+02	-2.977700e+01
3.965511e+02	-2.982920e+01
3.988416e+02	-2.988487e+01
4.011452e+02	-2.993244e+01
4.034622e+02	-2.997872e+01
4.057926e+02	-3.002788e+01
4.081365e+02	-3.008077e+01
4.104938e+02	-3.012670e+01
4.128648e+02	-3.017723e+01
4.152495e+02	-3.022851e+01
4.176480e+02	-3.028158e+01
4.200603e+02	-3.033137e+01
4.224866e+02	-3.038041e+01
4.249268e+02	-3.043245e+01
4.273812e+02	-3.048152e+01
4.298497e+02	-3.053210e+01
4.323325e+02	-3.058065e+01
4.348297e+02	-3.063272e+01
4.373412e+02	-3.068579e+01
4.398673e+02	-3.073062e+01
4.424079e+02	-3.078454e+01
4.449633e+02	-3.082996e+01
4.475334e+02	-3.088210e+01
4.501183e+02	-3.092800e+01
4.527182e+02	-3.098786e+01
4.553330e+02	-3.103394e+01
4.579630e+02	-3.108259e+01
4.606082e+02	-3.113813e+01
4.632687e+02	-3.118567e+01
4.659445e+02	-3.123284e+01
4.686358e+02	-3.128596e+01
4.713426e+02	-3.133761e+01
4.740650e+02	-3.138401e+01
4.768032e+02	-3.143602e+01
4.795572e+02	-3.148918e+01
4.823271e+02	-3.153571e+01
4.851130e+02	-3.158439e+01
4.879150e+02	-3.164197e+01
4.907332e+02	-3.168418e+01
4.935676e+02	-3.173712e+01
4.964185e+02	-3.178537e+01
4.992858e+02	-3.184300e+01
5.021696e+02	-3.188604e+01
5.050701e+02	-3.193745e+01
5.079874e+02	-3.198991e+01
5.109215e+02	-3.204160e+01
5.138726e+02	-3.208542e+01
5.168407e+02	-3.214145e+01
5.198259e+02	-3.218518e+01
5.228284e+02	-3.223916e+01
5.258482e+02	-3.228824e+01
5.288855e+02	-3.233393e+01
5.319403e+02	-3.238690e+01
5.350128e+02	-3.244162e+01
5.381030e+02	-3.249454e+01
5.412111e+02	-3.253609e+01
5.443371e+02	-3.259448e+01
5.474812e+02	-3.264247e+01
5.506434e+02	-3.268668e+01
5.538239e+02	-3.273974e+01
5.570228e+02	-3.279018e+01
5.602401e+02	-3.283387e+01
5.634760e+02	-3.289134e+01
5.667306e+02	-3.294092e+01
5.700040e+02	-3.298902e+01
5.732964e+02	-3.304646e+01
5.766077e+02	-3.309035e+01
5.799382e+02	-3.314137e+01
5.832879e+02	-3.319019e+01
5.866569e+02	-3.324266e+01
5.900454e+02	-3.328718e+01
5.934535e+02	-3.333774e+01
5.968813e+02	-3.339646e+01
6.003288e+02	-3.344279e+01
6.037963e+02	-3.349628e+01
6.072838e+02	-3.354387e+01
6.107914e+02	-3.359432e+01
6.143194e+02	-3.364498e+01
6.178676e+02	-3.369304e+01
6.214364e+02	-3.375073e+01
6.250258e+02	-3.379606e+01
6.286359e+02	-3.383478e+01
6.322669e+02	-3.389141e+01
6.359189e+02	-3.394725e+01
6.395919e+02	-3.399782e+01
6.432862e+02	-3.404094e+01
6.470017e+02	-3.409487e+01
6.507388e+02	-3.414585e+01
6.544974e+02	-3.419615e+01
6.582778e+02	-3.425101e+01
6.620800e+02	-3.430118e+01
6.659041e+02	-3.435333e+01
6.697504e+02	-3.440158e+01
6.736188e+02	-3.444634e+01
6.775096e+02	-3.449717e+01
6.814229e+02	-3.455229e+01
6.853587e+02	-3.459512e+01
6.893173e+02	-3.464949e+01
6.932988e+02	-3.469598e+01
6.973033e+02	-3.475786e+01
7.013309e+02	-3.480267e+01
