Frequency(Hz)	Magnitude(dB)
1.000000e+01	-2.257264e+00
1.005776e+01	-2.277758e+00
1.011585e+01	-2.298164e+00
1.017428e+01	-2.318808e+00
1.023305e+01	-2.339551e+00
1.029215e+01	-2.360529e+00
1.035160e+01	-2.381529e+00
1.041139e+01	-2.402657e+00
1.047153e+01	-2.424090e+00
1.053201e+01	-2.445309e+00
1.059284e+01	-2.467116e+00
1.065403e+01	-2.488802e+00
1.071556e+01	-2.510541e+00
1.077746e+01	-2.532633e+00
1.083971e+01	-2.555098e+00
1.090232e+01	-2.577171e+00
1.096529e+01	-2.599662e+00
1.102862e+01	-2.622339e+00
1.109232e+01	-2.645248e+00
1.115639e+01	-2.667989e+00
1.122083e+01	-2.691123e+00
1.128564e+01	-2.714329e+00
1.135083e+01	-2.737636e+00
1.141639e+01	-2.761012e+00
1.148233e+01	-2.784708e+00
1.154865e+01	-2.808286e+00
1.161536e+01	-2.832105e+00
1.168245e+01	-2.856086e+00
1.174992e+01	-2.880232e+00
1.181779e+01	-2.904941e+00
1.188605e+01	-2.929029e+00
1.195470e+01	-2.953689e+00
1.202375e+01	-2.978574e+00
1.209320e+01	-3.003462e+00
1.216305e+01	-3.028617e+00
1.223330e+01	-3.053910e+00
1.230396e+01	-3.078681e+00
1.237503e+01	-3.104473e+00
1.244651e+01	-3.130100e+00
1.251840e+01	-3.155728e+00
1.259070e+01	-3.181741e+00
1.266343e+01	-3.207796e+00
1.273657e+01	-3.234059e+00
1.281014e+01	-3.260575e+00
1.288413e+01	-3.287071e+00
1.295855e+01	-3.313673e+00
1.303339e+01	-3.340376e+00
1.310867e+01	-3.367194e+00
1.318439e+01	-3.394510e+00
1.326054e+01	-3.421183e+00
1.333713e+01	-3.448759e+00
1.341417e+01	-3.476335e+00
1.349165e+01	-3.503834e+00
1.356958e+01	-3.531560e+00
1.364795e+01	-3.559716e+00
1.372678e+01	-3.587516e+00
1.380607e+01	-3.615977e+00
1.388581e+01	-3.644282e+00
1.396602e+01	-3.672946e+00
1.404668e+01	-3.701218e+00
1.412782e+01	-3.730058e+00
1.420942e+01	-3.758821e+00
1.429149e+01	-3.788152e+00
1.437404e+01	-3.817297e+00
1.445706e+01	-3.846448e+00
1.454057e+01	-3.875666e+00
1.462455e+01	-3.905557e+00
1.470902e+01	-3.935000e+00
1.479398e+01	-3.965135e+00
1.487943e+01	-3.995196e+00
1.496537e+01	-4.025508e+00
1.505181e+01	-4.055634e+00
1.513875e+01	-4.085933e+00
1.522619e+01	-4.116820e+00
1.531414e+01	-4.147564e+00
1.540259e+01	-4.178163e+00
1.549156e+01	-4.209233e+00
1.558103e+01	-4.240303e+00
1.567103e+01	-4.271578e+00
1.576155e+01	-4.303068e+00
1.585258e+01	-4.334350e+00
1.594415e+01	-4.366108e+00
1.603624e+01	-4.397839e+00
1.612886e+01	-4.429925e+00
1.622202e+01	-4.461919e+00
1.631572e+01	-4.494094e+00
1.640996e+01	-4.526241e+00
1.650474e+01	-4.558958e+00
1.660008e+01	-4.591809e+00
1.669596e+01	-4.624213e+00
1.679239e+01	-4.656849e+00
1.688938e+01	-4.690048e+00
1.698694e+01	-4.723087e+00
1.708505e+01	-4.756192e+00
1.718373e+01	-4.789822e+00
1.728299e+01	-4.823184e+00
1.738281e+01	-4.856614e+00
1.748322e+01	-4.890268e+00
1.758420e+01	-4.924395e+00
1.768576e+01	-4.958444e+00
1.778792e+01	-4.992365e+00
1.789066e+01	-5.026477e+00
1.799399e+01	-5.060760e+00
1.809793e+01	-5.095565e+00
1.820246e+01	-5.130187e+00
1.830760e+01	-5.164955e+00
1.841334e+01	-5.199964e+00
1.851969e+01	-5.234726e+00
1.862666e+01	-5.269871e+00
1.873425e+01	-5.304785e+00
1.884246e+01	-5.340432e+00
1.895129e+01	-5.375837e+00
1.906075e+01	-5.411326e+00
1.917085e+01	-5.447359e+00
1.928158e+01	-5.483002e+00
1.939295e+01	-5.518972e+00
1.950496e+01	-5.554827e+00
1.961762e+01	-5.590910e+00
1.973093e+01	-5.627271e+00
1.984490e+01	-5.663819e+00
1.995952e+01	-5.700342e+00
2.007480e+01	-5.737104e+00
2.019076e+01	-5.773371e+00
2.030738e+01	-5.810268e+00
2.042467e+01	-5.847469e+00
2.054264e+01	-5.884388e+00
2.066130e+01	-5.921479e+00
2.078064e+01	-5.958832e+00
2.090066e+01	-5.996404e+00
2.102139e+01	-6.033727e+00
2.114280e+01	-6.071032e+00
2.126492e+01	-6.109171e+00
2.138775e+01	-6.147382e+00
2.151128e+01	-6.184736e+00
2.163553e+01	-6.222538e+00
2.176050e+01	-6.260972e+00
2.188619e+01	-6.299021e+00
2.201260e+01	-6.337685e+00
2.213974e+01	-6.375666e+00
2.226762e+01	-6.414288e+00
2.239624e+01	-6.453479e+00
2.252560e+01	-6.492098e+00
2.265571e+01	-6.530619e+00
2.278656e+01	-6.570231e+00
2.291818e+01	-6.608764e+00
2.305055e+01	-6.648037e+00
2.318369e+01	-6.687333e+00
2.331760e+01	-6.726641e+00
2.345228e+01	-6.765926e+00
2.358774e+01	-6.806051e+00
2.372398e+01	-6.845094e+00
2.386101e+01	-6.885133e+00
2.399883e+01	-6.924540e+00
2.413745e+01	-6.964728e+00
2.427686e+01	-7.004762e+00
2.441709e+01	-7.045203e+00
2.455812e+01	-7.084855e+00
2.469997e+01	-7.125429e+00
2.484263e+01	-7.165681e+00
2.498612e+01	-7.206127e+00
2.513044e+01	-7.247012e+00
2.527559e+01	-7.287263e+00
2.542158e+01	-7.328039e+00
2.556842e+01	-7.368931e+00
2.571610e+01	-7.409892e+00
2.586463e+01	-7.450367e+00
2.601403e+01	-7.491940e+00
2.616428e+01	-7.533072e+00
2.631541e+01	-7.574296e+00
2.646740e+01	-7.615133e+00
2.662028e+01	-7.656851e+00
2.677404e+01	-7.698272e+00
2.692868e+01	-7.739836e+00
2.708422e+01	-7.781604e+00
2.724066e+01	-7.823215e+00
2.739800e+01	-7.864757e+00
2.755625e+01	-7.906910e+00
2.771541e+01	-7.948601e+00
2.787550e+01	-7.990658e+00
2.803650e+01	-8.033104e+00
2.819844e+01	-8.075458e+00
2.836131e+01	-8.118108e+00
2.852513e+01	-8.159792e+00
2.868989e+01	-8.202453e+00
2.885560e+01	-8.244942e+00
2.902227e+01	-8.287594e+00
2.918990e+01	-8.330261e+00
2.935850e+01	-8.372845e+00
2.952807e+01	-8.415611e+00
2.969863e+01	-8.458621e+00
2.987016e+01	-8.501459e+00
3.004269e+01	-8.544189e+00
3.021622e+01	-8.587905e+00
3.039075e+01	-8.629957e+00
3.056628e+01	-8.673550e+00
3.074283e+01	-8.716994e+00
3.092040e+01	-8.760651e+00
3.109900e+01	-8.803946e+00
3.127862e+01	-8.847689e+00
3.145929e+01	-8.890987e+00
3.164099e+01	-8.934629e+00
3.182375e+01	-8.978298e+00
3.200756e+01	-9.021927e+00
3.219244e+01	-9.065209e+00
3.237838e+01	-9.109310e+00
3.256540e+01	-9.153119e+00
3.275349e+01	-9.197097e+00
3.294268e+01	-9.241362e+00
3.313295e+01	-9.284962e+00
3.332433e+01	-9.329321e+00
3.351681e+01	-9.373772e+00
3.371040e+01	-9.417630e+00
3.390511e+01	-9.462576e+00
3.410094e+01	-9.506114e+00
3.429791e+01	-9.551083e+00
3.449601e+01	-9.595536e+00
3.469526e+01	-9.640346e+00
3.489566e+01	-9.685256e+00
3.509721e+01	-9.729964e+00
3.529993e+01	-9.774514e+00
3.550382e+01	-9.819324e+00
3.570889e+01	-9.863689e+00
3.591515e+01	-9.908936e+00
3.612259e+01	-9.954052e+00
3.633123e+01	-9.998910e+00
3.654108e+01	-1.004450e+01
3.675214e+01	-1.008928e+01
3.696442e+01	-1.013420e+01
3.717792e+01	-1.017900e+01
3.739266e+01	-1.022473e+01
3.760864e+01	-1.026960e+01
3.782587e+01	-1.031529e+01
3.804435e+01	-1.036086e+01
3.826409e+01	-1.040627e+01
3.848510e+01	-1.045172e+01
3.870739e+01	-1.049713e+01
3.893096e+01	-1.054288e+01
3.915583e+01	-1.058844e+01
3.938199e+01	-1.063358e+01
3.960946e+01	-1.068002e+01
3.983824e+01	-1.072610e+01
4.006834e+01	-1.077154e+01
4.029978e+01	-1.081711e+01
4.053255e+01	-1.086298e+01
4.076666e+01	-1.090877e+01
4.100213e+01	-1.095583e+01
4.123896e+01	-1.100060e+01
4.147715e+01	-1.104736e+01
4.171672e+01	-1.109358e+01
4.195767e+01	-1.113919e+01
4.220002e+01	-1.118570e+01
4.244377e+01	-1.123235e+01
4.268892e+01	-1.127779e+01
4.293549e+01	-1.132410e+01
4.318348e+01	-1.137073e+01
4.343291e+01	-1.141675e+01
4.368377e+01	-1.146397e+01
4.393609e+01	-1.151054e+01
4.418986e+01	-1.155694e+01
4.444510e+01	-1.160369e+01
4.470182e+01	-1.165026e+01
4.496001e+01	-1.169672e+01
4.521970e+01	-1.174321e+01
4.548089e+01	-1.179010e+01
4.574358e+01	-1.183654e+01
4.600779e+01	-1.188298e+01
4.627353e+01	-1.193017e+01
4.654081e+01	-1.197765e+01
4.680963e+01	-1.202375e+01
4.708000e+01	-1.207107e+01
4.735193e+01	-1.211738e+01
4.762543e+01	-1.216463e+01
4.790051e+01	-1.221165e+01
4.817719e+01	-1.225858e+01
4.845545e+01	-1.230564e+01
4.873533e+01	-1.235328e+01
4.901682e+01	-1.240056e+01
4.929994e+01	-1.244679e+01
4.958470e+01	-1.249442e+01
4.987110e+01	-1.254198e+01
5.015915e+01	-1.258901e+01
5.044887e+01	-1.263587e+01
5.074026e+01	-1.268341e+01
5.103333e+01	-1.273131e+01
5.132810e+01	-1.277845e+01
5.162457e+01	-1.282609e+01
5.192275e+01	-1.287237e+01
5.222265e+01	-1.292040e+01
5.252429e+01	-1.296777e+01
5.282767e+01	-1.301557e+01
5.313280e+01	-1.306354e+01
5.343969e+01	-1.311016e+01
5.374836e+01	-1.315748e+01
5.405880e+01	-1.320583e+01
5.437105e+01	-1.325407e+01
5.468509e+01	-1.330120e+01
5.500095e+01	-1.334919e+01
5.531863e+01	-1.339636e+01
5.563815e+01	-1.344477e+01
5.595951e+01	-1.349168e+01
5.628273e+01	-1.353929e+01
5.660782e+01	-1.358833e+01
5.693479e+01	-1.363597e+01
5.726364e+01	-1.368328e+01
5.759439e+01	-1.373081e+01
5.792705e+01	-1.377885e+01
5.826164e+01	-1.382724e+01
5.859815e+01	-1.387468e+01
5.893662e+01	-1.392383e+01
5.927703e+01	-1.397118e+01
5.961941e+01	-1.401876e+01
5.996377e+01	-1.406679e+01
6.031012e+01	-1.411523e+01
6.065847e+01	-1.416317e+01
6.100883e+01	-1.421186e+01
6.136121e+01	-1.425978e+01
6.171563e+01	-1.430805e+01
6.207210e+01	-1.435617e+01
6.243063e+01	-1.440480e+01
6.279122e+01	-1.445167e+01
6.315390e+01	-1.450092e+01
6.351868e+01	-1.454870e+01
6.388556e+01	-1.459705e+01
6.425456e+01	-1.464525e+01
6.462569e+01	-1.469385e+01
6.499897e+01	-1.474175e+01
6.537440e+01	-1.478951e+01
6.575200e+01	-1.483890e+01
6.613178e+01	-1.488787e+01
6.651375e+01	-1.493536e+01
6.689793e+01	-1.498341e+01
6.728433e+01	-1.503297e+01
6.767297e+01	-1.508013e+01
6.806384e+01	-1.512945e+01
6.845698e+01	-1.517824e+01
6.885238e+01	-1.522715e+01
6.925007e+01	-1.527453e+01
6.965005e+01	-1.532320e+01
7.005235e+01	-1.537191e+01
7.045697e+01	-1.542101e+01
7.086393e+01	-1.546964e+01
7.127323e+01	-1.551777e+01
7.168490e+01	-1.556689e+01
7.209895e+01	-1.561519e+01
7.251539e+01	-1.566450e+01
7.293424e+01	-1.571294e+01
7.335551e+01	-1.576070e+01
7.377920e+01	-1.580997e+01
7.420535e+01	-1.585906e+01
7.463396e+01	-1.590622e+01
7.506504e+01	-1.595692e+01
7.549861e+01	-1.600587e+01
7.593469e+01	-1.605328e+01
7.637328e+01	-1.610312e+01
7.681441e+01	-1.615156e+01
7.725809e+01	-1.620054e+01
7.770433e+01	-1.624906e+01
7.815315e+01	-1.629801e+01
7.860456e+01	-1.634571e+01
7.905857e+01	-1.639570e+01
7.951521e+01	-1.644390e+01
7.997449e+01	-1.649331e+01
8.043642e+01	-1.654266e+01
8.090102e+01	-1.659073e+01
8.136830e+01	-1.664099e+01
8.183828e+01	-1.668936e+01
8.231097e+01	-1.673725e+01
8.278640e+01	-1.678645e+01
8.326457e+01	-1.683604e+01
8.374550e+01	-1.688378e+01
8.422921e+01	-1.693431e+01
8.471572e+01	-1.698351e+01
8.520503e+01	-1.703264e+01
8.569717e+01	-1.708138e+01
8.619215e+01	-1.712964e+01
8.669000e+01	-1.717990e+01
8.719071e+01	-1.722779e+01
8.769432e+01	-1.727682e+01
8.820084e+01	-1.732722e+01
8.871029e+01	-1.737507e+01
8.922267e+01	-1.742434e+01
8.973802e+01	-1.747368e+01
9.025634e+01	-1.752289e+01
9.077766e+01	-1.757128e+01
9.130199e+01	-1.762052e+01
9.182935e+01	-1.766978e+01
9.235975e+01	-1.772016e+01
9.289321e+01	-1.776922e+01
9.342976e+01	-1.781953e+01
9.396941e+01	-1.786646e+01
9.451217e+01	-1.791681e+01
9.505807e+01	-1.796603e+01
9.560712e+01	-1.801445e+01
9.615934e+01	-1.806405e+01
9.671476e+01	-1.811351e+01
9.727338e+01	-1.816227e+01
9.783522e+01	-1.821163e+01
9.840032e+01	-1.826024e+01
9.896867e+01	-1.830996e+01
9.954031e+01	-1.835879e+01
1.001153e+02	-1.840856e+01
1.006935e+02	-1.845922e+01
1.012751e+02	-1.850793e+01
1.018601e+02	-1.855662e+01
1.024484e+02	-1.860648e+01
1.030402e+02	-1.865682e+01
1.036353e+02	-1.870508e+01
1.042339e+02	-1.875541e+01
1.048360e+02	-1.880552e+01
1.054415e+02	-1.885377e+01
1.060505e+02	-1.890309e+01
1.066631e+02	-1.895149e+01
1.072791e+02	-1.900211e+01
1.078988e+02	-1.905143e+01
1.085220e+02	-1.910074e+01
1.091488e+02	-1.915081e+01
1.097793e+02	-1.919953e+01
1.104133e+02	-1.924977e+01
1.110511e+02	-1.929852e+01
1.116925e+02	-1.934765e+01
1.123376e+02	-1.939778e+01
1.129865e+02	-1.944649e+01
1.136391e+02	-1.949663e+01
1.142955e+02	-1.954479e+01
1.149556e+02	-1.959597e+01
1.156196e+02	-1.964594e+01
1.162874e+02	-1.969384e+01
1.169591e+02	-1.974345e+01
1.176347e+02	-1.979359e+01
1.183141e+02	-1.984208e+01
1.189975e+02	-1.989163e+01
1.196848e+02	-1.994211e+01
1.203761e+02	-1.998955e+01
1.210714e+02	-2.003941e+01
1.217707e+02	-2.008933e+01
1.224740e+02	-2.014041e+01
1.231814e+02	-2.018858e+01
1.238929e+02	-2.023947e+01
1.246085e+02	-2.028870e+01
1.253283e+02	-2.033815e+01
1.260522e+02	-2.038615e+01
1.267802e+02	-2.043825e+01
1.275125e+02	-2.048824e+01
1.282490e+02	-2.053521e+01
1.289898e+02	-2.058564e+01
1.297348e+02	-2.063655e+01
1.304842e+02	-2.068453e+01
1.312378e+02	-2.073434e+01
1.319959e+02	-2.078380e+01
1.327583e+02	-2.083414e+01
1.335251e+02	-2.088449e+01
1.342963e+02	-2.093279e+01
1.350720e+02	-2.098259e+01
1.358522e+02	-2.103324e+01
1.366368e+02	-2.108409e+01
1.374260e+02	-2.113150e+01
1.382198e+02	-2.118161e+01
1.390182e+02	-2.123217e+01
1.398211e+02	-2.127933e+01
1.406287e+02	-2.133093e+01
1.414410e+02	-2.137953e+01
1.422579e+02	-2.143114e+01
1.430796e+02	-2.147801e+01
1.439060e+02	-2.152811e+01
1.447372e+02	-2.158096e+01
1.455732e+02	-2.162632e+01
1.464141e+02	-2.167924e+01
1.472597e+02	-2.172866e+01
1.481103e+02	-2.178007e+01
1.489658e+02	-2.182734e+01
1.498262e+02	-2.187782e+01
1.506916e+02	-2.192819e+01
1.515620e+02	-2.197633e+01
1.524374e+02	-2.202631e+01
1.533179e+02	-2.207421e+01
1.542034e+02	-2.212635e+01
1.550941e+02	-2.217533e+01
1.559899e+02	-2.222380e+01
1.568909e+02	-2.227584e+01
1.577971e+02	-2.232489e+01
1.587085e+02	-2.237527e+01
1.596252e+02	-2.242433e+01
1.605472e+02	-2.247422e+01
1.614745e+02	-2.252418e+01
1.624072e+02	-2.257389e+01
1.633453e+02	-2.262304e+01
1.642887e+02	-2.267148e+01
1.652377e+02	-2.272392e+01
1.661921e+02	-2.277335e+01
1.671520e+02	-2.282410e+01
1.681175e+02	-2.287221e+01
1.690885e+02	-2.292079e+01
1.700651e+02	-2.297286e+01
1.710474e+02	-2.302148e+01
1.720354e+02	-2.307164e+01
1.730291e+02	-2.312309e+01
1.740285e+02	-2.317145e+01
1.750337e+02	-2.321991e+01
1.760446e+02	-2.327382e+01
1.770615e+02	-2.331992e+01
1.780842e+02	-2.336998e+01
1.791128e+02	-2.341881e+01
1.801473e+02	-2.347045e+01
1.811878e+02	-2.352001e+01
1.822344e+02	-2.356766e+01
1.832870e+02	-2.361952e+01
1.843456e+02	-2.367223e+01
1.854104e+02	-2.371867e+01
1.864813e+02	-2.376950e+01
1.875584e+02	-2.381742e+01
1.886418e+02	-2.386738e+01
1.897313e+02	-2.391914e+01
1.908272e+02	-2.396766e+01
1.919294e+02	-2.402067e+01
1.930380e+02	-2.406713e+01
1.941530e+02	-2.411812e+01
1.952744e+02	-2.416670e+01
1.964023e+02	-2.421772e+01
1.975367e+02	-2.426909e+01
1.986777e+02	-2.431888e+01
1.998252e+02	-2.436526e+01
2.009794e+02	-2.441792e+01
2.021403e+02	-2.446861e+01
2.033078e+02	-2.451387e+01
2.044821e+02	-2.456592e+01
2.056632e+02	-2.461535e+01
2.068511e+02	-2.466747e+01
2.080459e+02	-2.471570e+01
2.092475e+02	-2.476588e+01
2.104561e+02	-2.481576e+01
2.116717e+02	-2.486727e+01
2.128943e+02	-2.491611e+01
2.141240e+02	-2.496754e+01
2.153608e+02	-2.501503e+01
2.166047e+02	-2.506649e+01
2.178558e+02	-2.511468e+01
2.191141e+02	-2.516437e+01
2.203797e+02	-2.521377e+01
2.216526e+02	-2.526583e+01
2.229329e+02	-2.531940e+01
2.242205e+02	-2.536656e+01
2.255156e+02	-2.541531e+01
2.268182e+02	-2.546985e+01
2.281283e+02	-2.551548e+01
2.294459e+02	-2.556535e+01
2.307712e+02	-2.561489e+01
2.321041e+02	-2.566251e+01
2.334447e+02	-2.571558e+01
2.347931e+02	-2.576363e+01
2.361493e+02	-2.581461e+01
2.375133e+02	-2.586457e+01
2.388851e+02	-2.591568e+01
2.402649e+02	-2.596325e+01
2.416527e+02	-2.601163e+01
2.430484e+02	-2.606351e+01
2.444523e+02	-2.611721e+01
2.458642e+02	-2.616460e+01
2.472843e+02	-2.621643e+01
2.487126e+02	-2.626531e+01
2.501492e+02	-2.631436e+01
2.515940e+02	-2.636627e+01
2.530472e+02	-2.641411e+01
2.545088e+02	-2.646386e+01
2.559789e+02	-2.651030e+01
2.574574e+02	-2.656525e+01
2.589444e+02	-2.661446e+01
2.604401e+02	-2.666356e+01
2.619444e+02	-2.671189e+01
2.634574e+02	-2.676071e+01
2.649791e+02	-2.681159e+01
2.665096e+02	-2.686285e+01
2.680489e+02	-2.691754e+01
2.695972e+02	-2.696115e+01
2.711544e+02	-2.701173e+01
2.727205e+02	-2.706448e+01
2.742958e+02	-2.711198e+01
2.758801e+02	-2.716591e+01
2.774736e+02	-2.721405e+01
2.790762e+02	-2.726382e+01
2.806882e+02	-2.731324e+01
2.823094e+02	-2.736339e+01
2.839400e+02	-2.741601e+01
2.855800e+02	-2.746356e+01
2.872295e+02	-2.751393e+01
2.888886e+02	-2.756253e+01
2.905572e+02	-2.761335e+01
2.922354e+02	-2.766575e+01
2.939234e+02	-2.771043e+01
2.956211e+02	-2.776268e+01
2.973286e+02	-2.781602e+01
2.990459e+02	-2.786470e+01
3.007732e+02	-2.791297e+01
3.025104e+02	-2.796431e+01
3.042577e+02	-2.801282e+01
3.060151e+02	-2.806215e+01
3.077826e+02	-2.811434e+01
3.095604e+02	-2.816256e+01
3.113484e+02	-2.821514e+01
3.131467e+02	-2.826274e+01
3.149554e+02	-2.831211e+01
3.167746e+02	-2.836478e+01
3.186043e+02	-2.841458e+01
3.204445e+02	-2.845976e+01
3.222954e+02	-2.851591e+01
3.241570e+02	-2.856421e+01
3.260293e+02	-2.861565e+01
3.279124e+02	-2.866271e+01
3.298064e+02	-2.871612e+01
3.317114e+02	-2.875960e+01
3.336273e+02	-2.881748e+01
3.355544e+02	-2.886453e+01
3.374925e+02	-2.892038e+01
3.394418e+02	-2.896561e+01
3.414024e+02	-2.901330e+01
3.433744e+02	-2.906720e+01
3.453577e+02	-2.911152e+01
3.473525e+02	-2.916239e+01
3.493588e+02	-2.921467e+01
3.513766e+02	-2.926661e+01
3.534062e+02	-2.930997e+01
3.554474e+02	-2.936652e+01
3.575005e+02	-2.941218e+01
3.595654e+02	-2.946466e+01
3.616422e+02	-2.951658e+01
3.637311e+02	-2.956319e+01
3.658320e+02	-2.961525e+01
3.679450e+02	-2.966704e+01
3.700702e+02	-2.971782e+01
3.722077e+02	-2.976637e+01
3.743576e+02	-2.981472e+01
3.765199e+02	-2.986907e+01
3.786946e+02	-2.991349e+01
3.808820e+02	-2.996610e+01
3.830819e+02	-3.001075e+01
3.852946e+02	-3.006977e+01
3.875200e+02	-3.011512e+01
3.897583e+02	-3.016322e+01
3.920096e+02	-3.021599e+01
3.942738e+02	-3.026622e+01
3.965511e+02	-3.031894e+01
3.988416e+02	-3.036901e+01
4.011452e+02	-3.041828e+01
4.034622e+02	-3.046612e+01
4.057926e+02	-3.051767e+01
4.081365e+02	-3.056641e+01
4.104938e+02	-3.062184e+01
4.128648e+02	-3.066695e+01
4.152495e+02	-3.072002e+01
4.176480e+02	-3.076832e+01
4.200603e+02	-3.081810e+01
4.224866e+02	-3.086981e+01
4.249268e+02	-3.092015e+01
4.273812e+02	-3.097092e+01
4.298497e+02	-3.101554e+01
4.323325e+02	-3.107017e+01
4.348297e+02	-3.111693e+01
4.373412e+02	-3.116919e+01
4.398673e+02	-3.122626e+01
4.424079e+02	-3.127067e+01
4.449633e+02	-3.131962e+01
4.475334e+02	-3.137585e+01
4.501183e+02	-3.141681e+01
4.527182e+02	-3.147150e+01
4.553330e+02	-3.151468e+01
4.579630e+02	-3.156715e+01
4.606082e+02	-3.161618e+01
4.632687e+02	-3.167344e+01
4.659445e+02	-3.172804e+01
4.686358e+02	-3.177904e+01
4.713426e+02	-3.181884e+01
4.740650e+02	-3.186917e+01
4.768032e+02	-3.191708e+01
4.795572e+02	-3.197568e+01
4.823271e+02	-3.202432e+01
4.851130e+02	-3.207490e+01
4.879150e+02	-3.211744e+01
4.907332e+02	-3.217407e+01
4.935676e+02	-3.222466e+01
4.964185e+02	-3.227286e+01
4.992858e+02	-3.231644e+01
5.021696e+02	-3.237058e+01
5.050701e+02	-3.242113e+01
5.079874e+02	-3.247654e+01
5.109215e+02	-3.253364e+01
5.138726e+02	-3.257896e+01
5.168407e+02	-3.262040e+01
5.198259e+02	-3.267821e+01
5.228284e+02	-3.272161e+01
5.258482e+02	-3.277295e+01
5.288855e+02	-3.283095e+01
5.319403e+02	-3.287692e+01
5.350128e+02	-3.292700e+01
5.381030e+02	-3.297760e+01
5.412111e+02	-3.302133e+01
5.443371e+02	-3.307548e+01
5.474812e+02	-3.311888e+01
5.506434e+02	-3.318717e+01
5.538239e+02	-3.322936e+01
5.570228e+02	-3.327937e+01
5.602401e+02	-3.333360e+01
5.634760e+02	-3.337760e+01
5.667306e+02	-3.342921e+01
5.700040e+02	-3.348658e+01
5.732964e+02	-3.352754e+01
5.766077e+02	-3.357874e+01
5.799382e+02	-3.363667e+01
5.832879e+02	-3.367895e+01
5.866569e+02	-3.372029e+01
5.900454e+02	-3.378120e+01
5.934535e+02	-3.382559e+01
5.968813e+02	-3.387721e+01
6.003288e+02	-3.392417e+01
6.037963e+02	-3.398612e+01
6.072838e+02	-3.403175e+01
6.107914e+02	-3.407670e+01
6.143194e+02	-3.413078e+01
6.178676e+02	-3.417917e+01
6.214364e+02	-3.423521e+01
6.250258e+02	-3.427682e+01
6.286359e+02	-3.432386e+01
6.322669e+02	-3.437911e+01
6.359189e+02	-3.443355e+01
6.395919e+02	-3.448669e+01
6.432862e+02	-3.453832e+01
6.470017e+02	-3.458449e+01
6.507388e+02	-3.462516e+01
6.544974e+02	-3.468403e+01
6.582778e+02	-3.473265e+01
6.620800e+02	-3.479222e+01
6.659041e+02	-3.483954e+01
6.697504e+02	-3.488722e+01
6.736188e+02	-3.493775e+01
6.775096e+02	-3.499468e+01
6.814229e+02	-3.504295e+01
6.853587e+02	-3.509091e+01
6.893173e+02	-3.514103e+01
6.932988e+02	-3.518739e+01
6.973033e+02	-3.524338e+01
7.013309e+02	-3.528534e+01
