Frequency(Hz)	Magnitude(dB)
1.000000e+01	-2.385679e+00
1.005776e+01	-2.407064e+00
1.011585e+01	-2.428480e+00
1.017428e+01	-2.449803e+00
1.023305e+01	-2.471704e+00
1.029215e+01	-2.493482e+00
1.035160e+01	-2.514976e+00
1.041139e+01	-2.537282e+00
1.047153e+01	-2.559501e+00
1.053201e+01	-2.581799e+00
1.059284e+01	-2.604270e+00
1.065403e+01	-2.626938e+00
1.071556e+01	-2.649794e+00
1.077746e+01	-2.672427e+00
1.083971e+01	-2.695743e+00
1.090232e+01	-2.718869e+00
1.096529e+01	-2.742215e+00
1.102862e+01	-2.765716e+00
1.109232e+01	-2.789323e+00
1.115639e+01	-2.813034e+00
1.122083e+01	-2.837089e+00
1.128564e+01	-2.861065e+00
1.135083e+01	-2.885268e+00
1.141639e+01	-2.909825e+00
1.148233e+01	-2.934339e+00
1.154865e+01	-2.958649e+00
1.161536e+01	-2.983559e+00
1.168245e+01	-3.008683e+00
1.174992e+01	-3.033474e+00
1.181779e+01	-3.058940e+00
1.188605e+01	-3.084230e+00
1.195470e+01	-3.109671e+00
1.202375e+01	-3.135187e+00
1.209320e+01	-3.161312e+00
1.216305e+01	-3.187081e+00
1.223330e+01	-3.213091e+00
1.230396e+01	-3.239491e+00
1.237503e+01	-3.265711e+00
1.244651e+01	-3.292424e+00
1.251840e+01	-3.318992e+00
1.259070e+01	-3.345803e+00
1.266343e+01	-3.372878e+00
1.273657e+01	-3.399612e+00
1.281014e+01	-3.426974e+00
1.288413e+01	-3.454365e+00
1.295855e+01	-3.481967e+00
1.303339e+01	-3.509562e+00
1.310867e+01	-3.537424e+00
1.318439e+01	-3.565349e+00
1.326054e+01	-3.593236e+00
1.333713e+01	-3.621642e+00
1.341417e+01	-3.650158e+00
1.349165e+01	-3.678649e+00
1.356958e+01	-3.707158e+00
1.364795e+01	-3.736046e+00
1.372678e+01	-3.764830e+00
1.380607e+01	-3.793984e+00
1.388581e+01	-3.823182e+00
1.396602e+01	-3.852552e+00
1.404668e+01	-3.881926e+00
1.412782e+01	-3.911583e+00
1.420942e+01	-3.941274e+00
1.429149e+01	-3.971189e+00
1.437404e+01	-4.001077e+00
1.445706e+01	-4.031728e+00
1.454057e+01	-4.061944e+00
1.462455e+01	-4.092159e+00
1.470902e+01	-4.122770e+00
1.479398e+01	-4.153719e+00
1.487943e+01	-4.184498e+00
1.496537e+01	-4.215408e+00
1.505181e+01	-4.246315e+00
1.513875e+01	-4.278135e+00
1.522619e+01	-4.309439e+00
1.531414e+01	-4.340735e+00
1.540259e+01	-4.372732e+00
1.549156e+01	-4.404263e+00
1.558103e+01	-4.436243e+00
1.567103e+01	-4.468310e+00
1.576155e+01	-4.500589e+00
1.585258e+01	-4.532872e+00
1.594415e+01	-4.565487e+00
1.603624e+01	-4.598006e+00
1.612886e+01	-4.630805e+00
1.622202e+01	-4.663602e+00
1.631572e+01	-4.696470e+00
1.640996e+01	-4.729868e+00
1.650474e+01	-4.763336e+00
1.660008e+01	-4.796383e+00
1.669596e+01	-4.829972e+00
1.679239e+01	-4.863414e+00
1.688938e+01	-4.897314e+00
1.698694e+01	-4.931172e+00
1.708505e+01	-4.965236e+00
1.718373e+01	-4.999344e+00
1.728299e+01	-5.033784e+00
1.738281e+01	-5.068035e+00
1.748322e+01	-5.102520e+00
1.758420e+01	-5.137402e+00
1.768576e+01	-5.171953e+00
1.778792e+01	-5.206756e+00
1.789066e+01	-5.241677e+00
1.799399e+01	-5.276977e+00
1.809793e+01	-5.311953e+00
1.820246e+01	-5.347613e+00
1.830760e+01	-5.383309e+00
1.841334e+01	-5.418418e+00
1.851969e+01	-5.454588e+00
1.862666e+01	-5.490036e+00
1.873425e+01	-5.526207e+00
1.884246e+01	-5.562175e+00
1.895129e+01	-5.598167e+00
1.906075e+01	-5.634637e+00
1.917085e+01	-5.671261e+00
1.928158e+01	-5.707965e+00
1.939295e+01	-5.744438e+00
1.950496e+01	-5.781157e+00
1.961762e+01	-5.817919e+00
1.973093e+01	-5.855037e+00
1.984490e+01	-5.891783e+00
1.995952e+01	-5.929447e+00
2.007480e+01	-5.966466e+00
2.019076e+01	-6.003840e+00
2.030738e+01	-6.041441e+00
2.042467e+01	-6.078796e+00
2.054264e+01	-6.117088e+00
2.066130e+01	-6.155090e+00
2.078064e+01	-6.192324e+00
2.090066e+01	-6.230451e+00
2.102139e+01	-6.268840e+00
2.114280e+01	-6.306903e+00
2.126492e+01	-6.345413e+00
2.138775e+01	-6.384078e+00
2.151128e+01	-6.422616e+00
2.163553e+01	-6.461181e+00
2.176050e+01	-6.499818e+00
2.188619e+01	-6.538539e+00
2.201260e+01	-6.578091e+00
2.213974e+01	-6.616937e+00
2.226762e+01	-6.656126e+00
2.239624e+01	-6.695182e+00
2.252560e+01	-6.734600e+00
2.265571e+01	-6.773790e+00
2.278656e+01	-6.813837e+00
2.291818e+01	-6.853400e+00
2.305055e+01	-6.893199e+00
2.318369e+01	-6.932999e+00
2.331760e+01	-6.972561e+00
2.345228e+01	-7.012608e+00
2.358774e+01	-7.053152e+00
2.372398e+01	-7.093518e+00
2.386101e+01	-7.133357e+00
2.399883e+01	-7.173738e+00
2.413745e+01	-7.214609e+00
2.427686e+01	-7.255083e+00
2.441709e+01	-7.295772e+00
2.455812e+01	-7.336306e+00
2.469997e+01	-7.377378e+00
2.484263e+01	-7.418314e+00
2.498612e+01	-7.459496e+00
2.513044e+01	-7.500483e+00
2.527559e+01	-7.541713e+00
2.542158e+01	-7.582475e+00
2.556842e+01	-7.624149e+00
2.571610e+01	-7.665190e+00
2.586463e+01	-7.706535e+00
2.601403e+01	-7.748588e+00
2.616428e+01	-7.790404e+00
2.631541e+01	-7.832139e+00
2.646740e+01	-7.873678e+00
2.662028e+01	-7.915941e+00
2.677404e+01	-7.957914e+00
2.692868e+01	-7.999575e+00
2.708422e+01	-8.041944e+00
2.724066e+01	-8.084031e+00
2.739800e+01	-8.126173e+00
2.755625e+01	-8.168892e+00
2.771541e+01	-8.211003e+00
2.787550e+01	-8.254000e+00
2.803650e+01	-8.296242e+00
2.819844e+01	-8.338775e+00
2.836131e+01	-8.381681e+00
2.852513e+01	-8.424264e+00
2.868989e+01	-8.467291e+00
2.885560e+01	-8.510074e+00
2.902227e+01	-8.553295e+00
2.918990e+01	-8.596468e+00
2.935850e+01	-8.638899e+00
2.952807e+01	-8.682392e+00
2.969863e+01	-8.725585e+00
2.987016e+01	-8.769599e+00
3.004269e+01	-8.812776e+00
3.021622e+01	-8.856104e+00
3.039075e+01	-8.899372e+00
3.056628e+01	-8.943163e+00
3.074283e+01	-8.986879e+00
3.092040e+01	-9.030830e+00
3.109900e+01	-9.074526e+00
3.127862e+01	-9.118453e+00
3.145929e+01	-9.161935e+00
3.164099e+01	-9.206427e+00
3.182375e+01	-9.249809e+00
3.200756e+01	-9.294893e+00
3.219244e+01	-9.338935e+00
3.237838e+01	-9.383042e+00
3.256540e+01	-9.426929e+00
3.275349e+01	-9.471659e+00
3.294268e+01	-9.515443e+00
3.313295e+01	-9.560743e+00
3.332433e+01	-9.604617e+00
3.351681e+01	-9.649351e+00
3.371040e+01	-9.694059e+00
3.390511e+01	-9.738885e+00
3.410094e+01	-9.783710e+00
3.429791e+01	-9.828036e+00
3.449601e+01	-9.873819e+00
3.469526e+01	-9.918390e+00
3.489566e+01	-9.962911e+00
3.509721e+01	-1.000821e+01
3.529993e+01	-1.005305e+01
3.550382e+01	-1.009803e+01
3.570889e+01	-1.014328e+01
3.591515e+01	-1.018853e+01
3.612259e+01	-1.023420e+01
3.633123e+01	-1.027903e+01
3.654108e+01	-1.032480e+01
3.675214e+01	-1.037001e+01
3.696442e+01	-1.041493e+01
3.717792e+01	-1.046115e+01
3.739266e+01	-1.050682e+01
3.760864e+01	-1.055214e+01
3.782587e+01	-1.059820e+01
3.804435e+01	-1.064367e+01
3.826409e+01	-1.068915e+01
3.848510e+01	-1.073455e+01
3.870739e+01	-1.078093e+01
3.893096e+01	-1.082681e+01
3.915583e+01	-1.087265e+01
3.938199e+01	-1.091833e+01
3.960946e+01	-1.096481e+01
3.983824e+01	-1.101067e+01
4.006834e+01	-1.105619e+01
4.029978e+01	-1.110286e+01
4.053255e+01	-1.114885e+01
4.076666e+01	-1.119499e+01
4.100213e+01	-1.124186e+01
4.123896e+01	-1.128780e+01
4.147715e+01	-1.133355e+01
4.171672e+01	-1.138050e+01
4.195767e+01	-1.142618e+01
4.220002e+01	-1.147303e+01
4.244377e+01	-1.151952e+01
4.268892e+01	-1.156616e+01
4.293549e+01	-1.161243e+01
4.318348e+01	-1.165883e+01
4.343291e+01	-1.170580e+01
4.368377e+01	-1.175269e+01
4.393609e+01	-1.179926e+01
4.418986e+01	-1.184625e+01
4.444510e+01	-1.189239e+01
4.470182e+01	-1.193984e+01
4.496001e+01	-1.198625e+01
4.521970e+01	-1.203377e+01
4.548089e+01	-1.208028e+01
4.574358e+01	-1.212748e+01
4.600779e+01	-1.217422e+01
4.627353e+01	-1.222076e+01
4.654081e+01	-1.226841e+01
4.680963e+01	-1.231549e+01
4.708000e+01	-1.236239e+01
4.735193e+01	-1.240980e+01
4.762543e+01	-1.245647e+01
4.790051e+01	-1.250383e+01
4.817719e+01	-1.255132e+01
4.845545e+01	-1.259899e+01
4.873533e+01	-1.264608e+01
4.901682e+01	-1.269322e+01
4.929994e+01	-1.274036e+01
4.958470e+01	-1.278801e+01
4.987110e+01	-1.283495e+01
5.015915e+01	-1.288264e+01
5.044887e+01	-1.292951e+01
5.074026e+01	-1.297731e+01
5.103333e+01	-1.302540e+01
5.132810e+01	-1.307235e+01
5.162457e+01	-1.311977e+01
5.192275e+01	-1.316772e+01
5.222265e+01	-1.321564e+01
5.252429e+01	-1.326290e+01
5.282767e+01	-1.331111e+01
5.313280e+01	-1.335856e+01
5.343969e+01	-1.340621e+01
5.374836e+01	-1.345369e+01
5.405880e+01	-1.350231e+01
5.437105e+01	-1.355016e+01
5.468509e+01	-1.359690e+01
5.500095e+01	-1.364539e+01
5.531863e+01	-1.369268e+01
5.563815e+01	-1.374114e+01
5.595951e+01	-1.378908e+01
5.628273e+01	-1.383674e+01
5.660782e+01	-1.388444e+01
5.693479e+01	-1.393298e+01
5.726364e+01	-1.398056e+01
5.759439e+01	-1.402878e+01
5.792705e+01	-1.407676e+01
5.826164e+01	-1.412527e+01
5.859815e+01	-1.417247e+01
5.893662e+01	-1.422157e+01
5.927703e+01	-1.426875e+01
5.961941e+01	-1.431816e+01
5.996377e+01	-1.436602e+01
6.031012e+01	-1.441376e+01
6.065847e+01	-1.446308e+01
6.100883e+01	-1.451072e+01
6.136121e+01	-1.455838e+01
6.171563e+01	-1.460697e+01
6.207210e+01	-1.465544e+01
6.243063e+01	-1.470315e+01
6.279122e+01	-1.475213e+01
6.315390e+01	-1.480100e+01
6.351868e+01	-1.484901e+01
6.388556e+01	-1.489688e+01
6.425456e+01	-1.494599e+01
6.462569e+01	-1.499431e+01
6.499897e+01	-1.504272e+01
6.537440e+01	-1.509095e+01
6.575200e+01	-1.513956e+01
6.613178e+01	-1.518732e+01
6.651375e+01	-1.523751e+01
6.689793e+01	-1.528495e+01
6.728433e+01	-1.533223e+01
6.767297e+01	-1.538178e+01
6.806384e+01	-1.543041e+01
6.845698e+01	-1.547955e+01
6.885238e+01	-1.552762e+01
6.925007e+01	-1.557674e+01
6.965005e+01	-1.562562e+01
7.005235e+01	-1.567371e+01
7.045697e+01	-1.572262e+01
7.086393e+01	-1.577043e+01
7.127323e+01	-1.582041e+01
7.168490e+01	-1.586854e+01
7.209895e+01	-1.591692e+01
7.251539e+01	-1.596542e+01
7.293424e+01	-1.601541e+01
7.335551e+01	-1.606366e+01
7.377920e+01	-1.611199e+01
7.420535e+01	-1.616133e+01
7.463396e+01	-1.621050e+01
7.506504e+01	-1.625888e+01
7.549861e+01	-1.630782e+01
7.593469e+01	-1.635647e+01
7.637328e+01	-1.640561e+01
7.681441e+01	-1.645395e+01
7.725809e+01	-1.650339e+01
7.770433e+01	-1.655336e+01
7.815315e+01	-1.660201e+01
7.860456e+01	-1.664936e+01
7.905857e+01	-1.669936e+01
7.951521e+01	-1.674812e+01
7.997449e+01	-1.679769e+01
8.043642e+01	-1.684574e+01
8.090102e+01	-1.689465e+01
8.136830e+01	-1.694364e+01
8.183828e+01	-1.699245e+01
8.231097e+01	-1.704286e+01
8.278640e+01	-1.709039e+01
8.326457e+01	-1.714002e+01
8.374550e+01	-1.718902e+01
8.422921e+01	-1.723787e+01
8.471572e+01	-1.728707e+01
8.520503e+01	-1.733601e+01
8.569717e+01	-1.738538e+01
8.619215e+01	-1.743463e+01
8.669000e+01	-1.748504e+01
8.719071e+01	-1.753383e+01
8.769432e+01	-1.758279e+01
8.820084e+01	-1.763086e+01
8.871029e+01	-1.768039e+01
8.922267e+01	-1.773053e+01
8.973802e+01	-1.777934e+01
9.025634e+01	-1.782765e+01
9.077766e+01	-1.787621e+01
9.130199e+01	-1.792723e+01
9.182935e+01	-1.797658e+01
9.235975e+01	-1.802474e+01
9.289321e+01	-1.807497e+01
9.342976e+01	-1.812243e+01
9.396941e+01	-1.817305e+01
9.451217e+01	-1.822309e+01
9.505807e+01	-1.827111e+01
9.560712e+01	-1.832194e+01
9.615934e+01	-1.837057e+01
9.671476e+01	-1.841957e+01
9.727338e+01	-1.846836e+01
9.783522e+01	-1.851902e+01
9.840032e+01	-1.856637e+01
9.896867e+01	-1.861576e+01
9.954031e+01	-1.866503e+01
1.001153e+02	-1.871405e+01
1.006935e+02	-1.876485e+01
1.012751e+02	-1.881454e+01
1.018601e+02	-1.886349e+01
1.024484e+02	-1.891222e+01
1.030402e+02	-1.896046e+01
1.036353e+02	-1.901108e+01
1.042339e+02	-1.906056e+01
1.048360e+02	-1.910961e+01
1.054415e+02	-1.915984e+01
1.060505e+02	-1.921037e+01
1.066631e+02	-1.926010e+01
1.072791e+02	-1.930818e+01
1.078988e+02	-1.935797e+01
1.085220e+02	-1.940693e+01
1.091488e+02	-1.945790e+01
1.097793e+02	-1.950535e+01
1.104133e+02	-1.955500e+01
1.110511e+02	-1.960482e+01
1.116925e+02	-1.965454e+01
1.123376e+02	-1.970299e+01
1.129865e+02	-1.975434e+01
1.136391e+02	-1.980278e+01
1.142955e+02	-1.985298e+01
1.149556e+02	-1.990102e+01
1.156196e+02	-1.995179e+01
1.162874e+02	-2.000135e+01
1.169591e+02	-2.005036e+01
1.176347e+02	-2.009916e+01
1.183141e+02	-2.014869e+01
1.189975e+02	-2.019868e+01
1.196848e+02	-2.024926e+01
1.203761e+02	-2.029821e+01
1.210714e+02	-2.034591e+01
1.217707e+02	-2.039579e+01
1.224740e+02	-2.044732e+01
1.231814e+02	-2.049616e+01
1.238929e+02	-2.054523e+01
1.246085e+02	-2.059646e+01
1.253283e+02	-2.064551e+01
1.260522e+02	-2.069428e+01
1.267802e+02	-2.074382e+01
1.275125e+02	-2.079490e+01
1.282490e+02	-2.084513e+01
1.289898e+02	-2.089417e+01
1.297348e+02	-2.094344e+01
1.304842e+02	-2.099209e+01
1.312378e+02	-2.104251e+01
1.319959e+02	-2.109290e+01
1.327583e+02	-2.114259e+01
1.335251e+02	-2.119151e+01
1.342963e+02	-2.124086e+01
1.350720e+02	-2.129086e+01
1.358522e+02	-2.134022e+01
1.366368e+02	-2.139006e+01
1.374260e+02	-2.144037e+01
1.382198e+02	-2.148907e+01
1.390182e+02	-2.154073e+01
1.398211e+02	-2.158888e+01
1.406287e+02	-2.163944e+01
1.414410e+02	-2.168746e+01
1.422579e+02	-2.173963e+01
1.430796e+02	-2.178626e+01
1.439060e+02	-2.183722e+01
1.447372e+02	-2.188826e+01
1.455732e+02	-2.193828e+01
1.464141e+02	-2.198766e+01
1.472597e+02	-2.203747e+01
1.481103e+02	-2.208564e+01
1.489658e+02	-2.213533e+01
1.498262e+02	-2.218576e+01
1.506916e+02	-2.223601e+01
1.515620e+02	-2.228717e+01
1.524374e+02	-2.233301e+01
1.533179e+02	-2.238145e+01
1.542034e+02	-2.243436e+01
1.550941e+02	-2.248494e+01
1.559899e+02	-2.253301e+01
1.568909e+02	-2.258386e+01
1.577971e+02	-2.263435e+01
1.587085e+02	-2.268171e+01
1.596252e+02	-2.273493e+01
1.605472e+02	-2.278379e+01
1.614745e+02	-2.283163e+01
1.624072e+02	-2.287921e+01
1.633453e+02	-2.293199e+01
1.642887e+02	-2.298262e+01
1.652377e+02	-2.303074e+01
1.661921e+02	-2.307997e+01
1.671520e+02	-2.312992e+01
1.681175e+02	-2.318014e+01
1.690885e+02	-2.323300e+01
1.700651e+02	-2.328208e+01
1.710474e+02	-2.333069e+01
1.720354e+02	-2.338037e+01
1.730291e+02	-2.343044e+01
1.740285e+02	-2.348032e+01
1.750337e+02	-2.352832e+01
1.760446e+02	-2.357837e+01
1.770615e+02	-2.362656e+01
1.780842e+02	-2.367998e+01
1.791128e+02	-2.372966e+01
1.801473e+02	-2.378103e+01
1.811878e+02	-2.382886e+01
1.822344e+02	-2.387677e+01
1.832870e+02	-2.392667e+01
1.843456e+02	-2.397760e+01
1.854104e+02	-2.402865e+01
1.864813e+02	-2.407913e+01
1.875584e+02	-2.412898e+01
1.886418e+02	-2.417973e+01
1.897313e+02	-2.422786e+01
1.908272e+02	-2.427636e+01
1.919294e+02	-2.432952e+01
1.930380e+02	-2.437703e+01
1.941530e+02	-2.442540e+01
1.952744e+02	-2.447983e+01
1.964023e+02	-2.452982e+01
1.975367e+02	-2.457898e+01
1.986777e+02	-2.462796e+01
1.998252e+02	-2.467539e+01
2.009794e+02	-2.472530e+01
2.021403e+02	-2.477606e+01
2.033078e+02	-2.482669e+01
2.044821e+02	-2.487555e+01
2.056632e+02	-2.492673e+01
2.068511e+02	-2.497455e+01
2.080459e+02	-2.502392e+01
2.092475e+02	-2.507723e+01
2.104561e+02	-2.512437e+01
2.116717e+02	-2.517825e+01
2.128943e+02	-2.522713e+01
2.141240e+02	-2.527535e+01
2.153608e+02	-2.532419e+01
2.166047e+02	-2.537447e+01
2.178558e+02	-2.542584e+01
2.191141e+02	-2.547338e+01
2.203797e+02	-2.552718e+01
2.216526e+02	-2.557855e+01
2.229329e+02	-2.562487e+01
2.242205e+02	-2.567608e+01
2.255156e+02	-2.572623e+01
2.268182e+02	-2.577531e+01
2.281283e+02	-2.582848e+01
2.294459e+02	-2.587531e+01
2.307712e+02	-2.592460e+01
2.321041e+02	-2.597007e+01
2.334447e+02	-2.602256e+01
2.347931e+02	-2.607428e+01
2.361493e+02	-2.612129e+01
2.375133e+02	-2.617330e+01
2.388851e+02	-2.622563e+01
2.402649e+02	-2.627391e+01
2.416527e+02	-2.632725e+01
2.430484e+02	-2.637526e+01
2.444523e+02	-2.642152e+01
2.458642e+02	-2.647734e+01
2.472843e+02	-2.652368e+01
2.487126e+02	-2.657031e+01
2.501492e+02	-2.662260e+01
2.515940e+02	-2.667635e+01
2.530472e+02	-2.672524e+01
2.545088e+02	-2.677454e+01
2.559789e+02	-2.682253e+01
2.574574e+02	-2.687357e+01
2.589444e+02	-2.692363e+01
2.604401e+02	-2.697653e+01
2.619444e+02	-2.701861e+01
2.634574e+02	-2.707597e+01
2.649791e+02	-2.712315e+01
2.665096e+02	-2.717451e+01
2.680489e+02	-2.722208e+01
2.695972e+02	-2.727486e+01
2.711544e+02	-2.732211e+01
2.727205e+02	-2.737450e+01
2.742958e+02	-2.742145e+01
2.758801e+02	-2.747476e+01
2.774736e+02	-2.752544e+01
2.790762e+02	-2.757129e+01
2.806882e+02	-2.762623e+01
2.823094e+02	-2.767411e+01
2.839400e+02	-2.772444e+01
2.855800e+02	-2.777489e+01
2.872295e+02	-2.782452e+01
2.888886e+02	-2.787114e+01
2.905572e+02	-2.792083e+01
2.922354e+02	-2.797202e+01
2.939234e+02	-2.802372e+01
2.956211e+02	-2.807031e+01
2.973286e+02	-2.812059e+01
2.990459e+02	-2.817397e+01
3.007732e+02	-2.822164e+01
3.025104e+02	-2.827145e+01
3.042577e+02	-2.832206e+01
3.060151e+02	-2.837081e+01
3.077826e+02	-2.841958e+01
3.095604e+02	-2.847301e+01
3.113484e+02	-2.851837e+01
3.131467e+02	-2.857059e+01
3.149554e+02	-2.862701e+01
3.167746e+02	-2.867382e+01
3.186043e+02	-2.872082e+01
3.204445e+02	-2.877454e+01
3.222954e+02	-2.882601e+01
3.241570e+02	-2.887456e+01
3.260293e+02	-2.892590e+01
3.279124e+02	-2.897286e+01
3.298064e+02	-2.902600e+01
3.317114e+02	-2.907143e+01
3.336273e+02	-2.912572e+01
3.355544e+02	-2.917573e+01
3.374925e+02	-2.922551e+01
3.394418e+02	-2.927495e+01
3.414024e+02	-2.932459e+01
3.433744e+02	-2.937361e+01
3.453577e+02	-2.942512e+01
3.473525e+02	-2.947266e+01
3.493588e+02	-2.952388e+01
3.513766e+02	-2.958082e+01
3.534062e+02	-2.962285e+01
3.554474e+02	-2.967517e+01
3.575005e+02	-2.972597e+01
3.595654e+02	-2.977598e+01
3.616422e+02	-2.982661e+01
3.637311e+02	-2.987462e+01
3.658320e+02	-2.992062e+01
3.679450e+02	-2.997640e+01
3.700702e+02	-3.002485e+01
3.722077e+02	-3.007746e+01
3.743576e+02	-3.012834e+01
3.765199e+02	-3.017758e+01
3.786946e+02	-3.022667e+01
3.808820e+02	-3.027687e+01
3.830819e+02	-3.032592e+01
3.852946e+02	-3.037267e+01
3.875200e+02	-3.042651e+01
3.897583e+02	-3.047397e+01
3.920096e+02	-3.052675e+01
3.942738e+02	-3.057312e+01
3.965511e+02	-3.062837e+01
3.988416e+02	-3.068303e+01
4.011452e+02	-3.072860e+01
4.034622e+02	-3.077793e+01
4.057926e+02	-3.082818e+01
4.081365e+02	-3.087999e+01
4.104938e+02	-3.092626e+01
4.128648e+02	-3.097843e+01
4.152495e+02	-3.102840e+01
4.176480e+02	-3.107723e+01
4.200603e+02	-3.113012e+01
4.224866e+02	-3.117715e+01
4.249268e+02	-3.123000e+01
4.273812e+02	-3.127387e+01
4.298497e+02	-3.132932e+01
4.323325e+02	-3.138137e+01
4.348297e+02	-3.143333e+01
4.373412e+02	-3.148097e+01
4.398673e+02	-3.152562e+01
4.424079e+02	-3.157753e+01
4.449633e+02	-3.163017e+01
4.475334e+02	-3.167789e+01
4.501183e+02	-3.172977e+01
4.527182e+02	-3.177847e+01
4.553330e+02	-3.182943e+01
4.579630e+02	-3.187586e+01
4.606082e+02	-3.192874e+01
4.632687e+02	-3.197910e+01
4.659445e+02	-3.202942e+01
4.686358e+02	-3.207935e+01
4.713426e+02	-3.212424e+01
4.740650e+02	-3.218385e+01
4.768032e+02	-3.222933e+01
4.795572e+02	-3.228088e+01
4.823271e+02	-3.233191e+01
4.851130e+02	-3.238489e+01
4.879150e+02	-3.242926e+01
4.907332e+02	-3.248652e+01
4.935676e+02	-3.253605e+01
4.964185e+02	-3.258187e+01
4.992858e+02	-3.263467e+01
5.021696e+02	-3.268611e+01
5.050701e+02	-3.273459e+01
5.079874e+02	-3.278562e+01
5.109215e+02	-3.283396e+01
5.138726e+02	-3.287918e+01
5.168407e+02	-3.292980e+01
5.198259e+02	-3.298713e+01
5.228284e+02	-3.303404e+01
5.258482e+02	-3.308576e+01
5.288855e+02	-3.312657e+01
5.319403e+02	-3.318499e+01
5.350128e+02	-3.323424e+01
5.381030e+02	-3.329068e+01
5.412111e+02	-3.333561e+01
5.443371e+02	-3.338786e+01
5.474812e+02	-3.343540e+01
5.506434e+02	-3.348822e+01
5.538239e+02	-3.354088e+01
5.570228e+02	-3.359024e+01
5.602401e+02	-3.364618e+01
5.634760e+02	-3.368473e+01
5.667306e+02	-3.373686e+01
5.700040e+02	-3.379476e+01
5.732964e+02	-3.384372e+01
5.766077e+02	-3.388803e+01
5.799382e+02	-3.393310e+01
5.832879e+02	-3.399108e+01
5.866569e+02	-3.403709e+01
5.900454e+02	-3.408570e+01
5.934535e+02	-3.414154e+01
5.968813e+02	-3.418981e+01
6.003288e+02	-3.423737e+01
6.037963e+02	-3.428560e+01
6.072838e+02	-3.434302e+01
6.107914e+02	-3.440107e+01
6.143194e+02	-3.444260e+01
6.178676e+02	-3.449195e+01
6.214364e+02	-3.454044e+01
6.250258e+02	-3.459296e+01
6.286359e+02	-3.464748e+01
6.322669e+02	-3.469841e+01
6.359189e+02	-3.474653e+01
6.395919e+02	-3.479988e+01
6.432862e+02	-3.485033e+01
6.470017e+02	-3.489457e+01
6.507388e+02	-3.494785e+01
6.544974e+02	-3.499814e+01
6.582778e+02	-3.504716e+01
6.620800e+02	-3.508809e+01
6.659041e+02	-3.514724e+01
6.697504e+02	-3.519533e+01
6.736188e+02	-3.525335e+01
6.775096e+02	-3.529287e+01
6.814229e+02	-3.535459e+01
6.853587e+02	-3.540006e+01
6.893173e+02	-3.545342e+01
6.932988e+02	-3.549382e+01
6.973033e+02	-3.554875e+01
7.013309e+02	-3.561021e+01
