Frequency(Hz)	Magnitude(dB)
1.000000e+01	-2.408551e+00
1.005776e+01	-2.429990e+00
1.011585e+01	-2.451228e+00
1.017428e+01	-2.472916e+00
1.023305e+01	-2.495003e+00
1.029215e+01	-2.516705e+00
1.035160e+01	-2.538811e+00
1.041139e+01	-2.561106e+00
1.047153e+01	-2.583481e+00
1.053201e+01	-2.605933e+00
1.059284e+01	-2.628703e+00
1.065403e+01	-2.651373e+00
1.071556e+01	-2.674005e+00
1.077746e+01	-2.697288e+00
1.083971e+01	-2.720415e+00
1.090232e+01	-2.743856e+00
1.096529e+01	-2.767533e+00
1.102862e+01	-2.791008e+00
1.109232e+01	-2.814879e+00
1.115639e+01	-2.839011e+00
1.122083e+01	-2.862910e+00
1.128564e+01	-2.886966e+00
1.135083e+01	-2.911435e+00
1.141639e+01	-2.936051e+00
1.148233e+01	-2.960651e+00
1.154865e+01	-2.985521e+00
1.161536e+01	-3.010486e+00
1.168245e+01	-3.035392e+00
1.174992e+01	-3.060707e+00
1.181779e+01	-3.086227e+00
1.188605e+01	-3.111517e+00
1.195470e+01	-3.137115e+00
1.202375e+01	-3.163013e+00
1.209320e+01	-3.189192e+00
1.216305e+01	-3.214793e+00
1.223330e+01	-3.241182e+00
1.230396e+01	-3.267585e+00
1.237503e+01	-3.294401e+00
1.244651e+01	-3.320995e+00
1.251840e+01	-3.348003e+00
1.259070e+01	-3.374385e+00
1.266343e+01	-3.401760e+00
1.273657e+01	-3.429219e+00
1.281014e+01	-3.456121e+00
1.288413e+01	-3.483829e+00
1.295855e+01	-3.511597e+00
1.303339e+01	-3.539450e+00
1.310867e+01	-3.567194e+00
1.318439e+01	-3.595394e+00
1.326054e+01	-3.623540e+00
1.333713e+01	-3.652006e+00
1.341417e+01	-3.680562e+00
1.349165e+01	-3.709195e+00
1.356958e+01	-3.737838e+00
1.364795e+01	-3.767046e+00
1.372678e+01	-3.795945e+00
1.380607e+01	-3.825319e+00
1.388581e+01	-3.854436e+00
1.396602e+01	-3.884124e+00
1.404668e+01	-3.913751e+00
1.412782e+01	-3.943345e+00
1.420942e+01	-3.973295e+00
1.429149e+01	-4.003561e+00
1.437404e+01	-4.034215e+00
1.445706e+01	-4.063846e+00
1.454057e+01	-4.094405e+00
1.462455e+01	-4.125023e+00
1.470902e+01	-4.155957e+00
1.479398e+01	-4.186730e+00
1.487943e+01	-4.217523e+00
1.496537e+01	-4.248943e+00
1.505181e+01	-4.280125e+00
1.513875e+01	-4.311635e+00
1.522619e+01	-4.343173e+00
1.531414e+01	-4.374820e+00
1.540259e+01	-4.406705e+00
1.549156e+01	-4.438679e+00
1.558103e+01	-4.470530e+00
1.567103e+01	-4.502984e+00
1.576155e+01	-4.535373e+00
1.585258e+01	-4.567933e+00
1.594415e+01	-4.600397e+00
1.603624e+01	-4.632965e+00
1.612886e+01	-4.665986e+00
1.622202e+01	-4.699018e+00
1.631572e+01	-4.732162e+00
1.640996e+01	-4.765335e+00
1.650474e+01	-4.798672e+00
1.660008e+01	-4.832482e+00
1.669596e+01	-4.865793e+00
1.679239e+01	-4.899689e+00
1.688938e+01	-4.933752e+00
1.698694e+01	-4.967652e+00
1.708505e+01	-5.001673e+00
1.718373e+01	-5.036034e+00
1.728299e+01	-5.070585e+00
1.738281e+01	-5.105036e+00
1.748322e+01	-5.139463e+00
1.758420e+01	-5.174519e+00
1.768576e+01	-5.209197e+00
1.778792e+01	-5.244369e+00
1.789066e+01	-5.279519e+00
1.799399e+01	-5.314594e+00
1.809793e+01	-5.349628e+00
1.820246e+01	-5.385580e+00
1.830760e+01	-5.420932e+00
1.841334e+01	-5.456553e+00
1.851969e+01	-5.492619e+00
1.862666e+01	-5.528728e+00
1.873425e+01	-5.564534e+00
1.884246e+01	-5.601053e+00
1.895129e+01	-5.637002e+00
1.906075e+01	-5.673654e+00
1.917085e+01	-5.710143e+00
1.928158e+01	-5.746853e+00
1.939295e+01	-5.783546e+00
1.950496e+01	-5.820634e+00
1.961762e+01	-5.857414e+00
1.973093e+01	-5.894742e+00
1.984490e+01	-5.931661e+00
1.995952e+01	-5.969029e+00
2.007480e+01	-6.006557e+00
2.019076e+01	-6.044199e+00
2.030738e+01	-6.081742e+00
2.042467e+01	-6.119371e+00
2.054264e+01	-6.157197e+00
2.066130e+01	-6.195204e+00
2.078064e+01	-6.233557e+00
2.090066e+01	-6.271483e+00
2.102139e+01	-6.309747e+00
2.114280e+01	-6.348312e+00
2.126492e+01	-6.386856e+00
2.138775e+01	-6.425110e+00
2.151128e+01	-6.463966e+00
2.163553e+01	-6.502752e+00
2.176050e+01	-6.541405e+00
2.188619e+01	-6.580507e+00
2.201260e+01	-6.619861e+00
2.213974e+01	-6.659107e+00
2.226762e+01	-6.698204e+00
2.239624e+01	-6.737707e+00
2.252560e+01	-6.776820e+00
2.265571e+01	-6.816433e+00
2.278656e+01	-6.856243e+00
2.291818e+01	-6.896004e+00
2.305055e+01	-6.935960e+00
2.318369e+01	-6.975765e+00
2.331760e+01	-7.015471e+00
2.345228e+01	-7.055941e+00
2.358774e+01	-7.096504e+00
2.372398e+01	-7.136149e+00
2.386101e+01	-7.177100e+00
2.399883e+01	-7.216895e+00
2.413745e+01	-7.257787e+00
2.427686e+01	-7.298649e+00
2.441709e+01	-7.339421e+00
2.455812e+01	-7.380238e+00
2.469997e+01	-7.421106e+00
2.484263e+01	-7.462011e+00
2.498612e+01	-7.502792e+00
2.513044e+01	-7.544123e+00
2.527559e+01	-7.585316e+00
2.542158e+01	-7.627072e+00
2.556842e+01	-7.668498e+00
2.571610e+01	-7.709788e+00
2.586463e+01	-7.751762e+00
2.601403e+01	-7.793064e+00
2.616428e+01	-7.835265e+00
2.631541e+01	-7.876899e+00
2.646740e+01	-7.918732e+00
2.662028e+01	-7.960407e+00
2.677404e+01	-8.002815e+00
2.692868e+01	-8.044622e+00
2.708422e+01	-8.086857e+00
2.724066e+01	-8.128941e+00
2.739800e+01	-8.172061e+00
2.755625e+01	-8.214069e+00
2.771541e+01	-8.256514e+00
2.787550e+01	-8.299190e+00
2.803650e+01	-8.341720e+00
2.819844e+01	-8.384604e+00
2.836131e+01	-8.427547e+00
2.852513e+01	-8.469734e+00
2.868989e+01	-8.513154e+00
2.885560e+01	-8.556544e+00
2.902227e+01	-8.599047e+00
2.918990e+01	-8.642522e+00
2.935850e+01	-8.685771e+00
2.952807e+01	-8.729067e+00
2.969863e+01	-8.772247e+00
2.987016e+01	-8.815872e+00
3.004269e+01	-8.859261e+00
3.021622e+01	-8.902843e+00
3.039075e+01	-8.946268e+00
3.056628e+01	-8.990191e+00
3.074283e+01	-9.033886e+00
3.092040e+01	-9.077579e+00
3.109900e+01	-9.121772e+00
3.127862e+01	-9.165056e+00
3.145929e+01	-9.209348e+00
3.164099e+01	-9.253569e+00
3.182375e+01	-9.297601e+00
3.200756e+01	-9.341653e+00
3.219244e+01	-9.385968e+00
3.237838e+01	-9.430356e+00
3.256540e+01	-9.474845e+00
3.275349e+01	-9.518670e+00
3.294268e+01	-9.563278e+00
3.313295e+01	-9.608048e+00
3.332433e+01	-9.652718e+00
3.351681e+01	-9.697484e+00
3.371040e+01	-9.742187e+00
3.390511e+01	-9.786484e+00
3.410094e+01	-9.832164e+00
3.429791e+01	-9.876920e+00
3.449601e+01	-9.921030e+00
3.469526e+01	-9.966292e+00
3.489566e+01	-1.001136e+01
3.509721e+01	-1.005653e+01
3.529993e+01	-1.010174e+01
3.550382e+01	-1.014636e+01
3.570889e+01	-1.019239e+01
3.591515e+01	-1.023702e+01
3.612259e+01	-1.028242e+01
3.633123e+01	-1.032823e+01
3.654108e+01	-1.037360e+01
3.675214e+01	-1.041865e+01
3.696442e+01	-1.046423e+01
3.717792e+01	-1.050899e+01
3.739266e+01	-1.055485e+01
3.760864e+01	-1.060063e+01
3.782587e+01	-1.064642e+01
3.804435e+01	-1.069239e+01
3.826409e+01	-1.073820e+01
3.848510e+01	-1.078421e+01
3.870739e+01	-1.082985e+01
3.893096e+01	-1.087588e+01
3.915583e+01	-1.092172e+01
3.938199e+01	-1.096803e+01
3.960946e+01	-1.101367e+01
3.983824e+01	-1.105975e+01
4.006834e+01	-1.110598e+01
4.029978e+01	-1.115139e+01
4.053255e+01	-1.119852e+01
4.076666e+01	-1.124478e+01
4.100213e+01	-1.129150e+01
4.123896e+01	-1.133721e+01
4.147715e+01	-1.138383e+01
4.171672e+01	-1.142978e+01
4.195767e+01	-1.147688e+01
4.220002e+01	-1.152310e+01
4.244377e+01	-1.156923e+01
4.268892e+01	-1.161568e+01
4.293549e+01	-1.166247e+01
4.318348e+01	-1.171015e+01
4.343291e+01	-1.175619e+01
4.368377e+01	-1.180257e+01
4.393609e+01	-1.185004e+01
4.418986e+01	-1.189552e+01
4.444510e+01	-1.194311e+01
4.470182e+01	-1.199018e+01
4.496001e+01	-1.203696e+01
4.521970e+01	-1.208361e+01
4.548089e+01	-1.213032e+01
4.574358e+01	-1.217829e+01
4.600779e+01	-1.222517e+01
4.627353e+01	-1.227217e+01
4.654081e+01	-1.231862e+01
4.680963e+01	-1.236633e+01
4.708000e+01	-1.241312e+01
4.735193e+01	-1.245984e+01
4.762543e+01	-1.250797e+01
4.790051e+01	-1.255505e+01
4.817719e+01	-1.260133e+01
4.845545e+01	-1.264911e+01
4.873533e+01	-1.269595e+01
4.901682e+01	-1.274434e+01
4.929994e+01	-1.279092e+01
4.958470e+01	-1.283844e+01
4.987110e+01	-1.288563e+01
5.015915e+01	-1.293361e+01
5.044887e+01	-1.298091e+01
5.074026e+01	-1.302915e+01
5.103333e+01	-1.307594e+01
5.132810e+01	-1.312317e+01
5.162457e+01	-1.317083e+01
5.192275e+01	-1.321893e+01
5.222265e+01	-1.326693e+01
5.252429e+01	-1.331378e+01
5.282767e+01	-1.336165e+01
5.313280e+01	-1.340983e+01
5.343969e+01	-1.345700e+01
5.374836e+01	-1.350449e+01
5.405880e+01	-1.355366e+01
5.437105e+01	-1.360031e+01
5.468509e+01	-1.364861e+01
5.500095e+01	-1.369640e+01
5.531863e+01	-1.374409e+01
5.563815e+01	-1.379234e+01
5.595951e+01	-1.384043e+01
5.628273e+01	-1.388794e+01
5.660782e+01	-1.393682e+01
5.693479e+01	-1.398431e+01
5.726364e+01	-1.403273e+01
5.759439e+01	-1.408049e+01
5.792705e+01	-1.412837e+01
5.826164e+01	-1.417607e+01
5.859815e+01	-1.422578e+01
5.893662e+01	-1.427291e+01
5.927703e+01	-1.432041e+01
5.961941e+01	-1.436903e+01
5.996377e+01	-1.441700e+01
6.031012e+01	-1.446525e+01
6.065847e+01	-1.451416e+01
6.100883e+01	-1.456268e+01
6.136121e+01	-1.461049e+01
6.171563e+01	-1.465874e+01
6.207210e+01	-1.470702e+01
6.243063e+01	-1.475512e+01
6.279122e+01	-1.480380e+01
6.315390e+01	-1.485281e+01
6.351868e+01	-1.489998e+01
6.388556e+01	-1.494947e+01
6.425456e+01	-1.499674e+01
6.462569e+01	-1.504616e+01
6.499897e+01	-1.509355e+01
6.537440e+01	-1.514299e+01
6.575200e+01	-1.519128e+01
6.613178e+01	-1.523960e+01
6.651375e+01	-1.528840e+01
6.689793e+01	-1.533691e+01
6.728433e+01	-1.538545e+01
6.767297e+01	-1.543418e+01
6.806384e+01	-1.548197e+01
6.845698e+01	-1.553122e+01
6.885238e+01	-1.557955e+01
6.925007e+01	-1.562855e+01
6.965005e+01	-1.567721e+01
7.005235e+01	-1.572643e+01
7.045697e+01	-1.577423e+01
7.086393e+01	-1.582398e+01
7.127323e+01	-1.587285e+01
7.168490e+01	-1.591970e+01
7.209895e+01	-1.597048e+01
7.251539e+01	-1.601798e+01
7.293424e+01	-1.606730e+01
7.335551e+01	-1.611621e+01
7.377920e+01	-1.616455e+01
7.420535e+01	-1.621308e+01
7.463396e+01	-1.626247e+01
7.506504e+01	-1.631099e+01
7.549861e+01	-1.635960e+01
7.593469e+01	-1.640934e+01
7.637328e+01	-1.645769e+01
7.681441e+01	-1.650801e+01
7.725809e+01	-1.655563e+01
7.770433e+01	-1.660438e+01
7.815315e+01	-1.665294e+01
7.860456e+01	-1.670289e+01
7.905857e+01	-1.675200e+01
7.951521e+01	-1.680054e+01
7.997449e+01	-1.684985e+01
8.043642e+01	-1.689893e+01
8.090102e+01	-1.694677e+01
8.136830e+01	-1.699622e+01
8.183828e+01	-1.704552e+01
8.231097e+01	-1.709439e+01
8.278640e+01	-1.714310e+01
8.326457e+01	-1.719222e+01
8.374550e+01	-1.724241e+01
8.422921e+01	-1.729149e+01
8.471572e+01	-1.733881e+01
8.520503e+01	-1.738933e+01
8.569717e+01	-1.743874e+01
8.619215e+01	-1.748754e+01
8.669000e+01	-1.753535e+01
8.719071e+01	-1.758489e+01
8.769432e+01	-1.763411e+01
8.820084e+01	-1.768346e+01
8.871029e+01	-1.773359e+01
8.922267e+01	-1.778307e+01
8.973802e+01	-1.783137e+01
9.025634e+01	-1.788026e+01
9.077766e+01	-1.792980e+01
9.130199e+01	-1.797833e+01
9.182935e+01	-1.802850e+01
9.235975e+01	-1.807671e+01
9.289321e+01	-1.812647e+01
9.342976e+01	-1.817562e+01
9.396941e+01	-1.822578e+01
9.451217e+01	-1.827516e+01
9.505807e+01	-1.832404e+01
9.560712e+01	-1.837430e+01
9.615934e+01	-1.842225e+01
9.671476e+01	-1.847091e+01
9.727338e+01	-1.852136e+01
9.783522e+01	-1.857131e+01
9.840032e+01	-1.862023e+01
9.896867e+01	-1.866949e+01
9.954031e+01	-1.871704e+01
1.001153e+02	-1.876987e+01
1.006935e+02	-1.881619e+01
1.012751e+02	-1.886530e+01
1.018601e+02	-1.891584e+01
1.024484e+02	-1.896551e+01
1.030402e+02	-1.901505e+01
1.036353e+02	-1.906399e+01
1.042339e+02	-1.911392e+01
1.048360e+02	-1.916384e+01
1.054415e+02	-1.921223e+01
1.060505e+02	-1.926298e+01
1.066631e+02	-1.931122e+01
1.072791e+02	-1.936199e+01
1.078988e+02	-1.940972e+01
1.085220e+02	-1.946051e+01
1.091488e+02	-1.951034e+01
1.097793e+02	-1.955827e+01
1.104133e+02	-1.960964e+01
1.110511e+02	-1.965699e+01
1.116925e+02	-1.970660e+01
1.123376e+02	-1.975611e+01
1.129865e+02	-1.980656e+01
1.136391e+02	-1.985720e+01
1.142955e+02	-1.990523e+01
1.149556e+02	-1.995444e+01
1.156196e+02	-2.000460e+01
1.162874e+02	-2.005328e+01
1.169591e+02	-2.010341e+01
1.176347e+02	-2.015315e+01
1.183141e+02	-2.020280e+01
1.189975e+02	-2.025332e+01
1.196848e+02	-2.030066e+01
1.203761e+02	-2.035261e+01
1.210714e+02	-2.040073e+01
1.217707e+02	-2.045074e+01
1.224740e+02	-2.049814e+01
1.231814e+02	-2.054674e+01
1.238929e+02	-2.059808e+01
1.246085e+02	-2.065030e+01
1.253283e+02	-2.069755e+01
1.260522e+02	-2.074708e+01
1.267802e+02	-2.079583e+01
1.275125e+02	-2.084849e+01
1.282490e+02	-2.089762e+01
1.289898e+02	-2.094991e+01
1.297348e+02	-2.099647e+01
1.304842e+02	-2.104584e+01
1.312378e+02	-2.109617e+01
1.319959e+02	-2.114414e+01
1.327583e+02	-2.119403e+01
1.335251e+02	-2.124535e+01
1.342963e+02	-2.129371e+01
1.350720e+02	-2.134389e+01
1.358522e+02	-2.139519e+01
1.366368e+02	-2.144467e+01
1.374260e+02	-2.149370e+01
1.382198e+02	-2.154028e+01
1.390182e+02	-2.159268e+01
1.398211e+02	-2.164185e+01
1.406287e+02	-2.169193e+01
1.414410e+02	-2.174181e+01
1.422579e+02	-2.179359e+01
1.430796e+02	-2.184106e+01
1.439060e+02	-2.189127e+01
1.447372e+02	-2.194132e+01
1.455732e+02	-2.198955e+01
1.464141e+02	-2.203885e+01
1.472597e+02	-2.208810e+01
1.481103e+02	-2.213873e+01
1.489658e+02	-2.218904e+01
1.498262e+02	-2.223937e+01
1.506916e+02	-2.228843e+01
1.515620e+02	-2.233749e+01
1.524374e+02	-2.238760e+01
1.533179e+02	-2.243962e+01
1.542034e+02	-2.248879e+01
1.550941e+02	-2.253807e+01
1.559899e+02	-2.258713e+01
1.568909e+02	-2.263790e+01
1.577971e+02	-2.268810e+01
1.587085e+02	-2.273511e+01
1.596252e+02	-2.278344e+01
1.605472e+02	-2.283470e+01
1.614745e+02	-2.288701e+01
1.624072e+02	-2.293439e+01
1.633453e+02	-2.298540e+01
1.642887e+02	-2.303415e+01
1.652377e+02	-2.308553e+01
1.661921e+02	-2.313523e+01
1.671520e+02	-2.318492e+01
1.681175e+02	-2.323644e+01
1.690885e+02	-2.328481e+01
1.700651e+02	-2.333253e+01
1.710474e+02	-2.338540e+01
1.720354e+02	-2.343227e+01
1.730291e+02	-2.348205e+01
1.740285e+02	-2.353539e+01
1.750337e+02	-2.358213e+01
1.760446e+02	-2.363409e+01
1.770615e+02	-2.368140e+01
1.780842e+02	-2.373172e+01
1.791128e+02	-2.378337e+01
1.801473e+02	-2.383344e+01
1.811878e+02	-2.388266e+01
1.822344e+02	-2.393007e+01
1.832870e+02	-2.398248e+01
1.843456e+02	-2.403513e+01
1.854104e+02	-2.408269e+01
1.864813e+02	-2.413086e+01
1.875584e+02	-2.417840e+01
1.886418e+02	-2.423060e+01
1.897313e+02	-2.428096e+01
1.908272e+02	-2.433077e+01
1.919294e+02	-2.437940e+01
1.930380e+02	-2.442577e+01
1.941530e+02	-2.447906e+01
1.952744e+02	-2.453366e+01
1.964023e+02	-2.457914e+01
1.975367e+02	-2.462942e+01
1.986777e+02	-2.468260e+01
1.998252e+02	-2.472966e+01
2.009794e+02	-2.477890e+01
2.021403e+02	-2.483140e+01
2.033078e+02	-2.487968e+01
2.044821e+02	-2.493103e+01
2.056632e+02	-2.497716e+01
2.068511e+02	-2.502937e+01
2.080459e+02	-2.508324e+01
2.092475e+02	-2.512934e+01
2.104561e+02	-2.517773e+01
2.116717e+02	-2.523049e+01
2.128943e+02	-2.527895e+01
2.141240e+02	-2.533102e+01
2.153608e+02	-2.537720e+01
2.166047e+02	-2.542890e+01
2.178558e+02	-2.547739e+01
2.191141e+02	-2.552640e+01
2.203797e+02	-2.558006e+01
2.216526e+02	-2.562844e+01
2.229329e+02	-2.568068e+01
2.242205e+02	-2.572823e+01
2.255156e+02	-2.577793e+01
2.268182e+02	-2.582746e+01
2.281283e+02	-2.587815e+01
2.294459e+02	-2.592705e+01
2.307712e+02	-2.597779e+01
2.321041e+02	-2.603011e+01
2.334447e+02	-2.607921e+01
2.347931e+02	-2.613154e+01
2.361493e+02	-2.617622e+01
2.375133e+02	-2.622547e+01
2.388851e+02	-2.627952e+01
2.402649e+02	-2.632822e+01
2.416527e+02	-2.638199e+01
2.430484e+02	-2.643001e+01
2.444523e+02	-2.647636e+01
2.458642e+02	-2.653036e+01
2.472843e+02	-2.657671e+01
2.487126e+02	-2.662551e+01
2.501492e+02	-2.667632e+01
2.515940e+02	-2.672736e+01
2.530472e+02	-2.677690e+01
2.545088e+02	-2.682647e+01
2.559789e+02	-2.687336e+01
2.574574e+02	-2.692589e+01
2.589444e+02	-2.697731e+01
2.604401e+02	-2.702937e+01
2.619444e+02	-2.707619e+01
2.634574e+02	-2.712715e+01
2.649791e+02	-2.717792e+01
2.665096e+02	-2.722768e+01
2.680489e+02	-2.727811e+01
2.695972e+02	-2.732693e+01
2.711544e+02	-2.737649e+01
2.727205e+02	-2.742939e+01
2.742958e+02	-2.747709e+01
2.758801e+02	-2.752712e+01
2.774736e+02	-2.757849e+01
2.790762e+02	-2.763289e+01
2.806882e+02	-2.767669e+01
2.823094e+02	-2.772895e+01
2.839400e+02	-2.777627e+01
2.855800e+02	-2.782441e+01
2.872295e+02	-2.787695e+01
2.888886e+02	-2.792822e+01
2.905572e+02	-2.798071e+01
2.922354e+02	-2.802566e+01
2.939234e+02	-2.807666e+01
2.956211e+02	-2.812972e+01
2.973286e+02	-2.817603e+01
2.990459e+02	-2.822617e+01
3.007732e+02	-2.827796e+01
3.025104e+02	-2.832655e+01
3.042577e+02	-2.837851e+01
3.060151e+02	-2.842791e+01
3.077826e+02	-2.848027e+01
3.095604e+02	-2.852730e+01
3.113484e+02	-2.858286e+01
3.131467e+02	-2.862993e+01
3.149554e+02	-2.867787e+01
3.167746e+02	-2.872902e+01
3.186043e+02	-2.878127e+01
3.204445e+02	-2.882379e+01
3.222954e+02	-2.887834e+01
3.241570e+02	-2.892713e+01
3.260293e+02	-2.897641e+01
3.279124e+02	-2.903291e+01
3.298064e+02	-2.908224e+01
3.317114e+02	-2.912956e+01
3.336273e+02	-2.917920e+01
3.355544e+02	-2.923072e+01
3.374925e+02	-2.927713e+01
3.394418e+02	-2.932963e+01
3.414024e+02	-2.938066e+01
3.433744e+02	-2.943008e+01
3.453577e+02	-2.948159e+01
3.473525e+02	-2.952642e+01
3.493588e+02	-2.957972e+01
3.513766e+02	-2.962680e+01
3.534062e+02	-2.968057e+01
3.554474e+02	-2.972618e+01
3.575005e+02	-2.978222e+01
3.595654e+02	-2.982903e+01
3.616422e+02	-2.988419e+01
3.637311e+02	-2.992635e+01
3.658320e+02	-2.997905e+01
3.679450e+02	-3.002937e+01
3.700702e+02	-3.007539e+01
3.722077e+02	-3.013141e+01
3.743576e+02	-3.017971e+01
3.765199e+02	-3.023022e+01
3.786946e+02	-3.028414e+01
3.808820e+02	-3.032813e+01
3.830819e+02	-3.037889e+01
3.852946e+02	-3.042790e+01
3.875200e+02	-3.048019e+01
3.897583e+02	-3.053757e+01
3.920096e+02	-3.058024e+01
3.942738e+02	-3.063078e+01
3.965511e+02	-3.068756e+01
3.988416e+02	-3.073032e+01
4.011452e+02	-3.077935e+01
4.034622e+02	-3.083265e+01
4.057926e+02	-3.088055e+01
4.081365e+02	-3.093058e+01
4.104938e+02	-3.098594e+01
4.128648e+02	-3.102591e+01
4.152495e+02	-3.108499e+01
4.176480e+02	-3.113029e+01
4.200603e+02	-3.118292e+01
4.224866e+02	-3.123387e+01
4.249268e+02	-3.128288e+01
4.273812e+02	-3.133542e+01
4.298497e+02	-3.139019e+01
4.323325e+02	-3.143443e+01
4.348297e+02	-3.148556e+01
4.373412e+02	-3.153369e+01
4.398673e+02	-3.158051e+01
4.424079e+02	-3.164224e+01
4.449633e+02	-3.168653e+01
4.475334e+02	-3.173269e+01
4.501183e+02	-3.178891e+01
4.527182e+02	-3.183834e+01
4.553330e+02	-3.189043e+01
4.579630e+02	-3.194105e+01
4.606082e+02	-3.198730e+01
4.632687e+02	-3.203153e+01
4.659445e+02	-3.208745e+01
4.686358e+02	-3.213756e+01
4.713426e+02	-3.219147e+01
4.740650e+02	-3.223773e+01
4.768032e+02	-3.228813e+01
4.795572e+02	-3.233868e+01
4.823271e+02	-3.238912e+01
4.851130e+02	-3.243586e+01
4.879150e+02	-3.249153e+01
4.907332e+02	-3.253696e+01
4.935676e+02	-3.258705e+01
4.964185e+02	-3.264508e+01
4.992858e+02	-3.268621e+01
5.021696e+02	-3.274320e+01
5.050701e+02	-3.279244e+01
5.079874e+02	-3.283900e+01
5.109215e+02	-3.288054e+01
5.138726e+02	-3.293898e+01
5.168407e+02	-3.298665e+01
5.198259e+02	-3.304349e+01
5.228284e+02	-3.308984e+01
5.258482e+02	-3.314218e+01
5.288855e+02	-3.319080e+01
5.319403e+02	-3.324145e+01
5.350128e+02	-3.328888e+01
5.381030e+02	-3.334564e+01
5.412111e+02	-3.339038e+01
5.443371e+02	-3.344154e+01
5.474812e+02	-3.349090e+01
5.506434e+02	-3.354898e+01
5.538239e+02	-3.359137e+01
5.570228e+02	-3.364743e+01
5.602401e+02	-3.369210e+01
5.634760e+02	-3.374700e+01
5.667306e+02	-3.379331e+01
5.700040e+02	-3.385066e+01
5.732964e+02	-3.390076e+01
5.766077e+02	-3.393967e+01
5.799382e+02	-3.399365e+01
5.832879e+02	-3.405176e+01
5.866569e+02	-3.409805e+01
5.900454e+02	-3.414881e+01
5.934535e+02	-3.419331e+01
5.968813e+02	-3.424535e+01
6.003288e+02	-3.429352e+01
6.037963e+02	-3.434433e+01
6.072838e+02	-3.439998e+01
6.107914e+02	-3.444717e+01
6.143194e+02	-3.449589e+01
6.178676e+02	-3.454575e+01
6.214364e+02	-3.459243e+01
6.250258e+02	-3.465613e+01
6.286359e+02	-3.469392e+01
6.322669e+02	-3.475860e+01
6.359189e+02	-3.480068e+01
6.395919e+02	-3.485274e+01
6.432862e+02	-3.490200e+01
6.470017e+02	-3.495334e+01
6.507388e+02	-3.500358e+01
6.544974e+02	-3.505732e+01
6.582778e+02	-3.510894e+01
6.620800e+02	-3.516270e+01
6.659041e+02	-3.520201e+01
6.697504e+02	-3.525012e+01
6.736188e+02	-3.531600e+01
6.775096e+02	-3.536410e+01
6.814229e+02	-3.540630e+01
6.853587e+02	-3.545560e+01
6.893173e+02	-3.550562e+01
6.932988e+02	-3.556687e+01
6.973033e+02	-3.560710e+01
7.013309e+02	-3.566133e+01
