Frequency(Hz)	Magnitude(dB)
1.000000e+01	-2.151948e+00
1.005776e+01	-2.171616e+00
1.011585e+01	-2.191590e+00
1.017428e+01	-2.211154e+00
1.023305e+01	-2.231328e+00
1.029215e+01	-2.251281e+00
1.035160e+01	-2.271758e+00
1.041139e+01	-2.292403e+00
1.047153e+01	-2.312655e+00
1.053201e+01	-2.333367e+00
1.059284e+01	-2.354487e+00
1.065403e+01	-2.375340e+00
1.071556e+01	-2.396607e+00
1.077746e+01	-2.417828e+00
1.083971e+01	-2.439367e+00
1.090232e+01	-2.460845e+00
1.096529e+01	-2.482468e+00
1.102862e+01	-2.504404e+00
1.109232e+01	-2.526361e+00
1.115639e+01	-2.548378e+00
1.122083e+01	-2.570915e+00
1.128564e+01	-2.593144e+00
1.135083e+01	-2.615617e+00
1.141639e+01	-2.638495e+00
1.148233e+01	-2.661287e+00
1.154865e+01	-2.684196e+00
1.161536e+01	-2.707496e+00
1.168245e+01	-2.730655e+00
1.174992e+01	-2.753937e+00
1.181779e+01	-2.777587e+00
1.188605e+01	-2.801431e+00
1.195470e+01	-2.825125e+00
1.202375e+01	-2.849490e+00
1.209320e+01	-2.873415e+00
1.216305e+01	-2.897633e+00
1.223330e+01	-2.921910e+00
1.230396e+01	-2.946512e+00
1.237503e+01	-2.971393e+00
1.244651e+01	-2.996025e+00
1.251840e+01	-3.021388e+00
1.259070e+01	-3.046462e+00
1.266343e+01	-3.071717e+00
1.273657e+01	-3.097093e+00
1.281014e+01	-3.122731e+00
1.288413e+01	-3.148098e+00
1.295855e+01	-3.174404e+00
1.303339e+01	-3.200714e+00
1.310867e+01	-3.226259e+00
1.318439e+01	-3.252807e+00
1.326054e+01	-3.279275e+00
1.333713e+01	-3.305748e+00
1.341417e+01	-3.332649e+00
1.349165e+01	-3.359458e+00
1.356958e+01	-3.386390e+00
1.364795e+01	-3.413636e+00
1.372678e+01	-3.440847e+00
1.380607e+01	-3.468183e+00
1.388581e+01	-3.495786e+00
1.396602e+01	-3.523521e+00
1.404668e+01	-3.551443e+00
1.412782e+01	-3.579545e+00
1.420942e+01	-3.607604e+00
1.429149e+01	-3.635959e+00
1.437404e+01	-3.664488e+00
1.445706e+01	-3.692906e+00
1.454057e+01	-3.721689e+00
1.462455e+01	-3.750688e+00
1.470902e+01	-3.779503e+00
1.479398e+01	-3.808515e+00
1.487943e+01	-3.838035e+00
1.496537e+01	-3.867480e+00
1.505181e+01	-3.897011e+00
1.513875e+01	-3.926706e+00
1.522619e+01	-3.956731e+00
1.531414e+01	-3.986624e+00
1.540259e+01	-4.016416e+00
1.549156e+01	-4.047013e+00
1.558103e+01	-4.077269e+00
1.567103e+01	-4.107696e+00
1.576155e+01	-4.138411e+00
1.585258e+01	-4.169051e+00
1.594415e+01	-4.200216e+00
1.603624e+01	-4.231360e+00
1.612886e+01	-4.262458e+00
1.622202e+01	-4.293641e+00
1.631572e+01	-4.325535e+00
1.640996e+01	-4.357054e+00
1.650474e+01	-4.388677e+00
1.660008e+01	-4.420704e+00
1.669596e+01	-4.452572e+00
1.679239e+01	-4.484641e+00
1.688938e+01	-4.516759e+00
1.698694e+01	-4.549393e+00
1.708505e+01	-4.581891e+00
1.718373e+01	-4.614653e+00
1.728299e+01	-4.647573e+00
1.738281e+01	-4.680487e+00
1.748322e+01	-4.713473e+00
1.758420e+01	-4.746646e+00
1.768576e+01	-4.779766e+00
1.778792e+01	-4.813460e+00
1.789066e+01	-4.846810e+00
1.799399e+01	-4.880688e+00
1.809793e+01	-4.914618e+00
1.820246e+01	-4.948645e+00
1.830760e+01	-4.982484e+00
1.841334e+01	-5.017016e+00
1.851969e+01	-5.051080e+00
1.862666e+01	-5.085450e+00
1.873425e+01	-5.120033e+00
1.884246e+01	-5.154670e+00
1.895129e+01	-5.189713e+00
1.906075e+01	-5.224657e+00
1.917085e+01	-5.259536e+00
1.928158e+01	-5.294605e+00
1.939295e+01	-5.330200e+00
1.950496e+01	-5.365451e+00
1.961762e+01	-5.401224e+00
1.973093e+01	-5.436751e+00
1.984490e+01	-5.473003e+00
1.995952e+01	-5.508341e+00
2.007480e+01	-5.544230e+00
2.019076e+01	-5.580362e+00
2.030738e+01	-5.616971e+00
2.042467e+01	-5.653177e+00
2.054264e+01	-5.689260e+00
2.066130e+01	-5.726318e+00
2.078064e+01	-5.762903e+00
2.090066e+01	-5.799557e+00
2.102139e+01	-5.837005e+00
2.114280e+01	-5.873577e+00
2.126492e+01	-5.910828e+00
2.138775e+01	-5.947803e+00
2.151128e+01	-5.985473e+00
2.163553e+01	-6.022796e+00
2.176050e+01	-6.060503e+00
2.188619e+01	-6.098524e+00
2.201260e+01	-6.135840e+00
2.213974e+01	-6.173760e+00
2.226762e+01	-6.212005e+00
2.239624e+01	-6.250143e+00
2.252560e+01	-6.287980e+00
2.265571e+01	-6.326816e+00
2.278656e+01	-6.365120e+00
2.291818e+01	-6.403705e+00
2.305055e+01	-6.442058e+00
2.318369e+01	-6.480456e+00
2.331760e+01	-6.519668e+00
2.345228e+01	-6.558780e+00
2.358774e+01	-6.597361e+00
2.372398e+01	-6.636369e+00
2.386101e+01	-6.675908e+00
2.399883e+01	-6.715214e+00
2.413745e+01	-6.754838e+00
2.427686e+01	-6.794185e+00
2.441709e+01	-6.833506e+00
2.455812e+01	-6.873621e+00
2.469997e+01	-6.912945e+00
2.484263e+01	-6.953413e+00
2.498612e+01	-6.993064e+00
2.513044e+01	-7.033116e+00
2.527559e+01	-7.073395e+00
2.542158e+01	-7.113809e+00
2.556842e+01	-7.154214e+00
2.571610e+01	-7.194401e+00
2.586463e+01	-7.234860e+00
2.601403e+01	-7.275711e+00
2.616428e+01	-7.316234e+00
2.631541e+01	-7.357107e+00
2.646740e+01	-7.397794e+00
2.662028e+01	-7.438934e+00
2.677404e+01	-7.479932e+00
2.692868e+01	-7.520885e+00
2.708422e+01	-7.562090e+00
2.724066e+01	-7.603647e+00
2.739800e+01	-7.644690e+00
2.755625e+01	-7.686573e+00
2.771541e+01	-7.727743e+00
2.787550e+01	-7.769486e+00
2.803650e+01	-7.811063e+00
2.819844e+01	-7.852779e+00
2.836131e+01	-7.894804e+00
2.852513e+01	-7.936794e+00
2.868989e+01	-7.979137e+00
2.885560e+01	-8.020710e+00
2.902227e+01	-8.062925e+00
2.918990e+01	-8.105196e+00
2.935850e+01	-8.148056e+00
2.952807e+01	-8.190324e+00
2.969863e+01	-8.233050e+00
2.987016e+01	-8.275180e+00
3.004269e+01	-8.317549e+00
3.021622e+01	-8.360792e+00
3.039075e+01	-8.403191e+00
3.056628e+01	-8.446665e+00
3.074283e+01	-8.488982e+00
3.092040e+01	-8.531923e+00
3.109900e+01	-8.575433e+00
3.127862e+01	-8.618141e+00
3.145929e+01	-8.661056e+00
3.164099e+01	-8.704668e+00
3.182375e+01	-8.747954e+00
3.200756e+01	-8.791381e+00
3.219244e+01	-8.834657e+00
3.237838e+01	-8.878006e+00
3.256540e+01	-8.921384e+00
3.275349e+01	-8.965584e+00
3.294268e+01	-9.009184e+00
3.313295e+01	-9.053067e+00
3.332433e+01	-9.096803e+00
3.351681e+01	-9.140889e+00
3.371040e+01	-9.184678e+00
3.390511e+01	-9.228913e+00
3.410094e+01	-9.272880e+00
3.429791e+01	-9.316823e+00
3.449601e+01	-9.361202e+00
3.469526e+01	-9.405855e+00
3.489566e+01	-9.449866e+00
3.509721e+01	-9.494558e+00
3.529993e+01	-9.538519e+00
3.550382e+01	-9.582718e+00
3.570889e+01	-9.627619e+00
3.591515e+01	-9.672167e+00
3.612259e+01	-9.717221e+00
3.633123e+01	-9.761662e+00
3.654108e+01	-9.805976e+00
3.675214e+01	-9.851627e+00
3.696442e+01	-9.895658e+00
3.717792e+01	-9.941117e+00
3.739266e+01	-9.985293e+00
3.760864e+01	-1.003077e+01
3.782587e+01	-1.007573e+01
3.804435e+01	-1.012094e+01
3.826409e+01	-1.016660e+01
3.848510e+01	-1.021191e+01
3.870739e+01	-1.025666e+01
3.893096e+01	-1.030167e+01
3.915583e+01	-1.034732e+01
3.938199e+01	-1.039325e+01
3.960946e+01	-1.043834e+01
3.983824e+01	-1.048436e+01
4.006834e+01	-1.052962e+01
4.029978e+01	-1.057585e+01
4.053255e+01	-1.062027e+01
4.076666e+01	-1.066681e+01
4.100213e+01	-1.071242e+01
4.123896e+01	-1.075835e+01
4.147715e+01	-1.080472e+01
4.171672e+01	-1.084977e+01
4.195767e+01	-1.089619e+01
4.220002e+01	-1.094133e+01
4.244377e+01	-1.098751e+01
4.268892e+01	-1.103323e+01
4.293549e+01	-1.107980e+01
4.318348e+01	-1.112622e+01
4.343291e+01	-1.117212e+01
4.368377e+01	-1.121838e+01
4.393609e+01	-1.126495e+01
4.418986e+01	-1.131076e+01
4.444510e+01	-1.135801e+01
4.470182e+01	-1.140346e+01
4.496001e+01	-1.145035e+01
4.521970e+01	-1.149690e+01
4.548089e+01	-1.154371e+01
4.574358e+01	-1.158957e+01
4.600779e+01	-1.163588e+01
4.627353e+01	-1.168290e+01
4.654081e+01	-1.172936e+01
4.680963e+01	-1.177614e+01
4.708000e+01	-1.182259e+01
4.735193e+01	-1.186998e+01
4.762543e+01	-1.191653e+01
4.790051e+01	-1.196324e+01
4.817719e+01	-1.201094e+01
4.845545e+01	-1.205708e+01
4.873533e+01	-1.210432e+01
4.901682e+01	-1.215076e+01
4.929994e+01	-1.219837e+01
4.958470e+01	-1.224513e+01
4.987110e+01	-1.229251e+01
5.015915e+01	-1.233935e+01
5.044887e+01	-1.238673e+01
5.074026e+01	-1.243334e+01
5.103333e+01	-1.248119e+01
5.132810e+01	-1.252749e+01
5.162457e+01	-1.257452e+01
5.192275e+01	-1.262206e+01
5.222265e+01	-1.266930e+01
5.252429e+01	-1.271774e+01
5.282767e+01	-1.276452e+01
5.313280e+01	-1.281210e+01
5.343969e+01	-1.285917e+01
5.374836e+01	-1.290678e+01
5.405880e+01	-1.295402e+01
5.437105e+01	-1.300149e+01
5.468509e+01	-1.304863e+01
5.500095e+01	-1.309638e+01
5.531863e+01	-1.314387e+01
5.563815e+01	-1.319240e+01
5.595951e+01	-1.324011e+01
5.628273e+01	-1.328731e+01
5.660782e+01	-1.333511e+01
5.693479e+01	-1.338324e+01
5.726364e+01	-1.343044e+01
5.759439e+01	-1.347824e+01
5.792705e+01	-1.352671e+01
5.826164e+01	-1.357327e+01
5.859815e+01	-1.362164e+01
5.893662e+01	-1.366979e+01
5.927703e+01	-1.371694e+01
5.961941e+01	-1.376527e+01
5.996377e+01	-1.381346e+01
6.031012e+01	-1.386094e+01
6.065847e+01	-1.390957e+01
6.100883e+01	-1.395667e+01
6.136121e+01	-1.400476e+01
6.171563e+01	-1.405258e+01
6.207210e+01	-1.410134e+01
6.243063e+01	-1.414982e+01
6.279122e+01	-1.419775e+01
6.315390e+01	-1.424566e+01
6.351868e+01	-1.429396e+01
6.388556e+01	-1.434141e+01
6.425456e+01	-1.439031e+01
6.462569e+01	-1.443862e+01
6.499897e+01	-1.448594e+01
6.537440e+01	-1.453485e+01
6.575200e+01	-1.458379e+01
6.613178e+01	-1.463203e+01
6.651375e+01	-1.467941e+01
6.689793e+01	-1.472844e+01
6.728433e+01	-1.477666e+01
6.767297e+01	-1.482459e+01
6.806384e+01	-1.487262e+01
6.845698e+01	-1.492191e+01
6.885238e+01	-1.497009e+01
6.925007e+01	-1.501845e+01
6.965005e+01	-1.506725e+01
7.005235e+01	-1.511488e+01
7.045697e+01	-1.516334e+01
7.086393e+01	-1.521231e+01
7.127323e+01	-1.526107e+01
7.168490e+01	-1.530911e+01
7.209895e+01	-1.535833e+01
7.251539e+01	-1.540608e+01
7.293424e+01	-1.545508e+01
7.335551e+01	-1.550464e+01
7.377920e+01	-1.555241e+01
7.420535e+01	-1.560140e+01
7.463396e+01	-1.564897e+01
7.506504e+01	-1.569899e+01
7.549861e+01	-1.574765e+01
7.593469e+01	-1.579635e+01
7.637328e+01	-1.584508e+01
7.681441e+01	-1.589392e+01
7.725809e+01	-1.594212e+01
7.770433e+01	-1.599097e+01
7.815315e+01	-1.604014e+01
7.860456e+01	-1.608820e+01
7.905857e+01	-1.613734e+01
7.951521e+01	-1.618651e+01
7.997449e+01	-1.623547e+01
8.043642e+01	-1.628387e+01
8.090102e+01	-1.633187e+01
8.136830e+01	-1.638088e+01
8.183828e+01	-1.643008e+01
8.231097e+01	-1.647910e+01
8.278640e+01	-1.652730e+01
8.326457e+01	-1.657693e+01
8.374550e+01	-1.662615e+01
8.422921e+01	-1.667628e+01
8.471572e+01	-1.672342e+01
8.520503e+01	-1.677344e+01
8.569717e+01	-1.682206e+01
8.619215e+01	-1.687101e+01
8.669000e+01	-1.692031e+01
8.719071e+01	-1.696797e+01
8.769432e+01	-1.701820e+01
8.820084e+01	-1.706722e+01
8.871029e+01	-1.711584e+01
8.922267e+01	-1.716559e+01
8.973802e+01	-1.721423e+01
9.025634e+01	-1.726348e+01
9.077766e+01	-1.731178e+01
9.130199e+01	-1.736110e+01
9.182935e+01	-1.741028e+01
9.235975e+01	-1.745963e+01
9.289321e+01	-1.750869e+01
9.342976e+01	-1.755831e+01
9.396941e+01	-1.760653e+01
9.451217e+01	-1.765601e+01
9.505807e+01	-1.770641e+01
9.560712e+01	-1.775352e+01
9.615934e+01	-1.780281e+01
9.671476e+01	-1.785370e+01
9.727338e+01	-1.790224e+01
9.783522e+01	-1.795298e+01
9.840032e+01	-1.800161e+01
9.896867e+01	-1.804992e+01
9.954031e+01	-1.809966e+01
1.001153e+02	-1.814805e+01
1.006935e+02	-1.819773e+01
1.012751e+02	-1.824737e+01
1.018601e+02	-1.829636e+01
1.024484e+02	-1.834558e+01
1.030402e+02	-1.839518e+01
1.036353e+02	-1.844457e+01
1.042339e+02	-1.849298e+01
1.048360e+02	-1.854272e+01
1.054415e+02	-1.859256e+01
1.060505e+02	-1.864151e+01
1.066631e+02	-1.869184e+01
1.072791e+02	-1.874115e+01
1.078988e+02	-1.879032e+01
1.085220e+02	-1.883857e+01
1.091488e+02	-1.888850e+01
1.097793e+02	-1.893800e+01
1.104133e+02	-1.898730e+01
1.110511e+02	-1.903649e+01
1.116925e+02	-1.908495e+01
1.123376e+02	-1.913596e+01
1.129865e+02	-1.918478e+01
1.136391e+02	-1.923626e+01
1.142955e+02	-1.928335e+01
1.149556e+02	-1.933274e+01
1.156196e+02	-1.938274e+01
1.162874e+02	-1.943204e+01
1.169591e+02	-1.948244e+01
1.176347e+02	-1.953084e+01
1.183141e+02	-1.957942e+01
1.189975e+02	-1.962879e+01
1.196848e+02	-1.967848e+01
1.203761e+02	-1.972821e+01
1.210714e+02	-1.977919e+01
1.217707e+02	-1.982779e+01
1.224740e+02	-1.987600e+01
1.231814e+02	-1.992732e+01
1.238929e+02	-1.997786e+01
1.246085e+02	-2.002489e+01
1.253283e+02	-2.007484e+01
1.260522e+02	-2.012630e+01
1.267802e+02	-2.017505e+01
1.275125e+02	-2.022612e+01
1.282490e+02	-2.027468e+01
1.289898e+02	-2.032265e+01
1.297348e+02	-2.037351e+01
1.304842e+02	-2.042355e+01
1.312378e+02	-2.047009e+01
1.319959e+02	-2.052373e+01
1.327583e+02	-2.056890e+01
1.335251e+02	-2.062000e+01
1.342963e+02	-2.067125e+01
1.350720e+02	-2.071930e+01
1.358522e+02	-2.076938e+01
1.366368e+02	-2.081845e+01
1.374260e+02	-2.086897e+01
1.382198e+02	-2.091863e+01
1.390182e+02	-2.097002e+01
1.398211e+02	-2.101813e+01
1.406287e+02	-2.106573e+01
1.414410e+02	-2.111663e+01
1.422579e+02	-2.116737e+01
1.430796e+02	-2.121678e+01
1.439060e+02	-2.126567e+01
1.447372e+02	-2.131596e+01
1.455732e+02	-2.136434e+01
1.464141e+02	-2.141688e+01
1.472597e+02	-2.146352e+01
1.481103e+02	-2.151419e+01
1.489658e+02	-2.156417e+01
1.498262e+02	-2.161295e+01
1.506916e+02	-2.166406e+01
1.515620e+02	-2.171380e+01
1.524374e+02	-2.176390e+01
1.533179e+02	-2.181367e+01
1.542034e+02	-2.186213e+01
1.550941e+02	-2.191033e+01
1.559899e+02	-2.196147e+01
1.568909e+02	-2.201161e+01
1.577971e+02	-2.206314e+01
1.587085e+02	-2.211056e+01
1.596252e+02	-2.215997e+01
1.605472e+02	-2.221051e+01
1.614745e+02	-2.226007e+01
1.624072e+02	-2.230967e+01
1.633453e+02	-2.235898e+01
1.642887e+02	-2.241019e+01
1.652377e+02	-2.246027e+01
1.661921e+02	-2.250762e+01
1.671520e+02	-2.255935e+01
1.681175e+02	-2.260997e+01
1.690885e+02	-2.265808e+01
1.700651e+02	-2.270941e+01
1.710474e+02	-2.275741e+01
1.720354e+02	-2.280920e+01
1.730291e+02	-2.285593e+01
1.740285e+02	-2.290783e+01
1.750337e+02	-2.295817e+01
1.760446e+02	-2.300593e+01
1.770615e+02	-2.305613e+01
1.780842e+02	-2.310800e+01
1.791128e+02	-2.315630e+01
1.801473e+02	-2.320373e+01
1.811878e+02	-2.325574e+01
1.822344e+02	-2.330721e+01
1.832870e+02	-2.335360e+01
1.843456e+02	-2.340537e+01
1.854104e+02	-2.345488e+01
1.864813e+02	-2.350253e+01
1.875584e+02	-2.355324e+01
1.886418e+02	-2.360520e+01
1.897313e+02	-2.365387e+01
1.908272e+02	-2.370370e+01
1.919294e+02	-2.375557e+01
1.930380e+02	-2.380301e+01
1.941530e+02	-2.385338e+01
1.952744e+02	-2.390593e+01
1.964023e+02	-2.395170e+01
1.975367e+02	-2.400428e+01
1.986777e+02	-2.405391e+01
1.998252e+02	-2.410397e+01
2.009794e+02	-2.415709e+01
2.021403e+02	-2.420388e+01
2.033078e+02	-2.425718e+01
2.044821e+02	-2.430042e+01
2.056632e+02	-2.435460e+01
2.068511e+02	-2.440189e+01
2.080459e+02	-2.445364e+01
2.092475e+02	-2.450331e+01
2.104561e+02	-2.455223e+01
2.116717e+02	-2.460020e+01
2.128943e+02	-2.465287e+01
2.141240e+02	-2.470119e+01
2.153608e+02	-2.475097e+01
2.166047e+02	-2.480171e+01
2.178558e+02	-2.485131e+01
2.191141e+02	-2.490574e+01
2.203797e+02	-2.495152e+01
2.216526e+02	-2.500189e+01
2.229329e+02	-2.505100e+01
2.242205e+02	-2.510334e+01
2.255156e+02	-2.515220e+01
2.268182e+02	-2.519951e+01
2.281283e+02	-2.525228e+01
2.294459e+02	-2.530031e+01
2.307712e+02	-2.534865e+01
2.321041e+02	-2.540002e+01
2.334447e+02	-2.545018e+01
2.347931e+02	-2.550066e+01
2.361493e+02	-2.554916e+01
2.375133e+02	-2.559938e+01
2.388851e+02	-2.565327e+01
2.402649e+02	-2.570015e+01
2.416527e+02	-2.574971e+01
2.430484e+02	-2.579942e+01
2.444523e+02	-2.585035e+01
2.458642e+02	-2.589843e+01
2.472843e+02	-2.595055e+01
2.487126e+02	-2.599884e+01
2.501492e+02	-2.605034e+01
2.515940e+02	-2.610051e+01
2.530472e+02	-2.615052e+01
2.545088e+02	-2.619928e+01
2.559789e+02	-2.624947e+01
2.574574e+02	-2.629885e+01
2.589444e+02	-2.634828e+01
2.604401e+02	-2.640004e+01
2.619444e+02	-2.644791e+01
2.634574e+02	-2.650002e+01
2.649791e+02	-2.655132e+01
2.665096e+02	-2.659616e+01
2.680489e+02	-2.664761e+01
2.695972e+02	-2.669891e+01
2.711544e+02	-2.675154e+01
2.727205e+02	-2.679484e+01
2.742958e+02	-2.684975e+01
2.758801e+02	-2.689966e+01
2.774736e+02	-2.694946e+01
2.790762e+02	-2.699744e+01
2.806882e+02	-2.704719e+01
2.823094e+02	-2.709656e+01
2.839400e+02	-2.715040e+01
2.855800e+02	-2.720155e+01
2.872295e+02	-2.724645e+01
2.888886e+02	-2.730135e+01
2.905572e+02	-2.734831e+01
2.922354e+02	-2.739829e+01
2.939234e+02	-2.744575e+01
2.956211e+02	-2.749722e+01
2.973286e+02	-2.754895e+01
2.990459e+02	-2.759664e+01
3.007732e+02	-2.764954e+01
3.025104e+02	-2.769943e+01
3.042577e+02	-2.774966e+01
3.060151e+02	-2.779684e+01
3.077826e+02	-2.784806e+01
3.095604e+02	-2.789785e+01
3.113484e+02	-2.795065e+01
3.131467e+02	-2.799784e+01
3.149554e+02	-2.804936e+01
3.167746e+02	-2.809876e+01
3.186043e+02	-2.814917e+01
3.204445e+02	-2.819586e+01
3.222954e+02	-2.824933e+01
3.241570e+02	-2.830088e+01
3.260293e+02	-2.835168e+01
3.279124e+02	-2.840168e+01
3.298064e+02	-2.844862e+01
3.317114e+02	-2.849823e+01
3.336273e+02	-2.855265e+01
3.355544e+02	-2.859651e+01
3.374925e+02	-2.865152e+01
3.394418e+02	-2.869767e+01
3.414024e+02	-2.874761e+01
3.433744e+02	-2.879899e+01
3.453577e+02	-2.884923e+01
3.473525e+02	-2.890087e+01
3.493588e+02	-2.894734e+01
3.513766e+02	-2.899684e+01
3.534062e+02	-2.904753e+01
3.554474e+02	-2.909583e+01
3.575005e+02	-2.914790e+01
3.595654e+02	-2.919788e+01
3.616422e+02	-2.924964e+01
3.637311e+02	-2.929981e+01
3.658320e+02	-2.935412e+01
3.679450e+02	-2.939903e+01
3.700702e+02	-2.945008e+01
3.722077e+02	-2.949732e+01
3.743576e+02	-2.954992e+01
3.765199e+02	-2.959927e+01
3.786946e+02	-2.965286e+01
3.808820e+02	-2.970245e+01
3.830819e+02	-2.975109e+01
3.852946e+02	-2.980279e+01
3.875200e+02	-2.985016e+01
3.897583e+02	-2.989921e+01
3.920096e+02	-2.994996e+01
3.942738e+02	-3.000327e+01
3.965511e+02	-3.005333e+01
3.988416e+02	-3.010404e+01
4.011452e+02	-3.015391e+01
4.034622e+02	-3.019664e+01
4.057926e+02	-3.025228e+01
4.081365e+02	-3.030072e+01
4.104938e+02	-3.035303e+01
4.128648e+02	-3.039781e+01
4.152495e+02	-3.045146e+01
4.176480e+02	-3.049877e+01
4.200603e+02	-3.055417e+01
4.224866e+02	-3.060440e+01
4.249268e+02	-3.064899e+01
4.273812e+02	-3.070461e+01
4.298497e+02	-3.075638e+01
4.323325e+02	-3.080399e+01
4.348297e+02	-3.085449e+01
4.373412e+02	-3.090382e+01
4.398673e+02	-3.094861e+01
4.424079e+02	-3.100242e+01
4.449633e+02	-3.105856e+01
4.475334e+02	-3.110134e+01
4.501183e+02	-3.114929e+01
4.527182e+02	-3.120100e+01
4.553330e+02	-3.124873e+01
4.579630e+02	-3.129671e+01
4.606082e+02	-3.135364e+01
4.632687e+02	-3.140101e+01
4.659445e+02	-3.145540e+01
4.686358e+02	-3.150733e+01
4.713426e+02	-3.155264e+01
4.740650e+02	-3.160579e+01
4.768032e+02	-3.165573e+01
4.795572e+02	-3.170213e+01
4.823271e+02	-3.175148e+01
4.851130e+02	-3.180327e+01
4.879150e+02	-3.185473e+01
4.907332e+02	-3.190945e+01
4.935676e+02	-3.195684e+01
4.964185e+02	-3.200428e+01
4.992858e+02	-3.205749e+01
5.021696e+02	-3.210134e+01
5.050701e+02	-3.215269e+01
5.079874e+02	-3.220794e+01
5.109215e+02	-3.225892e+01
5.138726e+02	-3.230832e+01
5.168407e+02	-3.235503e+01
5.198259e+02	-3.240519e+01
5.228284e+02	-3.245768e+01
5.258482e+02	-3.250794e+01
5.288855e+02	-3.255299e+01
5.319403e+02	-3.260369e+01
5.350128e+02	-3.265954e+01
5.381030e+02	-3.270348e+01
5.412111e+02	-3.275861e+01
5.443371e+02	-3.280964e+01
5.474812e+02	-3.286039e+01
5.506434e+02	-3.290343e+01
5.538239e+02	-3.296329e+01
5.570228e+02	-3.300720e+01
5.602401e+02	-3.306841e+01
5.634760e+02	-3.310830e+01
5.667306e+02	-3.315753e+01
5.700040e+02	-3.321549e+01
5.732964e+02	-3.326107e+01
5.766077e+02	-3.330172e+01
5.799382e+02	-3.336117e+01
5.832879e+02	-3.341601e+01
5.866569e+02	-3.345850e+01
5.900454e+02	-3.351096e+01
5.934535e+02	-3.355991e+01
5.968813e+02	-3.361629e+01
6.003288e+02	-3.366393e+01
6.037963e+02	-3.370989e+01
6.072838e+02	-3.376113e+01
6.107914e+02	-3.381082e+01
6.143194e+02	-3.386368e+01
6.178676e+02	-3.390852e+01
6.214364e+02	-3.396486e+01
6.250258e+02	-3.401270e+01
6.286359e+02	-3.406240e+01
6.322669e+02	-3.412088e+01
6.359189e+02	-3.416106e+01
6.395919e+02	-3.421165e+01
6.432862e+02	-3.425888e+01
6.470017e+02	-3.430941e+01
6.507388e+02	-3.437228e+01
6.544974e+02	-3.441428e+01
6.582778e+02	-3.446687e+01
6.620800e+02	-3.451137e+01
6.659041e+02	-3.456090e+01
6.697504e+02	-3.461302e+01
6.736188e+02	-3.466493e+01
6.775096e+02	-3.471996e+01
6.814229e+02	-3.476033e+01
6.853587e+02	-3.481811e+01
6.893173e+02	-3.486554e+01
6.932988e+02	-3.491362e+01
6.973033e+02	-3.497040e+01
7.013309e+02	-3.501539e+01
