Frequency(Hz)	Magnitude(dB)
1.000000e+01	-2.263216e+00
1.005776e+01	-2.283407e+00
1.011585e+01	-2.303889e+00
1.017428e+01	-2.324915e+00
1.023305e+01	-2.345542e+00
1.029215e+01	-2.366591e+00
1.035160e+01	-2.387514e+00
1.041139e+01	-2.408771e+00
1.047153e+01	-2.430175e+00
1.053201e+01	-2.451687e+00
1.059284e+01	-2.473467e+00
1.065403e+01	-2.495173e+00
1.071556e+01	-2.516728e+00
1.077746e+01	-2.539301e+00
1.083971e+01	-2.561355e+00
1.090232e+01	-2.583455e+00
1.096529e+01	-2.606171e+00
1.102862e+01	-2.628975e+00
1.109232e+01	-2.651646e+00
1.115639e+01	-2.674440e+00
1.122083e+01	-2.697722e+00
1.128564e+01	-2.721189e+00
1.135083e+01	-2.744132e+00
1.141639e+01	-2.767532e+00
1.148233e+01	-2.791366e+00
1.154865e+01	-2.815249e+00
1.161536e+01	-2.838998e+00
1.168245e+01	-2.863053e+00
1.174992e+01	-2.887353e+00
1.181779e+01	-2.911693e+00
1.188605e+01	-2.936310e+00
1.195470e+01	-2.961119e+00
1.202375e+01	-2.985759e+00
1.209320e+01	-3.010616e+00
1.216305e+01	-3.035634e+00
1.223330e+01	-3.061078e+00
1.230396e+01	-3.086242e+00
1.237503e+01	-3.111958e+00
1.244651e+01	-3.137689e+00
1.251840e+01	-3.163569e+00
1.259070e+01	-3.189245e+00
1.266343e+01	-3.215386e+00
1.273657e+01	-3.241599e+00
1.281014e+01	-3.267944e+00
1.288413e+01	-3.294527e+00
1.295855e+01	-3.321057e+00
1.303339e+01	-3.348014e+00
1.310867e+01	-3.375302e+00
1.318439e+01	-3.401871e+00
1.326054e+01	-3.429461e+00
1.333713e+01	-3.456613e+00
1.341417e+01	-3.484539e+00
1.349165e+01	-3.512011e+00
1.356958e+01	-3.539603e+00
1.364795e+01	-3.567755e+00
1.372678e+01	-3.595780e+00
1.380607e+01	-3.624045e+00
1.388581e+01	-3.652470e+00
1.396602e+01	-3.680978e+00
1.404668e+01	-3.709641e+00
1.412782e+01	-3.738399e+00
1.420942e+01	-3.767399e+00
1.429149e+01	-3.796512e+00
1.437404e+01	-3.825600e+00
1.445706e+01	-3.855065e+00
1.454057e+01	-3.884489e+00
1.462455e+01	-3.914004e+00
1.470902e+01	-3.944077e+00
1.479398e+01	-3.974012e+00
1.487943e+01	-4.003988e+00
1.496537e+01	-4.033979e+00
1.505181e+01	-4.064362e+00
1.513875e+01	-4.094975e+00
1.522619e+01	-4.125186e+00
1.531414e+01	-4.156426e+00
1.540259e+01	-4.187038e+00
1.549156e+01	-4.217990e+00
1.558103e+01	-4.249377e+00
1.567103e+01	-4.280781e+00
1.576155e+01	-4.312027e+00
1.585258e+01	-4.343419e+00
1.594415e+01	-4.375444e+00
1.603624e+01	-4.407136e+00
1.612886e+01	-4.439143e+00
1.622202e+01	-4.471161e+00
1.631572e+01	-4.503177e+00
1.640996e+01	-4.535725e+00
1.650474e+01	-4.568286e+00
1.660008e+01	-4.600737e+00
1.669596e+01	-4.633694e+00
1.679239e+01	-4.666247e+00
1.688938e+01	-4.699180e+00
1.698694e+01	-4.732559e+00
1.708505e+01	-4.765967e+00
1.718373e+01	-4.799191e+00
1.728299e+01	-4.832913e+00
1.738281e+01	-4.866344e+00
1.748322e+01	-4.900246e+00
1.758420e+01	-4.934052e+00
1.768576e+01	-4.968223e+00
1.778792e+01	-5.002331e+00
1.789066e+01	-5.036726e+00
1.799399e+01	-5.070785e+00
1.809793e+01	-5.105475e+00
1.820246e+01	-5.140203e+00
1.830760e+01	-5.174623e+00
1.841334e+01	-5.209830e+00
1.851969e+01	-5.244699e+00
1.862666e+01	-5.280045e+00
1.873425e+01	-5.315326e+00
1.884246e+01	-5.350287e+00
1.895129e+01	-5.386192e+00
1.906075e+01	-5.421737e+00
1.917085e+01	-5.457413e+00
1.928158e+01	-5.493286e+00
1.939295e+01	-5.529104e+00
1.950496e+01	-5.565155e+00
1.961762e+01	-5.601584e+00
1.973093e+01	-5.637685e+00
1.984490e+01	-5.674126e+00
1.995952e+01	-5.710500e+00
2.007480e+01	-5.747413e+00
2.019076e+01	-5.784378e+00
2.030738e+01	-5.821088e+00
2.042467e+01	-5.857787e+00
2.054264e+01	-5.895134e+00
2.066130e+01	-5.932448e+00
2.078064e+01	-5.969598e+00
2.090066e+01	-6.007017e+00
2.102139e+01	-6.044361e+00
2.114280e+01	-6.082163e+00
2.126492e+01	-6.119842e+00
2.138775e+01	-6.158049e+00
2.151128e+01	-6.195749e+00
2.163553e+01	-6.233675e+00
2.176050e+01	-6.272252e+00
2.188619e+01	-6.310015e+00
2.201260e+01	-6.348833e+00
2.213974e+01	-6.387249e+00
2.226762e+01	-6.425588e+00
2.239624e+01	-6.464377e+00
2.252560e+01	-6.503428e+00
2.265571e+01	-6.542413e+00
2.278656e+01	-6.581072e+00
2.291818e+01	-6.620387e+00
2.305055e+01	-6.659333e+00
2.318369e+01	-6.698608e+00
2.331760e+01	-6.737998e+00
2.345228e+01	-6.777268e+00
2.358774e+01	-6.817083e+00
2.372398e+01	-6.856960e+00
2.386101e+01	-6.896487e+00
2.399883e+01	-6.936325e+00
2.413745e+01	-6.976233e+00
2.427686e+01	-7.016725e+00
2.441709e+01	-7.056389e+00
2.455812e+01	-7.096583e+00
2.469997e+01	-7.136808e+00
2.484263e+01	-7.177535e+00
2.498612e+01	-7.217890e+00
2.513044e+01	-7.258504e+00
2.527559e+01	-7.299065e+00
2.542158e+01	-7.339773e+00
2.556842e+01	-7.380901e+00
2.571610e+01	-7.421771e+00
2.586463e+01	-7.462362e+00
2.601403e+01	-7.503421e+00
2.616428e+01	-7.544599e+00
2.631541e+01	-7.586168e+00
2.646740e+01	-7.627013e+00
2.662028e+01	-7.668744e+00
2.677404e+01	-7.710330e+00
2.692868e+01	-7.752129e+00
2.708422e+01	-7.793731e+00
2.724066e+01	-7.835513e+00
2.739800e+01	-7.876964e+00
2.755625e+01	-7.919084e+00
2.771541e+01	-7.961173e+00
2.787550e+01	-8.003196e+00
2.803650e+01	-8.044774e+00
2.819844e+01	-8.087752e+00
2.836131e+01	-8.129704e+00
2.852513e+01	-8.172069e+00
2.868989e+01	-8.214701e+00
2.885560e+01	-8.257230e+00
2.902227e+01	-8.299793e+00
2.918990e+01	-8.342199e+00
2.935850e+01	-8.385058e+00
2.952807e+01	-8.428035e+00
2.969863e+01	-8.471208e+00
2.987016e+01	-8.513987e+00
3.004269e+01	-8.556789e+00
3.021622e+01	-8.599982e+00
3.039075e+01	-8.643219e+00
3.056628e+01	-8.686190e+00
3.074283e+01	-8.729877e+00
3.092040e+01	-8.772965e+00
3.109900e+01	-8.816004e+00
3.127862e+01	-8.859651e+00
3.145929e+01	-8.903371e+00
3.164099e+01	-8.947094e+00
3.182375e+01	-8.991025e+00
3.200756e+01	-9.034568e+00
3.219244e+01	-9.078089e+00
3.237838e+01	-9.122061e+00
3.256540e+01	-9.165791e+00
3.275349e+01	-9.209701e+00
3.294268e+01	-9.253935e+00
3.313295e+01	-9.298076e+00
3.332433e+01	-9.342506e+00
3.351681e+01	-9.386410e+00
3.371040e+01	-9.431221e+00
3.390511e+01	-9.475351e+00
3.410094e+01	-9.519043e+00
3.429791e+01	-9.564314e+00
3.449601e+01	-9.608461e+00
3.469526e+01	-9.653247e+00
3.489566e+01	-9.697954e+00
3.509721e+01	-9.742250e+00
3.529993e+01	-9.787397e+00
3.550382e+01	-9.832293e+00
3.570889e+01	-9.877412e+00
3.591515e+01	-9.921866e+00
3.612259e+01	-9.966884e+00
3.633123e+01	-1.001147e+01
3.654108e+01	-1.005675e+01
3.675214e+01	-1.010264e+01
3.696442e+01	-1.014710e+01
3.717792e+01	-1.019265e+01
3.739266e+01	-1.023767e+01
3.760864e+01	-1.028267e+01
3.782587e+01	-1.032841e+01
3.804435e+01	-1.037352e+01
3.826409e+01	-1.041947e+01
3.848510e+01	-1.046485e+01
3.870739e+01	-1.051053e+01
3.893096e+01	-1.055588e+01
3.915583e+01	-1.060189e+01
3.938199e+01	-1.064735e+01
3.960946e+01	-1.069293e+01
3.983824e+01	-1.073913e+01
4.006834e+01	-1.078452e+01
4.029978e+01	-1.083076e+01
4.053255e+01	-1.087610e+01
4.076666e+01	-1.092303e+01
4.100213e+01	-1.096795e+01
4.123896e+01	-1.101492e+01
4.147715e+01	-1.106032e+01
4.171672e+01	-1.110662e+01
4.195767e+01	-1.115267e+01
4.220002e+01	-1.119876e+01
4.244377e+01	-1.124530e+01
4.268892e+01	-1.129179e+01
4.293549e+01	-1.133724e+01
4.318348e+01	-1.138480e+01
4.343291e+01	-1.143051e+01
4.368377e+01	-1.147663e+01
4.393609e+01	-1.152374e+01
4.418986e+01	-1.157063e+01
4.444510e+01	-1.161621e+01
4.470182e+01	-1.166300e+01
4.496001e+01	-1.170971e+01
4.521970e+01	-1.175685e+01
4.548089e+01	-1.180298e+01
4.574358e+01	-1.184956e+01
4.600779e+01	-1.189663e+01
4.627353e+01	-1.194397e+01
4.654081e+01	-1.199060e+01
4.680963e+01	-1.203707e+01
4.708000e+01	-1.208432e+01
4.735193e+01	-1.213148e+01
4.762543e+01	-1.217869e+01
4.790051e+01	-1.222512e+01
4.817719e+01	-1.227229e+01
4.845545e+01	-1.231882e+01
4.873533e+01	-1.236618e+01
4.901682e+01	-1.241394e+01
4.929994e+01	-1.246125e+01
4.958470e+01	-1.250827e+01
4.987110e+01	-1.255487e+01
5.015915e+01	-1.260284e+01
5.044887e+01	-1.265032e+01
5.074026e+01	-1.269685e+01
5.103333e+01	-1.274417e+01
5.132810e+01	-1.279156e+01
5.162457e+01	-1.283937e+01
5.192275e+01	-1.288696e+01
5.222265e+01	-1.293456e+01
5.252429e+01	-1.298144e+01
5.282767e+01	-1.302922e+01
5.313280e+01	-1.307608e+01
5.343969e+01	-1.312435e+01
5.374836e+01	-1.317229e+01
5.405880e+01	-1.321943e+01
5.437105e+01	-1.326734e+01
5.468509e+01	-1.331499e+01
5.500095e+01	-1.336233e+01
5.531863e+01	-1.341003e+01
5.563815e+01	-1.345743e+01
5.595951e+01	-1.350469e+01
5.628273e+01	-1.355383e+01
5.660782e+01	-1.360112e+01
5.693479e+01	-1.364932e+01
5.726364e+01	-1.369751e+01
5.759439e+01	-1.374531e+01
5.792705e+01	-1.379271e+01
5.826164e+01	-1.384072e+01
5.859815e+01	-1.388786e+01
5.893662e+01	-1.393785e+01
5.927703e+01	-1.398426e+01
5.961941e+01	-1.403279e+01
5.996377e+01	-1.408066e+01
6.031012e+01	-1.412901e+01
6.065847e+01	-1.417679e+01
6.100883e+01	-1.422571e+01
6.136121e+01	-1.427379e+01
6.171563e+01	-1.432141e+01
6.207210e+01	-1.436978e+01
6.243063e+01	-1.441825e+01
6.279122e+01	-1.446658e+01
6.315390e+01	-1.451430e+01
6.351868e+01	-1.456249e+01
6.388556e+01	-1.461057e+01
6.425456e+01	-1.466008e+01
6.462569e+01	-1.470761e+01
6.499897e+01	-1.475556e+01
6.537440e+01	-1.480459e+01
6.575200e+01	-1.485259e+01
6.613178e+01	-1.490067e+01
6.651375e+01	-1.495013e+01
6.689793e+01	-1.499811e+01
6.728433e+01	-1.504640e+01
6.767297e+01	-1.509319e+01
6.806384e+01	-1.514325e+01
6.845698e+01	-1.519225e+01
6.885238e+01	-1.524047e+01
6.925007e+01	-1.528888e+01
6.965005e+01	-1.533773e+01
7.005235e+01	-1.538590e+01
7.045697e+01	-1.543526e+01
7.086393e+01	-1.548364e+01
7.127323e+01	-1.553316e+01
7.168490e+01	-1.558027e+01
7.209895e+01	-1.563027e+01
7.251539e+01	-1.567732e+01
7.293424e+01	-1.572635e+01
7.335551e+01	-1.577565e+01
7.377920e+01	-1.582385e+01
7.420535e+01	-1.587278e+01
7.463396e+01	-1.592086e+01
7.506504e+01	-1.597077e+01
7.549861e+01	-1.602004e+01
7.593469e+01	-1.606889e+01
7.637328e+01	-1.611716e+01
7.681441e+01	-1.616676e+01
7.725809e+01	-1.621433e+01
7.770433e+01	-1.626363e+01
7.815315e+01	-1.631164e+01
7.860456e+01	-1.636137e+01
7.905857e+01	-1.641035e+01
7.951521e+01	-1.645863e+01
7.997449e+01	-1.650791e+01
8.043642e+01	-1.655690e+01
8.090102e+01	-1.660631e+01
8.136830e+01	-1.665276e+01
8.183828e+01	-1.670301e+01
8.231097e+01	-1.675213e+01
8.278640e+01	-1.680119e+01
8.326457e+01	-1.684968e+01
8.374550e+01	-1.689940e+01
8.422921e+01	-1.694791e+01
8.471572e+01	-1.699717e+01
8.520503e+01	-1.704679e+01
8.569717e+01	-1.709583e+01
8.619215e+01	-1.714468e+01
8.669000e+01	-1.719351e+01
8.719071e+01	-1.724217e+01
8.769432e+01	-1.729124e+01
8.820084e+01	-1.734105e+01
8.871029e+01	-1.738989e+01
8.922267e+01	-1.743895e+01
8.973802e+01	-1.748822e+01
9.025634e+01	-1.753721e+01
9.077766e+01	-1.758637e+01
9.130199e+01	-1.763542e+01
9.182935e+01	-1.768482e+01
9.235975e+01	-1.773372e+01
9.289321e+01	-1.778296e+01
9.342976e+01	-1.783338e+01
9.396941e+01	-1.788199e+01
9.451217e+01	-1.793016e+01
9.505807e+01	-1.798020e+01
9.560712e+01	-1.802903e+01
9.615934e+01	-1.807835e+01
9.671476e+01	-1.812741e+01
9.727338e+01	-1.817635e+01
9.783522e+01	-1.822565e+01
9.840032e+01	-1.827582e+01
9.896867e+01	-1.832482e+01
9.954031e+01	-1.837345e+01
1.001153e+02	-1.842255e+01
1.006935e+02	-1.847351e+01
1.012751e+02	-1.852085e+01
1.018601e+02	-1.857351e+01
1.024484e+02	-1.862030e+01
1.030402e+02	-1.866977e+01
1.036353e+02	-1.871928e+01
1.042339e+02	-1.876978e+01
1.048360e+02	-1.881654e+01
1.054415e+02	-1.886754e+01
1.060505e+02	-1.891640e+01
1.066631e+02	-1.896586e+01
1.072791e+02	-1.901619e+01
1.078988e+02	-1.906542e+01
1.085220e+02	-1.911451e+01
1.091488e+02	-1.916454e+01
1.097793e+02	-1.921305e+01
1.104133e+02	-1.926479e+01
1.110511e+02	-1.931383e+01
1.116925e+02	-1.936104e+01
1.123376e+02	-1.941080e+01
1.129865e+02	-1.946060e+01
1.136391e+02	-1.951052e+01
1.142955e+02	-1.955902e+01
1.149556e+02	-1.960874e+01
1.156196e+02	-1.965903e+01
1.162874e+02	-1.970793e+01
1.169591e+02	-1.975737e+01
1.176347e+02	-1.980764e+01
1.183141e+02	-1.985747e+01
1.189975e+02	-1.990659e+01
1.196848e+02	-1.995643e+01
1.203761e+02	-2.000496e+01
1.210714e+02	-2.005440e+01
1.217707e+02	-2.010491e+01
1.224740e+02	-2.015470e+01
1.231814e+02	-2.020292e+01
1.238929e+02	-2.025255e+01
1.246085e+02	-2.030188e+01
1.253283e+02	-2.035203e+01
1.260522e+02	-2.040293e+01
1.267802e+02	-2.045202e+01
1.275125e+02	-2.050197e+01
1.282490e+02	-2.055029e+01
1.289898e+02	-2.060277e+01
1.297348e+02	-2.064950e+01
1.304842e+02	-2.069944e+01
1.312378e+02	-2.074948e+01
1.319959e+02	-2.079818e+01
1.327583e+02	-2.084899e+01
1.335251e+02	-2.089653e+01
1.342963e+02	-2.094665e+01
1.350720e+02	-2.099721e+01
1.358522e+02	-2.104624e+01
1.366368e+02	-2.109667e+01
1.374260e+02	-2.114630e+01
1.382198e+02	-2.119520e+01
1.390182e+02	-2.124514e+01
1.398211e+02	-2.129345e+01
1.406287e+02	-2.134421e+01
1.414410e+02	-2.139576e+01
1.422579e+02	-2.144332e+01
1.430796e+02	-2.149352e+01
1.439060e+02	-2.154361e+01
1.447372e+02	-2.159247e+01
1.455732e+02	-2.164328e+01
1.464141e+02	-2.169217e+01
1.472597e+02	-2.174368e+01
1.481103e+02	-2.179129e+01
1.489658e+02	-2.184248e+01
1.498262e+02	-2.189029e+01
1.506916e+02	-2.194242e+01
1.515620e+02	-2.199087e+01
1.524374e+02	-2.204078e+01
1.533179e+02	-2.209084e+01
1.542034e+02	-2.214026e+01
1.550941e+02	-2.218981e+01
1.559899e+02	-2.223979e+01
1.568909e+02	-2.228872e+01
1.577971e+02	-2.233688e+01
1.587085e+02	-2.238852e+01
1.596252e+02	-2.243820e+01
1.605472e+02	-2.248792e+01
1.614745e+02	-2.253832e+01
1.624072e+02	-2.258734e+01
1.633453e+02	-2.263690e+01
1.642887e+02	-2.268583e+01
1.652377e+02	-2.273898e+01
1.661921e+02	-2.278578e+01
1.671520e+02	-2.283659e+01
1.681175e+02	-2.288633e+01
1.690885e+02	-2.293692e+01
1.700651e+02	-2.298637e+01
1.710474e+02	-2.303459e+01
1.720354e+02	-2.308614e+01
1.730291e+02	-2.313494e+01
1.740285e+02	-2.318508e+01
1.750337e+02	-2.323724e+01
1.760446e+02	-2.328677e+01
1.770615e+02	-2.333502e+01
1.780842e+02	-2.338267e+01
1.791128e+02	-2.343356e+01
1.801473e+02	-2.348494e+01
1.811878e+02	-2.353471e+01
1.822344e+02	-2.358200e+01
1.832870e+02	-2.363484e+01
1.843456e+02	-2.368501e+01
1.854104e+02	-2.373207e+01
1.864813e+02	-2.378193e+01
1.875584e+02	-2.383177e+01
1.886418e+02	-2.388494e+01
1.897313e+02	-2.393297e+01
1.908272e+02	-2.398599e+01
1.919294e+02	-2.403286e+01
1.930380e+02	-2.408313e+01
1.941530e+02	-2.413135e+01
1.952744e+02	-2.418212e+01
1.964023e+02	-2.423262e+01
1.975367e+02	-2.428335e+01
1.986777e+02	-2.433260e+01
1.998252e+02	-2.438043e+01
2.009794e+02	-2.443064e+01
2.021403e+02	-2.448226e+01
2.033078e+02	-2.453051e+01
2.044821e+02	-2.458024e+01
2.056632e+02	-2.463085e+01
2.068511e+02	-2.468260e+01
2.080459e+02	-2.473066e+01
2.092475e+02	-2.477817e+01
2.104561e+02	-2.482929e+01
2.116717e+02	-2.488051e+01
2.128943e+02	-2.492764e+01
2.141240e+02	-2.497995e+01
2.153608e+02	-2.503156e+01
2.166047e+02	-2.508267e+01
2.178558e+02	-2.513260e+01
2.191141e+02	-2.518047e+01
2.203797e+02	-2.522886e+01
2.216526e+02	-2.527488e+01
2.229329e+02	-2.532943e+01
2.242205e+02	-2.537806e+01
2.255156e+02	-2.542811e+01
2.268182e+02	-2.547719e+01
2.281283e+02	-2.552973e+01
2.294459e+02	-2.557773e+01
2.307712e+02	-2.562811e+01
2.321041e+02	-2.568122e+01
2.334447e+02	-2.572903e+01
2.347931e+02	-2.578072e+01
2.361493e+02	-2.582529e+01
2.375133e+02	-2.588082e+01
2.388851e+02	-2.592868e+01
2.402649e+02	-2.597722e+01
2.416527e+02	-2.602902e+01
2.430484e+02	-2.607786e+01
2.444523e+02	-2.612868e+01
2.458642e+02	-2.617757e+01
2.472843e+02	-2.622826e+01
2.487126e+02	-2.627825e+01
2.501492e+02	-2.632761e+01
2.515940e+02	-2.637846e+01
2.530472e+02	-2.642788e+01
2.545088e+02	-2.647791e+01
2.559789e+02	-2.652821e+01
2.574574e+02	-2.657661e+01
2.589444e+02	-2.662679e+01
2.604401e+02	-2.667625e+01
2.619444e+02	-2.673083e+01
2.634574e+02	-2.677716e+01
2.649791e+02	-2.682765e+01
2.665096e+02	-2.687648e+01
2.680489e+02	-2.692697e+01
2.695972e+02	-2.697620e+01
2.711544e+02	-2.702615e+01
2.727205e+02	-2.707754e+01
2.742958e+02	-2.712768e+01
2.758801e+02	-2.717635e+01
2.774736e+02	-2.722190e+01
2.790762e+02	-2.727798e+01
2.806882e+02	-2.732617e+01
2.823094e+02	-2.737911e+01
2.839400e+02	-2.742825e+01
2.855800e+02	-2.747563e+01
2.872295e+02	-2.752623e+01
2.888886e+02	-2.757893e+01
2.905572e+02	-2.762836e+01
2.922354e+02	-2.767783e+01
2.939234e+02	-2.772443e+01
2.956211e+02	-2.778366e+01
2.973286e+02	-2.782516e+01
2.990459e+02	-2.787832e+01
3.007732e+02	-2.792824e+01
3.025104e+02	-2.798517e+01
3.042577e+02	-2.802176e+01
3.060151e+02	-2.807824e+01
3.077826e+02	-2.812972e+01
3.095604e+02	-2.817978e+01
3.113484e+02	-2.822698e+01
3.131467e+02	-2.828082e+01
3.149554e+02	-2.832876e+01
3.167746e+02	-2.837972e+01
3.186043e+02	-2.842695e+01
3.204445e+02	-2.847951e+01
3.222954e+02	-2.852904e+01
3.241570e+02	-2.857641e+01
3.260293e+02	-2.862475e+01
3.279124e+02	-2.867639e+01
3.298064e+02	-2.872560e+01
3.317114e+02	-2.877676e+01
3.336273e+02	-2.883244e+01
3.355544e+02	-2.887259e+01
3.374925e+02	-2.892539e+01
3.394418e+02	-2.897704e+01
3.414024e+02	-2.902685e+01
3.433744e+02	-2.907750e+01
3.453577e+02	-2.912586e+01
3.473525e+02	-2.918023e+01
3.493588e+02	-2.922741e+01
3.513766e+02	-2.928128e+01
3.534062e+02	-2.932464e+01
3.554474e+02	-2.937530e+01
3.575005e+02	-2.942757e+01
3.595654e+02	-2.948073e+01
3.616422e+02	-2.953175e+01
3.637311e+02	-2.957780e+01
3.658320e+02	-2.963404e+01
3.679450e+02	-2.967999e+01
3.700702e+02	-2.973054e+01
3.722077e+02	-2.977829e+01
3.743576e+02	-2.983035e+01
3.765199e+02	-2.988168e+01
3.786946e+02	-2.992668e+01
3.808820e+02	-2.997895e+01
3.830819e+02	-3.003087e+01
3.852946e+02	-3.007946e+01
3.875200e+02	-3.013185e+01
3.897583e+02	-3.017525e+01
3.920096e+02	-3.022515e+01
3.942738e+02	-3.028326e+01
3.965511e+02	-3.032704e+01
3.988416e+02	-3.037880e+01
4.011452e+02	-3.042823e+01
4.034622e+02	-3.047832e+01
4.057926e+02	-3.053120e+01
4.081365e+02	-3.057984e+01
4.104938e+02	-3.063115e+01
4.128648e+02	-3.068160e+01
4.152495e+02	-3.073120e+01
4.176480e+02	-3.078026e+01
4.200603e+02	-3.082566e+01
4.224866e+02	-3.087562e+01
4.249268e+02	-3.093161e+01
4.273812e+02	-3.098081e+01
4.298497e+02	-3.103302e+01
4.323325e+02	-3.108552e+01
4.348297e+02	-3.113540e+01
4.373412e+02	-3.117945e+01
4.398673e+02	-3.123931e+01
4.424079e+02	-3.127939e+01
4.449633e+02	-3.133084e+01
4.475334e+02	-3.138342e+01
4.501183e+02	-3.143193e+01
4.527182e+02	-3.148550e+01
4.553330e+02	-3.152649e+01
4.579630e+02	-3.157936e+01
4.606082e+02	-3.163350e+01
4.632687e+02	-3.168627e+01
4.659445e+02	-3.172906e+01
4.686358e+02	-3.178540e+01
4.713426e+02	-3.182063e+01
4.740650e+02	-3.188173e+01
4.768032e+02	-3.193277e+01
4.795572e+02	-3.198738e+01
4.823271e+02	-3.203823e+01
4.851130e+02	-3.208327e+01
4.879150e+02	-3.213426e+01
4.907332e+02	-3.218350e+01
4.935676e+02	-3.223260e+01
4.964185e+02	-3.228794e+01
4.992858e+02	-3.233490e+01
5.021696e+02	-3.238717e+01
5.050701e+02	-3.243472e+01
5.079874e+02	-3.248391e+01
5.109215e+02	-3.253729e+01
5.138726e+02	-3.259114e+01
5.168407e+02	-3.263513e+01
5.198259e+02	-3.268792e+01
5.228284e+02	-3.273414e+01
5.258482e+02	-3.278399e+01
5.288855e+02	-3.283235e+01
5.319403e+02	-3.288777e+01
5.350128e+02	-3.294608e+01
5.381030e+02	-3.298524e+01
5.412111e+02	-3.303252e+01
5.443371e+02	-3.308545e+01
5.474812e+02	-3.314128e+01
5.506434e+02	-3.318957e+01
5.538239e+02	-3.323790e+01
5.570228e+02	-3.329233e+01
5.602401e+02	-3.334118e+01
5.634760e+02	-3.339187e+01
5.667306e+02	-3.343816e+01
5.700040e+02	-3.348586e+01
5.732964e+02	-3.353933e+01
5.766077e+02	-3.358891e+01
5.799382e+02	-3.364233e+01
5.832879e+02	-3.368799e+01
5.866569e+02	-3.374690e+01
5.900454e+02	-3.379338e+01
5.934535e+02	-3.383834e+01
5.968813e+02	-3.389061e+01
6.003288e+02	-3.394119e+01
6.037963e+02	-3.399064e+01
6.072838e+02	-3.405077e+01
6.107914e+02	-3.409194e+01
6.143194e+02	-3.414919e+01
6.178676e+02	-3.418841e+01
6.214364e+02	-3.424499e+01
6.250258e+02	-3.429513e+01
6.286359e+02	-3.434574e+01
6.322669e+02	-3.439304e+01
6.359189e+02	-3.445403e+01
6.395919e+02	-3.449029e+01
6.432862e+02	-3.454586e+01
6.470017e+02	-3.459400e+01
6.507388e+02	-3.463938e+01
6.544974e+02	-3.469881e+01
6.582778e+02	-3.474367e+01
6.620800e+02	-3.480094e+01
6.659041e+02	-3.484689e+01
6.697504e+02	-3.489930e+01
6.736188e+02	-3.494550e+01
6.775096e+02	-3.500678e+01
6.814229e+02	-3.505017e+01
6.853587e+02	-3.509220e+01
6.893173e+02	-3.514269e+01
6.932988e+02	-3.519582e+01
6.973033e+02	-3.524847e+01
7.013309e+02	-3.529888e+01
