Frequency(Hz)	Magnitude(dB)
1.000000e+01	-2.060883e+00
1.005776e+01	-2.079824e+00
1.011585e+01	-2.098762e+00
1.017428e+01	-2.118017e+00
1.023305e+01	-2.137504e+00
1.029215e+01	-2.157072e+00
1.035160e+01	-2.176472e+00
1.041139e+01	-2.196357e+00
1.047153e+01	-2.216132e+00
1.053201e+01	-2.236393e+00
1.059284e+01	-2.256741e+00
1.065403e+01	-2.277272e+00
1.071556e+01	-2.297397e+00
1.077746e+01	-2.318089e+00
1.083971e+01	-2.338795e+00
1.090232e+01	-2.359773e+00
1.096529e+01	-2.380632e+00
1.102862e+01	-2.401956e+00
1.109232e+01	-2.423121e+00
1.115639e+01	-2.444814e+00
1.122083e+01	-2.466376e+00
1.128564e+01	-2.488078e+00
1.135083e+01	-2.509888e+00
1.141639e+01	-2.532029e+00
1.148233e+01	-2.554150e+00
1.154865e+01	-2.576432e+00
1.161536e+01	-2.598970e+00
1.168245e+01	-2.621325e+00
1.174992e+01	-2.644414e+00
1.181779e+01	-2.667204e+00
1.188605e+01	-2.690186e+00
1.195470e+01	-2.713305e+00
1.202375e+01	-2.736786e+00
1.209320e+01	-2.760188e+00
1.216305e+01	-2.783892e+00
1.223330e+01	-2.807555e+00
1.230396e+01	-2.831433e+00
1.237503e+01	-2.855313e+00
1.244651e+01	-2.879731e+00
1.251840e+01	-2.904040e+00
1.259070e+01	-2.928293e+00
1.266343e+01	-2.952901e+00
1.273657e+01	-2.977579e+00
1.281014e+01	-3.002494e+00
1.288413e+01	-3.027396e+00
1.295855e+01	-3.052802e+00
1.303339e+01	-3.078084e+00
1.310867e+01	-3.103706e+00
1.318439e+01	-3.129201e+00
1.326054e+01	-3.155058e+00
1.333713e+01	-3.180947e+00
1.341417e+01	-3.207067e+00
1.349165e+01	-3.233088e+00
1.356958e+01	-3.259433e+00
1.364795e+01	-3.286088e+00
1.372678e+01	-3.312918e+00
1.380607e+01	-3.339243e+00
1.388581e+01	-3.366148e+00
1.396602e+01	-3.393088e+00
1.404668e+01	-3.420621e+00
1.412782e+01	-3.447881e+00
1.420942e+01	-3.475330e+00
1.429149e+01	-3.503125e+00
1.437404e+01	-3.530610e+00
1.445706e+01	-3.558613e+00
1.454057e+01	-3.586694e+00
1.462455e+01	-3.614737e+00
1.470902e+01	-3.643126e+00
1.479398e+01	-3.671804e+00
1.487943e+01	-3.700086e+00
1.496537e+01	-3.729128e+00
1.505181e+01	-3.758087e+00
1.513875e+01	-3.786898e+00
1.522619e+01	-3.816153e+00
1.531414e+01	-3.845284e+00
1.540259e+01	-3.874840e+00
1.549156e+01	-3.904673e+00
1.558103e+01	-3.934344e+00
1.567103e+01	-3.964211e+00
1.576155e+01	-3.994320e+00
1.585258e+01	-4.024268e+00
1.594415e+01	-4.054681e+00
1.603624e+01	-4.085083e+00
1.612886e+01	-4.115705e+00
1.622202e+01	-4.146396e+00
1.631572e+01	-4.177070e+00
1.640996e+01	-4.208108e+00
1.650474e+01	-4.239046e+00
1.660008e+01	-4.270560e+00
1.669596e+01	-4.301865e+00
1.679239e+01	-4.333523e+00
1.688938e+01	-4.365059e+00
1.698694e+01	-4.396651e+00
1.708505e+01	-4.428622e+00
1.718373e+01	-4.460831e+00
1.728299e+01	-4.493065e+00
1.738281e+01	-4.525065e+00
1.748322e+01	-4.557720e+00
1.758420e+01	-4.590313e+00
1.768576e+01	-4.623212e+00
1.778792e+01	-4.655902e+00
1.789066e+01	-4.688775e+00
1.799399e+01	-4.721921e+00
1.809793e+01	-4.755023e+00
1.820246e+01	-4.788538e+00
1.830760e+01	-4.822030e+00
1.841334e+01	-4.855711e+00
1.851969e+01	-4.889221e+00
1.862666e+01	-4.923087e+00
1.873425e+01	-4.957200e+00
1.884246e+01	-4.991202e+00
1.895129e+01	-5.025214e+00
1.906075e+01	-5.059382e+00
1.917085e+01	-5.094215e+00
1.928158e+01	-5.129111e+00
1.939295e+01	-5.163410e+00
1.950496e+01	-5.198407e+00
1.961762e+01	-5.233323e+00
1.973093e+01	-5.268373e+00
1.984490e+01	-5.303601e+00
1.995952e+01	-5.339019e+00
2.007480e+01	-5.374576e+00
2.019076e+01	-5.410169e+00
2.030738e+01	-5.446030e+00
2.042467e+01	-5.481722e+00
2.054264e+01	-5.517462e+00
2.066130e+01	-5.553762e+00
2.078064e+01	-5.589878e+00
2.090066e+01	-5.626103e+00
2.102139e+01	-5.662448e+00
2.114280e+01	-5.698768e+00
2.126492e+01	-5.735567e+00
2.138775e+01	-5.772351e+00
2.151128e+01	-5.809028e+00
2.163553e+01	-5.845701e+00
2.176050e+01	-5.882861e+00
2.188619e+01	-5.920017e+00
2.201260e+01	-5.957741e+00
2.213974e+01	-5.994873e+00
2.226762e+01	-6.032057e+00
2.239624e+01	-6.069924e+00
2.252560e+01	-6.107671e+00
2.265571e+01	-6.145355e+00
2.278656e+01	-6.183579e+00
2.291818e+01	-6.221859e+00
2.305055e+01	-6.259563e+00
2.318369e+01	-6.297977e+00
2.331760e+01	-6.336555e+00
2.345228e+01	-6.374531e+00
2.358774e+01	-6.413240e+00
2.372398e+01	-6.452057e+00
2.386101e+01	-6.490789e+00
2.399883e+01	-6.529590e+00
2.413745e+01	-6.568636e+00
2.427686e+01	-6.607378e+00
2.441709e+01	-6.646707e+00
2.455812e+01	-6.685970e+00
2.469997e+01	-6.725148e+00
2.484263e+01	-6.764780e+00
2.498612e+01	-6.804263e+00
2.513044e+01	-6.843642e+00
2.527559e+01	-6.883616e+00
2.542158e+01	-6.923385e+00
2.556842e+01	-6.963221e+00
2.571610e+01	-7.003365e+00
2.586463e+01	-7.043554e+00
2.601403e+01	-7.083525e+00
2.616428e+01	-7.123839e+00
2.631541e+01	-7.164450e+00
2.646740e+01	-7.205027e+00
2.662028e+01	-7.245409e+00
2.677404e+01	-7.285725e+00
2.692868e+01	-7.326812e+00
2.708422e+01	-7.367316e+00
2.724066e+01	-7.408253e+00
2.739800e+01	-7.448943e+00
2.755625e+01	-7.490664e+00
2.771541e+01	-7.531570e+00
2.787550e+01	-7.572328e+00
2.803650e+01	-7.614077e+00
2.819844e+01	-7.655594e+00
2.836131e+01	-7.697000e+00
2.852513e+01	-7.738550e+00
2.868989e+01	-7.780386e+00
2.885560e+01	-7.821694e+00
2.902227e+01	-7.863708e+00
2.918990e+01	-7.905664e+00
2.935850e+01	-7.947124e+00
2.952807e+01	-7.989775e+00
2.969863e+01	-8.031744e+00
2.987016e+01	-8.074364e+00
3.004269e+01	-8.116002e+00
3.021622e+01	-8.158693e+00
3.039075e+01	-8.200848e+00
3.056628e+01	-8.243288e+00
3.074283e+01	-8.286179e+00
3.092040e+01	-8.329120e+00
3.109900e+01	-8.371545e+00
3.127862e+01	-8.414362e+00
3.145929e+01	-8.456699e+00
3.164099e+01	-8.500171e+00
3.182375e+01	-8.542603e+00
3.200756e+01	-8.586364e+00
3.219244e+01	-8.629294e+00
3.237838e+01	-8.672043e+00
3.256540e+01	-8.715401e+00
3.275349e+01	-8.758895e+00
3.294268e+01	-8.802828e+00
3.313295e+01	-8.846205e+00
3.332433e+01	-8.889469e+00
3.351681e+01	-8.933180e+00
3.371040e+01	-8.976584e+00
3.390511e+01	-9.020680e+00
3.410094e+01	-9.064014e+00
3.429791e+01	-9.107941e+00
3.449601e+01	-9.151988e+00
3.469526e+01	-9.196038e+00
3.489566e+01	-9.239652e+00
3.509721e+01	-9.284003e+00
3.529993e+01	-9.328028e+00
3.550382e+01	-9.372658e+00
3.570889e+01	-9.416437e+00
3.591515e+01	-9.461400e+00
3.612259e+01	-9.505018e+00
3.633123e+01	-9.550098e+00
3.654108e+01	-9.593989e+00
3.675214e+01	-9.639144e+00
3.696442e+01	-9.682835e+00
3.717792e+01	-9.727950e+00
3.739266e+01	-9.772568e+00
3.760864e+01	-9.817883e+00
3.782587e+01	-9.862655e+00
3.804435e+01	-9.907001e+00
3.826409e+01	-9.952550e+00
3.848510e+01	-9.997162e+00
3.870739e+01	-1.004271e+01
3.893096e+01	-1.008679e+01
3.915583e+01	-1.013264e+01
3.938199e+01	-1.017854e+01
3.960946e+01	-1.022320e+01
3.983824e+01	-1.026820e+01
4.006834e+01	-1.031352e+01
4.029978e+01	-1.035913e+01
4.053255e+01	-1.040450e+01
4.076666e+01	-1.044979e+01
4.100213e+01	-1.049578e+01
4.123896e+01	-1.054084e+01
4.147715e+01	-1.058692e+01
4.171672e+01	-1.063180e+01
4.195767e+01	-1.067793e+01
4.220002e+01	-1.072350e+01
4.244377e+01	-1.076967e+01
4.268892e+01	-1.081550e+01
4.293549e+01	-1.086152e+01
4.318348e+01	-1.090724e+01
4.343291e+01	-1.095310e+01
4.368377e+01	-1.100014e+01
4.393609e+01	-1.104540e+01
4.418986e+01	-1.109161e+01
4.444510e+01	-1.113797e+01
4.470182e+01	-1.118412e+01
4.496001e+01	-1.123023e+01
4.521970e+01	-1.127666e+01
4.548089e+01	-1.132317e+01
4.574358e+01	-1.136879e+01
4.600779e+01	-1.141531e+01
4.627353e+01	-1.146212e+01
4.654081e+01	-1.150855e+01
4.680963e+01	-1.155495e+01
4.708000e+01	-1.160124e+01
4.735193e+01	-1.164806e+01
4.762543e+01	-1.169499e+01
4.790051e+01	-1.174226e+01
4.817719e+01	-1.178810e+01
4.845545e+01	-1.183473e+01
4.873533e+01	-1.188207e+01
4.901682e+01	-1.192819e+01
4.929994e+01	-1.197530e+01
4.958470e+01	-1.202227e+01
4.987110e+01	-1.206860e+01
5.015915e+01	-1.211611e+01
5.044887e+01	-1.216263e+01
5.074026e+01	-1.220985e+01
5.103333e+01	-1.225736e+01
5.132810e+01	-1.230454e+01
5.162457e+01	-1.235080e+01
5.192275e+01	-1.239824e+01
5.222265e+01	-1.244579e+01
5.252429e+01	-1.249281e+01
5.282767e+01	-1.253976e+01
5.313280e+01	-1.258741e+01
5.343969e+01	-1.263433e+01
5.374836e+01	-1.268212e+01
5.405880e+01	-1.272878e+01
5.437105e+01	-1.277725e+01
5.468509e+01	-1.282438e+01
5.500095e+01	-1.287169e+01
5.531863e+01	-1.291914e+01
5.563815e+01	-1.296587e+01
5.595951e+01	-1.301382e+01
5.628273e+01	-1.306113e+01
5.660782e+01	-1.310841e+01
5.693479e+01	-1.315616e+01
5.726364e+01	-1.320427e+01
5.759439e+01	-1.325203e+01
5.792705e+01	-1.329990e+01
5.826164e+01	-1.334737e+01
5.859815e+01	-1.339486e+01
5.893662e+01	-1.344243e+01
5.927703e+01	-1.348970e+01
5.961941e+01	-1.353834e+01
5.996377e+01	-1.358577e+01
6.031012e+01	-1.363368e+01
6.065847e+01	-1.368130e+01
6.100883e+01	-1.373018e+01
6.136121e+01	-1.377733e+01
6.171563e+01	-1.382560e+01
6.207210e+01	-1.387395e+01
6.243063e+01	-1.392119e+01
6.279122e+01	-1.396972e+01
6.315390e+01	-1.401681e+01
6.351868e+01	-1.406485e+01
6.388556e+01	-1.411359e+01
6.425456e+01	-1.416215e+01
6.462569e+01	-1.420975e+01
6.499897e+01	-1.425772e+01
6.537440e+01	-1.430616e+01
6.575200e+01	-1.435479e+01
6.613178e+01	-1.440179e+01
6.651375e+01	-1.445100e+01
6.689793e+01	-1.449850e+01
6.728433e+01	-1.454649e+01
6.767297e+01	-1.459566e+01
6.806384e+01	-1.464312e+01
6.845698e+01	-1.469139e+01
6.885238e+01	-1.474100e+01
6.925007e+01	-1.478896e+01
6.965005e+01	-1.483702e+01
7.005235e+01	-1.488528e+01
7.045697e+01	-1.493441e+01
7.086393e+01	-1.498211e+01
7.127323e+01	-1.503041e+01
7.168490e+01	-1.507912e+01
7.209895e+01	-1.512753e+01
7.251539e+01	-1.517640e+01
7.293424e+01	-1.522517e+01
7.335551e+01	-1.527236e+01
7.377920e+01	-1.532193e+01
7.420535e+01	-1.537045e+01
7.463396e+01	-1.541856e+01
7.506504e+01	-1.546774e+01
7.549861e+01	-1.551536e+01
7.593469e+01	-1.556442e+01
7.637328e+01	-1.561364e+01
7.681441e+01	-1.566151e+01
7.725809e+01	-1.571135e+01
7.770433e+01	-1.576108e+01
7.815315e+01	-1.580887e+01
7.860456e+01	-1.585692e+01
7.905857e+01	-1.590525e+01
7.951521e+01	-1.595471e+01
7.997449e+01	-1.600384e+01
8.043642e+01	-1.605191e+01
8.090102e+01	-1.610008e+01
8.136830e+01	-1.615036e+01
8.183828e+01	-1.619920e+01
8.231097e+01	-1.624813e+01
8.278640e+01	-1.629611e+01
8.326457e+01	-1.634572e+01
8.374550e+01	-1.639433e+01
8.422921e+01	-1.644268e+01
8.471572e+01	-1.649145e+01
8.520503e+01	-1.654045e+01
8.569717e+01	-1.659008e+01
8.619215e+01	-1.663887e+01
8.669000e+01	-1.668709e+01
8.719071e+01	-1.673698e+01
8.769432e+01	-1.678597e+01
8.820084e+01	-1.683392e+01
8.871029e+01	-1.688349e+01
8.922267e+01	-1.693191e+01
8.973802e+01	-1.698092e+01
9.025634e+01	-1.703005e+01
9.077766e+01	-1.708058e+01
9.130199e+01	-1.712911e+01
9.182935e+01	-1.717749e+01
9.235975e+01	-1.722687e+01
9.289321e+01	-1.727534e+01
9.342976e+01	-1.732543e+01
9.396941e+01	-1.737232e+01
9.451217e+01	-1.742242e+01
9.505807e+01	-1.747147e+01
9.560712e+01	-1.752035e+01
9.615934e+01	-1.757144e+01
9.671476e+01	-1.761985e+01
9.727338e+01	-1.766876e+01
9.783522e+01	-1.771870e+01
9.840032e+01	-1.776748e+01
9.896867e+01	-1.781674e+01
9.954031e+01	-1.786507e+01
1.001153e+02	-1.791397e+01
1.006935e+02	-1.796276e+01
1.012751e+02	-1.801367e+01
1.018601e+02	-1.806254e+01
1.024484e+02	-1.811289e+01
1.030402e+02	-1.816163e+01
1.036353e+02	-1.821088e+01
1.042339e+02	-1.825983e+01
1.048360e+02	-1.830849e+01
1.054415e+02	-1.835770e+01
1.060505e+02	-1.840769e+01
1.066631e+02	-1.845652e+01
1.072791e+02	-1.850583e+01
1.078988e+02	-1.855678e+01
1.085220e+02	-1.860523e+01
1.091488e+02	-1.865410e+01
1.097793e+02	-1.870327e+01
1.104133e+02	-1.875271e+01
1.110511e+02	-1.880169e+01
1.116925e+02	-1.885082e+01
1.123376e+02	-1.890032e+01
1.129865e+02	-1.895005e+01
1.136391e+02	-1.899999e+01
1.142955e+02	-1.904855e+01
1.149556e+02	-1.909777e+01
1.156196e+02	-1.914844e+01
1.162874e+02	-1.919696e+01
1.169591e+02	-1.924792e+01
1.176347e+02	-1.929656e+01
1.183141e+02	-1.934626e+01
1.189975e+02	-1.939516e+01
1.196848e+02	-1.944503e+01
1.203761e+02	-1.949436e+01
1.210714e+02	-1.954507e+01
1.217707e+02	-1.959359e+01
1.224740e+02	-1.964266e+01
1.231814e+02	-1.969030e+01
1.238929e+02	-1.974175e+01
1.246085e+02	-1.979195e+01
1.253283e+02	-1.984038e+01
1.260522e+02	-1.989097e+01
1.267802e+02	-1.994037e+01
1.275125e+02	-1.998924e+01
1.282490e+02	-2.003925e+01
1.289898e+02	-2.008828e+01
1.297348e+02	-2.013766e+01
1.304842e+02	-2.018561e+01
1.312378e+02	-2.023799e+01
1.319959e+02	-2.028741e+01
1.327583e+02	-2.033503e+01
1.335251e+02	-2.038474e+01
1.342963e+02	-2.043502e+01
1.350720e+02	-2.048622e+01
1.358522e+02	-2.053408e+01
1.366368e+02	-2.058557e+01
1.374260e+02	-2.063603e+01
1.382198e+02	-2.068431e+01
1.390182e+02	-2.073387e+01
1.398211e+02	-2.078382e+01
1.406287e+02	-2.083129e+01
1.414410e+02	-2.088151e+01
1.422579e+02	-2.093000e+01
1.430796e+02	-2.098133e+01
1.439060e+02	-2.103249e+01
1.447372e+02	-2.108058e+01
1.455732e+02	-2.112713e+01
1.464141e+02	-2.117919e+01
1.472597e+02	-2.123022e+01
1.481103e+02	-2.127904e+01
1.489658e+02	-2.132907e+01
1.498262e+02	-2.137827e+01
1.506916e+02	-2.142877e+01
1.515620e+02	-2.147863e+01
1.524374e+02	-2.152883e+01
1.533179e+02	-2.157603e+01
1.542034e+02	-2.162596e+01
1.550941e+02	-2.167730e+01
1.559899e+02	-2.172615e+01
1.568909e+02	-2.177660e+01
1.577971e+02	-2.182644e+01
1.587085e+02	-2.187701e+01
1.596252e+02	-2.192495e+01
1.605472e+02	-2.197362e+01
1.614745e+02	-2.202383e+01
1.624072e+02	-2.207510e+01
1.633453e+02	-2.212299e+01
1.642887e+02	-2.217326e+01
1.652377e+02	-2.222360e+01
1.661921e+02	-2.227378e+01
1.671520e+02	-2.232395e+01
1.681175e+02	-2.237333e+01
1.690885e+02	-2.242261e+01
1.700651e+02	-2.247238e+01
1.710474e+02	-2.252340e+01
1.720354e+02	-2.257361e+01
1.730291e+02	-2.262264e+01
1.740285e+02	-2.267262e+01
1.750337e+02	-2.272064e+01
1.760446e+02	-2.277099e+01
1.770615e+02	-2.282118e+01
1.780842e+02	-2.286906e+01
1.791128e+02	-2.291921e+01
1.801473e+02	-2.296915e+01
1.811878e+02	-2.301966e+01
1.822344e+02	-2.306914e+01
1.832870e+02	-2.312241e+01
1.843456e+02	-2.316964e+01
1.854104e+02	-2.322084e+01
1.864813e+02	-2.326830e+01
1.875584e+02	-2.331846e+01
1.886418e+02	-2.336880e+01
1.897313e+02	-2.341981e+01
1.908272e+02	-2.346831e+01
1.919294e+02	-2.351676e+01
1.930380e+02	-2.356917e+01
1.941530e+02	-2.361944e+01
1.952744e+02	-2.366788e+01
1.964023e+02	-2.371863e+01
1.975367e+02	-2.376906e+01
1.986777e+02	-2.381734e+01
1.998252e+02	-2.386628e+01
2.009794e+02	-2.391926e+01
2.021403e+02	-2.396729e+01
2.033078e+02	-2.401648e+01
2.044821e+02	-2.406597e+01
2.056632e+02	-2.411588e+01
2.068511e+02	-2.416772e+01
2.080459e+02	-2.421898e+01
2.092475e+02	-2.426606e+01
2.104561e+02	-2.431588e+01
2.116717e+02	-2.436710e+01
2.128943e+02	-2.441803e+01
2.141240e+02	-2.446669e+01
2.153608e+02	-2.451444e+01
2.166047e+02	-2.456776e+01
2.178558e+02	-2.461426e+01
2.191141e+02	-2.466461e+01
2.203797e+02	-2.471642e+01
2.216526e+02	-2.476192e+01
2.229329e+02	-2.481428e+01
2.242205e+02	-2.486387e+01
2.255156e+02	-2.491522e+01
2.268182e+02	-2.496361e+01
2.281283e+02	-2.501595e+01
2.294459e+02	-2.506495e+01
2.307712e+02	-2.511471e+01
2.321041e+02	-2.516398e+01
2.334447e+02	-2.521236e+01
2.347931e+02	-2.526512e+01
2.361493e+02	-2.531219e+01
2.375133e+02	-2.536047e+01
2.388851e+02	-2.541263e+01
2.402649e+02	-2.546444e+01
2.416527e+02	-2.551463e+01
2.430484e+02	-2.556309e+01
2.444523e+02	-2.561337e+01
2.458642e+02	-2.566226e+01
2.472843e+02	-2.571484e+01
2.487126e+02	-2.576271e+01
2.501492e+02	-2.581202e+01
2.515940e+02	-2.586532e+01
2.530472e+02	-2.591167e+01
2.545088e+02	-2.596386e+01
2.559789e+02	-2.601207e+01
2.574574e+02	-2.606526e+01
2.589444e+02	-2.611057e+01
2.604401e+02	-2.616269e+01
2.619444e+02	-2.621091e+01
2.634574e+02	-2.626086e+01
2.649791e+02	-2.631251e+01
2.665096e+02	-2.636461e+01
2.680489e+02	-2.641320e+01
2.695972e+02	-2.646200e+01
2.711544e+02	-2.651325e+01
2.727205e+02	-2.656180e+01
2.742958e+02	-2.660928e+01
2.758801e+02	-2.666128e+01
2.774736e+02	-2.671401e+01
2.790762e+02	-2.676125e+01
2.806882e+02	-2.681424e+01
2.823094e+02	-2.686345e+01
2.839400e+02	-2.691211e+01
2.855800e+02	-2.696276e+01
2.872295e+02	-2.701745e+01
2.888886e+02	-2.706083e+01
2.905572e+02	-2.711183e+01
2.922354e+02	-2.716378e+01
2.939234e+02	-2.721006e+01
2.956211e+02	-2.726675e+01
2.973286e+02	-2.731307e+01
2.990459e+02	-2.736198e+01
3.007732e+02	-2.741180e+01
3.025104e+02	-2.746060e+01
3.042577e+02	-2.751368e+01
3.060151e+02	-2.756732e+01
3.077826e+02	-2.761338e+01
3.095604e+02	-2.766348e+01
3.113484e+02	-2.771306e+01
3.131467e+02	-2.776246e+01
3.149554e+02	-2.781409e+01
3.167746e+02	-2.786275e+01
3.186043e+02	-2.791142e+01
3.204445e+02	-2.796369e+01
3.222954e+02	-2.801372e+01
3.241570e+02	-2.806361e+01
3.260293e+02	-2.811338e+01
3.279124e+02	-2.816146e+01
3.298064e+02	-2.821170e+01
3.317114e+02	-2.826230e+01
3.336273e+02	-2.831415e+01
3.355544e+02	-2.836472e+01
3.374925e+02	-2.841129e+01
3.394418e+02	-2.846457e+01
3.414024e+02	-2.851194e+01
3.433744e+02	-2.856311e+01
3.453577e+02	-2.861500e+01
3.473525e+02	-2.866442e+01
3.493588e+02	-2.871467e+01
3.513766e+02	-2.876073e+01
3.534062e+02	-2.881351e+01
3.554474e+02	-2.886548e+01
3.575005e+02	-2.891300e+01
3.595654e+02	-2.896567e+01
3.616422e+02	-2.901308e+01
3.637311e+02	-2.906314e+01
3.658320e+02	-2.911371e+01
3.679450e+02	-2.916665e+01
3.700702e+02	-2.920833e+01
3.722077e+02	-2.926568e+01
3.743576e+02	-2.931282e+01
3.765199e+02	-2.936284e+01
3.786946e+02	-2.941660e+01
3.808820e+02	-2.946558e+01
3.830819e+02	-2.951076e+01
3.852946e+02	-2.956611e+01
3.875200e+02	-2.961905e+01
3.897583e+02	-2.966433e+01
3.920096e+02	-2.971287e+01
3.942738e+02	-2.977142e+01
3.965511e+02	-2.981663e+01
3.988416e+02	-2.986305e+01
4.011452e+02	-2.991209e+01
4.034622e+02	-2.996270e+01
4.057926e+02	-3.001785e+01
4.081365e+02	-3.006742e+01
4.104938e+02	-3.010957e+01
4.128648e+02	-3.016618e+01
4.152495e+02	-3.021250e+01
4.176480e+02	-3.026350e+01
4.200603e+02	-3.031547e+01
4.224866e+02	-3.037513e+01
4.249268e+02	-3.041734e+01
4.273812e+02	-3.046657e+01
4.298497e+02	-3.051726e+01
4.323325e+02	-3.057013e+01
4.348297e+02	-3.062155e+01
4.373412e+02	-3.066551e+01
4.398673e+02	-3.071723e+01
4.424079e+02	-3.076890e+01
4.449633e+02	-3.081318e+01
4.475334e+02	-3.086604e+01
4.501183e+02	-3.091957e+01
4.527182e+02	-3.096794e+01
4.553330e+02	-3.101859e+01
4.579630e+02	-3.106723e+01
4.606082e+02	-3.112039e+01
4.632687e+02	-3.116280e+01
4.659445e+02	-3.121783e+01
4.686358e+02	-3.126843e+01
4.713426e+02	-3.131864e+01
4.740650e+02	-3.137088e+01
4.768032e+02	-3.142565e+01
4.795572e+02	-3.146675e+01
4.823271e+02	-3.151986e+01
4.851130e+02	-3.157429e+01
4.879150e+02	-3.162347e+01
4.907332e+02	-3.167319e+01
4.935676e+02	-3.171956e+01
4.964185e+02	-3.176496e+01
4.992858e+02	-3.182500e+01
5.021696e+02	-3.186850e+01
5.050701e+02	-3.192377e+01
5.079874e+02	-3.197059e+01
5.109215e+02	-3.202411e+01
5.138726e+02	-3.206722e+01
5.168407e+02	-3.212025e+01
5.198259e+02	-3.217480e+01
5.228284e+02	-3.222916e+01
5.258482e+02	-3.226406e+01
5.288855e+02	-3.232495e+01
5.319403e+02	-3.237343e+01
5.350128e+02	-3.242636e+01
5.381030e+02	-3.247892e+01
5.412111e+02	-3.252183e+01
5.443371e+02	-3.257744e+01
5.474812e+02	-3.263273e+01
5.506434e+02	-3.266799e+01
5.538239e+02	-3.272219e+01
5.570228e+02	-3.276769e+01
5.602401e+02	-3.282628e+01
5.634760e+02	-3.286980e+01
5.667306e+02	-3.292938e+01
5.700040e+02	-3.297494e+01
5.732964e+02	-3.302047e+01
5.766077e+02	-3.307530e+01
5.799382e+02	-3.312688e+01
5.832879e+02	-3.317271e+01
5.866569e+02	-3.323161e+01
5.900454e+02	-3.328093e+01
5.934535e+02	-3.333278e+01
5.968813e+02	-3.337999e+01
6.003288e+02	-3.342644e+01
6.037963e+02	-3.347475e+01
6.072838e+02	-3.352333e+01
6.107914e+02	-3.357876e+01
6.143194e+02	-3.363424e+01
6.178676e+02	-3.368218e+01
6.214364e+02	-3.372907e+01
6.250258e+02	-3.377295e+01
6.286359e+02	-3.382617e+01
6.322669e+02	-3.388109e+01
6.359189e+02	-3.393227e+01
6.395919e+02	-3.397256e+01
6.432862e+02	-3.402940e+01
6.470017e+02	-3.409486e+01
6.507388e+02	-3.413415e+01
6.544974e+02	-3.417918e+01
6.582778e+02	-3.423469e+01
6.620800e+02	-3.427952e+01
6.659041e+02	-3.433246e+01
6.697504e+02	-3.438250e+01
6.736188e+02	-3.442499e+01
6.775096e+02	-3.448271e+01
6.814229e+02	-3.453936e+01
6.853587e+02	-3.457615e+01
6.893173e+02	-3.463946e+01
6.932988e+02	-3.468117e+01
6.973033e+02	-3.473493e+01
7.013309e+02	-3.478162e+01
