Frequency(Hz)	Magnitude(dB)
1.000000e+01	-2.092812e+00
1.005776e+01	-2.111984e+00
1.011585e+01	-2.131248e+00
1.017428e+01	-2.150718e+00
1.023305e+01	-2.170496e+00
1.029215e+01	-2.190236e+00
1.035160e+01	-2.210339e+00
1.041139e+01	-2.230079e+00
1.047153e+01	-2.250247e+00
1.053201e+01	-2.270535e+00
1.059284e+01	-2.290879e+00
1.065403e+01	-2.311584e+00
1.071556e+01	-2.332332e+00
1.077746e+01	-2.353103e+00
1.083971e+01	-2.373996e+00
1.090232e+01	-2.395324e+00
1.096529e+01	-2.416468e+00
1.102862e+01	-2.437740e+00
1.109232e+01	-2.459523e+00
1.115639e+01	-2.481094e+00
1.122083e+01	-2.503026e+00
1.128564e+01	-2.525303e+00
1.135083e+01	-2.546933e+00
1.141639e+01	-2.569506e+00
1.148233e+01	-2.591882e+00
1.154865e+01	-2.614346e+00
1.161536e+01	-2.636922e+00
1.168245e+01	-2.659820e+00
1.174992e+01	-2.683012e+00
1.181779e+01	-2.706312e+00
1.188605e+01	-2.729214e+00
1.195470e+01	-2.752862e+00
1.202375e+01	-2.776370e+00
1.209320e+01	-2.799902e+00
1.216305e+01	-2.823797e+00
1.223330e+01	-2.847855e+00
1.230396e+01	-2.871943e+00
1.237503e+01	-2.896148e+00
1.244651e+01	-2.920741e+00
1.251840e+01	-2.945269e+00
1.259070e+01	-2.969990e+00
1.266343e+01	-2.995117e+00
1.273657e+01	-3.019641e+00
1.281014e+01	-3.044979e+00
1.288413e+01	-3.070134e+00
1.295855e+01	-3.095700e+00
1.303339e+01	-3.121102e+00
1.310867e+01	-3.146906e+00
1.318439e+01	-3.172836e+00
1.326054e+01	-3.198833e+00
1.333713e+01	-3.224873e+00
1.341417e+01	-3.251121e+00
1.349165e+01	-3.277835e+00
1.356958e+01	-3.304082e+00
1.364795e+01	-3.330928e+00
1.372678e+01	-3.357627e+00
1.380607e+01	-3.385017e+00
1.388581e+01	-3.411764e+00
1.396602e+01	-3.439275e+00
1.404668e+01	-3.466702e+00
1.412782e+01	-3.494148e+00
1.420942e+01	-3.522086e+00
1.429149e+01	-3.549934e+00
1.437404e+01	-3.577700e+00
1.445706e+01	-3.606115e+00
1.454057e+01	-3.634493e+00
1.462455e+01	-3.662589e+00
1.470902e+01	-3.691322e+00
1.479398e+01	-3.719889e+00
1.487943e+01	-3.749097e+00
1.496537e+01	-3.778110e+00
1.505181e+01	-3.807100e+00
1.513875e+01	-3.835948e+00
1.522619e+01	-3.865628e+00
1.531414e+01	-3.895310e+00
1.540259e+01	-3.924721e+00
1.549156e+01	-3.954698e+00
1.558103e+01	-3.984511e+00
1.567103e+01	-4.014677e+00
1.576155e+01	-4.045147e+00
1.585258e+01	-4.075487e+00
1.594415e+01	-4.105796e+00
1.603624e+01	-4.136560e+00
1.612886e+01	-4.167432e+00
1.622202e+01	-4.198279e+00
1.631572e+01	-4.229463e+00
1.640996e+01	-4.260668e+00
1.650474e+01	-4.292071e+00
1.660008e+01	-4.323421e+00
1.669596e+01	-4.355143e+00
1.679239e+01	-4.386833e+00
1.688938e+01	-4.419039e+00
1.698694e+01	-4.450644e+00
1.708505e+01	-4.482963e+00
1.718373e+01	-4.514967e+00
1.728299e+01	-4.547500e+00
1.738281e+01	-4.579930e+00
1.748322e+01	-4.612642e+00
1.758420e+01	-4.645622e+00
1.768576e+01	-4.678305e+00
1.778792e+01	-4.711232e+00
1.789066e+01	-4.744719e+00
1.799399e+01	-4.778131e+00
1.809793e+01	-4.811345e+00
1.820246e+01	-4.845003e+00
1.830760e+01	-4.878450e+00
1.841334e+01	-4.912612e+00
1.851969e+01	-4.946623e+00
1.862666e+01	-4.980448e+00
1.873425e+01	-5.014716e+00
1.884246e+01	-5.049164e+00
1.895129e+01	-5.083114e+00
1.906075e+01	-5.117863e+00
1.917085e+01	-5.152689e+00
1.928158e+01	-5.187917e+00
1.939295e+01	-5.222414e+00
1.950496e+01	-5.257509e+00
1.961762e+01	-5.292684e+00
1.973093e+01	-5.327995e+00
1.984490e+01	-5.363717e+00
1.995952e+01	-5.398850e+00
2.007480e+01	-5.434469e+00
2.019076e+01	-5.470676e+00
2.030738e+01	-5.506289e+00
2.042467e+01	-5.542293e+00
2.054264e+01	-5.578366e+00
2.066130e+01	-5.614666e+00
2.078064e+01	-5.650997e+00
2.090066e+01	-5.687426e+00
2.102139e+01	-5.724075e+00
2.114280e+01	-5.760920e+00
2.126492e+01	-5.797749e+00
2.138775e+01	-5.834651e+00
2.151128e+01	-5.871361e+00
2.163553e+01	-5.908538e+00
2.176050e+01	-5.945676e+00
2.188619e+01	-5.983252e+00
2.201260e+01	-6.020921e+00
2.213974e+01	-6.058273e+00
2.226762e+01	-6.095609e+00
2.239624e+01	-6.133834e+00
2.252560e+01	-6.171895e+00
2.265571e+01	-6.209635e+00
2.278656e+01	-6.247554e+00
2.291818e+01	-6.285749e+00
2.305055e+01	-6.324247e+00
2.318369e+01	-6.362670e+00
2.331760e+01	-6.401184e+00
2.345228e+01	-6.439721e+00
2.358774e+01	-6.478222e+00
2.372398e+01	-6.517421e+00
2.386101e+01	-6.556328e+00
2.399883e+01	-6.595345e+00
2.413745e+01	-6.634335e+00
2.427686e+01	-6.673260e+00
2.441709e+01	-6.712985e+00
2.455812e+01	-6.752067e+00
2.469997e+01	-6.791683e+00
2.484263e+01	-6.831464e+00
2.498612e+01	-6.871071e+00
2.513044e+01	-6.910684e+00
2.527559e+01	-6.950807e+00
2.542158e+01	-6.990730e+00
2.556842e+01	-7.031021e+00
2.571610e+01	-7.071012e+00
2.586463e+01	-7.111373e+00
2.601403e+01	-7.151691e+00
2.616428e+01	-7.192165e+00
2.631541e+01	-7.232328e+00
2.646740e+01	-7.272830e+00
2.662028e+01	-7.313908e+00
2.677404e+01	-7.354431e+00
2.692868e+01	-7.395187e+00
2.708422e+01	-7.436489e+00
2.724066e+01	-7.477743e+00
2.739800e+01	-7.518539e+00
2.755625e+01	-7.559867e+00
2.771541e+01	-7.601209e+00
2.787550e+01	-7.642885e+00
2.803650e+01	-7.684192e+00
2.819844e+01	-7.725386e+00
2.836131e+01	-7.766962e+00
2.852513e+01	-7.808774e+00
2.868989e+01	-7.850758e+00
2.885560e+01	-7.892521e+00
2.902227e+01	-7.934585e+00
2.918990e+01	-7.976234e+00
2.935850e+01	-8.018275e+00
2.952807e+01	-8.061079e+00
2.969863e+01	-8.102925e+00
2.987016e+01	-8.145195e+00
3.004269e+01	-8.187757e+00
3.021622e+01	-8.230498e+00
3.039075e+01	-8.272643e+00
3.056628e+01	-8.315300e+00
3.074283e+01	-8.357765e+00
3.092040e+01	-8.401361e+00
3.109900e+01	-8.443163e+00
3.127862e+01	-8.486759e+00
3.145929e+01	-8.529485e+00
3.164099e+01	-8.572855e+00
3.182375e+01	-8.615566e+00
3.200756e+01	-8.658906e+00
3.219244e+01	-8.701974e+00
3.237838e+01	-8.745123e+00
3.256540e+01	-8.788586e+00
3.275349e+01	-8.832221e+00
3.294268e+01	-8.875945e+00
3.313295e+01	-8.919644e+00
3.332433e+01	-8.963153e+00
3.351681e+01	-9.006725e+00
3.371040e+01	-9.050426e+00
3.390511e+01	-9.093976e+00
3.410094e+01	-9.138156e+00
3.429791e+01	-9.181846e+00
3.449601e+01	-9.225727e+00
3.469526e+01	-9.270097e+00
3.489566e+01	-9.313820e+00
3.509721e+01	-9.358646e+00
3.529993e+01	-9.402784e+00
3.550382e+01	-9.446956e+00
3.570889e+01	-9.491535e+00
3.591515e+01	-9.536280e+00
3.612259e+01	-9.580044e+00
3.633123e+01	-9.625209e+00
3.654108e+01	-9.669513e+00
3.675214e+01	-9.713524e+00
3.696442e+01	-9.758489e+00
3.717792e+01	-9.803870e+00
3.739266e+01	-9.848292e+00
3.760864e+01	-9.893321e+00
3.782587e+01	-9.938268e+00
3.804435e+01	-9.982755e+00
3.826409e+01	-1.002768e+01
3.848510e+01	-1.007363e+01
3.870739e+01	-1.011860e+01
3.893096e+01	-1.016367e+01
3.915583e+01	-1.020844e+01
3.938199e+01	-1.025446e+01
3.960946e+01	-1.029969e+01
3.983824e+01	-1.034513e+01
4.006834e+01	-1.039038e+01
4.029978e+01	-1.043578e+01
4.053255e+01	-1.048120e+01
4.076666e+01	-1.052673e+01
4.100213e+01	-1.057231e+01
4.123896e+01	-1.061805e+01
4.147715e+01	-1.066414e+01
4.171672e+01	-1.070960e+01
4.195767e+01	-1.075568e+01
4.220002e+01	-1.080152e+01
4.244377e+01	-1.084710e+01
4.268892e+01	-1.089264e+01
4.293549e+01	-1.093892e+01
4.318348e+01	-1.098526e+01
4.343291e+01	-1.103059e+01
4.368377e+01	-1.107669e+01
4.393609e+01	-1.112323e+01
4.418986e+01	-1.116969e+01
4.444510e+01	-1.121612e+01
4.470182e+01	-1.126177e+01
4.496001e+01	-1.130857e+01
4.521970e+01	-1.135441e+01
4.548089e+01	-1.140078e+01
4.574358e+01	-1.144767e+01
4.600779e+01	-1.149367e+01
4.627353e+01	-1.154058e+01
4.654081e+01	-1.158616e+01
4.680963e+01	-1.163389e+01
4.708000e+01	-1.168002e+01
4.735193e+01	-1.172687e+01
4.762543e+01	-1.177358e+01
4.790051e+01	-1.181985e+01
4.817719e+01	-1.186742e+01
4.845545e+01	-1.191323e+01
4.873533e+01	-1.196067e+01
4.901682e+01	-1.200798e+01
4.929994e+01	-1.205443e+01
4.958470e+01	-1.210113e+01
4.987110e+01	-1.214837e+01
5.015915e+01	-1.219556e+01
5.044887e+01	-1.224225e+01
5.074026e+01	-1.228935e+01
5.103333e+01	-1.233645e+01
5.132810e+01	-1.238364e+01
5.162457e+01	-1.243128e+01
5.192275e+01	-1.247836e+01
5.222265e+01	-1.252509e+01
5.252429e+01	-1.257219e+01
5.282767e+01	-1.261998e+01
5.313280e+01	-1.266703e+01
5.343969e+01	-1.271496e+01
5.374836e+01	-1.276132e+01
5.405880e+01	-1.280886e+01
5.437105e+01	-1.285680e+01
5.468509e+01	-1.290438e+01
5.500095e+01	-1.295144e+01
5.531863e+01	-1.299851e+01
5.563815e+01	-1.304612e+01
5.595951e+01	-1.309346e+01
5.628273e+01	-1.314044e+01
5.660782e+01	-1.318912e+01
5.693479e+01	-1.323684e+01
5.726364e+01	-1.328450e+01
5.759439e+01	-1.333198e+01
5.792705e+01	-1.338021e+01
5.826164e+01	-1.342732e+01
5.859815e+01	-1.347532e+01
5.893662e+01	-1.352327e+01
5.927703e+01	-1.357097e+01
5.961941e+01	-1.361898e+01
5.996377e+01	-1.366654e+01
6.031012e+01	-1.371445e+01
6.065847e+01	-1.376333e+01
6.100883e+01	-1.381016e+01
6.136121e+01	-1.385896e+01
6.171563e+01	-1.390668e+01
6.207210e+01	-1.395392e+01
6.243063e+01	-1.400305e+01
6.279122e+01	-1.405092e+01
6.315390e+01	-1.409876e+01
6.351868e+01	-1.414656e+01
6.388556e+01	-1.419475e+01
6.425456e+01	-1.424250e+01
6.462569e+01	-1.429002e+01
6.499897e+01	-1.433895e+01
6.537440e+01	-1.438697e+01
6.575200e+01	-1.443530e+01
6.613178e+01	-1.448393e+01
6.651375e+01	-1.453240e+01
6.689793e+01	-1.457969e+01
6.728433e+01	-1.462920e+01
6.767297e+01	-1.467718e+01
6.806384e+01	-1.472582e+01
6.845698e+01	-1.477375e+01
6.885238e+01	-1.482244e+01
6.925007e+01	-1.487077e+01
6.965005e+01	-1.491841e+01
7.005235e+01	-1.496692e+01
7.045697e+01	-1.501554e+01
7.086393e+01	-1.506423e+01
7.127323e+01	-1.511265e+01
7.168490e+01	-1.516147e+01
7.209895e+01	-1.520977e+01
7.251539e+01	-1.525817e+01
7.293424e+01	-1.530604e+01
7.335551e+01	-1.535598e+01
7.377920e+01	-1.540341e+01
7.420535e+01	-1.545266e+01
7.463396e+01	-1.550081e+01
7.506504e+01	-1.554979e+01
7.549861e+01	-1.559811e+01
7.593469e+01	-1.564733e+01
7.637328e+01	-1.569627e+01
7.681441e+01	-1.574393e+01
7.725809e+01	-1.579367e+01
7.770433e+01	-1.584157e+01
7.815315e+01	-1.589027e+01
7.860456e+01	-1.593804e+01
7.905857e+01	-1.598791e+01
7.951521e+01	-1.603660e+01
7.997449e+01	-1.608585e+01
8.043642e+01	-1.613384e+01
8.090102e+01	-1.618303e+01
8.136830e+01	-1.623228e+01
8.183828e+01	-1.628045e+01
8.231097e+01	-1.633009e+01
8.278640e+01	-1.637831e+01
8.326457e+01	-1.642741e+01
8.374550e+01	-1.647617e+01
8.422921e+01	-1.652510e+01
8.471572e+01	-1.657391e+01
8.520503e+01	-1.662399e+01
8.569717e+01	-1.667242e+01
8.619215e+01	-1.672020e+01
8.669000e+01	-1.677086e+01
8.719071e+01	-1.681902e+01
8.769432e+01	-1.686772e+01
8.820084e+01	-1.691569e+01
8.871029e+01	-1.696550e+01
8.922267e+01	-1.701466e+01
8.973802e+01	-1.706509e+01
9.025634e+01	-1.711434e+01
9.077766e+01	-1.716241e+01
9.130199e+01	-1.721120e+01
9.182935e+01	-1.725965e+01
9.235975e+01	-1.730970e+01
9.289321e+01	-1.735724e+01
9.342976e+01	-1.740928e+01
9.396941e+01	-1.745747e+01
9.451217e+01	-1.750548e+01
9.505807e+01	-1.755461e+01
9.560712e+01	-1.760346e+01
9.615934e+01	-1.765422e+01
9.671476e+01	-1.770283e+01
9.727338e+01	-1.775246e+01
9.783522e+01	-1.780109e+01
9.840032e+01	-1.785105e+01
9.896867e+01	-1.789862e+01
9.954031e+01	-1.794920e+01
1.001153e+02	-1.799854e+01
1.006935e+02	-1.804758e+01
1.012751e+02	-1.809644e+01
1.018601e+02	-1.814561e+01
1.024484e+02	-1.819508e+01
1.030402e+02	-1.824367e+01
1.036353e+02	-1.829458e+01
1.042339e+02	-1.834304e+01
1.048360e+02	-1.839123e+01
1.054415e+02	-1.844236e+01
1.060505e+02	-1.849069e+01
1.066631e+02	-1.854049e+01
1.072791e+02	-1.858966e+01
1.078988e+02	-1.863864e+01
1.085220e+02	-1.868626e+01
1.091488e+02	-1.873678e+01
1.097793e+02	-1.878514e+01
1.104133e+02	-1.883661e+01
1.110511e+02	-1.888546e+01
1.116925e+02	-1.893403e+01
1.123376e+02	-1.898312e+01
1.129865e+02	-1.903320e+01
1.136391e+02	-1.908406e+01
1.142955e+02	-1.913271e+01
1.149556e+02	-1.918216e+01
1.156196e+02	-1.923102e+01
1.162874e+02	-1.928065e+01
1.169591e+02	-1.933024e+01
1.176347e+02	-1.938160e+01
1.183141e+02	-1.942930e+01
1.189975e+02	-1.947877e+01
1.196848e+02	-1.952807e+01
1.203761e+02	-1.957816e+01
1.210714e+02	-1.962686e+01
1.217707e+02	-1.967849e+01
1.224740e+02	-1.972725e+01
1.231814e+02	-1.977572e+01
1.238929e+02	-1.982506e+01
1.246085e+02	-1.987647e+01
1.253283e+02	-1.992601e+01
1.260522e+02	-1.997461e+01
1.267802e+02	-2.002317e+01
1.275125e+02	-2.007267e+01
1.282490e+02	-2.012326e+01
1.289898e+02	-2.017168e+01
1.297348e+02	-2.022513e+01
1.304842e+02	-2.027032e+01
1.312378e+02	-2.032001e+01
1.319959e+02	-2.036919e+01
1.327583e+02	-2.041967e+01
1.335251e+02	-2.046937e+01
1.342963e+02	-2.052015e+01
1.350720e+02	-2.056944e+01
1.358522e+02	-2.061921e+01
1.366368e+02	-2.066844e+01
1.374260e+02	-2.071739e+01
1.382198e+02	-2.076614e+01
1.390182e+02	-2.081715e+01
1.398211e+02	-2.086704e+01
1.406287e+02	-2.091620e+01
1.414410e+02	-2.096689e+01
1.422579e+02	-2.101557e+01
1.430796e+02	-2.106545e+01
1.439060e+02	-2.111565e+01
1.447372e+02	-2.116546e+01
1.455732e+02	-2.121263e+01
1.464141e+02	-2.126276e+01
1.472597e+02	-2.131200e+01
1.481103e+02	-2.136177e+01
1.489658e+02	-2.141228e+01
1.498262e+02	-2.146171e+01
1.506916e+02	-2.151106e+01
1.515620e+02	-2.156160e+01
1.524374e+02	-2.161151e+01
1.533179e+02	-2.166023e+01
1.542034e+02	-2.171067e+01
1.550941e+02	-2.176014e+01
1.559899e+02	-2.181078e+01
1.568909e+02	-2.185883e+01
1.577971e+02	-2.190857e+01
1.587085e+02	-2.195872e+01
1.596252e+02	-2.200791e+01
1.605472e+02	-2.205810e+01
1.614745e+02	-2.210828e+01
1.624072e+02	-2.215756e+01
1.633453e+02	-2.220999e+01
1.642887e+02	-2.225598e+01
1.652377e+02	-2.230834e+01
1.661921e+02	-2.235637e+01
1.671520e+02	-2.240689e+01
1.681175e+02	-2.245602e+01
1.690885e+02	-2.250681e+01
1.700651e+02	-2.255732e+01
1.710474e+02	-2.260572e+01
1.720354e+02	-2.265507e+01
1.730291e+02	-2.270643e+01
1.740285e+02	-2.275442e+01
1.750337e+02	-2.280350e+01
1.760446e+02	-2.285388e+01
1.770615e+02	-2.290316e+01
1.780842e+02	-2.295458e+01
1.791128e+02	-2.300458e+01
1.801473e+02	-2.305330e+01
1.811878e+02	-2.310248e+01
1.822344e+02	-2.315384e+01
1.832870e+02	-2.320502e+01
1.843456e+02	-2.325119e+01
1.854104e+02	-2.330183e+01
1.864813e+02	-2.335295e+01
1.875584e+02	-2.340270e+01
1.886418e+02	-2.345224e+01
1.897313e+02	-2.350173e+01
1.908272e+02	-2.355240e+01
1.919294e+02	-2.360036e+01
1.930380e+02	-2.365247e+01
1.941530e+02	-2.370291e+01
1.952744e+02	-2.375048e+01
1.964023e+02	-2.380588e+01
1.975367e+02	-2.385239e+01
1.986777e+02	-2.390227e+01
1.998252e+02	-2.395049e+01
2.009794e+02	-2.400184e+01
2.021403e+02	-2.405010e+01
2.033078e+02	-2.410038e+01
2.044821e+02	-2.415103e+01
2.056632e+02	-2.419981e+01
2.068511e+02	-2.424932e+01
2.080459e+02	-2.430094e+01
2.092475e+02	-2.434948e+01
2.104561e+02	-2.440026e+01
2.116717e+02	-2.445300e+01
2.128943e+02	-2.449874e+01
2.141240e+02	-2.454970e+01
2.153608e+02	-2.459998e+01
2.166047e+02	-2.465008e+01
2.178558e+02	-2.470066e+01
2.191141e+02	-2.474970e+01
2.203797e+02	-2.479939e+01
2.216526e+02	-2.484796e+01
2.229329e+02	-2.489757e+01
2.242205e+02	-2.495033e+01
2.255156e+02	-2.500179e+01
2.268182e+02	-2.504951e+01
2.281283e+02	-2.509777e+01
2.294459e+02	-2.514717e+01
2.307712e+02	-2.520000e+01
2.321041e+02	-2.524605e+01
2.334447e+02	-2.530111e+01
2.347931e+02	-2.534739e+01
2.361493e+02	-2.539615e+01
2.375133e+02	-2.544759e+01
2.388851e+02	-2.549707e+01
2.402649e+02	-2.554827e+01
2.416527e+02	-2.559744e+01
2.430484e+02	-2.564615e+01
2.444523e+02	-2.569709e+01
2.458642e+02	-2.574855e+01
2.472843e+02	-2.579565e+01
2.487126e+02	-2.584628e+01
2.501492e+02	-2.589706e+01
2.515940e+02	-2.594324e+01
2.530472e+02	-2.599712e+01
2.545088e+02	-2.604777e+01
2.559789e+02	-2.610096e+01
2.574574e+02	-2.614603e+01
2.589444e+02	-2.619547e+01
2.604401e+02	-2.624914e+01
2.619444e+02	-2.629651e+01
2.634574e+02	-2.634625e+01
2.649791e+02	-2.639771e+01
2.665096e+02	-2.644776e+01
2.680489e+02	-2.649666e+01
2.695972e+02	-2.654498e+01
2.711544e+02	-2.659434e+01
2.727205e+02	-2.664455e+01
2.742958e+02	-2.669719e+01
2.758801e+02	-2.674522e+01
2.774736e+02	-2.679703e+01
2.790762e+02	-2.684402e+01
2.806882e+02	-2.689645e+01
2.823094e+02	-2.694649e+01
2.839400e+02	-2.699704e+01
2.855800e+02	-2.704917e+01
2.872295e+02	-2.709808e+01
2.888886e+02	-2.714362e+01
2.905572e+02	-2.719822e+01
2.922354e+02	-2.724814e+01
2.939234e+02	-2.729652e+01
2.956211e+02	-2.734539e+01
2.973286e+02	-2.739690e+01
2.990459e+02	-2.744353e+01
3.007732e+02	-2.749820e+01
3.025104e+02	-2.754582e+01
3.042577e+02	-2.759770e+01
3.060151e+02	-2.764747e+01
3.077826e+02	-2.769744e+01
3.095604e+02	-2.774885e+01
3.113484e+02	-2.779707e+01
3.131467e+02	-2.785033e+01
3.149554e+02	-2.789814e+01
3.167746e+02	-2.794665e+01
3.186043e+02	-2.799689e+01
3.204445e+02	-2.804904e+01
3.222954e+02	-2.810115e+01
3.241570e+02	-2.814491e+01
3.260293e+02	-2.819429e+01
3.279124e+02	-2.824736e+01
3.298064e+02	-2.829814e+01
3.317114e+02	-2.835016e+01
3.336273e+02	-2.840010e+01
3.355544e+02	-2.845108e+01
3.374925e+02	-2.849859e+01
3.394418e+02	-2.854628e+01
3.414024e+02	-2.859277e+01
3.433744e+02	-2.864258e+01
3.453577e+02	-2.869888e+01
3.473525e+02	-2.874444e+01
3.493588e+02	-2.880098e+01
3.513766e+02	-2.884735e+01
3.534062e+02	-2.889426e+01
3.554474e+02	-2.894467e+01
3.575005e+02	-2.899625e+01
3.595654e+02	-2.904774e+01
3.616422e+02	-2.909931e+01
3.637311e+02	-2.914788e+01
3.658320e+02	-2.920012e+01
3.679450e+02	-2.924706e+01
3.700702e+02	-2.929762e+01
3.722077e+02	-2.934302e+01
3.743576e+02	-2.940210e+01
3.765199e+02	-2.945135e+01
3.786946e+02	-2.949780e+01
3.808820e+02	-2.954379e+01
3.830819e+02	-2.959421e+01
3.852946e+02	-2.964556e+01
3.875200e+02	-2.969904e+01
3.897583e+02	-2.974999e+01
3.920096e+02	-2.979943e+01
3.942738e+02	-2.984967e+01
3.965511e+02	-2.989859e+01
3.988416e+02	-2.995073e+01
4.011452e+02	-2.999569e+01
4.034622e+02	-3.004885e+01
4.057926e+02	-3.009614e+01
4.081365e+02	-3.015011e+01
4.104938e+02	-3.019697e+01
4.128648e+02	-3.025141e+01
4.152495e+02	-3.030101e+01
4.176480e+02	-3.035096e+01
4.200603e+02	-3.040657e+01
4.224866e+02	-3.045107e+01
4.249268e+02	-3.049698e+01
4.273812e+02	-3.055940e+01
4.298497e+02	-3.059885e+01
4.323325e+02	-3.065121e+01
4.348297e+02	-3.070017e+01
4.373412e+02	-3.074939e+01
4.398673e+02	-3.080499e+01
4.424079e+02	-3.084814e+01
4.449633e+02	-3.090908e+01
4.475334e+02	-3.095280e+01
4.501183e+02	-3.099757e+01
4.527182e+02	-3.105304e+01
4.553330e+02	-3.110043e+01
4.579630e+02	-3.114828e+01
4.606082e+02	-3.120930e+01
4.632687e+02	-3.124948e+01
4.659445e+02	-3.130133e+01
4.686358e+02	-3.135322e+01
4.713426e+02	-3.139880e+01
4.740650e+02	-3.146000e+01
4.768032e+02	-3.149692e+01
4.795572e+02	-3.155405e+01
4.823271e+02	-3.160634e+01
4.851130e+02	-3.164917e+01
4.879150e+02	-3.170786e+01
4.907332e+02	-3.175539e+01
4.935676e+02	-3.179852e+01
4.964185e+02	-3.185695e+01
4.992858e+02	-3.190529e+01
5.021696e+02	-3.195287e+01
5.050701e+02	-3.200793e+01
5.079874e+02	-3.204847e+01
5.109215e+02	-3.210706e+01
5.138726e+02	-3.215153e+01
5.168407e+02	-3.220802e+01
5.198259e+02	-3.225321e+01
5.228284e+02	-3.230816e+01
5.258482e+02	-3.236094e+01
5.288855e+02	-3.240186e+01
5.319403e+02	-3.245464e+01
5.350128e+02	-3.251838e+01
5.381030e+02	-3.255769e+01
5.412111e+02	-3.260984e+01
5.443371e+02	-3.266333e+01
5.474812e+02	-3.270519e+01
5.506434e+02	-3.275187e+01
5.538239e+02	-3.280860e+01
5.570228e+02	-3.286547e+01
5.602401e+02	-3.290982e+01
5.634760e+02	-3.296181e+01
5.667306e+02	-3.301300e+01
5.700040e+02	-3.306174e+01
5.732964e+02	-3.311301e+01
5.766077e+02	-3.316111e+01
5.799382e+02	-3.320627e+01
5.832879e+02	-3.326061e+01
5.866569e+02	-3.331687e+01
5.900454e+02	-3.336992e+01
5.934535e+02	-3.340935e+01
5.968813e+02	-3.346454e+01
6.003288e+02	-3.351092e+01
6.037963e+02	-3.356338e+01
6.072838e+02	-3.361351e+01
6.107914e+02	-3.365382e+01
6.143194e+02	-3.371094e+01
6.178676e+02	-3.376521e+01
6.214364e+02	-3.380987e+01
6.250258e+02	-3.385855e+01
6.286359e+02	-3.391100e+01
6.322669e+02	-3.396624e+01
6.359189e+02	-3.401792e+01
6.395919e+02	-3.405735e+01
6.432862e+02	-3.412071e+01
6.470017e+02	-3.417108e+01
6.507388e+02	-3.421672e+01
6.544974e+02	-3.427401e+01
6.582778e+02	-3.431825e+01
6.620800e+02	-3.437107e+01
6.659041e+02	-3.441467e+01
6.697504e+02	-3.446760e+01
6.736188e+02	-3.451488e+01
6.775096e+02	-3.456509e+01
6.814229e+02	-3.462648e+01
6.853587e+02	-3.466848e+01
6.893173e+02	-3.472286e+01
6.932988e+02	-3.477560e+01
6.973033e+02	-3.482259e+01
7.013309e+02	-3.487341e+01
