Frequency(Hz)	Magnitude(dB)
1.000000e+01	-1.679208e-05
1.005776e+01	-1.698662e-05
1.011585e+01	-1.718342e-05
1.017428e+01	-1.738249e-05
1.023305e+01	-1.758387e-05
1.029215e+01	-1.778759e-05
1.035160e+01	-1.799366e-05
1.041139e+01	-1.820212e-05
1.047153e+01	-1.841300e-05
1.053201e+01	-1.862632e-05
1.059284e+01	-1.884211e-05
1.065403e+01	-1.906040e-05
1.071556e+01	-1.928122e-05
1.077746e+01	-1.950460e-05
1.083971e+01	-1.973056e-05
1.090232e+01	-1.995915e-05
1.096529e+01	-2.019038e-05
1.102862e+01	-2.042429e-05
1.109232e+01	-2.066091e-05
1.115639e+01	-2.090027e-05
1.122083e+01	-2.114241e-05
1.128564e+01	-2.138735e-05
1.135083e+01	-2.163512e-05
1.141639e+01	-2.188577e-05
1.148233e+01	-2.213932e-05
1.154865e+01	-2.239581e-05
1.161536e+01	-2.265527e-05
1.168245e+01	-2.291774e-05
1.174992e+01	-2.318325e-05
1.181779e+01	-2.345183e-05
1.188605e+01	-2.372353e-05
1.195470e+01	-2.399837e-05
1.202375e+01	-2.427640e-05
1.209320e+01	-2.455765e-05
1.216305e+01	-2.484215e-05
1.223330e+01	-2.512995e-05
1.230396e+01	-2.542109e-05
1.237503e+01	-2.571560e-05
1.244651e+01	-2.601352e-05
1.251840e+01	-2.631490e-05
1.259070e+01	-2.661976e-05
1.266343e+01	-2.692816e-05
1.273657e+01	-2.724013e-05
1.281014e+01	-2.755571e-05
1.288413e+01	-2.787495e-05
1.295855e+01	-2.819789e-05
1.303339e+01	-2.852457e-05
1.310867e+01	-2.885503e-05
1.318439e+01	-2.918932e-05
1.326054e+01	-2.952749e-05
1.333713e+01	-2.986957e-05
1.341417e+01	-3.021562e-05
1.349165e+01	-3.056567e-05
1.356958e+01	-3.091978e-05
1.364795e+01	-3.127800e-05
1.372678e+01	-3.164036e-05
1.380607e+01	-3.200692e-05
1.388581e+01	-3.237773e-05
1.396602e+01	-3.275283e-05
1.404668e+01	-3.313228e-05
1.412782e+01	-3.351613e-05
1.420942e+01	-3.390442e-05
1.429149e+01	-3.429721e-05
1.437404e+01	-3.469455e-05
1.445706e+01	-3.509649e-05
1.454057e+01	-3.550310e-05
1.462455e+01	-3.591441e-05
1.470902e+01	-3.633048e-05
1.479398e+01	-3.675138e-05
1.487943e+01	-3.717715e-05
1.496537e+01	-3.760786e-05
1.505181e+01	-3.804356e-05
1.513875e+01	-3.848430e-05
1.522619e+01	-3.893015e-05
1.531414e+01	-3.938116e-05
1.540259e+01	-3.983740e-05
1.549156e+01	-4.029893e-05
1.558103e+01	-4.076580e-05
1.567103e+01	-4.123808e-05
1.576155e+01	-4.171583e-05
1.585258e+01	-4.219912e-05
1.594415e+01	-4.268801e-05
1.603624e+01	-4.318256e-05
1.612886e+01	-4.368284e-05
1.622202e+01	-4.418891e-05
1.631572e+01	-4.470085e-05
1.640996e+01	-4.521872e-05
1.650474e+01	-4.574259e-05
1.660008e+01	-4.627253e-05
1.669596e+01	-4.680860e-05
1.679239e+01	-4.735089e-05
1.688938e+01	-4.789946e-05
1.698694e+01	-4.845439e-05
1.708505e+01	-4.901574e-05
1.718373e+01	-4.958360e-05
1.728299e+01	-5.015804e-05
1.738281e+01	-5.073913e-05
1.748322e+01	-5.132695e-05
1.758420e+01	-5.192158e-05
1.768576e+01	-5.252311e-05
1.778792e+01	-5.313160e-05
1.789066e+01	-5.374714e-05
1.799399e+01	-5.436981e-05
1.809793e+01	-5.499970e-05
1.820246e+01	-5.563688e-05
1.830760e+01	-5.628144e-05
1.841334e+01	-5.693348e-05
1.851969e+01	-5.759306e-05
1.862666e+01	-5.826029e-05
1.873425e+01	-5.893525e-05
1.884246e+01	-5.961802e-05
1.895129e+01	-6.030871e-05
1.906075e+01	-6.100740e-05
1.917085e+01	-6.171418e-05
1.928158e+01	-6.242915e-05
1.939295e+01	-6.315240e-05
1.950496e+01	-6.388404e-05
1.961762e+01	-6.462415e-05
1.973093e+01	-6.537283e-05
1.984490e+01	-6.613019e-05
1.995952e+01	-6.689632e-05
2.007480e+01	-6.767132e-05
2.019076e+01	-6.845531e-05
2.030738e+01	-6.924838e-05
2.042467e+01	-7.005063e-05
2.054264e+01	-7.086218e-05
2.066130e+01	-7.168313e-05
2.078064e+01	-7.251360e-05
2.090066e+01	-7.335368e-05
2.102139e+01	-7.420349e-05
2.114280e+01	-7.506315e-05
2.126492e+01	-7.593278e-05
2.138775e+01	-7.681247e-05
2.151128e+01	-7.770236e-05
2.163553e+01	-7.860255e-05
2.176050e+01	-7.951318e-05
2.188619e+01	-8.043435e-05
2.201260e+01	-8.136619e-05
2.213974e+01	-8.230884e-05
2.226762e+01	-8.326240e-05
2.239624e+01	-8.422701e-05
2.252560e+01	-8.520279e-05
2.265571e+01	-8.618988e-05
2.278656e+01	-8.718840e-05
2.291818e+01	-8.819849e-05
2.305055e+01	-8.922029e-05
2.318369e+01	-9.025392e-05
2.331760e+01	-9.129953e-05
2.345228e+01	-9.235724e-05
2.358774e+01	-9.342722e-05
2.372398e+01	-9.450959e-05
2.386101e+01	-9.560449e-05
2.399883e+01	-9.671209e-05
2.413745e+01	-9.783251e-05
2.427686e+01	-9.896591e-05
2.441709e+01	-1.001124e-04
2.455812e+01	-1.012723e-04
2.469997e+01	-1.024455e-04
2.484263e+01	-1.036324e-04
2.498612e+01	-1.048330e-04
2.513044e+01	-1.060475e-04
2.527559e+01	-1.072760e-04
2.542158e+01	-1.085188e-04
2.556842e+01	-1.097761e-04
2.571610e+01	-1.110478e-04
2.586463e+01	-1.123343e-04
2.601403e+01	-1.136357e-04
2.616428e+01	-1.149522e-04
2.631541e+01	-1.162840e-04
2.646740e+01	-1.176311e-04
2.662028e+01	-1.189939e-04
2.677404e+01	-1.203724e-04
2.692868e+01	-1.217670e-04
2.708422e+01	-1.231777e-04
2.724066e+01	-1.246047e-04
2.739800e+01	-1.260482e-04
2.755625e+01	-1.275085e-04
2.771541e+01	-1.289857e-04
2.787550e+01	-1.304800e-04
2.803650e+01	-1.319917e-04
2.819844e+01	-1.335208e-04
2.836131e+01	-1.350677e-04
2.852513e+01	-1.366324e-04
2.868989e+01	-1.382153e-04
2.885560e+01	-1.398166e-04
2.902227e+01	-1.414364e-04
2.918990e+01	-1.430749e-04
2.935850e+01	-1.447324e-04
2.952807e+01	-1.464092e-04
2.969863e+01	-1.481053e-04
2.987016e+01	-1.498212e-04
3.004269e+01	-1.515568e-04
3.021622e+01	-1.533126e-04
3.039075e+01	-1.550888e-04
3.056628e+01	-1.568855e-04
3.074283e+01	-1.587030e-04
3.092040e+01	-1.605416e-04
3.109900e+01	-1.624015e-04
3.127862e+01	-1.642829e-04
3.145929e+01	-1.661861e-04
3.164099e+01	-1.681114e-04
3.182375e+01	-1.700590e-04
3.200756e+01	-1.720291e-04
3.219244e+01	-1.740221e-04
3.237838e+01	-1.760382e-04
3.256540e+01	-1.780776e-04
3.275349e+01	-1.801406e-04
3.294268e+01	-1.822275e-04
3.313295e+01	-1.843387e-04
3.332433e+01	-1.864742e-04
3.351681e+01	-1.886345e-04
3.371040e+01	-1.908199e-04
3.390511e+01	-1.930305e-04
3.410094e+01	-1.952668e-04
3.429791e+01	-1.975290e-04
3.449601e+01	-1.998173e-04
3.469526e+01	-2.021322e-04
3.489566e+01	-2.044739e-04
3.509721e+01	-2.068427e-04
3.529993e+01	-2.092390e-04
3.550382e+01	-2.116631e-04
3.570889e+01	-2.141152e-04
3.591515e+01	-2.165957e-04
3.612259e+01	-2.191049e-04
3.633123e+01	-2.216433e-04
3.654108e+01	-2.242110e-04
3.675214e+01	-2.268085e-04
3.696442e+01	-2.294361e-04
3.717792e+01	-2.320941e-04
3.739266e+01	-2.347829e-04
3.760864e+01	-2.375028e-04
3.782587e+01	-2.402543e-04
3.804435e+01	-2.430376e-04
3.826409e+01	-2.458532e-04
3.848510e+01	-2.487014e-04
3.870739e+01	-2.515826e-04
3.893096e+01	-2.544971e-04
3.915583e+01	-2.574455e-04
3.938199e+01	-2.604280e-04
3.960946e+01	-2.634450e-04
3.983824e+01	-2.664970e-04
4.006834e+01	-2.695843e-04
4.029978e+01	-2.727075e-04
4.053255e+01	-2.758667e-04
4.076666e+01	-2.790626e-04
4.100213e+01	-2.822955e-04
4.123896e+01	-2.855659e-04
4.147715e+01	-2.888742e-04
4.171672e+01	-2.922207e-04
4.195767e+01	-2.956061e-04
4.220002e+01	-2.990306e-04
4.244377e+01	-3.024949e-04
4.268892e+01	-3.059992e-04
4.293549e+01	-3.095442e-04
4.318348e+01	-3.131302e-04
4.343291e+01	-3.167578e-04
4.368377e+01	-3.204274e-04
4.393609e+01	-3.241395e-04
4.418986e+01	-3.278946e-04
4.444510e+01	-3.316932e-04
4.470182e+01	-3.355358e-04
4.496001e+01	-3.394229e-04
4.521970e+01	-3.433551e-04
4.548089e+01	-3.473328e-04
4.574358e+01	-3.513566e-04
4.600779e+01	-3.554270e-04
4.627353e+01	-3.595445e-04
4.654081e+01	-3.637098e-04
4.680963e+01	-3.679233e-04
4.708000e+01	-3.721856e-04
4.735193e+01	-3.764973e-04
4.762543e+01	-3.808589e-04
4.790051e+01	-3.852711e-04
4.817719e+01	-3.897343e-04
4.845545e+01	-3.942493e-04
4.873533e+01	-3.988166e-04
4.901682e+01	-4.034368e-04
4.929994e+01	-4.081105e-04
4.958470e+01	-4.128383e-04
4.987110e+01	-4.176209e-04
5.015915e+01	-4.224590e-04
5.044887e+01	-4.273530e-04
5.074026e+01	-4.323038e-04
5.103333e+01	-4.373119e-04
5.132810e+01	-4.423780e-04
5.162457e+01	-4.475028e-04
5.192275e+01	-4.526870e-04
5.222265e+01	-4.579312e-04
5.252429e+01	-4.632362e-04
5.282767e+01	-4.686026e-04
5.313280e+01	-4.740312e-04
5.343969e+01	-4.795227e-04
5.374836e+01	-4.850778e-04
5.405880e+01	-4.906972e-04
5.437105e+01	-4.963818e-04
5.468509e+01	-5.021322e-04
5.500095e+01	-5.079492e-04
5.531863e+01	-5.138335e-04
5.563815e+01	-5.197861e-04
5.595951e+01	-5.258076e-04
5.628273e+01	-5.318988e-04
5.660782e+01	-5.380607e-04
5.693479e+01	-5.442938e-04
5.726364e+01	-5.505992e-04
5.759439e+01	-5.569777e-04
5.792705e+01	-5.634300e-04
5.826164e+01	-5.699571e-04
5.859815e+01	-5.765597e-04
5.893662e+01	-5.832389e-04
5.927703e+01	-5.899954e-04
5.961941e+01	-5.968302e-04
5.996377e+01	-6.037442e-04
6.031012e+01	-6.107382e-04
6.065847e+01	-6.178133e-04
6.100883e+01	-6.249703e-04
6.136121e+01	-6.322102e-04
6.171563e+01	-6.395340e-04
6.207210e+01	-6.469426e-04
6.243063e+01	-6.544371e-04
6.279122e+01	-6.620183e-04
6.315390e+01	-6.696874e-04
6.351868e+01	-6.774453e-04
6.388556e+01	-6.852931e-04
6.425456e+01	-6.932318e-04
6.462569e+01	-7.012624e-04
6.499897e+01	-7.093860e-04
6.537440e+01	-7.176038e-04
6.575200e+01	-7.259167e-04
6.613178e+01	-7.343260e-04
6.651375e+01	-7.428326e-04
6.689793e+01	-7.514378e-04
6.728433e+01	-7.601426e-04
6.767297e+01	-7.689483e-04
6.806384e+01	-7.778560e-04
6.845698e+01	-7.868669e-04
6.885238e+01	-7.959821e-04
6.925007e+01	-8.052029e-04
6.965005e+01	-8.145305e-04
7.005235e+01	-8.239662e-04
7.045697e+01	-8.335112e-04
7.086393e+01	-8.431667e-04
7.127323e+01	-8.529340e-04
7.168490e+01	-8.628145e-04
7.209895e+01	-8.728095e-04
7.251539e+01	-8.829202e-04
7.293424e+01	-8.931480e-04
7.335551e+01	-9.034943e-04
7.377920e+01	-9.139604e-04
7.420535e+01	-9.245478e-04
7.463396e+01	-9.352577e-04
7.506504e+01	-9.460918e-04
7.549861e+01	-9.570513e-04
7.593469e+01	-9.681378e-04
7.637328e+01	-9.793526e-04
7.681441e+01	-9.906974e-04
7.725809e+01	-1.002174e-03
7.770433e+01	-1.013783e-03
7.815315e+01	-1.025526e-03
7.860456e+01	-1.037406e-03
7.905857e+01	-1.049423e-03
7.951521e+01	-1.061579e-03
7.997449e+01	-1.073877e-03
8.043642e+01	-1.086316e-03
8.090102e+01	-1.098900e-03
8.136830e+01	-1.111629e-03
8.183828e+01	-1.124506e-03
8.231097e+01	-1.137532e-03
8.278640e+01	-1.150709e-03
8.326457e+01	-1.164038e-03
8.374550e+01	-1.177522e-03
8.422921e+01	-1.191162e-03
8.471572e+01	-1.204960e-03
8.520503e+01	-1.218918e-03
8.569717e+01	-1.233038e-03
8.619215e+01	-1.247321e-03
8.669000e+01	-1.261769e-03
8.719071e+01	-1.276385e-03
8.769432e+01	-1.291170e-03
8.820084e+01	-1.306126e-03
8.871029e+01	-1.321256e-03
8.922267e+01	-1.336561e-03
8.973802e+01	-1.352043e-03
9.025634e+01	-1.367704e-03
9.077766e+01	-1.383547e-03
9.130199e+01	-1.399573e-03
9.182935e+01	-1.415785e-03
9.235975e+01	-1.432184e-03
9.289321e+01	-1.448774e-03
9.342976e+01	-1.465555e-03
9.396941e+01	-1.482531e-03
9.451217e+01	-1.499704e-03
9.505807e+01	-1.517075e-03
9.560712e+01	-1.534648e-03
9.615934e+01	-1.552424e-03
9.671476e+01	-1.570406e-03
9.727338e+01	-1.588596e-03
9.783522e+01	-1.606997e-03
9.840032e+01	-1.625611e-03
9.896867e+01	-1.644441e-03
9.954031e+01	-1.663488e-03
1.001153e+02	-1.682756e-03
1.006935e+02	-1.702248e-03
1.012751e+02	-1.721965e-03
1.018601e+02	-1.741910e-03
1.024484e+02	-1.762087e-03
1.030402e+02	-1.782497e-03
1.036353e+02	-1.803143e-03
1.042339e+02	-1.824029e-03
1.048360e+02	-1.845156e-03
1.054415e+02	-1.866528e-03
1.060505e+02	-1.888148e-03
1.066631e+02	-1.910017e-03
1.072791e+02	-1.932141e-03
1.078988e+02	-1.954520e-03
1.085220e+02	-1.977158e-03
1.091488e+02	-2.000059e-03
1.097793e+02	-2.023225e-03
1.104133e+02	-2.046659e-03
1.110511e+02	-2.070364e-03
1.116925e+02	-2.094344e-03
1.123376e+02	-2.118602e-03
1.129865e+02	-2.143140e-03
1.136391e+02	-2.167963e-03
1.142955e+02	-2.193073e-03
1.149556e+02	-2.218474e-03
1.156196e+02	-2.244169e-03
1.162874e+02	-2.270161e-03
1.169591e+02	-2.296455e-03
1.176347e+02	-2.323053e-03
1.183141e+02	-2.349959e-03
1.189975e+02	-2.377176e-03
1.196848e+02	-2.404709e-03
1.203761e+02	-2.432560e-03
1.210714e+02	-2.460734e-03
1.217707e+02	-2.489234e-03
1.224740e+02	-2.518064e-03
1.231814e+02	-2.547228e-03
1.238929e+02	-2.576729e-03
1.246085e+02	-2.606573e-03
1.253283e+02	-2.636761e-03
1.260522e+02	-2.667299e-03
1.267802e+02	-2.698191e-03
1.275125e+02	-2.729441e-03
1.282490e+02	-2.761052e-03
1.289898e+02	-2.793029e-03
1.297348e+02	-2.825376e-03
1.304842e+02	-2.858098e-03
1.312378e+02	-2.891199e-03
1.319959e+02	-2.924683e-03
1.327583e+02	-2.958555e-03
1.335251e+02	-2.992819e-03
1.342963e+02	-3.027479e-03
1.350720e+02	-3.062541e-03
1.358522e+02	-3.098009e-03
1.366368e+02	-3.133887e-03
1.374260e+02	-3.170180e-03
1.382198e+02	-3.206894e-03
1.390182e+02	-3.244033e-03
1.398211e+02	-3.281602e-03
1.406287e+02	-3.319606e-03
1.414410e+02	-3.358049e-03
1.422579e+02	-3.396938e-03
1.430796e+02	-3.436277e-03
1.439060e+02	-3.476071e-03
1.447372e+02	-3.516326e-03
1.455732e+02	-3.557046e-03
1.464141e+02	-3.598239e-03
1.472597e+02	-3.639908e-03
1.481103e+02	-3.682059e-03
1.489658e+02	-3.724698e-03
1.498262e+02	-3.767831e-03
1.506916e+02	-3.811463e-03
1.515620e+02	-3.855600e-03
1.524374e+02	-3.900248e-03
1.533179e+02	-3.945413e-03
1.542034e+02	-3.991101e-03
1.550941e+02	-4.037317e-03
1.559899e+02	-4.084069e-03
1.568909e+02	-4.131361e-03
1.577971e+02	-4.179201e-03
1.587085e+02	-4.227594e-03
1.596252e+02	-4.276548e-03
1.605472e+02	-4.326068e-03
1.614745e+02	-4.376161e-03
1.624072e+02	-4.426835e-03
1.633453e+02	-4.478094e-03
1.642887e+02	-4.529947e-03
1.652377e+02	-4.582400e-03
1.661921e+02	-4.635460e-03
1.671520e+02	-4.689134e-03
1.681175e+02	-4.743429e-03
1.690885e+02	-4.798352e-03
1.700651e+02	-4.853911e-03
1.710474e+02	-4.910113e-03
1.720354e+02	-4.966965e-03
1.730291e+02	-5.024475e-03
1.740285e+02	-5.082651e-03
1.750337e+02	-5.141500e-03
1.760446e+02	-5.201030e-03
1.770615e+02	-5.261249e-03
1.780842e+02	-5.322164e-03
1.791128e+02	-5.383784e-03
1.801473e+02	-5.446118e-03
1.811878e+02	-5.509172e-03
1.822344e+02	-5.572956e-03
1.832870e+02	-5.637478e-03
1.843456e+02	-5.702747e-03
1.854104e+02	-5.768771e-03
1.864813e+02	-5.835559e-03
1.875584e+02	-5.903119e-03
1.886418e+02	-5.971461e-03
1.897313e+02	-6.040594e-03
1.908272e+02	-6.110526e-03
1.919294e+02	-6.181268e-03
1.930380e+02	-6.252827e-03
1.941530e+02	-6.325215e-03
1.952744e+02	-6.398440e-03
1.964023e+02	-6.472512e-03
1.975367e+02	-6.547441e-03
1.986777e+02	-6.623237e-03
1.998252e+02	-6.699910e-03
2.009794e+02	-6.777469e-03
2.021403e+02	-6.855926e-03
2.033078e+02	-6.935290e-03
2.044821e+02	-7.015572e-03
2.056632e+02	-7.096782e-03
2.068511e+02	-7.178932e-03
2.080459e+02	-7.262032e-03
2.092475e+02	-7.346093e-03
2.104561e+02	-7.431127e-03
2.116717e+02	-7.517143e-03
2.128943e+02	-7.604155e-03
2.141240e+02	-7.692173e-03
2.153608e+02	-7.781208e-03
2.166047e+02	-7.871274e-03
2.178558e+02	-7.962381e-03
2.191141e+02	-8.054541e-03
2.203797e+02	-8.147767e-03
2.216526e+02	-8.242071e-03
2.229329e+02	-8.337466e-03
2.242205e+02	-8.433963e-03
2.255156e+02	-8.531577e-03
2.268182e+02	-8.630319e-03
2.281283e+02	-8.730202e-03
2.294459e+02	-8.831241e-03
2.307712e+02	-8.933447e-03
2.321041e+02	-9.036835e-03
2.334447e+02	-9.141419e-03
2.347931e+02	-9.247211e-03
2.361493e+02	-9.354227e-03
2.375133e+02	-9.462480e-03
2.388851e+02	-9.571984e-03
2.402649e+02	-9.682753e-03
2.416527e+02	-9.794804e-03
2.430484e+02	-9.908149e-03
2.444523e+02	-1.002280e-02
2.458642e+02	-1.013879e-02
2.472843e+02	-1.025611e-02
2.487126e+02	-1.037478e-02
2.501492e+02	-1.049483e-02
2.515940e+02	-1.061627e-02
2.530472e+02	-1.073911e-02
2.545088e+02	-1.086337e-02
2.559789e+02	-1.098906e-02
2.574574e+02	-1.111621e-02
2.589444e+02	-1.124483e-02
2.604401e+02	-1.137493e-02
2.619444e+02	-1.150654e-02
2.634574e+02	-1.163966e-02
2.649791e+02	-1.177433e-02
2.665096e+02	-1.191055e-02
2.680489e+02	-1.204834e-02
2.695972e+02	-1.218773e-02
2.711544e+02	-1.232873e-02
2.727205e+02	-1.247135e-02
2.742958e+02	-1.261563e-02
2.758801e+02	-1.276156e-02
2.774736e+02	-1.290919e-02
2.790762e+02	-1.305852e-02
2.806882e+02	-1.320958e-02
2.823094e+02	-1.336238e-02
2.839400e+02	-1.351694e-02
2.855800e+02	-1.367329e-02
2.872295e+02	-1.383145e-02
2.888886e+02	-1.399143e-02
2.905572e+02	-1.415326e-02
2.922354e+02	-1.431695e-02
2.939234e+02	-1.448254e-02
2.956211e+02	-1.465004e-02
2.973286e+02	-1.481948e-02
2.990459e+02	-1.499087e-02
3.007732e+02	-1.516423e-02
3.025104e+02	-1.533960e-02
3.042577e+02	-1.551700e-02
3.060151e+02	-1.569644e-02
3.077826e+02	-1.587796e-02
3.095604e+02	-1.606156e-02
3.113484e+02	-1.624729e-02
3.131467e+02	-1.643516e-02
3.149554e+02	-1.662520e-02
3.167746e+02	-1.681744e-02
3.186043e+02	-1.701189e-02
3.204445e+02	-1.720858e-02
3.222954e+02	-1.740755e-02
3.241570e+02	-1.760881e-02
3.260293e+02	-1.781239e-02
3.279124e+02	-1.801832e-02
3.298064e+02	-1.822663e-02
3.317114e+02	-1.843734e-02
3.336273e+02	-1.865048e-02
3.355544e+02	-1.886608e-02
3.374925e+02	-1.908417e-02
3.394418e+02	-1.930477e-02
3.414024e+02	-1.952791e-02
3.433744e+02	-1.975363e-02
3.453577e+02	-1.998195e-02
3.473525e+02	-2.021291e-02
3.493588e+02	-2.044653e-02
3.513766e+02	-2.068284e-02
3.534062e+02	-2.092188e-02
3.554474e+02	-2.116367e-02
3.575005e+02	-2.140825e-02
3.595654e+02	-2.165565e-02
3.616422e+02	-2.190590e-02
3.637311e+02	-2.215904e-02
3.658320e+02	-2.241509e-02
3.679450e+02	-2.267409e-02
3.700702e+02	-2.293608e-02
3.722077e+02	-2.320109e-02
3.743576e+02	-2.346915e-02
3.765199e+02	-2.374030e-02
3.786946e+02	-2.401458e-02
3.808820e+02	-2.429201e-02
3.830819e+02	-2.457264e-02
3.852946e+02	-2.485650e-02
3.875200e+02	-2.514364e-02
3.897583e+02	-2.543407e-02
3.920096e+02	-2.572786e-02
3.942738e+02	-2.602503e-02
3.965511e+02	-2.632562e-02
3.988416e+02	-2.662967e-02
4.011452e+02	-2.693722e-02
4.034622e+02	-2.724831e-02
4.057926e+02	-2.756298e-02
4.081365e+02	-2.788128e-02
4.104938e+02	-2.820324e-02
4.128648e+02	-2.852890e-02
4.152495e+02	-2.885832e-02
4.176480e+02	-2.919152e-02
4.200603e+02	-2.952856e-02
4.224866e+02	-2.986947e-02
4.249268e+02	-3.021431e-02
4.273812e+02	-3.056312e-02
4.298497e+02	-3.091593e-02
4.323325e+02	-3.127281e-02
4.348297e+02	-3.163379e-02
4.373412e+02	-3.199892e-02
4.398673e+02	-3.236825e-02
4.424079e+02	-3.274182e-02
4.449633e+02	-3.311970e-02
4.475334e+02	-3.350191e-02
4.501183e+02	-3.388852e-02
4.527182e+02	-3.427957e-02
4.553330e+02	-3.467512e-02
4.579630e+02	-3.507521e-02
4.606082e+02	-3.547990e-02
4.632687e+02	-3.588925e-02
4.659445e+02	-3.630329e-02
4.686358e+02	-3.672209e-02
4.713426e+02	-3.714570e-02
4.740650e+02	-3.757417e-02
4.768032e+02	-3.800757e-02
4.795572e+02	-3.844594e-02
4.823271e+02	-3.888935e-02
4.851130e+02	-3.933785e-02
4.879150e+02	-3.979149e-02
4.907332e+02	-4.025034e-02
4.935676e+02	-4.071446e-02
4.964185e+02	-4.118391e-02
4.992858e+02	-4.165874e-02
5.021696e+02	-4.213902e-02
5.050701e+02	-4.262481e-02
5.079874e+02	-4.311617e-02
5.109215e+02	-4.361317e-02
5.138726e+02	-4.411586e-02
5.168407e+02	-4.462433e-02
5.198259e+02	-4.513862e-02
5.228284e+02	-4.565880e-02
5.258482e+02	-4.618495e-02
5.288855e+02	-4.671713e-02
5.319403e+02	-4.725541e-02
5.350128e+02	-4.779986e-02
5.381030e+02	-4.835054e-02
5.412111e+02	-4.890754e-02
5.443371e+02	-4.947091e-02
5.474812e+02	-5.004073e-02
5.506434e+02	-5.061708e-02
5.538239e+02	-5.120003e-02
5.570228e+02	-5.178965e-02
5.602401e+02	-5.238602e-02
5.634760e+02	-5.298922e-02
5.667306e+02	-5.359932e-02
5.700040e+02	-5.421640e-02
5.732964e+02	-5.484054e-02
5.766077e+02	-5.547181e-02
5.799382e+02	-5.611031e-02
5.832879e+02	-5.675611e-02
5.866569e+02	-5.740929e-02
5.900454e+02	-5.806994e-02
5.934535e+02	-5.873814e-02
5.968813e+02	-5.941397e-02
6.003288e+02	-6.009753e-02
6.037963e+02	-6.078889e-02
6.072838e+02	-6.148816e-02
6.107914e+02	-6.219541e-02
6.143194e+02	-6.291073e-02
6.178676e+02	-6.363422e-02
6.214364e+02	-6.436597e-02
6.250258e+02	-6.510607e-02
6.286359e+02	-6.585462e-02
6.322669e+02	-6.661171e-02
6.359189e+02	-6.737743e-02
6.395919e+02	-6.815188e-02
6.432862e+02	-6.893517e-02
6.470017e+02	-6.972739e-02
6.507388e+02	-7.052863e-02
6.544974e+02	-7.133901e-02
6.582778e+02	-7.215862e-02
6.620800e+02	-7.298757e-02
6.659041e+02	-7.382596e-02
6.697504e+02	-7.467390e-02
6.736188e+02	-7.553149e-02
6.775096e+02	-7.639884e-02
6.814229e+02	-7.727606e-02
6.853587e+02	-7.816327e-02
6.893173e+02	-7.906057e-02
6.932988e+02	-7.996807e-02
6.973033e+02	-8.088590e-02
7.013309e+02	-8.181416e-02
