Frequency(Hz)	Magnitude(dB)
1.000000e+01	-2.192175e+00
1.005776e+01	-2.211806e+00
1.011585e+01	-2.232023e+00
1.017428e+01	-2.251851e+00
1.023305e+01	-2.272343e+00
1.029215e+01	-2.292819e+00
1.035160e+01	-2.313556e+00
1.041139e+01	-2.334418e+00
1.047153e+01	-2.355044e+00
1.053201e+01	-2.376062e+00
1.059284e+01	-2.397212e+00
1.065403e+01	-2.418534e+00
1.071556e+01	-2.439834e+00
1.077746e+01	-2.461417e+00
1.083971e+01	-2.483147e+00
1.090232e+01	-2.504904e+00
1.096529e+01	-2.526929e+00
1.102862e+01	-2.549292e+00
1.109232e+01	-2.571550e+00
1.115639e+01	-2.593985e+00
1.122083e+01	-2.616292e+00
1.128564e+01	-2.639070e+00
1.135083e+01	-2.662099e+00
1.141639e+01	-2.685023e+00
1.148233e+01	-2.707964e+00
1.154865e+01	-2.731645e+00
1.161536e+01	-2.754959e+00
1.168245e+01	-2.778450e+00
1.174992e+01	-2.802300e+00
1.181779e+01	-2.825805e+00
1.188605e+01	-2.849979e+00
1.195470e+01	-2.873959e+00
1.202375e+01	-2.898415e+00
1.209320e+01	-2.922587e+00
1.216305e+01	-2.947403e+00
1.223330e+01	-2.972389e+00
1.230396e+01	-2.997124e+00
1.237503e+01	-3.022233e+00
1.244651e+01	-3.047189e+00
1.251840e+01	-3.072543e+00
1.259070e+01	-3.098109e+00
1.266343e+01	-3.123449e+00
1.273657e+01	-3.149204e+00
1.281014e+01	-3.175200e+00
1.288413e+01	-3.201327e+00
1.295855e+01	-3.227311e+00
1.303339e+01	-3.253743e+00
1.310867e+01	-3.280236e+00
1.318439e+01	-3.306461e+00
1.326054e+01	-3.333288e+00
1.333713e+01	-3.360314e+00
1.341417e+01	-3.387424e+00
1.349165e+01	-3.414446e+00
1.356958e+01	-3.441650e+00
1.364795e+01	-3.469185e+00
1.372678e+01	-3.496801e+00
1.380607e+01	-3.524560e+00
1.388581e+01	-3.552632e+00
1.396602e+01	-3.580607e+00
1.404668e+01	-3.608570e+00
1.412782e+01	-3.636814e+00
1.420942e+01	-3.665455e+00
1.429149e+01	-3.693860e+00
1.437404e+01	-3.722599e+00
1.445706e+01	-3.751448e+00
1.454057e+01	-3.780397e+00
1.462455e+01	-3.809526e+00
1.470902e+01	-3.838926e+00
1.479398e+01	-3.868336e+00
1.487943e+01	-3.897883e+00
1.496537e+01	-3.927775e+00
1.505181e+01	-3.957273e+00
1.513875e+01	-3.987356e+00
1.522619e+01	-4.017483e+00
1.531414e+01	-4.047793e+00
1.540259e+01	-4.078296e+00
1.549156e+01	-4.108651e+00
1.558103e+01	-4.139569e+00
1.567103e+01	-4.170149e+00
1.576155e+01	-4.201014e+00
1.585258e+01	-4.232259e+00
1.594415e+01	-4.263385e+00
1.603624e+01	-4.294658e+00
1.612886e+01	-4.326393e+00
1.622202e+01	-4.357977e+00
1.631572e+01	-4.389644e+00
1.640996e+01	-4.421366e+00
1.650474e+01	-4.453851e+00
1.660008e+01	-4.485937e+00
1.669596e+01	-4.517954e+00
1.679239e+01	-4.550315e+00
1.688938e+01	-4.582997e+00
1.698694e+01	-4.615459e+00
1.708505e+01	-4.648419e+00
1.718373e+01	-4.681376e+00
1.728299e+01	-4.714466e+00
1.738281e+01	-4.747681e+00
1.748322e+01	-4.780998e+00
1.758420e+01	-4.814177e+00
1.768576e+01	-4.847913e+00
1.778792e+01	-4.881626e+00
1.789066e+01	-4.915464e+00
1.799399e+01	-4.949702e+00
1.809793e+01	-4.983626e+00
1.820246e+01	-5.017658e+00
1.830760e+01	-5.052041e+00
1.841334e+01	-5.086400e+00
1.851969e+01	-5.121062e+00
1.862666e+01	-5.155772e+00
1.873425e+01	-5.190900e+00
1.884246e+01	-5.225621e+00
1.895129e+01	-5.260898e+00
1.906075e+01	-5.295781e+00
1.917085e+01	-5.331047e+00
1.928158e+01	-5.366718e+00
1.939295e+01	-5.402185e+00
1.950496e+01	-5.437818e+00
1.961762e+01	-5.473705e+00
1.973093e+01	-5.509406e+00
1.984490e+01	-5.545474e+00
1.995952e+01	-5.581614e+00
2.007480e+01	-5.618029e+00
2.019076e+01	-5.654140e+00
2.030738e+01	-5.690602e+00
2.042467e+01	-5.727407e+00
2.054264e+01	-5.764123e+00
2.066130e+01	-5.801006e+00
2.078064e+01	-5.837561e+00
2.090066e+01	-5.875114e+00
2.102139e+01	-5.912157e+00
2.114280e+01	-5.948950e+00
2.126492e+01	-5.986597e+00
2.138775e+01	-6.024091e+00
2.151128e+01	-6.061711e+00
2.163553e+01	-6.099244e+00
2.176050e+01	-6.137000e+00
2.188619e+01	-6.174808e+00
2.201260e+01	-6.213138e+00
2.213974e+01	-6.251132e+00
2.226762e+01	-6.289473e+00
2.239624e+01	-6.327500e+00
2.252560e+01	-6.366142e+00
2.265571e+01	-6.404762e+00
2.278656e+01	-6.443103e+00
2.291818e+01	-6.482180e+00
2.305055e+01	-6.520923e+00
2.318369e+01	-6.559591e+00
2.331760e+01	-6.598909e+00
2.345228e+01	-6.637824e+00
2.358774e+01	-6.677165e+00
2.372398e+01	-6.716503e+00
2.386101e+01	-6.756042e+00
2.399883e+01	-6.794914e+00
2.413745e+01	-6.834429e+00
2.427686e+01	-6.874705e+00
2.441709e+01	-6.914079e+00
2.455812e+01	-6.954483e+00
2.469997e+01	-6.994394e+00
2.484263e+01	-7.034322e+00
2.498612e+01	-7.074418e+00
2.513044e+01	-7.115226e+00
2.527559e+01	-7.155216e+00
2.542158e+01	-7.195628e+00
2.556842e+01	-7.236417e+00
2.571610e+01	-7.276528e+00
2.586463e+01	-7.317245e+00
2.601403e+01	-7.358327e+00
2.616428e+01	-7.399087e+00
2.631541e+01	-7.440140e+00
2.646740e+01	-7.481410e+00
2.662028e+01	-7.522460e+00
2.677404e+01	-7.563233e+00
2.692868e+01	-7.604873e+00
2.708422e+01	-7.645873e+00
2.724066e+01	-7.687706e+00
2.739800e+01	-7.729622e+00
2.755625e+01	-7.770860e+00
2.771541e+01	-7.812595e+00
2.787550e+01	-7.854229e+00
2.803650e+01	-7.895966e+00
2.819844e+01	-7.938481e+00
2.836131e+01	-7.979995e+00
2.852513e+01	-8.021975e+00
2.868989e+01	-8.064499e+00
2.885560e+01	-8.106720e+00
2.902227e+01	-8.149246e+00
2.918990e+01	-8.191919e+00
2.935850e+01	-8.233578e+00
2.952807e+01	-8.276819e+00
2.969863e+01	-8.318952e+00
2.987016e+01	-8.361247e+00
3.004269e+01	-8.404478e+00
3.021622e+01	-8.447339e+00
3.039075e+01	-8.490150e+00
3.056628e+01	-8.533347e+00
3.074283e+01	-8.576427e+00
3.092040e+01	-8.619167e+00
3.109900e+01	-8.662967e+00
3.127862e+01	-8.705935e+00
3.145929e+01	-8.748921e+00
3.164099e+01	-8.792680e+00
3.182375e+01	-8.835753e+00
3.200756e+01	-8.879470e+00
3.219244e+01	-8.923199e+00
3.237838e+01	-8.966859e+00
3.256540e+01	-9.011125e+00
3.275349e+01	-9.054087e+00
3.294268e+01	-9.098374e+00
3.313295e+01	-9.141606e+00
3.332433e+01	-9.185940e+00
3.351681e+01	-9.229950e+00
3.371040e+01	-9.273940e+00
3.390511e+01	-9.318770e+00
3.410094e+01	-9.362658e+00
3.429791e+01	-9.406602e+00
3.449601e+01	-9.450781e+00
3.469526e+01	-9.495370e+00
3.489566e+01	-9.539952e+00
3.509721e+01	-9.584391e+00
3.529993e+01	-9.629034e+00
3.550382e+01	-9.673399e+00
3.570889e+01	-9.718621e+00
3.591515e+01	-9.762998e+00
3.612259e+01	-9.807614e+00
3.633123e+01	-9.852130e+00
3.654108e+01	-9.897518e+00
3.675214e+01	-9.942009e+00
3.696442e+01	-9.987004e+00
3.717792e+01	-1.003274e+01
3.739266e+01	-1.007742e+01
3.760864e+01	-1.012247e+01
3.782587e+01	-1.016772e+01
3.804435e+01	-1.021340e+01
3.826409e+01	-1.025811e+01
3.848510e+01	-1.030408e+01
3.870739e+01	-1.034874e+01
3.893096e+01	-1.039395e+01
3.915583e+01	-1.043970e+01
3.938199e+01	-1.048532e+01
3.960946e+01	-1.053173e+01
3.983824e+01	-1.057628e+01
4.006834e+01	-1.062267e+01
4.029978e+01	-1.066779e+01
4.053255e+01	-1.071355e+01
4.076666e+01	-1.075949e+01
4.100213e+01	-1.080565e+01
4.123896e+01	-1.085087e+01
4.147715e+01	-1.089734e+01
4.171672e+01	-1.094249e+01
4.195767e+01	-1.098984e+01
4.220002e+01	-1.103487e+01
4.244377e+01	-1.108127e+01
4.268892e+01	-1.112737e+01
4.293549e+01	-1.117425e+01
4.318348e+01	-1.122003e+01
4.343291e+01	-1.126638e+01
4.368377e+01	-1.131228e+01
4.393609e+01	-1.135878e+01
4.418986e+01	-1.140568e+01
4.444510e+01	-1.145174e+01
4.470182e+01	-1.149808e+01
4.496001e+01	-1.154511e+01
4.521970e+01	-1.159123e+01
4.548089e+01	-1.163795e+01
4.574358e+01	-1.168462e+01
4.600779e+01	-1.173135e+01
4.627353e+01	-1.177724e+01
4.654081e+01	-1.182449e+01
4.680963e+01	-1.187066e+01
4.708000e+01	-1.191811e+01
4.735193e+01	-1.196481e+01
4.762543e+01	-1.201181e+01
4.790051e+01	-1.205898e+01
4.817719e+01	-1.210557e+01
4.845545e+01	-1.215284e+01
4.873533e+01	-1.219895e+01
4.901682e+01	-1.224648e+01
4.929994e+01	-1.229332e+01
4.958470e+01	-1.234106e+01
4.987110e+01	-1.238734e+01
5.015915e+01	-1.243435e+01
5.044887e+01	-1.248201e+01
5.074026e+01	-1.252929e+01
5.103333e+01	-1.257638e+01
5.132810e+01	-1.262381e+01
5.162457e+01	-1.267101e+01
5.192275e+01	-1.271855e+01
5.222265e+01	-1.276618e+01
5.252429e+01	-1.281311e+01
5.282767e+01	-1.286125e+01
5.313280e+01	-1.290812e+01
5.343969e+01	-1.295615e+01
5.374836e+01	-1.300366e+01
5.405880e+01	-1.305027e+01
5.437105e+01	-1.309772e+01
5.468509e+01	-1.314580e+01
5.500095e+01	-1.319280e+01
5.531863e+01	-1.324071e+01
5.563815e+01	-1.328910e+01
5.595951e+01	-1.333654e+01
5.628273e+01	-1.338405e+01
5.660782e+01	-1.343166e+01
5.693479e+01	-1.347946e+01
5.726364e+01	-1.352752e+01
5.759439e+01	-1.357573e+01
5.792705e+01	-1.362351e+01
5.826164e+01	-1.367053e+01
5.859815e+01	-1.371961e+01
5.893662e+01	-1.376607e+01
5.927703e+01	-1.381491e+01
5.961941e+01	-1.386226e+01
5.996377e+01	-1.390977e+01
6.031012e+01	-1.395895e+01
6.065847e+01	-1.400673e+01
6.100883e+01	-1.405436e+01
6.136121e+01	-1.410299e+01
6.171563e+01	-1.415113e+01
6.207210e+01	-1.419949e+01
6.243063e+01	-1.424652e+01
6.279122e+01	-1.429573e+01
6.315390e+01	-1.434361e+01
6.351868e+01	-1.439176e+01
6.388556e+01	-1.443979e+01
6.425456e+01	-1.448761e+01
6.462569e+01	-1.453729e+01
6.499897e+01	-1.458390e+01
6.537440e+01	-1.463406e+01
6.575200e+01	-1.468115e+01
6.613178e+01	-1.472936e+01
6.651375e+01	-1.477817e+01
6.689793e+01	-1.482585e+01
6.728433e+01	-1.487475e+01
6.767297e+01	-1.492298e+01
6.806384e+01	-1.497129e+01
6.845698e+01	-1.501985e+01
6.885238e+01	-1.506842e+01
6.925007e+01	-1.511761e+01
6.965005e+01	-1.516546e+01
7.005235e+01	-1.521434e+01
7.045697e+01	-1.526305e+01
7.086393e+01	-1.531110e+01
7.127323e+01	-1.536073e+01
7.168490e+01	-1.540884e+01
7.209895e+01	-1.545658e+01
7.251539e+01	-1.550652e+01
7.293424e+01	-1.555365e+01
7.335551e+01	-1.560189e+01
7.377920e+01	-1.565193e+01
7.420535e+01	-1.570028e+01
7.463396e+01	-1.574897e+01
7.506504e+01	-1.579689e+01
7.549861e+01	-1.584561e+01
7.593469e+01	-1.589448e+01
7.637328e+01	-1.594322e+01
7.681441e+01	-1.599235e+01
7.725809e+01	-1.604167e+01
7.770433e+01	-1.608999e+01
7.815315e+01	-1.613852e+01
7.860456e+01	-1.618754e+01
7.905857e+01	-1.623694e+01
7.951521e+01	-1.628608e+01
7.997449e+01	-1.633403e+01
8.043642e+01	-1.638321e+01
8.090102e+01	-1.643162e+01
8.136830e+01	-1.648012e+01
8.183828e+01	-1.652927e+01
8.231097e+01	-1.657803e+01
8.278640e+01	-1.662798e+01
8.326457e+01	-1.667753e+01
8.374550e+01	-1.672552e+01
8.422921e+01	-1.677397e+01
8.471572e+01	-1.682304e+01
8.520503e+01	-1.687255e+01
8.569717e+01	-1.692091e+01
8.619215e+01	-1.697123e+01
8.669000e+01	-1.702071e+01
8.719071e+01	-1.706912e+01
8.769432e+01	-1.711779e+01
8.820084e+01	-1.716643e+01
8.871029e+01	-1.721469e+01
8.922267e+01	-1.726527e+01
8.973802e+01	-1.731396e+01
9.025634e+01	-1.736399e+01
9.077766e+01	-1.741256e+01
9.130199e+01	-1.746137e+01
9.182935e+01	-1.750964e+01
9.235975e+01	-1.755999e+01
9.289321e+01	-1.760854e+01
9.342976e+01	-1.765875e+01
9.396941e+01	-1.770571e+01
9.451217e+01	-1.775657e+01
9.505807e+01	-1.780628e+01
9.560712e+01	-1.785500e+01
9.615934e+01	-1.790372e+01
9.671476e+01	-1.795336e+01
9.727338e+01	-1.800227e+01
9.783522e+01	-1.805104e+01
9.840032e+01	-1.810084e+01
9.896867e+01	-1.815008e+01
9.954031e+01	-1.820085e+01
1.001153e+02	-1.824887e+01
1.006935e+02	-1.829828e+01
1.012751e+02	-1.834873e+01
1.018601e+02	-1.839803e+01
1.024484e+02	-1.844590e+01
1.030402e+02	-1.849600e+01
1.036353e+02	-1.854405e+01
1.042339e+02	-1.859348e+01
1.048360e+02	-1.864409e+01
1.054415e+02	-1.869340e+01
1.060505e+02	-1.874187e+01
1.066631e+02	-1.879123e+01
1.072791e+02	-1.884005e+01
1.078988e+02	-1.889091e+01
1.085220e+02	-1.894078e+01
1.091488e+02	-1.898903e+01
1.097793e+02	-1.903931e+01
1.104133e+02	-1.908744e+01
1.110511e+02	-1.913759e+01
1.116925e+02	-1.918732e+01
1.123376e+02	-1.923596e+01
1.129865e+02	-1.928512e+01
1.136391e+02	-1.933521e+01
1.142955e+02	-1.938465e+01
1.149556e+02	-1.943433e+01
1.156196e+02	-1.948512e+01
1.162874e+02	-1.953282e+01
1.169591e+02	-1.958232e+01
1.176347e+02	-1.963106e+01
1.183141e+02	-1.968233e+01
1.189975e+02	-1.972995e+01
1.196848e+02	-1.978004e+01
1.203761e+02	-1.982976e+01
1.210714e+02	-1.987924e+01
1.217707e+02	-1.992941e+01
1.224740e+02	-1.997929e+01
1.231814e+02	-2.002887e+01
1.238929e+02	-2.007768e+01
1.246085e+02	-2.012636e+01
1.253283e+02	-2.017676e+01
1.260522e+02	-2.022565e+01
1.267802e+02	-2.027560e+01
1.275125e+02	-2.032405e+01
1.282490e+02	-2.037262e+01
1.289898e+02	-2.042526e+01
1.297348e+02	-2.047493e+01
1.304842e+02	-2.052331e+01
1.312378e+02	-2.057207e+01
1.319959e+02	-2.062291e+01
1.327583e+02	-2.067380e+01
1.335251e+02	-2.072144e+01
1.342963e+02	-2.077067e+01
1.350720e+02	-2.082128e+01
1.358522e+02	-2.087213e+01
1.366368e+02	-2.091974e+01
1.374260e+02	-2.097199e+01
1.382198e+02	-2.101858e+01
1.390182e+02	-2.106894e+01
1.398211e+02	-2.111657e+01
1.406287e+02	-2.116843e+01
1.414410e+02	-2.121828e+01
1.422579e+02	-2.126817e+01
1.430796e+02	-2.131747e+01
1.439060e+02	-2.136866e+01
1.447372e+02	-2.141689e+01
1.455732e+02	-2.146722e+01
1.464141e+02	-2.151864e+01
1.472597e+02	-2.156594e+01
1.481103e+02	-2.161621e+01
1.489658e+02	-2.166435e+01
1.498262e+02	-2.171617e+01
1.506916e+02	-2.176408e+01
1.515620e+02	-2.181521e+01
1.524374e+02	-2.186448e+01
1.533179e+02	-2.191592e+01
1.542034e+02	-2.196317e+01
1.550941e+02	-2.201318e+01
1.559899e+02	-2.206589e+01
1.568909e+02	-2.211163e+01
1.577971e+02	-2.216250e+01
1.587085e+02	-2.221242e+01
1.596252e+02	-2.226414e+01
1.605472e+02	-2.230968e+01
1.614745e+02	-2.236135e+01
1.624072e+02	-2.241093e+01
1.633453e+02	-2.246069e+01
1.642887e+02	-2.250866e+01
1.652377e+02	-2.256169e+01
1.661921e+02	-2.261056e+01
1.671520e+02	-2.266135e+01
1.681175e+02	-2.271116e+01
1.690885e+02	-2.276122e+01
1.700651e+02	-2.281081e+01
1.710474e+02	-2.286066e+01
1.720354e+02	-2.291018e+01
1.730291e+02	-2.296082e+01
1.740285e+02	-2.300923e+01
1.750337e+02	-2.305845e+01
1.760446e+02	-2.310848e+01
1.770615e+02	-2.315843e+01
1.780842e+02	-2.320840e+01
1.791128e+02	-2.325781e+01
1.801473e+02	-2.330827e+01
1.811878e+02	-2.335637e+01
1.822344e+02	-2.340554e+01
1.832870e+02	-2.345484e+01
1.843456e+02	-2.350645e+01
1.854104e+02	-2.355832e+01
1.864813e+02	-2.360602e+01
1.875584e+02	-2.365793e+01
1.886418e+02	-2.370647e+01
1.897313e+02	-2.375604e+01
1.908272e+02	-2.380716e+01
1.919294e+02	-2.385675e+01
1.930380e+02	-2.390422e+01
1.941530e+02	-2.395669e+01
1.952744e+02	-2.400654e+01
1.964023e+02	-2.405588e+01
1.975367e+02	-2.410562e+01
1.986777e+02	-2.415545e+01
1.998252e+02	-2.420343e+01
2.009794e+02	-2.425477e+01
2.021403e+02	-2.430538e+01
2.033078e+02	-2.435478e+01
2.044821e+02	-2.440548e+01
2.056632e+02	-2.445387e+01
2.068511e+02	-2.450399e+01
2.080459e+02	-2.455333e+01
2.092475e+02	-2.460343e+01
2.104561e+02	-2.465349e+01
2.116717e+02	-2.470144e+01
2.128943e+02	-2.475228e+01
2.141240e+02	-2.480263e+01
2.153608e+02	-2.485280e+01
2.166047e+02	-2.490439e+01
2.178558e+02	-2.495357e+01
2.191141e+02	-2.500503e+01
2.203797e+02	-2.505502e+01
2.216526e+02	-2.510472e+01
2.229329e+02	-2.515474e+01
2.242205e+02	-2.520119e+01
2.255156e+02	-2.524985e+01
2.268182e+02	-2.530076e+01
2.281283e+02	-2.535196e+01
2.294459e+02	-2.540075e+01
2.307712e+02	-2.545354e+01
2.321041e+02	-2.549894e+01
2.334447e+02	-2.555361e+01
2.347931e+02	-2.560148e+01
2.361493e+02	-2.565185e+01
2.375133e+02	-2.570319e+01
2.388851e+02	-2.575276e+01
2.402649e+02	-2.580503e+01
2.416527e+02	-2.585100e+01
2.430484e+02	-2.589993e+01
2.444523e+02	-2.595367e+01
2.458642e+02	-2.600532e+01
2.472843e+02	-2.604949e+01
2.487126e+02	-2.610284e+01
2.501492e+02	-2.615401e+01
2.515940e+02	-2.620197e+01
2.530472e+02	-2.625050e+01
2.545088e+02	-2.629762e+01
2.559789e+02	-2.635196e+01
2.574574e+02	-2.640014e+01
2.589444e+02	-2.645090e+01
2.604401e+02	-2.650158e+01
2.619444e+02	-2.655275e+01
2.634574e+02	-2.660106e+01
2.649791e+02	-2.664933e+01
2.665096e+02	-2.669853e+01
2.680489e+02	-2.674869e+01
2.695972e+02	-2.680268e+01
2.711544e+02	-2.685114e+01
2.727205e+02	-2.690250e+01
2.742958e+02	-2.694852e+01
2.758801e+02	-2.700471e+01
2.774736e+02	-2.705161e+01
2.790762e+02	-2.710112e+01
2.806882e+02	-2.715215e+01
2.823094e+02	-2.720224e+01
2.839400e+02	-2.725438e+01
2.855800e+02	-2.729920e+01
2.872295e+02	-2.735277e+01
2.888886e+02	-2.740265e+01
2.905572e+02	-2.745172e+01
2.922354e+02	-2.750095e+01
2.939234e+02	-2.755320e+01
2.956211e+02	-2.760330e+01
2.973286e+02	-2.765131e+01
2.990459e+02	-2.770134e+01
3.007732e+02	-2.775194e+01
3.025104e+02	-2.780223e+01
3.042577e+02	-2.785568e+01
3.060151e+02	-2.789873e+01
3.077826e+02	-2.794959e+01
3.095604e+02	-2.799847e+01
3.113484e+02	-2.805051e+01
3.131467e+02	-2.810147e+01
3.149554e+02	-2.814822e+01
3.167746e+02	-2.820285e+01
3.186043e+02	-2.825311e+01
3.204445e+02	-2.830339e+01
3.222954e+02	-2.835088e+01
3.241570e+02	-2.839855e+01
3.260293e+02	-2.844964e+01
3.279124e+02	-2.850251e+01
3.298064e+02	-2.855505e+01
3.317114e+02	-2.859936e+01
3.336273e+02	-2.865009e+01
3.355544e+02	-2.870360e+01
3.374925e+02	-2.875306e+01
3.394418e+02	-2.880367e+01
3.414024e+02	-2.885235e+01
3.433744e+02	-2.889816e+01
3.453577e+02	-2.895620e+01
3.473525e+02	-2.900223e+01
3.493588e+02	-2.904952e+01
3.513766e+02	-2.910186e+01
3.534062e+02	-2.915542e+01
3.554474e+02	-2.920386e+01
3.575005e+02	-2.924992e+01
3.595654e+02	-2.930399e+01
3.616422e+02	-2.935322e+01
3.637311e+02	-2.940133e+01
3.658320e+02	-2.945362e+01
3.679450e+02	-2.950502e+01
3.700702e+02	-2.954832e+01
3.722077e+02	-2.960338e+01
3.743576e+02	-2.965191e+01
3.765199e+02	-2.969840e+01
3.786946e+02	-2.975500e+01
3.808820e+02	-2.980063e+01
3.830819e+02	-2.985340e+01
3.852946e+02	-2.989897e+01
3.875200e+02	-2.995802e+01
3.897583e+02	-3.000766e+01
3.920096e+02	-3.005403e+01
3.942738e+02	-3.011133e+01
3.965511e+02	-3.015350e+01
3.988416e+02	-3.020699e+01
4.011452e+02	-3.025736e+01
4.034622e+02	-3.030223e+01
4.057926e+02	-3.035581e+01
4.081365e+02	-3.040503e+01
4.104938e+02	-3.045634e+01
4.128648e+02	-3.050661e+01
4.152495e+02	-3.055374e+01
4.176480e+02	-3.060513e+01
4.200603e+02	-3.065549e+01
4.224866e+02	-3.070710e+01
4.249268e+02	-3.075444e+01
4.273812e+02	-3.080636e+01
4.298497e+02	-3.085938e+01
4.323325e+02	-3.091011e+01
4.348297e+02	-3.095228e+01
4.373412e+02	-3.100977e+01
4.398673e+02	-3.105560e+01
4.424079e+02	-3.110918e+01
4.449633e+02	-3.115396e+01
4.475334e+02	-3.120970e+01
4.501183e+02	-3.125936e+01
4.527182e+02	-3.130981e+01
4.553330e+02	-3.135822e+01
4.579630e+02	-3.140993e+01
4.606082e+02	-3.145902e+01
4.632687e+02	-3.150796e+01
4.659445e+02	-3.155661e+01
4.686358e+02	-3.160681e+01
4.713426e+02	-3.166126e+01
4.740650e+02	-3.170868e+01
4.768032e+02	-3.175169e+01
4.795572e+02	-3.181158e+01
4.823271e+02	-3.185506e+01
4.851130e+02	-3.190454e+01
4.879150e+02	-3.195823e+01
4.907332e+02	-3.200844e+01
4.935676e+02	-3.205645e+01
4.964185e+02	-3.210643e+01
4.992858e+02	-3.216145e+01
5.021696e+02	-3.221168e+01
5.050701e+02	-3.226096e+01
5.079874e+02	-3.231118e+01
5.109215e+02	-3.236581e+01
5.138726e+02	-3.240987e+01
5.168407e+02	-3.246368e+01
5.198259e+02	-3.251083e+01
5.228284e+02	-3.256170e+01
5.258482e+02	-3.261619e+01
5.288855e+02	-3.266430e+01
5.319403e+02	-3.271148e+01
5.350128e+02	-3.276257e+01
5.381030e+02	-3.281361e+01
5.412111e+02	-3.285795e+01
5.443371e+02	-3.291549e+01
5.474812e+02	-3.296675e+01
5.506434e+02	-3.302091e+01
5.538239e+02	-3.306821e+01
5.570228e+02	-3.311622e+01
5.602401e+02	-3.316169e+01
5.634760e+02	-3.321178e+01
5.667306e+02	-3.326809e+01
5.700040e+02	-3.331652e+01
5.732964e+02	-3.337653e+01
5.766077e+02	-3.341563e+01
5.799382e+02	-3.346838e+01
5.832879e+02	-3.351658e+01
5.866569e+02	-3.357051e+01
5.900454e+02	-3.362717e+01
5.934535e+02	-3.367318e+01
5.968813e+02	-3.372103e+01
6.003288e+02	-3.377173e+01
6.037963e+02	-3.382407e+01
6.072838e+02	-3.386916e+01
6.107914e+02	-3.392615e+01
6.143194e+02	-3.396510e+01
6.178676e+02	-3.402548e+01
6.214364e+02	-3.406824e+01
6.250258e+02	-3.411814e+01
6.286359e+02	-3.416787e+01
6.322669e+02	-3.423429e+01
6.359189e+02	-3.427251e+01
6.395919e+02	-3.431772e+01
6.432862e+02	-3.437734e+01
6.470017e+02	-3.442472e+01
6.507388e+02	-3.446873e+01
6.544974e+02	-3.452373e+01
6.582778e+02	-3.457667e+01
6.620800e+02	-3.462053e+01
6.659041e+02	-3.467613e+01
6.697504e+02	-3.472487e+01
6.736188e+02	-3.477090e+01
6.775096e+02	-3.482693e+01
6.814229e+02	-3.487892e+01
6.853587e+02	-3.493086e+01
6.893173e+02	-3.498851e+01
6.932988e+02	-3.502859e+01
6.973033e+02	-3.508193e+01
7.013309e+02	-3.513211e+01
