Frequency(Hz)	Magnitude(dB)
1.000000e+01	-2.200474e+00
1.005776e+01	-2.220594e+00
1.011585e+01	-2.240795e+00
1.017428e+01	-2.260844e+00
1.023305e+01	-2.281324e+00
1.029215e+01	-2.301788e+00
1.035160e+01	-2.322385e+00
1.041139e+01	-2.343249e+00
1.047153e+01	-2.363900e+00
1.053201e+01	-2.385212e+00
1.059284e+01	-2.406329e+00
1.065403e+01	-2.427826e+00
1.071556e+01	-2.449387e+00
1.077746e+01	-2.470819e+00
1.083971e+01	-2.492584e+00
1.090232e+01	-2.514511e+00
1.096529e+01	-2.536534e+00
1.102862e+01	-2.558815e+00
1.109232e+01	-2.581147e+00
1.115639e+01	-2.603728e+00
1.122083e+01	-2.626097e+00
1.128564e+01	-2.649022e+00
1.135083e+01	-2.671889e+00
1.141639e+01	-2.695004e+00
1.148233e+01	-2.718152e+00
1.154865e+01	-2.741563e+00
1.161536e+01	-2.764959e+00
1.168245e+01	-2.788847e+00
1.174992e+01	-2.812240e+00
1.181779e+01	-2.836370e+00
1.188605e+01	-2.860212e+00
1.195470e+01	-2.884670e+00
1.202375e+01	-2.909130e+00
1.209320e+01	-2.933518e+00
1.216305e+01	-2.958210e+00
1.223330e+01	-2.982761e+00
1.230396e+01	-3.008042e+00
1.237503e+01	-3.033076e+00
1.244651e+01	-3.058130e+00
1.251840e+01	-3.083453e+00
1.259070e+01	-3.108967e+00
1.266343e+01	-3.134501e+00
1.273657e+01	-3.160222e+00
1.281014e+01	-3.186550e+00
1.288413e+01	-3.212391e+00
1.295855e+01	-3.238519e+00
1.303339e+01	-3.265127e+00
1.310867e+01	-3.291520e+00
1.318439e+01	-3.318250e+00
1.326054e+01	-3.345055e+00
1.333713e+01	-3.372069e+00
1.341417e+01	-3.398998e+00
1.349165e+01	-3.426372e+00
1.356958e+01	-3.453538e+00
1.364795e+01	-3.481003e+00
1.372678e+01	-3.508867e+00
1.380607e+01	-3.536502e+00
1.388581e+01	-3.564454e+00
1.396602e+01	-3.592555e+00
1.404668e+01	-3.620962e+00
1.412782e+01	-3.649113e+00
1.420942e+01	-3.677629e+00
1.429149e+01	-3.706237e+00
1.437404e+01	-3.734686e+00
1.445706e+01	-3.764157e+00
1.454057e+01	-3.793162e+00
1.462455e+01	-3.822400e+00
1.470902e+01	-3.851635e+00
1.479398e+01	-3.881051e+00
1.487943e+01	-3.910463e+00
1.496537e+01	-3.940474e+00
1.505181e+01	-3.970480e+00
1.513875e+01	-4.000381e+00
1.522619e+01	-4.030624e+00
1.531414e+01	-4.061157e+00
1.540259e+01	-4.091437e+00
1.549156e+01	-4.121873e+00
1.558103e+01	-4.152835e+00
1.567103e+01	-4.183524e+00
1.576155e+01	-4.214452e+00
1.585258e+01	-4.245700e+00
1.594415e+01	-4.276832e+00
1.603624e+01	-4.308280e+00
1.612886e+01	-4.340081e+00
1.622202e+01	-4.371484e+00
1.631572e+01	-4.403269e+00
1.640996e+01	-4.435334e+00
1.650474e+01	-4.467475e+00
1.660008e+01	-4.499555e+00
1.669596e+01	-4.532409e+00
1.679239e+01	-4.564487e+00
1.688938e+01	-4.597158e+00
1.698694e+01	-4.629950e+00
1.708505e+01	-4.662450e+00
1.718373e+01	-4.695663e+00
1.728299e+01	-4.728895e+00
1.738281e+01	-4.761931e+00
1.748322e+01	-4.795411e+00
1.758420e+01	-4.829260e+00
1.768576e+01	-4.862601e+00
1.778792e+01	-4.896345e+00
1.789066e+01	-4.930275e+00
1.799399e+01	-4.964366e+00
1.809793e+01	-4.998428e+00
1.820246e+01	-5.032744e+00
1.830760e+01	-5.067109e+00
1.841334e+01	-5.101445e+00
1.851969e+01	-5.136237e+00
1.862666e+01	-5.170802e+00
1.873425e+01	-5.205770e+00
1.884246e+01	-5.240696e+00
1.895129e+01	-5.276093e+00
1.906075e+01	-5.311235e+00
1.917085e+01	-5.346192e+00
1.928158e+01	-5.381960e+00
1.939295e+01	-5.417770e+00
1.950496e+01	-5.453305e+00
1.961762e+01	-5.489047e+00
1.973093e+01	-5.525032e+00
1.984490e+01	-5.561189e+00
1.995952e+01	-5.597348e+00
2.007480e+01	-5.633785e+00
2.019076e+01	-5.670195e+00
2.030738e+01	-5.706605e+00
2.042467e+01	-5.743325e+00
2.054264e+01	-5.780028e+00
2.066130e+01	-5.817020e+00
2.078064e+01	-5.853771e+00
2.090066e+01	-5.890664e+00
2.102139e+01	-5.927789e+00
2.114280e+01	-5.965540e+00
2.126492e+01	-6.002891e+00
2.138775e+01	-6.040132e+00
2.151128e+01	-6.077607e+00
2.163553e+01	-6.115549e+00
2.176050e+01	-6.153706e+00
2.188619e+01	-6.191419e+00
2.201260e+01	-6.229420e+00
2.213974e+01	-6.267946e+00
2.226762e+01	-6.306262e+00
2.239624e+01	-6.344300e+00
2.252560e+01	-6.383012e+00
2.265571e+01	-6.421457e+00
2.278656e+01	-6.459965e+00
2.291818e+01	-6.498755e+00
2.305055e+01	-6.537251e+00
2.318369e+01	-6.576884e+00
2.331760e+01	-6.615514e+00
2.345228e+01	-6.654562e+00
2.358774e+01	-6.694256e+00
2.372398e+01	-6.733516e+00
2.386101e+01	-6.772916e+00
2.399883e+01	-6.812576e+00
2.413745e+01	-6.851748e+00
2.427686e+01	-6.891684e+00
2.441709e+01	-6.931814e+00
2.455812e+01	-6.971743e+00
2.469997e+01	-7.012212e+00
2.484263e+01	-7.051905e+00
2.498612e+01	-7.092420e+00
2.513044e+01	-7.132322e+00
2.527559e+01	-7.172764e+00
2.542158e+01	-7.213380e+00
2.556842e+01	-7.253854e+00
2.571610e+01	-7.294706e+00
2.586463e+01	-7.335142e+00
2.601403e+01	-7.376085e+00
2.616428e+01	-7.416773e+00
2.631541e+01	-7.458074e+00
2.646740e+01	-7.498972e+00
2.662028e+01	-7.539703e+00
2.677404e+01	-7.581502e+00
2.692868e+01	-7.622965e+00
2.708422e+01	-7.664266e+00
2.724066e+01	-7.705549e+00
2.739800e+01	-7.747330e+00
2.755625e+01	-7.789276e+00
2.771541e+01	-7.830530e+00
2.787550e+01	-7.872374e+00
2.803650e+01	-7.914431e+00
2.819844e+01	-7.956287e+00
2.836131e+01	-7.998656e+00
2.852513e+01	-8.040675e+00
2.868989e+01	-8.082717e+00
2.885560e+01	-8.125380e+00
2.902227e+01	-8.167260e+00
2.918990e+01	-8.209569e+00
2.935850e+01	-8.252174e+00
2.952807e+01	-8.295334e+00
2.969863e+01	-8.337755e+00
2.987016e+01	-8.379947e+00
3.004269e+01	-8.423293e+00
3.021622e+01	-8.465770e+00
3.039075e+01	-8.508919e+00
3.056628e+01	-8.551740e+00
3.074283e+01	-8.595135e+00
3.092040e+01	-8.637956e+00
3.109900e+01	-8.681148e+00
3.127862e+01	-8.724816e+00
3.145929e+01	-8.768101e+00
3.164099e+01	-8.811465e+00
3.182375e+01	-8.854541e+00
3.200756e+01	-8.898124e+00
3.219244e+01	-8.942140e+00
3.237838e+01	-8.985893e+00
3.256540e+01	-9.029628e+00
3.275349e+01	-9.073330e+00
3.294268e+01	-9.117123e+00
3.313295e+01	-9.160978e+00
3.332433e+01	-9.204542e+00
3.351681e+01	-9.248953e+00
3.371040e+01	-9.293415e+00
3.390511e+01	-9.337372e+00
3.410094e+01	-9.381965e+00
3.429791e+01	-9.426107e+00
3.449601e+01	-9.470178e+00
3.469526e+01	-9.514742e+00
3.489566e+01	-9.559385e+00
3.509721e+01	-9.603691e+00
3.529993e+01	-9.647947e+00
3.550382e+01	-9.693035e+00
3.570889e+01	-9.737282e+00
3.591515e+01	-9.782522e+00
3.612259e+01	-9.827023e+00
3.633123e+01	-9.872051e+00
3.654108e+01	-9.916516e+00
3.675214e+01	-9.961372e+00
3.696442e+01	-1.000682e+01
3.717792e+01	-1.005167e+01
3.739266e+01	-1.009645e+01
3.760864e+01	-1.014205e+01
3.782587e+01	-1.018749e+01
3.804435e+01	-1.023240e+01
3.826409e+01	-1.027811e+01
3.848510e+01	-1.032372e+01
3.870739e+01	-1.036881e+01
3.893096e+01	-1.041440e+01
3.915583e+01	-1.045961e+01
3.938199e+01	-1.050540e+01
3.960946e+01	-1.055021e+01
3.983824e+01	-1.059596e+01
4.006834e+01	-1.064192e+01
4.029978e+01	-1.068775e+01
4.053255e+01	-1.073434e+01
4.076666e+01	-1.077957e+01
4.100213e+01	-1.082520e+01
4.123896e+01	-1.087105e+01
4.147715e+01	-1.091769e+01
4.171672e+01	-1.096376e+01
4.195767e+01	-1.100913e+01
4.220002e+01	-1.105516e+01
4.244377e+01	-1.110123e+01
4.268892e+01	-1.114727e+01
4.293549e+01	-1.119339e+01
4.318348e+01	-1.124015e+01
4.343291e+01	-1.128711e+01
4.368377e+01	-1.133252e+01
4.393609e+01	-1.137948e+01
4.418986e+01	-1.142556e+01
4.444510e+01	-1.147188e+01
4.470182e+01	-1.151776e+01
4.496001e+01	-1.156493e+01
4.521970e+01	-1.161133e+01
4.548089e+01	-1.165797e+01
4.574358e+01	-1.170404e+01
4.600779e+01	-1.175135e+01
4.627353e+01	-1.179822e+01
4.654081e+01	-1.184449e+01
4.680963e+01	-1.189126e+01
4.708000e+01	-1.193884e+01
4.735193e+01	-1.198492e+01
4.762543e+01	-1.203187e+01
4.790051e+01	-1.207903e+01
4.817719e+01	-1.212590e+01
4.845545e+01	-1.217269e+01
4.873533e+01	-1.221991e+01
4.901682e+01	-1.226690e+01
4.929994e+01	-1.231378e+01
4.958470e+01	-1.236100e+01
4.987110e+01	-1.240877e+01
5.015915e+01	-1.245616e+01
5.044887e+01	-1.250257e+01
5.074026e+01	-1.254985e+01
5.103333e+01	-1.259739e+01
5.132810e+01	-1.264402e+01
5.162457e+01	-1.269229e+01
5.192275e+01	-1.273896e+01
5.222265e+01	-1.278650e+01
5.252429e+01	-1.283382e+01
5.282767e+01	-1.288113e+01
5.313280e+01	-1.292867e+01
5.343969e+01	-1.297709e+01
5.374836e+01	-1.302340e+01
5.405880e+01	-1.307116e+01
5.437105e+01	-1.311917e+01
5.468509e+01	-1.316653e+01
5.500095e+01	-1.321433e+01
5.531863e+01	-1.326186e+01
5.563815e+01	-1.330936e+01
5.595951e+01	-1.335732e+01
5.628273e+01	-1.340458e+01
5.660782e+01	-1.345239e+01
5.693479e+01	-1.350050e+01
5.726364e+01	-1.354792e+01
5.759439e+01	-1.359564e+01
5.792705e+01	-1.364310e+01
5.826164e+01	-1.369155e+01
5.859815e+01	-1.374026e+01
5.893662e+01	-1.378747e+01
5.927703e+01	-1.383524e+01
5.961941e+01	-1.388322e+01
5.996377e+01	-1.393160e+01
6.031012e+01	-1.397984e+01
6.065847e+01	-1.402721e+01
6.100883e+01	-1.407563e+01
6.136121e+01	-1.412426e+01
6.171563e+01	-1.417158e+01
6.207210e+01	-1.422097e+01
6.243063e+01	-1.426861e+01
6.279122e+01	-1.431584e+01
6.315390e+01	-1.436439e+01
6.351868e+01	-1.441240e+01
6.388556e+01	-1.446114e+01
6.425456e+01	-1.450931e+01
6.462569e+01	-1.455711e+01
6.499897e+01	-1.460478e+01
6.537440e+01	-1.465445e+01
6.575200e+01	-1.470278e+01
6.613178e+01	-1.474975e+01
6.651375e+01	-1.479883e+01
6.689793e+01	-1.484801e+01
6.728433e+01	-1.489630e+01
6.767297e+01	-1.494430e+01
6.806384e+01	-1.499114e+01
6.845698e+01	-1.504166e+01
6.885238e+01	-1.508956e+01
6.925007e+01	-1.513851e+01
6.965005e+01	-1.518619e+01
7.005235e+01	-1.523550e+01
7.045697e+01	-1.528350e+01
7.086393e+01	-1.533195e+01
7.127323e+01	-1.538007e+01
7.168490e+01	-1.542995e+01
7.209895e+01	-1.547897e+01
7.251539e+01	-1.552670e+01
7.293424e+01	-1.557456e+01
7.335551e+01	-1.562429e+01
7.377920e+01	-1.567360e+01
7.420535e+01	-1.572137e+01
7.463396e+01	-1.577034e+01
7.506504e+01	-1.581795e+01
7.549861e+01	-1.586761e+01
7.593469e+01	-1.591652e+01
7.637328e+01	-1.596460e+01
7.681441e+01	-1.601338e+01
7.725809e+01	-1.606259e+01
7.770433e+01	-1.611075e+01
7.815315e+01	-1.615974e+01
7.860456e+01	-1.620997e+01
7.905857e+01	-1.625751e+01
7.951521e+01	-1.630622e+01
7.997449e+01	-1.635558e+01
8.043642e+01	-1.640435e+01
8.090102e+01	-1.645369e+01
8.136830e+01	-1.650295e+01
8.183828e+01	-1.655117e+01
8.231097e+01	-1.660063e+01
8.278640e+01	-1.664924e+01
8.326457e+01	-1.669788e+01
8.374550e+01	-1.674632e+01
8.422921e+01	-1.679580e+01
8.471572e+01	-1.684538e+01
8.520503e+01	-1.689435e+01
8.569717e+01	-1.694264e+01
8.619215e+01	-1.699147e+01
8.669000e+01	-1.704078e+01
8.719071e+01	-1.708977e+01
8.769432e+01	-1.713791e+01
8.820084e+01	-1.718739e+01
8.871029e+01	-1.723599e+01
8.922267e+01	-1.728653e+01
8.973802e+01	-1.733483e+01
9.025634e+01	-1.738473e+01
9.077766e+01	-1.743329e+01
9.130199e+01	-1.748312e+01
9.182935e+01	-1.753147e+01
9.235975e+01	-1.758051e+01
9.289321e+01	-1.762897e+01
9.342976e+01	-1.767947e+01
9.396941e+01	-1.772883e+01
9.451217e+01	-1.777840e+01
9.505807e+01	-1.782610e+01
9.560712e+01	-1.787629e+01
9.615934e+01	-1.792511e+01
9.671476e+01	-1.797344e+01
9.727338e+01	-1.802342e+01
9.783522e+01	-1.807319e+01
9.840032e+01	-1.812317e+01
9.896867e+01	-1.817221e+01
9.954031e+01	-1.822052e+01
1.001153e+02	-1.827035e+01
1.006935e+02	-1.831939e+01
1.012751e+02	-1.836828e+01
1.018601e+02	-1.841742e+01
1.024484e+02	-1.846639e+01
1.030402e+02	-1.851698e+01
1.036353e+02	-1.856499e+01
1.042339e+02	-1.861542e+01
1.048360e+02	-1.866467e+01
1.054415e+02	-1.871434e+01
1.060505e+02	-1.876441e+01
1.066631e+02	-1.881251e+01
1.072791e+02	-1.886216e+01
1.078988e+02	-1.891197e+01
1.085220e+02	-1.896063e+01
1.091488e+02	-1.901091e+01
1.097793e+02	-1.905996e+01
1.104133e+02	-1.910914e+01
1.110511e+02	-1.915884e+01
1.116925e+02	-1.920543e+01
1.123376e+02	-1.925824e+01
1.129865e+02	-1.930802e+01
1.136391e+02	-1.935711e+01
1.142955e+02	-1.940525e+01
1.149556e+02	-1.945633e+01
1.156196e+02	-1.950410e+01
1.162874e+02	-1.955465e+01
1.169591e+02	-1.960237e+01
1.176347e+02	-1.965390e+01
1.183141e+02	-1.970223e+01
1.189975e+02	-1.975003e+01
1.196848e+02	-1.980277e+01
1.203761e+02	-1.985262e+01
1.210714e+02	-1.990094e+01
1.217707e+02	-1.994866e+01
1.224740e+02	-1.999940e+01
1.231814e+02	-2.005125e+01
1.238929e+02	-2.009847e+01
1.246085e+02	-2.014905e+01
1.253283e+02	-2.019885e+01
1.260522e+02	-2.024876e+01
1.267802e+02	-2.029706e+01
1.275125e+02	-2.034600e+01
1.282490e+02	-2.039687e+01
1.289898e+02	-2.044547e+01
1.297348e+02	-2.049619e+01
1.304842e+02	-2.054453e+01
1.312378e+02	-2.059390e+01
1.319959e+02	-2.064530e+01
1.327583e+02	-2.069378e+01
1.335251e+02	-2.074372e+01
1.342963e+02	-2.079216e+01
1.350720e+02	-2.084200e+01
1.358522e+02	-2.089131e+01
1.366368e+02	-2.094031e+01
1.374260e+02	-2.099057e+01
1.382198e+02	-2.104184e+01
1.390182e+02	-2.109072e+01
1.398211e+02	-2.114170e+01
1.406287e+02	-2.119011e+01
1.414410e+02	-2.123888e+01
1.422579e+02	-2.128889e+01
1.430796e+02	-2.133840e+01
1.439060e+02	-2.138915e+01
1.447372e+02	-2.143935e+01
1.455732e+02	-2.149037e+01
1.464141e+02	-2.153802e+01
1.472597e+02	-2.158690e+01
1.481103e+02	-2.163840e+01
1.489658e+02	-2.168758e+01
1.498262e+02	-2.173873e+01
1.506916e+02	-2.178609e+01
1.515620e+02	-2.183649e+01
1.524374e+02	-2.188578e+01
1.533179e+02	-2.193719e+01
1.542034e+02	-2.198448e+01
1.550941e+02	-2.203428e+01
1.559899e+02	-2.208525e+01
1.568909e+02	-2.213362e+01
1.577971e+02	-2.218429e+01
1.587085e+02	-2.223530e+01
1.596252e+02	-2.228509e+01
1.605472e+02	-2.233367e+01
1.614745e+02	-2.238345e+01
1.624072e+02	-2.243300e+01
1.633453e+02	-2.248448e+01
1.642887e+02	-2.253220e+01
1.652377e+02	-2.258373e+01
1.661921e+02	-2.263140e+01
1.671520e+02	-2.268033e+01
1.681175e+02	-2.273075e+01
1.690885e+02	-2.278246e+01
1.700651e+02	-2.282997e+01
1.710474e+02	-2.288138e+01
1.720354e+02	-2.293120e+01
1.730291e+02	-2.298088e+01
1.740285e+02	-2.302868e+01
1.750337e+02	-2.307993e+01
1.760446e+02	-2.312802e+01
1.770615e+02	-2.318067e+01
1.780842e+02	-2.322986e+01
1.791128e+02	-2.328080e+01
1.801473e+02	-2.332957e+01
1.811878e+02	-2.337972e+01
1.822344e+02	-2.343083e+01
1.832870e+02	-2.348104e+01
1.843456e+02	-2.352796e+01
1.854104e+02	-2.357730e+01
1.864813e+02	-2.362668e+01
1.875584e+02	-2.368002e+01
1.886418e+02	-2.373039e+01
1.897313e+02	-2.377651e+01
1.908272e+02	-2.382774e+01
1.919294e+02	-2.387637e+01
1.930380e+02	-2.392703e+01
1.941530e+02	-2.397881e+01
1.952744e+02	-2.402891e+01
1.964023e+02	-2.407466e+01
1.975367e+02	-2.412710e+01
1.986777e+02	-2.417499e+01
1.998252e+02	-2.422615e+01
2.009794e+02	-2.427373e+01
2.021403e+02	-2.432582e+01
2.033078e+02	-2.437724e+01
2.044821e+02	-2.442771e+01
2.056632e+02	-2.447499e+01
2.068511e+02	-2.452674e+01
2.080459e+02	-2.457695e+01
2.092475e+02	-2.462367e+01
2.104561e+02	-2.467686e+01
2.116717e+02	-2.472500e+01
2.128943e+02	-2.477336e+01
2.141240e+02	-2.482430e+01
2.153608e+02	-2.487702e+01
2.166047e+02	-2.492593e+01
2.178558e+02	-2.497692e+01
2.191141e+02	-2.502652e+01
2.203797e+02	-2.507508e+01
2.216526e+02	-2.512620e+01
2.229329e+02	-2.517332e+01
2.242205e+02	-2.522590e+01
2.255156e+02	-2.527424e+01
2.268182e+02	-2.532317e+01
2.281283e+02	-2.537363e+01
2.294459e+02	-2.542267e+01
2.307712e+02	-2.547354e+01
2.321041e+02	-2.552373e+01
2.334447e+02	-2.557228e+01
2.347931e+02	-2.562572e+01
2.361493e+02	-2.567304e+01
2.375133e+02	-2.572153e+01
2.388851e+02	-2.577533e+01
2.402649e+02	-2.582400e+01
2.416527e+02	-2.587343e+01
2.430484e+02	-2.592299e+01
2.444523e+02	-2.597299e+01
2.458642e+02	-2.602234e+01
2.472843e+02	-2.607295e+01
2.487126e+02	-2.612373e+01
2.501492e+02	-2.617307e+01
2.515940e+02	-2.622894e+01
2.530472e+02	-2.627252e+01
2.545088e+02	-2.632152e+01
2.559789e+02	-2.637230e+01
2.574574e+02	-2.641997e+01
2.589444e+02	-2.647403e+01
2.604401e+02	-2.652198e+01
2.619444e+02	-2.657209e+01
2.634574e+02	-2.662356e+01
2.649791e+02	-2.667399e+01
2.665096e+02	-2.672252e+01
2.680489e+02	-2.677192e+01
2.695972e+02	-2.682088e+01
2.711544e+02	-2.687094e+01
2.727205e+02	-2.692376e+01
2.742958e+02	-2.697310e+01
2.758801e+02	-2.702204e+01
2.774736e+02	-2.706990e+01
2.790762e+02	-2.712492e+01
2.806882e+02	-2.717289e+01
2.823094e+02	-2.722542e+01
2.839400e+02	-2.727334e+01
2.855800e+02	-2.732467e+01
2.872295e+02	-2.737167e+01
2.888886e+02	-2.742228e+01
2.905572e+02	-2.747487e+01
2.922354e+02	-2.752198e+01
2.939234e+02	-2.757409e+01
2.956211e+02	-2.762187e+01
2.973286e+02	-2.767098e+01
2.990459e+02	-2.772097e+01
3.007732e+02	-2.777178e+01
3.025104e+02	-2.782048e+01
3.042577e+02	-2.787516e+01
3.060151e+02	-2.791940e+01
3.077826e+02	-2.797303e+01
3.095604e+02	-2.802722e+01
3.113484e+02	-2.807294e+01
3.131467e+02	-2.812300e+01
3.149554e+02	-2.817404e+01
3.167746e+02	-2.822616e+01
3.186043e+02	-2.827330e+01
3.204445e+02	-2.832380e+01
3.222954e+02	-2.837300e+01
3.241570e+02	-2.842377e+01
3.260293e+02	-2.847306e+01
3.279124e+02	-2.852303e+01
3.298064e+02	-2.857453e+01
3.317114e+02	-2.862244e+01
3.336273e+02	-2.867378e+01
3.355544e+02	-2.872491e+01
3.374925e+02	-2.877258e+01
3.394418e+02	-2.882383e+01
3.414024e+02	-2.887629e+01
3.433744e+02	-2.892277e+01
3.453577e+02	-2.897462e+01
3.473525e+02	-2.902872e+01
3.493588e+02	-2.907506e+01
3.513766e+02	-2.912149e+01
3.534062e+02	-2.917491e+01
3.554474e+02	-2.922280e+01
3.575005e+02	-2.927774e+01
3.595654e+02	-2.932282e+01
3.616422e+02	-2.937405e+01
3.637311e+02	-2.942359e+01
3.658320e+02	-2.947427e+01
3.679450e+02	-2.952713e+01
3.700702e+02	-2.957226e+01
3.722077e+02	-2.962636e+01
3.743576e+02	-2.967223e+01
3.765199e+02	-2.972226e+01
3.786946e+02	-2.977682e+01
3.808820e+02	-2.982428e+01
3.830819e+02	-2.987323e+01
3.852946e+02	-2.992679e+01
3.875200e+02	-2.997611e+01
3.897583e+02	-3.002490e+01
3.920096e+02	-3.007671e+01
3.942738e+02	-3.012709e+01
3.965511e+02	-3.017475e+01
3.988416e+02	-3.022698e+01
4.011452e+02	-3.027456e+01
4.034622e+02	-3.032772e+01
4.057926e+02	-3.037749e+01
4.081365e+02	-3.042364e+01
4.104938e+02	-3.048095e+01
4.128648e+02	-3.052224e+01
4.152495e+02	-3.058255e+01
4.176480e+02	-3.061881e+01
4.200603e+02	-3.067118e+01
4.224866e+02	-3.073020e+01
4.249268e+02	-3.077726e+01
4.273812e+02	-3.082821e+01
4.298497e+02	-3.087850e+01
4.323325e+02	-3.093134e+01
4.348297e+02	-3.098447e+01
4.373412e+02	-3.102883e+01
4.398673e+02	-3.108242e+01
4.424079e+02	-3.112850e+01
4.449633e+02	-3.118194e+01
4.475334e+02	-3.123182e+01
4.501183e+02	-3.128200e+01
4.527182e+02	-3.132805e+01
4.553330e+02	-3.137266e+01
4.579630e+02	-3.142957e+01
4.606082e+02	-3.147747e+01
4.632687e+02	-3.153373e+01
4.659445e+02	-3.158531e+01
4.686358e+02	-3.162934e+01
4.713426e+02	-3.167930e+01
4.740650e+02	-3.172150e+01
4.768032e+02	-3.178557e+01
4.795572e+02	-3.183346e+01
4.823271e+02	-3.188380e+01
4.851130e+02	-3.193222e+01
4.879150e+02	-3.198398e+01
4.907332e+02	-3.203737e+01
4.935676e+02	-3.208373e+01
4.964185e+02	-3.212938e+01
4.992858e+02	-3.218304e+01
5.021696e+02	-3.223548e+01
5.050701e+02	-3.228527e+01
5.079874e+02	-3.232520e+01
5.109215e+02	-3.238326e+01
5.138726e+02	-3.243086e+01
5.168407e+02	-3.248590e+01
5.198259e+02	-3.253264e+01
5.228284e+02	-3.258937e+01
5.258482e+02	-3.263087e+01
5.288855e+02	-3.267876e+01
5.319403e+02	-3.272841e+01
5.350128e+02	-3.278390e+01
5.381030e+02	-3.283506e+01
5.412111e+02	-3.288559e+01
5.443371e+02	-3.293096e+01
5.474812e+02	-3.298635e+01
5.506434e+02	-3.304119e+01
5.538239e+02	-3.308637e+01
5.570228e+02	-3.313251e+01
5.602401e+02	-3.318681e+01
5.634760e+02	-3.324223e+01
5.667306e+02	-3.328246e+01
5.700040e+02	-3.333964e+01
5.732964e+02	-3.338714e+01
5.766077e+02	-3.343373e+01
5.799382e+02	-3.349091e+01
5.832879e+02	-3.354437e+01
5.866569e+02	-3.359500e+01
5.900454e+02	-3.364885e+01
5.934535e+02	-3.369769e+01
5.968813e+02	-3.373955e+01
6.003288e+02	-3.379642e+01
6.037963e+02	-3.384067e+01
6.072838e+02	-3.390191e+01
6.107914e+02	-3.394059e+01
6.143194e+02	-3.399099e+01
6.178676e+02	-3.404843e+01
6.214364e+02	-3.409438e+01
6.250258e+02	-3.413704e+01
6.286359e+02	-3.419765e+01
6.322669e+02	-3.424337e+01
6.359189e+02	-3.428877e+01
6.395919e+02	-3.433951e+01
6.432862e+02	-3.439942e+01
6.470017e+02	-3.444069e+01
6.507388e+02	-3.449451e+01
6.544974e+02	-3.454671e+01
6.582778e+02	-3.460067e+01
6.620800e+02	-3.465371e+01
6.659041e+02	-3.469530e+01
6.697504e+02	-3.474301e+01
6.736188e+02	-3.479409e+01
6.775096e+02	-3.485364e+01
6.814229e+02	-3.489082e+01
6.853587e+02	-3.495074e+01
6.893173e+02	-3.500104e+01
6.932988e+02	-3.504213e+01
6.973033e+02	-3.508681e+01
7.013309e+02	-3.515345e+01
