Frequency(Hz)	Magnitude(dB)
1.000000e+01	-2.190810e+00
1.005776e+01	-2.210550e+00
1.011585e+01	-2.230554e+00
1.017428e+01	-2.250916e+00
1.023305e+01	-2.270976e+00
1.029215e+01	-2.291587e+00
1.035160e+01	-2.312199e+00
1.041139e+01	-2.332868e+00
1.047153e+01	-2.353569e+00
1.053201e+01	-2.374620e+00
1.059284e+01	-2.396043e+00
1.065403e+01	-2.417302e+00
1.071556e+01	-2.438683e+00
1.077746e+01	-2.460114e+00
1.083971e+01	-2.482099e+00
1.090232e+01	-2.503812e+00
1.096529e+01	-2.525760e+00
1.102862e+01	-2.547750e+00
1.109232e+01	-2.570162e+00
1.115639e+01	-2.592596e+00
1.122083e+01	-2.615108e+00
1.128564e+01	-2.637783e+00
1.135083e+01	-2.660703e+00
1.141639e+01	-2.683503e+00
1.148233e+01	-2.706820e+00
1.154865e+01	-2.730019e+00
1.161536e+01	-2.753556e+00
1.168245e+01	-2.777021e+00
1.174992e+01	-2.800865e+00
1.181779e+01	-2.824775e+00
1.188605e+01	-2.848493e+00
1.195470e+01	-2.872720e+00
1.202375e+01	-2.897136e+00
1.209320e+01	-2.921463e+00
1.216305e+01	-2.946227e+00
1.223330e+01	-2.970676e+00
1.230396e+01	-2.995656e+00
1.237503e+01	-3.020560e+00
1.244651e+01	-3.045789e+00
1.251840e+01	-3.070959e+00
1.259070e+01	-3.096615e+00
1.266343e+01	-3.121970e+00
1.273657e+01	-3.147651e+00
1.281014e+01	-3.173610e+00
1.288413e+01	-3.199672e+00
1.295855e+01	-3.225565e+00
1.303339e+01	-3.251901e+00
1.310867e+01	-3.278205e+00
1.318439e+01	-3.305034e+00
1.326054e+01	-3.331818e+00
1.333713e+01	-3.358587e+00
1.341417e+01	-3.385650e+00
1.349165e+01	-3.412897e+00
1.356958e+01	-3.439917e+00
1.364795e+01	-3.467744e+00
1.372678e+01	-3.495013e+00
1.380607e+01	-3.522919e+00
1.388581e+01	-3.550529e+00
1.396602e+01	-3.578888e+00
1.404668e+01	-3.606870e+00
1.412782e+01	-3.635075e+00
1.420942e+01	-3.663677e+00
1.429149e+01	-3.692158e+00
1.437404e+01	-3.720861e+00
1.445706e+01	-3.749730e+00
1.454057e+01	-3.778593e+00
1.462455e+01	-3.807905e+00
1.470902e+01	-3.837334e+00
1.479398e+01	-3.866348e+00
1.487943e+01	-3.896431e+00
1.496537e+01	-3.925712e+00
1.505181e+01	-3.955629e+00
1.513875e+01	-3.985570e+00
1.522619e+01	-4.015637e+00
1.531414e+01	-4.045906e+00
1.540259e+01	-4.076682e+00
1.549156e+01	-4.106864e+00
1.558103e+01	-4.137518e+00
1.567103e+01	-4.168399e+00
1.576155e+01	-4.199334e+00
1.585258e+01	-4.230276e+00
1.594415e+01	-4.261535e+00
1.603624e+01	-4.293270e+00
1.612886e+01	-4.324166e+00
1.622202e+01	-4.356051e+00
1.631572e+01	-4.387752e+00
1.640996e+01	-4.419836e+00
1.650474e+01	-4.451674e+00
1.660008e+01	-4.484146e+00
1.669596e+01	-4.516018e+00
1.679239e+01	-4.548439e+00
1.688938e+01	-4.581318e+00
1.698694e+01	-4.613860e+00
1.708505e+01	-4.646758e+00
1.718373e+01	-4.679582e+00
1.728299e+01	-4.712178e+00
1.738281e+01	-4.745812e+00
1.748322e+01	-4.778988e+00
1.758420e+01	-4.812368e+00
1.768576e+01	-4.845972e+00
1.778792e+01	-4.879754e+00
1.789066e+01	-4.913402e+00
1.799399e+01	-4.947471e+00
1.809793e+01	-4.981651e+00
1.820246e+01	-5.015910e+00
1.830760e+01	-5.049954e+00
1.841334e+01	-5.084673e+00
1.851969e+01	-5.118847e+00
1.862666e+01	-5.153585e+00
1.873425e+01	-5.188817e+00
1.884246e+01	-5.223566e+00
1.895129e+01	-5.258607e+00
1.906075e+01	-5.293482e+00
1.917085e+01	-5.329154e+00
1.928158e+01	-5.364506e+00
1.939295e+01	-5.399796e+00
1.950496e+01	-5.435796e+00
1.961762e+01	-5.471513e+00
1.973093e+01	-5.507632e+00
1.984490e+01	-5.543612e+00
1.995952e+01	-5.579468e+00
2.007480e+01	-5.615856e+00
2.019076e+01	-5.652016e+00
2.030738e+01	-5.688526e+00
2.042467e+01	-5.725117e+00
2.054264e+01	-5.762225e+00
2.066130e+01	-5.798712e+00
2.078064e+01	-5.835444e+00
2.090066e+01	-5.872834e+00
2.102139e+01	-5.909718e+00
2.114280e+01	-5.946795e+00
2.126492e+01	-5.984381e+00
2.138775e+01	-6.021857e+00
2.151128e+01	-6.059574e+00
2.163553e+01	-6.096899e+00
2.176050e+01	-6.134926e+00
2.188619e+01	-6.172746e+00
2.201260e+01	-6.211056e+00
2.213974e+01	-6.248721e+00
2.226762e+01	-6.287209e+00
2.239624e+01	-6.325293e+00
2.252560e+01	-6.363493e+00
2.265571e+01	-6.402429e+00
2.278656e+01	-6.441301e+00
2.291818e+01	-6.480001e+00
2.305055e+01	-6.518498e+00
2.318369e+01	-6.557223e+00
2.331760e+01	-6.596645e+00
2.345228e+01	-6.635710e+00
2.358774e+01	-6.674763e+00
2.372398e+01	-6.714311e+00
2.386101e+01	-6.753945e+00
2.399883e+01	-6.793223e+00
2.413745e+01	-6.832626e+00
2.427686e+01	-6.872290e+00
2.441709e+01	-6.912291e+00
2.455812e+01	-6.952483e+00
2.469997e+01	-6.991815e+00
2.484263e+01	-7.032324e+00
2.498612e+01	-7.072173e+00
2.513044e+01	-7.112400e+00
2.527559e+01	-7.152695e+00
2.542158e+01	-7.193455e+00
2.556842e+01	-7.233616e+00
2.571610e+01	-7.274206e+00
2.586463e+01	-7.314880e+00
2.601403e+01	-7.355872e+00
2.616428e+01	-7.396666e+00
2.631541e+01	-7.437688e+00
2.646740e+01	-7.479066e+00
2.662028e+01	-7.519866e+00
2.677404e+01	-7.561207e+00
2.692868e+01	-7.602237e+00
2.708422e+01	-7.644265e+00
2.724066e+01	-7.685573e+00
2.739800e+01	-7.727218e+00
2.755625e+01	-7.768551e+00
2.771541e+01	-7.810083e+00
2.787550e+01	-7.852203e+00
2.803650e+01	-7.893713e+00
2.819844e+01	-7.936014e+00
2.836131e+01	-7.977878e+00
2.852513e+01	-8.019792e+00
2.868989e+01	-8.061843e+00
2.885560e+01	-8.104463e+00
2.902227e+01	-8.146623e+00
2.918990e+01	-8.188745e+00
2.935850e+01	-8.231257e+00
2.952807e+01	-8.273703e+00
2.969863e+01	-8.316472e+00
2.987016e+01	-8.359283e+00
3.004269e+01	-8.402153e+00
3.021622e+01	-8.444950e+00
3.039075e+01	-8.488062e+00
3.056628e+01	-8.530988e+00
3.074283e+01	-8.573732e+00
3.092040e+01	-8.616801e+00
3.109900e+01	-8.660131e+00
3.127862e+01	-8.702955e+00
3.145929e+01	-8.746480e+00
3.164099e+01	-8.789884e+00
3.182375e+01	-8.833439e+00
3.200756e+01	-8.877298e+00
3.219244e+01	-8.920331e+00
3.237838e+01	-8.964628e+00
3.256540e+01	-9.007717e+00
3.275349e+01	-9.052076e+00
3.294268e+01	-9.095823e+00
3.313295e+01	-9.139422e+00
3.332433e+01	-9.183963e+00
3.351681e+01	-9.227584e+00
3.371040e+01	-9.271571e+00
3.390511e+01	-9.315721e+00
3.410094e+01	-9.359899e+00
3.429791e+01	-9.403841e+00
3.449601e+01	-9.448185e+00
3.469526e+01	-9.493041e+00
3.489566e+01	-9.536752e+00
3.509721e+01	-9.582039e+00
3.529993e+01	-9.626424e+00
3.550382e+01	-9.671027e+00
3.570889e+01	-9.715301e+00
3.591515e+01	-9.760587e+00
3.612259e+01	-9.804926e+00
3.633123e+01	-9.849854e+00
3.654108e+01	-9.895112e+00
3.675214e+01	-9.939876e+00
3.696442e+01	-9.984492e+00
3.717792e+01	-1.003017e+01
3.739266e+01	-1.007427e+01
3.760864e+01	-1.012019e+01
3.782587e+01	-1.016469e+01
3.804435e+01	-1.020999e+01
3.826409e+01	-1.025546e+01
3.848510e+01	-1.030097e+01
3.870739e+01	-1.034603e+01
3.893096e+01	-1.039119e+01
3.915583e+01	-1.043686e+01
3.938199e+01	-1.048257e+01
3.960946e+01	-1.052819e+01
3.983824e+01	-1.057415e+01
4.006834e+01	-1.061959e+01
4.029978e+01	-1.066531e+01
4.053255e+01	-1.071098e+01
4.076666e+01	-1.075706e+01
4.100213e+01	-1.080278e+01
4.123896e+01	-1.084847e+01
4.147715e+01	-1.089437e+01
4.171672e+01	-1.094033e+01
4.195767e+01	-1.098677e+01
4.220002e+01	-1.103184e+01
4.244377e+01	-1.107881e+01
4.268892e+01	-1.112446e+01
4.293549e+01	-1.117067e+01
4.318348e+01	-1.121724e+01
4.343291e+01	-1.126346e+01
4.368377e+01	-1.130977e+01
4.393609e+01	-1.135599e+01
4.418986e+01	-1.140212e+01
4.444510e+01	-1.144865e+01
4.470182e+01	-1.149570e+01
4.496001e+01	-1.154181e+01
4.521970e+01	-1.158806e+01
4.548089e+01	-1.163551e+01
4.574358e+01	-1.168132e+01
4.600779e+01	-1.172831e+01
4.627353e+01	-1.177497e+01
4.654081e+01	-1.182190e+01
4.680963e+01	-1.186852e+01
4.708000e+01	-1.191509e+01
4.735193e+01	-1.196159e+01
4.762543e+01	-1.200875e+01
4.790051e+01	-1.205584e+01
4.817719e+01	-1.210258e+01
4.845545e+01	-1.214941e+01
4.873533e+01	-1.219671e+01
4.901682e+01	-1.224366e+01
4.929994e+01	-1.229101e+01
4.958470e+01	-1.233795e+01
4.987110e+01	-1.238502e+01
5.015915e+01	-1.243192e+01
5.044887e+01	-1.247916e+01
5.074026e+01	-1.252664e+01
5.103333e+01	-1.257422e+01
5.132810e+01	-1.262114e+01
5.162457e+01	-1.266832e+01
5.192275e+01	-1.271572e+01
5.222265e+01	-1.276351e+01
5.252429e+01	-1.281058e+01
5.282767e+01	-1.285819e+01
5.313280e+01	-1.290548e+01
5.343969e+01	-1.295271e+01
5.374836e+01	-1.300007e+01
5.405880e+01	-1.304810e+01
5.437105e+01	-1.309514e+01
5.468509e+01	-1.314331e+01
5.500095e+01	-1.319142e+01
5.531863e+01	-1.323779e+01
5.563815e+01	-1.328569e+01
5.595951e+01	-1.333348e+01
5.628273e+01	-1.338200e+01
5.660782e+01	-1.342897e+01
5.693479e+01	-1.347676e+01
5.726364e+01	-1.352390e+01
5.759439e+01	-1.357241e+01
5.792705e+01	-1.362053e+01
5.826164e+01	-1.366839e+01
5.859815e+01	-1.371672e+01
5.893662e+01	-1.376374e+01
5.927703e+01	-1.381274e+01
5.961941e+01	-1.385935e+01
5.996377e+01	-1.390719e+01
6.031012e+01	-1.395645e+01
6.065847e+01	-1.400408e+01
6.100883e+01	-1.405173e+01
6.136121e+01	-1.409969e+01
6.171563e+01	-1.414772e+01
6.207210e+01	-1.419652e+01
6.243063e+01	-1.424335e+01
6.279122e+01	-1.429271e+01
6.315390e+01	-1.434017e+01
6.351868e+01	-1.438835e+01
6.388556e+01	-1.443740e+01
6.425456e+01	-1.448571e+01
6.462569e+01	-1.453409e+01
6.499897e+01	-1.458261e+01
6.537440e+01	-1.463026e+01
6.575200e+01	-1.467803e+01
6.613178e+01	-1.472674e+01
6.651375e+01	-1.477482e+01
6.689793e+01	-1.482364e+01
6.728433e+01	-1.487263e+01
6.767297e+01	-1.492114e+01
6.806384e+01	-1.496841e+01
6.845698e+01	-1.501700e+01
6.885238e+01	-1.506558e+01
6.925007e+01	-1.511468e+01
6.965005e+01	-1.516309e+01
7.005235e+01	-1.521030e+01
7.045697e+01	-1.525988e+01
7.086393e+01	-1.530825e+01
7.127323e+01	-1.535709e+01
7.168490e+01	-1.540536e+01
7.209895e+01	-1.545408e+01
7.251539e+01	-1.550271e+01
7.293424e+01	-1.555042e+01
7.335551e+01	-1.559979e+01
7.377920e+01	-1.564918e+01
7.420535e+01	-1.569711e+01
7.463396e+01	-1.574599e+01
7.506504e+01	-1.579410e+01
7.549861e+01	-1.584339e+01
7.593469e+01	-1.589234e+01
7.637328e+01	-1.594067e+01
7.681441e+01	-1.598965e+01
7.725809e+01	-1.603851e+01
7.770433e+01	-1.608699e+01
7.815315e+01	-1.613614e+01
7.860456e+01	-1.618458e+01
7.905857e+01	-1.623379e+01
7.951521e+01	-1.628225e+01
7.997449e+01	-1.633103e+01
8.043642e+01	-1.637965e+01
8.090102e+01	-1.642986e+01
8.136830e+01	-1.647837e+01
8.183828e+01	-1.652765e+01
8.231097e+01	-1.657597e+01
8.278640e+01	-1.662472e+01
8.326457e+01	-1.667378e+01
8.374550e+01	-1.672295e+01
8.422921e+01	-1.677185e+01
8.471572e+01	-1.682080e+01
8.520503e+01	-1.686911e+01
8.569717e+01	-1.691865e+01
8.619215e+01	-1.696756e+01
8.669000e+01	-1.701627e+01
8.719071e+01	-1.706515e+01
8.769432e+01	-1.711531e+01
8.820084e+01	-1.716286e+01
8.871029e+01	-1.721297e+01
8.922267e+01	-1.726250e+01
8.973802e+01	-1.731144e+01
9.025634e+01	-1.736073e+01
9.077766e+01	-1.740950e+01
9.130199e+01	-1.745896e+01
9.182935e+01	-1.750771e+01
9.235975e+01	-1.755546e+01
9.289321e+01	-1.760567e+01
9.342976e+01	-1.765464e+01
9.396941e+01	-1.770396e+01
9.451217e+01	-1.775427e+01
9.505807e+01	-1.780218e+01
9.560712e+01	-1.785211e+01
9.615934e+01	-1.790030e+01
9.671476e+01	-1.795053e+01
9.727338e+01	-1.799972e+01
9.783522e+01	-1.804921e+01
9.840032e+01	-1.809832e+01
9.896867e+01	-1.814672e+01
9.954031e+01	-1.819680e+01
1.001153e+02	-1.824548e+01
1.006935e+02	-1.829573e+01
1.012751e+02	-1.834436e+01
1.018601e+02	-1.839371e+01
1.024484e+02	-1.844320e+01
1.030402e+02	-1.849284e+01
1.036353e+02	-1.854203e+01
1.042339e+02	-1.859075e+01
1.048360e+02	-1.864025e+01
1.054415e+02	-1.868940e+01
1.060505e+02	-1.873815e+01
1.066631e+02	-1.878757e+01
1.072791e+02	-1.883835e+01
1.078988e+02	-1.888674e+01
1.085220e+02	-1.893672e+01
1.091488e+02	-1.898667e+01
1.097793e+02	-1.903697e+01
1.104133e+02	-1.908539e+01
1.110511e+02	-1.913452e+01
1.116925e+02	-1.918210e+01
1.123376e+02	-1.923228e+01
1.129865e+02	-1.928304e+01
1.136391e+02	-1.933103e+01
1.142955e+02	-1.938193e+01
1.149556e+02	-1.943108e+01
1.156196e+02	-1.948006e+01
1.162874e+02	-1.953023e+01
1.169591e+02	-1.957972e+01
1.176347e+02	-1.962881e+01
1.183141e+02	-1.967850e+01
1.189975e+02	-1.972850e+01
1.196848e+02	-1.977634e+01
1.203761e+02	-1.982520e+01
1.210714e+02	-1.987684e+01
1.217707e+02	-1.992539e+01
1.224740e+02	-1.997463e+01
1.231814e+02	-2.002432e+01
1.238929e+02	-2.007605e+01
1.246085e+02	-2.012292e+01
1.253283e+02	-2.017198e+01
1.260522e+02	-2.022251e+01
1.267802e+02	-2.027170e+01
1.275125e+02	-2.032219e+01
1.282490e+02	-2.037105e+01
1.289898e+02	-2.041966e+01
1.297348e+02	-2.047034e+01
1.304842e+02	-2.051966e+01
1.312378e+02	-2.056886e+01
1.319959e+02	-2.062031e+01
1.327583e+02	-2.067054e+01
1.335251e+02	-2.071955e+01
1.342963e+02	-2.076938e+01
1.350720e+02	-2.081652e+01
1.358522e+02	-2.086804e+01
1.366368e+02	-2.091749e+01
1.374260e+02	-2.096653e+01
1.382198e+02	-2.101724e+01
1.390182e+02	-2.106615e+01
1.398211e+02	-2.111603e+01
1.406287e+02	-2.116490e+01
1.414410e+02	-2.121531e+01
1.422579e+02	-2.126514e+01
1.430796e+02	-2.131474e+01
1.439060e+02	-2.136471e+01
1.447372e+02	-2.141379e+01
1.455732e+02	-2.146575e+01
1.464141e+02	-2.151321e+01
1.472597e+02	-2.156201e+01
1.481103e+02	-2.161331e+01
1.489658e+02	-2.166169e+01
1.498262e+02	-2.171478e+01
1.506916e+02	-2.176104e+01
1.515620e+02	-2.181206e+01
1.524374e+02	-2.186199e+01
1.533179e+02	-2.191077e+01
1.542034e+02	-2.196071e+01
1.550941e+02	-2.200964e+01
1.559899e+02	-2.206296e+01
1.568909e+02	-2.211078e+01
1.577971e+02	-2.216022e+01
1.587085e+02	-2.221042e+01
1.596252e+02	-2.226051e+01
1.605472e+02	-2.230884e+01
1.614745e+02	-2.235767e+01
1.624072e+02	-2.240983e+01
1.633453e+02	-2.245896e+01
1.642887e+02	-2.250713e+01
1.652377e+02	-2.255698e+01
1.661921e+02	-2.260933e+01
1.671520e+02	-2.265916e+01
1.681175e+02	-2.270711e+01
1.690885e+02	-2.275687e+01
1.700651e+02	-2.280726e+01
1.710474e+02	-2.285647e+01
1.720354e+02	-2.290685e+01
1.730291e+02	-2.295641e+01
1.740285e+02	-2.300430e+01
1.750337e+02	-2.305526e+01
1.760446e+02	-2.310561e+01
1.770615e+02	-2.315568e+01
1.780842e+02	-2.320247e+01
1.791128e+02	-2.325623e+01
1.801473e+02	-2.330511e+01
1.811878e+02	-2.335318e+01
1.822344e+02	-2.340909e+01
1.832870e+02	-2.345574e+01
1.843456e+02	-2.350634e+01
1.854104e+02	-2.355301e+01
1.864813e+02	-2.360122e+01
1.875584e+02	-2.365626e+01
1.886418e+02	-2.370505e+01
1.897313e+02	-2.375232e+01
1.908272e+02	-2.380339e+01
1.919294e+02	-2.385153e+01
1.930380e+02	-2.390367e+01
1.941530e+02	-2.395208e+01
1.952744e+02	-2.400321e+01
1.964023e+02	-2.405524e+01
1.975367e+02	-2.410231e+01
1.986777e+02	-2.415007e+01
1.998252e+02	-2.420192e+01
2.009794e+02	-2.425265e+01
2.021403e+02	-2.430128e+01
2.033078e+02	-2.435091e+01
2.044821e+02	-2.440234e+01
2.056632e+02	-2.445079e+01
2.068511e+02	-2.450254e+01
2.080459e+02	-2.455254e+01
2.092475e+02	-2.460141e+01
2.104561e+02	-2.465249e+01
2.116717e+02	-2.470126e+01
2.128943e+02	-2.475104e+01
2.141240e+02	-2.479899e+01
2.153608e+02	-2.485026e+01
2.166047e+02	-2.490138e+01
2.178558e+02	-2.495268e+01
2.191141e+02	-2.499731e+01
2.203797e+02	-2.505093e+01
2.216526e+02	-2.510229e+01
2.229329e+02	-2.514921e+01
2.242205e+02	-2.519906e+01
2.255156e+02	-2.524758e+01
2.268182e+02	-2.529698e+01
2.281283e+02	-2.534796e+01
2.294459e+02	-2.540090e+01
2.307712e+02	-2.545123e+01
2.321041e+02	-2.549914e+01
2.334447e+02	-2.554814e+01
2.347931e+02	-2.559761e+01
2.361493e+02	-2.564737e+01
2.375133e+02	-2.569992e+01
2.388851e+02	-2.575204e+01
2.402649e+02	-2.580163e+01
2.416527e+02	-2.585008e+01
2.430484e+02	-2.589871e+01
2.444523e+02	-2.594864e+01
2.458642e+02	-2.599823e+01
2.472843e+02	-2.604841e+01
2.487126e+02	-2.609813e+01
2.501492e+02	-2.615169e+01
2.515940e+02	-2.619840e+01
2.530472e+02	-2.625200e+01
2.545088e+02	-2.629838e+01
2.559789e+02	-2.635032e+01
2.574574e+02	-2.640006e+01
2.589444e+02	-2.645018e+01
2.604401e+02	-2.649840e+01
2.619444e+02	-2.655052e+01
2.634574e+02	-2.660024e+01
2.649791e+02	-2.665002e+01
2.665096e+02	-2.669522e+01
2.680489e+02	-2.674817e+01
2.695972e+02	-2.679853e+01
2.711544e+02	-2.684857e+01
2.727205e+02	-2.690011e+01
2.742958e+02	-2.695069e+01
2.758801e+02	-2.699533e+01
2.774736e+02	-2.704903e+01
2.790762e+02	-2.710098e+01
2.806882e+02	-2.714483e+01
2.823094e+02	-2.719790e+01
2.839400e+02	-2.725452e+01
2.855800e+02	-2.730000e+01
2.872295e+02	-2.735003e+01
2.888886e+02	-2.739889e+01
2.905572e+02	-2.744796e+01
2.922354e+02	-2.749884e+01
2.939234e+02	-2.755045e+01
2.956211e+02	-2.760163e+01
2.973286e+02	-2.764830e+01
2.990459e+02	-2.769692e+01
3.007732e+02	-2.774755e+01
3.025104e+02	-2.779655e+01
3.042577e+02	-2.784745e+01
3.060151e+02	-2.790003e+01
3.077826e+02	-2.794997e+01
3.095604e+02	-2.799758e+01
3.113484e+02	-2.804477e+01
3.131467e+02	-2.809926e+01
3.149554e+02	-2.814858e+01
3.167746e+02	-2.820358e+01
3.186043e+02	-2.824519e+01
3.204445e+02	-2.829289e+01
3.222954e+02	-2.835038e+01
3.241570e+02	-2.839574e+01
3.260293e+02	-2.844852e+01
3.279124e+02	-2.849614e+01
3.298064e+02	-2.854834e+01
3.317114e+02	-2.860110e+01
3.336273e+02	-2.865178e+01
3.355544e+02	-2.869440e+01
3.374925e+02	-2.874904e+01
3.394418e+02	-2.880379e+01
3.414024e+02	-2.884892e+01
3.433744e+02	-2.890117e+01
3.453577e+02	-2.895283e+01
3.473525e+02	-2.900037e+01
3.493588e+02	-2.904856e+01
3.513766e+02	-2.909950e+01
3.534062e+02	-2.914614e+01
3.554474e+02	-2.919842e+01
3.575005e+02	-2.924491e+01
3.595654e+02	-2.929662e+01
3.616422e+02	-2.935071e+01
3.637311e+02	-2.939753e+01
3.658320e+02	-2.944805e+01
3.679450e+02	-2.950077e+01
3.700702e+02	-2.955448e+01
3.722077e+02	-2.960048e+01
3.743576e+02	-2.964588e+01
3.765199e+02	-2.969558e+01
3.786946e+02	-2.975190e+01
3.808820e+02	-2.979933e+01
3.830819e+02	-2.985245e+01
3.852946e+02	-2.990628e+01
3.875200e+02	-2.994874e+01
3.897583e+02	-3.000484e+01
3.920096e+02	-3.005100e+01
3.942738e+02	-3.010248e+01
3.965511e+02	-3.015612e+01
3.988416e+02	-3.020300e+01
4.011452e+02	-3.025401e+01
4.034622e+02	-3.030075e+01
4.057926e+02	-3.035369e+01
4.081365e+02	-3.040680e+01
4.104938e+02	-3.045525e+01
4.128648e+02	-3.050267e+01
4.152495e+02	-3.054858e+01
4.176480e+02	-3.060462e+01
4.200603e+02	-3.065407e+01
4.224866e+02	-3.070408e+01
4.249268e+02	-3.075100e+01
4.273812e+02	-3.080734e+01
4.298497e+02	-3.084879e+01
4.323325e+02	-3.090855e+01
4.348297e+02	-3.095412e+01
4.373412e+02	-3.100223e+01
4.398673e+02	-3.104904e+01
4.424079e+02	-3.110193e+01
4.449633e+02	-3.115317e+01
4.475334e+02	-3.120858e+01
4.501183e+02	-3.124965e+01
4.527182e+02	-3.130528e+01
4.553330e+02	-3.136082e+01
4.579630e+02	-3.140138e+01
4.606082e+02	-3.145215e+01
4.632687e+02	-3.150385e+01
4.659445e+02	-3.155775e+01
4.686358e+02	-3.160848e+01
4.713426e+02	-3.165372e+01
4.740650e+02	-3.170686e+01
4.768032e+02	-3.176116e+01
4.795572e+02	-3.180865e+01
4.823271e+02	-3.186429e+01
4.851130e+02	-3.191657e+01
4.879150e+02	-3.195921e+01
4.907332e+02	-3.201684e+01
4.935676e+02	-3.206006e+01
4.964185e+02	-3.210811e+01
4.992858e+02	-3.215711e+01
5.021696e+02	-3.220241e+01
5.050701e+02	-3.226613e+01
5.079874e+02	-3.230898e+01
5.109215e+02	-3.236479e+01
5.138726e+02	-3.240141e+01
5.168407e+02	-3.246295e+01
5.198259e+02	-3.251499e+01
5.228284e+02	-3.256521e+01
5.258482e+02	-3.261247e+01
5.288855e+02	-3.266012e+01
5.319403e+02	-3.270635e+01
5.350128e+02	-3.276409e+01
5.381030e+02	-3.281546e+01
5.412111e+02	-3.286020e+01
5.443371e+02	-3.290827e+01
5.474812e+02	-3.295582e+01
5.506434e+02	-3.300978e+01
5.538239e+02	-3.306253e+01
5.570228e+02	-3.311849e+01
5.602401e+02	-3.316077e+01
5.634760e+02	-3.321575e+01
5.667306e+02	-3.326521e+01
5.700040e+02	-3.332181e+01
5.732964e+02	-3.335842e+01
5.766077e+02	-3.340974e+01
5.799382e+02	-3.346184e+01
5.832879e+02	-3.351744e+01
5.866569e+02	-3.356208e+01
5.900454e+02	-3.361171e+01
5.934535e+02	-3.367458e+01
5.968813e+02	-3.371630e+01
6.003288e+02	-3.376895e+01
6.037963e+02	-3.381232e+01
6.072838e+02	-3.386623e+01
6.107914e+02	-3.391144e+01
6.143194e+02	-3.396809e+01
6.178676e+02	-3.401475e+01
6.214364e+02	-3.406683e+01
6.250258e+02	-3.412071e+01
6.286359e+02	-3.416563e+01
6.322669e+02	-3.422193e+01
6.359189e+02	-3.426832e+01
6.395919e+02	-3.431985e+01
6.432862e+02	-3.437219e+01
6.470017e+02	-3.442417e+01
6.507388e+02	-3.447292e+01
6.544974e+02	-3.451421e+01
6.582778e+02	-3.457057e+01
6.620800e+02	-3.463086e+01
6.659041e+02	-3.466790e+01
6.697504e+02	-3.472671e+01
6.736188e+02	-3.477480e+01
6.775096e+02	-3.482942e+01
6.814229e+02	-3.487462e+01
6.853587e+02	-3.493021e+01
6.893173e+02	-3.497540e+01
6.932988e+02	-3.503730e+01
6.973033e+02	-3.507446e+01
7.013309e+02	-3.512654e+01
