Frequency(Hz)	Magnitude(dB)
1.000000e+01	-1.666353e-05
1.005776e+01	-1.685659e-05
1.011585e+01	-1.705187e-05
1.017428e+01	-1.724942e-05
1.023305e+01	-1.744926e-05
1.029215e+01	-1.765142e-05
1.035160e+01	-1.785591e-05
1.041139e+01	-1.806278e-05
1.047153e+01	-1.827204e-05
1.053201e+01	-1.848373e-05
1.059284e+01	-1.869787e-05
1.065403e+01	-1.891448e-05
1.071556e+01	-1.913361e-05
1.077746e+01	-1.935528e-05
1.083971e+01	-1.957952e-05
1.090232e+01	-1.980635e-05
1.096529e+01	-2.003581e-05
1.102862e+01	-2.026793e-05
1.109232e+01	-2.050274e-05
1.115639e+01	-2.074027e-05
1.122083e+01	-2.098055e-05
1.128564e+01	-2.122362e-05
1.135083e+01	-2.146950e-05
1.141639e+01	-2.171823e-05
1.148233e+01	-2.196984e-05
1.154865e+01	-2.222436e-05
1.161536e+01	-2.248184e-05
1.168245e+01	-2.274230e-05
1.174992e+01	-2.300577e-05
1.181779e+01	-2.327230e-05
1.188605e+01	-2.354192e-05
1.195470e+01	-2.381465e-05
1.202375e+01	-2.409055e-05
1.209320e+01	-2.436965e-05
1.216305e+01	-2.465198e-05
1.223330e+01	-2.493758e-05
1.230396e+01	-2.522648e-05
1.237503e+01	-2.551874e-05
1.244651e+01	-2.581438e-05
1.251840e+01	-2.611345e-05
1.259070e+01	-2.641598e-05
1.266343e+01	-2.672201e-05
1.273657e+01	-2.703159e-05
1.281014e+01	-2.734476e-05
1.288413e+01	-2.766156e-05
1.295855e+01	-2.798202e-05
1.303339e+01	-2.830620e-05
1.310867e+01	-2.863414e-05
1.318439e+01	-2.896587e-05
1.326054e+01	-2.930145e-05
1.333713e+01	-2.964091e-05
1.341417e+01	-2.998431e-05
1.349165e+01	-3.033168e-05
1.356958e+01	-3.068308e-05
1.364795e+01	-3.103855e-05
1.372678e+01	-3.139814e-05
1.380607e+01	-3.176190e-05
1.388581e+01	-3.212987e-05
1.396602e+01	-3.250210e-05
1.404668e+01	-3.287864e-05
1.412782e+01	-3.325955e-05
1.420942e+01	-3.364487e-05
1.429149e+01	-3.403465e-05
1.437404e+01	-3.442895e-05
1.445706e+01	-3.482782e-05
1.454057e+01	-3.523131e-05
1.462455e+01	-3.563947e-05
1.470902e+01	-3.605236e-05
1.479398e+01	-3.647004e-05
1.487943e+01	-3.689255e-05
1.496537e+01	-3.731996e-05
1.505181e+01	-3.775232e-05
1.513875e+01	-3.818969e-05
1.522619e+01	-3.863213e-05
1.531414e+01	-3.907969e-05
1.540259e+01	-3.953243e-05
1.549156e+01	-3.999043e-05
1.558103e+01	-4.045372e-05
1.567103e+01	-4.092239e-05
1.576155e+01	-4.139649e-05
1.585258e+01	-4.187607e-05
1.594415e+01	-4.236122e-05
1.603624e+01	-4.285198e-05
1.612886e+01	-4.334843e-05
1.622202e+01	-4.385063e-05
1.631572e+01	-4.435865e-05
1.640996e+01	-4.487256e-05
1.650474e+01	-4.539241e-05
1.660008e+01	-4.591829e-05
1.669596e+01	-4.645027e-05
1.679239e+01	-4.698840e-05
1.688938e+01	-4.753278e-05
1.698694e+01	-4.808345e-05
1.708505e+01	-4.864051e-05
1.718373e+01	-4.920402e-05
1.728299e+01	-4.977406e-05
1.738281e+01	-5.035070e-05
1.748322e+01	-5.093403e-05
1.758420e+01	-5.152411e-05
1.768576e+01	-5.212103e-05
1.778792e+01	-5.272486e-05
1.789066e+01	-5.333569e-05
1.799399e+01	-5.395359e-05
1.809793e+01	-5.457866e-05
1.820246e+01	-5.521096e-05
1.830760e+01	-5.585059e-05
1.841334e+01	-5.649763e-05
1.851969e+01	-5.715217e-05
1.862666e+01	-5.781429e-05
1.873425e+01	-5.848408e-05
1.884246e+01	-5.916163e-05
1.895129e+01	-5.984703e-05
1.906075e+01	-6.054037e-05
1.917085e+01	-6.124174e-05
1.928158e+01	-6.195124e-05
1.939295e+01	-6.266895e-05
1.950496e+01	-6.339499e-05
1.961762e+01	-6.412943e-05
1.973093e+01	-6.487238e-05
1.984490e+01	-6.562394e-05
1.995952e+01	-6.638421e-05
2.007480e+01	-6.715328e-05
2.019076e+01	-6.793126e-05
2.030738e+01	-6.871826e-05
2.042467e+01	-6.951437e-05
2.054264e+01	-7.031971e-05
2.066130e+01	-7.113438e-05
2.078064e+01	-7.195848e-05
2.090066e+01	-7.279213e-05
2.102139e+01	-7.363544e-05
2.114280e+01	-7.448852e-05
2.126492e+01	-7.535149e-05
2.138775e+01	-7.622445e-05
2.151128e+01	-7.710752e-05
2.163553e+01	-7.800082e-05
2.176050e+01	-7.890448e-05
2.188619e+01	-7.981860e-05
2.201260e+01	-8.074331e-05
2.213974e+01	-8.167874e-05
2.226762e+01	-8.262500e-05
2.239624e+01	-8.358222e-05
2.252560e+01	-8.455054e-05
2.265571e+01	-8.553007e-05
2.278656e+01	-8.652095e-05
2.291818e+01	-8.752331e-05
2.305055e+01	-8.853728e-05
2.318369e+01	-8.956300e-05
2.331760e+01	-9.060060e-05
2.345228e+01	-9.165022e-05
2.358774e+01	-9.271201e-05
2.372398e+01	-9.378609e-05
2.386101e+01	-9.487261e-05
2.399883e+01	-9.597173e-05
2.413745e+01	-9.708357e-05
2.427686e+01	-9.820830e-05
2.441709e+01	-9.934606e-05
2.455812e+01	-1.004970e-04
2.469997e+01	-1.016613e-04
2.484263e+01	-1.028390e-04
2.498612e+01	-1.040304e-04
2.513044e+01	-1.052356e-04
2.527559e+01	-1.064548e-04
2.542158e+01	-1.076881e-04
2.556842e+01	-1.089357e-04
2.571610e+01	-1.101977e-04
2.586463e+01	-1.114744e-04
2.601403e+01	-1.127658e-04
2.616428e+01	-1.140722e-04
2.631541e+01	-1.153938e-04
2.646740e+01	-1.167306e-04
2.662028e+01	-1.180830e-04
2.677404e+01	-1.194510e-04
2.692868e+01	-1.208348e-04
2.708422e+01	-1.222347e-04
2.724066e+01	-1.236508e-04
2.739800e+01	-1.250833e-04
2.755625e+01	-1.265324e-04
2.771541e+01	-1.279983e-04
2.787550e+01	-1.294812e-04
2.803650e+01	-1.309812e-04
2.819844e+01	-1.324987e-04
2.836131e+01	-1.340337e-04
2.852513e+01	-1.355865e-04
2.868989e+01	-1.371573e-04
2.885560e+01	-1.387462e-04
2.902227e+01	-1.403536e-04
2.918990e+01	-1.419796e-04
2.935850e+01	-1.436245e-04
2.952807e+01	-1.452884e-04
2.969863e+01	-1.469716e-04
2.987016e+01	-1.486742e-04
3.004269e+01	-1.503966e-04
3.021622e+01	-1.521390e-04
3.039075e+01	-1.539015e-04
3.056628e+01	-1.556845e-04
3.074283e+01	-1.574881e-04
3.092040e+01	-1.593126e-04
3.109900e+01	-1.611583e-04
3.127862e+01	-1.630253e-04
3.145929e+01	-1.649140e-04
3.164099e+01	-1.668245e-04
3.182375e+01	-1.687572e-04
3.200756e+01	-1.707122e-04
3.219244e+01	-1.726899e-04
3.237838e+01	-1.746906e-04
3.256540e+01	-1.767144e-04
3.275349e+01	-1.787616e-04
3.294268e+01	-1.808326e-04
3.313295e+01	-1.829275e-04
3.332433e+01	-1.850467e-04
3.351681e+01	-1.871905e-04
3.371040e+01	-1.893591e-04
3.390511e+01	-1.915528e-04
3.410094e+01	-1.937720e-04
3.429791e+01	-1.960168e-04
3.449601e+01	-1.982877e-04
3.469526e+01	-2.005849e-04
3.489566e+01	-2.029086e-04
3.509721e+01	-2.052593e-04
3.529993e+01	-2.076373e-04
3.550382e+01	-2.100427e-04
3.570889e+01	-2.124761e-04
3.591515e+01	-2.149376e-04
3.612259e+01	-2.174277e-04
3.633123e+01	-2.199466e-04
3.654108e+01	-2.224946e-04
3.675214e+01	-2.250722e-04
3.696442e+01	-2.276797e-04
3.717792e+01	-2.303173e-04
3.739266e+01	-2.329856e-04
3.760864e+01	-2.356847e-04
3.782587e+01	-2.384151e-04
3.804435e+01	-2.411771e-04
3.826409e+01	-2.439712e-04
3.848510e+01	-2.467975e-04
3.870739e+01	-2.496567e-04
3.893096e+01	-2.525489e-04
3.915583e+01	-2.554747e-04
3.938199e+01	-2.584344e-04
3.960946e+01	-2.614283e-04
3.983824e+01	-2.644569e-04
4.006834e+01	-2.675206e-04
4.029978e+01	-2.706198e-04
4.053255e+01	-2.737550e-04
4.076666e+01	-2.769264e-04
4.100213e+01	-2.801345e-04
4.123896e+01	-2.833799e-04
4.147715e+01	-2.866628e-04
4.171672e+01	-2.899838e-04
4.195767e+01	-2.933432e-04
4.220002e+01	-2.967415e-04
4.244377e+01	-3.001793e-04
4.268892e+01	-3.036568e-04
4.293549e+01	-3.071746e-04
4.318348e+01	-3.107332e-04
4.343291e+01	-3.143330e-04
4.368377e+01	-3.179745e-04
4.393609e+01	-3.216582e-04
4.418986e+01	-3.253845e-04
4.444510e+01	-3.291541e-04
4.470182e+01	-3.329673e-04
4.496001e+01	-3.368246e-04
4.521970e+01	-3.407267e-04
4.548089e+01	-3.446739e-04
4.574358e+01	-3.486669e-04
4.600779e+01	-3.527062e-04
4.627353e+01	-3.567922e-04
4.654081e+01	-3.609256e-04
4.680963e+01	-3.651068e-04
4.708000e+01	-3.693365e-04
4.735193e+01	-3.736152e-04
4.762543e+01	-3.779434e-04
4.790051e+01	-3.823218e-04
4.817719e+01	-3.867509e-04
4.845545e+01	-3.912313e-04
4.873533e+01	-3.957636e-04
4.901682e+01	-4.003485e-04
4.929994e+01	-4.049864e-04
4.958470e+01	-4.096781e-04
4.987110e+01	-4.144241e-04
5.015915e+01	-4.192250e-04
5.044887e+01	-4.240816e-04
5.074026e+01	-4.289945e-04
5.103333e+01	-4.339643e-04
5.132810e+01	-4.389916e-04
5.162457e+01	-4.440772e-04
5.192275e+01	-4.492217e-04
5.222265e+01	-4.544258e-04
5.252429e+01	-4.596901e-04
5.282767e+01	-4.650155e-04
5.313280e+01	-4.704025e-04
5.343969e+01	-4.758520e-04
5.374836e+01	-4.813646e-04
5.405880e+01	-4.869410e-04
5.437105e+01	-4.925820e-04
5.468509e+01	-4.982884e-04
5.500095e+01	-5.040609e-04
5.531863e+01	-5.099002e-04
5.563815e+01	-5.158072e-04
5.595951e+01	-5.217826e-04
5.628273e+01	-5.278272e-04
5.660782e+01	-5.339419e-04
5.693479e+01	-5.401274e-04
5.726364e+01	-5.463845e-04
5.759439e+01	-5.527141e-04
5.792705e+01	-5.591170e-04
5.826164e+01	-5.655941e-04
5.859815e+01	-5.721463e-04
5.893662e+01	-5.787743e-04
5.927703e+01	-5.854791e-04
5.961941e+01	-5.922616e-04
5.996377e+01	-5.991226e-04
6.031012e+01	-6.060631e-04
6.065847e+01	-6.130840e-04
6.100883e+01	-6.201863e-04
6.136121e+01	-6.273708e-04
6.171563e+01	-6.346385e-04
6.207210e+01	-6.419904e-04
6.243063e+01	-6.494275e-04
6.279122e+01	-6.569508e-04
6.315390e+01	-6.645611e-04
6.351868e+01	-6.722597e-04
6.388556e+01	-6.800474e-04
6.425456e+01	-6.879253e-04
6.462569e+01	-6.958944e-04
6.499897e+01	-7.039559e-04
6.537440e+01	-7.121108e-04
6.575200e+01	-7.203601e-04
6.613178e+01	-7.287050e-04
6.651375e+01	-7.371465e-04
6.689793e+01	-7.456858e-04
6.728433e+01	-7.543240e-04
6.767297e+01	-7.630623e-04
6.806384e+01	-7.719018e-04
6.845698e+01	-7.808437e-04
6.885238e+01	-7.898892e-04
6.925007e+01	-7.990394e-04
6.965005e+01	-8.082956e-04
7.005235e+01	-8.176591e-04
7.045697e+01	-8.271310e-04
7.086393e+01	-8.367126e-04
7.127323e+01	-8.464052e-04
7.168490e+01	-8.562101e-04
7.209895e+01	-8.661285e-04
7.251539e+01	-8.761618e-04
7.293424e+01	-8.863114e-04
7.335551e+01	-8.965785e-04
7.377920e+01	-9.069645e-04
7.420535e+01	-9.174708e-04
7.463396e+01	-9.280988e-04
7.506504e+01	-9.388499e-04
7.549861e+01	-9.497256e-04
7.593469e+01	-9.607272e-04
7.637328e+01	-9.718562e-04
7.681441e+01	-9.831142e-04
7.725809e+01	-9.945025e-04
7.770433e+01	-1.006023e-03
7.815315e+01	-1.017676e-03
7.860456e+01	-1.029465e-03
7.905857e+01	-1.041390e-03
7.951521e+01	-1.053454e-03
7.997449e+01	-1.065657e-03
8.043642e+01	-1.078001e-03
8.090102e+01	-1.090488e-03
8.136830e+01	-1.103120e-03
8.183828e+01	-1.115899e-03
8.231097e+01	-1.128825e-03
8.278640e+01	-1.141901e-03
8.326457e+01	-1.155129e-03
8.374550e+01	-1.168509e-03
8.422921e+01	-1.182045e-03
8.471572e+01	-1.195737e-03
8.520503e+01	-1.209588e-03
8.569717e+01	-1.223600e-03
8.619215e+01	-1.237773e-03
8.669000e+01	-1.252111e-03
8.719071e+01	-1.266615e-03
8.769432e+01	-1.281287e-03
8.820084e+01	-1.296129e-03
8.871029e+01	-1.311143e-03
8.922267e+01	-1.326330e-03
8.973802e+01	-1.341694e-03
9.025634e+01	-1.357235e-03
9.077766e+01	-1.372957e-03
9.130199e+01	-1.388860e-03
9.182935e+01	-1.404948e-03
9.235975e+01	-1.421222e-03
9.289321e+01	-1.437685e-03
9.342976e+01	-1.454338e-03
9.396941e+01	-1.471184e-03
9.451217e+01	-1.488225e-03
9.505807e+01	-1.505464e-03
9.560712e+01	-1.522902e-03
9.615934e+01	-1.540542e-03
9.671476e+01	-1.558386e-03
9.727338e+01	-1.576437e-03
9.783522e+01	-1.594697e-03
9.840032e+01	-1.613169e-03
9.896867e+01	-1.631854e-03
9.954031e+01	-1.650756e-03
1.001153e+02	-1.669877e-03
1.006935e+02	-1.689219e-03
1.012751e+02	-1.708785e-03
1.018601e+02	-1.728578e-03
1.024484e+02	-1.748600e-03
1.030402e+02	-1.768854e-03
1.036353e+02	-1.789343e-03
1.042339e+02	-1.810068e-03
1.048360e+02	-1.831034e-03
1.054415e+02	-1.852242e-03
1.060505e+02	-1.873697e-03
1.066631e+02	-1.895399e-03
1.072791e+02	-1.917353e-03
1.078988e+02	-1.939561e-03
1.085220e+02	-1.962026e-03
1.091488e+02	-1.984752e-03
1.097793e+02	-2.007740e-03
1.104133e+02	-2.030995e-03
1.110511e+02	-2.054519e-03
1.116925e+02	-2.078315e-03
1.123376e+02	-2.102387e-03
1.129865e+02	-2.126738e-03
1.136391e+02	-2.151371e-03
1.142955e+02	-2.176289e-03
1.149556e+02	-2.201495e-03
1.156196e+02	-2.226994e-03
1.162874e+02	-2.252787e-03
1.169591e+02	-2.278880e-03
1.176347e+02	-2.305274e-03
1.183141e+02	-2.331974e-03
1.189975e+02	-2.358983e-03
1.196848e+02	-2.386305e-03
1.203761e+02	-2.413944e-03
1.210714e+02	-2.441902e-03
1.217707e+02	-2.470184e-03
1.224740e+02	-2.498793e-03
1.231814e+02	-2.527734e-03
1.238929e+02	-2.557010e-03
1.246085e+02	-2.586625e-03
1.253283e+02	-2.616582e-03
1.260522e+02	-2.646887e-03
1.267802e+02	-2.677542e-03
1.275125e+02	-2.708553e-03
1.282490e+02	-2.739922e-03
1.289898e+02	-2.771655e-03
1.297348e+02	-2.803755e-03
1.304842e+02	-2.836226e-03
1.312378e+02	-2.869074e-03
1.319959e+02	-2.902302e-03
1.327583e+02	-2.935914e-03
1.335251e+02	-2.969916e-03
1.342963e+02	-3.004311e-03
1.350720e+02	-3.039105e-03
1.358522e+02	-3.074301e-03
1.366368e+02	-3.109905e-03
1.374260e+02	-3.145921e-03
1.382198e+02	-3.182354e-03
1.390182e+02	-3.219209e-03
1.398211e+02	-3.256490e-03
1.406287e+02	-3.294203e-03
1.414410e+02	-3.332353e-03
1.422579e+02	-3.370944e-03
1.430796e+02	-3.409982e-03
1.439060e+02	-3.449472e-03
1.447372e+02	-3.489419e-03
1.455732e+02	-3.529828e-03
1.464141e+02	-3.570705e-03
1.472597e+02	-3.612055e-03
1.481103e+02	-3.653884e-03
1.489658e+02	-3.696198e-03
1.498262e+02	-3.739000e-03
1.506916e+02	-3.782299e-03
1.515620e+02	-3.826098e-03
1.524374e+02	-3.870405e-03
1.533179e+02	-3.915224e-03
1.542034e+02	-3.960563e-03
1.550941e+02	-4.006426e-03
1.559899e+02	-4.052819e-03
1.568909e+02	-4.099750e-03
1.577971e+02	-4.147224e-03
1.587085e+02	-4.195248e-03
1.596252e+02	-4.243827e-03
1.605472e+02	-4.292968e-03
1.614745e+02	-4.342679e-03
1.624072e+02	-4.392964e-03
1.633453e+02	-4.443832e-03
1.642887e+02	-4.495288e-03
1.652377e+02	-4.547340e-03
1.661921e+02	-4.599994e-03
1.671520e+02	-4.653257e-03
1.681175e+02	-4.707137e-03
1.690885e+02	-4.761641e-03
1.700651e+02	-4.816775e-03
1.710474e+02	-4.872547e-03
1.720354e+02	-4.928965e-03
1.730291e+02	-4.986035e-03
1.740285e+02	-5.043766e-03
1.750337e+02	-5.102165e-03
1.760446e+02	-5.161240e-03
1.770615e+02	-5.220998e-03
1.780842e+02	-5.281448e-03
1.791128e+02	-5.342597e-03
1.801473e+02	-5.404454e-03
1.811878e+02	-5.467026e-03
1.822344e+02	-5.530323e-03
1.832870e+02	-5.594352e-03
1.843456e+02	-5.659121e-03
1.854104e+02	-5.724640e-03
1.864813e+02	-5.790917e-03
1.875584e+02	-5.857961e-03
1.886418e+02	-5.925781e-03
1.897313e+02	-5.994385e-03
1.908272e+02	-6.063783e-03
1.919294e+02	-6.133984e-03
1.930380e+02	-6.204997e-03
1.941530e+02	-6.276831e-03
1.952744e+02	-6.349497e-03
1.964023e+02	-6.423003e-03
1.975367e+02	-6.497359e-03
1.986777e+02	-6.572575e-03
1.998252e+02	-6.648662e-03
2.009794e+02	-6.725629e-03
2.021403e+02	-6.803486e-03
2.033078e+02	-6.882243e-03
2.044821e+02	-6.961912e-03
2.056632e+02	-7.042502e-03
2.068511e+02	-7.124024e-03
2.080459e+02	-7.206489e-03
2.092475e+02	-7.289907e-03
2.104561e+02	-7.374291e-03
2.116717e+02	-7.459650e-03
2.128943e+02	-7.545997e-03
2.141240e+02	-7.633342e-03
2.153608e+02	-7.721698e-03
2.166047e+02	-7.811075e-03
2.178558e+02	-7.901486e-03
2.191141e+02	-7.992942e-03
2.203797e+02	-8.085456e-03
2.216526e+02	-8.179039e-03
2.229329e+02	-8.273705e-03
2.242205e+02	-8.369466e-03
2.255156e+02	-8.466333e-03
2.268182e+02	-8.564321e-03
2.281283e+02	-8.663441e-03
2.294459e+02	-8.763708e-03
2.307712e+02	-8.865134e-03
2.321041e+02	-8.967732e-03
2.334447e+02	-9.071517e-03
2.347931e+02	-9.176502e-03
2.361493e+02	-9.282700e-03
2.375133e+02	-9.390126e-03
2.388851e+02	-9.498793e-03
2.402649e+02	-9.608717e-03
2.416527e+02	-9.719912e-03
2.430484e+02	-9.832391e-03
2.444523e+02	-9.946171e-03
2.458642e+02	-1.006127e-02
2.472843e+02	-1.017769e-02
2.487126e+02	-1.029546e-02
2.501492e+02	-1.041459e-02
2.515940e+02	-1.053510e-02
2.530472e+02	-1.065701e-02
2.545088e+02	-1.078032e-02
2.559789e+02	-1.090505e-02
2.574574e+02	-1.103123e-02
2.589444e+02	-1.115886e-02
2.604401e+02	-1.128797e-02
2.619444e+02	-1.141857e-02
2.634574e+02	-1.155069e-02
2.649791e+02	-1.168432e-02
2.665096e+02	-1.181950e-02
2.680489e+02	-1.195625e-02
2.695972e+02	-1.209457e-02
2.711544e+02	-1.223449e-02
2.727205e+02	-1.237603e-02
2.742958e+02	-1.251920e-02
2.758801e+02	-1.266402e-02
2.774736e+02	-1.281052e-02
2.790762e+02	-1.295871e-02
2.806882e+02	-1.310862e-02
2.823094e+02	-1.326025e-02
2.839400e+02	-1.341364e-02
2.855800e+02	-1.356879e-02
2.872295e+02	-1.372574e-02
2.888886e+02	-1.388450e-02
2.905572e+02	-1.404510e-02
2.922354e+02	-1.420755e-02
2.939234e+02	-1.437187e-02
2.956211e+02	-1.453809e-02
2.973286e+02	-1.470624e-02
2.990459e+02	-1.487632e-02
3.007732e+02	-1.504836e-02
3.025104e+02	-1.522240e-02
3.042577e+02	-1.539844e-02
3.060151e+02	-1.557651e-02
3.077826e+02	-1.575664e-02
3.095604e+02	-1.593885e-02
3.113484e+02	-1.612316e-02
3.131467e+02	-1.630960e-02
3.149554e+02	-1.649819e-02
3.167746e+02	-1.668896e-02
3.186043e+02	-1.688193e-02
3.204445e+02	-1.707712e-02
3.222954e+02	-1.727457e-02
3.241570e+02	-1.747430e-02
3.260293e+02	-1.767633e-02
3.279124e+02	-1.788069e-02
3.298064e+02	-1.808741e-02
3.317114e+02	-1.829652e-02
3.336273e+02	-1.850803e-02
3.355544e+02	-1.872199e-02
3.374925e+02	-1.893841e-02
3.394418e+02	-1.915734e-02
3.414024e+02	-1.937878e-02
3.433744e+02	-1.960278e-02
3.453577e+02	-1.982936e-02
3.473525e+02	-2.005856e-02
3.493588e+02	-2.029040e-02
3.513766e+02	-2.052491e-02
3.534062e+02	-2.076213e-02
3.554474e+02	-2.100208e-02
3.575005e+02	-2.124480e-02
3.595654e+02	-2.149031e-02
3.616422e+02	-2.173866e-02
3.637311e+02	-2.198987e-02
3.658320e+02	-2.224397e-02
3.679450e+02	-2.250100e-02
3.700702e+02	-2.276100e-02
3.722077e+02	-2.302399e-02
3.743576e+02	-2.329001e-02
3.765199e+02	-2.355910e-02
3.786946e+02	-2.383128e-02
3.808820e+02	-2.410661e-02
3.830819e+02	-2.438510e-02
3.852946e+02	-2.466680e-02
3.875200e+02	-2.495175e-02
3.897583e+02	-2.523998e-02
3.920096e+02	-2.553153e-02
3.942738e+02	-2.582644e-02
3.965511e+02	-2.612474e-02
3.988416e+02	-2.642648e-02
4.011452e+02	-2.673169e-02
4.034622e+02	-2.704042e-02
4.057926e+02	-2.735270e-02
4.081365e+02	-2.766857e-02
4.104938e+02	-2.798809e-02
4.128648e+02	-2.831128e-02
4.152495e+02	-2.863818e-02
4.176480e+02	-2.896886e-02
4.200603e+02	-2.930333e-02
4.224866e+02	-2.964166e-02
4.249268e+02	-2.998387e-02
4.273812e+02	-3.033003e-02
4.298497e+02	-3.068017e-02
4.323325e+02	-3.103433e-02
4.348297e+02	-3.139257e-02
4.373412e+02	-3.175493e-02
4.398673e+02	-3.212145e-02
4.424079e+02	-3.249219e-02
4.449633e+02	-3.286719e-02
4.475334e+02	-3.324651e-02
4.501183e+02	-3.363018e-02
4.527182e+02	-3.401826e-02
4.553330e+02	-3.441081e-02
4.579630e+02	-3.480787e-02
4.606082e+02	-3.520949e-02
4.632687e+02	-3.561572e-02
4.659445e+02	-3.602662e-02
4.686358e+02	-3.644224e-02
4.713426e+02	-3.686264e-02
4.740650e+02	-3.728787e-02
4.768032e+02	-3.771798e-02
4.795572e+02	-3.815302e-02
4.823271e+02	-3.859307e-02
4.851130e+02	-3.903816e-02
4.879150e+02	-3.948837e-02
4.907332e+02	-3.994375e-02
4.935676e+02	-4.040435e-02
4.964185e+02	-4.087023e-02
4.992858e+02	-4.134147e-02
5.021696e+02	-4.181811e-02
5.050701e+02	-4.230022e-02
5.079874e+02	-4.278786e-02
5.109215e+02	-4.328109e-02
5.138726e+02	-4.377998e-02
5.168407e+02	-4.428459e-02
5.198259e+02	-4.479499e-02
5.228284e+02	-4.531124e-02
5.258482e+02	-4.583341e-02
5.288855e+02	-4.636156e-02
5.319403e+02	-4.689577e-02
5.350128e+02	-4.743610e-02
5.381030e+02	-4.798261e-02
5.412111e+02	-4.853539e-02
5.443371e+02	-4.909451e-02
5.474812e+02	-4.966002e-02
5.506434e+02	-5.023201e-02
5.538239e+02	-5.081056e-02
5.570228e+02	-5.139572e-02
5.602401e+02	-5.198758e-02
5.634760e+02	-5.258622e-02
5.667306e+02	-5.319171e-02
5.700040e+02	-5.380413e-02
5.732964e+02	-5.442355e-02
5.766077e+02	-5.505007e-02
5.799382e+02	-5.568374e-02
5.832879e+02	-5.632466e-02
5.866569e+02	-5.697292e-02
5.900454e+02	-5.762858e-02
5.934535e+02	-5.829174e-02
5.968813e+02	-5.896247e-02
6.003288e+02	-5.964087e-02
6.037963e+02	-6.032703e-02
6.072838e+02	-6.102102e-02
6.107914e+02	-6.172293e-02
6.143194e+02	-6.243287e-02
6.178676e+02	-6.315091e-02
6.214364e+02	-6.387714e-02
6.250258e+02	-6.461167e-02
6.286359e+02	-6.535458e-02
6.322669e+02	-6.610596e-02
6.359189e+02	-6.686592e-02
6.395919e+02	-6.763454e-02
6.432862e+02	-6.841193e-02
6.470017e+02	-6.919819e-02
6.507388e+02	-6.999341e-02
6.544974e+02	-7.079769e-02
6.582778e+02	-7.161114e-02
6.620800e+02	-7.243385e-02
6.659041e+02	-7.326594e-02
6.697504e+02	-7.410751e-02
6.736188e+02	-7.495865e-02
6.775096e+02	-7.581949e-02
6.814229e+02	-7.669013e-02
6.853587e+02	-7.757067e-02
6.893173e+02	-7.846123e-02
6.932988e+02	-7.936193e-02
6.973033e+02	-8.027286e-02
7.013309e+02	-8.119416e-02
