Frequency(Hz)	Magnitude(dB)
1.000000e+01	-1.428643e-05
1.005776e+01	-1.445194e-05
1.011585e+01	-1.461937e-05
1.017428e+01	-1.478874e-05
1.023305e+01	-1.496007e-05
1.029215e+01	-1.513339e-05
1.035160e+01	-1.530871e-05
1.041139e+01	-1.548607e-05
1.047153e+01	-1.566548e-05
1.053201e+01	-1.584696e-05
1.059284e+01	-1.603056e-05
1.065403e+01	-1.621627e-05
1.071556e+01	-1.640414e-05
1.077746e+01	-1.659419e-05
1.083971e+01	-1.678644e-05
1.090232e+01	-1.698091e-05
1.096529e+01	-1.717764e-05
1.102862e+01	-1.737665e-05
1.109232e+01	-1.757796e-05
1.115639e+01	-1.778161e-05
1.122083e+01	-1.798761e-05
1.128564e+01	-1.819600e-05
1.135083e+01	-1.840681e-05
1.141639e+01	-1.862005e-05
1.148233e+01	-1.883577e-05
1.154865e+01	-1.905399e-05
1.161536e+01	-1.927474e-05
1.168245e+01	-1.949804e-05
1.174992e+01	-1.972393e-05
1.181779e+01	-1.995243e-05
1.188605e+01	-2.018359e-05
1.195470e+01	-2.041742e-05
1.202375e+01	-2.065396e-05
1.209320e+01	-2.089324e-05
1.216305e+01	-2.113530e-05
1.223330e+01	-2.138015e-05
1.230396e+01	-2.162785e-05
1.237503e+01	-2.187841e-05
1.244651e+01	-2.213188e-05
1.251840e+01	-2.238828e-05
1.259070e+01	-2.264766e-05
1.266343e+01	-2.291004e-05
1.273657e+01	-2.317545e-05
1.281014e+01	-2.344395e-05
1.288413e+01	-2.371555e-05
1.295855e+01	-2.399030e-05
1.303339e+01	-2.426823e-05
1.310867e+01	-2.454939e-05
1.318439e+01	-2.483380e-05
1.326054e+01	-2.512151e-05
1.333713e+01	-2.541254e-05
1.341417e+01	-2.570695e-05
1.349165e+01	-2.600478e-05
1.356958e+01	-2.630605e-05
1.364795e+01	-2.661081e-05
1.372678e+01	-2.691910e-05
1.380607e+01	-2.723097e-05
1.388581e+01	-2.754644e-05
1.396602e+01	-2.786558e-05
1.404668e+01	-2.818841e-05
1.412782e+01	-2.851497e-05
1.420942e+01	-2.884533e-05
1.429149e+01	-2.917951e-05
1.437404e+01	-2.951756e-05
1.445706e+01	-2.985953e-05
1.454057e+01	-3.020546e-05
1.462455e+01	-3.055539e-05
1.470902e+01	-3.090939e-05
1.479398e+01	-3.126748e-05
1.487943e+01	-3.162972e-05
1.496537e+01	-3.199616e-05
1.505181e+01	-3.236684e-05
1.513875e+01	-3.274182e-05
1.522619e+01	-3.312114e-05
1.531414e+01	-3.350486e-05
1.540259e+01	-3.389302e-05
1.549156e+01	-3.428568e-05
1.558103e+01	-3.468288e-05
1.567103e+01	-3.508469e-05
1.576155e+01	-3.549116e-05
1.585258e+01	-3.590233e-05
1.594415e+01	-3.631827e-05
1.603624e+01	-3.673902e-05
1.612886e+01	-3.716465e-05
1.622202e+01	-3.759521e-05
1.631572e+01	-3.803076e-05
1.640996e+01	-3.847136e-05
1.650474e+01	-3.891706e-05
1.660008e+01	-3.936792e-05
1.669596e+01	-3.982401e-05
1.679239e+01	-4.028538e-05
1.688938e+01	-4.075209e-05
1.698694e+01	-4.122422e-05
1.708505e+01	-4.170181e-05
1.718373e+01	-4.218493e-05
1.728299e+01	-4.267365e-05
1.738281e+01	-4.316804e-05
1.748322e+01	-4.366815e-05
1.758420e+01	-4.417405e-05
1.768576e+01	-4.468582e-05
1.778792e+01	-4.520351e-05
1.789066e+01	-4.572721e-05
1.799399e+01	-4.625697e-05
1.809793e+01	-4.679286e-05
1.820246e+01	-4.733497e-05
1.830760e+01	-4.788336e-05
1.841334e+01	-4.843809e-05
1.851969e+01	-4.899926e-05
1.862666e+01	-4.956693e-05
1.873425e+01	-5.014117e-05
1.884246e+01	-5.072207e-05
1.895129e+01	-5.130969e-05
1.906075e+01	-5.190413e-05
1.917085e+01	-5.250545e-05
1.928158e+01	-5.311373e-05
1.939295e+01	-5.372907e-05
1.950496e+01	-5.435153e-05
1.961762e+01	-5.498120e-05
1.973093e+01	-5.561817e-05
1.984490e+01	-5.626252e-05
1.995952e+01	-5.691433e-05
2.007480e+01	-5.757370e-05
2.019076e+01	-5.824070e-05
2.030738e+01	-5.891543e-05
2.042467e+01	-5.959798e-05
2.054264e+01	-6.028843e-05
2.066130e+01	-6.098688e-05
2.078064e+01	-6.169343e-05
2.090066e+01	-6.240816e-05
2.102139e+01	-6.313117e-05
2.114280e+01	-6.386256e-05
2.126492e+01	-6.460242e-05
2.138775e+01	-6.535085e-05
2.151128e+01	-6.610795e-05
2.163553e+01	-6.687382e-05
2.176050e+01	-6.764857e-05
2.188619e+01	-6.843229e-05
2.201260e+01	-6.922509e-05
2.213974e+01	-7.002708e-05
2.226762e+01	-7.083835e-05
2.239624e+01	-7.165903e-05
2.252560e+01	-7.248921e-05
2.265571e+01	-7.332901e-05
2.278656e+01	-7.417854e-05
2.291818e+01	-7.503792e-05
2.305055e+01	-7.590724e-05
2.318369e+01	-7.678664e-05
2.331760e+01	-7.767623e-05
2.345228e+01	-7.857612e-05
2.358774e+01	-7.948644e-05
2.372398e+01	-8.040730e-05
2.386101e+01	-8.133884e-05
2.399883e+01	-8.228116e-05
2.413745e+01	-8.323440e-05
2.427686e+01	-8.419869e-05
2.441709e+01	-8.517414e-05
2.455812e+01	-8.616090e-05
2.469997e+01	-8.715909e-05
2.484263e+01	-8.816884e-05
2.498612e+01	-8.919029e-05
2.513044e+01	-9.022357e-05
2.527559e+01	-9.126883e-05
2.542158e+01	-9.232619e-05
2.556842e+01	-9.339580e-05
2.571610e+01	-9.447781e-05
2.586463e+01	-9.557235e-05
2.601403e+01	-9.667957e-05
2.616428e+01	-9.779961e-05
2.631541e+01	-9.893264e-05
2.646740e+01	-1.000788e-04
2.662028e+01	-1.012382e-04
2.677404e+01	-1.024111e-04
2.692868e+01	-1.035975e-04
2.708422e+01	-1.047977e-04
2.724066e+01	-1.060118e-04
2.739800e+01	-1.072400e-04
2.755625e+01	-1.084824e-04
2.771541e+01	-1.097391e-04
2.787550e+01	-1.110105e-04
2.803650e+01	-1.122966e-04
2.819844e+01	-1.135975e-04
2.836131e+01	-1.149136e-04
2.852513e+01	-1.162449e-04
2.868989e+01	-1.175916e-04
2.885560e+01	-1.189539e-04
2.902227e+01	-1.203320e-04
2.918990e+01	-1.217260e-04
2.935850e+01	-1.231362e-04
2.952807e+01	-1.245628e-04
2.969863e+01	-1.260059e-04
2.987016e+01	-1.274657e-04
3.004269e+01	-1.289424e-04
3.021622e+01	-1.304362e-04
3.039075e+01	-1.319473e-04
3.056628e+01	-1.334759e-04
3.074283e+01	-1.350222e-04
3.092040e+01	-1.365865e-04
3.109900e+01	-1.381689e-04
3.127862e+01	-1.397696e-04
3.145929e+01	-1.413888e-04
3.164099e+01	-1.430268e-04
3.182375e+01	-1.446838e-04
3.200756e+01	-1.463599e-04
3.219244e+01	-1.480555e-04
3.237838e+01	-1.497708e-04
3.256540e+01	-1.515059e-04
3.275349e+01	-1.532611e-04
3.294268e+01	-1.550366e-04
3.313295e+01	-1.568327e-04
3.332433e+01	-1.586497e-04
3.351681e+01	-1.604876e-04
3.371040e+01	-1.623469e-04
3.390511e+01	-1.642277e-04
3.410094e+01	-1.661303e-04
3.429791e+01	-1.680549e-04
3.449601e+01	-1.700018e-04
3.469526e+01	-1.719713e-04
3.489566e+01	-1.739636e-04
3.509721e+01	-1.759790e-04
3.529993e+01	-1.780177e-04
3.550382e+01	-1.800800e-04
3.570889e+01	-1.821663e-04
3.591515e+01	-1.842767e-04
3.612259e+01	-1.864115e-04
3.633123e+01	-1.885711e-04
3.654108e+01	-1.907557e-04
3.675214e+01	-1.929656e-04
3.696442e+01	-1.952011e-04
3.717792e+01	-1.974625e-04
3.739266e+01	-1.997501e-04
3.760864e+01	-2.020642e-04
3.782587e+01	-2.044052e-04
3.804435e+01	-2.067732e-04
3.826409e+01	-2.091687e-04
3.848510e+01	-2.115919e-04
3.870739e+01	-2.140432e-04
3.893096e+01	-2.165229e-04
3.915583e+01	-2.190313e-04
3.938199e+01	-2.215687e-04
3.960946e+01	-2.241356e-04
3.983824e+01	-2.267322e-04
4.006834e+01	-2.293589e-04
4.029978e+01	-2.320160e-04
4.053255e+01	-2.347039e-04
4.076666e+01	-2.374230e-04
4.100213e+01	-2.401735e-04
4.123896e+01	-2.429559e-04
4.147715e+01	-2.457705e-04
4.171672e+01	-2.486178e-04
4.195767e+01	-2.514980e-04
4.220002e+01	-2.544116e-04
4.244377e+01	-2.573589e-04
4.268892e+01	-2.603404e-04
4.293549e+01	-2.633564e-04
4.318348e+01	-2.664074e-04
4.343291e+01	-2.694937e-04
4.368377e+01	-2.726158e-04
4.393609e+01	-2.757740e-04
4.418986e+01	-2.789688e-04
4.444510e+01	-2.822006e-04
4.470182e+01	-2.854699e-04
4.496001e+01	-2.887770e-04
4.521970e+01	-2.921225e-04
4.548089e+01	-2.955067e-04
4.574358e+01	-2.989301e-04
4.600779e+01	-3.023932e-04
4.627353e+01	-3.058963e-04
4.654081e+01	-3.094401e-04
4.680963e+01	-3.130249e-04
4.708000e+01	-3.166513e-04
4.735193e+01	-3.203196e-04
4.762543e+01	-3.240305e-04
4.790051e+01	-3.277843e-04
4.817719e+01	-3.315817e-04
4.845545e+01	-3.354230e-04
4.873533e+01	-3.393088e-04
4.901682e+01	-3.432396e-04
4.929994e+01	-3.472160e-04
4.958470e+01	-3.512384e-04
4.987110e+01	-3.553075e-04
5.015915e+01	-3.594236e-04
5.044887e+01	-3.635875e-04
5.074026e+01	-3.677996e-04
5.103333e+01	-3.720604e-04
5.132810e+01	-3.763707e-04
5.162457e+01	-3.807308e-04
5.192275e+01	-3.851415e-04
5.222265e+01	-3.896033e-04
5.252429e+01	-3.941167e-04
5.282767e+01	-3.986825e-04
5.313280e+01	-4.033011e-04
5.343969e+01	-4.079732e-04
5.374836e+01	-4.126995e-04
5.405880e+01	-4.174805e-04
5.437105e+01	-4.223169e-04
5.468509e+01	-4.272093e-04
5.500095e+01	-4.321584e-04
5.531863e+01	-4.371648e-04
5.563815e+01	-4.422293e-04
5.595951e+01	-4.473523e-04
5.628273e+01	-4.525348e-04
5.660782e+01	-4.577772e-04
5.693479e+01	-4.630804e-04
5.726364e+01	-4.684451e-04
5.759439e+01	-4.738718e-04
5.792705e+01	-4.793615e-04
5.826164e+01	-4.849147e-04
5.859815e+01	-4.905322e-04
5.893662e+01	-4.962149e-04
5.927703e+01	-5.019633e-04
5.961941e+01	-5.077784e-04
5.996377e+01	-5.136608e-04
6.031012e+01	-5.196113e-04
6.065847e+01	-5.256308e-04
6.100883e+01	-5.317200e-04
6.136121e+01	-5.378797e-04
6.171563e+01	-5.441108e-04
6.207210e+01	-5.504141e-04
6.243063e+01	-5.567904e-04
6.279122e+01	-5.632405e-04
6.315390e+01	-5.697654e-04
6.351868e+01	-5.763659e-04
6.388556e+01	-5.830428e-04
6.425456e+01	-5.897970e-04
6.462569e+01	-5.966295e-04
6.499897e+01	-6.035411e-04
6.537440e+01	-6.105328e-04
6.575200e+01	-6.176055e-04
6.613178e+01	-6.247601e-04
6.651375e+01	-6.319976e-04
6.689793e+01	-6.393190e-04
6.728433e+01	-6.467251e-04
6.767297e+01	-6.542170e-04
6.806384e+01	-6.617957e-04
6.845698e+01	-6.694622e-04
6.885238e+01	-6.772175e-04
6.925007e+01	-6.850627e-04
6.965005e+01	-6.929987e-04
7.005235e+01	-7.010266e-04
7.045697e+01	-7.091475e-04
7.086393e+01	-7.173625e-04
7.127323e+01	-7.256726e-04
7.168490e+01	-7.340791e-04
7.209895e+01	-7.425828e-04
7.251539e+01	-7.511851e-04
7.293424e+01	-7.598870e-04
7.335551e+01	-7.686898e-04
7.377920e+01	-7.775944e-04
7.420535e+01	-7.866023e-04
7.463396e+01	-7.957144e-04
7.506504e+01	-8.049322e-04
7.549861e+01	-8.142566e-04
7.593469e+01	-8.236891e-04
7.637328e+01	-8.332309e-04
7.681441e+01	-8.428831e-04
7.725809e+01	-8.526472e-04
7.770433e+01	-8.625244e-04
7.815315e+01	-8.725160e-04
7.860456e+01	-8.826233e-04
7.905857e+01	-8.928477e-04
7.951521e+01	-9.031905e-04
7.997449e+01	-9.136531e-04
8.043642e+01	-9.242369e-04
8.090102e+01	-9.349432e-04
8.136830e+01	-9.457736e-04
8.183828e+01	-9.567295e-04
8.231097e+01	-9.678122e-04
8.278640e+01	-9.790233e-04
8.326457e+01	-9.903643e-04
8.374550e+01	-1.001837e-03
8.422921e+01	-1.013442e-03
8.471572e+01	-1.025181e-03
8.520503e+01	-1.037057e-03
8.569717e+01	-1.049070e-03
8.619215e+01	-1.061222e-03
8.669000e+01	-1.073515e-03
8.719071e+01	-1.085951e-03
8.769432e+01	-1.098530e-03
8.820084e+01	-1.111255e-03
8.871029e+01	-1.124128e-03
8.922267e+01	-1.137150e-03
8.973802e+01	-1.150322e-03
9.025634e+01	-1.163647e-03
9.077766e+01	-1.177126e-03
9.130199e+01	-1.190762e-03
9.182935e+01	-1.204555e-03
9.235975e+01	-1.218508e-03
9.289321e+01	-1.232623e-03
9.342976e+01	-1.246901e-03
9.396941e+01	-1.261345e-03
9.451217e+01	-1.275956e-03
9.505807e+01	-1.290736e-03
9.560712e+01	-1.305687e-03
9.615934e+01	-1.320812e-03
9.671476e+01	-1.336111e-03
9.727338e+01	-1.351588e-03
9.783522e+01	-1.367244e-03
9.840032e+01	-1.383081e-03
9.896867e+01	-1.399102e-03
9.954031e+01	-1.415308e-03
1.001153e+02	-1.431703e-03
1.006935e+02	-1.448286e-03
1.012751e+02	-1.465062e-03
1.018601e+02	-1.482033e-03
1.024484e+02	-1.499199e-03
1.030402e+02	-1.516565e-03
1.036353e+02	-1.534132e-03
1.042339e+02	-1.551902e-03
1.048360e+02	-1.569878e-03
1.054415e+02	-1.588062e-03
1.060505e+02	-1.606457e-03
1.066631e+02	-1.625064e-03
1.072791e+02	-1.643888e-03
1.078988e+02	-1.662929e-03
1.085220e+02	-1.682191e-03
1.091488e+02	-1.701675e-03
1.097793e+02	-1.721386e-03
1.104133e+02	-1.741325e-03
1.110511e+02	-1.761494e-03
1.116925e+02	-1.781897e-03
1.123376e+02	-1.802537e-03
1.129865e+02	-1.823415e-03
1.136391e+02	-1.844536e-03
1.142955e+02	-1.865900e-03
1.149556e+02	-1.887513e-03
1.156196e+02	-1.909375e-03
1.162874e+02	-1.931491e-03
1.169591e+02	-1.953863e-03
1.176347e+02	-1.976494e-03
1.183141e+02	-1.999386e-03
1.189975e+02	-2.022544e-03
1.196848e+02	-2.045971e-03
1.203761e+02	-2.069668e-03
1.210714e+02	-2.093640e-03
1.217707e+02	-2.117889e-03
1.224740e+02	-2.142420e-03
1.231814e+02	-2.167234e-03
1.238929e+02	-2.192336e-03
1.246085e+02	-2.217728e-03
1.253283e+02	-2.243414e-03
1.260522e+02	-2.269398e-03
1.267802e+02	-2.295683e-03
1.275125e+02	-2.322272e-03
1.282490e+02	-2.349168e-03
1.289898e+02	-2.376377e-03
1.297348e+02	-2.403900e-03
1.304842e+02	-2.431742e-03
1.312378e+02	-2.459906e-03
1.319959e+02	-2.488397e-03
1.327583e+02	-2.517217e-03
1.335251e+02	-2.546371e-03
1.342963e+02	-2.575863e-03
1.350720e+02	-2.605696e-03
1.358522e+02	-2.635875e-03
1.366368e+02	-2.666402e-03
1.374260e+02	-2.697284e-03
1.382198e+02	-2.728523e-03
1.390182e+02	-2.760123e-03
1.398211e+02	-2.792090e-03
1.406287e+02	-2.824426e-03
1.414410e+02	-2.857137e-03
1.422579e+02	-2.890227e-03
1.430796e+02	-2.923700e-03
1.439060e+02	-2.957560e-03
1.447372e+02	-2.991812e-03
1.455732e+02	-3.026461e-03
1.464141e+02	-3.061511e-03
1.472597e+02	-3.096967e-03
1.481103e+02	-3.132833e-03
1.489658e+02	-3.169114e-03
1.498262e+02	-3.205816e-03
1.506916e+02	-3.242942e-03
1.515620e+02	-3.280498e-03
1.524374e+02	-3.318489e-03
1.533179e+02	-3.356920e-03
1.542034e+02	-3.395795e-03
1.550941e+02	-3.435121e-03
1.559899e+02	-3.474902e-03
1.568909e+02	-3.515143e-03
1.577971e+02	-3.555850e-03
1.587085e+02	-3.597028e-03
1.596252e+02	-3.638683e-03
1.605472e+02	-3.680821e-03
1.614745e+02	-3.723446e-03
1.624072e+02	-3.766564e-03
1.633453e+02	-3.810181e-03
1.642887e+02	-3.854304e-03
1.652377e+02	-3.898937e-03
1.661921e+02	-3.944086e-03
1.671520e+02	-3.989759e-03
1.681175e+02	-4.035959e-03
1.690885e+02	-4.082695e-03
1.700651e+02	-4.129972e-03
1.710474e+02	-4.177795e-03
1.720354e+02	-4.226172e-03
1.730291e+02	-4.275110e-03
1.740285e+02	-4.324613e-03
1.750337e+02	-4.374690e-03
1.760446e+02	-4.425346e-03
1.770615e+02	-4.476588e-03
1.780842e+02	-4.528423e-03
1.791128e+02	-4.580858e-03
1.801473e+02	-4.633900e-03
1.811878e+02	-4.687556e-03
1.822344e+02	-4.741833e-03
1.832870e+02	-4.796738e-03
1.843456e+02	-4.852278e-03
1.854104e+02	-4.908461e-03
1.864813e+02	-4.965295e-03
1.875584e+02	-5.022785e-03
1.886418e+02	-5.080942e-03
1.897313e+02	-5.139771e-03
1.908272e+02	-5.199280e-03
1.919294e+02	-5.259479e-03
1.930380e+02	-5.320374e-03
1.941530e+02	-5.381973e-03
1.952744e+02	-5.444286e-03
1.964023e+02	-5.507319e-03
1.975367e+02	-5.571082e-03
1.986777e+02	-5.635582e-03
1.998252e+02	-5.700829e-03
2.009794e+02	-5.766830e-03
2.021403e+02	-5.833596e-03
2.033078e+02	-5.901133e-03
2.044821e+02	-5.969452e-03
2.056632e+02	-6.038562e-03
2.068511e+02	-6.108471e-03
2.080459e+02	-6.179188e-03
2.092475e+02	-6.250724e-03
2.104561e+02	-6.323087e-03
2.116717e+02	-6.396288e-03
2.128943e+02	-6.470335e-03
2.141240e+02	-6.545239e-03
2.153608e+02	-6.621009e-03
2.166047e+02	-6.697656e-03
2.178558e+02	-6.775189e-03
2.191141e+02	-6.853619e-03
2.203797e+02	-6.932957e-03
2.216526e+02	-7.013212e-03
2.229329e+02	-7.094395e-03
2.242205e+02	-7.176517e-03
2.255156e+02	-7.259589e-03
2.268182e+02	-7.343622e-03
2.281283e+02	-7.428627e-03
2.294459e+02	-7.514615e-03
2.307712e+02	-7.601597e-03
2.321041e+02	-7.689585e-03
2.334447e+02	-7.778591e-03
2.347931e+02	-7.868626e-03
2.361493e+02	-7.959702e-03
2.375133e+02	-8.051831e-03
2.388851e+02	-8.145026e-03
2.402649e+02	-8.239298e-03
2.416527e+02	-8.334661e-03
2.430484e+02	-8.431126e-03
2.444523e+02	-8.528706e-03
2.458642e+02	-8.627415e-03
2.472843e+02	-8.727265e-03
2.487126e+02	-8.828269e-03
2.501492e+02	-8.930442e-03
2.515940e+02	-9.033795e-03
2.530472e+02	-9.138343e-03
2.545088e+02	-9.244100e-03
2.559789e+02	-9.351080e-03
2.574574e+02	-9.459296e-03
2.589444e+02	-9.568763e-03
2.604401e+02	-9.679495e-03
2.619444e+02	-9.791508e-03
2.634574e+02	-9.904815e-03
2.649791e+02	-1.001943e-02
2.665096e+02	-1.013537e-02
2.680489e+02	-1.025266e-02
2.695972e+02	-1.037129e-02
2.711544e+02	-1.049130e-02
2.727205e+02	-1.061270e-02
2.742958e+02	-1.073549e-02
2.758801e+02	-1.085971e-02
2.774736e+02	-1.098536e-02
2.790762e+02	-1.111247e-02
2.806882e+02	-1.124104e-02
2.823094e+02	-1.137110e-02
2.839400e+02	-1.150266e-02
2.855800e+02	-1.163575e-02
2.872295e+02	-1.177037e-02
2.888886e+02	-1.190654e-02
2.905572e+02	-1.204429e-02
2.922354e+02	-1.218363e-02
2.939234e+02	-1.232458e-02
2.956211e+02	-1.246716e-02
2.973286e+02	-1.261138e-02
2.990459e+02	-1.275727e-02
3.007732e+02	-1.290485e-02
3.025104e+02	-1.305413e-02
3.042577e+02	-1.320513e-02
3.060151e+02	-1.335788e-02
3.077826e+02	-1.351239e-02
3.095604e+02	-1.366869e-02
3.113484e+02	-1.382679e-02
3.131467e+02	-1.398672e-02
3.149554e+02	-1.414849e-02
3.167746e+02	-1.431214e-02
3.186043e+02	-1.447767e-02
3.204445e+02	-1.464511e-02
3.222954e+02	-1.481449e-02
3.241570e+02	-1.498582e-02
3.260293e+02	-1.515913e-02
3.279124e+02	-1.533444e-02
3.298064e+02	-1.551178e-02
3.317114e+02	-1.569116e-02
3.336273e+02	-1.587261e-02
3.355544e+02	-1.605616e-02
3.374925e+02	-1.624182e-02
3.394418e+02	-1.642963e-02
3.414024e+02	-1.661961e-02
3.433744e+02	-1.681177e-02
3.453577e+02	-1.700616e-02
3.473525e+02	-1.720279e-02
3.493588e+02	-1.740169e-02
3.513766e+02	-1.760288e-02
3.534062e+02	-1.780639e-02
3.554474e+02	-1.801226e-02
3.575005e+02	-1.822049e-02
3.595654e+02	-1.843113e-02
3.616422e+02	-1.864420e-02
3.637311e+02	-1.885973e-02
3.658320e+02	-1.907774e-02
3.679450e+02	-1.929827e-02
3.700702e+02	-1.952134e-02
3.722077e+02	-1.974698e-02
3.743576e+02	-1.997523e-02
3.765199e+02	-2.020610e-02
3.786946e+02	-2.043964e-02
3.808820e+02	-2.067588e-02
3.830819e+02	-2.091483e-02
3.852946e+02	-2.115654e-02
3.875200e+02	-2.140104e-02
3.897583e+02	-2.164836e-02
3.920096e+02	-2.189852e-02
3.942738e+02	-2.215157e-02
3.965511e+02	-2.240754e-02
3.988416e+02	-2.266646e-02
4.011452e+02	-2.292836e-02
4.034622e+02	-2.319328e-02
4.057926e+02	-2.346125e-02
4.081365e+02	-2.373231e-02
4.104938e+02	-2.400649e-02
4.128648e+02	-2.428383e-02
4.152495e+02	-2.456436e-02
4.176480e+02	-2.484813e-02
4.200603e+02	-2.513517e-02
4.224866e+02	-2.542551e-02
4.249268e+02	-2.571919e-02
4.273812e+02	-2.601626e-02
4.298497e+02	-2.631675e-02
4.323325e+02	-2.662070e-02
4.348297e+02	-2.692814e-02
4.373412e+02	-2.723913e-02
4.398673e+02	-2.755370e-02
4.424079e+02	-2.787189e-02
4.449633e+02	-2.819374e-02
4.475334e+02	-2.851929e-02
4.501183e+02	-2.884859e-02
4.527182e+02	-2.918169e-02
4.553330e+02	-2.951861e-02
4.579630e+02	-2.985941e-02
4.606082e+02	-3.020413e-02
4.632687e+02	-3.055282e-02
4.659445e+02	-3.090552e-02
4.686358e+02	-3.126227e-02
4.713426e+02	-3.162313e-02
4.740650e+02	-3.198814e-02
4.768032e+02	-3.235734e-02
4.795572e+02	-3.273079e-02
4.823271e+02	-3.310854e-02
4.851130e+02	-3.349062e-02
4.879150e+02	-3.387710e-02
4.907332e+02	-3.426802e-02
4.935676e+02	-3.466344e-02
4.964185e+02	-3.506339e-02
4.992858e+02	-3.546795e-02
5.021696e+02	-3.587715e-02
5.050701e+02	-3.629105e-02
5.079874e+02	-3.670971e-02
5.109215e+02	-3.713318e-02
5.138726e+02	-3.756151e-02
5.168407e+02	-3.799476e-02
5.198259e+02	-3.843298e-02
5.228284e+02	-3.887624e-02
5.258482e+02	-3.932458e-02
5.288855e+02	-3.977808e-02
5.319403e+02	-4.023677e-02
5.350128e+02	-4.070074e-02
5.381030e+02	-4.117002e-02
5.412111e+02	-4.164469e-02
5.443371e+02	-4.212481e-02
5.474812e+02	-4.261043e-02
5.506434e+02	-4.310163e-02
5.538239e+02	-4.359846e-02
5.570228e+02	-4.410099e-02
5.602401e+02	-4.460928e-02
5.634760e+02	-4.512339e-02
5.667306e+02	-4.564340e-02
5.700040e+02	-4.616938e-02
5.732964e+02	-4.670138e-02
5.766077e+02	-4.723947e-02
5.799382e+02	-4.778374e-02
5.832879e+02	-4.833423e-02
5.866569e+02	-4.889104e-02
5.900454e+02	-4.945422e-02
5.934535e+02	-5.002385e-02
5.968813e+02	-5.060000e-02
6.003288e+02	-5.118276e-02
6.037963e+02	-5.177218e-02
6.072838e+02	-5.236835e-02
6.107914e+02	-5.297134e-02
6.143194e+02	-5.358123e-02
6.178676e+02	-5.419810e-02
6.214364e+02	-5.482203e-02
6.250258e+02	-5.545309e-02
6.286359e+02	-5.609137e-02
6.322669e+02	-5.673695e-02
6.359189e+02	-5.738991e-02
6.395919e+02	-5.805033e-02
6.432862e+02	-5.871831e-02
6.470017e+02	-5.939391e-02
6.507388e+02	-6.007724e-02
6.544974e+02	-6.076837e-02
6.582778e+02	-6.146740e-02
6.620800e+02	-6.217441e-02
6.659041e+02	-6.288949e-02
6.697504e+02	-6.361273e-02
6.736188e+02	-6.434424e-02
6.775096e+02	-6.508409e-02
6.814229e+02	-6.583238e-02
6.853587e+02	-6.658921e-02
6.893173e+02	-6.735467e-02
6.932988e+02	-6.812886e-02
6.973033e+02	-6.891188e-02
7.013309e+02	-6.970383e-02
