Frequency(Hz)	Magnitude(dB)
1.000000e+01	-2.211784e+00
1.005776e+01	-2.232137e+00
1.011585e+01	-2.252178e+00
1.017428e+01	-2.272460e+00
1.023305e+01	-2.293048e+00
1.029215e+01	-2.313464e+00
1.035160e+01	-2.334244e+00
1.041139e+01	-2.355149e+00
1.047153e+01	-2.376221e+00
1.053201e+01	-2.397284e+00
1.059284e+01	-2.418299e+00
1.065403e+01	-2.440160e+00
1.071556e+01	-2.461459e+00
1.077746e+01	-2.483381e+00
1.083971e+01	-2.505184e+00
1.090232e+01	-2.527126e+00
1.096529e+01	-2.549354e+00
1.102862e+01	-2.571523e+00
1.109232e+01	-2.594176e+00
1.115639e+01	-2.616696e+00
1.122083e+01	-2.639193e+00
1.128564e+01	-2.662059e+00
1.135083e+01	-2.685214e+00
1.141639e+01	-2.708239e+00
1.148233e+01	-2.731520e+00
1.154865e+01	-2.755057e+00
1.161536e+01	-2.778425e+00
1.168245e+01	-2.802376e+00
1.174992e+01	-2.826185e+00
1.181779e+01	-2.850208e+00
1.188605e+01	-2.874073e+00
1.195470e+01	-2.898592e+00
1.202375e+01	-2.922770e+00
1.209320e+01	-2.947529e+00
1.216305e+01	-2.972191e+00
1.223330e+01	-2.997266e+00
1.230396e+01	-3.022145e+00
1.237503e+01	-3.047289e+00
1.244651e+01	-3.072476e+00
1.251840e+01	-3.098113e+00
1.259070e+01	-3.123584e+00
1.266343e+01	-3.149369e+00
1.273657e+01	-3.174962e+00
1.281014e+01	-3.201226e+00
1.288413e+01	-3.227342e+00
1.295855e+01	-3.253867e+00
1.303339e+01	-3.280116e+00
1.310867e+01	-3.306757e+00
1.318439e+01	-3.333313e+00
1.326054e+01	-3.360458e+00
1.333713e+01	-3.387300e+00
1.341417e+01	-3.414569e+00
1.349165e+01	-3.442094e+00
1.356958e+01	-3.469321e+00
1.364795e+01	-3.496765e+00
1.372678e+01	-3.524638e+00
1.380607e+01	-3.552587e+00
1.388581e+01	-3.580479e+00
1.396602e+01	-3.608689e+00
1.404668e+01	-3.636842e+00
1.412782e+01	-3.664961e+00
1.420942e+01	-3.694074e+00
1.429149e+01	-3.722595e+00
1.437404e+01	-3.751539e+00
1.445706e+01	-3.780315e+00
1.454057e+01	-3.809780e+00
1.462455e+01	-3.839127e+00
1.470902e+01	-3.868214e+00
1.479398e+01	-3.898032e+00
1.487943e+01	-3.927521e+00
1.496537e+01	-3.957587e+00
1.505181e+01	-3.987550e+00
1.513875e+01	-4.017764e+00
1.522619e+01	-4.047775e+00
1.531414e+01	-4.078244e+00
1.540259e+01	-4.108943e+00
1.549156e+01	-4.139440e+00
1.558103e+01	-4.170444e+00
1.567103e+01	-4.201262e+00
1.576155e+01	-4.232108e+00
1.585258e+01	-4.263635e+00
1.594415e+01	-4.294820e+00
1.603624e+01	-4.326355e+00
1.612886e+01	-4.358068e+00
1.622202e+01	-4.389850e+00
1.631572e+01	-4.421659e+00
1.640996e+01	-4.453958e+00
1.650474e+01	-4.485967e+00
1.660008e+01	-4.518055e+00
1.669596e+01	-4.550574e+00
1.679239e+01	-4.583196e+00
1.688938e+01	-4.615728e+00
1.698694e+01	-4.648511e+00
1.708505e+01	-4.681398e+00
1.718373e+01	-4.714552e+00
1.728299e+01	-4.748037e+00
1.738281e+01	-4.781046e+00
1.748322e+01	-4.814445e+00
1.758420e+01	-4.848254e+00
1.768576e+01	-4.881894e+00
1.778792e+01	-4.915723e+00
1.789066e+01	-4.949831e+00
1.799399e+01	-4.983766e+00
1.809793e+01	-5.018272e+00
1.820246e+01	-5.052477e+00
1.830760e+01	-5.086829e+00
1.841334e+01	-5.121330e+00
1.851969e+01	-5.156182e+00
1.862666e+01	-5.190964e+00
1.873425e+01	-5.226031e+00
1.884246e+01	-5.261124e+00
1.895129e+01	-5.296027e+00
1.906075e+01	-5.331240e+00
1.917085e+01	-5.366822e+00
1.928158e+01	-5.402483e+00
1.939295e+01	-5.438115e+00
1.950496e+01	-5.473566e+00
1.961762e+01	-5.509766e+00
1.973093e+01	-5.546054e+00
1.984490e+01	-5.582328e+00
1.995952e+01	-5.618132e+00
2.007480e+01	-5.654519e+00
2.019076e+01	-5.691089e+00
2.030738e+01	-5.727484e+00
2.042467e+01	-5.764284e+00
2.054264e+01	-5.801069e+00
2.066130e+01	-5.838028e+00
2.078064e+01	-5.874908e+00
2.090066e+01	-5.912024e+00
2.102139e+01	-5.948948e+00
2.114280e+01	-5.987094e+00
2.126492e+01	-6.024060e+00
2.138775e+01	-6.061841e+00
2.151128e+01	-6.099223e+00
2.163553e+01	-6.137365e+00
2.176050e+01	-6.175376e+00
2.188619e+01	-6.213120e+00
2.201260e+01	-6.251025e+00
2.213974e+01	-6.289372e+00
2.226762e+01	-6.327733e+00
2.239624e+01	-6.366265e+00
2.252560e+01	-6.404850e+00
2.265571e+01	-6.443672e+00
2.278656e+01	-6.482283e+00
2.291818e+01	-6.521124e+00
2.305055e+01	-6.559965e+00
2.318369e+01	-6.598973e+00
2.331760e+01	-6.637822e+00
2.345228e+01	-6.677384e+00
2.358774e+01	-6.716549e+00
2.372398e+01	-6.756109e+00
2.386101e+01	-6.795769e+00
2.399883e+01	-6.835067e+00
2.413745e+01	-6.874870e+00
2.427686e+01	-6.914861e+00
2.441709e+01	-6.954414e+00
2.455812e+01	-6.994858e+00
2.469997e+01	-7.034633e+00
2.484263e+01	-7.074805e+00
2.498612e+01	-7.114758e+00
2.513044e+01	-7.155419e+00
2.527559e+01	-7.196097e+00
2.542158e+01	-7.236480e+00
2.556842e+01	-7.277255e+00
2.571610e+01	-7.317754e+00
2.586463e+01	-7.358884e+00
2.601403e+01	-7.399004e+00
2.616428e+01	-7.440362e+00
2.631541e+01	-7.481216e+00
2.646740e+01	-7.522123e+00
2.662028e+01	-7.563826e+00
2.677404e+01	-7.604789e+00
2.692868e+01	-7.646632e+00
2.708422e+01	-7.687637e+00
2.724066e+01	-7.729372e+00
2.739800e+01	-7.771135e+00
2.755625e+01	-7.812813e+00
2.771541e+01	-7.854472e+00
2.787550e+01	-7.896432e+00
2.803650e+01	-7.938412e+00
2.819844e+01	-7.979981e+00
2.836131e+01	-8.022365e+00
2.852513e+01	-8.064347e+00
2.868989e+01	-8.106706e+00
2.885560e+01	-8.148920e+00
2.902227e+01	-8.191826e+00
2.918990e+01	-8.234301e+00
2.935850e+01	-8.277029e+00
2.952807e+01	-8.319411e+00
2.969863e+01	-8.361791e+00
2.987016e+01	-8.404818e+00
3.004269e+01	-8.448588e+00
3.021622e+01	-8.490309e+00
3.039075e+01	-8.533869e+00
3.056628e+01	-8.576763e+00
3.074283e+01	-8.619584e+00
3.092040e+01	-8.662854e+00
3.109900e+01	-8.706458e+00
3.127862e+01	-8.749943e+00
3.145929e+01	-8.792446e+00
3.164099e+01	-8.836135e+00
3.182375e+01	-8.879998e+00
3.200756e+01	-8.923506e+00
3.219244e+01	-8.967057e+00
3.237838e+01	-9.010881e+00
3.256540e+01	-9.054767e+00
3.275349e+01	-9.098702e+00
3.294268e+01	-9.142239e+00
3.313295e+01	-9.186581e+00
3.332433e+01	-9.230307e+00
3.351681e+01	-9.274568e+00
3.371040e+01	-9.318553e+00
3.390511e+01	-9.362739e+00
3.410094e+01	-9.406937e+00
3.429791e+01	-9.450947e+00
3.449601e+01	-9.495695e+00
3.469526e+01	-9.540262e+00
3.489566e+01	-9.584346e+00
3.509721e+01	-9.628846e+00
3.529993e+01	-9.673956e+00
3.550382e+01	-9.718530e+00
3.570889e+01	-9.762905e+00
3.591515e+01	-9.807997e+00
3.612259e+01	-9.852438e+00
3.633123e+01	-9.897383e+00
3.654108e+01	-9.942383e+00
3.675214e+01	-9.987085e+00
3.696442e+01	-1.003257e+01
3.717792e+01	-1.007723e+01
3.739266e+01	-1.012335e+01
3.760864e+01	-1.016760e+01
3.782587e+01	-1.021265e+01
3.804435e+01	-1.025845e+01
3.826409e+01	-1.030393e+01
3.848510e+01	-1.034952e+01
3.870739e+01	-1.039448e+01
3.893096e+01	-1.044019e+01
3.915583e+01	-1.048582e+01
3.938199e+01	-1.053104e+01
3.960946e+01	-1.057613e+01
3.983824e+01	-1.062239e+01
4.006834e+01	-1.066769e+01
4.029978e+01	-1.071419e+01
4.053255e+01	-1.075986e+01
4.076666e+01	-1.080535e+01
4.100213e+01	-1.085191e+01
4.123896e+01	-1.089781e+01
4.147715e+01	-1.094336e+01
4.171672e+01	-1.098958e+01
4.195767e+01	-1.103581e+01
4.220002e+01	-1.108173e+01
4.244377e+01	-1.112801e+01
4.268892e+01	-1.117379e+01
4.293549e+01	-1.121979e+01
4.318348e+01	-1.126648e+01
4.343291e+01	-1.131268e+01
4.368377e+01	-1.135950e+01
4.393609e+01	-1.140605e+01
4.418986e+01	-1.145154e+01
4.444510e+01	-1.149818e+01
4.470182e+01	-1.154459e+01
4.496001e+01	-1.159175e+01
4.521970e+01	-1.163796e+01
4.548089e+01	-1.168455e+01
4.574358e+01	-1.173115e+01
4.600779e+01	-1.177797e+01
4.627353e+01	-1.182448e+01
4.654081e+01	-1.187118e+01
4.680963e+01	-1.191784e+01
4.708000e+01	-1.196465e+01
4.735193e+01	-1.201194e+01
4.762543e+01	-1.205927e+01
4.790051e+01	-1.210605e+01
4.817719e+01	-1.215263e+01
4.845545e+01	-1.220011e+01
4.873533e+01	-1.224658e+01
4.901682e+01	-1.229358e+01
4.929994e+01	-1.234079e+01
4.958470e+01	-1.238783e+01
4.987110e+01	-1.243524e+01
5.015915e+01	-1.248217e+01
5.044887e+01	-1.252989e+01
5.074026e+01	-1.257721e+01
5.103333e+01	-1.262367e+01
5.132810e+01	-1.267098e+01
5.162457e+01	-1.271867e+01
5.192275e+01	-1.276651e+01
5.222265e+01	-1.281363e+01
5.252429e+01	-1.286125e+01
5.282767e+01	-1.290882e+01
5.313280e+01	-1.295599e+01
5.343969e+01	-1.300332e+01
5.374836e+01	-1.305089e+01
5.405880e+01	-1.309756e+01
5.437105e+01	-1.314582e+01
5.468509e+01	-1.319414e+01
5.500095e+01	-1.324069e+01
5.531863e+01	-1.328922e+01
5.563815e+01	-1.333612e+01
5.595951e+01	-1.338424e+01
5.628273e+01	-1.343211e+01
5.660782e+01	-1.347966e+01
5.693479e+01	-1.352790e+01
5.726364e+01	-1.357567e+01
5.759439e+01	-1.362341e+01
5.792705e+01	-1.367153e+01
5.826164e+01	-1.371836e+01
5.859815e+01	-1.376723e+01
5.893662e+01	-1.381534e+01
5.927703e+01	-1.386254e+01
5.961941e+01	-1.391122e+01
5.996377e+01	-1.395887e+01
6.031012e+01	-1.400682e+01
6.065847e+01	-1.405431e+01
6.100883e+01	-1.410270e+01
6.136121e+01	-1.415121e+01
6.171563e+01	-1.419897e+01
6.207210e+01	-1.424733e+01
6.243063e+01	-1.429526e+01
6.279122e+01	-1.434455e+01
6.315390e+01	-1.439105e+01
6.351868e+01	-1.444029e+01
6.388556e+01	-1.448913e+01
6.425456e+01	-1.453664e+01
6.462569e+01	-1.458514e+01
6.499897e+01	-1.463239e+01
6.537440e+01	-1.468145e+01
6.575200e+01	-1.472929e+01
6.613178e+01	-1.477805e+01
6.651375e+01	-1.482610e+01
6.689793e+01	-1.487445e+01
6.728433e+01	-1.492318e+01
6.767297e+01	-1.497174e+01
6.806384e+01	-1.502010e+01
6.845698e+01	-1.506917e+01
6.885238e+01	-1.511661e+01
6.925007e+01	-1.516657e+01
6.965005e+01	-1.521349e+01
7.005235e+01	-1.526172e+01
7.045697e+01	-1.531198e+01
7.086393e+01	-1.535961e+01
7.127323e+01	-1.540807e+01
7.168490e+01	-1.545743e+01
7.209895e+01	-1.550563e+01
7.251539e+01	-1.555503e+01
7.293424e+01	-1.560183e+01
7.335551e+01	-1.565071e+01
7.377920e+01	-1.569996e+01
7.420535e+01	-1.574841e+01
7.463396e+01	-1.579848e+01
7.506504e+01	-1.584694e+01
7.549861e+01	-1.589458e+01
7.593469e+01	-1.594386e+01
7.637328e+01	-1.599265e+01
7.681441e+01	-1.604245e+01
7.725809e+01	-1.609019e+01
7.770433e+01	-1.613878e+01
7.815315e+01	-1.618858e+01
7.860456e+01	-1.623649e+01
7.905857e+01	-1.628593e+01
7.951521e+01	-1.633475e+01
7.997449e+01	-1.638247e+01
8.043642e+01	-1.643222e+01
8.090102e+01	-1.648103e+01
8.136830e+01	-1.652916e+01
8.183828e+01	-1.657953e+01
8.231097e+01	-1.662867e+01
8.278640e+01	-1.667630e+01
8.326457e+01	-1.672677e+01
8.374550e+01	-1.677451e+01
8.422921e+01	-1.682451e+01
8.471572e+01	-1.687321e+01
8.520503e+01	-1.692191e+01
8.569717e+01	-1.697055e+01
8.619215e+01	-1.701948e+01
8.669000e+01	-1.706867e+01
8.719071e+01	-1.711796e+01
8.769432e+01	-1.716680e+01
8.820084e+01	-1.721520e+01
8.871029e+01	-1.726472e+01
8.922267e+01	-1.731364e+01
8.973802e+01	-1.736288e+01
9.025634e+01	-1.741207e+01
9.077766e+01	-1.746222e+01
9.130199e+01	-1.751018e+01
9.182935e+01	-1.755917e+01
9.235975e+01	-1.760785e+01
9.289321e+01	-1.765850e+01
9.342976e+01	-1.770718e+01
9.396941e+01	-1.775735e+01
9.451217e+01	-1.780541e+01
9.505807e+01	-1.785448e+01
9.560712e+01	-1.790431e+01
9.615934e+01	-1.795559e+01
9.671476e+01	-1.800085e+01
9.727338e+01	-1.805158e+01
9.783522e+01	-1.810197e+01
9.840032e+01	-1.814999e+01
9.896867e+01	-1.820015e+01
9.954031e+01	-1.825021e+01
1.001153e+02	-1.829712e+01
1.006935e+02	-1.834753e+01
1.012751e+02	-1.839680e+01
1.018601e+02	-1.844483e+01
1.024484e+02	-1.849568e+01
1.030402e+02	-1.854385e+01
1.036353e+02	-1.859491e+01
1.042339e+02	-1.864423e+01
1.048360e+02	-1.869230e+01
1.054415e+02	-1.874329e+01
1.060505e+02	-1.879216e+01
1.066631e+02	-1.883966e+01
1.072791e+02	-1.889051e+01
1.078988e+02	-1.893855e+01
1.085220e+02	-1.898858e+01
1.091488e+02	-1.903813e+01
1.097793e+02	-1.908843e+01
1.104133e+02	-1.913868e+01
1.110511e+02	-1.918689e+01
1.116925e+02	-1.923510e+01
1.123376e+02	-1.928547e+01
1.129865e+02	-1.933497e+01
1.136391e+02	-1.938502e+01
1.142955e+02	-1.943428e+01
1.149556e+02	-1.948469e+01
1.156196e+02	-1.953236e+01
1.162874e+02	-1.958315e+01
1.169591e+02	-1.963348e+01
1.176347e+02	-1.968215e+01
1.183141e+02	-1.973000e+01
1.189975e+02	-1.978246e+01
1.196848e+02	-1.983129e+01
1.203761e+02	-1.988068e+01
1.210714e+02	-1.992968e+01
1.217707e+02	-1.997801e+01
1.224740e+02	-2.002942e+01
1.231814e+02	-2.007833e+01
1.238929e+02	-2.012734e+01
1.246085e+02	-2.017883e+01
1.253283e+02	-2.022606e+01
1.260522e+02	-2.027426e+01
1.267802e+02	-2.032491e+01
1.275125e+02	-2.037463e+01
1.282490e+02	-2.042352e+01
1.289898e+02	-2.047390e+01
1.297348e+02	-2.052291e+01
1.304842e+02	-2.057369e+01
1.312378e+02	-2.062441e+01
1.319959e+02	-2.067179e+01
1.327583e+02	-2.072148e+01
1.335251e+02	-2.077291e+01
1.342963e+02	-2.082068e+01
1.350720e+02	-2.087125e+01
1.358522e+02	-2.092144e+01
1.366368e+02	-2.097192e+01
1.374260e+02	-2.102074e+01
1.382198e+02	-2.106962e+01
1.390182e+02	-2.112067e+01
1.398211e+02	-2.116783e+01
1.406287e+02	-2.122002e+01
1.414410e+02	-2.126739e+01
1.422579e+02	-2.131792e+01
1.430796e+02	-2.136697e+01
1.439060e+02	-2.141675e+01
1.447372e+02	-2.146578e+01
1.455732e+02	-2.151573e+01
1.464141e+02	-2.156644e+01
1.472597e+02	-2.161422e+01
1.481103e+02	-2.166590e+01
1.489658e+02	-2.171316e+01
1.498262e+02	-2.176489e+01
1.506916e+02	-2.181416e+01
1.515620e+02	-2.186393e+01
1.524374e+02	-2.191590e+01
1.533179e+02	-2.196290e+01
1.542034e+02	-2.201455e+01
1.550941e+02	-2.206297e+01
1.559899e+02	-2.211323e+01
1.568909e+02	-2.216388e+01
1.577971e+02	-2.220963e+01
1.587085e+02	-2.226500e+01
1.596252e+02	-2.231304e+01
1.605472e+02	-2.236012e+01
1.614745e+02	-2.241060e+01
1.624072e+02	-2.246402e+01
1.633453e+02	-2.251133e+01
1.642887e+02	-2.256147e+01
1.652377e+02	-2.261083e+01
1.661921e+02	-2.266106e+01
1.671520e+02	-2.270983e+01
1.681175e+02	-2.275995e+01
1.690885e+02	-2.280956e+01
1.700651e+02	-2.286003e+01
1.710474e+02	-2.290950e+01
1.720354e+02	-2.295807e+01
1.730291e+02	-2.300891e+01
1.740285e+02	-2.305932e+01
1.750337e+02	-2.310855e+01
1.760446e+02	-2.315903e+01
1.770615e+02	-2.320686e+01
1.780842e+02	-2.325838e+01
1.791128e+02	-2.330513e+01
1.801473e+02	-2.335668e+01
1.811878e+02	-2.340843e+01
1.822344e+02	-2.345769e+01
1.832870e+02	-2.350724e+01
1.843456e+02	-2.355813e+01
1.854104e+02	-2.360764e+01
1.864813e+02	-2.365566e+01
1.875584e+02	-2.370605e+01
1.886418e+02	-2.375764e+01
1.897313e+02	-2.380559e+01
1.908272e+02	-2.385701e+01
1.919294e+02	-2.390511e+01
1.930380e+02	-2.395552e+01
1.941530e+02	-2.400285e+01
1.952744e+02	-2.405327e+01
1.964023e+02	-2.410705e+01
1.975367e+02	-2.415353e+01
1.986777e+02	-2.420270e+01
1.998252e+02	-2.425265e+01
2.009794e+02	-2.430332e+01
2.021403e+02	-2.435558e+01
2.033078e+02	-2.440720e+01
2.044821e+02	-2.445562e+01
2.056632e+02	-2.450360e+01
2.068511e+02	-2.455249e+01
2.080459e+02	-2.460333e+01
2.092475e+02	-2.465283e+01
2.104561e+02	-2.470479e+01
2.116717e+02	-2.475461e+01
2.128943e+02	-2.480246e+01
2.141240e+02	-2.485248e+01
2.153608e+02	-2.490411e+01
2.166047e+02	-2.495180e+01
2.178558e+02	-2.500314e+01
2.191141e+02	-2.505467e+01
2.203797e+02	-2.510373e+01
2.216526e+02	-2.515245e+01
2.229329e+02	-2.520090e+01
2.242205e+02	-2.525114e+01
2.255156e+02	-2.530067e+01
2.268182e+02	-2.535188e+01
2.281283e+02	-2.540395e+01
2.294459e+02	-2.545397e+01
2.307712e+02	-2.550101e+01
2.321041e+02	-2.555216e+01
2.334447e+02	-2.560061e+01
2.347931e+02	-2.565252e+01
2.361493e+02	-2.570186e+01
2.375133e+02	-2.575131e+01
2.388851e+02	-2.579923e+01
2.402649e+02	-2.585430e+01
2.416527e+02	-2.590022e+01
2.430484e+02	-2.595012e+01
2.444523e+02	-2.600231e+01
2.458642e+02	-2.604856e+01
2.472843e+02	-2.610219e+01
2.487126e+02	-2.615300e+01
2.501492e+02	-2.619926e+01
2.515940e+02	-2.624893e+01
2.530472e+02	-2.630296e+01
2.545088e+02	-2.635031e+01
2.559789e+02	-2.639920e+01
2.574574e+02	-2.645009e+01
2.589444e+02	-2.650070e+01
2.604401e+02	-2.654859e+01
2.619444e+02	-2.659991e+01
2.634574e+02	-2.665146e+01
2.649791e+02	-2.670036e+01
2.665096e+02	-2.675227e+01
2.680489e+02	-2.680042e+01
2.695972e+02	-2.685103e+01
2.711544e+02	-2.690332e+01
2.727205e+02	-2.695200e+01
2.742958e+02	-2.700132e+01
2.758801e+02	-2.704980e+01
2.774736e+02	-2.710019e+01
2.790762e+02	-2.714817e+01
2.806882e+02	-2.720174e+01
2.823094e+02	-2.725045e+01
2.839400e+02	-2.729826e+01
2.855800e+02	-2.735142e+01
2.872295e+02	-2.739932e+01
2.888886e+02	-2.744924e+01
2.905572e+02	-2.750134e+01
2.922354e+02	-2.755194e+01
2.939234e+02	-2.760518e+01
2.956211e+02	-2.764646e+01
2.973286e+02	-2.769823e+01
2.990459e+02	-2.775139e+01
3.007732e+02	-2.780093e+01
3.025104e+02	-2.784801e+01
3.042577e+02	-2.790221e+01
3.060151e+02	-2.794962e+01
3.077826e+02	-2.800311e+01
3.095604e+02	-2.804870e+01
3.113484e+02	-2.809897e+01
3.131467e+02	-2.815038e+01
3.149554e+02	-2.820053e+01
3.167746e+02	-2.825093e+01
3.186043e+02	-2.829734e+01
3.204445e+02	-2.835459e+01
3.222954e+02	-2.839985e+01
3.241570e+02	-2.845059e+01
3.260293e+02	-2.850023e+01
3.279124e+02	-2.854952e+01
3.298064e+02	-2.860042e+01
3.317114e+02	-2.864702e+01
3.336273e+02	-2.869779e+01
3.355544e+02	-2.875033e+01
3.374925e+02	-2.880364e+01
3.394418e+02	-2.885047e+01
3.414024e+02	-2.890144e+01
3.433744e+02	-2.895309e+01
3.453577e+02	-2.900368e+01
3.473525e+02	-2.905355e+01
3.493588e+02	-2.910184e+01
3.513766e+02	-2.914938e+01
3.534062e+02	-2.920272e+01
3.554474e+02	-2.924758e+01
3.575005e+02	-2.930242e+01
3.595654e+02	-2.935417e+01
3.616422e+02	-2.940458e+01
3.637311e+02	-2.945554e+01
3.658320e+02	-2.950410e+01
3.679450e+02	-2.955181e+01
3.700702e+02	-2.960056e+01
3.722077e+02	-2.965194e+01
3.743576e+02	-2.970295e+01
3.765199e+02	-2.975694e+01
3.786946e+02	-2.980537e+01
3.808820e+02	-2.985092e+01
3.830819e+02	-2.990427e+01
3.852946e+02	-2.995468e+01
3.875200e+02	-3.000610e+01
3.897583e+02	-3.005187e+01
3.920096e+02	-3.010043e+01
3.942738e+02	-3.015542e+01
3.965511e+02	-3.020288e+01
3.988416e+02	-3.025577e+01
4.011452e+02	-3.030379e+01
4.034622e+02	-3.035203e+01
4.057926e+02	-3.040698e+01
4.081365e+02	-3.045493e+01
4.104938e+02	-3.050410e+01
4.128648e+02	-3.055489e+01
4.152495e+02	-3.060300e+01
4.176480e+02	-3.065358e+01
4.200603e+02	-3.070694e+01
4.224866e+02	-3.075088e+01
4.249268e+02	-3.080477e+01
4.273812e+02	-3.085582e+01
4.298497e+02	-3.090147e+01
4.323325e+02	-3.095708e+01
4.348297e+02	-3.101033e+01
4.373412e+02	-3.105579e+01
4.398673e+02	-3.110134e+01
4.424079e+02	-3.115481e+01
4.449633e+02	-3.120237e+01
4.475334e+02	-3.126012e+01
4.501183e+02	-3.130445e+01
4.527182e+02	-3.135838e+01
4.553330e+02	-3.140409e+01
4.579630e+02	-3.145848e+01
4.606082e+02	-3.150398e+01
4.632687e+02	-3.155797e+01
4.659445e+02	-3.160540e+01
4.686358e+02	-3.165482e+01
4.713426e+02	-3.170744e+01
4.740650e+02	-3.175566e+01
4.768032e+02	-3.181263e+01
4.795572e+02	-3.185873e+01
4.823271e+02	-3.190718e+01
4.851130e+02	-3.195656e+01
4.879150e+02	-3.200869e+01
4.907332e+02	-3.205321e+01
4.935676e+02	-3.210595e+01
4.964185e+02	-3.216128e+01
4.992858e+02	-3.221227e+01
5.021696e+02	-3.226549e+01
5.050701e+02	-3.230448e+01
5.079874e+02	-3.235577e+01
5.109215e+02	-3.239985e+01
5.138726e+02	-3.246472e+01
5.168407e+02	-3.250490e+01
5.198259e+02	-3.256160e+01
5.228284e+02	-3.260833e+01
5.258482e+02	-3.266559e+01
5.288855e+02	-3.270813e+01
5.319403e+02	-3.276275e+01
5.350128e+02	-3.280920e+01
5.381030e+02	-3.286156e+01
5.412111e+02	-3.291318e+01
5.443371e+02	-3.295842e+01
5.474812e+02	-3.300750e+01
5.506434e+02	-3.305896e+01
5.538239e+02	-3.310994e+01
5.570228e+02	-3.316778e+01
5.602401e+02	-3.321251e+01
5.634760e+02	-3.326490e+01
5.667306e+02	-3.331957e+01
5.700040e+02	-3.337157e+01
5.732964e+02	-3.341637e+01
5.766077e+02	-3.346108e+01
5.799382e+02	-3.351485e+01
5.832879e+02	-3.356723e+01
5.866569e+02	-3.361938e+01
5.900454e+02	-3.366770e+01
5.934535e+02	-3.371205e+01
5.968813e+02	-3.376577e+01
6.003288e+02	-3.381264e+01
6.037963e+02	-3.386876e+01
6.072838e+02	-3.392622e+01
6.107914e+02	-3.396637e+01
6.143194e+02	-3.402354e+01
6.178676e+02	-3.406264e+01
6.214364e+02	-3.411527e+01
6.250258e+02	-3.416836e+01
6.286359e+02	-3.421576e+01
6.322669e+02	-3.426840e+01
6.359189e+02	-3.432061e+01
6.395919e+02	-3.437124e+01
6.432862e+02	-3.441896e+01
6.470017e+02	-3.446687e+01
6.507388e+02	-3.452122e+01
6.544974e+02	-3.457220e+01
6.582778e+02	-3.461531e+01
6.620800e+02	-3.468051e+01
6.659041e+02	-3.471640e+01
6.697504e+02	-3.477162e+01
6.736188e+02	-3.481128e+01
6.775096e+02	-3.487778e+01
6.814229e+02	-3.492575e+01
6.853587e+02	-3.496656e+01
6.893173e+02	-3.501814e+01
6.932988e+02	-3.506834e+01
6.973033e+02	-3.512512e+01
7.013309e+02	-3.516964e+01
