Frequency(Hz)	Magnitude(dB)
1.000000e+01	-2.223289e+00
1.005776e+01	-2.243540e+00
1.011585e+01	-2.263731e+00
1.017428e+01	-2.284236e+00
1.023305e+01	-2.304728e+00
1.029215e+01	-2.325245e+00
1.035160e+01	-2.346169e+00
1.041139e+01	-2.366864e+00
1.047153e+01	-2.388089e+00
1.053201e+01	-2.409196e+00
1.059284e+01	-2.430786e+00
1.065403e+01	-2.452436e+00
1.071556e+01	-2.473761e+00
1.077746e+01	-2.495784e+00
1.083971e+01	-2.517934e+00
1.090232e+01	-2.539784e+00
1.096529e+01	-2.561863e+00
1.102862e+01	-2.584228e+00
1.109232e+01	-2.606741e+00
1.115639e+01	-2.629545e+00
1.122083e+01	-2.652192e+00
1.128564e+01	-2.675327e+00
1.135083e+01	-2.698185e+00
1.141639e+01	-2.721371e+00
1.148233e+01	-2.744904e+00
1.154865e+01	-2.768238e+00
1.161536e+01	-2.792067e+00
1.168245e+01	-2.815914e+00
1.174992e+01	-2.839745e+00
1.181779e+01	-2.863996e+00
1.188605e+01	-2.888161e+00
1.195470e+01	-2.912271e+00
1.202375e+01	-2.936914e+00
1.209320e+01	-2.961622e+00
1.216305e+01	-2.986537e+00
1.223330e+01	-3.011382e+00
1.230396e+01	-3.036605e+00
1.237503e+01	-3.061640e+00
1.244651e+01	-3.086946e+00
1.251840e+01	-3.112722e+00
1.259070e+01	-3.138142e+00
1.266343e+01	-3.163932e+00
1.273657e+01	-3.189731e+00
1.281014e+01	-3.216058e+00
1.288413e+01	-3.242262e+00
1.295855e+01	-3.268971e+00
1.303339e+01	-3.295123e+00
1.310867e+01	-3.322071e+00
1.318439e+01	-3.348728e+00
1.326054e+01	-3.375680e+00
1.333713e+01	-3.402821e+00
1.341417e+01	-3.430325e+00
1.349165e+01	-3.457533e+00
1.356958e+01	-3.485123e+00
1.364795e+01	-3.512498e+00
1.372678e+01	-3.540406e+00
1.380607e+01	-3.568134e+00
1.388581e+01	-3.596528e+00
1.396602e+01	-3.625010e+00
1.404668e+01	-3.653300e+00
1.412782e+01	-3.681834e+00
1.420942e+01	-3.710516e+00
1.429149e+01	-3.739205e+00
1.437404e+01	-3.768275e+00
1.445706e+01	-3.797370e+00
1.454057e+01	-3.826462e+00
1.462455e+01	-3.855740e+00
1.470902e+01	-3.885193e+00
1.479398e+01	-3.914767e+00
1.487943e+01	-3.944921e+00
1.496537e+01	-3.974538e+00
1.505181e+01	-4.004772e+00
1.513875e+01	-4.034886e+00
1.522619e+01	-4.065363e+00
1.531414e+01	-4.095681e+00
1.540259e+01	-4.126487e+00
1.549156e+01	-4.157337e+00
1.558103e+01	-4.187995e+00
1.567103e+01	-4.219121e+00
1.576155e+01	-4.250143e+00
1.585258e+01	-4.281447e+00
1.594415e+01	-4.313097e+00
1.603624e+01	-4.344495e+00
1.612886e+01	-4.376096e+00
1.622202e+01	-4.407989e+00
1.631572e+01	-4.439794e+00
1.640996e+01	-4.472022e+00
1.650474e+01	-4.504301e+00
1.660008e+01	-4.536594e+00
1.669596e+01	-4.568927e+00
1.679239e+01	-4.601601e+00
1.688938e+01	-4.634409e+00
1.698694e+01	-4.667267e+00
1.708505e+01	-4.700373e+00
1.718373e+01	-4.733459e+00
1.728299e+01	-4.766580e+00
1.738281e+01	-4.800288e+00
1.748322e+01	-4.833511e+00
1.758420e+01	-4.867432e+00
1.768576e+01	-4.900968e+00
1.778792e+01	-4.934833e+00
1.789066e+01	-4.968831e+00
1.799399e+01	-5.003231e+00
1.809793e+01	-5.037444e+00
1.820246e+01	-5.071721e+00
1.830760e+01	-5.106361e+00
1.841334e+01	-5.140961e+00
1.851969e+01	-5.175800e+00
1.862666e+01	-5.210628e+00
1.873425e+01	-5.245625e+00
1.884246e+01	-5.280721e+00
1.895129e+01	-5.316120e+00
1.906075e+01	-5.351481e+00
1.917085e+01	-5.386930e+00
1.928158e+01	-5.422464e+00
1.939295e+01	-5.458452e+00
1.950496e+01	-5.494161e+00
1.961762e+01	-5.530439e+00
1.973093e+01	-5.566296e+00
1.984490e+01	-5.602657e+00
1.995952e+01	-5.638688e+00
2.007480e+01	-5.675198e+00
2.019076e+01	-5.711755e+00
2.030738e+01	-5.748174e+00
2.042467e+01	-5.785070e+00
2.054264e+01	-5.821909e+00
2.066130e+01	-5.859101e+00
2.078064e+01	-5.896075e+00
2.090066e+01	-5.933201e+00
2.102139e+01	-5.970755e+00
2.114280e+01	-6.008142e+00
2.126492e+01	-6.045825e+00
2.138775e+01	-6.083249e+00
2.151128e+01	-6.120800e+00
2.163553e+01	-6.158980e+00
2.176050e+01	-6.197043e+00
2.188619e+01	-6.234886e+00
2.201260e+01	-6.273260e+00
2.213974e+01	-6.311403e+00
2.226762e+01	-6.349701e+00
2.239624e+01	-6.388213e+00
2.252560e+01	-6.426961e+00
2.265571e+01	-6.465149e+00
2.278656e+01	-6.503959e+00
2.291818e+01	-6.543248e+00
2.305055e+01	-6.582266e+00
2.318369e+01	-6.621289e+00
2.331760e+01	-6.660168e+00
2.345228e+01	-6.699554e+00
2.358774e+01	-6.738845e+00
2.372398e+01	-6.778730e+00
2.386101e+01	-6.818082e+00
2.399883e+01	-6.857755e+00
2.413745e+01	-6.897500e+00
2.427686e+01	-6.937753e+00
2.441709e+01	-6.977314e+00
2.455812e+01	-7.017297e+00
2.469997e+01	-7.057491e+00
2.484263e+01	-7.097811e+00
2.498612e+01	-7.138366e+00
2.513044e+01	-7.178299e+00
2.527559e+01	-7.219068e+00
2.542158e+01	-7.259558e+00
2.556842e+01	-7.300082e+00
2.571610e+01	-7.341490e+00
2.586463e+01	-7.381847e+00
2.601403e+01	-7.422918e+00
2.616428e+01	-7.463370e+00
2.631541e+01	-7.504812e+00
2.646740e+01	-7.545996e+00
2.662028e+01	-7.587510e+00
2.677404e+01	-7.628214e+00
2.692868e+01	-7.670111e+00
2.708422e+01	-7.711737e+00
2.724066e+01	-7.752992e+00
2.739800e+01	-7.794749e+00
2.755625e+01	-7.836667e+00
2.771541e+01	-7.878389e+00
2.787550e+01	-7.920385e+00
2.803650e+01	-7.962153e+00
2.819844e+01	-8.004344e+00
2.836131e+01	-8.046459e+00
2.852513e+01	-8.088983e+00
2.868989e+01	-8.131106e+00
2.885560e+01	-8.173811e+00
2.902227e+01	-8.215630e+00
2.918990e+01	-8.258190e+00
2.935850e+01	-8.301398e+00
2.952807e+01	-8.343677e+00
2.969863e+01	-8.386565e+00
2.987016e+01	-8.429355e+00
3.004269e+01	-8.472288e+00
3.021622e+01	-8.515462e+00
3.039075e+01	-8.558291e+00
3.056628e+01	-8.600538e+00
3.074283e+01	-8.644335e+00
3.092040e+01	-8.687491e+00
3.109900e+01	-8.730898e+00
3.127862e+01	-8.773575e+00
3.145929e+01	-8.817388e+00
3.164099e+01	-8.861416e+00
3.182375e+01	-8.904567e+00
3.200756e+01	-8.947741e+00
3.219244e+01	-8.991854e+00
3.237838e+01	-9.035552e+00
3.256540e+01	-9.079273e+00
3.275349e+01	-9.123493e+00
3.294268e+01	-9.167176e+00
3.313295e+01	-9.211418e+00
3.332433e+01	-9.254804e+00
3.351681e+01	-9.299503e+00
3.371040e+01	-9.343710e+00
3.390511e+01	-9.387648e+00
3.410094e+01	-9.432301e+00
3.429791e+01	-9.476659e+00
3.449601e+01	-9.520651e+00
3.469526e+01	-9.565707e+00
3.489566e+01	-9.609831e+00
3.509721e+01	-9.654612e+00
3.529993e+01	-9.698954e+00
3.550382e+01	-9.743813e+00
3.570889e+01	-9.788546e+00
3.591515e+01	-9.832796e+00
3.612259e+01	-9.878376e+00
3.633123e+01	-9.922911e+00
3.654108e+01	-9.968778e+00
3.675214e+01	-1.001343e+01
3.696442e+01	-1.005874e+01
3.717792e+01	-1.010330e+01
3.739266e+01	-1.014814e+01
3.760864e+01	-1.019396e+01
3.782587e+01	-1.023886e+01
3.804435e+01	-1.028415e+01
3.826409e+01	-1.032889e+01
3.848510e+01	-1.037500e+01
3.870739e+01	-1.042049e+01
3.893096e+01	-1.046600e+01
3.915583e+01	-1.051126e+01
3.938199e+01	-1.055737e+01
3.960946e+01	-1.060284e+01
3.983824e+01	-1.064795e+01
4.006834e+01	-1.069497e+01
4.029978e+01	-1.074057e+01
4.053255e+01	-1.078568e+01
4.076666e+01	-1.083159e+01
4.100213e+01	-1.087812e+01
4.123896e+01	-1.092315e+01
4.147715e+01	-1.097029e+01
4.171672e+01	-1.101560e+01
4.195767e+01	-1.106175e+01
4.220002e+01	-1.110772e+01
4.244377e+01	-1.115413e+01
4.268892e+01	-1.119986e+01
4.293549e+01	-1.124652e+01
4.318348e+01	-1.129366e+01
4.343291e+01	-1.133905e+01
4.368377e+01	-1.138560e+01
4.393609e+01	-1.143174e+01
4.418986e+01	-1.147843e+01
4.444510e+01	-1.152498e+01
4.470182e+01	-1.157160e+01
4.496001e+01	-1.161759e+01
4.521970e+01	-1.166512e+01
4.548089e+01	-1.171110e+01
4.574358e+01	-1.175831e+01
4.600779e+01	-1.180490e+01
4.627353e+01	-1.185167e+01
4.654081e+01	-1.189821e+01
4.680963e+01	-1.194501e+01
4.708000e+01	-1.199176e+01
4.735193e+01	-1.203868e+01
4.762543e+01	-1.208565e+01
4.790051e+01	-1.213191e+01
4.817719e+01	-1.217965e+01
4.845545e+01	-1.222629e+01
4.873533e+01	-1.227348e+01
4.901682e+01	-1.232079e+01
4.929994e+01	-1.236750e+01
4.958470e+01	-1.241508e+01
4.987110e+01	-1.246134e+01
5.015915e+01	-1.250926e+01
5.044887e+01	-1.255711e+01
5.074026e+01	-1.260362e+01
5.103333e+01	-1.265075e+01
5.132810e+01	-1.269851e+01
5.162457e+01	-1.274586e+01
5.192275e+01	-1.279319e+01
5.222265e+01	-1.284089e+01
5.252429e+01	-1.288827e+01
5.282767e+01	-1.293506e+01
5.313280e+01	-1.298325e+01
5.343969e+01	-1.302964e+01
5.374836e+01	-1.307867e+01
5.405880e+01	-1.312547e+01
5.437105e+01	-1.317370e+01
5.468509e+01	-1.322080e+01
5.500095e+01	-1.326840e+01
5.531863e+01	-1.331609e+01
5.563815e+01	-1.336363e+01
5.595951e+01	-1.341241e+01
5.628273e+01	-1.345974e+01
5.660782e+01	-1.350729e+01
5.693479e+01	-1.355535e+01
5.726364e+01	-1.360291e+01
5.759439e+01	-1.365081e+01
5.792705e+01	-1.369967e+01
5.826164e+01	-1.374683e+01
5.859815e+01	-1.379425e+01
5.893662e+01	-1.384237e+01
5.927703e+01	-1.389012e+01
5.961941e+01	-1.393794e+01
5.996377e+01	-1.398638e+01
6.031012e+01	-1.403434e+01
6.065847e+01	-1.408198e+01
6.100883e+01	-1.413045e+01
6.136121e+01	-1.417899e+01
6.171563e+01	-1.422712e+01
6.207210e+01	-1.427403e+01
6.243063e+01	-1.432313e+01
6.279122e+01	-1.437127e+01
6.315390e+01	-1.441972e+01
6.351868e+01	-1.446774e+01
6.388556e+01	-1.451585e+01
6.425456e+01	-1.456396e+01
6.462569e+01	-1.461225e+01
6.499897e+01	-1.466041e+01
6.537440e+01	-1.471018e+01
6.575200e+01	-1.475777e+01
6.613178e+01	-1.480574e+01
6.651375e+01	-1.485383e+01
6.689793e+01	-1.490264e+01
6.728433e+01	-1.495060e+01
6.767297e+01	-1.500038e+01
6.806384e+01	-1.504947e+01
6.845698e+01	-1.509716e+01
6.885238e+01	-1.514483e+01
6.925007e+01	-1.519469e+01
6.965005e+01	-1.524146e+01
7.005235e+01	-1.529080e+01
7.045697e+01	-1.533936e+01
7.086393e+01	-1.538825e+01
7.127323e+01	-1.543761e+01
7.168490e+01	-1.548433e+01
7.209895e+01	-1.553357e+01
7.251539e+01	-1.558149e+01
7.293424e+01	-1.563001e+01
7.335551e+01	-1.567943e+01
7.377920e+01	-1.572812e+01
7.420535e+01	-1.577774e+01
7.463396e+01	-1.582543e+01
7.506504e+01	-1.587354e+01
7.549861e+01	-1.592303e+01
7.593469e+01	-1.597207e+01
7.637328e+01	-1.602004e+01
7.681441e+01	-1.606913e+01
7.725809e+01	-1.611870e+01
7.770433e+01	-1.616652e+01
7.815315e+01	-1.621564e+01
7.860456e+01	-1.626379e+01
7.905857e+01	-1.631285e+01
7.951521e+01	-1.636097e+01
7.997449e+01	-1.641044e+01
8.043642e+01	-1.646052e+01
8.090102e+01	-1.650991e+01
8.136830e+01	-1.655756e+01
8.183828e+01	-1.660675e+01
8.231097e+01	-1.665620e+01
8.278640e+01	-1.670437e+01
8.326457e+01	-1.675391e+01
8.374550e+01	-1.680240e+01
8.422921e+01	-1.685174e+01
8.471572e+01	-1.689992e+01
8.520503e+01	-1.694972e+01
8.569717e+01	-1.699867e+01
8.619215e+01	-1.704949e+01
8.669000e+01	-1.709795e+01
8.719071e+01	-1.714677e+01
8.769432e+01	-1.719492e+01
8.820084e+01	-1.724364e+01
8.871029e+01	-1.729349e+01
8.922267e+01	-1.734346e+01
8.973802e+01	-1.739174e+01
9.025634e+01	-1.744085e+01
9.077766e+01	-1.748941e+01
9.130199e+01	-1.753762e+01
9.182935e+01	-1.758688e+01
9.235975e+01	-1.763732e+01
9.289321e+01	-1.768615e+01
9.342976e+01	-1.773653e+01
9.396941e+01	-1.778480e+01
9.451217e+01	-1.783416e+01
9.505807e+01	-1.788291e+01
9.560712e+01	-1.793293e+01
9.615934e+01	-1.798115e+01
9.671476e+01	-1.803061e+01
9.727338e+01	-1.807978e+01
9.783522e+01	-1.812849e+01
9.840032e+01	-1.817749e+01
9.896867e+01	-1.822844e+01
9.954031e+01	-1.827646e+01
1.001153e+02	-1.832717e+01
1.006935e+02	-1.837553e+01
1.012751e+02	-1.842488e+01
1.018601e+02	-1.847443e+01
1.024484e+02	-1.852376e+01
1.030402e+02	-1.857212e+01
1.036353e+02	-1.862093e+01
1.042339e+02	-1.867083e+01
1.048360e+02	-1.872037e+01
1.054415e+02	-1.877044e+01
1.060505e+02	-1.882095e+01
1.066631e+02	-1.886838e+01
1.072791e+02	-1.891683e+01
1.078988e+02	-1.896893e+01
1.085220e+02	-1.901657e+01
1.091488e+02	-1.906701e+01
1.097793e+02	-1.911580e+01
1.104133e+02	-1.916571e+01
1.110511e+02	-1.921418e+01
1.116925e+02	-1.926520e+01
1.123376e+02	-1.931473e+01
1.129865e+02	-1.936197e+01
1.136391e+02	-1.941311e+01
1.142955e+02	-1.946208e+01
1.149556e+02	-1.951114e+01
1.156196e+02	-1.956181e+01
1.162874e+02	-1.960987e+01
1.169591e+02	-1.966118e+01
1.176347e+02	-1.970963e+01
1.183141e+02	-1.975909e+01
1.189975e+02	-1.980842e+01
1.196848e+02	-1.985945e+01
1.203761e+02	-1.990953e+01
1.210714e+02	-1.995641e+01
1.217707e+02	-2.000876e+01
1.224740e+02	-2.005556e+01
1.231814e+02	-2.010566e+01
1.238929e+02	-2.015616e+01
1.246085e+02	-2.020456e+01
1.253283e+02	-2.025419e+01
1.260522e+02	-2.030435e+01
1.267802e+02	-2.035263e+01
1.275125e+02	-2.040264e+01
1.282490e+02	-2.045271e+01
1.289898e+02	-2.050320e+01
1.297348e+02	-2.055197e+01
1.304842e+02	-2.060289e+01
1.312378e+02	-2.065309e+01
1.319959e+02	-2.070232e+01
1.327583e+02	-2.075014e+01
1.335251e+02	-2.079910e+01
1.342963e+02	-2.084879e+01
1.350720e+02	-2.090048e+01
1.358522e+02	-2.094898e+01
1.366368e+02	-2.099973e+01
1.374260e+02	-2.104949e+01
1.382198e+02	-2.109809e+01
1.390182e+02	-2.114808e+01
1.398211e+02	-2.119727e+01
1.406287e+02	-2.124722e+01
1.414410e+02	-2.129504e+01
1.422579e+02	-2.134534e+01
1.430796e+02	-2.139538e+01
1.439060e+02	-2.144590e+01
1.447372e+02	-2.149575e+01
1.455732e+02	-2.154527e+01
1.464141e+02	-2.159429e+01
1.472597e+02	-2.164336e+01
1.481103e+02	-2.169450e+01
1.489658e+02	-2.174397e+01
1.498262e+02	-2.179545e+01
1.506916e+02	-2.184225e+01
1.515620e+02	-2.189273e+01
1.524374e+02	-2.194174e+01
1.533179e+02	-2.199105e+01
1.542034e+02	-2.204153e+01
1.550941e+02	-2.209112e+01
1.559899e+02	-2.214235e+01
1.568909e+02	-2.219244e+01
1.577971e+02	-2.224099e+01
1.587085e+02	-2.229035e+01
1.596252e+02	-2.233855e+01
1.605472e+02	-2.239137e+01
1.614745e+02	-2.244005e+01
1.624072e+02	-2.249111e+01
1.633453e+02	-2.253948e+01
1.642887e+02	-2.259090e+01
1.652377e+02	-2.263907e+01
1.661921e+02	-2.268823e+01
1.671520e+02	-2.273873e+01
1.681175e+02	-2.278999e+01
1.690885e+02	-2.283925e+01
1.700651e+02	-2.288839e+01
1.710474e+02	-2.293829e+01
1.720354e+02	-2.298819e+01
1.730291e+02	-2.303771e+01
1.740285e+02	-2.308935e+01
1.750337e+02	-2.313676e+01
1.760446e+02	-2.318805e+01
1.770615e+02	-2.323867e+01
1.780842e+02	-2.328623e+01
1.791128e+02	-2.333488e+01
1.801473e+02	-2.338711e+01
1.811878e+02	-2.343476e+01
1.822344e+02	-2.348772e+01
1.832870e+02	-2.353649e+01
1.843456e+02	-2.358579e+01
1.854104e+02	-2.363599e+01
1.864813e+02	-2.368381e+01
1.875584e+02	-2.373536e+01
1.886418e+02	-2.378435e+01
1.897313e+02	-2.383445e+01
1.908272e+02	-2.388357e+01
1.919294e+02	-2.392992e+01
1.930380e+02	-2.398561e+01
1.941530e+02	-2.403276e+01
1.952744e+02	-2.408443e+01
1.964023e+02	-2.413363e+01
1.975367e+02	-2.418502e+01
1.986777e+02	-2.423245e+01
1.998252e+02	-2.428476e+01
2.009794e+02	-2.433079e+01
2.021403e+02	-2.438229e+01
2.033078e+02	-2.443120e+01
2.044821e+02	-2.448561e+01
2.056632e+02	-2.453145e+01
2.068511e+02	-2.458371e+01
2.080459e+02	-2.463100e+01
2.092475e+02	-2.468177e+01
2.104561e+02	-2.473467e+01
2.116717e+02	-2.478604e+01
2.128943e+02	-2.483337e+01
2.141240e+02	-2.488336e+01
2.153608e+02	-2.493158e+01
2.166047e+02	-2.498463e+01
2.178558e+02	-2.503196e+01
2.191141e+02	-2.508379e+01
2.203797e+02	-2.513139e+01
2.216526e+02	-2.518335e+01
2.229329e+02	-2.523254e+01
2.242205e+02	-2.528270e+01
2.255156e+02	-2.532848e+01
2.268182e+02	-2.537951e+01
2.281283e+02	-2.543127e+01
2.294459e+02	-2.547887e+01
2.307712e+02	-2.553023e+01
2.321041e+02	-2.558485e+01
2.334447e+02	-2.562935e+01
2.347931e+02	-2.568059e+01
2.361493e+02	-2.572990e+01
2.375133e+02	-2.578204e+01
2.388851e+02	-2.583013e+01
2.402649e+02	-2.588089e+01
2.416527e+02	-2.592887e+01
2.430484e+02	-2.598058e+01
2.444523e+02	-2.603110e+01
2.458642e+02	-2.608067e+01
2.472843e+02	-2.613160e+01
2.487126e+02	-2.617891e+01
2.501492e+02	-2.622956e+01
2.515940e+02	-2.628032e+01
2.530472e+02	-2.632887e+01
2.545088e+02	-2.637956e+01
2.559789e+02	-2.643181e+01
2.574574e+02	-2.648396e+01
2.589444e+02	-2.653126e+01
2.604401e+02	-2.658154e+01
2.619444e+02	-2.663141e+01
2.634574e+02	-2.668191e+01
2.649791e+02	-2.672943e+01
2.665096e+02	-2.678109e+01
2.680489e+02	-2.683141e+01
2.695972e+02	-2.688183e+01
2.711544e+02	-2.693060e+01
2.727205e+02	-2.697849e+01
2.742958e+02	-2.702943e+01
2.758801e+02	-2.708158e+01
2.774736e+02	-2.713174e+01
2.790762e+02	-2.717923e+01
2.806882e+02	-2.723053e+01
2.823094e+02	-2.727957e+01
2.839400e+02	-2.733114e+01
2.855800e+02	-2.737443e+01
2.872295e+02	-2.743013e+01
2.888886e+02	-2.748000e+01
2.905572e+02	-2.753024e+01
2.922354e+02	-2.757984e+01
2.939234e+02	-2.762910e+01
2.956211e+02	-2.767905e+01
2.973286e+02	-2.772581e+01
2.990459e+02	-2.778088e+01
3.007732e+02	-2.782941e+01
3.025104e+02	-2.787872e+01
3.042577e+02	-2.792729e+01
3.060151e+02	-2.797691e+01
3.077826e+02	-2.802677e+01
3.095604e+02	-2.807913e+01
3.113484e+02	-2.813392e+01
3.131467e+02	-2.817694e+01
3.149554e+02	-2.823016e+01
3.167746e+02	-2.827868e+01
3.186043e+02	-2.832971e+01
3.204445e+02	-2.837980e+01
3.222954e+02	-2.843358e+01
3.241570e+02	-2.847484e+01
3.260293e+02	-2.853218e+01
3.279124e+02	-2.857922e+01
3.298064e+02	-2.863069e+01
3.317114e+02	-2.868019e+01
3.336273e+02	-2.872801e+01
3.355544e+02	-2.878270e+01
3.374925e+02	-2.882974e+01
3.394418e+02	-2.888520e+01
3.414024e+02	-2.892977e+01
3.433744e+02	-2.898104e+01
3.453577e+02	-2.903225e+01
3.473525e+02	-2.908144e+01
3.493588e+02	-2.913015e+01
3.513766e+02	-2.918352e+01
3.534062e+02	-2.922799e+01
3.554474e+02	-2.928278e+01
3.575005e+02	-2.933307e+01
3.595654e+02	-2.938005e+01
3.616422e+02	-2.943316e+01
3.637311e+02	-2.948524e+01
3.658320e+02	-2.953355e+01
3.679450e+02	-2.958350e+01
3.700702e+02	-2.963597e+01
3.722077e+02	-2.968027e+01
3.743576e+02	-2.973147e+01
3.765199e+02	-2.978811e+01
3.786946e+02	-2.983345e+01
3.808820e+02	-2.988617e+01
3.830819e+02	-2.992948e+01
3.852946e+02	-2.998407e+01
3.875200e+02	-3.003054e+01
3.897583e+02	-3.008219e+01
3.920096e+02	-3.013256e+01
3.942738e+02	-3.018369e+01
3.965511e+02	-3.023395e+01
3.988416e+02	-3.028158e+01
4.011452e+02	-3.033277e+01
4.034622e+02	-3.037812e+01
4.057926e+02	-3.043382e+01
4.081365e+02	-3.049075e+01
4.104938e+02	-3.052919e+01
4.128648e+02	-3.058604e+01
4.152495e+02	-3.063520e+01
4.176480e+02	-3.068138e+01
4.200603e+02	-3.073573e+01
4.224866e+02	-3.078674e+01
4.249268e+02	-3.082700e+01
4.273812e+02	-3.088507e+01
4.298497e+02	-3.093248e+01
4.323325e+02	-3.098140e+01
4.348297e+02	-3.103377e+01
4.373412e+02	-3.108616e+01
4.398673e+02	-3.113136e+01
4.424079e+02	-3.118592e+01
4.449633e+02	-3.123818e+01
4.475334e+02	-3.128304e+01
4.501183e+02	-3.133776e+01
4.527182e+02	-3.138204e+01
4.553330e+02	-3.144113e+01
4.579630e+02	-3.148780e+01
4.606082e+02	-3.154435e+01
4.632687e+02	-3.159006e+01
4.659445e+02	-3.163668e+01
4.686358e+02	-3.168546e+01
4.713426e+02	-3.173901e+01
4.740650e+02	-3.178929e+01
4.768032e+02	-3.183786e+01
4.795572e+02	-3.188962e+01
4.823271e+02	-3.194274e+01
4.851130e+02	-3.198826e+01
4.879150e+02	-3.204174e+01
4.907332e+02	-3.209371e+01
4.935676e+02	-3.213608e+01
4.964185e+02	-3.219857e+01
4.992858e+02	-3.223557e+01
5.021696e+02	-3.229563e+01
5.050701e+02	-3.234102e+01
5.079874e+02	-3.238461e+01
5.109215e+02	-3.244438e+01
5.138726e+02	-3.248730e+01
5.168407e+02	-3.254209e+01
5.198259e+02	-3.259097e+01
5.228284e+02	-3.263430e+01
5.258482e+02	-3.269076e+01
5.288855e+02	-3.274579e+01
5.319403e+02	-3.279192e+01
5.350128e+02	-3.283790e+01
5.381030e+02	-3.289199e+01
5.412111e+02	-3.294970e+01
5.443371e+02	-3.299633e+01
5.474812e+02	-3.304101e+01
5.506434e+02	-3.309556e+01
5.538239e+02	-3.315384e+01
5.570228e+02	-3.319661e+01
5.602401e+02	-3.324111e+01
5.634760e+02	-3.330065e+01
5.667306e+02	-3.334965e+01
5.700040e+02	-3.339386e+01
5.732964e+02	-3.344703e+01
5.766077e+02	-3.349918e+01
5.799382e+02	-3.354220e+01
5.832879e+02	-3.359391e+01
5.866569e+02	-3.365222e+01
5.900454e+02	-3.370102e+01
5.934535e+02	-3.374395e+01
5.968813e+02	-3.379791e+01
6.003288e+02	-3.384206e+01
6.037963e+02	-3.390016e+01
6.072838e+02	-3.394975e+01
6.107914e+02	-3.400245e+01
6.143194e+02	-3.405064e+01
6.178676e+02	-3.410529e+01
6.214364e+02	-3.414903e+01
6.250258e+02	-3.419782e+01
6.286359e+02	-3.424673e+01
6.322669e+02	-3.429817e+01
6.359189e+02	-3.434726e+01
6.395919e+02	-3.440739e+01
6.432862e+02	-3.445180e+01
6.470017e+02	-3.449748e+01
6.507388e+02	-3.455559e+01
6.544974e+02	-3.460133e+01
6.582778e+02	-3.465186e+01
6.620800e+02	-3.470915e+01
6.659041e+02	-3.474720e+01
6.697504e+02	-3.480468e+01
6.736188e+02	-3.485914e+01
6.775096e+02	-3.491276e+01
6.814229e+02	-3.494991e+01
6.853587e+02	-3.500622e+01
6.893173e+02	-3.504943e+01
6.932988e+02	-3.510952e+01
6.973033e+02	-3.514829e+01
7.013309e+02	-3.520426e+01
