Frequency(Hz)	Magnitude(dB)
1.000000e+01	-2.134080e+00
1.005776e+01	-2.153461e+00
1.011585e+01	-2.173121e+00
1.017428e+01	-2.192885e+00
1.023305e+01	-2.212997e+00
1.029215e+01	-2.232674e+00
1.035160e+01	-2.253272e+00
1.041139e+01	-2.273564e+00
1.047153e+01	-2.293786e+00
1.053201e+01	-2.314342e+00
1.059284e+01	-2.335124e+00
1.065403e+01	-2.355844e+00
1.071556e+01	-2.377114e+00
1.077746e+01	-2.398246e+00
1.083971e+01	-2.419413e+00
1.090232e+01	-2.440853e+00
1.096529e+01	-2.462622e+00
1.102862e+01	-2.484074e+00
1.109232e+01	-2.506124e+00
1.115639e+01	-2.528084e+00
1.122083e+01	-2.550173e+00
1.128564e+01	-2.572610e+00
1.135083e+01	-2.595120e+00
1.141639e+01	-2.617336e+00
1.148233e+01	-2.640176e+00
1.154865e+01	-2.662858e+00
1.161536e+01	-2.686391e+00
1.168245e+01	-2.709246e+00
1.174992e+01	-2.732301e+00
1.181779e+01	-2.755850e+00
1.188605e+01	-2.779487e+00
1.195470e+01	-2.803441e+00
1.202375e+01	-2.827128e+00
1.209320e+01	-2.851008e+00
1.216305e+01	-2.875193e+00
1.223330e+01	-2.899604e+00
1.230396e+01	-2.923839e+00
1.237503e+01	-2.948599e+00
1.244651e+01	-2.973144e+00
1.251840e+01	-2.998201e+00
1.259070e+01	-3.023323e+00
1.266343e+01	-3.048577e+00
1.273657e+01	-3.073649e+00
1.281014e+01	-3.099252e+00
1.288413e+01	-3.124782e+00
1.295855e+01	-3.150537e+00
1.303339e+01	-3.176437e+00
1.310867e+01	-3.202510e+00
1.318439e+01	-3.228365e+00
1.326054e+01	-3.254857e+00
1.333713e+01	-3.281549e+00
1.341417e+01	-3.307911e+00
1.349165e+01	-3.334714e+00
1.356958e+01	-3.361676e+00
1.364795e+01	-3.388657e+00
1.372678e+01	-3.415857e+00
1.380607e+01	-3.443128e+00
1.388581e+01	-3.470769e+00
1.396602e+01	-3.497905e+00
1.404668e+01	-3.526012e+00
1.412782e+01	-3.553581e+00
1.420942e+01	-3.582143e+00
1.429149e+01	-3.609833e+00
1.437404e+01	-3.638521e+00
1.445706e+01	-3.666704e+00
1.454057e+01	-3.695378e+00
1.462455e+01	-3.723754e+00
1.470902e+01	-3.752878e+00
1.479398e+01	-3.781871e+00
1.487943e+01	-3.810895e+00
1.496537e+01	-3.840595e+00
1.505181e+01	-3.869895e+00
1.513875e+01	-3.899356e+00
1.522619e+01	-3.929119e+00
1.531414e+01	-3.958858e+00
1.540259e+01	-3.988712e+00
1.549156e+01	-4.019059e+00
1.558103e+01	-4.049404e+00
1.567103e+01	-4.079927e+00
1.576155e+01	-4.110447e+00
1.585258e+01	-4.140695e+00
1.594415e+01	-4.171798e+00
1.603624e+01	-4.202797e+00
1.612886e+01	-4.233742e+00
1.622202e+01	-4.264997e+00
1.631572e+01	-4.296368e+00
1.640996e+01	-4.327765e+00
1.650474e+01	-4.359416e+00
1.660008e+01	-4.391362e+00
1.669596e+01	-4.423046e+00
1.679239e+01	-4.455176e+00
1.688938e+01	-4.487387e+00
1.698694e+01	-4.519263e+00
1.708505e+01	-4.552187e+00
1.718373e+01	-4.584574e+00
1.728299e+01	-4.617402e+00
1.738281e+01	-4.650022e+00
1.748322e+01	-4.682744e+00
1.758420e+01	-4.716117e+00
1.768576e+01	-4.749257e+00
1.778792e+01	-4.782705e+00
1.789066e+01	-4.816349e+00
1.799399e+01	-4.849719e+00
1.809793e+01	-4.883439e+00
1.820246e+01	-4.917055e+00
1.830760e+01	-4.951153e+00
1.841334e+01	-4.985199e+00
1.851969e+01	-5.019327e+00
1.862666e+01	-5.053718e+00
1.873425e+01	-5.088170e+00
1.884246e+01	-5.122726e+00
1.895129e+01	-5.157692e+00
1.906075e+01	-5.192627e+00
1.917085e+01	-5.227467e+00
1.928158e+01	-5.262209e+00
1.939295e+01	-5.297450e+00
1.950496e+01	-5.333059e+00
1.961762e+01	-5.368368e+00
1.973093e+01	-5.403717e+00
1.984490e+01	-5.439581e+00
1.995952e+01	-5.475685e+00
2.007480e+01	-5.511328e+00
2.019076e+01	-5.547166e+00
2.030738e+01	-5.583395e+00
2.042467e+01	-5.619430e+00
2.054264e+01	-5.655902e+00
2.066130e+01	-5.692456e+00
2.078064e+01	-5.729275e+00
2.090066e+01	-5.765823e+00
2.102139e+01	-5.802710e+00
2.114280e+01	-5.839359e+00
2.126492e+01	-5.876788e+00
2.138775e+01	-5.913810e+00
2.151128e+01	-5.950956e+00
2.163553e+01	-5.988252e+00
2.176050e+01	-6.026077e+00
2.188619e+01	-6.063617e+00
2.201260e+01	-6.101398e+00
2.213974e+01	-6.139023e+00
2.226762e+01	-6.177245e+00
2.239624e+01	-6.214504e+00
2.252560e+01	-6.252865e+00
2.265571e+01	-6.291323e+00
2.278656e+01	-6.329548e+00
2.291818e+01	-6.368097e+00
2.305055e+01	-6.406583e+00
2.318369e+01	-6.445564e+00
2.331760e+01	-6.483854e+00
2.345228e+01	-6.522883e+00
2.358774e+01	-6.561740e+00
2.372398e+01	-6.600521e+00
2.386101e+01	-6.639686e+00
2.399883e+01	-6.679164e+00
2.413745e+01	-6.718384e+00
2.427686e+01	-6.757370e+00
2.441709e+01	-6.797241e+00
2.455812e+01	-6.836518e+00
2.469997e+01	-6.876697e+00
2.484263e+01	-6.916687e+00
2.498612e+01	-6.956545e+00
2.513044e+01	-6.996428e+00
2.527559e+01	-7.036423e+00
2.542158e+01	-7.076432e+00
2.556842e+01	-7.116898e+00
2.571610e+01	-7.157265e+00
2.586463e+01	-7.197404e+00
2.601403e+01	-7.238198e+00
2.616428e+01	-7.278781e+00
2.631541e+01	-7.319716e+00
2.646740e+01	-7.360335e+00
2.662028e+01	-7.400988e+00
2.677404e+01	-7.442161e+00
2.692868e+01	-7.483419e+00
2.708422e+01	-7.524121e+00
2.724066e+01	-7.565685e+00
2.739800e+01	-7.607054e+00
2.755625e+01	-7.648209e+00
2.771541e+01	-7.689740e+00
2.787550e+01	-7.731154e+00
2.803650e+01	-7.773232e+00
2.819844e+01	-7.814600e+00
2.836131e+01	-7.856103e+00
2.852513e+01	-7.898381e+00
2.868989e+01	-7.940563e+00
2.885560e+01	-7.982041e+00
2.902227e+01	-8.024019e+00
2.918990e+01	-8.066318e+00
2.935850e+01	-8.109004e+00
2.952807e+01	-8.151093e+00
2.969863e+01	-8.193585e+00
2.987016e+01	-8.235635e+00
3.004269e+01	-8.278750e+00
3.021622e+01	-8.321285e+00
3.039075e+01	-8.363628e+00
3.056628e+01	-8.406827e+00
3.074283e+01	-8.449440e+00
3.092040e+01	-8.492495e+00
3.109900e+01	-8.535286e+00
3.127862e+01	-8.578000e+00
3.145929e+01	-8.621681e+00
3.164099e+01	-8.665083e+00
3.182375e+01	-8.707890e+00
3.200756e+01	-8.751020e+00
3.219244e+01	-8.794731e+00
3.237838e+01	-8.837947e+00
3.256540e+01	-8.881778e+00
3.275349e+01	-8.925442e+00
3.294268e+01	-8.968710e+00
3.313295e+01	-9.012414e+00
3.332433e+01	-9.056496e+00
3.351681e+01	-9.100432e+00
3.371040e+01	-9.144455e+00
3.390511e+01	-9.188377e+00
3.410094e+01	-9.232729e+00
3.429791e+01	-9.275713e+00
3.449601e+01	-9.320124e+00
3.469526e+01	-9.364820e+00
3.489566e+01	-9.408911e+00
3.509721e+01	-9.453311e+00
3.529993e+01	-9.497615e+00
3.550382e+01	-9.541817e+00
3.570889e+01	-9.586456e+00
3.591515e+01	-9.631796e+00
3.612259e+01	-9.675965e+00
3.633123e+01	-9.720120e+00
3.654108e+01	-9.764806e+00
3.675214e+01	-9.809350e+00
3.696442e+01	-9.854536e+00
3.717792e+01	-9.899915e+00
3.739266e+01	-9.944720e+00
3.760864e+01	-9.988941e+00
3.782587e+01	-1.003457e+01
3.804435e+01	-1.007944e+01
3.826409e+01	-1.012496e+01
3.848510e+01	-1.017008e+01
3.870739e+01	-1.021544e+01
3.893096e+01	-1.026061e+01
3.915583e+01	-1.030622e+01
3.938199e+01	-1.035144e+01
3.960946e+01	-1.039658e+01
3.983824e+01	-1.044230e+01
4.006834e+01	-1.048767e+01
4.029978e+01	-1.053312e+01
4.053255e+01	-1.057775e+01
4.076666e+01	-1.062479e+01
4.100213e+01	-1.066994e+01
4.123896e+01	-1.071560e+01
4.147715e+01	-1.076160e+01
4.171672e+01	-1.080738e+01
4.195767e+01	-1.085340e+01
4.220002e+01	-1.089891e+01
4.244377e+01	-1.094562e+01
4.268892e+01	-1.099154e+01
4.293549e+01	-1.103777e+01
4.318348e+01	-1.108332e+01
4.343291e+01	-1.112981e+01
4.368377e+01	-1.117599e+01
4.393609e+01	-1.122256e+01
4.418986e+01	-1.126840e+01
4.444510e+01	-1.131468e+01
4.470182e+01	-1.136144e+01
4.496001e+01	-1.140805e+01
4.521970e+01	-1.145429e+01
4.548089e+01	-1.150048e+01
4.574358e+01	-1.154726e+01
4.600779e+01	-1.159298e+01
4.627353e+01	-1.163972e+01
4.654081e+01	-1.168594e+01
4.680963e+01	-1.173300e+01
4.708000e+01	-1.178022e+01
4.735193e+01	-1.182670e+01
4.762543e+01	-1.187350e+01
4.790051e+01	-1.192026e+01
4.817719e+01	-1.196799e+01
4.845545e+01	-1.201355e+01
4.873533e+01	-1.206128e+01
4.901682e+01	-1.210735e+01
4.929994e+01	-1.215426e+01
4.958470e+01	-1.220217e+01
4.987110e+01	-1.224864e+01
5.015915e+01	-1.229622e+01
5.044887e+01	-1.234299e+01
5.074026e+01	-1.239078e+01
5.103333e+01	-1.243739e+01
5.132810e+01	-1.248443e+01
5.162457e+01	-1.253139e+01
5.192275e+01	-1.257860e+01
5.222265e+01	-1.262615e+01
5.252429e+01	-1.267280e+01
5.282767e+01	-1.272099e+01
5.313280e+01	-1.276835e+01
5.343969e+01	-1.281545e+01
5.374836e+01	-1.286302e+01
5.405880e+01	-1.291033e+01
5.437105e+01	-1.295780e+01
5.468509e+01	-1.300554e+01
5.500095e+01	-1.305334e+01
5.531863e+01	-1.310061e+01
5.563815e+01	-1.314827e+01
5.595951e+01	-1.319545e+01
5.628273e+01	-1.324411e+01
5.660782e+01	-1.329119e+01
5.693479e+01	-1.333917e+01
5.726364e+01	-1.338594e+01
5.759439e+01	-1.343415e+01
5.792705e+01	-1.348212e+01
5.826164e+01	-1.352949e+01
5.859815e+01	-1.357715e+01
5.893662e+01	-1.362516e+01
5.927703e+01	-1.367355e+01
5.961941e+01	-1.372161e+01
5.996377e+01	-1.376944e+01
6.031012e+01	-1.381662e+01
6.065847e+01	-1.386454e+01
6.100883e+01	-1.391290e+01
6.136121e+01	-1.396167e+01
6.171563e+01	-1.400882e+01
6.207210e+01	-1.405725e+01
6.243063e+01	-1.410459e+01
6.279122e+01	-1.415379e+01
6.315390e+01	-1.420173e+01
6.351868e+01	-1.425010e+01
6.388556e+01	-1.429808e+01
6.425456e+01	-1.434567e+01
6.462569e+01	-1.439415e+01
6.499897e+01	-1.444238e+01
6.537440e+01	-1.449129e+01
6.575200e+01	-1.453790e+01
6.613178e+01	-1.458699e+01
6.651375e+01	-1.463540e+01
6.689793e+01	-1.468354e+01
6.728433e+01	-1.473221e+01
6.767297e+01	-1.478058e+01
6.806384e+01	-1.482865e+01
6.845698e+01	-1.487760e+01
6.885238e+01	-1.492601e+01
6.925007e+01	-1.497408e+01
6.965005e+01	-1.502223e+01
7.005235e+01	-1.507010e+01
7.045697e+01	-1.511954e+01
7.086393e+01	-1.516838e+01
7.127323e+01	-1.521619e+01
7.168490e+01	-1.526502e+01
7.209895e+01	-1.531265e+01
7.251539e+01	-1.536229e+01
7.293424e+01	-1.541121e+01
7.335551e+01	-1.545887e+01
7.377920e+01	-1.550678e+01
7.420535e+01	-1.555728e+01
7.463396e+01	-1.560491e+01
7.506504e+01	-1.565350e+01
7.549861e+01	-1.570202e+01
7.593469e+01	-1.575092e+01
7.637328e+01	-1.579944e+01
7.681441e+01	-1.584931e+01
7.725809e+01	-1.589793e+01
7.770433e+01	-1.594596e+01
7.815315e+01	-1.599547e+01
7.860456e+01	-1.604454e+01
7.905857e+01	-1.609289e+01
7.951521e+01	-1.614088e+01
7.997449e+01	-1.619026e+01
8.043642e+01	-1.623930e+01
8.090102e+01	-1.628773e+01
8.136830e+01	-1.633795e+01
8.183828e+01	-1.638529e+01
8.231097e+01	-1.643453e+01
8.278640e+01	-1.648330e+01
8.326457e+01	-1.653277e+01
8.374550e+01	-1.658139e+01
8.422921e+01	-1.663069e+01
8.471572e+01	-1.667876e+01
8.520503e+01	-1.672855e+01
8.569717e+01	-1.677852e+01
8.619215e+01	-1.682606e+01
8.669000e+01	-1.687474e+01
8.719071e+01	-1.692384e+01
8.769432e+01	-1.697273e+01
8.820084e+01	-1.702283e+01
8.871029e+01	-1.707074e+01
8.922267e+01	-1.711994e+01
8.973802e+01	-1.716910e+01
9.025634e+01	-1.721891e+01
9.077766e+01	-1.726688e+01
9.130199e+01	-1.731582e+01
9.182935e+01	-1.736621e+01
9.235975e+01	-1.741337e+01
9.289321e+01	-1.746417e+01
9.342976e+01	-1.751337e+01
9.396941e+01	-1.756265e+01
9.451217e+01	-1.761222e+01
9.505807e+01	-1.766044e+01
9.560712e+01	-1.770854e+01
9.615934e+01	-1.775915e+01
9.671476e+01	-1.780957e+01
9.727338e+01	-1.785713e+01
9.783522e+01	-1.790594e+01
9.840032e+01	-1.795512e+01
9.896867e+01	-1.800424e+01
9.954031e+01	-1.805357e+01
1.001153e+02	-1.810285e+01
1.006935e+02	-1.815138e+01
1.012751e+02	-1.820239e+01
1.018601e+02	-1.825069e+01
1.024484e+02	-1.829904e+01
1.030402e+02	-1.835022e+01
1.036353e+02	-1.839927e+01
1.042339e+02	-1.844930e+01
1.048360e+02	-1.849938e+01
1.054415e+02	-1.854723e+01
1.060505e+02	-1.859705e+01
1.066631e+02	-1.864579e+01
1.072791e+02	-1.869606e+01
1.078988e+02	-1.874318e+01
1.085220e+02	-1.879372e+01
1.091488e+02	-1.884155e+01
1.097793e+02	-1.889262e+01
1.104133e+02	-1.894270e+01
1.110511e+02	-1.899066e+01
1.116925e+02	-1.904047e+01
1.123376e+02	-1.908917e+01
1.129865e+02	-1.914035e+01
1.136391e+02	-1.918870e+01
1.142955e+02	-1.923723e+01
1.149556e+02	-1.928725e+01
1.156196e+02	-1.933762e+01
1.162874e+02	-1.938602e+01
1.169591e+02	-1.943576e+01
1.176347e+02	-1.948650e+01
1.183141e+02	-1.953614e+01
1.189975e+02	-1.958494e+01
1.196848e+02	-1.963448e+01
1.203761e+02	-1.968518e+01
1.210714e+02	-1.973239e+01
1.217707e+02	-1.978231e+01
1.224740e+02	-1.983325e+01
1.231814e+02	-1.988133e+01
1.238929e+02	-1.993129e+01
1.246085e+02	-1.998089e+01
1.253283e+02	-2.002967e+01
1.260522e+02	-2.008167e+01
1.267802e+02	-2.013049e+01
1.275125e+02	-2.017946e+01
1.282490e+02	-2.022746e+01
1.289898e+02	-2.028003e+01
1.297348e+02	-2.032678e+01
1.304842e+02	-2.037725e+01
1.312378e+02	-2.042656e+01
1.319959e+02	-2.047467e+01
1.327583e+02	-2.052470e+01
1.335251e+02	-2.057657e+01
1.342963e+02	-2.062523e+01
1.350720e+02	-2.067614e+01
1.358522e+02	-2.072353e+01
1.366368e+02	-2.077434e+01
1.374260e+02	-2.082326e+01
1.382198e+02	-2.087449e+01
1.390182e+02	-2.092247e+01
1.398211e+02	-2.097341e+01
1.406287e+02	-2.102197e+01
1.414410e+02	-2.107269e+01
1.422579e+02	-2.112411e+01
1.430796e+02	-2.117112e+01
1.439060e+02	-2.122285e+01
1.447372e+02	-2.127169e+01
1.455732e+02	-2.131932e+01
1.464141e+02	-2.136905e+01
1.472597e+02	-2.141927e+01
1.481103e+02	-2.146819e+01
1.489658e+02	-2.151964e+01
1.498262e+02	-2.156767e+01
1.506916e+02	-2.161795e+01
1.515620e+02	-2.166653e+01
1.524374e+02	-2.171958e+01
1.533179e+02	-2.176975e+01
1.542034e+02	-2.181781e+01
1.550941e+02	-2.186605e+01
1.559899e+02	-2.191559e+01
1.568909e+02	-2.196674e+01
1.577971e+02	-2.201713e+01
1.587085e+02	-2.206609e+01
1.596252e+02	-2.211466e+01
1.605472e+02	-2.216661e+01
1.614745e+02	-2.221431e+01
1.624072e+02	-2.226405e+01
1.633453e+02	-2.231565e+01
1.642887e+02	-2.236529e+01
1.652377e+02	-2.241448e+01
1.661921e+02	-2.246357e+01
1.671520e+02	-2.251406e+01
1.681175e+02	-2.256357e+01
1.690885e+02	-2.261303e+01
1.700651e+02	-2.266340e+01
1.710474e+02	-2.271212e+01
1.720354e+02	-2.276074e+01
1.730291e+02	-2.281266e+01
1.740285e+02	-2.286516e+01
1.750337e+02	-2.291018e+01
1.760446e+02	-2.295961e+01
1.770615e+02	-2.300791e+01
1.780842e+02	-2.306039e+01
1.791128e+02	-2.310983e+01
1.801473e+02	-2.316069e+01
1.811878e+02	-2.321185e+01
1.822344e+02	-2.326094e+01
1.832870e+02	-2.331134e+01
1.843456e+02	-2.335820e+01
1.854104e+02	-2.340968e+01
1.864813e+02	-2.345963e+01
1.875584e+02	-2.350938e+01
1.886418e+02	-2.355904e+01
1.897313e+02	-2.360918e+01
1.908272e+02	-2.365963e+01
1.919294e+02	-2.370862e+01
1.930380e+02	-2.375889e+01
1.941530e+02	-2.380883e+01
1.952744e+02	-2.385739e+01
1.964023e+02	-2.391095e+01
1.975367e+02	-2.395728e+01
1.986777e+02	-2.400708e+01
1.998252e+02	-2.405623e+01
2.009794e+02	-2.410940e+01
2.021403e+02	-2.415715e+01
2.033078e+02	-2.420816e+01
2.044821e+02	-2.425759e+01
2.056632e+02	-2.430784e+01
2.068511e+02	-2.435699e+01
2.080459e+02	-2.440697e+01
2.092475e+02	-2.445860e+01
2.104561e+02	-2.450460e+01
2.116717e+02	-2.455556e+01
2.128943e+02	-2.460449e+01
2.141240e+02	-2.465687e+01
2.153608e+02	-2.470405e+01
2.166047e+02	-2.475560e+01
2.178558e+02	-2.480319e+01
2.191141e+02	-2.485266e+01
2.203797e+02	-2.490487e+01
2.216526e+02	-2.495269e+01
2.229329e+02	-2.500664e+01
2.242205e+02	-2.505621e+01
2.255156e+02	-2.510507e+01
2.268182e+02	-2.515771e+01
2.281283e+02	-2.520529e+01
2.294459e+02	-2.525675e+01
2.307712e+02	-2.530379e+01
2.321041e+02	-2.535849e+01
2.334447e+02	-2.540330e+01
2.347931e+02	-2.545552e+01
2.361493e+02	-2.550430e+01
2.375133e+02	-2.555302e+01
2.388851e+02	-2.560425e+01
2.402649e+02	-2.565445e+01
2.416527e+02	-2.570446e+01
2.430484e+02	-2.575281e+01
2.444523e+02	-2.580332e+01
2.458642e+02	-2.585286e+01
2.472843e+02	-2.590641e+01
2.487126e+02	-2.595452e+01
2.501492e+02	-2.600337e+01
2.515940e+02	-2.605541e+01
2.530472e+02	-2.610310e+01
2.545088e+02	-2.614937e+01
2.559789e+02	-2.620573e+01
2.574574e+02	-2.625652e+01
2.589444e+02	-2.630367e+01
2.604401e+02	-2.635088e+01
2.619444e+02	-2.640718e+01
2.634574e+02	-2.645406e+01
2.649791e+02	-2.650420e+01
2.665096e+02	-2.655438e+01
2.680489e+02	-2.660499e+01
2.695972e+02	-2.665461e+01
2.711544e+02	-2.670244e+01
2.727205e+02	-2.675417e+01
2.742958e+02	-2.680364e+01
2.758801e+02	-2.685436e+01
2.774736e+02	-2.690381e+01
2.790762e+02	-2.695311e+01
2.806882e+02	-2.700073e+01
2.823094e+02	-2.705225e+01
2.839400e+02	-2.710328e+01
2.855800e+02	-2.715037e+01
2.872295e+02	-2.720418e+01
2.888886e+02	-2.725466e+01
2.905572e+02	-2.730297e+01
2.922354e+02	-2.735585e+01
2.939234e+02	-2.740521e+01
2.956211e+02	-2.745288e+01
2.973286e+02	-2.750894e+01
2.990459e+02	-2.755443e+01
3.007732e+02	-2.760303e+01
3.025104e+02	-2.765436e+01
3.042577e+02	-2.770353e+01
3.060151e+02	-2.775739e+01
3.077826e+02	-2.780393e+01
3.095604e+02	-2.784851e+01
3.113484e+02	-2.790198e+01
3.131467e+02	-2.795149e+01
3.149554e+02	-2.799975e+01
3.167746e+02	-2.805645e+01
3.186043e+02	-2.810621e+01
3.204445e+02	-2.815409e+01
3.222954e+02	-2.820677e+01
3.241570e+02	-2.825012e+01
3.260293e+02	-2.830354e+01
3.279124e+02	-2.835347e+01
3.298064e+02	-2.840491e+01
3.317114e+02	-2.845008e+01
3.336273e+02	-2.850734e+01
3.355544e+02	-2.854878e+01
3.374925e+02	-2.860357e+01
3.394418e+02	-2.864893e+01
3.414024e+02	-2.870000e+01
3.433744e+02	-2.875620e+01
3.453577e+02	-2.880078e+01
3.473525e+02	-2.885546e+01
3.493588e+02	-2.890341e+01
3.513766e+02	-2.895634e+01
3.534062e+02	-2.900748e+01
3.554474e+02	-2.905663e+01
3.575005e+02	-2.910369e+01
3.595654e+02	-2.915609e+01
3.616422e+02	-2.920625e+01
3.637311e+02	-2.925626e+01
3.658320e+02	-2.930704e+01
3.679450e+02	-2.935317e+01
3.700702e+02	-2.940385e+01
3.722077e+02	-2.945575e+01
3.743576e+02	-2.950246e+01
3.765199e+02	-2.955590e+01
3.786946e+02	-2.960431e+01
3.808820e+02	-2.965100e+01
3.830819e+02	-2.970874e+01
3.852946e+02	-2.975303e+01
3.875200e+02	-2.980570e+01
3.897583e+02	-2.985813e+01
3.920096e+02	-2.990642e+01
3.942738e+02	-2.995668e+01
3.965511e+02	-3.000952e+01
3.988416e+02	-3.005429e+01
4.011452e+02	-3.010406e+01
4.034622e+02	-3.015638e+01
4.057926e+02	-3.019948e+01
4.081365e+02	-3.025764e+01
4.104938e+02	-3.030764e+01
4.128648e+02	-3.035494e+01
4.152495e+02	-3.040571e+01
4.176480e+02	-3.045685e+01
4.200603e+02	-3.050834e+01
4.224866e+02	-3.055719e+01
4.249268e+02	-3.060694e+01
4.273812e+02	-3.065834e+01
4.298497e+02	-3.070404e+01
4.323325e+02	-3.075949e+01
4.348297e+02	-3.080751e+01
4.373412e+02	-3.085171e+01
4.398673e+02	-3.090567e+01
4.424079e+02	-3.096127e+01
4.449633e+02	-3.101650e+01
4.475334e+02	-3.105415e+01
4.501183e+02	-3.111040e+01
4.527182e+02	-3.116236e+01
4.553330e+02	-3.121310e+01
4.579630e+02	-3.125150e+01
4.606082e+02	-3.130790e+01
4.632687e+02	-3.136163e+01
4.659445e+02	-3.141155e+01
4.686358e+02	-3.146576e+01
4.713426e+02	-3.150381e+01
4.740650e+02	-3.154857e+01
4.768032e+02	-3.160914e+01
4.795572e+02	-3.166004e+01
4.823271e+02	-3.171312e+01
4.851130e+02	-3.176492e+01
4.879150e+02	-3.180940e+01
4.907332e+02	-3.185875e+01
4.935676e+02	-3.190742e+01
4.964185e+02	-3.196299e+01
4.992858e+02	-3.201087e+01
5.021696e+02	-3.205752e+01
5.050701e+02	-3.210889e+01
5.079874e+02	-3.216367e+01
5.109215e+02	-3.220810e+01
5.138726e+02	-3.226746e+01
5.168407e+02	-3.231934e+01
5.198259e+02	-3.236543e+01
5.228284e+02	-3.241667e+01
5.258482e+02	-3.246561e+01
5.288855e+02	-3.251216e+01
5.319403e+02	-3.256394e+01
5.350128e+02	-3.261843e+01
5.381030e+02	-3.266641e+01
5.412111e+02	-3.271754e+01
5.443371e+02	-3.277069e+01
5.474812e+02	-3.281819e+01
5.506434e+02	-3.286442e+01
5.538239e+02	-3.291769e+01
5.570228e+02	-3.296726e+01
5.602401e+02	-3.301870e+01
5.634760e+02	-3.306844e+01
5.667306e+02	-3.312130e+01
5.700040e+02	-3.316786e+01
5.732964e+02	-3.321661e+01
5.766077e+02	-3.327028e+01
5.799382e+02	-3.331588e+01
5.832879e+02	-3.336935e+01
5.866569e+02	-3.341908e+01
5.900454e+02	-3.346651e+01
5.934535e+02	-3.351697e+01
5.968813e+02	-3.357009e+01
6.003288e+02	-3.361345e+01
6.037963e+02	-3.367085e+01
6.072838e+02	-3.372215e+01
6.107914e+02	-3.377172e+01
6.143194e+02	-3.382025e+01
6.178676e+02	-3.386856e+01
6.214364e+02	-3.392383e+01
6.250258e+02	-3.397492e+01
6.286359e+02	-3.402501e+01
6.322669e+02	-3.407159e+01
6.359189e+02	-3.412358e+01
6.395919e+02	-3.416826e+01
6.432862e+02	-3.422561e+01
6.470017e+02	-3.428271e+01
6.507388e+02	-3.431902e+01
6.544974e+02	-3.437022e+01
6.582778e+02	-3.442765e+01
6.620800e+02	-3.447061e+01
6.659041e+02	-3.451809e+01
6.697504e+02	-3.457738e+01
6.736188e+02	-3.462297e+01
6.775096e+02	-3.467886e+01
6.814229e+02	-3.473042e+01
6.853587e+02	-3.477983e+01
6.893173e+02	-3.483118e+01
6.932988e+02	-3.488016e+01
6.973033e+02	-3.493797e+01
7.013309e+02	-3.497593e+01
