Frequency(Hz)	Magnitude(dB)
1.000000e+01	-1.586234e-05
1.005776e+01	-1.604611e-05
1.011585e+01	-1.623200e-05
1.017428e+01	-1.642006e-05
1.023305e+01	-1.661029e-05
1.029215e+01	-1.680272e-05
1.035160e+01	-1.699739e-05
1.041139e+01	-1.719430e-05
1.047153e+01	-1.739350e-05
1.053201e+01	-1.759501e-05
1.059284e+01	-1.779886e-05
1.065403e+01	-1.800506e-05
1.071556e+01	-1.821365e-05
1.077746e+01	-1.842466e-05
1.083971e+01	-1.863812e-05
1.090232e+01	-1.885404e-05
1.096529e+01	-1.907247e-05
1.102862e+01	-1.929343e-05
1.109232e+01	-1.951695e-05
1.115639e+01	-1.974306e-05
1.122083e+01	-1.997179e-05
1.128564e+01	-2.020317e-05
1.135083e+01	-2.043723e-05
1.141639e+01	-2.067400e-05
1.148233e+01	-2.091351e-05
1.154865e+01	-2.115580e-05
1.161536e+01	-2.140089e-05
1.168245e+01	-2.164883e-05
1.174992e+01	-2.189964e-05
1.181779e+01	-2.215335e-05
1.188605e+01	-2.241000e-05
1.195470e+01	-2.266963e-05
1.202375e+01	-2.293226e-05
1.209320e+01	-2.319794e-05
1.216305e+01	-2.346669e-05
1.223330e+01	-2.373856e-05
1.230396e+01	-2.401357e-05
1.237503e+01	-2.429178e-05
1.244651e+01	-2.457320e-05
1.251840e+01	-2.485789e-05
1.259070e+01	-2.514587e-05
1.266343e+01	-2.543720e-05
1.273657e+01	-2.573189e-05
1.281014e+01	-2.603000e-05
1.288413e+01	-2.633157e-05
1.295855e+01	-2.663662e-05
1.303339e+01	-2.694522e-05
1.310867e+01	-2.725738e-05
1.318439e+01	-2.757317e-05
1.326054e+01	-2.789261e-05
1.333713e+01	-2.821575e-05
1.341417e+01	-2.854264e-05
1.349165e+01	-2.887331e-05
1.356958e+01	-2.920781e-05
1.364795e+01	-2.954619e-05
1.372678e+01	-2.988849e-05
1.380607e+01	-3.023476e-05
1.388581e+01	-3.058504e-05
1.396602e+01	-3.093937e-05
1.404668e+01	-3.129781e-05
1.412782e+01	-3.166040e-05
1.420942e+01	-3.202720e-05
1.429149e+01	-3.239824e-05
1.437404e+01	-3.277358e-05
1.445706e+01	-3.315327e-05
1.454057e+01	-3.353736e-05
1.462455e+01	-3.392590e-05
1.470902e+01	-3.431894e-05
1.479398e+01	-3.471653e-05
1.487943e+01	-3.511873e-05
1.496537e+01	-3.552559e-05
1.505181e+01	-3.593716e-05
1.513875e+01	-3.635350e-05
1.522619e+01	-3.677466e-05
1.531414e+01	-3.720071e-05
1.540259e+01	-3.763168e-05
1.549156e+01	-3.806766e-05
1.558103e+01	-3.850868e-05
1.567103e+01	-3.895481e-05
1.576155e+01	-3.940611e-05
1.585258e+01	-3.986264e-05
1.594415e+01	-4.032446e-05
1.603624e+01	-4.079163e-05
1.612886e+01	-4.126421e-05
1.622202e+01	-4.174226e-05
1.631572e+01	-4.222585e-05
1.640996e+01	-4.271505e-05
1.650474e+01	-4.320991e-05
1.660008e+01	-4.371051e-05
1.669596e+01	-4.421691e-05
1.679239e+01	-4.472917e-05
1.688938e+01	-4.524737e-05
1.698694e+01	-4.577157e-05
1.708505e+01	-4.630184e-05
1.718373e+01	-4.683826e-05
1.728299e+01	-4.738089e-05
1.738281e+01	-4.792981e-05
1.748322e+01	-4.848508e-05
1.758420e+01	-4.904679e-05
1.768576e+01	-4.961501e-05
1.778792e+01	-5.018981e-05
1.789066e+01	-5.077127e-05
1.799399e+01	-5.135947e-05
1.809793e+01	-5.195448e-05
1.820246e+01	-5.255638e-05
1.830760e+01	-5.316526e-05
1.841334e+01	-5.378119e-05
1.851969e+01	-5.440425e-05
1.862666e+01	-5.503454e-05
1.873425e+01	-5.567212e-05
1.884246e+01	-5.631710e-05
1.895129e+01	-5.696954e-05
1.906075e+01	-5.762955e-05
1.917085e+01	-5.829720e-05
1.928158e+01	-5.897258e-05
1.939295e+01	-5.965579e-05
1.950496e+01	-6.034691e-05
1.961762e+01	-6.104605e-05
1.973093e+01	-6.175328e-05
1.984490e+01	-6.246870e-05
1.995952e+01	-6.319241e-05
2.007480e+01	-6.392451e-05
2.019076e+01	-6.466509e-05
2.030738e+01	-6.541424e-05
2.042467e+01	-6.617208e-05
2.054264e+01	-6.693870e-05
2.066130e+01	-6.771419e-05
2.078064e+01	-6.849868e-05
2.090066e+01	-6.929225e-05
2.102139e+01	-7.009501e-05
2.114280e+01	-7.090707e-05
2.126492e+01	-7.172854e-05
2.138775e+01	-7.255953e-05
2.151128e+01	-7.340015e-05
2.163553e+01	-7.425050e-05
2.176050e+01	-7.511071e-05
2.188619e+01	-7.598088e-05
2.201260e+01	-7.686113e-05
2.213974e+01	-7.775158e-05
2.226762e+01	-7.865235e-05
2.239624e+01	-7.956355e-05
2.252560e+01	-8.048530e-05
2.265571e+01	-8.141774e-05
2.278656e+01	-8.236098e-05
2.291818e+01	-8.331514e-05
2.305055e+01	-8.428036e-05
2.318369e+01	-8.525677e-05
2.331760e+01	-8.624448e-05
2.345228e+01	-8.724364e-05
2.358774e+01	-8.825437e-05
2.372398e+01	-8.927681e-05
2.386101e+01	-9.031109e-05
2.399883e+01	-9.135736e-05
2.413745e+01	-9.241575e-05
2.427686e+01	-9.348640e-05
2.441709e+01	-9.456946e-05
2.455812e+01	-9.566506e-05
2.469997e+01	-9.677335e-05
2.484263e+01	-9.789449e-05
2.498612e+01	-9.902861e-05
2.513044e+01	-1.001759e-04
2.527559e+01	-1.013364e-04
2.542158e+01	-1.025104e-04
2.556842e+01	-1.036980e-04
2.571610e+01	-1.048994e-04
2.586463e+01	-1.061146e-04
2.601403e+01	-1.073440e-04
2.616428e+01	-1.085876e-04
2.631541e+01	-1.098456e-04
2.646740e+01	-1.111182e-04
2.662028e+01	-1.124055e-04
2.677404e+01	-1.137077e-04
2.692868e+01	-1.150250e-04
2.708422e+01	-1.163576e-04
2.724066e+01	-1.177056e-04
2.739800e+01	-1.190693e-04
2.755625e+01	-1.204487e-04
2.771541e+01	-1.218441e-04
2.787550e+01	-1.232557e-04
2.803650e+01	-1.246836e-04
2.819844e+01	-1.261281e-04
2.836131e+01	-1.275893e-04
2.852513e+01	-1.290674e-04
2.868989e+01	-1.305627e-04
2.885560e+01	-1.320753e-04
2.902227e+01	-1.336054e-04
2.918990e+01	-1.351532e-04
2.935850e+01	-1.367190e-04
2.952807e+01	-1.383029e-04
2.969863e+01	-1.399051e-04
2.987016e+01	-1.415259e-04
3.004269e+01	-1.431655e-04
3.021622e+01	-1.448241e-04
3.039075e+01	-1.465019e-04
3.056628e+01	-1.481992e-04
3.074283e+01	-1.499161e-04
3.092040e+01	-1.516528e-04
3.109900e+01	-1.534098e-04
3.127862e+01	-1.551870e-04
3.145929e+01	-1.569849e-04
3.164099e+01	-1.588036e-04
3.182375e+01	-1.606433e-04
3.200756e+01	-1.625044e-04
3.219244e+01	-1.643870e-04
3.237838e+01	-1.662914e-04
3.256540e+01	-1.682179e-04
3.275349e+01	-1.701667e-04
3.294268e+01	-1.721381e-04
3.313295e+01	-1.741323e-04
3.332433e+01	-1.761497e-04
3.351681e+01	-1.781904e-04
3.371040e+01	-1.802547e-04
3.390511e+01	-1.823430e-04
3.410094e+01	-1.844554e-04
3.429791e+01	-1.865924e-04
3.449601e+01	-1.887540e-04
3.469526e+01	-1.909407e-04
3.489566e+01	-1.931528e-04
3.509721e+01	-1.953905e-04
3.529993e+01	-1.976541e-04
3.550382e+01	-1.999439e-04
3.570889e+01	-2.022603e-04
3.591515e+01	-2.046034e-04
3.612259e+01	-2.069738e-04
3.633123e+01	-2.093716e-04
3.654108e+01	-2.117971e-04
3.675214e+01	-2.142508e-04
3.696442e+01	-2.167329e-04
3.717792e+01	-2.192437e-04
3.739266e+01	-2.217837e-04
3.760864e+01	-2.243530e-04
3.782587e+01	-2.269522e-04
3.804435e+01	-2.295814e-04
3.826409e+01	-2.322411e-04
3.848510e+01	-2.349316e-04
3.870739e+01	-2.376533e-04
3.893096e+01	-2.404065e-04
3.915583e+01	-2.431916e-04
3.938199e+01	-2.460089e-04
3.960946e+01	-2.488589e-04
3.983824e+01	-2.517420e-04
4.006834e+01	-2.546584e-04
4.029978e+01	-2.576086e-04
4.053255e+01	-2.605929e-04
4.076666e+01	-2.636119e-04
4.100213e+01	-2.666658e-04
4.123896e+01	-2.697551e-04
4.147715e+01	-2.728802e-04
4.171672e+01	-2.760415e-04
4.195767e+01	-2.792394e-04
4.220002e+01	-2.824744e-04
4.244377e+01	-2.857468e-04
4.268892e+01	-2.890572e-04
4.293549e+01	-2.924059e-04
4.318348e+01	-2.957933e-04
4.343291e+01	-2.992201e-04
4.368377e+01	-3.026865e-04
4.393609e+01	-3.061931e-04
4.418986e+01	-3.097403e-04
4.444510e+01	-3.133286e-04
4.470182e+01	-3.169585e-04
4.496001e+01	-3.206304e-04
4.521970e+01	-3.243448e-04
4.548089e+01	-3.281023e-04
4.574358e+01	-3.319033e-04
4.600779e+01	-3.357484e-04
4.627353e+01	-3.396379e-04
4.654081e+01	-3.435726e-04
4.680963e+01	-3.475528e-04
4.708000e+01	-3.515791e-04
4.735193e+01	-3.556521e-04
4.762543e+01	-3.597723e-04
4.790051e+01	-3.639402e-04
4.817719e+01	-3.681563e-04
4.845545e+01	-3.724213e-04
4.873533e+01	-3.767358e-04
4.901682e+01	-3.811002e-04
4.929994e+01	-3.855151e-04
4.958470e+01	-3.899812e-04
4.987110e+01	-3.944990e-04
5.015915e+01	-3.990692e-04
5.044887e+01	-4.036923e-04
5.074026e+01	-4.083690e-04
5.103333e+01	-4.130998e-04
5.132810e+01	-4.178855e-04
5.162457e+01	-4.227266e-04
5.192275e+01	-4.276237e-04
5.222265e+01	-4.325776e-04
5.252429e+01	-4.375889e-04
5.282767e+01	-4.426582e-04
5.313280e+01	-4.477863e-04
5.343969e+01	-4.529737e-04
5.374836e+01	-4.582213e-04
5.405880e+01	-4.635296e-04
5.437105e+01	-4.688995e-04
5.468509e+01	-4.743315e-04
5.500095e+01	-4.798265e-04
5.531863e+01	-4.853851e-04
5.563815e+01	-4.910081e-04
5.595951e+01	-4.966962e-04
5.628273e+01	-5.024502e-04
5.660782e+01	-5.082709e-04
5.693479e+01	-5.141590e-04
5.726364e+01	-5.201153e-04
5.759439e+01	-5.261407e-04
5.792705e+01	-5.322358e-04
5.826164e+01	-5.384015e-04
5.859815e+01	-5.446386e-04
5.893662e+01	-5.509480e-04
5.927703e+01	-5.573305e-04
5.961941e+01	-5.637869e-04
5.996377e+01	-5.703181e-04
6.031012e+01	-5.769250e-04
6.065847e+01	-5.836083e-04
6.100883e+01	-5.903691e-04
6.136121e+01	-5.972083e-04
6.171563e+01	-6.041266e-04
6.207210e+01	-6.111251e-04
6.243063e+01	-6.182046e-04
6.279122e+01	-6.253662e-04
6.315390e+01	-6.326107e-04
6.351868e+01	-6.399391e-04
6.388556e+01	-6.473524e-04
6.425456e+01	-6.548516e-04
6.462569e+01	-6.624377e-04
6.499897e+01	-6.701116e-04
6.537440e+01	-6.778744e-04
6.575200e+01	-6.857272e-04
6.613178e+01	-6.936709e-04
6.651375e+01	-7.017066e-04
6.689793e+01	-7.098354e-04
6.728433e+01	-7.180584e-04
6.767297e+01	-7.263766e-04
6.806384e+01	-7.347911e-04
6.845698e+01	-7.433032e-04
6.885238e+01	-7.519138e-04
6.925007e+01	-7.606242e-04
6.965005e+01	-7.694354e-04
7.005235e+01	-7.783487e-04
7.045697e+01	-7.873653e-04
7.086393e+01	-7.964863e-04
7.127323e+01	-8.057130e-04
7.168490e+01	-8.150465e-04
7.209895e+01	-8.244881e-04
7.251539e+01	-8.340391e-04
7.293424e+01	-8.437008e-04
7.335551e+01	-8.534743e-04
7.377920e+01	-8.633611e-04
7.420535e+01	-8.733623e-04
7.463396e+01	-8.834794e-04
7.506504e+01	-8.937137e-04
7.549861e+01	-9.040666e-04
7.593469e+01	-9.145393e-04
7.637328e+01	-9.251334e-04
7.681441e+01	-9.358502e-04
7.725809e+01	-9.466911e-04
7.770433e+01	-9.576575e-04
7.815315e+01	-9.687510e-04
7.860456e+01	-9.799730e-04
7.905857e+01	-9.913249e-04
7.951521e+01	-1.002808e-03
7.997449e+01	-1.014425e-03
8.043642e+01	-1.026176e-03
8.090102e+01	-1.038063e-03
8.136830e+01	-1.050088e-03
8.183828e+01	-1.062252e-03
8.231097e+01	-1.074557e-03
8.278640e+01	-1.087004e-03
8.326457e+01	-1.099596e-03
8.374550e+01	-1.112333e-03
8.422921e+01	-1.125218e-03
8.471572e+01	-1.138253e-03
8.520503e+01	-1.151438e-03
8.569717e+01	-1.164776e-03
8.619215e+01	-1.178268e-03
8.669000e+01	-1.191917e-03
8.719071e+01	-1.205724e-03
8.769432e+01	-1.219690e-03
8.820084e+01	-1.233819e-03
8.871029e+01	-1.248111e-03
8.922267e+01	-1.262568e-03
8.973802e+01	-1.277193e-03
9.025634e+01	-1.291988e-03
9.077766e+01	-1.306954e-03
9.130199e+01	-1.322093e-03
9.182935e+01	-1.337407e-03
9.235975e+01	-1.352899e-03
9.289321e+01	-1.368570e-03
9.342976e+01	-1.384423e-03
9.396941e+01	-1.400459e-03
9.451217e+01	-1.416681e-03
9.505807e+01	-1.433091e-03
9.560712e+01	-1.449691e-03
9.615934e+01	-1.466483e-03
9.671476e+01	-1.483470e-03
9.727338e+01	-1.500654e-03
9.783522e+01	-1.518036e-03
9.840032e+01	-1.535620e-03
9.896867e+01	-1.553407e-03
9.954031e+01	-1.571401e-03
1.001153e+02	-1.589602e-03
1.006935e+02	-1.608015e-03
1.012751e+02	-1.626641e-03
1.018601e+02	-1.645482e-03
1.024484e+02	-1.664542e-03
1.030402e+02	-1.683822e-03
1.036353e+02	-1.703326e-03
1.042339e+02	-1.723056e-03
1.048360e+02	-1.743014e-03
1.054415e+02	-1.763203e-03
1.060505e+02	-1.783626e-03
1.066631e+02	-1.804285e-03
1.072791e+02	-1.825184e-03
1.078988e+02	-1.846325e-03
1.085220e+02	-1.867710e-03
1.091488e+02	-1.889343e-03
1.097793e+02	-1.911227e-03
1.104133e+02	-1.933364e-03
1.110511e+02	-1.955758e-03
1.116925e+02	-1.978411e-03
1.123376e+02	-2.001326e-03
1.129865e+02	-2.024506e-03
1.136391e+02	-2.047955e-03
1.142955e+02	-2.071676e-03
1.149556e+02	-2.095671e-03
1.156196e+02	-2.119944e-03
1.162874e+02	-2.144498e-03
1.169591e+02	-2.169336e-03
1.176347e+02	-2.194462e-03
1.183141e+02	-2.219879e-03
1.189975e+02	-2.245590e-03
1.196848e+02	-2.271599e-03
1.203761e+02	-2.297909e-03
1.210714e+02	-2.324524e-03
1.217707e+02	-2.351447e-03
1.224740e+02	-2.378682e-03
1.231814e+02	-2.406232e-03
1.238929e+02	-2.434101e-03
1.246085e+02	-2.462292e-03
1.253283e+02	-2.490810e-03
1.260522e+02	-2.519659e-03
1.267802e+02	-2.548841e-03
1.275125e+02	-2.578361e-03
1.282490e+02	-2.608223e-03
1.289898e+02	-2.638431e-03
1.297348e+02	-2.668989e-03
1.304842e+02	-2.699900e-03
1.312378e+02	-2.731169e-03
1.319959e+02	-2.762800e-03
1.327583e+02	-2.794798e-03
1.335251e+02	-2.827166e-03
1.342963e+02	-2.859908e-03
1.350720e+02	-2.893030e-03
1.358522e+02	-2.926535e-03
1.366368e+02	-2.960428e-03
1.374260e+02	-2.994714e-03
1.382198e+02	-3.029396e-03
1.390182e+02	-3.064480e-03
1.398211e+02	-3.099970e-03
1.406287e+02	-3.135871e-03
1.414410e+02	-3.172188e-03
1.422579e+02	-3.208925e-03
1.430796e+02	-3.246087e-03
1.439060e+02	-3.283680e-03
1.447372e+02	-3.321708e-03
1.455732e+02	-3.360176e-03
1.464141e+02	-3.399089e-03
1.472597e+02	-3.438453e-03
1.481103e+02	-3.478272e-03
1.489658e+02	-3.518552e-03
1.498262e+02	-3.559299e-03
1.506916e+02	-3.600517e-03
1.515620e+02	-3.642213e-03
1.524374e+02	-3.684391e-03
1.533179e+02	-3.727057e-03
1.542034e+02	-3.770217e-03
1.550941e+02	-3.813877e-03
1.559899e+02	-3.858042e-03
1.568909e+02	-3.902718e-03
1.577971e+02	-3.947912e-03
1.587085e+02	-3.993628e-03
1.596252e+02	-4.039874e-03
1.605472e+02	-4.086655e-03
1.614745e+02	-4.133977e-03
1.624072e+02	-4.181847e-03
1.633453e+02	-4.230271e-03
1.642887e+02	-4.279256e-03
1.652377e+02	-4.328807e-03
1.661921e+02	-4.378932e-03
1.671520e+02	-4.429637e-03
1.681175e+02	-4.480929e-03
1.690885e+02	-4.532815e-03
1.700651e+02	-4.585301e-03
1.710474e+02	-4.638395e-03
1.720354e+02	-4.692102e-03
1.730291e+02	-4.746432e-03
1.740285e+02	-4.801390e-03
1.750337e+02	-4.856984e-03
1.760446e+02	-4.913222e-03
1.770615e+02	-4.970110e-03
1.780842e+02	-5.027657e-03
1.791128e+02	-5.085869e-03
1.801473e+02	-5.144755e-03
1.811878e+02	-5.204323e-03
1.822344e+02	-5.264580e-03
1.832870e+02	-5.325534e-03
1.843456e+02	-5.387193e-03
1.854104e+02	-5.449566e-03
1.864813e+02	-5.512660e-03
1.875584e+02	-5.576484e-03
1.886418e+02	-5.641047e-03
1.897313e+02	-5.706357e-03
1.908272e+02	-5.772423e-03
1.919294e+02	-5.839253e-03
1.930380e+02	-5.906856e-03
1.941530e+02	-5.975241e-03
1.952744e+02	-6.044418e-03
1.964023e+02	-6.114394e-03
1.975367e+02	-6.185181e-03
1.986777e+02	-6.256786e-03
1.998252e+02	-6.329219e-03
2.009794e+02	-6.402491e-03
2.021403e+02	-6.476610e-03
2.033078e+02	-6.551586e-03
2.044821e+02	-6.627430e-03
2.056632e+02	-6.704151e-03
2.068511e+02	-6.781759e-03
2.080459e+02	-6.860265e-03
2.092475e+02	-6.939680e-03
2.104561e+02	-7.020012e-03
2.116717e+02	-7.101274e-03
2.128943e+02	-7.183476e-03
2.141240e+02	-7.266629e-03
2.153608e+02	-7.350743e-03
2.166047e+02	-7.435830e-03
2.178558e+02	-7.521901e-03
2.191141e+02	-7.608968e-03
2.203797e+02	-7.697041e-03
2.216526e+02	-7.786133e-03
2.229329e+02	-7.876256e-03
2.242205e+02	-7.967420e-03
2.255156e+02	-8.059639e-03
2.268182e+02	-8.152924e-03
2.281283e+02	-8.247287e-03
2.294459e+02	-8.342742e-03
2.307712e+02	-8.439301e-03
2.321041e+02	-8.536976e-03
2.334447e+02	-8.635780e-03
2.347931e+02	-8.735727e-03
2.361493e+02	-8.836829e-03
2.375133e+02	-8.939101e-03
2.388851e+02	-9.042554e-03
2.402649e+02	-9.147204e-03
2.416527e+02	-9.253063e-03
2.430484e+02	-9.360146e-03
2.444523e+02	-9.468467e-03
2.458642e+02	-9.578041e-03
2.472843e+02	-9.688880e-03
2.487126e+02	-9.801001e-03
2.501492e+02	-9.914418e-03
2.515940e+02	-1.002915e-02
2.530472e+02	-1.014520e-02
2.545088e+02	-1.026260e-02
2.559789e+02	-1.038135e-02
2.574574e+02	-1.050147e-02
2.589444e+02	-1.062299e-02
2.604401e+02	-1.074590e-02
2.619444e+02	-1.087024e-02
2.634574e+02	-1.099601e-02
2.649791e+02	-1.112324e-02
2.665096e+02	-1.125194e-02
2.680489e+02	-1.138213e-02
2.695972e+02	-1.151382e-02
2.711544e+02	-1.164703e-02
2.727205e+02	-1.178178e-02
2.742958e+02	-1.191808e-02
2.758801e+02	-1.205596e-02
2.774736e+02	-1.219544e-02
2.790762e+02	-1.233653e-02
2.806882e+02	-1.247924e-02
2.823094e+02	-1.262361e-02
2.839400e+02	-1.276964e-02
2.855800e+02	-1.291736e-02
2.872295e+02	-1.306678e-02
2.888886e+02	-1.321793e-02
2.905572e+02	-1.337083e-02
2.922354e+02	-1.352549e-02
2.939234e+02	-1.368194e-02
2.956211e+02	-1.384019e-02
2.973286e+02	-1.400028e-02
2.990459e+02	-1.416221e-02
3.007732e+02	-1.432601e-02
3.025104e+02	-1.449170e-02
3.042577e+02	-1.465931e-02
3.060151e+02	-1.482885e-02
3.077826e+02	-1.500035e-02
3.095604e+02	-1.517382e-02
3.113484e+02	-1.534930e-02
3.131467e+02	-1.552681e-02
3.149554e+02	-1.570637e-02
3.167746e+02	-1.588800e-02
3.186043e+02	-1.607172e-02
3.204445e+02	-1.625756e-02
3.222954e+02	-1.644555e-02
3.241570e+02	-1.663571e-02
3.260293e+02	-1.682807e-02
3.279124e+02	-1.702264e-02
3.298064e+02	-1.721946e-02
3.317114e+02	-1.741855e-02
3.336273e+02	-1.761994e-02
3.355544e+02	-1.782365e-02
3.374925e+02	-1.802971e-02
3.394418e+02	-1.823815e-02
3.414024e+02	-1.844899e-02
3.433744e+02	-1.866227e-02
3.453577e+02	-1.887800e-02
3.473525e+02	-1.909623e-02
3.493588e+02	-1.931697e-02
3.513766e+02	-1.954026e-02
3.534062e+02	-1.976612e-02
3.554474e+02	-1.999458e-02
3.575005e+02	-2.022568e-02
3.595654e+02	-2.045945e-02
3.616422e+02	-2.069591e-02
3.637311e+02	-2.093510e-02
3.658320e+02	-2.117704e-02
3.679450e+02	-2.142178e-02
3.700702e+02	-2.166933e-02
3.722077e+02	-2.191974e-02
3.743576e+02	-2.217304e-02
3.765199e+02	-2.242925e-02
3.786946e+02	-2.268842e-02
3.808820e+02	-2.295057e-02
3.830819e+02	-2.321575e-02
3.852946e+02	-2.348398e-02
3.875200e+02	-2.375530e-02
3.897583e+02	-2.402975e-02
3.920096e+02	-2.430736e-02
3.942738e+02	-2.458816e-02
3.965511e+02	-2.487220e-02
3.988416e+02	-2.515952e-02
4.011452e+02	-2.545014e-02
4.034622e+02	-2.574411e-02
4.057926e+02	-2.604146e-02
4.081365e+02	-2.634224e-02
4.104938e+02	-2.664648e-02
4.128648e+02	-2.695423e-02
4.152495e+02	-2.726552e-02
4.176480e+02	-2.758039e-02
4.200603e+02	-2.789888e-02
4.224866e+02	-2.822105e-02
4.249268e+02	-2.854692e-02
4.273812e+02	-2.887654e-02
4.298497e+02	-2.920995e-02
4.323325e+02	-2.954720e-02
4.348297e+02	-2.988833e-02
4.373412e+02	-3.023338e-02
4.398673e+02	-3.058241e-02
4.424079e+02	-3.093545e-02
4.449633e+02	-3.129255e-02
4.475334e+02	-3.165375e-02
4.501183e+02	-3.201911e-02
4.527182e+02	-3.238868e-02
4.553330e+02	-3.276249e-02
4.579630e+02	-3.314060e-02
4.606082e+02	-3.352305e-02
4.632687e+02	-3.390990e-02
4.659445e+02	-3.430120e-02
4.686358e+02	-3.469700e-02
4.713426e+02	-3.509734e-02
4.740650e+02	-3.550229e-02
4.768032e+02	-3.591188e-02
4.795572e+02	-3.632619e-02
4.823271e+02	-3.674525e-02
4.851130e+02	-3.716913e-02
4.879150e+02	-3.759787e-02
4.907332e+02	-3.803154e-02
4.935676e+02	-3.847019e-02
4.964185e+02	-3.891387e-02
4.992858e+02	-3.936265e-02
5.021696e+02	-3.981658e-02
5.050701e+02	-4.027572e-02
5.079874e+02	-4.074013e-02
5.109215e+02	-4.120987e-02
5.138726e+02	-4.168500e-02
5.168407e+02	-4.216558e-02
5.198259e+02	-4.265168e-02
5.228284e+02	-4.314335e-02
5.258482e+02	-4.364065e-02
5.288855e+02	-4.414367e-02
5.319403e+02	-4.465245e-02
5.350128e+02	-4.516706e-02
5.381030e+02	-4.568757e-02
5.412111e+02	-4.621405e-02
5.443371e+02	-4.674657e-02
5.474812e+02	-4.728518e-02
5.506434e+02	-4.782997e-02
5.538239e+02	-4.838100e-02
5.570228e+02	-4.893834e-02
5.602401e+02	-4.950207e-02
5.634760e+02	-5.007225e-02
5.667306e+02	-5.064896e-02
5.700040e+02	-5.123227e-02
5.732964e+02	-5.182226e-02
5.766077e+02	-5.241901e-02
5.799382e+02	-5.302258e-02
5.832879e+02	-5.363306e-02
5.866569e+02	-5.425052e-02
5.900454e+02	-5.487505e-02
5.934535e+02	-5.550672e-02
5.968813e+02	-5.614562e-02
6.003288e+02	-5.679182e-02
6.037963e+02	-5.744541e-02
6.072838e+02	-5.810647e-02
6.107914e+02	-5.877509e-02
6.143194e+02	-5.945135e-02
6.178676e+02	-6.013533e-02
6.214364e+02	-6.082713e-02
6.250258e+02	-6.152683e-02
6.286359e+02	-6.223452e-02
6.322669e+02	-6.295029e-02
6.359189e+02	-6.367423e-02
6.395919e+02	-6.440644e-02
6.432862e+02	-6.514700e-02
6.470017e+02	-6.589601e-02
6.507388e+02	-6.665357e-02
6.544974e+02	-6.741977e-02
6.582778e+02	-6.819471e-02
6.620800e+02	-6.897849e-02
6.659041e+02	-6.977120e-02
6.697504e+02	-7.057294e-02
6.736188e+02	-7.138382e-02
6.775096e+02	-7.220394e-02
6.814229e+02	-7.303341e-02
6.853587e+02	-7.387232e-02
6.893173e+02	-7.472079e-02
6.932988e+02	-7.557891e-02
6.973033e+02	-7.644680e-02
7.013309e+02	-7.732457e-02
