Frequency(Hz)	Magnitude(dB)
1.000000e+01	-2.149712e+00
1.005776e+01	-2.169121e+00
1.011585e+01	-2.188880e+00
1.017428e+01	-2.208828e+00
1.023305e+01	-2.228860e+00
1.029215e+01	-2.249029e+00
1.035160e+01	-2.269161e+00
1.041139e+01	-2.289634e+00
1.047153e+01	-2.310342e+00
1.053201e+01	-2.331052e+00
1.059284e+01	-2.351807e+00
1.065403e+01	-2.372865e+00
1.071556e+01	-2.393989e+00
1.077746e+01	-2.415287e+00
1.083971e+01	-2.436786e+00
1.090232e+01	-2.458182e+00
1.096529e+01	-2.479887e+00
1.102862e+01	-2.501611e+00
1.109232e+01	-2.523588e+00
1.115639e+01	-2.545834e+00
1.122083e+01	-2.568197e+00
1.128564e+01	-2.590418e+00
1.135083e+01	-2.613242e+00
1.141639e+01	-2.635476e+00
1.148233e+01	-2.658576e+00
1.154865e+01	-2.681653e+00
1.161536e+01	-2.704655e+00
1.168245e+01	-2.727818e+00
1.174992e+01	-2.751305e+00
1.181779e+01	-2.774801e+00
1.188605e+01	-2.798638e+00
1.195470e+01	-2.822382e+00
1.202375e+01	-2.846419e+00
1.209320e+01	-2.870407e+00
1.216305e+01	-2.894575e+00
1.223330e+01	-2.919107e+00
1.230396e+01	-2.943772e+00
1.237503e+01	-2.968571e+00
1.244651e+01	-2.993401e+00
1.251840e+01	-3.018419e+00
1.259070e+01	-3.043180e+00
1.266343e+01	-3.068713e+00
1.273657e+01	-3.094094e+00
1.281014e+01	-3.119724e+00
1.288413e+01	-3.145405e+00
1.295855e+01	-3.170905e+00
1.303339e+01	-3.197125e+00
1.310867e+01	-3.223275e+00
1.318439e+01	-3.249504e+00
1.326054e+01	-3.276071e+00
1.333713e+01	-3.302610e+00
1.341417e+01	-3.329442e+00
1.349165e+01	-3.356021e+00
1.356958e+01	-3.383102e+00
1.364795e+01	-3.410606e+00
1.372678e+01	-3.437594e+00
1.380607e+01	-3.465158e+00
1.388581e+01	-3.492598e+00
1.396602e+01	-3.520417e+00
1.404668e+01	-3.548226e+00
1.412782e+01	-3.576224e+00
1.420942e+01	-3.604198e+00
1.429149e+01	-3.632869e+00
1.437404e+01	-3.661088e+00
1.445706e+01	-3.689639e+00
1.454057e+01	-3.718371e+00
1.462455e+01	-3.747240e+00
1.470902e+01	-3.776281e+00
1.479398e+01	-3.805109e+00
1.487943e+01	-3.834496e+00
1.496537e+01	-3.864048e+00
1.505181e+01	-3.893659e+00
1.513875e+01	-3.923276e+00
1.522619e+01	-3.952703e+00
1.531414e+01	-3.983094e+00
1.540259e+01	-4.013151e+00
1.549156e+01	-4.043170e+00
1.558103e+01	-4.073827e+00
1.567103e+01	-4.103992e+00
1.576155e+01	-4.134962e+00
1.585258e+01	-4.165624e+00
1.594415e+01	-4.196588e+00
1.603624e+01	-4.227673e+00
1.612886e+01	-4.259108e+00
1.622202e+01	-4.290178e+00
1.631572e+01	-4.321430e+00
1.640996e+01	-4.353278e+00
1.650474e+01	-4.385000e+00
1.660008e+01	-4.416530e+00
1.669596e+01	-4.448797e+00
1.679239e+01	-4.480813e+00
1.688938e+01	-4.513337e+00
1.698694e+01	-4.545547e+00
1.708505e+01	-4.578145e+00
1.718373e+01	-4.610743e+00
1.728299e+01	-4.643575e+00
1.738281e+01	-4.676404e+00
1.748322e+01	-4.709393e+00
1.758420e+01	-4.742909e+00
1.768576e+01	-4.775750e+00
1.778792e+01	-4.809288e+00
1.789066e+01	-4.842873e+00
1.799399e+01	-4.876728e+00
1.809793e+01	-4.910770e+00
1.820246e+01	-4.944426e+00
1.830760e+01	-4.978413e+00
1.841334e+01	-5.012528e+00
1.851969e+01	-5.047005e+00
1.862666e+01	-5.081605e+00
1.873425e+01	-5.116299e+00
1.884246e+01	-5.150861e+00
1.895129e+01	-5.185650e+00
1.906075e+01	-5.220260e+00
1.917085e+01	-5.255273e+00
1.928158e+01	-5.290662e+00
1.939295e+01	-5.326175e+00
1.950496e+01	-5.361270e+00
1.961762e+01	-5.396520e+00
1.973093e+01	-5.432588e+00
1.984490e+01	-5.468149e+00
1.995952e+01	-5.504083e+00
2.007480e+01	-5.539817e+00
2.019076e+01	-5.576279e+00
2.030738e+01	-5.612328e+00
2.042467e+01	-5.648985e+00
2.054264e+01	-5.685396e+00
2.066130e+01	-5.721797e+00
2.078064e+01	-5.758570e+00
2.090066e+01	-5.795224e+00
2.102139e+01	-5.832036e+00
2.114280e+01	-5.869470e+00
2.126492e+01	-5.906565e+00
2.138775e+01	-5.943713e+00
2.151128e+01	-5.980885e+00
2.163553e+01	-6.017925e+00
2.176050e+01	-6.056009e+00
2.188619e+01	-6.093474e+00
2.201260e+01	-6.131407e+00
2.213974e+01	-6.169286e+00
2.226762e+01	-6.206940e+00
2.239624e+01	-6.245587e+00
2.252560e+01	-6.283606e+00
2.265571e+01	-6.321691e+00
2.278656e+01	-6.360091e+00
2.291818e+01	-6.398987e+00
2.305055e+01	-6.437591e+00
2.318369e+01	-6.476191e+00
2.331760e+01	-6.515171e+00
2.345228e+01	-6.554005e+00
2.358774e+01	-6.592970e+00
2.372398e+01	-6.632305e+00
2.386101e+01	-6.671152e+00
2.399883e+01	-6.710676e+00
2.413745e+01	-6.749922e+00
2.427686e+01	-6.789895e+00
2.441709e+01	-6.829171e+00
2.455812e+01	-6.868768e+00
2.469997e+01	-6.908797e+00
2.484263e+01	-6.948454e+00
2.498612e+01	-6.988083e+00
2.513044e+01	-7.028607e+00
2.527559e+01	-7.068496e+00
2.542158e+01	-7.108490e+00
2.556842e+01	-7.149232e+00
2.571610e+01	-7.189428e+00
2.586463e+01	-7.229953e+00
2.601403e+01	-7.270496e+00
2.616428e+01	-7.311502e+00
2.631541e+01	-7.352046e+00
2.646740e+01	-7.392862e+00
2.662028e+01	-7.434016e+00
2.677404e+01	-7.475174e+00
2.692868e+01	-7.516062e+00
2.708422e+01	-7.557177e+00
2.724066e+01	-7.598512e+00
2.739800e+01	-7.639899e+00
2.755625e+01	-7.681729e+00
2.771541e+01	-7.722870e+00
2.787550e+01	-7.764928e+00
2.803650e+01	-7.806466e+00
2.819844e+01	-7.847993e+00
2.836131e+01	-7.889894e+00
2.852513e+01	-7.932211e+00
2.868989e+01	-7.973788e+00
2.885560e+01	-8.015902e+00
2.902227e+01	-8.057718e+00
2.918990e+01	-8.100594e+00
2.935850e+01	-8.142888e+00
2.952807e+01	-8.185190e+00
2.969863e+01	-8.227380e+00
2.987016e+01	-8.270329e+00
3.004269e+01	-8.312395e+00
3.021622e+01	-8.355426e+00
3.039075e+01	-8.398312e+00
3.056628e+01	-8.441054e+00
3.074283e+01	-8.483848e+00
3.092040e+01	-8.527250e+00
3.109900e+01	-8.570132e+00
3.127862e+01	-8.613053e+00
3.145929e+01	-8.656132e+00
3.164099e+01	-8.699931e+00
3.182375e+01	-8.742867e+00
3.200756e+01	-8.786058e+00
3.219244e+01	-8.829365e+00
3.237838e+01	-8.873093e+00
3.256540e+01	-8.916560e+00
3.275349e+01	-8.960387e+00
3.294268e+01	-9.004165e+00
3.313295e+01	-9.047506e+00
3.332433e+01	-9.091538e+00
3.351681e+01	-9.135294e+00
3.371040e+01	-9.179695e+00
3.390511e+01	-9.223314e+00
3.410094e+01	-9.267267e+00
3.429791e+01	-9.311779e+00
3.449601e+01	-9.356047e+00
3.469526e+01	-9.400236e+00
3.489566e+01	-9.444542e+00
3.509721e+01	-9.488353e+00
3.529993e+01	-9.532958e+00
3.550382e+01	-9.577733e+00
3.570889e+01	-9.622468e+00
3.591515e+01	-9.666651e+00
3.612259e+01	-9.711654e+00
3.633123e+01	-9.756174e+00
3.654108e+01	-9.800983e+00
3.675214e+01	-9.845831e+00
3.696442e+01	-9.890699e+00
3.717792e+01	-9.935257e+00
3.739266e+01	-9.980559e+00
3.760864e+01	-1.002579e+01
3.782587e+01	-1.007064e+01
3.804435e+01	-1.011503e+01
3.826409e+01	-1.016079e+01
3.848510e+01	-1.020598e+01
3.870739e+01	-1.025179e+01
3.893096e+01	-1.029642e+01
3.915583e+01	-1.034223e+01
3.938199e+01	-1.038791e+01
3.960946e+01	-1.043338e+01
3.983824e+01	-1.047877e+01
4.006834e+01	-1.052367e+01
4.029978e+01	-1.056974e+01
4.053255e+01	-1.061592e+01
4.076666e+01	-1.066109e+01
4.100213e+01	-1.070713e+01
4.123896e+01	-1.075242e+01
4.147715e+01	-1.079922e+01
4.171672e+01	-1.084454e+01
4.195767e+01	-1.089092e+01
4.220002e+01	-1.093638e+01
4.244377e+01	-1.098263e+01
4.268892e+01	-1.102819e+01
4.293549e+01	-1.107446e+01
4.318348e+01	-1.112034e+01
4.343291e+01	-1.116670e+01
4.368377e+01	-1.121341e+01
4.393609e+01	-1.125972e+01
4.418986e+01	-1.130555e+01
4.444510e+01	-1.135192e+01
4.470182e+01	-1.139831e+01
4.496001e+01	-1.144457e+01
4.521970e+01	-1.149136e+01
4.548089e+01	-1.153749e+01
4.574358e+01	-1.158438e+01
4.600779e+01	-1.162987e+01
4.627353e+01	-1.167744e+01
4.654081e+01	-1.172437e+01
4.680963e+01	-1.177089e+01
4.708000e+01	-1.181660e+01
4.735193e+01	-1.186369e+01
4.762543e+01	-1.191092e+01
4.790051e+01	-1.195756e+01
4.817719e+01	-1.200464e+01
4.845545e+01	-1.205183e+01
4.873533e+01	-1.209858e+01
4.901682e+01	-1.214581e+01
4.929994e+01	-1.219228e+01
4.958470e+01	-1.223978e+01
4.987110e+01	-1.228611e+01
5.015915e+01	-1.233351e+01
5.044887e+01	-1.238087e+01
5.074026e+01	-1.242813e+01
5.103333e+01	-1.247479e+01
5.132810e+01	-1.252256e+01
5.162457e+01	-1.256937e+01
5.192275e+01	-1.261640e+01
5.222265e+01	-1.266433e+01
5.252429e+01	-1.271119e+01
5.282767e+01	-1.275907e+01
5.313280e+01	-1.280673e+01
5.343969e+01	-1.285272e+01
5.374836e+01	-1.290106e+01
5.405880e+01	-1.294830e+01
5.437105e+01	-1.299596e+01
5.468509e+01	-1.304412e+01
5.500095e+01	-1.309114e+01
5.531863e+01	-1.313869e+01
5.563815e+01	-1.318624e+01
5.595951e+01	-1.323353e+01
5.628273e+01	-1.328177e+01
5.660782e+01	-1.332952e+01
5.693479e+01	-1.337687e+01
5.726364e+01	-1.342506e+01
5.759439e+01	-1.347226e+01
5.792705e+01	-1.352018e+01
5.826164e+01	-1.356746e+01
5.859815e+01	-1.361552e+01
5.893662e+01	-1.366374e+01
5.927703e+01	-1.371180e+01
5.961941e+01	-1.375888e+01
5.996377e+01	-1.380695e+01
6.031012e+01	-1.385523e+01
6.065847e+01	-1.390309e+01
6.100883e+01	-1.395087e+01
6.136121e+01	-1.399837e+01
6.171563e+01	-1.404727e+01
6.207210e+01	-1.409578e+01
6.243063e+01	-1.414340e+01
6.279122e+01	-1.419223e+01
6.315390e+01	-1.423969e+01
6.351868e+01	-1.428778e+01
6.388556e+01	-1.433559e+01
6.425456e+01	-1.438514e+01
6.462569e+01	-1.443274e+01
6.499897e+01	-1.448012e+01
6.537440e+01	-1.452934e+01
6.575200e+01	-1.457745e+01
6.613178e+01	-1.462535e+01
6.651375e+01	-1.467386e+01
6.689793e+01	-1.472251e+01
6.728433e+01	-1.477106e+01
6.767297e+01	-1.481970e+01
6.806384e+01	-1.486718e+01
6.845698e+01	-1.491588e+01
6.885238e+01	-1.496422e+01
6.925007e+01	-1.501314e+01
6.965005e+01	-1.506150e+01
7.005235e+01	-1.510983e+01
7.045697e+01	-1.515789e+01
7.086393e+01	-1.520678e+01
7.127323e+01	-1.525513e+01
7.168490e+01	-1.530297e+01
7.209895e+01	-1.535232e+01
7.251539e+01	-1.540059e+01
7.293424e+01	-1.544944e+01
7.335551e+01	-1.549802e+01
7.377920e+01	-1.554623e+01
7.420535e+01	-1.559483e+01
7.463396e+01	-1.564428e+01
7.506504e+01	-1.569217e+01
7.549861e+01	-1.574207e+01
7.593469e+01	-1.578988e+01
7.637328e+01	-1.583838e+01
7.681441e+01	-1.588805e+01
7.725809e+01	-1.593626e+01
7.770433e+01	-1.598503e+01
7.815315e+01	-1.603446e+01
7.860456e+01	-1.608289e+01
7.905857e+01	-1.613152e+01
7.951521e+01	-1.618103e+01
7.997449e+01	-1.622856e+01
8.043642e+01	-1.627787e+01
8.090102e+01	-1.632705e+01
8.136830e+01	-1.637546e+01
8.183828e+01	-1.642431e+01
8.231097e+01	-1.647303e+01
8.278640e+01	-1.652314e+01
8.326457e+01	-1.657062e+01
8.374550e+01	-1.661983e+01
8.422921e+01	-1.666906e+01
8.471572e+01	-1.671755e+01
8.520503e+01	-1.676748e+01
8.569717e+01	-1.681650e+01
8.619215e+01	-1.686504e+01
8.669000e+01	-1.691434e+01
8.719071e+01	-1.696433e+01
8.769432e+01	-1.701204e+01
8.820084e+01	-1.706141e+01
8.871029e+01	-1.711028e+01
8.922267e+01	-1.715942e+01
8.973802e+01	-1.720765e+01
9.025634e+01	-1.725698e+01
9.077766e+01	-1.730533e+01
9.130199e+01	-1.735512e+01
9.182935e+01	-1.740370e+01
9.235975e+01	-1.745488e+01
9.289321e+01	-1.750264e+01
9.342976e+01	-1.755165e+01
9.396941e+01	-1.760172e+01
9.451217e+01	-1.765116e+01
9.505807e+01	-1.769941e+01
9.560712e+01	-1.774840e+01
9.615934e+01	-1.779783e+01
9.671476e+01	-1.784785e+01
9.727338e+01	-1.789740e+01
9.783522e+01	-1.794484e+01
9.840032e+01	-1.799385e+01
9.896867e+01	-1.804485e+01
9.954031e+01	-1.809300e+01
1.001153e+02	-1.814281e+01
1.006935e+02	-1.819041e+01
1.012751e+02	-1.824145e+01
1.018601e+02	-1.829079e+01
1.024484e+02	-1.833928e+01
1.030402e+02	-1.838904e+01
1.036353e+02	-1.843920e+01
1.042339e+02	-1.848692e+01
1.048360e+02	-1.853783e+01
1.054415e+02	-1.858625e+01
1.060505e+02	-1.863648e+01
1.066631e+02	-1.868569e+01
1.072791e+02	-1.873517e+01
1.078988e+02	-1.878333e+01
1.085220e+02	-1.883294e+01
1.091488e+02	-1.888341e+01
1.097793e+02	-1.893208e+01
1.104133e+02	-1.898133e+01
1.110511e+02	-1.903072e+01
1.116925e+02	-1.908031e+01
1.123376e+02	-1.913001e+01
1.129865e+02	-1.918021e+01
1.136391e+02	-1.922750e+01
1.142955e+02	-1.927789e+01
1.149556e+02	-1.932706e+01
1.156196e+02	-1.937519e+01
1.162874e+02	-1.942520e+01
1.169591e+02	-1.947605e+01
1.176347e+02	-1.952580e+01
1.183141e+02	-1.957580e+01
1.189975e+02	-1.962526e+01
1.196848e+02	-1.967468e+01
1.203761e+02	-1.972518e+01
1.210714e+02	-1.977214e+01
1.217707e+02	-1.982151e+01
1.224740e+02	-1.987189e+01
1.231814e+02	-1.992085e+01
1.238929e+02	-1.997132e+01
1.246085e+02	-2.002130e+01
1.253283e+02	-2.007149e+01
1.260522e+02	-2.011781e+01
1.267802e+02	-2.016851e+01
1.275125e+02	-2.021782e+01
1.282490e+02	-2.026820e+01
1.289898e+02	-2.031666e+01
1.297348e+02	-2.036780e+01
1.304842e+02	-2.041658e+01
1.312378e+02	-2.046510e+01
1.319959e+02	-2.051670e+01
1.327583e+02	-2.056453e+01
1.335251e+02	-2.061528e+01
1.342963e+02	-2.066484e+01
1.350720e+02	-2.071457e+01
1.358522e+02	-2.076228e+01
1.366368e+02	-2.081325e+01
1.374260e+02	-2.086139e+01
1.382198e+02	-2.091436e+01
1.390182e+02	-2.096303e+01
1.398211e+02	-2.101353e+01
1.406287e+02	-2.106153e+01
1.414410e+02	-2.111295e+01
1.422579e+02	-2.116162e+01
1.430796e+02	-2.121197e+01
1.439060e+02	-2.125953e+01
1.447372e+02	-2.130990e+01
1.455732e+02	-2.136039e+01
1.464141e+02	-2.141181e+01
1.472597e+02	-2.145929e+01
1.481103e+02	-2.150869e+01
1.489658e+02	-2.155875e+01
1.498262e+02	-2.160804e+01
1.506916e+02	-2.165861e+01
1.515620e+02	-2.170736e+01
1.524374e+02	-2.175709e+01
1.533179e+02	-2.180613e+01
1.542034e+02	-2.185688e+01
1.550941e+02	-2.190658e+01
1.559899e+02	-2.195529e+01
1.568909e+02	-2.200611e+01
1.577971e+02	-2.205658e+01
1.587085e+02	-2.210424e+01
1.596252e+02	-2.215681e+01
1.605472e+02	-2.220435e+01
1.614745e+02	-2.225633e+01
1.624072e+02	-2.230586e+01
1.633453e+02	-2.235304e+01
1.642887e+02	-2.240332e+01
1.652377e+02	-2.245306e+01
1.661921e+02	-2.250440e+01
1.671520e+02	-2.255328e+01
1.681175e+02	-2.260124e+01
1.690885e+02	-2.265404e+01
1.700651e+02	-2.270211e+01
1.710474e+02	-2.275325e+01
1.720354e+02	-2.280091e+01
1.730291e+02	-2.285013e+01
1.740285e+02	-2.290392e+01
1.750337e+02	-2.294940e+01
1.760446e+02	-2.300278e+01
1.770615e+02	-2.304938e+01
1.780842e+02	-2.310173e+01
1.791128e+02	-2.315123e+01
1.801473e+02	-2.320027e+01
1.811878e+02	-2.325052e+01
1.822344e+02	-2.330135e+01
1.832870e+02	-2.335033e+01
1.843456e+02	-2.340102e+01
1.854104e+02	-2.344923e+01
1.864813e+02	-2.349867e+01
1.875584e+02	-2.354891e+01
1.886418e+02	-2.359832e+01
1.897313e+02	-2.364764e+01
1.908272e+02	-2.369923e+01
1.919294e+02	-2.374910e+01
1.930380e+02	-2.379996e+01
1.941530e+02	-2.384776e+01
1.952744e+02	-2.389708e+01
1.964023e+02	-2.394629e+01
1.975367e+02	-2.399652e+01
1.986777e+02	-2.404721e+01
1.998252e+02	-2.409728e+01
2.009794e+02	-2.414661e+01
2.021403e+02	-2.419865e+01
2.033078e+02	-2.424593e+01
2.044821e+02	-2.429705e+01
2.056632e+02	-2.434845e+01
2.068511e+02	-2.439836e+01
2.080459e+02	-2.444686e+01
2.092475e+02	-2.449660e+01
2.104561e+02	-2.454606e+01
2.116717e+02	-2.459565e+01
2.128943e+02	-2.464514e+01
2.141240e+02	-2.469752e+01
2.153608e+02	-2.474539e+01
2.166047e+02	-2.479592e+01
2.178558e+02	-2.484632e+01
2.191141e+02	-2.489578e+01
2.203797e+02	-2.494797e+01
2.216526e+02	-2.499397e+01
2.229329e+02	-2.504860e+01
2.242205e+02	-2.509644e+01
2.255156e+02	-2.514360e+01
2.268182e+02	-2.519766e+01
2.281283e+02	-2.524097e+01
2.294459e+02	-2.529408e+01
2.307712e+02	-2.534468e+01
2.321041e+02	-2.539637e+01
2.334447e+02	-2.544676e+01
2.347931e+02	-2.549580e+01
2.361493e+02	-2.554349e+01
2.375133e+02	-2.559647e+01
2.388851e+02	-2.564600e+01
2.402649e+02	-2.569097e+01
2.416527e+02	-2.574466e+01
2.430484e+02	-2.579232e+01
2.444523e+02	-2.584498e+01
2.458642e+02	-2.589469e+01
2.472843e+02	-2.594712e+01
2.487126e+02	-2.599055e+01
2.501492e+02	-2.604384e+01
2.515940e+02	-2.609338e+01
2.530472e+02	-2.614107e+01
2.545088e+02	-2.619059e+01
2.559789e+02	-2.624279e+01
2.574574e+02	-2.629405e+01
2.589444e+02	-2.634077e+01
2.604401e+02	-2.639680e+01
2.619444e+02	-2.644322e+01
2.634574e+02	-2.649405e+01
2.649791e+02	-2.654196e+01
2.665096e+02	-2.659364e+01
2.680489e+02	-2.664229e+01
2.695972e+02	-2.669460e+01
2.711544e+02	-2.674536e+01
2.727205e+02	-2.679331e+01
2.742958e+02	-2.684232e+01
2.758801e+02	-2.689394e+01
2.774736e+02	-2.694092e+01
2.790762e+02	-2.699673e+01
2.806882e+02	-2.704491e+01
2.823094e+02	-2.709110e+01
2.839400e+02	-2.714487e+01
2.855800e+02	-2.719244e+01
2.872295e+02	-2.724481e+01
2.888886e+02	-2.729472e+01
2.905572e+02	-2.734254e+01
2.922354e+02	-2.739816e+01
2.939234e+02	-2.744800e+01
2.956211e+02	-2.749308e+01
2.973286e+02	-2.754353e+01
2.990459e+02	-2.759270e+01
3.007732e+02	-2.764623e+01
3.025104e+02	-2.769208e+01
3.042577e+02	-2.774272e+01
3.060151e+02	-2.779097e+01
3.077826e+02	-2.784171e+01
3.095604e+02	-2.789164e+01
3.113484e+02	-2.794408e+01
3.131467e+02	-2.799550e+01
3.149554e+02	-2.804406e+01
3.167746e+02	-2.809242e+01
3.186043e+02	-2.814229e+01
3.204445e+02	-2.819287e+01
3.222954e+02	-2.824174e+01
3.241570e+02	-2.828927e+01
3.260293e+02	-2.834346e+01
3.279124e+02	-2.839191e+01
3.298064e+02	-2.844033e+01
3.317114e+02	-2.849245e+01
3.336273e+02	-2.854264e+01
3.355544e+02	-2.859490e+01
3.374925e+02	-2.864362e+01
3.394418e+02	-2.869439e+01
3.414024e+02	-2.874457e+01
3.433744e+02	-2.879745e+01
3.453577e+02	-2.884536e+01
3.473525e+02	-2.889730e+01
3.493588e+02	-2.893997e+01
3.513766e+02	-2.899242e+01
3.534062e+02	-2.904683e+01
3.554474e+02	-2.909714e+01
3.575005e+02	-2.914268e+01
3.595654e+02	-2.919365e+01
3.616422e+02	-2.924848e+01
3.637311e+02	-2.929492e+01
3.658320e+02	-2.934798e+01
3.679450e+02	-2.939232e+01
3.700702e+02	-2.944324e+01
3.722077e+02	-2.949053e+01
3.743576e+02	-2.954541e+01
3.765199e+02	-2.958945e+01
3.786946e+02	-2.964590e+01
3.808820e+02	-2.969780e+01
3.830819e+02	-2.974266e+01
3.852946e+02	-2.979629e+01
3.875200e+02	-2.984001e+01
3.897583e+02	-2.989139e+01
3.920096e+02	-2.994581e+01
3.942738e+02	-2.999433e+01
3.965511e+02	-3.004420e+01
3.988416e+02	-3.009325e+01
4.011452e+02	-3.014462e+01
4.034622e+02	-3.019898e+01
4.057926e+02	-3.024626e+01
4.081365e+02	-3.029821e+01
4.104938e+02	-3.034447e+01
4.128648e+02	-3.039307e+01
4.152495e+02	-3.044577e+01
4.176480e+02	-3.049666e+01
4.200603e+02	-3.054242e+01
4.224866e+02	-3.059664e+01
4.249268e+02	-3.064736e+01
4.273812e+02	-3.070001e+01
4.298497e+02	-3.074817e+01
4.323325e+02	-3.080516e+01
4.348297e+02	-3.084850e+01
4.373412e+02	-3.089548e+01
4.398673e+02	-3.094667e+01
4.424079e+02	-3.099596e+01
4.449633e+02	-3.104788e+01
4.475334e+02	-3.109857e+01
4.501183e+02	-3.114571e+01
4.527182e+02	-3.120204e+01
4.553330e+02	-3.124728e+01
4.579630e+02	-3.129882e+01
4.606082e+02	-3.135120e+01
4.632687e+02	-3.139693e+01
4.659445e+02	-3.144709e+01
4.686358e+02	-3.149895e+01
4.713426e+02	-3.154662e+01
4.740650e+02	-3.159977e+01
4.768032e+02	-3.165005e+01
4.795572e+02	-3.170798e+01
4.823271e+02	-3.175276e+01
4.851130e+02	-3.180024e+01
4.879150e+02	-3.184898e+01
4.907332e+02	-3.189980e+01
4.935676e+02	-3.194829e+01
4.964185e+02	-3.200454e+01
4.992858e+02	-3.205911e+01
5.021696e+02	-3.209934e+01
5.050701e+02	-3.215128e+01
5.079874e+02	-3.220363e+01
5.109215e+02	-3.225193e+01
5.138726e+02	-3.230018e+01
5.168407e+02	-3.235382e+01
5.198259e+02	-3.240210e+01
5.228284e+02	-3.245149e+01
5.258482e+02	-3.250627e+01
5.288855e+02	-3.255034e+01
5.319403e+02	-3.260777e+01
5.350128e+02	-3.265169e+01
5.381030e+02	-3.270569e+01
5.412111e+02	-3.274781e+01
5.443371e+02	-3.280018e+01
5.474812e+02	-3.285099e+01
5.506434e+02	-3.290625e+01
5.538239e+02	-3.295687e+01
5.570228e+02	-3.301066e+01
5.602401e+02	-3.305533e+01
5.634760e+02	-3.311518e+01
5.667306e+02	-3.316594e+01
5.700040e+02	-3.321128e+01
5.732964e+02	-3.325535e+01
5.766077e+02	-3.330320e+01
5.799382e+02	-3.335662e+01
5.832879e+02	-3.341066e+01
5.866569e+02	-3.346619e+01
5.900454e+02	-3.350596e+01
5.934535e+02	-3.356228e+01
5.968813e+02	-3.360452e+01
6.003288e+02	-3.364812e+01
6.037963e+02	-3.371073e+01
6.072838e+02	-3.376009e+01
6.107914e+02	-3.381066e+01
6.143194e+02	-3.386361e+01
6.178676e+02	-3.390287e+01
6.214364e+02	-3.395706e+01
6.250258e+02	-3.401406e+01
6.286359e+02	-3.406307e+01
6.322669e+02	-3.410840e+01
6.359189e+02	-3.415945e+01
6.395919e+02	-3.421220e+01
6.432862e+02	-3.426668e+01
6.470017e+02	-3.431460e+01
6.507388e+02	-3.436493e+01
6.544974e+02	-3.441228e+01
6.582778e+02	-3.446669e+01
6.620800e+02	-3.451272e+01
6.659041e+02	-3.456721e+01
6.697504e+02	-3.461055e+01
6.736188e+02	-3.466550e+01
6.775096e+02	-3.471840e+01
6.814229e+02	-3.475974e+01
6.853587e+02	-3.482235e+01
6.893173e+02	-3.486442e+01
6.932988e+02	-3.491823e+01
6.973033e+02	-3.497008e+01
7.013309e+02	-3.501913e+01
