Frequency(Hz)	Magnitude(dB)
1.000000e+01	-1.688221e-05
1.005776e+01	-1.707779e-05
1.011585e+01	-1.727565e-05
1.017428e+01	-1.747579e-05
1.023305e+01	-1.767825e-05
1.029215e+01	-1.788306e-05
1.035160e+01	-1.809024e-05
1.041139e+01	-1.829982e-05
1.047153e+01	-1.851182e-05
1.053201e+01	-1.872629e-05
1.059284e+01	-1.894324e-05
1.065403e+01	-1.916270e-05
1.071556e+01	-1.938470e-05
1.077746e+01	-1.960928e-05
1.083971e+01	-1.983646e-05
1.090232e+01	-2.006627e-05
1.096529e+01	-2.029874e-05
1.102862e+01	-2.053391e-05
1.109232e+01	-2.077180e-05
1.115639e+01	-2.101245e-05
1.122083e+01	-2.125588e-05
1.128564e+01	-2.150214e-05
1.135083e+01	-2.175124e-05
1.141639e+01	-2.200324e-05
1.148233e+01	-2.225815e-05
1.154865e+01	-2.251602e-05
1.161536e+01	-2.277687e-05
1.168245e+01	-2.304075e-05
1.174992e+01	-2.330768e-05
1.181779e+01	-2.357770e-05
1.188605e+01	-2.385086e-05
1.195470e+01	-2.412718e-05
1.202375e+01	-2.440669e-05
1.209320e+01	-2.468945e-05
1.216305e+01	-2.497549e-05
1.223330e+01	-2.526483e-05
1.230396e+01	-2.555753e-05
1.237503e+01	-2.585362e-05
1.244651e+01	-2.615314e-05
1.251840e+01	-2.645613e-05
1.259070e+01	-2.676263e-05
1.266343e+01	-2.707269e-05
1.273657e+01	-2.738633e-05
1.281014e+01	-2.770361e-05
1.288413e+01	-2.802456e-05
1.295855e+01	-2.834923e-05
1.303339e+01	-2.867766e-05
1.310867e+01	-2.900990e-05
1.318439e+01	-2.934599e-05
1.326054e+01	-2.968597e-05
1.333713e+01	-3.002989e-05
1.341417e+01	-3.037779e-05
1.349165e+01	-3.072973e-05
1.356958e+01	-3.108574e-05
1.364795e+01	-3.144587e-05
1.372678e+01	-3.181018e-05
1.380607e+01	-3.217871e-05
1.388581e+01	-3.255151e-05
1.396602e+01	-3.292862e-05
1.404668e+01	-3.331011e-05
1.412782e+01	-3.369601e-05
1.420942e+01	-3.408639e-05
1.429149e+01	-3.448129e-05
1.437404e+01	-3.488076e-05
1.445706e+01	-3.528487e-05
1.454057e+01	-3.569365e-05
1.462455e+01	-3.610717e-05
1.470902e+01	-3.652548e-05
1.479398e+01	-3.694863e-05
1.487943e+01	-3.737669e-05
1.496537e+01	-3.780971e-05
1.505181e+01	-3.824774e-05
1.513875e+01	-3.869085e-05
1.522619e+01	-3.913909e-05
1.531414e+01	-3.959253e-05
1.540259e+01	-4.005122e-05
1.549156e+01	-4.051522e-05
1.558103e+01	-4.098460e-05
1.567103e+01	-4.145941e-05
1.576155e+01	-4.193973e-05
1.585258e+01	-4.242561e-05
1.594415e+01	-4.291712e-05
1.603624e+01	-4.341433e-05
1.612886e+01	-4.391729e-05
1.622202e+01	-4.442608e-05
1.631572e+01	-4.494077e-05
1.640996e+01	-4.546142e-05
1.650474e+01	-4.598810e-05
1.660008e+01	-4.652088e-05
1.669596e+01	-4.705983e-05
1.679239e+01	-4.760503e-05
1.688938e+01	-4.815655e-05
1.698694e+01	-4.871445e-05
1.708505e+01	-4.927882e-05
1.718373e+01	-4.984972e-05
1.728299e+01	-5.042724e-05
1.738281e+01	-5.101145e-05
1.748322e+01	-5.160243e-05
1.758420e+01	-5.220026e-05
1.768576e+01	-5.280501e-05
1.778792e+01	-5.341677e-05
1.789066e+01	-5.403561e-05
1.799399e+01	-5.466162e-05
1.809793e+01	-5.529489e-05
1.820246e+01	-5.593549e-05
1.830760e+01	-5.658352e-05
1.841334e+01	-5.723905e-05
1.851969e+01	-5.790217e-05
1.862666e+01	-5.857298e-05
1.873425e+01	-5.925156e-05
1.884246e+01	-5.993800e-05
1.895129e+01	-6.063240e-05
1.906075e+01	-6.133484e-05
1.917085e+01	-6.204541e-05
1.928158e+01	-6.276422e-05
1.939295e+01	-6.349136e-05
1.950496e+01	-6.422692e-05
1.961762e+01	-6.497100e-05
1.973093e+01	-6.572370e-05
1.984490e+01	-6.648512e-05
1.995952e+01	-6.725536e-05
2.007480e+01	-6.803453e-05
2.019076e+01	-6.882272e-05
2.030738e+01	-6.962005e-05
2.042467e+01	-7.042661e-05
2.054264e+01	-7.124251e-05
2.066130e+01	-7.206787e-05
2.078064e+01	-7.290279e-05
2.090066e+01	-7.374738e-05
2.102139e+01	-7.460176e-05
2.114280e+01	-7.546603e-05
2.126492e+01	-7.634032e-05
2.138775e+01	-7.722474e-05
2.151128e+01	-7.811940e-05
2.163553e+01	-7.902443e-05
2.176050e+01	-7.993994e-05
2.188619e+01	-8.086606e-05
2.201260e+01	-8.180290e-05
2.213974e+01	-8.275060e-05
2.226762e+01	-8.370928e-05
2.239624e+01	-8.467907e-05
2.252560e+01	-8.566009e-05
2.265571e+01	-8.665248e-05
2.278656e+01	-8.765636e-05
2.291818e+01	-8.867187e-05
2.305055e+01	-8.969915e-05
2.318369e+01	-9.073833e-05
2.331760e+01	-9.178955e-05
2.345228e+01	-9.285294e-05
2.358774e+01	-9.392866e-05
2.372398e+01	-9.501684e-05
2.386101e+01	-9.611762e-05
2.399883e+01	-9.723116e-05
2.413745e+01	-9.835759e-05
2.427686e+01	-9.949708e-05
2.441709e+01	-1.006498e-04
2.455812e+01	-1.018158e-04
2.469997e+01	-1.029954e-04
2.484263e+01	-1.041886e-04
2.498612e+01	-1.053956e-04
2.513044e+01	-1.066166e-04
2.527559e+01	-1.078518e-04
2.542158e+01	-1.091013e-04
2.556842e+01	-1.103652e-04
2.571610e+01	-1.116438e-04
2.586463e+01	-1.129372e-04
2.601403e+01	-1.142456e-04
2.616428e+01	-1.155692e-04
2.631541e+01	-1.169081e-04
2.646740e+01	-1.182625e-04
2.662028e+01	-1.196325e-04
2.677404e+01	-1.210185e-04
2.692868e+01	-1.224205e-04
2.708422e+01	-1.238388e-04
2.724066e+01	-1.252735e-04
2.739800e+01	-1.267248e-04
2.755625e+01	-1.281929e-04
2.771541e+01	-1.296780e-04
2.787550e+01	-1.311803e-04
2.803650e+01	-1.327001e-04
2.819844e+01	-1.342374e-04
2.836131e+01	-1.357926e-04
2.852513e+01	-1.373658e-04
2.868989e+01	-1.389571e-04
2.885560e+01	-1.405670e-04
2.902227e+01	-1.421955e-04
2.918990e+01	-1.438428e-04
2.935850e+01	-1.455092e-04
2.952807e+01	-1.471950e-04
2.969863e+01	-1.489002e-04
2.987016e+01	-1.506253e-04
3.004269e+01	-1.523703e-04
3.021622e+01	-1.541355e-04
3.039075e+01	-1.559212e-04
3.056628e+01	-1.577275e-04
3.074283e+01	-1.595548e-04
3.092040e+01	-1.614033e-04
3.109900e+01	-1.632731e-04
3.127862e+01	-1.651646e-04
3.145929e+01	-1.670781e-04
3.164099e+01	-1.690137e-04
3.182375e+01	-1.709717e-04
3.200756e+01	-1.729524e-04
3.219244e+01	-1.749561e-04
3.237838e+01	-1.769830e-04
3.256540e+01	-1.790333e-04
3.275349e+01	-1.811074e-04
3.294268e+01	-1.832056e-04
3.313295e+01	-1.853280e-04
3.332433e+01	-1.874751e-04
3.351681e+01	-1.896470e-04
3.371040e+01	-1.918440e-04
3.390511e+01	-1.940665e-04
3.410094e+01	-1.963148e-04
3.429791e+01	-1.985891e-04
3.449601e+01	-2.008898e-04
3.469526e+01	-2.032171e-04
3.489566e+01	-2.055713e-04
3.509721e+01	-2.079529e-04
3.529993e+01	-2.103620e-04
3.550382e+01	-2.127991e-04
3.570889e+01	-2.152643e-04
3.591515e+01	-2.177582e-04
3.612259e+01	-2.202809e-04
3.633123e+01	-2.228329e-04
3.654108e+01	-2.254144e-04
3.675214e+01	-2.280258e-04
3.696442e+01	-2.306675e-04
3.717792e+01	-2.333397e-04
3.739266e+01	-2.360430e-04
3.760864e+01	-2.387775e-04
3.782587e+01	-2.415437e-04
3.804435e+01	-2.443420e-04
3.826409e+01	-2.471727e-04
3.848510e+01	-2.500362e-04
3.870739e+01	-2.529328e-04
3.893096e+01	-2.558631e-04
3.915583e+01	-2.588272e-04
3.938199e+01	-2.618257e-04
3.960946e+01	-2.648589e-04
3.983824e+01	-2.679273e-04
4.006834e+01	-2.710312e-04
4.029978e+01	-2.741711e-04
4.053255e+01	-2.773473e-04
4.076666e+01	-2.805604e-04
4.100213e+01	-2.838107e-04
4.123896e+01	-2.870986e-04
4.147715e+01	-2.904246e-04
4.171672e+01	-2.937891e-04
4.195767e+01	-2.971926e-04
4.220002e+01	-3.006356e-04
4.244377e+01	-3.041184e-04
4.268892e+01	-3.076416e-04
4.293549e+01	-3.112055e-04
4.318348e+01	-3.148108e-04
4.343291e+01	-3.184578e-04
4.368377e+01	-3.221471e-04
4.393609e+01	-3.258792e-04
4.418986e+01	-3.296544e-04
4.444510e+01	-3.334734e-04
4.470182e+01	-3.373366e-04
4.496001e+01	-3.412446e-04
4.521970e+01	-3.451979e-04
4.548089e+01	-3.491969e-04
4.574358e+01	-3.532423e-04
4.600779e+01	-3.573346e-04
4.627353e+01	-3.614742e-04
4.654081e+01	-3.656618e-04
4.680963e+01	-3.698979e-04
4.708000e+01	-3.741831e-04
4.735193e+01	-3.785179e-04
4.762543e+01	-3.829030e-04
4.790051e+01	-3.873388e-04
4.817719e+01	-3.918260e-04
4.845545e+01	-3.963652e-04
4.873533e+01	-4.009570e-04
4.901682e+01	-4.056020e-04
4.929994e+01	-4.103008e-04
4.958470e+01	-4.150540e-04
4.987110e+01	-4.198623e-04
5.015915e+01	-4.247263e-04
5.044887e+01	-4.296466e-04
5.074026e+01	-4.346239e-04
5.103333e+01	-4.396589e-04
5.132810e+01	-4.447522e-04
5.162457e+01	-4.499046e-04
5.192275e+01	-4.551165e-04
5.222265e+01	-4.603889e-04
5.252429e+01	-4.657224e-04
5.282767e+01	-4.711176e-04
5.313280e+01	-4.765753e-04
5.343969e+01	-4.820963e-04
5.374836e+01	-4.876812e-04
5.405880e+01	-4.933308e-04
5.437105e+01	-4.990458e-04
5.468509e+01	-5.048271e-04
5.500095e+01	-5.106753e-04
5.531863e+01	-5.165913e-04
5.563815e+01	-5.225757e-04
5.595951e+01	-5.286296e-04
5.628273e+01	-5.347535e-04
5.660782e+01	-5.409484e-04
5.693479e+01	-5.472150e-04
5.726364e+01	-5.535543e-04
5.759439e+01	-5.599669e-04
5.792705e+01	-5.664539e-04
5.826164e+01	-5.730160e-04
5.859815e+01	-5.796541e-04
5.893662e+01	-5.863691e-04
5.927703e+01	-5.931619e-04
5.961941e+01	-6.000333e-04
5.996377e+01	-6.069844e-04
6.031012e+01	-6.140160e-04
6.065847e+01	-6.211290e-04
6.100883e+01	-6.283244e-04
6.136121e+01	-6.356032e-04
6.171563e+01	-6.429663e-04
6.207210e+01	-6.504147e-04
6.243063e+01	-6.579494e-04
6.279122e+01	-6.655713e-04
6.315390e+01	-6.732815e-04
6.351868e+01	-6.810811e-04
6.388556e+01	-6.889710e-04
6.425456e+01	-6.969522e-04
6.462569e+01	-7.050260e-04
6.499897e+01	-7.131932e-04
6.537440e+01	-7.214551e-04
6.575200e+01	-7.298126e-04
6.613178e+01	-7.382670e-04
6.651375e+01	-7.468193e-04
6.689793e+01	-7.554706e-04
6.728433e+01	-7.642222e-04
6.767297e+01	-7.730751e-04
6.806384e+01	-7.820306e-04
6.845698e+01	-7.910898e-04
6.885238e+01	-8.002540e-04
6.925007e+01	-8.095243e-04
6.965005e+01	-8.189019e-04
7.005235e+01	-8.283882e-04
7.045697e+01	-8.379844e-04
7.086393e+01	-8.476917e-04
7.127323e+01	-8.575115e-04
7.168490e+01	-8.674450e-04
7.209895e+01	-8.774936e-04
7.251539e+01	-8.876586e-04
7.293424e+01	-8.979413e-04
7.335551e+01	-9.083431e-04
7.377920e+01	-9.188654e-04
7.420535e+01	-9.295095e-04
7.463396e+01	-9.402770e-04
7.506504e+01	-9.511692e-04
7.549861e+01	-9.621875e-04
7.593469e+01	-9.733335e-04
7.637328e+01	-9.846085e-04
7.681441e+01	-9.960142e-04
7.725809e+01	-1.007552e-03
7.770433e+01	-1.019223e-03
7.815315e+01	-1.031030e-03
7.860456e+01	-1.042973e-03
7.905857e+01	-1.055055e-03
7.951521e+01	-1.067276e-03
7.997449e+01	-1.079640e-03
8.043642e+01	-1.092146e-03
8.090102e+01	-1.104797e-03
8.136830e+01	-1.117595e-03
8.183828e+01	-1.130541e-03
8.231097e+01	-1.143637e-03
8.278640e+01	-1.156884e-03
8.326457e+01	-1.170285e-03
8.374550e+01	-1.183842e-03
8.422921e+01	-1.197555e-03
8.471572e+01	-1.211427e-03
8.520503e+01	-1.225460e-03
8.569717e+01	-1.239655e-03
8.619215e+01	-1.254015e-03
8.669000e+01	-1.268540e-03
8.719071e+01	-1.283235e-03
8.769432e+01	-1.298099e-03
8.820084e+01	-1.313136e-03
8.871029e+01	-1.328346e-03
8.922267e+01	-1.343733e-03
8.973802e+01	-1.359298e-03
9.025634e+01	-1.375044e-03
9.077766e+01	-1.390971e-03
9.130199e+01	-1.407084e-03
9.182935e+01	-1.423382e-03
9.235975e+01	-1.439870e-03
9.289321e+01	-1.456548e-03
9.342976e+01	-1.473420e-03
9.396941e+01	-1.490487e-03
9.451217e+01	-1.507752e-03
9.505807e+01	-1.525216e-03
9.560712e+01	-1.542883e-03
9.615934e+01	-1.560755e-03
9.671476e+01	-1.578833e-03
9.727338e+01	-1.597121e-03
9.783522e+01	-1.615621e-03
9.840032e+01	-1.634335e-03
9.896867e+01	-1.653265e-03
9.954031e+01	-1.672415e-03
1.001153e+02	-1.691787e-03
1.006935e+02	-1.711383e-03
1.012751e+02	-1.731205e-03
1.018601e+02	-1.751258e-03
1.024484e+02	-1.771542e-03
1.030402e+02	-1.792062e-03
1.036353e+02	-1.812819e-03
1.042339e+02	-1.833817e-03
1.048360e+02	-1.855058e-03
1.054415e+02	-1.876544e-03
1.060505e+02	-1.898280e-03
1.066631e+02	-1.920267e-03
1.072791e+02	-1.942509e-03
1.078988e+02	-1.965008e-03
1.085220e+02	-1.987768e-03
1.091488e+02	-2.010792e-03
1.097793e+02	-2.034082e-03
1.104133e+02	-2.057641e-03
1.110511e+02	-2.081474e-03
1.116925e+02	-2.105583e-03
1.123376e+02	-2.129970e-03
1.129865e+02	-2.154641e-03
1.136391e+02	-2.179596e-03
1.142955e+02	-2.204841e-03
1.149556e+02	-2.230378e-03
1.156196e+02	-2.256211e-03
1.162874e+02	-2.282343e-03
1.169591e+02	-2.308778e-03
1.176347e+02	-2.335518e-03
1.183141e+02	-2.362568e-03
1.189975e+02	-2.389932e-03
1.196848e+02	-2.417612e-03
1.203761e+02	-2.445613e-03
1.210714e+02	-2.473938e-03
1.217707e+02	-2.502591e-03
1.224740e+02	-2.531576e-03
1.231814e+02	-2.560896e-03
1.238929e+02	-2.590556e-03
1.246085e+02	-2.620559e-03
1.253283e+02	-2.650909e-03
1.260522e+02	-2.681611e-03
1.267802e+02	-2.712669e-03
1.275125e+02	-2.744086e-03
1.282490e+02	-2.775867e-03
1.289898e+02	-2.808016e-03
1.297348e+02	-2.840536e-03
1.304842e+02	-2.873434e-03
1.312378e+02	-2.906712e-03
1.319959e+02	-2.940376e-03
1.327583e+02	-2.974429e-03
1.335251e+02	-3.008877e-03
1.342963e+02	-3.043723e-03
1.350720e+02	-3.078973e-03
1.358522e+02	-3.114631e-03
1.366368e+02	-3.150702e-03
1.374260e+02	-3.187190e-03
1.382198e+02	-3.224101e-03
1.390182e+02	-3.261439e-03
1.398211e+02	-3.299209e-03
1.406287e+02	-3.337416e-03
1.414410e+02	-3.376066e-03
1.422579e+02	-3.415163e-03
1.430796e+02	-3.454713e-03
1.439060e+02	-3.494721e-03
1.447372e+02	-3.535192e-03
1.455732e+02	-3.576131e-03
1.464141e+02	-3.617544e-03
1.472597e+02	-3.659436e-03
1.481103e+02	-3.701814e-03
1.489658e+02	-3.744682e-03
1.498262e+02	-3.788046e-03
1.506916e+02	-3.831912e-03
1.515620e+02	-3.876286e-03
1.524374e+02	-3.921173e-03
1.533179e+02	-3.966581e-03
1.542034e+02	-4.012513e-03
1.550941e+02	-4.058977e-03
1.559899e+02	-4.105979e-03
1.568909e+02	-4.153525e-03
1.577971e+02	-4.201622e-03
1.587085e+02	-4.250275e-03
1.596252e+02	-4.299491e-03
1.605472e+02	-4.349277e-03
1.614745e+02	-4.399639e-03
1.624072e+02	-4.450583e-03
1.633453e+02	-4.502118e-03
1.642887e+02	-4.554249e-03
1.652377e+02	-4.606983e-03
1.661921e+02	-4.660327e-03
1.671520e+02	-4.714289e-03
1.681175e+02	-4.768875e-03
1.690885e+02	-4.824093e-03
1.700651e+02	-4.879950e-03
1.710474e+02	-4.936453e-03
1.720354e+02	-4.993610e-03
1.730291e+02	-5.051429e-03
1.740285e+02	-5.109916e-03
1.750337e+02	-5.169081e-03
1.760446e+02	-5.228930e-03
1.770615e+02	-5.289471e-03
1.780842e+02	-5.350713e-03
1.791128e+02	-5.412664e-03
1.801473e+02	-5.475332e-03
1.811878e+02	-5.538724e-03
1.822344e+02	-5.602850e-03
1.832870e+02	-5.667718e-03
1.843456e+02	-5.733337e-03
1.854104e+02	-5.799715e-03
1.864813e+02	-5.866860e-03
1.875584e+02	-5.934783e-03
1.886418e+02	-6.003491e-03
1.897313e+02	-6.072994e-03
1.908272e+02	-6.143302e-03
1.919294e+02	-6.214422e-03
1.930380e+02	-6.286366e-03
1.941530e+02	-6.359142e-03
1.952744e+02	-6.432759e-03
1.964023e+02	-6.507228e-03
1.975367e+02	-6.582559e-03
1.986777e+02	-6.658761e-03
1.998252e+02	-6.735844e-03
2.009794e+02	-6.813820e-03
2.021403e+02	-6.892697e-03
2.033078e+02	-6.972486e-03
2.044821e+02	-7.053198e-03
2.056632e+02	-7.134844e-03
2.068511e+02	-7.217434e-03
2.080459e+02	-7.300980e-03
2.092475e+02	-7.385491e-03
2.104561e+02	-7.470980e-03
2.116717e+02	-7.557458e-03
2.128943e+02	-7.644936e-03
2.141240e+02	-7.733425e-03
2.153608e+02	-7.822938e-03
2.166047e+02	-7.913486e-03
2.178558e+02	-8.005081e-03
2.191141e+02	-8.097735e-03
2.203797e+02	-8.191461e-03
2.216526e+02	-8.286270e-03
2.229329e+02	-8.382176e-03
2.242205e+02	-8.479190e-03
2.255156e+02	-8.577327e-03
2.268182e+02	-8.676598e-03
2.281283e+02	-8.777016e-03
2.294459e+02	-8.878596e-03
2.307712e+02	-8.981350e-03
2.321041e+02	-9.085292e-03
2.334447e+02	-9.190436e-03
2.347931e+02	-9.296795e-03
2.361493e+02	-9.404384e-03
2.375133e+02	-9.513217e-03
2.388851e+02	-9.623307e-03
2.402649e+02	-9.734670e-03
2.416527e+02	-9.847321e-03
2.430484e+02	-9.961273e-03
2.444523e+02	-1.007654e-02
2.458642e+02	-1.019314e-02
2.472843e+02	-1.031109e-02
2.487126e+02	-1.043041e-02
2.501492e+02	-1.055110e-02
2.515940e+02	-1.067319e-02
2.530472e+02	-1.079668e-02
2.545088e+02	-1.092161e-02
2.559789e+02	-1.104798e-02
2.574574e+02	-1.117580e-02
2.589444e+02	-1.130511e-02
2.604401e+02	-1.143591e-02
2.619444e+02	-1.156822e-02
2.634574e+02	-1.170206e-02
2.649791e+02	-1.183745e-02
2.665096e+02	-1.197440e-02
2.680489e+02	-1.211293e-02
2.695972e+02	-1.225306e-02
2.711544e+02	-1.239481e-02
2.727205e+02	-1.253820e-02
2.742958e+02	-1.268325e-02
2.758801e+02	-1.282997e-02
2.774736e+02	-1.297838e-02
2.790762e+02	-1.312851e-02
2.806882e+02	-1.328038e-02
2.823094e+02	-1.343399e-02
2.839400e+02	-1.358939e-02
2.855800e+02	-1.374657e-02
2.872295e+02	-1.390558e-02
2.888886e+02	-1.406641e-02
2.905572e+02	-1.422911e-02
2.922354e+02	-1.439368e-02
2.939234e+02	-1.456016e-02
2.956211e+02	-1.472855e-02
2.973286e+02	-1.489889e-02
2.990459e+02	-1.507120e-02
3.007732e+02	-1.524550e-02
3.025104e+02	-1.542180e-02
3.042577e+02	-1.560015e-02
3.060151e+02	-1.578055e-02
3.077826e+02	-1.596303e-02
3.095604e+02	-1.614763e-02
3.113484e+02	-1.633435e-02
3.131467e+02	-1.652322e-02
3.149554e+02	-1.671428e-02
3.167746e+02	-1.690754e-02
3.186043e+02	-1.710303e-02
3.204445e+02	-1.730078e-02
3.222954e+02	-1.750081e-02
3.241570e+02	-1.770314e-02
3.260293e+02	-1.790782e-02
3.279124e+02	-1.811485e-02
3.298064e+02	-1.832427e-02
3.317114e+02	-1.853611e-02
3.336273e+02	-1.875039e-02
3.355544e+02	-1.896714e-02
3.374925e+02	-1.918639e-02
3.394418e+02	-1.940817e-02
3.414024e+02	-1.963251e-02
3.433744e+02	-1.985944e-02
3.453577e+02	-2.008898e-02
3.473525e+02	-2.032117e-02
3.493588e+02	-2.055604e-02
3.513766e+02	-2.079361e-02
3.534062e+02	-2.103392e-02
3.554474e+02	-2.127701e-02
3.575005e+02	-2.152290e-02
3.595654e+02	-2.177162e-02
3.616422e+02	-2.202321e-02
3.637311e+02	-2.227769e-02
3.658320e+02	-2.253511e-02
3.679450e+02	-2.279550e-02
3.700702e+02	-2.305889e-02
3.722077e+02	-2.332531e-02
3.743576e+02	-2.359481e-02
3.765199e+02	-2.386741e-02
3.786946e+02	-2.414315e-02
3.808820e+02	-2.442206e-02
3.830819e+02	-2.470419e-02
3.852946e+02	-2.498957e-02
3.875200e+02	-2.527823e-02
3.897583e+02	-2.557022e-02
3.920096e+02	-2.586558e-02
3.942738e+02	-2.616433e-02
3.965511e+02	-2.646652e-02
3.988416e+02	-2.677220e-02
4.011452e+02	-2.708139e-02
4.034622e+02	-2.739414e-02
4.057926e+02	-2.771050e-02
4.081365e+02	-2.803049e-02
4.104938e+02	-2.835417e-02
4.128648e+02	-2.868157e-02
4.152495e+02	-2.901274e-02
4.176480e+02	-2.934772e-02
4.200603e+02	-2.968656e-02
4.224866e+02	-3.002929e-02
4.249268e+02	-3.037597e-02
4.273812e+02	-3.072663e-02
4.298497e+02	-3.108133e-02
4.323325e+02	-3.144011e-02
4.348297e+02	-3.180301e-02
4.373412e+02	-3.217009e-02
4.398673e+02	-3.254139e-02
4.424079e+02	-3.291696e-02
4.449633e+02	-3.329684e-02
4.475334e+02	-3.368110e-02
4.501183e+02	-3.406977e-02
4.527182e+02	-3.446290e-02
4.553330e+02	-3.486056e-02
4.579630e+02	-3.526278e-02
4.606082e+02	-3.566963e-02
4.632687e+02	-3.608115e-02
4.659445e+02	-3.649740e-02
4.686358e+02	-3.691843e-02
4.713426e+02	-3.734430e-02
4.740650e+02	-3.777505e-02
4.768032e+02	-3.821076e-02
4.795572e+02	-3.865146e-02
4.823271e+02	-3.909723e-02
4.851130e+02	-3.954812e-02
4.879150e+02	-4.000418e-02
4.907332e+02	-4.046547e-02
4.935676e+02	-4.093206e-02
4.964185e+02	-4.140400e-02
4.992858e+02	-4.188136e-02
5.021696e+02	-4.236420e-02
5.050701e+02	-4.285257e-02
5.079874e+02	-4.334655e-02
5.109215e+02	-4.384619e-02
5.138726e+02	-4.435156e-02
5.168407e+02	-4.486272e-02
5.198259e+02	-4.537975e-02
5.228284e+02	-4.590270e-02
5.258482e+02	-4.643165e-02
5.288855e+02	-4.696666e-02
5.319403e+02	-4.750780e-02
5.350128e+02	-4.805514e-02
5.381030e+02	-4.860875e-02
5.412111e+02	-4.916870e-02
5.443371e+02	-4.973506e-02
5.474812e+02	-5.030791e-02
5.506434e+02	-5.088733e-02
5.538239e+02	-5.147337e-02
5.570228e+02	-5.206612e-02
5.602401e+02	-5.266566e-02
5.634760e+02	-5.327206e-02
5.667306e+02	-5.388539e-02
5.700040e+02	-5.450575e-02
5.732964e+02	-5.513320e-02
5.766077e+02	-5.576782e-02
5.799382e+02	-5.640971e-02
5.832879e+02	-5.705893e-02
5.866569e+02	-5.771558e-02
5.900454e+02	-5.837973e-02
5.934535e+02	-5.905147e-02
5.968813e+02	-5.973089e-02
6.003288e+02	-6.041807e-02
6.037963e+02	-6.111310e-02
6.072838e+02	-6.181607e-02
6.107914e+02	-6.252706e-02
6.143194e+02	-6.324618e-02
6.178676e+02	-6.397350e-02
6.214364e+02	-6.470913e-02
6.250258e+02	-6.545315e-02
6.286359e+02	-6.620566e-02
6.322669e+02	-6.696675e-02
6.359189e+02	-6.773653e-02
6.395919e+02	-6.851508e-02
6.432862e+02	-6.930251e-02
6.470017e+02	-7.009892e-02
6.507388e+02	-7.090440e-02
6.544974e+02	-7.171906e-02
6.582778e+02	-7.254301e-02
6.620800e+02	-7.337634e-02
6.659041e+02	-7.421916e-02
6.697504e+02	-7.507158e-02
6.736188e+02	-7.593370e-02
6.775096e+02	-7.680564e-02
6.814229e+02	-7.768750e-02
6.853587e+02	-7.857939e-02
6.893173e+02	-7.948142e-02
6.932988e+02	-8.039372e-02
6.973033e+02	-8.131639e-02
7.013309e+02	-8.224955e-02
