Frequency(Hz)	Magnitude(dB)
1.000000e+01	-1.942233e+00
1.005776e+01	-1.960375e+00
1.011585e+01	-1.978491e+00
1.017428e+01	-1.996895e+00
1.023305e+01	-2.015359e+00
1.029215e+01	-2.033930e+00
1.035160e+01	-2.052937e+00
1.041139e+01	-2.071865e+00
1.047153e+01	-2.090795e+00
1.053201e+01	-2.109913e+00
1.059284e+01	-2.129290e+00
1.065403e+01	-2.148786e+00
1.071556e+01	-2.168395e+00
1.077746e+01	-2.188240e+00
1.083971e+01	-2.208039e+00
1.090232e+01	-2.227899e+00
1.096529e+01	-2.248154e+00
1.102862e+01	-2.268336e+00
1.109232e+01	-2.288867e+00
1.115639e+01	-2.309476e+00
1.122083e+01	-2.329904e+00
1.128564e+01	-2.350955e+00
1.135083e+01	-2.371867e+00
1.141639e+01	-2.393001e+00
1.148233e+01	-2.414254e+00
1.154865e+01	-2.435579e+00
1.161536e+01	-2.457223e+00
1.168245e+01	-2.478875e+00
1.174992e+01	-2.500778e+00
1.181779e+01	-2.522542e+00
1.188605e+01	-2.544922e+00
1.195470e+01	-2.567063e+00
1.202375e+01	-2.589398e+00
1.209320e+01	-2.612076e+00
1.216305e+01	-2.634523e+00
1.223330e+01	-2.657683e+00
1.230396e+01	-2.680454e+00
1.237503e+01	-2.703383e+00
1.244651e+01	-2.727098e+00
1.251840e+01	-2.750267e+00
1.259070e+01	-2.773715e+00
1.266343e+01	-2.797323e+00
1.273657e+01	-2.821163e+00
1.281014e+01	-2.845373e+00
1.288413e+01	-2.869248e+00
1.295855e+01	-2.893623e+00
1.303339e+01	-2.918085e+00
1.310867e+01	-2.942730e+00
1.318439e+01	-2.967204e+00
1.326054e+01	-2.992075e+00
1.333713e+01	-3.017165e+00
1.341417e+01	-3.042297e+00
1.349165e+01	-3.067353e+00
1.356958e+01	-3.092646e+00
1.364795e+01	-3.118375e+00
1.372678e+01	-3.144053e+00
1.380607e+01	-3.170197e+00
1.388581e+01	-3.195870e+00
1.396602e+01	-3.222119e+00
1.404668e+01	-3.248573e+00
1.412782e+01	-3.274636e+00
1.420942e+01	-3.301299e+00
1.429149e+01	-3.328105e+00
1.437404e+01	-3.354796e+00
1.445706e+01	-3.382042e+00
1.454057e+01	-3.409143e+00
1.462455e+01	-3.436320e+00
1.470902e+01	-3.463979e+00
1.479398e+01	-3.491272e+00
1.487943e+01	-3.518803e+00
1.496537e+01	-3.546795e+00
1.505181e+01	-3.575066e+00
1.513875e+01	-3.602663e+00
1.522619e+01	-3.631088e+00
1.531414e+01	-3.659688e+00
1.540259e+01	-3.688134e+00
1.549156e+01	-3.716932e+00
1.558103e+01	-3.745703e+00
1.567103e+01	-3.774725e+00
1.576155e+01	-3.804019e+00
1.585258e+01	-3.832937e+00
1.594415e+01	-3.862355e+00
1.603624e+01	-3.892026e+00
1.612886e+01	-3.921750e+00
1.622202e+01	-3.951696e+00
1.631572e+01	-3.981763e+00
1.640996e+01	-4.011610e+00
1.650474e+01	-4.041840e+00
1.660008e+01	-4.072274e+00
1.669596e+01	-4.102714e+00
1.679239e+01	-4.133551e+00
1.688938e+01	-4.164053e+00
1.698694e+01	-4.195217e+00
1.708505e+01	-4.226232e+00
1.718373e+01	-4.257307e+00
1.728299e+01	-4.288520e+00
1.738281e+01	-4.319974e+00
1.748322e+01	-4.351721e+00
1.758420e+01	-4.383264e+00
1.768576e+01	-4.415477e+00
1.778792e+01	-4.447093e+00
1.789066e+01	-4.479542e+00
1.799399e+01	-4.511636e+00
1.809793e+01	-4.544231e+00
1.820246e+01	-4.576386e+00
1.830760e+01	-4.608851e+00
1.841334e+01	-4.641881e+00
1.851969e+01	-4.675289e+00
1.862666e+01	-4.707869e+00
1.873425e+01	-4.740981e+00
1.884246e+01	-4.774441e+00
1.895129e+01	-4.807996e+00
1.906075e+01	-4.841268e+00
1.917085e+01	-4.875064e+00
1.928158e+01	-4.908591e+00
1.939295e+01	-4.942771e+00
1.950496e+01	-4.976785e+00
1.961762e+01	-5.010909e+00
1.973093e+01	-5.045321e+00
1.984490e+01	-5.079651e+00
1.995952e+01	-5.114378e+00
2.007480e+01	-5.148949e+00
2.019076e+01	-5.183773e+00
2.030738e+01	-5.218531e+00
2.042467e+01	-5.253897e+00
2.054264e+01	-5.288893e+00
2.066130e+01	-5.324327e+00
2.078064e+01	-5.359772e+00
2.090066e+01	-5.395077e+00
2.102139e+01	-5.430980e+00
2.114280e+01	-5.466220e+00
2.126492e+01	-5.502584e+00
2.138775e+01	-5.538179e+00
2.151128e+01	-5.574606e+00
2.163553e+01	-5.610795e+00
2.176050e+01	-5.647237e+00
2.188619e+01	-5.683433e+00
2.201260e+01	-5.720159e+00
2.213974e+01	-5.756399e+00
2.226762e+01	-5.793429e+00
2.239624e+01	-5.830428e+00
2.252560e+01	-5.867339e+00
2.265571e+01	-5.904775e+00
2.278656e+01	-5.941909e+00
2.291818e+01	-5.979013e+00
2.305055e+01	-6.016665e+00
2.318369e+01	-6.054103e+00
2.331760e+01	-6.091584e+00
2.345228e+01	-6.129769e+00
2.358774e+01	-6.167245e+00
2.372398e+01	-6.205561e+00
2.386101e+01	-6.243574e+00
2.399883e+01	-6.281937e+00
2.413745e+01	-6.320176e+00
2.427686e+01	-6.358690e+00
2.441709e+01	-6.397234e+00
2.455812e+01	-6.435819e+00
2.469997e+01	-6.474387e+00
2.484263e+01	-6.512965e+00
2.498612e+01	-6.552154e+00
2.513044e+01	-6.590845e+00
2.527559e+01	-6.630299e+00
2.542158e+01	-6.669477e+00
2.556842e+01	-6.708921e+00
2.571610e+01	-6.748029e+00
2.586463e+01	-6.787366e+00
2.601403e+01	-6.827177e+00
2.616428e+01	-6.866972e+00
2.631541e+01	-6.906860e+00
2.646740e+01	-6.946319e+00
2.662028e+01	-6.986517e+00
2.677404e+01	-7.026263e+00
2.692868e+01	-7.067074e+00
2.708422e+01	-7.106620e+00
2.724066e+01	-7.147089e+00
2.739800e+01	-7.187400e+00
2.755625e+01	-7.228236e+00
2.771541e+01	-7.268772e+00
2.787550e+01	-7.309490e+00
2.803650e+01	-7.349844e+00
2.819844e+01	-7.390718e+00
2.836131e+01	-7.432097e+00
2.852513e+01	-7.472867e+00
2.868989e+01	-7.514367e+00
2.885560e+01	-7.555491e+00
2.902227e+01	-7.596479e+00
2.918990e+01	-7.638068e+00
2.935850e+01	-7.679054e+00
2.952807e+01	-7.721124e+00
2.969863e+01	-7.762688e+00
2.987016e+01	-7.804231e+00
3.004269e+01	-7.845826e+00
3.021622e+01	-7.888274e+00
3.039075e+01	-7.929719e+00
3.056628e+01	-7.971928e+00
3.074283e+01	-8.014030e+00
3.092040e+01	-8.056133e+00
3.109900e+01	-8.098371e+00
3.127862e+01	-8.140673e+00
3.145929e+01	-8.182857e+00
3.164099e+01	-8.225577e+00
3.182375e+01	-8.268322e+00
3.200756e+01	-8.310814e+00
3.219244e+01	-8.353328e+00
3.237838e+01	-8.396403e+00
3.256540e+01	-8.439417e+00
3.275349e+01	-8.482071e+00
3.294268e+01	-8.524841e+00
3.313295e+01	-8.568158e+00
3.332433e+01	-8.611056e+00
3.351681e+01	-8.654189e+00
3.371040e+01	-8.697218e+00
3.390511e+01	-8.740540e+00
3.410094e+01	-8.784249e+00
3.429791e+01	-8.827421e+00
3.449601e+01	-8.870891e+00
3.469526e+01	-8.914234e+00
3.489566e+01	-8.958364e+00
3.509721e+01	-9.001807e+00
3.529993e+01	-9.045767e+00
3.550382e+01	-9.089580e+00
3.570889e+01	-9.133739e+00
3.591515e+01	-9.177157e+00
3.612259e+01	-9.221115e+00
3.633123e+01	-9.265528e+00
3.654108e+01	-9.309891e+00
3.675214e+01	-9.353599e+00
3.696442e+01	-9.398104e+00
3.717792e+01	-9.442010e+00
3.739266e+01	-9.486957e+00
3.760864e+01	-9.530932e+00
3.782587e+01	-9.575647e+00
3.804435e+01	-9.619872e+00
3.826409e+01	-9.664943e+00
3.848510e+01	-9.709554e+00
3.870739e+01	-9.754021e+00
3.893096e+01	-9.798893e+00
3.915583e+01	-9.843966e+00
3.938199e+01	-9.888013e+00
3.960946e+01	-9.932997e+00
3.983824e+01	-9.978541e+00
4.006834e+01	-1.002318e+01
4.029978e+01	-1.006848e+01
4.053255e+01	-1.011360e+01
4.076666e+01	-1.015857e+01
4.100213e+01	-1.020426e+01
4.123896e+01	-1.024958e+01
4.147715e+01	-1.029457e+01
4.171672e+01	-1.033992e+01
4.195767e+01	-1.038530e+01
4.220002e+01	-1.043063e+01
4.244377e+01	-1.047608e+01
4.268892e+01	-1.052187e+01
4.293549e+01	-1.056791e+01
4.318348e+01	-1.061355e+01
4.343291e+01	-1.065876e+01
4.368377e+01	-1.070531e+01
4.393609e+01	-1.075049e+01
4.418986e+01	-1.079672e+01
4.444510e+01	-1.084245e+01
4.470182e+01	-1.088775e+01
4.496001e+01	-1.093400e+01
4.521970e+01	-1.098029e+01
4.548089e+01	-1.102646e+01
4.574358e+01	-1.107209e+01
4.600779e+01	-1.111865e+01
4.627353e+01	-1.116456e+01
4.654081e+01	-1.121052e+01
4.680963e+01	-1.125692e+01
4.708000e+01	-1.130358e+01
4.735193e+01	-1.134917e+01
4.762543e+01	-1.139527e+01
4.790051e+01	-1.144187e+01
4.817719e+01	-1.148911e+01
4.845545e+01	-1.153501e+01
4.873533e+01	-1.158194e+01
4.901682e+01	-1.162844e+01
4.929994e+01	-1.167485e+01
4.958470e+01	-1.172206e+01
4.987110e+01	-1.176870e+01
5.015915e+01	-1.181559e+01
5.044887e+01	-1.186165e+01
5.074026e+01	-1.190858e+01
5.103333e+01	-1.195574e+01
5.132810e+01	-1.200295e+01
5.162457e+01	-1.204886e+01
5.192275e+01	-1.209685e+01
5.222265e+01	-1.214284e+01
5.252429e+01	-1.219087e+01
5.282767e+01	-1.223717e+01
5.313280e+01	-1.228379e+01
5.343969e+01	-1.233183e+01
5.374836e+01	-1.237863e+01
5.405880e+01	-1.242626e+01
5.437105e+01	-1.247277e+01
5.468509e+01	-1.251997e+01
5.500095e+01	-1.256770e+01
5.531863e+01	-1.261439e+01
5.563815e+01	-1.266214e+01
5.595951e+01	-1.270872e+01
5.628273e+01	-1.275639e+01
5.660782e+01	-1.280395e+01
5.693479e+01	-1.285114e+01
5.726364e+01	-1.289855e+01
5.759439e+01	-1.294606e+01
5.792705e+01	-1.299394e+01
5.826164e+01	-1.304127e+01
5.859815e+01	-1.308783e+01
5.893662e+01	-1.313631e+01
5.927703e+01	-1.318491e+01
5.961941e+01	-1.323173e+01
5.996377e+01	-1.327936e+01
6.031012e+01	-1.332711e+01
6.065847e+01	-1.337462e+01
6.100883e+01	-1.342342e+01
6.136121e+01	-1.347008e+01
6.171563e+01	-1.351881e+01
6.207210e+01	-1.356546e+01
6.243063e+01	-1.361361e+01
6.279122e+01	-1.366175e+01
6.315390e+01	-1.370932e+01
6.351868e+01	-1.375705e+01
6.388556e+01	-1.380542e+01
6.425456e+01	-1.385228e+01
6.462569e+01	-1.390113e+01
6.499897e+01	-1.394913e+01
6.537440e+01	-1.399673e+01
6.575200e+01	-1.404557e+01
6.613178e+01	-1.409312e+01
6.651375e+01	-1.414155e+01
6.689793e+01	-1.419008e+01
6.728433e+01	-1.423788e+01
6.767297e+01	-1.428559e+01
6.806384e+01	-1.433481e+01
6.845698e+01	-1.438224e+01
6.885238e+01	-1.443080e+01
6.925007e+01	-1.447860e+01
6.965005e+01	-1.452618e+01
7.005235e+01	-1.457491e+01
7.045697e+01	-1.462351e+01
7.086393e+01	-1.467108e+01
7.127323e+01	-1.472016e+01
7.168490e+01	-1.476795e+01
7.209895e+01	-1.481670e+01
7.251539e+01	-1.486608e+01
7.293424e+01	-1.491292e+01
7.335551e+01	-1.496159e+01
7.377920e+01	-1.501008e+01
7.420535e+01	-1.505866e+01
7.463396e+01	-1.510792e+01
7.506504e+01	-1.515602e+01
7.549861e+01	-1.520404e+01
7.593469e+01	-1.525332e+01
7.637328e+01	-1.530168e+01
7.681441e+01	-1.535007e+01
7.725809e+01	-1.539837e+01
7.770433e+01	-1.544729e+01
7.815315e+01	-1.549580e+01
7.860456e+01	-1.554487e+01
7.905857e+01	-1.559252e+01
7.951521e+01	-1.564208e+01
7.997449e+01	-1.569019e+01
8.043642e+01	-1.573861e+01
8.090102e+01	-1.578721e+01
8.136830e+01	-1.583678e+01
8.183828e+01	-1.588523e+01
8.231097e+01	-1.593382e+01
8.278640e+01	-1.598279e+01
8.326457e+01	-1.603196e+01
8.374550e+01	-1.608052e+01
8.422921e+01	-1.613001e+01
8.471572e+01	-1.617922e+01
8.520503e+01	-1.622667e+01
8.569717e+01	-1.627584e+01
8.619215e+01	-1.632410e+01
8.669000e+01	-1.637394e+01
8.719071e+01	-1.642262e+01
8.769432e+01	-1.647158e+01
8.820084e+01	-1.651880e+01
8.871029e+01	-1.656928e+01
8.922267e+01	-1.661852e+01
8.973802e+01	-1.666678e+01
9.025634e+01	-1.671600e+01
9.077766e+01	-1.676590e+01
9.130199e+01	-1.681464e+01
9.182935e+01	-1.686267e+01
9.235975e+01	-1.691125e+01
9.289321e+01	-1.696046e+01
9.342976e+01	-1.700896e+01
9.396941e+01	-1.705852e+01
9.451217e+01	-1.710840e+01
9.505807e+01	-1.715622e+01
9.560712e+01	-1.720463e+01
9.615934e+01	-1.725518e+01
9.671476e+01	-1.730345e+01
9.727338e+01	-1.735366e+01
9.783522e+01	-1.740306e+01
9.840032e+01	-1.745120e+01
9.896867e+01	-1.750017e+01
9.954031e+01	-1.755120e+01
1.001153e+02	-1.759950e+01
1.006935e+02	-1.764824e+01
1.012751e+02	-1.769758e+01
1.018601e+02	-1.774686e+01
1.024484e+02	-1.779674e+01
1.030402e+02	-1.784349e+01
1.036353e+02	-1.789345e+01
1.042339e+02	-1.794463e+01
1.048360e+02	-1.799142e+01
1.054415e+02	-1.804086e+01
1.060505e+02	-1.809080e+01
1.066631e+02	-1.814055e+01
1.072791e+02	-1.818894e+01
1.078988e+02	-1.823865e+01
1.085220e+02	-1.828807e+01
1.091488e+02	-1.833813e+01
1.097793e+02	-1.838671e+01
1.104133e+02	-1.843653e+01
1.110511e+02	-1.848500e+01
1.116925e+02	-1.853501e+01
1.123376e+02	-1.858335e+01
1.129865e+02	-1.863443e+01
1.136391e+02	-1.868246e+01
1.142955e+02	-1.873281e+01
1.149556e+02	-1.878253e+01
1.156196e+02	-1.883169e+01
1.162874e+02	-1.887961e+01
1.169591e+02	-1.892821e+01
1.176347e+02	-1.897862e+01
1.183141e+02	-1.902939e+01
1.189975e+02	-1.907573e+01
1.196848e+02	-1.912786e+01
1.203761e+02	-1.917778e+01
1.210714e+02	-1.922596e+01
1.217707e+02	-1.927476e+01
1.224740e+02	-1.932547e+01
1.231814e+02	-1.937484e+01
1.238929e+02	-1.942468e+01
1.246085e+02	-1.947322e+01
1.253283e+02	-1.952275e+01
1.260522e+02	-1.957258e+01
1.267802e+02	-1.962414e+01
1.275125e+02	-1.967074e+01
1.282490e+02	-1.972117e+01
1.289898e+02	-1.976862e+01
1.297348e+02	-1.981963e+01
1.304842e+02	-1.987048e+01
1.312378e+02	-1.991879e+01
1.319959e+02	-1.996890e+01
1.327583e+02	-2.001880e+01
1.335251e+02	-2.006765e+01
1.342963e+02	-2.011851e+01
1.350720e+02	-2.016552e+01
1.358522e+02	-2.021772e+01
1.366368e+02	-2.026536e+01
1.374260e+02	-2.031366e+01
1.382198e+02	-2.036548e+01
1.390182e+02	-2.041564e+01
1.398211e+02	-2.046642e+01
1.406287e+02	-2.051485e+01
1.414410e+02	-2.056445e+01
1.422579e+02	-2.061322e+01
1.430796e+02	-2.066088e+01
1.439060e+02	-2.071171e+01
1.447372e+02	-2.076034e+01
1.455732e+02	-2.081201e+01
1.464141e+02	-2.086081e+01
1.472597e+02	-2.091014e+01
1.481103e+02	-2.096097e+01
1.489658e+02	-2.101014e+01
1.498262e+02	-2.105978e+01
1.506916e+02	-2.110946e+01
1.515620e+02	-2.115895e+01
1.524374e+02	-2.120950e+01
1.533179e+02	-2.125951e+01
1.542034e+02	-2.130802e+01
1.550941e+02	-2.135783e+01
1.559899e+02	-2.140632e+01
1.568909e+02	-2.145705e+01
1.577971e+02	-2.150539e+01
1.587085e+02	-2.155651e+01
1.596252e+02	-2.160746e+01
1.605472e+02	-2.165405e+01
1.614745e+02	-2.170572e+01
1.624072e+02	-2.175467e+01
1.633453e+02	-2.180495e+01
1.642887e+02	-2.185333e+01
1.652377e+02	-2.190570e+01
1.661921e+02	-2.195416e+01
1.671520e+02	-2.200156e+01
1.681175e+02	-2.205404e+01
1.690885e+02	-2.210424e+01
1.700651e+02	-2.215537e+01
1.710474e+02	-2.220200e+01
1.720354e+02	-2.225204e+01
1.730291e+02	-2.230145e+01
1.740285e+02	-2.235278e+01
1.750337e+02	-2.240090e+01
1.760446e+02	-2.245006e+01
1.770615e+02	-2.250139e+01
1.780842e+02	-2.255084e+01
1.791128e+02	-2.260127e+01
1.801473e+02	-2.265183e+01
1.811878e+02	-2.269945e+01
1.822344e+02	-2.274868e+01
1.832870e+02	-2.279897e+01
1.843456e+02	-2.284792e+01
1.854104e+02	-2.290135e+01
1.864813e+02	-2.295074e+01
1.875584e+02	-2.299924e+01
1.886418e+02	-2.304965e+01
1.897313e+02	-2.309774e+01
1.908272e+02	-2.314765e+01
1.919294e+02	-2.319859e+01
1.930380e+02	-2.324884e+01
1.941530e+02	-2.329829e+01
1.952744e+02	-2.334937e+01
1.964023e+02	-2.339657e+01
1.975367e+02	-2.344645e+01
1.986777e+02	-2.349922e+01
1.998252e+02	-2.354656e+01
2.009794e+02	-2.359758e+01
2.021403e+02	-2.364606e+01
2.033078e+02	-2.369381e+01
2.044821e+02	-2.374465e+01
2.056632e+02	-2.379555e+01
2.068511e+02	-2.384641e+01
2.080459e+02	-2.389614e+01
2.092475e+02	-2.394657e+01
2.104561e+02	-2.399659e+01
2.116717e+02	-2.404544e+01
2.128943e+02	-2.409537e+01
2.141240e+02	-2.414375e+01
2.153608e+02	-2.419490e+01
2.166047e+02	-2.424651e+01
2.178558e+02	-2.429448e+01
2.191141e+02	-2.434461e+01
2.203797e+02	-2.439351e+01
2.216526e+02	-2.444454e+01
2.229329e+02	-2.449445e+01
2.242205e+02	-2.454353e+01
2.255156e+02	-2.459348e+01
2.268182e+02	-2.464188e+01
2.281283e+02	-2.469147e+01
2.294459e+02	-2.474385e+01
2.307712e+02	-2.479246e+01
2.321041e+02	-2.484330e+01
2.334447e+02	-2.489287e+01
2.347931e+02	-2.494330e+01
2.361493e+02	-2.499416e+01
2.375133e+02	-2.504135e+01
2.388851e+02	-2.509272e+01
2.402649e+02	-2.514406e+01
2.416527e+02	-2.519287e+01
2.430484e+02	-2.523897e+01
2.444523e+02	-2.529097e+01
2.458642e+02	-2.534510e+01
2.472843e+02	-2.539164e+01
2.487126e+02	-2.544412e+01
2.501492e+02	-2.549238e+01
2.515940e+02	-2.554098e+01
2.530472e+02	-2.559085e+01
2.545088e+02	-2.564152e+01
2.559789e+02	-2.569170e+01
2.574574e+02	-2.574100e+01
2.589444e+02	-2.579197e+01
2.604401e+02	-2.583801e+01
2.619444e+02	-2.589191e+01
2.634574e+02	-2.594235e+01
2.649791e+02	-2.599368e+01
2.665096e+02	-2.604026e+01
2.680489e+02	-2.609066e+01
2.695972e+02	-2.614277e+01
2.711544e+02	-2.619535e+01
2.727205e+02	-2.623709e+01
2.742958e+02	-2.629567e+01
2.758801e+02	-2.634397e+01
2.774736e+02	-2.639288e+01
2.790762e+02	-2.644103e+01
2.806882e+02	-2.649124e+01
2.823094e+02	-2.654128e+01
2.839400e+02	-2.659202e+01
2.855800e+02	-2.664004e+01
2.872295e+02	-2.669276e+01
2.888886e+02	-2.673897e+01
2.905572e+02	-2.678935e+01
2.922354e+02	-2.683783e+01
2.939234e+02	-2.688941e+01
2.956211e+02	-2.693949e+01
2.973286e+02	-2.698886e+01
2.990459e+02	-2.704083e+01
3.007732e+02	-2.708937e+01
3.025104e+02	-2.714481e+01
3.042577e+02	-2.718743e+01
3.060151e+02	-2.724061e+01
3.077826e+02	-2.729076e+01
3.095604e+02	-2.733886e+01
3.113484e+02	-2.739488e+01
3.131467e+02	-2.744062e+01
3.149554e+02	-2.748923e+01
3.167746e+02	-2.754402e+01
3.186043e+02	-2.759521e+01
3.204445e+02	-2.764046e+01
3.222954e+02	-2.769117e+01
3.241570e+02	-2.774161e+01
3.260293e+02	-2.779442e+01
3.279124e+02	-2.784231e+01
3.298064e+02	-2.788991e+01
3.317114e+02	-2.793715e+01
3.336273e+02	-2.798902e+01
3.355544e+02	-2.804286e+01
3.374925e+02	-2.808773e+01
3.394418e+02	-2.814197e+01
3.414024e+02	-2.818940e+01
3.433744e+02	-2.824563e+01
3.453577e+02	-2.829278e+01
3.473525e+02	-2.834199e+01
3.493588e+02	-2.839270e+01
3.513766e+02	-2.844224e+01
3.534062e+02	-2.849050e+01
3.554474e+02	-2.853804e+01
3.575005e+02	-2.859215e+01
3.595654e+02	-2.864251e+01
3.616422e+02	-2.868893e+01
3.637311e+02	-2.874049e+01
3.658320e+02	-2.879199e+01
3.679450e+02	-2.883890e+01
3.700702e+02	-2.889621e+01
3.722077e+02	-2.894083e+01
3.743576e+02	-2.898903e+01
3.765199e+02	-2.904125e+01
3.786946e+02	-2.909272e+01
3.808820e+02	-2.914459e+01
3.830819e+02	-2.919218e+01
3.852946e+02	-2.924185e+01
3.875200e+02	-2.929047e+01
3.897583e+02	-2.934529e+01
3.920096e+02	-2.939097e+01
3.942738e+02	-2.943940e+01
3.965511e+02	-2.949029e+01
3.988416e+02	-2.954271e+01
4.011452e+02	-2.959428e+01
4.034622e+02	-2.964193e+01
4.057926e+02	-2.968779e+01
4.081365e+02	-2.974066e+01
4.104938e+02	-2.979082e+01
4.128648e+02	-2.984658e+01
4.152495e+02	-2.989462e+01
4.176480e+02	-2.994083e+01
4.200603e+02	-2.999428e+01
4.224866e+02	-3.004471e+01
4.249268e+02	-3.009040e+01
4.273812e+02	-3.014751e+01
4.298497e+02	-3.019549e+01
4.323325e+02	-3.023974e+01
4.348297e+02	-3.029760e+01
4.373412e+02	-3.034663e+01
4.398673e+02	-3.039398e+01
4.424079e+02	-3.044550e+01
4.449633e+02	-3.049537e+01
4.475334e+02	-3.054632e+01
4.501183e+02	-3.059488e+01
4.527182e+02	-3.065149e+01
4.553330e+02	-3.069930e+01
4.579630e+02	-3.074852e+01
4.606082e+02	-3.079097e+01
4.632687e+02	-3.084920e+01
4.659445e+02	-3.089917e+01
4.686358e+02	-3.094372e+01
4.713426e+02	-3.100027e+01
4.740650e+02	-3.104514e+01
4.768032e+02	-3.109701e+01
4.795572e+02	-3.114357e+01
4.823271e+02	-3.119787e+01
4.851130e+02	-3.124761e+01
4.879150e+02	-3.129595e+01
4.907332e+02	-3.134256e+01
4.935676e+02	-3.139949e+01
4.964185e+02	-3.144446e+01
4.992858e+02	-3.149810e+01
5.021696e+02	-3.154555e+01
5.050701e+02	-3.159696e+01
5.079874e+02	-3.165414e+01
5.109215e+02	-3.169289e+01
5.138726e+02	-3.174474e+01
5.168407e+02	-3.180114e+01
5.198259e+02	-3.184631e+01
5.228284e+02	-3.189824e+01
5.258482e+02	-3.194826e+01
5.288855e+02	-3.200320e+01
5.319403e+02	-3.204788e+01
5.350128e+02	-3.210489e+01
5.381030e+02	-3.214695e+01
5.412111e+02	-3.219654e+01
5.443371e+02	-3.224318e+01
5.474812e+02	-3.230450e+01
5.506434e+02	-3.235394e+01
5.538239e+02	-3.240114e+01
5.570228e+02	-3.245418e+01
5.602401e+02	-3.250809e+01
5.634760e+02	-3.254520e+01
5.667306e+02	-3.259802e+01
5.700040e+02	-3.264891e+01
5.732964e+02	-3.270314e+01
5.766077e+02	-3.275097e+01
5.799382e+02	-3.280929e+01
5.832879e+02	-3.284954e+01
5.866569e+02	-3.290547e+01
5.900454e+02	-3.295620e+01
5.934535e+02	-3.300915e+01
5.968813e+02	-3.305371e+01
6.003288e+02	-3.311175e+01
6.037963e+02	-3.315538e+01
6.072838e+02	-3.319992e+01
6.107914e+02	-3.325232e+01
6.143194e+02	-3.330819e+01
6.178676e+02	-3.335457e+01
6.214364e+02	-3.340250e+01
6.250258e+02	-3.345639e+01
6.286359e+02	-3.350915e+01
6.322669e+02	-3.356152e+01
6.359189e+02	-3.359864e+01
6.395919e+02	-3.365769e+01
6.432862e+02	-3.370782e+01
6.470017e+02	-3.375903e+01
6.507388e+02	-3.380411e+01
6.544974e+02	-3.386141e+01
6.582778e+02	-3.390794e+01
6.620800e+02	-3.396091e+01
6.659041e+02	-3.401338e+01
6.697504e+02	-3.405738e+01
6.736188e+02	-3.411274e+01
6.775096e+02	-3.416323e+01
6.814229e+02	-3.420734e+01
6.853587e+02	-3.425950e+01
6.893173e+02	-3.430474e+01
6.932988e+02	-3.436159e+01
6.973033e+02	-3.440530e+01
7.013309e+02	-3.446310e+01
