Frequency(Hz)	Magnitude(dB)
1.000000e+01	-2.151280e+00
1.005776e+01	-2.171032e+00
1.011585e+01	-2.190959e+00
1.017428e+01	-2.210684e+00
1.023305e+01	-2.230646e+00
1.029215e+01	-2.250857e+00
1.035160e+01	-2.271088e+00
1.041139e+01	-2.291763e+00
1.047153e+01	-2.312372e+00
1.053201e+01	-2.333039e+00
1.059284e+01	-2.353722e+00
1.065403e+01	-2.374720e+00
1.071556e+01	-2.395931e+00
1.077746e+01	-2.417126e+00
1.083971e+01	-2.438563e+00
1.090232e+01	-2.459945e+00
1.096529e+01	-2.482000e+00
1.102862e+01	-2.503880e+00
1.109232e+01	-2.525636e+00
1.115639e+01	-2.547911e+00
1.122083e+01	-2.570230e+00
1.128564e+01	-2.592430e+00
1.135083e+01	-2.615117e+00
1.141639e+01	-2.637680e+00
1.148233e+01	-2.660656e+00
1.154865e+01	-2.683543e+00
1.161536e+01	-2.706758e+00
1.168245e+01	-2.730120e+00
1.174992e+01	-2.753456e+00
1.181779e+01	-2.776880e+00
1.188605e+01	-2.800826e+00
1.195470e+01	-2.824513e+00
1.202375e+01	-2.848699e+00
1.209320e+01	-2.872762e+00
1.216305e+01	-2.896940e+00
1.223330e+01	-2.921466e+00
1.230396e+01	-2.945958e+00
1.237503e+01	-2.970450e+00
1.244651e+01	-2.995713e+00
1.251840e+01	-3.020355e+00
1.259070e+01	-3.045690e+00
1.266343e+01	-3.071101e+00
1.273657e+01	-3.096225e+00
1.281014e+01	-3.121856e+00
1.288413e+01	-3.147916e+00
1.295855e+01	-3.173838e+00
1.303339e+01	-3.199708e+00
1.310867e+01	-3.225617e+00
1.318439e+01	-3.252169e+00
1.326054e+01	-3.278319e+00
1.333713e+01	-3.304977e+00
1.341417e+01	-3.331738e+00
1.349165e+01	-3.358588e+00
1.356958e+01	-3.385570e+00
1.364795e+01	-3.412983e+00
1.372678e+01	-3.440250e+00
1.380607e+01	-3.467600e+00
1.388581e+01	-3.495168e+00
1.396602e+01	-3.522886e+00
1.404668e+01	-3.550831e+00
1.412782e+01	-3.578593e+00
1.420942e+01	-3.607087e+00
1.429149e+01	-3.635183e+00
1.437404e+01	-3.663491e+00
1.445706e+01	-3.692167e+00
1.454057e+01	-3.720950e+00
1.462455e+01	-3.749860e+00
1.470902e+01	-3.778702e+00
1.479398e+01	-3.807949e+00
1.487943e+01	-3.837182e+00
1.496537e+01	-3.866644e+00
1.505181e+01	-3.896264e+00
1.513875e+01	-3.925621e+00
1.522619e+01	-3.955754e+00
1.531414e+01	-3.985544e+00
1.540259e+01	-4.015539e+00
1.549156e+01	-4.045889e+00
1.558103e+01	-4.076460e+00
1.567103e+01	-4.106830e+00
1.576155e+01	-4.137623e+00
1.585258e+01	-4.168564e+00
1.594415e+01	-4.199431e+00
1.603624e+01	-4.230295e+00
1.612886e+01	-4.261528e+00
1.622202e+01	-4.292984e+00
1.631572e+01	-4.324446e+00
1.640996e+01	-4.356057e+00
1.650474e+01	-4.387731e+00
1.660008e+01	-4.419711e+00
1.669596e+01	-4.451614e+00
1.679239e+01	-4.483661e+00
1.688938e+01	-4.516248e+00
1.698694e+01	-4.548697e+00
1.708505e+01	-4.581160e+00
1.718373e+01	-4.613852e+00
1.728299e+01	-4.646398e+00
1.738281e+01	-4.679546e+00
1.748322e+01	-4.712445e+00
1.758420e+01	-4.745873e+00
1.768576e+01	-4.779068e+00
1.778792e+01	-4.812464e+00
1.789066e+01	-4.846070e+00
1.799399e+01	-4.879516e+00
1.809793e+01	-4.913653e+00
1.820246e+01	-4.947610e+00
1.830760e+01	-4.981681e+00
1.841334e+01	-5.015711e+00
1.851969e+01	-5.050024e+00
1.862666e+01	-5.084353e+00
1.873425e+01	-5.118949e+00
1.884246e+01	-5.153713e+00
1.895129e+01	-5.188702e+00
1.906075e+01	-5.223231e+00
1.917085e+01	-5.258581e+00
1.928158e+01	-5.293832e+00
1.939295e+01	-5.328817e+00
1.950496e+01	-5.364415e+00
1.961762e+01	-5.400093e+00
1.973093e+01	-5.435675e+00
1.984490e+01	-5.471581e+00
1.995952e+01	-5.507706e+00
2.007480e+01	-5.543469e+00
2.019076e+01	-5.579655e+00
2.030738e+01	-5.616341e+00
2.042467e+01	-5.652097e+00
2.054264e+01	-5.688464e+00
2.066130e+01	-5.725282e+00
2.078064e+01	-5.761682e+00
2.090066e+01	-5.798909e+00
2.102139e+01	-5.835699e+00
2.114280e+01	-5.872741e+00
2.126492e+01	-5.909565e+00
2.138775e+01	-5.946838e+00
2.151128e+01	-5.984416e+00
2.163553e+01	-6.021863e+00
2.176050e+01	-6.059343e+00
2.188619e+01	-6.097274e+00
2.201260e+01	-6.135014e+00
2.213974e+01	-6.172814e+00
2.226762e+01	-6.210489e+00
2.239624e+01	-6.248880e+00
2.252560e+01	-6.287219e+00
2.265571e+01	-6.325567e+00
2.278656e+01	-6.363649e+00
2.291818e+01	-6.402503e+00
2.305055e+01	-6.440874e+00
2.318369e+01	-6.479873e+00
2.331760e+01	-6.518515e+00
2.345228e+01	-6.557523e+00
2.358774e+01	-6.596426e+00
2.372398e+01	-6.635637e+00
2.386101e+01	-6.674902e+00
2.399883e+01	-6.714363e+00
2.413745e+01	-6.753661e+00
2.427686e+01	-6.792971e+00
2.441709e+01	-6.832385e+00
2.455812e+01	-6.872621e+00
2.469997e+01	-6.911999e+00
2.484263e+01	-6.952178e+00
2.498612e+01	-6.992110e+00
2.513044e+01	-7.032142e+00
2.527559e+01	-7.072310e+00
2.542158e+01	-7.112433e+00
2.556842e+01	-7.152584e+00
2.571610e+01	-7.193083e+00
2.586463e+01	-7.233703e+00
2.601403e+01	-7.274207e+00
2.616428e+01	-7.315069e+00
2.631541e+01	-7.356011e+00
2.646740e+01	-7.396700e+00
2.662028e+01	-7.438123e+00
2.677404e+01	-7.479276e+00
2.692868e+01	-7.520031e+00
2.708422e+01	-7.561068e+00
2.724066e+01	-7.602283e+00
2.739800e+01	-7.643511e+00
2.755625e+01	-7.685332e+00
2.771541e+01	-7.726967e+00
2.787550e+01	-7.768566e+00
2.803650e+01	-7.810143e+00
2.819844e+01	-7.851915e+00
2.836131e+01	-7.893555e+00
2.852513e+01	-7.935933e+00
2.868989e+01	-7.977636e+00
2.885560e+01	-8.020385e+00
2.902227e+01	-8.062096e+00
2.918990e+01	-8.103954e+00
2.935850e+01	-8.146662e+00
2.952807e+01	-8.188997e+00
2.969863e+01	-8.231654e+00
2.987016e+01	-8.273737e+00
3.004269e+01	-8.316611e+00
3.021622e+01	-8.359505e+00
3.039075e+01	-8.401702e+00
3.056628e+01	-8.445275e+00
3.074283e+01	-8.487848e+00
3.092040e+01	-8.530758e+00
3.109900e+01	-8.573596e+00
3.127862e+01	-8.617181e+00
3.145929e+01	-8.659790e+00
3.164099e+01	-8.702905e+00
3.182375e+01	-8.746820e+00
3.200756e+01	-8.789387e+00
3.219244e+01	-8.833262e+00
3.237838e+01	-8.876742e+00
3.256540e+01	-8.920647e+00
3.275349e+01	-8.964582e+00
3.294268e+01	-9.008433e+00
3.313295e+01	-9.051865e+00
3.332433e+01	-9.095365e+00
3.351681e+01	-9.139534e+00
3.371040e+01	-9.183554e+00
3.390511e+01	-9.227270e+00
3.410094e+01	-9.271214e+00
3.429791e+01	-9.315571e+00
3.449601e+01	-9.359851e+00
3.469526e+01	-9.403875e+00
3.489566e+01	-9.448632e+00
3.509721e+01	-9.492695e+00
3.529993e+01	-9.537422e+00
3.550382e+01	-9.581735e+00
3.570889e+01	-9.626241e+00
3.591515e+01	-9.670893e+00
3.612259e+01	-9.715143e+00
3.633123e+01	-9.760001e+00
3.654108e+01	-9.805361e+00
3.675214e+01	-9.849805e+00
3.696442e+01	-9.894797e+00
3.717792e+01	-9.939612e+00
3.739266e+01	-9.984472e+00
3.760864e+01	-1.002952e+01
3.782587e+01	-1.007483e+01
3.804435e+01	-1.011968e+01
3.826409e+01	-1.016528e+01
3.848510e+01	-1.021019e+01
3.870739e+01	-1.025555e+01
3.893096e+01	-1.030133e+01
3.915583e+01	-1.034622e+01
3.938199e+01	-1.039122e+01
3.960946e+01	-1.043716e+01
3.983824e+01	-1.048194e+01
4.006834e+01	-1.052848e+01
4.029978e+01	-1.057349e+01
4.053255e+01	-1.061958e+01
4.076666e+01	-1.066601e+01
4.100213e+01	-1.071101e+01
4.123896e+01	-1.075641e+01
4.147715e+01	-1.080257e+01
4.171672e+01	-1.084871e+01
4.195767e+01	-1.089452e+01
4.220002e+01	-1.093988e+01
4.244377e+01	-1.098659e+01
4.268892e+01	-1.103256e+01
4.293549e+01	-1.107847e+01
4.318348e+01	-1.112474e+01
4.343291e+01	-1.117070e+01
4.368377e+01	-1.121742e+01
4.393609e+01	-1.126383e+01
4.418986e+01	-1.130968e+01
4.444510e+01	-1.135595e+01
4.470182e+01	-1.140258e+01
4.496001e+01	-1.144916e+01
4.521970e+01	-1.149654e+01
4.548089e+01	-1.154185e+01
4.574358e+01	-1.158878e+01
4.600779e+01	-1.163523e+01
4.627353e+01	-1.168143e+01
4.654081e+01	-1.172826e+01
4.680963e+01	-1.177523e+01
4.708000e+01	-1.182146e+01
4.735193e+01	-1.186877e+01
4.762543e+01	-1.191607e+01
4.790051e+01	-1.196177e+01
4.817719e+01	-1.200958e+01
4.845545e+01	-1.205659e+01
4.873533e+01	-1.210262e+01
4.901682e+01	-1.214994e+01
4.929994e+01	-1.219629e+01
4.958470e+01	-1.224337e+01
4.987110e+01	-1.229094e+01
5.015915e+01	-1.233729e+01
5.044887e+01	-1.238540e+01
5.074026e+01	-1.243230e+01
5.103333e+01	-1.247936e+01
5.132810e+01	-1.252740e+01
5.162457e+01	-1.257371e+01
5.192275e+01	-1.262041e+01
5.222265e+01	-1.266842e+01
5.252429e+01	-1.271526e+01
5.282767e+01	-1.276281e+01
5.313280e+01	-1.281075e+01
5.343969e+01	-1.285785e+01
5.374836e+01	-1.290555e+01
5.405880e+01	-1.295265e+01
5.437105e+01	-1.300014e+01
5.468509e+01	-1.304847e+01
5.500095e+01	-1.309465e+01
5.531863e+01	-1.314293e+01
5.563815e+01	-1.319061e+01
5.595951e+01	-1.323817e+01
5.628273e+01	-1.328489e+01
5.660782e+01	-1.333323e+01
5.693479e+01	-1.338121e+01
5.726364e+01	-1.342847e+01
5.759439e+01	-1.347652e+01
5.792705e+01	-1.352511e+01
5.826164e+01	-1.357234e+01
5.859815e+01	-1.362033e+01
5.893662e+01	-1.366836e+01
5.927703e+01	-1.371595e+01
5.961941e+01	-1.376358e+01
5.996377e+01	-1.381211e+01
6.031012e+01	-1.385987e+01
6.065847e+01	-1.390728e+01
6.100883e+01	-1.395547e+01
6.136121e+01	-1.400426e+01
6.171563e+01	-1.405224e+01
6.207210e+01	-1.409924e+01
6.243063e+01	-1.414826e+01
6.279122e+01	-1.419665e+01
6.315390e+01	-1.424483e+01
6.351868e+01	-1.429277e+01
6.388556e+01	-1.434028e+01
6.425456e+01	-1.438889e+01
6.462569e+01	-1.443704e+01
6.499897e+01	-1.448497e+01
6.537440e+01	-1.453349e+01
6.575200e+01	-1.458258e+01
6.613178e+01	-1.463012e+01
6.651375e+01	-1.467861e+01
6.689793e+01	-1.472659e+01
6.728433e+01	-1.477544e+01
6.767297e+01	-1.482340e+01
6.806384e+01	-1.487122e+01
6.845698e+01	-1.491939e+01
6.885238e+01	-1.496875e+01
6.925007e+01	-1.501651e+01
6.965005e+01	-1.506561e+01
7.005235e+01	-1.511358e+01
7.045697e+01	-1.516185e+01
7.086393e+01	-1.521186e+01
7.127323e+01	-1.526004e+01
7.168490e+01	-1.530840e+01
7.209895e+01	-1.535733e+01
7.251539e+01	-1.540562e+01
7.293424e+01	-1.545387e+01
7.335551e+01	-1.550270e+01
7.377920e+01	-1.555146e+01
7.420535e+01	-1.559961e+01
7.463396e+01	-1.564860e+01
7.506504e+01	-1.569821e+01
7.549861e+01	-1.574447e+01
7.593469e+01	-1.579503e+01
7.637328e+01	-1.584330e+01
7.681441e+01	-1.589222e+01
7.725809e+01	-1.594112e+01
7.770433e+01	-1.598925e+01
7.815315e+01	-1.603936e+01
7.860456e+01	-1.608755e+01
7.905857e+01	-1.613676e+01
7.951521e+01	-1.618417e+01
7.997449e+01	-1.623389e+01
8.043642e+01	-1.628175e+01
8.090102e+01	-1.633105e+01
8.136830e+01	-1.637903e+01
8.183828e+01	-1.642764e+01
8.231097e+01	-1.647776e+01
8.278640e+01	-1.652695e+01
8.326457e+01	-1.657630e+01
8.374550e+01	-1.662547e+01
8.422921e+01	-1.667338e+01
8.471572e+01	-1.672215e+01
8.520503e+01	-1.677179e+01
8.569717e+01	-1.681981e+01
8.619215e+01	-1.687022e+01
8.669000e+01	-1.691845e+01
8.719071e+01	-1.696662e+01
8.769432e+01	-1.701641e+01
8.820084e+01	-1.706544e+01
8.871029e+01	-1.711516e+01
8.922267e+01	-1.716323e+01
8.973802e+01	-1.721375e+01
9.025634e+01	-1.726111e+01
9.077766e+01	-1.731109e+01
9.130199e+01	-1.736133e+01
9.182935e+01	-1.740803e+01
9.235975e+01	-1.745916e+01
9.289321e+01	-1.750661e+01
9.342976e+01	-1.755747e+01
9.396941e+01	-1.760572e+01
9.451217e+01	-1.765508e+01
9.505807e+01	-1.770431e+01
9.560712e+01	-1.775313e+01
9.615934e+01	-1.780318e+01
9.671476e+01	-1.785199e+01
9.727338e+01	-1.790120e+01
9.783522e+01	-1.795038e+01
9.840032e+01	-1.800037e+01
9.896867e+01	-1.804900e+01
9.954031e+01	-1.809694e+01
1.001153e+02	-1.814670e+01
1.006935e+02	-1.819634e+01
1.012751e+02	-1.824663e+01
1.018601e+02	-1.829611e+01
1.024484e+02	-1.834430e+01
1.030402e+02	-1.839298e+01
1.036353e+02	-1.844354e+01
1.042339e+02	-1.849350e+01
1.048360e+02	-1.854286e+01
1.054415e+02	-1.858999e+01
1.060505e+02	-1.864125e+01
1.066631e+02	-1.868958e+01
1.072791e+02	-1.873856e+01
1.078988e+02	-1.878939e+01
1.085220e+02	-1.883709e+01
1.091488e+02	-1.888542e+01
1.097793e+02	-1.893576e+01
1.104133e+02	-1.898661e+01
1.110511e+02	-1.903486e+01
1.116925e+02	-1.908394e+01
1.123376e+02	-1.913423e+01
1.129865e+02	-1.918395e+01
1.136391e+02	-1.923399e+01
1.142955e+02	-1.928181e+01
1.149556e+02	-1.933143e+01
1.156196e+02	-1.938171e+01
1.162874e+02	-1.943133e+01
1.169591e+02	-1.948044e+01
1.176347e+02	-1.952946e+01
1.183141e+02	-1.957883e+01
1.189975e+02	-1.962919e+01
1.196848e+02	-1.967911e+01
1.203761e+02	-1.972792e+01
1.210714e+02	-1.977467e+01
1.217707e+02	-1.982720e+01
1.224740e+02	-1.987671e+01
1.231814e+02	-1.992642e+01
1.238929e+02	-1.997522e+01
1.246085e+02	-2.002593e+01
1.253283e+02	-2.007250e+01
1.260522e+02	-2.012601e+01
1.267802e+02	-2.017402e+01
1.275125e+02	-2.022268e+01
1.282490e+02	-2.027303e+01
1.289898e+02	-2.032186e+01
1.297348e+02	-2.036981e+01
1.304842e+02	-2.042062e+01
1.312378e+02	-2.046937e+01
1.319959e+02	-2.051980e+01
1.327583e+02	-2.057104e+01
1.335251e+02	-2.062026e+01
1.342963e+02	-2.066847e+01
1.350720e+02	-2.071966e+01
1.358522e+02	-2.076840e+01
1.366368e+02	-2.081954e+01
1.374260e+02	-2.086851e+01
1.382198e+02	-2.091729e+01
1.390182e+02	-2.096704e+01
1.398211e+02	-2.101706e+01
1.406287e+02	-2.106744e+01
1.414410e+02	-2.111510e+01
1.422579e+02	-2.116661e+01
1.430796e+02	-2.121583e+01
1.439060e+02	-2.126416e+01
1.447372e+02	-2.131482e+01
1.455732e+02	-2.136263e+01
1.464141e+02	-2.141404e+01
1.472597e+02	-2.146314e+01
1.481103e+02	-2.151462e+01
1.489658e+02	-2.156255e+01
1.498262e+02	-2.161305e+01
1.506916e+02	-2.166288e+01
1.515620e+02	-2.171294e+01
1.524374e+02	-2.176110e+01
1.533179e+02	-2.181141e+01
1.542034e+02	-2.185996e+01
1.550941e+02	-2.191147e+01
1.559899e+02	-2.196221e+01
1.568909e+02	-2.201185e+01
1.577971e+02	-2.206071e+01
1.587085e+02	-2.210933e+01
1.596252e+02	-2.216172e+01
1.605472e+02	-2.220923e+01
1.614745e+02	-2.226088e+01
1.624072e+02	-2.231026e+01
1.633453e+02	-2.236013e+01
1.642887e+02	-2.240705e+01
1.652377e+02	-2.245650e+01
1.661921e+02	-2.250712e+01
1.671520e+02	-2.255852e+01
1.681175e+02	-2.260924e+01
1.690885e+02	-2.265733e+01
1.700651e+02	-2.270792e+01
1.710474e+02	-2.275591e+01
1.720354e+02	-2.280712e+01
1.730291e+02	-2.285740e+01
1.740285e+02	-2.290497e+01
1.750337e+02	-2.295785e+01
1.760446e+02	-2.300640e+01
1.770615e+02	-2.305456e+01
1.780842e+02	-2.310533e+01
1.791128e+02	-2.315506e+01
1.801473e+02	-2.320559e+01
1.811878e+02	-2.325580e+01
1.822344e+02	-2.330622e+01
1.832870e+02	-2.335543e+01
1.843456e+02	-2.340377e+01
1.854104e+02	-2.345377e+01
1.864813e+02	-2.350103e+01
1.875584e+02	-2.355200e+01
1.886418e+02	-2.360142e+01
1.897313e+02	-2.365262e+01
1.908272e+02	-2.370380e+01
1.919294e+02	-2.375388e+01
1.930380e+02	-2.380227e+01
1.941530e+02	-2.385227e+01
1.952744e+02	-2.390109e+01
1.964023e+02	-2.395559e+01
1.975367e+02	-2.400257e+01
1.986777e+02	-2.404962e+01
1.998252e+02	-2.410463e+01
2.009794e+02	-2.415082e+01
2.021403e+02	-2.419963e+01
2.033078e+02	-2.425141e+01
2.044821e+02	-2.430320e+01
2.056632e+02	-2.434950e+01
2.068511e+02	-2.440205e+01
2.080459e+02	-2.445218e+01
2.092475e+02	-2.450285e+01
2.104561e+02	-2.455253e+01
2.116717e+02	-2.460272e+01
2.128943e+02	-2.465048e+01
2.141240e+02	-2.469891e+01
2.153608e+02	-2.474872e+01
2.166047e+02	-2.480004e+01
2.178558e+02	-2.484959e+01
2.191141e+02	-2.490105e+01
2.203797e+02	-2.495006e+01
2.216526e+02	-2.500067e+01
2.229329e+02	-2.505290e+01
2.242205e+02	-2.509717e+01
2.255156e+02	-2.514815e+01
2.268182e+02	-2.519719e+01
2.281283e+02	-2.524741e+01
2.294459e+02	-2.530076e+01
2.307712e+02	-2.534804e+01
2.321041e+02	-2.539971e+01
2.334447e+02	-2.545082e+01
2.347931e+02	-2.549681e+01
2.361493e+02	-2.554606e+01
2.375133e+02	-2.559665e+01
2.388851e+02	-2.564888e+01
2.402649e+02	-2.570224e+01
2.416527e+02	-2.574929e+01
2.430484e+02	-2.579984e+01
2.444523e+02	-2.584683e+01
2.458642e+02	-2.590258e+01
2.472843e+02	-2.594807e+01
2.487126e+02	-2.599997e+01
2.501492e+02	-2.604829e+01
2.515940e+02	-2.609900e+01
2.530472e+02	-2.614816e+01
2.545088e+02	-2.619972e+01
2.559789e+02	-2.625095e+01
2.574574e+02	-2.629742e+01
2.589444e+02	-2.634614e+01
2.604401e+02	-2.639593e+01
2.619444e+02	-2.644714e+01
2.634574e+02	-2.649562e+01
2.649791e+02	-2.654609e+01
2.665096e+02	-2.659919e+01
2.680489e+02	-2.664434e+01
2.695972e+02	-2.669869e+01
2.711544e+02	-2.674729e+01
2.727205e+02	-2.679785e+01
2.742958e+02	-2.684754e+01
2.758801e+02	-2.689962e+01
2.774736e+02	-2.694819e+01
2.790762e+02	-2.699680e+01
2.806882e+02	-2.704541e+01
2.823094e+02	-2.709709e+01
2.839400e+02	-2.714817e+01
2.855800e+02	-2.720048e+01
2.872295e+02	-2.724720e+01
2.888886e+02	-2.729623e+01
2.905572e+02	-2.734826e+01
2.922354e+02	-2.739736e+01
2.939234e+02	-2.745062e+01
2.956211e+02	-2.749554e+01
2.973286e+02	-2.754842e+01
2.990459e+02	-2.759641e+01
3.007732e+02	-2.764380e+01
3.025104e+02	-2.770041e+01
3.042577e+02	-2.774661e+01
3.060151e+02	-2.779858e+01
3.077826e+02	-2.784891e+01
3.095604e+02	-2.789312e+01
3.113484e+02	-2.795064e+01
3.131467e+02	-2.799865e+01
3.149554e+02	-2.804740e+01
3.167746e+02	-2.809986e+01
3.186043e+02	-2.814976e+01
3.204445e+02	-2.819797e+01
3.222954e+02	-2.824497e+01
3.241570e+02	-2.829653e+01
3.260293e+02	-2.834855e+01
3.279124e+02	-2.839929e+01
3.298064e+02	-2.844864e+01
3.317114e+02	-2.849907e+01
3.336273e+02	-2.854749e+01
3.355544e+02	-2.859977e+01
3.374925e+02	-2.865128e+01
3.394418e+02	-2.869900e+01
3.414024e+02	-2.874838e+01
3.433744e+02	-2.879882e+01
3.453577e+02	-2.884736e+01
3.473525e+02	-2.889602e+01
3.493588e+02	-2.894817e+01
3.513766e+02	-2.899570e+01
3.534062e+02	-2.905354e+01
3.554474e+02	-2.910119e+01
3.575005e+02	-2.914694e+01
3.595654e+02	-2.919544e+01
3.616422e+02	-2.924874e+01
3.637311e+02	-2.929767e+01
3.658320e+02	-2.935195e+01
3.679450e+02	-2.939602e+01
3.700702e+02	-2.945126e+01
3.722077e+02	-2.949693e+01
3.743576e+02	-2.955385e+01
3.765199e+02	-2.959686e+01
3.786946e+02	-2.964749e+01
3.808820e+02	-2.969869e+01
3.830819e+02	-2.975195e+01
3.852946e+02	-2.979751e+01
3.875200e+02	-2.985412e+01
3.897583e+02	-2.989942e+01
3.920096e+02	-2.994784e+01
3.942738e+02	-2.999787e+01
3.965511e+02	-3.005218e+01
3.988416e+02	-3.010715e+01
4.011452e+02	-3.014998e+01
4.034622e+02	-3.020019e+01
4.057926e+02	-3.025506e+01
4.081365e+02	-3.030386e+01
4.104938e+02	-3.035547e+01
4.128648e+02	-3.040109e+01
4.152495e+02	-3.045063e+01
4.176480e+02	-3.050088e+01
4.200603e+02	-3.054900e+01
4.224866e+02	-3.060411e+01
4.249268e+02	-3.065245e+01
4.273812e+02	-3.069958e+01
4.298497e+02	-3.074923e+01
4.323325e+02	-3.080309e+01
4.348297e+02	-3.085224e+01
4.373412e+02	-3.089991e+01
4.398673e+02	-3.095082e+01
4.424079e+02	-3.100329e+01
4.449633e+02	-3.105531e+01
4.475334e+02	-3.110187e+01
4.501183e+02	-3.115122e+01
4.527182e+02	-3.120334e+01
4.553330e+02	-3.124926e+01
4.579630e+02	-3.130284e+01
4.606082e+02	-3.135733e+01
4.632687e+02	-3.140451e+01
4.659445e+02	-3.146047e+01
4.686358e+02	-3.150505e+01
4.713426e+02	-3.155503e+01
4.740650e+02	-3.160254e+01
4.768032e+02	-3.165623e+01
4.795572e+02	-3.169931e+01
4.823271e+02	-3.175045e+01
4.851130e+02	-3.180286e+01
4.879150e+02	-3.185493e+01
4.907332e+02	-3.190218e+01
4.935676e+02	-3.195519e+01
4.964185e+02	-3.200790e+01
4.992858e+02	-3.206057e+01
5.021696e+02	-3.210692e+01
5.050701e+02	-3.216133e+01
5.079874e+02	-3.220768e+01
5.109215e+02	-3.225282e+01
5.138726e+02	-3.230446e+01
5.168407e+02	-3.235499e+01
5.198259e+02	-3.240648e+01
5.228284e+02	-3.245531e+01
5.258482e+02	-3.251342e+01
5.288855e+02	-3.255605e+01
5.319403e+02	-3.261572e+01
5.350128e+02	-3.265835e+01
5.381030e+02	-3.270596e+01
5.412111e+02	-3.275659e+01
5.443371e+02	-3.281293e+01
5.474812e+02	-3.285856e+01
5.506434e+02	-3.290990e+01
5.538239e+02	-3.296241e+01
5.570228e+02	-3.300225e+01
5.602401e+02	-3.306024e+01
5.634760e+02	-3.311183e+01
5.667306e+02	-3.315518e+01
5.700040e+02	-3.320757e+01
5.732964e+02	-3.326389e+01
5.766077e+02	-3.331271e+01
5.799382e+02	-3.336561e+01
5.832879e+02	-3.341039e+01
5.866569e+02	-3.345465e+01
5.900454e+02	-3.351394e+01
5.934535e+02	-3.355996e+01
5.968813e+02	-3.360548e+01
6.003288e+02	-3.366416e+01
6.037963e+02	-3.371101e+01
6.072838e+02	-3.376735e+01
6.107914e+02	-3.380831e+01
6.143194e+02	-3.386137e+01
6.178676e+02	-3.391599e+01
6.214364e+02	-3.396020e+01
6.250258e+02	-3.401480e+01
6.286359e+02	-3.407416e+01
6.322669e+02	-3.411409e+01
6.359189e+02	-3.417001e+01
6.395919e+02	-3.421293e+01
6.432862e+02	-3.425928e+01
6.470017e+02	-3.432125e+01
6.507388e+02	-3.437019e+01
6.544974e+02	-3.441312e+01
6.582778e+02	-3.447484e+01
6.620800e+02	-3.451470e+01
6.659041e+02	-3.456869e+01
6.697504e+02	-3.462314e+01
6.736188e+02	-3.467414e+01
6.775096e+02	-3.472592e+01
6.814229e+02	-3.477298e+01
6.853587e+02	-3.482339e+01
6.893173e+02	-3.486989e+01
6.932988e+02	-3.491776e+01
6.973033e+02	-3.497467e+01
7.013309e+02	-3.501935e+01
