Frequency(Hz)	Magnitude(dB)
1.000000e+01	-1.724818e-05
1.005776e+01	-1.744801e-05
1.011585e+01	-1.765015e-05
1.017428e+01	-1.785463e-05
1.023305e+01	-1.806148e-05
1.029215e+01	-1.827073e-05
1.035160e+01	-1.848240e-05
1.041139e+01	-1.869652e-05
1.047153e+01	-1.891312e-05
1.053201e+01	-1.913224e-05
1.059284e+01	-1.935389e-05
1.065403e+01	-1.957811e-05
1.071556e+01	-1.980493e-05
1.077746e+01	-2.003437e-05
1.083971e+01	-2.026648e-05
1.090232e+01	-2.050127e-05
1.096529e+01	-2.073878e-05
1.102862e+01	-2.097904e-05
1.109232e+01	-2.122209e-05
1.115639e+01	-2.146795e-05
1.122083e+01	-2.171667e-05
1.128564e+01	-2.196826e-05
1.135083e+01	-2.222277e-05
1.141639e+01	-2.248022e-05
1.148233e+01	-2.274066e-05
1.154865e+01	-2.300412e-05
1.161536e+01	-2.327063e-05
1.168245e+01	-2.354022e-05
1.174992e+01	-2.381294e-05
1.181779e+01	-2.408882e-05
1.188605e+01	-2.436790e-05
1.195470e+01	-2.465020e-05
1.202375e+01	-2.493578e-05
1.209320e+01	-2.522467e-05
1.216305e+01	-2.551690e-05
1.223330e+01	-2.581252e-05
1.230396e+01	-2.611157e-05
1.237503e+01	-2.641408e-05
1.244651e+01	-2.672009e-05
1.251840e+01	-2.702965e-05
1.259070e+01	-2.734279e-05
1.266343e+01	-2.765957e-05
1.273657e+01	-2.798001e-05
1.281014e+01	-2.830417e-05
1.288413e+01	-2.863208e-05
1.295855e+01	-2.896379e-05
1.303339e+01	-2.929934e-05
1.310867e+01	-2.963878e-05
1.318439e+01	-2.998215e-05
1.326054e+01	-3.032950e-05
1.333713e+01	-3.068088e-05
1.341417e+01	-3.103632e-05
1.349165e+01	-3.139588e-05
1.356958e+01	-3.175961e-05
1.364795e+01	-3.212756e-05
1.372678e+01	-3.249976e-05
1.380607e+01	-3.287628e-05
1.388581e+01	-3.325716e-05
1.396602e+01	-3.364245e-05
1.404668e+01	-3.403221e-05
1.412782e+01	-3.442648e-05
1.420942e+01	-3.482531e-05
1.429149e+01	-3.522877e-05
1.437404e+01	-3.563691e-05
1.445706e+01	-3.604977e-05
1.454057e+01	-3.646741e-05
1.462455e+01	-3.688990e-05
1.470902e+01	-3.731728e-05
1.479398e+01	-3.774961e-05
1.487943e+01	-3.818694e-05
1.496537e+01	-3.862935e-05
1.505181e+01	-3.907688e-05
1.513875e+01	-3.952959e-05
1.522619e+01	-3.998755e-05
1.531414e+01	-4.045082e-05
1.540259e+01	-4.091945e-05
1.549156e+01	-4.139351e-05
1.558103e+01	-4.187306e-05
1.567103e+01	-4.235817e-05
1.576155e+01	-4.284890e-05
1.585258e+01	-4.334531e-05
1.594415e+01	-4.384748e-05
1.603624e+01	-4.435546e-05
1.612886e+01	-4.486933e-05
1.622202e+01	-4.538915e-05
1.631572e+01	-4.591499e-05
1.640996e+01	-4.644693e-05
1.650474e+01	-4.698503e-05
1.660008e+01	-4.752936e-05
1.669596e+01	-4.808000e-05
1.679239e+01	-4.863701e-05
1.688938e+01	-4.920048e-05
1.698694e+01	-4.977048e-05
1.708505e+01	-5.034708e-05
1.718373e+01	-5.093036e-05
1.728299e+01	-5.152040e-05
1.738281e+01	-5.211728e-05
1.748322e+01	-5.272107e-05
1.758420e+01	-5.333185e-05
1.768576e+01	-5.394971e-05
1.778792e+01	-5.457473e-05
1.789066e+01	-5.520699e-05
1.799399e+01	-5.584658e-05
1.809793e+01	-5.649357e-05
1.820246e+01	-5.714806e-05
1.830760e+01	-5.781013e-05
1.841334e+01	-5.847987e-05
1.851969e+01	-5.915737e-05
1.862666e+01	-5.984272e-05
1.873425e+01	-6.053601e-05
1.884246e+01	-6.123734e-05
1.895129e+01	-6.194678e-05
1.906075e+01	-6.266445e-05
1.917085e+01	-6.339043e-05
1.928158e+01	-6.412482e-05
1.939295e+01	-6.486772e-05
1.950496e+01	-6.561922e-05
1.961762e+01	-6.637943e-05
1.973093e+01	-6.714845e-05
1.984490e+01	-6.792638e-05
1.995952e+01	-6.871332e-05
2.007480e+01	-6.950937e-05
2.019076e+01	-7.031465e-05
2.030738e+01	-7.112926e-05
2.042467e+01	-7.195331e-05
2.054264e+01	-7.278690e-05
2.066130e+01	-7.363015e-05
2.078064e+01	-7.448317e-05
2.090066e+01	-7.534607e-05
2.102139e+01	-7.621897e-05
2.114280e+01	-7.710198e-05
2.126492e+01	-7.799522e-05
2.138775e+01	-7.889880e-05
2.151128e+01	-7.981286e-05
2.163553e+01	-8.073751e-05
2.176050e+01	-8.167286e-05
2.188619e+01	-8.261906e-05
2.201260e+01	-8.357621e-05
2.213974e+01	-8.454446e-05
2.226762e+01	-8.552392e-05
2.239624e+01	-8.651473e-05
2.252560e+01	-8.751702e-05
2.265571e+01	-8.853091e-05
2.278656e+01	-8.955656e-05
2.291818e+01	-9.059409e-05
2.305055e+01	-9.164363e-05
2.318369e+01	-9.270534e-05
2.331760e+01	-9.377934e-05
2.345228e+01	-9.486579e-05
2.358774e+01	-9.596483e-05
2.372398e+01	-9.707659e-05
2.386101e+01	-9.820124e-05
2.399883e+01	-9.933892e-05
2.413745e+01	-1.004898e-04
2.427686e+01	-1.016540e-04
2.441709e+01	-1.028316e-04
2.455812e+01	-1.040230e-04
2.469997e+01	-1.052281e-04
2.484263e+01	-1.064472e-04
2.498612e+01	-1.076804e-04
2.513044e+01	-1.089279e-04
2.527559e+01	-1.101898e-04
2.542158e+01	-1.114664e-04
2.556842e+01	-1.127577e-04
2.571610e+01	-1.140640e-04
2.586463e+01	-1.153855e-04
2.601403e+01	-1.167222e-04
2.616428e+01	-1.180745e-04
2.631541e+01	-1.194424e-04
2.646740e+01	-1.208261e-04
2.662028e+01	-1.222259e-04
2.677404e+01	-1.236419e-04
2.692868e+01	-1.250743e-04
2.708422e+01	-1.265233e-04
2.724066e+01	-1.279891e-04
2.739800e+01	-1.294719e-04
2.755625e+01	-1.309718e-04
2.771541e+01	-1.324891e-04
2.787550e+01	-1.340240e-04
2.803650e+01	-1.355767e-04
2.819844e+01	-1.371474e-04
2.836131e+01	-1.387363e-04
2.852513e+01	-1.403435e-04
2.868989e+01	-1.419694e-04
2.885560e+01	-1.436142e-04
2.902227e+01	-1.452779e-04
2.918990e+01	-1.469610e-04
2.935850e+01	-1.486635e-04
2.952807e+01	-1.503858e-04
2.969863e+01	-1.521281e-04
2.987016e+01	-1.538905e-04
3.004269e+01	-1.556733e-04
3.021622e+01	-1.574768e-04
3.039075e+01	-1.593012e-04
3.056628e+01	-1.611467e-04
3.074283e+01	-1.630136e-04
3.092040e+01	-1.649021e-04
3.109900e+01	-1.668125e-04
3.127862e+01	-1.687450e-04
3.145929e+01	-1.706999e-04
3.164099e+01	-1.726775e-04
3.182375e+01	-1.746780e-04
3.200756e+01	-1.767016e-04
3.219244e+01	-1.787487e-04
3.237838e+01	-1.808196e-04
3.256540e+01	-1.829144e-04
3.275349e+01	-1.850334e-04
3.294268e+01	-1.871770e-04
3.313295e+01	-1.893455e-04
3.332433e+01	-1.915391e-04
3.351681e+01	-1.937580e-04
3.371040e+01	-1.960027e-04
3.390511e+01	-1.982734e-04
3.410094e+01	-2.005704e-04
3.429791e+01	-2.028940e-04
3.449601e+01	-2.052446e-04
3.469526e+01	-2.076223e-04
3.489566e+01	-2.100276e-04
3.509721e+01	-2.124608e-04
3.529993e+01	-2.149222e-04
3.550382e+01	-2.174120e-04
3.570889e+01	-2.199307e-04
3.591515e+01	-2.224786e-04
3.612259e+01	-2.250560e-04
3.633123e+01	-2.276633e-04
3.654108e+01	-2.303008e-04
3.675214e+01	-2.329688e-04
3.696442e+01	-2.356678e-04
3.717792e+01	-2.383980e-04
3.739266e+01	-2.411598e-04
3.760864e+01	-2.439536e-04
3.782587e+01	-2.467798e-04
3.804435e+01	-2.496387e-04
3.826409e+01	-2.525308e-04
3.848510e+01	-2.554563e-04
3.870739e+01	-2.584158e-04
3.893096e+01	-2.614095e-04
3.915583e+01	-2.644379e-04
3.938199e+01	-2.675014e-04
3.960946e+01	-2.706004e-04
3.983824e+01	-2.737353e-04
4.006834e+01	-2.769065e-04
4.029978e+01	-2.801144e-04
4.053255e+01	-2.833595e-04
4.076666e+01	-2.866422e-04
4.100213e+01	-2.899629e-04
4.123896e+01	-2.933221e-04
4.147715e+01	-2.967202e-04
4.171672e+01	-3.001577e-04
4.195767e+01	-3.036350e-04
4.220002e+01	-3.071525e-04
4.244377e+01	-3.107108e-04
4.268892e+01	-3.143104e-04
4.293549e+01	-3.179516e-04
4.318348e+01	-3.216350e-04
4.343291e+01	-3.253611e-04
4.368377e+01	-3.291304e-04
4.393609e+01	-3.329433e-04
4.418986e+01	-3.368004e-04
4.444510e+01	-3.407022e-04
4.470182e+01	-3.446492e-04
4.496001e+01	-3.486419e-04
4.521970e+01	-3.526808e-04
4.548089e+01	-3.567665e-04
4.574358e+01	-3.608996e-04
4.600779e+01	-3.650806e-04
4.627353e+01	-3.693099e-04
4.654081e+01	-3.735883e-04
4.680963e+01	-3.779162e-04
4.708000e+01	-3.822943e-04
4.735193e+01	-3.867231e-04
4.762543e+01	-3.912032e-04
4.790051e+01	-3.957352e-04
4.817719e+01	-4.003197e-04
4.845545e+01	-4.049573e-04
4.873533e+01	-4.096486e-04
4.901682e+01	-4.143943e-04
4.929994e+01	-4.191949e-04
4.958470e+01	-4.240512e-04
4.987110e+01	-4.289637e-04
5.015915e+01	-4.339331e-04
5.044887e+01	-4.389601e-04
5.074026e+01	-4.440453e-04
5.103333e+01	-4.491894e-04
5.132810e+01	-4.543931e-04
5.162457e+01	-4.596571e-04
5.192275e+01	-4.649821e-04
5.222265e+01	-4.703687e-04
5.252429e+01	-4.758178e-04
5.282767e+01	-4.813299e-04
5.313280e+01	-4.869060e-04
5.343969e+01	-4.925466e-04
5.374836e+01	-4.982526e-04
5.405880e+01	-5.040246e-04
5.437105e+01	-5.098635e-04
5.468509e+01	-5.157701e-04
5.500095e+01	-5.217451e-04
5.531863e+01	-5.277893e-04
5.563815e+01	-5.339035e-04
5.595951e+01	-5.400885e-04
5.628273e+01	-5.463452e-04
5.660782e+01	-5.526743e-04
5.693479e+01	-5.590768e-04
5.726364e+01	-5.655535e-04
5.759439e+01	-5.721051e-04
5.792705e+01	-5.787327e-04
5.826164e+01	-5.854370e-04
5.859815e+01	-5.922190e-04
5.893662e+01	-5.990795e-04
5.927703e+01	-6.060195e-04
5.961941e+01	-6.130400e-04
5.996377e+01	-6.201417e-04
6.031012e+01	-6.273257e-04
6.065847e+01	-6.345929e-04
6.100883e+01	-6.419443e-04
6.136121e+01	-6.493808e-04
6.171563e+01	-6.569035e-04
6.207210e+01	-6.645133e-04
6.243063e+01	-6.722113e-04
6.279122e+01	-6.799985e-04
6.315390e+01	-6.878758e-04
6.351868e+01	-6.958444e-04
6.388556e+01	-7.039053e-04
6.425456e+01	-7.120596e-04
6.462569e+01	-7.203083e-04
6.499897e+01	-7.286525e-04
6.537440e+01	-7.370935e-04
6.575200e+01	-7.456322e-04
6.613178e+01	-7.542698e-04
6.651375e+01	-7.630074e-04
6.689793e+01	-7.718463e-04
6.728433e+01	-7.807875e-04
6.767297e+01	-7.898323e-04
6.806384e+01	-7.989819e-04
6.845698e+01	-8.082375e-04
6.885238e+01	-8.176003e-04
6.925007e+01	-8.270715e-04
6.965005e+01	-8.366524e-04
7.005235e+01	-8.463443e-04
7.045697e+01	-8.561485e-04
7.086393e+01	-8.660662e-04
7.127323e+01	-8.760988e-04
7.168490e+01	-8.862476e-04
7.209895e+01	-8.965140e-04
7.251539e+01	-9.068993e-04
7.293424e+01	-9.174048e-04
7.335551e+01	-9.280321e-04
7.377920e+01	-9.387824e-04
7.420535e+01	-9.496573e-04
7.463396e+01	-9.606581e-04
7.506504e+01	-9.717863e-04
7.549861e+01	-9.830435e-04
7.593469e+01	-9.944310e-04
7.637328e+01	-1.005950e-03
7.681441e+01	-1.017603e-03
7.725809e+01	-1.029391e-03
7.770433e+01	-1.041315e-03
7.815315e+01	-1.053378e-03
7.860456e+01	-1.065580e-03
7.905857e+01	-1.077924e-03
7.951521e+01	-1.090410e-03
7.997449e+01	-1.103041e-03
8.043642e+01	-1.115819e-03
8.090102e+01	-1.128744e-03
8.136830e+01	-1.141819e-03
8.183828e+01	-1.155045e-03
8.231097e+01	-1.168425e-03
8.278640e+01	-1.181960e-03
8.326457e+01	-1.195651e-03
8.374550e+01	-1.209501e-03
8.422921e+01	-1.223512e-03
8.471572e+01	-1.237684e-03
8.520503e+01	-1.252021e-03
8.569717e+01	-1.266524e-03
8.619215e+01	-1.281195e-03
8.669000e+01	-1.296036e-03
8.719071e+01	-1.311048e-03
8.769432e+01	-1.326235e-03
8.820084e+01	-1.341597e-03
8.871029e+01	-1.357138e-03
8.922267e+01	-1.372858e-03
8.973802e+01	-1.388760e-03
9.025634e+01	-1.404847e-03
9.077766e+01	-1.421120e-03
9.130199e+01	-1.437581e-03
9.182935e+01	-1.454233e-03
9.235975e+01	-1.471078e-03
9.289321e+01	-1.488118e-03
9.342976e+01	-1.505355e-03
9.396941e+01	-1.522792e-03
9.451217e+01	-1.540431e-03
9.505807e+01	-1.558274e-03
9.560712e+01	-1.576324e-03
9.615934e+01	-1.594583e-03
9.671476e+01	-1.613053e-03
9.727338e+01	-1.631737e-03
9.783522e+01	-1.650637e-03
9.840032e+01	-1.669757e-03
9.896867e+01	-1.689098e-03
9.954031e+01	-1.708662e-03
1.001153e+02	-1.728454e-03
1.006935e+02	-1.748474e-03
1.012751e+02	-1.768727e-03
1.018601e+02	-1.789214e-03
1.024484e+02	-1.809938e-03
1.030402e+02	-1.830902e-03
1.036353e+02	-1.852109e-03
1.042339e+02	-1.873562e-03
1.048360e+02	-1.895263e-03
1.054415e+02	-1.917215e-03
1.060505e+02	-1.939421e-03
1.066631e+02	-1.961885e-03
1.072791e+02	-1.984609e-03
1.078988e+02	-2.007596e-03
1.085220e+02	-2.030849e-03
1.091488e+02	-2.054371e-03
1.097793e+02	-2.078166e-03
1.104133e+02	-2.102236e-03
1.110511e+02	-2.126585e-03
1.116925e+02	-2.151216e-03
1.123376e+02	-2.176132e-03
1.129865e+02	-2.201337e-03
1.136391e+02	-2.226834e-03
1.142955e+02	-2.252625e-03
1.149556e+02	-2.278716e-03
1.156196e+02	-2.305108e-03
1.162874e+02	-2.331806e-03
1.169591e+02	-2.358814e-03
1.176347e+02	-2.386134e-03
1.183141e+02	-2.413770e-03
1.189975e+02	-2.441726e-03
1.196848e+02	-2.470006e-03
1.203761e+02	-2.498614e-03
1.210714e+02	-2.527552e-03
1.217707e+02	-2.556826e-03
1.224740e+02	-2.586439e-03
1.231814e+02	-2.616394e-03
1.238929e+02	-2.646697e-03
1.246085e+02	-2.677350e-03
1.253283e+02	-2.708358e-03
1.260522e+02	-2.739725e-03
1.267802e+02	-2.771455e-03
1.275125e+02	-2.803553e-03
1.282490e+02	-2.836022e-03
1.289898e+02	-2.868867e-03
1.297348e+02	-2.902093e-03
1.304842e+02	-2.935703e-03
1.312378e+02	-2.969702e-03
1.319959e+02	-3.004095e-03
1.327583e+02	-3.038886e-03
1.335251e+02	-3.074080e-03
1.342963e+02	-3.109681e-03
1.350720e+02	-3.145695e-03
1.358522e+02	-3.182125e-03
1.366368e+02	-3.218977e-03
1.374260e+02	-3.256256e-03
1.382198e+02	-3.293966e-03
1.390182e+02	-3.332113e-03
1.398211e+02	-3.370701e-03
1.406287e+02	-3.409736e-03
1.414410e+02	-3.449223e-03
1.422579e+02	-3.489167e-03
1.430796e+02	-3.529574e-03
1.439060e+02	-3.570448e-03
1.447372e+02	-3.611795e-03
1.455732e+02	-3.653621e-03
1.464141e+02	-3.695931e-03
1.472597e+02	-3.738731e-03
1.481103e+02	-3.782027e-03
1.489658e+02	-3.825823e-03
1.498262e+02	-3.870126e-03
1.506916e+02	-3.914943e-03
1.515620e+02	-3.960277e-03
1.524374e+02	-4.006137e-03
1.533179e+02	-4.052528e-03
1.542034e+02	-4.099455e-03
1.550941e+02	-4.146926e-03
1.559899e+02	-4.194945e-03
1.568909e+02	-4.243521e-03
1.577971e+02	-4.292659e-03
1.587085e+02	-4.342366e-03
1.596252e+02	-4.392648e-03
1.605472e+02	-4.443512e-03
1.614745e+02	-4.494964e-03
1.624072e+02	-4.547012e-03
1.633453e+02	-4.599663e-03
1.642887e+02	-4.652922e-03
1.652377e+02	-4.706798e-03
1.661921e+02	-4.761298e-03
1.671520e+02	-4.816428e-03
1.681175e+02	-4.872196e-03
1.690885e+02	-4.928610e-03
1.700651e+02	-4.985676e-03
1.710474e+02	-5.043403e-03
1.720354e+02	-5.101798e-03
1.730291e+02	-5.160868e-03
1.740285e+02	-5.220622e-03
1.750337e+02	-5.281067e-03
1.760446e+02	-5.342212e-03
1.770615e+02	-5.404064e-03
1.780842e+02	-5.466632e-03
1.791128e+02	-5.529924e-03
1.801473e+02	-5.593949e-03
1.811878e+02	-5.658714e-03
1.822344e+02	-5.724228e-03
1.832870e+02	-5.790500e-03
1.843456e+02	-5.857539e-03
1.854104e+02	-5.925354e-03
1.864813e+02	-5.993953e-03
1.875584e+02	-6.063346e-03
1.886418e+02	-6.133542e-03
1.897313e+02	-6.204550e-03
1.908272e+02	-6.276379e-03
1.919294e+02	-6.349039e-03
1.930380e+02	-6.422540e-03
1.941530e+02	-6.496891e-03
1.952744e+02	-6.572102e-03
1.964023e+02	-6.648183e-03
1.975367e+02	-6.725144e-03
1.986777e+02	-6.802995e-03
1.998252e+02	-6.881747e-03
2.009794e+02	-6.961410e-03
2.021403e+02	-7.041994e-03
2.033078e+02	-7.123510e-03
2.044821e+02	-7.205969e-03
2.056632e+02	-7.289382e-03
2.068511e+02	-7.373759e-03
2.080459e+02	-7.459113e-03
2.092475e+02	-7.545453e-03
2.104561e+02	-7.632792e-03
2.116717e+02	-7.721141e-03
2.128943e+02	-7.810512e-03
2.141240e+02	-7.900916e-03
2.153608e+02	-7.992366e-03
2.166047e+02	-8.084873e-03
2.178558e+02	-8.178450e-03
2.191141e+02	-8.273109e-03
2.203797e+02	-8.368862e-03
2.216526e+02	-8.465723e-03
2.229329e+02	-8.563703e-03
2.242205e+02	-8.662817e-03
2.255156e+02	-8.763076e-03
2.268182e+02	-8.864495e-03
2.281283e+02	-8.967086e-03
2.294459e+02	-9.070863e-03
2.307712e+02	-9.175840e-03
2.321041e+02	-9.282030e-03
2.334447e+02	-9.389448e-03
2.347931e+02	-9.498108e-03
2.361493e+02	-9.608024e-03
2.375133e+02	-9.719211e-03
2.388851e+02	-9.831682e-03
2.402649e+02	-9.945454e-03
2.416527e+02	-1.006054e-02
2.430484e+02	-1.017696e-02
2.444523e+02	-1.029472e-02
2.458642e+02	-1.041384e-02
2.472843e+02	-1.053434e-02
2.487126e+02	-1.065624e-02
2.501492e+02	-1.077954e-02
2.515940e+02	-1.090426e-02
2.530472e+02	-1.103043e-02
2.545088e+02	-1.115806e-02
2.559789e+02	-1.128716e-02
2.574574e+02	-1.141775e-02
2.589444e+02	-1.154985e-02
2.604401e+02	-1.168348e-02
2.619444e+02	-1.181865e-02
2.634574e+02	-1.195538e-02
2.649791e+02	-1.209370e-02
2.665096e+02	-1.223361e-02
2.680489e+02	-1.237513e-02
2.695972e+02	-1.251829e-02
2.711544e+02	-1.266311e-02
2.727205e+02	-1.280960e-02
2.742958e+02	-1.295778e-02
2.758801e+02	-1.310767e-02
2.774736e+02	-1.325929e-02
2.790762e+02	-1.341267e-02
2.806882e+02	-1.356781e-02
2.823094e+02	-1.372475e-02
2.839400e+02	-1.388350e-02
2.855800e+02	-1.404408e-02
2.872295e+02	-1.420652e-02
2.888886e+02	-1.437083e-02
2.905572e+02	-1.453704e-02
2.922354e+02	-1.470517e-02
2.939234e+02	-1.487524e-02
2.956211e+02	-1.504728e-02
2.973286e+02	-1.522130e-02
2.990459e+02	-1.539733e-02
3.007732e+02	-1.557539e-02
3.025104e+02	-1.575550e-02
3.042577e+02	-1.593770e-02
3.060151e+02	-1.612200e-02
3.077826e+02	-1.630842e-02
3.095604e+02	-1.649700e-02
3.113484e+02	-1.668775e-02
3.131467e+02	-1.688071e-02
3.149554e+02	-1.707589e-02
3.167746e+02	-1.727332e-02
3.186043e+02	-1.747304e-02
3.204445e+02	-1.767505e-02
3.222954e+02	-1.787940e-02
3.241570e+02	-1.808610e-02
3.260293e+02	-1.829519e-02
3.279124e+02	-1.850669e-02
3.298064e+02	-1.872064e-02
3.317114e+02	-1.893704e-02
3.336273e+02	-1.915595e-02
3.355544e+02	-1.937738e-02
3.374925e+02	-1.960136e-02
3.394418e+02	-1.982793e-02
3.414024e+02	-2.005711e-02
3.433744e+02	-2.028893e-02
3.453577e+02	-2.052343e-02
3.473525e+02	-2.076062e-02
3.493588e+02	-2.100056e-02
3.513766e+02	-2.124326e-02
3.534062e+02	-2.148876e-02
3.554474e+02	-2.173708e-02
3.575005e+02	-2.198827e-02
3.595654e+02	-2.224236e-02
3.616422e+02	-2.249937e-02
3.637311e+02	-2.275935e-02
3.658320e+02	-2.302232e-02
3.679450e+02	-2.328832e-02
3.700702e+02	-2.355739e-02
3.722077e+02	-2.382955e-02
3.743576e+02	-2.410486e-02
3.765199e+02	-2.438333e-02
3.786946e+02	-2.466501e-02
3.808820e+02	-2.494994e-02
3.830819e+02	-2.523815e-02
3.852946e+02	-2.552968e-02
3.875200e+02	-2.582456e-02
3.897583e+02	-2.612285e-02
3.920096e+02	-2.642456e-02
3.942738e+02	-2.672975e-02
3.965511e+02	-2.703846e-02
3.988416e+02	-2.735071e-02
4.011452e+02	-2.766657e-02
4.034622e+02	-2.798605e-02
4.057926e+02	-2.830922e-02
4.081365e+02	-2.863611e-02
4.104938e+02	-2.896675e-02
4.128648e+02	-2.930120e-02
4.152495e+02	-2.963950e-02
4.176480e+02	-2.998170e-02
4.200603e+02	-3.032783e-02
4.224866e+02	-3.067794e-02
4.249268e+02	-3.103207e-02
4.273812e+02	-3.139029e-02
4.298497e+02	-3.175262e-02
4.323325e+02	-3.211912e-02
4.348297e+02	-3.248983e-02
4.373412e+02	-3.286480e-02
4.398673e+02	-3.324409e-02
4.424079e+02	-3.362773e-02
4.449633e+02	-3.401579e-02
4.475334e+02	-3.440831e-02
4.501183e+02	-3.480533e-02
4.527182e+02	-3.520692e-02
4.553330e+02	-3.561313e-02
4.579630e+02	-3.602400e-02
4.606082e+02	-3.643959e-02
4.632687e+02	-3.685996e-02
4.659445e+02	-3.728515e-02
4.686358e+02	-3.771523e-02
4.713426e+02	-3.815025e-02
4.740650e+02	-3.859026e-02
4.768032e+02	-3.903532e-02
4.795572e+02	-3.948549e-02
4.823271e+02	-3.994084e-02
4.851130e+02	-4.040140e-02
4.879150e+02	-4.086726e-02
4.907332e+02	-4.133846e-02
4.935676e+02	-4.181506e-02
4.964185e+02	-4.229713e-02
4.992858e+02	-4.278474e-02
5.021696e+02	-4.327794e-02
5.050701e+02	-4.377679e-02
5.079874e+02	-4.428136e-02
5.109215e+02	-4.479172e-02
5.138726e+02	-4.530793e-02
5.168407e+02	-4.583006e-02
5.198259e+02	-4.635818e-02
5.228284e+02	-4.689234e-02
5.258482e+02	-4.743263e-02
5.288855e+02	-4.797911e-02
5.319403e+02	-4.853185e-02
5.350128e+02	-4.909092e-02
5.381030e+02	-4.965639e-02
5.412111e+02	-5.022834e-02
5.443371e+02	-5.080684e-02
5.474812e+02	-5.139196e-02
5.506434e+02	-5.198378e-02
5.538239e+02	-5.258238e-02
5.570228e+02	-5.318782e-02
5.602401e+02	-5.380019e-02
5.634760e+02	-5.441957e-02
5.667306e+02	-5.504603e-02
5.700040e+02	-5.567966e-02
5.732964e+02	-5.632054e-02
5.766077e+02	-5.696874e-02
5.799382e+02	-5.762435e-02
5.832879e+02	-5.828746e-02
5.866569e+02	-5.895815e-02
5.900454e+02	-5.963650e-02
5.934535e+02	-6.032260e-02
5.968813e+02	-6.101654e-02
6.003288e+02	-6.171840e-02
6.037963e+02	-6.242828e-02
6.072838e+02	-6.314627e-02
6.107914e+02	-6.387245e-02
6.143194e+02	-6.460692e-02
6.178676e+02	-6.534977e-02
6.214364e+02	-6.610110e-02
6.250258e+02	-6.686100e-02
6.286359e+02	-6.762957e-02
6.322669e+02	-6.840690e-02
6.359189e+02	-6.919310e-02
6.395919e+02	-6.998826e-02
6.432862e+02	-7.079248e-02
6.470017e+02	-7.160586e-02
6.507388e+02	-7.242852e-02
6.544974e+02	-7.326054e-02
6.582778e+02	-7.410204e-02
6.620800e+02	-7.495313e-02
6.659041e+02	-7.581390e-02
6.697504e+02	-7.668447e-02
6.736188e+02	-7.756495e-02
6.775096e+02	-7.845544e-02
6.814229e+02	-7.935607e-02
6.853587e+02	-8.026694e-02
6.893173e+02	-8.118816e-02
6.932988e+02	-8.211986e-02
6.973033e+02	-8.306215e-02
7.013309e+02	-8.401514e-02
