Frequency(Hz)	Magnitude(dB)
1.000000e+01	-2.146419e+00
1.005776e+01	-2.165941e+00
1.011585e+01	-2.185593e+00
1.017428e+01	-2.205521e+00
1.023305e+01	-2.225561e+00
1.029215e+01	-2.245734e+00
1.035160e+01	-2.266001e+00
1.041139e+01	-2.286126e+00
1.047153e+01	-2.306795e+00
1.053201e+01	-2.327586e+00
1.059284e+01	-2.348673e+00
1.065403e+01	-2.369194e+00
1.071556e+01	-2.390451e+00
1.077746e+01	-2.411644e+00
1.083971e+01	-2.432911e+00
1.090232e+01	-2.454541e+00
1.096529e+01	-2.476193e+00
1.102862e+01	-2.498059e+00
1.109232e+01	-2.519923e+00
1.115639e+01	-2.542131e+00
1.122083e+01	-2.564378e+00
1.128564e+01	-2.586620e+00
1.135083e+01	-2.609478e+00
1.141639e+01	-2.631865e+00
1.148233e+01	-2.655015e+00
1.154865e+01	-2.677565e+00
1.161536e+01	-2.700625e+00
1.168245e+01	-2.723929e+00
1.174992e+01	-2.747403e+00
1.181779e+01	-2.771037e+00
1.188605e+01	-2.794498e+00
1.195470e+01	-2.818507e+00
1.202375e+01	-2.842290e+00
1.209320e+01	-2.866406e+00
1.216305e+01	-2.890611e+00
1.223330e+01	-2.915098e+00
1.230396e+01	-2.939473e+00
1.237503e+01	-2.964340e+00
1.244651e+01	-2.989030e+00
1.251840e+01	-3.014254e+00
1.259070e+01	-3.039136e+00
1.266343e+01	-3.064235e+00
1.273657e+01	-3.089724e+00
1.281014e+01	-3.115239e+00
1.288413e+01	-3.141158e+00
1.295855e+01	-3.166782e+00
1.303339e+01	-3.192846e+00
1.310867e+01	-3.218696e+00
1.318439e+01	-3.245187e+00
1.326054e+01	-3.271483e+00
1.333713e+01	-3.298058e+00
1.341417e+01	-3.324570e+00
1.349165e+01	-3.351640e+00
1.356958e+01	-3.378533e+00
1.364795e+01	-3.405621e+00
1.372678e+01	-3.432839e+00
1.380607e+01	-3.460294e+00
1.388581e+01	-3.487874e+00
1.396602e+01	-3.515923e+00
1.404668e+01	-3.543408e+00
1.412782e+01	-3.571330e+00
1.420942e+01	-3.599688e+00
1.429149e+01	-3.627856e+00
1.437404e+01	-3.656040e+00
1.445706e+01	-3.684783e+00
1.454057e+01	-3.713455e+00
1.462455e+01	-3.742213e+00
1.470902e+01	-3.771264e+00
1.479398e+01	-3.800350e+00
1.487943e+01	-3.829426e+00
1.496537e+01	-3.859113e+00
1.505181e+01	-3.888596e+00
1.513875e+01	-3.918119e+00
1.522619e+01	-3.947773e+00
1.531414e+01	-3.977904e+00
1.540259e+01	-4.008147e+00
1.549156e+01	-4.038016e+00
1.558103e+01	-4.068631e+00
1.567103e+01	-4.099338e+00
1.576155e+01	-4.129756e+00
1.585258e+01	-4.160443e+00
1.594415e+01	-4.191394e+00
1.603624e+01	-4.222129e+00
1.612886e+01	-4.253601e+00
1.622202e+01	-4.284947e+00
1.631572e+01	-4.316344e+00
1.640996e+01	-4.347979e+00
1.650474e+01	-4.379480e+00
1.660008e+01	-4.411389e+00
1.669596e+01	-4.443377e+00
1.679239e+01	-4.475572e+00
1.688938e+01	-4.507651e+00
1.698694e+01	-4.539903e+00
1.708505e+01	-4.572346e+00
1.718373e+01	-4.605055e+00
1.728299e+01	-4.637908e+00
1.738281e+01	-4.671030e+00
1.748322e+01	-4.703932e+00
1.758420e+01	-4.736940e+00
1.768576e+01	-4.770266e+00
1.778792e+01	-4.803748e+00
1.789066e+01	-4.837211e+00
1.799399e+01	-4.871157e+00
1.809793e+01	-4.905037e+00
1.820246e+01	-4.938446e+00
1.830760e+01	-4.972739e+00
1.841334e+01	-5.006827e+00
1.851969e+01	-5.041086e+00
1.862666e+01	-5.075394e+00
1.873425e+01	-5.110310e+00
1.884246e+01	-5.144922e+00
1.895129e+01	-5.179201e+00
1.906075e+01	-5.214403e+00
1.917085e+01	-5.249450e+00
1.928158e+01	-5.284705e+00
1.939295e+01	-5.320048e+00
1.950496e+01	-5.355484e+00
1.961762e+01	-5.390729e+00
1.973093e+01	-5.426342e+00
1.984490e+01	-5.462292e+00
1.995952e+01	-5.498059e+00
2.007480e+01	-5.534069e+00
2.019076e+01	-5.570156e+00
2.030738e+01	-5.606233e+00
2.042467e+01	-5.642516e+00
2.054264e+01	-5.679065e+00
2.066130e+01	-5.715684e+00
2.078064e+01	-5.752236e+00
2.090066e+01	-5.789226e+00
2.102139e+01	-5.825978e+00
2.114280e+01	-5.862785e+00
2.126492e+01	-5.900072e+00
2.138775e+01	-5.937183e+00
2.151128e+01	-5.974799e+00
2.163553e+01	-6.011914e+00
2.176050e+01	-6.049509e+00
2.188619e+01	-6.087247e+00
2.201260e+01	-6.125313e+00
2.213974e+01	-6.162873e+00
2.226762e+01	-6.200870e+00
2.239624e+01	-6.238999e+00
2.252560e+01	-6.277109e+00
2.265571e+01	-6.315340e+00
2.278656e+01	-6.353834e+00
2.291818e+01	-6.392155e+00
2.305055e+01	-6.430906e+00
2.318369e+01	-6.469441e+00
2.331760e+01	-6.508601e+00
2.345228e+01	-6.547418e+00
2.358774e+01	-6.586585e+00
2.372398e+01	-6.625875e+00
2.386101e+01	-6.664759e+00
2.399883e+01	-6.703935e+00
2.413745e+01	-6.743129e+00
2.427686e+01	-6.782783e+00
2.441709e+01	-6.822269e+00
2.455812e+01	-6.861949e+00
2.469997e+01	-6.901877e+00
2.484263e+01	-6.941438e+00
2.498612e+01	-6.981516e+00
2.513044e+01	-7.021909e+00
2.527559e+01	-7.061787e+00
2.542158e+01	-7.102117e+00
2.556842e+01	-7.142580e+00
2.571610e+01	-7.183193e+00
2.586463e+01	-7.222862e+00
2.601403e+01	-7.264050e+00
2.616428e+01	-7.304491e+00
2.631541e+01	-7.345138e+00
2.646740e+01	-7.386484e+00
2.662028e+01	-7.426969e+00
2.677404e+01	-7.468013e+00
2.692868e+01	-7.509412e+00
2.708422e+01	-7.550356e+00
2.724066e+01	-7.591763e+00
2.739800e+01	-7.633360e+00
2.755625e+01	-7.674469e+00
2.771541e+01	-7.715873e+00
2.787550e+01	-7.758048e+00
2.803650e+01	-7.799204e+00
2.819844e+01	-7.840779e+00
2.836131e+01	-7.882931e+00
2.852513e+01	-7.924605e+00
2.868989e+01	-7.966714e+00
2.885560e+01	-8.008632e+00
2.902227e+01	-8.050913e+00
2.918990e+01	-8.093026e+00
2.935850e+01	-8.135383e+00
2.952807e+01	-8.178064e+00
2.969863e+01	-8.219727e+00
2.987016e+01	-8.263059e+00
3.004269e+01	-8.305869e+00
3.021622e+01	-8.348256e+00
3.039075e+01	-8.390854e+00
3.056628e+01	-8.433484e+00
3.074283e+01	-8.476675e+00
3.092040e+01	-8.519326e+00
3.109900e+01	-8.562698e+00
3.127862e+01	-8.605649e+00
3.145929e+01	-8.648891e+00
3.164099e+01	-8.692163e+00
3.182375e+01	-8.735582e+00
3.200756e+01	-8.779022e+00
3.219244e+01	-8.821957e+00
3.237838e+01	-8.865154e+00
3.256540e+01	-8.909147e+00
3.275349e+01	-8.952789e+00
3.294268e+01	-8.996623e+00
3.313295e+01	-9.040719e+00
3.332433e+01	-9.083895e+00
3.351681e+01	-9.127949e+00
3.371040e+01	-9.172183e+00
3.390511e+01	-9.216243e+00
3.410094e+01	-9.260167e+00
3.429791e+01	-9.304502e+00
3.449601e+01	-9.348312e+00
3.469526e+01	-9.392219e+00
3.489566e+01	-9.436778e+00
3.509721e+01	-9.481313e+00
3.529993e+01	-9.525344e+00
3.550382e+01	-9.570027e+00
3.570889e+01	-9.614428e+00
3.591515e+01	-9.659300e+00
3.612259e+01	-9.704045e+00
3.633123e+01	-9.748278e+00
3.654108e+01	-9.793452e+00
3.675214e+01	-9.838238e+00
3.696442e+01	-9.882631e+00
3.717792e+01	-9.928247e+00
3.739266e+01	-9.973019e+00
3.760864e+01	-1.001729e+01
3.782587e+01	-1.006243e+01
3.804435e+01	-1.010827e+01
3.826409e+01	-1.015364e+01
3.848510e+01	-1.019816e+01
3.870739e+01	-1.024393e+01
3.893096e+01	-1.028925e+01
3.915583e+01	-1.033443e+01
3.938199e+01	-1.038016e+01
3.960946e+01	-1.042499e+01
3.983824e+01	-1.047092e+01
4.006834e+01	-1.051644e+01
4.029978e+01	-1.056199e+01
4.053255e+01	-1.060784e+01
4.076666e+01	-1.065312e+01
4.100213e+01	-1.069938e+01
4.123896e+01	-1.074509e+01
4.147715e+01	-1.079061e+01
4.171672e+01	-1.083650e+01
4.195767e+01	-1.088236e+01
4.220002e+01	-1.092900e+01
4.244377e+01	-1.097477e+01
4.268892e+01	-1.102111e+01
4.293549e+01	-1.106706e+01
4.318348e+01	-1.111308e+01
4.343291e+01	-1.115859e+01
4.368377e+01	-1.120534e+01
4.393609e+01	-1.125160e+01
4.418986e+01	-1.129818e+01
4.444510e+01	-1.134397e+01
4.470182e+01	-1.139008e+01
4.496001e+01	-1.143676e+01
4.521970e+01	-1.148265e+01
4.548089e+01	-1.152993e+01
4.574358e+01	-1.157724e+01
4.600779e+01	-1.162312e+01
4.627353e+01	-1.166958e+01
4.654081e+01	-1.171658e+01
4.680963e+01	-1.176262e+01
4.708000e+01	-1.180989e+01
4.735193e+01	-1.185678e+01
4.762543e+01	-1.190344e+01
4.790051e+01	-1.194984e+01
4.817719e+01	-1.199637e+01
4.845545e+01	-1.204396e+01
4.873533e+01	-1.209061e+01
4.901682e+01	-1.213696e+01
4.929994e+01	-1.218464e+01
4.958470e+01	-1.223186e+01
4.987110e+01	-1.227858e+01
5.015915e+01	-1.232610e+01
5.044887e+01	-1.237279e+01
5.074026e+01	-1.242026e+01
5.103333e+01	-1.246733e+01
5.132810e+01	-1.251506e+01
5.162457e+01	-1.256170e+01
5.192275e+01	-1.260836e+01
5.222265e+01	-1.265583e+01
5.252429e+01	-1.270319e+01
5.282767e+01	-1.275030e+01
5.313280e+01	-1.279870e+01
5.343969e+01	-1.284498e+01
5.374836e+01	-1.289315e+01
5.405880e+01	-1.294086e+01
5.437105e+01	-1.298770e+01
5.468509e+01	-1.303495e+01
5.500095e+01	-1.308258e+01
5.531863e+01	-1.313119e+01
5.563815e+01	-1.317805e+01
5.595951e+01	-1.322608e+01
5.628273e+01	-1.327363e+01
5.660782e+01	-1.332225e+01
5.693479e+01	-1.336840e+01
5.726364e+01	-1.341700e+01
5.759439e+01	-1.346433e+01
5.792705e+01	-1.351254e+01
5.826164e+01	-1.356014e+01
5.859815e+01	-1.360841e+01
5.893662e+01	-1.365576e+01
5.927703e+01	-1.370409e+01
5.961941e+01	-1.375185e+01
5.996377e+01	-1.379991e+01
6.031012e+01	-1.384754e+01
6.065847e+01	-1.389550e+01
6.100883e+01	-1.394287e+01
6.136121e+01	-1.399099e+01
6.171563e+01	-1.403912e+01
6.207210e+01	-1.408702e+01
6.243063e+01	-1.413525e+01
6.279122e+01	-1.418354e+01
6.315390e+01	-1.423203e+01
6.351868e+01	-1.428023e+01
6.388556e+01	-1.432939e+01
6.425456e+01	-1.437617e+01
6.462569e+01	-1.442393e+01
6.499897e+01	-1.447318e+01
6.537440e+01	-1.452087e+01
6.575200e+01	-1.456943e+01
6.613178e+01	-1.461713e+01
6.651375e+01	-1.466607e+01
6.689793e+01	-1.471416e+01
6.728433e+01	-1.476353e+01
6.767297e+01	-1.481100e+01
6.806384e+01	-1.485881e+01
6.845698e+01	-1.490699e+01
6.885238e+01	-1.495698e+01
6.925007e+01	-1.500514e+01
6.965005e+01	-1.505396e+01
7.005235e+01	-1.510086e+01
7.045697e+01	-1.515069e+01
7.086393e+01	-1.519841e+01
7.127323e+01	-1.524798e+01
7.168490e+01	-1.529565e+01
7.209895e+01	-1.534356e+01
7.251539e+01	-1.539235e+01
7.293424e+01	-1.544199e+01
7.335551e+01	-1.548991e+01
7.377920e+01	-1.553800e+01
7.420535e+01	-1.558658e+01
7.463396e+01	-1.563525e+01
7.506504e+01	-1.568485e+01
7.549861e+01	-1.573379e+01
7.593469e+01	-1.578218e+01
7.637328e+01	-1.583111e+01
7.681441e+01	-1.587977e+01
7.725809e+01	-1.592758e+01
7.770433e+01	-1.597686e+01
7.815315e+01	-1.602470e+01
7.860456e+01	-1.607432e+01
7.905857e+01	-1.612335e+01
7.951521e+01	-1.617213e+01
7.997449e+01	-1.622129e+01
8.043642e+01	-1.626902e+01
8.090102e+01	-1.631871e+01
8.136830e+01	-1.636741e+01
8.183828e+01	-1.641654e+01
8.231097e+01	-1.646600e+01
8.278640e+01	-1.651470e+01
8.326457e+01	-1.656384e+01
8.374550e+01	-1.661225e+01
8.422921e+01	-1.666144e+01
8.471572e+01	-1.671031e+01
8.520503e+01	-1.675889e+01
8.569717e+01	-1.680842e+01
8.619215e+01	-1.685745e+01
8.669000e+01	-1.690607e+01
8.719071e+01	-1.695422e+01
8.769432e+01	-1.700547e+01
8.820084e+01	-1.705370e+01
8.871029e+01	-1.710216e+01
8.922267e+01	-1.715186e+01
8.973802e+01	-1.720046e+01
9.025634e+01	-1.724990e+01
9.077766e+01	-1.729804e+01
9.130199e+01	-1.734793e+01
9.182935e+01	-1.739741e+01
9.235975e+01	-1.744621e+01
9.289321e+01	-1.749494e+01
9.342976e+01	-1.754313e+01
9.396941e+01	-1.759394e+01
9.451217e+01	-1.764164e+01
9.505807e+01	-1.769158e+01
9.560712e+01	-1.774077e+01
9.615934e+01	-1.779081e+01
9.671476e+01	-1.783859e+01
9.727338e+01	-1.788818e+01
9.783522e+01	-1.793581e+01
9.840032e+01	-1.798787e+01
9.896867e+01	-1.803655e+01
9.954031e+01	-1.808543e+01
1.001153e+02	-1.813376e+01
1.006935e+02	-1.818459e+01
1.012751e+02	-1.823161e+01
1.018601e+02	-1.828341e+01
1.024484e+02	-1.833134e+01
1.030402e+02	-1.838146e+01
1.036353e+02	-1.842893e+01
1.042339e+02	-1.847983e+01
1.048360e+02	-1.852977e+01
1.054415e+02	-1.857838e+01
1.060505e+02	-1.862857e+01
1.066631e+02	-1.867603e+01
1.072791e+02	-1.872654e+01
1.078988e+02	-1.877586e+01
1.085220e+02	-1.882488e+01
1.091488e+02	-1.887323e+01
1.097793e+02	-1.892307e+01
1.104133e+02	-1.897318e+01
1.110511e+02	-1.902194e+01
1.116925e+02	-1.907096e+01
1.123376e+02	-1.912256e+01
1.129865e+02	-1.917078e+01
1.136391e+02	-1.921999e+01
1.142955e+02	-1.926872e+01
1.149556e+02	-1.931877e+01
1.156196e+02	-1.937031e+01
1.162874e+02	-1.941737e+01
1.169591e+02	-1.946765e+01
1.176347e+02	-1.951619e+01
1.183141e+02	-1.956785e+01
1.189975e+02	-1.961607e+01
1.196848e+02	-1.966532e+01
1.203761e+02	-1.971523e+01
1.210714e+02	-1.976419e+01
1.217707e+02	-1.981510e+01
1.224740e+02	-1.986187e+01
1.231814e+02	-1.991364e+01
1.238929e+02	-1.996236e+01
1.246085e+02	-2.001224e+01
1.253283e+02	-2.006174e+01
1.260522e+02	-2.010958e+01
1.267802e+02	-2.016029e+01
1.275125e+02	-2.020849e+01
1.282490e+02	-2.026087e+01
1.289898e+02	-2.030921e+01
1.297348e+02	-2.036041e+01
1.304842e+02	-2.040792e+01
1.312378e+02	-2.045940e+01
1.319959e+02	-2.050651e+01
1.327583e+02	-2.055772e+01
1.335251e+02	-2.060786e+01
1.342963e+02	-2.065735e+01
1.350720e+02	-2.070675e+01
1.358522e+02	-2.075405e+01
1.366368e+02	-2.080535e+01
1.374260e+02	-2.085468e+01
1.382198e+02	-2.090296e+01
1.390182e+02	-2.095583e+01
1.398211e+02	-2.100345e+01
1.406287e+02	-2.105196e+01
1.414410e+02	-2.110446e+01
1.422579e+02	-2.115274e+01
1.430796e+02	-2.120312e+01
1.439060e+02	-2.125319e+01
1.447372e+02	-2.130059e+01
1.455732e+02	-2.135070e+01
1.464141e+02	-2.140210e+01
1.472597e+02	-2.145054e+01
1.481103e+02	-2.149751e+01
1.489658e+02	-2.155101e+01
1.498262e+02	-2.160055e+01
1.506916e+02	-2.164820e+01
1.515620e+02	-2.170075e+01
1.524374e+02	-2.174848e+01
1.533179e+02	-2.179715e+01
1.542034e+02	-2.184879e+01
1.550941e+02	-2.189749e+01
1.559899e+02	-2.194719e+01
1.568909e+02	-2.199970e+01
1.577971e+02	-2.204638e+01
1.587085e+02	-2.209755e+01
1.596252e+02	-2.214656e+01
1.605472e+02	-2.219717e+01
1.614745e+02	-2.224584e+01
1.624072e+02	-2.229695e+01
1.633453e+02	-2.234587e+01
1.642887e+02	-2.239582e+01
1.652377e+02	-2.244609e+01
1.661921e+02	-2.249596e+01
1.671520e+02	-2.254518e+01
1.681175e+02	-2.259578e+01
1.690885e+02	-2.264350e+01
1.700651e+02	-2.269575e+01
1.710474e+02	-2.274358e+01
1.720354e+02	-2.279343e+01
1.730291e+02	-2.284340e+01
1.740285e+02	-2.289345e+01
1.750337e+02	-2.294300e+01
1.760446e+02	-2.299348e+01
1.770615e+02	-2.304311e+01
1.780842e+02	-2.309293e+01
1.791128e+02	-2.314126e+01
1.801473e+02	-2.319458e+01
1.811878e+02	-2.324139e+01
1.822344e+02	-2.329183e+01
1.832870e+02	-2.334448e+01
1.843456e+02	-2.338980e+01
1.854104e+02	-2.344329e+01
1.864813e+02	-2.349339e+01
1.875584e+02	-2.354132e+01
1.886418e+02	-2.358919e+01
1.897313e+02	-2.364339e+01
1.908272e+02	-2.369165e+01
1.919294e+02	-2.374021e+01
1.930380e+02	-2.379223e+01
1.941530e+02	-2.383917e+01
1.952744e+02	-2.388775e+01
1.964023e+02	-2.394103e+01
1.975367e+02	-2.398987e+01
1.986777e+02	-2.404216e+01
1.998252e+02	-2.408935e+01
2.009794e+02	-2.414187e+01
2.021403e+02	-2.418741e+01
2.033078e+02	-2.423936e+01
2.044821e+02	-2.428808e+01
2.056632e+02	-2.434026e+01
2.068511e+02	-2.438789e+01
2.080459e+02	-2.443675e+01
2.092475e+02	-2.448773e+01
2.104561e+02	-2.453605e+01
2.116717e+02	-2.459017e+01
2.128943e+02	-2.463740e+01
2.141240e+02	-2.469020e+01
2.153608e+02	-2.473505e+01
2.166047e+02	-2.478791e+01
2.178558e+02	-2.483956e+01
2.191141e+02	-2.488708e+01
2.203797e+02	-2.493715e+01
2.216526e+02	-2.498671e+01
2.229329e+02	-2.504025e+01
2.242205e+02	-2.508871e+01
2.255156e+02	-2.513661e+01
2.268182e+02	-2.518965e+01
2.281283e+02	-2.523564e+01
2.294459e+02	-2.528870e+01
2.307712e+02	-2.533597e+01
2.321041e+02	-2.538683e+01
2.334447e+02	-2.543517e+01
2.347931e+02	-2.548592e+01
2.361493e+02	-2.553593e+01
2.375133e+02	-2.558597e+01
2.388851e+02	-2.563769e+01
2.402649e+02	-2.568599e+01
2.416527e+02	-2.573588e+01
2.430484e+02	-2.578368e+01
2.444523e+02	-2.583567e+01
2.458642e+02	-2.588464e+01
2.472843e+02	-2.593402e+01
2.487126e+02	-2.598599e+01
2.501492e+02	-2.603962e+01
2.515940e+02	-2.608675e+01
2.530472e+02	-2.613755e+01
2.545088e+02	-2.618232e+01
2.559789e+02	-2.623373e+01
2.574574e+02	-2.628602e+01
2.589444e+02	-2.633595e+01
2.604401e+02	-2.638723e+01
2.619444e+02	-2.643390e+01
2.634574e+02	-2.648275e+01
2.649791e+02	-2.653363e+01
2.665096e+02	-2.658504e+01
2.680489e+02	-2.663388e+01
2.695972e+02	-2.668477e+01
2.711544e+02	-2.673273e+01
2.727205e+02	-2.678845e+01
2.742958e+02	-2.683447e+01
2.758801e+02	-2.688440e+01
2.774736e+02	-2.693492e+01
2.790762e+02	-2.698748e+01
2.806882e+02	-2.703498e+01
2.823094e+02	-2.708694e+01
2.839400e+02	-2.713822e+01
2.855800e+02	-2.718786e+01
2.872295e+02	-2.723485e+01
2.888886e+02	-2.728424e+01
2.905572e+02	-2.733555e+01
2.922354e+02	-2.738382e+01
2.939234e+02	-2.743414e+01
2.956211e+02	-2.748660e+01
2.973286e+02	-2.753255e+01
2.990459e+02	-2.758571e+01
3.007732e+02	-2.763861e+01
3.025104e+02	-2.768083e+01
3.042577e+02	-2.773713e+01
3.060151e+02	-2.778306e+01
3.077826e+02	-2.783790e+01
3.095604e+02	-2.788462e+01
3.113484e+02	-2.793364e+01
3.131467e+02	-2.798603e+01
3.149554e+02	-2.803321e+01
3.167746e+02	-2.808677e+01
3.186043e+02	-2.813391e+01
3.204445e+02	-2.818531e+01
3.222954e+02	-2.823466e+01
3.241570e+02	-2.828324e+01
3.260293e+02	-2.833704e+01
3.279124e+02	-2.838195e+01
3.298064e+02	-2.843265e+01
3.317114e+02	-2.848602e+01
3.336273e+02	-2.853672e+01
3.355544e+02	-2.858672e+01
3.374925e+02	-2.863718e+01
3.394418e+02	-2.869021e+01
3.414024e+02	-2.873925e+01
3.433744e+02	-2.878593e+01
3.453577e+02	-2.883848e+01
3.473525e+02	-2.888445e+01
3.493588e+02	-2.893557e+01
3.513766e+02	-2.898292e+01
3.534062e+02	-2.903832e+01
3.554474e+02	-2.909165e+01
3.575005e+02	-2.913754e+01
3.595654e+02	-2.918901e+01
3.616422e+02	-2.923574e+01
3.637311e+02	-2.928461e+01
3.658320e+02	-2.933637e+01
3.679450e+02	-2.938770e+01
3.700702e+02	-2.943419e+01
3.722077e+02	-2.948860e+01
3.743576e+02	-2.953590e+01
3.765199e+02	-2.958800e+01
3.786946e+02	-2.963658e+01
3.808820e+02	-2.968718e+01
3.830819e+02	-2.973896e+01
3.852946e+02	-2.978460e+01
3.875200e+02	-2.983429e+01
3.897583e+02	-2.988500e+01
3.920096e+02	-2.993776e+01
3.942738e+02	-2.998215e+01
3.965511e+02	-3.004022e+01
3.988416e+02	-3.009126e+01
4.011452e+02	-3.014317e+01
4.034622e+02	-3.019077e+01
4.057926e+02	-3.024071e+01
4.081365e+02	-3.028991e+01
4.104938e+02	-3.034138e+01
4.128648e+02	-3.039166e+01
4.152495e+02	-3.044575e+01
4.176480e+02	-3.048801e+01
4.200603e+02	-3.054249e+01
4.224866e+02	-3.058760e+01
4.249268e+02	-3.064050e+01
4.273812e+02	-3.069125e+01
4.298497e+02	-3.074725e+01
4.323325e+02	-3.079042e+01
4.348297e+02	-3.084587e+01
4.373412e+02	-3.088917e+01
4.398673e+02	-3.094092e+01
4.424079e+02	-3.099665e+01
4.449633e+02	-3.104413e+01
4.475334e+02	-3.109364e+01
4.501183e+02	-3.114350e+01
4.527182e+02	-3.119106e+01
4.553330e+02	-3.124078e+01
4.579630e+02	-3.129466e+01
4.606082e+02	-3.134233e+01
4.632687e+02	-3.139312e+01
4.659445e+02	-3.144279e+01
4.686358e+02	-3.149459e+01
4.713426e+02	-3.153942e+01
4.740650e+02	-3.159405e+01
4.768032e+02	-3.164804e+01
4.795572e+02	-3.169368e+01
4.823271e+02	-3.174545e+01
4.851130e+02	-3.179538e+01
4.879150e+02	-3.184587e+01
4.907332e+02	-3.189163e+01
4.935676e+02	-3.194777e+01
4.964185e+02	-3.199545e+01
4.992858e+02	-3.204255e+01
5.021696e+02	-3.208907e+01
5.050701e+02	-3.214122e+01
5.079874e+02	-3.219361e+01
5.109215e+02	-3.224644e+01
5.138726e+02	-3.229440e+01
5.168407e+02	-3.234975e+01
5.198259e+02	-3.239457e+01
5.228284e+02	-3.244189e+01
5.258482e+02	-3.249704e+01
5.288855e+02	-3.254413e+01
5.319403e+02	-3.259518e+01
5.350128e+02	-3.265104e+01
5.381030e+02	-3.269875e+01
5.412111e+02	-3.274798e+01
5.443371e+02	-3.278735e+01
5.474812e+02	-3.284825e+01
5.506434e+02	-3.290064e+01
5.538239e+02	-3.294463e+01
5.570228e+02	-3.299830e+01
5.602401e+02	-3.304709e+01
5.634760e+02	-3.310632e+01
5.667306e+02	-3.315710e+01
5.700040e+02	-3.320590e+01
5.732964e+02	-3.325711e+01
5.766077e+02	-3.329888e+01
5.799382e+02	-3.335302e+01
5.832879e+02	-3.340296e+01
5.866569e+02	-3.345251e+01
5.900454e+02	-3.350024e+01
5.934535e+02	-3.355518e+01
5.968813e+02	-3.359833e+01
6.003288e+02	-3.365589e+01
6.037963e+02	-3.370038e+01
6.072838e+02	-3.375246e+01
6.107914e+02	-3.380178e+01
6.143194e+02	-3.384915e+01
6.178676e+02	-3.390004e+01
6.214364e+02	-3.395823e+01
6.250258e+02	-3.400885e+01
6.286359e+02	-3.405725e+01
6.322669e+02	-3.411194e+01
6.359189e+02	-3.414929e+01
6.395919e+02	-3.419870e+01
6.432862e+02	-3.425469e+01
6.470017e+02	-3.430172e+01
6.507388e+02	-3.435727e+01
6.544974e+02	-3.440160e+01
6.582778e+02	-3.445781e+01
6.620800e+02	-3.450810e+01
6.659041e+02	-3.455724e+01
6.697504e+02	-3.461534e+01
6.736188e+02	-3.466550e+01
6.775096e+02	-3.471853e+01
6.814229e+02	-3.475839e+01
6.853587e+02	-3.481065e+01
6.893173e+02	-3.485845e+01
6.932988e+02	-3.491233e+01
6.973033e+02	-3.496304e+01
7.013309e+02	-3.500704e+01
