Frequency(Hz)	Magnitude(dB)
1.000000e+01	-2.283310e+00
1.005776e+01	-2.303793e+00
1.011585e+01	-2.324430e+00
1.017428e+01	-2.345303e+00
1.023305e+01	-2.366386e+00
1.029215e+01	-2.387404e+00
1.035160e+01	-2.408541e+00
1.041139e+01	-2.429894e+00
1.047153e+01	-2.451580e+00
1.053201e+01	-2.473283e+00
1.059284e+01	-2.495112e+00
1.065403e+01	-2.516911e+00
1.071556e+01	-2.538988e+00
1.077746e+01	-2.561392e+00
1.083971e+01	-2.583489e+00
1.090232e+01	-2.606103e+00
1.096529e+01	-2.628617e+00
1.102862e+01	-2.651568e+00
1.109232e+01	-2.674313e+00
1.115639e+01	-2.697400e+00
1.122083e+01	-2.720406e+00
1.128564e+01	-2.744058e+00
1.135083e+01	-2.767305e+00
1.141639e+01	-2.790958e+00
1.148233e+01	-2.815262e+00
1.154865e+01	-2.838777e+00
1.161536e+01	-2.863105e+00
1.168245e+01	-2.887003e+00
1.174992e+01	-2.911746e+00
1.181779e+01	-2.936008e+00
1.188605e+01	-2.960717e+00
1.195470e+01	-2.985382e+00
1.202375e+01	-3.010545e+00
1.209320e+01	-3.035492e+00
1.216305e+01	-3.060599e+00
1.223330e+01	-3.086136e+00
1.230396e+01	-3.111725e+00
1.237503e+01	-3.137432e+00
1.244651e+01	-3.163217e+00
1.251840e+01	-3.188956e+00
1.259070e+01	-3.214854e+00
1.266343e+01	-3.241336e+00
1.273657e+01	-3.267704e+00
1.281014e+01	-3.294316e+00
1.288413e+01	-3.320979e+00
1.295855e+01	-3.347766e+00
1.303339e+01	-3.374499e+00
1.310867e+01	-3.401898e+00
1.318439e+01	-3.429208e+00
1.326054e+01	-3.456461e+00
1.333713e+01	-3.484282e+00
1.341417e+01	-3.511547e+00
1.349165e+01	-3.539860e+00
1.356958e+01	-3.567457e+00
1.364795e+01	-3.595516e+00
1.372678e+01	-3.623706e+00
1.380607e+01	-3.652070e+00
1.388581e+01	-3.680466e+00
1.396602e+01	-3.709270e+00
1.404668e+01	-3.738053e+00
1.412782e+01	-3.766915e+00
1.420942e+01	-3.795880e+00
1.429149e+01	-3.825498e+00
1.437404e+01	-3.854603e+00
1.445706e+01	-3.884384e+00
1.454057e+01	-3.913848e+00
1.462455e+01	-3.943646e+00
1.470902e+01	-3.973523e+00
1.479398e+01	-4.003453e+00
1.487943e+01	-4.033895e+00
1.496537e+01	-4.064016e+00
1.505181e+01	-4.094482e+00
1.513875e+01	-4.125206e+00
1.522619e+01	-4.155792e+00
1.531414e+01	-4.186969e+00
1.540259e+01	-4.217828e+00
1.549156e+01	-4.249059e+00
1.558103e+01	-4.280412e+00
1.567103e+01	-4.311706e+00
1.576155e+01	-4.343286e+00
1.585258e+01	-4.375082e+00
1.594415e+01	-4.406702e+00
1.603624e+01	-4.438985e+00
1.612886e+01	-4.470531e+00
1.622202e+01	-4.503157e+00
1.631572e+01	-4.535829e+00
1.640996e+01	-4.567886e+00
1.650474e+01	-4.600565e+00
1.660008e+01	-4.633115e+00
1.669596e+01	-4.666515e+00
1.679239e+01	-4.699280e+00
1.688938e+01	-4.732438e+00
1.698694e+01	-4.765178e+00
1.708505e+01	-4.798717e+00
1.718373e+01	-4.832352e+00
1.728299e+01	-4.866182e+00
1.738281e+01	-4.899769e+00
1.748322e+01	-4.934100e+00
1.758420e+01	-4.967886e+00
1.768576e+01	-5.002156e+00
1.778792e+01	-5.036248e+00
1.789066e+01	-5.070690e+00
1.799399e+01	-5.105124e+00
1.809793e+01	-5.139595e+00
1.820246e+01	-5.174548e+00
1.830760e+01	-5.209466e+00
1.841334e+01	-5.244273e+00
1.851969e+01	-5.279437e+00
1.862666e+01	-5.314730e+00
1.873425e+01	-5.350176e+00
1.884246e+01	-5.385926e+00
1.895129e+01	-5.421435e+00
1.906075e+01	-5.457076e+00
1.917085e+01	-5.492859e+00
1.928158e+01	-5.528899e+00
1.939295e+01	-5.564743e+00
1.950496e+01	-5.601376e+00
1.961762e+01	-5.637591e+00
1.973093e+01	-5.673763e+00
1.984490e+01	-5.710474e+00
1.995952e+01	-5.747068e+00
2.007480e+01	-5.783905e+00
2.019076e+01	-5.820713e+00
2.030738e+01	-5.857793e+00
2.042467e+01	-5.894625e+00
2.054264e+01	-5.932108e+00
2.066130e+01	-5.969313e+00
2.078064e+01	-6.006778e+00
2.090066e+01	-6.044047e+00
2.102139e+01	-6.081758e+00
2.114280e+01	-6.119627e+00
2.126492e+01	-6.157541e+00
2.138775e+01	-6.195580e+00
2.151128e+01	-6.233623e+00
2.163553e+01	-6.271833e+00
2.176050e+01	-6.309888e+00
2.188619e+01	-6.348197e+00
2.201260e+01	-6.386954e+00
2.213974e+01	-6.425364e+00
2.226762e+01	-6.464250e+00
2.239624e+01	-6.502939e+00
2.252560e+01	-6.542004e+00
2.265571e+01	-6.580439e+00
2.278656e+01	-6.619798e+00
2.291818e+01	-6.658494e+00
2.305055e+01	-6.698176e+00
2.318369e+01	-6.737734e+00
2.331760e+01	-6.777018e+00
2.345228e+01	-6.816828e+00
2.358774e+01	-6.856486e+00
2.372398e+01	-6.896081e+00
2.386101e+01	-6.935933e+00
2.399883e+01	-6.975699e+00
2.413745e+01	-7.015996e+00
2.427686e+01	-7.056173e+00
2.441709e+01	-7.096286e+00
2.455812e+01	-7.136722e+00
2.469997e+01	-7.176695e+00
2.484263e+01	-7.217498e+00
2.498612e+01	-7.258094e+00
2.513044e+01	-7.298526e+00
2.527559e+01	-7.339577e+00
2.542158e+01	-7.380304e+00
2.556842e+01	-7.421199e+00
2.571610e+01	-7.462365e+00
2.586463e+01	-7.503431e+00
2.601403e+01	-7.544725e+00
2.616428e+01	-7.586252e+00
2.631541e+01	-7.627365e+00
2.646740e+01	-7.668626e+00
2.662028e+01	-7.709646e+00
2.677404e+01	-7.751390e+00
2.692868e+01	-7.793502e+00
2.708422e+01	-7.834856e+00
2.724066e+01	-7.876799e+00
2.739800e+01	-7.918921e+00
2.755625e+01	-7.960944e+00
2.771541e+01	-8.002803e+00
2.787550e+01	-8.044870e+00
2.803650e+01	-8.087219e+00
2.819844e+01	-8.129651e+00
2.836131e+01	-8.171921e+00
2.852513e+01	-8.214379e+00
2.868989e+01	-8.256721e+00
2.885560e+01	-8.299378e+00
2.902227e+01	-8.342019e+00
2.918990e+01	-8.384802e+00
2.935850e+01	-8.427655e+00
2.952807e+01	-8.470099e+00
2.969863e+01	-8.513588e+00
2.987016e+01	-8.556595e+00
3.004269e+01	-8.599771e+00
3.021622e+01	-8.642759e+00
3.039075e+01	-8.685981e+00
3.056628e+01	-8.729151e+00
3.074283e+01	-8.772590e+00
3.092040e+01	-8.816409e+00
3.109900e+01	-8.859568e+00
3.127862e+01	-8.902800e+00
3.145929e+01	-8.946611e+00
3.164099e+01	-8.990636e+00
3.182375e+01	-9.034183e+00
3.200756e+01	-9.077715e+00
3.219244e+01	-9.121844e+00
3.237838e+01	-9.165879e+00
3.256540e+01	-9.209657e+00
3.275349e+01	-9.253778e+00
3.294268e+01	-9.298267e+00
3.313295e+01	-9.341874e+00
3.332433e+01	-9.385924e+00
3.351681e+01	-9.430556e+00
3.371040e+01	-9.475090e+00
3.390511e+01	-9.519033e+00
3.410094e+01	-9.564191e+00
3.429791e+01	-9.608689e+00
3.449601e+01	-9.652930e+00
3.469526e+01	-9.697516e+00
3.489566e+01	-9.741940e+00
3.509721e+01	-9.786906e+00
3.529993e+01	-9.831894e+00
3.550382e+01	-9.877050e+00
3.570889e+01	-9.921617e+00
3.591515e+01	-9.966246e+00
3.612259e+01	-1.001144e+01
3.633123e+01	-1.005617e+01
3.654108e+01	-1.010183e+01
3.675214e+01	-1.014654e+01
3.696442e+01	-1.019217e+01
3.717792e+01	-1.023772e+01
3.739266e+01	-1.028248e+01
3.760864e+01	-1.032806e+01
3.782587e+01	-1.037357e+01
3.804435e+01	-1.041876e+01
3.826409e+01	-1.046479e+01
3.848510e+01	-1.050962e+01
3.870739e+01	-1.055535e+01
3.893096e+01	-1.060080e+01
3.915583e+01	-1.064685e+01
3.938199e+01	-1.069241e+01
3.960946e+01	-1.073822e+01
3.983824e+01	-1.078426e+01
4.006834e+01	-1.083006e+01
4.029978e+01	-1.087623e+01
4.053255e+01	-1.092164e+01
4.076666e+01	-1.096769e+01
4.100213e+01	-1.101396e+01
4.123896e+01	-1.105958e+01
4.147715e+01	-1.110656e+01
4.171672e+01	-1.115236e+01
4.195767e+01	-1.119851e+01
4.220002e+01	-1.124522e+01
4.244377e+01	-1.129125e+01
4.268892e+01	-1.133715e+01
4.293549e+01	-1.138418e+01
4.318348e+01	-1.143082e+01
4.343291e+01	-1.147644e+01
4.368377e+01	-1.152322e+01
4.393609e+01	-1.156995e+01
4.418986e+01	-1.161598e+01
4.444510e+01	-1.166279e+01
4.470182e+01	-1.170933e+01
4.496001e+01	-1.175662e+01
4.521970e+01	-1.180285e+01
4.548089e+01	-1.184958e+01
4.574358e+01	-1.189619e+01
4.600779e+01	-1.194265e+01
4.627353e+01	-1.199022e+01
4.654081e+01	-1.203720e+01
4.680963e+01	-1.208362e+01
4.708000e+01	-1.213121e+01
4.735193e+01	-1.217728e+01
4.762543e+01	-1.222453e+01
4.790051e+01	-1.227174e+01
4.817719e+01	-1.231913e+01
4.845545e+01	-1.236578e+01
4.873533e+01	-1.241275e+01
4.901682e+01	-1.246046e+01
4.929994e+01	-1.250819e+01
4.958470e+01	-1.255506e+01
4.987110e+01	-1.260213e+01
5.015915e+01	-1.265022e+01
5.044887e+01	-1.269709e+01
5.074026e+01	-1.274392e+01
5.103333e+01	-1.279099e+01
5.132810e+01	-1.283865e+01
5.162457e+01	-1.288567e+01
5.192275e+01	-1.293443e+01
5.222265e+01	-1.298079e+01
5.252429e+01	-1.302940e+01
5.282767e+01	-1.307605e+01
5.313280e+01	-1.312368e+01
5.343969e+01	-1.317083e+01
5.374836e+01	-1.321949e+01
5.405880e+01	-1.326667e+01
5.437105e+01	-1.331428e+01
5.468509e+01	-1.336188e+01
5.500095e+01	-1.341012e+01
5.531863e+01	-1.345681e+01
5.563815e+01	-1.350517e+01
5.595951e+01	-1.355246e+01
5.628273e+01	-1.360141e+01
5.660782e+01	-1.364875e+01
5.693479e+01	-1.369720e+01
5.726364e+01	-1.374521e+01
5.759439e+01	-1.379312e+01
5.792705e+01	-1.384023e+01
5.826164e+01	-1.388876e+01
5.859815e+01	-1.393637e+01
5.893662e+01	-1.398403e+01
5.927703e+01	-1.403169e+01
5.961941e+01	-1.408080e+01
5.996377e+01	-1.412790e+01
6.031012e+01	-1.417669e+01
6.065847e+01	-1.422546e+01
6.100883e+01	-1.427264e+01
6.136121e+01	-1.432034e+01
6.171563e+01	-1.436965e+01
6.207210e+01	-1.441678e+01
6.243063e+01	-1.446616e+01
6.279122e+01	-1.451431e+01
6.315390e+01	-1.456266e+01
6.351868e+01	-1.461099e+01
6.388556e+01	-1.465935e+01
6.425456e+01	-1.470706e+01
6.462569e+01	-1.475556e+01
6.499897e+01	-1.480366e+01
6.537440e+01	-1.485277e+01
6.575200e+01	-1.490076e+01
6.613178e+01	-1.494964e+01
6.651375e+01	-1.499726e+01
6.689793e+01	-1.504664e+01
6.728433e+01	-1.509434e+01
6.767297e+01	-1.514280e+01
6.806384e+01	-1.519138e+01
6.845698e+01	-1.523929e+01
6.885238e+01	-1.528992e+01
6.925007e+01	-1.533640e+01
6.965005e+01	-1.538560e+01
7.005235e+01	-1.543465e+01
7.045697e+01	-1.548412e+01
7.086393e+01	-1.553194e+01
7.127323e+01	-1.558068e+01
7.168490e+01	-1.562912e+01
7.209895e+01	-1.567797e+01
7.251539e+01	-1.572606e+01
7.293424e+01	-1.577536e+01
7.335551e+01	-1.582356e+01
7.377920e+01	-1.587241e+01
7.420535e+01	-1.592101e+01
7.463396e+01	-1.596960e+01
7.506504e+01	-1.601886e+01
7.549861e+01	-1.606744e+01
7.593469e+01	-1.611631e+01
7.637328e+01	-1.616429e+01
7.681441e+01	-1.621391e+01
7.725809e+01	-1.626286e+01
7.770433e+01	-1.631091e+01
7.815315e+01	-1.635991e+01
7.860456e+01	-1.640964e+01
7.905857e+01	-1.645767e+01
7.951521e+01	-1.650719e+01
7.997449e+01	-1.655625e+01
8.043642e+01	-1.660519e+01
8.090102e+01	-1.665397e+01
8.136830e+01	-1.670169e+01
8.183828e+01	-1.675174e+01
8.231097e+01	-1.680071e+01
8.278640e+01	-1.684866e+01
8.326457e+01	-1.689903e+01
8.374550e+01	-1.694819e+01
8.422921e+01	-1.699755e+01
8.471572e+01	-1.704644e+01
8.520503e+01	-1.709524e+01
8.569717e+01	-1.714333e+01
8.619215e+01	-1.719288e+01
8.669000e+01	-1.724266e+01
8.719071e+01	-1.729083e+01
8.769432e+01	-1.734051e+01
8.820084e+01	-1.738955e+01
8.871029e+01	-1.743776e+01
8.922267e+01	-1.748700e+01
8.973802e+01	-1.753668e+01
9.025634e+01	-1.758652e+01
9.077766e+01	-1.763578e+01
9.130199e+01	-1.768453e+01
9.182935e+01	-1.773402e+01
9.235975e+01	-1.778314e+01
9.289321e+01	-1.783250e+01
9.342976e+01	-1.788163e+01
9.396941e+01	-1.793104e+01
9.451217e+01	-1.797924e+01
9.505807e+01	-1.802847e+01
9.560712e+01	-1.807837e+01
9.615934e+01	-1.812740e+01
9.671476e+01	-1.817610e+01
9.727338e+01	-1.822483e+01
9.783522e+01	-1.827641e+01
9.840032e+01	-1.832473e+01
9.896867e+01	-1.837285e+01
9.954031e+01	-1.842304e+01
1.001153e+02	-1.847232e+01
1.006935e+02	-1.852203e+01
1.012751e+02	-1.857220e+01
1.018601e+02	-1.862127e+01
1.024484e+02	-1.867061e+01
1.030402e+02	-1.871842e+01
1.036353e+02	-1.876809e+01
1.042339e+02	-1.881800e+01
1.048360e+02	-1.886733e+01
1.054415e+02	-1.891806e+01
1.060505e+02	-1.896572e+01
1.066631e+02	-1.901631e+01
1.072791e+02	-1.906642e+01
1.078988e+02	-1.911417e+01
1.085220e+02	-1.916364e+01
1.091488e+02	-1.921232e+01
1.097793e+02	-1.926212e+01
1.104133e+02	-1.931279e+01
1.110511e+02	-1.936320e+01
1.116925e+02	-1.941000e+01
1.123376e+02	-1.945976e+01
1.129865e+02	-1.950929e+01
1.136391e+02	-1.955961e+01
1.142955e+02	-1.960856e+01
1.149556e+02	-1.965788e+01
1.156196e+02	-1.970619e+01
1.162874e+02	-1.975785e+01
1.169591e+02	-1.980725e+01
1.176347e+02	-1.985669e+01
1.183141e+02	-1.990754e+01
1.189975e+02	-1.995445e+01
1.196848e+02	-2.000525e+01
1.203761e+02	-2.005566e+01
1.210714e+02	-2.010311e+01
1.217707e+02	-2.015294e+01
1.224740e+02	-2.020451e+01
1.231814e+02	-2.025201e+01
1.238929e+02	-2.030166e+01
1.246085e+02	-2.035168e+01
1.253283e+02	-2.040207e+01
1.260522e+02	-2.045063e+01
1.267802e+02	-2.049871e+01
1.275125e+02	-2.055130e+01
1.282490e+02	-2.059883e+01
1.289898e+02	-2.065026e+01
1.297348e+02	-2.069882e+01
1.304842e+02	-2.074872e+01
1.312378e+02	-2.079877e+01
1.319959e+02	-2.084919e+01
1.327583e+02	-2.089431e+01
1.335251e+02	-2.094843e+01
1.342963e+02	-2.099586e+01
1.350720e+02	-2.104554e+01
1.358522e+02	-2.109578e+01
1.366368e+02	-2.114479e+01
1.374260e+02	-2.119675e+01
1.382198e+02	-2.124650e+01
1.390182e+02	-2.129536e+01
1.398211e+02	-2.134524e+01
1.406287e+02	-2.139465e+01
1.414410e+02	-2.144346e+01
1.422579e+02	-2.149389e+01
1.430796e+02	-2.154415e+01
1.439060e+02	-2.159234e+01
1.447372e+02	-2.164315e+01
1.455732e+02	-2.169177e+01
1.464141e+02	-2.174288e+01
1.472597e+02	-2.179241e+01
1.481103e+02	-2.184204e+01
1.489658e+02	-2.189095e+01
1.498262e+02	-2.194237e+01
1.506916e+02	-2.199010e+01
1.515620e+02	-2.204024e+01
1.524374e+02	-2.208939e+01
1.533179e+02	-2.214159e+01
1.542034e+02	-2.218973e+01
1.550941e+02	-2.223838e+01
1.559899e+02	-2.228991e+01
1.568909e+02	-2.233914e+01
1.577971e+02	-2.238872e+01
1.587085e+02	-2.243733e+01
1.596252e+02	-2.249078e+01
1.605472e+02	-2.253923e+01
1.614745e+02	-2.258687e+01
1.624072e+02	-2.263709e+01
1.633453e+02	-2.268815e+01
1.642887e+02	-2.273624e+01
1.652377e+02	-2.278736e+01
1.661921e+02	-2.283790e+01
1.671520e+02	-2.288488e+01
1.681175e+02	-2.293645e+01
1.690885e+02	-2.298726e+01
1.700651e+02	-2.303463e+01
1.710474e+02	-2.308549e+01
1.720354e+02	-2.313462e+01
1.730291e+02	-2.318452e+01
1.740285e+02	-2.323489e+01
1.750337e+02	-2.328636e+01
1.760446e+02	-2.333544e+01
1.770615e+02	-2.338462e+01
1.780842e+02	-2.343466e+01
1.791128e+02	-2.348435e+01
1.801473e+02	-2.353306e+01
1.811878e+02	-2.358511e+01
1.822344e+02	-2.363328e+01
1.832870e+02	-2.368380e+01
1.843456e+02	-2.373227e+01
1.854104e+02	-2.378314e+01
1.864813e+02	-2.383379e+01
1.875584e+02	-2.388686e+01
1.886418e+02	-2.393252e+01
1.897313e+02	-2.398053e+01
1.908272e+02	-2.403076e+01
1.919294e+02	-2.408229e+01
1.930380e+02	-2.413103e+01
1.941530e+02	-2.418302e+01
1.952744e+02	-2.423399e+01
1.964023e+02	-2.427899e+01
1.975367e+02	-2.433425e+01
1.986777e+02	-2.437989e+01
1.998252e+02	-2.443027e+01
2.009794e+02	-2.448166e+01
2.021403e+02	-2.453468e+01
2.033078e+02	-2.458081e+01
2.044821e+02	-2.463334e+01
2.056632e+02	-2.468162e+01
2.068511e+02	-2.473043e+01
2.080459e+02	-2.478155e+01
2.092475e+02	-2.483219e+01
2.104561e+02	-2.488108e+01
2.116717e+02	-2.492925e+01
2.128943e+02	-2.498035e+01
2.141240e+02	-2.502618e+01
2.153608e+02	-2.508145e+01
2.166047e+02	-2.513082e+01
2.178558e+02	-2.518197e+01
2.191141e+02	-2.523020e+01
2.203797e+02	-2.527970e+01
2.216526e+02	-2.533047e+01
2.229329e+02	-2.537993e+01
2.242205e+02	-2.542965e+01
2.255156e+02	-2.547604e+01
2.268182e+02	-2.552892e+01
2.281283e+02	-2.558040e+01
2.294459e+02	-2.563283e+01
2.307712e+02	-2.568078e+01
2.321041e+02	-2.572805e+01
2.334447e+02	-2.577847e+01
2.347931e+02	-2.582811e+01
2.361493e+02	-2.587947e+01
2.375133e+02	-2.592771e+01
2.388851e+02	-2.598214e+01
2.402649e+02	-2.603160e+01
2.416527e+02	-2.607843e+01
2.430484e+02	-2.613392e+01
2.444523e+02	-2.617855e+01
2.458642e+02	-2.622804e+01
2.472843e+02	-2.627845e+01
2.487126e+02	-2.632765e+01
2.501492e+02	-2.637755e+01
2.515940e+02	-2.642911e+01
2.530472e+02	-2.647678e+01
2.545088e+02	-2.652797e+01
2.559789e+02	-2.657673e+01
2.574574e+02	-2.662611e+01
2.589444e+02	-2.667633e+01
2.604401e+02	-2.672871e+01
2.619444e+02	-2.677969e+01
2.634574e+02	-2.682713e+01
2.649791e+02	-2.687892e+01
2.665096e+02	-2.693198e+01
2.680489e+02	-2.697668e+01
2.695972e+02	-2.702672e+01
2.711544e+02	-2.707841e+01
2.727205e+02	-2.712596e+01
2.742958e+02	-2.717740e+01
2.758801e+02	-2.722829e+01
2.774736e+02	-2.727691e+01
2.790762e+02	-2.732890e+01
2.806882e+02	-2.737464e+01
2.823094e+02	-2.742721e+01
2.839400e+02	-2.748076e+01
2.855800e+02	-2.753231e+01
2.872295e+02	-2.757543e+01
2.888886e+02	-2.762813e+01
2.905572e+02	-2.768211e+01
2.922354e+02	-2.772960e+01
2.939234e+02	-2.777747e+01
2.956211e+02	-2.782726e+01
2.973286e+02	-2.787695e+01
2.990459e+02	-2.793033e+01
3.007732e+02	-2.797905e+01
3.025104e+02	-2.802304e+01
3.042577e+02	-2.807429e+01
3.060151e+02	-2.812645e+01
3.077826e+02	-2.817777e+01
3.095604e+02	-2.823050e+01
3.113484e+02	-2.827742e+01
3.131467e+02	-2.832717e+01
3.149554e+02	-2.837850e+01
3.167746e+02	-2.842728e+01
3.186043e+02	-2.848068e+01
3.204445e+02	-2.852398e+01
3.222954e+02	-2.858441e+01
3.241570e+02	-2.862729e+01
3.260293e+02	-2.867599e+01
3.279124e+02	-2.872818e+01
3.298064e+02	-2.877667e+01
3.317114e+02	-2.882696e+01
3.336273e+02	-2.887999e+01
3.355544e+02	-2.893053e+01
3.374925e+02	-2.897977e+01
3.394418e+02	-2.903146e+01
3.414024e+02	-2.908269e+01
3.433744e+02	-2.912574e+01
3.453577e+02	-2.917777e+01
3.473525e+02	-2.922856e+01
3.493588e+02	-2.927994e+01
3.513766e+02	-2.933046e+01
3.534062e+02	-2.937632e+01
3.554474e+02	-2.942914e+01
3.575005e+02	-2.948273e+01
3.595654e+02	-2.952792e+01
3.616422e+02	-2.957776e+01
3.637311e+02	-2.963275e+01
3.658320e+02	-2.967805e+01
3.679450e+02	-2.973474e+01
3.700702e+02	-2.977517e+01
3.722077e+02	-2.983399e+01
3.743576e+02	-2.987756e+01
3.765199e+02	-2.993264e+01
3.786946e+02	-2.997977e+01
3.808820e+02	-3.003200e+01
3.830819e+02	-3.008213e+01
3.852946e+02	-3.013291e+01
3.875200e+02	-3.017981e+01
3.897583e+02	-3.023422e+01
3.920096e+02	-3.028520e+01
3.942738e+02	-3.033185e+01
3.965511e+02	-3.038295e+01
3.988416e+02	-3.042850e+01
4.011452e+02	-3.048088e+01
4.034622e+02	-3.052831e+01
4.057926e+02	-3.058011e+01
4.081365e+02	-3.063747e+01
4.104938e+02	-3.068188e+01
4.128648e+02	-3.073742e+01
4.152495e+02	-3.078260e+01
4.176480e+02	-3.083452e+01
4.200603e+02	-3.087999e+01
4.224866e+02	-3.093570e+01
4.249268e+02	-3.098760e+01
4.273812e+02	-3.103712e+01
4.298497e+02	-3.108647e+01
4.323325e+02	-3.113656e+01
4.348297e+02	-3.118210e+01
4.373412e+02	-3.123219e+01
4.398673e+02	-3.128060e+01
4.424079e+02	-3.133057e+01
4.449633e+02	-3.138414e+01
4.475334e+02	-3.143574e+01
4.501183e+02	-3.148576e+01
4.527182e+02	-3.153657e+01
4.553330e+02	-3.159247e+01
4.579630e+02	-3.163057e+01
4.606082e+02	-3.168806e+01
4.632687e+02	-3.173253e+01
4.659445e+02	-3.178902e+01
4.686358e+02	-3.183178e+01
4.713426e+02	-3.188612e+01
4.740650e+02	-3.193984e+01
4.768032e+02	-3.198421e+01
4.795572e+02	-3.203578e+01
4.823271e+02	-3.208836e+01
4.851130e+02	-3.213708e+01
4.879150e+02	-3.218820e+01
4.907332e+02	-3.223769e+01
4.935676e+02	-3.228577e+01
4.964185e+02	-3.233274e+01
4.992858e+02	-3.239268e+01
5.021696e+02	-3.243568e+01
5.050701e+02	-3.249160e+01
5.079874e+02	-3.253262e+01
5.109215e+02	-3.258958e+01
5.138726e+02	-3.264425e+01
5.168407e+02	-3.268956e+01
5.198259e+02	-3.273561e+01
5.228284e+02	-3.279261e+01
5.258482e+02	-3.283942e+01
5.288855e+02	-3.289433e+01
5.319403e+02	-3.294560e+01
5.350128e+02	-3.298795e+01
5.381030e+02	-3.303691e+01
5.412111e+02	-3.309326e+01
5.443371e+02	-3.313826e+01
5.474812e+02	-3.318736e+01
5.506434e+02	-3.324704e+01
5.538239e+02	-3.329276e+01
5.570228e+02	-3.334497e+01
5.602401e+02	-3.338525e+01
5.634760e+02	-3.345199e+01
5.667306e+02	-3.349650e+01
5.700040e+02	-3.355197e+01
5.732964e+02	-3.359940e+01
5.766077e+02	-3.364413e+01
5.799382e+02	-3.369930e+01
5.832879e+02	-3.374607e+01
5.866569e+02	-3.379271e+01
5.900454e+02	-3.384731e+01
5.934535e+02	-3.390029e+01
5.968813e+02	-3.394878e+01
6.003288e+02	-3.400330e+01
6.037963e+02	-3.404051e+01
6.072838e+02	-3.408996e+01
6.107914e+02	-3.415248e+01
6.143194e+02	-3.419809e+01
6.178676e+02	-3.425547e+01
6.214364e+02	-3.429689e+01
6.250258e+02	-3.434020e+01
6.286359e+02	-3.439797e+01
6.322669e+02	-3.444637e+01
6.359189e+02	-3.450892e+01
6.395919e+02	-3.455201e+01
6.432862e+02	-3.460613e+01
6.470017e+02	-3.464851e+01
6.507388e+02	-3.469871e+01
6.544974e+02	-3.475766e+01
6.582778e+02	-3.480434e+01
6.620800e+02	-3.486060e+01
6.659041e+02	-3.490396e+01
6.697504e+02	-3.495871e+01
6.736188e+02	-3.500993e+01
6.775096e+02	-3.505369e+01
6.814229e+02	-3.510670e+01
6.853587e+02	-3.515698e+01
6.893173e+02	-3.520373e+01
6.932988e+02	-3.525719e+01
6.973033e+02	-3.530794e+01
7.013309e+02	-3.536032e+01
