Frequency(Hz)	Magnitude(dB)
1.000000e+01	-1.794997e-05
1.005776e+01	-1.815792e-05
1.011585e+01	-1.836829e-05
1.017428e+01	-1.858109e-05
1.023305e+01	-1.879636e-05
1.029215e+01	-1.901412e-05
1.035160e+01	-1.923440e-05
1.041139e+01	-1.945724e-05
1.047153e+01	-1.968265e-05
1.053201e+01	-1.991068e-05
1.059284e+01	-2.014135e-05
1.065403e+01	-2.037469e-05
1.071556e+01	-2.061074e-05
1.077746e+01	-2.084952e-05
1.083971e+01	-2.109107e-05
1.090232e+01	-2.133541e-05
1.096529e+01	-2.158259e-05
1.102862e+01	-2.183263e-05
1.109232e+01	-2.208557e-05
1.115639e+01	-2.234143e-05
1.122083e+01	-2.260026e-05
1.128564e+01	-2.286209e-05
1.135083e+01	-2.312696e-05
1.141639e+01	-2.339489e-05
1.148233e+01	-2.366592e-05
1.154865e+01	-2.394010e-05
1.161536e+01	-2.421745e-05
1.168245e+01	-2.449802e-05
1.174992e+01	-2.478183e-05
1.181779e+01	-2.506893e-05
1.188605e+01	-2.535936e-05
1.195470e+01	-2.565316e-05
1.202375e+01	-2.595036e-05
1.209320e+01	-2.625100e-05
1.216305e+01	-2.655512e-05
1.223330e+01	-2.686277e-05
1.230396e+01	-2.717398e-05
1.237503e+01	-2.748880e-05
1.244651e+01	-2.780726e-05
1.251840e+01	-2.812942e-05
1.259070e+01	-2.845530e-05
1.266343e+01	-2.878497e-05
1.273657e+01	-2.911845e-05
1.281014e+01	-2.945579e-05
1.288413e+01	-2.979704e-05
1.295855e+01	-3.014225e-05
1.303339e+01	-3.049145e-05
1.310867e+01	-3.084470e-05
1.318439e+01	-3.120205e-05
1.326054e+01	-3.156353e-05
1.333713e+01	-3.192920e-05
1.341417e+01	-3.229911e-05
1.349165e+01	-3.267330e-05
1.356958e+01	-3.305183e-05
1.364795e+01	-3.343474e-05
1.372678e+01	-3.382209e-05
1.380607e+01	-3.421393e-05
1.388581e+01	-3.461031e-05
1.396602e+01	-3.501127e-05
1.404668e+01	-3.541689e-05
1.412782e+01	-3.582720e-05
1.420942e+01	-3.624227e-05
1.429149e+01	-3.666214e-05
1.437404e+01	-3.708688e-05
1.445706e+01	-3.751654e-05
1.454057e+01	-3.795118e-05
1.462455e+01	-3.839085e-05
1.470902e+01	-3.883562e-05
1.479398e+01	-3.928554e-05
1.487943e+01	-3.974067e-05
1.496537e+01	-4.020108e-05
1.505181e+01	-4.066681e-05
1.513875e+01	-4.113795e-05
1.522619e+01	-4.161454e-05
1.531414e+01	-4.209665e-05
1.540259e+01	-4.258435e-05
1.549156e+01	-4.307770e-05
1.558103e+01	-4.357677e-05
1.567103e+01	-4.408161e-05
1.576155e+01	-4.459231e-05
1.585258e+01	-4.510892e-05
1.594415e+01	-4.563152e-05
1.603624e+01	-4.616017e-05
1.612886e+01	-4.669494e-05
1.622202e+01	-4.723592e-05
1.631572e+01	-4.778315e-05
1.640996e+01	-4.833673e-05
1.650474e+01	-4.889672e-05
1.660008e+01	-4.946320e-05
1.669596e+01	-5.003624e-05
1.679239e+01	-5.061592e-05
1.688938e+01	-5.120232e-05
1.698694e+01	-5.179551e-05
1.708505e+01	-5.239557e-05
1.718373e+01	-5.300259e-05
1.728299e+01	-5.361663e-05
1.738281e+01	-5.423779e-05
1.748322e+01	-5.486615e-05
1.758420e+01	-5.550178e-05
1.768576e+01	-5.614478e-05
1.778792e+01	-5.679523e-05
1.789066e+01	-5.745322e-05
1.799399e+01	-5.811882e-05
1.809793e+01	-5.879214e-05
1.820246e+01	-5.947326e-05
1.830760e+01	-6.016227e-05
1.841334e+01	-6.085926e-05
1.851969e+01	-6.156433e-05
1.862666e+01	-6.227756e-05
1.873425e+01	-6.299906e-05
1.884246e+01	-6.372892e-05
1.895129e+01	-6.446723e-05
1.906075e+01	-6.521409e-05
1.917085e+01	-6.596961e-05
1.928158e+01	-6.673388e-05
1.939295e+01	-6.750701e-05
1.950496e+01	-6.828909e-05
1.961762e+01	-6.908023e-05
1.973093e+01	-6.988054e-05
1.984490e+01	-7.069012e-05
1.995952e+01	-7.150908e-05
2.007480e+01	-7.233752e-05
2.019076e+01	-7.317556e-05
2.030738e+01	-7.402332e-05
2.042467e+01	-7.488089e-05
2.054264e+01	-7.574840e-05
2.066130e+01	-7.662596e-05
2.078064e+01	-7.751368e-05
2.090066e+01	-7.841169e-05
2.102139e+01	-7.932011e-05
2.114280e+01	-8.023904e-05
2.126492e+01	-8.116863e-05
2.138775e+01	-8.210898e-05
2.151128e+01	-8.306022e-05
2.163553e+01	-8.402249e-05
2.176050e+01	-8.499590e-05
2.188619e+01	-8.598060e-05
2.201260e+01	-8.697670e-05
2.213974e+01	-8.798434e-05
2.226762e+01	-8.900365e-05
2.239624e+01	-9.003477e-05
2.252560e+01	-9.107784e-05
2.265571e+01	-9.213299e-05
2.278656e+01	-9.320036e-05
2.291818e+01	-9.428010e-05
2.305055e+01	-9.537235e-05
2.318369e+01	-9.647726e-05
2.331760e+01	-9.759496e-05
2.345228e+01	-9.872561e-05
2.358774e+01	-9.986936e-05
2.372398e+01	-1.010264e-04
2.386101e+01	-1.021968e-04
2.399883e+01	-1.033807e-04
2.413745e+01	-1.045784e-04
2.427686e+01	-1.057900e-04
2.441709e+01	-1.070156e-04
2.455812e+01	-1.082553e-04
2.469997e+01	-1.095095e-04
2.484263e+01	-1.107782e-04
2.498612e+01	-1.120616e-04
2.513044e+01	-1.133598e-04
2.527559e+01	-1.146731e-04
2.542158e+01	-1.160016e-04
2.556842e+01	-1.173455e-04
2.571610e+01	-1.187050e-04
2.586463e+01	-1.200802e-04
2.601403e+01	-1.214713e-04
2.616428e+01	-1.228786e-04
2.631541e+01	-1.243021e-04
2.646740e+01	-1.257422e-04
2.662028e+01	-1.271989e-04
2.677404e+01	-1.286725e-04
2.692868e+01	-1.301632e-04
2.708422e+01	-1.316712e-04
2.724066e+01	-1.331966e-04
2.739800e+01	-1.347397e-04
2.755625e+01	-1.363007e-04
2.771541e+01	-1.378797e-04
2.787550e+01	-1.394771e-04
2.803650e+01	-1.410929e-04
2.819844e+01	-1.427275e-04
2.836131e+01	-1.443810e-04
2.852513e+01	-1.460537e-04
2.868989e+01	-1.477457e-04
2.885560e+01	-1.494574e-04
2.902227e+01	-1.511888e-04
2.918990e+01	-1.529404e-04
2.935850e+01	-1.547122e-04
2.952807e+01	-1.565046e-04
2.969863e+01	-1.583177e-04
2.987016e+01	-1.601518e-04
3.004269e+01	-1.620072e-04
3.021622e+01	-1.638840e-04
3.039075e+01	-1.657826e-04
3.056628e+01	-1.677032e-04
3.074283e+01	-1.696461e-04
3.092040e+01	-1.716114e-04
3.109900e+01	-1.735996e-04
3.127862e+01	-1.756107e-04
3.145929e+01	-1.776452e-04
3.164099e+01	-1.797032e-04
3.182375e+01	-1.817851e-04
3.200756e+01	-1.838911e-04
3.219244e+01	-1.860214e-04
3.237838e+01	-1.881765e-04
3.256540e+01	-1.903565e-04
3.275349e+01	-1.925618e-04
3.294268e+01	-1.947927e-04
3.313295e+01	-1.970493e-04
3.332433e+01	-1.993321e-04
3.351681e+01	-2.016414e-04
3.371040e+01	-2.039774e-04
3.390511e+01	-2.063405e-04
3.410094e+01	-2.087310e-04
3.429791e+01	-2.111491e-04
3.449601e+01	-2.135953e-04
3.469526e+01	-2.160698e-04
3.489566e+01	-2.185729e-04
3.509721e+01	-2.211051e-04
3.529993e+01	-2.236666e-04
3.550382e+01	-2.262578e-04
3.570889e+01	-2.288790e-04
3.591515e+01	-2.315305e-04
3.612259e+01	-2.342128e-04
3.633123e+01	-2.369261e-04
3.654108e+01	-2.396709e-04
3.675214e+01	-2.424475e-04
3.696442e+01	-2.452562e-04
3.717792e+01	-2.480975e-04
3.739266e+01	-2.509717e-04
3.760864e+01	-2.538792e-04
3.782587e+01	-2.568204e-04
3.804435e+01	-2.597956e-04
3.826409e+01	-2.628053e-04
3.848510e+01	-2.658499e-04
3.870739e+01	-2.689298e-04
3.893096e+01	-2.720453e-04
3.915583e+01	-2.751969e-04
3.938199e+01	-2.783850e-04
3.960946e+01	-2.816101e-04
3.983824e+01	-2.848725e-04
4.006834e+01	-2.881728e-04
4.029978e+01	-2.915112e-04
4.053255e+01	-2.948883e-04
4.076666e+01	-2.983046e-04
4.100213e+01	-3.017604e-04
4.123896e+01	-3.052563e-04
4.147715e+01	-3.087926e-04
4.171672e+01	-3.123699e-04
4.195767e+01	-3.159887e-04
4.220002e+01	-3.196494e-04
4.244377e+01	-3.233525e-04
4.268892e+01	-3.270984e-04
4.293549e+01	-3.308878e-04
4.318348e+01	-3.347211e-04
4.343291e+01	-3.385988e-04
4.368377e+01	-3.425214e-04
4.393609e+01	-3.464894e-04
4.418986e+01	-3.505035e-04
4.444510e+01	-3.545640e-04
4.470182e+01	-3.586715e-04
4.496001e+01	-3.628267e-04
4.521970e+01	-3.670299e-04
4.548089e+01	-3.712819e-04
4.574358e+01	-3.755831e-04
4.600779e+01	-3.799342e-04
4.627353e+01	-3.843356e-04
4.654081e+01	-3.887880e-04
4.680963e+01	-3.932920e-04
4.708000e+01	-3.978482e-04
4.735193e+01	-4.024572e-04
4.762543e+01	-4.071196e-04
4.790051e+01	-4.118359e-04
4.817719e+01	-4.166069e-04
4.845545e+01	-4.214332e-04
4.873533e+01	-4.263154e-04
4.901682e+01	-4.312541e-04
4.929994e+01	-4.362501e-04
4.958470e+01	-4.413039e-04
4.987110e+01	-4.464163e-04
5.015915e+01	-4.515879e-04
5.044887e+01	-4.568193e-04
5.074026e+01	-4.621114e-04
5.103333e+01	-4.674648e-04
5.132810e+01	-4.728803e-04
5.162457e+01	-4.783584e-04
5.192275e+01	-4.839000e-04
5.222265e+01	-4.895058e-04
5.252429e+01	-4.951765e-04
5.282767e+01	-5.009130e-04
5.313280e+01	-5.067159e-04
5.343969e+01	-5.125859e-04
5.374836e+01	-5.185240e-04
5.405880e+01	-5.245309e-04
5.437105e+01	-5.306074e-04
5.468509e+01	-5.367542e-04
5.500095e+01	-5.429723e-04
5.531863e+01	-5.492624e-04
5.563815e+01	-5.556253e-04
5.595951e+01	-5.620620e-04
5.628273e+01	-5.685732e-04
5.660782e+01	-5.751599e-04
5.693479e+01	-5.818228e-04
5.726364e+01	-5.885629e-04
5.759439e+01	-5.953811e-04
5.792705e+01	-6.022783e-04
5.826164e+01	-6.092554e-04
5.859815e+01	-6.163132e-04
5.893662e+01	-6.234529e-04
5.927703e+01	-6.306752e-04
5.961941e+01	-6.379813e-04
5.996377e+01	-6.453719e-04
6.031012e+01	-6.528481e-04
6.065847e+01	-6.604110e-04
6.100883e+01	-6.680614e-04
6.136121e+01	-6.758005e-04
6.171563e+01	-6.836292e-04
6.207210e+01	-6.915486e-04
6.243063e+01	-6.995598e-04
6.279122e+01	-7.076637e-04
6.315390e+01	-7.158615e-04
6.351868e+01	-7.241543e-04
6.388556e+01	-7.325431e-04
6.425456e+01	-7.410291e-04
6.462569e+01	-7.496134e-04
6.499897e+01	-7.582971e-04
6.537440e+01	-7.670814e-04
6.575200e+01	-7.759674e-04
6.613178e+01	-7.849564e-04
6.651375e+01	-7.940495e-04
6.689793e+01	-8.032480e-04
6.728433e+01	-8.125529e-04
6.767297e+01	-8.219657e-04
6.806384e+01	-8.314875e-04
6.845698e+01	-8.411196e-04
6.885238e+01	-8.508632e-04
6.925007e+01	-8.607197e-04
6.965005e+01	-8.706904e-04
7.005235e+01	-8.807765e-04
7.045697e+01	-8.909795e-04
7.086393e+01	-9.013007e-04
7.127323e+01	-9.117414e-04
7.168490e+01	-9.223031e-04
7.209895e+01	-9.329871e-04
7.251539e+01	-9.437948e-04
7.293424e+01	-9.547277e-04
7.335551e+01	-9.657873e-04
7.377920e+01	-9.769749e-04
7.420535e+01	-9.882922e-04
7.463396e+01	-9.997405e-04
7.506504e+01	-1.011321e-03
7.549861e+01	-1.023036e-03
7.593469e+01	-1.034887e-03
7.637328e+01	-1.046875e-03
7.681441e+01	-1.059002e-03
7.725809e+01	-1.071269e-03
7.770433e+01	-1.083679e-03
7.815315e+01	-1.096232e-03
7.860456e+01	-1.108930e-03
7.905857e+01	-1.121776e-03
7.951521e+01	-1.134770e-03
7.997449e+01	-1.147915e-03
8.043642e+01	-1.161212e-03
8.090102e+01	-1.174664e-03
8.136830e+01	-1.188270e-03
8.183828e+01	-1.202035e-03
8.231097e+01	-1.215959e-03
8.278640e+01	-1.230044e-03
8.326457e+01	-1.244293e-03
8.374550e+01	-1.258706e-03
8.422921e+01	-1.273286e-03
8.471572e+01	-1.288035e-03
8.520503e+01	-1.302955e-03
8.569717e+01	-1.318048e-03
8.619215e+01	-1.333316e-03
8.669000e+01	-1.348760e-03
8.719071e+01	-1.364384e-03
8.769432e+01	-1.380188e-03
8.820084e+01	-1.396175e-03
8.871029e+01	-1.412347e-03
8.922267e+01	-1.428707e-03
8.973802e+01	-1.445256e-03
9.025634e+01	-1.461997e-03
9.077766e+01	-1.478932e-03
9.130199e+01	-1.496063e-03
9.182935e+01	-1.513392e-03
9.235975e+01	-1.530922e-03
9.289321e+01	-1.548655e-03
9.342976e+01	-1.566593e-03
9.396941e+01	-1.584740e-03
9.451217e+01	-1.603096e-03
9.505807e+01	-1.621665e-03
9.560712e+01	-1.640449e-03
9.615934e+01	-1.659450e-03
9.671476e+01	-1.678671e-03
9.727338e+01	-1.698115e-03
9.783522e+01	-1.717785e-03
9.840032e+01	-1.737682e-03
9.896867e+01	-1.757809e-03
9.954031e+01	-1.778170e-03
1.001153e+02	-1.798766e-03
1.006935e+02	-1.819601e-03
1.012751e+02	-1.840677e-03
1.018601e+02	-1.861997e-03
1.024484e+02	-1.883564e-03
1.030402e+02	-1.905381e-03
1.036353e+02	-1.927450e-03
1.042339e+02	-1.949775e-03
1.048360e+02	-1.972359e-03
1.054415e+02	-1.995204e-03
1.060505e+02	-2.018314e-03
1.066631e+02	-2.041691e-03
1.072791e+02	-2.065339e-03
1.078988e+02	-2.089260e-03
1.085220e+02	-2.113459e-03
1.091488e+02	-2.137938e-03
1.097793e+02	-2.162700e-03
1.104133e+02	-2.187750e-03
1.110511e+02	-2.213089e-03
1.116925e+02	-2.238721e-03
1.123376e+02	-2.264651e-03
1.129865e+02	-2.290881e-03
1.136391e+02	-2.317414e-03
1.142955e+02	-2.344254e-03
1.149556e+02	-2.371406e-03
1.156196e+02	-2.398872e-03
1.162874e+02	-2.426655e-03
1.169591e+02	-2.454761e-03
1.176347e+02	-2.483192e-03
1.183141e+02	-2.511952e-03
1.189975e+02	-2.541045e-03
1.196848e+02	-2.570475e-03
1.203761e+02	-2.600246e-03
1.210714e+02	-2.630361e-03
1.217707e+02	-2.660825e-03
1.224740e+02	-2.691642e-03
1.231814e+02	-2.722816e-03
1.238929e+02	-2.754350e-03
1.246085e+02	-2.786250e-03
1.253283e+02	-2.818519e-03
1.260522e+02	-2.851161e-03
1.267802e+02	-2.884182e-03
1.275125e+02	-2.917585e-03
1.282490e+02	-2.951374e-03
1.289898e+02	-2.985555e-03
1.297348e+02	-3.020131e-03
1.304842e+02	-3.055108e-03
1.312378e+02	-3.090489e-03
1.319959e+02	-3.126281e-03
1.327583e+02	-3.162486e-03
1.335251e+02	-3.199111e-03
1.342963e+02	-3.236160e-03
1.350720e+02	-3.273637e-03
1.358522e+02	-3.311549e-03
1.366368e+02	-3.349899e-03
1.374260e+02	-3.388693e-03
1.382198e+02	-3.427937e-03
1.390182e+02	-3.467634e-03
1.398211e+02	-3.507792e-03
1.406287e+02	-3.548414e-03
1.414410e+02	-3.589506e-03
1.422579e+02	-3.631074e-03
1.430796e+02	-3.673123e-03
1.439060e+02	-3.715659e-03
1.447372e+02	-3.758687e-03
1.455732e+02	-3.802213e-03
1.464141e+02	-3.846244e-03
1.472597e+02	-3.890783e-03
1.481103e+02	-3.935839e-03
1.489658e+02	-3.981415e-03
1.498262e+02	-4.027520e-03
1.506916e+02	-4.074158e-03
1.515620e+02	-4.121335e-03
1.524374e+02	-4.169059e-03
1.533179e+02	-4.217335e-03
1.542034e+02	-4.266170e-03
1.550941e+02	-4.315570e-03
1.559899e+02	-4.365542e-03
1.568909e+02	-4.416092e-03
1.577971e+02	-4.467227e-03
1.587085e+02	-4.518954e-03
1.596252e+02	-4.571280e-03
1.605472e+02	-4.624211e-03
1.614745e+02	-4.677755e-03
1.624072e+02	-4.731919e-03
1.633453e+02	-4.786709e-03
1.642887e+02	-4.842133e-03
1.652377e+02	-4.898199e-03
1.661921e+02	-4.954913e-03
1.671520e+02	-5.012284e-03
1.681175e+02	-5.070319e-03
1.690885e+02	-5.129025e-03
1.700651e+02	-5.188410e-03
1.710474e+02	-5.248483e-03
1.720354e+02	-5.309251e-03
1.730291e+02	-5.370722e-03
1.740285e+02	-5.432904e-03
1.750337e+02	-5.495806e-03
1.760446e+02	-5.559435e-03
1.770615e+02	-5.623801e-03
1.780842e+02	-5.688911e-03
1.791128e+02	-5.754775e-03
1.801473e+02	-5.821401e-03
1.811878e+02	-5.888797e-03
1.822344e+02	-5.956974e-03
1.832870e+02	-6.025939e-03
1.843456e+02	-6.095702e-03
1.854104e+02	-6.166272e-03
1.864813e+02	-6.237658e-03
1.875584e+02	-6.309870e-03
1.886418e+02	-6.382918e-03
1.897313e+02	-6.456810e-03
1.908272e+02	-6.531558e-03
1.919294e+02	-6.607170e-03
1.930380e+02	-6.683657e-03
1.941530e+02	-6.761028e-03
1.952744e+02	-6.839295e-03
1.964023e+02	-6.918466e-03
1.975367e+02	-6.998554e-03
1.986777e+02	-7.079568e-03
1.998252e+02	-7.161518e-03
2.009794e+02	-7.244417e-03
2.021403e+02	-7.328274e-03
2.033078e+02	-7.413102e-03
2.044821e+02	-7.498910e-03
2.056632e+02	-7.585711e-03
2.068511e+02	-7.673515e-03
2.080459e+02	-7.762335e-03
2.092475e+02	-7.852182e-03
2.104561e+02	-7.943069e-03
2.116717e+02	-8.035006e-03
2.128943e+02	-8.128006e-03
2.141240e+02	-8.222082e-03
2.153608e+02	-8.317245e-03
2.166047e+02	-8.413509e-03
2.178558e+02	-8.510886e-03
2.191141e+02	-8.609388e-03
2.203797e+02	-8.709030e-03
2.216526e+02	-8.809824e-03
2.229329e+02	-8.911783e-03
2.242205e+02	-9.014921e-03
2.255156e+02	-9.119251e-03
2.268182e+02	-9.224787e-03
2.281283e+02	-9.331544e-03
2.294459e+02	-9.439534e-03
2.307712e+02	-9.548773e-03
2.321041e+02	-9.659274e-03
2.334447e+02	-9.771053e-03
2.347931e+02	-9.884124e-03
2.361493e+02	-9.998502e-03
2.375133e+02	-1.011420e-02
2.388851e+02	-1.023124e-02
2.402649e+02	-1.034963e-02
2.416527e+02	-1.046939e-02
2.430484e+02	-1.059053e-02
2.444523e+02	-1.071307e-02
2.458642e+02	-1.083703e-02
2.472843e+02	-1.096242e-02
2.487126e+02	-1.108926e-02
2.501492e+02	-1.121757e-02
2.515940e+02	-1.134735e-02
2.530472e+02	-1.147864e-02
2.545088e+02	-1.161145e-02
2.559789e+02	-1.174579e-02
2.574574e+02	-1.188168e-02
2.589444e+02	-1.201914e-02
2.604401e+02	-1.215819e-02
2.619444e+02	-1.229884e-02
2.634574e+02	-1.244112e-02
2.649791e+02	-1.258505e-02
2.665096e+02	-1.273063e-02
2.680489e+02	-1.287790e-02
2.695972e+02	-1.302687e-02
2.711544e+02	-1.317756e-02
2.727205e+02	-1.332999e-02
2.742958e+02	-1.348418e-02
2.758801e+02	-1.364015e-02
2.774736e+02	-1.379793e-02
2.790762e+02	-1.395752e-02
2.806882e+02	-1.411896e-02
2.823094e+02	-1.428226e-02
2.839400e+02	-1.444745e-02
2.855800e+02	-1.461454e-02
2.872295e+02	-1.478357e-02
2.888886e+02	-1.495454e-02
2.905572e+02	-1.512749e-02
2.922354e+02	-1.530244e-02
2.939234e+02	-1.547940e-02
2.956211e+02	-1.565841e-02
2.973286e+02	-1.583949e-02
2.990459e+02	-1.602265e-02
3.007732e+02	-1.620793e-02
3.025104e+02	-1.639535e-02
3.042577e+02	-1.658493e-02
3.060151e+02	-1.677670e-02
3.077826e+02	-1.697068e-02
3.095604e+02	-1.716690e-02
3.113484e+02	-1.736538e-02
3.131467e+02	-1.756616e-02
3.149554e+02	-1.776925e-02
3.167746e+02	-1.797468e-02
3.186043e+02	-1.818249e-02
3.204445e+02	-1.839269e-02
3.222954e+02	-1.860531e-02
3.241570e+02	-1.882039e-02
3.260293e+02	-1.903795e-02
3.279124e+02	-1.925802e-02
3.298064e+02	-1.948063e-02
3.317114e+02	-1.970580e-02
3.336273e+02	-1.993357e-02
3.355544e+02	-2.016397e-02
3.374925e+02	-2.039703e-02
3.394418e+02	-2.063277e-02
3.414024e+02	-2.087123e-02
3.433744e+02	-2.111244e-02
3.453577e+02	-2.135643e-02
3.473525e+02	-2.160323e-02
3.493588e+02	-2.185288e-02
3.513766e+02	-2.210540e-02
3.534062e+02	-2.236084e-02
3.554474e+02	-2.261921e-02
3.575005e+02	-2.288057e-02
3.595654e+02	-2.314494e-02
3.616422e+02	-2.341236e-02
3.637311e+02	-2.368285e-02
3.658320e+02	-2.395646e-02
3.679450e+02	-2.423323e-02
3.700702e+02	-2.451318e-02
3.722077e+02	-2.479636e-02
3.743576e+02	-2.508280e-02
3.765199e+02	-2.537254e-02
3.786946e+02	-2.566562e-02
3.808820e+02	-2.596207e-02
3.830819e+02	-2.626193e-02
3.852946e+02	-2.656525e-02
3.875200e+02	-2.687206e-02
3.897583e+02	-2.718240e-02
3.920096e+02	-2.749632e-02
3.942738e+02	-2.781385e-02
3.965511e+02	-2.813503e-02
3.988416e+02	-2.845991e-02
4.011452e+02	-2.878853e-02
4.034622e+02	-2.912093e-02
4.057926e+02	-2.945716e-02
4.081365e+02	-2.979725e-02
4.104938e+02	-3.014126e-02
4.128648e+02	-3.048923e-02
4.152495e+02	-3.084119e-02
4.176480e+02	-3.119721e-02
4.200603e+02	-3.155732e-02
4.224866e+02	-3.192157e-02
4.249268e+02	-3.229002e-02
4.273812e+02	-3.266269e-02
4.298497e+02	-3.303966e-02
4.323325e+02	-3.342095e-02
4.348297e+02	-3.380663e-02
4.373412e+02	-3.419674e-02
4.398673e+02	-3.459134e-02
4.424079e+02	-3.499047e-02
4.449633e+02	-3.539419e-02
4.475334e+02	-3.580255e-02
4.501183e+02	-3.621559e-02
4.527182e+02	-3.663339e-02
4.553330e+02	-3.705598e-02
4.579630e+02	-3.748343e-02
4.606082e+02	-3.791578e-02
4.632687e+02	-3.835310e-02
4.659445e+02	-3.879544e-02
4.686358e+02	-3.924286e-02
4.713426e+02	-3.969542e-02
4.740650e+02	-4.015317e-02
4.768032e+02	-4.061617e-02
4.795572e+02	-4.108449e-02
4.823271e+02	-4.155819e-02
4.851130e+02	-4.203731e-02
4.879150e+02	-4.252194e-02
4.907332e+02	-4.301212e-02
4.935676e+02	-4.350793e-02
4.964185e+02	-4.400942e-02
4.992858e+02	-4.451666e-02
5.021696e+02	-4.502972e-02
5.050701e+02	-4.554866e-02
5.079874e+02	-4.607355e-02
5.109215e+02	-4.660445e-02
5.138726e+02	-4.714144e-02
5.168407e+02	-4.768458e-02
5.198259e+02	-4.823395e-02
5.228284e+02	-4.878961e-02
5.258482e+02	-4.935163e-02
5.288855e+02	-4.992009e-02
5.319403e+02	-5.049506e-02
5.350128e+02	-5.107662e-02
5.381030e+02	-5.166483e-02
5.412111e+02	-5.225977e-02
5.443371e+02	-5.286152e-02
5.474812e+02	-5.347016e-02
5.506434e+02	-5.408577e-02
5.538239e+02	-5.470841e-02
5.570228e+02	-5.533818e-02
5.602401e+02	-5.597515e-02
5.634760e+02	-5.661941e-02
5.667306e+02	-5.727103e-02
5.700040e+02	-5.793010e-02
5.732964e+02	-5.859670e-02
5.766077e+02	-5.927092e-02
5.799382e+02	-5.995285e-02
5.832879e+02	-6.064257e-02
5.866569e+02	-6.134016e-02
5.900454e+02	-6.204572e-02
5.934535e+02	-6.275934e-02
5.968813e+02	-6.348111e-02
6.003288e+02	-6.421111e-02
6.037963e+02	-6.494945e-02
6.072838e+02	-6.569621e-02
6.107914e+02	-6.645150e-02
6.143194e+02	-6.721539e-02
6.178676e+02	-6.798800e-02
6.214364e+02	-6.876943e-02
6.250258e+02	-6.955976e-02
6.286359e+02	-7.035910e-02
6.322669e+02	-7.116755e-02
6.359189e+02	-7.198521e-02
6.395919e+02	-7.281218e-02
6.432862e+02	-7.364858e-02
6.470017e+02	-7.449450e-02
6.507388e+02	-7.535006e-02
6.544974e+02	-7.621535e-02
6.582778e+02	-7.709049e-02
6.620800e+02	-7.797559e-02
6.659041e+02	-7.887076e-02
6.697504e+02	-7.977611e-02
6.736188e+02	-8.069176e-02
6.775096e+02	-8.161781e-02
6.814229e+02	-8.255440e-02
6.853587e+02	-8.350162e-02
6.893173e+02	-8.445961e-02
6.932988e+02	-8.542849e-02
6.973033e+02	-8.640836e-02
7.013309e+02	-8.739936e-02
