Frequency(Hz)	Magnitude(dB)
1.000000e+01	-1.622429e-05
1.005776e+01	-1.641226e-05
1.011585e+01	-1.660240e-05
1.017428e+01	-1.679474e-05
1.023305e+01	-1.698931e-05
1.029215e+01	-1.718614e-05
1.035160e+01	-1.738524e-05
1.041139e+01	-1.758665e-05
1.047153e+01	-1.779040e-05
1.053201e+01	-1.799651e-05
1.059284e+01	-1.820500e-05
1.065403e+01	-1.841591e-05
1.071556e+01	-1.862926e-05
1.077746e+01	-1.884509e-05
1.083971e+01	-1.906341e-05
1.090232e+01	-1.928427e-05
1.096529e+01	-1.950768e-05
1.102862e+01	-1.973368e-05
1.109232e+01	-1.996230e-05
1.115639e+01	-2.019357e-05
1.122083e+01	-2.042752e-05
1.128564e+01	-2.066418e-05
1.135083e+01	-2.090358e-05
1.141639e+01	-2.114575e-05
1.148233e+01	-2.139073e-05
1.154865e+01	-2.163855e-05
1.161536e+01	-2.188923e-05
1.168245e+01	-2.214283e-05
1.174992e+01	-2.239936e-05
1.181779e+01	-2.265886e-05
1.188605e+01	-2.292137e-05
1.195470e+01	-2.318692e-05
1.202375e+01	-2.345554e-05
1.209320e+01	-2.372728e-05
1.216305e+01	-2.400217e-05
1.223330e+01	-2.428024e-05
1.230396e+01	-2.456153e-05
1.237503e+01	-2.484608e-05
1.244651e+01	-2.513393e-05
1.251840e+01	-2.542511e-05
1.259070e+01	-2.571967e-05
1.266343e+01	-2.601764e-05
1.273657e+01	-2.631906e-05
1.281014e+01	-2.662397e-05
1.288413e+01	-2.693242e-05
1.295855e+01	-2.724443e-05
1.303339e+01	-2.756007e-05
1.310867e+01	-2.787936e-05
1.318439e+01	-2.820235e-05
1.326054e+01	-2.852908e-05
1.333713e+01	-2.885959e-05
1.341417e+01	-2.919394e-05
1.349165e+01	-2.953216e-05
1.356958e+01	-2.987430e-05
1.364795e+01	-3.022040e-05
1.372678e+01	-3.057051e-05
1.380607e+01	-3.092467e-05
1.388581e+01	-3.128294e-05
1.396602e+01	-3.164536e-05
1.404668e+01	-3.201198e-05
1.412782e+01	-3.238285e-05
1.420942e+01	-3.275801e-05
1.429149e+01	-3.313752e-05
1.437404e+01	-3.352143e-05
1.445706e+01	-3.390978e-05
1.454057e+01	-3.430263e-05
1.462455e+01	-3.470004e-05
1.470902e+01	-3.510205e-05
1.479398e+01	-3.550871e-05
1.487943e+01	-3.592009e-05
1.496537e+01	-3.633623e-05
1.505181e+01	-3.675719e-05
1.513875e+01	-3.718304e-05
1.522619e+01	-3.761381e-05
1.531414e+01	-3.804957e-05
1.540259e+01	-3.849039e-05
1.549156e+01	-3.893631e-05
1.558103e+01	-3.938739e-05
1.567103e+01	-3.984370e-05
1.576155e+01	-4.030530e-05
1.585258e+01	-4.077225e-05
1.594415e+01	-4.124460e-05
1.603624e+01	-4.172243e-05
1.612886e+01	-4.220580e-05
1.622202e+01	-4.269476e-05
1.631572e+01	-4.318939e-05
1.640996e+01	-4.368975e-05
1.650474e+01	-4.419590e-05
1.660008e+01	-4.470792e-05
1.669596e+01	-4.522587e-05
1.679239e+01	-4.574982e-05
1.688938e+01	-4.627985e-05
1.698694e+01	-4.681601e-05
1.708505e+01	-4.735838e-05
1.718373e+01	-4.790704e-05
1.728299e+01	-4.846205e-05
1.738281e+01	-4.902349e-05
1.748322e+01	-4.959144e-05
1.758420e+01	-5.016597e-05
1.768576e+01	-5.074715e-05
1.778792e+01	-5.133507e-05
1.789066e+01	-5.192980e-05
1.799399e+01	-5.253142e-05
1.809793e+01	-5.314000e-05
1.820246e+01	-5.375564e-05
1.830760e+01	-5.437841e-05
1.841334e+01	-5.500840e-05
1.851969e+01	-5.564568e-05
1.862666e+01	-5.629035e-05
1.873425e+01	-5.694248e-05
1.884246e+01	-5.760217e-05
1.895129e+01	-5.826950e-05
1.906075e+01	-5.894457e-05
1.917085e+01	-5.962745e-05
1.928158e+01	-6.031825e-05
1.939295e+01	-6.101705e-05
1.950496e+01	-6.172394e-05
1.961762e+01	-6.243903e-05
1.973093e+01	-6.316239e-05
1.984490e+01	-6.389414e-05
1.995952e+01	-6.463437e-05
2.007480e+01	-6.538317e-05
2.019076e+01	-6.614065e-05
2.030738e+01	-6.690690e-05
2.042467e+01	-6.768203e-05
2.054264e+01	-6.846614e-05
2.066130e+01	-6.925933e-05
2.078064e+01	-7.006171e-05
2.090066e+01	-7.087339e-05
2.102139e+01	-7.169447e-05
2.114280e+01	-7.252507e-05
2.126492e+01	-7.336528e-05
2.138775e+01	-7.421523e-05
2.151128e+01	-7.507503e-05
2.163553e+01	-7.594479e-05
2.176050e+01	-7.682462e-05
2.188619e+01	-7.771465e-05
2.201260e+01	-7.861498e-05
2.213974e+01	-7.952575e-05
2.226762e+01	-8.044707e-05
2.239624e+01	-8.137907e-05
2.252560e+01	-8.232186e-05
2.265571e+01	-8.327557e-05
2.278656e+01	-8.424033e-05
2.291818e+01	-8.521627e-05
2.305055e+01	-8.620351e-05
2.318369e+01	-8.720219e-05
2.331760e+01	-8.821245e-05
2.345228e+01	-8.923440e-05
2.358774e+01	-9.026820e-05
2.372398e+01	-9.131397e-05
2.386101e+01	-9.237185e-05
2.399883e+01	-9.344200e-05
2.413745e+01	-9.452454e-05
2.427686e+01	-9.561962e-05
2.441709e+01	-9.672738e-05
2.455812e+01	-9.784799e-05
2.469997e+01	-9.898157e-05
2.484263e+01	-1.001283e-04
2.498612e+01	-1.012883e-04
2.513044e+01	-1.024617e-04
2.527559e+01	-1.036488e-04
2.542158e+01	-1.048495e-04
2.556842e+01	-1.060642e-04
2.571610e+01	-1.072930e-04
2.586463e+01	-1.085360e-04
2.601403e+01	-1.097934e-04
2.616428e+01	-1.110654e-04
2.631541e+01	-1.123521e-04
2.646740e+01	-1.136537e-04
2.662028e+01	-1.149704e-04
2.677404e+01	-1.163023e-04
2.692868e+01	-1.176497e-04
2.708422e+01	-1.190127e-04
2.724066e+01	-1.203915e-04
2.739800e+01	-1.217862e-04
2.755625e+01	-1.231971e-04
2.771541e+01	-1.246244e-04
2.787550e+01	-1.260682e-04
2.803650e+01	-1.275287e-04
2.819844e+01	-1.290061e-04
2.836131e+01	-1.305007e-04
2.852513e+01	-1.320125e-04
2.868989e+01	-1.335419e-04
2.885560e+01	-1.350890e-04
2.902227e+01	-1.366540e-04
2.918990e+01	-1.382372e-04
2.935850e+01	-1.398387e-04
2.952807e+01	-1.414587e-04
2.969863e+01	-1.430975e-04
2.987016e+01	-1.447553e-04
3.004269e+01	-1.464323e-04
3.021622e+01	-1.481288e-04
3.039075e+01	-1.498448e-04
3.056628e+01	-1.515808e-04
3.074283e+01	-1.533369e-04
3.092040e+01	-1.551133e-04
3.109900e+01	-1.569103e-04
3.127862e+01	-1.587281e-04
3.145929e+01	-1.605670e-04
3.164099e+01	-1.624272e-04
3.182375e+01	-1.643089e-04
3.200756e+01	-1.662124e-04
3.219244e+01	-1.681380e-04
3.237838e+01	-1.700859e-04
3.256540e+01	-1.720564e-04
3.275349e+01	-1.740496e-04
3.294268e+01	-1.760660e-04
3.313295e+01	-1.781057e-04
3.332433e+01	-1.801691e-04
3.351681e+01	-1.822564e-04
3.371040e+01	-1.843678e-04
3.390511e+01	-1.865037e-04
3.410094e+01	-1.886644e-04
3.429791e+01	-1.908501e-04
3.449601e+01	-1.930611e-04
3.469526e+01	-1.952977e-04
3.489566e+01	-1.975602e-04
3.509721e+01	-1.998489e-04
3.529993e+01	-2.021642e-04
3.550382e+01	-2.045063e-04
3.570889e+01	-2.068755e-04
3.591515e+01	-2.092721e-04
3.612259e+01	-2.116965e-04
3.633123e+01	-2.141490e-04
3.654108e+01	-2.166299e-04
3.675214e+01	-2.191396e-04
3.696442e+01	-2.216783e-04
3.717792e+01	-2.242465e-04
3.739266e+01	-2.268444e-04
3.760864e+01	-2.294723e-04
3.782587e+01	-2.321308e-04
3.804435e+01	-2.348200e-04
3.826409e+01	-2.375404e-04
3.848510e+01	-2.402923e-04
3.870739e+01	-2.430761e-04
3.893096e+01	-2.458921e-04
3.915583e+01	-2.487407e-04
3.938199e+01	-2.516224e-04
3.960946e+01	-2.545374e-04
3.983824e+01	-2.574862e-04
4.006834e+01	-2.604692e-04
4.029978e+01	-2.634867e-04
4.053255e+01	-2.665392e-04
4.076666e+01	-2.696270e-04
4.100213e+01	-2.727506e-04
4.123896e+01	-2.759104e-04
4.147715e+01	-2.791068e-04
4.171672e+01	-2.823402e-04
4.195767e+01	-2.856111e-04
4.220002e+01	-2.889199e-04
4.244377e+01	-2.922670e-04
4.268892e+01	-2.956528e-04
4.293549e+01	-2.990779e-04
4.318348e+01	-3.025427e-04
4.343291e+01	-3.060476e-04
4.368377e+01	-3.095932e-04
4.393609e+01	-3.131798e-04
4.418986e+01	-3.168079e-04
4.444510e+01	-3.204781e-04
4.470182e+01	-3.241908e-04
4.496001e+01	-3.279465e-04
4.521970e+01	-3.317457e-04
4.548089e+01	-3.355889e-04
4.574358e+01	-3.394766e-04
4.600779e+01	-3.434094e-04
4.627353e+01	-3.473877e-04
4.654081e+01	-3.514121e-04
4.680963e+01	-3.554832e-04
4.708000e+01	-3.596014e-04
4.735193e+01	-3.637673e-04
4.762543e+01	-3.679815e-04
4.790051e+01	-3.722444e-04
4.817719e+01	-3.765568e-04
4.845545e+01	-3.809191e-04
4.873533e+01	-3.853320e-04
4.901682e+01	-3.897960e-04
4.929994e+01	-3.943117e-04
4.958470e+01	-3.988797e-04
4.987110e+01	-4.035006e-04
5.015915e+01	-4.081750e-04
5.044887e+01	-4.129036e-04
5.074026e+01	-4.176870e-04
5.103333e+01	-4.225258e-04
5.132810e+01	-4.274206e-04
5.162457e+01	-4.323722e-04
5.192275e+01	-4.373811e-04
5.222265e+01	-4.424480e-04
5.252429e+01	-4.475736e-04
5.282767e+01	-4.527586e-04
5.313280e+01	-4.580036e-04
5.343969e+01	-4.633095e-04
5.374836e+01	-4.686767e-04
5.405880e+01	-4.741062e-04
5.437105e+01	-4.795985e-04
5.468509e+01	-4.851545e-04
5.500095e+01	-4.907748e-04
5.531863e+01	-4.964603e-04
5.563815e+01	-5.022116e-04
5.595951e+01	-5.080295e-04
5.628273e+01	-5.139148e-04
5.660782e+01	-5.198683e-04
5.693479e+01	-5.258908e-04
5.726364e+01	-5.319830e-04
5.759439e+01	-5.381458e-04
5.792705e+01	-5.443799e-04
5.826164e+01	-5.506863e-04
5.859815e+01	-5.570658e-04
5.893662e+01	-5.635191e-04
5.927703e+01	-5.700472e-04
5.961941e+01	-5.766509e-04
5.996377e+01	-5.833311e-04
6.031012e+01	-5.900887e-04
6.065847e+01	-5.969246e-04
6.100883e+01	-6.038397e-04
6.136121e+01	-6.108348e-04
6.171563e+01	-6.179110e-04
6.207210e+01	-6.250692e-04
6.243063e+01	-6.323102e-04
6.279122e+01	-6.396352e-04
6.315390e+01	-6.470450e-04
6.351868e+01	-6.545406e-04
6.388556e+01	-6.621231e-04
6.425456e+01	-6.697933e-04
6.462569e+01	-6.775525e-04
6.499897e+01	-6.854015e-04
6.537440e+01	-6.933414e-04
6.575200e+01	-7.013733e-04
6.613178e+01	-7.094983e-04
6.651375e+01	-7.177173e-04
6.689793e+01	-7.260316e-04
6.728433e+01	-7.344421e-04
6.767297e+01	-7.429501e-04
6.806384e+01	-7.515566e-04
6.845698e+01	-7.602629e-04
6.885238e+01	-7.690700e-04
6.925007e+01	-7.779790e-04
6.965005e+01	-7.869913e-04
7.005235e+01	-7.961080e-04
7.045697e+01	-8.053303e-04
7.086393e+01	-8.146594e-04
7.127323e+01	-8.240965e-04
7.168490e+01	-8.336430e-04
7.209895e+01	-8.433000e-04
7.251539e+01	-8.530689e-04
7.293424e+01	-8.629510e-04
7.335551e+01	-8.729475e-04
7.377920e+01	-8.830598e-04
7.420535e+01	-8.932893e-04
7.463396e+01	-9.036372e-04
7.506504e+01	-9.141050e-04
7.549861e+01	-9.246940e-04
7.593469e+01	-9.354057e-04
7.637328e+01	-9.462414e-04
7.681441e+01	-9.572027e-04
7.725809e+01	-9.682909e-04
7.770433e+01	-9.795075e-04
7.815315e+01	-9.908541e-04
7.860456e+01	-1.002332e-03
7.905857e+01	-1.013943e-03
7.951521e+01	-1.025688e-03
7.997449e+01	-1.037570e-03
8.043642e+01	-1.049589e-03
8.090102e+01	-1.061747e-03
8.136830e+01	-1.074046e-03
8.183828e+01	-1.086488e-03
8.231097e+01	-1.099074e-03
8.278640e+01	-1.111805e-03
8.326457e+01	-1.124684e-03
8.374550e+01	-1.137712e-03
8.422921e+01	-1.150891e-03
8.471572e+01	-1.164223e-03
8.520503e+01	-1.177709e-03
8.569717e+01	-1.191351e-03
8.619215e+01	-1.205151e-03
8.669000e+01	-1.219111e-03
8.719071e+01	-1.233233e-03
8.769432e+01	-1.247518e-03
8.820084e+01	-1.261969e-03
8.871029e+01	-1.276587e-03
8.922267e+01	-1.291374e-03
8.973802e+01	-1.306333e-03
9.025634e+01	-1.321465e-03
9.077766e+01	-1.336772e-03
9.130199e+01	-1.352256e-03
9.182935e+01	-1.367920e-03
9.235975e+01	-1.383765e-03
9.289321e+01	-1.399794e-03
9.342976e+01	-1.416009e-03
9.396941e+01	-1.432411e-03
9.451217e+01	-1.449003e-03
9.505807e+01	-1.465787e-03
9.560712e+01	-1.482766e-03
9.615934e+01	-1.499941e-03
9.671476e+01	-1.517315e-03
9.727338e+01	-1.534890e-03
9.783522e+01	-1.552669e-03
9.840032e+01	-1.570654e-03
9.896867e+01	-1.588847e-03
9.954031e+01	-1.607251e-03
1.001153e+02	-1.625868e-03
1.006935e+02	-1.644701e-03
1.012751e+02	-1.663751e-03
1.018601e+02	-1.683023e-03
1.024484e+02	-1.702517e-03
1.030402e+02	-1.722237e-03
1.036353e+02	-1.742186e-03
1.042339e+02	-1.762365e-03
1.048360e+02	-1.782779e-03
1.054415e+02	-1.803428e-03
1.060505e+02	-1.824317e-03
1.066631e+02	-1.845448e-03
1.072791e+02	-1.866823e-03
1.078988e+02	-1.888446e-03
1.085220e+02	-1.910320e-03
1.091488e+02	-1.932446e-03
1.097793e+02	-1.954829e-03
1.104133e+02	-1.977471e-03
1.110511e+02	-2.000375e-03
1.116925e+02	-2.023545e-03
1.123376e+02	-2.046983e-03
1.129865e+02	-2.070692e-03
1.136391e+02	-2.094676e-03
1.142955e+02	-2.118937e-03
1.149556e+02	-2.143479e-03
1.156196e+02	-2.168306e-03
1.162874e+02	-2.193420e-03
1.169591e+02	-2.218825e-03
1.176347e+02	-2.244524e-03
1.183141e+02	-2.270520e-03
1.189975e+02	-2.296818e-03
1.196848e+02	-2.323420e-03
1.203761e+02	-2.350330e-03
1.210714e+02	-2.377552e-03
1.217707e+02	-2.405089e-03
1.224740e+02	-2.432945e-03
1.231814e+02	-2.461123e-03
1.238929e+02	-2.489628e-03
1.246085e+02	-2.518462e-03
1.253283e+02	-2.547631e-03
1.260522e+02	-2.577137e-03
1.267802e+02	-2.606985e-03
1.275125e+02	-2.637178e-03
1.282490e+02	-2.667721e-03
1.289898e+02	-2.698618e-03
1.297348e+02	-2.729872e-03
1.304842e+02	-2.761488e-03
1.312378e+02	-2.793471e-03
1.319959e+02	-2.825823e-03
1.327583e+02	-2.858550e-03
1.335251e+02	-2.891656e-03
1.342963e+02	-2.925146e-03
1.350720e+02	-2.959023e-03
1.358522e+02	-2.993292e-03
1.366368e+02	-3.027958e-03
1.374260e+02	-3.063025e-03
1.382198e+02	-3.098499e-03
1.390182e+02	-3.134382e-03
1.398211e+02	-3.170682e-03
1.406287e+02	-3.207401e-03
1.414410e+02	-3.244546e-03
1.422579e+02	-3.282121e-03
1.430796e+02	-3.320130e-03
1.439060e+02	-3.358580e-03
1.447372e+02	-3.397475e-03
1.455732e+02	-3.436820e-03
1.464141e+02	-3.476620e-03
1.472597e+02	-3.516882e-03
1.481103e+02	-3.557609e-03
1.489658e+02	-3.598808e-03
1.498262e+02	-3.640483e-03
1.506916e+02	-3.682641e-03
1.515620e+02	-3.725287e-03
1.524374e+02	-3.768427e-03
1.533179e+02	-3.812066e-03
1.542034e+02	-3.856210e-03
1.550941e+02	-3.900865e-03
1.559899e+02	-3.946037e-03
1.568909e+02	-3.991732e-03
1.577971e+02	-4.037956e-03
1.587085e+02	-4.084714e-03
1.596252e+02	-4.132014e-03
1.605472e+02	-4.179862e-03
1.614745e+02	-4.228263e-03
1.624072e+02	-4.277224e-03
1.633453e+02	-4.326752e-03
1.642887e+02	-4.376853e-03
1.652377e+02	-4.427535e-03
1.661921e+02	-4.478802e-03
1.671520e+02	-4.530663e-03
1.681175e+02	-4.583124e-03
1.690885e+02	-4.636193e-03
1.700651e+02	-4.689875e-03
1.710474e+02	-4.744179e-03
1.720354e+02	-4.799111e-03
1.730291e+02	-4.854679e-03
1.740285e+02	-4.910889e-03
1.750337e+02	-4.967751e-03
1.760446e+02	-5.025270e-03
1.770615e+02	-5.083455e-03
1.780842e+02	-5.142313e-03
1.791128e+02	-5.201852e-03
1.801473e+02	-5.262080e-03
1.811878e+02	-5.323006e-03
1.822344e+02	-5.384636e-03
1.832870e+02	-5.446979e-03
1.843456e+02	-5.510043e-03
1.854104e+02	-5.573838e-03
1.864813e+02	-5.638370e-03
1.875584e+02	-5.703649e-03
1.886418e+02	-5.769683e-03
1.897313e+02	-5.836481e-03
1.908272e+02	-5.904052e-03
1.919294e+02	-5.972405e-03
1.930380e+02	-6.041549e-03
1.941530e+02	-6.111492e-03
1.952744e+02	-6.182245e-03
1.964023e+02	-6.253816e-03
1.975367e+02	-6.326215e-03
1.986777e+02	-6.399452e-03
1.998252e+02	-6.473536e-03
2.009794e+02	-6.548477e-03
2.021403e+02	-6.624284e-03
2.033078e+02	-6.700969e-03
2.044821e+02	-6.778541e-03
2.056632e+02	-6.857010e-03
2.068511e+02	-6.936386e-03
2.080459e+02	-7.016681e-03
2.092475e+02	-7.097904e-03
2.104561e+02	-7.180067e-03
2.116717e+02	-7.263180e-03
2.128943e+02	-7.347255e-03
2.141240e+02	-7.432301e-03
2.153608e+02	-7.518332e-03
2.166047e+02	-7.605357e-03
2.178558e+02	-7.693389e-03
2.191141e+02	-7.782439e-03
2.203797e+02	-7.872518e-03
2.216526e+02	-7.963639e-03
2.229329e+02	-8.055814e-03
2.242205e+02	-8.149055e-03
2.255156e+02	-8.243374e-03
2.268182e+02	-8.338784e-03
2.281283e+02	-8.435296e-03
2.294459e+02	-8.532925e-03
2.307712e+02	-8.631683e-03
2.321041e+02	-8.731582e-03
2.334447e+02	-8.832637e-03
2.347931e+02	-8.934859e-03
2.361493e+02	-9.038264e-03
2.375133e+02	-9.142864e-03
2.388851e+02	-9.248673e-03
2.402649e+02	-9.355705e-03
2.416527e+02	-9.463975e-03
2.430484e+02	-9.573497e-03
2.444523e+02	-9.684284e-03
2.458642e+02	-9.796352e-03
2.472843e+02	-9.909715e-03
2.487126e+02	-1.002439e-02
2.501492e+02	-1.014039e-02
2.515940e+02	-1.025773e-02
2.530472e+02	-1.037642e-02
2.545088e+02	-1.049649e-02
2.559789e+02	-1.061795e-02
2.574574e+02	-1.074081e-02
2.589444e+02	-1.086508e-02
2.604401e+02	-1.099080e-02
2.619444e+02	-1.111797e-02
2.634574e+02	-1.124660e-02
2.649791e+02	-1.137673e-02
2.665096e+02	-1.150835e-02
2.680489e+02	-1.164150e-02
2.695972e+02	-1.177619e-02
2.711544e+02	-1.191243e-02
2.727205e+02	-1.205025e-02
2.742958e+02	-1.218966e-02
2.758801e+02	-1.233067e-02
2.774736e+02	-1.247332e-02
2.790762e+02	-1.261762e-02
2.806882e+02	-1.276358e-02
2.823094e+02	-1.291123e-02
2.839400e+02	-1.306058e-02
2.855800e+02	-1.321166e-02
2.872295e+02	-1.336449e-02
2.888886e+02	-1.351908e-02
2.905572e+02	-1.367545e-02
2.922354e+02	-1.383363e-02
2.939234e+02	-1.399364e-02
2.956211e+02	-1.415549e-02
2.973286e+02	-1.431922e-02
2.990459e+02	-1.448483e-02
3.007732e+02	-1.465236e-02
3.025104e+02	-1.482182e-02
3.042577e+02	-1.499323e-02
3.060151e+02	-1.516663e-02
3.077826e+02	-1.534203e-02
3.095604e+02	-1.551945e-02
3.113484e+02	-1.569892e-02
3.131467e+02	-1.588046e-02
3.149554e+02	-1.606410e-02
3.167746e+02	-1.624986e-02
3.186043e+02	-1.643776e-02
3.204445e+02	-1.662783e-02
3.222954e+02	-1.682009e-02
3.241570e+02	-1.701457e-02
3.260293e+02	-1.721130e-02
3.279124e+02	-1.741030e-02
3.298064e+02	-1.761159e-02
3.317114e+02	-1.781520e-02
3.336273e+02	-1.802117e-02
3.355544e+02	-1.822951e-02
3.374925e+02	-1.844025e-02
3.394418e+02	-1.865343e-02
3.414024e+02	-1.886906e-02
3.433744e+02	-1.908718e-02
3.453577e+02	-1.930782e-02
3.473525e+02	-1.953100e-02
3.493588e+02	-1.975675e-02
3.513766e+02	-1.998511e-02
3.534062e+02	-2.021610e-02
3.554474e+02	-2.044976e-02
3.575005e+02	-2.068611e-02
3.595654e+02	-2.092518e-02
3.616422e+02	-2.116701e-02
3.637311e+02	-2.141163e-02
3.658320e+02	-2.165907e-02
3.679450e+02	-2.190936e-02
3.700702e+02	-2.216254e-02
3.722077e+02	-2.241863e-02
3.743576e+02	-2.267767e-02
3.765199e+02	-2.293970e-02
3.786946e+02	-2.320475e-02
3.808820e+02	-2.347286e-02
3.830819e+02	-2.374405e-02
3.852946e+02	-2.401837e-02
3.875200e+02	-2.429585e-02
3.897583e+02	-2.457652e-02
3.920096e+02	-2.486043e-02
3.942738e+02	-2.514761e-02
3.965511e+02	-2.543809e-02
3.988416e+02	-2.573192e-02
4.011452e+02	-2.602914e-02
4.034622e+02	-2.632977e-02
4.057926e+02	-2.663387e-02
4.081365e+02	-2.694147e-02
4.104938e+02	-2.725261e-02
4.128648e+02	-2.756733e-02
4.152495e+02	-2.788568e-02
4.176480e+02	-2.820769e-02
4.200603e+02	-2.853341e-02
4.224866e+02	-2.886287e-02
4.249268e+02	-2.919613e-02
4.273812e+02	-2.953322e-02
4.298497e+02	-2.987419e-02
4.323325e+02	-3.021908e-02
4.348297e+02	-3.056794e-02
4.373412e+02	-3.092081e-02
4.398673e+02	-3.127774e-02
4.424079e+02	-3.163878e-02
4.449633e+02	-3.200397e-02
4.475334e+02	-3.237336e-02
4.501183e+02	-3.274699e-02
4.527182e+02	-3.312492e-02
4.553330e+02	-3.350720e-02
4.579630e+02	-3.389387e-02
4.606082e+02	-3.428498e-02
4.632687e+02	-3.468059e-02
4.659445e+02	-3.508075e-02
4.686358e+02	-3.548550e-02
4.713426e+02	-3.589491e-02
4.740650e+02	-3.630902e-02
4.768032e+02	-3.672788e-02
4.795572e+02	-3.715156e-02
4.823271e+02	-3.758010e-02
4.851130e+02	-3.801356e-02
4.879150e+02	-3.845201e-02
4.907332e+02	-3.889548e-02
4.935676e+02	-3.934405e-02
4.964185e+02	-3.979777e-02
4.992858e+02	-4.025669e-02
5.021696e+02	-4.072088e-02
5.050701e+02	-4.119040e-02
5.079874e+02	-4.166531e-02
5.109215e+02	-4.214566e-02
5.138726e+02	-4.263153e-02
5.168407e+02	-4.312297e-02
5.198259e+02	-4.362004e-02
5.228284e+02	-4.412282e-02
5.258482e+02	-4.463136e-02
5.288855e+02	-4.514573e-02
5.319403e+02	-4.566600e-02
5.350128e+02	-4.619223e-02
5.381030e+02	-4.672450e-02
5.412111e+02	-4.726286e-02
5.443371e+02	-4.780739e-02
5.474812e+02	-4.835816e-02
5.506434e+02	-4.891524e-02
5.538239e+02	-4.947870e-02
5.570228e+02	-5.004862e-02
5.602401e+02	-5.062506e-02
5.634760e+02	-5.120810e-02
5.667306e+02	-5.179781e-02
5.700040e+02	-5.239428e-02
5.732964e+02	-5.299757e-02
5.766077e+02	-5.360776e-02
5.799382e+02	-5.422494e-02
5.832879e+02	-5.484917e-02
5.866569e+02	-5.548055e-02
5.900454e+02	-5.611915e-02
5.934535e+02	-5.676505e-02
5.968813e+02	-5.741833e-02
6.003288e+02	-5.807908e-02
6.037963e+02	-5.874739e-02
6.072838e+02	-5.942333e-02
6.107914e+02	-6.010699e-02
6.143194e+02	-6.079847e-02
6.178676e+02	-6.149784e-02
6.214364e+02	-6.220520e-02
6.250258e+02	-6.292063e-02
6.286359e+02	-6.364424e-02
6.322669e+02	-6.437610e-02
6.359189e+02	-6.511632e-02
6.395919e+02	-6.586498e-02
6.432862e+02	-6.662219e-02
6.470017e+02	-6.738803e-02
6.507388e+02	-6.816261e-02
6.544974e+02	-6.894602e-02
6.582778e+02	-6.973836e-02
6.620800e+02	-7.053973e-02
6.659041e+02	-7.135023e-02
6.697504e+02	-7.216997e-02
6.736188e+02	-7.299905e-02
6.775096e+02	-7.383757e-02
6.814229e+02	-7.468564e-02
6.853587e+02	-7.554337e-02
6.893173e+02	-7.641086e-02
6.932988e+02	-7.728822e-02
6.973033e+02	-7.817556e-02
7.013309e+02	-7.907300e-02
