Frequency(Hz)	Magnitude(dB)
1.000000e+01	-2.071887e+00
1.005776e+01	-2.090814e+00
1.011585e+01	-2.110079e+00
1.017428e+01	-2.129457e+00
1.023305e+01	-2.148802e+00
1.029215e+01	-2.168531e+00
1.035160e+01	-2.188112e+00
1.041139e+01	-2.208135e+00
1.047153e+01	-2.227865e+00
1.053201e+01	-2.248095e+00
1.059284e+01	-2.268407e+00
1.065403e+01	-2.289104e+00
1.071556e+01	-2.309508e+00
1.077746e+01	-2.330252e+00
1.083971e+01	-2.351139e+00
1.090232e+01	-2.372105e+00
1.096529e+01	-2.393219e+00
1.102862e+01	-2.414627e+00
1.109232e+01	-2.435704e+00
1.115639e+01	-2.457458e+00
1.122083e+01	-2.478886e+00
1.128564e+01	-2.500942e+00
1.135083e+01	-2.523052e+00
1.141639e+01	-2.544871e+00
1.148233e+01	-2.567433e+00
1.154865e+01	-2.589690e+00
1.161536e+01	-2.612285e+00
1.168245e+01	-2.634614e+00
1.174992e+01	-2.657748e+00
1.181779e+01	-2.680584e+00
1.188605e+01	-2.703775e+00
1.195470e+01	-2.727199e+00
1.202375e+01	-2.750257e+00
1.209320e+01	-2.774094e+00
1.216305e+01	-2.797474e+00
1.223330e+01	-2.821303e+00
1.230396e+01	-2.845327e+00
1.237503e+01	-2.869620e+00
1.244651e+01	-2.893889e+00
1.251840e+01	-2.918385e+00
1.259070e+01	-2.942632e+00
1.266343e+01	-2.967723e+00
1.273657e+01	-2.992552e+00
1.281014e+01	-3.017256e+00
1.288413e+01	-3.042334e+00
1.295855e+01	-3.067539e+00
1.303339e+01	-3.092979e+00
1.310867e+01	-3.118625e+00
1.318439e+01	-3.144280e+00
1.326054e+01	-3.170172e+00
1.333713e+01	-3.196202e+00
1.341417e+01	-3.222429e+00
1.349165e+01	-3.248584e+00
1.356958e+01	-3.275027e+00
1.364795e+01	-3.301607e+00
1.372678e+01	-3.328463e+00
1.380607e+01	-3.355173e+00
1.388581e+01	-3.381970e+00
1.396602e+01	-3.409307e+00
1.404668e+01	-3.436471e+00
1.412782e+01	-3.463841e+00
1.420942e+01	-3.491733e+00
1.429149e+01	-3.519308e+00
1.437404e+01	-3.546939e+00
1.445706e+01	-3.575234e+00
1.454057e+01	-3.603179e+00
1.462455e+01	-3.631647e+00
1.470902e+01	-3.659865e+00
1.479398e+01	-3.688575e+00
1.487943e+01	-3.717076e+00
1.496537e+01	-3.746048e+00
1.505181e+01	-3.775028e+00
1.513875e+01	-3.804238e+00
1.522619e+01	-3.833382e+00
1.531414e+01	-3.862679e+00
1.540259e+01	-3.892127e+00
1.549156e+01	-3.922007e+00
1.558103e+01	-3.951742e+00
1.567103e+01	-3.981567e+00
1.576155e+01	-4.011742e+00
1.585258e+01	-4.042154e+00
1.594415e+01	-4.072705e+00
1.603624e+01	-4.102932e+00
1.612886e+01	-4.133502e+00
1.622202e+01	-4.164342e+00
1.631572e+01	-4.195380e+00
1.640996e+01	-4.226198e+00
1.650474e+01	-4.257487e+00
1.660008e+01	-4.288711e+00
1.669596e+01	-4.320678e+00
1.679239e+01	-4.351872e+00
1.688938e+01	-4.383896e+00
1.698694e+01	-4.415579e+00
1.708505e+01	-4.447627e+00
1.718373e+01	-4.479743e+00
1.728299e+01	-4.511954e+00
1.738281e+01	-4.544406e+00
1.748322e+01	-4.576861e+00
1.758420e+01	-4.609488e+00
1.768576e+01	-4.642180e+00
1.778792e+01	-4.675069e+00
1.789066e+01	-4.708281e+00
1.799399e+01	-4.741474e+00
1.809793e+01	-4.774716e+00
1.820246e+01	-4.808131e+00
1.830760e+01	-4.841634e+00
1.841334e+01	-4.875287e+00
1.851969e+01	-4.909307e+00
1.862666e+01	-4.943093e+00
1.873425e+01	-4.977244e+00
1.884246e+01	-5.011235e+00
1.895129e+01	-5.045573e+00
1.906075e+01	-5.079860e+00
1.917085e+01	-5.114889e+00
1.928158e+01	-5.149162e+00
1.939295e+01	-5.184235e+00
1.950496e+01	-5.219086e+00
1.961762e+01	-5.254058e+00
1.973093e+01	-5.289199e+00
1.984490e+01	-5.324366e+00
1.995952e+01	-5.359956e+00
2.007480e+01	-5.395520e+00
2.019076e+01	-5.431032e+00
2.030738e+01	-5.466637e+00
2.042467e+01	-5.502611e+00
2.054264e+01	-5.538580e+00
2.066130e+01	-5.574669e+00
2.078064e+01	-5.610945e+00
2.090066e+01	-5.647296e+00
2.102139e+01	-5.683571e+00
2.114280e+01	-5.720243e+00
2.126492e+01	-5.757089e+00
2.138775e+01	-5.793829e+00
2.151128e+01	-5.830713e+00
2.163553e+01	-5.867902e+00
2.176050e+01	-5.904681e+00
2.188619e+01	-5.942362e+00
2.201260e+01	-5.979774e+00
2.213974e+01	-6.016833e+00
2.226762e+01	-6.054528e+00
2.239624e+01	-6.092018e+00
2.252560e+01	-6.129958e+00
2.265571e+01	-6.168129e+00
2.278656e+01	-6.205955e+00
2.291818e+01	-6.243736e+00
2.305055e+01	-6.282330e+00
2.318369e+01	-6.320729e+00
2.331760e+01	-6.359133e+00
2.345228e+01	-6.397381e+00
2.358774e+01	-6.435623e+00
2.372398e+01	-6.474728e+00
2.386101e+01	-6.513445e+00
2.399883e+01	-6.552504e+00
2.413745e+01	-6.591448e+00
2.427686e+01	-6.630309e+00
2.441709e+01	-6.669631e+00
2.455812e+01	-6.709178e+00
2.469997e+01	-6.748336e+00
2.484263e+01	-6.787885e+00
2.498612e+01	-6.827458e+00
2.513044e+01	-6.867227e+00
2.527559e+01	-6.907175e+00
2.542158e+01	-6.946997e+00
2.556842e+01	-6.986602e+00
2.571610e+01	-7.026867e+00
2.586463e+01	-7.066938e+00
2.601403e+01	-7.107528e+00
2.616428e+01	-7.147669e+00
2.631541e+01	-7.187939e+00
2.646740e+01	-7.228327e+00
2.662028e+01	-7.268949e+00
2.677404e+01	-7.309437e+00
2.692868e+01	-7.350295e+00
2.708422e+01	-7.391612e+00
2.724066e+01	-7.432415e+00
2.739800e+01	-7.473483e+00
2.755625e+01	-7.514767e+00
2.771541e+01	-7.555638e+00
2.787550e+01	-7.596953e+00
2.803650e+01	-7.638334e+00
2.819844e+01	-7.679780e+00
2.836131e+01	-7.721628e+00
2.852513e+01	-7.762800e+00
2.868989e+01	-7.804961e+00
2.885560e+01	-7.846494e+00
2.902227e+01	-7.888143e+00
2.918990e+01	-7.930229e+00
2.935850e+01	-7.972401e+00
2.952807e+01	-8.014250e+00
2.969863e+01	-8.056321e+00
2.987016e+01	-8.098871e+00
3.004269e+01	-8.140894e+00
3.021622e+01	-8.183377e+00
3.039075e+01	-8.225630e+00
3.056628e+01	-8.268624e+00
3.074283e+01	-8.310904e+00
3.092040e+01	-8.353652e+00
3.109900e+01	-8.396539e+00
3.127862e+01	-8.439417e+00
3.145929e+01	-8.481913e+00
3.164099e+01	-8.525366e+00
3.182375e+01	-8.568276e+00
3.200756e+01	-8.611212e+00
3.219244e+01	-8.654417e+00
3.237838e+01	-8.698118e+00
3.256540e+01	-8.740791e+00
3.275349e+01	-8.784522e+00
3.294268e+01	-8.828036e+00
3.313295e+01	-8.871526e+00
3.332433e+01	-8.914779e+00
3.351681e+01	-8.958419e+00
3.371040e+01	-9.002404e+00
3.390511e+01	-9.046138e+00
3.410094e+01	-9.089799e+00
3.429791e+01	-9.133756e+00
3.449601e+01	-9.177648e+00
3.469526e+01	-9.221930e+00
3.489566e+01	-9.265607e+00
3.509721e+01	-9.309967e+00
3.529993e+01	-9.354387e+00
3.550382e+01	-9.397937e+00
3.570889e+01	-9.442094e+00
3.591515e+01	-9.486490e+00
3.612259e+01	-9.531554e+00
3.633123e+01	-9.575565e+00
3.654108e+01	-9.620371e+00
3.675214e+01	-9.664920e+00
3.696442e+01	-9.709656e+00
3.717792e+01	-9.754776e+00
3.739266e+01	-9.799494e+00
3.760864e+01	-9.843585e+00
3.782587e+01	-9.888819e+00
3.804435e+01	-9.933569e+00
3.826409e+01	-9.978482e+00
3.848510e+01	-1.002384e+01
3.870739e+01	-1.006864e+01
3.893096e+01	-1.011362e+01
3.915583e+01	-1.015919e+01
3.938199e+01	-1.020438e+01
3.960946e+01	-1.024991e+01
3.983824e+01	-1.029469e+01
4.006834e+01	-1.034040e+01
4.029978e+01	-1.038556e+01
4.053255e+01	-1.043172e+01
4.076666e+01	-1.047681e+01
4.100213e+01	-1.052261e+01
4.123896e+01	-1.056777e+01
4.147715e+01	-1.061342e+01
4.171672e+01	-1.065961e+01
4.195767e+01	-1.070478e+01
4.220002e+01	-1.075093e+01
4.244377e+01	-1.079675e+01
4.268892e+01	-1.084213e+01
4.293549e+01	-1.088844e+01
4.318348e+01	-1.093434e+01
4.343291e+01	-1.098044e+01
4.368377e+01	-1.102611e+01
4.393609e+01	-1.107253e+01
4.418986e+01	-1.111905e+01
4.444510e+01	-1.116493e+01
4.470182e+01	-1.121136e+01
4.496001e+01	-1.125766e+01
4.521970e+01	-1.130376e+01
4.548089e+01	-1.135030e+01
4.574358e+01	-1.139665e+01
4.600779e+01	-1.144265e+01
4.627353e+01	-1.148939e+01
4.654081e+01	-1.153599e+01
4.680963e+01	-1.158276e+01
4.708000e+01	-1.162915e+01
4.735193e+01	-1.167552e+01
4.762543e+01	-1.172152e+01
4.790051e+01	-1.176898e+01
4.817719e+01	-1.181641e+01
4.845545e+01	-1.186215e+01
4.873533e+01	-1.190879e+01
4.901682e+01	-1.195638e+01
4.929994e+01	-1.200282e+01
4.958470e+01	-1.204981e+01
4.987110e+01	-1.209637e+01
5.015915e+01	-1.214328e+01
5.044887e+01	-1.219124e+01
5.074026e+01	-1.223799e+01
5.103333e+01	-1.228488e+01
5.132810e+01	-1.233170e+01
5.162457e+01	-1.237865e+01
5.192275e+01	-1.242574e+01
5.222265e+01	-1.247383e+01
5.252429e+01	-1.252042e+01
5.282767e+01	-1.256776e+01
5.313280e+01	-1.261459e+01
5.343969e+01	-1.266201e+01
5.374836e+01	-1.270976e+01
5.405880e+01	-1.275735e+01
5.437105e+01	-1.280385e+01
5.468509e+01	-1.285149e+01
5.500095e+01	-1.289868e+01
5.531863e+01	-1.294702e+01
5.563815e+01	-1.299454e+01
5.595951e+01	-1.304203e+01
5.628273e+01	-1.308952e+01
5.660782e+01	-1.313663e+01
5.693479e+01	-1.318416e+01
5.726364e+01	-1.323206e+01
5.759439e+01	-1.328000e+01
5.792705e+01	-1.332666e+01
5.826164e+01	-1.337486e+01
5.859815e+01	-1.342356e+01
5.893662e+01	-1.347105e+01
5.927703e+01	-1.351805e+01
5.961941e+01	-1.356627e+01
5.996377e+01	-1.361402e+01
6.031012e+01	-1.366174e+01
6.065847e+01	-1.370975e+01
6.100883e+01	-1.375787e+01
6.136121e+01	-1.380671e+01
6.171563e+01	-1.385306e+01
6.207210e+01	-1.390142e+01
6.243063e+01	-1.394995e+01
6.279122e+01	-1.399865e+01
6.315390e+01	-1.404569e+01
6.351868e+01	-1.409354e+01
6.388556e+01	-1.414134e+01
6.425456e+01	-1.419068e+01
6.462569e+01	-1.423817e+01
6.499897e+01	-1.428719e+01
6.537440e+01	-1.433414e+01
6.575200e+01	-1.438294e+01
6.613178e+01	-1.443110e+01
6.651375e+01	-1.447905e+01
6.689793e+01	-1.452677e+01
6.728433e+01	-1.457515e+01
6.767297e+01	-1.462434e+01
6.806384e+01	-1.467245e+01
6.845698e+01	-1.472004e+01
6.885238e+01	-1.476886e+01
6.925007e+01	-1.481704e+01
6.965005e+01	-1.486567e+01
7.005235e+01	-1.491395e+01
7.045697e+01	-1.496216e+01
7.086393e+01	-1.501069e+01
7.127323e+01	-1.505862e+01
7.168490e+01	-1.510821e+01
7.209895e+01	-1.515610e+01
7.251539e+01	-1.520497e+01
7.293424e+01	-1.525311e+01
7.335551e+01	-1.530272e+01
7.377920e+01	-1.534947e+01
7.420535e+01	-1.539851e+01
7.463396e+01	-1.544724e+01
7.506504e+01	-1.549639e+01
7.549861e+01	-1.554443e+01
7.593469e+01	-1.559352e+01
7.637328e+01	-1.564189e+01
7.681441e+01	-1.569031e+01
7.725809e+01	-1.573899e+01
7.770433e+01	-1.578759e+01
7.815315e+01	-1.583582e+01
7.860456e+01	-1.588535e+01
7.905857e+01	-1.593364e+01
7.951521e+01	-1.598320e+01
7.997449e+01	-1.603232e+01
8.043642e+01	-1.608049e+01
8.090102e+01	-1.612859e+01
8.136830e+01	-1.617857e+01
8.183828e+01	-1.622685e+01
8.231097e+01	-1.627645e+01
8.278640e+01	-1.632439e+01
8.326457e+01	-1.637303e+01
8.374550e+01	-1.642420e+01
8.422921e+01	-1.647154e+01
8.471572e+01	-1.652065e+01
8.520503e+01	-1.656918e+01
8.569717e+01	-1.661804e+01
8.619215e+01	-1.666625e+01
8.669000e+01	-1.671648e+01
8.719071e+01	-1.676570e+01
8.769432e+01	-1.681367e+01
8.820084e+01	-1.686270e+01
8.871029e+01	-1.691323e+01
8.922267e+01	-1.696167e+01
8.973802e+01	-1.700951e+01
9.025634e+01	-1.706010e+01
9.077766e+01	-1.710837e+01
9.130199e+01	-1.715750e+01
9.182935e+01	-1.720628e+01
9.235975e+01	-1.725649e+01
9.289321e+01	-1.730471e+01
9.342976e+01	-1.735442e+01
9.396941e+01	-1.740243e+01
9.451217e+01	-1.745114e+01
9.505807e+01	-1.750126e+01
9.560712e+01	-1.754992e+01
9.615934e+01	-1.759892e+01
9.671476e+01	-1.764802e+01
9.727338e+01	-1.769779e+01
9.783522e+01	-1.774657e+01
9.840032e+01	-1.779651e+01
9.896867e+01	-1.784614e+01
9.954031e+01	-1.789398e+01
1.001153e+02	-1.794390e+01
1.006935e+02	-1.799340e+01
1.012751e+02	-1.804260e+01
1.018601e+02	-1.809161e+01
1.024484e+02	-1.814106e+01
1.030402e+02	-1.819020e+01
1.036353e+02	-1.823873e+01
1.042339e+02	-1.828805e+01
1.048360e+02	-1.833932e+01
1.054415e+02	-1.838642e+01
1.060505e+02	-1.843751e+01
1.066631e+02	-1.848597e+01
1.072791e+02	-1.853518e+01
1.078988e+02	-1.858486e+01
1.085220e+02	-1.863469e+01
1.091488e+02	-1.868307e+01
1.097793e+02	-1.873277e+01
1.104133e+02	-1.878158e+01
1.110511e+02	-1.883171e+01
1.116925e+02	-1.888019e+01
1.123376e+02	-1.892876e+01
1.129865e+02	-1.898025e+01
1.136391e+02	-1.902915e+01
1.142955e+02	-1.907868e+01
1.149556e+02	-1.912812e+01
1.156196e+02	-1.917657e+01
1.162874e+02	-1.922749e+01
1.169591e+02	-1.927661e+01
1.176347e+02	-1.932397e+01
1.183141e+02	-1.937486e+01
1.189975e+02	-1.942531e+01
1.196848e+02	-1.947344e+01
1.203761e+02	-1.952270e+01
1.210714e+02	-1.957315e+01
1.217707e+02	-1.962249e+01
1.224740e+02	-1.967127e+01
1.231814e+02	-1.972202e+01
1.238929e+02	-1.977212e+01
1.246085e+02	-1.982189e+01
1.253283e+02	-1.986958e+01
1.260522e+02	-1.991987e+01
1.267802e+02	-1.996995e+01
1.275125e+02	-2.001907e+01
1.282490e+02	-2.006869e+01
1.289898e+02	-2.011857e+01
1.297348e+02	-2.016636e+01
1.304842e+02	-2.021638e+01
1.312378e+02	-2.026487e+01
1.319959e+02	-2.031536e+01
1.327583e+02	-2.036492e+01
1.335251e+02	-2.041504e+01
1.342963e+02	-2.046419e+01
1.350720e+02	-2.051372e+01
1.358522e+02	-2.056296e+01
1.366368e+02	-2.061259e+01
1.374260e+02	-2.066420e+01
1.382198e+02	-2.071349e+01
1.390182e+02	-2.076216e+01
1.398211e+02	-2.081251e+01
1.406287e+02	-2.086067e+01
1.414410e+02	-2.091016e+01
1.422579e+02	-2.095900e+01
1.430796e+02	-2.101035e+01
1.439060e+02	-2.105904e+01
1.447372e+02	-2.111211e+01
1.455732e+02	-2.115774e+01
1.464141e+02	-2.120820e+01
1.472597e+02	-2.125717e+01
1.481103e+02	-2.130831e+01
1.489658e+02	-2.135610e+01
1.498262e+02	-2.140784e+01
1.506916e+02	-2.145628e+01
1.515620e+02	-2.150614e+01
1.524374e+02	-2.155622e+01
1.533179e+02	-2.160549e+01
1.542034e+02	-2.165623e+01
1.550941e+02	-2.170612e+01
1.559899e+02	-2.175449e+01
1.568909e+02	-2.180550e+01
1.577971e+02	-2.185578e+01
1.587085e+02	-2.190451e+01
1.596252e+02	-2.195315e+01
1.605472e+02	-2.200315e+01
1.614745e+02	-2.205464e+01
1.624072e+02	-2.210562e+01
1.633453e+02	-2.215284e+01
1.642887e+02	-2.220335e+01
1.652377e+02	-2.225151e+01
1.661921e+02	-2.230206e+01
1.671520e+02	-2.235232e+01
1.681175e+02	-2.240364e+01
1.690885e+02	-2.245053e+01
1.700651e+02	-2.249971e+01
1.710474e+02	-2.255272e+01
1.720354e+02	-2.260230e+01
1.730291e+02	-2.264977e+01
1.740285e+02	-2.269997e+01
1.750337e+02	-2.274991e+01
1.760446e+02	-2.279935e+01
1.770615e+02	-2.284994e+01
1.780842e+02	-2.289995e+01
1.791128e+02	-2.294815e+01
1.801473e+02	-2.299951e+01
1.811878e+02	-2.305072e+01
1.822344e+02	-2.309736e+01
1.832870e+02	-2.314905e+01
1.843456e+02	-2.320115e+01
1.854104e+02	-2.324785e+01
1.864813e+02	-2.329697e+01
1.875584e+02	-2.334831e+01
1.886418e+02	-2.339811e+01
1.897313e+02	-2.344796e+01
1.908272e+02	-2.349738e+01
1.919294e+02	-2.354780e+01
1.930380e+02	-2.359767e+01
1.941530e+02	-2.364831e+01
1.952744e+02	-2.369753e+01
1.964023e+02	-2.374663e+01
1.975367e+02	-2.379572e+01
1.986777e+02	-2.384521e+01
1.998252e+02	-2.389804e+01
2.009794e+02	-2.394435e+01
2.021403e+02	-2.399735e+01
2.033078e+02	-2.404637e+01
2.044821e+02	-2.409789e+01
2.056632e+02	-2.414616e+01
2.068511e+02	-2.419556e+01
2.080459e+02	-2.424606e+01
2.092475e+02	-2.429468e+01
2.104561e+02	-2.434588e+01
2.116717e+02	-2.439640e+01
2.128943e+02	-2.444356e+01
2.141240e+02	-2.449344e+01
2.153608e+02	-2.454461e+01
2.166047e+02	-2.459412e+01
2.178558e+02	-2.464539e+01
2.191141e+02	-2.469548e+01
2.203797e+02	-2.474325e+01
2.216526e+02	-2.479125e+01
2.229329e+02	-2.484591e+01
2.242205e+02	-2.489309e+01
2.255156e+02	-2.494217e+01
2.268182e+02	-2.499135e+01
2.281283e+02	-2.504337e+01
2.294459e+02	-2.509346e+01
2.307712e+02	-2.514200e+01
2.321041e+02	-2.519265e+01
2.334447e+02	-2.524118e+01
2.347931e+02	-2.529396e+01
2.361493e+02	-2.534225e+01
2.375133e+02	-2.539513e+01
2.388851e+02	-2.544073e+01
2.402649e+02	-2.549291e+01
2.416527e+02	-2.554117e+01
2.430484e+02	-2.559168e+01
2.444523e+02	-2.564057e+01
2.458642e+02	-2.569382e+01
2.472843e+02	-2.574003e+01
2.487126e+02	-2.578683e+01
2.501492e+02	-2.583914e+01
2.515940e+02	-2.589126e+01
2.530472e+02	-2.594130e+01
2.545088e+02	-2.599508e+01
2.559789e+02	-2.604335e+01
2.574574e+02	-2.609199e+01
2.589444e+02	-2.614352e+01
2.604401e+02	-2.619371e+01
2.619444e+02	-2.624239e+01
2.634574e+02	-2.629034e+01
2.649791e+02	-2.634258e+01
2.665096e+02	-2.639382e+01
2.680489e+02	-2.644290e+01
2.695972e+02	-2.648772e+01
2.711544e+02	-2.654135e+01
2.727205e+02	-2.658985e+01
2.742958e+02	-2.663955e+01
2.758801e+02	-2.669286e+01
2.774736e+02	-2.673837e+01
2.790762e+02	-2.678846e+01
2.806882e+02	-2.684361e+01
2.823094e+02	-2.688806e+01
2.839400e+02	-2.693999e+01
2.855800e+02	-2.699274e+01
2.872295e+02	-2.704097e+01
2.888886e+02	-2.709219e+01
2.905572e+02	-2.713902e+01
2.922354e+02	-2.718985e+01
2.939234e+02	-2.724248e+01
2.956211e+02	-2.729361e+01
2.973286e+02	-2.733943e+01
2.990459e+02	-2.739009e+01
3.007732e+02	-2.744472e+01
3.025104e+02	-2.748710e+01
3.042577e+02	-2.754297e+01
3.060151e+02	-2.759144e+01
3.077826e+02	-2.764287e+01
3.095604e+02	-2.769062e+01
3.113484e+02	-2.774219e+01
3.131467e+02	-2.779029e+01
3.149554e+02	-2.784048e+01
3.167746e+02	-2.788966e+01
3.186043e+02	-2.794456e+01
3.204445e+02	-2.799030e+01
3.222954e+02	-2.803869e+01
3.241570e+02	-2.808882e+01
3.260293e+02	-2.814681e+01
3.279124e+02	-2.819612e+01
3.298064e+02	-2.824030e+01
3.317114e+02	-2.828907e+01
3.336273e+02	-2.833728e+01
3.355544e+02	-2.838796e+01
3.374925e+02	-2.843963e+01
3.394418e+02	-2.849414e+01
3.414024e+02	-2.854066e+01
3.433744e+02	-2.859289e+01
3.453577e+02	-2.864243e+01
3.473525e+02	-2.868903e+01
3.493588e+02	-2.874462e+01
3.513766e+02	-2.879169e+01
3.534062e+02	-2.883868e+01
3.554474e+02	-2.889374e+01
3.575005e+02	-2.894278e+01
3.595654e+02	-2.899459e+01
3.616422e+02	-2.904409e+01
3.637311e+02	-2.908535e+01
3.658320e+02	-2.914139e+01
3.679450e+02	-2.919179e+01
3.700702e+02	-2.924318e+01
3.722077e+02	-2.928914e+01
3.743576e+02	-2.934358e+01
3.765199e+02	-2.939481e+01
3.786946e+02	-2.944170e+01
3.808820e+02	-2.949334e+01
3.830819e+02	-2.953763e+01
3.852946e+02	-2.959051e+01
3.875200e+02	-2.964170e+01
3.897583e+02	-2.969378e+01
3.920096e+02	-2.973969e+01
3.942738e+02	-2.979128e+01
3.965511e+02	-2.984806e+01
3.988416e+02	-2.989140e+01
4.011452e+02	-2.994306e+01
4.034622e+02	-2.999585e+01
4.057926e+02	-3.004249e+01
4.081365e+02	-3.009785e+01
4.104938e+02	-3.014034e+01
4.128648e+02	-3.019339e+01
4.152495e+02	-3.023775e+01
4.176480e+02	-3.029566e+01
4.200603e+02	-3.034251e+01
4.224866e+02	-3.039405e+01
4.249268e+02	-3.044432e+01
4.273812e+02	-3.049371e+01
4.298497e+02	-3.054562e+01
4.323325e+02	-3.059368e+01
4.348297e+02	-3.064183e+01
4.373412e+02	-3.069478e+01
4.398673e+02	-3.074539e+01
4.424079e+02	-3.079362e+01
4.449633e+02	-3.085072e+01
4.475334e+02	-3.090064e+01
4.501183e+02	-3.094538e+01
4.527182e+02	-3.099830e+01
4.553330e+02	-3.104602e+01
4.579630e+02	-3.109350e+01
4.606082e+02	-3.114784e+01
4.632687e+02	-3.119553e+01
4.659445e+02	-3.124860e+01
4.686358e+02	-3.129827e+01
4.713426e+02	-3.134340e+01
4.740650e+02	-3.139363e+01
4.768032e+02	-3.144861e+01
4.795572e+02	-3.149117e+01
4.823271e+02	-3.154780e+01
4.851130e+02	-3.159800e+01
4.879150e+02	-3.165035e+01
4.907332e+02	-3.169512e+01
4.935676e+02	-3.174549e+01
4.964185e+02	-3.179254e+01
4.992858e+02	-3.185190e+01
5.021696e+02	-3.189958e+01
5.050701e+02	-3.195578e+01
5.079874e+02	-3.199580e+01
5.109215e+02	-3.205232e+01
5.138726e+02	-3.210206e+01
5.168407e+02	-3.214761e+01
5.198259e+02	-3.220471e+01
5.228284e+02	-3.225183e+01
5.258482e+02	-3.229697e+01
5.288855e+02	-3.235474e+01
5.319403e+02	-3.240762e+01
5.350128e+02	-3.245653e+01
5.381030e+02	-3.250210e+01
5.412111e+02	-3.254912e+01
5.443371e+02	-3.259689e+01
5.474812e+02	-3.265605e+01
5.506434e+02	-3.269725e+01
5.538239e+02	-3.275861e+01
5.570228e+02	-3.279982e+01
5.602401e+02	-3.284969e+01
5.634760e+02	-3.290016e+01
5.667306e+02	-3.295650e+01
5.700040e+02	-3.299635e+01
5.732964e+02	-3.305277e+01
5.766077e+02	-3.310802e+01
5.799382e+02	-3.315573e+01
5.832879e+02	-3.319689e+01
5.866569e+02	-3.324646e+01
5.900454e+02	-3.330180e+01
5.934535e+02	-3.335618e+01
5.968813e+02	-3.340809e+01
6.003288e+02	-3.344618e+01
6.037963e+02	-3.350624e+01
6.072838e+02	-3.355631e+01
6.107914e+02	-3.360373e+01
6.143194e+02	-3.365263e+01
6.178676e+02	-3.369850e+01
6.214364e+02	-3.375737e+01
6.250258e+02	-3.380975e+01
6.286359e+02	-3.385685e+01
6.322669e+02	-3.390893e+01
6.359189e+02	-3.395607e+01
6.395919e+02	-3.401037e+01
6.432862e+02	-3.405709e+01
6.470017e+02	-3.410945e+01
6.507388e+02	-3.416233e+01
6.544974e+02	-3.420220e+01
6.582778e+02	-3.425763e+01
6.620800e+02	-3.431031e+01
6.659041e+02	-3.435411e+01
6.697504e+02	-3.441505e+01
6.736188e+02	-3.446220e+01
6.775096e+02	-3.451424e+01
6.814229e+02	-3.457138e+01
6.853587e+02	-3.461467e+01
6.893173e+02	-3.466835e+01
6.932988e+02	-3.470980e+01
6.973033e+02	-3.475644e+01
7.013309e+02	-3.481663e+01
