Frequency(Hz)	Magnitude(dB)
1.000000e+01	-2.097065e+00
1.005776e+01	-2.116607e+00
1.011585e+01	-2.135757e+00
1.017428e+01	-2.155002e+00
1.023305e+01	-2.174914e+00
1.029215e+01	-2.194328e+00
1.035160e+01	-2.214241e+00
1.041139e+01	-2.234478e+00
1.047153e+01	-2.254611e+00
1.053201e+01	-2.275032e+00
1.059284e+01	-2.295507e+00
1.065403e+01	-2.316015e+00
1.071556e+01	-2.336920e+00
1.077746e+01	-2.357677e+00
1.083971e+01	-2.378714e+00
1.090232e+01	-2.399881e+00
1.096529e+01	-2.421149e+00
1.102862e+01	-2.442629e+00
1.109232e+01	-2.464329e+00
1.115639e+01	-2.485936e+00
1.122083e+01	-2.507798e+00
1.128564e+01	-2.529897e+00
1.135083e+01	-2.552132e+00
1.141639e+01	-2.574277e+00
1.148233e+01	-2.596862e+00
1.154865e+01	-2.619397e+00
1.161536e+01	-2.641773e+00
1.168245e+01	-2.664931e+00
1.174992e+01	-2.688090e+00
1.181779e+01	-2.710971e+00
1.188605e+01	-2.734522e+00
1.195470e+01	-2.757784e+00
1.202375e+01	-2.781353e+00
1.209320e+01	-2.805363e+00
1.216305e+01	-2.828952e+00
1.223330e+01	-2.853182e+00
1.230396e+01	-2.877224e+00
1.237503e+01	-2.901457e+00
1.244651e+01	-2.926137e+00
1.251840e+01	-2.950766e+00
1.259070e+01	-2.975224e+00
1.266343e+01	-3.000206e+00
1.273657e+01	-3.025165e+00
1.281014e+01	-3.050501e+00
1.288413e+01	-3.075849e+00
1.295855e+01	-3.101241e+00
1.303339e+01	-3.126806e+00
1.310867e+01	-3.152686e+00
1.318439e+01	-3.178262e+00
1.326054e+01	-3.204503e+00
1.333713e+01	-3.230651e+00
1.341417e+01	-3.256737e+00
1.349165e+01	-3.283316e+00
1.356958e+01	-3.310175e+00
1.364795e+01	-3.336652e+00
1.372678e+01	-3.364029e+00
1.380607e+01	-3.390818e+00
1.388581e+01	-3.417755e+00
1.396602e+01	-3.445246e+00
1.404668e+01	-3.472699e+00
1.412782e+01	-3.500169e+00
1.420942e+01	-3.527991e+00
1.429149e+01	-3.555972e+00
1.437404e+01	-3.584006e+00
1.445706e+01	-3.612053e+00
1.454057e+01	-3.640593e+00
1.462455e+01	-3.668945e+00
1.470902e+01	-3.697650e+00
1.479398e+01	-3.726486e+00
1.487943e+01	-3.755271e+00
1.496537e+01	-3.784229e+00
1.505181e+01	-3.813282e+00
1.513875e+01	-3.842815e+00
1.522619e+01	-3.872526e+00
1.531414e+01	-3.901546e+00
1.540259e+01	-3.931286e+00
1.549156e+01	-3.961480e+00
1.558103e+01	-3.991442e+00
1.567103e+01	-4.021573e+00
1.576155e+01	-4.051629e+00
1.585258e+01	-4.082221e+00
1.594415e+01	-4.112862e+00
1.603624e+01	-4.143527e+00
1.612886e+01	-4.174178e+00
1.622202e+01	-4.205051e+00
1.631572e+01	-4.236019e+00
1.640996e+01	-4.267539e+00
1.650474e+01	-4.298693e+00
1.660008e+01	-4.330276e+00
1.669596e+01	-4.362030e+00
1.679239e+01	-4.393531e+00
1.688938e+01	-4.425833e+00
1.698694e+01	-4.457705e+00
1.708505e+01	-4.490026e+00
1.718373e+01	-4.521900e+00
1.728299e+01	-4.554630e+00
1.738281e+01	-4.587220e+00
1.748322e+01	-4.619713e+00
1.758420e+01	-4.652633e+00
1.768576e+01	-4.685573e+00
1.778792e+01	-4.718695e+00
1.789066e+01	-4.751937e+00
1.799399e+01	-4.785321e+00
1.809793e+01	-4.818783e+00
1.820246e+01	-4.852344e+00
1.830760e+01	-4.885936e+00
1.841334e+01	-4.919794e+00
1.851969e+01	-4.954050e+00
1.862666e+01	-4.987931e+00
1.873425e+01	-5.022157e+00
1.884246e+01	-5.056475e+00
1.895129e+01	-5.090866e+00
1.906075e+01	-5.125663e+00
1.917085e+01	-5.160494e+00
1.928158e+01	-5.195230e+00
1.939295e+01	-5.229976e+00
1.950496e+01	-5.265589e+00
1.961762e+01	-5.300439e+00
1.973093e+01	-5.335553e+00
1.984490e+01	-5.371601e+00
1.995952e+01	-5.406822e+00
2.007480e+01	-5.442196e+00
2.019076e+01	-5.478108e+00
2.030738e+01	-5.514157e+00
2.042467e+01	-5.550142e+00
2.054264e+01	-5.586361e+00
2.066130e+01	-5.622869e+00
2.078064e+01	-5.658960e+00
2.090066e+01	-5.695328e+00
2.102139e+01	-5.731823e+00
2.114280e+01	-5.768717e+00
2.126492e+01	-5.805395e+00
2.138775e+01	-5.842725e+00
2.151128e+01	-5.879406e+00
2.163553e+01	-5.916717e+00
2.176050e+01	-5.953976e+00
2.188619e+01	-5.991553e+00
2.201260e+01	-6.028790e+00
2.213974e+01	-6.066310e+00
2.226762e+01	-6.104246e+00
2.239624e+01	-6.141836e+00
2.252560e+01	-6.180050e+00
2.265571e+01	-6.217718e+00
2.278656e+01	-6.256241e+00
2.291818e+01	-6.294286e+00
2.305055e+01	-6.332622e+00
2.318369e+01	-6.371198e+00
2.331760e+01	-6.409694e+00
2.345228e+01	-6.448184e+00
2.358774e+01	-6.486535e+00
2.372398e+01	-6.525799e+00
2.386101e+01	-6.564650e+00
2.399883e+01	-6.603554e+00
2.413745e+01	-6.642904e+00
2.427686e+01	-6.682365e+00
2.441709e+01	-6.722047e+00
2.455812e+01	-6.761125e+00
2.469997e+01	-6.800385e+00
2.484263e+01	-6.840303e+00
2.498612e+01	-6.879789e+00
2.513044e+01	-6.919320e+00
2.527559e+01	-6.959078e+00
2.542158e+01	-6.999050e+00
2.556842e+01	-7.039799e+00
2.571610e+01	-7.079809e+00
2.586463e+01	-7.120129e+00
2.601403e+01	-7.159909e+00
2.616428e+01	-7.200409e+00
2.631541e+01	-7.241652e+00
2.646740e+01	-7.281785e+00
2.662028e+01	-7.322887e+00
2.677404e+01	-7.363766e+00
2.692868e+01	-7.404373e+00
2.708422e+01	-7.445296e+00
2.724066e+01	-7.486713e+00
2.739800e+01	-7.527882e+00
2.755625e+01	-7.568920e+00
2.771541e+01	-7.610537e+00
2.787550e+01	-7.651700e+00
2.803650e+01	-7.692973e+00
2.819844e+01	-7.734825e+00
2.836131e+01	-7.776010e+00
2.852513e+01	-7.817960e+00
2.868989e+01	-7.859965e+00
2.885560e+01	-7.902008e+00
2.902227e+01	-7.943404e+00
2.918990e+01	-7.985726e+00
2.935850e+01	-8.027820e+00
2.952807e+01	-8.069945e+00
2.969863e+01	-8.112168e+00
2.987016e+01	-8.154533e+00
3.004269e+01	-8.196660e+00
3.021622e+01	-8.239247e+00
3.039075e+01	-8.282331e+00
3.056628e+01	-8.324702e+00
3.074283e+01	-8.367533e+00
3.092040e+01	-8.409648e+00
3.109900e+01	-8.452532e+00
3.127862e+01	-8.495777e+00
3.145929e+01	-8.538901e+00
3.164099e+01	-8.581672e+00
3.182375e+01	-8.624859e+00
3.200756e+01	-8.668197e+00
3.219244e+01	-8.711573e+00
3.237838e+01	-8.754610e+00
3.256540e+01	-8.798348e+00
3.275349e+01	-8.841598e+00
3.294268e+01	-8.884849e+00
3.313295e+01	-8.928959e+00
3.332433e+01	-8.972444e+00
3.351681e+01	-9.016220e+00
3.371040e+01	-9.059945e+00
3.390511e+01	-9.103313e+00
3.410094e+01	-9.147829e+00
3.429791e+01	-9.191376e+00
3.449601e+01	-9.235938e+00
3.469526e+01	-9.279838e+00
3.489566e+01	-9.323730e+00
3.509721e+01	-9.368708e+00
3.529993e+01	-9.412407e+00
3.550382e+01	-9.456347e+00
3.570889e+01	-9.500827e+00
3.591515e+01	-9.545502e+00
3.612259e+01	-9.590308e+00
3.633123e+01	-9.634556e+00
3.654108e+01	-9.678864e+00
3.675214e+01	-9.724031e+00
3.696442e+01	-9.768691e+00
3.717792e+01	-9.813462e+00
3.739266e+01	-9.858216e+00
3.760864e+01	-9.903524e+00
3.782587e+01	-9.948138e+00
3.804435e+01	-9.992938e+00
3.826409e+01	-1.003786e+01
3.848510e+01	-1.008341e+01
3.870739e+01	-1.012793e+01
3.893096e+01	-1.017356e+01
3.915583e+01	-1.021895e+01
3.938199e+01	-1.026420e+01
3.960946e+01	-1.030923e+01
3.983824e+01	-1.035449e+01
4.006834e+01	-1.040051e+01
4.029978e+01	-1.044587e+01
4.053255e+01	-1.049134e+01
4.076666e+01	-1.053687e+01
4.100213e+01	-1.058286e+01
4.123896e+01	-1.062841e+01
4.147715e+01	-1.067368e+01
4.171672e+01	-1.071913e+01
4.195767e+01	-1.076557e+01
4.220002e+01	-1.081122e+01
4.244377e+01	-1.085703e+01
4.268892e+01	-1.090301e+01
4.293549e+01	-1.094870e+01
4.318348e+01	-1.099486e+01
4.343291e+01	-1.104059e+01
4.368377e+01	-1.108715e+01
4.393609e+01	-1.113324e+01
4.418986e+01	-1.117936e+01
4.444510e+01	-1.122612e+01
4.470182e+01	-1.127189e+01
4.496001e+01	-1.131875e+01
4.521970e+01	-1.136505e+01
4.548089e+01	-1.141110e+01
4.574358e+01	-1.145807e+01
4.600779e+01	-1.150424e+01
4.627353e+01	-1.155043e+01
4.654081e+01	-1.159711e+01
4.680963e+01	-1.164392e+01
4.708000e+01	-1.169073e+01
4.735193e+01	-1.173726e+01
4.762543e+01	-1.178342e+01
4.790051e+01	-1.183045e+01
4.817719e+01	-1.187818e+01
4.845545e+01	-1.192342e+01
4.873533e+01	-1.197066e+01
4.901682e+01	-1.201813e+01
4.929994e+01	-1.206407e+01
4.958470e+01	-1.211197e+01
4.987110e+01	-1.215901e+01
5.015915e+01	-1.220541e+01
5.044887e+01	-1.225294e+01
5.074026e+01	-1.229979e+01
5.103333e+01	-1.234647e+01
5.132810e+01	-1.239339e+01
5.162457e+01	-1.244153e+01
5.192275e+01	-1.248854e+01
5.222265e+01	-1.253572e+01
5.252429e+01	-1.258225e+01
5.282767e+01	-1.262962e+01
5.313280e+01	-1.267688e+01
5.343969e+01	-1.272400e+01
5.374836e+01	-1.277106e+01
5.405880e+01	-1.281938e+01
5.437105e+01	-1.286628e+01
5.468509e+01	-1.291374e+01
5.500095e+01	-1.296202e+01
5.531863e+01	-1.300889e+01
5.563815e+01	-1.305703e+01
5.595951e+01	-1.310402e+01
5.628273e+01	-1.315158e+01
5.660782e+01	-1.320026e+01
5.693479e+01	-1.324688e+01
5.726364e+01	-1.329462e+01
5.759439e+01	-1.334245e+01
5.792705e+01	-1.338955e+01
5.826164e+01	-1.343850e+01
5.859815e+01	-1.348516e+01
5.893662e+01	-1.353400e+01
5.927703e+01	-1.358180e+01
5.961941e+01	-1.362841e+01
5.996377e+01	-1.367646e+01
6.031012e+01	-1.372567e+01
6.065847e+01	-1.377251e+01
6.100883e+01	-1.382195e+01
6.136121e+01	-1.386875e+01
6.171563e+01	-1.391696e+01
6.207210e+01	-1.396476e+01
6.243063e+01	-1.401274e+01
6.279122e+01	-1.406125e+01
6.315390e+01	-1.410842e+01
6.351868e+01	-1.415724e+01
6.388556e+01	-1.420570e+01
6.425456e+01	-1.425397e+01
6.462569e+01	-1.430178e+01
6.499897e+01	-1.435052e+01
6.537440e+01	-1.439830e+01
6.575200e+01	-1.444671e+01
6.613178e+01	-1.449417e+01
6.651375e+01	-1.454372e+01
6.689793e+01	-1.459053e+01
6.728433e+01	-1.463935e+01
6.767297e+01	-1.468779e+01
6.806384e+01	-1.473624e+01
6.845698e+01	-1.478394e+01
6.885238e+01	-1.483254e+01
6.925007e+01	-1.488066e+01
6.965005e+01	-1.492986e+01
7.005235e+01	-1.497877e+01
7.045697e+01	-1.502494e+01
7.086393e+01	-1.507430e+01
7.127323e+01	-1.512301e+01
7.168490e+01	-1.517139e+01
7.209895e+01	-1.522086e+01
7.251539e+01	-1.526900e+01
7.293424e+01	-1.531749e+01
7.335551e+01	-1.536528e+01
7.377920e+01	-1.541402e+01
7.420535e+01	-1.546313e+01
7.463396e+01	-1.551169e+01
7.506504e+01	-1.556011e+01
7.549861e+01	-1.560910e+01
7.593469e+01	-1.565816e+01
7.637328e+01	-1.570574e+01
7.681441e+01	-1.575470e+01
7.725809e+01	-1.580392e+01
7.770433e+01	-1.585157e+01
7.815315e+01	-1.590116e+01
7.860456e+01	-1.595022e+01
7.905857e+01	-1.599852e+01
7.951521e+01	-1.604812e+01
7.997449e+01	-1.609644e+01
8.043642e+01	-1.614507e+01
8.090102e+01	-1.619429e+01
8.136830e+01	-1.624364e+01
8.183828e+01	-1.629169e+01
8.231097e+01	-1.634017e+01
8.278640e+01	-1.638941e+01
8.326457e+01	-1.643706e+01
8.374550e+01	-1.648637e+01
8.422921e+01	-1.653603e+01
8.471572e+01	-1.658375e+01
8.520503e+01	-1.663405e+01
8.569717e+01	-1.668315e+01
8.619215e+01	-1.673168e+01
8.669000e+01	-1.678005e+01
8.719071e+01	-1.682961e+01
8.769432e+01	-1.687836e+01
8.820084e+01	-1.692785e+01
8.871029e+01	-1.697748e+01
8.922267e+01	-1.702555e+01
8.973802e+01	-1.707498e+01
9.025634e+01	-1.712444e+01
9.077766e+01	-1.717270e+01
9.130199e+01	-1.722140e+01
9.182935e+01	-1.727227e+01
9.235975e+01	-1.732017e+01
9.289321e+01	-1.736881e+01
9.342976e+01	-1.741927e+01
9.396941e+01	-1.746713e+01
9.451217e+01	-1.751549e+01
9.505807e+01	-1.756520e+01
9.560712e+01	-1.761458e+01
9.615934e+01	-1.766382e+01
9.671476e+01	-1.771330e+01
9.727338e+01	-1.776355e+01
9.783522e+01	-1.781185e+01
9.840032e+01	-1.786025e+01
9.896867e+01	-1.791045e+01
9.954031e+01	-1.795855e+01
1.001153e+02	-1.800837e+01
1.006935e+02	-1.805769e+01
1.012751e+02	-1.810710e+01
1.018601e+02	-1.815568e+01
1.024484e+02	-1.820642e+01
1.030402e+02	-1.825562e+01
1.036353e+02	-1.830482e+01
1.042339e+02	-1.835348e+01
1.048360e+02	-1.840202e+01
1.054415e+02	-1.845237e+01
1.060505e+02	-1.850160e+01
1.066631e+02	-1.855076e+01
1.072791e+02	-1.860154e+01
1.078988e+02	-1.864940e+01
1.085220e+02	-1.870027e+01
1.091488e+02	-1.874812e+01
1.097793e+02	-1.879790e+01
1.104133e+02	-1.884647e+01
1.110511e+02	-1.889636e+01
1.116925e+02	-1.894524e+01
1.123376e+02	-1.899570e+01
1.129865e+02	-1.904403e+01
1.136391e+02	-1.909278e+01
1.142955e+02	-1.914416e+01
1.149556e+02	-1.919259e+01
1.156196e+02	-1.924175e+01
1.162874e+02	-1.929237e+01
1.169591e+02	-1.933989e+01
1.176347e+02	-1.939017e+01
1.183141e+02	-1.943976e+01
1.189975e+02	-1.949061e+01
1.196848e+02	-1.953930e+01
1.203761e+02	-1.958739e+01
1.210714e+02	-1.963813e+01
1.217707e+02	-1.968688e+01
1.224740e+02	-1.973641e+01
1.231814e+02	-1.978626e+01
1.238929e+02	-1.983542e+01
1.246085e+02	-1.988502e+01
1.253283e+02	-1.993555e+01
1.260522e+02	-1.998467e+01
1.267802e+02	-2.003557e+01
1.275125e+02	-2.008362e+01
1.282490e+02	-2.013286e+01
1.289898e+02	-2.018306e+01
1.297348e+02	-2.023210e+01
1.304842e+02	-2.028167e+01
1.312378e+02	-2.033109e+01
1.319959e+02	-2.038172e+01
1.327583e+02	-2.043112e+01
1.335251e+02	-2.048142e+01
1.342963e+02	-2.053185e+01
1.350720e+02	-2.058023e+01
1.358522e+02	-2.062878e+01
1.366368e+02	-2.067985e+01
1.374260e+02	-2.072884e+01
1.382198e+02	-2.077759e+01
1.390182e+02	-2.082761e+01
1.398211e+02	-2.087725e+01
1.406287e+02	-2.092550e+01
1.414410e+02	-2.097820e+01
1.422579e+02	-2.102656e+01
1.430796e+02	-2.107477e+01
1.439060e+02	-2.112414e+01
1.447372e+02	-2.117567e+01
1.455732e+02	-2.122449e+01
1.464141e+02	-2.127455e+01
1.472597e+02	-2.132324e+01
1.481103e+02	-2.137278e+01
1.489658e+02	-2.142416e+01
1.498262e+02	-2.147179e+01
1.506916e+02	-2.152232e+01
1.515620e+02	-2.157271e+01
1.524374e+02	-2.162174e+01
1.533179e+02	-2.167027e+01
1.542034e+02	-2.172324e+01
1.550941e+02	-2.177112e+01
1.559899e+02	-2.182097e+01
1.568909e+02	-2.187140e+01
1.577971e+02	-2.191923e+01
1.587085e+02	-2.196904e+01
1.596252e+02	-2.202192e+01
1.605472e+02	-2.206988e+01
1.614745e+02	-2.211826e+01
1.624072e+02	-2.216791e+01
1.633453e+02	-2.221835e+01
1.642887e+02	-2.226929e+01
1.652377e+02	-2.231834e+01
1.661921e+02	-2.236768e+01
1.671520e+02	-2.241773e+01
1.681175e+02	-2.246678e+01
1.690885e+02	-2.251869e+01
1.700651e+02	-2.256684e+01
1.710474e+02	-2.261717e+01
1.720354e+02	-2.266732e+01
1.730291e+02	-2.271559e+01
1.740285e+02	-2.276465e+01
1.750337e+02	-2.281571e+01
1.760446e+02	-2.286425e+01
1.770615e+02	-2.291493e+01
1.780842e+02	-2.296431e+01
1.791128e+02	-2.301461e+01
1.801473e+02	-2.306594e+01
1.811878e+02	-2.311472e+01
1.822344e+02	-2.316177e+01
1.832870e+02	-2.321407e+01
1.843456e+02	-2.326333e+01
1.854104e+02	-2.331270e+01
1.864813e+02	-2.336117e+01
1.875584e+02	-2.341137e+01
1.886418e+02	-2.346468e+01
1.897313e+02	-2.351326e+01
1.908272e+02	-2.356069e+01
1.919294e+02	-2.361533e+01
1.930380e+02	-2.366188e+01
1.941530e+02	-2.370890e+01
1.952744e+02	-2.376311e+01
1.964023e+02	-2.381359e+01
1.975367e+02	-2.386360e+01
1.986777e+02	-2.391014e+01
1.998252e+02	-2.396063e+01
2.009794e+02	-2.401110e+01
2.021403e+02	-2.406199e+01
2.033078e+02	-2.410983e+01
2.044821e+02	-2.416351e+01
2.056632e+02	-2.421045e+01
2.068511e+02	-2.425927e+01
2.080459e+02	-2.431105e+01
2.092475e+02	-2.435947e+01
2.104561e+02	-2.440901e+01
2.116717e+02	-2.445951e+01
2.128943e+02	-2.451008e+01
2.141240e+02	-2.455939e+01
2.153608e+02	-2.460959e+01
2.166047e+02	-2.466159e+01
2.178558e+02	-2.471278e+01
2.191141e+02	-2.475816e+01
2.203797e+02	-2.480974e+01
2.216526e+02	-2.486019e+01
2.229329e+02	-2.490891e+01
2.242205e+02	-2.495994e+01
2.255156e+02	-2.500995e+01
2.268182e+02	-2.506454e+01
2.281283e+02	-2.511027e+01
2.294459e+02	-2.515958e+01
2.307712e+02	-2.521052e+01
2.321041e+02	-2.525991e+01
2.334447e+02	-2.530724e+01
2.347931e+02	-2.535974e+01
2.361493e+02	-2.541103e+01
2.375133e+02	-2.545964e+01
2.388851e+02	-2.550790e+01
2.402649e+02	-2.555989e+01
2.416527e+02	-2.560664e+01
2.430484e+02	-2.565857e+01
2.444523e+02	-2.571071e+01
2.458642e+02	-2.575817e+01
2.472843e+02	-2.580775e+01
2.487126e+02	-2.585868e+01
2.501492e+02	-2.590732e+01
2.515940e+02	-2.595824e+01
2.530472e+02	-2.600610e+01
2.545088e+02	-2.605736e+01
2.559789e+02	-2.610772e+01
2.574574e+02	-2.615376e+01
2.589444e+02	-2.620608e+01
2.604401e+02	-2.625649e+01
2.619444e+02	-2.630651e+01
2.634574e+02	-2.635799e+01
2.649791e+02	-2.640681e+01
2.665096e+02	-2.645679e+01
2.680489e+02	-2.650811e+01
2.695972e+02	-2.655748e+01
2.711544e+02	-2.660573e+01
2.727205e+02	-2.665604e+01
2.742958e+02	-2.670822e+01
2.758801e+02	-2.675745e+01
2.774736e+02	-2.680802e+01
2.790762e+02	-2.685512e+01
2.806882e+02	-2.690716e+01
2.823094e+02	-2.695475e+01
2.839400e+02	-2.700811e+01
2.855800e+02	-2.705998e+01
2.872295e+02	-2.710738e+01
2.888886e+02	-2.715782e+01
2.905572e+02	-2.720907e+01
2.922354e+02	-2.725652e+01
2.939234e+02	-2.730855e+01
2.956211e+02	-2.735355e+01
2.973286e+02	-2.740533e+01
2.990459e+02	-2.745282e+01
3.007732e+02	-2.750806e+01
3.025104e+02	-2.755730e+01
3.042577e+02	-2.760652e+01
3.060151e+02	-2.765776e+01
3.077826e+02	-2.770662e+01
3.095604e+02	-2.775710e+01
3.113484e+02	-2.780523e+01
3.131467e+02	-2.785822e+01
3.149554e+02	-2.790779e+01
3.167746e+02	-2.795777e+01
3.186043e+02	-2.800703e+01
3.204445e+02	-2.805912e+01
3.222954e+02	-2.810811e+01
3.241570e+02	-2.815620e+01
3.260293e+02	-2.820544e+01
3.279124e+02	-2.825648e+01
3.298064e+02	-2.830853e+01
3.317114e+02	-2.835705e+01
3.336273e+02	-2.840764e+01
3.355544e+02	-2.845899e+01
3.374925e+02	-2.850695e+01
3.394418e+02	-2.855355e+01
3.414024e+02	-2.860706e+01
3.433744e+02	-2.865608e+01
3.453577e+02	-2.870748e+01
3.473525e+02	-2.875713e+01
3.493588e+02	-2.880732e+01
3.513766e+02	-2.885848e+01
3.534062e+02	-2.890855e+01
3.554474e+02	-2.895756e+01
3.575005e+02	-2.901081e+01
3.595654e+02	-2.906158e+01
3.616422e+02	-2.910769e+01
3.637311e+02	-2.915827e+01
3.658320e+02	-2.920624e+01
3.679450e+02	-2.925585e+01
3.700702e+02	-2.930882e+01
3.722077e+02	-2.935815e+01
3.743576e+02	-2.941042e+01
3.765199e+02	-2.946224e+01
3.786946e+02	-2.950337e+01
3.808820e+02	-2.955722e+01
3.830819e+02	-2.960698e+01
3.852946e+02	-2.965788e+01
3.875200e+02	-2.970582e+01
3.897583e+02	-2.975791e+01
3.920096e+02	-2.981023e+01
3.942738e+02	-2.986214e+01
3.965511e+02	-2.991029e+01
3.988416e+02	-2.995588e+01
4.011452e+02	-3.000587e+01
4.034622e+02	-3.006385e+01
4.057926e+02	-3.011089e+01
4.081365e+02	-3.016006e+01
4.104938e+02	-3.020998e+01
4.128648e+02	-3.025875e+01
4.152495e+02	-3.031074e+01
4.176480e+02	-3.036229e+01
4.200603e+02	-3.040841e+01
4.224866e+02	-3.045457e+01
4.249268e+02	-3.051035e+01
4.273812e+02	-3.055773e+01
4.298497e+02	-3.060938e+01
4.323325e+02	-3.065927e+01
4.348297e+02	-3.070613e+01
4.373412e+02	-3.075724e+01
4.398673e+02	-3.081321e+01
4.424079e+02	-3.086068e+01
4.449633e+02	-3.090940e+01
4.475334e+02	-3.095682e+01
4.501183e+02	-3.101120e+01
4.527182e+02	-3.106305e+01
4.553330e+02	-3.111354e+01
4.579630e+02	-3.115802e+01
4.606082e+02	-3.121152e+01
4.632687e+02	-3.125941e+01
4.659445e+02	-3.131381e+01
4.686358e+02	-3.136084e+01
4.713426e+02	-3.141260e+01
4.740650e+02	-3.145671e+01
4.768032e+02	-3.151221e+01
4.795572e+02	-3.156821e+01
4.823271e+02	-3.161611e+01
4.851130e+02	-3.166477e+01
4.879150e+02	-3.171489e+01
4.907332e+02	-3.176370e+01
4.935676e+02	-3.181356e+01
4.964185e+02	-3.186972e+01
4.992858e+02	-3.191063e+01
5.021696e+02	-3.196375e+01
5.050701e+02	-3.201488e+01
5.079874e+02	-3.206888e+01
5.109215e+02	-3.210852e+01
5.138726e+02	-3.216419e+01
5.168407e+02	-3.221239e+01
5.198259e+02	-3.226996e+01
5.228284e+02	-3.231571e+01
5.258482e+02	-3.237212e+01
5.288855e+02	-3.241890e+01
5.319403e+02	-3.246046e+01
5.350128e+02	-3.251471e+01
5.381030e+02	-3.256893e+01
5.412111e+02	-3.261605e+01
5.443371e+02	-3.266158e+01
5.474812e+02	-3.271538e+01
5.506434e+02	-3.276886e+01
5.538239e+02	-3.281234e+01
5.570228e+02	-3.286346e+01
5.602401e+02	-3.291756e+01
5.634760e+02	-3.296696e+01
5.667306e+02	-3.302133e+01
5.700040e+02	-3.307395e+01
5.732964e+02	-3.311653e+01
5.766077e+02	-3.318087e+01
5.799382e+02	-3.322572e+01
5.832879e+02	-3.326696e+01
5.866569e+02	-3.331549e+01
5.900454e+02	-3.336800e+01
5.934535e+02	-3.342071e+01
5.968813e+02	-3.347386e+01
6.003288e+02	-3.352229e+01
6.037963e+02	-3.356497e+01
6.072838e+02	-3.361503e+01
6.107914e+02	-3.368194e+01
6.143194e+02	-3.372601e+01
6.178676e+02	-3.377687e+01
6.214364e+02	-3.381974e+01
6.250258e+02	-3.386844e+01
6.286359e+02	-3.392312e+01
6.322669e+02	-3.397098e+01
6.359189e+02	-3.402141e+01
6.395919e+02	-3.407532e+01
6.432862e+02	-3.412628e+01
6.470017e+02	-3.417321e+01
6.507388e+02	-3.422760e+01
6.544974e+02	-3.428204e+01
6.582778e+02	-3.432635e+01
6.620800e+02	-3.438097e+01
6.659041e+02	-3.442756e+01
6.697504e+02	-3.446723e+01
6.736188e+02	-3.452526e+01
6.775096e+02	-3.457165e+01
6.814229e+02	-3.463278e+01
6.853587e+02	-3.468037e+01
6.893173e+02	-3.473234e+01
6.932988e+02	-3.478217e+01
6.973033e+02	-3.483489e+01
7.013309e+02	-3.487766e+01
