Frequency(Hz)	Magnitude(dB)
1.000000e+01	-1.734819e-05
1.005776e+01	-1.754918e-05
1.011585e+01	-1.775249e-05
1.017428e+01	-1.795816e-05
1.023305e+01	-1.816621e-05
1.029215e+01	-1.837667e-05
1.035160e+01	-1.858956e-05
1.041139e+01	-1.880493e-05
1.047153e+01	-1.902279e-05
1.053201e+01	-1.924317e-05
1.059284e+01	-1.946611e-05
1.065403e+01	-1.969163e-05
1.071556e+01	-1.991976e-05
1.077746e+01	-2.015054e-05
1.083971e+01	-2.038399e-05
1.090232e+01	-2.062014e-05
1.096529e+01	-2.085903e-05
1.102862e+01	-2.110069e-05
1.109232e+01	-2.134514e-05
1.115639e+01	-2.159243e-05
1.122083e+01	-2.184259e-05
1.128564e+01	-2.209564e-05
1.135083e+01	-2.235162e-05
1.141639e+01	-2.261057e-05
1.148233e+01	-2.287252e-05
1.154865e+01	-2.313750e-05
1.161536e+01	-2.340556e-05
1.168245e+01	-2.367672e-05
1.174992e+01	-2.395102e-05
1.181779e+01	-2.422850e-05
1.188605e+01	-2.450919e-05
1.195470e+01	-2.479313e-05
1.202375e+01	-2.508037e-05
1.209320e+01	-2.537093e-05
1.216305e+01	-2.566486e-05
1.223330e+01	-2.596219e-05
1.230396e+01	-2.626297e-05
1.237503e+01	-2.656723e-05
1.244651e+01	-2.687502e-05
1.251840e+01	-2.718638e-05
1.259070e+01	-2.750134e-05
1.266343e+01	-2.781995e-05
1.273657e+01	-2.814225e-05
1.281014e+01	-2.846828e-05
1.288413e+01	-2.879809e-05
1.295855e+01	-2.913173e-05
1.303339e+01	-2.946923e-05
1.310867e+01	-2.981063e-05
1.318439e+01	-3.015600e-05
1.326054e+01	-3.050536e-05
1.333713e+01	-3.085877e-05
1.341417e+01	-3.121628e-05
1.349165e+01	-3.157793e-05
1.356958e+01	-3.194376e-05
1.364795e+01	-3.231384e-05
1.372678e+01	-3.268820e-05
1.380607e+01	-3.306691e-05
1.388581e+01	-3.344999e-05
1.396602e+01	-3.383752e-05
1.404668e+01	-3.422953e-05
1.412782e+01	-3.462609e-05
1.420942e+01	-3.502724e-05
1.429149e+01	-3.543304e-05
1.437404e+01	-3.584354e-05
1.445706e+01	-3.625880e-05
1.454057e+01	-3.667886e-05
1.462455e+01	-3.710380e-05
1.470902e+01	-3.753365e-05
1.479398e+01	-3.796849e-05
1.487943e+01	-3.840836e-05
1.496537e+01	-3.885333e-05
1.505181e+01	-3.930346e-05
1.513875e+01	-3.975880e-05
1.522619e+01	-4.021941e-05
1.531414e+01	-4.068536e-05
1.540259e+01	-4.115671e-05
1.549156e+01	-4.163352e-05
1.558103e+01	-4.211585e-05
1.567103e+01	-4.260378e-05
1.576155e+01	-4.309735e-05
1.585258e+01	-4.359664e-05
1.594415e+01	-4.410172e-05
1.603624e+01	-4.461265e-05
1.612886e+01	-4.512950e-05
1.622202e+01	-4.565233e-05
1.631572e+01	-4.618122e-05
1.640996e+01	-4.671624e-05
1.650474e+01	-4.725746e-05
1.660008e+01	-4.780495e-05
1.669596e+01	-4.835878e-05
1.679239e+01	-4.891903e-05
1.688938e+01	-4.948576e-05
1.698694e+01	-5.005907e-05
1.708505e+01	-5.063901e-05
1.718373e+01	-5.122567e-05
1.728299e+01	-5.181913e-05
1.738281e+01	-5.241947e-05
1.748322e+01	-5.302676e-05
1.758420e+01	-5.364109e-05
1.768576e+01	-5.426253e-05
1.778792e+01	-5.489117e-05
1.789066e+01	-5.552710e-05
1.799399e+01	-5.617039e-05
1.809793e+01	-5.682114e-05
1.820246e+01	-5.747942e-05
1.830760e+01	-5.814533e-05
1.841334e+01	-5.881896e-05
1.851969e+01	-5.950039e-05
1.862666e+01	-6.018971e-05
1.873425e+01	-6.088702e-05
1.884246e+01	-6.159241e-05
1.895129e+01	-6.230597e-05
1.906075e+01	-6.302779e-05
1.917085e+01	-6.375798e-05
1.928158e+01	-6.449663e-05
1.939295e+01	-6.524384e-05
1.950496e+01	-6.599970e-05
1.961762e+01	-6.676432e-05
1.973093e+01	-6.753780e-05
1.984490e+01	-6.832024e-05
1.995952e+01	-6.911174e-05
2.007480e+01	-6.991241e-05
2.019076e+01	-7.072236e-05
2.030738e+01	-7.154169e-05
2.042467e+01	-7.237051e-05
2.054264e+01	-7.320894e-05
2.066130e+01	-7.405708e-05
2.078064e+01	-7.491504e-05
2.090066e+01	-7.578295e-05
2.102139e+01	-7.666091e-05
2.114280e+01	-7.754904e-05
2.126492e+01	-7.844746e-05
2.138775e+01	-7.935628e-05
2.151128e+01	-8.027564e-05
2.163553e+01	-8.120565e-05
2.176050e+01	-8.214643e-05
2.188619e+01	-8.309811e-05
2.201260e+01	-8.406081e-05
2.213974e+01	-8.503467e-05
2.226762e+01	-8.601981e-05
2.239624e+01	-8.701637e-05
2.252560e+01	-8.802446e-05
2.265571e+01	-8.904424e-05
2.278656e+01	-9.007583e-05
2.291818e+01	-9.111938e-05
2.305055e+01	-9.217501e-05
2.318369e+01	-9.324287e-05
2.331760e+01	-9.432310e-05
2.345228e+01	-9.541585e-05
2.358774e+01	-9.652126e-05
2.372398e+01	-9.763947e-05
2.386101e+01	-9.877064e-05
2.399883e+01	-9.991491e-05
2.413745e+01	-1.010724e-04
2.427686e+01	-1.022434e-04
2.441709e+01	-1.034279e-04
2.455812e+01	-1.046261e-04
2.469997e+01	-1.058382e-04
2.484263e+01	-1.070644e-04
2.498612e+01	-1.083047e-04
2.513044e+01	-1.095594e-04
2.527559e+01	-1.108287e-04
2.542158e+01	-1.121127e-04
2.556842e+01	-1.134115e-04
2.571610e+01	-1.147254e-04
2.586463e+01	-1.160545e-04
2.601403e+01	-1.173990e-04
2.616428e+01	-1.187591e-04
2.631541e+01	-1.201349e-04
2.646740e+01	-1.215267e-04
2.662028e+01	-1.229346e-04
2.677404e+01	-1.243588e-04
2.692868e+01	-1.257995e-04
2.708422e+01	-1.272569e-04
2.724066e+01	-1.287312e-04
2.739800e+01	-1.302226e-04
2.755625e+01	-1.317312e-04
2.771541e+01	-1.332573e-04
2.787550e+01	-1.348011e-04
2.803650e+01	-1.363628e-04
2.819844e+01	-1.379426e-04
2.836131e+01	-1.395407e-04
2.852513e+01	-1.411573e-04
2.868989e+01	-1.427926e-04
2.885560e+01	-1.444469e-04
2.902227e+01	-1.461203e-04
2.918990e+01	-1.478131e-04
2.935850e+01	-1.495255e-04
2.952807e+01	-1.512578e-04
2.969863e+01	-1.530101e-04
2.987016e+01	-1.547828e-04
3.004269e+01	-1.565759e-04
3.021622e+01	-1.583899e-04
3.039075e+01	-1.602248e-04
3.056628e+01	-1.620810e-04
3.074283e+01	-1.639588e-04
3.092040e+01	-1.658582e-04
3.109900e+01	-1.677797e-04
3.127862e+01	-1.697235e-04
3.145929e+01	-1.716897e-04
3.164099e+01	-1.736787e-04
3.182375e+01	-1.756908e-04
3.200756e+01	-1.777262e-04
3.219244e+01	-1.797852e-04
3.237838e+01	-1.818680e-04
3.256540e+01	-1.839749e-04
3.275349e+01	-1.861063e-04
3.294268e+01	-1.882623e-04
3.313295e+01	-1.904434e-04
3.332433e+01	-1.926496e-04
3.351681e+01	-1.948815e-04
3.371040e+01	-1.971392e-04
3.390511e+01	-1.994231e-04
3.410094e+01	-2.017334e-04
3.429791e+01	-2.040705e-04
3.449601e+01	-2.064346e-04
3.469526e+01	-2.088262e-04
3.489566e+01	-2.112454e-04
3.509721e+01	-2.136927e-04
3.529993e+01	-2.161683e-04
3.550382e+01	-2.186726e-04
3.570889e+01	-2.212059e-04
3.591515e+01	-2.237686e-04
3.612259e+01	-2.263610e-04
3.633123e+01	-2.289833e-04
3.654108e+01	-2.316361e-04
3.675214e+01	-2.343196e-04
3.696442e+01	-2.370342e-04
3.717792e+01	-2.397802e-04
3.739266e+01	-2.425581e-04
3.760864e+01	-2.453681e-04
3.782587e+01	-2.482107e-04
3.804435e+01	-2.510862e-04
3.826409e+01	-2.539950e-04
3.848510e+01	-2.569375e-04
3.870739e+01	-2.599141e-04
3.893096e+01	-2.629252e-04
3.915583e+01	-2.659712e-04
3.938199e+01	-2.690524e-04
3.960946e+01	-2.721694e-04
3.983824e+01	-2.753224e-04
4.006834e+01	-2.785120e-04
4.029978e+01	-2.817385e-04
4.053255e+01	-2.850025e-04
4.076666e+01	-2.883042e-04
4.100213e+01	-2.916442e-04
4.123896e+01	-2.950228e-04
4.147715e+01	-2.984406e-04
4.171672e+01	-3.018980e-04
4.195767e+01	-3.053955e-04
4.220002e+01	-3.089334e-04
4.244377e+01	-3.125124e-04
4.268892e+01	-3.161328e-04
4.293549e+01	-3.197951e-04
4.318348e+01	-3.234999e-04
4.343291e+01	-3.272476e-04
4.368377e+01	-3.310387e-04
4.393609e+01	-3.348738e-04
4.418986e+01	-3.387532e-04
4.444510e+01	-3.426776e-04
4.470182e+01	-3.466475e-04
4.496001e+01	-3.506633e-04
4.521970e+01	-3.547257e-04
4.548089e+01	-3.588351e-04
4.574358e+01	-3.629921e-04
4.600779e+01	-3.671973e-04
4.627353e+01	-3.714512e-04
4.654081e+01	-3.757544e-04
4.680963e+01	-3.801074e-04
4.708000e+01	-3.845109e-04
4.735193e+01	-3.889653e-04
4.762543e+01	-3.934714e-04
4.790051e+01	-3.980297e-04
4.817719e+01	-4.026408e-04
4.845545e+01	-4.073052e-04
4.873533e+01	-4.120238e-04
4.901682e+01	-4.167969e-04
4.929994e+01	-4.216254e-04
4.958470e+01	-4.265098e-04
4.987110e+01	-4.314508e-04
5.015915e+01	-4.364490e-04
5.044887e+01	-4.415052e-04
5.074026e+01	-4.466199e-04
5.103333e+01	-4.517938e-04
5.132810e+01	-4.570277e-04
5.162457e+01	-4.623222e-04
5.192275e+01	-4.676780e-04
5.222265e+01	-4.730959e-04
5.252429e+01	-4.785766e-04
5.282767e+01	-4.841207e-04
5.313280e+01	-4.897291e-04
5.343969e+01	-4.954024e-04
5.374836e+01	-5.011414e-04
5.405880e+01	-5.069469e-04
5.437105e+01	-5.128197e-04
5.468509e+01	-5.187605e-04
5.500095e+01	-5.247701e-04
5.531863e+01	-5.308494e-04
5.563815e+01	-5.369990e-04
5.595951e+01	-5.432199e-04
5.628273e+01	-5.495129e-04
5.660782e+01	-5.558787e-04
5.693479e+01	-5.623183e-04
5.726364e+01	-5.688325e-04
5.759439e+01	-5.754221e-04
5.792705e+01	-5.820881e-04
5.826164e+01	-5.888313e-04
5.859815e+01	-5.956526e-04
5.893662e+01	-6.025529e-04
5.927703e+01	-6.095332e-04
5.961941e+01	-6.165943e-04
5.996377e+01	-6.237372e-04
6.031012e+01	-6.309628e-04
6.065847e+01	-6.382722e-04
6.100883e+01	-6.456662e-04
6.136121e+01	-6.531459e-04
6.171563e+01	-6.607122e-04
6.207210e+01	-6.683661e-04
6.243063e+01	-6.761087e-04
6.279122e+01	-6.839410e-04
6.315390e+01	-6.918640e-04
6.351868e+01	-6.998788e-04
6.388556e+01	-7.079864e-04
6.425456e+01	-7.161880e-04
6.462569e+01	-7.244845e-04
6.499897e+01	-7.328771e-04
6.537440e+01	-7.413670e-04
6.575200e+01	-7.499552e-04
6.613178e+01	-7.586429e-04
6.651375e+01	-7.674312e-04
6.689793e+01	-7.763213e-04
6.728433e+01	-7.853144e-04
6.767297e+01	-7.944116e-04
6.806384e+01	-8.036142e-04
6.845698e+01	-8.129235e-04
6.885238e+01	-8.223405e-04
6.925007e+01	-8.318666e-04
6.965005e+01	-8.415031e-04
7.005235e+01	-8.512512e-04
7.045697e+01	-8.611122e-04
7.086393e+01	-8.710874e-04
7.127323e+01	-8.811782e-04
7.168490e+01	-8.913858e-04
7.209895e+01	-9.017117e-04
7.251539e+01	-9.121572e-04
7.293424e+01	-9.227236e-04
7.335551e+01	-9.334125e-04
7.377920e+01	-9.442252e-04
7.420535e+01	-9.551631e-04
7.463396e+01	-9.662277e-04
7.506504e+01	-9.774204e-04
7.549861e+01	-9.887428e-04
7.593469e+01	-1.000196e-03
7.637328e+01	-1.011783e-03
7.681441e+01	-1.023503e-03
7.725809e+01	-1.035359e-03
7.770433e+01	-1.047353e-03
7.815315e+01	-1.059485e-03
7.860456e+01	-1.071758e-03
7.905857e+01	-1.084173e-03
7.951521e+01	-1.096732e-03
7.997449e+01	-1.109436e-03
8.043642e+01	-1.122288e-03
8.090102e+01	-1.135288e-03
8.136830e+01	-1.148439e-03
8.183828e+01	-1.161742e-03
8.231097e+01	-1.175199e-03
8.278640e+01	-1.188812e-03
8.326457e+01	-1.202583e-03
8.374550e+01	-1.216513e-03
8.422921e+01	-1.230605e-03
8.471572e+01	-1.244860e-03
8.520503e+01	-1.259280e-03
8.569717e+01	-1.273867e-03
8.619215e+01	-1.288623e-03
8.669000e+01	-1.303550e-03
8.719071e+01	-1.318649e-03
8.769432e+01	-1.333924e-03
8.820084e+01	-1.349375e-03
8.871029e+01	-1.365006e-03
8.922267e+01	-1.380817e-03
8.973802e+01	-1.396812e-03
9.025634e+01	-1.412991e-03
9.077766e+01	-1.429359e-03
9.130199e+01	-1.445915e-03
9.182935e+01	-1.462664e-03
9.235975e+01	-1.479606e-03
9.289321e+01	-1.496745e-03
9.342976e+01	-1.514082e-03
9.396941e+01	-1.531620e-03
9.451217e+01	-1.549361e-03
9.505807e+01	-1.567308e-03
9.560712e+01	-1.585462e-03
9.615934e+01	-1.603827e-03
9.671476e+01	-1.622404e-03
9.727338e+01	-1.641196e-03
9.783522e+01	-1.660206e-03
9.840032e+01	-1.679437e-03
9.896867e+01	-1.698890e-03
9.954031e+01	-1.718568e-03
1.001153e+02	-1.738474e-03
1.006935e+02	-1.758611e-03
1.012751e+02	-1.778980e-03
1.018601e+02	-1.799586e-03
1.024484e+02	-1.820430e-03
1.030402e+02	-1.841516e-03
1.036353e+02	-1.862846e-03
1.042339e+02	-1.884423e-03
1.048360e+02	-1.906250e-03
1.054415e+02	-1.928329e-03
1.060505e+02	-1.950664e-03
1.066631e+02	-1.973258e-03
1.072791e+02	-1.996113e-03
1.078988e+02	-2.019234e-03
1.085220e+02	-2.042621e-03
1.091488e+02	-2.066280e-03
1.097793e+02	-2.090213e-03
1.104133e+02	-2.114423e-03
1.110511e+02	-2.138913e-03
1.116925e+02	-2.163686e-03
1.123376e+02	-2.188747e-03
1.129865e+02	-2.214098e-03
1.136391e+02	-2.239742e-03
1.142955e+02	-2.265683e-03
1.149556e+02	-2.291925e-03
1.156196e+02	-2.318470e-03
1.162874e+02	-2.345323e-03
1.169591e+02	-2.372487e-03
1.176347e+02	-2.399965e-03
1.183141e+02	-2.427762e-03
1.189975e+02	-2.455880e-03
1.196848e+02	-2.484324e-03
1.203761e+02	-2.513097e-03
1.210714e+02	-2.542203e-03
1.217707e+02	-2.571647e-03
1.224740e+02	-2.601431e-03
1.231814e+02	-2.631560e-03
1.238929e+02	-2.662038e-03
1.246085e+02	-2.692869e-03
1.253283e+02	-2.724057e-03
1.260522e+02	-2.755606e-03
1.267802e+02	-2.787520e-03
1.275125e+02	-2.819803e-03
1.282490e+02	-2.852461e-03
1.289898e+02	-2.885496e-03
1.297348e+02	-2.918914e-03
1.304842e+02	-2.952719e-03
1.312378e+02	-2.986915e-03
1.319959e+02	-3.021508e-03
1.327583e+02	-3.056500e-03
1.335251e+02	-3.091898e-03
1.342963e+02	-3.127705e-03
1.350720e+02	-3.163927e-03
1.358522e+02	-3.200569e-03
1.366368e+02	-3.237634e-03
1.374260e+02	-3.275129e-03
1.382198e+02	-3.313058e-03
1.390182e+02	-3.351426e-03
1.398211e+02	-3.390238e-03
1.406287e+02	-3.429499e-03
1.414410e+02	-3.469215e-03
1.422579e+02	-3.509390e-03
1.430796e+02	-3.550031e-03
1.439060e+02	-3.591142e-03
1.447372e+02	-3.632729e-03
1.455732e+02	-3.674797e-03
1.464141e+02	-3.717352e-03
1.472597e+02	-3.760400e-03
1.481103e+02	-3.803946e-03
1.489658e+02	-3.847996e-03
1.498262e+02	-3.892556e-03
1.506916e+02	-3.937632e-03
1.515620e+02	-3.983229e-03
1.524374e+02	-4.029355e-03
1.533179e+02	-4.076014e-03
1.542034e+02	-4.123213e-03
1.550941e+02	-4.170959e-03
1.559899e+02	-4.219257e-03
1.568909e+02	-4.268114e-03
1.577971e+02	-4.317536e-03
1.587085e+02	-4.367531e-03
1.596252e+02	-4.418104e-03
1.605472e+02	-4.469263e-03
1.614745e+02	-4.521013e-03
1.624072e+02	-4.573363e-03
1.633453e+02	-4.626318e-03
1.642887e+02	-4.679886e-03
1.652377e+02	-4.734074e-03
1.661921e+02	-4.788889e-03
1.671520e+02	-4.844339e-03
1.681175e+02	-4.900430e-03
1.690885e+02	-4.957170e-03
1.700651e+02	-5.014567e-03
1.710474e+02	-5.072628e-03
1.720354e+02	-5.131361e-03
1.730291e+02	-5.190774e-03
1.740285e+02	-5.250874e-03
1.750337e+02	-5.311669e-03
1.760446e+02	-5.373168e-03
1.770615e+02	-5.435378e-03
1.780842e+02	-5.498309e-03
1.791128e+02	-5.561967e-03
1.801473e+02	-5.626362e-03
1.811878e+02	-5.691502e-03
1.822344e+02	-5.757396e-03
1.832870e+02	-5.824052e-03
1.843456e+02	-5.891479e-03
1.854104e+02	-5.959686e-03
1.864813e+02	-6.028683e-03
1.875584e+02	-6.098477e-03
1.886418e+02	-6.169080e-03
1.897313e+02	-6.240498e-03
1.908272e+02	-6.312744e-03
1.919294e+02	-6.385824e-03
1.930380e+02	-6.459751e-03
1.941530e+02	-6.534532e-03
1.952744e+02	-6.610178e-03
1.964023e+02	-6.686700e-03
1.975367e+02	-6.764107e-03
1.986777e+02	-6.842409e-03
1.998252e+02	-6.921616e-03
2.009794e+02	-7.001740e-03
2.021403e+02	-7.082791e-03
2.033078e+02	-7.164779e-03
2.044821e+02	-7.247715e-03
2.056632e+02	-7.331611e-03
2.068511e+02	-7.416476e-03
2.080459e+02	-7.502324e-03
2.092475e+02	-7.589164e-03
2.104561e+02	-7.677008e-03
2.116717e+02	-7.765869e-03
2.128943e+02	-7.855757e-03
2.141240e+02	-7.946684e-03
2.153608e+02	-8.038663e-03
2.166047e+02	-8.131705e-03
2.178558e+02	-8.225824e-03
2.191141e+02	-8.321030e-03
2.203797e+02	-8.417338e-03
2.216526e+02	-8.514759e-03
2.229329e+02	-8.613307e-03
2.242205e+02	-8.712993e-03
2.255156e+02	-8.813833e-03
2.268182e+02	-8.915838e-03
2.281283e+02	-9.019023e-03
2.294459e+02	-9.123400e-03
2.307712e+02	-9.228985e-03
2.321041e+02	-9.335789e-03
2.334447e+02	-9.443829e-03
2.347931e+02	-9.553117e-03
2.361493e+02	-9.663669e-03
2.375133e+02	-9.775499e-03
2.388851e+02	-9.888621e-03
2.402649e+02	-1.000305e-02
2.416527e+02	-1.011880e-02
2.430484e+02	-1.023589e-02
2.444523e+02	-1.035434e-02
2.458642e+02	-1.047415e-02
2.472843e+02	-1.059535e-02
2.487126e+02	-1.071794e-02
2.501492e+02	-1.084196e-02
2.515940e+02	-1.096741e-02
2.530472e+02	-1.109430e-02
2.545088e+02	-1.122267e-02
2.559789e+02	-1.135251e-02
2.574574e+02	-1.148386e-02
2.589444e+02	-1.161673e-02
2.604401e+02	-1.175113e-02
2.619444e+02	-1.188708e-02
2.634574e+02	-1.202460e-02
2.649791e+02	-1.216372e-02
2.665096e+02	-1.230443e-02
2.680489e+02	-1.244678e-02
2.695972e+02	-1.259077e-02
2.711544e+02	-1.273642e-02
2.727205e+02	-1.288376e-02
2.742958e+02	-1.303279e-02
2.758801e+02	-1.318355e-02
2.774736e+02	-1.333605e-02
2.790762e+02	-1.349031e-02
2.806882e+02	-1.364635e-02
2.823094e+02	-1.380420e-02
2.839400e+02	-1.396387e-02
2.855800e+02	-1.412538e-02
2.872295e+02	-1.428875e-02
2.888886e+02	-1.445401e-02
2.905572e+02	-1.462118e-02
2.922354e+02	-1.479029e-02
2.939234e+02	-1.496134e-02
2.956211e+02	-1.513437e-02
2.973286e+02	-1.530939e-02
2.990459e+02	-1.548644e-02
3.007732e+02	-1.566553e-02
3.025104e+02	-1.584668e-02
3.042577e+02	-1.602993e-02
3.060151e+02	-1.621529e-02
3.077826e+02	-1.640280e-02
3.095604e+02	-1.659246e-02
3.113484e+02	-1.678432e-02
3.131467e+02	-1.697839e-02
3.149554e+02	-1.717469e-02
3.167746e+02	-1.737327e-02
3.186043e+02	-1.757413e-02
3.204445e+02	-1.777732e-02
3.222954e+02	-1.798284e-02
3.241570e+02	-1.819074e-02
3.260293e+02	-1.840104e-02
3.279124e+02	-1.861376e-02
3.298064e+02	-1.882893e-02
3.317114e+02	-1.904659e-02
3.336273e+02	-1.926676e-02
3.355544e+02	-1.948947e-02
3.374925e+02	-1.971474e-02
3.394418e+02	-1.994262e-02
3.414024e+02	-2.017312e-02
3.433744e+02	-2.040628e-02
3.453577e+02	-2.064213e-02
3.473525e+02	-2.088070e-02
3.493588e+02	-2.112201e-02
3.513766e+02	-2.136611e-02
3.534062e+02	-2.161303e-02
3.554474e+02	-2.186279e-02
3.575005e+02	-2.211543e-02
3.595654e+02	-2.237098e-02
3.616422e+02	-2.262947e-02
3.637311e+02	-2.289095e-02
3.658320e+02	-2.315543e-02
3.679450e+02	-2.342297e-02
3.700702e+02	-2.369359e-02
3.722077e+02	-2.396732e-02
3.743576e+02	-2.424421e-02
3.765199e+02	-2.452429e-02
3.786946e+02	-2.480760e-02
3.808820e+02	-2.509417e-02
3.830819e+02	-2.538404e-02
3.852946e+02	-2.567725e-02
3.875200e+02	-2.597383e-02
3.897583e+02	-2.627383e-02
3.920096e+02	-2.657729e-02
3.942738e+02	-2.688423e-02
3.965511e+02	-2.719472e-02
3.988416e+02	-2.750877e-02
4.011452e+02	-2.782644e-02
4.034622e+02	-2.814777e-02
4.057926e+02	-2.847280e-02
4.081365e+02	-2.880157e-02
4.104938e+02	-2.913412e-02
4.128648e+02	-2.947049e-02
4.152495e+02	-2.981074e-02
4.176480e+02	-3.015490e-02
4.200603e+02	-3.050302e-02
4.224866e+02	-3.085515e-02
4.249268e+02	-3.121133e-02
4.273812e+02	-3.157160e-02
4.298497e+02	-3.193602e-02
4.323325e+02	-3.230462e-02
4.348297e+02	-3.267747e-02
4.373412e+02	-3.305460e-02
4.398673e+02	-3.343607e-02
4.424079e+02	-3.382192e-02
4.449633e+02	-3.421221e-02
4.475334e+02	-3.460698e-02
4.501183e+02	-3.500629e-02
4.527182e+02	-3.541019e-02
4.553330e+02	-3.581873e-02
4.579630e+02	-3.623196e-02
4.606082e+02	-3.664994e-02
4.632687e+02	-3.707272e-02
4.659445e+02	-3.750036e-02
4.686358e+02	-3.793291e-02
4.713426e+02	-3.837042e-02
4.740650e+02	-3.881296e-02
4.768032e+02	-3.926058e-02
4.795572e+02	-3.971334e-02
4.823271e+02	-4.017130e-02
4.851130e+02	-4.063451e-02
4.879150e+02	-4.110303e-02
4.907332e+02	-4.157694e-02
4.935676e+02	-4.205628e-02
4.964185e+02	-4.254112e-02
4.992858e+02	-4.303152e-02
5.021696e+02	-4.352755e-02
5.050701e+02	-4.402926e-02
5.079874e+02	-4.453673e-02
5.109215e+02	-4.505002e-02
5.138726e+02	-4.556919e-02
5.168407e+02	-4.609431e-02
5.198259e+02	-4.662546e-02
5.228284e+02	-4.716268e-02
5.258482e+02	-4.770607e-02
5.288855e+02	-4.825568e-02
5.319403e+02	-4.881158e-02
5.350128e+02	-4.937386e-02
5.381030e+02	-4.994257e-02
5.412111e+02	-5.051780e-02
5.443371e+02	-5.109961e-02
5.474812e+02	-5.168808e-02
5.506434e+02	-5.228329e-02
5.538239e+02	-5.288531e-02
5.570228e+02	-5.349422e-02
5.602401e+02	-5.411009e-02
5.634760e+02	-5.473302e-02
5.667306e+02	-5.536306e-02
5.700040e+02	-5.600032e-02
5.732964e+02	-5.664486e-02
5.766077e+02	-5.729677e-02
5.799382e+02	-5.795613e-02
5.832879e+02	-5.862303e-02
5.866569e+02	-5.929755e-02
5.900454e+02	-5.997978e-02
5.934535e+02	-6.066980e-02
5.968813e+02	-6.136770e-02
6.003288e+02	-6.207357e-02
6.037963e+02	-6.278751e-02
6.072838e+02	-6.350959e-02
6.107914e+02	-6.423992e-02
6.143194e+02	-6.497858e-02
6.178676e+02	-6.572567e-02
6.214364e+02	-6.648129e-02
6.250258e+02	-6.724552e-02
6.286359e+02	-6.801848e-02
6.322669e+02	-6.880024e-02
6.359189e+02	-6.959092e-02
6.395919e+02	-7.039061e-02
6.432862e+02	-7.119941e-02
6.470017e+02	-7.201744e-02
6.507388e+02	-7.284478e-02
6.544974e+02	-7.368154e-02
6.582778e+02	-7.452783e-02
6.620800e+02	-7.538376e-02
6.659041e+02	-7.624943e-02
6.697504e+02	-7.712496e-02
6.736188e+02	-7.801044e-02
6.775096e+02	-7.890601e-02
6.814229e+02	-7.981175e-02
6.853587e+02	-8.072780e-02
6.893173e+02	-8.165426e-02
6.932988e+02	-8.259125e-02
6.973033e+02	-8.353890e-02
7.013309e+02	-8.449730e-02
