Frequency(Hz)	Magnitude(dB)
1.000000e+01	-1.979462e+00
1.005776e+01	-1.997699e+00
1.011585e+01	-2.016585e+00
1.017428e+01	-2.035043e+00
1.023305e+01	-2.053768e+00
1.029215e+01	-2.072813e+00
1.035160e+01	-2.091862e+00
1.041139e+01	-2.111036e+00
1.047153e+01	-2.130275e+00
1.053201e+01	-2.149676e+00
1.059284e+01	-2.169427e+00
1.065403e+01	-2.189194e+00
1.071556e+01	-2.208986e+00
1.077746e+01	-2.229199e+00
1.083971e+01	-2.249117e+00
1.090232e+01	-2.269419e+00
1.096529e+01	-2.289800e+00
1.102862e+01	-2.310661e+00
1.109232e+01	-2.331283e+00
1.115639e+01	-2.352092e+00
1.122083e+01	-2.372991e+00
1.128564e+01	-2.394016e+00
1.135083e+01	-2.415331e+00
1.141639e+01	-2.436576e+00
1.148233e+01	-2.458372e+00
1.154865e+01	-2.480142e+00
1.161536e+01	-2.501948e+00
1.168245e+01	-2.523740e+00
1.174992e+01	-2.545858e+00
1.181779e+01	-2.568098e+00
1.188605e+01	-2.590562e+00
1.195470e+01	-2.613291e+00
1.202375e+01	-2.635855e+00
1.209320e+01	-2.658904e+00
1.216305e+01	-2.681538e+00
1.223330e+01	-2.704660e+00
1.230396e+01	-2.728053e+00
1.237503e+01	-2.751527e+00
1.244651e+01	-2.774816e+00
1.251840e+01	-2.798636e+00
1.259070e+01	-2.822470e+00
1.266343e+01	-2.846519e+00
1.273657e+01	-2.870770e+00
1.281014e+01	-2.894853e+00
1.288413e+01	-2.919105e+00
1.295855e+01	-2.943926e+00
1.303339e+01	-2.968385e+00
1.310867e+01	-2.993581e+00
1.318439e+01	-3.018419e+00
1.326054e+01	-3.043479e+00
1.333713e+01	-3.068687e+00
1.341417e+01	-3.094090e+00
1.349165e+01	-3.119698e+00
1.356958e+01	-3.145413e+00
1.364795e+01	-3.171477e+00
1.372678e+01	-3.197423e+00
1.380607e+01	-3.223405e+00
1.388581e+01	-3.249879e+00
1.396602e+01	-3.276049e+00
1.404668e+01	-3.302770e+00
1.412782e+01	-3.329583e+00
1.420942e+01	-3.356228e+00
1.429149e+01	-3.383503e+00
1.437404e+01	-3.410370e+00
1.445706e+01	-3.437783e+00
1.454057e+01	-3.465466e+00
1.462455e+01	-3.492576e+00
1.470902e+01	-3.520483e+00
1.479398e+01	-3.548431e+00
1.487943e+01	-3.576366e+00
1.496537e+01	-3.604412e+00
1.505181e+01	-3.632711e+00
1.513875e+01	-3.661086e+00
1.522619e+01	-3.689706e+00
1.531414e+01	-3.718381e+00
1.540259e+01	-3.747758e+00
1.549156e+01	-3.776382e+00
1.558103e+01	-3.805484e+00
1.567103e+01	-3.834583e+00
1.576155e+01	-3.864097e+00
1.585258e+01	-3.893463e+00
1.594415e+01	-3.923465e+00
1.603624e+01	-3.953036e+00
1.612886e+01	-3.983347e+00
1.622202e+01	-4.013172e+00
1.631572e+01	-4.043390e+00
1.640996e+01	-4.073886e+00
1.650474e+01	-4.104440e+00
1.660008e+01	-4.135028e+00
1.669596e+01	-4.165950e+00
1.679239e+01	-4.196627e+00
1.688938e+01	-4.227759e+00
1.698694e+01	-4.258675e+00
1.708505e+01	-4.290428e+00
1.718373e+01	-4.321639e+00
1.728299e+01	-4.353202e+00
1.738281e+01	-4.384979e+00
1.748322e+01	-4.417083e+00
1.758420e+01	-4.448807e+00
1.768576e+01	-4.481095e+00
1.778792e+01	-4.513390e+00
1.789066e+01	-4.545969e+00
1.799399e+01	-4.578191e+00
1.809793e+01	-4.611079e+00
1.820246e+01	-4.643798e+00
1.830760e+01	-4.676760e+00
1.841334e+01	-4.709605e+00
1.851969e+01	-4.742955e+00
1.862666e+01	-4.776327e+00
1.873425e+01	-4.809497e+00
1.884246e+01	-4.843262e+00
1.895129e+01	-4.877025e+00
1.906075e+01	-4.910688e+00
1.917085e+01	-4.944468e+00
1.928158e+01	-4.978793e+00
1.939295e+01	-5.012686e+00
1.950496e+01	-5.047057e+00
1.961762e+01	-5.081675e+00
1.973093e+01	-5.115904e+00
1.984490e+01	-5.151084e+00
1.995952e+01	-5.185748e+00
2.007480e+01	-5.220597e+00
2.019076e+01	-5.255653e+00
2.030738e+01	-5.290681e+00
2.042467e+01	-5.326135e+00
2.054264e+01	-5.361496e+00
2.066130e+01	-5.396893e+00
2.078064e+01	-5.432428e+00
2.090066e+01	-5.468358e+00
2.102139e+01	-5.504585e+00
2.114280e+01	-5.540319e+00
2.126492e+01	-5.576374e+00
2.138775e+01	-5.612968e+00
2.151128e+01	-5.648929e+00
2.163553e+01	-5.685735e+00
2.176050e+01	-5.722316e+00
2.188619e+01	-5.758793e+00
2.201260e+01	-5.795248e+00
2.213974e+01	-5.832709e+00
2.226762e+01	-5.869054e+00
2.239624e+01	-5.906554e+00
2.252560e+01	-5.943597e+00
2.265571e+01	-5.981210e+00
2.278656e+01	-6.018776e+00
2.291818e+01	-6.056206e+00
2.305055e+01	-6.093933e+00
2.318369e+01	-6.131863e+00
2.331760e+01	-6.169341e+00
2.345228e+01	-6.207537e+00
2.358774e+01	-6.245582e+00
2.372398e+01	-6.283971e+00
2.386101e+01	-6.321928e+00
2.399883e+01	-6.360994e+00
2.413745e+01	-6.398874e+00
2.427686e+01	-6.437630e+00
2.441709e+01	-6.476413e+00
2.455812e+01	-6.515222e+00
2.469997e+01	-6.553968e+00
2.484263e+01	-6.592940e+00
2.498612e+01	-6.632240e+00
2.513044e+01	-6.671285e+00
2.527559e+01	-6.710988e+00
2.542158e+01	-6.750025e+00
2.556842e+01	-6.789827e+00
2.571610e+01	-6.829337e+00
2.586463e+01	-6.869069e+00
2.601403e+01	-6.908736e+00
2.616428e+01	-6.948462e+00
2.631541e+01	-6.988664e+00
2.646740e+01	-7.028553e+00
2.662028e+01	-7.069000e+00
2.677404e+01	-7.108981e+00
2.692868e+01	-7.149477e+00
2.708422e+01	-7.189781e+00
2.724066e+01	-7.230577e+00
2.739800e+01	-7.270961e+00
2.755625e+01	-7.311610e+00
2.771541e+01	-7.352315e+00
2.787550e+01	-7.393618e+00
2.803650e+01	-7.434680e+00
2.819844e+01	-7.475023e+00
2.836131e+01	-7.516499e+00
2.852513e+01	-7.557808e+00
2.868989e+01	-7.598729e+00
2.885560e+01	-7.640316e+00
2.902227e+01	-7.681658e+00
2.918990e+01	-7.723516e+00
2.935850e+01	-7.764834e+00
2.952807e+01	-7.806748e+00
2.969863e+01	-7.848351e+00
2.987016e+01	-7.889872e+00
3.004269e+01	-7.931881e+00
3.021622e+01	-7.974234e+00
3.039075e+01	-8.016250e+00
3.056628e+01	-8.058246e+00
3.074283e+01	-8.100690e+00
3.092040e+01	-8.143035e+00
3.109900e+01	-8.185639e+00
3.127862e+01	-8.227864e+00
3.145929e+01	-8.270376e+00
3.164099e+01	-8.313123e+00
3.182375e+01	-8.355563e+00
3.200756e+01	-8.398322e+00
3.219244e+01	-8.441675e+00
3.237838e+01	-8.484207e+00
3.256540e+01	-8.526704e+00
3.275349e+01	-8.570330e+00
3.294268e+01	-8.613386e+00
3.313295e+01	-8.656157e+00
3.332433e+01	-8.699559e+00
3.351681e+01	-8.742621e+00
3.371040e+01	-8.786590e+00
3.390511e+01	-8.829951e+00
3.410094e+01	-8.873280e+00
3.429791e+01	-8.916721e+00
3.449601e+01	-8.960558e+00
3.469526e+01	-9.004606e+00
3.489566e+01	-9.048213e+00
3.509721e+01	-9.091724e+00
3.529993e+01	-9.135649e+00
3.550382e+01	-9.180026e+00
3.570889e+01	-9.223817e+00
3.591515e+01	-9.267846e+00
3.612259e+01	-9.311776e+00
3.633123e+01	-9.355678e+00
3.654108e+01	-9.399828e+00
3.675214e+01	-9.444190e+00
3.696442e+01	-9.488781e+00
3.717792e+01	-9.533540e+00
3.739266e+01	-9.577885e+00
3.760864e+01	-9.622188e+00
3.782587e+01	-9.667012e+00
3.804435e+01	-9.711527e+00
3.826409e+01	-9.756220e+00
3.848510e+01	-9.801461e+00
3.870739e+01	-9.846100e+00
3.893096e+01	-9.891059e+00
3.915583e+01	-9.936170e+00
3.938199e+01	-9.981213e+00
3.960946e+01	-1.002582e+01
3.983824e+01	-1.007115e+01
4.006834e+01	-1.011599e+01
4.029978e+01	-1.016068e+01
4.053255e+01	-1.020630e+01
4.076666e+01	-1.025165e+01
4.100213e+01	-1.029694e+01
4.123896e+01	-1.034230e+01
4.147715e+01	-1.038724e+01
4.171672e+01	-1.043403e+01
4.195767e+01	-1.047881e+01
4.220002e+01	-1.052422e+01
4.244377e+01	-1.056968e+01
4.268892e+01	-1.061565e+01
4.293549e+01	-1.066131e+01
4.318348e+01	-1.070708e+01
4.343291e+01	-1.075298e+01
4.368377e+01	-1.079892e+01
4.393609e+01	-1.084440e+01
4.418986e+01	-1.089031e+01
4.444510e+01	-1.093669e+01
4.470182e+01	-1.098287e+01
4.496001e+01	-1.102859e+01
4.521970e+01	-1.107487e+01
4.548089e+01	-1.112148e+01
4.574358e+01	-1.116670e+01
4.600779e+01	-1.121303e+01
4.627353e+01	-1.125948e+01
4.654081e+01	-1.130612e+01
4.680963e+01	-1.135196e+01
4.708000e+01	-1.139872e+01
4.735193e+01	-1.144548e+01
4.762543e+01	-1.149157e+01
4.790051e+01	-1.153812e+01
4.817719e+01	-1.158442e+01
4.845545e+01	-1.163125e+01
4.873533e+01	-1.167784e+01
4.901682e+01	-1.172474e+01
4.929994e+01	-1.177027e+01
4.958470e+01	-1.181784e+01
4.987110e+01	-1.186435e+01
5.015915e+01	-1.191130e+01
5.044887e+01	-1.195772e+01
5.074026e+01	-1.200560e+01
5.103333e+01	-1.205125e+01
5.132810e+01	-1.209869e+01
5.162457e+01	-1.214541e+01
5.192275e+01	-1.219279e+01
5.222265e+01	-1.223990e+01
5.252429e+01	-1.228691e+01
5.282767e+01	-1.233387e+01
5.313280e+01	-1.238145e+01
5.343969e+01	-1.242814e+01
5.374836e+01	-1.247484e+01
5.405880e+01	-1.252322e+01
5.437105e+01	-1.256964e+01
5.468509e+01	-1.261756e+01
5.500095e+01	-1.266404e+01
5.531863e+01	-1.271209e+01
5.563815e+01	-1.275898e+01
5.595951e+01	-1.280608e+01
5.628273e+01	-1.285384e+01
5.660782e+01	-1.290178e+01
5.693479e+01	-1.294813e+01
5.726364e+01	-1.299627e+01
5.759439e+01	-1.304375e+01
5.792705e+01	-1.309132e+01
5.826164e+01	-1.313844e+01
5.859815e+01	-1.318657e+01
5.893662e+01	-1.323393e+01
5.927703e+01	-1.328133e+01
5.961941e+01	-1.332920e+01
5.996377e+01	-1.337693e+01
6.031012e+01	-1.342487e+01
6.065847e+01	-1.347286e+01
6.100883e+01	-1.352120e+01
6.136121e+01	-1.356820e+01
6.171563e+01	-1.361632e+01
6.207210e+01	-1.366405e+01
6.243063e+01	-1.371211e+01
6.279122e+01	-1.376011e+01
6.315390e+01	-1.380761e+01
6.351868e+01	-1.385546e+01
6.388556e+01	-1.390380e+01
6.425456e+01	-1.395184e+01
6.462569e+01	-1.399940e+01
6.499897e+01	-1.404771e+01
6.537440e+01	-1.409641e+01
6.575200e+01	-1.414358e+01
6.613178e+01	-1.419181e+01
6.651375e+01	-1.423969e+01
6.689793e+01	-1.428806e+01
6.728433e+01	-1.433630e+01
6.767297e+01	-1.438418e+01
6.806384e+01	-1.443283e+01
6.845698e+01	-1.448114e+01
6.885238e+01	-1.452946e+01
6.925007e+01	-1.457785e+01
6.965005e+01	-1.462577e+01
7.005235e+01	-1.467443e+01
7.045697e+01	-1.472339e+01
7.086393e+01	-1.477152e+01
7.127323e+01	-1.481977e+01
7.168490e+01	-1.486786e+01
7.209895e+01	-1.491685e+01
7.251539e+01	-1.496478e+01
7.293424e+01	-1.501313e+01
7.335551e+01	-1.506077e+01
7.377920e+01	-1.511006e+01
7.420535e+01	-1.515862e+01
7.463396e+01	-1.520694e+01
7.506504e+01	-1.525542e+01
7.549861e+01	-1.530430e+01
7.593469e+01	-1.535160e+01
7.637328e+01	-1.540070e+01
7.681441e+01	-1.544974e+01
7.725809e+01	-1.549849e+01
7.770433e+01	-1.554688e+01
7.815315e+01	-1.559614e+01
7.860456e+01	-1.564396e+01
7.905857e+01	-1.569303e+01
7.951521e+01	-1.574168e+01
7.997449e+01	-1.579121e+01
8.043642e+01	-1.583847e+01
8.090102e+01	-1.588864e+01
8.136830e+01	-1.593806e+01
8.183828e+01	-1.598551e+01
8.231097e+01	-1.603371e+01
8.278640e+01	-1.608337e+01
8.326457e+01	-1.613250e+01
8.374550e+01	-1.618063e+01
8.422921e+01	-1.622932e+01
8.471572e+01	-1.627723e+01
8.520503e+01	-1.632761e+01
8.569717e+01	-1.637586e+01
8.619215e+01	-1.642476e+01
8.669000e+01	-1.647394e+01
8.719071e+01	-1.652249e+01
8.769432e+01	-1.657278e+01
8.820084e+01	-1.662090e+01
8.871029e+01	-1.666993e+01
8.922267e+01	-1.671864e+01
8.973802e+01	-1.676695e+01
9.025634e+01	-1.681661e+01
9.077766e+01	-1.686608e+01
9.130199e+01	-1.691367e+01
9.182935e+01	-1.696332e+01
9.235975e+01	-1.701302e+01
9.289321e+01	-1.706197e+01
9.342976e+01	-1.711032e+01
9.396941e+01	-1.716036e+01
9.451217e+01	-1.720837e+01
9.505807e+01	-1.725846e+01
9.560712e+01	-1.730676e+01
9.615934e+01	-1.735543e+01
9.671476e+01	-1.740629e+01
9.727338e+01	-1.745371e+01
9.783522e+01	-1.750326e+01
9.840032e+01	-1.755245e+01
9.896867e+01	-1.760159e+01
9.954031e+01	-1.765048e+01
1.001153e+02	-1.770085e+01
1.006935e+02	-1.774966e+01
1.012751e+02	-1.779802e+01
1.018601e+02	-1.784698e+01
1.024484e+02	-1.789633e+01
1.030402e+02	-1.794682e+01
1.036353e+02	-1.799488e+01
1.042339e+02	-1.804441e+01
1.048360e+02	-1.809487e+01
1.054415e+02	-1.814131e+01
1.060505e+02	-1.819280e+01
1.066631e+02	-1.824169e+01
1.072791e+02	-1.829179e+01
1.078988e+02	-1.834114e+01
1.085220e+02	-1.838883e+01
1.091488e+02	-1.843806e+01
1.097793e+02	-1.848779e+01
1.104133e+02	-1.853841e+01
1.110511e+02	-1.858561e+01
1.116925e+02	-1.863627e+01
1.123376e+02	-1.868530e+01
1.129865e+02	-1.873431e+01
1.136391e+02	-1.878349e+01
1.142955e+02	-1.883359e+01
1.149556e+02	-1.888270e+01
1.156196e+02	-1.893258e+01
1.162874e+02	-1.898213e+01
1.169591e+02	-1.903089e+01
1.176347e+02	-1.908088e+01
1.183141e+02	-1.912890e+01
1.189975e+02	-1.917878e+01
1.196848e+02	-1.923020e+01
1.203761e+02	-1.927829e+01
1.210714e+02	-1.932733e+01
1.217707e+02	-1.937697e+01
1.224740e+02	-1.942679e+01
1.231814e+02	-1.947597e+01
1.238929e+02	-1.952616e+01
1.246085e+02	-1.957538e+01
1.253283e+02	-1.962405e+01
1.260522e+02	-1.967464e+01
1.267802e+02	-1.972223e+01
1.275125e+02	-1.977257e+01
1.282490e+02	-1.982086e+01
1.289898e+02	-1.987251e+01
1.297348e+02	-1.992227e+01
1.304842e+02	-1.997009e+01
1.312378e+02	-2.001896e+01
1.319959e+02	-2.006950e+01
1.327583e+02	-2.011934e+01
1.335251e+02	-2.016925e+01
1.342963e+02	-2.021696e+01
1.350720e+02	-2.026902e+01
1.358522e+02	-2.031945e+01
1.366368e+02	-2.036839e+01
1.374260e+02	-2.041670e+01
1.382198e+02	-2.046670e+01
1.390182e+02	-2.051658e+01
1.398211e+02	-2.056686e+01
1.406287e+02	-2.061570e+01
1.414410e+02	-2.066559e+01
1.422579e+02	-2.071408e+01
1.430796e+02	-2.076440e+01
1.439060e+02	-2.081290e+01
1.447372e+02	-2.086362e+01
1.455732e+02	-2.091261e+01
1.464141e+02	-2.096414e+01
1.472597e+02	-2.101174e+01
1.481103e+02	-2.106182e+01
1.489658e+02	-2.111300e+01
1.498262e+02	-2.116229e+01
1.506916e+02	-2.121113e+01
1.515620e+02	-2.126222e+01
1.524374e+02	-2.131129e+01
1.533179e+02	-2.135988e+01
1.542034e+02	-2.140841e+01
1.550941e+02	-2.145836e+01
1.559899e+02	-2.151021e+01
1.568909e+02	-2.155831e+01
1.577971e+02	-2.160993e+01
1.587085e+02	-2.165774e+01
1.596252e+02	-2.170747e+01
1.605472e+02	-2.175962e+01
1.614745e+02	-2.180627e+01
1.624072e+02	-2.185767e+01
1.633453e+02	-2.190647e+01
1.642887e+02	-2.195647e+01
1.652377e+02	-2.200623e+01
1.661921e+02	-2.205445e+01
1.671520e+02	-2.210447e+01
1.681175e+02	-2.215664e+01
1.690885e+02	-2.220350e+01
1.700651e+02	-2.225470e+01
1.710474e+02	-2.230379e+01
1.720354e+02	-2.235388e+01
1.730291e+02	-2.240609e+01
1.740285e+02	-2.245326e+01
1.750337e+02	-2.250303e+01
1.760446e+02	-2.255392e+01
1.770615e+02	-2.260553e+01
1.780842e+02	-2.265419e+01
1.791128e+02	-2.270104e+01
1.801473e+02	-2.275282e+01
1.811878e+02	-2.279939e+01
1.822344e+02	-2.285231e+01
1.832870e+02	-2.290210e+01
1.843456e+02	-2.295151e+01
1.854104e+02	-2.300067e+01
1.864813e+02	-2.305407e+01
1.875584e+02	-2.310234e+01
1.886418e+02	-2.315279e+01
1.897313e+02	-2.320083e+01
1.908272e+02	-2.325195e+01
1.919294e+02	-2.330064e+01
1.930380e+02	-2.335023e+01
1.941530e+02	-2.340143e+01
1.952744e+02	-2.344981e+01
1.964023e+02	-2.350134e+01
1.975367e+02	-2.355210e+01
1.986777e+02	-2.360101e+01
1.998252e+02	-2.364797e+01
2.009794e+02	-2.369828e+01
2.021403e+02	-2.374722e+01
2.033078e+02	-2.379831e+01
2.044821e+02	-2.384836e+01
2.056632e+02	-2.389700e+01
2.068511e+02	-2.395049e+01
2.080459e+02	-2.399738e+01
2.092475e+02	-2.404858e+01
2.104561e+02	-2.409730e+01
2.116717e+02	-2.414914e+01
2.128943e+02	-2.420049e+01
2.141240e+02	-2.424561e+01
2.153608e+02	-2.429686e+01
2.166047e+02	-2.434595e+01
2.178558e+02	-2.439733e+01
2.191141e+02	-2.444602e+01
2.203797e+02	-2.449602e+01
2.216526e+02	-2.454841e+01
2.229329e+02	-2.459762e+01
2.242205e+02	-2.464588e+01
2.255156e+02	-2.469775e+01
2.268182e+02	-2.474525e+01
2.281283e+02	-2.479351e+01
2.294459e+02	-2.484555e+01
2.307712e+02	-2.489605e+01
2.321041e+02	-2.494535e+01
2.334447e+02	-2.499547e+01
2.347931e+02	-2.504622e+01
2.361493e+02	-2.509545e+01
2.375133e+02	-2.514560e+01
2.388851e+02	-2.519495e+01
2.402649e+02	-2.524295e+01
2.416527e+02	-2.529577e+01
2.430484e+02	-2.534474e+01
2.444523e+02	-2.539604e+01
2.458642e+02	-2.544374e+01
2.472843e+02	-2.549643e+01
2.487126e+02	-2.554260e+01
2.501492e+02	-2.559466e+01
2.515940e+02	-2.564598e+01
2.530472e+02	-2.569154e+01
2.545088e+02	-2.574366e+01
2.559789e+02	-2.579653e+01
2.574574e+02	-2.584682e+01
2.589444e+02	-2.589405e+01
2.604401e+02	-2.594273e+01
2.619444e+02	-2.599422e+01
2.634574e+02	-2.604566e+01
2.649791e+02	-2.609160e+01
2.665096e+02	-2.614341e+01
2.680489e+02	-2.619330e+01
2.695972e+02	-2.624189e+01
2.711544e+02	-2.629317e+01
2.727205e+02	-2.634536e+01
2.742958e+02	-2.639284e+01
2.758801e+02	-2.644746e+01
2.774736e+02	-2.649321e+01
2.790762e+02	-2.654419e+01
2.806882e+02	-2.659463e+01
2.823094e+02	-2.664381e+01
2.839400e+02	-2.669541e+01
2.855800e+02	-2.674313e+01
2.872295e+02	-2.679164e+01
2.888886e+02	-2.684581e+01
2.905572e+02	-2.689286e+01
2.922354e+02	-2.694614e+01
2.939234e+02	-2.698968e+01
2.956211e+02	-2.704083e+01
2.973286e+02	-2.709261e+01
2.990459e+02	-2.714437e+01
3.007732e+02	-2.719577e+01
3.025104e+02	-2.724814e+01
3.042577e+02	-2.729405e+01
3.060151e+02	-2.733579e+01
3.077826e+02	-2.739301e+01
3.095604e+02	-2.744685e+01
3.113484e+02	-2.749561e+01
3.131467e+02	-2.754346e+01
3.149554e+02	-2.759598e+01
3.167746e+02	-2.763951e+01
3.186043e+02	-2.769207e+01
3.204445e+02	-2.774377e+01
3.222954e+02	-2.779389e+01
3.241570e+02	-2.784402e+01
3.260293e+02	-2.789423e+01
3.279124e+02	-2.794429e+01
3.298064e+02	-2.799352e+01
3.317114e+02	-2.804274e+01
3.336273e+02	-2.809381e+01
3.355544e+02	-2.814183e+01
3.374925e+02	-2.819172e+01
3.394418e+02	-2.824740e+01
3.414024e+02	-2.829218e+01
3.433744e+02	-2.834426e+01
3.453577e+02	-2.839726e+01
3.473525e+02	-2.844957e+01
3.493588e+02	-2.849301e+01
3.513766e+02	-2.854800e+01
3.534062e+02	-2.859352e+01
3.554474e+02	-2.864632e+01
3.575005e+02	-2.869613e+01
3.595654e+02	-2.874500e+01
3.616422e+02	-2.879516e+01
3.637311e+02	-2.884591e+01
3.658320e+02	-2.889317e+01
3.679450e+02	-2.894773e+01
3.700702e+02	-2.899559e+01
3.722077e+02	-2.904342e+01
3.743576e+02	-2.909651e+01
3.765199e+02	-2.914463e+01
3.786946e+02	-2.919349e+01
3.808820e+02	-2.924607e+01
3.830819e+02	-2.929603e+01
3.852946e+02	-2.934159e+01
3.875200e+02	-2.939651e+01
3.897583e+02	-2.944728e+01
3.920096e+02	-2.949580e+01
3.942738e+02	-2.954711e+01
3.965511e+02	-2.958955e+01
3.988416e+02	-2.964467e+01
4.011452e+02	-2.969171e+01
4.034622e+02	-2.974781e+01
4.057926e+02	-2.979270e+01
4.081365e+02	-2.984518e+01
4.104938e+02	-2.989554e+01
4.128648e+02	-2.995202e+01
4.152495e+02	-2.999464e+01
4.176480e+02	-3.004482e+01
4.200603e+02	-3.010030e+01
4.224866e+02	-3.014577e+01
4.249268e+02	-3.019329e+01
4.273812e+02	-3.024599e+01
4.298497e+02	-3.029715e+01
4.323325e+02	-3.035513e+01
4.348297e+02	-3.039666e+01
4.373412e+02	-3.044398e+01
4.398673e+02	-3.050212e+01
4.424079e+02	-3.054383e+01
4.449633e+02	-3.059738e+01
4.475334e+02	-3.064317e+01
4.501183e+02	-3.069789e+01
4.527182e+02	-3.074331e+01
4.553330e+02	-3.079592e+01
4.579630e+02	-3.084679e+01
4.606082e+02	-3.090242e+01
4.632687e+02	-3.095314e+01
4.659445e+02	-3.100091e+01
4.686358e+02	-3.105314e+01
4.713426e+02	-3.109970e+01
4.740650e+02	-3.115260e+01
4.768032e+02	-3.119900e+01
4.795572e+02	-3.125347e+01
4.823271e+02	-3.129675e+01
4.851130e+02	-3.135119e+01
4.879150e+02	-3.139794e+01
4.907332e+02	-3.145230e+01
4.935676e+02	-3.150284e+01
4.964185e+02	-3.154912e+01
4.992858e+02	-3.160310e+01
5.021696e+02	-3.165669e+01
5.050701e+02	-3.169478e+01
5.079874e+02	-3.174756e+01
5.109215e+02	-3.181023e+01
5.138726e+02	-3.185024e+01
5.168407e+02	-3.190225e+01
5.198259e+02	-3.195272e+01
5.228284e+02	-3.200722e+01
5.258482e+02	-3.205332e+01
5.288855e+02	-3.210362e+01
5.319403e+02	-3.214837e+01
5.350128e+02	-3.219517e+01
5.381030e+02	-3.225845e+01
5.412111e+02	-3.230544e+01
5.443371e+02	-3.235006e+01
5.474812e+02	-3.240699e+01
5.506434e+02	-3.245535e+01
5.538239e+02	-3.250890e+01
5.570228e+02	-3.255174e+01
5.602401e+02	-3.260534e+01
5.634760e+02	-3.265535e+01
5.667306e+02	-3.270507e+01
5.700040e+02	-3.274559e+01
5.732964e+02	-3.280229e+01
5.766077e+02	-3.285100e+01
5.799382e+02	-3.290383e+01
5.832879e+02	-3.295853e+01
5.866569e+02	-3.301120e+01
5.900454e+02	-3.304972e+01
5.934535e+02	-3.310401e+01
5.968813e+02	-3.315255e+01
6.003288e+02	-3.320335e+01
6.037963e+02	-3.325513e+01
6.072838e+02	-3.331201e+01
6.107914e+02	-3.335935e+01
6.143194e+02	-3.340962e+01
6.178676e+02	-3.345687e+01
6.214364e+02	-3.351063e+01
6.250258e+02	-3.356266e+01
6.286359e+02	-3.360847e+01
6.322669e+02	-3.365803e+01
6.359189e+02	-3.371339e+01
6.395919e+02	-3.376721e+01
6.432862e+02	-3.382037e+01
6.470017e+02	-3.386927e+01
6.507388e+02	-3.391568e+01
6.544974e+02	-3.396326e+01
6.582778e+02	-3.400479e+01
6.620800e+02	-3.405860e+01
6.659041e+02	-3.411364e+01
6.697504e+02	-3.415715e+01
6.736188e+02	-3.421335e+01
6.775096e+02	-3.426693e+01
6.814229e+02	-3.432301e+01
6.853587e+02	-3.436859e+01
6.893173e+02	-3.441803e+01
6.932988e+02	-3.446972e+01
6.973033e+02	-3.452050e+01
7.013309e+02	-3.456744e+01
