Frequency(Hz)	Magnitude(dB)
1.000000e+01	-1.558344e-05
1.005776e+01	-1.576398e-05
1.011585e+01	-1.594661e-05
1.017428e+01	-1.613136e-05
1.023305e+01	-1.631824e-05
1.029215e+01	-1.650729e-05
1.035160e+01	-1.669854e-05
1.041139e+01	-1.689199e-05
1.047153e+01	-1.708769e-05
1.053201e+01	-1.728566e-05
1.059284e+01	-1.748591e-05
1.065403e+01	-1.768849e-05
1.071556e+01	-1.789342e-05
1.077746e+01	-1.810072e-05
1.083971e+01	-1.831042e-05
1.090232e+01	-1.852255e-05
1.096529e+01	-1.873714e-05
1.102862e+01	-1.895421e-05
1.109232e+01	-1.917380e-05
1.115639e+01	-1.939594e-05
1.122083e+01	-1.962064e-05
1.128564e+01	-1.984795e-05
1.135083e+01	-2.007790e-05
1.141639e+01	-2.031051e-05
1.148233e+01	-2.054581e-05
1.154865e+01	-2.078384e-05
1.161536e+01	-2.102462e-05
1.168245e+01	-2.126820e-05
1.174992e+01	-2.151459e-05
1.181779e+01	-2.176385e-05
1.188605e+01	-2.201599e-05
1.195470e+01	-2.227105e-05
1.202375e+01	-2.252906e-05
1.209320e+01	-2.279007e-05
1.216305e+01	-2.305410e-05
1.223330e+01	-2.332118e-05
1.230396e+01	-2.359137e-05
1.237503e+01	-2.386468e-05
1.244651e+01	-2.414116e-05
1.251840e+01	-2.442084e-05
1.259070e+01	-2.470376e-05
1.266343e+01	-2.498996e-05
1.273657e+01	-2.527947e-05
1.281014e+01	-2.557234e-05
1.288413e+01	-2.586860e-05
1.295855e+01	-2.616830e-05
1.303339e+01	-2.647146e-05
1.310867e+01	-2.677814e-05
1.318439e+01	-2.708837e-05
1.326054e+01	-2.740220e-05
1.333713e+01	-2.771966e-05
1.341417e+01	-2.804080e-05
1.349165e+01	-2.836566e-05
1.356958e+01	-2.869428e-05
1.364795e+01	-2.902671e-05
1.372678e+01	-2.936299e-05
1.380607e+01	-2.970317e-05
1.388581e+01	-3.004729e-05
1.396602e+01	-3.039539e-05
1.404668e+01	-3.074753e-05
1.412782e+01	-3.110375e-05
1.420942e+01	-3.146409e-05
1.429149e+01	-3.182861e-05
1.437404e+01	-3.219735e-05
1.445706e+01	-3.257037e-05
1.454057e+01	-3.294770e-05
1.462455e+01	-3.332941e-05
1.470902e+01	-3.371554e-05
1.479398e+01	-3.410614e-05
1.487943e+01	-3.450127e-05
1.496537e+01	-3.490097e-05
1.505181e+01	-3.530531e-05
1.513875e+01	-3.571433e-05
1.522619e+01	-3.612809e-05
1.531414e+01	-3.654664e-05
1.540259e+01	-3.697004e-05
1.549156e+01	-3.739835e-05
1.558103e+01	-3.783162e-05
1.567103e+01	-3.826991e-05
1.576155e+01	-3.871327e-05
1.585258e+01	-3.916177e-05
1.594415e+01	-3.961547e-05
1.603624e+01	-4.007443e-05
1.612886e+01	-4.053870e-05
1.622202e+01	-4.100835e-05
1.631572e+01	-4.148344e-05
1.640996e+01	-4.196403e-05
1.650474e+01	-4.245020e-05
1.660008e+01	-4.294199e-05
1.669596e+01	-4.343948e-05
1.679239e+01	-4.394274e-05
1.688938e+01	-4.445182e-05
1.698694e+01	-4.496681e-05
1.708505e+01	-4.548776e-05
1.718373e+01	-4.601475e-05
1.728299e+01	-4.654784e-05
1.738281e+01	-4.708710e-05
1.748322e+01	-4.763262e-05
1.758420e+01	-4.818445e-05
1.768576e+01	-4.874268e-05
1.778792e+01	-4.930737e-05
1.789066e+01	-4.987861e-05
1.799399e+01	-5.045646e-05
1.809793e+01	-5.104101e-05
1.820246e+01	-5.163233e-05
1.830760e+01	-5.223050e-05
1.841334e+01	-5.283561e-05
1.851969e+01	-5.344772e-05
1.862666e+01	-5.406692e-05
1.873425e+01	-5.469330e-05
1.884246e+01	-5.532693e-05
1.895129e+01	-5.596790e-05
1.906075e+01	-5.661630e-05
1.917085e+01	-5.727221e-05
1.928158e+01	-5.793573e-05
1.939295e+01	-5.860692e-05
1.950496e+01	-5.928589e-05
1.961762e+01	-5.997273e-05
1.973093e+01	-6.066753e-05
1.984490e+01	-6.137038e-05
1.995952e+01	-6.208136e-05
2.007480e+01	-6.280059e-05
2.019076e+01	-6.352815e-05
2.030738e+01	-6.426413e-05
2.042467e+01	-6.500864e-05
2.054264e+01	-6.576178e-05
2.066130e+01	-6.652364e-05
2.078064e+01	-6.729433e-05
2.090066e+01	-6.807395e-05
2.102139e+01	-6.886260e-05
2.114280e+01	-6.966039e-05
2.126492e+01	-7.046741e-05
2.138775e+01	-7.128379e-05
2.151128e+01	-7.210963e-05
2.163553e+01	-7.294503e-05
2.176050e+01	-7.379011e-05
2.188619e+01	-7.464498e-05
2.201260e+01	-7.550976e-05
2.213974e+01	-7.638455e-05
2.226762e+01	-7.726948e-05
2.239624e+01	-7.816466e-05
2.252560e+01	-7.907021e-05
2.265571e+01	-7.998626e-05
2.278656e+01	-8.091291e-05
2.291818e+01	-8.185030e-05
2.305055e+01	-8.279855e-05
2.318369e+01	-8.375779e-05
2.331760e+01	-8.472813e-05
2.345228e+01	-8.570972e-05
2.358774e+01	-8.670268e-05
2.372398e+01	-8.770715e-05
2.386101e+01	-8.872325e-05
2.399883e+01	-8.975112e-05
2.413745e+01	-9.079090e-05
2.427686e+01	-9.184273e-05
2.441709e+01	-9.290674e-05
2.455812e+01	-9.398308e-05
2.469997e+01	-9.507189e-05
2.484263e+01	-9.617331e-05
2.498612e+01	-9.728750e-05
2.513044e+01	-9.841459e-05
2.527559e+01	-9.955473e-05
2.542158e+01	-1.007081e-04
2.556842e+01	-1.018748e-04
2.571610e+01	-1.030550e-04
2.586463e+01	-1.042489e-04
2.601403e+01	-1.054567e-04
2.616428e+01	-1.066784e-04
2.631541e+01	-1.079143e-04
2.646740e+01	-1.091645e-04
2.662028e+01	-1.104292e-04
2.677404e+01	-1.117085e-04
2.692868e+01	-1.130027e-04
2.708422e+01	-1.143118e-04
2.724066e+01	-1.156361e-04
2.739800e+01	-1.169758e-04
2.755625e+01	-1.183310e-04
2.771541e+01	-1.197019e-04
2.787550e+01	-1.210886e-04
2.803650e+01	-1.224915e-04
2.819844e+01	-1.239105e-04
2.836131e+01	-1.253460e-04
2.852513e+01	-1.267982e-04
2.868989e+01	-1.282672e-04
2.885560e+01	-1.297532e-04
2.902227e+01	-1.312564e-04
2.918990e+01	-1.327770e-04
2.935850e+01	-1.343152e-04
2.952807e+01	-1.358713e-04
2.969863e+01	-1.374453e-04
2.987016e+01	-1.390377e-04
3.004269e+01	-1.406484e-04
3.021622e+01	-1.422779e-04
3.039075e+01	-1.439262e-04
3.056628e+01	-1.455936e-04
3.074283e+01	-1.472803e-04
3.092040e+01	-1.489865e-04
3.109900e+01	-1.507125e-04
3.127862e+01	-1.524586e-04
3.145929e+01	-1.542248e-04
3.164099e+01	-1.560115e-04
3.182375e+01	-1.578189e-04
3.200756e+01	-1.596473e-04
3.219244e+01	-1.614968e-04
3.237838e+01	-1.633677e-04
3.256540e+01	-1.652603e-04
3.275349e+01	-1.671749e-04
3.294268e+01	-1.691116e-04
3.313295e+01	-1.710708e-04
3.332433e+01	-1.730527e-04
3.351681e+01	-1.750575e-04
3.371040e+01	-1.770855e-04
3.390511e+01	-1.791371e-04
3.410094e+01	-1.812124e-04
3.429791e+01	-1.833117e-04
3.449601e+01	-1.854354e-04
3.469526e+01	-1.875837e-04
3.489566e+01	-1.897568e-04
3.509721e+01	-1.919552e-04
3.529993e+01	-1.941790e-04
3.550382e+01	-1.964286e-04
3.570889e+01	-1.987042e-04
3.591515e+01	-2.010062e-04
3.612259e+01	-2.033348e-04
3.633123e+01	-2.056905e-04
3.654108e+01	-2.080734e-04
3.675214e+01	-2.104839e-04
3.696442e+01	-2.129224e-04
3.717792e+01	-2.153891e-04
3.739266e+01	-2.178844e-04
3.760864e+01	-2.204085e-04
3.782587e+01	-2.229620e-04
3.804435e+01	-2.255450e-04
3.826409e+01	-2.281579e-04
3.848510e+01	-2.308011e-04
3.870739e+01	-2.334749e-04
3.893096e+01	-2.361797e-04
3.915583e+01	-2.389159e-04
3.938199e+01	-2.416837e-04
3.960946e+01	-2.444836e-04
3.983824e+01	-2.473159e-04
4.006834e+01	-2.501811e-04
4.029978e+01	-2.530794e-04
4.053255e+01	-2.560113e-04
4.076666e+01	-2.589772e-04
4.100213e+01	-2.619774e-04
4.123896e+01	-2.650124e-04
4.147715e+01	-2.680825e-04
4.171672e+01	-2.711883e-04
4.195767e+01	-2.743300e-04
4.220002e+01	-2.775080e-04
4.244377e+01	-2.807229e-04
4.268892e+01	-2.839751e-04
4.293549e+01	-2.872649e-04
4.318348e+01	-2.905928e-04
4.343291e+01	-2.939593e-04
4.368377e+01	-2.973648e-04
4.393609e+01	-3.008098e-04
4.418986e+01	-3.042946e-04
4.444510e+01	-3.078198e-04
4.470182e+01	-3.113859e-04
4.496001e+01	-3.149932e-04
4.521970e+01	-3.186424e-04
4.548089e+01	-3.223338e-04
4.574358e+01	-3.260680e-04
4.600779e+01	-3.298454e-04
4.627353e+01	-3.336666e-04
4.654081e+01	-3.375321e-04
4.680963e+01	-3.414423e-04
4.708000e+01	-3.453979e-04
4.735193e+01	-3.493993e-04
4.762543e+01	-3.534470e-04
4.790051e+01	-3.575416e-04
4.817719e+01	-3.616836e-04
4.845545e+01	-3.658737e-04
4.873533e+01	-3.701122e-04
4.901682e+01	-3.743999e-04
4.929994e+01	-3.787372e-04
4.958470e+01	-3.831248e-04
4.987110e+01	-3.875632e-04
5.015915e+01	-3.920531e-04
5.044887e+01	-3.965949e-04
5.074026e+01	-4.011894e-04
5.103333e+01	-4.058370e-04
5.132810e+01	-4.105385e-04
5.162457e+01	-4.152945e-04
5.192275e+01	-4.201056e-04
5.222265e+01	-4.249724e-04
5.252429e+01	-4.298956e-04
5.282767e+01	-4.348758e-04
5.313280e+01	-4.399137e-04
5.343969e+01	-4.450099e-04
5.374836e+01	-4.501652e-04
5.405880e+01	-4.553802e-04
5.437105e+01	-4.606557e-04
5.468509e+01	-4.659922e-04
5.500095e+01	-4.713906e-04
5.531863e+01	-4.768515e-04
5.563815e+01	-4.823756e-04
5.595951e+01	-4.879637e-04
5.628273e+01	-4.936166e-04
5.660782e+01	-4.993350e-04
5.693479e+01	-5.051196e-04
5.726364e+01	-5.109712e-04
5.759439e+01	-5.168906e-04
5.792705e+01	-5.228785e-04
5.826164e+01	-5.289358e-04
5.859815e+01	-5.350633e-04
5.893662e+01	-5.412618e-04
5.927703e+01	-5.475321e-04
5.961941e+01	-5.538750e-04
5.996377e+01	-5.602914e-04
6.031012e+01	-5.667821e-04
6.065847e+01	-5.733480e-04
6.100883e+01	-5.799899e-04
6.136121e+01	-5.867088e-04
6.171563e+01	-5.935055e-04
6.207210e+01	-6.003810e-04
6.243063e+01	-6.073361e-04
6.279122e+01	-6.143717e-04
6.315390e+01	-6.214889e-04
6.351868e+01	-6.286885e-04
6.388556e+01	-6.359715e-04
6.425456e+01	-6.433388e-04
6.462569e+01	-6.507915e-04
6.499897e+01	-6.583306e-04
6.537440e+01	-6.659569e-04
6.575200e+01	-6.736716e-04
6.613178e+01	-6.814757e-04
6.651375e+01	-6.893701e-04
6.689793e+01	-6.973560e-04
6.728433e+01	-7.054344e-04
6.767297e+01	-7.136064e-04
6.806384e+01	-7.218731e-04
6.845698e+01	-7.302355e-04
6.885238e+01	-7.386947e-04
6.925007e+01	-7.472520e-04
6.965005e+01	-7.559083e-04
7.005235e+01	-7.646650e-04
7.045697e+01	-7.735230e-04
7.086393e+01	-7.824837e-04
7.127323e+01	-7.915482e-04
7.168490e+01	-8.007176e-04
7.209895e+01	-8.099933e-04
7.251539e+01	-8.193764e-04
7.293424e+01	-8.288682e-04
7.335551e+01	-8.384699e-04
7.377920e+01	-8.481829e-04
7.420535e+01	-8.580083e-04
7.463396e+01	-8.679476e-04
7.506504e+01	-8.780020e-04
7.549861e+01	-8.881729e-04
7.593469e+01	-8.984615e-04
7.637328e+01	-9.088693e-04
7.681441e+01	-9.193977e-04
7.725809e+01	-9.300481e-04
7.770433e+01	-9.408218e-04
7.815315e+01	-9.517202e-04
7.860456e+01	-9.627450e-04
7.905857e+01	-9.738974e-04
7.951521e+01	-9.851790e-04
7.997449e+01	-9.965912e-04
8.043642e+01	-1.008136e-03
8.090102e+01	-1.019814e-03
8.136830e+01	-1.031627e-03
8.183828e+01	-1.043577e-03
8.231097e+01	-1.055666e-03
8.278640e+01	-1.067895e-03
8.326457e+01	-1.080265e-03
8.374550e+01	-1.092779e-03
8.422921e+01	-1.105437e-03
8.471572e+01	-1.118242e-03
8.520503e+01	-1.131196e-03
8.569717e+01	-1.144299e-03
8.619215e+01	-1.157555e-03
8.669000e+01	-1.170963e-03
8.719071e+01	-1.184527e-03
8.769432e+01	-1.198249e-03
8.820084e+01	-1.212129e-03
8.871029e+01	-1.226170e-03
8.922267e+01	-1.240373e-03
8.973802e+01	-1.254741e-03
9.025634e+01	-1.269275e-03
9.077766e+01	-1.283978e-03
9.130199e+01	-1.298851e-03
9.182935e+01	-1.313896e-03
9.235975e+01	-1.329116e-03
9.289321e+01	-1.344512e-03
9.342976e+01	-1.360086e-03
9.396941e+01	-1.375840e-03
9.451217e+01	-1.391777e-03
9.505807e+01	-1.407899e-03
9.560712e+01	-1.424207e-03
9.615934e+01	-1.440704e-03
9.671476e+01	-1.457392e-03
9.727338e+01	-1.474274e-03
9.783522e+01	-1.491350e-03
9.840032e+01	-1.508625e-03
9.896867e+01	-1.526100e-03
9.954031e+01	-1.543777e-03
1.001153e+02	-1.561659e-03
1.006935e+02	-1.579748e-03
1.012751e+02	-1.598046e-03
1.018601e+02	-1.616557e-03
1.024484e+02	-1.635281e-03
1.030402e+02	-1.654223e-03
1.036353e+02	-1.673384e-03
1.042339e+02	-1.692767e-03
1.048360e+02	-1.712374e-03
1.054415e+02	-1.732208e-03
1.060505e+02	-1.752272e-03
1.066631e+02	-1.772569e-03
1.072791e+02	-1.793100e-03
1.078988e+02	-1.813869e-03
1.085220e+02	-1.834879e-03
1.091488e+02	-1.856132e-03
1.097793e+02	-1.877631e-03
1.104133e+02	-1.899379e-03
1.110511e+02	-1.921379e-03
1.116925e+02	-1.943634e-03
1.123376e+02	-1.966146e-03
1.129865e+02	-1.988920e-03
1.136391e+02	-2.011956e-03
1.142955e+02	-2.035260e-03
1.149556e+02	-2.058833e-03
1.156196e+02	-2.082680e-03
1.162874e+02	-2.106802e-03
1.169591e+02	-2.131204e-03
1.176347e+02	-2.155889e-03
1.183141e+02	-2.180859e-03
1.189975e+02	-2.206118e-03
1.196848e+02	-2.231670e-03
1.203761e+02	-2.257518e-03
1.210714e+02	-2.283665e-03
1.217707e+02	-2.310115e-03
1.224740e+02	-2.336871e-03
1.231814e+02	-2.363937e-03
1.238929e+02	-2.391316e-03
1.246085e+02	-2.419013e-03
1.253283e+02	-2.447030e-03
1.260522e+02	-2.475371e-03
1.267802e+02	-2.504041e-03
1.275125e+02	-2.533042e-03
1.282490e+02	-2.562379e-03
1.289898e+02	-2.592056e-03
1.297348e+02	-2.622077e-03
1.304842e+02	-2.652445e-03
1.312378e+02	-2.683165e-03
1.319959e+02	-2.714240e-03
1.327583e+02	-2.745675e-03
1.335251e+02	-2.777475e-03
1.342963e+02	-2.809642e-03
1.350720e+02	-2.842182e-03
1.358522e+02	-2.875098e-03
1.366368e+02	-2.908396e-03
1.374260e+02	-2.942079e-03
1.382198e+02	-2.976152e-03
1.390182e+02	-3.010620e-03
1.398211e+02	-3.045486e-03
1.406287e+02	-3.080756e-03
1.414410e+02	-3.116435e-03
1.422579e+02	-3.152527e-03
1.430796e+02	-3.189036e-03
1.439060e+02	-3.225968e-03
1.447372e+02	-3.263328e-03
1.455732e+02	-3.301120e-03
1.464141e+02	-3.339349e-03
1.472597e+02	-3.378022e-03
1.481103e+02	-3.417142e-03
1.489658e+02	-3.456714e-03
1.498262e+02	-3.496745e-03
1.506916e+02	-3.537239e-03
1.515620e+02	-3.578202e-03
1.524374e+02	-3.619639e-03
1.533179e+02	-3.661556e-03
1.542034e+02	-3.703958e-03
1.550941e+02	-3.746851e-03
1.559899e+02	-3.790240e-03
1.568909e+02	-3.834132e-03
1.577971e+02	-3.878531e-03
1.587085e+02	-3.923445e-03
1.596252e+02	-3.968878e-03
1.605472e+02	-4.014837e-03
1.614745e+02	-4.061328e-03
1.624072e+02	-4.108357e-03
1.633453e+02	-4.155931e-03
1.642887e+02	-4.204055e-03
1.652377e+02	-4.252736e-03
1.661921e+02	-4.301981e-03
1.671520e+02	-4.351796e-03
1.681175e+02	-4.402187e-03
1.690885e+02	-4.453161e-03
1.700651e+02	-4.504725e-03
1.710474e+02	-4.556886e-03
1.720354e+02	-4.609651e-03
1.730291e+02	-4.663026e-03
1.740285e+02	-4.717019e-03
1.750337e+02	-4.771637e-03
1.760446e+02	-4.826887e-03
1.770615e+02	-4.882776e-03
1.780842e+02	-4.939312e-03
1.791128e+02	-4.996502e-03
1.801473e+02	-5.054354e-03
1.811878e+02	-5.112876e-03
1.822344e+02	-5.172074e-03
1.832870e+02	-5.231958e-03
1.843456e+02	-5.292534e-03
1.854104e+02	-5.353812e-03
1.864813e+02	-5.415798e-03
1.875584e+02	-5.478502e-03
1.886418e+02	-5.541932e-03
1.897313e+02	-5.606095e-03
1.908272e+02	-5.671000e-03
1.919294e+02	-5.736657e-03
1.930380e+02	-5.803073e-03
1.941530e+02	-5.870257e-03
1.952744e+02	-5.938219e-03
1.964023e+02	-6.006967e-03
1.975367e+02	-6.076511e-03
1.986777e+02	-6.146859e-03
1.998252e+02	-6.218021e-03
2.009794e+02	-6.290006e-03
2.021403e+02	-6.362824e-03
2.033078e+02	-6.436484e-03
2.044821e+02	-6.510996e-03
2.056632e+02	-6.586370e-03
2.068511e+02	-6.662616e-03
2.080459e+02	-6.739744e-03
2.092475e+02	-6.817765e-03
2.104561e+02	-6.896687e-03
2.116717e+02	-6.976523e-03
2.128943e+02	-7.057282e-03
2.141240e+02	-7.138975e-03
2.153608e+02	-7.221613e-03
2.166047e+02	-7.305207e-03
2.178558e+02	-7.389767e-03
2.191141e+02	-7.475305e-03
2.203797e+02	-7.561833e-03
2.216526e+02	-7.649362e-03
2.229329e+02	-7.737902e-03
2.242205e+02	-7.827467e-03
2.255156e+02	-7.918067e-03
2.268182e+02	-8.009715e-03
2.281283e+02	-8.102423e-03
2.294459e+02	-8.196203e-03
2.307712e+02	-8.291067e-03
2.321041e+02	-8.387028e-03
2.334447e+02	-8.484099e-03
2.347931e+02	-8.582292e-03
2.361493e+02	-8.681620e-03
2.375133e+02	-8.782097e-03
2.388851e+02	-8.883735e-03
2.402649e+02	-8.986549e-03
2.416527e+02	-9.090551e-03
2.430484e+02	-9.195756e-03
2.444523e+02	-9.302176e-03
2.458642e+02	-9.409827e-03
2.472843e+02	-9.518723e-03
2.487126e+02	-9.628877e-03
2.501492e+02	-9.740305e-03
2.515940e+02	-9.853020e-03
2.530472e+02	-9.967039e-03
2.545088e+02	-1.008237e-02
2.559789e+02	-1.019904e-02
2.574574e+02	-1.031706e-02
2.589444e+02	-1.043644e-02
2.604401e+02	-1.055721e-02
2.619444e+02	-1.067936e-02
2.634574e+02	-1.080293e-02
2.649791e+02	-1.092793e-02
2.665096e+02	-1.105437e-02
2.680489e+02	-1.118227e-02
2.695972e+02	-1.131165e-02
2.711544e+02	-1.144253e-02
2.727205e+02	-1.157491e-02
2.742958e+02	-1.170883e-02
2.758801e+02	-1.184430e-02
2.774736e+02	-1.198132e-02
2.790762e+02	-1.211994e-02
2.806882e+02	-1.226015e-02
2.823094e+02	-1.240198e-02
2.839400e+02	-1.254546e-02
2.855800e+02	-1.269059e-02
2.872295e+02	-1.283739e-02
2.888886e+02	-1.298589e-02
2.905572e+02	-1.313611e-02
2.922354e+02	-1.328806e-02
2.939234e+02	-1.344177e-02
2.956211e+02	-1.359725e-02
2.973286e+02	-1.375453e-02
2.990459e+02	-1.391362e-02
3.007732e+02	-1.407455e-02
3.025104e+02	-1.423734e-02
3.042577e+02	-1.440201e-02
3.060151e+02	-1.456858e-02
3.077826e+02	-1.473707e-02
3.095604e+02	-1.490751e-02
3.113484e+02	-1.507992e-02
3.131467e+02	-1.525431e-02
3.149554e+02	-1.543072e-02
3.167746e+02	-1.560917e-02
3.186043e+02	-1.578968e-02
3.204445e+02	-1.597227e-02
3.222954e+02	-1.615696e-02
3.241570e+02	-1.634379e-02
3.260293e+02	-1.653278e-02
3.279124e+02	-1.672395e-02
3.298064e+02	-1.691732e-02
3.317114e+02	-1.711292e-02
3.336273e+02	-1.731078e-02
3.355544e+02	-1.751093e-02
3.374925e+02	-1.771338e-02
3.394418e+02	-1.791817e-02
3.414024e+02	-1.812532e-02
3.433744e+02	-1.833486e-02
3.453577e+02	-1.854682e-02
3.473525e+02	-1.876123e-02
3.493588e+02	-1.897810e-02
3.513766e+02	-1.919748e-02
3.534062e+02	-1.941939e-02
3.554474e+02	-1.964386e-02
3.575005e+02	-1.987092e-02
3.595654e+02	-2.010059e-02
3.616422e+02	-2.033292e-02
3.637311e+02	-2.056792e-02
3.658320e+02	-2.080563e-02
3.679450e+02	-2.104608e-02
3.700702e+02	-2.128931e-02
3.722077e+02	-2.153534e-02
3.743576e+02	-2.178420e-02
3.765199e+02	-2.203593e-02
3.786946e+02	-2.229057e-02
3.808820e+02	-2.254814e-02
3.830819e+02	-2.280868e-02
3.852946e+02	-2.307222e-02
3.875200e+02	-2.333879e-02
3.897583e+02	-2.360844e-02
3.920096e+02	-2.388120e-02
3.942738e+02	-2.415710e-02
3.965511e+02	-2.443617e-02
3.988416e+02	-2.471846e-02
4.011452e+02	-2.500401e-02
4.034622e+02	-2.529284e-02
4.057926e+02	-2.558500e-02
4.081365e+02	-2.588052e-02
4.104938e+02	-2.617945e-02
4.128648e+02	-2.648181e-02
4.152495e+02	-2.678766e-02
4.176480e+02	-2.709703e-02
4.200603e+02	-2.740997e-02
4.224866e+02	-2.772650e-02
4.249268e+02	-2.804668e-02
4.273812e+02	-2.837054e-02
4.298497e+02	-2.869813e-02
4.323325e+02	-2.902950e-02
4.348297e+02	-2.936467e-02
4.373412e+02	-2.970370e-02
4.398673e+02	-3.004663e-02
4.424079e+02	-3.039351e-02
4.449633e+02	-3.074437e-02
4.475334e+02	-3.109928e-02
4.501183e+02	-3.145826e-02
4.527182e+02	-3.182137e-02
4.553330e+02	-3.218866e-02
4.579630e+02	-3.256018e-02
4.606082e+02	-3.293596e-02
4.632687e+02	-3.331606e-02
4.659445e+02	-3.370054e-02
4.686358e+02	-3.408943e-02
4.713426e+02	-3.448279e-02
4.740650e+02	-3.488068e-02
4.768032e+02	-3.528313e-02
4.795572e+02	-3.569021e-02
4.823271e+02	-3.610197e-02
4.851130e+02	-3.651846e-02
4.879150e+02	-3.693973e-02
4.907332e+02	-3.736584e-02
4.935676e+02	-3.779685e-02
4.964185e+02	-3.823280e-02
4.992858e+02	-3.867376e-02
5.021696e+02	-3.911978e-02
5.050701e+02	-3.957093e-02
5.079874e+02	-4.002725e-02
5.109215e+02	-4.048881e-02
5.138726e+02	-4.095567e-02
5.168407e+02	-4.142788e-02
5.198259e+02	-4.190551e-02
5.228284e+02	-4.238862e-02
5.258482e+02	-4.287728e-02
5.288855e+02	-4.337154e-02
5.319403e+02	-4.387147e-02
5.350128e+02	-4.437713e-02
5.381030e+02	-4.488858e-02
5.412111e+02	-4.540591e-02
5.443371e+02	-4.592916e-02
5.474812e+02	-4.645841e-02
5.506434e+02	-4.699372e-02
5.538239e+02	-4.753517e-02
5.570228e+02	-4.808283e-02
5.602401e+02	-4.863676e-02
5.634760e+02	-4.919703e-02
5.667306e+02	-4.976372e-02
5.700040e+02	-5.033690e-02
5.732964e+02	-5.091664e-02
5.766077e+02	-5.150302e-02
5.799382e+02	-5.209611e-02
5.832879e+02	-5.269599e-02
5.866569e+02	-5.330274e-02
5.900454e+02	-5.391643e-02
5.934535e+02	-5.453713e-02
5.968813e+02	-5.516494e-02
6.003288e+02	-5.579993e-02
6.037963e+02	-5.644218e-02
6.072838e+02	-5.709178e-02
6.107914e+02	-5.774880e-02
6.143194e+02	-5.841333e-02
6.178676e+02	-5.908546e-02
6.214364e+02	-5.976526e-02
6.250258e+02	-6.045284e-02
6.286359e+02	-6.114826e-02
6.322669e+02	-6.185163e-02
6.359189e+02	-6.256304e-02
6.395919e+02	-6.328256e-02
6.432862e+02	-6.401030e-02
6.470017e+02	-6.474635e-02
6.507388e+02	-6.549079e-02
6.544974e+02	-6.624373e-02
6.582778e+02	-6.700526e-02
6.620800e+02	-6.777547e-02
6.659041e+02	-6.855447e-02
6.697504e+02	-6.934235e-02
6.736188e+02	-7.013921e-02
6.775096e+02	-7.094515e-02
6.814229e+02	-7.176028e-02
6.853587e+02	-7.258470e-02
6.893173e+02	-7.341850e-02
6.932988e+02	-7.426180e-02
6.973033e+02	-7.511471e-02
7.013309e+02	-7.597732e-02
