Frequency(Hz)	Magnitude(dB)
1.000000e+01	-2.213471e+00
1.005776e+01	-2.233768e+00
1.011585e+01	-2.253797e+00
1.017428e+01	-2.274209e+00
1.023305e+01	-2.294488e+00
1.029215e+01	-2.315063e+00
1.035160e+01	-2.335908e+00
1.041139e+01	-2.356740e+00
1.047153e+01	-2.377922e+00
1.053201e+01	-2.399136e+00
1.059284e+01	-2.420322e+00
1.065403e+01	-2.441783e+00
1.071556e+01	-2.463582e+00
1.077746e+01	-2.484903e+00
1.083971e+01	-2.507003e+00
1.090232e+01	-2.529065e+00
1.096529e+01	-2.551354e+00
1.102862e+01	-2.573493e+00
1.109232e+01	-2.595894e+00
1.115639e+01	-2.618574e+00
1.122083e+01	-2.641137e+00
1.128564e+01	-2.663946e+00
1.135083e+01	-2.687138e+00
1.141639e+01	-2.710209e+00
1.148233e+01	-2.733274e+00
1.154865e+01	-2.756682e+00
1.161536e+01	-2.780481e+00
1.168245e+01	-2.804430e+00
1.174992e+01	-2.828001e+00
1.181779e+01	-2.852082e+00
1.188605e+01	-2.876233e+00
1.195470e+01	-2.900550e+00
1.202375e+01	-2.925121e+00
1.209320e+01	-2.949662e+00
1.216305e+01	-2.974319e+00
1.223330e+01	-2.999200e+00
1.230396e+01	-3.024287e+00
1.237503e+01	-3.049474e+00
1.244651e+01	-3.074742e+00
1.251840e+01	-3.100099e+00
1.259070e+01	-3.125630e+00
1.266343e+01	-3.151545e+00
1.273657e+01	-3.177328e+00
1.281014e+01	-3.203429e+00
1.288413e+01	-3.229436e+00
1.295855e+01	-3.255951e+00
1.303339e+01	-3.282477e+00
1.310867e+01	-3.309007e+00
1.318439e+01	-3.335745e+00
1.326054e+01	-3.362617e+00
1.333713e+01	-3.389536e+00
1.341417e+01	-3.416685e+00
1.349165e+01	-3.443940e+00
1.356958e+01	-3.471669e+00
1.364795e+01	-3.499106e+00
1.372678e+01	-3.527160e+00
1.380607e+01	-3.554711e+00
1.388581e+01	-3.583089e+00
1.396602e+01	-3.611128e+00
1.404668e+01	-3.639402e+00
1.412782e+01	-3.667722e+00
1.420942e+01	-3.696575e+00
1.429149e+01	-3.725114e+00
1.437404e+01	-3.753932e+00
1.445706e+01	-3.783197e+00
1.454057e+01	-3.812061e+00
1.462455e+01	-3.841418e+00
1.470902e+01	-3.870965e+00
1.479398e+01	-3.900731e+00
1.487943e+01	-3.930368e+00
1.496537e+01	-3.959869e+00
1.505181e+01	-3.989963e+00
1.513875e+01	-4.020043e+00
1.522619e+01	-4.050549e+00
1.531414e+01	-4.080876e+00
1.540259e+01	-4.111650e+00
1.549156e+01	-4.142051e+00
1.558103e+01	-4.172903e+00
1.567103e+01	-4.203974e+00
1.576155e+01	-4.235110e+00
1.585258e+01	-4.266123e+00
1.594415e+01	-4.297528e+00
1.603624e+01	-4.329008e+00
1.612886e+01	-4.360766e+00
1.622202e+01	-4.392537e+00
1.631572e+01	-4.424309e+00
1.640996e+01	-4.456214e+00
1.650474e+01	-4.488423e+00
1.660008e+01	-4.520922e+00
1.669596e+01	-4.553298e+00
1.679239e+01	-4.585963e+00
1.688938e+01	-4.618435e+00
1.698694e+01	-4.651468e+00
1.708505e+01	-4.684183e+00
1.718373e+01	-4.717175e+00
1.728299e+01	-4.750493e+00
1.738281e+01	-4.784088e+00
1.748322e+01	-4.817519e+00
1.758420e+01	-4.851074e+00
1.768576e+01	-4.884664e+00
1.778792e+01	-4.918504e+00
1.789066e+01	-4.952803e+00
1.799399e+01	-4.986753e+00
1.809793e+01	-5.020781e+00
1.820246e+01	-5.055337e+00
1.830760e+01	-5.089587e+00
1.841334e+01	-5.124367e+00
1.851969e+01	-5.159059e+00
1.862666e+01	-5.193698e+00
1.873425e+01	-5.228635e+00
1.884246e+01	-5.263510e+00
1.895129e+01	-5.299050e+00
1.906075e+01	-5.334382e+00
1.917085e+01	-5.369784e+00
1.928158e+01	-5.405320e+00
1.939295e+01	-5.440955e+00
1.950496e+01	-5.477149e+00
1.961762e+01	-5.512758e+00
1.973093e+01	-5.548465e+00
1.984490e+01	-5.584693e+00
1.995952e+01	-5.620975e+00
2.007480e+01	-5.657437e+00
2.019076e+01	-5.693838e+00
2.030738e+01	-5.730484e+00
2.042467e+01	-5.766924e+00
2.054264e+01	-5.803934e+00
2.066130e+01	-5.841194e+00
2.078064e+01	-5.878009e+00
2.090066e+01	-5.915333e+00
2.102139e+01	-5.952212e+00
2.114280e+01	-5.989669e+00
2.126492e+01	-6.027517e+00
2.138775e+01	-6.065066e+00
2.151128e+01	-6.102456e+00
2.163553e+01	-6.140335e+00
2.176050e+01	-6.178361e+00
2.188619e+01	-6.216522e+00
2.201260e+01	-6.254159e+00
2.213974e+01	-6.292628e+00
2.226762e+01	-6.331333e+00
2.239624e+01	-6.369243e+00
2.252560e+01	-6.408178e+00
2.265571e+01	-6.446802e+00
2.278656e+01	-6.485592e+00
2.291818e+01	-6.524332e+00
2.305055e+01	-6.563273e+00
2.318369e+01	-6.602274e+00
2.331760e+01	-6.641379e+00
2.345228e+01	-6.680454e+00
2.358774e+01	-6.719983e+00
2.372398e+01	-6.759332e+00
2.386101e+01	-6.798688e+00
2.399883e+01	-6.838096e+00
2.413745e+01	-6.878336e+00
2.427686e+01	-6.917850e+00
2.441709e+01	-6.957772e+00
2.455812e+01	-6.998064e+00
2.469997e+01	-7.038073e+00
2.484263e+01	-7.078418e+00
2.498612e+01	-7.118420e+00
2.513044e+01	-7.158582e+00
2.527559e+01	-7.199269e+00
2.542158e+01	-7.239951e+00
2.556842e+01	-7.280797e+00
2.571610e+01	-7.321168e+00
2.586463e+01	-7.361762e+00
2.601403e+01	-7.402911e+00
2.616428e+01	-7.443540e+00
2.631541e+01	-7.485024e+00
2.646740e+01	-7.525778e+00
2.662028e+01	-7.567068e+00
2.677404e+01	-7.608396e+00
2.692868e+01	-7.649849e+00
2.708422e+01	-7.691865e+00
2.724066e+01	-7.733067e+00
2.739800e+01	-7.774572e+00
2.755625e+01	-7.816117e+00
2.771541e+01	-7.857969e+00
2.787550e+01	-7.899588e+00
2.803650e+01	-7.942006e+00
2.819844e+01	-7.984026e+00
2.836131e+01	-8.025825e+00
2.852513e+01	-8.068411e+00
2.868989e+01	-8.110198e+00
2.885560e+01	-8.152929e+00
2.902227e+01	-8.195371e+00
2.918990e+01	-8.237777e+00
2.935850e+01	-8.280152e+00
2.952807e+01	-8.322771e+00
2.969863e+01	-8.365947e+00
2.987016e+01	-8.408421e+00
3.004269e+01	-8.450973e+00
3.021622e+01	-8.494000e+00
3.039075e+01	-8.537339e+00
3.056628e+01	-8.579963e+00
3.074283e+01	-8.622779e+00
3.092040e+01	-8.666569e+00
3.109900e+01	-8.709673e+00
3.127862e+01	-8.753222e+00
3.145929e+01	-8.795766e+00
3.164099e+01	-8.839875e+00
3.182375e+01	-8.883833e+00
3.200756e+01	-8.926724e+00
3.219244e+01	-8.970791e+00
3.237838e+01	-9.014618e+00
3.256540e+01	-9.058306e+00
3.275349e+01	-9.101729e+00
3.294268e+01	-9.146218e+00
3.313295e+01	-9.189864e+00
3.332433e+01	-9.233274e+00
3.351681e+01	-9.278527e+00
3.371040e+01	-9.321716e+00
3.390511e+01	-9.365928e+00
3.410094e+01	-9.410630e+00
3.429791e+01	-9.454989e+00
3.449601e+01	-9.499206e+00
3.469526e+01	-9.543846e+00
3.489566e+01	-9.588711e+00
3.509721e+01	-9.632969e+00
3.529993e+01	-9.677292e+00
3.550382e+01	-9.721834e+00
3.570889e+01	-9.766587e+00
3.591515e+01	-9.811591e+00
3.612259e+01	-9.856304e+00
3.633123e+01	-9.901062e+00
3.654108e+01	-9.945871e+00
3.675214e+01	-9.991168e+00
3.696442e+01	-1.003578e+01
3.717792e+01	-1.008068e+01
3.739266e+01	-1.012711e+01
3.760864e+01	-1.017156e+01
3.782587e+01	-1.021669e+01
3.804435e+01	-1.026234e+01
3.826409e+01	-1.030757e+01
3.848510e+01	-1.035276e+01
3.870739e+01	-1.039773e+01
3.893096e+01	-1.044391e+01
3.915583e+01	-1.048921e+01
3.938199e+01	-1.053472e+01
3.960946e+01	-1.058051e+01
3.983824e+01	-1.062604e+01
4.006834e+01	-1.067206e+01
4.029978e+01	-1.071779e+01
4.053255e+01	-1.076345e+01
4.076666e+01	-1.080889e+01
4.100213e+01	-1.085561e+01
4.123896e+01	-1.090083e+01
4.147715e+01	-1.094789e+01
4.171672e+01	-1.099338e+01
4.195767e+01	-1.103940e+01
4.220002e+01	-1.108581e+01
4.244377e+01	-1.113175e+01
4.268892e+01	-1.117755e+01
4.293549e+01	-1.122417e+01
4.318348e+01	-1.127062e+01
4.343291e+01	-1.131622e+01
4.368377e+01	-1.136328e+01
4.393609e+01	-1.140981e+01
4.418986e+01	-1.145570e+01
4.444510e+01	-1.150195e+01
4.470182e+01	-1.154863e+01
4.496001e+01	-1.159480e+01
4.521970e+01	-1.164162e+01
4.548089e+01	-1.168822e+01
4.574358e+01	-1.173578e+01
4.600779e+01	-1.178184e+01
4.627353e+01	-1.182800e+01
4.654081e+01	-1.187512e+01
4.680963e+01	-1.192225e+01
4.708000e+01	-1.196930e+01
4.735193e+01	-1.201463e+01
4.762543e+01	-1.206265e+01
4.790051e+01	-1.210969e+01
4.817719e+01	-1.215703e+01
4.845545e+01	-1.220352e+01
4.873533e+01	-1.225061e+01
4.901682e+01	-1.229795e+01
4.929994e+01	-1.234431e+01
4.958470e+01	-1.239212e+01
4.987110e+01	-1.243927e+01
5.015915e+01	-1.248659e+01
5.044887e+01	-1.253321e+01
5.074026e+01	-1.258067e+01
5.103333e+01	-1.262796e+01
5.132810e+01	-1.267591e+01
5.162457e+01	-1.272253e+01
5.192275e+01	-1.276961e+01
5.222265e+01	-1.281727e+01
5.252429e+01	-1.286478e+01
5.282767e+01	-1.291223e+01
5.313280e+01	-1.295977e+01
5.343969e+01	-1.300687e+01
5.374836e+01	-1.305470e+01
5.405880e+01	-1.310180e+01
5.437105e+01	-1.314971e+01
5.468509e+01	-1.319800e+01
5.500095e+01	-1.324544e+01
5.531863e+01	-1.329299e+01
5.563815e+01	-1.333988e+01
5.595951e+01	-1.338903e+01
5.628273e+01	-1.343565e+01
5.660782e+01	-1.348403e+01
5.693479e+01	-1.353177e+01
5.726364e+01	-1.357950e+01
5.759439e+01	-1.362813e+01
5.792705e+01	-1.367516e+01
5.826164e+01	-1.372311e+01
5.859815e+01	-1.377069e+01
5.893662e+01	-1.381894e+01
5.927703e+01	-1.386676e+01
5.961941e+01	-1.391527e+01
5.996377e+01	-1.396246e+01
6.031012e+01	-1.401161e+01
6.065847e+01	-1.405882e+01
6.100883e+01	-1.410755e+01
6.136121e+01	-1.415518e+01
6.171563e+01	-1.420285e+01
6.207210e+01	-1.425085e+01
6.243063e+01	-1.429950e+01
6.279122e+01	-1.434736e+01
6.315390e+01	-1.439548e+01
6.351868e+01	-1.444451e+01
6.388556e+01	-1.449190e+01
6.425456e+01	-1.454041e+01
6.462569e+01	-1.458897e+01
6.499897e+01	-1.463705e+01
6.537440e+01	-1.468597e+01
6.575200e+01	-1.473359e+01
6.613178e+01	-1.478201e+01
6.651375e+01	-1.483054e+01
6.689793e+01	-1.487900e+01
6.728433e+01	-1.492567e+01
6.767297e+01	-1.497631e+01
6.806384e+01	-1.502463e+01
6.845698e+01	-1.507257e+01
6.885238e+01	-1.512130e+01
6.925007e+01	-1.517038e+01
6.965005e+01	-1.521804e+01
7.005235e+01	-1.526715e+01
7.045697e+01	-1.531487e+01
7.086393e+01	-1.536371e+01
7.127323e+01	-1.541162e+01
7.168490e+01	-1.546160e+01
7.209895e+01	-1.551036e+01
7.251539e+01	-1.555869e+01
7.293424e+01	-1.560708e+01
7.335551e+01	-1.565636e+01
7.377920e+01	-1.570364e+01
7.420535e+01	-1.575325e+01
7.463396e+01	-1.580138e+01
7.506504e+01	-1.585040e+01
7.549861e+01	-1.589895e+01
7.593469e+01	-1.594820e+01
7.637328e+01	-1.599655e+01
7.681441e+01	-1.604483e+01
7.725809e+01	-1.609361e+01
7.770433e+01	-1.614314e+01
7.815315e+01	-1.619241e+01
7.860456e+01	-1.624070e+01
7.905857e+01	-1.628998e+01
7.951521e+01	-1.633960e+01
7.997449e+01	-1.638640e+01
8.043642e+01	-1.643636e+01
8.090102e+01	-1.648551e+01
8.136830e+01	-1.653371e+01
8.183828e+01	-1.658268e+01
8.231097e+01	-1.663218e+01
8.278640e+01	-1.668045e+01
8.326457e+01	-1.673052e+01
8.374550e+01	-1.677840e+01
8.422921e+01	-1.682652e+01
8.471572e+01	-1.687598e+01
8.520503e+01	-1.692623e+01
8.569717e+01	-1.697456e+01
8.619215e+01	-1.702308e+01
8.669000e+01	-1.707424e+01
8.719071e+01	-1.712239e+01
8.769432e+01	-1.717072e+01
8.820084e+01	-1.722080e+01
8.871029e+01	-1.726999e+01
8.922267e+01	-1.731818e+01
8.973802e+01	-1.736544e+01
9.025634e+01	-1.741703e+01
9.077766e+01	-1.746617e+01
9.130199e+01	-1.751521e+01
9.182935e+01	-1.756425e+01
9.235975e+01	-1.761284e+01
9.289321e+01	-1.766240e+01
9.342976e+01	-1.771148e+01
9.396941e+01	-1.775980e+01
9.451217e+01	-1.781062e+01
9.505807e+01	-1.785782e+01
9.560712e+01	-1.790834e+01
9.615934e+01	-1.795764e+01
9.671476e+01	-1.800685e+01
9.727338e+01	-1.805574e+01
9.783522e+01	-1.810400e+01
9.840032e+01	-1.815454e+01
9.896867e+01	-1.820437e+01
9.954031e+01	-1.825325e+01
1.001153e+02	-1.830261e+01
1.006935e+02	-1.835282e+01
1.012751e+02	-1.840085e+01
1.018601e+02	-1.844928e+01
1.024484e+02	-1.849962e+01
1.030402e+02	-1.854890e+01
1.036353e+02	-1.859936e+01
1.042339e+02	-1.864750e+01
1.048360e+02	-1.869779e+01
1.054415e+02	-1.874650e+01
1.060505e+02	-1.879565e+01
1.066631e+02	-1.884487e+01
1.072791e+02	-1.889395e+01
1.078988e+02	-1.894414e+01
1.085220e+02	-1.899323e+01
1.091488e+02	-1.904248e+01
1.097793e+02	-1.909272e+01
1.104133e+02	-1.914250e+01
1.110511e+02	-1.919134e+01
1.116925e+02	-1.923959e+01
1.123376e+02	-1.928980e+01
1.129865e+02	-1.933868e+01
1.136391e+02	-1.938821e+01
1.142955e+02	-1.943722e+01
1.149556e+02	-1.948714e+01
1.156196e+02	-1.953687e+01
1.162874e+02	-1.958755e+01
1.169591e+02	-1.963544e+01
1.176347e+02	-1.968476e+01
1.183141e+02	-1.973542e+01
1.189975e+02	-1.978498e+01
1.196848e+02	-1.983362e+01
1.203761e+02	-1.988296e+01
1.210714e+02	-1.993254e+01
1.217707e+02	-1.998394e+01
1.224740e+02	-2.003213e+01
1.231814e+02	-2.008091e+01
1.238929e+02	-2.013262e+01
1.246085e+02	-2.018120e+01
1.253283e+02	-2.023075e+01
1.260522e+02	-2.027861e+01
1.267802e+02	-2.033032e+01
1.275125e+02	-2.037902e+01
1.282490e+02	-2.042919e+01
1.289898e+02	-2.047852e+01
1.297348e+02	-2.052639e+01
1.304842e+02	-2.057728e+01
1.312378e+02	-2.062713e+01
1.319959e+02	-2.067800e+01
1.327583e+02	-2.072303e+01
1.335251e+02	-2.077662e+01
1.342963e+02	-2.082661e+01
1.350720e+02	-2.087598e+01
1.358522e+02	-2.092489e+01
1.366368e+02	-2.097413e+01
1.374260e+02	-2.102287e+01
1.382198e+02	-2.107248e+01
1.390182e+02	-2.112358e+01
1.398211e+02	-2.117520e+01
1.406287e+02	-2.122221e+01
1.414410e+02	-2.127327e+01
1.422579e+02	-2.132166e+01
1.430796e+02	-2.137150e+01
1.439060e+02	-2.142160e+01
1.447372e+02	-2.147095e+01
1.455732e+02	-2.152057e+01
1.464141e+02	-2.157019e+01
1.472597e+02	-2.162016e+01
1.481103e+02	-2.166937e+01
1.489658e+02	-2.172016e+01
1.498262e+02	-2.176781e+01
1.506916e+02	-2.181785e+01
1.515620e+02	-2.186669e+01
1.524374e+02	-2.191722e+01
1.533179e+02	-2.196941e+01
1.542034e+02	-2.201755e+01
1.550941e+02	-2.206784e+01
1.559899e+02	-2.211705e+01
1.568909e+02	-2.216538e+01
1.577971e+02	-2.221552e+01
1.587085e+02	-2.226669e+01
1.596252e+02	-2.231541e+01
1.605472e+02	-2.236684e+01
1.614745e+02	-2.241600e+01
1.624072e+02	-2.246415e+01
1.633453e+02	-2.251632e+01
1.642887e+02	-2.256648e+01
1.652377e+02	-2.261420e+01
1.661921e+02	-2.266617e+01
1.671520e+02	-2.271436e+01
1.681175e+02	-2.276297e+01
1.690885e+02	-2.281475e+01
1.700651e+02	-2.286419e+01
1.710474e+02	-2.291469e+01
1.720354e+02	-2.296278e+01
1.730291e+02	-2.301561e+01
1.740285e+02	-2.306423e+01
1.750337e+02	-2.311267e+01
1.760446e+02	-2.316639e+01
1.770615e+02	-2.321046e+01
1.780842e+02	-2.326507e+01
1.791128e+02	-2.331212e+01
1.801473e+02	-2.336232e+01
1.811878e+02	-2.341272e+01
1.822344e+02	-2.346240e+01
1.832870e+02	-2.351253e+01
1.843456e+02	-2.355931e+01
1.854104e+02	-2.361347e+01
1.864813e+02	-2.366290e+01
1.875584e+02	-2.370861e+01
1.886418e+02	-2.376064e+01
1.897313e+02	-2.381200e+01
1.908272e+02	-2.386116e+01
1.919294e+02	-2.391190e+01
1.930380e+02	-2.395925e+01
1.941530e+02	-2.400873e+01
1.952744e+02	-2.406086e+01
1.964023e+02	-2.411063e+01
1.975367e+02	-2.415875e+01
1.986777e+02	-2.420803e+01
1.998252e+02	-2.425850e+01
2.009794e+02	-2.430730e+01
2.021403e+02	-2.436056e+01
2.033078e+02	-2.440903e+01
2.044821e+02	-2.446097e+01
2.056632e+02	-2.450917e+01
2.068511e+02	-2.455618e+01
2.080459e+02	-2.460817e+01
2.092475e+02	-2.465605e+01
2.104561e+02	-2.470964e+01
2.116717e+02	-2.475537e+01
2.128943e+02	-2.480823e+01
2.141240e+02	-2.485834e+01
2.153608e+02	-2.490798e+01
2.166047e+02	-2.495785e+01
2.178558e+02	-2.500779e+01
2.191141e+02	-2.505812e+01
2.203797e+02	-2.510547e+01
2.216526e+02	-2.515542e+01
2.229329e+02	-2.520750e+01
2.242205e+02	-2.525785e+01
2.255156e+02	-2.530998e+01
2.268182e+02	-2.535607e+01
2.281283e+02	-2.540471e+01
2.294459e+02	-2.545772e+01
2.307712e+02	-2.550344e+01
2.321041e+02	-2.555655e+01
2.334447e+02	-2.560666e+01
2.347931e+02	-2.565612e+01
2.361493e+02	-2.570511e+01
2.375133e+02	-2.575772e+01
2.388851e+02	-2.580407e+01
2.402649e+02	-2.585659e+01
2.416527e+02	-2.590326e+01
2.430484e+02	-2.595790e+01
2.444523e+02	-2.600319e+01
2.458642e+02	-2.605603e+01
2.472843e+02	-2.610641e+01
2.487126e+02	-2.615862e+01
2.501492e+02	-2.620753e+01
2.515940e+02	-2.625398e+01
2.530472e+02	-2.630487e+01
2.545088e+02	-2.635389e+01
2.559789e+02	-2.640460e+01
2.574574e+02	-2.645585e+01
2.589444e+02	-2.650679e+01
2.604401e+02	-2.655904e+01
2.619444e+02	-2.660224e+01
2.634574e+02	-2.665881e+01
2.649791e+02	-2.670555e+01
2.665096e+02	-2.675274e+01
2.680489e+02	-2.680378e+01
2.695972e+02	-2.685399e+01
2.711544e+02	-2.690807e+01
2.727205e+02	-2.695687e+01
2.742958e+02	-2.700598e+01
2.758801e+02	-2.705382e+01
2.774736e+02	-2.710476e+01
2.790762e+02	-2.715221e+01
2.806882e+02	-2.720183e+01
2.823094e+02	-2.725445e+01
2.839400e+02	-2.730543e+01
2.855800e+02	-2.735472e+01
2.872295e+02	-2.740292e+01
2.888886e+02	-2.745599e+01
2.905572e+02	-2.750551e+01
2.922354e+02	-2.755425e+01
2.939234e+02	-2.760147e+01
2.956211e+02	-2.765492e+01
2.973286e+02	-2.770243e+01
2.990459e+02	-2.775081e+01
3.007732e+02	-2.780722e+01
3.025104e+02	-2.786046e+01
3.042577e+02	-2.790163e+01
3.060151e+02	-2.795678e+01
3.077826e+02	-2.800607e+01
3.095604e+02	-2.805639e+01
3.113484e+02	-2.810657e+01
3.131467e+02	-2.815606e+01
3.149554e+02	-2.820851e+01
3.167746e+02	-2.825800e+01
3.186043e+02	-2.830776e+01
3.204445e+02	-2.835407e+01
3.222954e+02	-2.840327e+01
3.241570e+02	-2.845360e+01
3.260293e+02	-2.850395e+01
3.279124e+02	-2.855751e+01
3.298064e+02	-2.860474e+01
3.317114e+02	-2.864953e+01
3.336273e+02	-2.870720e+01
3.355544e+02	-2.875385e+01
3.374925e+02	-2.880777e+01
3.394418e+02	-2.885601e+01
3.414024e+02	-2.890747e+01
3.433744e+02	-2.895620e+01
3.453577e+02	-2.900429e+01
3.473525e+02	-2.905648e+01
3.493588e+02	-2.910313e+01
3.513766e+02	-2.915467e+01
3.534062e+02	-2.920633e+01
3.554474e+02	-2.925727e+01
3.575005e+02	-2.930840e+01
3.595654e+02	-2.935489e+01
3.616422e+02	-2.940808e+01
3.637311e+02	-2.945606e+01
3.658320e+02	-2.950863e+01
3.679450e+02	-2.955783e+01
3.700702e+02	-2.960476e+01
3.722077e+02	-2.965799e+01
3.743576e+02	-2.970686e+01
3.765199e+02	-2.975929e+01
3.786946e+02	-2.980544e+01
3.808820e+02	-2.986137e+01
3.830819e+02	-2.990575e+01
3.852946e+02	-2.995948e+01
3.875200e+02	-3.000733e+01
3.897583e+02	-3.006020e+01
3.920096e+02	-3.010391e+01
3.942738e+02	-3.015887e+01
3.965511e+02	-3.020465e+01
3.988416e+02	-3.026119e+01
4.011452e+02	-3.030737e+01
4.034622e+02	-3.035871e+01
4.057926e+02	-3.041164e+01
4.081365e+02	-3.046153e+01
4.104938e+02	-3.050633e+01
4.128648e+02	-3.056111e+01
4.152495e+02	-3.061110e+01
4.176480e+02	-3.066033e+01
4.200603e+02	-3.071127e+01
4.224866e+02	-3.075577e+01
4.249268e+02	-3.081192e+01
4.273812e+02	-3.086183e+01
4.298497e+02	-3.090669e+01
4.323325e+02	-3.096218e+01
4.348297e+02	-3.101121e+01
4.373412e+02	-3.105857e+01
4.398673e+02	-3.110589e+01
4.424079e+02	-3.116358e+01
4.449633e+02	-3.121036e+01
4.475334e+02	-3.125943e+01
4.501183e+02	-3.131623e+01
4.527182e+02	-3.136366e+01
4.553330e+02	-3.140894e+01
4.579630e+02	-3.146133e+01
4.606082e+02	-3.151776e+01
4.632687e+02	-3.156071e+01
4.659445e+02	-3.161356e+01
4.686358e+02	-3.165836e+01
4.713426e+02	-3.171432e+01
4.740650e+02	-3.176067e+01
4.768032e+02	-3.181650e+01
4.795572e+02	-3.185428e+01
4.823271e+02	-3.191347e+01
4.851130e+02	-3.196585e+01
4.879150e+02	-3.201176e+01
4.907332e+02	-3.206170e+01
4.935676e+02	-3.210948e+01
4.964185e+02	-3.215967e+01
4.992858e+02	-3.221254e+01
5.021696e+02	-3.226560e+01
5.050701e+02	-3.231877e+01
5.079874e+02	-3.236784e+01
5.109215e+02	-3.241307e+01
5.138726e+02	-3.246129e+01
5.168407e+02	-3.250937e+01
5.198259e+02	-3.257094e+01
5.228284e+02	-3.261992e+01
5.258482e+02	-3.266037e+01
5.288855e+02	-3.271244e+01
5.319403e+02	-3.277210e+01
5.350128e+02	-3.281271e+01
5.381030e+02	-3.287044e+01
5.412111e+02	-3.292134e+01
5.443371e+02	-3.297003e+01
5.474812e+02	-3.301982e+01
5.506434e+02	-3.306270e+01
5.538239e+02	-3.312154e+01
5.570228e+02	-3.317042e+01
5.602401e+02	-3.321502e+01
5.634760e+02	-3.326877e+01
5.667306e+02	-3.332161e+01
5.700040e+02	-3.336781e+01
5.732964e+02	-3.341700e+01
5.766077e+02	-3.346645e+01
5.799382e+02	-3.352062e+01
5.832879e+02	-3.356706e+01
5.866569e+02	-3.362421e+01
5.900454e+02	-3.368407e+01
5.934535e+02	-3.371896e+01
5.968813e+02	-3.376900e+01
6.003288e+02	-3.382261e+01
6.037963e+02	-3.386600e+01
6.072838e+02	-3.392327e+01
6.107914e+02	-3.397539e+01
6.143194e+02	-3.401774e+01
6.178676e+02	-3.406636e+01
6.214364e+02	-3.411941e+01
6.250258e+02	-3.417481e+01
6.286359e+02	-3.421424e+01
6.322669e+02	-3.427125e+01
6.359189e+02	-3.432735e+01
6.395919e+02	-3.437435e+01
6.432862e+02	-3.442903e+01
6.470017e+02	-3.448143e+01
6.507388e+02	-3.452881e+01
6.544974e+02	-3.457608e+01
6.582778e+02	-3.462200e+01
6.620800e+02	-3.467500e+01
6.659041e+02	-3.473330e+01
6.697504e+02	-3.477275e+01
6.736188e+02	-3.482819e+01
6.775096e+02	-3.487886e+01
6.814229e+02	-3.493115e+01
6.853587e+02	-3.496816e+01
6.893173e+02	-3.502948e+01
6.932988e+02	-3.508095e+01
6.973033e+02	-3.513374e+01
7.013309e+02	-3.517716e+01
