Frequency(Hz)	Magnitude(dB)
1.000000e+01	-1.696681e-05
1.005776e+01	-1.716337e-05
1.011585e+01	-1.736221e-05
1.017428e+01	-1.756336e-05
1.023305e+01	-1.776683e-05
1.029215e+01	-1.797267e-05
1.035160e+01	-1.818089e-05
1.041139e+01	-1.839152e-05
1.047153e+01	-1.860459e-05
1.053201e+01	-1.882013e-05
1.059284e+01	-1.903816e-05
1.065403e+01	-1.925872e-05
1.071556e+01	-1.948184e-05
1.077746e+01	-1.970754e-05
1.083971e+01	-1.993586e-05
1.090232e+01	-2.016682e-05
1.096529e+01	-2.040046e-05
1.102862e+01	-2.063680e-05
1.109232e+01	-2.087589e-05
1.115639e+01	-2.111774e-05
1.122083e+01	-2.136239e-05
1.128564e+01	-2.160988e-05
1.135083e+01	-2.186024e-05
1.141639e+01	-2.211349e-05
1.148233e+01	-2.236968e-05
1.154865e+01	-2.262884e-05
1.161536e+01	-2.289100e-05
1.168245e+01	-2.315620e-05
1.174992e+01	-2.342447e-05
1.181779e+01	-2.369585e-05
1.188605e+01	-2.397037e-05
1.195470e+01	-2.424808e-05
1.202375e+01	-2.452900e-05
1.209320e+01	-2.481317e-05
1.216305e+01	-2.510064e-05
1.223330e+01	-2.539143e-05
1.230396e+01	-2.568560e-05
1.237503e+01	-2.598317e-05
1.244651e+01	-2.628420e-05
1.251840e+01	-2.658870e-05
1.259070e+01	-2.689674e-05
1.266343e+01	-2.720835e-05
1.273657e+01	-2.752356e-05
1.281014e+01	-2.784243e-05
1.288413e+01	-2.816499e-05
1.295855e+01	-2.849129e-05
1.303339e+01	-2.882137e-05
1.310867e+01	-2.915527e-05
1.318439e+01	-2.949304e-05
1.326054e+01	-2.983472e-05
1.333713e+01	-3.018037e-05
1.341417e+01	-3.053001e-05
1.349165e+01	-3.088371e-05
1.356958e+01	-3.124151e-05
1.364795e+01	-3.160345e-05
1.372678e+01	-3.196958e-05
1.380607e+01	-3.233995e-05
1.388581e+01	-3.271462e-05
1.396602e+01	-3.309363e-05
1.404668e+01	-3.347702e-05
1.412782e+01	-3.386486e-05
1.420942e+01	-3.425720e-05
1.429149e+01	-3.465407e-05
1.437404e+01	-3.505555e-05
1.445706e+01	-3.546168e-05
1.454057e+01	-3.587251e-05
1.462455e+01	-3.628810e-05
1.470902e+01	-3.670850e-05
1.479398e+01	-3.713378e-05
1.487943e+01	-3.756398e-05
1.496537e+01	-3.799917e-05
1.505181e+01	-3.843940e-05
1.513875e+01	-3.888473e-05
1.522619e+01	-3.933522e-05
1.531414e+01	-3.979093e-05
1.540259e+01	-4.025191e-05
1.549156e+01	-4.071824e-05
1.558103e+01	-4.118997e-05
1.567103e+01	-4.166717e-05
1.576155e+01	-4.214989e-05
1.585258e+01	-4.263820e-05
1.594415e+01	-4.313218e-05
1.603624e+01	-4.363187e-05
1.612886e+01	-4.413736e-05
1.622202e+01	-4.464870e-05
1.631572e+01	-4.516596e-05
1.640996e+01	-4.568922e-05
1.650474e+01	-4.621854e-05
1.660008e+01	-4.675399e-05
1.669596e+01	-4.729565e-05
1.679239e+01	-4.784358e-05
1.688938e+01	-4.839786e-05
1.698694e+01	-4.895856e-05
1.708505e+01	-4.952575e-05
1.718373e+01	-5.009952e-05
1.728299e+01	-5.067993e-05
1.738281e+01	-5.126707e-05
1.748322e+01	-5.186101e-05
1.758420e+01	-5.246183e-05
1.768576e+01	-5.306961e-05
1.778792e+01	-5.368443e-05
1.789066e+01	-5.430638e-05
1.799399e+01	-5.493553e-05
1.809793e+01	-5.557197e-05
1.820246e+01	-5.621578e-05
1.830760e+01	-5.686705e-05
1.841334e+01	-5.752587e-05
1.851969e+01	-5.819232e-05
1.862666e+01	-5.886649e-05
1.873425e+01	-5.954847e-05
1.884246e+01	-6.023835e-05
1.895129e+01	-6.093622e-05
1.906075e+01	-6.164218e-05
1.917085e+01	-6.235632e-05
1.928158e+01	-6.307873e-05
1.939295e+01	-6.380951e-05
1.950496e+01	-6.454875e-05
1.961762e+01	-6.529656e-05
1.973093e+01	-6.605304e-05
1.984490e+01	-6.681827e-05
1.995952e+01	-6.759238e-05
2.007480e+01	-6.837545e-05
2.019076e+01	-6.916759e-05
2.030738e+01	-6.996891e-05
2.042467e+01	-7.077951e-05
2.054264e+01	-7.159950e-05
2.066130e+01	-7.242900e-05
2.078064e+01	-7.326810e-05
2.090066e+01	-7.411692e-05
2.102139e+01	-7.497558e-05
2.114280e+01	-7.584419e-05
2.126492e+01	-7.672286e-05
2.138775e+01	-7.761170e-05
2.151128e+01	-7.851085e-05
2.163553e+01	-7.942041e-05
2.176050e+01	-8.034051e-05
2.188619e+01	-8.127127e-05
2.201260e+01	-8.221281e-05
2.213974e+01	-8.316526e-05
2.226762e+01	-8.412874e-05
2.239624e+01	-8.510339e-05
2.252560e+01	-8.608933e-05
2.265571e+01	-8.708668e-05
2.278656e+01	-8.809560e-05
2.291818e+01	-8.911620e-05
2.305055e+01	-9.014862e-05
2.318369e+01	-9.119301e-05
2.331760e+01	-9.224950e-05
2.345228e+01	-9.331822e-05
2.358774e+01	-9.439933e-05
2.372398e+01	-9.549296e-05
2.386101e+01	-9.659926e-05
2.399883e+01	-9.771837e-05
2.413745e+01	-9.885046e-05
2.427686e+01	-9.999565e-05
2.441709e+01	-1.011541e-04
2.455812e+01	-1.023260e-04
2.469997e+01	-1.035115e-04
2.484263e+01	-1.047107e-04
2.498612e+01	-1.059237e-04
2.513044e+01	-1.071509e-04
2.527559e+01	-1.083922e-04
2.542158e+01	-1.096480e-04
2.556842e+01	-1.109183e-04
2.571610e+01	-1.122033e-04
2.586463e+01	-1.135032e-04
2.601403e+01	-1.148181e-04
2.616428e+01	-1.161483e-04
2.631541e+01	-1.174939e-04
2.646740e+01	-1.188551e-04
2.662028e+01	-1.202320e-04
2.677404e+01	-1.216249e-04
2.692868e+01	-1.230340e-04
2.708422e+01	-1.244593e-04
2.724066e+01	-1.259012e-04
2.739800e+01	-1.273598e-04
2.755625e+01	-1.288352e-04
2.771541e+01	-1.303278e-04
2.787550e+01	-1.318377e-04
2.803650e+01	-1.333650e-04
2.819844e+01	-1.349101e-04
2.836131e+01	-1.364730e-04
2.852513e+01	-1.380541e-04
2.868989e+01	-1.396534e-04
2.885560e+01	-1.412713e-04
2.902227e+01	-1.429080e-04
2.918990e+01	-1.445636e-04
2.935850e+01	-1.462384e-04
2.952807e+01	-1.479326e-04
2.969863e+01	-1.496464e-04
2.987016e+01	-1.513800e-04
3.004269e+01	-1.531338e-04
3.021622e+01	-1.549078e-04
3.039075e+01	-1.567025e-04
3.056628e+01	-1.585179e-04
3.074283e+01	-1.603543e-04
3.092040e+01	-1.622120e-04
3.109900e+01	-1.640913e-04
3.127862e+01	-1.659923e-04
3.145929e+01	-1.679153e-04
3.164099e+01	-1.698606e-04
3.182375e+01	-1.718284e-04
3.200756e+01	-1.738191e-04
3.219244e+01	-1.758328e-04
3.237838e+01	-1.778698e-04
3.256540e+01	-1.799304e-04
3.275349e+01	-1.820150e-04
3.294268e+01	-1.841236e-04
3.313295e+01	-1.862567e-04
3.332433e+01	-1.884145e-04
3.351681e+01	-1.905973e-04
3.371040e+01	-1.928053e-04
3.390511e+01	-1.950390e-04
3.410094e+01	-1.972985e-04
3.429791e+01	-1.995842e-04
3.449601e+01	-2.018964e-04
3.469526e+01	-2.042354e-04
3.489566e+01	-2.066014e-04
3.509721e+01	-2.089949e-04
3.529993e+01	-2.114161e-04
3.550382e+01	-2.138654e-04
3.570889e+01	-2.163430e-04
3.591515e+01	-2.188493e-04
3.612259e+01	-2.213847e-04
3.633123e+01	-2.239494e-04
3.654108e+01	-2.265439e-04
3.675214e+01	-2.291684e-04
3.696442e+01	-2.318233e-04
3.717792e+01	-2.345090e-04
3.739266e+01	-2.372257e-04
3.760864e+01	-2.399740e-04
3.782587e+01	-2.427541e-04
3.804435e+01	-2.455664e-04
3.826409e+01	-2.484112e-04
3.848510e+01	-2.512891e-04
3.870739e+01	-2.542002e-04
3.893096e+01	-2.571451e-04
3.915583e+01	-2.601242e-04
3.938199e+01	-2.631377e-04
3.960946e+01	-2.661861e-04
3.983824e+01	-2.692698e-04
4.006834e+01	-2.723893e-04
4.029978e+01	-2.755449e-04
4.053255e+01	-2.787371e-04
4.076666e+01	-2.819662e-04
4.100213e+01	-2.852328e-04
4.123896e+01	-2.885372e-04
4.147715e+01	-2.918798e-04
4.171672e+01	-2.952612e-04
4.195767e+01	-2.986818e-04
4.220002e+01	-3.021420e-04
4.244377e+01	-3.056423e-04
4.268892e+01	-3.091831e-04
4.293549e+01	-3.127649e-04
4.318348e+01	-3.163883e-04
4.343291e+01	-3.200536e-04
4.368377e+01	-3.237613e-04
4.393609e+01	-3.275121e-04
4.418986e+01	-3.313062e-04
4.444510e+01	-3.351444e-04
4.470182e+01	-3.390270e-04
4.496001e+01	-3.429545e-04
4.521970e+01	-3.469276e-04
4.548089e+01	-3.509467e-04
4.574358e+01	-3.550123e-04
4.600779e+01	-3.591251e-04
4.627353e+01	-3.632855e-04
4.654081e+01	-3.674941e-04
4.680963e+01	-3.717514e-04
4.708000e+01	-3.760580e-04
4.735193e+01	-3.804146e-04
4.762543e+01	-3.848216e-04
4.790051e+01	-3.892797e-04
4.817719e+01	-3.937894e-04
4.845545e+01	-3.983513e-04
4.873533e+01	-4.029661e-04
4.901682e+01	-4.076344e-04
4.929994e+01	-4.123567e-04
4.958470e+01	-4.171338e-04
4.987110e+01	-4.219661e-04
5.015915e+01	-4.268545e-04
5.044887e+01	-4.317995e-04
5.074026e+01	-4.368017e-04
5.103333e+01	-4.418619e-04
5.132810e+01	-4.469808e-04
5.162457e+01	-4.521589e-04
5.192275e+01	-4.573970e-04
5.222265e+01	-4.626958e-04
5.252429e+01	-4.680560e-04
5.282767e+01	-4.734782e-04
5.313280e+01	-4.789633e-04
5.343969e+01	-4.845119e-04
5.374836e+01	-4.901248e-04
5.405880e+01	-4.958027e-04
5.437105e+01	-5.015464e-04
5.468509e+01	-5.073566e-04
5.500095e+01	-5.132341e-04
5.531863e+01	-5.191797e-04
5.563815e+01	-5.251942e-04
5.595951e+01	-5.312784e-04
5.628273e+01	-5.374330e-04
5.660782e+01	-5.436589e-04
5.693479e+01	-5.499569e-04
5.726364e+01	-5.563279e-04
5.759439e+01	-5.627727e-04
5.792705e+01	-5.692922e-04
5.826164e+01	-5.758872e-04
5.859815e+01	-5.825585e-04
5.893662e+01	-5.893072e-04
5.927703e+01	-5.961340e-04
5.961941e+01	-6.030399e-04
5.996377e+01	-6.100258e-04
6.031012e+01	-6.170926e-04
6.065847e+01	-6.242413e-04
6.100883e+01	-6.314727e-04
6.136121e+01	-6.387880e-04
6.171563e+01	-6.461880e-04
6.207210e+01	-6.536737e-04
6.243063e+01	-6.612461e-04
6.279122e+01	-6.689062e-04
6.315390e+01	-6.766551e-04
6.351868e+01	-6.844937e-04
6.388556e+01	-6.924231e-04
6.425456e+01	-7.004444e-04
6.462569e+01	-7.085585e-04
6.499897e+01	-7.167667e-04
6.537440e+01	-7.250700e-04
6.575200e+01	-7.334694e-04
6.613178e+01	-7.419661e-04
6.651375e+01	-7.505612e-04
6.689793e+01	-7.592559e-04
6.728433e+01	-7.680514e-04
6.767297e+01	-7.769486e-04
6.806384e+01	-7.859490e-04
6.845698e+01	-7.950536e-04
6.885238e+01	-8.042637e-04
6.925007e+01	-8.135804e-04
6.965005e+01	-8.230051e-04
7.005235e+01	-8.325389e-04
7.045697e+01	-8.421831e-04
7.086393e+01	-8.519391e-04
7.127323e+01	-8.618081e-04
7.168490e+01	-8.717914e-04
7.209895e+01	-8.818903e-04
7.251539e+01	-8.921062e-04
7.293424e+01	-9.024404e-04
7.335551e+01	-9.128943e-04
7.377920e+01	-9.234693e-04
7.420535e+01	-9.341668e-04
7.463396e+01	-9.449882e-04
7.506504e+01	-9.559349e-04
7.549861e+01	-9.670085e-04
7.593469e+01	-9.782103e-04
7.637328e+01	-9.895418e-04
7.681441e+01	-1.001005e-03
7.725809e+01	-1.012600e-03
7.770433e+01	-1.024330e-03
7.815315e+01	-1.036196e-03
7.860456e+01	-1.048199e-03
7.905857e+01	-1.060341e-03
7.951521e+01	-1.072624e-03
7.997449e+01	-1.085049e-03
8.043642e+01	-1.097618e-03
8.090102e+01	-1.110333e-03
8.136830e+01	-1.123194e-03
8.183828e+01	-1.136205e-03
8.231097e+01	-1.149367e-03
8.278640e+01	-1.162681e-03
8.326457e+01	-1.176149e-03
8.374550e+01	-1.189773e-03
8.422921e+01	-1.203555e-03
8.471572e+01	-1.217496e-03
8.520503e+01	-1.231600e-03
8.569717e+01	-1.245866e-03
8.619215e+01	-1.260297e-03
8.669000e+01	-1.274896e-03
8.719071e+01	-1.289664e-03
8.769432e+01	-1.304603e-03
8.820084e+01	-1.319715e-03
8.871029e+01	-1.335002e-03
8.922267e+01	-1.350466e-03
8.973802e+01	-1.366109e-03
9.025634e+01	-1.381933e-03
9.077766e+01	-1.397940e-03
9.130199e+01	-1.414133e-03
9.182935e+01	-1.430514e-03
9.235975e+01	-1.447084e-03
9.289321e+01	-1.463846e-03
9.342976e+01	-1.480802e-03
9.396941e+01	-1.497955e-03
9.451217e+01	-1.515306e-03
9.505807e+01	-1.532858e-03
9.560712e+01	-1.550613e-03
9.615934e+01	-1.568574e-03
9.671476e+01	-1.586743e-03
9.727338e+01	-1.605123e-03
9.783522e+01	-1.623715e-03
9.840032e+01	-1.642523e-03
9.896867e+01	-1.661548e-03
9.954031e+01	-1.680794e-03
1.001153e+02	-1.700263e-03
1.006935e+02	-1.719957e-03
1.012751e+02	-1.739879e-03
1.018601e+02	-1.760032e-03
1.024484e+02	-1.780418e-03
1.030402e+02	-1.801040e-03
1.036353e+02	-1.821901e-03
1.042339e+02	-1.843004e-03
1.048360e+02	-1.864351e-03
1.054415e+02	-1.885946e-03
1.060505e+02	-1.907790e-03
1.066631e+02	-1.929887e-03
1.072791e+02	-1.952241e-03
1.078988e+02	-1.974853e-03
1.085220e+02	-1.997727e-03
1.091488e+02	-2.020865e-03
1.097793e+02	-2.044272e-03
1.104133e+02	-2.067950e-03
1.110511e+02	-2.091902e-03
1.116925e+02	-2.116131e-03
1.123376e+02	-2.140641e-03
1.129865e+02	-2.165435e-03
1.136391e+02	-2.190516e-03
1.142955e+02	-2.215887e-03
1.149556e+02	-2.241552e-03
1.156196e+02	-2.267514e-03
1.162874e+02	-2.293777e-03
1.169591e+02	-2.320344e-03
1.176347e+02	-2.347218e-03
1.183141e+02	-2.374404e-03
1.189975e+02	-2.401905e-03
1.196848e+02	-2.429723e-03
1.203761e+02	-2.457865e-03
1.210714e+02	-2.486331e-03
1.217707e+02	-2.515128e-03
1.224740e+02	-2.544258e-03
1.231814e+02	-2.573725e-03
1.238929e+02	-2.603533e-03
1.246085e+02	-2.633687e-03
1.253283e+02	-2.664189e-03
1.260522e+02	-2.695045e-03
1.267802e+02	-2.726258e-03
1.275125e+02	-2.757832e-03
1.282490e+02	-2.789772e-03
1.289898e+02	-2.822082e-03
1.297348e+02	-2.854766e-03
1.304842e+02	-2.887828e-03
1.312378e+02	-2.921273e-03
1.319959e+02	-2.955105e-03
1.327583e+02	-2.989329e-03
1.335251e+02	-3.023949e-03
1.342963e+02	-3.058970e-03
1.350720e+02	-3.094397e-03
1.358522e+02	-3.130233e-03
1.366368e+02	-3.166484e-03
1.374260e+02	-3.203155e-03
1.382198e+02	-3.240251e-03
1.390182e+02	-3.277776e-03
1.398211e+02	-3.315735e-03
1.406287e+02	-3.354134e-03
1.414410e+02	-3.392977e-03
1.422579e+02	-3.432270e-03
1.430796e+02	-3.472018e-03
1.439060e+02	-3.512226e-03
1.447372e+02	-3.552900e-03
1.455732e+02	-3.594044e-03
1.464141e+02	-3.635664e-03
1.472597e+02	-3.677767e-03
1.481103e+02	-3.720356e-03
1.489658e+02	-3.763439e-03
1.498262e+02	-3.807020e-03
1.506916e+02	-3.851106e-03
1.515620e+02	-3.895702e-03
1.524374e+02	-3.940814e-03
1.533179e+02	-3.986448e-03
1.542034e+02	-4.032611e-03
1.550941e+02	-4.079308e-03
1.559899e+02	-4.126545e-03
1.568909e+02	-4.174329e-03
1.577971e+02	-4.222666e-03
1.587085e+02	-4.271563e-03
1.596252e+02	-4.321026e-03
1.605472e+02	-4.371060e-03
1.614745e+02	-4.421675e-03
1.624072e+02	-4.472874e-03
1.633453e+02	-4.524667e-03
1.642887e+02	-4.577059e-03
1.652377e+02	-4.630057e-03
1.661921e+02	-4.683668e-03
1.671520e+02	-4.737900e-03
1.681175e+02	-4.792759e-03
1.690885e+02	-4.848254e-03
1.700651e+02	-4.904390e-03
1.710474e+02	-4.961176e-03
1.720354e+02	-5.018620e-03
1.730291e+02	-5.076728e-03
1.740285e+02	-5.135508e-03
1.750337e+02	-5.194968e-03
1.760446e+02	-5.255117e-03
1.770615e+02	-5.315962e-03
1.780842e+02	-5.377510e-03
1.791128e+02	-5.439771e-03
1.801473e+02	-5.502752e-03
1.811878e+02	-5.566462e-03
1.822344e+02	-5.630909e-03
1.832870e+02	-5.696102e-03
1.843456e+02	-5.762049e-03
1.854104e+02	-5.828758e-03
1.864813e+02	-5.896240e-03
1.875584e+02	-5.964503e-03
1.886418e+02	-6.033555e-03
1.897313e+02	-6.103406e-03
1.908272e+02	-6.174065e-03
1.919294e+02	-6.245542e-03
1.930380e+02	-6.317845e-03
1.941530e+02	-6.390985e-03
1.952744e+02	-6.464971e-03
1.964023e+02	-6.539813e-03
1.975367e+02	-6.615520e-03
1.986777e+02	-6.692104e-03
1.998252e+02	-6.769573e-03
2.009794e+02	-6.847938e-03
2.021403e+02	-6.927210e-03
2.033078e+02	-7.007398e-03
2.044821e+02	-7.088515e-03
2.056632e+02	-7.170569e-03
2.068511e+02	-7.253572e-03
2.080459e+02	-7.337536e-03
2.092475e+02	-7.422470e-03
2.104561e+02	-7.508387e-03
2.116717e+02	-7.595297e-03
2.128943e+02	-7.683212e-03
2.141240e+02	-7.772145e-03
2.153608e+02	-7.862105e-03
2.166047e+02	-7.953106e-03
2.178558e+02	-8.045159e-03
2.191141e+02	-8.138277e-03
2.203797e+02	-8.232471e-03
2.216526e+02	-8.327755e-03
2.229329e+02	-8.424140e-03
2.242205e+02	-8.521640e-03
2.255156e+02	-8.620267e-03
2.268182e+02	-8.720035e-03
2.281283e+02	-8.820956e-03
2.294459e+02	-8.923044e-03
2.307712e+02	-9.026312e-03
2.321041e+02	-9.130774e-03
2.334447e+02	-9.236443e-03
2.347931e+02	-9.343334e-03
2.361493e+02	-9.451461e-03
2.375133e+02	-9.560838e-03
2.388851e+02	-9.671479e-03
2.402649e+02	-9.783399e-03
2.416527e+02	-9.896613e-03
2.430484e+02	-1.001113e-02
2.444523e+02	-1.012698e-02
2.458642e+02	-1.024417e-02
2.472843e+02	-1.036271e-02
2.487126e+02	-1.048261e-02
2.501492e+02	-1.060391e-02
2.515940e+02	-1.072661e-02
2.530472e+02	-1.085072e-02
2.545088e+02	-1.097627e-02
2.559789e+02	-1.110327e-02
2.574574e+02	-1.123174e-02
2.589444e+02	-1.136169e-02
2.604401e+02	-1.149314e-02
2.619444e+02	-1.162611e-02
2.634574e+02	-1.176062e-02
2.649791e+02	-1.189669e-02
2.665096e+02	-1.203432e-02
2.680489e+02	-1.217355e-02
2.695972e+02	-1.231438e-02
2.711544e+02	-1.245684e-02
2.727205e+02	-1.260094e-02
2.742958e+02	-1.274671e-02
2.758801e+02	-1.289417e-02
2.774736e+02	-1.304333e-02
2.790762e+02	-1.319421e-02
2.806882e+02	-1.334683e-02
2.823094e+02	-1.350121e-02
2.839400e+02	-1.365738e-02
2.855800e+02	-1.381535e-02
2.872295e+02	-1.397515e-02
2.888886e+02	-1.413679e-02
2.905572e+02	-1.430030e-02
2.922354e+02	-1.446570e-02
2.939234e+02	-1.463300e-02
2.956211e+02	-1.480224e-02
2.973286e+02	-1.497343e-02
2.990459e+02	-1.514660e-02
3.007732e+02	-1.532176e-02
3.025104e+02	-1.549895e-02
3.042577e+02	-1.567819e-02
3.060151e+02	-1.585949e-02
3.077826e+02	-1.604289e-02
3.095604e+02	-1.622840e-02
3.113484e+02	-1.641605e-02
3.131467e+02	-1.660587e-02
3.149554e+02	-1.679788e-02
3.167746e+02	-1.699211e-02
3.186043e+02	-1.718858e-02
3.204445e+02	-1.738731e-02
3.222954e+02	-1.758834e-02
3.241570e+02	-1.779168e-02
3.260293e+02	-1.799738e-02
3.279124e+02	-1.820544e-02
3.298064e+02	-1.841591e-02
3.317114e+02	-1.862880e-02
3.336273e+02	-1.884415e-02
3.355544e+02	-1.906199e-02
3.374925e+02	-1.928233e-02
3.394418e+02	-1.950522e-02
3.414024e+02	-1.973068e-02
3.433744e+02	-1.995874e-02
3.453577e+02	-2.018942e-02
3.473525e+02	-2.042277e-02
3.493588e+02	-2.065881e-02
3.513766e+02	-2.089757e-02
3.534062e+02	-2.113908e-02
3.554474e+02	-2.138338e-02
3.575005e+02	-2.163049e-02
3.595654e+02	-2.188046e-02
3.616422e+02	-2.213330e-02
3.637311e+02	-2.238906e-02
3.658320e+02	-2.264776e-02
3.679450e+02	-2.290945e-02
3.700702e+02	-2.317415e-02
3.722077e+02	-2.344190e-02
3.743576e+02	-2.371274e-02
3.765199e+02	-2.398670e-02
3.786946e+02	-2.426381e-02
3.808820e+02	-2.454411e-02
3.830819e+02	-2.482765e-02
3.852946e+02	-2.511445e-02
3.875200e+02	-2.540455e-02
3.897583e+02	-2.569800e-02
3.920096e+02	-2.599482e-02
3.942738e+02	-2.629507e-02
3.965511e+02	-2.659877e-02
3.988416e+02	-2.690596e-02
4.011452e+02	-2.721670e-02
4.034622e+02	-2.753101e-02
4.057926e+02	-2.784894e-02
4.081365e+02	-2.817052e-02
4.104938e+02	-2.849581e-02
4.128648e+02	-2.882485e-02
4.152495e+02	-2.915766e-02
4.176480e+02	-2.949431e-02
4.200603e+02	-2.983484e-02
4.224866e+02	-3.017928e-02
4.249268e+02	-3.052768e-02
4.273812e+02	-3.088009e-02
4.298497e+02	-3.123655e-02
4.323325e+02	-3.159712e-02
4.348297e+02	-3.196183e-02
4.373412e+02	-3.233073e-02
4.398673e+02	-3.270388e-02
4.424079e+02	-3.308132e-02
4.449633e+02	-3.346309e-02
4.475334e+02	-3.384926e-02
4.501183e+02	-3.423986e-02
4.527182e+02	-3.463495e-02
4.553330e+02	-3.503458e-02
4.579630e+02	-3.543881e-02
4.606082e+02	-3.584768e-02
4.632687e+02	-3.626125e-02
4.659445e+02	-3.667956e-02
4.686358e+02	-3.710269e-02
4.713426e+02	-3.753067e-02
4.740650e+02	-3.796357e-02
4.768032e+02	-3.840144e-02
4.795572e+02	-3.884434e-02
4.823271e+02	-3.929232e-02
4.851130e+02	-3.974544e-02
4.879150e+02	-4.020377e-02
4.907332e+02	-4.066735e-02
4.935676e+02	-4.113626e-02
4.964185e+02	-4.161055e-02
4.992858e+02	-4.209028e-02
5.021696e+02	-4.257551e-02
5.050701e+02	-4.306631e-02
5.079874e+02	-4.356273e-02
5.109215e+02	-4.406486e-02
5.138726e+02	-4.457273e-02
5.168407e+02	-4.508644e-02
5.198259e+02	-4.560603e-02
5.228284e+02	-4.613158e-02
5.258482e+02	-4.666315e-02
5.288855e+02	-4.720081e-02
5.319403e+02	-4.774463e-02
5.350128e+02	-4.829469e-02
5.381030e+02	-4.885104e-02
5.412111e+02	-4.941377e-02
5.443371e+02	-4.998294e-02
5.474812e+02	-5.055863e-02
5.506434e+02	-5.114092e-02
5.538239e+02	-5.172986e-02
5.570228e+02	-5.232555e-02
5.602401e+02	-5.292806e-02
5.634760e+02	-5.353746e-02
5.667306e+02	-5.415384e-02
5.700040e+02	-5.477726e-02
5.732964e+02	-5.540782e-02
5.766077e+02	-5.604559e-02
5.799382e+02	-5.669065e-02
5.832879e+02	-5.734309e-02
5.866569e+02	-5.800298e-02
5.900454e+02	-5.867042e-02
5.934535e+02	-5.934549e-02
5.968813e+02	-6.002827e-02
6.003288e+02	-6.071885e-02
6.037963e+02	-6.141731e-02
6.072838e+02	-6.212376e-02
6.107914e+02	-6.283827e-02
6.143194e+02	-6.356094e-02
6.178676e+02	-6.429186e-02
6.214364e+02	-6.503112e-02
6.250258e+02	-6.577881e-02
6.286359e+02	-6.653504e-02
6.322669e+02	-6.729989e-02
6.359189e+02	-6.807347e-02
6.395919e+02	-6.885587e-02
6.432862e+02	-6.964718e-02
6.470017e+02	-7.044752e-02
6.507388e+02	-7.125698e-02
6.544974e+02	-7.207566e-02
6.582778e+02	-7.290367e-02
6.620800e+02	-7.374111e-02
6.659041e+02	-7.458809e-02
6.697504e+02	-7.544471e-02
6.736188e+02	-7.631109e-02
6.775096e+02	-7.718732e-02
6.814229e+02	-7.807352e-02
6.853587e+02	-7.896981e-02
6.893173e+02	-7.987629e-02
6.932988e+02	-8.079308e-02
6.973033e+02	-8.172029e-02
7.013309e+02	-8.265804e-02
