Frequency(Hz)	Magnitude(dB)
1.000000e+01	-2.086588e+00
1.005776e+01	-2.105875e+00
1.011585e+01	-2.125085e+00
1.017428e+01	-2.144697e+00
1.023305e+01	-2.164178e+00
1.029215e+01	-2.183903e+00
1.035160e+01	-2.203552e+00
1.041139e+01	-2.223685e+00
1.047153e+01	-2.243829e+00
1.053201e+01	-2.264232e+00
1.059284e+01	-2.284454e+00
1.065403e+01	-2.304843e+00
1.071556e+01	-2.325621e+00
1.077746e+01	-2.346440e+00
1.083971e+01	-2.367620e+00
1.090232e+01	-2.388739e+00
1.096529e+01	-2.409509e+00
1.102862e+01	-2.430919e+00
1.109232e+01	-2.452823e+00
1.115639e+01	-2.474333e+00
1.122083e+01	-2.495987e+00
1.128564e+01	-2.517974e+00
1.135083e+01	-2.540196e+00
1.141639e+01	-2.562359e+00
1.148233e+01	-2.584806e+00
1.154865e+01	-2.606959e+00
1.161536e+01	-2.629876e+00
1.168245e+01	-2.652551e+00
1.174992e+01	-2.675454e+00
1.181779e+01	-2.698560e+00
1.188605e+01	-2.721563e+00
1.195470e+01	-2.745279e+00
1.202375e+01	-2.768698e+00
1.209320e+01	-2.792113e+00
1.216305e+01	-2.816274e+00
1.223330e+01	-2.840125e+00
1.230396e+01	-2.864118e+00
1.237503e+01	-2.888271e+00
1.244651e+01	-2.912686e+00
1.251840e+01	-2.937523e+00
1.259070e+01	-2.962310e+00
1.266343e+01	-2.987018e+00
1.273657e+01	-3.011497e+00
1.281014e+01	-3.037046e+00
1.288413e+01	-3.062376e+00
1.295855e+01	-3.087490e+00
1.303339e+01	-3.113087e+00
1.310867e+01	-3.138683e+00
1.318439e+01	-3.164511e+00
1.326054e+01	-3.190518e+00
1.333713e+01	-3.216298e+00
1.341417e+01	-3.242759e+00
1.349165e+01	-3.269248e+00
1.356958e+01	-3.295627e+00
1.364795e+01	-3.322444e+00
1.372678e+01	-3.349145e+00
1.380607e+01	-3.376012e+00
1.388581e+01	-3.403040e+00
1.396602e+01	-3.430502e+00
1.404668e+01	-3.457791e+00
1.412782e+01	-3.485293e+00
1.420942e+01	-3.513122e+00
1.429149e+01	-3.541224e+00
1.437404e+01	-3.568897e+00
1.445706e+01	-3.596886e+00
1.454057e+01	-3.625351e+00
1.462455e+01	-3.653425e+00
1.470902e+01	-3.681978e+00
1.479398e+01	-3.710815e+00
1.487943e+01	-3.739504e+00
1.496537e+01	-3.768485e+00
1.505181e+01	-3.797805e+00
1.513875e+01	-3.826838e+00
1.522619e+01	-3.856309e+00
1.531414e+01	-3.885952e+00
1.540259e+01	-3.915853e+00
1.549156e+01	-3.945247e+00
1.558103e+01	-3.975092e+00
1.567103e+01	-4.004957e+00
1.576155e+01	-4.035218e+00
1.585258e+01	-4.065955e+00
1.594415e+01	-4.096188e+00
1.603624e+01	-4.127077e+00
1.612886e+01	-4.157707e+00
1.622202e+01	-4.188423e+00
1.631572e+01	-4.219466e+00
1.640996e+01	-4.250529e+00
1.650474e+01	-4.281862e+00
1.660008e+01	-4.313326e+00
1.669596e+01	-4.345020e+00
1.679239e+01	-4.376436e+00
1.688938e+01	-4.408450e+00
1.698694e+01	-4.440363e+00
1.708505e+01	-4.472628e+00
1.718373e+01	-4.504535e+00
1.728299e+01	-4.536761e+00
1.738281e+01	-4.569643e+00
1.748322e+01	-4.602097e+00
1.758420e+01	-4.634871e+00
1.768576e+01	-4.667751e+00
1.778792e+01	-4.701206e+00
1.789066e+01	-4.733875e+00
1.799399e+01	-4.767099e+00
1.809793e+01	-4.800838e+00
1.820246e+01	-4.834111e+00
1.830760e+01	-4.867767e+00
1.841334e+01	-4.901255e+00
1.851969e+01	-4.935475e+00
1.862666e+01	-4.969596e+00
1.873425e+01	-5.003648e+00
1.884246e+01	-5.037783e+00
1.895129e+01	-5.072324e+00
1.906075e+01	-5.106945e+00
1.917085e+01	-5.141434e+00
1.928158e+01	-5.176268e+00
1.939295e+01	-5.211449e+00
1.950496e+01	-5.246370e+00
1.961762e+01	-5.281496e+00
1.973093e+01	-5.316590e+00
1.984490e+01	-5.351851e+00
1.995952e+01	-5.387440e+00
2.007480e+01	-5.422934e+00
2.019076e+01	-5.458914e+00
2.030738e+01	-5.494929e+00
2.042467e+01	-5.530821e+00
2.054264e+01	-5.566451e+00
2.066130e+01	-5.603064e+00
2.078064e+01	-5.639581e+00
2.090066e+01	-5.675740e+00
2.102139e+01	-5.712093e+00
2.114280e+01	-5.748569e+00
2.126492e+01	-5.785615e+00
2.138775e+01	-5.822507e+00
2.151128e+01	-5.859131e+00
2.163553e+01	-5.896622e+00
2.176050e+01	-5.934014e+00
2.188619e+01	-5.971161e+00
2.201260e+01	-6.008830e+00
2.213974e+01	-6.046367e+00
2.226762e+01	-6.083953e+00
2.239624e+01	-6.121316e+00
2.252560e+01	-6.159307e+00
2.265571e+01	-6.197777e+00
2.278656e+01	-6.235242e+00
2.291818e+01	-6.273575e+00
2.305055e+01	-6.312058e+00
2.318369e+01	-6.350451e+00
2.331760e+01	-6.388718e+00
2.345228e+01	-6.427629e+00
2.358774e+01	-6.465909e+00
2.372398e+01	-6.504692e+00
2.386101e+01	-6.543360e+00
2.399883e+01	-6.582540e+00
2.413745e+01	-6.621710e+00
2.427686e+01	-6.660877e+00
2.441709e+01	-6.700547e+00
2.455812e+01	-6.739810e+00
2.469997e+01	-6.779175e+00
2.484263e+01	-6.818945e+00
2.498612e+01	-6.858575e+00
2.513044e+01	-6.898441e+00
2.527559e+01	-6.937842e+00
2.542158e+01	-6.977943e+00
2.556842e+01	-7.018163e+00
2.571610e+01	-7.058040e+00
2.586463e+01	-7.098140e+00
2.601403e+01	-7.138800e+00
2.616428e+01	-7.179294e+00
2.631541e+01	-7.219364e+00
2.646740e+01	-7.260273e+00
2.662028e+01	-7.300627e+00
2.677404e+01	-7.341691e+00
2.692868e+01	-7.382406e+00
2.708422e+01	-7.423158e+00
2.724066e+01	-7.464485e+00
2.739800e+01	-7.505550e+00
2.755625e+01	-7.546720e+00
2.771541e+01	-7.588207e+00
2.787550e+01	-7.629240e+00
2.803650e+01	-7.671007e+00
2.819844e+01	-7.712670e+00
2.836131e+01	-7.753581e+00
2.852513e+01	-7.795156e+00
2.868989e+01	-7.837262e+00
2.885560e+01	-7.878909e+00
2.902227e+01	-7.921116e+00
2.918990e+01	-7.962863e+00
2.935850e+01	-8.005057e+00
2.952807e+01	-8.047049e+00
2.969863e+01	-8.089202e+00
2.987016e+01	-8.131371e+00
3.004269e+01	-8.174178e+00
3.021622e+01	-8.216958e+00
3.039075e+01	-8.259073e+00
3.056628e+01	-8.301650e+00
3.074283e+01	-8.344059e+00
3.092040e+01	-8.387113e+00
3.109900e+01	-8.429845e+00
3.127862e+01	-8.472777e+00
3.145929e+01	-8.515473e+00
3.164099e+01	-8.558523e+00
3.182375e+01	-8.601331e+00
3.200756e+01	-8.644937e+00
3.219244e+01	-8.688098e+00
3.237838e+01	-8.731468e+00
3.256540e+01	-8.774780e+00
3.275349e+01	-8.818135e+00
3.294268e+01	-8.861749e+00
3.313295e+01	-8.905205e+00
3.332433e+01	-8.949241e+00
3.351681e+01	-8.992287e+00
3.371040e+01	-9.036135e+00
3.390511e+01	-9.079973e+00
3.410094e+01	-9.124351e+00
3.429791e+01	-9.168021e+00
3.449601e+01	-9.212694e+00
3.469526e+01	-9.256110e+00
3.489566e+01	-9.300283e+00
3.509721e+01	-9.344208e+00
3.529993e+01	-9.388970e+00
3.550382e+01	-9.432261e+00
3.570889e+01	-9.476950e+00
3.591515e+01	-9.521634e+00
3.612259e+01	-9.566198e+00
3.633123e+01	-9.610458e+00
3.654108e+01	-9.654862e+00
3.675214e+01	-9.699797e+00
3.696442e+01	-9.744639e+00
3.717792e+01	-9.789189e+00
3.739266e+01	-9.833875e+00
3.760864e+01	-9.879288e+00
3.782587e+01	-9.923485e+00
3.804435e+01	-9.968974e+00
3.826409e+01	-1.001361e+01
3.848510e+01	-1.005893e+01
3.870739e+01	-1.010386e+01
3.893096e+01	-1.014959e+01
3.915583e+01	-1.019448e+01
3.938199e+01	-1.023954e+01
3.960946e+01	-1.028546e+01
3.983824e+01	-1.033080e+01
4.006834e+01	-1.037555e+01
4.029978e+01	-1.042124e+01
4.053255e+01	-1.046624e+01
4.076666e+01	-1.051213e+01
4.100213e+01	-1.055812e+01
4.123896e+01	-1.060366e+01
4.147715e+01	-1.064954e+01
4.171672e+01	-1.069543e+01
4.195767e+01	-1.074039e+01
4.220002e+01	-1.078623e+01
4.244377e+01	-1.083232e+01
4.268892e+01	-1.087834e+01
4.293549e+01	-1.092468e+01
4.318348e+01	-1.097006e+01
4.343291e+01	-1.101581e+01
4.368377e+01	-1.106225e+01
4.393609e+01	-1.110847e+01
4.418986e+01	-1.115502e+01
4.444510e+01	-1.120057e+01
4.470182e+01	-1.124680e+01
4.496001e+01	-1.129333e+01
4.521970e+01	-1.133985e+01
4.548089e+01	-1.138661e+01
4.574358e+01	-1.143287e+01
4.600779e+01	-1.147873e+01
4.627353e+01	-1.152534e+01
4.654081e+01	-1.157205e+01
4.680963e+01	-1.161866e+01
4.708000e+01	-1.166534e+01
4.735193e+01	-1.171252e+01
4.762543e+01	-1.175846e+01
4.790051e+01	-1.180518e+01
4.817719e+01	-1.185174e+01
4.845545e+01	-1.189840e+01
4.873533e+01	-1.194585e+01
4.901682e+01	-1.199238e+01
4.929994e+01	-1.203903e+01
4.958470e+01	-1.208682e+01
4.987110e+01	-1.213369e+01
5.015915e+01	-1.218133e+01
5.044887e+01	-1.222717e+01
5.074026e+01	-1.227422e+01
5.103333e+01	-1.232140e+01
5.132810e+01	-1.236825e+01
5.162457e+01	-1.241530e+01
5.192275e+01	-1.246246e+01
5.222265e+01	-1.251016e+01
5.252429e+01	-1.255699e+01
5.282767e+01	-1.260403e+01
5.313280e+01	-1.265183e+01
5.343969e+01	-1.269879e+01
5.374836e+01	-1.274640e+01
5.405880e+01	-1.279419e+01
5.437105e+01	-1.284064e+01
5.468509e+01	-1.288864e+01
5.500095e+01	-1.293599e+01
5.531863e+01	-1.298395e+01
5.563815e+01	-1.303208e+01
5.595951e+01	-1.307936e+01
5.628273e+01	-1.312612e+01
5.660782e+01	-1.317356e+01
5.693479e+01	-1.322167e+01
5.726364e+01	-1.326964e+01
5.759439e+01	-1.331757e+01
5.792705e+01	-1.336499e+01
5.826164e+01	-1.341211e+01
5.859815e+01	-1.345960e+01
5.893662e+01	-1.350803e+01
5.927703e+01	-1.355563e+01
5.961941e+01	-1.360342e+01
5.996377e+01	-1.365118e+01
6.031012e+01	-1.369925e+01
6.065847e+01	-1.374756e+01
6.100883e+01	-1.379452e+01
6.136121e+01	-1.384317e+01
6.171563e+01	-1.389064e+01
6.207210e+01	-1.393911e+01
6.243063e+01	-1.398684e+01
6.279122e+01	-1.403535e+01
6.315390e+01	-1.408277e+01
6.351868e+01	-1.413052e+01
6.388556e+01	-1.417876e+01
6.425456e+01	-1.422731e+01
6.462569e+01	-1.427521e+01
6.499897e+01	-1.432394e+01
6.537440e+01	-1.437160e+01
6.575200e+01	-1.442105e+01
6.613178e+01	-1.446767e+01
6.651375e+01	-1.451750e+01
6.689793e+01	-1.456467e+01
6.728433e+01	-1.461275e+01
6.767297e+01	-1.466103e+01
6.806384e+01	-1.470994e+01
6.845698e+01	-1.475796e+01
6.885238e+01	-1.480672e+01
6.925007e+01	-1.485485e+01
6.965005e+01	-1.490292e+01
7.005235e+01	-1.495142e+01
7.045697e+01	-1.499980e+01
7.086393e+01	-1.504851e+01
7.127323e+01	-1.509691e+01
7.168490e+01	-1.514514e+01
7.209895e+01	-1.519441e+01
7.251539e+01	-1.524284e+01
7.293424e+01	-1.529094e+01
7.335551e+01	-1.533888e+01
7.377920e+01	-1.538816e+01
7.420535e+01	-1.543769e+01
7.463396e+01	-1.548476e+01
7.506504e+01	-1.553496e+01
7.549861e+01	-1.558338e+01
7.593469e+01	-1.563197e+01
7.637328e+01	-1.567922e+01
7.681441e+01	-1.572858e+01
7.725809e+01	-1.577680e+01
7.770433e+01	-1.582527e+01
7.815315e+01	-1.587526e+01
7.860456e+01	-1.592344e+01
7.905857e+01	-1.597194e+01
7.951521e+01	-1.602186e+01
7.997449e+01	-1.607012e+01
8.043642e+01	-1.611899e+01
8.090102e+01	-1.616739e+01
8.136830e+01	-1.621611e+01
8.183828e+01	-1.626504e+01
8.231097e+01	-1.631389e+01
8.278640e+01	-1.636270e+01
8.326457e+01	-1.641048e+01
8.374550e+01	-1.646022e+01
8.422921e+01	-1.650876e+01
8.471572e+01	-1.655817e+01
8.520503e+01	-1.660723e+01
8.569717e+01	-1.665624e+01
8.619215e+01	-1.670535e+01
8.669000e+01	-1.675529e+01
8.719071e+01	-1.680330e+01
8.769432e+01	-1.685193e+01
8.820084e+01	-1.690171e+01
8.871029e+01	-1.695090e+01
8.922267e+01	-1.699991e+01
8.973802e+01	-1.704760e+01
9.025634e+01	-1.709692e+01
9.077766e+01	-1.714691e+01
9.130199e+01	-1.719552e+01
9.182935e+01	-1.724473e+01
9.235975e+01	-1.729316e+01
9.289321e+01	-1.734285e+01
9.342976e+01	-1.739168e+01
9.396941e+01	-1.744244e+01
9.451217e+01	-1.749120e+01
9.505807e+01	-1.753877e+01
9.560712e+01	-1.758842e+01
9.615934e+01	-1.763778e+01
9.671476e+01	-1.768559e+01
9.727338e+01	-1.773512e+01
9.783522e+01	-1.778477e+01
9.840032e+01	-1.783426e+01
9.896867e+01	-1.788284e+01
9.954031e+01	-1.793390e+01
1.001153e+02	-1.798267e+01
1.006935e+02	-1.803140e+01
1.012751e+02	-1.808163e+01
1.018601e+02	-1.812968e+01
1.024484e+02	-1.817932e+01
1.030402e+02	-1.823071e+01
1.036353e+02	-1.827906e+01
1.042339e+02	-1.832502e+01
1.048360e+02	-1.837697e+01
1.054415e+02	-1.842551e+01
1.060505e+02	-1.847395e+01
1.066631e+02	-1.852332e+01
1.072791e+02	-1.857507e+01
1.078988e+02	-1.862188e+01
1.085220e+02	-1.867184e+01
1.091488e+02	-1.872214e+01
1.097793e+02	-1.877156e+01
1.104133e+02	-1.882089e+01
1.110511e+02	-1.887005e+01
1.116925e+02	-1.891914e+01
1.123376e+02	-1.896812e+01
1.129865e+02	-1.901835e+01
1.136391e+02	-1.906723e+01
1.142955e+02	-1.911737e+01
1.149556e+02	-1.916875e+01
1.156196e+02	-1.921688e+01
1.162874e+02	-1.926608e+01
1.169591e+02	-1.931390e+01
1.176347e+02	-1.936465e+01
1.183141e+02	-1.941284e+01
1.189975e+02	-1.946426e+01
1.196848e+02	-1.951216e+01
1.203761e+02	-1.956168e+01
1.210714e+02	-1.961136e+01
1.217707e+02	-1.966003e+01
1.224740e+02	-1.970929e+01
1.231814e+02	-1.976206e+01
1.238929e+02	-1.980989e+01
1.246085e+02	-1.985852e+01
1.253283e+02	-1.990777e+01
1.260522e+02	-1.995819e+01
1.267802e+02	-2.000610e+01
1.275125e+02	-2.005676e+01
1.282490e+02	-2.010727e+01
1.289898e+02	-2.015600e+01
1.297348e+02	-2.020507e+01
1.304842e+02	-2.025358e+01
1.312378e+02	-2.030400e+01
1.319959e+02	-2.035592e+01
1.327583e+02	-2.040330e+01
1.335251e+02	-2.045423e+01
1.342963e+02	-2.050267e+01
1.350720e+02	-2.055199e+01
1.358522e+02	-2.060168e+01
1.366368e+02	-2.065032e+01
1.374260e+02	-2.070163e+01
1.382198e+02	-2.075155e+01
1.390182e+02	-2.080264e+01
1.398211e+02	-2.085181e+01
1.406287e+02	-2.089927e+01
1.414410e+02	-2.094779e+01
1.422579e+02	-2.100066e+01
1.430796e+02	-2.104942e+01
1.439060e+02	-2.109872e+01
1.447372e+02	-2.114923e+01
1.455732e+02	-2.119698e+01
1.464141e+02	-2.124765e+01
1.472597e+02	-2.129680e+01
1.481103e+02	-2.134698e+01
1.489658e+02	-2.139789e+01
1.498262e+02	-2.144579e+01
1.506916e+02	-2.149783e+01
1.515620e+02	-2.154624e+01
1.524374e+02	-2.159469e+01
1.533179e+02	-2.164620e+01
1.542034e+02	-2.169335e+01
1.550941e+02	-2.174398e+01
1.559899e+02	-2.179430e+01
1.568909e+02	-2.184215e+01
1.577971e+02	-2.189517e+01
1.587085e+02	-2.194158e+01
1.596252e+02	-2.199358e+01
1.605472e+02	-2.204384e+01
1.614745e+02	-2.209381e+01
1.624072e+02	-2.214222e+01
1.633453e+02	-2.219198e+01
1.642887e+02	-2.224002e+01
1.652377e+02	-2.229251e+01
1.661921e+02	-2.234071e+01
1.671520e+02	-2.239120e+01
1.681175e+02	-2.243953e+01
1.690885e+02	-2.248924e+01
1.700651e+02	-2.253822e+01
1.710474e+02	-2.258828e+01
1.720354e+02	-2.264033e+01
1.730291e+02	-2.268959e+01
1.740285e+02	-2.273906e+01
1.750337e+02	-2.278845e+01
1.760446e+02	-2.283703e+01
1.770615e+02	-2.288788e+01
1.780842e+02	-2.294067e+01
1.791128e+02	-2.298981e+01
1.801473e+02	-2.303863e+01
1.811878e+02	-2.308893e+01
1.822344e+02	-2.313794e+01
1.832870e+02	-2.318591e+01
1.843456e+02	-2.323688e+01
1.854104e+02	-2.328637e+01
1.864813e+02	-2.333597e+01
1.875584e+02	-2.338814e+01
1.886418e+02	-2.343610e+01
1.897313e+02	-2.348508e+01
1.908272e+02	-2.353656e+01
1.919294e+02	-2.358491e+01
1.930380e+02	-2.363649e+01
1.941530e+02	-2.368526e+01
1.952744e+02	-2.373383e+01
1.964023e+02	-2.378441e+01
1.975367e+02	-2.383673e+01
1.986777e+02	-2.388548e+01
1.998252e+02	-2.393212e+01
2.009794e+02	-2.398410e+01
2.021403e+02	-2.403459e+01
2.033078e+02	-2.408289e+01
2.044821e+02	-2.413568e+01
2.056632e+02	-2.418592e+01
2.068511e+02	-2.423582e+01
2.080459e+02	-2.428177e+01
2.092475e+02	-2.433583e+01
2.104561e+02	-2.438167e+01
2.116717e+02	-2.443228e+01
2.128943e+02	-2.448339e+01
2.141240e+02	-2.453462e+01
2.153608e+02	-2.458670e+01
2.166047e+02	-2.463238e+01
2.178558e+02	-2.468408e+01
2.191141e+02	-2.473402e+01
2.203797e+02	-2.478308e+01
2.216526e+02	-2.483589e+01
2.229329e+02	-2.488215e+01
2.242205e+02	-2.493328e+01
2.255156e+02	-2.498083e+01
2.268182e+02	-2.503220e+01
2.281283e+02	-2.508145e+01
2.294459e+02	-2.513379e+01
2.307712e+02	-2.518076e+01
2.321041e+02	-2.523166e+01
2.334447e+02	-2.528189e+01
2.347931e+02	-2.532993e+01
2.361493e+02	-2.538091e+01
2.375133e+02	-2.543022e+01
2.388851e+02	-2.547816e+01
2.402649e+02	-2.553295e+01
2.416527e+02	-2.558153e+01
2.430484e+02	-2.563225e+01
2.444523e+02	-2.568241e+01
2.458642e+02	-2.572944e+01
2.472843e+02	-2.578018e+01
2.487126e+02	-2.582897e+01
2.501492e+02	-2.588142e+01
2.515940e+02	-2.592942e+01
2.530472e+02	-2.598133e+01
2.545088e+02	-2.603263e+01
2.559789e+02	-2.608335e+01
2.574574e+02	-2.613358e+01
2.589444e+02	-2.618340e+01
2.604401e+02	-2.622691e+01
2.619444e+02	-2.627788e+01
2.634574e+02	-2.633171e+01
2.649791e+02	-2.637924e+01
2.665096e+02	-2.643044e+01
2.680489e+02	-2.648084e+01
2.695972e+02	-2.653153e+01
2.711544e+02	-2.658085e+01
2.727205e+02	-2.663213e+01
2.742958e+02	-2.668207e+01
2.758801e+02	-2.672769e+01
2.774736e+02	-2.678280e+01
2.790762e+02	-2.683403e+01
2.806882e+02	-2.688147e+01
2.823094e+02	-2.693245e+01
2.839400e+02	-2.698220e+01
2.855800e+02	-2.702817e+01
2.872295e+02	-2.707675e+01
2.888886e+02	-2.712999e+01
2.905572e+02	-2.718423e+01
2.922354e+02	-2.723368e+01
2.939234e+02	-2.727982e+01
2.956211e+02	-2.733018e+01
2.973286e+02	-2.738036e+01
2.990459e+02	-2.742838e+01
3.007732e+02	-2.748064e+01
3.025104e+02	-2.752720e+01
3.042577e+02	-2.758008e+01
3.060151e+02	-2.762948e+01
3.077826e+02	-2.767860e+01
3.095604e+02	-2.772997e+01
3.113484e+02	-2.778227e+01
3.131467e+02	-2.783258e+01
3.149554e+02	-2.787933e+01
3.167746e+02	-2.792824e+01
3.186043e+02	-2.798134e+01
3.204445e+02	-2.802988e+01
3.222954e+02	-2.807784e+01
3.241570e+02	-2.812792e+01
3.260293e+02	-2.817832e+01
3.279124e+02	-2.823271e+01
3.298064e+02	-2.827958e+01
3.317114e+02	-2.832903e+01
3.336273e+02	-2.838159e+01
3.355544e+02	-2.843607e+01
3.374925e+02	-2.847849e+01
3.394418e+02	-2.853131e+01
3.414024e+02	-2.858021e+01
3.433744e+02	-2.863061e+01
3.453577e+02	-2.867654e+01
3.473525e+02	-2.873337e+01
3.493588e+02	-2.878337e+01
3.513766e+02	-2.882335e+01
3.534062e+02	-2.887670e+01
3.554474e+02	-2.892746e+01
3.575005e+02	-2.898528e+01
3.595654e+02	-2.903472e+01
3.616422e+02	-2.907935e+01
3.637311e+02	-2.913151e+01
3.658320e+02	-2.917691e+01
3.679450e+02	-2.923219e+01
3.700702e+02	-2.928024e+01
3.722077e+02	-2.933154e+01
3.743576e+02	-2.937991e+01
3.765199e+02	-2.943178e+01
3.786946e+02	-2.948133e+01
3.808820e+02	-2.953021e+01
3.830819e+02	-2.958549e+01
3.852946e+02	-2.963288e+01
3.875200e+02	-2.968434e+01
3.897583e+02	-2.973490e+01
3.920096e+02	-2.978117e+01
3.942738e+02	-2.983221e+01
3.965511e+02	-2.988399e+01
3.988416e+02	-2.993300e+01
4.011452e+02	-2.998008e+01
4.034622e+02	-3.002927e+01
4.057926e+02	-3.008332e+01
4.081365e+02	-3.013282e+01
4.104938e+02	-3.018306e+01
4.128648e+02	-3.023638e+01
4.152495e+02	-3.028532e+01
4.176480e+02	-3.032779e+01
4.200603e+02	-3.038158e+01
4.224866e+02	-3.043452e+01
4.249268e+02	-3.048059e+01
4.273812e+02	-3.053526e+01
4.298497e+02	-3.057949e+01
4.323325e+02	-3.063105e+01
4.348297e+02	-3.068621e+01
4.373412e+02	-3.073228e+01
4.398673e+02	-3.078366e+01
4.424079e+02	-3.083747e+01
4.449633e+02	-3.088298e+01
4.475334e+02	-3.092762e+01
4.501183e+02	-3.098201e+01
4.527182e+02	-3.103516e+01
4.553330e+02	-3.108438e+01
4.579630e+02	-3.113345e+01
4.606082e+02	-3.118626e+01
4.632687e+02	-3.123029e+01
4.659445e+02	-3.128054e+01
4.686358e+02	-3.133643e+01
4.713426e+02	-3.138529e+01
4.740650e+02	-3.143495e+01
4.768032e+02	-3.148453e+01
4.795572e+02	-3.153764e+01
4.823271e+02	-3.158988e+01
4.851130e+02	-3.163540e+01
4.879150e+02	-3.168461e+01
4.907332e+02	-3.173948e+01
4.935676e+02	-3.178923e+01
4.964185e+02	-3.183120e+01
4.992858e+02	-3.189277e+01
5.021696e+02	-3.193744e+01
5.050701e+02	-3.198521e+01
5.079874e+02	-3.203503e+01
5.109215e+02	-3.208827e+01
5.138726e+02	-3.214515e+01
5.168407e+02	-3.218911e+01
5.198259e+02	-3.223957e+01
5.228284e+02	-3.228074e+01
5.258482e+02	-3.234282e+01
5.288855e+02	-3.238373e+01
5.319403e+02	-3.243940e+01
5.350128e+02	-3.249110e+01
5.381030e+02	-3.254275e+01
5.412111e+02	-3.259022e+01
5.443371e+02	-3.264122e+01
5.474812e+02	-3.269430e+01
5.506434e+02	-3.274682e+01
5.538239e+02	-3.279030e+01
5.570228e+02	-3.284479e+01
5.602401e+02	-3.289018e+01
5.634760e+02	-3.293932e+01
5.667306e+02	-3.298978e+01
5.700040e+02	-3.303566e+01
5.732964e+02	-3.308950e+01
5.766077e+02	-3.314784e+01
5.799382e+02	-3.319023e+01
5.832879e+02	-3.323863e+01
5.866569e+02	-3.329183e+01
5.900454e+02	-3.334591e+01
5.934535e+02	-3.338996e+01
5.968813e+02	-3.344206e+01
6.003288e+02	-3.349626e+01
6.037963e+02	-3.354901e+01
6.072838e+02	-3.359707e+01
6.107914e+02	-3.364967e+01
6.143194e+02	-3.369383e+01
6.178676e+02	-3.374661e+01
6.214364e+02	-3.380194e+01
6.250258e+02	-3.384751e+01
6.286359e+02	-3.389252e+01
6.322669e+02	-3.394736e+01
6.359189e+02	-3.400092e+01
6.395919e+02	-3.405171e+01
6.432862e+02	-3.409289e+01
6.470017e+02	-3.415156e+01
6.507388e+02	-3.420083e+01
6.544974e+02	-3.424718e+01
6.582778e+02	-3.429211e+01
6.620800e+02	-3.435388e+01
6.659041e+02	-3.440300e+01
6.697504e+02	-3.444611e+01
6.736188e+02	-3.450194e+01
6.775096e+02	-3.454815e+01
6.814229e+02	-3.460385e+01
6.853587e+02	-3.464813e+01
6.893173e+02	-3.469864e+01
6.932988e+02	-3.475842e+01
6.973033e+02	-3.480074e+01
7.013309e+02	-3.484923e+01
