Frequency(Hz)	Magnitude(dB)
1.000000e+01	-1.945728e+00
1.005776e+01	-1.964099e+00
1.011585e+01	-1.982251e+00
1.017428e+01	-2.000776e+00
1.023305e+01	-2.019263e+00
1.029215e+01	-2.037898e+00
1.035160e+01	-2.056794e+00
1.041139e+01	-2.075431e+00
1.047153e+01	-2.094756e+00
1.053201e+01	-2.114015e+00
1.059284e+01	-2.133290e+00
1.065403e+01	-2.152509e+00
1.071556e+01	-2.172425e+00
1.077746e+01	-2.191993e+00
1.083971e+01	-2.211972e+00
1.090232e+01	-2.232019e+00
1.096529e+01	-2.252056e+00
1.102862e+01	-2.272436e+00
1.109232e+01	-2.293045e+00
1.115639e+01	-2.313588e+00
1.122083e+01	-2.334214e+00
1.128564e+01	-2.355222e+00
1.135083e+01	-2.376272e+00
1.141639e+01	-2.397277e+00
1.148233e+01	-2.418519e+00
1.154865e+01	-2.440059e+00
1.161536e+01	-2.461641e+00
1.168245e+01	-2.483198e+00
1.174992e+01	-2.505186e+00
1.181779e+01	-2.527057e+00
1.188605e+01	-2.549185e+00
1.195470e+01	-2.571653e+00
1.202375e+01	-2.594068e+00
1.209320e+01	-2.616703e+00
1.216305e+01	-2.639493e+00
1.223330e+01	-2.662201e+00
1.230396e+01	-2.684987e+00
1.237503e+01	-2.708131e+00
1.244651e+01	-2.731634e+00
1.251840e+01	-2.755296e+00
1.259070e+01	-2.778553e+00
1.266343e+01	-2.802218e+00
1.273657e+01	-2.826230e+00
1.281014e+01	-2.850266e+00
1.288413e+01	-2.874388e+00
1.295855e+01	-2.898526e+00
1.303339e+01	-2.923110e+00
1.310867e+01	-2.947540e+00
1.318439e+01	-2.972261e+00
1.326054e+01	-2.997223e+00
1.333713e+01	-3.021969e+00
1.341417e+01	-3.047169e+00
1.349165e+01	-3.072423e+00
1.356958e+01	-3.098116e+00
1.364795e+01	-3.123835e+00
1.372678e+01	-3.149422e+00
1.380607e+01	-3.175185e+00
1.388581e+01	-3.201151e+00
1.396602e+01	-3.227261e+00
1.404668e+01	-3.253720e+00
1.412782e+01	-3.280336e+00
1.420942e+01	-3.306726e+00
1.429149e+01	-3.333557e+00
1.437404e+01	-3.360276e+00
1.445706e+01	-3.387252e+00
1.454057e+01	-3.414520e+00
1.462455e+01	-3.442065e+00
1.470902e+01	-3.469362e+00
1.479398e+01	-3.496925e+00
1.487943e+01	-3.524871e+00
1.496537e+01	-3.552488e+00
1.505181e+01	-3.580464e+00
1.513875e+01	-3.608661e+00
1.522619e+01	-3.637103e+00
1.531414e+01	-3.665676e+00
1.540259e+01	-3.693956e+00
1.549156e+01	-3.722869e+00
1.558103e+01	-3.751575e+00
1.567103e+01	-3.780635e+00
1.576155e+01	-3.809560e+00
1.585258e+01	-3.839213e+00
1.594415e+01	-3.868574e+00
1.603624e+01	-3.898190e+00
1.612886e+01	-3.927864e+00
1.622202e+01	-3.957643e+00
1.631572e+01	-3.987691e+00
1.640996e+01	-4.017792e+00
1.650474e+01	-4.047991e+00
1.660008e+01	-4.078548e+00
1.669596e+01	-4.108924e+00
1.679239e+01	-4.139672e+00
1.688938e+01	-4.170709e+00
1.698694e+01	-4.201236e+00
1.708505e+01	-4.232372e+00
1.718373e+01	-4.263712e+00
1.728299e+01	-4.295295e+00
1.738281e+01	-4.326412e+00
1.748322e+01	-4.358004e+00
1.758420e+01	-4.389860e+00
1.768576e+01	-4.421696e+00
1.778792e+01	-4.453905e+00
1.789066e+01	-4.485819e+00
1.799399e+01	-4.518300e+00
1.809793e+01	-4.550113e+00
1.820246e+01	-4.583307e+00
1.830760e+01	-4.615738e+00
1.841334e+01	-4.648718e+00
1.851969e+01	-4.681556e+00
1.862666e+01	-4.714989e+00
1.873425e+01	-4.747885e+00
1.884246e+01	-4.781041e+00
1.895129e+01	-4.814450e+00
1.906075e+01	-4.848114e+00
1.917085e+01	-4.881961e+00
1.928158e+01	-4.915672e+00
1.939295e+01	-4.949748e+00
1.950496e+01	-4.983654e+00
1.961762e+01	-5.017817e+00
1.973093e+01	-5.052274e+00
1.984490e+01	-5.087052e+00
1.995952e+01	-5.121311e+00
2.007480e+01	-5.155944e+00
2.019076e+01	-5.191078e+00
2.030738e+01	-5.225891e+00
2.042467e+01	-5.260697e+00
2.054264e+01	-5.295935e+00
2.066130e+01	-5.331678e+00
2.078064e+01	-5.366764e+00
2.090066e+01	-5.402344e+00
2.102139e+01	-5.438027e+00
2.114280e+01	-5.473676e+00
2.126492e+01	-5.509729e+00
2.138775e+01	-5.546017e+00
2.151128e+01	-5.581993e+00
2.163553e+01	-5.617995e+00
2.176050e+01	-5.654607e+00
2.188619e+01	-5.690890e+00
2.201260e+01	-5.727664e+00
2.213974e+01	-5.764104e+00
2.226762e+01	-5.801185e+00
2.239624e+01	-5.837928e+00
2.252560e+01	-5.874968e+00
2.265571e+01	-5.911848e+00
2.278656e+01	-5.949412e+00
2.291818e+01	-5.987155e+00
2.305055e+01	-6.024380e+00
2.318369e+01	-6.061717e+00
2.331760e+01	-6.099396e+00
2.345228e+01	-6.137573e+00
2.358774e+01	-6.175435e+00
2.372398e+01	-6.213279e+00
2.386101e+01	-6.251366e+00
2.399883e+01	-6.289647e+00
2.413745e+01	-6.328135e+00
2.427686e+01	-6.366363e+00
2.441709e+01	-6.405063e+00
2.455812e+01	-6.443416e+00
2.469997e+01	-6.482112e+00
2.484263e+01	-6.521183e+00
2.498612e+01	-6.559944e+00
2.513044e+01	-6.599135e+00
2.527559e+01	-6.638010e+00
2.542158e+01	-6.677235e+00
2.556842e+01	-6.716276e+00
2.571610e+01	-6.756109e+00
2.586463e+01	-6.795722e+00
2.601403e+01	-6.835181e+00
2.616428e+01	-6.875150e+00
2.631541e+01	-6.914597e+00
2.646740e+01	-6.954463e+00
2.662028e+01	-6.994707e+00
2.677404e+01	-7.034597e+00
2.692868e+01	-7.074668e+00
2.708422e+01	-7.114986e+00
2.724066e+01	-7.156052e+00
2.739800e+01	-7.195640e+00
2.755625e+01	-7.236606e+00
2.771541e+01	-7.277264e+00
2.787550e+01	-7.317662e+00
2.803650e+01	-7.358936e+00
2.819844e+01	-7.399363e+00
2.836131e+01	-7.440275e+00
2.852513e+01	-7.481323e+00
2.868989e+01	-7.522350e+00
2.885560e+01	-7.563810e+00
2.902227e+01	-7.605077e+00
2.918990e+01	-7.646318e+00
2.935850e+01	-7.688036e+00
2.952807e+01	-7.729825e+00
2.969863e+01	-7.771519e+00
2.987016e+01	-7.812542e+00
3.004269e+01	-7.854498e+00
3.021622e+01	-7.896603e+00
3.039075e+01	-7.938564e+00
3.056628e+01	-7.980058e+00
3.074283e+01	-8.022525e+00
3.092040e+01	-8.064716e+00
3.109900e+01	-8.106878e+00
3.127862e+01	-8.149152e+00
3.145929e+01	-8.191912e+00
3.164099e+01	-8.233799e+00
3.182375e+01	-8.276834e+00
3.200756e+01	-8.319240e+00
3.219244e+01	-8.361837e+00
3.237838e+01	-8.404858e+00
3.256540e+01	-8.447942e+00
3.275349e+01	-8.490513e+00
3.294268e+01	-8.534020e+00
3.313295e+01	-8.576736e+00
3.332433e+01	-8.619512e+00
3.351681e+01	-8.663092e+00
3.371040e+01	-8.706305e+00
3.390511e+01	-8.749757e+00
3.410094e+01	-8.792993e+00
3.429791e+01	-8.836381e+00
3.449601e+01	-8.879876e+00
3.469526e+01	-8.923597e+00
3.489566e+01	-8.967273e+00
3.509721e+01	-9.010756e+00
3.529993e+01	-9.054907e+00
3.550382e+01	-9.098475e+00
3.570889e+01	-9.142333e+00
3.591515e+01	-9.186267e+00
3.612259e+01	-9.230093e+00
3.633123e+01	-9.274552e+00
3.654108e+01	-9.318474e+00
3.675214e+01	-9.362916e+00
3.696442e+01	-9.407465e+00
3.717792e+01	-9.451352e+00
3.739266e+01	-9.495314e+00
3.760864e+01	-9.540048e+00
3.782587e+01	-9.584835e+00
3.804435e+01	-9.629111e+00
3.826409e+01	-9.673776e+00
3.848510e+01	-9.718638e+00
3.870739e+01	-9.762833e+00
3.893096e+01	-9.808010e+00
3.915583e+01	-9.852619e+00
3.938199e+01	-9.897411e+00
3.960946e+01	-9.942511e+00
3.983824e+01	-9.987118e+00
4.006834e+01	-1.003278e+01
4.029978e+01	-1.007763e+01
4.053255e+01	-1.012280e+01
4.076666e+01	-1.016762e+01
4.100213e+01	-1.021361e+01
4.123896e+01	-1.025851e+01
4.147715e+01	-1.030417e+01
4.171672e+01	-1.034920e+01
4.195767e+01	-1.039425e+01
4.220002e+01	-1.043983e+01
4.244377e+01	-1.048591e+01
4.268892e+01	-1.053134e+01
4.293549e+01	-1.057676e+01
4.318348e+01	-1.062271e+01
4.343291e+01	-1.066870e+01
4.368377e+01	-1.071349e+01
4.393609e+01	-1.075974e+01
4.418986e+01	-1.080590e+01
4.444510e+01	-1.085142e+01
4.470182e+01	-1.089756e+01
4.496001e+01	-1.094398e+01
4.521970e+01	-1.098918e+01
4.548089e+01	-1.103569e+01
4.574358e+01	-1.108173e+01
4.600779e+01	-1.112795e+01
4.627353e+01	-1.117380e+01
4.654081e+01	-1.122037e+01
4.680963e+01	-1.126666e+01
4.708000e+01	-1.131297e+01
4.735193e+01	-1.135888e+01
4.762543e+01	-1.140573e+01
4.790051e+01	-1.145181e+01
4.817719e+01	-1.149835e+01
4.845545e+01	-1.154453e+01
4.873533e+01	-1.159130e+01
4.901682e+01	-1.163789e+01
4.929994e+01	-1.168456e+01
4.958470e+01	-1.173160e+01
4.987110e+01	-1.177766e+01
5.015915e+01	-1.182483e+01
5.044887e+01	-1.187078e+01
5.074026e+01	-1.191867e+01
5.103333e+01	-1.196522e+01
5.132810e+01	-1.201219e+01
5.162457e+01	-1.205935e+01
5.192275e+01	-1.210576e+01
5.222265e+01	-1.215318e+01
5.252429e+01	-1.219950e+01
5.282767e+01	-1.224659e+01
5.313280e+01	-1.229426e+01
5.343969e+01	-1.234101e+01
5.374836e+01	-1.238772e+01
5.405880e+01	-1.243508e+01
5.437105e+01	-1.248270e+01
5.468509e+01	-1.253009e+01
5.500095e+01	-1.257648e+01
5.531863e+01	-1.262429e+01
5.563815e+01	-1.267214e+01
5.595951e+01	-1.271919e+01
5.628273e+01	-1.276609e+01
5.660782e+01	-1.281344e+01
5.693479e+01	-1.286009e+01
5.726364e+01	-1.290827e+01
5.759439e+01	-1.295594e+01
5.792705e+01	-1.300342e+01
5.826164e+01	-1.305087e+01
5.859815e+01	-1.309861e+01
5.893662e+01	-1.314566e+01
5.927703e+01	-1.319353e+01
5.961941e+01	-1.324182e+01
5.996377e+01	-1.328917e+01
6.031012e+01	-1.333671e+01
6.065847e+01	-1.338418e+01
6.100883e+01	-1.343206e+01
6.136121e+01	-1.348069e+01
6.171563e+01	-1.352754e+01
6.207210e+01	-1.357543e+01
6.243063e+01	-1.362320e+01
6.279122e+01	-1.367148e+01
6.315390e+01	-1.371926e+01
6.351868e+01	-1.376700e+01
6.388556e+01	-1.381423e+01
6.425456e+01	-1.386331e+01
6.462569e+01	-1.391120e+01
6.499897e+01	-1.395926e+01
6.537440e+01	-1.400687e+01
6.575200e+01	-1.405505e+01
6.613178e+01	-1.410345e+01
6.651375e+01	-1.415134e+01
6.689793e+01	-1.419877e+01
6.728433e+01	-1.424773e+01
6.767297e+01	-1.429545e+01
6.806384e+01	-1.434352e+01
6.845698e+01	-1.439236e+01
6.885238e+01	-1.444104e+01
6.925007e+01	-1.448828e+01
6.965005e+01	-1.453676e+01
7.005235e+01	-1.458502e+01
7.045697e+01	-1.463380e+01
7.086393e+01	-1.468220e+01
7.127323e+01	-1.473014e+01
7.168490e+01	-1.477832e+01
7.209895e+01	-1.482630e+01
7.251539e+01	-1.487557e+01
7.293424e+01	-1.492357e+01
7.335551e+01	-1.497212e+01
7.377920e+01	-1.502119e+01
7.420535e+01	-1.506956e+01
7.463396e+01	-1.511774e+01
7.506504e+01	-1.516488e+01
7.549861e+01	-1.521508e+01
7.593469e+01	-1.526194e+01
7.637328e+01	-1.531217e+01
7.681441e+01	-1.536033e+01
7.725809e+01	-1.540834e+01
7.770433e+01	-1.545735e+01
7.815315e+01	-1.550522e+01
7.860456e+01	-1.555407e+01
7.905857e+01	-1.560366e+01
7.951521e+01	-1.565165e+01
7.997449e+01	-1.569992e+01
8.043642e+01	-1.574892e+01
8.090102e+01	-1.579787e+01
8.136830e+01	-1.584633e+01
8.183828e+01	-1.589504e+01
8.231097e+01	-1.594459e+01
8.278640e+01	-1.599375e+01
8.326457e+01	-1.604084e+01
8.374550e+01	-1.609045e+01
8.422921e+01	-1.613899e+01
8.471572e+01	-1.618837e+01
8.520503e+01	-1.623691e+01
8.569717e+01	-1.628638e+01
8.619215e+01	-1.633492e+01
8.669000e+01	-1.638381e+01
8.719071e+01	-1.643285e+01
8.769432e+01	-1.648191e+01
8.820084e+01	-1.653012e+01
8.871029e+01	-1.658013e+01
8.922267e+01	-1.662764e+01
8.973802e+01	-1.667631e+01
9.025634e+01	-1.672571e+01
9.077766e+01	-1.677627e+01
9.130199e+01	-1.682269e+01
9.182935e+01	-1.687194e+01
9.235975e+01	-1.692206e+01
9.289321e+01	-1.697060e+01
9.342976e+01	-1.702111e+01
9.396941e+01	-1.706847e+01
9.451217e+01	-1.711849e+01
9.505807e+01	-1.716827e+01
9.560712e+01	-1.721670e+01
9.615934e+01	-1.726483e+01
9.671476e+01	-1.731376e+01
9.727338e+01	-1.736278e+01
9.783522e+01	-1.741229e+01
9.840032e+01	-1.746173e+01
9.896867e+01	-1.750990e+01
9.954031e+01	-1.755998e+01
1.001153e+02	-1.760988e+01
1.006935e+02	-1.765838e+01
1.012751e+02	-1.770690e+01
1.018601e+02	-1.775671e+01
1.024484e+02	-1.780632e+01
1.030402e+02	-1.785581e+01
1.036353e+02	-1.790440e+01
1.042339e+02	-1.795382e+01
1.048360e+02	-1.800197e+01
1.054415e+02	-1.805184e+01
1.060505e+02	-1.810145e+01
1.066631e+02	-1.815024e+01
1.072791e+02	-1.820044e+01
1.078988e+02	-1.824870e+01
1.085220e+02	-1.829895e+01
1.091488e+02	-1.834666e+01
1.097793e+02	-1.839669e+01
1.104133e+02	-1.844705e+01
1.110511e+02	-1.849619e+01
1.116925e+02	-1.854515e+01
1.123376e+02	-1.859320e+01
1.129865e+02	-1.864431e+01
1.136391e+02	-1.869260e+01
1.142955e+02	-1.874161e+01
1.149556e+02	-1.879133e+01
1.156196e+02	-1.884097e+01
1.162874e+02	-1.889045e+01
1.169591e+02	-1.893851e+01
1.176347e+02	-1.899099e+01
1.183141e+02	-1.903889e+01
1.189975e+02	-1.908748e+01
1.196848e+02	-1.913693e+01
1.203761e+02	-1.918585e+01
1.210714e+02	-1.923607e+01
1.217707e+02	-1.928569e+01
1.224740e+02	-1.933710e+01
1.231814e+02	-1.938481e+01
1.238929e+02	-1.943467e+01
1.246085e+02	-1.948365e+01
1.253283e+02	-1.953321e+01
1.260522e+02	-1.958297e+01
1.267802e+02	-1.963068e+01
1.275125e+02	-1.968230e+01
1.282490e+02	-1.973102e+01
1.289898e+02	-1.978182e+01
1.297348e+02	-1.983035e+01
1.304842e+02	-1.988066e+01
1.312378e+02	-1.993075e+01
1.319959e+02	-1.997827e+01
1.327583e+02	-2.002852e+01
1.335251e+02	-2.007825e+01
1.342963e+02	-2.012633e+01
1.350720e+02	-2.017594e+01
1.358522e+02	-2.022641e+01
1.366368e+02	-2.027763e+01
1.374260e+02	-2.032477e+01
1.382198e+02	-2.037608e+01
1.390182e+02	-2.042360e+01
1.398211e+02	-2.047514e+01
1.406287e+02	-2.052316e+01
1.414410e+02	-2.057464e+01
1.422579e+02	-2.062361e+01
1.430796e+02	-2.067317e+01
1.439060e+02	-2.072204e+01
1.447372e+02	-2.077254e+01
1.455732e+02	-2.082276e+01
1.464141e+02	-2.087168e+01
1.472597e+02	-2.092222e+01
1.481103e+02	-2.097087e+01
1.489658e+02	-2.101865e+01
1.498262e+02	-2.107026e+01
1.506916e+02	-2.111946e+01
1.515620e+02	-2.117163e+01
1.524374e+02	-2.121796e+01
1.533179e+02	-2.126700e+01
1.542034e+02	-2.131840e+01
1.550941e+02	-2.136918e+01
1.559899e+02	-2.141773e+01
1.568909e+02	-2.146880e+01
1.577971e+02	-2.151681e+01
1.587085e+02	-2.156630e+01
1.596252e+02	-2.161838e+01
1.605472e+02	-2.166525e+01
1.614745e+02	-2.171663e+01
1.624072e+02	-2.176810e+01
1.633453e+02	-2.181409e+01
1.642887e+02	-2.186387e+01
1.652377e+02	-2.191547e+01
1.661921e+02	-2.196447e+01
1.671520e+02	-2.201419e+01
1.681175e+02	-2.206261e+01
1.690885e+02	-2.211342e+01
1.700651e+02	-2.216342e+01
1.710474e+02	-2.221359e+01
1.720354e+02	-2.226361e+01
1.730291e+02	-2.231242e+01
1.740285e+02	-2.236236e+01
1.750337e+02	-2.241275e+01
1.760446e+02	-2.246254e+01
1.770615e+02	-2.251327e+01
1.780842e+02	-2.256034e+01
1.791128e+02	-2.261074e+01
1.801473e+02	-2.266150e+01
1.811878e+02	-2.271180e+01
1.822344e+02	-2.276194e+01
1.832870e+02	-2.280966e+01
1.843456e+02	-2.285886e+01
1.854104e+02	-2.290754e+01
1.864813e+02	-2.295924e+01
1.875584e+02	-2.300949e+01
1.886418e+02	-2.305890e+01
1.897313e+02	-2.310988e+01
1.908272e+02	-2.315893e+01
1.919294e+02	-2.320847e+01
1.930380e+02	-2.325712e+01
1.941530e+02	-2.330715e+01
1.952744e+02	-2.336030e+01
1.964023e+02	-2.340723e+01
1.975367e+02	-2.345681e+01
1.986777e+02	-2.350747e+01
1.998252e+02	-2.355621e+01
2.009794e+02	-2.360551e+01
2.021403e+02	-2.365771e+01
2.033078e+02	-2.370635e+01
2.044821e+02	-2.375719e+01
2.056632e+02	-2.380517e+01
2.068511e+02	-2.385286e+01
2.080459e+02	-2.390711e+01
2.092475e+02	-2.395599e+01
2.104561e+02	-2.400695e+01
2.116717e+02	-2.405418e+01
2.128943e+02	-2.410385e+01
2.141240e+02	-2.415598e+01
2.153608e+02	-2.420463e+01
2.166047e+02	-2.425701e+01
2.178558e+02	-2.430501e+01
2.191141e+02	-2.435384e+01
2.203797e+02	-2.440481e+01
2.216526e+02	-2.445592e+01
2.229329e+02	-2.450582e+01
2.242205e+02	-2.455297e+01
2.255156e+02	-2.460469e+01
2.268182e+02	-2.465685e+01
2.281283e+02	-2.470529e+01
2.294459e+02	-2.475160e+01
2.307712e+02	-2.480525e+01
2.321041e+02	-2.485102e+01
2.334447e+02	-2.489850e+01
2.347931e+02	-2.495513e+01
2.361493e+02	-2.500434e+01
2.375133e+02	-2.505451e+01
2.388851e+02	-2.510471e+01
2.402649e+02	-2.515241e+01
2.416527e+02	-2.520421e+01
2.430484e+02	-2.525172e+01
2.444523e+02	-2.530560e+01
2.458642e+02	-2.535280e+01
2.472843e+02	-2.540476e+01
2.487126e+02	-2.545211e+01
2.501492e+02	-2.550374e+01
2.515940e+02	-2.555221e+01
2.530472e+02	-2.560426e+01
2.545088e+02	-2.565116e+01
2.559789e+02	-2.570201e+01
2.574574e+02	-2.575223e+01
2.589444e+02	-2.580154e+01
2.604401e+02	-2.585286e+01
2.619444e+02	-2.590149e+01
2.634574e+02	-2.594966e+01
2.649791e+02	-2.600212e+01
2.665096e+02	-2.605298e+01
2.680489e+02	-2.610173e+01
2.695972e+02	-2.615324e+01
2.711544e+02	-2.620536e+01
2.727205e+02	-2.624910e+01
2.742958e+02	-2.630162e+01
2.758801e+02	-2.635166e+01
2.774736e+02	-2.640232e+01
2.790762e+02	-2.645212e+01
2.806882e+02	-2.650249e+01
2.823094e+02	-2.655068e+01
2.839400e+02	-2.659856e+01
2.855800e+02	-2.665413e+01
2.872295e+02	-2.670354e+01
2.888886e+02	-2.674988e+01
2.905572e+02	-2.680094e+01
2.922354e+02	-2.684899e+01
2.939234e+02	-2.690550e+01
2.956211e+02	-2.695158e+01
2.973286e+02	-2.700079e+01
2.990459e+02	-2.705329e+01
3.007732e+02	-2.710668e+01
3.025104e+02	-2.715280e+01
3.042577e+02	-2.719967e+01
3.060151e+02	-2.725272e+01
3.077826e+02	-2.729937e+01
3.095604e+02	-2.734974e+01
3.113484e+02	-2.740472e+01
3.131467e+02	-2.745065e+01
3.149554e+02	-2.749906e+01
3.167746e+02	-2.755286e+01
3.186043e+02	-2.759993e+01
3.204445e+02	-2.765343e+01
3.222954e+02	-2.770195e+01
3.241570e+02	-2.775515e+01
3.260293e+02	-2.780272e+01
3.279124e+02	-2.785167e+01
3.298064e+02	-2.790281e+01
3.317114e+02	-2.795399e+01
3.336273e+02	-2.799955e+01
3.355544e+02	-2.805786e+01
3.374925e+02	-2.810122e+01
3.394418e+02	-2.815333e+01
3.414024e+02	-2.820243e+01
3.433744e+02	-2.825250e+01
3.453577e+02	-2.830213e+01
3.473525e+02	-2.835177e+01
3.493588e+02	-2.840226e+01
3.513766e+02	-2.845210e+01
3.534062e+02	-2.850019e+01
3.554474e+02	-2.855320e+01
3.575005e+02	-2.860034e+01
3.595654e+02	-2.865106e+01
3.616422e+02	-2.869985e+01
3.637311e+02	-2.875440e+01
3.658320e+02	-2.880351e+01
3.679450e+02	-2.885277e+01
3.700702e+02	-2.890428e+01
3.722077e+02	-2.895518e+01
3.743576e+02	-2.900685e+01
3.765199e+02	-2.905813e+01
3.786946e+02	-2.910420e+01
3.808820e+02	-2.915273e+01
3.830819e+02	-2.920342e+01
3.852946e+02	-2.925357e+01
3.875200e+02	-2.930191e+01
3.897583e+02	-2.935520e+01
3.920096e+02	-2.941382e+01
3.942738e+02	-2.944935e+01
3.965511e+02	-2.950135e+01
3.988416e+02	-2.955760e+01
4.011452e+02	-2.960379e+01
4.034622e+02	-2.964977e+01
4.057926e+02	-2.970362e+01
4.081365e+02	-2.975808e+01
4.104938e+02	-2.980393e+01
4.128648e+02	-2.985291e+01
4.152495e+02	-2.990191e+01
4.176480e+02	-2.994781e+01
4.200603e+02	-3.000331e+01
4.224866e+02	-3.005441e+01
4.249268e+02	-3.010822e+01
4.273812e+02	-3.015183e+01
4.298497e+02	-3.020174e+01
4.323325e+02	-3.025417e+01
4.348297e+02	-3.030240e+01
4.373412e+02	-3.036183e+01
4.398673e+02	-3.041036e+01
4.424079e+02	-3.045751e+01
4.449633e+02	-3.051354e+01
4.475334e+02	-3.055753e+01
4.501183e+02	-3.060375e+01
4.527182e+02	-3.065536e+01
4.553330e+02	-3.070799e+01
4.579630e+02	-3.075380e+01
4.606082e+02	-3.080857e+01
4.632687e+02	-3.085484e+01
4.659445e+02	-3.090982e+01
4.686358e+02	-3.095862e+01
4.713426e+02	-3.100713e+01
4.740650e+02	-3.105820e+01
4.768032e+02	-3.110607e+01
4.795572e+02	-3.116122e+01
4.823271e+02	-3.121340e+01
4.851130e+02	-3.125782e+01
4.879150e+02	-3.130589e+01
4.907332e+02	-3.135950e+01
4.935676e+02	-3.140966e+01
4.964185e+02	-3.145735e+01
4.992858e+02	-3.151323e+01
5.021696e+02	-3.155981e+01
5.050701e+02	-3.161543e+01
5.079874e+02	-3.165652e+01
5.109215e+02	-3.171325e+01
5.138726e+02	-3.176244e+01
5.168407e+02	-3.181630e+01
5.198259e+02	-3.185722e+01
5.228284e+02	-3.191288e+01
5.258482e+02	-3.196860e+01
5.288855e+02	-3.200934e+01
5.319403e+02	-3.206478e+01
5.350128e+02	-3.211102e+01
5.381030e+02	-3.216700e+01
5.412111e+02	-3.221371e+01
5.443371e+02	-3.226518e+01
5.474812e+02	-3.231181e+01
5.506434e+02	-3.236032e+01
5.538239e+02	-3.241540e+01
5.570228e+02	-3.246651e+01
5.602401e+02	-3.251353e+01
5.634760e+02	-3.256292e+01
5.667306e+02	-3.260850e+01
5.700040e+02	-3.267254e+01
5.732964e+02	-3.271290e+01
5.766077e+02	-3.276682e+01
5.799382e+02	-3.281776e+01
5.832879e+02	-3.286206e+01
5.866569e+02	-3.291081e+01
5.900454e+02	-3.297060e+01
5.934535e+02	-3.301451e+01
5.968813e+02	-3.306705e+01
6.003288e+02	-3.311733e+01
6.037963e+02	-3.316837e+01
6.072838e+02	-3.321400e+01
6.107914e+02	-3.326872e+01
6.143194e+02	-3.332021e+01
6.178676e+02	-3.336886e+01
6.214364e+02	-3.341820e+01
6.250258e+02	-3.347031e+01
6.286359e+02	-3.351414e+01
6.322669e+02	-3.356710e+01
6.359189e+02	-3.362425e+01
6.395919e+02	-3.366575e+01
6.432862e+02	-3.371566e+01
6.470017e+02	-3.376644e+01
6.507388e+02	-3.382853e+01
6.544974e+02	-3.387367e+01
6.582778e+02	-3.392420e+01
6.620800e+02	-3.397004e+01
6.659041e+02	-3.402367e+01
6.697504e+02	-3.407188e+01
6.736188e+02	-3.412011e+01
6.775096e+02	-3.418138e+01
6.814229e+02	-3.422113e+01
6.853587e+02	-3.427682e+01
6.893173e+02	-3.432473e+01
6.932988e+02	-3.437830e+01
6.973033e+02	-3.442698e+01
7.013309e+02	-3.447355e+01
