Frequency(Hz)	Magnitude(dB)
1.000000e+01	-2.062721e+00
1.005776e+01	-2.081649e+00
1.011585e+01	-2.100786e+00
1.017428e+01	-2.120069e+00
1.023305e+01	-2.139313e+00
1.029215e+01	-2.158938e+00
1.035160e+01	-2.178560e+00
1.041139e+01	-2.198610e+00
1.047153e+01	-2.218478e+00
1.053201e+01	-2.238411e+00
1.059284e+01	-2.258490e+00
1.065403e+01	-2.278754e+00
1.071556e+01	-2.299585e+00
1.077746e+01	-2.320104e+00
1.083971e+01	-2.341019e+00
1.090232e+01	-2.362042e+00
1.096529e+01	-2.382788e+00
1.102862e+01	-2.404077e+00
1.109232e+01	-2.425366e+00
1.115639e+01	-2.446931e+00
1.122083e+01	-2.468374e+00
1.128564e+01	-2.490244e+00
1.135083e+01	-2.512164e+00
1.141639e+01	-2.534129e+00
1.148233e+01	-2.556467e+00
1.154865e+01	-2.578911e+00
1.161536e+01	-2.601191e+00
1.168245e+01	-2.623853e+00
1.174992e+01	-2.646373e+00
1.181779e+01	-2.669400e+00
1.188605e+01	-2.692660e+00
1.195470e+01	-2.715509e+00
1.202375e+01	-2.738860e+00
1.209320e+01	-2.762272e+00
1.216305e+01	-2.786129e+00
1.223330e+01	-2.809753e+00
1.230396e+01	-2.833895e+00
1.237503e+01	-2.857805e+00
1.244651e+01	-2.882086e+00
1.251840e+01	-2.906213e+00
1.259070e+01	-2.931011e+00
1.266343e+01	-2.955231e+00
1.273657e+01	-2.980412e+00
1.281014e+01	-3.005232e+00
1.288413e+01	-3.030265e+00
1.295855e+01	-3.055476e+00
1.303339e+01	-3.080596e+00
1.310867e+01	-3.106044e+00
1.318439e+01	-3.131739e+00
1.326054e+01	-3.157826e+00
1.333713e+01	-3.183591e+00
1.341417e+01	-3.209625e+00
1.349165e+01	-3.235694e+00
1.356958e+01	-3.262188e+00
1.364795e+01	-3.288603e+00
1.372678e+01	-3.315101e+00
1.380607e+01	-3.342142e+00
1.388581e+01	-3.368825e+00
1.396602e+01	-3.396072e+00
1.404668e+01	-3.423181e+00
1.412782e+01	-3.450574e+00
1.420942e+01	-3.478086e+00
1.429149e+01	-3.505917e+00
1.437404e+01	-3.533805e+00
1.445706e+01	-3.561315e+00
1.454057e+01	-3.589729e+00
1.462455e+01	-3.617633e+00
1.470902e+01	-3.646297e+00
1.479398e+01	-3.674526e+00
1.487943e+01	-3.703023e+00
1.496537e+01	-3.731824e+00
1.505181e+01	-3.760747e+00
1.513875e+01	-3.789830e+00
1.522619e+01	-3.818970e+00
1.531414e+01	-3.848314e+00
1.540259e+01	-3.878192e+00
1.549156e+01	-3.907422e+00
1.558103e+01	-3.937357e+00
1.567103e+01	-3.967160e+00
1.576155e+01	-3.997241e+00
1.585258e+01	-4.027293e+00
1.594415e+01	-4.057674e+00
1.603624e+01	-4.087902e+00
1.612886e+01	-4.118906e+00
1.622202e+01	-4.149406e+00
1.631572e+01	-4.180267e+00
1.640996e+01	-4.211319e+00
1.650474e+01	-4.242377e+00
1.660008e+01	-4.273474e+00
1.669596e+01	-4.304800e+00
1.679239e+01	-4.336489e+00
1.688938e+01	-4.368204e+00
1.698694e+01	-4.400120e+00
1.708505e+01	-4.431840e+00
1.718373e+01	-4.463955e+00
1.728299e+01	-4.496281e+00
1.738281e+01	-4.528241e+00
1.748322e+01	-4.561004e+00
1.758420e+01	-4.593229e+00
1.768576e+01	-4.626181e+00
1.778792e+01	-4.659107e+00
1.789066e+01	-4.692072e+00
1.799399e+01	-4.725389e+00
1.809793e+01	-4.758542e+00
1.820246e+01	-4.791818e+00
1.830760e+01	-4.825473e+00
1.841334e+01	-4.858788e+00
1.851969e+01	-4.892716e+00
1.862666e+01	-4.926810e+00
1.873425e+01	-4.960064e+00
1.884246e+01	-4.994445e+00
1.895129e+01	-5.028924e+00
1.906075e+01	-5.063195e+00
1.917085e+01	-5.097657e+00
1.928158e+01	-5.132397e+00
1.939295e+01	-5.166861e+00
1.950496e+01	-5.202071e+00
1.961762e+01	-5.236971e+00
1.973093e+01	-5.272077e+00
1.984490e+01	-5.307153e+00
1.995952e+01	-5.342540e+00
2.007480e+01	-5.378182e+00
2.019076e+01	-5.413517e+00
2.030738e+01	-5.448971e+00
2.042467e+01	-5.485343e+00
2.054264e+01	-5.520990e+00
2.066130e+01	-5.557083e+00
2.078064e+01	-5.593453e+00
2.090066e+01	-5.629267e+00
2.102139e+01	-5.666292e+00
2.114280e+01	-5.702666e+00
2.126492e+01	-5.739280e+00
2.138775e+01	-5.775889e+00
2.151128e+01	-5.812426e+00
2.163553e+01	-5.849572e+00
2.176050e+01	-5.886485e+00
2.188619e+01	-5.924176e+00
2.201260e+01	-5.961243e+00
2.213974e+01	-5.998664e+00
2.226762e+01	-6.036202e+00
2.239624e+01	-6.073973e+00
2.252560e+01	-6.111568e+00
2.265571e+01	-6.149276e+00
2.278656e+01	-6.187704e+00
2.291818e+01	-6.225382e+00
2.305055e+01	-6.263618e+00
2.318369e+01	-6.301669e+00
2.331760e+01	-6.339986e+00
2.345228e+01	-6.378717e+00
2.358774e+01	-6.417296e+00
2.372398e+01	-6.455870e+00
2.386101e+01	-6.494606e+00
2.399883e+01	-6.533276e+00
2.413745e+01	-6.572485e+00
2.427686e+01	-6.611711e+00
2.441709e+01	-6.650675e+00
2.455812e+01	-6.690031e+00
2.469997e+01	-6.729340e+00
2.484263e+01	-6.768510e+00
2.498612e+01	-6.807767e+00
2.513044e+01	-6.848100e+00
2.527559e+01	-6.887862e+00
2.542158e+01	-6.927432e+00
2.556842e+01	-6.967380e+00
2.571610e+01	-7.007182e+00
2.586463e+01	-7.047423e+00
2.601403e+01	-7.087896e+00
2.616428e+01	-7.127891e+00
2.631541e+01	-7.168467e+00
2.646740e+01	-7.208719e+00
2.662028e+01	-7.249655e+00
2.677404e+01	-7.289972e+00
2.692868e+01	-7.330709e+00
2.708422e+01	-7.371390e+00
2.724066e+01	-7.412601e+00
2.739800e+01	-7.453464e+00
2.755625e+01	-7.494637e+00
2.771541e+01	-7.535318e+00
2.787550e+01	-7.577061e+00
2.803650e+01	-7.618411e+00
2.819844e+01	-7.659617e+00
2.836131e+01	-7.701228e+00
2.852513e+01	-7.743190e+00
2.868989e+01	-7.784541e+00
2.885560e+01	-7.826337e+00
2.902227e+01	-7.867959e+00
2.918990e+01	-7.909795e+00
2.935850e+01	-7.951193e+00
2.952807e+01	-7.993384e+00
2.969863e+01	-8.036227e+00
2.987016e+01	-8.078373e+00
3.004269e+01	-8.120397e+00
3.021622e+01	-8.162737e+00
3.039075e+01	-8.205613e+00
3.056628e+01	-8.247527e+00
3.074283e+01	-8.290117e+00
3.092040e+01	-8.332929e+00
3.109900e+01	-8.375678e+00
3.127862e+01	-8.418099e+00
3.145929e+01	-8.461697e+00
3.164099e+01	-8.504372e+00
3.182375e+01	-8.547408e+00
3.200756e+01	-8.590397e+00
3.219244e+01	-8.633020e+00
3.237838e+01	-8.676815e+00
3.256540e+01	-8.719859e+00
3.275349e+01	-8.763179e+00
3.294268e+01	-8.806839e+00
3.313295e+01	-8.850000e+00
3.332433e+01	-8.894116e+00
3.351681e+01	-8.937483e+00
3.371040e+01	-8.981244e+00
3.390511e+01	-9.025070e+00
3.410094e+01	-9.068583e+00
3.429791e+01	-9.112482e+00
3.449601e+01	-9.156308e+00
3.469526e+01	-9.200115e+00
3.489566e+01	-9.244591e+00
3.509721e+01	-9.288470e+00
3.529993e+01	-9.332991e+00
3.550382e+01	-9.376746e+00
3.570889e+01	-9.420992e+00
3.591515e+01	-9.465444e+00
3.612259e+01	-9.509591e+00
3.633123e+01	-9.554247e+00
3.654108e+01	-9.598974e+00
3.675214e+01	-9.642886e+00
3.696442e+01	-9.687970e+00
3.717792e+01	-9.732552e+00
3.739266e+01	-9.777156e+00
3.760864e+01	-9.822024e+00
3.782587e+01	-9.866871e+00
3.804435e+01	-9.911526e+00
3.826409e+01	-9.957057e+00
3.848510e+01	-1.000176e+01
3.870739e+01	-1.004709e+01
3.893096e+01	-1.009156e+01
3.915583e+01	-1.013690e+01
3.938199e+01	-1.018231e+01
3.960946e+01	-1.022736e+01
3.983824e+01	-1.027241e+01
4.006834e+01	-1.031837e+01
4.029978e+01	-1.036355e+01
4.053255e+01	-1.040921e+01
4.076666e+01	-1.045467e+01
4.100213e+01	-1.050003e+01
4.123896e+01	-1.054585e+01
4.147715e+01	-1.059104e+01
4.171672e+01	-1.063738e+01
4.195767e+01	-1.068314e+01
4.220002e+01	-1.072843e+01
4.244377e+01	-1.077458e+01
4.268892e+01	-1.082071e+01
4.293549e+01	-1.086619e+01
4.318348e+01	-1.091211e+01
4.343291e+01	-1.095776e+01
4.368377e+01	-1.100445e+01
4.393609e+01	-1.105069e+01
4.418986e+01	-1.109597e+01
4.444510e+01	-1.114207e+01
4.470182e+01	-1.118825e+01
4.496001e+01	-1.123431e+01
4.521970e+01	-1.128130e+01
4.548089e+01	-1.132715e+01
4.574358e+01	-1.137377e+01
4.600779e+01	-1.142022e+01
4.627353e+01	-1.146666e+01
4.654081e+01	-1.151309e+01
4.680963e+01	-1.155955e+01
4.708000e+01	-1.160644e+01
4.735193e+01	-1.165331e+01
4.762543e+01	-1.169993e+01
4.790051e+01	-1.174614e+01
4.817719e+01	-1.179341e+01
4.845545e+01	-1.183947e+01
4.873533e+01	-1.188666e+01
4.901682e+01	-1.193317e+01
4.929994e+01	-1.197996e+01
4.958470e+01	-1.202680e+01
4.987110e+01	-1.207303e+01
5.015915e+01	-1.212044e+01
5.044887e+01	-1.216779e+01
5.074026e+01	-1.221497e+01
5.103333e+01	-1.226180e+01
5.132810e+01	-1.230902e+01
5.162457e+01	-1.235586e+01
5.192275e+01	-1.240302e+01
5.222265e+01	-1.245067e+01
5.252429e+01	-1.249713e+01
5.282767e+01	-1.254506e+01
5.313280e+01	-1.259139e+01
5.343969e+01	-1.263939e+01
5.374836e+01	-1.268673e+01
5.405880e+01	-1.273375e+01
5.437105e+01	-1.278200e+01
5.468509e+01	-1.282861e+01
5.500095e+01	-1.287640e+01
5.531863e+01	-1.292340e+01
5.563815e+01	-1.297093e+01
5.595951e+01	-1.301919e+01
5.628273e+01	-1.306593e+01
5.660782e+01	-1.311334e+01
5.693479e+01	-1.316073e+01
5.726364e+01	-1.320876e+01
5.759439e+01	-1.325664e+01
5.792705e+01	-1.330455e+01
5.826164e+01	-1.335218e+01
5.859815e+01	-1.339961e+01
5.893662e+01	-1.344668e+01
5.927703e+01	-1.349588e+01
5.961941e+01	-1.354393e+01
5.996377e+01	-1.359113e+01
6.031012e+01	-1.363853e+01
6.065847e+01	-1.368731e+01
6.100883e+01	-1.373431e+01
6.136121e+01	-1.378213e+01
6.171563e+01	-1.383034e+01
6.207210e+01	-1.387844e+01
6.243063e+01	-1.392606e+01
6.279122e+01	-1.397423e+01
6.315390e+01	-1.402246e+01
6.351868e+01	-1.407070e+01
6.388556e+01	-1.411865e+01
6.425456e+01	-1.416615e+01
6.462569e+01	-1.421417e+01
6.499897e+01	-1.426318e+01
6.537440e+01	-1.431049e+01
6.575200e+01	-1.436015e+01
6.613178e+01	-1.440724e+01
6.651375e+01	-1.445517e+01
6.689793e+01	-1.450387e+01
6.728433e+01	-1.455236e+01
6.767297e+01	-1.459950e+01
6.806384e+01	-1.464846e+01
6.845698e+01	-1.469706e+01
6.885238e+01	-1.474522e+01
6.925007e+01	-1.479374e+01
6.965005e+01	-1.484234e+01
7.005235e+01	-1.489024e+01
7.045697e+01	-1.493852e+01
7.086393e+01	-1.498741e+01
7.127323e+01	-1.503551e+01
7.168490e+01	-1.508395e+01
7.209895e+01	-1.513223e+01
7.251539e+01	-1.518156e+01
7.293424e+01	-1.523048e+01
7.335551e+01	-1.527890e+01
7.377920e+01	-1.532712e+01
7.420535e+01	-1.537536e+01
7.463396e+01	-1.542338e+01
7.506504e+01	-1.547215e+01
7.549861e+01	-1.552118e+01
7.593469e+01	-1.557070e+01
7.637328e+01	-1.561932e+01
7.681441e+01	-1.566712e+01
7.725809e+01	-1.571605e+01
7.770433e+01	-1.576465e+01
7.815315e+01	-1.581295e+01
7.860456e+01	-1.586129e+01
7.905857e+01	-1.591112e+01
7.951521e+01	-1.595967e+01
7.997449e+01	-1.600740e+01
8.043642e+01	-1.605787e+01
8.090102e+01	-1.610572e+01
8.136830e+01	-1.615523e+01
8.183828e+01	-1.620323e+01
8.231097e+01	-1.625252e+01
8.278640e+01	-1.630110e+01
8.326457e+01	-1.634916e+01
8.374550e+01	-1.639848e+01
8.422921e+01	-1.644924e+01
8.471572e+01	-1.649685e+01
8.520503e+01	-1.654572e+01
8.569717e+01	-1.659399e+01
8.619215e+01	-1.664428e+01
8.669000e+01	-1.669224e+01
8.719071e+01	-1.674240e+01
8.769432e+01	-1.678959e+01
8.820084e+01	-1.683936e+01
8.871029e+01	-1.688786e+01
8.922267e+01	-1.693727e+01
8.973802e+01	-1.698585e+01
9.025634e+01	-1.703603e+01
9.077766e+01	-1.708568e+01
9.130199e+01	-1.713238e+01
9.182935e+01	-1.718216e+01
9.235975e+01	-1.723178e+01
9.289321e+01	-1.728153e+01
9.342976e+01	-1.732892e+01
9.396941e+01	-1.737902e+01
9.451217e+01	-1.742765e+01
9.505807e+01	-1.747691e+01
9.560712e+01	-1.752661e+01
9.615934e+01	-1.757471e+01
9.671476e+01	-1.762453e+01
9.727338e+01	-1.767423e+01
9.783522e+01	-1.772318e+01
9.840032e+01	-1.777179e+01
9.896867e+01	-1.782269e+01
9.954031e+01	-1.787030e+01
1.001153e+02	-1.791958e+01
1.006935e+02	-1.796816e+01
1.012751e+02	-1.801715e+01
1.018601e+02	-1.806683e+01
1.024484e+02	-1.811707e+01
1.030402e+02	-1.816632e+01
1.036353e+02	-1.821642e+01
1.042339e+02	-1.826547e+01
1.048360e+02	-1.831487e+01
1.054415e+02	-1.836321e+01
1.060505e+02	-1.841249e+01
1.066631e+02	-1.846236e+01
1.072791e+02	-1.851123e+01
1.078988e+02	-1.856128e+01
1.085220e+02	-1.860980e+01
1.091488e+02	-1.865925e+01
1.097793e+02	-1.870815e+01
1.104133e+02	-1.875749e+01
1.110511e+02	-1.880733e+01
1.116925e+02	-1.885839e+01
1.123376e+02	-1.890642e+01
1.129865e+02	-1.895516e+01
1.136391e+02	-1.900401e+01
1.142955e+02	-1.905322e+01
1.149556e+02	-1.910346e+01
1.156196e+02	-1.915436e+01
1.162874e+02	-1.920283e+01
1.169591e+02	-1.925230e+01
1.176347e+02	-1.930091e+01
1.183141e+02	-1.934985e+01
1.189975e+02	-1.940156e+01
1.196848e+02	-1.945156e+01
1.203761e+02	-1.949940e+01
1.210714e+02	-1.954880e+01
1.217707e+02	-1.959753e+01
1.224740e+02	-1.964872e+01
1.231814e+02	-1.969510e+01
1.238929e+02	-1.974806e+01
1.246085e+02	-1.979553e+01
1.253283e+02	-1.984756e+01
1.260522e+02	-1.989551e+01
1.267802e+02	-1.994575e+01
1.275125e+02	-1.999460e+01
1.282490e+02	-2.004270e+01
1.289898e+02	-2.009390e+01
1.297348e+02	-2.014417e+01
1.304842e+02	-2.019177e+01
1.312378e+02	-2.024276e+01
1.319959e+02	-2.029244e+01
1.327583e+02	-2.034098e+01
1.335251e+02	-2.038911e+01
1.342963e+02	-2.044098e+01
1.350720e+02	-2.049023e+01
1.358522e+02	-2.054111e+01
1.366368e+02	-2.058725e+01
1.374260e+02	-2.063943e+01
1.382198e+02	-2.068736e+01
1.390182e+02	-2.073843e+01
1.398211e+02	-2.078770e+01
1.406287e+02	-2.083664e+01
1.414410e+02	-2.088752e+01
1.422579e+02	-2.093781e+01
1.430796e+02	-2.098509e+01
1.439060e+02	-2.103675e+01
1.447372e+02	-2.108446e+01
1.455732e+02	-2.113500e+01
1.464141e+02	-2.118534e+01
1.472597e+02	-2.123429e+01
1.481103e+02	-2.128499e+01
1.489658e+02	-2.133369e+01
1.498262e+02	-2.138420e+01
1.506916e+02	-2.143193e+01
1.515620e+02	-2.148338e+01
1.524374e+02	-2.153286e+01
1.533179e+02	-2.158139e+01
1.542034e+02	-2.163120e+01
1.550941e+02	-2.168068e+01
1.559899e+02	-2.173328e+01
1.568909e+02	-2.178160e+01
1.577971e+02	-2.183137e+01
1.587085e+02	-2.187927e+01
1.596252e+02	-2.193088e+01
1.605472e+02	-2.197995e+01
1.614745e+02	-2.202814e+01
1.624072e+02	-2.207806e+01
1.633453e+02	-2.212749e+01
1.642887e+02	-2.217921e+01
1.652377e+02	-2.223032e+01
1.661921e+02	-2.227848e+01
1.671520e+02	-2.232731e+01
1.681175e+02	-2.237781e+01
1.690885e+02	-2.242810e+01
1.700651e+02	-2.247866e+01
1.710474e+02	-2.252758e+01
1.720354e+02	-2.257521e+01
1.730291e+02	-2.262769e+01
1.740285e+02	-2.267695e+01
1.750337e+02	-2.272689e+01
1.760446e+02	-2.277594e+01
1.770615e+02	-2.282577e+01
1.780842e+02	-2.287356e+01
1.791128e+02	-2.292582e+01
1.801473e+02	-2.297626e+01
1.811878e+02	-2.302533e+01
1.822344e+02	-2.307414e+01
1.832870e+02	-2.312728e+01
1.843456e+02	-2.317343e+01
1.854104e+02	-2.322311e+01
1.864813e+02	-2.327451e+01
1.875584e+02	-2.332166e+01
1.886418e+02	-2.337463e+01
1.897313e+02	-2.342480e+01
1.908272e+02	-2.347368e+01
1.919294e+02	-2.352341e+01
1.930380e+02	-2.357449e+01
1.941530e+02	-2.362178e+01
1.952744e+02	-2.367610e+01
1.964023e+02	-2.372425e+01
1.975367e+02	-2.377201e+01
1.986777e+02	-2.382317e+01
1.998252e+02	-2.387162e+01
2.009794e+02	-2.392389e+01
2.021403e+02	-2.397373e+01
2.033078e+02	-2.402338e+01
2.044821e+02	-2.407134e+01
2.056632e+02	-2.412093e+01
2.068511e+02	-2.417197e+01
2.080459e+02	-2.422102e+01
2.092475e+02	-2.427187e+01
2.104561e+02	-2.432111e+01
2.116717e+02	-2.437128e+01
2.128943e+02	-2.442147e+01
2.141240e+02	-2.447013e+01
2.153608e+02	-2.451615e+01
2.166047e+02	-2.457008e+01
2.178558e+02	-2.462033e+01
2.191141e+02	-2.466907e+01
2.203797e+02	-2.472298e+01
2.216526e+02	-2.476898e+01
2.229329e+02	-2.482114e+01
2.242205e+02	-2.486905e+01
2.255156e+02	-2.492018e+01
2.268182e+02	-2.497073e+01
2.281283e+02	-2.501677e+01
2.294459e+02	-2.507023e+01
2.307712e+02	-2.511727e+01
2.321041e+02	-2.517132e+01
2.334447e+02	-2.522014e+01
2.347931e+02	-2.527047e+01
2.361493e+02	-2.531981e+01
2.375133e+02	-2.536798e+01
2.388851e+02	-2.541853e+01
2.402649e+02	-2.546932e+01
2.416527e+02	-2.551855e+01
2.430484e+02	-2.556920e+01
2.444523e+02	-2.561683e+01
2.458642e+02	-2.566646e+01
2.472843e+02	-2.571647e+01
2.487126e+02	-2.576896e+01
2.501492e+02	-2.581739e+01
2.515940e+02	-2.586823e+01
2.530472e+02	-2.591838e+01
2.545088e+02	-2.597002e+01
2.559789e+02	-2.601909e+01
2.574574e+02	-2.606654e+01
2.589444e+02	-2.611803e+01
2.604401e+02	-2.616891e+01
2.619444e+02	-2.621844e+01
2.634574e+02	-2.626985e+01
2.649791e+02	-2.631934e+01
2.665096e+02	-2.636733e+01
2.680489e+02	-2.641552e+01
2.695972e+02	-2.646405e+01
2.711544e+02	-2.651790e+01
2.727205e+02	-2.656892e+01
2.742958e+02	-2.661996e+01
2.758801e+02	-2.666403e+01
2.774736e+02	-2.671847e+01
2.790762e+02	-2.676380e+01
2.806882e+02	-2.681713e+01
2.823094e+02	-2.687041e+01
2.839400e+02	-2.691954e+01
2.855800e+02	-2.696917e+01
2.872295e+02	-2.702036e+01
2.888886e+02	-2.707059e+01
2.905572e+02	-2.711744e+01
2.922354e+02	-2.716774e+01
2.939234e+02	-2.721802e+01
2.956211e+02	-2.726966e+01
2.973286e+02	-2.731953e+01
2.990459e+02	-2.736701e+01
3.007732e+02	-2.741781e+01
3.025104e+02	-2.746465e+01
3.042577e+02	-2.751724e+01
3.060151e+02	-2.756808e+01
3.077826e+02	-2.761873e+01
3.095604e+02	-2.766759e+01
3.113484e+02	-2.771695e+01
3.131467e+02	-2.776975e+01
3.149554e+02	-2.782344e+01
3.167746e+02	-2.787029e+01
3.186043e+02	-2.792008e+01
3.204445e+02	-2.796529e+01
3.222954e+02	-2.801693e+01
3.241570e+02	-2.806825e+01
3.260293e+02	-2.812086e+01
3.279124e+02	-2.817272e+01
3.298064e+02	-2.821977e+01
3.317114e+02	-2.826529e+01
3.336273e+02	-2.831657e+01
3.355544e+02	-2.836969e+01
3.374925e+02	-2.842604e+01
3.394418e+02	-2.846640e+01
3.414024e+02	-2.851969e+01
3.433744e+02	-2.857073e+01
3.453577e+02	-2.861767e+01
3.473525e+02	-2.866925e+01
3.493588e+02	-2.871775e+01
3.513766e+02	-2.876791e+01
3.534062e+02	-2.881787e+01
3.554474e+02	-2.887389e+01
3.575005e+02	-2.892084e+01
3.595654e+02	-2.896715e+01
3.616422e+02	-2.901631e+01
3.637311e+02	-2.906661e+01
3.658320e+02	-2.911862e+01
3.679450e+02	-2.916825e+01
3.700702e+02	-2.921094e+01
3.722077e+02	-2.926515e+01
3.743576e+02	-2.932273e+01
3.765199e+02	-2.936976e+01
3.786946e+02	-2.941788e+01
3.808820e+02	-2.947200e+01
3.830819e+02	-2.952125e+01
3.852946e+02	-2.956514e+01
3.875200e+02	-2.961154e+01
3.897583e+02	-2.966683e+01
3.920096e+02	-2.971980e+01
3.942738e+02	-2.976676e+01
3.965511e+02	-2.981856e+01
3.988416e+02	-2.987333e+01
4.011452e+02	-2.991636e+01
4.034622e+02	-2.997126e+01
4.057926e+02	-3.001655e+01
4.081365e+02	-3.007153e+01
4.104938e+02	-3.012272e+01
4.128648e+02	-3.017150e+01
4.152495e+02	-3.021643e+01
4.176480e+02	-3.027095e+01
4.200603e+02	-3.031891e+01
4.224866e+02	-3.037277e+01
4.249268e+02	-3.042279e+01
4.273812e+02	-3.047373e+01
4.298497e+02	-3.052659e+01
4.323325e+02	-3.056941e+01
4.348297e+02	-3.062213e+01
4.373412e+02	-3.067388e+01
4.398673e+02	-3.071845e+01
4.424079e+02	-3.077254e+01
4.449633e+02	-3.082216e+01
4.475334e+02	-3.087123e+01
4.501183e+02	-3.091160e+01
4.527182e+02	-3.097435e+01
4.553330e+02	-3.102691e+01
4.579630e+02	-3.107455e+01
4.606082e+02	-3.112201e+01
4.632687e+02	-3.117463e+01
4.659445e+02	-3.122527e+01
4.686358e+02	-3.127542e+01
4.713426e+02	-3.131904e+01
4.740650e+02	-3.137021e+01
4.768032e+02	-3.142201e+01
4.795572e+02	-3.147406e+01
4.823271e+02	-3.152676e+01
4.851130e+02	-3.157518e+01
4.879150e+02	-3.162736e+01
4.907332e+02	-3.166832e+01
4.935676e+02	-3.172281e+01
4.964185e+02	-3.177046e+01
4.992858e+02	-3.182844e+01
5.021696e+02	-3.187618e+01
5.050701e+02	-3.192812e+01
5.079874e+02	-3.197443e+01
5.109215e+02	-3.202861e+01
5.138726e+02	-3.207620e+01
5.168407e+02	-3.212793e+01
5.198259e+02	-3.217789e+01
5.228284e+02	-3.223094e+01
5.258482e+02	-3.227711e+01
5.288855e+02	-3.232574e+01
5.319403e+02	-3.237945e+01
5.350128e+02	-3.243425e+01
5.381030e+02	-3.247943e+01
5.412111e+02	-3.252303e+01
5.443371e+02	-3.257810e+01
5.474812e+02	-3.263666e+01
5.506434e+02	-3.268499e+01
5.538239e+02	-3.272815e+01
5.570228e+02	-3.278649e+01
5.602401e+02	-3.282986e+01
5.634760e+02	-3.287706e+01
5.667306e+02	-3.293097e+01
5.700040e+02	-3.297100e+01
5.732964e+02	-3.303235e+01
5.766077e+02	-3.308021e+01
5.799382e+02	-3.312942e+01
5.832879e+02	-3.317748e+01
5.866569e+02	-3.323496e+01
5.900454e+02	-3.328052e+01
5.934535e+02	-3.333397e+01
5.968813e+02	-3.338088e+01
6.003288e+02	-3.343101e+01
6.037963e+02	-3.348499e+01
6.072838e+02	-3.353547e+01
6.107914e+02	-3.358183e+01
6.143194e+02	-3.364026e+01
6.178676e+02	-3.368462e+01
6.214364e+02	-3.373352e+01
6.250258e+02	-3.378726e+01
6.286359e+02	-3.384203e+01
6.322669e+02	-3.388821e+01
6.359189e+02	-3.393677e+01
6.395919e+02	-3.398329e+01
6.432862e+02	-3.403813e+01
6.470017e+02	-3.408916e+01
6.507388e+02	-3.413922e+01
6.544974e+02	-3.418136e+01
6.582778e+02	-3.424123e+01
6.620800e+02	-3.428567e+01
6.659041e+02	-3.433346e+01
6.697504e+02	-3.438500e+01
6.736188e+02	-3.444391e+01
6.775096e+02	-3.448572e+01
6.814229e+02	-3.454044e+01
6.853587e+02	-3.458629e+01
6.893173e+02	-3.464614e+01
6.932988e+02	-3.469550e+01
6.973033e+02	-3.474010e+01
7.013309e+02	-3.479638e+01
