Frequency(Hz)	Magnitude(dB)
1.000000e+01	-1.731872e-05
1.005776e+01	-1.751936e-05
1.011585e+01	-1.772232e-05
1.017428e+01	-1.792764e-05
1.023305e+01	-1.813534e-05
1.029215e+01	-1.834544e-05
1.035160e+01	-1.855798e-05
1.041139e+01	-1.877298e-05
1.047153e+01	-1.899047e-05
1.053201e+01	-1.921048e-05
1.059284e+01	-1.943303e-05
1.065403e+01	-1.965817e-05
1.071556e+01	-1.988592e-05
1.077746e+01	-2.011630e-05
1.083971e+01	-2.034935e-05
1.090232e+01	-2.058510e-05
1.096529e+01	-2.082359e-05
1.102862e+01	-2.106483e-05
1.109232e+01	-2.130887e-05
1.115639e+01	-2.155574e-05
1.122083e+01	-2.180547e-05
1.128564e+01	-2.205809e-05
1.135083e+01	-2.231364e-05
1.141639e+01	-2.257215e-05
1.148233e+01	-2.283366e-05
1.154865e+01	-2.309819e-05
1.161536e+01	-2.336579e-05
1.168245e+01	-2.363649e-05
1.174992e+01	-2.391032e-05
1.181779e+01	-2.418733e-05
1.188605e+01	-2.446754e-05
1.195470e+01	-2.475101e-05
1.202375e+01	-2.503775e-05
1.209320e+01	-2.532782e-05
1.216305e+01	-2.562125e-05
1.223330e+01	-2.591808e-05
1.230396e+01	-2.621835e-05
1.237503e+01	-2.652209e-05
1.244651e+01	-2.682936e-05
1.251840e+01	-2.714018e-05
1.259070e+01	-2.745461e-05
1.266343e+01	-2.777268e-05
1.273657e+01	-2.809443e-05
1.281014e+01	-2.841991e-05
1.288413e+01	-2.874916e-05
1.295855e+01	-2.908223e-05
1.303339e+01	-2.941915e-05
1.310867e+01	-2.975998e-05
1.318439e+01	-3.010476e-05
1.326054e+01	-3.045353e-05
1.333713e+01	-3.080634e-05
1.341417e+01	-3.116324e-05
1.349165e+01	-3.152427e-05
1.356958e+01	-3.188949e-05
1.364795e+01	-3.225893e-05
1.372678e+01	-3.263266e-05
1.380607e+01	-3.301072e-05
1.388581e+01	-3.339316e-05
1.396602e+01	-3.378002e-05
1.404668e+01	-3.417137e-05
1.412782e+01	-3.456726e-05
1.420942e+01	-3.496773e-05
1.429149e+01	-3.537284e-05
1.437404e+01	-3.578264e-05
1.445706e+01	-3.619719e-05
1.454057e+01	-3.661654e-05
1.462455e+01	-3.704075e-05
1.470902e+01	-3.746988e-05
1.479398e+01	-3.790397e-05
1.487943e+01	-3.834310e-05
1.496537e+01	-3.878731e-05
1.505181e+01	-3.923667e-05
1.513875e+01	-3.969124e-05
1.522619e+01	-4.015107e-05
1.531414e+01	-4.061623e-05
1.540259e+01	-4.108678e-05
1.549156e+01	-4.156278e-05
1.558103e+01	-4.204429e-05
1.567103e+01	-4.253139e-05
1.576155e+01	-4.302412e-05
1.585258e+01	-4.352256e-05
1.594415e+01	-4.402678e-05
1.603624e+01	-4.453684e-05
1.612886e+01	-4.505281e-05
1.622202e+01	-4.557476e-05
1.631572e+01	-4.610275e-05
1.640996e+01	-4.663686e-05
1.650474e+01	-4.717716e-05
1.660008e+01	-4.772372e-05
1.669596e+01	-4.827661e-05
1.679239e+01	-4.883590e-05
1.688938e+01	-4.940168e-05
1.698694e+01	-4.997401e-05
1.708505e+01	-5.055297e-05
1.718373e+01	-5.113863e-05
1.728299e+01	-5.173108e-05
1.738281e+01	-5.233040e-05
1.748322e+01	-5.293666e-05
1.758420e+01	-5.354994e-05
1.768576e+01	-5.417033e-05
1.778792e+01	-5.479790e-05
1.789066e+01	-5.543275e-05
1.799399e+01	-5.607495e-05
1.809793e+01	-5.672459e-05
1.820246e+01	-5.738175e-05
1.830760e+01	-5.804653e-05
1.841334e+01	-5.871901e-05
1.851969e+01	-5.939928e-05
1.862666e+01	-6.008744e-05
1.873425e+01	-6.078356e-05
1.884246e+01	-6.148775e-05
1.895129e+01	-6.220010e-05
1.906075e+01	-6.292070e-05
1.917085e+01	-6.364965e-05
1.928158e+01	-6.438704e-05
1.939295e+01	-6.513298e-05
1.950496e+01	-6.588756e-05
1.961762e+01	-6.665088e-05
1.973093e+01	-6.742304e-05
1.984490e+01	-6.820415e-05
1.995952e+01	-6.899431e-05
2.007480e+01	-6.979362e-05
2.019076e+01	-7.060219e-05
2.030738e+01	-7.142013e-05
2.042467e+01	-7.224754e-05
2.054264e+01	-7.308455e-05
2.066130e+01	-7.393124e-05
2.078064e+01	-7.478775e-05
2.090066e+01	-7.565418e-05
2.102139e+01	-7.653065e-05
2.114280e+01	-7.741727e-05
2.126492e+01	-7.831416e-05
2.138775e+01	-7.922144e-05
2.151128e+01	-8.013924e-05
2.163553e+01	-8.106766e-05
2.176050e+01	-8.200685e-05
2.188619e+01	-8.295691e-05
2.201260e+01	-8.391798e-05
2.213974e+01	-8.489018e-05
2.226762e+01	-8.587365e-05
2.239624e+01	-8.686851e-05
2.252560e+01	-8.787490e-05
2.265571e+01	-8.889294e-05
2.278656e+01	-8.992278e-05
2.291818e+01	-9.096455e-05
2.305055e+01	-9.201839e-05
2.318369e+01	-9.308444e-05
2.331760e+01	-9.416283e-05
2.345228e+01	-9.525372e-05
2.358774e+01	-9.635725e-05
2.372398e+01	-9.747357e-05
2.386101e+01	-9.860281e-05
2.399883e+01	-9.974514e-05
2.413745e+01	-1.009007e-04
2.427686e+01	-1.020697e-04
2.441709e+01	-1.032521e-04
2.455812e+01	-1.044483e-04
2.469997e+01	-1.056584e-04
2.484263e+01	-1.068824e-04
2.498612e+01	-1.081207e-04
2.513044e+01	-1.093733e-04
2.527559e+01	-1.106404e-04
2.542158e+01	-1.119222e-04
2.556842e+01	-1.132188e-04
2.571610e+01	-1.145305e-04
2.586463e+01	-1.158573e-04
2.601403e+01	-1.171995e-04
2.616428e+01	-1.185573e-04
2.631541e+01	-1.199308e-04
2.646740e+01	-1.213202e-04
2.662028e+01	-1.227257e-04
2.677404e+01	-1.241475e-04
2.692868e+01	-1.255858e-04
2.708422e+01	-1.270407e-04
2.724066e+01	-1.285125e-04
2.739800e+01	-1.300013e-04
2.755625e+01	-1.315074e-04
2.771541e+01	-1.330309e-04
2.787550e+01	-1.345721e-04
2.803650e+01	-1.361311e-04
2.819844e+01	-1.377082e-04
2.836131e+01	-1.393036e-04
2.852513e+01	-1.409174e-04
2.868989e+01	-1.425500e-04
2.885560e+01	-1.442014e-04
2.902227e+01	-1.458720e-04
2.918990e+01	-1.475619e-04
2.935850e+01	-1.492715e-04
2.952807e+01	-1.510008e-04
2.969863e+01	-1.527501e-04
2.987016e+01	-1.545198e-04
3.004269e+01	-1.563099e-04
3.021622e+01	-1.581207e-04
3.039075e+01	-1.599526e-04
3.056628e+01	-1.618056e-04
3.074283e+01	-1.636802e-04
3.092040e+01	-1.655764e-04
3.109900e+01	-1.674946e-04
3.127862e+01	-1.694351e-04
3.145929e+01	-1.713980e-04
3.164099e+01	-1.733836e-04
3.182375e+01	-1.753923e-04
3.200756e+01	-1.774242e-04
3.219244e+01	-1.794797e-04
3.237838e+01	-1.815590e-04
3.256540e+01	-1.836623e-04
3.275349e+01	-1.857901e-04
3.294268e+01	-1.879424e-04
3.313295e+01	-1.901198e-04
3.332433e+01	-1.923223e-04
3.351681e+01	-1.945504e-04
3.371040e+01	-1.968042e-04
3.390511e+01	-1.990842e-04
3.410094e+01	-2.013906e-04
3.429791e+01	-2.037237e-04
3.449601e+01	-2.060839e-04
3.469526e+01	-2.084713e-04
3.489566e+01	-2.108865e-04
3.509721e+01	-2.133296e-04
3.529993e+01	-2.158010e-04
3.550382e+01	-2.183011e-04
3.570889e+01	-2.208301e-04
3.591515e+01	-2.233884e-04
3.612259e+01	-2.259763e-04
3.633123e+01	-2.285943e-04
3.654108e+01	-2.312425e-04
3.675214e+01	-2.339215e-04
3.696442e+01	-2.366314e-04
3.717792e+01	-2.393728e-04
3.739266e+01	-2.421459e-04
3.760864e+01	-2.449512e-04
3.782587e+01	-2.477889e-04
3.804435e+01	-2.506595e-04
3.826409e+01	-2.535634e-04
3.848510e+01	-2.565009e-04
3.870739e+01	-2.594725e-04
3.893096e+01	-2.624785e-04
3.915583e+01	-2.655193e-04
3.938199e+01	-2.685953e-04
3.960946e+01	-2.717069e-04
3.983824e+01	-2.748546e-04
4.006834e+01	-2.780388e-04
4.029978e+01	-2.812598e-04
4.053255e+01	-2.845182e-04
4.076666e+01	-2.878143e-04
4.100213e+01	-2.911486e-04
4.123896e+01	-2.945215e-04
4.147715e+01	-2.979335e-04
4.171672e+01	-3.013851e-04
4.195767e+01	-3.048766e-04
4.220002e+01	-3.084085e-04
4.244377e+01	-3.119814e-04
4.268892e+01	-3.155957e-04
4.293549e+01	-3.192518e-04
4.318348e+01	-3.229503e-04
4.343291e+01	-3.266916e-04
4.368377e+01	-3.304763e-04
4.393609e+01	-3.343048e-04
4.418986e+01	-3.381776e-04
4.444510e+01	-3.420954e-04
4.470182e+01	-3.460585e-04
4.496001e+01	-3.500675e-04
4.521970e+01	-3.541230e-04
4.548089e+01	-3.582254e-04
4.574358e+01	-3.623754e-04
4.600779e+01	-3.665734e-04
4.627353e+01	-3.708201e-04
4.654081e+01	-3.751160e-04
4.680963e+01	-3.794616e-04
4.708000e+01	-3.838576e-04
4.735193e+01	-3.883045e-04
4.762543e+01	-3.928029e-04
4.790051e+01	-3.973534e-04
4.817719e+01	-4.019566e-04
4.845545e+01	-4.066132e-04
4.873533e+01	-4.113237e-04
4.901682e+01	-4.160888e-04
4.929994e+01	-4.209090e-04
4.958470e+01	-4.257851e-04
4.987110e+01	-4.307177e-04
5.015915e+01	-4.357075e-04
5.044887e+01	-4.407550e-04
5.074026e+01	-4.458610e-04
5.103333e+01	-4.510262e-04
5.132810e+01	-4.562512e-04
5.162457e+01	-4.615367e-04
5.192275e+01	-4.668834e-04
5.222265e+01	-4.722921e-04
5.252429e+01	-4.777634e-04
5.282767e+01	-4.832981e-04
5.313280e+01	-4.888970e-04
5.343969e+01	-4.945607e-04
5.374836e+01	-5.002900e-04
5.405880e+01	-5.060856e-04
5.437105e+01	-5.119484e-04
5.468509e+01	-5.178791e-04
5.500095e+01	-5.238785e-04
5.531863e+01	-5.299474e-04
5.563815e+01	-5.360866e-04
5.595951e+01	-5.422970e-04
5.628273e+01	-5.485792e-04
5.660782e+01	-5.549343e-04
5.693479e+01	-5.613629e-04
5.726364e+01	-5.678660e-04
5.759439e+01	-5.744445e-04
5.792705e+01	-5.810991e-04
5.826164e+01	-5.878309e-04
5.859815e+01	-5.946406e-04
5.893662e+01	-6.015292e-04
5.927703e+01	-6.084976e-04
5.961941e+01	-6.155467e-04
5.996377e+01	-6.226775e-04
6.031012e+01	-6.298908e-04
6.065847e+01	-6.371878e-04
6.100883e+01	-6.445692e-04
6.136121e+01	-6.520362e-04
6.171563e+01	-6.595896e-04
6.207210e+01	-6.672305e-04
6.243063e+01	-6.749600e-04
6.279122e+01	-6.827790e-04
6.315390e+01	-6.906885e-04
6.351868e+01	-6.986897e-04
6.388556e+01	-7.067836e-04
6.425456e+01	-7.149712e-04
6.462569e+01	-7.232536e-04
6.499897e+01	-7.316320e-04
6.537440e+01	-7.401074e-04
6.575200e+01	-7.486810e-04
6.613178e+01	-7.573540e-04
6.651375e+01	-7.661273e-04
6.689793e+01	-7.750023e-04
6.728433e+01	-7.839801e-04
6.767297e+01	-7.930619e-04
6.806384e+01	-8.022489e-04
6.845698e+01	-8.115423e-04
6.885238e+01	-8.209434e-04
6.925007e+01	-8.304533e-04
6.965005e+01	-8.400734e-04
7.005235e+01	-8.498050e-04
7.045697e+01	-8.596492e-04
7.086393e+01	-8.696075e-04
7.127323e+01	-8.796811e-04
7.168490e+01	-8.898714e-04
7.209895e+01	-9.001797e-04
7.251539e+01	-9.106075e-04
7.293424e+01	-9.211560e-04
7.335551e+01	-9.318267e-04
7.377920e+01	-9.426210e-04
7.420535e+01	-9.535403e-04
7.463396e+01	-9.645861e-04
7.506504e+01	-9.757599e-04
7.549861e+01	-9.870630e-04
7.593469e+01	-9.984971e-04
7.637328e+01	-1.010064e-03
7.681441e+01	-1.021764e-03
7.725809e+01	-1.033600e-03
7.770433e+01	-1.045573e-03
7.815315e+01	-1.057685e-03
7.860456e+01	-1.069937e-03
7.905857e+01	-1.082331e-03
7.951521e+01	-1.094869e-03
7.997449e+01	-1.107551e-03
8.043642e+01	-1.120381e-03
8.090102e+01	-1.133359e-03
8.136830e+01	-1.146488e-03
8.183828e+01	-1.159768e-03
8.231097e+01	-1.173203e-03
8.278640e+01	-1.186793e-03
8.326457e+01	-1.200540e-03
8.374550e+01	-1.214447e-03
8.422921e+01	-1.228514e-03
8.471572e+01	-1.242745e-03
8.520503e+01	-1.257141e-03
8.569717e+01	-1.271703e-03
8.619215e+01	-1.286434e-03
8.669000e+01	-1.301335e-03
8.719071e+01	-1.316409e-03
8.769432e+01	-1.331658e-03
8.820084e+01	-1.347083e-03
8.871029e+01	-1.362687e-03
8.922267e+01	-1.378471e-03
8.973802e+01	-1.394439e-03
9.025634e+01	-1.410591e-03
9.077766e+01	-1.426930e-03
9.130199e+01	-1.443459e-03
9.182935e+01	-1.460179e-03
9.235975e+01	-1.477093e-03
9.289321e+01	-1.494202e-03
9.342976e+01	-1.511510e-03
9.396941e+01	-1.529018e-03
9.451217e+01	-1.546729e-03
9.505807e+01	-1.564645e-03
9.560712e+01	-1.582769e-03
9.615934e+01	-1.601102e-03
9.671476e+01	-1.619648e-03
9.727338e+01	-1.638408e-03
9.783522e+01	-1.657386e-03
9.840032e+01	-1.676584e-03
9.896867e+01	-1.696004e-03
9.954031e+01	-1.715648e-03
1.001153e+02	-1.735521e-03
1.006935e+02	-1.755623e-03
1.012751e+02	-1.775958e-03
1.018601e+02	-1.796529e-03
1.024484e+02	-1.817338e-03
1.030402e+02	-1.838388e-03
1.036353e+02	-1.859682e-03
1.042339e+02	-1.881222e-03
1.048360e+02	-1.903011e-03
1.054415e+02	-1.925053e-03
1.060505e+02	-1.947351e-03
1.066631e+02	-1.969906e-03
1.072791e+02	-1.992723e-03
1.078988e+02	-2.015804e-03
1.085220e+02	-2.039152e-03
1.091488e+02	-2.062770e-03
1.097793e+02	-2.086662e-03
1.104133e+02	-2.110831e-03
1.110511e+02	-2.135280e-03
1.116925e+02	-2.160011e-03
1.123376e+02	-2.185029e-03
1.129865e+02	-2.210337e-03
1.136391e+02	-2.235938e-03
1.142955e+02	-2.261835e-03
1.149556e+02	-2.288032e-03
1.156196e+02	-2.314532e-03
1.162874e+02	-2.341339e-03
1.169591e+02	-2.368457e-03
1.176347e+02	-2.395889e-03
1.183141e+02	-2.423638e-03
1.189975e+02	-2.451709e-03
1.196848e+02	-2.480104e-03
1.203761e+02	-2.508828e-03
1.210714e+02	-2.537885e-03
1.217707e+02	-2.567279e-03
1.224740e+02	-2.597012e-03
1.231814e+02	-2.627090e-03
1.238929e+02	-2.657517e-03
1.246085e+02	-2.688295e-03
1.253283e+02	-2.719430e-03
1.260522e+02	-2.750925e-03
1.267802e+02	-2.782785e-03
1.275125e+02	-2.815014e-03
1.282490e+02	-2.847616e-03
1.289898e+02	-2.880596e-03
1.297348e+02	-2.913957e-03
1.304842e+02	-2.947704e-03
1.312378e+02	-2.981843e-03
1.319959e+02	-3.016376e-03
1.327583e+02	-3.051309e-03
1.335251e+02	-3.086647e-03
1.342963e+02	-3.122394e-03
1.350720e+02	-3.158554e-03
1.358522e+02	-3.195133e-03
1.366368e+02	-3.232136e-03
1.374260e+02	-3.269567e-03
1.382198e+02	-3.307431e-03
1.390182e+02	-3.345734e-03
1.398211e+02	-3.384480e-03
1.406287e+02	-3.423675e-03
1.414410e+02	-3.463323e-03
1.422579e+02	-3.503430e-03
1.430796e+02	-3.544002e-03
1.439060e+02	-3.585043e-03
1.447372e+02	-3.626560e-03
1.455732e+02	-3.668556e-03
1.464141e+02	-3.711039e-03
1.472597e+02	-3.754014e-03
1.481103e+02	-3.797486e-03
1.489658e+02	-3.841462e-03
1.498262e+02	-3.885946e-03
1.506916e+02	-3.930945e-03
1.515620e+02	-3.976466e-03
1.524374e+02	-4.022513e-03
1.533179e+02	-4.069093e-03
1.542034e+02	-4.116212e-03
1.550941e+02	-4.163876e-03
1.559899e+02	-4.212092e-03
1.568909e+02	-4.260867e-03
1.577971e+02	-4.310205e-03
1.587085e+02	-4.360115e-03
1.596252e+02	-4.410602e-03
1.605472e+02	-4.461674e-03
1.614745e+02	-4.513337e-03
1.624072e+02	-4.565597e-03
1.633453e+02	-4.618463e-03
1.642887e+02	-4.671940e-03
1.652377e+02	-4.726036e-03
1.661921e+02	-4.780758e-03
1.671520e+02	-4.836114e-03
1.681175e+02	-4.892110e-03
1.690885e+02	-4.948754e-03
1.700651e+02	-5.006053e-03
1.710474e+02	-5.064016e-03
1.720354e+02	-5.122649e-03
1.730291e+02	-5.181961e-03
1.740285e+02	-5.241959e-03
1.750337e+02	-5.302651e-03
1.760446e+02	-5.364046e-03
1.770615e+02	-5.426151e-03
1.780842e+02	-5.488974e-03
1.791128e+02	-5.552525e-03
1.801473e+02	-5.616811e-03
1.811878e+02	-5.681840e-03
1.822344e+02	-5.747622e-03
1.832870e+02	-5.814165e-03
1.843456e+02	-5.881478e-03
1.854104e+02	-5.949570e-03
1.864813e+02	-6.018449e-03
1.875584e+02	-6.088125e-03
1.886418e+02	-6.158608e-03
1.897313e+02	-6.229905e-03
1.908272e+02	-6.302028e-03
1.919294e+02	-6.374985e-03
1.930380e+02	-6.448786e-03
1.941530e+02	-6.523440e-03
1.952744e+02	-6.598959e-03
1.964023e+02	-6.675350e-03
1.975367e+02	-6.752626e-03
1.986777e+02	-6.830795e-03
1.998252e+02	-6.909868e-03
2.009794e+02	-6.989856e-03
2.021403e+02	-7.070770e-03
2.033078e+02	-7.152619e-03
2.044821e+02	-7.235414e-03
2.056632e+02	-7.319168e-03
2.068511e+02	-7.403890e-03
2.080459e+02	-7.489592e-03
2.092475e+02	-7.576284e-03
2.104561e+02	-7.663980e-03
2.116717e+02	-7.752690e-03
2.128943e+02	-7.842425e-03
2.141240e+02	-7.933199e-03
2.153608e+02	-8.025022e-03
2.166047e+02	-8.117906e-03
2.178558e+02	-8.211865e-03
2.191141e+02	-8.306911e-03
2.203797e+02	-8.403055e-03
2.216526e+02	-8.500311e-03
2.229329e+02	-8.598692e-03
2.242205e+02	-8.698210e-03
2.255156e+02	-8.798878e-03
2.268182e+02	-8.900711e-03
2.281283e+02	-9.003720e-03
2.294459e+02	-9.107921e-03
2.307712e+02	-9.213327e-03
2.321041e+02	-9.319950e-03
2.334447e+02	-9.427807e-03
2.347931e+02	-9.536910e-03
2.361493e+02	-9.647275e-03
2.375133e+02	-9.758915e-03
2.388851e+02	-9.871846e-03
2.402649e+02	-9.986082e-03
2.416527e+02	-1.010164e-02
2.430484e+02	-1.021853e-02
2.444523e+02	-1.033677e-02
2.458642e+02	-1.045638e-02
2.472843e+02	-1.057737e-02
2.487126e+02	-1.069976e-02
2.501492e+02	-1.082357e-02
2.515940e+02	-1.094880e-02
2.530472e+02	-1.107549e-02
2.545088e+02	-1.120363e-02
2.559789e+02	-1.133326e-02
2.574574e+02	-1.146439e-02
2.589444e+02	-1.159703e-02
2.604401e+02	-1.173120e-02
2.619444e+02	-1.186692e-02
2.634574e+02	-1.200421e-02
2.649791e+02	-1.214309e-02
2.665096e+02	-1.228357e-02
2.680489e+02	-1.242567e-02
2.695972e+02	-1.256942e-02
2.711544e+02	-1.271482e-02
2.727205e+02	-1.286191e-02
2.742958e+02	-1.301070e-02
2.758801e+02	-1.316120e-02
2.774736e+02	-1.331344e-02
2.790762e+02	-1.346744e-02
2.806882e+02	-1.362322e-02
2.823094e+02	-1.378080e-02
2.839400e+02	-1.394019e-02
2.855800e+02	-1.410143e-02
2.872295e+02	-1.426453e-02
2.888886e+02	-1.442951e-02
2.905572e+02	-1.459640e-02
2.922354e+02	-1.476521e-02
2.939234e+02	-1.493598e-02
2.956211e+02	-1.510871e-02
2.973286e+02	-1.528344e-02
2.990459e+02	-1.546019e-02
3.007732e+02	-1.563898e-02
3.025104e+02	-1.581983e-02
3.042577e+02	-1.600276e-02
3.060151e+02	-1.618781e-02
3.077826e+02	-1.637500e-02
3.095604e+02	-1.656434e-02
3.113484e+02	-1.675588e-02
3.131467e+02	-1.694962e-02
3.149554e+02	-1.714559e-02
3.167746e+02	-1.734383e-02
3.186043e+02	-1.754436e-02
3.204445e+02	-1.774720e-02
3.222954e+02	-1.795238e-02
3.241570e+02	-1.815992e-02
3.260293e+02	-1.836986e-02
3.279124e+02	-1.858223e-02
3.298064e+02	-1.879704e-02
3.317114e+02	-1.901433e-02
3.336273e+02	-1.923413e-02
3.355544e+02	-1.945646e-02
3.374925e+02	-1.968135e-02
3.394418e+02	-1.990884e-02
3.414024e+02	-2.013896e-02
3.433744e+02	-2.037172e-02
3.453577e+02	-2.060717e-02
3.473525e+02	-2.084534e-02
3.493588e+02	-2.108625e-02
3.513766e+02	-2.132993e-02
3.534062e+02	-2.157643e-02
3.554474e+02	-2.182577e-02
3.575005e+02	-2.207798e-02
3.595654e+02	-2.233310e-02
3.616422e+02	-2.259116e-02
3.637311e+02	-2.285220e-02
3.658320e+02	-2.311624e-02
3.679450e+02	-2.338332e-02
3.700702e+02	-2.365348e-02
3.722077e+02	-2.392676e-02
3.743576e+02	-2.420318e-02
3.765199e+02	-2.448279e-02
3.786946e+02	-2.476562e-02
3.808820e+02	-2.505170e-02
3.830819e+02	-2.534108e-02
3.852946e+02	-2.563380e-02
3.875200e+02	-2.592988e-02
3.897583e+02	-2.622938e-02
3.920096e+02	-2.653232e-02
3.942738e+02	-2.683875e-02
3.965511e+02	-2.714871e-02
3.988416e+02	-2.746224e-02
4.011452e+02	-2.777938e-02
4.034622e+02	-2.810016e-02
4.057926e+02	-2.842464e-02
4.081365e+02	-2.875286e-02
4.104938e+02	-2.908485e-02
4.128648e+02	-2.942066e-02
4.152495e+02	-2.976033e-02
4.176480e+02	-3.010392e-02
4.200603e+02	-3.045145e-02
4.224866e+02	-3.080299e-02
4.249268e+02	-3.115856e-02
4.273812e+02	-3.151823e-02
4.298497e+02	-3.188203e-02
4.323325e+02	-3.225002e-02
4.348297e+02	-3.262224e-02
4.373412e+02	-3.299874e-02
4.398673e+02	-3.337956e-02
4.424079e+02	-3.376477e-02
4.449633e+02	-3.415440e-02
4.475334e+02	-3.454851e-02
4.501183e+02	-3.494715e-02
4.527182e+02	-3.535037e-02
4.553330e+02	-3.575822e-02
4.579630e+02	-3.617076e-02
4.606082e+02	-3.658804e-02
4.632687e+02	-3.701011e-02
4.659445e+02	-3.743703e-02
4.686358e+02	-3.786885e-02
4.713426e+02	-3.830563e-02
4.740650e+02	-3.874743e-02
4.768032e+02	-3.919430e-02
4.795572e+02	-3.964630e-02
4.823271e+02	-4.010348e-02
4.851130e+02	-4.056592e-02
4.879150e+02	-4.103366e-02
4.907332e+02	-4.150677e-02
4.935676e+02	-4.198531e-02
4.964185e+02	-4.246934e-02
4.992858e+02	-4.295892e-02
5.021696e+02	-4.345411e-02
5.050701e+02	-4.395499e-02
5.079874e+02	-4.446161e-02
5.109215e+02	-4.497403e-02
5.138726e+02	-4.549234e-02
5.168407e+02	-4.601658e-02
5.198259e+02	-4.654683e-02
5.228284e+02	-4.708316e-02
5.258482e+02	-4.762564e-02
5.288855e+02	-4.817433e-02
5.319403e+02	-4.872930e-02
5.350128e+02	-4.929064e-02
5.381030e+02	-4.985840e-02
5.412111e+02	-5.043266e-02
5.443371e+02	-5.101350e-02
5.474812e+02	-5.160099e-02
5.506434e+02	-5.219521e-02
5.538239e+02	-5.279622e-02
5.570228e+02	-5.340411e-02
5.602401e+02	-5.401896e-02
5.634760e+02	-5.464085e-02
5.667306e+02	-5.526984e-02
5.700040e+02	-5.590603e-02
5.732964e+02	-5.654950e-02
5.766077e+02	-5.720032e-02
5.799382e+02	-5.785858e-02
5.832879e+02	-5.852437e-02
5.866569e+02	-5.919776e-02
5.900454e+02	-5.987885e-02
5.934535e+02	-6.056773e-02
5.968813e+02	-6.126447e-02
6.003288e+02	-6.196916e-02
6.037963e+02	-6.268191e-02
6.072838e+02	-6.340279e-02
6.107914e+02	-6.413191e-02
6.143194e+02	-6.486934e-02
6.178676e+02	-6.561519e-02
6.214364e+02	-6.636955e-02
6.250258e+02	-6.713251e-02
6.286359e+02	-6.790418e-02
6.322669e+02	-6.868465e-02
6.359189e+02	-6.947401e-02
6.395919e+02	-7.027237e-02
6.432862e+02	-7.107984e-02
6.470017e+02	-7.189650e-02
6.507388e+02	-7.272247e-02
6.544974e+02	-7.355784e-02
6.582778e+02	-7.440273e-02
6.620800e+02	-7.525724e-02
6.659041e+02	-7.612148e-02
6.697504e+02	-7.699555e-02
6.736188e+02	-7.787957e-02
6.775096e+02	-7.877365e-02
6.814229e+02	-7.967790e-02
6.853587e+02	-8.059243e-02
6.893173e+02	-8.151736e-02
6.932988e+02	-8.245280e-02
6.973033e+02	-8.339888e-02
7.013309e+02	-8.435570e-02
