Frequency(Hz)	Magnitude(dB)
1.000000e+01	-2.038870e+00
1.005776e+01	-2.057889e+00
1.011585e+01	-2.076905e+00
1.017428e+01	-2.095922e+00
1.023305e+01	-2.114988e+00
1.029215e+01	-2.134312e+00
1.035160e+01	-2.153921e+00
1.041139e+01	-2.173630e+00
1.047153e+01	-2.193344e+00
1.053201e+01	-2.213177e+00
1.059284e+01	-2.233394e+00
1.065403e+01	-2.253382e+00
1.071556e+01	-2.273871e+00
1.077746e+01	-2.294394e+00
1.083971e+01	-2.315091e+00
1.090232e+01	-2.335592e+00
1.096529e+01	-2.356384e+00
1.102862e+01	-2.377587e+00
1.109232e+01	-2.398615e+00
1.115639e+01	-2.419799e+00
1.122083e+01	-2.441342e+00
1.128564e+01	-2.462906e+00
1.135083e+01	-2.484837e+00
1.141639e+01	-2.506512e+00
1.148233e+01	-2.528702e+00
1.154865e+01	-2.550601e+00
1.161536e+01	-2.573045e+00
1.168245e+01	-2.595404e+00
1.174992e+01	-2.618113e+00
1.181779e+01	-2.640822e+00
1.188605e+01	-2.663472e+00
1.195470e+01	-2.686576e+00
1.202375e+01	-2.709789e+00
1.209320e+01	-2.733073e+00
1.216305e+01	-2.756366e+00
1.223330e+01	-2.780120e+00
1.230396e+01	-2.803862e+00
1.237503e+01	-2.827406e+00
1.244651e+01	-2.851729e+00
1.251840e+01	-2.875890e+00
1.259070e+01	-2.900180e+00
1.266343e+01	-2.924417e+00
1.273657e+01	-2.949196e+00
1.281014e+01	-2.973788e+00
1.288413e+01	-2.998655e+00
1.295855e+01	-3.023932e+00
1.303339e+01	-3.048866e+00
1.310867e+01	-3.074211e+00
1.318439e+01	-3.099590e+00
1.326054e+01	-3.125313e+00
1.333713e+01	-3.151093e+00
1.341417e+01	-3.176998e+00
1.349165e+01	-3.203016e+00
1.356958e+01	-3.229165e+00
1.364795e+01	-3.255386e+00
1.372678e+01	-3.281886e+00
1.380607e+01	-3.308627e+00
1.388581e+01	-3.335229e+00
1.396602e+01	-3.361908e+00
1.404668e+01	-3.389239e+00
1.412782e+01	-3.416314e+00
1.420942e+01	-3.443569e+00
1.429149e+01	-3.471176e+00
1.437404e+01	-3.498687e+00
1.445706e+01	-3.526459e+00
1.454057e+01	-3.554435e+00
1.462455e+01	-3.582256e+00
1.470902e+01	-3.610391e+00
1.479398e+01	-3.638552e+00
1.487943e+01	-3.667224e+00
1.496537e+01	-3.695851e+00
1.505181e+01	-3.724342e+00
1.513875e+01	-3.753500e+00
1.522619e+01	-3.782673e+00
1.531414e+01	-3.811449e+00
1.540259e+01	-3.841083e+00
1.549156e+01	-3.870651e+00
1.558103e+01	-3.899953e+00
1.567103e+01	-3.929704e+00
1.576155e+01	-3.959767e+00
1.585258e+01	-3.989493e+00
1.594415e+01	-4.019397e+00
1.603624e+01	-4.049876e+00
1.612886e+01	-4.080548e+00
1.622202e+01	-4.111059e+00
1.631572e+01	-4.141494e+00
1.640996e+01	-4.172402e+00
1.650474e+01	-4.203372e+00
1.660008e+01	-4.234251e+00
1.669596e+01	-4.265393e+00
1.679239e+01	-4.296981e+00
1.688938e+01	-4.328661e+00
1.698694e+01	-4.360091e+00
1.708505e+01	-4.391830e+00
1.718373e+01	-4.423698e+00
1.728299e+01	-4.455791e+00
1.738281e+01	-4.488085e+00
1.748322e+01	-4.520199e+00
1.758420e+01	-4.552738e+00
1.768576e+01	-4.585264e+00
1.778792e+01	-4.617803e+00
1.789066e+01	-4.650871e+00
1.799399e+01	-4.683743e+00
1.809793e+01	-4.716700e+00
1.820246e+01	-4.749967e+00
1.830760e+01	-4.783319e+00
1.841334e+01	-4.816719e+00
1.851969e+01	-4.850561e+00
1.862666e+01	-4.883903e+00
1.873425e+01	-4.918062e+00
1.884246e+01	-4.951785e+00
1.895129e+01	-4.986073e+00
1.906075e+01	-5.020238e+00
1.917085e+01	-5.054562e+00
1.928158e+01	-5.088982e+00
1.939295e+01	-5.123651e+00
1.950496e+01	-5.158279e+00
1.961762e+01	-5.193200e+00
1.973093e+01	-5.228160e+00
1.984490e+01	-5.263090e+00
1.995952e+01	-5.298488e+00
2.007480e+01	-5.333821e+00
2.019076e+01	-5.369221e+00
2.030738e+01	-5.404623e+00
2.042467e+01	-5.440223e+00
2.054264e+01	-5.476049e+00
2.066130e+01	-5.511988e+00
2.078064e+01	-5.547935e+00
2.090066e+01	-5.583899e+00
2.102139e+01	-5.620899e+00
2.114280e+01	-5.656780e+00
2.126492e+01	-5.693111e+00
2.138775e+01	-5.729990e+00
2.151128e+01	-5.766564e+00
2.163553e+01	-5.803457e+00
2.176050e+01	-5.840150e+00
2.188619e+01	-5.877372e+00
2.201260e+01	-5.914366e+00
2.213974e+01	-5.951945e+00
2.226762e+01	-5.989087e+00
2.239624e+01	-6.026703e+00
2.252560e+01	-6.064526e+00
2.265571e+01	-6.102073e+00
2.278656e+01	-6.139783e+00
2.291818e+01	-6.177674e+00
2.305055e+01	-6.215628e+00
2.318369e+01	-6.253974e+00
2.331760e+01	-6.292202e+00
2.345228e+01	-6.330420e+00
2.358774e+01	-6.368943e+00
2.372398e+01	-6.407380e+00
2.386101e+01	-6.446042e+00
2.399883e+01	-6.484655e+00
2.413745e+01	-6.523439e+00
2.427686e+01	-6.562273e+00
2.441709e+01	-6.601372e+00
2.455812e+01	-6.640544e+00
2.469997e+01	-6.679685e+00
2.484263e+01	-6.719227e+00
2.498612e+01	-6.758621e+00
2.513044e+01	-6.798401e+00
2.527559e+01	-6.837756e+00
2.542158e+01	-6.877257e+00
2.556842e+01	-6.917392e+00
2.571610e+01	-6.957251e+00
2.586463e+01	-6.997559e+00
2.601403e+01	-7.037149e+00
2.616428e+01	-7.077130e+00
2.631541e+01	-7.117754e+00
2.646740e+01	-7.157919e+00
2.662028e+01	-7.198643e+00
2.677404e+01	-7.239273e+00
2.692868e+01	-7.279160e+00
2.708422e+01	-7.320209e+00
2.724066e+01	-7.361339e+00
2.739800e+01	-7.401663e+00
2.755625e+01	-7.442872e+00
2.771541e+01	-7.484124e+00
2.787550e+01	-7.525387e+00
2.803650e+01	-7.566287e+00
2.819844e+01	-7.607522e+00
2.836131e+01	-7.648814e+00
2.852513e+01	-7.690480e+00
2.868989e+01	-7.731769e+00
2.885560e+01	-7.773698e+00
2.902227e+01	-7.815591e+00
2.918990e+01	-7.857587e+00
2.935850e+01	-7.898619e+00
2.952807e+01	-7.941153e+00
2.969863e+01	-7.983066e+00
2.987016e+01	-8.024492e+00
3.004269e+01	-8.067556e+00
3.021622e+01	-8.109643e+00
3.039075e+01	-8.151808e+00
3.056628e+01	-8.194455e+00
3.074283e+01	-8.236943e+00
3.092040e+01	-8.279256e+00
3.109900e+01	-8.322190e+00
3.127862e+01	-8.364765e+00
3.145929e+01	-8.407902e+00
3.164099e+01	-8.450525e+00
3.182375e+01	-8.493347e+00
3.200756e+01	-8.536292e+00
3.219244e+01	-8.579478e+00
3.237838e+01	-8.622569e+00
3.256540e+01	-8.665530e+00
3.275349e+01	-8.708730e+00
3.294268e+01	-8.752598e+00
3.313295e+01	-8.794976e+00
3.332433e+01	-8.839196e+00
3.351681e+01	-8.882842e+00
3.371040e+01	-8.926108e+00
3.390511e+01	-8.969983e+00
3.410094e+01	-9.013808e+00
3.429791e+01	-9.056867e+00
3.449601e+01	-9.100932e+00
3.469526e+01	-9.144806e+00
3.489566e+01	-9.188854e+00
3.509721e+01	-9.233587e+00
3.529993e+01	-9.277123e+00
3.550382e+01	-9.321405e+00
3.570889e+01	-9.365546e+00
3.591515e+01	-9.409546e+00
3.612259e+01	-9.454107e+00
3.633123e+01	-9.498514e+00
3.654108e+01	-9.543430e+00
3.675214e+01	-9.587818e+00
3.696442e+01	-9.631926e+00
3.717792e+01	-9.676139e+00
3.739266e+01	-9.721496e+00
3.760864e+01	-9.765879e+00
3.782587e+01	-9.810344e+00
3.804435e+01	-9.855973e+00
3.826409e+01	-9.900105e+00
3.848510e+01	-9.945464e+00
3.870739e+01	-9.990441e+00
3.893096e+01	-1.003528e+01
3.915583e+01	-1.008102e+01
3.938199e+01	-1.012536e+01
3.960946e+01	-1.017086e+01
3.983824e+01	-1.021625e+01
4.006834e+01	-1.026182e+01
4.029978e+01	-1.030726e+01
4.053255e+01	-1.035222e+01
4.076666e+01	-1.039713e+01
4.100213e+01	-1.044289e+01
4.123896e+01	-1.048891e+01
4.147715e+01	-1.053394e+01
4.171672e+01	-1.057995e+01
4.195767e+01	-1.062549e+01
4.220002e+01	-1.067153e+01
4.244377e+01	-1.071720e+01
4.268892e+01	-1.076251e+01
4.293549e+01	-1.080863e+01
4.318348e+01	-1.085428e+01
4.343291e+01	-1.090070e+01
4.368377e+01	-1.094649e+01
4.393609e+01	-1.099259e+01
4.418986e+01	-1.103886e+01
4.444510e+01	-1.108520e+01
4.470182e+01	-1.113051e+01
4.496001e+01	-1.117706e+01
4.521970e+01	-1.122299e+01
4.548089e+01	-1.126941e+01
4.574358e+01	-1.131602e+01
4.600779e+01	-1.136224e+01
4.627353e+01	-1.140873e+01
4.654081e+01	-1.145489e+01
4.680963e+01	-1.150168e+01
4.708000e+01	-1.154777e+01
4.735193e+01	-1.159418e+01
4.762543e+01	-1.164089e+01
4.790051e+01	-1.168751e+01
4.817719e+01	-1.173439e+01
4.845545e+01	-1.178057e+01
4.873533e+01	-1.182763e+01
4.901682e+01	-1.187465e+01
4.929994e+01	-1.192112e+01
4.958470e+01	-1.196777e+01
4.987110e+01	-1.201502e+01
5.015915e+01	-1.206196e+01
5.044887e+01	-1.210873e+01
5.074026e+01	-1.215553e+01
5.103333e+01	-1.220292e+01
5.132810e+01	-1.225001e+01
5.162457e+01	-1.229642e+01
5.192275e+01	-1.234364e+01
5.222265e+01	-1.239093e+01
5.252429e+01	-1.243773e+01
5.282767e+01	-1.248536e+01
5.313280e+01	-1.253302e+01
5.343969e+01	-1.257980e+01
5.374836e+01	-1.262706e+01
5.405880e+01	-1.267425e+01
5.437105e+01	-1.272218e+01
5.468509e+01	-1.276983e+01
5.500095e+01	-1.281619e+01
5.531863e+01	-1.286461e+01
5.563815e+01	-1.291135e+01
5.595951e+01	-1.295876e+01
5.628273e+01	-1.300631e+01
5.660782e+01	-1.305367e+01
5.693479e+01	-1.310209e+01
5.726364e+01	-1.314913e+01
5.759439e+01	-1.319690e+01
5.792705e+01	-1.324413e+01
5.826164e+01	-1.329256e+01
5.859815e+01	-1.333996e+01
5.893662e+01	-1.338687e+01
5.927703e+01	-1.343554e+01
5.961941e+01	-1.348223e+01
5.996377e+01	-1.353101e+01
6.031012e+01	-1.357816e+01
6.065847e+01	-1.362635e+01
6.100883e+01	-1.367476e+01
6.136121e+01	-1.372238e+01
6.171563e+01	-1.376987e+01
6.207210e+01	-1.381790e+01
6.243063e+01	-1.386627e+01
6.279122e+01	-1.391411e+01
6.315390e+01	-1.396282e+01
6.351868e+01	-1.401045e+01
6.388556e+01	-1.405800e+01
6.425456e+01	-1.410574e+01
6.462569e+01	-1.415464e+01
6.499897e+01	-1.420177e+01
6.537440e+01	-1.425023e+01
6.575200e+01	-1.429897e+01
6.613178e+01	-1.434660e+01
6.651375e+01	-1.439550e+01
6.689793e+01	-1.444289e+01
6.728433e+01	-1.449219e+01
6.767297e+01	-1.453934e+01
6.806384e+01	-1.458824e+01
6.845698e+01	-1.463589e+01
6.885238e+01	-1.468435e+01
6.925007e+01	-1.473233e+01
6.965005e+01	-1.478145e+01
7.005235e+01	-1.483026e+01
7.045697e+01	-1.487831e+01
7.086393e+01	-1.492639e+01
7.127323e+01	-1.497452e+01
7.168490e+01	-1.502339e+01
7.209895e+01	-1.507288e+01
7.251539e+01	-1.511968e+01
7.293424e+01	-1.516915e+01
7.335551e+01	-1.521789e+01
7.377920e+01	-1.526486e+01
7.420535e+01	-1.531397e+01
7.463396e+01	-1.536225e+01
7.506504e+01	-1.541213e+01
7.549861e+01	-1.546034e+01
7.593469e+01	-1.550857e+01
7.637328e+01	-1.555722e+01
7.681441e+01	-1.560585e+01
7.725809e+01	-1.565492e+01
7.770433e+01	-1.570348e+01
7.815315e+01	-1.575231e+01
7.860456e+01	-1.580095e+01
7.905857e+01	-1.585009e+01
7.951521e+01	-1.589897e+01
7.997449e+01	-1.594654e+01
8.043642e+01	-1.599526e+01
8.090102e+01	-1.604582e+01
8.136830e+01	-1.609197e+01
8.183828e+01	-1.614146e+01
8.231097e+01	-1.619194e+01
8.278640e+01	-1.623916e+01
8.326457e+01	-1.628838e+01
8.374550e+01	-1.633761e+01
8.422921e+01	-1.638608e+01
8.471572e+01	-1.643516e+01
8.520503e+01	-1.648454e+01
8.569717e+01	-1.653355e+01
8.619215e+01	-1.658315e+01
8.669000e+01	-1.663161e+01
8.719071e+01	-1.668009e+01
8.769432e+01	-1.672803e+01
8.820084e+01	-1.677816e+01
8.871029e+01	-1.682644e+01
8.922267e+01	-1.687663e+01
8.973802e+01	-1.692455e+01
9.025634e+01	-1.697352e+01
9.077766e+01	-1.702240e+01
9.130199e+01	-1.707175e+01
9.182935e+01	-1.712092e+01
9.235975e+01	-1.716998e+01
9.289321e+01	-1.721976e+01
9.342976e+01	-1.726886e+01
9.396941e+01	-1.731711e+01
9.451217e+01	-1.736758e+01
9.505807e+01	-1.741579e+01
9.560712e+01	-1.746397e+01
9.615934e+01	-1.751291e+01
9.671476e+01	-1.756305e+01
9.727338e+01	-1.761316e+01
9.783522e+01	-1.766240e+01
9.840032e+01	-1.771036e+01
9.896867e+01	-1.775960e+01
9.954031e+01	-1.780934e+01
1.001153e+02	-1.785791e+01
1.006935e+02	-1.790795e+01
1.012751e+02	-1.795547e+01
1.018601e+02	-1.800683e+01
1.024484e+02	-1.805626e+01
1.030402e+02	-1.810547e+01
1.036353e+02	-1.815461e+01
1.042339e+02	-1.820316e+01
1.048360e+02	-1.825109e+01
1.054415e+02	-1.830102e+01
1.060505e+02	-1.834967e+01
1.066631e+02	-1.840069e+01
1.072791e+02	-1.844859e+01
1.078988e+02	-1.849893e+01
1.085220e+02	-1.854812e+01
1.091488e+02	-1.859682e+01
1.097793e+02	-1.864584e+01
1.104133e+02	-1.869505e+01
1.110511e+02	-1.874582e+01
1.116925e+02	-1.879519e+01
1.123376e+02	-1.884632e+01
1.129865e+02	-1.889291e+01
1.136391e+02	-1.894229e+01
1.142955e+02	-1.899285e+01
1.149556e+02	-1.904176e+01
1.156196e+02	-1.909063e+01
1.162874e+02	-1.913935e+01
1.169591e+02	-1.918908e+01
1.176347e+02	-1.923873e+01
1.183141e+02	-1.928869e+01
1.189975e+02	-1.933778e+01
1.196848e+02	-1.938642e+01
1.203761e+02	-1.943874e+01
1.210714e+02	-1.948668e+01
1.217707e+02	-1.953608e+01
1.224740e+02	-1.958617e+01
1.231814e+02	-1.963291e+01
1.238929e+02	-1.968504e+01
1.246085e+02	-1.973495e+01
1.253283e+02	-1.978435e+01
1.260522e+02	-1.983311e+01
1.267802e+02	-1.988252e+01
1.275125e+02	-1.993186e+01
1.282490e+02	-1.998271e+01
1.289898e+02	-2.003061e+01
1.297348e+02	-2.007955e+01
1.304842e+02	-2.012874e+01
1.312378e+02	-2.017996e+01
1.319959e+02	-2.023017e+01
1.327583e+02	-2.028036e+01
1.335251e+02	-2.032900e+01
1.342963e+02	-2.037820e+01
1.350720e+02	-2.042751e+01
1.358522e+02	-2.047709e+01
1.366368e+02	-2.052658e+01
1.374260e+02	-2.057710e+01
1.382198e+02	-2.062783e+01
1.390182e+02	-2.067667e+01
1.398211e+02	-2.072558e+01
1.406287e+02	-2.077337e+01
1.414410e+02	-2.082384e+01
1.422579e+02	-2.087393e+01
1.430796e+02	-2.092383e+01
1.439060e+02	-2.097308e+01
1.447372e+02	-2.102363e+01
1.455732e+02	-2.107217e+01
1.464141e+02	-2.112328e+01
1.472597e+02	-2.117213e+01
1.481103e+02	-2.122221e+01
1.489658e+02	-2.127087e+01
1.498262e+02	-2.132164e+01
1.506916e+02	-2.137100e+01
1.515620e+02	-2.142073e+01
1.524374e+02	-2.147240e+01
1.533179e+02	-2.152018e+01
1.542034e+02	-2.156943e+01
1.550941e+02	-2.161811e+01
1.559899e+02	-2.167114e+01
1.568909e+02	-2.171770e+01
1.577971e+02	-2.176819e+01
1.587085e+02	-2.182022e+01
1.596252e+02	-2.186658e+01
1.605472e+02	-2.191765e+01
1.614745e+02	-2.196651e+01
1.624072e+02	-2.201873e+01
1.633453e+02	-2.206730e+01
1.642887e+02	-2.211638e+01
1.652377e+02	-2.216486e+01
1.661921e+02	-2.221556e+01
1.671520e+02	-2.226545e+01
1.681175e+02	-2.231359e+01
1.690885e+02	-2.236354e+01
1.700651e+02	-2.241586e+01
1.710474e+02	-2.246513e+01
1.720354e+02	-2.251478e+01
1.730291e+02	-2.256379e+01
1.740285e+02	-2.261599e+01
1.750337e+02	-2.266526e+01
1.760446e+02	-2.271311e+01
1.770615e+02	-2.276287e+01
1.780842e+02	-2.281256e+01
1.791128e+02	-2.286425e+01
1.801473e+02	-2.291423e+01
1.811878e+02	-2.296131e+01
1.822344e+02	-2.301177e+01
1.832870e+02	-2.306357e+01
1.843456e+02	-2.311144e+01
1.854104e+02	-2.316125e+01
1.864813e+02	-2.321207e+01
1.875584e+02	-2.325941e+01
1.886418e+02	-2.330806e+01
1.897313e+02	-2.336060e+01
1.908272e+02	-2.341199e+01
1.919294e+02	-2.346122e+01
1.930380e+02	-2.351200e+01
1.941530e+02	-2.355984e+01
1.952744e+02	-2.360968e+01
1.964023e+02	-2.365948e+01
1.975367e+02	-2.371000e+01
1.986777e+02	-2.375730e+01
1.998252e+02	-2.380858e+01
2.009794e+02	-2.386008e+01
2.021403e+02	-2.391145e+01
2.033078e+02	-2.395904e+01
2.044821e+02	-2.401020e+01
2.056632e+02	-2.405684e+01
2.068511e+02	-2.411007e+01
2.080459e+02	-2.415717e+01
2.092475e+02	-2.420647e+01
2.104561e+02	-2.426056e+01
2.116717e+02	-2.430693e+01
2.128943e+02	-2.435637e+01
2.141240e+02	-2.440606e+01
2.153608e+02	-2.445543e+01
2.166047e+02	-2.450791e+01
2.178558e+02	-2.455688e+01
2.191141e+02	-2.460808e+01
2.203797e+02	-2.465574e+01
2.216526e+02	-2.470897e+01
2.229329e+02	-2.475322e+01
2.242205e+02	-2.480559e+01
2.255156e+02	-2.485692e+01
2.268182e+02	-2.490805e+01
2.281283e+02	-2.495562e+01
2.294459e+02	-2.500700e+01
2.307712e+02	-2.505588e+01
2.321041e+02	-2.510978e+01
2.334447e+02	-2.515634e+01
2.347931e+02	-2.520485e+01
2.361493e+02	-2.525558e+01
2.375133e+02	-2.530633e+01
2.388851e+02	-2.535612e+01
2.402649e+02	-2.540391e+01
2.416527e+02	-2.545782e+01
2.430484e+02	-2.550298e+01
2.444523e+02	-2.555513e+01
2.458642e+02	-2.560668e+01
2.472843e+02	-2.565283e+01
2.487126e+02	-2.570516e+01
2.501492e+02	-2.575500e+01
2.515940e+02	-2.580590e+01
2.530472e+02	-2.585567e+01
2.545088e+02	-2.590529e+01
2.559789e+02	-2.595564e+01
2.574574e+02	-2.600792e+01
2.589444e+02	-2.605763e+01
2.604401e+02	-2.610771e+01
2.619444e+02	-2.615094e+01
2.634574e+02	-2.620385e+01
2.649791e+02	-2.625700e+01
2.665096e+02	-2.630209e+01
2.680489e+02	-2.635437e+01
2.695972e+02	-2.640699e+01
2.711544e+02	-2.645651e+01
2.727205e+02	-2.650644e+01
2.742958e+02	-2.655324e+01
2.758801e+02	-2.660434e+01
2.774736e+02	-2.665508e+01
2.790762e+02	-2.670455e+01
2.806882e+02	-2.675557e+01
2.823094e+02	-2.680450e+01
2.839400e+02	-2.685692e+01
2.855800e+02	-2.690498e+01
2.872295e+02	-2.695394e+01
2.888886e+02	-2.700345e+01
2.905572e+02	-2.705345e+01
2.922354e+02	-2.710423e+01
2.939234e+02	-2.715497e+01
2.956211e+02	-2.720477e+01
2.973286e+02	-2.725691e+01
2.990459e+02	-2.730386e+01
3.007732e+02	-2.735453e+01
3.025104e+02	-2.740220e+01
3.042577e+02	-2.744955e+01
3.060151e+02	-2.750131e+01
3.077826e+02	-2.755512e+01
3.095604e+02	-2.760291e+01
3.113484e+02	-2.765192e+01
3.131467e+02	-2.770371e+01
3.149554e+02	-2.775551e+01
3.167746e+02	-2.780287e+01
3.186043e+02	-2.785518e+01
3.204445e+02	-2.790355e+01
3.222954e+02	-2.795649e+01
3.241570e+02	-2.800622e+01
3.260293e+02	-2.805462e+01
3.279124e+02	-2.810664e+01
3.298064e+02	-2.815858e+01
3.317114e+02	-2.820518e+01
3.336273e+02	-2.825540e+01
3.355544e+02	-2.830453e+01
3.374925e+02	-2.835664e+01
3.394418e+02	-2.840715e+01
3.414024e+02	-2.845226e+01
3.433744e+02	-2.850898e+01
3.453577e+02	-2.855757e+01
3.473525e+02	-2.860767e+01
3.493588e+02	-2.865410e+01
3.513766e+02	-2.870846e+01
3.534062e+02	-2.875746e+01
3.554474e+02	-2.880538e+01
3.575005e+02	-2.885745e+01
3.595654e+02	-2.890215e+01
3.616422e+02	-2.895737e+01
3.637311e+02	-2.900873e+01
3.658320e+02	-2.905537e+01
3.679450e+02	-2.910615e+01
3.700702e+02	-2.915649e+01
3.722077e+02	-2.920491e+01
3.743576e+02	-2.925466e+01
3.765199e+02	-2.930567e+01
3.786946e+02	-2.935891e+01
3.808820e+02	-2.940514e+01
3.830819e+02	-2.945701e+01
3.852946e+02	-2.950808e+01
3.875200e+02	-2.955664e+01
3.897583e+02	-2.960258e+01
3.920096e+02	-2.965437e+01
3.942738e+02	-2.970229e+01
3.965511e+02	-2.975618e+01
3.988416e+02	-2.980428e+01
4.011452e+02	-2.986109e+01
4.034622e+02	-2.990754e+01
4.057926e+02	-2.995509e+01
4.081365e+02	-3.000532e+01
4.104938e+02	-3.005798e+01
4.128648e+02	-3.011257e+01
4.152495e+02	-3.015302e+01
4.176480e+02	-3.020961e+01
4.200603e+02	-3.026080e+01
4.224866e+02	-3.030249e+01
4.249268e+02	-3.035767e+01
4.273812e+02	-3.040797e+01
4.298497e+02	-3.045825e+01
4.323325e+02	-3.050870e+01
4.348297e+02	-3.056195e+01
4.373412e+02	-3.060897e+01
4.398673e+02	-3.066085e+01
4.424079e+02	-3.071018e+01
4.449633e+02	-3.075762e+01
4.475334e+02	-3.081172e+01
4.501183e+02	-3.085670e+01
4.527182e+02	-3.090862e+01
4.553330e+02	-3.095729e+01
4.579630e+02	-3.101137e+01
4.606082e+02	-3.105694e+01
4.632687e+02	-3.111347e+01
4.659445e+02	-3.116039e+01
4.686358e+02	-3.120633e+01
4.713426e+02	-3.126278e+01
4.740650e+02	-3.130794e+01
4.768032e+02	-3.136248e+01
4.795572e+02	-3.141662e+01
4.823271e+02	-3.146292e+01
4.851130e+02	-3.151347e+01
4.879150e+02	-3.155720e+01
4.907332e+02	-3.160535e+01
4.935676e+02	-3.165759e+01
4.964185e+02	-3.171158e+01
4.992858e+02	-3.175422e+01
5.021696e+02	-3.181464e+01
5.050701e+02	-3.186662e+01
5.079874e+02	-3.191595e+01
5.109215e+02	-3.196738e+01
5.138726e+02	-3.200236e+01
5.168407e+02	-3.206117e+01
5.198259e+02	-3.211619e+01
5.228284e+02	-3.216733e+01
5.258482e+02	-3.221784e+01
5.288855e+02	-3.226204e+01
5.319403e+02	-3.231943e+01
5.350128e+02	-3.236344e+01
5.381030e+02	-3.242085e+01
5.412111e+02	-3.245960e+01
5.443371e+02	-3.251691e+01
5.474812e+02	-3.256130e+01
5.506434e+02	-3.261625e+01
5.538239e+02	-3.266769e+01
5.570228e+02	-3.270859e+01
5.602401e+02	-3.277413e+01
5.634760e+02	-3.281981e+01
5.667306e+02	-3.286317e+01
5.700040e+02	-3.291938e+01
5.732964e+02	-3.296642e+01
5.766077e+02	-3.301683e+01
5.799382e+02	-3.307284e+01
5.832879e+02	-3.311888e+01
5.866569e+02	-3.317363e+01
5.900454e+02	-3.321841e+01
5.934535e+02	-3.326188e+01
5.968813e+02	-3.331945e+01
6.003288e+02	-3.336588e+01
6.037963e+02	-3.342237e+01
6.072838e+02	-3.347311e+01
6.107914e+02	-3.351863e+01
6.143194e+02	-3.357570e+01
6.178676e+02	-3.362393e+01
6.214364e+02	-3.367249e+01
6.250258e+02	-3.371781e+01
6.286359e+02	-3.376562e+01
6.322669e+02	-3.382937e+01
6.359189e+02	-3.387667e+01
6.395919e+02	-3.392378e+01
6.432862e+02	-3.397363e+01
6.470017e+02	-3.402674e+01
6.507388e+02	-3.407082e+01
6.544974e+02	-3.412800e+01
6.582778e+02	-3.417570e+01
6.620800e+02	-3.423170e+01
6.659041e+02	-3.428436e+01
6.697504e+02	-3.432198e+01
6.736188e+02	-3.437751e+01
6.775096e+02	-3.442254e+01
6.814229e+02	-3.447048e+01
6.853587e+02	-3.452779e+01
6.893173e+02	-3.458248e+01
6.932988e+02	-3.462194e+01
6.973033e+02	-3.467676e+01
7.013309e+02	-3.472675e+01
