Frequency(Hz)	Magnitude(dB)
1.000000e+01	-1.692976e-05
1.005776e+01	-1.712590e-05
1.011585e+01	-1.732431e-05
1.017428e+01	-1.752501e-05
1.023305e+01	-1.772804e-05
1.029215e+01	-1.793343e-05
1.035160e+01	-1.814119e-05
1.041139e+01	-1.835136e-05
1.047153e+01	-1.856397e-05
1.053201e+01	-1.877904e-05
1.059284e+01	-1.899660e-05
1.065403e+01	-1.921668e-05
1.071556e+01	-1.943931e-05
1.077746e+01	-1.966452e-05
1.083971e+01	-1.989233e-05
1.090232e+01	-2.012279e-05
1.096529e+01	-2.035592e-05
1.102862e+01	-2.059175e-05
1.109232e+01	-2.083031e-05
1.115639e+01	-2.107163e-05
1.122083e+01	-2.131575e-05
1.128564e+01	-2.156270e-05
1.135083e+01	-2.181251e-05
1.141639e+01	-2.206521e-05
1.148233e+01	-2.232084e-05
1.154865e+01	-2.257944e-05
1.161536e+01	-2.284103e-05
1.168245e+01	-2.310564e-05
1.174992e+01	-2.337333e-05
1.181779e+01	-2.364411e-05
1.188605e+01	-2.391804e-05
1.195470e+01	-2.419513e-05
1.202375e+01	-2.447544e-05
1.209320e+01	-2.475899e-05
1.216305e+01	-2.504583e-05
1.223330e+01	-2.533600e-05
1.230396e+01	-2.562952e-05
1.237503e+01	-2.592644e-05
1.244651e+01	-2.622681e-05
1.251840e+01	-2.653065e-05
1.259070e+01	-2.683802e-05
1.266343e+01	-2.714894e-05
1.273657e+01	-2.746347e-05
1.281014e+01	-2.778164e-05
1.288413e+01	-2.810350e-05
1.295855e+01	-2.842908e-05
1.303339e+01	-2.875844e-05
1.310867e+01	-2.909161e-05
1.318439e+01	-2.942865e-05
1.326054e+01	-2.976958e-05
1.333713e+01	-3.011447e-05
1.341417e+01	-3.046336e-05
1.349165e+01	-3.081628e-05
1.356958e+01	-3.117330e-05
1.364795e+01	-3.153445e-05
1.372678e+01	-3.189978e-05
1.380607e+01	-3.226935e-05
1.388581e+01	-3.264319e-05
1.396602e+01	-3.302137e-05
1.404668e+01	-3.340393e-05
1.412782e+01	-3.379093e-05
1.420942e+01	-3.418240e-05
1.429149e+01	-3.457841e-05
1.437404e+01	-3.497901e-05
1.445706e+01	-3.538425e-05
1.454057e+01	-3.579419e-05
1.462455e+01	-3.620887e-05
1.470902e+01	-3.662836e-05
1.479398e+01	-3.705271e-05
1.487943e+01	-3.748197e-05
1.496537e+01	-3.791621e-05
1.505181e+01	-3.835548e-05
1.513875e+01	-3.879983e-05
1.522619e+01	-3.924934e-05
1.531414e+01	-3.970405e-05
1.540259e+01	-4.016403e-05
1.549156e+01	-4.062934e-05
1.558103e+01	-4.110004e-05
1.567103e+01	-4.157619e-05
1.576155e+01	-4.205786e-05
1.585258e+01	-4.254511e-05
1.594415e+01	-4.303801e-05
1.603624e+01	-4.353661e-05
1.612886e+01	-4.404099e-05
1.622202e+01	-4.455122e-05
1.631572e+01	-4.506735e-05
1.640996e+01	-4.558947e-05
1.650474e+01	-4.611763e-05
1.660008e+01	-4.665192e-05
1.669596e+01	-4.719239e-05
1.679239e+01	-4.773912e-05
1.688938e+01	-4.829219e-05
1.698694e+01	-4.885167e-05
1.708505e+01	-4.941762e-05
1.718373e+01	-4.999014e-05
1.728299e+01	-5.056928e-05
1.738281e+01	-5.115514e-05
1.748322e+01	-5.174778e-05
1.758420e+01	-5.234729e-05
1.768576e+01	-5.295374e-05
1.778792e+01	-5.356722e-05
1.789066e+01	-5.418781e-05
1.799399e+01	-5.481559e-05
1.809793e+01	-5.545064e-05
1.820246e+01	-5.609305e-05
1.830760e+01	-5.674290e-05
1.841334e+01	-5.740027e-05
1.851969e+01	-5.806527e-05
1.862666e+01	-5.873796e-05
1.873425e+01	-5.941846e-05
1.884246e+01	-6.010683e-05
1.895129e+01	-6.080318e-05
1.906075e+01	-6.150760e-05
1.917085e+01	-6.222017e-05
1.928158e+01	-6.294101e-05
1.939295e+01	-6.367019e-05
1.950496e+01	-6.440782e-05
1.961762e+01	-6.515400e-05
1.973093e+01	-6.590882e-05
1.984490e+01	-6.667239e-05
1.995952e+01	-6.744480e-05
2.007480e+01	-6.822616e-05
2.019076e+01	-6.901657e-05
2.030738e+01	-6.981614e-05
2.042467e+01	-7.062498e-05
2.054264e+01	-7.144318e-05
2.066130e+01	-7.227086e-05
2.078064e+01	-7.310813e-05
2.090066e+01	-7.395510e-05
2.102139e+01	-7.481189e-05
2.114280e+01	-7.567860e-05
2.126492e+01	-7.655535e-05
2.138775e+01	-7.744225e-05
2.151128e+01	-7.833944e-05
2.163553e+01	-7.924701e-05
2.176050e+01	-8.016510e-05
2.188619e+01	-8.109383e-05
2.201260e+01	-8.203331e-05
2.213974e+01	-8.298368e-05
2.226762e+01	-8.394506e-05
2.239624e+01	-8.491758e-05
2.252560e+01	-8.590137e-05
2.265571e+01	-8.689655e-05
2.278656e+01	-8.790326e-05
2.291818e+01	-8.892163e-05
2.305055e+01	-8.995180e-05
2.318369e+01	-9.099391e-05
2.331760e+01	-9.204809e-05
2.345228e+01	-9.311448e-05
2.358774e+01	-9.419322e-05
2.372398e+01	-9.528447e-05
2.386101e+01	-9.638835e-05
2.399883e+01	-9.750503e-05
2.413745e+01	-9.863464e-05
2.427686e+01	-9.977733e-05
2.441709e+01	-1.009333e-04
2.455812e+01	-1.021026e-04
2.469997e+01	-1.032855e-04
2.484263e+01	-1.044820e-04
2.498612e+01	-1.056925e-04
2.513044e+01	-1.069169e-04
2.527559e+01	-1.081556e-04
2.542158e+01	-1.094086e-04
2.556842e+01	-1.106761e-04
2.571610e+01	-1.119583e-04
2.586463e+01	-1.132553e-04
2.601403e+01	-1.145674e-04
2.616428e+01	-1.158947e-04
2.631541e+01	-1.172374e-04
2.646740e+01	-1.185956e-04
2.662028e+01	-1.199695e-04
2.677404e+01	-1.213594e-04
2.692868e+01	-1.227653e-04
2.708422e+01	-1.241876e-04
2.724066e+01	-1.256263e-04
2.739800e+01	-1.270817e-04
2.755625e+01	-1.285540e-04
2.771541e+01	-1.300433e-04
2.787550e+01	-1.315498e-04
2.803650e+01	-1.330739e-04
2.819844e+01	-1.346155e-04
2.836131e+01	-1.361751e-04
2.852513e+01	-1.377527e-04
2.868989e+01	-1.393485e-04
2.885560e+01	-1.409629e-04
2.902227e+01	-1.425960e-04
2.918990e+01	-1.442480e-04
2.935850e+01	-1.459191e-04
2.952807e+01	-1.476096e-04
2.969863e+01	-1.493196e-04
2.987016e+01	-1.510495e-04
3.004269e+01	-1.527994e-04
3.021622e+01	-1.545696e-04
3.039075e+01	-1.563603e-04
3.056628e+01	-1.581718e-04
3.074283e+01	-1.600042e-04
3.092040e+01	-1.618579e-04
3.109900e+01	-1.637330e-04
3.127862e+01	-1.656299e-04
3.145929e+01	-1.675487e-04
3.164099e+01	-1.694897e-04
3.182375e+01	-1.714533e-04
3.200756e+01	-1.734396e-04
3.219244e+01	-1.754489e-04
3.237838e+01	-1.774815e-04
3.256540e+01	-1.795376e-04
3.275349e+01	-1.816176e-04
3.294268e+01	-1.837216e-04
3.313295e+01	-1.858500e-04
3.332433e+01	-1.880031e-04
3.351681e+01	-1.901811e-04
3.371040e+01	-1.923844e-04
3.390511e+01	-1.946132e-04
3.410094e+01	-1.968677e-04
3.429791e+01	-1.991485e-04
3.449601e+01	-2.014556e-04
3.469526e+01	-2.037895e-04
3.489566e+01	-2.061504e-04
3.509721e+01	-2.085386e-04
3.529993e+01	-2.109545e-04
3.550382e+01	-2.133984e-04
3.570889e+01	-2.158707e-04
3.591515e+01	-2.183715e-04
3.612259e+01	-2.209014e-04
3.633123e+01	-2.234605e-04
3.654108e+01	-2.260493e-04
3.675214e+01	-2.286681e-04
3.696442e+01	-2.313172e-04
3.717792e+01	-2.339970e-04
3.739266e+01	-2.367078e-04
3.760864e+01	-2.394501e-04
3.782587e+01	-2.422241e-04
3.804435e+01	-2.450302e-04
3.826409e+01	-2.478689e-04
3.848510e+01	-2.507404e-04
3.870739e+01	-2.536453e-04
3.893096e+01	-2.565837e-04
3.915583e+01	-2.595562e-04
3.938199e+01	-2.625632e-04
3.960946e+01	-2.656049e-04
3.983824e+01	-2.686820e-04
4.006834e+01	-2.717946e-04
4.029978e+01	-2.749433e-04
4.053255e+01	-2.781285e-04
4.076666e+01	-2.813506e-04
4.100213e+01	-2.846100e-04
4.123896e+01	-2.879072e-04
4.147715e+01	-2.912426e-04
4.171672e+01	-2.946166e-04
4.195767e+01	-2.980297e-04
4.220002e+01	-3.014823e-04
4.244377e+01	-3.049750e-04
4.268892e+01	-3.085081e-04
4.293549e+01	-3.120821e-04
4.318348e+01	-3.156975e-04
4.343291e+01	-3.193548e-04
4.368377e+01	-3.230545e-04
4.393609e+01	-3.267970e-04
4.418986e+01	-3.305829e-04
4.444510e+01	-3.344127e-04
4.470182e+01	-3.382868e-04
4.496001e+01	-3.422058e-04
4.521970e+01	-3.461702e-04
4.548089e+01	-3.501805e-04
4.574358e+01	-3.542372e-04
4.600779e+01	-3.583410e-04
4.627353e+01	-3.624923e-04
4.654081e+01	-3.666917e-04
4.680963e+01	-3.709398e-04
4.708000e+01	-3.752370e-04
4.735193e+01	-3.795840e-04
4.762543e+01	-3.839814e-04
4.790051e+01	-3.884298e-04
4.817719e+01	-3.929296e-04
4.845545e+01	-3.974816e-04
4.873533e+01	-4.020863e-04
4.901682e+01	-4.067444e-04
4.929994e+01	-4.114564e-04
4.958470e+01	-4.162230e-04
4.987110e+01	-4.210449e-04
5.015915e+01	-4.259226e-04
5.044887e+01	-4.308567e-04
5.074026e+01	-4.358481e-04
5.103333e+01	-4.408972e-04
5.132810e+01	-4.460049e-04
5.162457e+01	-4.511717e-04
5.192275e+01	-4.563984e-04
5.222265e+01	-4.616856e-04
5.252429e+01	-4.670341e-04
5.282767e+01	-4.724445e-04
5.313280e+01	-4.779176e-04
5.343969e+01	-4.834541e-04
5.374836e+01	-4.890547e-04
5.405880e+01	-4.947203e-04
5.437105e+01	-5.004514e-04
5.468509e+01	-5.062489e-04
5.500095e+01	-5.121136e-04
5.531863e+01	-5.180462e-04
5.563815e+01	-5.240476e-04
5.595951e+01	-5.301184e-04
5.628273e+01	-5.362596e-04
5.660782e+01	-5.424720e-04
5.693479e+01	-5.487563e-04
5.726364e+01	-5.551133e-04
5.759439e+01	-5.615441e-04
5.792705e+01	-5.680493e-04
5.826164e+01	-5.746299e-04
5.859815e+01	-5.812867e-04
5.893662e+01	-5.880206e-04
5.927703e+01	-5.948325e-04
5.961941e+01	-6.017233e-04
5.996377e+01	-6.086939e-04
6.031012e+01	-6.157453e-04
6.065847e+01	-6.228784e-04
6.100883e+01	-6.300941e-04
6.136121e+01	-6.373934e-04
6.171563e+01	-6.447772e-04
6.207210e+01	-6.522466e-04
6.243063e+01	-6.598024e-04
6.279122e+01	-6.674458e-04
6.315390e+01	-6.751778e-04
6.351868e+01	-6.829993e-04
6.388556e+01	-6.909114e-04
6.425456e+01	-6.989151e-04
6.462569e+01	-7.070116e-04
6.499897e+01	-7.152019e-04
6.537440e+01	-7.234870e-04
6.575200e+01	-7.318681e-04
6.613178e+01	-7.403462e-04
6.651375e+01	-7.489226e-04
6.689793e+01	-7.575983e-04
6.728433e+01	-7.663745e-04
6.767297e+01	-7.752524e-04
6.806384e+01	-7.842331e-04
6.845698e+01	-7.933178e-04
6.885238e+01	-8.025078e-04
6.925007e+01	-8.118042e-04
6.965005e+01	-8.212083e-04
7.005235e+01	-8.307213e-04
7.045697e+01	-8.403445e-04
7.086393e+01	-8.500792e-04
7.127323e+01	-8.599266e-04
7.168490e+01	-8.698881e-04
7.209895e+01	-8.799649e-04
7.251539e+01	-8.901585e-04
7.293424e+01	-9.004702e-04
7.335551e+01	-9.109013e-04
7.377920e+01	-9.214532e-04
7.420535e+01	-9.321273e-04
7.463396e+01	-9.429251e-04
7.506504e+01	-9.538480e-04
7.549861e+01	-9.648973e-04
7.593469e+01	-9.760747e-04
7.637328e+01	-9.873815e-04
7.681441e+01	-9.988192e-04
7.725809e+01	-1.010389e-03
7.770433e+01	-1.022094e-03
7.815315e+01	-1.033934e-03
7.860456e+01	-1.045911e-03
7.905857e+01	-1.058026e-03
7.951521e+01	-1.070282e-03
7.997449e+01	-1.082680e-03
8.043642e+01	-1.095222e-03
8.090102e+01	-1.107909e-03
8.136830e+01	-1.120742e-03
8.183828e+01	-1.133725e-03
8.231097e+01	-1.146858e-03
8.278640e+01	-1.160142e-03
8.326457e+01	-1.173581e-03
8.374550e+01	-1.187176e-03
8.422921e+01	-1.200927e-03
8.471572e+01	-1.214839e-03
8.520503e+01	-1.228911e-03
8.569717e+01	-1.243146e-03
8.619215e+01	-1.257546e-03
8.669000e+01	-1.272113e-03
8.719071e+01	-1.286849e-03
8.769432e+01	-1.301755e-03
8.820084e+01	-1.316834e-03
8.871029e+01	-1.332087e-03
8.922267e+01	-1.347517e-03
8.973802e+01	-1.363126e-03
9.025634e+01	-1.378916e-03
9.077766e+01	-1.394889e-03
9.130199e+01	-1.411046e-03
9.182935e+01	-1.427391e-03
9.235975e+01	-1.443925e-03
9.289321e+01	-1.460650e-03
9.342976e+01	-1.477569e-03
9.396941e+01	-1.494684e-03
9.451217e+01	-1.511998e-03
9.505807e+01	-1.529511e-03
9.560712e+01	-1.547228e-03
9.615934e+01	-1.565150e-03
9.671476e+01	-1.583279e-03
9.727338e+01	-1.601619e-03
9.783522e+01	-1.620170e-03
9.840032e+01	-1.638937e-03
9.896867e+01	-1.657921e-03
9.954031e+01	-1.677125e-03
1.001153e+02	-1.696551e-03
1.006935e+02	-1.716202e-03
1.012751e+02	-1.736081e-03
1.018601e+02	-1.756189e-03
1.024484e+02	-1.776531e-03
1.030402e+02	-1.797108e-03
1.036353e+02	-1.817924e-03
1.042339e+02	-1.838981e-03
1.048360e+02	-1.860281e-03
1.054415e+02	-1.881828e-03
1.060505e+02	-1.903625e-03
1.066631e+02	-1.925674e-03
1.072791e+02	-1.947979e-03
1.078988e+02	-1.970541e-03
1.085220e+02	-1.993365e-03
1.091488e+02	-2.016454e-03
1.097793e+02	-2.039809e-03
1.104133e+02	-2.063436e-03
1.110511e+02	-2.087335e-03
1.116925e+02	-2.111512e-03
1.123376e+02	-2.135968e-03
1.129865e+02	-2.160708e-03
1.136391e+02	-2.185734e-03
1.142955e+02	-2.211050e-03
1.149556e+02	-2.236659e-03
1.156196e+02	-2.262564e-03
1.162874e+02	-2.288770e-03
1.169591e+02	-2.315279e-03
1.176347e+02	-2.342094e-03
1.183141e+02	-2.369221e-03
1.189975e+02	-2.396661e-03
1.196848e+02	-2.424419e-03
1.203761e+02	-2.452499e-03
1.210714e+02	-2.480904e-03
1.217707e+02	-2.509637e-03
1.224740e+02	-2.538704e-03
1.231814e+02	-2.568107e-03
1.238929e+02	-2.597850e-03
1.246085e+02	-2.627937e-03
1.253283e+02	-2.658374e-03
1.260522e+02	-2.689162e-03
1.267802e+02	-2.720307e-03
1.275125e+02	-2.751812e-03
1.282490e+02	-2.783682e-03
1.289898e+02	-2.815922e-03
1.297348e+02	-2.848534e-03
1.304842e+02	-2.881524e-03
1.312378e+02	-2.914896e-03
1.319959e+02	-2.948655e-03
1.327583e+02	-2.982804e-03
1.335251e+02	-3.017348e-03
1.342963e+02	-3.052293e-03
1.350720e+02	-3.087642e-03
1.358522e+02	-3.123400e-03
1.366368e+02	-3.159572e-03
1.374260e+02	-3.196163e-03
1.382198e+02	-3.233178e-03
1.390182e+02	-3.270621e-03
1.398211e+02	-3.308497e-03
1.406287e+02	-3.346812e-03
1.414410e+02	-3.385571e-03
1.422579e+02	-3.424778e-03
1.430796e+02	-3.464439e-03
1.439060e+02	-3.504560e-03
1.447372e+02	-3.545144e-03
1.455732e+02	-3.586199e-03
1.464141e+02	-3.627728e-03
1.472597e+02	-3.669739e-03
1.481103e+02	-3.712235e-03
1.489658e+02	-3.755224e-03
1.498262e+02	-3.798710e-03
1.506916e+02	-3.842700e-03
1.515620e+02	-3.887198e-03
1.524374e+02	-3.932212e-03
1.533179e+02	-3.977747e-03
1.542034e+02	-4.023809e-03
1.550941e+02	-4.070404e-03
1.559899e+02	-4.117538e-03
1.568909e+02	-4.165218e-03
1.577971e+02	-4.213450e-03
1.587085e+02	-4.262239e-03
1.596252e+02	-4.311594e-03
1.605472e+02	-4.361520e-03
1.614745e+02	-4.412023e-03
1.624072e+02	-4.463111e-03
1.633453e+02	-4.514791e-03
1.642887e+02	-4.567068e-03
1.652377e+02	-4.619951e-03
1.661921e+02	-4.673445e-03
1.671520e+02	-4.727559e-03
1.681175e+02	-4.782299e-03
1.690885e+02	-4.837672e-03
1.700651e+02	-4.893686e-03
1.710474e+02	-4.950348e-03
1.720354e+02	-5.007666e-03
1.730291e+02	-5.065647e-03
1.740285e+02	-5.124299e-03
1.750337e+02	-5.183630e-03
1.760446e+02	-5.243647e-03
1.770615e+02	-5.304359e-03
1.780842e+02	-5.365773e-03
1.791128e+02	-5.427898e-03
1.801473e+02	-5.490742e-03
1.811878e+02	-5.554313e-03
1.822344e+02	-5.618619e-03
1.832870e+02	-5.683670e-03
1.843456e+02	-5.749473e-03
1.854104e+02	-5.816037e-03
1.864813e+02	-5.883372e-03
1.875584e+02	-5.951485e-03
1.886418e+02	-6.020387e-03
1.897313e+02	-6.090086e-03
1.908272e+02	-6.160591e-03
1.919294e+02	-6.231911e-03
1.930380e+02	-6.304057e-03
1.941530e+02	-6.377037e-03
1.952744e+02	-6.450862e-03
1.964023e+02	-6.525540e-03
1.975367e+02	-6.601083e-03
1.986777e+02	-6.677499e-03
1.998252e+02	-6.754799e-03
2.009794e+02	-6.832994e-03
2.021403e+02	-6.912092e-03
2.033078e+02	-6.992106e-03
2.044821e+02	-7.073045e-03
2.056632e+02	-7.154921e-03
2.068511e+02	-7.237743e-03
2.080459e+02	-7.321523e-03
2.092475e+02	-7.406272e-03
2.104561e+02	-7.492002e-03
2.116717e+02	-7.578722e-03
2.128943e+02	-7.666446e-03
2.141240e+02	-7.755184e-03
2.153608e+02	-7.844949e-03
2.166047e+02	-7.935751e-03
2.178558e+02	-8.027603e-03
2.191141e+02	-8.120518e-03
2.203797e+02	-8.214507e-03
2.216526e+02	-8.309583e-03
2.229329e+02	-8.405758e-03
2.242205e+02	-8.503045e-03
2.255156e+02	-8.601457e-03
2.268182e+02	-8.701007e-03
2.281283e+02	-8.801708e-03
2.294459e+02	-8.903573e-03
2.307712e+02	-9.006616e-03
2.321041e+02	-9.110850e-03
2.334447e+02	-9.216289e-03
2.347931e+02	-9.322947e-03
2.361493e+02	-9.430838e-03
2.375133e+02	-9.539976e-03
2.388851e+02	-9.650376e-03
2.402649e+02	-9.762052e-03
2.416527e+02	-9.875019e-03
2.430484e+02	-9.989292e-03
2.444523e+02	-1.010488e-02
2.458642e+02	-1.022181e-02
2.472843e+02	-1.034010e-02
2.487126e+02	-1.045974e-02
2.501492e+02	-1.058077e-02
2.515940e+02	-1.070320e-02
2.530472e+02	-1.082705e-02
2.545088e+02	-1.095232e-02
2.559789e+02	-1.107905e-02
2.574574e+02	-1.120723e-02
2.589444e+02	-1.133690e-02
2.604401e+02	-1.146807e-02
2.619444e+02	-1.160075e-02
2.634574e+02	-1.173497e-02
2.649791e+02	-1.187073e-02
2.665096e+02	-1.200807e-02
2.680489e+02	-1.214699e-02
2.695972e+02	-1.228751e-02
2.711544e+02	-1.242966e-02
2.727205e+02	-1.257346e-02
2.742958e+02	-1.271891e-02
2.758801e+02	-1.286604e-02
2.774736e+02	-1.301487e-02
2.790762e+02	-1.316542e-02
2.806882e+02	-1.331771e-02
2.823094e+02	-1.347176e-02
2.839400e+02	-1.362759e-02
2.855800e+02	-1.378522e-02
2.872295e+02	-1.394467e-02
2.888886e+02	-1.410596e-02
2.905572e+02	-1.426911e-02
2.922354e+02	-1.443414e-02
2.939234e+02	-1.460108e-02
2.956211e+02	-1.476995e-02
2.973286e+02	-1.494077e-02
2.990459e+02	-1.511356e-02
3.007732e+02	-1.528835e-02
3.025104e+02	-1.546515e-02
3.042577e+02	-1.564399e-02
3.060151e+02	-1.582490e-02
3.077826e+02	-1.600790e-02
3.095604e+02	-1.619300e-02
3.113484e+02	-1.638025e-02
3.131467e+02	-1.656966e-02
3.149554e+02	-1.676125e-02
3.167746e+02	-1.695505e-02
3.186043e+02	-1.715109e-02
3.204445e+02	-1.734939e-02
3.222954e+02	-1.754998e-02
3.241570e+02	-1.775288e-02
3.260293e+02	-1.795813e-02
3.279124e+02	-1.816574e-02
3.298064e+02	-1.837575e-02
3.317114e+02	-1.858818e-02
3.336273e+02	-1.880306e-02
3.355544e+02	-1.902042e-02
3.374925e+02	-1.924029e-02
3.394418e+02	-1.946269e-02
3.414024e+02	-1.968766e-02
3.433744e+02	-1.991522e-02
3.453577e+02	-2.014540e-02
3.473525e+02	-2.037824e-02
3.493588e+02	-2.061377e-02
3.513766e+02	-2.085201e-02
3.534062e+02	-2.109299e-02
3.554474e+02	-2.133676e-02
3.575005e+02	-2.158333e-02
3.595654e+02	-2.183275e-02
3.616422e+02	-2.208504e-02
3.637311e+02	-2.234025e-02
3.658320e+02	-2.259839e-02
3.679450e+02	-2.285950e-02
3.700702e+02	-2.312363e-02
3.722077e+02	-2.339080e-02
3.743576e+02	-2.366105e-02
3.765199e+02	-2.393441e-02
3.786946e+02	-2.421092e-02
3.808820e+02	-2.449061e-02
3.830819e+02	-2.477353e-02
3.852946e+02	-2.505971e-02
3.875200e+02	-2.534918e-02
3.897583e+02	-2.564199e-02
3.920096e+02	-2.593816e-02
3.942738e+02	-2.623775e-02
3.965511e+02	-2.654079e-02
3.988416e+02	-2.684732e-02
4.011452e+02	-2.715738e-02
4.034622e+02	-2.747100e-02
4.057926e+02	-2.778824e-02
4.081365e+02	-2.810913e-02
4.104938e+02	-2.843371e-02
4.128648e+02	-2.876203e-02
4.152495e+02	-2.909412e-02
4.176480e+02	-2.943004e-02
4.200603e+02	-2.976982e-02
4.224866e+02	-3.011351e-02
4.249268e+02	-3.046116e-02
4.273812e+02	-3.081280e-02
4.298497e+02	-3.116849e-02
4.323325e+02	-3.152827e-02
4.348297e+02	-3.189219e-02
4.373412e+02	-3.226029e-02
4.398673e+02	-3.263263e-02
4.424079e+02	-3.300924e-02
4.449633e+02	-3.339019e-02
4.475334e+02	-3.377551e-02
4.501183e+02	-3.416527e-02
4.527182e+02	-3.455950e-02
4.553330e+02	-3.495827e-02
4.579630e+02	-3.536161e-02
4.606082e+02	-3.576959e-02
4.632687e+02	-3.618226e-02
4.659445e+02	-3.659967e-02
4.686358e+02	-3.702187e-02
4.713426e+02	-3.744893e-02
4.740650e+02	-3.788089e-02
4.768032e+02	-3.831780e-02
4.795572e+02	-3.875974e-02
4.823271e+02	-3.920675e-02
4.851130e+02	-3.965889e-02
4.879150e+02	-4.011622e-02
4.907332e+02	-4.057880e-02
4.935676e+02	-4.104669e-02
4.964185e+02	-4.151994e-02
4.992858e+02	-4.199863e-02
5.021696e+02	-4.248281e-02
5.050701e+02	-4.297254e-02
5.079874e+02	-4.346789e-02
5.109215e+02	-4.396892e-02
5.138726e+02	-4.447570e-02
5.168407e+02	-4.498829e-02
5.198259e+02	-4.550675e-02
5.228284e+02	-4.603116e-02
5.258482e+02	-4.656157e-02
5.288855e+02	-4.709807e-02
5.319403e+02	-4.764071e-02
5.350128e+02	-4.818957e-02
5.381030e+02	-4.874472e-02
5.412111e+02	-4.930623e-02
5.443371e+02	-4.987417e-02
5.474812e+02	-5.044861e-02
5.506434e+02	-5.102963e-02
5.538239e+02	-5.161730e-02
5.570228e+02	-5.221170e-02
5.602401e+02	-5.281290e-02
5.634760e+02	-5.342098e-02
5.667306e+02	-5.403602e-02
5.700040e+02	-5.465809e-02
5.732964e+02	-5.528728e-02
5.766077e+02	-5.592367e-02
5.799382e+02	-5.656733e-02
5.832879e+02	-5.721835e-02
5.866569e+02	-5.787682e-02
5.900454e+02	-5.854281e-02
5.934535e+02	-5.921641e-02
5.968813e+02	-5.989771e-02
6.003288e+02	-6.058680e-02
6.037963e+02	-6.128375e-02
6.072838e+02	-6.198866e-02
6.107914e+02	-6.270163e-02
6.143194e+02	-6.342273e-02
6.178676e+02	-6.415207e-02
6.214364e+02	-6.488973e-02
6.250258e+02	-6.563580e-02
6.286359e+02	-6.639039e-02
6.322669e+02	-6.715359e-02
6.359189e+02	-6.792549e-02
6.395919e+02	-6.870620e-02
6.432862e+02	-6.949580e-02
6.470017e+02	-7.029441e-02
6.507388e+02	-7.110212e-02
6.544974e+02	-7.191903e-02
6.582778e+02	-7.274525e-02
6.620800e+02	-7.358088e-02
6.659041e+02	-7.442602e-02
6.697504e+02	-7.528079e-02
6.736188e+02	-7.614529e-02
6.775096e+02	-7.701963e-02
6.814229e+02	-7.790392e-02
6.853587e+02	-7.879827e-02
6.893173e+02	-7.970279e-02
6.932988e+02	-8.061759e-02
6.973033e+02	-8.154280e-02
7.013309e+02	-8.247853e-02
