Frequency(Hz)	Magnitude(dB)
1.000000e+01	-2.221249e+00
1.005776e+01	-2.241233e+00
1.011585e+01	-2.261737e+00
1.017428e+01	-2.281872e+00
1.023305e+01	-2.302632e+00
1.029215e+01	-2.323278e+00
1.035160e+01	-2.343965e+00
1.041139e+01	-2.364862e+00
1.047153e+01	-2.386163e+00
1.053201e+01	-2.407247e+00
1.059284e+01	-2.428372e+00
1.065403e+01	-2.450171e+00
1.071556e+01	-2.471804e+00
1.077746e+01	-2.493410e+00
1.083971e+01	-2.515282e+00
1.090232e+01	-2.537674e+00
1.096529e+01	-2.559756e+00
1.102862e+01	-2.582088e+00
1.109232e+01	-2.604709e+00
1.115639e+01	-2.627135e+00
1.122083e+01	-2.650086e+00
1.128564e+01	-2.672845e+00
1.135083e+01	-2.695976e+00
1.141639e+01	-2.719183e+00
1.148233e+01	-2.742640e+00
1.154865e+01	-2.766157e+00
1.161536e+01	-2.789379e+00
1.168245e+01	-2.813430e+00
1.174992e+01	-2.837368e+00
1.181779e+01	-2.861525e+00
1.188605e+01	-2.885482e+00
1.195470e+01	-2.909997e+00
1.202375e+01	-2.934845e+00
1.209320e+01	-2.959174e+00
1.216305e+01	-2.983876e+00
1.223330e+01	-3.009260e+00
1.230396e+01	-3.034106e+00
1.237503e+01	-3.059204e+00
1.244651e+01	-3.084720e+00
1.251840e+01	-3.110072e+00
1.259070e+01	-3.135674e+00
1.266343e+01	-3.161395e+00
1.273657e+01	-3.187492e+00
1.281014e+01	-3.213412e+00
1.288413e+01	-3.239570e+00
1.295855e+01	-3.266008e+00
1.303339e+01	-3.292487e+00
1.310867e+01	-3.319102e+00
1.318439e+01	-3.345924e+00
1.326054e+01	-3.373103e+00
1.333713e+01	-3.400231e+00
1.341417e+01	-3.427496e+00
1.349165e+01	-3.454937e+00
1.356958e+01	-3.482400e+00
1.364795e+01	-3.509751e+00
1.372678e+01	-3.537658e+00
1.380607e+01	-3.565641e+00
1.388581e+01	-3.593725e+00
1.396602e+01	-3.621884e+00
1.404668e+01	-3.650594e+00
1.412782e+01	-3.678751e+00
1.420942e+01	-3.707260e+00
1.429149e+01	-3.736356e+00
1.437404e+01	-3.765199e+00
1.445706e+01	-3.794306e+00
1.454057e+01	-3.823573e+00
1.462455e+01	-3.852767e+00
1.470902e+01	-3.882135e+00
1.479398e+01	-3.911941e+00
1.487943e+01	-3.941530e+00
1.496537e+01	-3.971839e+00
1.505181e+01	-4.001633e+00
1.513875e+01	-4.031776e+00
1.522619e+01	-4.062268e+00
1.531414e+01	-4.092576e+00
1.540259e+01	-4.123466e+00
1.549156e+01	-4.153890e+00
1.558103e+01	-4.184715e+00
1.567103e+01	-4.216093e+00
1.576155e+01	-4.247032e+00
1.585258e+01	-4.278310e+00
1.594415e+01	-4.309631e+00
1.603624e+01	-4.341379e+00
1.612886e+01	-4.372853e+00
1.622202e+01	-4.404752e+00
1.631572e+01	-4.436691e+00
1.640996e+01	-4.468649e+00
1.650474e+01	-4.501199e+00
1.660008e+01	-4.533282e+00
1.669596e+01	-4.565734e+00
1.679239e+01	-4.598485e+00
1.688938e+01	-4.631045e+00
1.698694e+01	-4.663709e+00
1.708505e+01	-4.697002e+00
1.718373e+01	-4.730228e+00
1.728299e+01	-4.763459e+00
1.738281e+01	-4.796894e+00
1.748322e+01	-4.830342e+00
1.758420e+01	-4.863950e+00
1.768576e+01	-4.897445e+00
1.778792e+01	-4.931638e+00
1.789066e+01	-4.965432e+00
1.799399e+01	-4.999760e+00
1.809793e+01	-5.034218e+00
1.820246e+01	-5.068444e+00
1.830760e+01	-5.102764e+00
1.841334e+01	-5.137618e+00
1.851969e+01	-5.172366e+00
1.862666e+01	-5.207182e+00
1.873425e+01	-5.242463e+00
1.884246e+01	-5.277472e+00
1.895129e+01	-5.312524e+00
1.906075e+01	-5.347946e+00
1.917085e+01	-5.383210e+00
1.928158e+01	-5.419159e+00
1.939295e+01	-5.454689e+00
1.950496e+01	-5.490713e+00
1.961762e+01	-5.526491e+00
1.973093e+01	-5.562466e+00
1.984490e+01	-5.598722e+00
1.995952e+01	-5.635056e+00
2.007480e+01	-5.671713e+00
2.019076e+01	-5.708251e+00
2.030738e+01	-5.744886e+00
2.042467e+01	-5.781473e+00
2.054264e+01	-5.818249e+00
2.066130e+01	-5.855509e+00
2.078064e+01	-5.892386e+00
2.090066e+01	-5.929537e+00
2.102139e+01	-5.966775e+00
2.114280e+01	-6.004325e+00
2.126492e+01	-6.041856e+00
2.138775e+01	-6.079494e+00
2.151128e+01	-6.117066e+00
2.163553e+01	-6.155005e+00
2.176050e+01	-6.192909e+00
2.188619e+01	-6.231141e+00
2.201260e+01	-6.269246e+00
2.213974e+01	-6.308082e+00
2.226762e+01	-6.345932e+00
2.239624e+01	-6.384276e+00
2.252560e+01	-6.423174e+00
2.265571e+01	-6.461633e+00
2.278656e+01	-6.500335e+00
2.291818e+01	-6.539007e+00
2.305055e+01	-6.578101e+00
2.318369e+01	-6.617127e+00
2.331760e+01	-6.656848e+00
2.345228e+01	-6.695766e+00
2.358774e+01	-6.735188e+00
2.372398e+01	-6.774764e+00
2.386101e+01	-6.814309e+00
2.399883e+01	-6.853574e+00
2.413745e+01	-6.893690e+00
2.427686e+01	-6.933442e+00
2.441709e+01	-6.973383e+00
2.455812e+01	-7.013358e+00
2.469997e+01	-7.053481e+00
2.484263e+01	-7.093567e+00
2.498612e+01	-7.133921e+00
2.513044e+01	-7.174598e+00
2.527559e+01	-7.214644e+00
2.542158e+01	-7.255526e+00
2.556842e+01	-7.296542e+00
2.571610e+01	-7.336953e+00
2.586463e+01	-7.377864e+00
2.601403e+01	-7.418477e+00
2.616428e+01	-7.459488e+00
2.631541e+01	-7.500876e+00
2.646740e+01	-7.542159e+00
2.662028e+01	-7.583198e+00
2.677404e+01	-7.624376e+00
2.692868e+01	-7.666171e+00
2.708422e+01	-7.707910e+00
2.724066e+01	-7.748969e+00
2.739800e+01	-7.790691e+00
2.755625e+01	-7.832657e+00
2.771541e+01	-7.873991e+00
2.787550e+01	-7.916300e+00
2.803650e+01	-7.958055e+00
2.819844e+01	-8.000387e+00
2.836131e+01	-8.042533e+00
2.852513e+01	-8.084340e+00
2.868989e+01	-8.126961e+00
2.885560e+01	-8.169272e+00
2.902227e+01	-8.211574e+00
2.918990e+01	-8.253907e+00
2.935850e+01	-8.296715e+00
2.952807e+01	-8.339396e+00
2.969863e+01	-8.382286e+00
2.987016e+01	-8.424678e+00
3.004269e+01	-8.468003e+00
3.021622e+01	-8.510627e+00
3.039075e+01	-8.553495e+00
3.056628e+01	-8.596806e+00
3.074283e+01	-8.639934e+00
3.092040e+01	-8.683221e+00
3.109900e+01	-8.726594e+00
3.127862e+01	-8.769645e+00
3.145929e+01	-8.813110e+00
3.164099e+01	-8.856884e+00
3.182375e+01	-8.900527e+00
3.200756e+01	-8.944138e+00
3.219244e+01	-8.987202e+00
3.237838e+01	-9.031414e+00
3.256540e+01	-9.075521e+00
3.275349e+01	-9.118972e+00
3.294268e+01	-9.162835e+00
3.313295e+01	-9.206844e+00
3.332433e+01	-9.250990e+00
3.351681e+01	-9.295135e+00
3.371040e+01	-9.339348e+00
3.390511e+01	-9.383057e+00
3.410094e+01	-9.427936e+00
3.429791e+01	-9.472116e+00
3.449601e+01	-9.516539e+00
3.469526e+01	-9.560674e+00
3.489566e+01	-9.605474e+00
3.509721e+01	-9.650104e+00
3.529993e+01	-9.694599e+00
3.550382e+01	-9.739265e+00
3.570889e+01	-9.784344e+00
3.591515e+01	-9.828533e+00
3.612259e+01	-9.873833e+00
3.633123e+01	-9.918379e+00
3.654108e+01	-9.963038e+00
3.675214e+01	-1.000814e+01
3.696442e+01	-1.005413e+01
3.717792e+01	-1.009825e+01
3.739266e+01	-1.014353e+01
3.760864e+01	-1.018890e+01
3.782587e+01	-1.023429e+01
3.804435e+01	-1.027900e+01
3.826409e+01	-1.032503e+01
3.848510e+01	-1.037075e+01
3.870739e+01	-1.041610e+01
3.893096e+01	-1.046178e+01
3.915583e+01	-1.050679e+01
3.938199e+01	-1.055230e+01
3.960946e+01	-1.059790e+01
3.983824e+01	-1.064426e+01
4.006834e+01	-1.068972e+01
4.029978e+01	-1.073552e+01
4.053255e+01	-1.078120e+01
4.076666e+01	-1.082715e+01
4.100213e+01	-1.087294e+01
4.123896e+01	-1.091893e+01
4.147715e+01	-1.096522e+01
4.171672e+01	-1.101097e+01
4.195767e+01	-1.105693e+01
4.220002e+01	-1.110312e+01
4.244377e+01	-1.115011e+01
4.268892e+01	-1.119556e+01
4.293549e+01	-1.124191e+01
4.318348e+01	-1.128820e+01
4.343291e+01	-1.133527e+01
4.368377e+01	-1.138033e+01
4.393609e+01	-1.142714e+01
4.418986e+01	-1.147403e+01
4.444510e+01	-1.151990e+01
4.470182e+01	-1.156673e+01
4.496001e+01	-1.161382e+01
4.521970e+01	-1.166002e+01
4.548089e+01	-1.170695e+01
4.574358e+01	-1.175330e+01
4.600779e+01	-1.180012e+01
4.627353e+01	-1.184693e+01
4.654081e+01	-1.189280e+01
4.680963e+01	-1.194064e+01
4.708000e+01	-1.198682e+01
4.735193e+01	-1.203367e+01
4.762543e+01	-1.208035e+01
4.790051e+01	-1.212760e+01
4.817719e+01	-1.217474e+01
4.845545e+01	-1.222184e+01
4.873533e+01	-1.226919e+01
4.901682e+01	-1.231628e+01
4.929994e+01	-1.236285e+01
4.958470e+01	-1.241002e+01
4.987110e+01	-1.245736e+01
5.015915e+01	-1.250445e+01
5.044887e+01	-1.255158e+01
5.074026e+01	-1.259890e+01
5.103333e+01	-1.264620e+01
5.132810e+01	-1.269368e+01
5.162457e+01	-1.274104e+01
5.192275e+01	-1.278748e+01
5.222265e+01	-1.283588e+01
5.252429e+01	-1.288337e+01
5.282767e+01	-1.293040e+01
5.313280e+01	-1.297813e+01
5.343969e+01	-1.302617e+01
5.374836e+01	-1.307338e+01
5.405880e+01	-1.312048e+01
5.437105e+01	-1.316809e+01
5.468509e+01	-1.321627e+01
5.500095e+01	-1.326374e+01
5.531863e+01	-1.331107e+01
5.563815e+01	-1.335902e+01
5.595951e+01	-1.340674e+01
5.628273e+01	-1.345436e+01
5.660782e+01	-1.350267e+01
5.693479e+01	-1.354996e+01
5.726364e+01	-1.359841e+01
5.759439e+01	-1.364594e+01
5.792705e+01	-1.369316e+01
5.826164e+01	-1.374162e+01
5.859815e+01	-1.378879e+01
5.893662e+01	-1.383781e+01
5.927703e+01	-1.388478e+01
5.961941e+01	-1.393354e+01
5.996377e+01	-1.398188e+01
6.031012e+01	-1.402939e+01
6.065847e+01	-1.407721e+01
6.100883e+01	-1.412581e+01
6.136121e+01	-1.417322e+01
6.171563e+01	-1.422197e+01
6.207210e+01	-1.427032e+01
6.243063e+01	-1.431814e+01
6.279122e+01	-1.436650e+01
6.315390e+01	-1.441448e+01
6.351868e+01	-1.446252e+01
6.388556e+01	-1.451146e+01
6.425456e+01	-1.455971e+01
6.462569e+01	-1.460741e+01
6.499897e+01	-1.465567e+01
6.537440e+01	-1.470390e+01
6.575200e+01	-1.475253e+01
6.613178e+01	-1.480189e+01
6.651375e+01	-1.484876e+01
6.689793e+01	-1.489806e+01
6.728433e+01	-1.494617e+01
6.767297e+01	-1.499474e+01
6.806384e+01	-1.504238e+01
6.845698e+01	-1.509212e+01
6.885238e+01	-1.513906e+01
6.925007e+01	-1.518890e+01
6.965005e+01	-1.523670e+01
7.005235e+01	-1.528598e+01
7.045697e+01	-1.533438e+01
7.086393e+01	-1.538287e+01
7.127323e+01	-1.543181e+01
7.168490e+01	-1.547953e+01
7.209895e+01	-1.552839e+01
7.251539e+01	-1.557684e+01
7.293424e+01	-1.562545e+01
7.335551e+01	-1.567431e+01
7.377920e+01	-1.572355e+01
7.420535e+01	-1.577227e+01
7.463396e+01	-1.582055e+01
7.506504e+01	-1.586880e+01
7.549861e+01	-1.591785e+01
7.593469e+01	-1.596651e+01
7.637328e+01	-1.601563e+01
7.681441e+01	-1.606349e+01
7.725809e+01	-1.611262e+01
7.770433e+01	-1.616192e+01
7.815315e+01	-1.621110e+01
7.860456e+01	-1.626062e+01
7.905857e+01	-1.631021e+01
7.951521e+01	-1.635696e+01
7.997449e+01	-1.640562e+01
8.043642e+01	-1.645446e+01
8.090102e+01	-1.650378e+01
8.136830e+01	-1.655313e+01
8.183828e+01	-1.660235e+01
8.231097e+01	-1.665063e+01
8.278640e+01	-1.669949e+01
8.326457e+01	-1.674867e+01
8.374550e+01	-1.679825e+01
8.422921e+01	-1.684564e+01
8.471572e+01	-1.689491e+01
8.520503e+01	-1.694447e+01
8.569717e+01	-1.699388e+01
8.619215e+01	-1.704115e+01
8.669000e+01	-1.709114e+01
8.719071e+01	-1.714042e+01
8.769432e+01	-1.718925e+01
8.820084e+01	-1.723874e+01
8.871029e+01	-1.728816e+01
8.922267e+01	-1.733756e+01
8.973802e+01	-1.738528e+01
9.025634e+01	-1.743551e+01
9.077766e+01	-1.748515e+01
9.130199e+01	-1.753442e+01
9.182935e+01	-1.758395e+01
9.235975e+01	-1.763223e+01
9.289321e+01	-1.768111e+01
9.342976e+01	-1.773044e+01
9.396941e+01	-1.777898e+01
9.451217e+01	-1.782883e+01
9.505807e+01	-1.787819e+01
9.560712e+01	-1.792700e+01
9.615934e+01	-1.797582e+01
9.671476e+01	-1.802537e+01
9.727338e+01	-1.807432e+01
9.783522e+01	-1.812483e+01
9.840032e+01	-1.817361e+01
9.896867e+01	-1.822441e+01
9.954031e+01	-1.827228e+01
1.001153e+02	-1.832116e+01
1.006935e+02	-1.837075e+01
1.012751e+02	-1.842000e+01
1.018601e+02	-1.846893e+01
1.024484e+02	-1.851865e+01
1.030402e+02	-1.856704e+01
1.036353e+02	-1.861656e+01
1.042339e+02	-1.866622e+01
1.048360e+02	-1.871649e+01
1.054415e+02	-1.876628e+01
1.060505e+02	-1.881586e+01
1.066631e+02	-1.886437e+01
1.072791e+02	-1.891390e+01
1.078988e+02	-1.896176e+01
1.085220e+02	-1.901092e+01
1.091488e+02	-1.906287e+01
1.097793e+02	-1.911142e+01
1.104133e+02	-1.916162e+01
1.110511e+02	-1.921128e+01
1.116925e+02	-1.925909e+01
1.123376e+02	-1.930922e+01
1.129865e+02	-1.935817e+01
1.136391e+02	-1.940697e+01
1.142955e+02	-1.945824e+01
1.149556e+02	-1.950770e+01
1.156196e+02	-1.955661e+01
1.162874e+02	-1.960524e+01
1.169591e+02	-1.965531e+01
1.176347e+02	-1.970550e+01
1.183141e+02	-1.975364e+01
1.189975e+02	-1.980351e+01
1.196848e+02	-1.985281e+01
1.203761e+02	-1.990063e+01
1.210714e+02	-1.995197e+01
1.217707e+02	-2.000192e+01
1.224740e+02	-2.004945e+01
1.231814e+02	-2.010024e+01
1.238929e+02	-2.014945e+01
1.246085e+02	-2.020026e+01
1.253283e+02	-2.024954e+01
1.260522e+02	-2.029819e+01
1.267802e+02	-2.034848e+01
1.275125e+02	-2.039986e+01
1.282490e+02	-2.044744e+01
1.289898e+02	-2.049710e+01
1.297348e+02	-2.054680e+01
1.304842e+02	-2.059763e+01
1.312378e+02	-2.064585e+01
1.319959e+02	-2.069739e+01
1.327583e+02	-2.074661e+01
1.335251e+02	-2.079440e+01
1.342963e+02	-2.084632e+01
1.350720e+02	-2.089528e+01
1.358522e+02	-2.094545e+01
1.366368e+02	-2.099391e+01
1.374260e+02	-2.104268e+01
1.382198e+02	-2.109269e+01
1.390182e+02	-2.114106e+01
1.398211e+02	-2.119360e+01
1.406287e+02	-2.124298e+01
1.414410e+02	-2.129198e+01
1.422579e+02	-2.134205e+01
1.430796e+02	-2.139300e+01
1.439060e+02	-2.144019e+01
1.447372e+02	-2.148816e+01
1.455732e+02	-2.154052e+01
1.464141e+02	-2.158937e+01
1.472597e+02	-2.163898e+01
1.481103e+02	-2.169023e+01
1.489658e+02	-2.173807e+01
1.498262e+02	-2.178911e+01
1.506916e+02	-2.183924e+01
1.515620e+02	-2.188695e+01
1.524374e+02	-2.193721e+01
1.533179e+02	-2.198626e+01
1.542034e+02	-2.203470e+01
1.550941e+02	-2.208709e+01
1.559899e+02	-2.213707e+01
1.568909e+02	-2.218703e+01
1.577971e+02	-2.223687e+01
1.587085e+02	-2.228800e+01
1.596252e+02	-2.233616e+01
1.605472e+02	-2.238651e+01
1.614745e+02	-2.243567e+01
1.624072e+02	-2.248358e+01
1.633453e+02	-2.253378e+01
1.642887e+02	-2.258496e+01
1.652377e+02	-2.263330e+01
1.661921e+02	-2.268303e+01
1.671520e+02	-2.273553e+01
1.681175e+02	-2.278296e+01
1.690885e+02	-2.283158e+01
1.700651e+02	-2.288424e+01
1.710474e+02	-2.293336e+01
1.720354e+02	-2.298124e+01
1.730291e+02	-2.303096e+01
1.740285e+02	-2.308179e+01
1.750337e+02	-2.313129e+01
1.760446e+02	-2.318054e+01
1.770615e+02	-2.323121e+01
1.780842e+02	-2.328358e+01
1.791128e+02	-2.333344e+01
1.801473e+02	-2.337827e+01
1.811878e+02	-2.343170e+01
1.822344e+02	-2.347977e+01
1.832870e+02	-2.352995e+01
1.843456e+02	-2.358085e+01
1.854104e+02	-2.362984e+01
1.864813e+02	-2.368046e+01
1.875584e+02	-2.373042e+01
1.886418e+02	-2.378017e+01
1.897313e+02	-2.382997e+01
1.908272e+02	-2.387986e+01
1.919294e+02	-2.392888e+01
1.930380e+02	-2.398062e+01
1.941530e+02	-2.402720e+01
1.952744e+02	-2.408023e+01
1.964023e+02	-2.412954e+01
1.975367e+02	-2.418160e+01
1.986777e+02	-2.422862e+01
1.998252e+02	-2.427945e+01
2.009794e+02	-2.432798e+01
2.021403e+02	-2.437771e+01
2.033078e+02	-2.442719e+01
2.044821e+02	-2.447754e+01
2.056632e+02	-2.452767e+01
2.068511e+02	-2.457588e+01
2.080459e+02	-2.462522e+01
2.092475e+02	-2.467755e+01
2.104561e+02	-2.472865e+01
2.116717e+02	-2.477916e+01
2.128943e+02	-2.482701e+01
2.141240e+02	-2.487746e+01
2.153608e+02	-2.492974e+01
2.166047e+02	-2.497723e+01
2.178558e+02	-2.502753e+01
2.191141e+02	-2.507763e+01
2.203797e+02	-2.512531e+01
2.216526e+02	-2.517844e+01
2.229329e+02	-2.522342e+01
2.242205e+02	-2.527843e+01
2.255156e+02	-2.532441e+01
2.268182e+02	-2.537477e+01
2.281283e+02	-2.542630e+01
2.294459e+02	-2.547288e+01
2.307712e+02	-2.552476e+01
2.321041e+02	-2.557821e+01
2.334447e+02	-2.562616e+01
2.347931e+02	-2.567621e+01
2.361493e+02	-2.572761e+01
2.375133e+02	-2.577616e+01
2.388851e+02	-2.582428e+01
2.402649e+02	-2.587487e+01
2.416527e+02	-2.592836e+01
2.430484e+02	-2.597404e+01
2.444523e+02	-2.602551e+01
2.458642e+02	-2.607211e+01
2.472843e+02	-2.612737e+01
2.487126e+02	-2.617537e+01
2.501492e+02	-2.622498e+01
2.515940e+02	-2.627944e+01
2.530472e+02	-2.632445e+01
2.545088e+02	-2.637437e+01
2.559789e+02	-2.642106e+01
2.574574e+02	-2.647809e+01
2.589444e+02	-2.652595e+01
2.604401e+02	-2.657297e+01
2.619444e+02	-2.662450e+01
2.634574e+02	-2.667373e+01
2.649791e+02	-2.672529e+01
2.665096e+02	-2.677739e+01
2.680489e+02	-2.682268e+01
2.695972e+02	-2.687726e+01
2.711544e+02	-2.692306e+01
2.727205e+02	-2.697507e+01
2.742958e+02	-2.702474e+01
2.758801e+02	-2.707270e+01
2.774736e+02	-2.712648e+01
2.790762e+02	-2.717947e+01
2.806882e+02	-2.722031e+01
2.823094e+02	-2.727864e+01
2.839400e+02	-2.732681e+01
2.855800e+02	-2.737463e+01
2.872295e+02	-2.742045e+01
2.888886e+02	-2.747317e+01
2.905572e+02	-2.752147e+01
2.922354e+02	-2.758110e+01
2.939234e+02	-2.762852e+01
2.956211e+02	-2.767324e+01
2.973286e+02	-2.772545e+01
2.990459e+02	-2.777367e+01
3.007732e+02	-2.782006e+01
3.025104e+02	-2.787402e+01
3.042577e+02	-2.792633e+01
3.060151e+02	-2.797414e+01
3.077826e+02	-2.802690e+01
3.095604e+02	-2.807756e+01
3.113484e+02	-2.812344e+01
3.131467e+02	-2.817547e+01
3.149554e+02	-2.822323e+01
3.167746e+02	-2.827521e+01
3.186043e+02	-2.832625e+01
3.204445e+02	-2.837314e+01
3.222954e+02	-2.842144e+01
3.241570e+02	-2.847213e+01
3.260293e+02	-2.852415e+01
3.279124e+02	-2.857259e+01
3.298064e+02	-2.862662e+01
3.317114e+02	-2.867535e+01
3.336273e+02	-2.872652e+01
3.355544e+02	-2.877693e+01
3.374925e+02	-2.882462e+01
3.394418e+02	-2.887254e+01
3.414024e+02	-2.892934e+01
3.433744e+02	-2.898099e+01
3.453577e+02	-2.902621e+01
3.473525e+02	-2.907358e+01
3.493588e+02	-2.912566e+01
3.513766e+02	-2.917638e+01
3.534062e+02	-2.922837e+01
3.554474e+02	-2.927928e+01
3.575005e+02	-2.932765e+01
3.595654e+02	-2.937728e+01
3.616422e+02	-2.942911e+01
3.637311e+02	-2.947593e+01
3.658320e+02	-2.952905e+01
3.679450e+02	-2.957619e+01
3.700702e+02	-2.962820e+01
3.722077e+02	-2.967635e+01
3.743576e+02	-2.972509e+01
3.765199e+02	-2.977902e+01
3.786946e+02	-2.982873e+01
3.808820e+02	-2.987992e+01
3.830819e+02	-2.992757e+01
3.852946e+02	-2.997229e+01
3.875200e+02	-3.002883e+01
3.897583e+02	-3.007626e+01
3.920096e+02	-3.012417e+01
3.942738e+02	-3.018148e+01
3.965511e+02	-3.023045e+01
3.988416e+02	-3.027902e+01
4.011452e+02	-3.032355e+01
4.034622e+02	-3.037710e+01
4.057926e+02	-3.043042e+01
4.081365e+02	-3.047985e+01
4.104938e+02	-3.052819e+01
4.128648e+02	-3.057948e+01
4.152495e+02	-3.062888e+01
4.176480e+02	-3.068142e+01
4.200603e+02	-3.072087e+01
4.224866e+02	-3.078296e+01
4.249268e+02	-3.083574e+01
4.273812e+02	-3.088163e+01
4.298497e+02	-3.093252e+01
4.323325e+02	-3.097645e+01
4.348297e+02	-3.102685e+01
4.373412e+02	-3.107998e+01
4.398673e+02	-3.113063e+01
4.424079e+02	-3.117971e+01
4.449633e+02	-3.123117e+01
4.475334e+02	-3.127699e+01
4.501183e+02	-3.133327e+01
4.527182e+02	-3.137662e+01
4.553330e+02	-3.143122e+01
4.579630e+02	-3.148525e+01
4.606082e+02	-3.153148e+01
4.632687e+02	-3.157943e+01
4.659445e+02	-3.162993e+01
4.686358e+02	-3.168372e+01
4.713426e+02	-3.173380e+01
4.740650e+02	-3.177824e+01
4.768032e+02	-3.182677e+01
4.795572e+02	-3.188207e+01
4.823271e+02	-3.193320e+01
4.851130e+02	-3.198269e+01
4.879150e+02	-3.203305e+01
4.907332e+02	-3.208132e+01
4.935676e+02	-3.213709e+01
4.964185e+02	-3.218582e+01
4.992858e+02	-3.223621e+01
5.021696e+02	-3.228331e+01
5.050701e+02	-3.233934e+01
5.079874e+02	-3.238668e+01
5.109215e+02	-3.243731e+01
5.138726e+02	-3.248312e+01
5.168407e+02	-3.253681e+01
5.198259e+02	-3.258061e+01
5.228284e+02	-3.263309e+01
5.258482e+02	-3.268790e+01
5.288855e+02	-3.273938e+01
5.319403e+02	-3.278526e+01
5.350128e+02	-3.284200e+01
5.381030e+02	-3.289468e+01
5.412111e+02	-3.294135e+01
5.443371e+02	-3.299186e+01
5.474812e+02	-3.303532e+01
5.506434e+02	-3.308952e+01
5.538239e+02	-3.313094e+01
5.570228e+02	-3.318848e+01
5.602401e+02	-3.324094e+01
5.634760e+02	-3.328857e+01
5.667306e+02	-3.333822e+01
5.700040e+02	-3.339225e+01
5.732964e+02	-3.345198e+01
5.766077e+02	-3.348809e+01
5.799382e+02	-3.353600e+01
5.832879e+02	-3.359172e+01
5.866569e+02	-3.364370e+01
5.900454e+02	-3.368914e+01
5.934535e+02	-3.373780e+01
5.968813e+02	-3.378894e+01
6.003288e+02	-3.383791e+01
6.037963e+02	-3.388870e+01
6.072838e+02	-3.394387e+01
6.107914e+02	-3.398983e+01
6.143194e+02	-3.404050e+01
6.178676e+02	-3.409733e+01
6.214364e+02	-3.414546e+01
6.250258e+02	-3.419551e+01
6.286359e+02	-3.424385e+01
6.322669e+02	-3.429028e+01
6.359189e+02	-3.434654e+01
6.395919e+02	-3.439507e+01
6.432862e+02	-3.444801e+01
6.470017e+02	-3.448660e+01
6.507388e+02	-3.453991e+01
6.544974e+02	-3.459587e+01
6.582778e+02	-3.464675e+01
6.620800e+02	-3.469397e+01
6.659041e+02	-3.474893e+01
6.697504e+02	-3.480211e+01
6.736188e+02	-3.485056e+01
6.775096e+02	-3.489995e+01
6.814229e+02	-3.494455e+01
6.853587e+02	-3.499811e+01
6.893173e+02	-3.504078e+01
6.932988e+02	-3.509655e+01
6.973033e+02	-3.515113e+01
7.013309e+02	-3.520395e+01
