Frequency(Hz)	Magnitude(dB)
1.000000e+01	-2.294865e+00
1.005776e+01	-2.315401e+00
1.011585e+01	-2.336011e+00
1.017428e+01	-2.356937e+00
1.023305e+01	-2.378064e+00
1.029215e+01	-2.399206e+00
1.035160e+01	-2.420413e+00
1.041139e+01	-2.441899e+00
1.047153e+01	-2.463558e+00
1.053201e+01	-2.485164e+00
1.059284e+01	-2.507132e+00
1.065403e+01	-2.529043e+00
1.071556e+01	-2.551169e+00
1.077746e+01	-2.573553e+00
1.083971e+01	-2.595707e+00
1.090232e+01	-2.618606e+00
1.096529e+01	-2.641435e+00
1.102862e+01	-2.664046e+00
1.109232e+01	-2.687018e+00
1.115639e+01	-2.710102e+00
1.122083e+01	-2.733429e+00
1.128564e+01	-2.757170e+00
1.135083e+01	-2.780465e+00
1.141639e+01	-2.804240e+00
1.148233e+01	-2.828157e+00
1.154865e+01	-2.852278e+00
1.161536e+01	-2.876598e+00
1.168245e+01	-2.900624e+00
1.174992e+01	-2.925095e+00
1.181779e+01	-2.949653e+00
1.188605e+01	-2.974412e+00
1.195470e+01	-2.999367e+00
1.202375e+01	-3.024552e+00
1.209320e+01	-3.049652e+00
1.216305e+01	-3.074932e+00
1.223330e+01	-3.100333e+00
1.230396e+01	-3.125891e+00
1.237503e+01	-3.151647e+00
1.244651e+01	-3.177493e+00
1.251840e+01	-3.203475e+00
1.259070e+01	-3.229617e+00
1.266343e+01	-3.255955e+00
1.273657e+01	-3.282635e+00
1.281014e+01	-3.309103e+00
1.288413e+01	-3.335814e+00
1.295855e+01	-3.362598e+00
1.303339e+01	-3.389691e+00
1.310867e+01	-3.416937e+00
1.318439e+01	-3.444278e+00
1.326054e+01	-3.471693e+00
1.333713e+01	-3.499375e+00
1.341417e+01	-3.527154e+00
1.349165e+01	-3.554815e+00
1.356958e+01	-3.583152e+00
1.364795e+01	-3.611031e+00
1.372678e+01	-3.639660e+00
1.380607e+01	-3.667836e+00
1.388581e+01	-3.696479e+00
1.396602e+01	-3.725495e+00
1.404668e+01	-3.754213e+00
1.412782e+01	-3.783174e+00
1.420942e+01	-3.812296e+00
1.429149e+01	-3.841802e+00
1.437404e+01	-3.871016e+00
1.445706e+01	-3.900514e+00
1.454057e+01	-3.930371e+00
1.462455e+01	-3.960379e+00
1.470902e+01	-3.990087e+00
1.479398e+01	-4.020250e+00
1.487943e+01	-4.050582e+00
1.496537e+01	-4.081349e+00
1.505181e+01	-4.111589e+00
1.513875e+01	-4.142137e+00
1.522619e+01	-4.173304e+00
1.531414e+01	-4.204057e+00
1.540259e+01	-4.235000e+00
1.549156e+01	-4.266364e+00
1.558103e+01	-4.297638e+00
1.567103e+01	-4.329199e+00
1.576155e+01	-4.360826e+00
1.585258e+01	-4.392660e+00
1.594415e+01	-4.424520e+00
1.603624e+01	-4.456384e+00
1.612886e+01	-4.488714e+00
1.622202e+01	-4.520937e+00
1.631572e+01	-4.553505e+00
1.640996e+01	-4.586003e+00
1.650474e+01	-4.618450e+00
1.660008e+01	-4.651499e+00
1.669596e+01	-4.684649e+00
1.679239e+01	-4.717640e+00
1.688938e+01	-4.750763e+00
1.698694e+01	-4.783571e+00
1.708505e+01	-4.817150e+00
1.718373e+01	-4.850953e+00
1.728299e+01	-4.884706e+00
1.738281e+01	-4.918748e+00
1.748322e+01	-4.952621e+00
1.758420e+01	-4.986731e+00
1.768576e+01	-5.020882e+00
1.778792e+01	-5.055183e+00
1.789066e+01	-5.090055e+00
1.799399e+01	-5.124449e+00
1.809793e+01	-5.159028e+00
1.820246e+01	-5.193940e+00
1.830760e+01	-5.229070e+00
1.841334e+01	-5.263952e+00
1.851969e+01	-5.299218e+00
1.862666e+01	-5.334452e+00
1.873425e+01	-5.370165e+00
1.884246e+01	-5.405388e+00
1.895129e+01	-5.441034e+00
1.906075e+01	-5.477202e+00
1.917085e+01	-5.512701e+00
1.928158e+01	-5.548638e+00
1.939295e+01	-5.584844e+00
1.950496e+01	-5.621039e+00
1.961762e+01	-5.657743e+00
1.973093e+01	-5.693794e+00
1.984490e+01	-5.730754e+00
1.995952e+01	-5.767338e+00
2.007480e+01	-5.804218e+00
2.019076e+01	-5.841302e+00
2.030738e+01	-5.878520e+00
2.042467e+01	-5.915733e+00
2.054264e+01	-5.952735e+00
2.066130e+01	-5.990030e+00
2.078064e+01	-6.027587e+00
2.090066e+01	-6.065168e+00
2.102139e+01	-6.102944e+00
2.114280e+01	-6.140579e+00
2.126492e+01	-6.178444e+00
2.138775e+01	-6.216443e+00
2.151128e+01	-6.254598e+00
2.163553e+01	-6.293029e+00
2.176050e+01	-6.331437e+00
2.188619e+01	-6.369477e+00
2.201260e+01	-6.407803e+00
2.213974e+01	-6.446565e+00
2.226762e+01	-6.485596e+00
2.239624e+01	-6.524402e+00
2.252560e+01	-6.563377e+00
2.265571e+01	-6.602689e+00
2.278656e+01	-6.641424e+00
2.291818e+01	-6.680925e+00
2.305055e+01	-6.720326e+00
2.318369e+01	-6.759625e+00
2.331760e+01	-6.799070e+00
2.345228e+01	-6.839023e+00
2.358774e+01	-6.878581e+00
2.372398e+01	-6.918393e+00
2.386101e+01	-6.957996e+00
2.399883e+01	-6.998273e+00
2.413745e+01	-7.038147e+00
2.427686e+01	-7.078438e+00
2.441709e+01	-7.118516e+00
2.455812e+01	-7.159177e+00
2.469997e+01	-7.199807e+00
2.484263e+01	-7.240088e+00
2.498612e+01	-7.280685e+00
2.513044e+01	-7.321329e+00
2.527559e+01	-7.361829e+00
2.542158e+01	-7.402774e+00
2.556842e+01	-7.443803e+00
2.571610e+01	-7.485287e+00
2.586463e+01	-7.525761e+00
2.601403e+01	-7.567430e+00
2.616428e+01	-7.608973e+00
2.631541e+01	-7.650109e+00
2.646740e+01	-7.691657e+00
2.662028e+01	-7.733145e+00
2.677404e+01	-7.774788e+00
2.692868e+01	-7.816977e+00
2.708422e+01	-7.858710e+00
2.724066e+01	-7.899944e+00
2.739800e+01	-7.941853e+00
2.755625e+01	-7.984208e+00
2.771541e+01	-8.026263e+00
2.787550e+01	-8.068555e+00
2.803650e+01	-8.110764e+00
2.819844e+01	-8.153209e+00
2.836131e+01	-8.195561e+00
2.852513e+01	-8.238176e+00
2.868989e+01	-8.280643e+00
2.885560e+01	-8.322756e+00
2.902227e+01	-8.365721e+00
2.918990e+01	-8.408312e+00
2.935850e+01	-8.451307e+00
2.952807e+01	-8.494143e+00
2.969863e+01	-8.537342e+00
2.987016e+01	-8.580566e+00
3.004269e+01	-8.623457e+00
3.021622e+01	-8.666619e+00
3.039075e+01	-8.710343e+00
3.056628e+01	-8.753323e+00
3.074283e+01	-8.796404e+00
3.092040e+01	-8.840098e+00
3.109900e+01	-8.883473e+00
3.127862e+01	-8.926967e+00
3.145929e+01	-8.970606e+00
3.164099e+01	-9.014819e+00
3.182375e+01	-9.058605e+00
3.200756e+01	-9.102164e+00
3.219244e+01	-9.146158e+00
3.237838e+01	-9.190311e+00
3.256540e+01	-9.233727e+00
3.275349e+01	-9.278084e+00
3.294268e+01	-9.322323e+00
3.313295e+01	-9.366585e+00
3.332433e+01	-9.410710e+00
3.351681e+01	-9.455204e+00
3.371040e+01	-9.500087e+00
3.390511e+01	-9.543980e+00
3.410094e+01	-9.588538e+00
3.429791e+01	-9.633185e+00
3.449601e+01	-9.677789e+00
3.469526e+01	-9.721924e+00
3.489566e+01	-9.767265e+00
3.509721e+01	-9.811904e+00
3.529993e+01	-9.856185e+00
3.550382e+01	-9.901958e+00
3.570889e+01	-9.946082e+00
3.591515e+01	-9.991418e+00
3.612259e+01	-1.003636e+01
3.633123e+01	-1.008128e+01
3.654108e+01	-1.012652e+01
3.675214e+01	-1.017240e+01
3.696442e+01	-1.021723e+01
3.717792e+01	-1.026255e+01
3.739266e+01	-1.030802e+01
3.760864e+01	-1.035376e+01
3.782587e+01	-1.039876e+01
3.804435e+01	-1.044406e+01
3.826409e+01	-1.048998e+01
3.848510e+01	-1.053522e+01
3.870739e+01	-1.058124e+01
3.893096e+01	-1.062617e+01
3.915583e+01	-1.067217e+01
3.938199e+01	-1.071776e+01
3.960946e+01	-1.076378e+01
3.983824e+01	-1.080952e+01
4.006834e+01	-1.085501e+01
4.029978e+01	-1.090128e+01
4.053255e+01	-1.094763e+01
4.076666e+01	-1.099297e+01
4.100213e+01	-1.103971e+01
4.123896e+01	-1.108556e+01
4.147715e+01	-1.113144e+01
4.171672e+01	-1.117838e+01
4.195767e+01	-1.122445e+01
4.220002e+01	-1.127061e+01
4.244377e+01	-1.131674e+01
4.268892e+01	-1.136330e+01
4.293549e+01	-1.140972e+01
4.318348e+01	-1.145599e+01
4.343291e+01	-1.150185e+01
4.368377e+01	-1.154944e+01
4.393609e+01	-1.159523e+01
4.418986e+01	-1.164224e+01
4.444510e+01	-1.168882e+01
4.470182e+01	-1.173514e+01
4.496001e+01	-1.178199e+01
4.521970e+01	-1.182935e+01
4.548089e+01	-1.187513e+01
4.574358e+01	-1.192184e+01
4.600779e+01	-1.196893e+01
4.627353e+01	-1.201619e+01
4.654081e+01	-1.206342e+01
4.680963e+01	-1.210968e+01
4.708000e+01	-1.215628e+01
4.735193e+01	-1.220458e+01
4.762543e+01	-1.225066e+01
4.790051e+01	-1.229695e+01
4.817719e+01	-1.234492e+01
4.845545e+01	-1.239191e+01
4.873533e+01	-1.243949e+01
4.901682e+01	-1.248631e+01
4.929994e+01	-1.253423e+01
4.958470e+01	-1.258139e+01
4.987110e+01	-1.262799e+01
5.015915e+01	-1.267537e+01
5.044887e+01	-1.272309e+01
5.074026e+01	-1.276989e+01
5.103333e+01	-1.281776e+01
5.132810e+01	-1.286472e+01
5.162457e+01	-1.291289e+01
5.192275e+01	-1.296020e+01
5.222265e+01	-1.300794e+01
5.252429e+01	-1.305471e+01
5.282767e+01	-1.310240e+01
5.313280e+01	-1.314940e+01
5.343969e+01	-1.319742e+01
5.374836e+01	-1.324472e+01
5.405880e+01	-1.329356e+01
5.437105e+01	-1.334114e+01
5.468509e+01	-1.338881e+01
5.500095e+01	-1.343609e+01
5.531863e+01	-1.348376e+01
5.563815e+01	-1.353171e+01
5.595951e+01	-1.358023e+01
5.628273e+01	-1.362778e+01
5.660782e+01	-1.367501e+01
5.693479e+01	-1.372350e+01
5.726364e+01	-1.377146e+01
5.759439e+01	-1.381876e+01
5.792705e+01	-1.386727e+01
5.826164e+01	-1.391498e+01
5.859815e+01	-1.396329e+01
5.893662e+01	-1.401122e+01
5.927703e+01	-1.405929e+01
5.961941e+01	-1.410695e+01
5.996377e+01	-1.415530e+01
6.031012e+01	-1.420335e+01
6.065847e+01	-1.425256e+01
6.100883e+01	-1.429900e+01
6.136121e+01	-1.434766e+01
6.171563e+01	-1.439575e+01
6.207210e+01	-1.444366e+01
6.243063e+01	-1.449235e+01
6.279122e+01	-1.454093e+01
6.315390e+01	-1.458938e+01
6.351868e+01	-1.463721e+01
6.388556e+01	-1.468558e+01
6.425456e+01	-1.473421e+01
6.462569e+01	-1.478305e+01
6.499897e+01	-1.483081e+01
6.537440e+01	-1.487956e+01
6.575200e+01	-1.492756e+01
6.613178e+01	-1.497621e+01
6.651375e+01	-1.502434e+01
6.689793e+01	-1.507274e+01
6.728433e+01	-1.512214e+01
6.767297e+01	-1.517010e+01
6.806384e+01	-1.521875e+01
6.845698e+01	-1.526667e+01
6.885238e+01	-1.531568e+01
6.925007e+01	-1.536446e+01
6.965005e+01	-1.541347e+01
7.005235e+01	-1.546102e+01
7.045697e+01	-1.551017e+01
7.086393e+01	-1.555904e+01
7.127323e+01	-1.560767e+01
7.168490e+01	-1.565576e+01
7.209895e+01	-1.570551e+01
7.251539e+01	-1.575355e+01
7.293424e+01	-1.580172e+01
7.335551e+01	-1.585134e+01
7.377920e+01	-1.589906e+01
7.420535e+01	-1.594853e+01
7.463396e+01	-1.599719e+01
7.506504e+01	-1.604521e+01
7.549861e+01	-1.609354e+01
7.593469e+01	-1.614441e+01
7.637328e+01	-1.619229e+01
7.681441e+01	-1.624046e+01
7.725809e+01	-1.628881e+01
7.770433e+01	-1.633837e+01
7.815315e+01	-1.638791e+01
7.860456e+01	-1.643671e+01
7.905857e+01	-1.648643e+01
7.951521e+01	-1.653400e+01
7.997449e+01	-1.658332e+01
8.043642e+01	-1.663170e+01
8.090102e+01	-1.668137e+01
8.136830e+01	-1.672914e+01
8.183828e+01	-1.677875e+01
8.231097e+01	-1.682837e+01
8.278640e+01	-1.687642e+01
8.326457e+01	-1.692622e+01
8.374550e+01	-1.697543e+01
8.422921e+01	-1.702410e+01
8.471572e+01	-1.707301e+01
8.520503e+01	-1.712202e+01
8.569717e+01	-1.717155e+01
8.619215e+01	-1.722040e+01
8.669000e+01	-1.726880e+01
8.719071e+01	-1.731888e+01
8.769432e+01	-1.736703e+01
8.820084e+01	-1.741642e+01
8.871029e+01	-1.746533e+01
8.922267e+01	-1.751604e+01
8.973802e+01	-1.756506e+01
9.025634e+01	-1.761337e+01
9.077766e+01	-1.766340e+01
9.130199e+01	-1.771108e+01
9.182935e+01	-1.775969e+01
9.235975e+01	-1.781074e+01
9.289321e+01	-1.785926e+01
9.342976e+01	-1.790845e+01
9.396941e+01	-1.795687e+01
9.451217e+01	-1.800621e+01
9.505807e+01	-1.805638e+01
9.560712e+01	-1.810518e+01
9.615934e+01	-1.815492e+01
9.671476e+01	-1.820394e+01
9.727338e+01	-1.825273e+01
9.783522e+01	-1.830282e+01
9.840032e+01	-1.835190e+01
9.896867e+01	-1.840259e+01
9.954031e+01	-1.845158e+01
1.001153e+02	-1.849978e+01
1.006935e+02	-1.854962e+01
1.012751e+02	-1.859822e+01
1.018601e+02	-1.864855e+01
1.024484e+02	-1.869762e+01
1.030402e+02	-1.874714e+01
1.036353e+02	-1.879447e+01
1.042339e+02	-1.884530e+01
1.048360e+02	-1.889378e+01
1.054415e+02	-1.894506e+01
1.060505e+02	-1.899252e+01
1.066631e+02	-1.904389e+01
1.072791e+02	-1.909056e+01
1.078988e+02	-1.914219e+01
1.085220e+02	-1.919130e+01
1.091488e+02	-1.924134e+01
1.097793e+02	-1.929045e+01
1.104133e+02	-1.934026e+01
1.110511e+02	-1.938881e+01
1.116925e+02	-1.943845e+01
1.123376e+02	-1.948692e+01
1.129865e+02	-1.953602e+01
1.136391e+02	-1.958806e+01
1.142955e+02	-1.963658e+01
1.149556e+02	-1.968604e+01
1.156196e+02	-1.973463e+01
1.162874e+02	-1.978452e+01
1.169591e+02	-1.983420e+01
1.176347e+02	-1.988401e+01
1.183141e+02	-1.993347e+01
1.189975e+02	-1.998297e+01
1.196848e+02	-2.002989e+01
1.203761e+02	-2.008314e+01
1.210714e+02	-2.013226e+01
1.217707e+02	-2.018175e+01
1.224740e+02	-2.023046e+01
1.231814e+02	-2.028109e+01
1.238929e+02	-2.032857e+01
1.246085e+02	-2.037892e+01
1.253283e+02	-2.042778e+01
1.260522e+02	-2.047804e+01
1.267802e+02	-2.052850e+01
1.275125e+02	-2.057795e+01
1.282490e+02	-2.062743e+01
1.289898e+02	-2.067758e+01
1.297348e+02	-2.072482e+01
1.304842e+02	-2.077513e+01
1.312378e+02	-2.082498e+01
1.319959e+02	-2.087427e+01
1.327583e+02	-2.092580e+01
1.335251e+02	-2.097573e+01
1.342963e+02	-2.102446e+01
1.350720e+02	-2.107420e+01
1.358522e+02	-2.112323e+01
1.366368e+02	-2.117440e+01
1.374260e+02	-2.122353e+01
1.382198e+02	-2.127287e+01
1.390182e+02	-2.132070e+01
1.398211e+02	-2.137286e+01
1.406287e+02	-2.142224e+01
1.414410e+02	-2.147098e+01
1.422579e+02	-2.152062e+01
1.430796e+02	-2.157102e+01
1.439060e+02	-2.162076e+01
1.447372e+02	-2.167082e+01
1.455732e+02	-2.172088e+01
1.464141e+02	-2.177009e+01
1.472597e+02	-2.181919e+01
1.481103e+02	-2.186807e+01
1.489658e+02	-2.191823e+01
1.498262e+02	-2.196848e+01
1.506916e+02	-2.201824e+01
1.515620e+02	-2.206718e+01
1.524374e+02	-2.211896e+01
1.533179e+02	-2.216745e+01
1.542034e+02	-2.221635e+01
1.550941e+02	-2.226547e+01
1.559899e+02	-2.231583e+01
1.568909e+02	-2.236612e+01
1.577971e+02	-2.241453e+01
1.587085e+02	-2.246491e+01
1.596252e+02	-2.251344e+01
1.605472e+02	-2.256298e+01
1.614745e+02	-2.261731e+01
1.624072e+02	-2.266589e+01
1.633453e+02	-2.271296e+01
1.642887e+02	-2.276235e+01
1.652377e+02	-2.281197e+01
1.661921e+02	-2.286323e+01
1.671520e+02	-2.291612e+01
1.681175e+02	-2.296681e+01
1.690885e+02	-2.301588e+01
1.700651e+02	-2.306490e+01
1.710474e+02	-2.311405e+01
1.720354e+02	-2.316292e+01
1.730291e+02	-2.321085e+01
1.740285e+02	-2.326288e+01
1.750337e+02	-2.331282e+01
1.760446e+02	-2.336395e+01
1.770615e+02	-2.341239e+01
1.780842e+02	-2.346175e+01
1.791128e+02	-2.351155e+01
1.801473e+02	-2.356254e+01
1.811878e+02	-2.361042e+01
1.822344e+02	-2.365905e+01
1.832870e+02	-2.371189e+01
1.843456e+02	-2.375600e+01
1.854104e+02	-2.381023e+01
1.864813e+02	-2.385930e+01
1.875584e+02	-2.391140e+01
1.886418e+02	-2.396160e+01
1.897313e+02	-2.400794e+01
1.908272e+02	-2.405949e+01
1.919294e+02	-2.410899e+01
1.930380e+02	-2.415858e+01
1.941530e+02	-2.420627e+01
1.952744e+02	-2.425780e+01
1.964023e+02	-2.430892e+01
1.975367e+02	-2.435883e+01
1.986777e+02	-2.440758e+01
1.998252e+02	-2.445798e+01
2.009794e+02	-2.450884e+01
2.021403e+02	-2.455834e+01
2.033078e+02	-2.460975e+01
2.044821e+02	-2.465534e+01
2.056632e+02	-2.470795e+01
2.068511e+02	-2.475860e+01
2.080459e+02	-2.480856e+01
2.092475e+02	-2.485886e+01
2.104561e+02	-2.491039e+01
2.116717e+02	-2.495894e+01
2.128943e+02	-2.500788e+01
2.141240e+02	-2.505775e+01
2.153608e+02	-2.510866e+01
2.166047e+02	-2.515762e+01
2.178558e+02	-2.520781e+01
2.191141e+02	-2.525909e+01
2.203797e+02	-2.530730e+01
2.216526e+02	-2.535608e+01
2.229329e+02	-2.540869e+01
2.242205e+02	-2.545787e+01
2.255156e+02	-2.550852e+01
2.268182e+02	-2.555587e+01
2.281283e+02	-2.560774e+01
2.294459e+02	-2.565410e+01
2.307712e+02	-2.570556e+01
2.321041e+02	-2.575415e+01
2.334447e+02	-2.580712e+01
2.347931e+02	-2.585757e+01
2.361493e+02	-2.590555e+01
2.375133e+02	-2.595508e+01
2.388851e+02	-2.600527e+01
2.402649e+02	-2.605309e+01
2.416527e+02	-2.610568e+01
2.430484e+02	-2.615257e+01
2.444523e+02	-2.620746e+01
2.458642e+02	-2.625329e+01
2.472843e+02	-2.630501e+01
2.487126e+02	-2.635665e+01
2.501492e+02	-2.640372e+01
2.515940e+02	-2.645694e+01
2.530472e+02	-2.650318e+01
2.545088e+02	-2.655793e+01
2.559789e+02	-2.660921e+01
2.574574e+02	-2.665800e+01
2.589444e+02	-2.670550e+01
2.604401e+02	-2.675790e+01
2.619444e+02	-2.680398e+01
2.634574e+02	-2.685782e+01
2.649791e+02	-2.690544e+01
2.665096e+02	-2.695055e+01
2.680489e+02	-2.700835e+01
2.695972e+02	-2.706002e+01
2.711544e+02	-2.710345e+01
2.727205e+02	-2.715652e+01
2.742958e+02	-2.720612e+01
2.758801e+02	-2.725134e+01
2.774736e+02	-2.730660e+01
2.790762e+02	-2.736014e+01
2.806882e+02	-2.740554e+01
2.823094e+02	-2.745355e+01
2.839400e+02	-2.750207e+01
2.855800e+02	-2.755378e+01
2.872295e+02	-2.760438e+01
2.888886e+02	-2.765379e+01
2.905572e+02	-2.770066e+01
2.922354e+02	-2.775699e+01
2.939234e+02	-2.780130e+01
2.956211e+02	-2.785364e+01
2.973286e+02	-2.790329e+01
2.990459e+02	-2.795434e+01
3.007732e+02	-2.800191e+01
3.025104e+02	-2.805608e+01
3.042577e+02	-2.810669e+01
3.060151e+02	-2.815721e+01
3.077826e+02	-2.820098e+01
3.095604e+02	-2.825080e+01
3.113484e+02	-2.830160e+01
3.131467e+02	-2.835623e+01
3.149554e+02	-2.840317e+01
3.167746e+02	-2.845451e+01
3.186043e+02	-2.850528e+01
3.204445e+02	-2.855289e+01
3.222954e+02	-2.860728e+01
3.241570e+02	-2.865094e+01
3.260293e+02	-2.870766e+01
3.279124e+02	-2.875122e+01
3.298064e+02	-2.880713e+01
3.317114e+02	-2.885292e+01
3.336273e+02	-2.890524e+01
3.355544e+02	-2.895554e+01
3.374925e+02	-2.900521e+01
3.394418e+02	-2.905573e+01
3.414024e+02	-2.910119e+01
3.433744e+02	-2.915506e+01
3.453577e+02	-2.920711e+01
3.473525e+02	-2.925455e+01
3.493588e+02	-2.930867e+01
3.513766e+02	-2.935426e+01
3.534062e+02	-2.940611e+01
3.554474e+02	-2.945743e+01
3.575005e+02	-2.950369e+01
3.595654e+02	-2.955827e+01
3.616422e+02	-2.960594e+01
3.637311e+02	-2.965819e+01
3.658320e+02	-2.970651e+01
3.679450e+02	-2.975471e+01
3.700702e+02	-2.980536e+01
3.722077e+02	-2.986091e+01
3.743576e+02	-2.990596e+01
3.765199e+02	-2.995707e+01
3.786946e+02	-3.000787e+01
3.808820e+02	-3.005711e+01
3.830819e+02	-3.010566e+01
3.852946e+02	-3.015599e+01
3.875200e+02	-3.020640e+01
3.897583e+02	-3.026302e+01
3.920096e+02	-3.030759e+01
3.942738e+02	-3.036013e+01
3.965511e+02	-3.041300e+01
3.988416e+02	-3.045653e+01
4.011452e+02	-3.050540e+01
4.034622e+02	-3.055767e+01
4.057926e+02	-3.060459e+01
4.081365e+02	-3.065468e+01
4.104938e+02	-3.070685e+01
4.128648e+02	-3.075562e+01
4.152495e+02	-3.081389e+01
4.176480e+02	-3.085806e+01
4.200603e+02	-3.091087e+01
4.224866e+02	-3.096014e+01
4.249268e+02	-3.101291e+01
4.273812e+02	-3.105812e+01
4.298497e+02	-3.111247e+01
4.323325e+02	-3.115769e+01
4.348297e+02	-3.121117e+01
4.373412e+02	-3.126288e+01
4.398673e+02	-3.130713e+01
4.424079e+02	-3.135883e+01
4.449633e+02	-3.140561e+01
4.475334e+02	-3.145694e+01
4.501183e+02	-3.151232e+01
4.527182e+02	-3.156096e+01
4.553330e+02	-3.160829e+01
4.579630e+02	-3.166228e+01
4.606082e+02	-3.171140e+01
4.632687e+02	-3.176021e+01
4.659445e+02	-3.181679e+01
4.686358e+02	-3.185646e+01
4.713426e+02	-3.190752e+01
4.740650e+02	-3.195972e+01
4.768032e+02	-3.201167e+01
4.795572e+02	-3.205953e+01
4.823271e+02	-3.210345e+01
4.851130e+02	-3.216059e+01
4.879150e+02	-3.220824e+01
4.907332e+02	-3.226878e+01
4.935676e+02	-3.230661e+01
4.964185e+02	-3.236429e+01
4.992858e+02	-3.240809e+01
5.021696e+02	-3.246866e+01
5.050701e+02	-3.251929e+01
5.079874e+02	-3.256288e+01
5.109215e+02	-3.260991e+01
5.138726e+02	-3.267073e+01
5.168407e+02	-3.271029e+01
5.198259e+02	-3.276601e+01
5.228284e+02	-3.281624e+01
5.258482e+02	-3.286063e+01
5.288855e+02	-3.291358e+01
5.319403e+02	-3.296214e+01
5.350128e+02	-3.301650e+01
5.381030e+02	-3.306793e+01
5.412111e+02	-3.311355e+01
5.443371e+02	-3.316729e+01
5.474812e+02	-3.321944e+01
5.506434e+02	-3.326595e+01
5.538239e+02	-3.331630e+01
5.570228e+02	-3.336714e+01
5.602401e+02	-3.341754e+01
5.634760e+02	-3.346919e+01
5.667306e+02	-3.351599e+01
5.700040e+02	-3.356709e+01
5.732964e+02	-3.361622e+01
5.766077e+02	-3.367400e+01
5.799382e+02	-3.372296e+01
5.832879e+02	-3.377392e+01
5.866569e+02	-3.381311e+01
5.900454e+02	-3.386470e+01
5.934535e+02	-3.391918e+01
5.968813e+02	-3.397229e+01
6.003288e+02	-3.402492e+01
6.037963e+02	-3.407797e+01
6.072838e+02	-3.412519e+01
6.107914e+02	-3.418223e+01
6.143194e+02	-3.421029e+01
6.178676e+02	-3.426409e+01
6.214364e+02	-3.431694e+01
6.250258e+02	-3.437429e+01
6.286359e+02	-3.441626e+01
6.322669e+02	-3.447354e+01
6.359189e+02	-3.452151e+01
6.395919e+02	-3.457095e+01
6.432862e+02	-3.462653e+01
6.470017e+02	-3.468365e+01
6.507388e+02	-3.471895e+01
6.544974e+02	-3.477201e+01
6.582778e+02	-3.483241e+01
6.620800e+02	-3.487780e+01
6.659041e+02	-3.492523e+01
6.697504e+02	-3.497431e+01
6.736188e+02	-3.502886e+01
6.775096e+02	-3.507916e+01
6.814229e+02	-3.513388e+01
6.853587e+02	-3.518087e+01
6.893173e+02	-3.523382e+01
6.932988e+02	-3.528243e+01
6.973033e+02	-3.531920e+01
7.013309e+02	-3.538307e+01
