Frequency(Hz)	Magnitude(dB)
1.000000e+01	-2.045423e+00
1.005776e+01	-2.064178e+00
1.011585e+01	-2.083261e+00
1.017428e+01	-2.102181e+00
1.023305e+01	-2.121638e+00
1.029215e+01	-2.140851e+00
1.035160e+01	-2.160591e+00
1.041139e+01	-2.180253e+00
1.047153e+01	-2.200079e+00
1.053201e+01	-2.220057e+00
1.059284e+01	-2.239942e+00
1.065403e+01	-2.260256e+00
1.071556e+01	-2.280752e+00
1.077746e+01	-2.301024e+00
1.083971e+01	-2.321930e+00
1.090232e+01	-2.342587e+00
1.096529e+01	-2.363541e+00
1.102862e+01	-2.384498e+00
1.109232e+01	-2.405743e+00
1.115639e+01	-2.426994e+00
1.122083e+01	-2.448668e+00
1.128564e+01	-2.470125e+00
1.135083e+01	-2.492084e+00
1.141639e+01	-2.513820e+00
1.148233e+01	-2.535838e+00
1.154865e+01	-2.558026e+00
1.161536e+01	-2.580605e+00
1.168245e+01	-2.603089e+00
1.174992e+01	-2.625741e+00
1.181779e+01	-2.648479e+00
1.188605e+01	-2.671323e+00
1.195470e+01	-2.694297e+00
1.202375e+01	-2.717408e+00
1.209320e+01	-2.740792e+00
1.216305e+01	-2.764357e+00
1.223330e+01	-2.788124e+00
1.230396e+01	-2.811608e+00
1.237503e+01	-2.835565e+00
1.244651e+01	-2.859793e+00
1.251840e+01	-2.883888e+00
1.259070e+01	-2.908207e+00
1.266343e+01	-2.932648e+00
1.273657e+01	-2.957257e+00
1.281014e+01	-2.982253e+00
1.288413e+01	-3.006980e+00
1.295855e+01	-3.032251e+00
1.303339e+01	-3.057353e+00
1.310867e+01	-3.082821e+00
1.318439e+01	-3.108216e+00
1.326054e+01	-3.133908e+00
1.333713e+01	-3.159638e+00
1.341417e+01	-3.185791e+00
1.349165e+01	-3.211810e+00
1.356958e+01	-3.237602e+00
1.364795e+01	-3.264320e+00
1.372678e+01	-3.290691e+00
1.380607e+01	-3.317502e+00
1.388581e+01	-3.344007e+00
1.396602e+01	-3.371226e+00
1.404668e+01	-3.398446e+00
1.412782e+01	-3.425361e+00
1.420942e+01	-3.452716e+00
1.429149e+01	-3.480337e+00
1.437404e+01	-3.507758e+00
1.445706e+01	-3.536039e+00
1.454057e+01	-3.563494e+00
1.462455e+01	-3.591818e+00
1.470902e+01	-3.619703e+00
1.479398e+01	-3.648439e+00
1.487943e+01	-3.676865e+00
1.496537e+01	-3.705293e+00
1.505181e+01	-3.734246e+00
1.513875e+01	-3.763117e+00
1.522619e+01	-3.792257e+00
1.531414e+01	-3.821409e+00
1.540259e+01	-3.850864e+00
1.549156e+01	-3.880274e+00
1.558103e+01	-3.910023e+00
1.567103e+01	-3.939774e+00
1.576155e+01	-3.969667e+00
1.585258e+01	-3.999710e+00
1.594415e+01	-4.029817e+00
1.603624e+01	-4.060069e+00
1.612886e+01	-4.090332e+00
1.622202e+01	-4.121046e+00
1.631572e+01	-4.151652e+00
1.640996e+01	-4.182435e+00
1.650474e+01	-4.213636e+00
1.660008e+01	-4.244813e+00
1.669596e+01	-4.276136e+00
1.679239e+01	-4.307401e+00
1.688938e+01	-4.338955e+00
1.698694e+01	-4.370538e+00
1.708505e+01	-4.402688e+00
1.718373e+01	-4.434351e+00
1.728299e+01	-4.466621e+00
1.738281e+01	-4.498485e+00
1.748322e+01	-4.531058e+00
1.758420e+01	-4.563899e+00
1.768576e+01	-4.596173e+00
1.778792e+01	-4.629073e+00
1.789066e+01	-4.661741e+00
1.799399e+01	-4.694660e+00
1.809793e+01	-4.727683e+00
1.820246e+01	-4.761150e+00
1.830760e+01	-4.794642e+00
1.841334e+01	-4.827818e+00
1.851969e+01	-4.861509e+00
1.862666e+01	-4.895386e+00
1.873425e+01	-4.929511e+00
1.884246e+01	-4.963341e+00
1.895129e+01	-4.997435e+00
1.906075e+01	-5.031531e+00
1.917085e+01	-5.066065e+00
1.928158e+01	-5.100569e+00
1.939295e+01	-5.135346e+00
1.950496e+01	-5.169964e+00
1.961762e+01	-5.204577e+00
1.973093e+01	-5.240096e+00
1.984490e+01	-5.274807e+00
1.995952e+01	-5.310243e+00
2.007480e+01	-5.345429e+00
2.019076e+01	-5.380652e+00
2.030738e+01	-5.416431e+00
2.042467e+01	-5.452442e+00
2.054264e+01	-5.488183e+00
2.066130e+01	-5.524129e+00
2.078064e+01	-5.560016e+00
2.090066e+01	-5.596150e+00
2.102139e+01	-5.632740e+00
2.114280e+01	-5.668906e+00
2.126492e+01	-5.705542e+00
2.138775e+01	-5.742166e+00
2.151128e+01	-5.778895e+00
2.163553e+01	-5.815727e+00
2.176050e+01	-5.852844e+00
2.188619e+01	-5.889737e+00
2.201260e+01	-5.927003e+00
2.213974e+01	-5.964329e+00
2.226762e+01	-6.001492e+00
2.239624e+01	-6.038944e+00
2.252560e+01	-6.076952e+00
2.265571e+01	-6.114544e+00
2.278656e+01	-6.152572e+00
2.291818e+01	-6.190480e+00
2.305055e+01	-6.228429e+00
2.318369e+01	-6.266673e+00
2.331760e+01	-6.304757e+00
2.345228e+01	-6.343340e+00
2.358774e+01	-6.381823e+00
2.372398e+01	-6.420070e+00
2.386101e+01	-6.458995e+00
2.399883e+01	-6.497732e+00
2.413745e+01	-6.536706e+00
2.427686e+01	-6.575300e+00
2.441709e+01	-6.614245e+00
2.455812e+01	-6.653966e+00
2.469997e+01	-6.692858e+00
2.484263e+01	-6.732317e+00
2.498612e+01	-6.771908e+00
2.513044e+01	-6.811204e+00
2.527559e+01	-6.850916e+00
2.542158e+01	-6.890547e+00
2.556842e+01	-6.930361e+00
2.571610e+01	-6.970614e+00
2.586463e+01	-7.010694e+00
2.601403e+01	-7.051015e+00
2.616428e+01	-7.090879e+00
2.631541e+01	-7.131139e+00
2.646740e+01	-7.171289e+00
2.662028e+01	-7.212121e+00
2.677404e+01	-7.252645e+00
2.692868e+01	-7.293129e+00
2.708422e+01	-7.333615e+00
2.724066e+01	-7.374753e+00
2.739800e+01	-7.415683e+00
2.755625e+01	-7.456564e+00
2.771541e+01	-7.498067e+00
2.787550e+01	-7.538722e+00
2.803650e+01	-7.580338e+00
2.819844e+01	-7.621253e+00
2.836131e+01	-7.662862e+00
2.852513e+01	-7.704331e+00
2.868989e+01	-7.746121e+00
2.885560e+01	-7.787731e+00
2.902227e+01	-7.829615e+00
2.918990e+01	-7.871273e+00
2.935850e+01	-7.913158e+00
2.952807e+01	-7.955298e+00
2.969863e+01	-7.997108e+00
2.987016e+01	-8.039403e+00
3.004269e+01	-8.081658e+00
3.021622e+01	-8.123669e+00
3.039075e+01	-8.166037e+00
3.056628e+01	-8.208459e+00
3.074283e+01	-8.250878e+00
3.092040e+01	-8.293704e+00
3.109900e+01	-8.335794e+00
3.127862e+01	-8.378998e+00
3.145929e+01	-8.421866e+00
3.164099e+01	-8.464888e+00
3.182375e+01	-8.507915e+00
3.200756e+01	-8.550207e+00
3.219244e+01	-8.593974e+00
3.237838e+01	-8.636980e+00
3.256540e+01	-8.680177e+00
3.275349e+01	-8.723571e+00
3.294268e+01	-8.766443e+00
3.313295e+01	-8.809904e+00
3.332433e+01	-8.853688e+00
3.351681e+01	-8.896883e+00
3.371040e+01	-8.940398e+00
3.390511e+01	-8.984245e+00
3.410094e+01	-9.028382e+00
3.429791e+01	-9.071734e+00
3.449601e+01	-9.115590e+00
3.469526e+01	-9.159498e+00
3.489566e+01	-9.203766e+00
3.509721e+01	-9.247775e+00
3.529993e+01	-9.291674e+00
3.550382e+01	-9.336462e+00
3.570889e+01	-9.380052e+00
3.591515e+01	-9.424721e+00
3.612259e+01	-9.468631e+00
3.633123e+01	-9.513199e+00
3.654108e+01	-9.557606e+00
3.675214e+01	-9.602286e+00
3.696442e+01	-9.647232e+00
3.717792e+01	-9.691164e+00
3.739266e+01	-9.736037e+00
3.760864e+01	-9.781272e+00
3.782587e+01	-9.825942e+00
3.804435e+01	-9.870654e+00
3.826409e+01	-9.914858e+00
3.848510e+01	-9.960216e+00
3.870739e+01	-1.000497e+01
3.893096e+01	-1.005095e+01
3.915583e+01	-1.009550e+01
3.938199e+01	-1.014088e+01
3.960946e+01	-1.018584e+01
3.983824e+01	-1.023111e+01
4.006834e+01	-1.027678e+01
4.029978e+01	-1.032184e+01
4.053255e+01	-1.036756e+01
4.076666e+01	-1.041286e+01
4.100213e+01	-1.045789e+01
4.123896e+01	-1.050376e+01
4.147715e+01	-1.054953e+01
4.171672e+01	-1.059503e+01
4.195767e+01	-1.064067e+01
4.220002e+01	-1.068638e+01
4.244377e+01	-1.073200e+01
4.268892e+01	-1.077798e+01
4.293549e+01	-1.082403e+01
4.318348e+01	-1.086971e+01
4.343291e+01	-1.091576e+01
4.368377e+01	-1.096103e+01
4.393609e+01	-1.100851e+01
4.418986e+01	-1.105448e+01
4.444510e+01	-1.109998e+01
4.470182e+01	-1.114592e+01
4.496001e+01	-1.119258e+01
4.521970e+01	-1.123785e+01
4.548089e+01	-1.128501e+01
4.574358e+01	-1.133109e+01
4.600779e+01	-1.137776e+01
4.627353e+01	-1.142437e+01
4.654081e+01	-1.147097e+01
4.680963e+01	-1.151673e+01
4.708000e+01	-1.156334e+01
4.735193e+01	-1.161044e+01
4.762543e+01	-1.165679e+01
4.790051e+01	-1.170327e+01
4.817719e+01	-1.174954e+01
4.845545e+01	-1.179672e+01
4.873533e+01	-1.184344e+01
4.901682e+01	-1.189034e+01
4.929994e+01	-1.193690e+01
4.958470e+01	-1.198351e+01
4.987110e+01	-1.203116e+01
5.015915e+01	-1.207791e+01
5.044887e+01	-1.212531e+01
5.074026e+01	-1.217111e+01
5.103333e+01	-1.221834e+01
5.132810e+01	-1.226612e+01
5.162457e+01	-1.231272e+01
5.192275e+01	-1.235975e+01
5.222265e+01	-1.240726e+01
5.252429e+01	-1.245414e+01
5.282767e+01	-1.250082e+01
5.313280e+01	-1.254789e+01
5.343969e+01	-1.259593e+01
5.374836e+01	-1.264326e+01
5.405880e+01	-1.269132e+01
5.437105e+01	-1.273745e+01
5.468509e+01	-1.278503e+01
5.500095e+01	-1.283293e+01
5.531863e+01	-1.287995e+01
5.563815e+01	-1.292666e+01
5.595951e+01	-1.297450e+01
5.628273e+01	-1.302298e+01
5.660782e+01	-1.306924e+01
5.693479e+01	-1.311747e+01
5.726364e+01	-1.316530e+01
5.759439e+01	-1.321260e+01
5.792705e+01	-1.326083e+01
5.826164e+01	-1.330810e+01
5.859815e+01	-1.335640e+01
5.893662e+01	-1.340296e+01
5.927703e+01	-1.345080e+01
5.961941e+01	-1.349889e+01
5.996377e+01	-1.354667e+01
6.031012e+01	-1.359469e+01
6.065847e+01	-1.364212e+01
6.100883e+01	-1.368996e+01
6.136121e+01	-1.373792e+01
6.171563e+01	-1.378645e+01
6.207210e+01	-1.383376e+01
6.243063e+01	-1.388212e+01
6.279122e+01	-1.393038e+01
6.315390e+01	-1.397793e+01
6.351868e+01	-1.402638e+01
6.388556e+01	-1.407387e+01
6.425456e+01	-1.412174e+01
6.462569e+01	-1.417035e+01
6.499897e+01	-1.421916e+01
6.537440e+01	-1.426642e+01
6.575200e+01	-1.431569e+01
6.613178e+01	-1.436313e+01
6.651375e+01	-1.441217e+01
6.689793e+01	-1.446025e+01
6.728433e+01	-1.450738e+01
6.767297e+01	-1.455577e+01
6.806384e+01	-1.460477e+01
6.845698e+01	-1.465209e+01
6.885238e+01	-1.470024e+01
6.925007e+01	-1.474900e+01
6.965005e+01	-1.479781e+01
7.005235e+01	-1.484617e+01
7.045697e+01	-1.489462e+01
7.086393e+01	-1.494225e+01
7.127323e+01	-1.499161e+01
7.168490e+01	-1.504015e+01
7.209895e+01	-1.508778e+01
7.251539e+01	-1.513689e+01
7.293424e+01	-1.518492e+01
7.335551e+01	-1.523295e+01
7.377920e+01	-1.528137e+01
7.420535e+01	-1.532993e+01
7.463396e+01	-1.537964e+01
7.506504e+01	-1.542754e+01
7.549861e+01	-1.547671e+01
7.593469e+01	-1.552564e+01
7.637328e+01	-1.557315e+01
7.681441e+01	-1.562167e+01
7.725809e+01	-1.567076e+01
7.770433e+01	-1.572035e+01
7.815315e+01	-1.576740e+01
7.860456e+01	-1.581683e+01
7.905857e+01	-1.586646e+01
7.951521e+01	-1.591453e+01
7.997449e+01	-1.596301e+01
8.043642e+01	-1.601189e+01
8.090102e+01	-1.606078e+01
8.136830e+01	-1.611000e+01
8.183828e+01	-1.615965e+01
8.231097e+01	-1.620667e+01
8.278640e+01	-1.625543e+01
8.326457e+01	-1.630419e+01
8.374550e+01	-1.635423e+01
8.422921e+01	-1.640277e+01
8.471572e+01	-1.645139e+01
8.520503e+01	-1.650123e+01
8.569717e+01	-1.654945e+01
8.619215e+01	-1.659752e+01
8.669000e+01	-1.664751e+01
8.719071e+01	-1.669614e+01
8.769432e+01	-1.674482e+01
8.820084e+01	-1.679490e+01
8.871029e+01	-1.684269e+01
8.922267e+01	-1.689163e+01
8.973802e+01	-1.694175e+01
9.025634e+01	-1.699012e+01
9.077766e+01	-1.703922e+01
9.130199e+01	-1.708871e+01
9.182935e+01	-1.713673e+01
9.235975e+01	-1.718709e+01
9.289321e+01	-1.723596e+01
9.342976e+01	-1.728509e+01
9.396941e+01	-1.733357e+01
9.451217e+01	-1.738271e+01
9.505807e+01	-1.743158e+01
9.560712e+01	-1.748147e+01
9.615934e+01	-1.752990e+01
9.671476e+01	-1.758117e+01
9.727338e+01	-1.762845e+01
9.783522e+01	-1.767622e+01
9.840032e+01	-1.772790e+01
9.896867e+01	-1.777633e+01
9.954031e+01	-1.782545e+01
1.001153e+02	-1.787560e+01
1.006935e+02	-1.792347e+01
1.012751e+02	-1.797229e+01
1.018601e+02	-1.802128e+01
1.024484e+02	-1.807242e+01
1.030402e+02	-1.812137e+01
1.036353e+02	-1.816889e+01
1.042339e+02	-1.821928e+01
1.048360e+02	-1.826827e+01
1.054415e+02	-1.831833e+01
1.060505e+02	-1.836744e+01
1.066631e+02	-1.841641e+01
1.072791e+02	-1.846539e+01
1.078988e+02	-1.851511e+01
1.085220e+02	-1.856564e+01
1.091488e+02	-1.861452e+01
1.097793e+02	-1.866321e+01
1.104133e+02	-1.871323e+01
1.110511e+02	-1.876176e+01
1.116925e+02	-1.881080e+01
1.123376e+02	-1.886141e+01
1.129865e+02	-1.890999e+01
1.136391e+02	-1.895979e+01
1.142955e+02	-1.900820e+01
1.149556e+02	-1.905796e+01
1.156196e+02	-1.910885e+01
1.162874e+02	-1.915713e+01
1.169591e+02	-1.920515e+01
1.176347e+02	-1.925547e+01
1.183141e+02	-1.930491e+01
1.189975e+02	-1.935541e+01
1.196848e+02	-1.940478e+01
1.203761e+02	-1.945357e+01
1.210714e+02	-1.950286e+01
1.217707e+02	-1.955256e+01
1.224740e+02	-1.960276e+01
1.231814e+02	-1.965062e+01
1.238929e+02	-1.970275e+01
1.246085e+02	-1.975050e+01
1.253283e+02	-1.979937e+01
1.260522e+02	-1.984952e+01
1.267802e+02	-1.989838e+01
1.275125e+02	-1.994861e+01
1.282490e+02	-1.999808e+01
1.289898e+02	-2.004780e+01
1.297348e+02	-2.009492e+01
1.304842e+02	-2.014787e+01
1.312378e+02	-2.019795e+01
1.319959e+02	-2.024660e+01
1.327583e+02	-2.029565e+01
1.335251e+02	-2.034432e+01
1.342963e+02	-2.039418e+01
1.350720e+02	-2.044549e+01
1.358522e+02	-2.049442e+01
1.366368e+02	-2.054454e+01
1.374260e+02	-2.059296e+01
1.382198e+02	-2.064133e+01
1.390182e+02	-2.069356e+01
1.398211e+02	-2.074299e+01
1.406287e+02	-2.079181e+01
1.414410e+02	-2.084165e+01
1.422579e+02	-2.089008e+01
1.430796e+02	-2.093998e+01
1.439060e+02	-2.099096e+01
1.447372e+02	-2.104016e+01
1.455732e+02	-2.108982e+01
1.464141e+02	-2.113783e+01
1.472597e+02	-2.118876e+01
1.481103e+02	-2.123868e+01
1.489658e+02	-2.128684e+01
1.498262e+02	-2.133787e+01
1.506916e+02	-2.138669e+01
1.515620e+02	-2.143616e+01
1.524374e+02	-2.148635e+01
1.533179e+02	-2.153853e+01
1.542034e+02	-2.158601e+01
1.550941e+02	-2.163590e+01
1.559899e+02	-2.168503e+01
1.568909e+02	-2.173524e+01
1.577971e+02	-2.178511e+01
1.587085e+02	-2.183545e+01
1.596252e+02	-2.188362e+01
1.605472e+02	-2.193490e+01
1.614745e+02	-2.198424e+01
1.624072e+02	-2.203319e+01
1.633453e+02	-2.208130e+01
1.642887e+02	-2.213276e+01
1.652377e+02	-2.218284e+01
1.661921e+02	-2.223349e+01
1.671520e+02	-2.228209e+01
1.681175e+02	-2.233260e+01
1.690885e+02	-2.238139e+01
1.700651e+02	-2.243224e+01
1.710474e+02	-2.248108e+01
1.720354e+02	-2.252862e+01
1.730291e+02	-2.258003e+01
1.740285e+02	-2.263259e+01
1.750337e+02	-2.268107e+01
1.760446e+02	-2.272893e+01
1.770615e+02	-2.277954e+01
1.780842e+02	-2.283260e+01
1.791128e+02	-2.287912e+01
1.801473e+02	-2.293225e+01
1.811878e+02	-2.297992e+01
1.822344e+02	-2.303200e+01
1.832870e+02	-2.307889e+01
1.843456e+02	-2.313011e+01
1.854104e+02	-2.318179e+01
1.864813e+02	-2.322706e+01
1.875584e+02	-2.327874e+01
1.886418e+02	-2.332726e+01
1.897313e+02	-2.337774e+01
1.908272e+02	-2.342821e+01
1.919294e+02	-2.347913e+01
1.930380e+02	-2.352851e+01
1.941530e+02	-2.357778e+01
1.952744e+02	-2.362303e+01
1.964023e+02	-2.368044e+01
1.975367e+02	-2.372732e+01
1.986777e+02	-2.377616e+01
1.998252e+02	-2.382516e+01
2.009794e+02	-2.387670e+01
2.021403e+02	-2.392457e+01
2.033078e+02	-2.397616e+01
2.044821e+02	-2.402586e+01
2.056632e+02	-2.408093e+01
2.068511e+02	-2.412451e+01
2.080459e+02	-2.417640e+01
2.092475e+02	-2.422623e+01
2.104561e+02	-2.427638e+01
2.116717e+02	-2.432433e+01
2.128943e+02	-2.437425e+01
2.141240e+02	-2.442521e+01
2.153608e+02	-2.447635e+01
2.166047e+02	-2.452541e+01
2.178558e+02	-2.457337e+01
2.191141e+02	-2.462553e+01
2.203797e+02	-2.467399e+01
2.216526e+02	-2.472324e+01
2.229329e+02	-2.477426e+01
2.242205e+02	-2.482353e+01
2.255156e+02	-2.487510e+01
2.268182e+02	-2.492534e+01
2.281283e+02	-2.497075e+01
2.294459e+02	-2.502260e+01
2.307712e+02	-2.507288e+01
2.321041e+02	-2.512410e+01
2.334447e+02	-2.517210e+01
2.347931e+02	-2.522309e+01
2.361493e+02	-2.527420e+01
2.375133e+02	-2.532268e+01
2.388851e+02	-2.537389e+01
2.402649e+02	-2.542246e+01
2.416527e+02	-2.547098e+01
2.430484e+02	-2.552329e+01
2.444523e+02	-2.556992e+01
2.458642e+02	-2.562319e+01
2.472843e+02	-2.567324e+01
2.487126e+02	-2.572092e+01
2.501492e+02	-2.577153e+01
2.515940e+02	-2.582148e+01
2.530472e+02	-2.587098e+01
2.545088e+02	-2.591875e+01
2.559789e+02	-2.597252e+01
2.574574e+02	-2.602233e+01
2.589444e+02	-2.607077e+01
2.604401e+02	-2.612167e+01
2.619444e+02	-2.616940e+01
2.634574e+02	-2.622165e+01
2.649791e+02	-2.627494e+01
2.665096e+02	-2.632320e+01
2.680489e+02	-2.637345e+01
2.695972e+02	-2.642135e+01
2.711544e+02	-2.647069e+01
2.727205e+02	-2.652484e+01
2.742958e+02	-2.657028e+01
2.758801e+02	-2.662019e+01
2.774736e+02	-2.667245e+01
2.790762e+02	-2.672313e+01
2.806882e+02	-2.677536e+01
2.823094e+02	-2.682272e+01
2.839400e+02	-2.687459e+01
2.855800e+02	-2.691889e+01
2.872295e+02	-2.697331e+01
2.888886e+02	-2.702223e+01
2.905572e+02	-2.707162e+01
2.922354e+02	-2.712013e+01
2.939234e+02	-2.717030e+01
2.956211e+02	-2.722387e+01
2.973286e+02	-2.727122e+01
2.990459e+02	-2.732308e+01
3.007732e+02	-2.737243e+01
3.025104e+02	-2.742115e+01
3.042577e+02	-2.747091e+01
3.060151e+02	-2.752150e+01
3.077826e+02	-2.756886e+01
3.095604e+02	-2.761987e+01
3.113484e+02	-2.766761e+01
3.131467e+02	-2.772032e+01
3.149554e+02	-2.777400e+01
3.167746e+02	-2.782137e+01
3.186043e+02	-2.787372e+01
3.204445e+02	-2.792372e+01
3.222954e+02	-2.797101e+01
3.241570e+02	-2.802545e+01
3.260293e+02	-2.807062e+01
3.279124e+02	-2.812409e+01
3.298064e+02	-2.816942e+01
3.317114e+02	-2.822572e+01
3.336273e+02	-2.827377e+01
3.355544e+02	-2.832596e+01
3.374925e+02	-2.837516e+01
3.394418e+02	-2.842223e+01
3.414024e+02	-2.847270e+01
3.433744e+02	-2.852124e+01
3.453577e+02	-2.857615e+01
3.473525e+02	-2.862292e+01
3.493588e+02	-2.867034e+01
3.513766e+02	-2.871959e+01
3.534062e+02	-2.877108e+01
3.554474e+02	-2.882163e+01
3.575005e+02	-2.887390e+01
3.595654e+02	-2.892678e+01
3.616422e+02	-2.897477e+01
3.637311e+02	-2.902551e+01
3.658320e+02	-2.907363e+01
3.679450e+02	-2.912138e+01
3.700702e+02	-2.917796e+01
3.722077e+02	-2.922174e+01
3.743576e+02	-2.927383e+01
3.765199e+02	-2.932174e+01
3.786946e+02	-2.937540e+01
3.808820e+02	-2.942763e+01
3.830819e+02	-2.947262e+01
3.852946e+02	-2.952052e+01
3.875200e+02	-2.957084e+01
3.897583e+02	-2.962600e+01
3.920096e+02	-2.967588e+01
3.942738e+02	-2.972439e+01
3.965511e+02	-2.977614e+01
3.988416e+02	-2.982174e+01
4.011452e+02	-2.987900e+01
4.034622e+02	-2.992395e+01
4.057926e+02	-2.997170e+01
4.081365e+02	-3.002264e+01
4.104938e+02	-3.007444e+01
4.128648e+02	-3.012872e+01
4.152495e+02	-3.017732e+01
4.176480e+02	-3.022625e+01
4.200603e+02	-3.027810e+01
4.224866e+02	-3.032626e+01
4.249268e+02	-3.037546e+01
4.273812e+02	-3.042894e+01
4.298497e+02	-3.048022e+01
4.323325e+02	-3.052806e+01
4.348297e+02	-3.057857e+01
4.373412e+02	-3.062568e+01
4.398673e+02	-3.067768e+01
4.424079e+02	-3.073000e+01
4.449633e+02	-3.077991e+01
4.475334e+02	-3.082796e+01
4.501183e+02	-3.087704e+01
4.527182e+02	-3.092346e+01
4.553330e+02	-3.097547e+01
4.579630e+02	-3.103210e+01
4.606082e+02	-3.108025e+01
4.632687e+02	-3.112619e+01
4.659445e+02	-3.117595e+01
4.686358e+02	-3.123047e+01
4.713426e+02	-3.127577e+01
4.740650e+02	-3.132601e+01
4.768032e+02	-3.137572e+01
4.795572e+02	-3.143065e+01
4.823271e+02	-3.148093e+01
4.851130e+02	-3.152989e+01
4.879150e+02	-3.157407e+01
4.907332e+02	-3.162829e+01
4.935676e+02	-3.167218e+01
4.964185e+02	-3.172731e+01
4.992858e+02	-3.177620e+01
5.021696e+02	-3.183307e+01
5.050701e+02	-3.188009e+01
5.079874e+02	-3.192663e+01
5.109215e+02	-3.197684e+01
5.138726e+02	-3.203500e+01
5.168407e+02	-3.208144e+01
5.198259e+02	-3.213854e+01
5.228284e+02	-3.218295e+01
5.258482e+02	-3.222968e+01
5.288855e+02	-3.228443e+01
5.319403e+02	-3.233215e+01
5.350128e+02	-3.238668e+01
5.381030e+02	-3.243642e+01
5.412111e+02	-3.247765e+01
5.443371e+02	-3.252636e+01
5.474812e+02	-3.257658e+01
5.506434e+02	-3.263744e+01
5.538239e+02	-3.268590e+01
5.570228e+02	-3.274331e+01
5.602401e+02	-3.278626e+01
5.634760e+02	-3.284110e+01
5.667306e+02	-3.289104e+01
5.700040e+02	-3.293511e+01
5.732964e+02	-3.298838e+01
5.766077e+02	-3.304476e+01
5.799382e+02	-3.308661e+01
5.832879e+02	-3.313640e+01
5.866569e+02	-3.318502e+01
5.900454e+02	-3.323344e+01
5.934535e+02	-3.328552e+01
5.968813e+02	-3.333693e+01
6.003288e+02	-3.338731e+01
6.037963e+02	-3.344728e+01
6.072838e+02	-3.349210e+01
6.107914e+02	-3.353840e+01
6.143194e+02	-3.358459e+01
6.178676e+02	-3.363279e+01
6.214364e+02	-3.369069e+01
6.250258e+02	-3.374826e+01
6.286359e+02	-3.378619e+01
6.322669e+02	-3.383704e+01
6.359189e+02	-3.388719e+01
6.395919e+02	-3.394491e+01
6.432862e+02	-3.399828e+01
6.470017e+02	-3.403852e+01
6.507388e+02	-3.409961e+01
6.544974e+02	-3.413737e+01
6.582778e+02	-3.418804e+01
6.620800e+02	-3.423898e+01
6.659041e+02	-3.430162e+01
6.697504e+02	-3.433226e+01
6.736188e+02	-3.439537e+01
6.775096e+02	-3.443919e+01
6.814229e+02	-3.450200e+01
6.853587e+02	-3.454356e+01
6.893173e+02	-3.459644e+01
6.932988e+02	-3.464007e+01
6.973033e+02	-3.469001e+01
7.013309e+02	-3.474254e+01
