Frequency(Hz)	Magnitude(dB)
1.000000e+01	-2.123368e+00
1.005776e+01	-2.142661e+00
1.011585e+01	-2.162133e+00
1.017428e+01	-2.181826e+00
1.023305e+01	-2.201641e+00
1.029215e+01	-2.221821e+00
1.035160e+01	-2.241825e+00
1.041139e+01	-2.262147e+00
1.047153e+01	-2.282480e+00
1.053201e+01	-2.302934e+00
1.059284e+01	-2.323751e+00
1.065403e+01	-2.344529e+00
1.071556e+01	-2.365501e+00
1.077746e+01	-2.386565e+00
1.083971e+01	-2.407801e+00
1.090232e+01	-2.429212e+00
1.096529e+01	-2.450614e+00
1.102862e+01	-2.472190e+00
1.109232e+01	-2.494016e+00
1.115639e+01	-2.515962e+00
1.122083e+01	-2.537755e+00
1.128564e+01	-2.560145e+00
1.135083e+01	-2.582378e+00
1.141639e+01	-2.605116e+00
1.148233e+01	-2.627800e+00
1.154865e+01	-2.650491e+00
1.161536e+01	-2.673260e+00
1.168245e+01	-2.696589e+00
1.174992e+01	-2.719593e+00
1.181779e+01	-2.742928e+00
1.188605e+01	-2.766585e+00
1.195470e+01	-2.790071e+00
1.202375e+01	-2.813984e+00
1.209320e+01	-2.837829e+00
1.216305e+01	-2.862115e+00
1.223330e+01	-2.886230e+00
1.230396e+01	-2.910566e+00
1.237503e+01	-2.934873e+00
1.244651e+01	-2.959459e+00
1.251840e+01	-2.984560e+00
1.259070e+01	-3.009303e+00
1.266343e+01	-3.034491e+00
1.273657e+01	-3.059775e+00
1.281014e+01	-3.085292e+00
1.288413e+01	-3.110438e+00
1.295855e+01	-3.136151e+00
1.303339e+01	-3.162026e+00
1.310867e+01	-3.187969e+00
1.318439e+01	-3.213918e+00
1.326054e+01	-3.240272e+00
1.333713e+01	-3.266712e+00
1.341417e+01	-3.293226e+00
1.349165e+01	-3.319983e+00
1.356958e+01	-3.346761e+00
1.364795e+01	-3.373806e+00
1.372678e+01	-3.400620e+00
1.380607e+01	-3.428034e+00
1.388581e+01	-3.455070e+00
1.396602e+01	-3.483041e+00
1.404668e+01	-3.510261e+00
1.412782e+01	-3.538288e+00
1.420942e+01	-3.566296e+00
1.429149e+01	-3.594407e+00
1.437404e+01	-3.622494e+00
1.445706e+01	-3.651035e+00
1.454057e+01	-3.679447e+00
1.462455e+01	-3.708123e+00
1.470902e+01	-3.736780e+00
1.479398e+01	-3.765743e+00
1.487943e+01	-3.794873e+00
1.496537e+01	-3.824066e+00
1.505181e+01	-3.853336e+00
1.513875e+01	-3.883178e+00
1.522619e+01	-3.912694e+00
1.531414e+01	-3.942424e+00
1.540259e+01	-3.972589e+00
1.549156e+01	-4.002438e+00
1.558103e+01	-4.032551e+00
1.567103e+01	-4.063159e+00
1.576155e+01	-4.093542e+00
1.585258e+01	-4.123929e+00
1.594415e+01	-4.154698e+00
1.603624e+01	-4.185828e+00
1.612886e+01	-4.216693e+00
1.622202e+01	-4.247741e+00
1.631572e+01	-4.279125e+00
1.640996e+01	-4.310799e+00
1.650474e+01	-4.342226e+00
1.660008e+01	-4.373588e+00
1.669596e+01	-4.405824e+00
1.679239e+01	-4.437547e+00
1.688938e+01	-4.469591e+00
1.698694e+01	-4.501812e+00
1.708505e+01	-4.533798e+00
1.718373e+01	-4.566534e+00
1.728299e+01	-4.599091e+00
1.738281e+01	-4.632023e+00
1.748322e+01	-4.664849e+00
1.758420e+01	-4.697722e+00
1.768576e+01	-4.730761e+00
1.778792e+01	-4.764156e+00
1.789066e+01	-4.797701e+00
1.799399e+01	-4.830880e+00
1.809793e+01	-4.864662e+00
1.820246e+01	-4.898566e+00
1.830760e+01	-4.932220e+00
1.841334e+01	-4.966488e+00
1.851969e+01	-5.000498e+00
1.862666e+01	-5.035064e+00
1.873425e+01	-5.069300e+00
1.884246e+01	-5.103698e+00
1.895129e+01	-5.138433e+00
1.906075e+01	-5.172912e+00
1.917085e+01	-5.208034e+00
1.928158e+01	-5.243063e+00
1.939295e+01	-5.278110e+00
1.950496e+01	-5.313570e+00
1.961762e+01	-5.348856e+00
1.973093e+01	-5.384148e+00
1.984490e+01	-5.419941e+00
1.995952e+01	-5.455464e+00
2.007480e+01	-5.491347e+00
2.019076e+01	-5.527143e+00
2.030738e+01	-5.563342e+00
2.042467e+01	-5.599915e+00
2.054264e+01	-5.635976e+00
2.066130e+01	-5.672619e+00
2.078064e+01	-5.709110e+00
2.090066e+01	-5.745562e+00
2.102139e+01	-5.782324e+00
2.114280e+01	-5.819341e+00
2.126492e+01	-5.856335e+00
2.138775e+01	-5.893340e+00
2.151128e+01	-5.930415e+00
2.163553e+01	-5.967885e+00
2.176050e+01	-6.004823e+00
2.188619e+01	-6.042465e+00
2.201260e+01	-6.080248e+00
2.213974e+01	-6.118156e+00
2.226762e+01	-6.155957e+00
2.239624e+01	-6.194039e+00
2.252560e+01	-6.232027e+00
2.265571e+01	-6.269992e+00
2.278656e+01	-6.308479e+00
2.291818e+01	-6.346892e+00
2.305055e+01	-6.385294e+00
2.318369e+01	-6.423677e+00
2.331760e+01	-6.462558e+00
2.345228e+01	-6.501430e+00
2.358774e+01	-6.539978e+00
2.372398e+01	-6.578856e+00
2.386101e+01	-6.618132e+00
2.399883e+01	-6.657326e+00
2.413745e+01	-6.696894e+00
2.427686e+01	-6.736065e+00
2.441709e+01	-6.775511e+00
2.455812e+01	-6.815194e+00
2.469997e+01	-6.854638e+00
2.484263e+01	-6.894376e+00
2.498612e+01	-6.934508e+00
2.513044e+01	-6.974083e+00
2.527559e+01	-7.014402e+00
2.542158e+01	-7.054698e+00
2.556842e+01	-7.094767e+00
2.571610e+01	-7.134489e+00
2.586463e+01	-7.174937e+00
2.601403e+01	-7.215696e+00
2.616428e+01	-7.256643e+00
2.631541e+01	-7.296935e+00
2.646740e+01	-7.338083e+00
2.662028e+01	-7.378706e+00
2.677404e+01	-7.419436e+00
2.692868e+01	-7.460179e+00
2.708422e+01	-7.501027e+00
2.724066e+01	-7.542960e+00
2.739800e+01	-7.583717e+00
2.755625e+01	-7.625240e+00
2.771541e+01	-7.667125e+00
2.787550e+01	-7.708569e+00
2.803650e+01	-7.749916e+00
2.819844e+01	-7.791425e+00
2.836131e+01	-7.833320e+00
2.852513e+01	-7.875183e+00
2.868989e+01	-7.916895e+00
2.885560e+01	-7.959271e+00
2.902227e+01	-8.001112e+00
2.918990e+01	-8.043459e+00
2.935850e+01	-8.085724e+00
2.952807e+01	-8.127662e+00
2.969863e+01	-8.169978e+00
2.987016e+01	-8.212562e+00
3.004269e+01	-8.255211e+00
3.021622e+01	-8.297225e+00
3.039075e+01	-8.340262e+00
3.056628e+01	-8.382726e+00
3.074283e+01	-8.425560e+00
3.092040e+01	-8.468612e+00
3.109900e+01	-8.511535e+00
3.127862e+01	-8.554532e+00
3.145929e+01	-8.598107e+00
3.164099e+01	-8.640665e+00
3.182375e+01	-8.683772e+00
3.200756e+01	-8.727533e+00
3.219244e+01	-8.770737e+00
3.237838e+01	-8.813877e+00
3.256540e+01	-8.857041e+00
3.275349e+01	-8.901365e+00
3.294268e+01	-8.944926e+00
3.313295e+01	-8.988996e+00
3.332433e+01	-9.032253e+00
3.351681e+01	-9.076003e+00
3.371040e+01	-9.120155e+00
3.390511e+01	-9.163862e+00
3.410094e+01	-9.207591e+00
3.429791e+01	-9.252419e+00
3.449601e+01	-9.296343e+00
3.469526e+01	-9.340148e+00
3.489566e+01	-9.384534e+00
3.509721e+01	-9.428601e+00
3.529993e+01	-9.472423e+00
3.550382e+01	-9.518175e+00
3.570889e+01	-9.561710e+00
3.591515e+01	-9.606726e+00
3.612259e+01	-9.650221e+00
3.633123e+01	-9.695146e+00
3.654108e+01	-9.740209e+00
3.675214e+01	-9.785404e+00
3.696442e+01	-9.829639e+00
3.717792e+01	-9.874748e+00
3.739266e+01	-9.919630e+00
3.760864e+01	-9.964449e+00
3.782587e+01	-1.000984e+01
3.804435e+01	-1.005503e+01
3.826409e+01	-1.010013e+01
3.848510e+01	-1.014506e+01
3.870739e+01	-1.019006e+01
3.893096e+01	-1.023542e+01
3.915583e+01	-1.028019e+01
3.938199e+01	-1.032601e+01
3.960946e+01	-1.037191e+01
3.983824e+01	-1.041679e+01
4.006834e+01	-1.046223e+01
4.029978e+01	-1.050727e+01
4.053255e+01	-1.055381e+01
4.076666e+01	-1.059921e+01
4.100213e+01	-1.064512e+01
4.123896e+01	-1.069057e+01
4.147715e+01	-1.073683e+01
4.171672e+01	-1.078158e+01
4.195767e+01	-1.082795e+01
4.220002e+01	-1.087453e+01
4.244377e+01	-1.092003e+01
4.268892e+01	-1.096556e+01
4.293549e+01	-1.101145e+01
4.318348e+01	-1.105784e+01
4.343291e+01	-1.110447e+01
4.368377e+01	-1.115029e+01
4.393609e+01	-1.119751e+01
4.418986e+01	-1.124300e+01
4.444510e+01	-1.128952e+01
4.470182e+01	-1.133621e+01
4.496001e+01	-1.138173e+01
4.521970e+01	-1.142844e+01
4.548089e+01	-1.147495e+01
4.574358e+01	-1.152041e+01
4.600779e+01	-1.156785e+01
4.627353e+01	-1.161462e+01
4.654081e+01	-1.166113e+01
4.680963e+01	-1.170768e+01
4.708000e+01	-1.175494e+01
4.735193e+01	-1.180064e+01
4.762543e+01	-1.184774e+01
4.790051e+01	-1.189470e+01
4.817719e+01	-1.194101e+01
4.845545e+01	-1.198767e+01
4.873533e+01	-1.203456e+01
4.901682e+01	-1.208203e+01
4.929994e+01	-1.212859e+01
4.958470e+01	-1.217638e+01
4.987110e+01	-1.222212e+01
5.015915e+01	-1.227064e+01
5.044887e+01	-1.231662e+01
5.074026e+01	-1.236418e+01
5.103333e+01	-1.241038e+01
5.132810e+01	-1.245849e+01
5.162457e+01	-1.250591e+01
5.192275e+01	-1.255325e+01
5.222265e+01	-1.259993e+01
5.252429e+01	-1.264766e+01
5.282767e+01	-1.269435e+01
5.313280e+01	-1.274194e+01
5.343969e+01	-1.278903e+01
5.374836e+01	-1.283704e+01
5.405880e+01	-1.288385e+01
5.437105e+01	-1.293197e+01
5.468509e+01	-1.297957e+01
5.500095e+01	-1.302661e+01
5.531863e+01	-1.307485e+01
5.563815e+01	-1.312183e+01
5.595951e+01	-1.317020e+01
5.628273e+01	-1.321679e+01
5.660782e+01	-1.326477e+01
5.693479e+01	-1.331257e+01
5.726364e+01	-1.335980e+01
5.759439e+01	-1.340859e+01
5.792705e+01	-1.345620e+01
5.826164e+01	-1.350344e+01
5.859815e+01	-1.355157e+01
5.893662e+01	-1.359841e+01
5.927703e+01	-1.364598e+01
5.961941e+01	-1.369486e+01
5.996377e+01	-1.374293e+01
6.031012e+01	-1.379094e+01
6.065847e+01	-1.383794e+01
6.100883e+01	-1.388615e+01
6.136121e+01	-1.393444e+01
6.171563e+01	-1.398278e+01
6.207210e+01	-1.403000e+01
6.243063e+01	-1.407832e+01
6.279122e+01	-1.412670e+01
6.315390e+01	-1.417555e+01
6.351868e+01	-1.422361e+01
6.388556e+01	-1.427115e+01
6.425456e+01	-1.431892e+01
6.462569e+01	-1.436766e+01
6.499897e+01	-1.441585e+01
6.537440e+01	-1.446376e+01
6.575200e+01	-1.451255e+01
6.613178e+01	-1.456096e+01
6.651375e+01	-1.460864e+01
6.689793e+01	-1.465652e+01
6.728433e+01	-1.470465e+01
6.767297e+01	-1.475379e+01
6.806384e+01	-1.480246e+01
6.845698e+01	-1.485040e+01
6.885238e+01	-1.489844e+01
6.925007e+01	-1.494783e+01
6.965005e+01	-1.499643e+01
7.005235e+01	-1.504453e+01
7.045697e+01	-1.509261e+01
7.086393e+01	-1.514038e+01
7.127323e+01	-1.518897e+01
7.168490e+01	-1.523862e+01
7.209895e+01	-1.528668e+01
7.251539e+01	-1.533521e+01
7.293424e+01	-1.538407e+01
7.335551e+01	-1.543238e+01
7.377920e+01	-1.548111e+01
7.420535e+01	-1.553006e+01
7.463396e+01	-1.557804e+01
7.506504e+01	-1.562753e+01
7.549861e+01	-1.567580e+01
7.593469e+01	-1.572475e+01
7.637328e+01	-1.577304e+01
7.681441e+01	-1.582217e+01
7.725809e+01	-1.587161e+01
7.770433e+01	-1.591922e+01
7.815315e+01	-1.596867e+01
7.860456e+01	-1.601761e+01
7.905857e+01	-1.606508e+01
7.951521e+01	-1.611284e+01
7.997449e+01	-1.616367e+01
8.043642e+01	-1.621113e+01
8.090102e+01	-1.626064e+01
8.136830e+01	-1.630917e+01
8.183828e+01	-1.635905e+01
8.231097e+01	-1.640814e+01
8.278640e+01	-1.645637e+01
8.326457e+01	-1.650449e+01
8.374550e+01	-1.655416e+01
8.422921e+01	-1.660284e+01
8.471572e+01	-1.665283e+01
8.520503e+01	-1.670065e+01
8.569717e+01	-1.674933e+01
8.619215e+01	-1.679916e+01
8.669000e+01	-1.684834e+01
8.719071e+01	-1.689721e+01
8.769432e+01	-1.694655e+01
8.820084e+01	-1.699533e+01
8.871029e+01	-1.704440e+01
8.922267e+01	-1.709310e+01
8.973802e+01	-1.714055e+01
9.025634e+01	-1.719052e+01
9.077766e+01	-1.724109e+01
9.130199e+01	-1.728865e+01
9.182935e+01	-1.733781e+01
9.235975e+01	-1.738731e+01
9.289321e+01	-1.743550e+01
9.342976e+01	-1.748650e+01
9.396941e+01	-1.753360e+01
9.451217e+01	-1.758506e+01
9.505807e+01	-1.763383e+01
9.560712e+01	-1.768370e+01
9.615934e+01	-1.773130e+01
9.671476e+01	-1.778102e+01
9.727338e+01	-1.783016e+01
9.783522e+01	-1.787815e+01
9.840032e+01	-1.792814e+01
9.896867e+01	-1.797639e+01
9.954031e+01	-1.802557e+01
1.001153e+02	-1.807706e+01
1.006935e+02	-1.812422e+01
1.012751e+02	-1.817549e+01
1.018601e+02	-1.822366e+01
1.024484e+02	-1.827280e+01
1.030402e+02	-1.832138e+01
1.036353e+02	-1.837300e+01
1.042339e+02	-1.842094e+01
1.048360e+02	-1.847080e+01
1.054415e+02	-1.852014e+01
1.060505e+02	-1.856881e+01
1.066631e+02	-1.861771e+01
1.072791e+02	-1.866838e+01
1.078988e+02	-1.871737e+01
1.085220e+02	-1.876713e+01
1.091488e+02	-1.881612e+01
1.097793e+02	-1.886541e+01
1.104133e+02	-1.891541e+01
1.110511e+02	-1.896194e+01
1.116925e+02	-1.901397e+01
1.123376e+02	-1.906338e+01
1.129865e+02	-1.911267e+01
1.136391e+02	-1.916284e+01
1.142955e+02	-1.921095e+01
1.149556e+02	-1.926023e+01
1.156196e+02	-1.930829e+01
1.162874e+02	-1.935809e+01
1.169591e+02	-1.940842e+01
1.176347e+02	-1.945793e+01
1.183141e+02	-1.950875e+01
1.189975e+02	-1.955778e+01
1.196848e+02	-1.960771e+01
1.203761e+02	-1.965450e+01
1.210714e+02	-1.970719e+01
1.217707e+02	-1.975656e+01
1.224740e+02	-1.980461e+01
1.231814e+02	-1.985241e+01
1.238929e+02	-1.990347e+01
1.246085e+02	-1.995335e+01
1.253283e+02	-2.000279e+01
1.260522e+02	-2.005303e+01
1.267802e+02	-2.010411e+01
1.275125e+02	-2.015229e+01
1.282490e+02	-2.020098e+01
1.289898e+02	-2.025124e+01
1.297348e+02	-2.030060e+01
1.304842e+02	-2.034891e+01
1.312378e+02	-2.040013e+01
1.319959e+02	-2.044909e+01
1.327583e+02	-2.050023e+01
1.335251e+02	-2.054970e+01
1.342963e+02	-2.059751e+01
1.350720e+02	-2.064588e+01
1.358522e+02	-2.069749e+01
1.366368e+02	-2.074584e+01
1.374260e+02	-2.079552e+01
1.382198e+02	-2.084597e+01
1.390182e+02	-2.089564e+01
1.398211e+02	-2.094486e+01
1.406287e+02	-2.099313e+01
1.414410e+02	-2.104597e+01
1.422579e+02	-2.109337e+01
1.430796e+02	-2.114351e+01
1.439060e+02	-2.119256e+01
1.447372e+02	-2.124487e+01
1.455732e+02	-2.129300e+01
1.464141e+02	-2.134176e+01
1.472597e+02	-2.139133e+01
1.481103e+02	-2.144300e+01
1.489658e+02	-2.149108e+01
1.498262e+02	-2.154320e+01
1.506916e+02	-2.159156e+01
1.515620e+02	-2.164174e+01
1.524374e+02	-2.168783e+01
1.533179e+02	-2.173831e+01
1.542034e+02	-2.179266e+01
1.550941e+02	-2.184237e+01
1.559899e+02	-2.189002e+01
1.568909e+02	-2.193843e+01
1.577971e+02	-2.198764e+01
1.587085e+02	-2.204133e+01
1.596252e+02	-2.208690e+01
1.605472e+02	-2.213975e+01
1.614745e+02	-2.218770e+01
1.624072e+02	-2.223789e+01
1.633453e+02	-2.228725e+01
1.642887e+02	-2.233821e+01
1.652377e+02	-2.238667e+01
1.661921e+02	-2.243552e+01
1.671520e+02	-2.248695e+01
1.681175e+02	-2.253522e+01
1.690885e+02	-2.258455e+01
1.700651e+02	-2.263546e+01
1.710474e+02	-2.268468e+01
1.720354e+02	-2.273619e+01
1.730291e+02	-2.278424e+01
1.740285e+02	-2.283258e+01
1.750337e+02	-2.288342e+01
1.760446e+02	-2.293400e+01
1.770615e+02	-2.298301e+01
1.780842e+02	-2.303395e+01
1.791128e+02	-2.308349e+01
1.801473e+02	-2.313319e+01
1.811878e+02	-2.318450e+01
1.822344e+02	-2.323345e+01
1.832870e+02	-2.328570e+01
1.843456e+02	-2.333275e+01
1.854104e+02	-2.337856e+01
1.864813e+02	-2.343297e+01
1.875584e+02	-2.348286e+01
1.886418e+02	-2.353097e+01
1.897313e+02	-2.358098e+01
1.908272e+02	-2.363094e+01
1.919294e+02	-2.368203e+01
1.930380e+02	-2.373223e+01
1.941530e+02	-2.378226e+01
1.952744e+02	-2.383153e+01
1.964023e+02	-2.387938e+01
1.975367e+02	-2.393052e+01
1.986777e+02	-2.398119e+01
1.998252e+02	-2.403053e+01
2.009794e+02	-2.407864e+01
2.021403e+02	-2.412941e+01
2.033078e+02	-2.417970e+01
2.044821e+02	-2.422996e+01
2.056632e+02	-2.427922e+01
2.068511e+02	-2.432806e+01
2.080459e+02	-2.437754e+01
2.092475e+02	-2.442846e+01
2.104561e+02	-2.447689e+01
2.116717e+02	-2.452813e+01
2.128943e+02	-2.457987e+01
2.141240e+02	-2.463038e+01
2.153608e+02	-2.467838e+01
2.166047e+02	-2.472807e+01
2.178558e+02	-2.477527e+01
2.191141e+02	-2.483080e+01
2.203797e+02	-2.487833e+01
2.216526e+02	-2.492999e+01
2.229329e+02	-2.497821e+01
2.242205e+02	-2.502601e+01
2.255156e+02	-2.507680e+01
2.268182e+02	-2.513071e+01
2.281283e+02	-2.517900e+01
2.294459e+02	-2.522639e+01
2.307712e+02	-2.527534e+01
2.321041e+02	-2.532883e+01
2.334447e+02	-2.537515e+01
2.347931e+02	-2.542350e+01
2.361493e+02	-2.547699e+01
2.375133e+02	-2.552727e+01
2.388851e+02	-2.557389e+01
2.402649e+02	-2.562563e+01
2.416527e+02	-2.567951e+01
2.430484e+02	-2.572493e+01
2.444523e+02	-2.577812e+01
2.458642e+02	-2.582748e+01
2.472843e+02	-2.588113e+01
2.487126e+02	-2.592436e+01
2.501492e+02	-2.597337e+01
2.515940e+02	-2.602584e+01
2.530472e+02	-2.607746e+01
2.545088e+02	-2.612335e+01
2.559789e+02	-2.617781e+01
2.574574e+02	-2.622701e+01
2.589444e+02	-2.627928e+01
2.604401e+02	-2.632735e+01
2.619444e+02	-2.637481e+01
2.634574e+02	-2.642500e+01
2.649791e+02	-2.647654e+01
2.665096e+02	-2.652602e+01
2.680489e+02	-2.657814e+01
2.695972e+02	-2.662872e+01
2.711544e+02	-2.667782e+01
2.727205e+02	-2.672991e+01
2.742958e+02	-2.677446e+01
2.758801e+02	-2.682550e+01
2.774736e+02	-2.687642e+01
2.790762e+02	-2.692419e+01
2.806882e+02	-2.697902e+01
2.823094e+02	-2.702787e+01
2.839400e+02	-2.707568e+01
2.855800e+02	-2.712783e+01
2.872295e+02	-2.717750e+01
2.888886e+02	-2.722747e+01
2.905572e+02	-2.727420e+01
2.922354e+02	-2.732203e+01
2.939234e+02	-2.737657e+01
2.956211e+02	-2.742114e+01
2.973286e+02	-2.747532e+01
2.990459e+02	-2.752785e+01
3.007732e+02	-2.757743e+01
3.025104e+02	-2.762563e+01
3.042577e+02	-2.767097e+01
3.060151e+02	-2.772214e+01
3.077826e+02	-2.777654e+01
3.095604e+02	-2.782253e+01
3.113484e+02	-2.787884e+01
3.131467e+02	-2.792855e+01
3.149554e+02	-2.797816e+01
3.167746e+02	-2.802509e+01
3.186043e+02	-2.807876e+01
3.204445e+02	-2.812650e+01
3.222954e+02	-2.817504e+01
3.241570e+02	-2.821915e+01
3.260293e+02	-2.827967e+01
3.279124e+02	-2.832462e+01
3.298064e+02	-2.837848e+01
3.317114e+02	-2.842631e+01
3.336273e+02	-2.847647e+01
3.355544e+02	-2.852873e+01
3.374925e+02	-2.857596e+01
3.394418e+02	-2.862695e+01
3.414024e+02	-2.867496e+01
3.433744e+02	-2.872411e+01
3.453577e+02	-2.878019e+01
3.473525e+02	-2.882953e+01
3.493588e+02	-2.887965e+01
3.513766e+02	-2.892651e+01
3.534062e+02	-2.898165e+01
3.554474e+02	-2.902460e+01
3.575005e+02	-2.908226e+01
3.595654e+02	-2.912517e+01
3.616422e+02	-2.917849e+01
3.637311e+02	-2.922957e+01
3.658320e+02	-2.928197e+01
3.679450e+02	-2.932987e+01
3.700702e+02	-2.937778e+01
3.722077e+02	-2.942551e+01
3.743576e+02	-2.948040e+01
3.765199e+02	-2.953273e+01
3.786946e+02	-2.958214e+01
3.808820e+02	-2.962926e+01
3.830819e+02	-2.967691e+01
3.852946e+02	-2.972995e+01
3.875200e+02	-2.977775e+01
3.897583e+02	-2.982564e+01
3.920096e+02	-2.987484e+01
3.942738e+02	-2.992776e+01
3.965511e+02	-2.997802e+01
3.988416e+02	-3.002924e+01
4.011452e+02	-3.007797e+01
4.034622e+02	-3.012695e+01
4.057926e+02	-3.018077e+01
4.081365e+02	-3.023004e+01
4.104938e+02	-3.027847e+01
4.128648e+02	-3.033280e+01
4.152495e+02	-3.038169e+01
4.176480e+02	-3.042561e+01
4.200603e+02	-3.047418e+01
4.224866e+02	-3.052669e+01
4.249268e+02	-3.058313e+01
4.273812e+02	-3.063063e+01
4.298497e+02	-3.068171e+01
4.323325e+02	-3.072852e+01
4.348297e+02	-3.077786e+01
4.373412e+02	-3.083453e+01
4.398673e+02	-3.088550e+01
4.424079e+02	-3.092903e+01
4.449633e+02	-3.098627e+01
4.475334e+02	-3.102882e+01
4.501183e+02	-3.108882e+01
4.527182e+02	-3.113959e+01
4.553330e+02	-3.118553e+01
4.579630e+02	-3.123092e+01
4.606082e+02	-3.128316e+01
4.632687e+02	-3.133137e+01
4.659445e+02	-3.137859e+01
4.686358e+02	-3.142834e+01
4.713426e+02	-3.148049e+01
4.740650e+02	-3.152805e+01
4.768032e+02	-3.158203e+01
4.795572e+02	-3.163337e+01
4.823271e+02	-3.168768e+01
4.851130e+02	-3.172480e+01
4.879150e+02	-3.178082e+01
4.907332e+02	-3.183752e+01
4.935676e+02	-3.188770e+01
4.964185e+02	-3.193387e+01
4.992858e+02	-3.199075e+01
5.021696e+02	-3.203218e+01
5.050701e+02	-3.208103e+01
5.079874e+02	-3.213247e+01
5.109215e+02	-3.218427e+01
5.138726e+02	-3.223787e+01
5.168407e+02	-3.228122e+01
5.198259e+02	-3.234143e+01
5.228284e+02	-3.238445e+01
5.258482e+02	-3.244502e+01
5.288855e+02	-3.249069e+01
5.319403e+02	-3.254067e+01
5.350128e+02	-3.258691e+01
5.381030e+02	-3.263948e+01
5.412111e+02	-3.268708e+01
5.443371e+02	-3.273917e+01
5.474812e+02	-3.278534e+01
5.506434e+02	-3.284229e+01
5.538239e+02	-3.289420e+01
5.570228e+02	-3.294174e+01
5.602401e+02	-3.299311e+01
5.634760e+02	-3.304524e+01
5.667306e+02	-3.308451e+01
5.700040e+02	-3.313820e+01
5.732964e+02	-3.319841e+01
5.766077e+02	-3.324501e+01
5.799382e+02	-3.328659e+01
5.832879e+02	-3.334336e+01
5.866569e+02	-3.339348e+01
5.900454e+02	-3.344129e+01
5.934535e+02	-3.348928e+01
5.968813e+02	-3.355064e+01
6.003288e+02	-3.359274e+01
6.037963e+02	-3.364420e+01
6.072838e+02	-3.369705e+01
6.107914e+02	-3.374623e+01
6.143194e+02	-3.380307e+01
6.178676e+02	-3.384442e+01
6.214364e+02	-3.389485e+01
6.250258e+02	-3.395183e+01
6.286359e+02	-3.399072e+01
6.322669e+02	-3.404561e+01
6.359189e+02	-3.409487e+01
6.395919e+02	-3.414908e+01
6.432862e+02	-3.419361e+01
6.470017e+02	-3.423392e+01
6.507388e+02	-3.430622e+01
6.544974e+02	-3.435012e+01
6.582778e+02	-3.440444e+01
6.620800e+02	-3.445255e+01
6.659041e+02	-3.449750e+01
6.697504e+02	-3.455026e+01
6.736188e+02	-3.460423e+01
6.775096e+02	-3.465780e+01
6.814229e+02	-3.469971e+01
6.853587e+02	-3.474428e+01
6.893173e+02	-3.480988e+01
6.932988e+02	-3.485519e+01
6.973033e+02	-3.491005e+01
7.013309e+02	-3.495063e+01
