Frequency(Hz)	Magnitude(dB)
1.000000e+01	-2.274545e+00
1.005776e+01	-2.295508e+00
1.011585e+01	-2.315742e+00
1.017428e+01	-2.336822e+00
1.023305e+01	-2.357641e+00
1.029215e+01	-2.378747e+00
1.035160e+01	-2.399798e+00
1.041139e+01	-2.421360e+00
1.047153e+01	-2.442648e+00
1.053201e+01	-2.464032e+00
1.059284e+01	-2.485805e+00
1.065403e+01	-2.507623e+00
1.071556e+01	-2.529679e+00
1.077746e+01	-2.552102e+00
1.083971e+01	-2.574058e+00
1.090232e+01	-2.596678e+00
1.096529e+01	-2.619285e+00
1.102862e+01	-2.641965e+00
1.109232e+01	-2.664778e+00
1.115639e+01	-2.687852e+00
1.122083e+01	-2.710965e+00
1.128564e+01	-2.734248e+00
1.135083e+01	-2.757752e+00
1.141639e+01	-2.781289e+00
1.148233e+01	-2.804784e+00
1.154865e+01	-2.828896e+00
1.161536e+01	-2.853046e+00
1.168245e+01	-2.876800e+00
1.174992e+01	-2.901230e+00
1.181779e+01	-2.925770e+00
1.188605e+01	-2.950344e+00
1.195470e+01	-2.975154e+00
1.202375e+01	-2.999953e+00
1.209320e+01	-3.025064e+00
1.216305e+01	-3.050383e+00
1.223330e+01	-3.075494e+00
1.230396e+01	-3.100746e+00
1.237503e+01	-3.126679e+00
1.244651e+01	-3.152522e+00
1.251840e+01	-3.178230e+00
1.259070e+01	-3.204252e+00
1.266343e+01	-3.230574e+00
1.273657e+01	-3.256888e+00
1.281014e+01	-3.283421e+00
1.288413e+01	-3.309708e+00
1.295855e+01	-3.336531e+00
1.303339e+01	-3.363469e+00
1.310867e+01	-3.390599e+00
1.318439e+01	-3.417859e+00
1.326054e+01	-3.445058e+00
1.333713e+01	-3.472519e+00
1.341417e+01	-3.500254e+00
1.349165e+01	-3.527549e+00
1.356958e+01	-3.555864e+00
1.364795e+01	-3.583999e+00
1.372678e+01	-3.611932e+00
1.380607e+01	-3.640337e+00
1.388581e+01	-3.668674e+00
1.396602e+01	-3.697196e+00
1.404668e+01	-3.726085e+00
1.412782e+01	-3.754895e+00
1.420942e+01	-3.783960e+00
1.429149e+01	-3.812980e+00
1.437404e+01	-3.842556e+00
1.445706e+01	-3.871742e+00
1.454057e+01	-3.901751e+00
1.462455e+01	-3.931201e+00
1.470902e+01	-3.961015e+00
1.479398e+01	-3.990994e+00
1.487943e+01	-4.021317e+00
1.496537e+01	-4.051655e+00
1.505181e+01	-4.081959e+00
1.513875e+01	-4.112420e+00
1.522619e+01	-4.143202e+00
1.531414e+01	-4.173915e+00
1.540259e+01	-4.205082e+00
1.549156e+01	-4.236078e+00
1.558103e+01	-4.267211e+00
1.567103e+01	-4.298363e+00
1.576155e+01	-4.330203e+00
1.585258e+01	-4.361699e+00
1.594415e+01	-4.393559e+00
1.603624e+01	-4.425380e+00
1.612886e+01	-4.457665e+00
1.622202e+01	-4.489880e+00
1.631572e+01	-4.521882e+00
1.640996e+01	-4.554455e+00
1.650474e+01	-4.586812e+00
1.660008e+01	-4.619274e+00
1.669596e+01	-4.652618e+00
1.679239e+01	-4.685367e+00
1.688938e+01	-4.718457e+00
1.698694e+01	-4.751561e+00
1.708505e+01	-4.785081e+00
1.718373e+01	-4.818515e+00
1.728299e+01	-4.852117e+00
1.738281e+01	-4.885855e+00
1.748322e+01	-4.919730e+00
1.758420e+01	-4.953518e+00
1.768576e+01	-4.987651e+00
1.778792e+01	-5.022068e+00
1.789066e+01	-5.056365e+00
1.799399e+01	-5.090640e+00
1.809793e+01	-5.125340e+00
1.820246e+01	-5.160145e+00
1.830760e+01	-5.195038e+00
1.841334e+01	-5.229823e+00
1.851969e+01	-5.265113e+00
1.862666e+01	-5.300272e+00
1.873425e+01	-5.335692e+00
1.884246e+01	-5.370885e+00
1.895129e+01	-5.406490e+00
1.906075e+01	-5.442169e+00
1.917085e+01	-5.477923e+00
1.928158e+01	-5.513978e+00
1.939295e+01	-5.549707e+00
1.950496e+01	-5.586239e+00
1.961762e+01	-5.622355e+00
1.973093e+01	-5.658537e+00
1.984490e+01	-5.695081e+00
1.995952e+01	-5.731861e+00
2.007480e+01	-5.768766e+00
2.019076e+01	-5.805376e+00
2.030738e+01	-5.842161e+00
2.042467e+01	-5.879600e+00
2.054264e+01	-5.916214e+00
2.066130e+01	-5.953914e+00
2.078064e+01	-5.991209e+00
2.090066e+01	-6.028389e+00
2.102139e+01	-6.066307e+00
2.114280e+01	-6.103954e+00
2.126492e+01	-6.141769e+00
2.138775e+01	-6.179610e+00
2.151128e+01	-6.217574e+00
2.163553e+01	-6.255404e+00
2.176050e+01	-6.294342e+00
2.188619e+01	-6.332349e+00
2.201260e+01	-6.370787e+00
2.213974e+01	-6.409022e+00
2.226762e+01	-6.448134e+00
2.239624e+01	-6.486880e+00
2.252560e+01	-6.525409e+00
2.265571e+01	-6.564333e+00
2.278656e+01	-6.603292e+00
2.291818e+01	-6.642299e+00
2.305055e+01	-6.681966e+00
2.318369e+01	-6.721430e+00
2.331760e+01	-6.760932e+00
2.345228e+01	-6.800280e+00
2.358774e+01	-6.839504e+00
2.372398e+01	-6.879340e+00
2.386101e+01	-6.919219e+00
2.399883e+01	-6.959376e+00
2.413745e+01	-6.999323e+00
2.427686e+01	-7.039120e+00
2.441709e+01	-7.079549e+00
2.455812e+01	-7.119807e+00
2.469997e+01	-7.160025e+00
2.484263e+01	-7.201025e+00
2.498612e+01	-7.241408e+00
2.513044e+01	-7.281639e+00
2.527559e+01	-7.322484e+00
2.542158e+01	-7.363155e+00
2.556842e+01	-7.403787e+00
2.571610e+01	-7.445123e+00
2.586463e+01	-7.486211e+00
2.601403e+01	-7.527048e+00
2.616428e+01	-7.567948e+00
2.631541e+01	-7.609795e+00
2.646740e+01	-7.651253e+00
2.662028e+01	-7.693140e+00
2.677404e+01	-7.734345e+00
2.692868e+01	-7.776150e+00
2.708422e+01	-7.817260e+00
2.724066e+01	-7.859405e+00
2.739800e+01	-7.901372e+00
2.755625e+01	-7.943057e+00
2.771541e+01	-7.985412e+00
2.787550e+01	-8.027482e+00
2.803650e+01	-8.069425e+00
2.819844e+01	-8.111963e+00
2.836131e+01	-8.154254e+00
2.852513e+01	-8.196598e+00
2.868989e+01	-8.238951e+00
2.885560e+01	-8.281026e+00
2.902227e+01	-8.324296e+00
2.918990e+01	-8.366672e+00
2.935850e+01	-8.410097e+00
2.952807e+01	-8.452664e+00
2.969863e+01	-8.495333e+00
2.987016e+01	-8.538872e+00
3.004269e+01	-8.581734e+00
3.021622e+01	-8.625088e+00
3.039075e+01	-8.667714e+00
3.056628e+01	-8.711350e+00
3.074283e+01	-8.754236e+00
3.092040e+01	-8.797241e+00
3.109900e+01	-8.841013e+00
3.127862e+01	-8.884697e+00
3.145929e+01	-8.928719e+00
3.164099e+01	-8.971972e+00
3.182375e+01	-9.016572e+00
3.200756e+01	-9.059390e+00
3.219244e+01	-9.103644e+00
3.237838e+01	-9.147431e+00
3.256540e+01	-9.191244e+00
3.275349e+01	-9.235654e+00
3.294268e+01	-9.279311e+00
3.313295e+01	-9.323654e+00
3.332433e+01	-9.367887e+00
3.351681e+01	-9.412180e+00
3.371040e+01	-9.456415e+00
3.390511e+01	-9.500828e+00
3.410094e+01	-9.545533e+00
3.429791e+01	-9.589661e+00
3.449601e+01	-9.634348e+00
3.469526e+01	-9.678695e+00
3.489566e+01	-9.723334e+00
3.509721e+01	-9.768380e+00
3.529993e+01	-9.812881e+00
3.550382e+01	-9.857851e+00
3.570889e+01	-9.902606e+00
3.591515e+01	-9.947457e+00
3.612259e+01	-9.992689e+00
3.633123e+01	-1.003767e+01
3.654108e+01	-1.008299e+01
3.675214e+01	-1.012798e+01
3.696442e+01	-1.017351e+01
3.717792e+01	-1.021835e+01
3.739266e+01	-1.026347e+01
3.760864e+01	-1.030913e+01
3.782587e+01	-1.035404e+01
3.804435e+01	-1.039982e+01
3.826409e+01	-1.044582e+01
3.848510e+01	-1.049000e+01
3.870739e+01	-1.053663e+01
3.893096e+01	-1.058184e+01
3.915583e+01	-1.062777e+01
3.938199e+01	-1.067407e+01
3.960946e+01	-1.071953e+01
3.983824e+01	-1.076433e+01
4.006834e+01	-1.081106e+01
4.029978e+01	-1.085656e+01
4.053255e+01	-1.090320e+01
4.076666e+01	-1.094894e+01
4.100213e+01	-1.099484e+01
4.123896e+01	-1.104054e+01
4.147715e+01	-1.108701e+01
4.171672e+01	-1.113294e+01
4.195767e+01	-1.117883e+01
4.220002e+01	-1.122492e+01
4.244377e+01	-1.127197e+01
4.268892e+01	-1.131766e+01
4.293549e+01	-1.136496e+01
4.318348e+01	-1.141126e+01
4.343291e+01	-1.145732e+01
4.368377e+01	-1.150356e+01
4.393609e+01	-1.155008e+01
4.418986e+01	-1.159690e+01
4.444510e+01	-1.164345e+01
4.470182e+01	-1.168957e+01
4.496001e+01	-1.173667e+01
4.521970e+01	-1.178330e+01
4.548089e+01	-1.183009e+01
4.574358e+01	-1.187696e+01
4.600779e+01	-1.192348e+01
4.627353e+01	-1.197040e+01
4.654081e+01	-1.201797e+01
4.680963e+01	-1.206422e+01
4.708000e+01	-1.211076e+01
4.735193e+01	-1.215811e+01
4.762543e+01	-1.220498e+01
4.790051e+01	-1.225266e+01
4.817719e+01	-1.229888e+01
4.845545e+01	-1.234664e+01
4.873533e+01	-1.239354e+01
4.901682e+01	-1.244032e+01
4.929994e+01	-1.248838e+01
4.958470e+01	-1.253457e+01
4.987110e+01	-1.258263e+01
5.015915e+01	-1.262982e+01
5.044887e+01	-1.267738e+01
5.074026e+01	-1.272440e+01
5.103333e+01	-1.277044e+01
5.132810e+01	-1.281899e+01
5.162457e+01	-1.286638e+01
5.192275e+01	-1.291370e+01
5.222265e+01	-1.296126e+01
5.252429e+01	-1.300936e+01
5.282767e+01	-1.305622e+01
5.313280e+01	-1.310427e+01
5.343969e+01	-1.315211e+01
5.374836e+01	-1.319877e+01
5.405880e+01	-1.324644e+01
5.437105e+01	-1.329483e+01
5.468509e+01	-1.334242e+01
5.500095e+01	-1.339064e+01
5.531863e+01	-1.343823e+01
5.563815e+01	-1.348590e+01
5.595951e+01	-1.353419e+01
5.628273e+01	-1.358167e+01
5.660782e+01	-1.362926e+01
5.693479e+01	-1.367648e+01
5.726364e+01	-1.372456e+01
5.759439e+01	-1.377261e+01
5.792705e+01	-1.382076e+01
5.826164e+01	-1.386810e+01
5.859815e+01	-1.391664e+01
5.893662e+01	-1.396463e+01
5.927703e+01	-1.401249e+01
5.961941e+01	-1.406019e+01
5.996377e+01	-1.410881e+01
6.031012e+01	-1.415710e+01
6.065847e+01	-1.420490e+01
6.100883e+01	-1.425263e+01
6.136121e+01	-1.430113e+01
6.171563e+01	-1.434878e+01
6.207210e+01	-1.439893e+01
6.243063e+01	-1.444531e+01
6.279122e+01	-1.449405e+01
6.315390e+01	-1.454243e+01
6.351868e+01	-1.459113e+01
6.388556e+01	-1.463813e+01
6.425456e+01	-1.468666e+01
6.462569e+01	-1.473527e+01
6.499897e+01	-1.478450e+01
6.537440e+01	-1.483215e+01
6.575200e+01	-1.488072e+01
6.613178e+01	-1.492912e+01
6.651375e+01	-1.497703e+01
6.689793e+01	-1.502593e+01
6.728433e+01	-1.507375e+01
6.767297e+01	-1.512177e+01
6.806384e+01	-1.517192e+01
6.845698e+01	-1.522023e+01
6.885238e+01	-1.526886e+01
6.925007e+01	-1.531763e+01
6.965005e+01	-1.536601e+01
7.005235e+01	-1.541453e+01
7.045697e+01	-1.546241e+01
7.086393e+01	-1.551123e+01
7.127323e+01	-1.556081e+01
7.168490e+01	-1.560786e+01
7.209895e+01	-1.565668e+01
7.251539e+01	-1.570584e+01
7.293424e+01	-1.575553e+01
7.335551e+01	-1.580331e+01
7.377920e+01	-1.585261e+01
7.420535e+01	-1.590099e+01
7.463396e+01	-1.594938e+01
7.506504e+01	-1.599802e+01
7.549861e+01	-1.604734e+01
7.593469e+01	-1.609553e+01
7.637328e+01	-1.614475e+01
7.681441e+01	-1.619386e+01
7.725809e+01	-1.624095e+01
7.770433e+01	-1.629102e+01
7.815315e+01	-1.633971e+01
7.860456e+01	-1.639001e+01
7.905857e+01	-1.643693e+01
7.951521e+01	-1.648675e+01
7.997449e+01	-1.653620e+01
8.043642e+01	-1.658441e+01
8.090102e+01	-1.663415e+01
8.136830e+01	-1.668322e+01
8.183828e+01	-1.673115e+01
8.231097e+01	-1.678054e+01
8.278640e+01	-1.682989e+01
8.326457e+01	-1.687806e+01
8.374550e+01	-1.692696e+01
8.422921e+01	-1.697692e+01
8.471572e+01	-1.702595e+01
8.520503e+01	-1.707496e+01
8.569717e+01	-1.712369e+01
8.619215e+01	-1.717221e+01
8.669000e+01	-1.722170e+01
8.719071e+01	-1.727030e+01
8.769432e+01	-1.731957e+01
8.820084e+01	-1.736953e+01
8.871029e+01	-1.741799e+01
8.922267e+01	-1.746734e+01
8.973802e+01	-1.751630e+01
9.025634e+01	-1.756551e+01
9.077766e+01	-1.761408e+01
9.130199e+01	-1.766353e+01
9.182935e+01	-1.771311e+01
9.235975e+01	-1.776237e+01
9.289321e+01	-1.781138e+01
9.342976e+01	-1.786166e+01
9.396941e+01	-1.790955e+01
9.451217e+01	-1.795901e+01
9.505807e+01	-1.800805e+01
9.560712e+01	-1.805762e+01
9.615934e+01	-1.810654e+01
9.671476e+01	-1.815715e+01
9.727338e+01	-1.820462e+01
9.783522e+01	-1.825578e+01
9.840032e+01	-1.830349e+01
9.896867e+01	-1.835305e+01
9.954031e+01	-1.840305e+01
1.001153e+02	-1.845198e+01
1.006935e+02	-1.850155e+01
1.012751e+02	-1.855087e+01
1.018601e+02	-1.860019e+01
1.024484e+02	-1.864850e+01
1.030402e+02	-1.869891e+01
1.036353e+02	-1.874834e+01
1.042339e+02	-1.879810e+01
1.048360e+02	-1.884596e+01
1.054415e+02	-1.889607e+01
1.060505e+02	-1.894542e+01
1.066631e+02	-1.899447e+01
1.072791e+02	-1.904550e+01
1.078988e+02	-1.909354e+01
1.085220e+02	-1.914248e+01
1.091488e+02	-1.919257e+01
1.097793e+02	-1.924082e+01
1.104133e+02	-1.929139e+01
1.110511e+02	-1.934225e+01
1.116925e+02	-1.938941e+01
1.123376e+02	-1.944097e+01
1.129865e+02	-1.948981e+01
1.136391e+02	-1.953881e+01
1.142955e+02	-1.958591e+01
1.149556e+02	-1.963699e+01
1.156196e+02	-1.968708e+01
1.162874e+02	-1.973575e+01
1.169591e+02	-1.978651e+01
1.176347e+02	-1.983522e+01
1.183141e+02	-1.988580e+01
1.189975e+02	-1.993550e+01
1.196848e+02	-1.998522e+01
1.203761e+02	-2.003359e+01
1.210714e+02	-2.008214e+01
1.217707e+02	-2.013339e+01
1.224740e+02	-2.018172e+01
1.231814e+02	-2.023167e+01
1.238929e+02	-2.028154e+01
1.246085e+02	-2.033203e+01
1.253283e+02	-2.038220e+01
1.260522e+02	-2.042919e+01
1.267802e+02	-2.047984e+01
1.275125e+02	-2.053050e+01
1.282490e+02	-2.057891e+01
1.289898e+02	-2.062777e+01
1.297348e+02	-2.067860e+01
1.304842e+02	-2.072763e+01
1.312378e+02	-2.077770e+01
1.319959e+02	-2.082622e+01
1.327583e+02	-2.087714e+01
1.335251e+02	-2.092743e+01
1.342963e+02	-2.097560e+01
1.350720e+02	-2.102659e+01
1.358522e+02	-2.107399e+01
1.366368e+02	-2.112393e+01
1.374260e+02	-2.117479e+01
1.382198e+02	-2.122454e+01
1.390182e+02	-2.127504e+01
1.398211e+02	-2.132500e+01
1.406287e+02	-2.137262e+01
1.414410e+02	-2.142183e+01
1.422579e+02	-2.147249e+01
1.430796e+02	-2.152404e+01
1.439060e+02	-2.157178e+01
1.447372e+02	-2.162169e+01
1.455732e+02	-2.167183e+01
1.464141e+02	-2.172072e+01
1.472597e+02	-2.177162e+01
1.481103e+02	-2.182081e+01
1.489658e+02	-2.187267e+01
1.498262e+02	-2.192028e+01
1.506916e+02	-2.196856e+01
1.515620e+02	-2.202035e+01
1.524374e+02	-2.206997e+01
1.533179e+02	-2.211952e+01
1.542034e+02	-2.216887e+01
1.550941e+02	-2.221865e+01
1.559899e+02	-2.226858e+01
1.568909e+02	-2.231797e+01
1.577971e+02	-2.236834e+01
1.587085e+02	-2.241629e+01
1.596252e+02	-2.246902e+01
1.605472e+02	-2.251712e+01
1.614745e+02	-2.256601e+01
1.624072e+02	-2.261578e+01
1.633453e+02	-2.266627e+01
1.642887e+02	-2.271621e+01
1.652377e+02	-2.276521e+01
1.661921e+02	-2.281442e+01
1.671520e+02	-2.286513e+01
1.681175e+02	-2.291704e+01
1.690885e+02	-2.296405e+01
1.700651e+02	-2.301386e+01
1.710474e+02	-2.306452e+01
1.720354e+02	-2.311361e+01
1.730291e+02	-2.316361e+01
1.740285e+02	-2.321301e+01
1.750337e+02	-2.326290e+01
1.760446e+02	-2.331326e+01
1.770615e+02	-2.336556e+01
1.780842e+02	-2.341224e+01
1.791128e+02	-2.346565e+01
1.801473e+02	-2.351102e+01
1.811878e+02	-2.356183e+01
1.822344e+02	-2.361291e+01
1.832870e+02	-2.366321e+01
1.843456e+02	-2.371248e+01
1.854104e+02	-2.376151e+01
1.864813e+02	-2.381128e+01
1.875584e+02	-2.386315e+01
1.886418e+02	-2.391007e+01
1.897313e+02	-2.396055e+01
1.908272e+02	-2.400992e+01
1.919294e+02	-2.405977e+01
1.930380e+02	-2.411211e+01
1.941530e+02	-2.416127e+01
1.952744e+02	-2.420926e+01
1.964023e+02	-2.426322e+01
1.975367e+02	-2.431091e+01
1.986777e+02	-2.436048e+01
1.998252e+02	-2.440871e+01
2.009794e+02	-2.445814e+01
2.021403e+02	-2.451061e+01
2.033078e+02	-2.456181e+01
2.044821e+02	-2.460906e+01
2.056632e+02	-2.465853e+01
2.068511e+02	-2.471134e+01
2.080459e+02	-2.475780e+01
2.092475e+02	-2.480761e+01
2.104561e+02	-2.485950e+01
2.116717e+02	-2.491129e+01
2.128943e+02	-2.495818e+01
2.141240e+02	-2.500788e+01
2.153608e+02	-2.505761e+01
2.166047e+02	-2.511158e+01
2.178558e+02	-2.515781e+01
2.191141e+02	-2.521126e+01
2.203797e+02	-2.526099e+01
2.216526e+02	-2.530468e+01
2.229329e+02	-2.535650e+01
2.242205e+02	-2.541064e+01
2.255156e+02	-2.545804e+01
2.268182e+02	-2.550761e+01
2.281283e+02	-2.555969e+01
2.294459e+02	-2.560817e+01
2.307712e+02	-2.565885e+01
2.321041e+02	-2.570980e+01
2.334447e+02	-2.575733e+01
2.347931e+02	-2.580675e+01
2.361493e+02	-2.585884e+01
2.375133e+02	-2.591041e+01
2.388851e+02	-2.595579e+01
2.402649e+02	-2.600702e+01
2.416527e+02	-2.605506e+01
2.430484e+02	-2.610368e+01
2.444523e+02	-2.616073e+01
2.458642e+02	-2.621163e+01
2.472843e+02	-2.625506e+01
2.487126e+02	-2.630560e+01
2.501492e+02	-2.635487e+01
2.515940e+02	-2.641067e+01
2.530472e+02	-2.645586e+01
2.545088e+02	-2.650577e+01
2.559789e+02	-2.655523e+01
2.574574e+02	-2.660815e+01
2.589444e+02	-2.665934e+01
2.604401e+02	-2.670897e+01
2.619444e+02	-2.675793e+01
2.634574e+02	-2.680855e+01
2.649791e+02	-2.685736e+01
2.665096e+02	-2.690333e+01
2.680489e+02	-2.695370e+01
2.695972e+02	-2.700570e+01
2.711544e+02	-2.705414e+01
2.727205e+02	-2.710817e+01
2.742958e+02	-2.715785e+01
2.758801e+02	-2.720618e+01
2.774736e+02	-2.725804e+01
2.790762e+02	-2.730429e+01
2.806882e+02	-2.735652e+01
2.823094e+02	-2.740735e+01
2.839400e+02	-2.745793e+01
2.855800e+02	-2.750658e+01
2.872295e+02	-2.755618e+01
2.888886e+02	-2.760807e+01
2.905572e+02	-2.765215e+01
2.922354e+02	-2.770985e+01
2.939234e+02	-2.775428e+01
2.956211e+02	-2.780695e+01
2.973286e+02	-2.785586e+01
2.990459e+02	-2.790411e+01
3.007732e+02	-2.795432e+01
3.025104e+02	-2.800410e+01
3.042577e+02	-2.805688e+01
3.060151e+02	-2.810774e+01
3.077826e+02	-2.815612e+01
3.095604e+02	-2.820813e+01
3.113484e+02	-2.825823e+01
3.131467e+02	-2.830856e+01
3.149554e+02	-2.835947e+01
3.167746e+02	-2.840687e+01
3.186043e+02	-2.845388e+01
3.204445e+02	-2.850940e+01
3.222954e+02	-2.855452e+01
3.241570e+02	-2.860397e+01
3.260293e+02	-2.865546e+01
3.279124e+02	-2.870825e+01
3.298064e+02	-2.875629e+01
3.317114e+02	-2.880311e+01
3.336273e+02	-2.885850e+01
3.355544e+02	-2.890882e+01
3.374925e+02	-2.895969e+01
3.394418e+02	-2.900689e+01
3.414024e+02	-2.905724e+01
3.433744e+02	-2.911023e+01
3.453577e+02	-2.915771e+01
3.473525e+02	-2.920725e+01
3.493588e+02	-2.925241e+01
3.513766e+02	-2.930961e+01
3.534062e+02	-2.935255e+01
3.554474e+02	-2.940797e+01
3.575005e+02	-2.945546e+01
3.595654e+02	-2.951176e+01
3.616422e+02	-2.955433e+01
3.637311e+02	-2.961026e+01
3.658320e+02	-2.965815e+01
3.679450e+02	-2.970869e+01
3.700702e+02	-2.975620e+01
3.722077e+02	-2.980659e+01
3.743576e+02	-2.986077e+01
3.765199e+02	-2.991289e+01
3.786946e+02	-2.995582e+01
3.808820e+02	-3.001062e+01
3.830819e+02	-3.006151e+01
3.852946e+02	-3.010918e+01
3.875200e+02	-3.015919e+01
3.897583e+02	-3.021087e+01
3.920096e+02	-3.025562e+01
3.942738e+02	-3.030445e+01
3.965511e+02	-3.036646e+01
3.988416e+02	-3.040730e+01
4.011452e+02	-3.046023e+01
4.034622e+02	-3.050641e+01
4.057926e+02	-3.056132e+01
4.081365e+02	-3.061064e+01
4.104938e+02	-3.066301e+01
4.128648e+02	-3.070556e+01
4.152495e+02	-3.075932e+01
4.176480e+02	-3.081206e+01
4.200603e+02	-3.086242e+01
4.224866e+02	-3.091206e+01
4.249268e+02	-3.096409e+01
4.273812e+02	-3.101291e+01
4.298497e+02	-3.106111e+01
4.323325e+02	-3.111252e+01
4.348297e+02	-3.115968e+01
4.373412e+02	-3.121308e+01
4.398673e+02	-3.125851e+01
4.424079e+02	-3.131205e+01
4.449633e+02	-3.136216e+01
4.475334e+02	-3.140778e+01
4.501183e+02	-3.145745e+01
4.527182e+02	-3.151715e+01
4.553330e+02	-3.155792e+01
4.579630e+02	-3.161118e+01
4.606082e+02	-3.166302e+01
4.632687e+02	-3.170832e+01
4.659445e+02	-3.176457e+01
4.686358e+02	-3.181730e+01
4.713426e+02	-3.186600e+01
4.740650e+02	-3.191548e+01
4.768032e+02	-3.196844e+01
4.795572e+02	-3.202019e+01
4.823271e+02	-3.205856e+01
4.851130e+02	-3.211615e+01
4.879150e+02	-3.216946e+01
4.907332e+02	-3.222201e+01
4.935676e+02	-3.226439e+01
4.964185e+02	-3.232241e+01
4.992858e+02	-3.236679e+01
5.021696e+02	-3.241124e+01
5.050701e+02	-3.246416e+01
5.079874e+02	-3.251228e+01
5.109215e+02	-3.257012e+01
5.138726e+02	-3.261644e+01
5.168407e+02	-3.266854e+01
5.198259e+02	-3.271750e+01
5.228284e+02	-3.276628e+01
5.258482e+02	-3.282111e+01
5.288855e+02	-3.286358e+01
5.319403e+02	-3.290511e+01
5.350128e+02	-3.295979e+01
5.381030e+02	-3.301893e+01
5.412111e+02	-3.306767e+01
5.443371e+02	-3.312632e+01
5.474812e+02	-3.316898e+01
5.506434e+02	-3.321449e+01
5.538239e+02	-3.326982e+01
5.570228e+02	-3.331596e+01
5.602401e+02	-3.337079e+01
5.634760e+02	-3.341316e+01
5.667306e+02	-3.347224e+01
5.700040e+02	-3.352220e+01
5.732964e+02	-3.355997e+01
5.766077e+02	-3.361321e+01
5.799382e+02	-3.366945e+01
5.832879e+02	-3.371850e+01
5.866569e+02	-3.376987e+01
5.900454e+02	-3.382974e+01
5.934535e+02	-3.386845e+01
5.968813e+02	-3.391604e+01
6.003288e+02	-3.397328e+01
6.037963e+02	-3.402058e+01
6.072838e+02	-3.406971e+01
6.107914e+02	-3.411867e+01
6.143194e+02	-3.417876e+01
6.178676e+02	-3.422361e+01
6.214364e+02	-3.428237e+01
6.250258e+02	-3.432582e+01
6.286359e+02	-3.437259e+01
6.322669e+02	-3.442262e+01
6.359189e+02	-3.446676e+01
6.395919e+02	-3.452513e+01
6.432862e+02	-3.457959e+01
6.470017e+02	-3.462758e+01
6.507388e+02	-3.467159e+01
6.544974e+02	-3.472809e+01
6.582778e+02	-3.478598e+01
6.620800e+02	-3.483171e+01
6.659041e+02	-3.487655e+01
6.697504e+02	-3.492654e+01
6.736188e+02	-3.498709e+01
6.775096e+02	-3.502363e+01
6.814229e+02	-3.507812e+01
6.853587e+02	-3.512835e+01
6.893173e+02	-3.517844e+01
6.932988e+02	-3.522970e+01
6.973033e+02	-3.529157e+01
7.013309e+02	-3.533068e+01
