Frequency(Hz)	Magnitude(dB)
1.000000e+01	-2.177630e+00
1.005776e+01	-2.197559e+00
1.011585e+01	-2.217216e+00
1.017428e+01	-2.237084e+00
1.023305e+01	-2.257511e+00
1.029215e+01	-2.277694e+00
1.035160e+01	-2.298403e+00
1.041139e+01	-2.318844e+00
1.047153e+01	-2.339510e+00
1.053201e+01	-2.360603e+00
1.059284e+01	-2.381737e+00
1.065403e+01	-2.402877e+00
1.071556e+01	-2.424253e+00
1.077746e+01	-2.445824e+00
1.083971e+01	-2.467414e+00
1.090232e+01	-2.489009e+00
1.096529e+01	-2.510942e+00
1.102862e+01	-2.532874e+00
1.109232e+01	-2.554975e+00
1.115639e+01	-2.577210e+00
1.122083e+01	-2.599992e+00
1.128564e+01	-2.622490e+00
1.135083e+01	-2.645421e+00
1.141639e+01	-2.668069e+00
1.148233e+01	-2.691130e+00
1.154865e+01	-2.714392e+00
1.161536e+01	-2.737866e+00
1.168245e+01	-2.760993e+00
1.174992e+01	-2.784794e+00
1.181779e+01	-2.808417e+00
1.188605e+01	-2.832514e+00
1.195470e+01	-2.856343e+00
1.202375e+01	-2.880795e+00
1.209320e+01	-2.904878e+00
1.216305e+01	-2.929350e+00
1.223330e+01	-2.953901e+00
1.230396e+01	-2.978883e+00
1.237503e+01	-3.003625e+00
1.244651e+01	-3.028434e+00
1.251840e+01	-3.053922e+00
1.259070e+01	-3.079083e+00
1.266343e+01	-3.104748e+00
1.273657e+01	-3.130328e+00
1.281014e+01	-3.156145e+00
1.288413e+01	-3.182096e+00
1.295855e+01	-3.207991e+00
1.303339e+01	-3.234338e+00
1.310867e+01	-3.260624e+00
1.318439e+01	-3.287080e+00
1.326054e+01	-3.313601e+00
1.333713e+01	-3.340357e+00
1.341417e+01	-3.367576e+00
1.349165e+01	-3.394681e+00
1.356958e+01	-3.421878e+00
1.364795e+01	-3.448991e+00
1.372678e+01	-3.476512e+00
1.380607e+01	-3.504322e+00
1.388581e+01	-3.532044e+00
1.396602e+01	-3.559641e+00
1.404668e+01	-3.587675e+00
1.412782e+01	-3.616520e+00
1.420942e+01	-3.644337e+00
1.429149e+01	-3.673043e+00
1.437404e+01	-3.701419e+00
1.445706e+01	-3.730266e+00
1.454057e+01	-3.759212e+00
1.462455e+01	-3.788290e+00
1.470902e+01	-3.817449e+00
1.479398e+01	-3.846608e+00
1.487943e+01	-3.876314e+00
1.496537e+01	-3.905735e+00
1.505181e+01	-3.935589e+00
1.513875e+01	-3.965154e+00
1.522619e+01	-3.995554e+00
1.531414e+01	-4.025591e+00
1.540259e+01	-4.055712e+00
1.549156e+01	-4.086539e+00
1.558103e+01	-4.116848e+00
1.567103e+01	-4.147691e+00
1.576155e+01	-4.178390e+00
1.585258e+01	-4.209606e+00
1.594415e+01	-4.240426e+00
1.603624e+01	-4.271735e+00
1.612886e+01	-4.303327e+00
1.622202e+01	-4.334720e+00
1.631572e+01	-4.366155e+00
1.640996e+01	-4.398208e+00
1.650474e+01	-4.429936e+00
1.660008e+01	-4.462329e+00
1.669596e+01	-4.494472e+00
1.679239e+01	-4.526380e+00
1.688938e+01	-4.559233e+00
1.698694e+01	-4.591582e+00
1.708505e+01	-4.624494e+00
1.718373e+01	-4.657581e+00
1.728299e+01	-4.690008e+00
1.738281e+01	-4.723262e+00
1.748322e+01	-4.756524e+00
1.758420e+01	-4.790093e+00
1.768576e+01	-4.823246e+00
1.778792e+01	-4.857027e+00
1.789066e+01	-4.890636e+00
1.799399e+01	-4.924896e+00
1.809793e+01	-4.958457e+00
1.820246e+01	-4.992730e+00
1.830760e+01	-5.026854e+00
1.841334e+01	-5.061367e+00
1.851969e+01	-5.095902e+00
1.862666e+01	-5.130369e+00
1.873425e+01	-5.165018e+00
1.884246e+01	-5.199827e+00
1.895129e+01	-5.234946e+00
1.906075e+01	-5.269949e+00
1.917085e+01	-5.305298e+00
1.928158e+01	-5.340372e+00
1.939295e+01	-5.375954e+00
1.950496e+01	-5.411558e+00
1.961762e+01	-5.447529e+00
1.973093e+01	-5.483278e+00
1.984490e+01	-5.519251e+00
1.995952e+01	-5.555162e+00
2.007480e+01	-5.591103e+00
2.019076e+01	-5.627636e+00
2.030738e+01	-5.664134e+00
2.042467e+01	-5.700484e+00
2.054264e+01	-5.737167e+00
2.066130e+01	-5.773844e+00
2.078064e+01	-5.810666e+00
2.090066e+01	-5.847518e+00
2.102139e+01	-5.884715e+00
2.114280e+01	-5.921968e+00
2.126492e+01	-5.959176e+00
2.138775e+01	-5.996509e+00
2.151128e+01	-6.033992e+00
2.163553e+01	-6.071596e+00
2.176050e+01	-6.109589e+00
2.188619e+01	-6.147107e+00
2.201260e+01	-6.185062e+00
2.213974e+01	-6.222953e+00
2.226762e+01	-6.261320e+00
2.239624e+01	-6.299383e+00
2.252560e+01	-6.337762e+00
2.265571e+01	-6.376437e+00
2.278656e+01	-6.414962e+00
2.291818e+01	-6.453785e+00
2.305055e+01	-6.492263e+00
2.318369e+01	-6.531322e+00
2.331760e+01	-6.570067e+00
2.345228e+01	-6.609425e+00
2.358774e+01	-6.648348e+00
2.372398e+01	-6.687294e+00
2.386101e+01	-6.727020e+00
2.399883e+01	-6.766335e+00
2.413745e+01	-6.805954e+00
2.427686e+01	-6.845775e+00
2.441709e+01	-6.885267e+00
2.455812e+01	-6.925157e+00
2.469997e+01	-6.965306e+00
2.484263e+01	-7.005062e+00
2.498612e+01	-7.045162e+00
2.513044e+01	-7.085242e+00
2.527559e+01	-7.125354e+00
2.542158e+01	-7.166272e+00
2.556842e+01	-7.206565e+00
2.571610e+01	-7.246906e+00
2.586463e+01	-7.287431e+00
2.601403e+01	-7.328709e+00
2.616428e+01	-7.369003e+00
2.631541e+01	-7.410358e+00
2.646740e+01	-7.451028e+00
2.662028e+01	-7.492652e+00
2.677404e+01	-7.533187e+00
2.692868e+01	-7.574830e+00
2.708422e+01	-7.615962e+00
2.724066e+01	-7.657723e+00
2.739800e+01	-7.699175e+00
2.755625e+01	-7.740339e+00
2.771541e+01	-7.781955e+00
2.787550e+01	-7.823377e+00
2.803650e+01	-7.866121e+00
2.819844e+01	-7.907441e+00
2.836131e+01	-7.949307e+00
2.852513e+01	-7.991439e+00
2.868989e+01	-8.033383e+00
2.885560e+01	-8.075562e+00
2.902227e+01	-8.118015e+00
2.918990e+01	-8.160548e+00
2.935850e+01	-8.203005e+00
2.952807e+01	-8.245589e+00
2.969863e+01	-8.287656e+00
2.987016e+01	-8.330673e+00
3.004269e+01	-8.373226e+00
3.021622e+01	-8.416357e+00
3.039075e+01	-8.458723e+00
3.056628e+01	-8.501654e+00
3.074283e+01	-8.544585e+00
3.092040e+01	-8.587942e+00
3.109900e+01	-8.631177e+00
3.127862e+01	-8.674293e+00
3.145929e+01	-8.717670e+00
3.164099e+01	-8.760358e+00
3.182375e+01	-8.804300e+00
3.200756e+01	-8.847651e+00
3.219244e+01	-8.891105e+00
3.237838e+01	-8.934849e+00
3.256540e+01	-8.978123e+00
3.275349e+01	-9.022398e+00
3.294268e+01	-9.065747e+00
3.313295e+01	-9.110188e+00
3.332433e+01	-9.153694e+00
3.351681e+01	-9.197827e+00
3.371040e+01	-9.241866e+00
3.390511e+01	-9.285597e+00
3.410094e+01	-9.330181e+00
3.429791e+01	-9.373992e+00
3.449601e+01	-9.418560e+00
3.469526e+01	-9.462925e+00
3.489566e+01	-9.507200e+00
3.509721e+01	-9.551433e+00
3.529993e+01	-9.596521e+00
3.550382e+01	-9.640809e+00
3.570889e+01	-9.685084e+00
3.591515e+01	-9.729985e+00
3.612259e+01	-9.775119e+00
3.633123e+01	-9.819737e+00
3.654108e+01	-9.864224e+00
3.675214e+01	-9.909151e+00
3.696442e+01	-9.953814e+00
3.717792e+01	-9.999288e+00
3.739266e+01	-1.004440e+01
3.760864e+01	-1.008946e+01
3.782587e+01	-1.013499e+01
3.804435e+01	-1.017953e+01
3.826409e+01	-1.022512e+01
3.848510e+01	-1.027014e+01
3.870739e+01	-1.031562e+01
3.893096e+01	-1.036076e+01
3.915583e+01	-1.040679e+01
3.938199e+01	-1.045177e+01
3.960946e+01	-1.049763e+01
3.983824e+01	-1.054321e+01
4.006834e+01	-1.058891e+01
4.029978e+01	-1.063430e+01
4.053255e+01	-1.068006e+01
4.076666e+01	-1.072587e+01
4.100213e+01	-1.077164e+01
4.123896e+01	-1.081791e+01
4.147715e+01	-1.086367e+01
4.171672e+01	-1.090977e+01
4.195767e+01	-1.095527e+01
4.220002e+01	-1.100149e+01
4.244377e+01	-1.104741e+01
4.268892e+01	-1.109365e+01
4.293549e+01	-1.113974e+01
4.318348e+01	-1.118629e+01
4.343291e+01	-1.123246e+01
4.368377e+01	-1.127858e+01
4.393609e+01	-1.132552e+01
4.418986e+01	-1.137110e+01
4.444510e+01	-1.141769e+01
4.470182e+01	-1.146407e+01
4.496001e+01	-1.151055e+01
4.521970e+01	-1.155747e+01
4.548089e+01	-1.160347e+01
4.574358e+01	-1.165031e+01
4.600779e+01	-1.169702e+01
4.627353e+01	-1.174405e+01
4.654081e+01	-1.179006e+01
4.680963e+01	-1.183682e+01
4.708000e+01	-1.188417e+01
4.735193e+01	-1.193037e+01
4.762543e+01	-1.197739e+01
4.790051e+01	-1.202455e+01
4.817719e+01	-1.207073e+01
4.845545e+01	-1.211833e+01
4.873533e+01	-1.216507e+01
4.901682e+01	-1.221180e+01
4.929994e+01	-1.225863e+01
4.958470e+01	-1.230565e+01
4.987110e+01	-1.235334e+01
5.015915e+01	-1.240082e+01
5.044887e+01	-1.244738e+01
5.074026e+01	-1.249487e+01
5.103333e+01	-1.254174e+01
5.132810e+01	-1.258896e+01
5.162457e+01	-1.263576e+01
5.192275e+01	-1.268298e+01
5.222265e+01	-1.273113e+01
5.252429e+01	-1.277869e+01
5.282767e+01	-1.282559e+01
5.313280e+01	-1.287337e+01
5.343969e+01	-1.292071e+01
5.374836e+01	-1.296825e+01
5.405880e+01	-1.301617e+01
5.437105e+01	-1.306381e+01
5.468509e+01	-1.311151e+01
5.500095e+01	-1.315915e+01
5.531863e+01	-1.320677e+01
5.563815e+01	-1.325415e+01
5.595951e+01	-1.330066e+01
5.628273e+01	-1.334911e+01
5.660782e+01	-1.339642e+01
5.693479e+01	-1.344362e+01
5.726364e+01	-1.349175e+01
5.759439e+01	-1.354050e+01
5.792705e+01	-1.358797e+01
5.826164e+01	-1.363624e+01
5.859815e+01	-1.368355e+01
5.893662e+01	-1.373146e+01
5.927703e+01	-1.378049e+01
5.961941e+01	-1.382702e+01
5.996377e+01	-1.387504e+01
6.031012e+01	-1.392308e+01
6.065847e+01	-1.397153e+01
6.100883e+01	-1.401884e+01
6.136121e+01	-1.406780e+01
6.171563e+01	-1.411504e+01
6.207210e+01	-1.416404e+01
6.243063e+01	-1.421209e+01
6.279122e+01	-1.425987e+01
6.315390e+01	-1.430760e+01
6.351868e+01	-1.435676e+01
6.388556e+01	-1.440518e+01
6.425456e+01	-1.445219e+01
6.462569e+01	-1.450010e+01
6.499897e+01	-1.454876e+01
6.537440e+01	-1.459753e+01
6.575200e+01	-1.464609e+01
6.613178e+01	-1.469361e+01
6.651375e+01	-1.474304e+01
6.689793e+01	-1.479107e+01
6.728433e+01	-1.483868e+01
6.767297e+01	-1.488753e+01
6.806384e+01	-1.493599e+01
6.845698e+01	-1.498399e+01
6.885238e+01	-1.503405e+01
6.925007e+01	-1.508117e+01
6.965005e+01	-1.512970e+01
7.005235e+01	-1.517914e+01
7.045697e+01	-1.522697e+01
7.086393e+01	-1.527577e+01
7.127323e+01	-1.532420e+01
7.168490e+01	-1.537170e+01
7.209895e+01	-1.542104e+01
7.251539e+01	-1.547036e+01
7.293424e+01	-1.551803e+01
7.335551e+01	-1.556751e+01
7.377920e+01	-1.561642e+01
7.420535e+01	-1.566371e+01
7.463396e+01	-1.571312e+01
7.506504e+01	-1.576152e+01
7.549861e+01	-1.581106e+01
7.593469e+01	-1.585988e+01
7.637328e+01	-1.590803e+01
7.681441e+01	-1.595535e+01
7.725809e+01	-1.600573e+01
7.770433e+01	-1.605393e+01
7.815315e+01	-1.610265e+01
7.860456e+01	-1.615286e+01
7.905857e+01	-1.620033e+01
7.951521e+01	-1.624845e+01
7.997449e+01	-1.629836e+01
8.043642e+01	-1.634645e+01
8.090102e+01	-1.639645e+01
8.136830e+01	-1.644497e+01
8.183828e+01	-1.649314e+01
8.231097e+01	-1.654253e+01
8.278640e+01	-1.659140e+01
8.326457e+01	-1.663992e+01
8.374550e+01	-1.668947e+01
8.422921e+01	-1.673835e+01
8.471572e+01	-1.678785e+01
8.520503e+01	-1.683642e+01
8.569717e+01	-1.688473e+01
8.619215e+01	-1.693491e+01
8.669000e+01	-1.698214e+01
8.719071e+01	-1.703214e+01
8.769432e+01	-1.708134e+01
8.820084e+01	-1.713143e+01
8.871029e+01	-1.717957e+01
8.922267e+01	-1.722793e+01
8.973802e+01	-1.727759e+01
9.025634e+01	-1.732601e+01
9.077766e+01	-1.737636e+01
9.130199e+01	-1.742486e+01
9.182935e+01	-1.747362e+01
9.235975e+01	-1.752325e+01
9.289321e+01	-1.757296e+01
9.342976e+01	-1.762241e+01
9.396941e+01	-1.767156e+01
9.451217e+01	-1.771958e+01
9.505807e+01	-1.776979e+01
9.560712e+01	-1.781940e+01
9.615934e+01	-1.786844e+01
9.671476e+01	-1.791655e+01
9.727338e+01	-1.796677e+01
9.783522e+01	-1.801519e+01
9.840032e+01	-1.806534e+01
9.896867e+01	-1.811381e+01
9.954031e+01	-1.816374e+01
1.001153e+02	-1.821170e+01
1.006935e+02	-1.826262e+01
1.012751e+02	-1.831081e+01
1.018601e+02	-1.836078e+01
1.024484e+02	-1.841066e+01
1.030402e+02	-1.845955e+01
1.036353e+02	-1.850934e+01
1.042339e+02	-1.855691e+01
1.048360e+02	-1.860706e+01
1.054415e+02	-1.865607e+01
1.060505e+02	-1.870472e+01
1.066631e+02	-1.875548e+01
1.072791e+02	-1.880509e+01
1.078988e+02	-1.885316e+01
1.085220e+02	-1.890283e+01
1.091488e+02	-1.895351e+01
1.097793e+02	-1.900198e+01
1.104133e+02	-1.905141e+01
1.110511e+02	-1.910222e+01
1.116925e+02	-1.915009e+01
1.123376e+02	-1.919970e+01
1.129865e+02	-1.924845e+01
1.136391e+02	-1.929796e+01
1.142955e+02	-1.934811e+01
1.149556e+02	-1.939673e+01
1.156196e+02	-1.944750e+01
1.162874e+02	-1.949615e+01
1.169591e+02	-1.954651e+01
1.176347e+02	-1.959357e+01
1.183141e+02	-1.964530e+01
1.189975e+02	-1.969396e+01
1.196848e+02	-1.974423e+01
1.203761e+02	-1.979257e+01
1.210714e+02	-1.984379e+01
1.217707e+02	-1.989213e+01
1.224740e+02	-1.994181e+01
1.231814e+02	-1.999040e+01
1.238929e+02	-2.004063e+01
1.246085e+02	-2.008967e+01
1.253283e+02	-2.013950e+01
1.260522e+02	-2.018959e+01
1.267802e+02	-2.023746e+01
1.275125e+02	-2.028811e+01
1.282490e+02	-2.033908e+01
1.289898e+02	-2.038881e+01
1.297348e+02	-2.043832e+01
1.304842e+02	-2.048653e+01
1.312378e+02	-2.053676e+01
1.319959e+02	-2.058745e+01
1.327583e+02	-2.063545e+01
1.335251e+02	-2.068453e+01
1.342963e+02	-2.073517e+01
1.350720e+02	-2.078613e+01
1.358522e+02	-2.083439e+01
1.366368e+02	-2.088452e+01
1.374260e+02	-2.093494e+01
1.382198e+02	-2.098252e+01
1.390182e+02	-2.103273e+01
1.398211e+02	-2.108325e+01
1.406287e+02	-2.113310e+01
1.414410e+02	-2.118097e+01
1.422579e+02	-2.122924e+01
1.430796e+02	-2.128252e+01
1.439060e+02	-2.133054e+01
1.447372e+02	-2.138144e+01
1.455732e+02	-2.143099e+01
1.464141e+02	-2.147920e+01
1.472597e+02	-2.152938e+01
1.481103e+02	-2.157981e+01
1.489658e+02	-2.162851e+01
1.498262e+02	-2.167864e+01
1.506916e+02	-2.172928e+01
1.515620e+02	-2.177759e+01
1.524374e+02	-2.182839e+01
1.533179e+02	-2.187768e+01
1.542034e+02	-2.192763e+01
1.550941e+02	-2.197693e+01
1.559899e+02	-2.202698e+01
1.568909e+02	-2.207501e+01
1.577971e+02	-2.212596e+01
1.587085e+02	-2.217597e+01
1.596252e+02	-2.222604e+01
1.605472e+02	-2.227788e+01
1.614745e+02	-2.232590e+01
1.624072e+02	-2.237736e+01
1.633453e+02	-2.242636e+01
1.642887e+02	-2.247377e+01
1.652377e+02	-2.252361e+01
1.661921e+02	-2.257400e+01
1.671520e+02	-2.262349e+01
1.681175e+02	-2.267301e+01
1.690885e+02	-2.272591e+01
1.700651e+02	-2.277306e+01
1.710474e+02	-2.282299e+01
1.720354e+02	-2.287281e+01
1.730291e+02	-2.292260e+01
1.740285e+02	-2.297282e+01
1.750337e+02	-2.302030e+01
1.760446e+02	-2.307061e+01
1.770615e+02	-2.312431e+01
1.780842e+02	-2.317141e+01
1.791128e+02	-2.322107e+01
1.801473e+02	-2.327210e+01
1.811878e+02	-2.331969e+01
1.822344e+02	-2.336912e+01
1.832870e+02	-2.342112e+01
1.843456e+02	-2.346984e+01
1.854104e+02	-2.352000e+01
1.864813e+02	-2.356885e+01
1.875584e+02	-2.362038e+01
1.886418e+02	-2.366867e+01
1.897313e+02	-2.371838e+01
1.908272e+02	-2.376802e+01
1.919294e+02	-2.382009e+01
1.930380e+02	-2.386974e+01
1.941530e+02	-2.391883e+01
1.952744e+02	-2.396857e+01
1.964023e+02	-2.401962e+01
1.975367e+02	-2.406757e+01
1.986777e+02	-2.412001e+01
1.998252e+02	-2.416884e+01
2.009794e+02	-2.422003e+01
2.021403e+02	-2.426839e+01
2.033078e+02	-2.431760e+01
2.044821e+02	-2.436588e+01
2.056632e+02	-2.441742e+01
2.068511e+02	-2.446670e+01
2.080459e+02	-2.451931e+01
2.092475e+02	-2.456803e+01
2.104561e+02	-2.461481e+01
2.116717e+02	-2.466928e+01
2.128943e+02	-2.471648e+01
2.141240e+02	-2.476513e+01
2.153608e+02	-2.481681e+01
2.166047e+02	-2.486448e+01
2.178558e+02	-2.491689e+01
2.191141e+02	-2.496599e+01
2.203797e+02	-2.501549e+01
2.216526e+02	-2.506614e+01
2.229329e+02	-2.511400e+01
2.242205e+02	-2.516711e+01
2.255156e+02	-2.521415e+01
2.268182e+02	-2.526486e+01
2.281283e+02	-2.531459e+01
2.294459e+02	-2.536582e+01
2.307712e+02	-2.541840e+01
2.321041e+02	-2.546439e+01
2.334447e+02	-2.551700e+01
2.347931e+02	-2.556439e+01
2.361493e+02	-2.561786e+01
2.375133e+02	-2.566533e+01
2.388851e+02	-2.571412e+01
2.402649e+02	-2.576743e+01
2.416527e+02	-2.581437e+01
2.430484e+02	-2.586255e+01
2.444523e+02	-2.591487e+01
2.458642e+02	-2.596339e+01
2.472843e+02	-2.601381e+01
2.487126e+02	-2.606354e+01
2.501492e+02	-2.611526e+01
2.515940e+02	-2.616308e+01
2.530472e+02	-2.621695e+01
2.545088e+02	-2.626568e+01
2.559789e+02	-2.631604e+01
2.574574e+02	-2.636453e+01
2.589444e+02	-2.641280e+01
2.604401e+02	-2.646257e+01
2.619444e+02	-2.650934e+01
2.634574e+02	-2.656378e+01
2.649791e+02	-2.660909e+01
2.665096e+02	-2.666427e+01
2.680489e+02	-2.671173e+01
2.695972e+02	-2.676031e+01
2.711544e+02	-2.681527e+01
2.727205e+02	-2.686624e+01
2.742958e+02	-2.691563e+01
2.758801e+02	-2.696384e+01
2.774736e+02	-2.701358e+01
2.790762e+02	-2.706465e+01
2.806882e+02	-2.711190e+01
2.823094e+02	-2.716353e+01
2.839400e+02	-2.721588e+01
2.855800e+02	-2.726520e+01
2.872295e+02	-2.731711e+01
2.888886e+02	-2.736399e+01
2.905572e+02	-2.741051e+01
2.922354e+02	-2.746595e+01
2.939234e+02	-2.751081e+01
2.956211e+02	-2.756594e+01
2.973286e+02	-2.761821e+01
2.990459e+02	-2.766387e+01
3.007732e+02	-2.771060e+01
3.025104e+02	-2.776848e+01
3.042577e+02	-2.781719e+01
3.060151e+02	-2.786538e+01
3.077826e+02	-2.791450e+01
3.095604e+02	-2.796492e+01
3.113484e+02	-2.801520e+01
3.131467e+02	-2.806470e+01
3.149554e+02	-2.811430e+01
3.167746e+02	-2.816618e+01
3.186043e+02	-2.821411e+01
3.204445e+02	-2.826086e+01
3.222954e+02	-2.831484e+01
3.241570e+02	-2.836510e+01
3.260293e+02	-2.841505e+01
3.279124e+02	-2.846440e+01
3.298064e+02	-2.851549e+01
3.317114e+02	-2.856608e+01
3.336273e+02	-2.861191e+01
3.355544e+02	-2.866559e+01
3.374925e+02	-2.871501e+01
3.394418e+02	-2.876738e+01
3.414024e+02	-2.880862e+01
3.433744e+02	-2.886385e+01
3.453577e+02	-2.891886e+01
3.473525e+02	-2.896466e+01
3.493588e+02	-2.901266e+01
3.513766e+02	-2.906213e+01
3.534062e+02	-2.911441e+01
3.554474e+02	-2.916381e+01
3.575005e+02	-2.921453e+01
3.595654e+02	-2.926848e+01
3.616422e+02	-2.931182e+01
3.637311e+02	-2.935995e+01
3.658320e+02	-2.941280e+01
3.679450e+02	-2.946934e+01
3.700702e+02	-2.951430e+01
3.722077e+02	-2.957273e+01
3.743576e+02	-2.961054e+01
3.765199e+02	-2.966386e+01
3.786946e+02	-2.970960e+01
3.808820e+02	-2.976795e+01
3.830819e+02	-2.982002e+01
3.852946e+02	-2.986308e+01
3.875200e+02	-2.991624e+01
3.897583e+02	-2.996592e+01
3.920096e+02	-3.001831e+01
3.942738e+02	-3.006646e+01
3.965511e+02	-3.011635e+01
3.988416e+02	-3.016455e+01
4.011452e+02	-3.021643e+01
4.034622e+02	-3.026491e+01
4.057926e+02	-3.031641e+01
4.081365e+02	-3.036525e+01
4.104938e+02	-3.041479e+01
4.128648e+02	-3.046692e+01
4.152495e+02	-3.051128e+01
4.176480e+02	-3.056623e+01
4.200603e+02	-3.061537e+01
4.224866e+02	-3.066709e+01
4.249268e+02	-3.072285e+01
4.273812e+02	-3.077083e+01
4.298497e+02	-3.081247e+01
4.323325e+02	-3.087368e+01
4.348297e+02	-3.091578e+01
4.373412e+02	-3.097059e+01
4.398673e+02	-3.101552e+01
4.424079e+02	-3.107058e+01
4.449633e+02	-3.111694e+01
4.475334e+02	-3.117145e+01
4.501183e+02	-3.122295e+01
4.527182e+02	-3.126977e+01
4.553330e+02	-3.132495e+01
4.579630e+02	-3.136406e+01
4.606082e+02	-3.141769e+01
4.632687e+02	-3.147290e+01
4.659445e+02	-3.151661e+01
4.686358e+02	-3.156717e+01
4.713426e+02	-3.161820e+01
4.740650e+02	-3.166548e+01
4.768032e+02	-3.171917e+01
4.795572e+02	-3.177532e+01
4.823271e+02	-3.182423e+01
4.851130e+02	-3.187589e+01
4.879150e+02	-3.192321e+01
4.907332e+02	-3.196872e+01
4.935676e+02	-3.202279e+01
4.964185e+02	-3.207692e+01
4.992858e+02	-3.212235e+01
5.021696e+02	-3.217476e+01
5.050701e+02	-3.222668e+01
5.079874e+02	-3.227203e+01
5.109215e+02	-3.232858e+01
5.138726e+02	-3.237161e+01
5.168407e+02	-3.242478e+01
5.198259e+02	-3.247799e+01
5.228284e+02	-3.252044e+01
5.258482e+02	-3.257826e+01
5.288855e+02	-3.262466e+01
5.319403e+02	-3.267054e+01
5.350128e+02	-3.272707e+01
5.381030e+02	-3.277495e+01
5.412111e+02	-3.282788e+01
5.443371e+02	-3.287112e+01
5.474812e+02	-3.292704e+01
5.506434e+02	-3.297280e+01
5.538239e+02	-3.303303e+01
5.570228e+02	-3.307830e+01
5.602401e+02	-3.312454e+01
5.634760e+02	-3.318041e+01
5.667306e+02	-3.322334e+01
5.700040e+02	-3.328025e+01
5.732964e+02	-3.332823e+01
5.766077e+02	-3.337549e+01
5.799382e+02	-3.342804e+01
5.832879e+02	-3.347956e+01
5.866569e+02	-3.352644e+01
5.900454e+02	-3.357864e+01
5.934535e+02	-3.362782e+01
5.968813e+02	-3.367980e+01
6.003288e+02	-3.372708e+01
6.037963e+02	-3.378346e+01
6.072838e+02	-3.383384e+01
6.107914e+02	-3.388441e+01
6.143194e+02	-3.392650e+01
6.178676e+02	-3.397775e+01
6.214364e+02	-3.403236e+01
6.250258e+02	-3.408232e+01
6.286359e+02	-3.412520e+01
6.322669e+02	-3.418047e+01
6.359189e+02	-3.423550e+01
6.395919e+02	-3.428293e+01
6.432862e+02	-3.433439e+01
6.470017e+02	-3.438245e+01
6.507388e+02	-3.443525e+01
6.544974e+02	-3.448626e+01
6.582778e+02	-3.453297e+01
6.620800e+02	-3.458234e+01
6.659041e+02	-3.463728e+01
6.697504e+02	-3.468823e+01
6.736188e+02	-3.474370e+01
6.775096e+02	-3.479022e+01
6.814229e+02	-3.483938e+01
6.853587e+02	-3.488690e+01
6.893173e+02	-3.494193e+01
6.932988e+02	-3.498441e+01
6.973033e+02	-3.503658e+01
7.013309e+02	-3.508533e+01
